"SPL Horizontal"
"On-Axis"		"10°"		"-10°"		"20°"		"-20°"		"30°"		"-30°"		"40°"		"-40°"		"50°"		"-50°"		"60°"		"-60°"		"70°"		"-70°"		"80°"		"-80°"		"90°"		"-90°"		"100°"		"-100°"		"110°"		"-110°"		"120°"		"-120°"		"130°"		"-130°"		"140°"		"-140°"		"150°"		"-150°"		"160°"		"-160°"		"170°"		"-170°"		"180°"
"Frequency / Hz"	"Sound Pressure Level / dB (re 20 µPa/V)  [2.83V at 1m]"	"Frequency / Hz"	"Sound Pressure Level / dB (re 20 µPa/V)  [2.83V at 1m]"	"Frequency / Hz"	"Sound Pressure Level / dB (re 20 µPa/V)  [2.83V at 1m]"	"Frequency / Hz"	"Sound Pressure Level / dB (re 20 µPa/V)  [2.83V at 1m]"	"Frequency / Hz"	"Sound Pressure Level / dB (re 20 µPa/V)  [2.83V at 1m]"	"Frequency / Hz"	"Sound Pressure Level / dB (re 20 µPa/V)  [2.83V at 1m]"	"Frequency / Hz"	"Sound Pressure Level / dB (re 20 µPa/V)  [2.83V at 1m]"	"Frequency / Hz"	"Sound Pressure Level / dB (re 20 µPa/V)  [2.83V at 1m]"	"Frequency / Hz"	"Sound Pressure Level / dB (re 20 µPa/V)  [2.83V at 1m]"	"Frequency / Hz"	"Sound Pressure Level / dB (re 20 µPa/V)  [2.83V at 1m]"	"Frequency / Hz"	"Sound Pressure Level / dB (re 20 µPa/V)  [2.83V at 1m]"	"Frequency / Hz"	"Sound Pressure Level / dB (re 20 µPa/V)  [2.83V at 1m]"	"Frequency / Hz"	"Sound Pressure Level / dB (re 20 µPa/V)  [2.83V at 1m]"	"Frequency / Hz"	"Sound Pressure Level / dB (re 20 µPa/V)  [2.83V at 1m]"	"Frequency / Hz"	"Sound Pressure Level / dB (re 20 µPa/V)  [2.83V at 1m]"	"Frequency / Hz"	"Sound Pressure Level / dB (re 20 µPa/V)  [2.83V at 1m]"	"Frequency / Hz"	"Sound Pressure Level / dB (re 20 µPa/V)  [2.83V at 1m]"	"Frequency / Hz"	"Sound Pressure Level / dB (re 20 µPa/V)  [2.83V at 1m]"	"Frequency / Hz"	"Sound Pressure Level / dB (re 20 µPa/V)  [2.83V at 1m]"	"Frequency / Hz"	"Sound Pressure Level / dB (re 20 µPa/V)  [2.83V at 1m]"	"Frequency / Hz"	"Sound Pressure Level / dB (re 20 µPa/V)  [2.83V at 1m]"	"Frequency / Hz"	"Sound Pressure Level / dB (re 20 µPa/V)  [2.83V at 1m]"	"Frequency / Hz"	"Sound Pressure Level / dB (re 20 µPa/V)  [2.83V at 1m]"	"Frequency / Hz"	"Sound Pressure Level / dB (re 20 µPa/V)  [2.83V at 1m]"	"Frequency / Hz"	"Sound Pressure Level / dB (re 20 µPa/V)  [2.83V at 1m]"	"Frequency / Hz"	"Sound Pressure Level / dB (re 20 µPa/V)  [2.83V at 1m]"	"Frequency / Hz"	"Sound Pressure Level / dB (re 20 µPa/V)  [2.83V at 1m]"	"Frequency / Hz"	"Sound Pressure Level / dB (re 20 µPa/V)  [2.83V at 1m]"	"Frequency / Hz"	"Sound Pressure Level / dB (re 20 µPa/V)  [2.83V at 1m]"	"Frequency / Hz"	"Sound Pressure Level / dB (re 20 µPa/V)  [2.83V at 1m]"	"Frequency / Hz"	"Sound Pressure Level / dB (re 20 µPa/V)  [2.83V at 1m]"	"Frequency / Hz"	"Sound Pressure Level / dB (re 20 µPa/V)  [2.83V at 1m]"	"Frequency / Hz"	"Sound Pressure Level / dB (re 20 µPa/V)  [2.83V at 1m]"	"Frequency / Hz"	"Sound Pressure Level / dB (re 20 µPa/V)  [2.83V at 1m]"	"Frequency / Hz"	"Sound Pressure Level / dB (re 20 µPa/V)  [2.83V at 1m]"	"Frequency / Hz"	"Sound Pressure Level / dB (re 20 µPa/V)  [2.83V at 1m]"
20.5078	58.4678	20.5078	58.3623	20.5078	58.5155	20.5078	58.2221	20.5078	58.5121	20.5078	58.1049	20.5078	58.4933	20.5078	58.1054	20.5078	58.5245	20.5078	58.3381	20.5078	58.6948	20.5078	58.8881	20.5078	59.0917	20.5078	59.7562	20.5078	59.7595	20.5078	60.8562	20.5078	60.6715	20.5078	62.0673	20.5078	61.7452	20.5078	63.2841	20.5078	62.8834	20.5078	64.4335	20.5078	64.0046	20.5078	65.4706	20.5078	65.051	20.5078	66.3684	20.5078	65.9853	20.5078	67.1104	20.5078	66.7833	20.5078	67.6861	20.5078	67.4291	20.5078	68.0882	20.5078	67.9114	20.5078	68.3126	20.5078	68.2225	20.5078	68.3572
21.9727	61.7709	21.9727	61.7037	21.9727	61.7476	21.9727	61.5651	21.9727	61.6365	21.9727	61.4002	21.9727	61.4632	21.9727	61.2876	21.9727	61.2825	21.9727	61.336	21.9727	61.1847	21.9727	61.6544	21.9727	61.2871	21.9727	62.2961	21.9727	61.6925	21.9727	63.2215	21.9727	62.429	21.9727	64.3244	21.9727	63.4291	21.9727	65.488	21.9727	64.5734	21.9727	66.6212	21.9727	65.7482	21.9727	67.6635	21.9727	66.8706	21.9727	68.5769	21.9727	67.8882	21.9727	69.337	21.9727	68.7684	21.9727	69.927	21.9727	69.49	21.9727	70.3349	21.9727	70.0382	21.9727	70.5522	21.9727	70.4022	21.9727	70.5748
23.4375	64.565	23.4375	64.5307	23.4375	64.5657	23.4375	64.4774	23.4375	64.5358	23.4375	64.438	23.4375	64.4962	23.4375	64.4633	23.4375	64.4861	23.4375	64.6159	23.4375	64.5612	23.4375	64.9527	23.4375	64.7834	23.4375	65.5009	23.4375	65.2002	23.4375	66.2429	23.4375	65.8224	23.4375	67.1226	23.4375	66.6168	23.4375	68.0685	23.4375	67.5202	23.4375	69.0131	23.4375	68.4624	23.4375	69.9029	23.4375	69.3819	23.4375	70.6982	23.4375	70.2312	23.4375	71.3705	23.4375	70.9759	23.4375	71.8996	23.4375	71.5913	23.4375	72.2709	23.4375	72.0594	23.4375	72.4751	23.4375	72.3675	23.4375	72.5074
24.9023	67.2949	24.9023	67.2705	24.9023	67.3186	24.9023	67.2558	24.9023	67.3446	24.9023	67.274	24.9023	67.388	24.9023	67.3593	24.9023	67.4756	24.9023	67.5509	24.9023	67.6415	24.9023	67.8831	24.9023	67.9197	24.9023	68.3714	24.9023	68.3337	24.9023	69.0052	24.9023	68.8862	24.9023	69.7493	24.9023	69.5569	24.9023	70.5549	24.9023	70.3074	24.9023	71.3708	24.9023	71.0916	24.9023	72.152	24.9023	71.8645	24.9023	72.8613	24.9023	72.5872	24.9023	73.47	24.9023	73.2275	24.9023	73.9559	24.9023	73.7602	24.9023	74.3031	24.9023	74.1658	24.9023	74.5006	24.9023	74.4299	24.9023	74.5431
26.3672	72.3409	26.3672	72.36	26.3672	72.3336	26.3672	72.3983	26.3672	72.3369	26.3672	72.4685	26.3672	72.3562	26.3672	72.5874	26.3672	72.403	26.3672	72.7727	26.3672	72.4939	26.3672	73.0391	26.3672	72.648	26.3672	73.3938	26.3672	72.8829	26.3672	73.8332	26.3672	73.2097	26.3672	74.3424	26.3672	73.6289	26.3672	74.8969	26.3672	74.128	26.3672	75.4669	26.3672	74.6835	26.3672	76.0211	26.3672	75.2648	26.3672	76.5297	26.3672	75.8389	26.3672	76.9664	26.3672	76.3738	26.3672	77.3092	26.3672	76.8414	26.3672	77.5412	26.3672	77.2181	26.3672	77.6507	26.3672	77.4858	26.3672	77.6321
27.832	74.6357	27.832	74.66	27.832	74.6303	27.832	74.7079	27.832	74.6433	27.832	74.7881	27.832	74.6788	27.832	74.912	27.832	74.7452	27.832	75.0917	27.832	74.8541	27.832	75.3371	27.832	75.0183	27.832	75.6535	27.832	75.2493	27.832	76.0387	27.832	75.5538	27.832	76.4823	27.832	75.9313	27.832	76.9665	27.832	76.3722	27.832	77.4677	27.832	76.8586	27.832	77.9599	27.832	77.3668	27.832	78.4167	27.832	77.8698	27.832	78.8137	27.832	78.3402	27.832	79.1295	27.832	78.7527	27.832	79.3469	27.832	79.0851	27.832	79.4541	27.832	79.32	27.832	79.4451
29.2969	77.1425	29.2969	77.1687	29.2969	77.1361	29.2969	77.2179	29.2969	77.1493	29.2969	77.2957	29.2969	77.1845	29.2969	77.409	29.2969	77.247	29.2969	77.5654	29.2969	77.3441	29.2969	77.7715	29.2969	77.4839	29.2969	78.0308	29.2969	77.6742	29.2969	78.3425	29.2969	77.92	29.2969	78.7001	29.2969	78.2219	29.2969	79.0915	29.2969	78.5746	29.2969	79.5	29.2969	78.9667	29.2969	79.9051	29.2969	79.3812	29.2969	80.2851	29.2969	79.7973	29.2969	80.6182	29.2969	80.1922	29.2969	80.8848	29.2969	80.5433	29.2969	81.0686	29.2969	80.83	29.2969	81.1578	29.2969	81.0352	29.2969	81.1466
30.7617	78.8929	30.7617	78.9206	30.7617	78.8848	30.7617	78.9699	30.7617	78.8961	30.7617	79.0445	30.7617	78.9286	30.7617	79.1489	30.7617	78.9857	30.7617	79.2882	30.7617	79.0726	30.7617	79.4668	30.7617	79.1947	30.7617	79.6871	30.7617	79.3576	30.7617	79.9488	30.7617	79.5649	30.7617	80.2474	30.7617	79.8174	30.7617	80.5744	30.7617	80.1117	30.7617	80.9168	30.7617	80.4398	30.7617	81.2585	30.7617	80.7889	30.7617	81.5812	30.7617	81.1423	30.7617	81.866	30.7617	81.4809	30.7617	82.0949	30.7617	81.7849	30.7617	82.2527	30.7617	82.0355	30.7617	82.3284	30.7617	82.2165	30.7617	82.3162
32.2266	80.2088	32.2266	80.2361	32.2266	80.2012	32.2266	80.2845	32.2266	80.2134	32.2266	80.3564	32.2266	80.2463	32.2266	80.4551	32.2266	80.3025	32.2266	80.5837	32.2266	80.3853	32.2266	80.7451	32.2266	80.4986	32.2266	80.9411	32.2266	80.6461	32.2266	81.171	32.2266	80.8303	32.2266	81.4316	32.2266	81.0518	32.2266	81.7161	32.2266	81.3081	32.2266	82.0143	32.2266	81.5929	32.2266	82.3127	32.2266	81.8963	32.2266	82.5956	32.2266	82.2046	32.2266	82.8463	32.2266	82.5016	32.2266	83.0485	32.2266	82.7697	32.2266	83.1881	32.2266	82.992	32.2266	83.2548	32.2266	83.1535	32.2266	83.2431
33.6914	81.0669	33.6914	81.0936	33.6914	81.0604	33.6914	81.1414	33.6914	81.0741	33.6914	81.2119	33.6914	81.1087	33.6914	81.3069	33.6914	81.1656	33.6914	81.4286	33.6914	81.247	33.6914	81.5785	33.6914	81.3553	33.6914	81.7574	33.6914	81.4928	33.6914	81.9645	33.6914	81.661	33.6914	82.1968	33.6914	81.8599	33.6914	82.4486	33.6914	82.0873	33.6914	82.7116	33.6914	82.3384	33.6914	82.9744	33.6914	82.6049	33.6914	83.2237	33.6914	82.8756	33.6914	83.4449	33.6914	83.1369	33.6914	83.6235	33.6914	83.3736	33.6914	83.7469	33.6914	83.5706	33.6914	83.8055	33.6914	83.7143	33.6914	83.7945
35.1562	81.7235	35.1562	81.7496	35.1562	81.7167	35.1562	81.7953	35.1562	81.729	35.1562	81.8616	35.1562	81.7609	35.1562	81.9494	35.1562	81.8131	35.1562	82.0599	35.1562	81.8869	35.1562	82.1936	35.1562	81.9837	35.1562	82.3509	35.1562	82.1048	35.1562	82.5306	35.1562	82.251	35.1562	82.7304	35.1562	82.4222	35.1562	82.9455	35.1562	82.6166	35.1562	83.1694	35.1562	82.8305	35.1562	83.3928	35.1562	83.0574	35.1562	83.6048	35.1562	83.2886	35.1562	83.7928	35.1562	83.5126	35.1562	83.9445	35.1562	83.7167	35.1562	84.0487	35.1562	83.8877	35.1562	84.097	35.1562	84.0136	35.1562	84.0851
36.6211	81.9897	36.6211	82.0155	36.6211	81.9825	36.6211	82.0603	36.6211	81.9941	36.6211	82.1245	36.6211	82.0245	36.6211	82.2084	36.6211	82.0742	36.6211	82.3124	36.6211	82.1438	36.6211	82.4367	36.6211	82.2341	36.6211	82.5808	36.6211	82.3456	36.6211	82.7437	36.6211	82.4788	36.6211	82.9231	36.6211	82.6332	36.6211	83.115	36.6211	82.8073	36.6211	83.3137	36.6211	82.9978	36.6211	83.5116	36.6211	83.1996	36.6211	83.6991	36.6211	83.4051	36.6211	83.8653	36.6211	83.6047	36.6211	83.9991	36.6211	83.7872	36.6211	84.0907	36.6211	83.9408	36.6211	84.1322	36.6211	84.0546	36.6211	84.12
38.0859	82.2649	38.0859	82.2936	38.0859	82.2551	38.0859	82.3409	38.0859	82.264	38.0859	82.4068	38.0859	82.2919	38.0859	82.4911	38.0859	82.3388	38.0859	82.5935	38.0859	82.4049	38.0859	82.7135	38.0859	82.4904	38.0859	82.8501	38.0859	82.5953	38.0859	83.002	38.0859	82.7196	38.0859	83.1667	38.0859	82.8623	38.0859	83.3409	38.0859	83.0221	38.0859	83.5195	38.0859	83.1961	38.0859	83.696	38.0859	83.3796	38.0859	83.8621	38.0859	83.5663	38.0859	84.0085	38.0859	83.7478	38.0859	84.1255	38.0859	83.9142	38.0859	84.2041	38.0859	84.0552	38.0859	84.2378	38.0859	84.1607	38.0859	84.2232
39.5508	82.5552	39.5508	82.5818	39.5508	82.5464	39.5508	82.626	39.5508	82.5556	39.5508	82.6874	39.5508	82.5826	39.5508	82.7654	39.5508	82.6275	39.5508	82.8593	39.5508	82.6898	39.5508	82.9683	39.5508	82.7695	39.5508	83.0911	39.5508	82.866	39.5508	83.2262	39.5508	82.9787	39.5508	83.3714	39.5508	83.1066	39.5508	83.5238	39.5508	83.2482	39.5508	83.6791	39.5508	83.4008	39.5508	83.832	39.5508	83.5607	39.5508	83.9755	39.5508	83.7225	39.5508	84.102	39.5508	83.8792	39.5508	84.2031	39.5508	84.0227	39.5508	84.2712	39.5508	84.144	39.5508	84.3006	39.5508	84.2348	39.5508	84.2883
41.0156	82.8388	41.0156	82.8644	41.0156	82.8301	41.0156	82.9066	41.0156	82.8384	41.0156	82.9648	41.0156	82.8637	41.0156	83.0381	41.0156	82.9055	41.0156	83.1254	41.0156	82.9634	41.0156	83.2256	41.0156	83.0366	41.0156	83.3372	41.0156	83.1245	41.0156	83.4585	41.0156	83.2262	41.0156	83.5875	41.0156	83.3404	41.0156	83.7213	41.0156	83.4656	41.0156	83.8566	41.0156	83.5996	41.0156	83.9887	41.0156	83.7393	41.0156	84.1121	41.0156	83.8801	41.0156	84.2202	41.0156	84.0164	41.0156	84.3062	41.0156	84.1413	41.0156	84.3635	41.0156	84.2473	41.0156	84.3872	41.0156	84.3271	41.0156	84.3749
42.4805	83.1018	42.4805	83.1268	42.4805	83.0924	42.4805	83.167	42.4805	83.0987	42.4805	83.2214	42.4805	83.1206	42.4805	83.2891	42.4805	83.1577	42.4805	83.3687	42.4805	83.2092	42.4805	83.4589	42.4805	83.2744	42.4805	83.5579	42.4805	83.3522	42.4805	83.6641	42.4805	83.4415	42.4805	83.7756	42.4805	83.5411	42.4805	83.89	42.4805	83.6494	42.4805	84.0043	42.4805	83.7647	42.4805	84.1151	42.4805	83.8841	42.4805	84.2178	42.4805	84.0042	42.4805	84.3071	42.4805	84.1204	42.4805	84.3775	42.4805	84.2271	42.4805	84.4237	42.4805	84.3179	42.4805	84.4416	42.4805	84.387	42.4805	84.4292
43.9453	83.3325	43.9453	83.3551	43.9453	83.3241	43.9453	83.3913	43.9453	83.3299	43.9453	83.4402	43.9453	83.3498	43.9453	83.5006	43.9453	83.3833	43.9453	83.5712	43.9453	83.4296	43.9453	83.6504	43.9453	83.4876	43.9453	83.7366	43.9453	83.5563	43.9453	83.8282	43.9453	83.6343	43.9453	83.9234	43.9453	83.7206	43.9453	84.0202	43.9453	83.8135	43.9453	84.1164	43.9453	83.9115	43.9453	84.2091	43.9453	84.0124	43.9453	84.2947	43.9453	84.1135	43.9453	84.3692	43.9453	84.211	43.9453	84.4278	43.9453	84.3004	43.9453	84.4662	43.9453	84.3767	43.9453	84.4809	43.9453	84.4347	43.9453	84.4703
45.4102	83.3047	45.4102	83.322	45.4102	83.3012	45.4102	83.3527	45.4102	83.3117	45.4102	83.3959	45.4102	83.3358	45.4102	83.4507	45.4102	83.3728	45.4102	83.5155	45.4102	83.4217	45.4102	83.5888	45.4102	83.4814	45.4102	83.6691	45.4102	83.5505	45.4102	83.7546	45.4102	83.6274	45.4102	83.8435	45.4102	83.7106	45.4102	83.9339	45.4102	83.7985	45.4102	84.0236	45.4102	83.8893	45.4102	84.11	45.4102	83.9808	45.4102	84.19	45.4102	84.0705	45.4102	84.2599	45.4102	84.1553	45.4102	84.3158	45.4102	84.2313	45.4102	84.3541	45.4102	84.2945	45.4102	84.3718	45.4102	84.3409	45.4102	84.3673
46.875	83.6062	46.875	83.623	46.875	83.6029	46.875	83.6528	46.875	83.6131	46.875	83.6947	46.875	83.6366	46.875	83.7473	46.875	83.6725	46.875	83.8093	46.875	83.7199	46.875	83.879	46.875	83.7774	46.875	83.9546	46.875	83.8433	46.875	84.0342	46.875	83.916	46.875	84.1161	46.875	83.9939	46.875	84.1985	46.875	84.0752	46.875	84.2793	46.875	84.1581	46.875	84.3564	46.875	84.2406	46.875	84.427	46.875	84.3206	46.875	84.4882	46.875	84.3955	46.875	84.5368	46.875	84.4622	46.875	84.5699	46.875	84.5174	46.875	84.585	46.875	84.5578	46.875	84.5809
48.3398	83.8422	48.3398	83.8586	48.3398	83.839	48.3398	83.8877	48.3398	83.8491	48.3398	83.9285	48.3398	83.8722	48.3398	83.9797	48.3398	83.9074	48.3398	84.0396	48.3398	83.9536	48.3398	84.1066	48.3398	84.0092	48.3398	84.1785	48.3398	84.0726	48.3398	84.2536	48.3398	84.1419	48.3398	84.3299	48.3398	84.2153	48.3398	84.4056	48.3398	84.2909	48.3398	84.4788	48.3398	84.367	48.3398	84.5475	48.3398	84.4419	48.3398	84.6098	48.3398	84.5135	48.3398	84.6631	48.3398	84.5798	48.3398	84.705	48.3398	84.6383	48.3398	84.7332	48.3398	84.6865	48.3398	84.7459	48.3398	84.7218	48.3398	84.742
51.2695	84.4687	51.2695	84.482	51.2695	84.4659	51.2695	84.5053	51.2695	84.4738	51.2695	84.5376	51.2695	84.4919	51.2695	84.5776	51.2695	84.5196	51.2695	84.6238	51.2695	84.5555	51.2695	84.6742	51.2695	84.5982	51.2695	84.7271	51.2695	84.6459	51.2695	84.7805	51.2695	84.6969	51.2695	84.8329	51.2695	84.7492	51.2695	84.8825	51.2695	84.8011	51.2695	84.9284	51.2695	84.8513	51.2695	84.9693	51.2695	84.8986	51.2695	85.0046	51.2695	84.9419	51.2695	85.0334	51.2695	84.9805	51.2695	85.0551	51.2695	85.0135	51.2695	85.0689	51.2695	85.0402	51.2695	85.0744	51.2695	85.0597	51.2695	85.0713
52.7344	84.719	52.7344	84.731	52.7344	84.717	52.7344	84.7525	52.7344	84.7251	52.7344	84.7825	52.7344	84.7428	52.7344	84.8198	52.7344	84.7693	52.7344	84.8627	52.7344	84.8034	52.7344	84.9093	52.7344	84.8435	52.7344	84.9578	52.7344	84.8878	52.7344	85.0062	52.7344	84.9344	52.7344	85.0528	52.7344	84.9815	52.7344	85.0961	52.7344	85.0275	52.7344	85.1351	52.7344	85.0709	52.7344	85.169	52.7344	85.1107	52.7344	85.1973	52.7344	85.1463	52.7344	85.2198	52.7344	85.1773	52.7344	85.2362	52.7344	85.2032	52.7344	85.2464	52.7344	85.2238	52.7344	85.2502	52.7344	85.2387	52.7344	85.2476
54.1992	85.0107	54.1992	85.0211	54.1992	85.0093	54.1992	85.0402	54.1992	85.0172	54.1992	85.0669	54.1992	85.0337	54.1992	85.1001	54.1992	85.0583	54.1992	85.138	54.1992	85.0895	54.1992	85.1788	54.1992	85.1259	54.1992	85.2207	54.1992	85.1656	54.1992	85.2618	54.1992	85.2068	54.1992	85.3003	54.1992	85.2475	54.1992	85.3349	54.1992	85.2861	54.1992	85.3649	54.1992	85.3213	54.1992	85.3896	54.1992	85.3521	54.1992	85.4093	54.1992	85.3783	54.1992	85.424	54.1992	85.3996	54.1992	85.4343	54.1992	85.4163	54.1992	85.4406	54.1992	85.4287	54.1992	85.4431	54.1992	85.4372	54.1992	85.4419
55.6641	85.3105	55.6641	85.3197	55.6641	85.3093	55.6641	85.3363	55.6641	85.316	55.6641	85.3595	55.6641	85.3304	55.6641	85.388	55.6641	85.3516	55.6641	85.4202	55.6641	85.3786	55.6641	85.4545	55.6641	85.4097	55.6641	85.4889	55.6641	85.4433	55.6641	85.5217	55.6641	85.4774	55.6641	85.5513	55.6641	85.5103	55.6641	85.5764	55.6641	85.5402	55.6641	85.5964	55.6641	85.566	55.6641	85.6112	55.6641	85.587	55.6641	85.6212	55.6641	85.6029	55.6641	85.6273	55.6641	85.6143	55.6641	85.6304	55.6641	85.6218	55.6641	85.6315	55.6641	85.6265	55.6641	85.6315	55.6641	85.6292	55.6641	85.6307
58.5938	85.8818	58.5938	85.8907	58.5938	85.8784	58.5938	85.9049	58.5938	85.8808	58.5938	85.9233	58.5938	85.8888	58.5938	85.945	58.5938	85.9016	58.5938	85.9685	58.5938	85.9184	58.5938	85.9921	58.5938	85.9377	58.5938	86.0141	58.5938	85.9582	58.5938	86.0327	58.5938	85.9779	58.5938	86.0467	58.5938	85.9954	58.5938	86.0548	58.5938	86.0091	58.5938	86.0569	58.5938	86.018	58.5938	86.0531	58.5938	86.0219	58.5938	86.0447	58.5938	86.0211	58.5938	86.0334	58.5938	86.0167	58.5938	86.0213	58.5938	86.0104	58.5938	86.0105	58.5938	86.0042	58.5938	86.0029	58.5938	86	58.5938	85.9993
60.0586	86.2006	60.0586	86.2131	60.0586	86.1924	60.0586	86.2292	60.0586	86.1884	60.0586	86.2482	60.0586	86.1887	60.0586	86.2689	60.0586	86.1928	60.0586	86.2898	60.0586	86.2	60.0586	86.3095	60.0586	86.209	60.0586	86.326	60.0586	86.2187	60.0586	86.3378	60.0586	86.2275	60.0586	86.3433	60.0586	86.234	60.0586	86.3416	60.0586	86.2371	60.0586	86.3324	60.0586	86.2361	60.0586	86.3163	60.0586	86.2308	60.0586	86.2947	60.0586	86.2222	60.0586	86.27	60.0586	86.2116	60.0586	86.2449	60.0586	86.2012	60.0586	86.2224	60.0586	86.1934	60.0586	86.2049	60.0586	86.1905	60.0586	86.1941
62.9883	86.7308	62.9883	86.7353	62.9883	86.727	62.9883	86.7401	62.9883	86.7237	62.9883	86.745	62.9883	86.7206	62.9883	86.7492	62.9883	86.7173	62.9883	86.7516	62.9883	86.7128	62.9883	86.751	62.9883	86.7063	62.9883	86.746	62.9883	86.6967	62.9883	86.7352	62.9883	86.683	62.9883	86.7174	62.9883	86.6642	62.9883	86.6921	62.9883	86.6399	62.9883	86.6593	62.9883	86.6101	62.9883	86.6201	62.9883	86.5757	62.9883	86.577	62.9883	86.5387	62.9883	86.5329	62.9883	86.5017	62.9883	86.4918	62.9883	86.4682	62.9883	86.4577	62.9883	86.442	62.9883	86.4341	62.9883	86.4262	62.9883	86.4233
64.4531	86.9429	64.4531	86.927	64.4531	86.9581	64.4531	86.9105	64.4531	86.9719	64.4531	86.8935	64.4531	86.9837	64.4531	86.8755	64.4531	86.9925	64.4531	86.8558	64.4531	86.9969	64.4531	86.8337	64.4531	86.9956	64.4531	86.8081	64.4531	86.987	64.4531	86.7779	64.4531	86.9698	64.4531	86.7425	64.4531	86.9427	64.4531	86.7019	64.4531	86.9051	64.4531	86.6567	64.4531	86.8571	64.4531	86.6088	64.4531	86.8	64.4531	86.5613	64.4531	86.7362	64.4531	86.5179	64.4531	86.6694	64.4531	86.4833	64.4531	86.6043	64.4531	86.4616	64.4531	86.5461	64.4531	86.4562	64.4531	86.4997	64.4531	86.469
67.3828	87.5135	67.3828	87.4955	67.3828	87.5321	67.3828	87.4781	67.3828	87.5509	67.3828	87.461	67.3828	87.5694	67.3828	87.4439	67.3828	87.5864	67.3828	87.4259	67.3828	87.6007	67.3828	87.4061	67.3828	87.6108	67.3828	87.3832	67.3828	87.6147	67.3828	87.3562	67.3828	87.6104	67.3828	87.3244	67.3828	87.5961	67.3828	87.2877	67.3828	87.5702	67.3828	87.2469	67.3828	87.5321	67.3828	87.2041	67.3828	87.4822	67.3828	87.1626	67.3828	87.4223	67.3828	87.1266	67.3828	87.3557	67.3828	87.101	67.3828	87.2868	67.3828	87.0899	67.3828	87.2212	67.3828	87.0965	67.3828	87.1645	67.3828	87.1218
68.8477	87.7178	68.8477	87.7082	68.8477	87.7278	68.8477	87.699	68.8477	87.7383	68.8477	87.6899	68.8477	87.7488	68.8477	87.6802	68.8477	87.7586	68.8477	87.6692	68.8477	87.7668	68.8477	87.6556	68.8477	87.772	68.8477	87.6383	68.8477	87.7726	68.8477	87.616	68.8477	87.7668	68.8477	87.5879	68.8477	87.7528	68.8477	87.5535	68.8477	87.7292	68.8477	87.5136	68.8477	87.6951	68.8477	87.4699	68.8477	87.651	68.8477	87.4258	68.8477	87.5983	68.8477	87.3853	68.8477	87.5401	68.8477	87.3532	68.8477	87.4807	68.8477	87.3342	68.8477	87.4253	68.8477	87.3316	68.8477	87.3791	68.8477	87.3469
71.7773	88.0771	71.7773	88.0675	71.7773	88.0856	71.7773	88.0567	71.7773	88.0928	71.7773	88.0447	71.7773	88.0986	71.7773	88.0312	71.7773	88.1025	71.7773	88.0155	71.7773	88.104	71.7773	87.9971	71.7773	88.1022	71.7773	87.9749	71.7773	88.0957	71.7773	87.9479	71.7773	88.0832	71.7773	87.9154	71.7773	88.0632	71.7773	87.8771	71.7773	88.0345	71.7773	87.8336	71.7773	87.9965	71.7773	87.7867	71.7773	87.9494	71.7773	87.7394	71.7773	87.8949	71.7773	87.696	71.7773	87.8358	71.7773	87.661	71.7773	87.7764	71.7773	87.6393	71.7773	87.7218	71.7773	87.634	71.7773	87.6772	71.7773	87.6469
74.707	88.3715	74.707	88.3601	74.707	88.3816	74.707	88.3474	74.707	88.3905	74.707	88.3332	74.707	88.3982	74.707	88.3174	74.707	88.4047	74.707	88.2995	74.707	88.4094	74.707	88.2789	74.707	88.4114	74.707	88.2547	74.707	88.4093	74.707	88.2256	74.707	88.401	74.707	88.1908	74.707	88.3845	74.707	88.1497	74.707	88.3574	74.707	88.1026	74.707	88.3184	74.707	88.0512	74.707	88.2671	74.707	87.9986	74.707	88.2047	74.707	87.9498	74.707	88.1347	74.707	87.9102	74.707	88.0624	74.707	87.8859	74.707	87.9944	74.707	87.8814	74.707	87.9379	74.707	87.899
77.6367	88.6501	77.6367	88.6367	77.6367	88.6603	77.6367	88.6201	77.6367	88.6674	77.6367	88.6002	77.6367	88.6717	77.6367	88.5771	77.6367	88.6734	77.6367	88.5509	77.6367	88.6723	77.6367	88.5211	77.6367	88.668	77.6367	88.4872	77.6367	88.6591	77.6367	88.4484	77.6367	88.6441	77.6367	88.4039	77.6367	88.6208	77.6367	88.3536	77.6367	88.5869	77.6367	88.2978	77.6367	88.541	77.6367	88.2385	77.6367	88.4825	77.6367	88.1791	77.6367	88.4127	77.6367	88.1248	77.6367	88.335	77.6367	88.0816	77.6367	88.2549	77.6367	88.0557	77.6367	88.1796	77.6367	88.052	77.6367	88.1166	77.6367	88.0726
79.1016	88.7518	79.1016	88.7386	79.1016	88.7611	79.1016	88.7215	79.1016	88.7668	79.1016	88.7005	79.1016	88.7691	79.1016	88.6759	79.1016	88.7686	79.1016	88.6477	79.1016	88.7651	79.1016	88.6159	79.1016	88.7585	79.1016	88.58	79.1016	88.7477	79.1016	88.5392	79.1016	88.7311	79.1016	88.493	79.1016	88.7065	79.1016	88.4409	79.1016	88.6718	79.1016	88.3835	79.1016	88.6253	79.1016	88.3227	79.1016	88.5663	79.1016	88.2619	79.1016	88.496	79.1016	88.2062	79.1016	88.4177	79.1016	88.1619	79.1016	88.3368	79.1016	88.1352	79.1016	88.2605	79.1016	88.1311	79.1016	88.1966	79.1016	88.152
82.0312	88.8942	82.0312	88.8791	82.0312	88.9036	82.0312	88.8583	82.0312	88.9077	82.0312	88.8321	82.0312	88.907	82.0312	88.8011	82.0312	88.9023	82.0312	88.7661	82.0312	88.8943	82.0312	88.7273	82.0312	88.883	82.0312	88.685	82.0312	88.8678	82.0312	88.6389	82.0312	88.8475	82.0312	88.5888	82.0312	88.8203	82.0312	88.5344	82.0312	88.7838	82.0312	88.4762	82.0312	88.7363	82.0312	88.4159	82.0312	88.677	82.0312	88.3566	82.0312	88.6067	82.0312	88.3033	82.0312	88.5284	82.0312	88.2616	82.0312	88.4473	82.0312	88.2376	82.0312	88.3705	82.0312	88.2361	82.0312	88.3054	82.0312	88.2591
84.9609	88.9247	84.9609	88.9097	84.9609	88.932	84.9609	88.8874	84.9609	88.9322	84.9609	88.8584	84.9609	88.9265	84.9609	88.824	84.9609	88.916	84.9609	88.7858	84.9609	88.9022	84.9609	88.7452	84.9609	88.886	84.9609	88.7034	84.9609	88.8675	84.9609	88.661	84.9609	88.8462	84.9609	88.6182	84.9609	88.8206	84.9609	88.5748	84.9609	88.7888	84.9609	88.5308	84.9609	88.7492	84.9609	88.4867	84.9609	88.7007	84.9609	88.4441	84.9609	88.6439	84.9609	88.4057	84.9609	88.5813	84.9609	88.3754	84.9609	88.5171	84.9609	88.3574	84.9609	88.457	84.9609	88.3556	84.9609	88.407	84.9609	88.3723
87.8906	89.3788	87.8906	89.3491	87.8906	89.3954	87.8906	89.3061	87.8906	89.3997	87.8906	89.251	87.8906	89.3933	87.8906	89.1858	87.8906	89.3785	87.8906	89.113	87.8906	89.3576	87.8906	89.0358	87.8906	89.3324	87.8906	88.9573	87.8906	89.3042	87.8906	88.8807	87.8906	89.273	87.8906	88.8087	87.8906	89.238	87.8906	88.7436	87.8906	89.1975	87.8906	88.6875	87.8906	89.1496	87.8906	88.6419	87.8906	89.093	87.8906	88.6085	87.8906	89.0275	87.8906	88.5887	87.8906	88.9546	87.8906	88.5841	87.8906	88.8776	87.8906	88.596	87.8906	88.8011	87.8906	88.625	87.8906	88.7305	87.8906	88.6705
90.8203	89.6885	90.8203	89.6752	90.8203	89.6858	90.8203	89.6454	90.8203	89.6685	90.8203	89.5995	90.8203	89.6388	90.8203	89.539	90.8203	89.5998	90.8203	89.4658	90.8203	89.5545	90.8203	89.3825	90.8203	89.5059	90.8203	89.2917	90.8203	89.456	90.8203	89.1964	90.8203	89.4059	90.8203	89.0994	90.8203	89.3552	90.8203	89.004	90.8203	89.3025	90.8203	88.9135	90.8203	89.2457	90.8203	88.8319	90.8203	89.1826	90.8203	88.7633	90.8203	89.1122	90.8203	88.7121	90.8203	89.035	90.8203	88.6822	90.8203	88.9536	90.8203	88.6763	90.8203	88.8727	90.8203	88.6952	90.8203	88.7984	90.8203	88.7373
95.2148	89.6402	95.2148	89.6322	95.2148	89.6288	95.2148	89.6044	95.2148	89.5994	95.2148	89.5578	95.2148	89.5545	95.2148	89.4943	95.2148	89.4975	95.2148	89.4167	95.2148	89.4324	95.2148	89.3281	95.2148	89.3633	95.2148	89.232	95.2148	89.2935	95.2148	89.1319	95.2148	89.2258	95.2148	89.0312	95.2148	89.1611	95.2148	88.9333	95.2148	89.0994	95.2148	88.8415	95.2148	89.0395	95.2148	88.759	95.2148	88.9794	95.2148	88.6895	95.2148	88.9179	95.2148	88.6362	95.2148	88.8544	95.2148	88.6023	95.2148	88.79	95.2148	88.5896	95.2148	88.7277	95.2148	88.5984	95.2148	88.6717	95.2148	88.627
98.1445	89.6074	98.1445	89.6003	98.1445	89.5907	98.1445	89.5693	98.1445	89.552	98.1445	89.5154	98.1445	89.4939	98.1445	89.4406	98.1445	89.4205	98.1445	89.3481	98.1445	89.3362	98.1445	89.2418	98.1445	89.2458	98.1445	89.126	98.1445	89.1539	98.1445	89.0052	98.1445	89.0642	98.1445	88.8841	98.1445	88.9789	98.1445	88.7671	98.1445	88.8992	98.1445	88.6586	98.1445	88.8248	98.1445	88.5627	98.1445	88.7544	98.1445	88.4833	98.1445	88.6868	98.1445	88.4234	98.1445	88.6211	98.1445	88.3856	98.1445	88.5575	98.1445	88.3705	98.1445	88.4978	98.1445	88.3773	98.1445	88.4451	98.1445	88.4035
101.074	89.6269	101.074	89.6189	101.074	89.6076	101.074	89.5833	101.074	89.5624	101.074	89.5211	101.074	89.4942	101.074	89.4343	101.074	89.4065	101.074	89.3259	101.074	89.3037	101.074	89.1998	101.074	89.1906	101.074	89.0604	101.074	89.0718	101.074	88.9127	101.074	88.9515	101.074	88.7617	101.074	88.8329	101.074	88.6129	101.074	88.7183	101.074	88.4717	101.074	88.6091	101.074	88.3436	101.074	88.506	101.074	88.2338	101.074	88.4092	101.074	88.1471	101.074	88.3196	101.074	88.0867	101.074	88.2382	101.074	88.0542	101.074	88.1671	101.074	88.0489	101.074	88.1093	101.074	88.0685
105.469	89.5791	105.469	89.5487	105.469	89.5819	105.469	89.4906	105.469	89.5588	105.469	89.4059	105.469	89.5124	105.469	89.2972	105.469	89.4462	105.469	89.168	105.469	89.3643	105.469	89.0229	105.469	89.2708	105.469	88.8675	105.469	89.1693	105.469	88.7074	105.469	89.0627	105.469	88.5486	105.469	88.9525	105.469	88.3972	105.469	88.8396	105.469	88.2587	105.469	88.7244	105.469	88.1384	105.469	88.607	105.469	88.041	105.469	88.4885	105.469	87.9705	105.469	88.3708	105.469	87.9297	105.469	88.2572	105.469	87.9197	105.469	88.1521	105.469	87.9401	105.469	88.0607	105.469	87.9884
108.398	89.731	108.398	89.6976	108.398	89.7382	108.398	89.6387	108.398	89.7196	108.398	89.556	108.398	89.6771	108.398	89.4523	108.398	89.6132	108.398	89.3314	108.398	89.5313	108.398	89.1973	108.398	89.4355	108.398	89.0548	108.398	89.3296	108.398	88.9086	108.398	89.2173	108.398	88.7638	108.398	89.1019	108.398	88.6259	108.398	88.9861	108.398	88.5	108.398	88.8718	108.398	88.3915	108.398	88.7608	108.398	88.3048	108.398	88.6544	108.398	88.2431	108.398	88.5542	108.398	88.2082	108.398	88.4616	108.398	88.1995	108.398	88.3789	108.398	88.2153	108.398	88.3083	108.398	88.2527
112.793	89.4035	112.793	89.3945	112.793	89.3834	112.793	89.3568	112.793	89.335	112.793	89.2926	112.793	89.2612	112.793	89.2051	112.793	89.1662	112.793	89.0984	112.793	89.0557	112.793	88.9773	112.793	88.9366	112.793	88.8467	112.793	88.8156	112.793	88.7117	112.793	88.6995	112.793	88.5777	112.793	88.5935	112.793	88.45	112.793	88.501	112.793	88.3342	112.793	88.4231	112.793	88.2353	112.793	88.3587	112.793	88.1577	112.793	88.3051	112.793	88.1043	112.793	88.2587	112.793	88.0753	112.793	88.2165	112.793	88.0687	112.793	88.1766	112.793	88.0806	112.793	88.139	112.793	88.1057
117.188	89.1892	117.188	89.1957	117.188	89.1417	117.188	89.1636	117.188	89.0523	117.188	89.0977	117.188	88.9225	117.188	89.0038	117.188	88.7561	117.188	88.889	117.188	88.5593	117.188	88.761	117.188	88.3412	117.188	88.6272	117.188	88.1135	117.188	88.4941	117.188	87.89	117.188	88.3667	117.188	87.6859	117.188	88.248	117.188	87.5157	117.188	88.1393	117.188	87.3904	117.188	88.0402	117.188	87.3156	117.188	87.9496	117.188	87.2896	117.188	87.8658	117.188	87.3051	117.188	87.7868	117.188	87.3505	117.188	87.7109	117.188	87.4143	117.188	87.6362	117.188	87.4866	117.188	87.5614
120.117	89.745	120.117	89.6903	120.117	89.7537	120.117	89.5917	120.117	89.7158	120.117	89.4529	120.117	89.6324	120.117	89.2797	120.117	89.5061	120.117	89.0797	120.117	89.341	120.117	88.8626	120.117	89.1428	120.117	88.6397	120.117	88.9189	120.117	88.4236	120.117	88.6789	120.117	88.2264	120.117	88.434	120.117	88.0582	120.117	88.1969	120.117	87.925	120.117	87.9809	120.117	87.827	120.117	87.798	120.117	87.759	120.117	87.6576	120.117	87.7115	120.117	87.5639	120.117	87.6738	120.117	87.5155	120.117	87.6375	120.117	87.5058	120.117	87.5985	120.117	87.524	120.117	87.5584
124.512	89.9528	124.512	89.921	124.512	89.939	124.512	89.845	124.512	89.8799	124.512	89.7275	124.512	89.7775	124.512	89.5726	124.512	89.6357	124.512	89.3861	124.512	89.4603	124.512	89.1754	124.512	89.2597	124.512	88.9499	124.512	89.0443	124.512	88.7211	124.512	88.8263	124.512	88.5025	124.512	88.6188	124.512	88.308	124.512	88.434	124.512	88.1506	124.512	88.2816	124.512	88.0387	124.512	88.167	124.512	87.9738	124.512	88.0902	124.512	87.9497	124.512	88.0461	124.512	87.9544	124.512	88.0261	124.512	87.9735	124.512	88.0196	124.512	87.9944	124.512	88.0166	124.512	88.0094
128.906	89.97	128.906	89.9453	128.906	89.943	128.906	89.8697	128.906	89.8642	128.906	89.7451	128.906	89.7348	128.906	89.5743	128.906	89.5575	128.906	89.361	128.906	89.3369	128.906	89.111	128.906	89.08	128.906	88.8321	128.906	88.7968	128.906	88.5354	128.906	88.5007	128.906	88.2361	128.906	88.2081	128.906	87.9528	128.906	87.9368	128.906	87.7051	128.906	87.7037	128.906	87.5101	128.906	87.5213	128.906	87.3766	128.906	87.3946	128.906	87.302	128.906	87.32	128.906	87.2733	128.906	87.2863	128.906	87.2715	128.906	87.2786	128.906	87.2788	128.906	87.2814	128.906	87.2831
133.301	89.8846	133.301	89.849	133.301	89.8713	133.301	89.7657	133.301	89.8083	133.301	89.6364	133.301	89.6958	133.301	89.4632	133.301	89.5348	133.301	89.2484	133.301	89.328	133.301	88.995	133.301	89.0801	133.301	88.7075	133.301	88.7982	133.301	88.3929	133.301	88.4927	133.301	88.0619	133.301	88.1767	133.301	87.73	133.301	87.866	133.301	87.4167	133.301	87.577	133.301	87.1431	133.301	87.324	133.301	86.9267	133.301	87.1166	133.301	86.7759	133.301	86.9571	133.301	86.6879	133.301	86.8415	133.301	86.6505	133.301	86.7609	133.301	86.6482	133.301	86.7057	133.301	86.6686
139.16	89.8362	139.16	89.8078	139.16	89.8147	139.16	89.7319	139.16	89.7422	139.16	89.611	139.16	89.6187	139.16	89.4483	139.16	89.4454	139.16	89.2472	139.16	89.2257	139.16	89.0112	139.16	88.9653	139.16	88.7445	139.16	88.6727	139.16	88.4528	139.16	88.3598	139.16	88.1445	139.16	88.0415	139.16	87.8319	139.16	87.7346	139.16	87.5307	139.16	87.4559	139.16	87.259	139.16	87.2184	139.16	87.0333	139.16	87.0292	139.16	86.8634	139.16	86.8883	139.16	86.7504	139.16	86.7895	139.16	86.6867	139.16	86.7238	139.16	86.6607	139.16	86.6828	139.16	86.6616
143.555	89.8914	143.555	89.8649	143.555	89.8636	143.555	89.7878	143.555	89.7795	143.555	89.6642	143.555	89.6385	143.555	89.4996	143.555	89.4418	143.555	89.2995	143.555	89.1931	143.555	89.07	143.555	88.8994	143.555	88.8174	143.555	88.5715	143.555	88.5488	143.555	88.2254	143.555	88.2725	143.555	87.8812	143.555	87.9986	143.555	87.5619	143.555	87.7385	143.555	87.2894	143.555	87.5043	143.555	87.079	143.555	87.3063	143.555	86.9359	143.555	87.1497	143.555	86.854	143.555	87.0342	143.555	86.8194	143.555	86.9533	143.555	86.8163	143.555	86.8979	143.555	86.8319	143.555	86.8592
147.949	90.5708	147.949	90.522	147.949	90.5585	147.949	90.4139	147.949	90.4837	147.949	90.2493	147.949	90.346	147.949	90.0316	147.949	90.1456	147.949	89.7655	147.949	89.8845	147.949	89.4577	147.949	89.567	147.949	89.1183	147.949	89.2009	147.949	88.7617	147.949	88.7989	147.949	88.4071	147.949	88.3802	147.949	88.078	147.949	87.9707	147.949	87.7977	147.949	87.6008	147.949	87.5826	147.949	87.3004	147.949	87.4362	147.949	87.0907	147.949	87.3466	147.949	86.9777	147.949	87.2915	147.949	86.9502	147.949	87.2467	147.949	86.9843	147.949	87.1943	147.949	87.0518	147.949	87.1275
153.809	91.0486	153.809	91.0113	153.809	91.0346	153.809	90.9246	153.809	90.9671	153.809	90.7898	153.809	90.8439	153.809	90.6073	153.809	90.6633	153.809	90.3764	153.809	90.4251	153.809	90.0959	153.809	90.1305	153.809	89.7657	153.809	89.7841	153.809	89.3885	153.809	89.3944	153.809	88.9732	153.809	88.9754	153.809	88.538	153.809	88.547	153.809	88.1113	153.809	88.1338	153.809	87.7279	153.809	87.7623	153.809	87.4195	153.809	87.4551	153.809	87.202	153.809	87.2255	153.809	87.0692	153.809	87.0742	153.809	86.9984	153.809	86.9901	153.809	86.9641	153.809	86.9549	153.809	86.9501
159.668	90.7175	159.668	90.6704	159.668	90.7233	159.668	90.5862	159.668	90.6838	159.668	90.4689	159.668	90.5959	159.668	90.3215	159.668	90.4578	159.668	90.1451	159.668	90.2695	159.668	89.9389	159.668	90.0333	159.668	89.7006	159.668	89.7544	159.668	89.4287	159.668	89.4417	159.668	89.1245	159.668	89.1074	159.668	88.7956	159.668	88.7671	159.668	88.4575	159.668	88.4381	159.668	88.133	159.668	88.1367	159.668	87.8471	159.668	87.8758	159.668	87.6192	159.668	87.6634	159.668	87.4567	159.668	87.502	159.668	87.3551	159.668	87.3895	159.668	87.3037	159.668	87.3216	159.668	87.2937
165.527	90.6616	165.527	90.5896	165.527	90.6803	165.527	90.4699	165.527	90.6416	165.527	90.3091	165.527	90.5427	165.527	90.1146	165.527	90.382	165.527	89.8939	165.527	90.1599	165.527	89.6538	165.527	89.879	165.527	89.4	165.527	89.5453	165.527	89.1374	165.527	89.17	165.527	88.8706	165.527	88.7703	165.527	88.6055	165.527	88.3696	165.527	88.3495	165.527	87.9957	165.527	88.1108	165.527	87.6753	165.527	87.8966	165.527	87.428	165.527	87.7106	165.527	87.2611	165.527	87.5525	165.527	87.1701	165.527	87.4196	165.527	87.1427	165.527	87.3096	165.527	87.1644	165.527	87.223
171.387	90.869	171.387	90.7659	171.387	90.9233	171.387	90.6169	171.387	90.927	171.387	90.4256	171.387	90.8795	171.387	90.1957	171.387	90.782	171.387	89.9314	171.387	90.638	171.387	89.6377	171.387	90.4538	171.387	89.3223	171.387	90.2388	171.387	88.998	171.387	90.0059	171.387	88.6856	171.387	89.7704	171.387	88.4145	171.387	89.5482	171.387	88.2176	171.387	89.3531	171.387	88.1201	171.387	89.1937	171.387	88.1263	171.387	89.0715	171.387	88.2154	171.387	88.9817	171.387	88.3505	171.387	88.9145	171.387	88.4944	171.387	88.8575	171.387	88.6217	171.387	88.7975	171.387	88.722
177.246	90.7477	177.246	90.7077	177.246	90.7414	177.246	90.6271	177.246	90.6844	177.246	90.511	177.246	90.5735	177.246	90.3637	177.246	90.4079	177.246	90.1875	177.246	90.1903	177.246	89.9821	177.246	89.9274	177.246	89.7463	177.246	89.6319	177.246	89.4806	177.246	89.3233	177.246	89.1916	177.246	89.0266	177.246	88.8965	177.246	88.7691	177.246	88.6246	177.246	88.5739	177.246	88.4121	177.246	88.4526	177.246	88.2874	177.246	88.4018	177.246	88.2565	177.246	88.4048	177.246	88.2979	177.246	88.4376	177.246	88.3731	177.246	88.4756	177.246	88.445	177.246	88.4977	177.246	88.4893
183.105	90.6614	183.105	90.5628	183.105	90.7041	183.105	90.4166	183.105	90.6839	183.105	90.2326	183.105	90.596	183.105	90.0207	183.105	90.4379	183.105	89.7906	183.105	90.2105	183.105	89.5504	183.105	89.9195	183.105	89.3064	183.105	89.5782	183.105	89.0648	183.105	89.2094	183.105	88.8343	183.105	88.8463	183.105	88.6288	183.105	88.5285	183.105	88.4666	183.105	88.2933	183.105	88.3657	183.105	88.1623	183.105	88.3335	183.105	88.1331	183.105	88.3603	183.105	88.1819	183.105	88.4202	183.105	88.274	183.105	88.481	183.105	88.3756	183.105	88.516	183.105	88.4602	183.105	88.5098
188.965	91.228	188.965	91.1193	188.965	91.2746	188.965	90.953	188.965	91.2553	188.965	90.734	188.965	91.1671	188.965	90.467	188.965	91.0081	188.965	90.1572	188.965	90.7791	188.965	89.8106	188.965	90.4848	188.965	89.4365	188.965	90.1365	188.965	89.0514	188.965	89.7544	188.965	88.6835	188.965	89.3688	188.965	88.3743	188.965	89.0185	188.965	88.1703	188.965	88.7424	188.965	88.1035	188.965	88.5678	188.965	88.1704	188.965	88.4998	188.965	88.3283	188.965	88.5202	188.965	88.5153	188.965	88.5959	188.965	88.6758	188.965	88.6901	188.965	88.7755	188.965	88.7687	188.965	88.8039
196.289	90.6746	196.289	90.5825	196.289	90.7133	196.289	90.4447	196.289	90.691	196.289	90.2686	196.289	90.601	196.289	90.0601	196.289	90.438	196.289	89.8217	196.289	90.1994	196.289	89.5525	196.289	89.8875	196.289	89.2491	196.289	89.5123	196.289	88.9097	196.289	89.0962	196.289	88.5418	196.289	88.6757	196.289	88.1699	196.289	88.2991	196.289	87.8396	196.289	88.0149	196.289	87.6076	196.289	87.8531	196.289	87.5153	196.289	87.8112	196.289	87.5608	196.289	87.8564	196.289	87.6973	196.289	87.9425	196.289	87.8592	196.289	88.026	196.289	87.9921	196.289	88.0743	196.289	88.0661
203.613	90.7937	203.613	90.6552	203.613	90.8615	203.613	90.4547	203.613	90.8514	203.613	90.2019	203.613	90.757	203.613	89.9077	203.613	90.5732	203.613	89.5834	203.613	90.2968	203.613	89.2398	203.613	89.9291	203.613	88.8881	203.613	89.4791	203.613	88.5421	203.613	88.9695	203.613	88.2232	203.613	88.4421	203.613	87.9629	203.613	87.959	203.613	87.7984	203.613	87.5922	203.613	87.756	203.613	87.3974	203.613	87.8316	203.613	87.3859	203.613	87.9845	203.613	87.5195	203.613	88.1536	203.613	87.7334	203.613	88.2818	203.613	87.9634	203.613	88.3317	203.613	88.16	203.613	88.2894
210.938	90.955	210.938	90.8115	210.938	91.0448	210.938	90.6186	210.938	91.0759	210.938	90.3795	210.938	91.043	210.938	90.0954	210.938	90.9404	210.938	89.7643	210.938	90.7631	210.938	89.3805	210.938	90.508	210.938	88.9362	210.938	90.1766	210.938	88.4281	210.938	89.778	210.938	87.8685	210.938	89.3328	210.938	87.3002	210.938	88.8734	210.938	86.8057	210.938	88.4411	210.938	86.4876	210.938	88.0756	210.938	86.4094	210.938	87.8016	210.938	86.5431	210.938	87.6214	210.938	86.7874	210.938	87.5173	210.938	87.0371	210.938	87.4601	210.938	87.2295	210.938	87.4161	210.938	87.3499
218.262	90.677	218.262	90.5485	218.262	90.7475	218.262	90.3675	218.262	90.7553	218.262	90.1402	218.262	90.6965	218.262	89.8721	218.262	90.5685	218.262	89.5672	218.262	90.371	218.262	89.2268	218.262	90.1085	218.262	88.8506	218.262	89.7927	218.262	88.442	218.262	89.4456	218.262	88.0178	218.262	89.1008	218.262	87.62	218.262	88.7995	218.262	87.319	218.262	88.5795	218.262	87.1914	218.262	88.4606	218.262	87.2718	218.262	88.4357	218.262	87.5207	218.262	88.4749	218.262	87.8461	218.262	88.5391	218.262	88.1568	218.262	88.5913	218.262	88.3953	218.262	88.6006	218.262	88.5415
225.586	90.3568	225.586	90.2761	225.586	90.3738	225.586	90.1415	225.586	90.3177	225.586	89.9623	225.586	90.1801	225.586	89.7458	225.586	89.9547	225.586	89.4943	225.586	89.6396	225.586	89.2046	225.586	89.2409	225.586	88.8688	225.586	88.7795	225.586	88.4828	225.586	88.2985	225.586	88.0592	225.586	87.8658	225.586	87.6455	225.586	87.5627	225.586	87.331	225.586	87.451	225.586	87.2183	225.586	87.5371	225.586	87.3534	225.586	87.7679	225.586	87.6795	225.586	88.0634	225.586	88.074	225.586	88.3521	225.586	88.4226	225.586	88.5842	225.586	88.6581	225.586	88.7274	225.586	88.7579
232.91	90.8525	232.91	90.7283	232.91	90.9045	232.91	90.5404	232.91	90.8761	232.91	90.2982	232.91	90.7586	232.91	90.0106	232.91	90.5421	232.91	89.6847	232.91	90.2165	232.91	89.3227	232.91	89.7739	232.91	88.9216	232.91	89.2138	232.91	88.477	232.91	88.5527	232.91	87.9954	232.91	87.8374	232.91	87.5111	232.91	87.158	232.91	87.0994	232.91	86.6395	232.91	86.86	232.91	86.3906	232.91	86.8572	232.91	86.4322	232.91	87.0589	232.91	86.6846	232.91	87.3518	232.91	87.0284	232.91	87.6126	232.91	87.3629	232.91	87.7601	232.91	87.6214	232.91	87.762
241.699	90.0361	241.699	89.9189	241.699	90.0818	241.699	89.7437	241.699	90.0444	241.699	89.5245	241.699	89.913	241.699	89.2733	241.699	89.6774	241.699	88.9935	241.699	89.3295	241.699	88.6744	241.699	88.8673	241.699	88.2886	241.699	88.3029	241.699	87.7985	241.699	87.6743	241.699	87.1729	241.699	87.0562	241.699	86.4173	241.699	86.5541	241.699	85.618	241.699	86.2613	241.699	84.9729	241.699	86.1974	241.699	84.7162	241.699	86.2934	241.699	84.9094	241.699	86.4452	241.699	85.3697	241.699	86.5724	241.699	85.8611	241.699	86.6344	241.699	86.2471	241.699	86.6136	241.699	86.4927
250.488	91.2501	250.488	91.1206	250.488	91.2995	250.488	90.917	250.488	91.2634	250.488	90.6461	250.488	91.1355	250.488	90.3156	250.488	90.9075	250.488	89.9325	250.488	90.5692	250.488	89.5014	250.488	90.1089	250.488	89.0242	250.488	89.5167	250.488	88.5037	250.488	88.7913	250.488	87.9534	250.488	87.9516	250.488	87.409	250.488	87.0545	250.488	86.9335	250.488	86.2098	250.488	86.5981	250.488	85.5656	250.488	86.4384	250.488	85.2383	250.488	86.4221	250.488	85.2315	250.488	86.4669	250.488	85.4424	250.488	86.4883	250.488	85.7438	250.488	86.4327	250.488	86.0419	250.488	86.2812
259.277	91.4735	259.277	91.2948	259.277	91.5804	259.277	91.0571	259.277	91.6031	259.277	90.7738	259.277	91.5283	259.277	90.4581	259.277	91.3421	259.277	90.1197	259.277	91.0297	259.277	89.7606	259.277	90.5786	259.277	89.373	259.277	89.9826	259.277	88.9429	259.277	89.251	259.277	88.4627	259.277	88.4233	259.277	87.9509	259.277	87.5852	259.277	87.469	259.277	86.8702	259.277	87.1138	259.277	86.4132	259.277	86.9627	259.277	86.2666	259.277	87.0064	259.277	86.3674	259.277	87.1491	259.277	86.5983	259.277	87.2779	259.277	86.8601	259.277	87.3201	259.277	87.0915	259.277	87.254
268.066	91.7431	268.066	91.5913	268.066	91.8309	268.066	91.3842	268.066	91.8453	268.066	91.1295	268.066	91.776	268.066	90.8324	268.066	91.6123	268.066	90.4931	268.066	91.344	268.066	90.1048	268.066	90.9643	268.066	89.6575	268.066	90.4749	268.066	89.149	268.066	89.8931	268.066	88.6085	268.066	89.2616	268.066	88.1223	268.066	88.6563	268.066	87.8303	268.066	88.1778	268.066	87.8472	268.066	87.9154	268.066	88.1514	268.066	87.8981	268.066	88.5885	268.066	88.0814	268.066	88.9882	268.066	88.3812	268.066	89.2449	268.066	88.7154	268.066	89.3237	268.066	89.0182	268.066	89.2363
276.855	91.3357	276.855	91.223	276.855	91.404	276.855	91.0813	276.855	91.4105	276.855	90.9232	276.855	91.3363	276.855	90.7539	276.855	91.1601	276.855	90.5651	276.855	90.8589	276.855	90.3312	276.855	90.4099	276.855	90.012	276.855	89.7963	276.855	89.5653	276.855	89.0192	276.855	88.9701	276.855	88.1189	276.855	88.2621	276.855	87.2032	276.855	87.5739	276.855	86.4545	276.855	87.1227	276.855	86.0561	276.855	87.0638	276.855	86.056	276.855	87.3236	276.855	86.3396	276.855	87.672	276.855	86.7495	276.855	87.9158	276.855	87.1763	276.855	87.9713	276.855	87.5559	276.855	87.838
287.109	91.0092	287.109	90.6702	287.109	91.261	287.109	90.2516	287.109	91.419	287.109	89.7651	287.109	91.4735	287.109	89.2283	287.109	91.4105	287.109	88.662	287.109	91.2107	287.109	88.0839	287.109	90.8521	287.109	87.506	287.109	90.3132	287.109	86.9456	287.109	89.5813	287.109	86.4563	287.109	88.6674	287.109	86.1563	287.109	87.6337	287.109	86.1873	287.109	86.6274	287.109	86.5804	287.109	85.8802	287.109	87.1853	287.109	85.5972	287.109	87.7799	287.109	85.791	287.109	88.2007	287.109	86.2925	287.109	88.3737	287.109	86.9078	287.109	88.2914	287.109	87.5009	287.109	87.9836
297.363	91.6011	297.363	91.343	297.363	91.8088	297.363	91.0436	297.363	91.9551	297.363	90.7097	297.363	92.0257	297.363	90.3433	297.363	92.003	297.363	89.9359	297.363	91.8669	297.363	89.4614	297.363	91.5971	297.363	88.8749	297.363	91.1762	297.363	88.1228	297.363	90.5953	297.363	87.1753	297.363	89.8644	297.363	86.0979	297.363	89.0266	297.363	85.1677	297.363	88.1724	297.363	84.8452	297.363	87.4321	297.363	85.2938	297.363	86.9279	297.363	86.1145	297.363	86.7071	297.363	86.8521	297.363	86.7286	297.363	87.3044	297.363	86.908	297.363	87.4543	297.363	87.1539	297.363	87.3706
307.617	90.4207	307.617	90.2033	307.617	90.6132	307.617	89.9791	307.617	90.7628	307.617	89.7658	307.617	90.8501	307.617	89.5734	307.617	90.8539	307.617	89.3923	307.617	90.753	307.617	89.1834	307.617	90.5298	307.617	88.8813	307.617	90.1763	307.617	88.4157	307.617	89.7016	307.617	87.755	307.617	89.1419	307.617	86.9845	307.617	88.5669	307.617	86.3996	307.617	88.0724	307.617	86.4055	307.617	87.749	307.617	87.0578	307.617	87.6442	307.617	87.9575	307.617	87.7513	307.617	88.7158	307.617	88.028	307.617	89.1646	307.617	88.4103	307.617	89.2876	307.617	88.8146	307.617	89.1412
319.336	89.8756	319.336	89.6377	319.336	90.0761	319.336	89.3727	319.336	90.238	319.336	89.1052	319.336	90.3581	319.336	88.8685	319.336	90.4245	319.336	88.6809	319.336	90.4134	319.336	88.5167	319.336	90.2926	319.336	88.2933	319.336	90.028	319.336	87.8896	319.336	89.5911	319.336	87.1806	319.336	88.9677	319.336	86.0881	319.336	88.1688	319.336	84.691	319.336	87.2415	319.336	83.4624	319.336	86.2786	319.336	83.2151	319.336	85.4189	319.336	83.9971	319.336	84.8299	319.336	84.9906	319.336	84.6438	319.336	85.6563	319.336	84.8549	319.336	85.8721	319.336	85.2892	319.336	85.7001
329.59	89.8914	329.59	89.616	329.59	90.0276	329.59	89.2273	329.59	90.0246	329.59	88.7858	329.59	89.9016	329.59	88.3832	329.59	89.6926	329.59	88.1089	329.59	89.4427	329.59	87.9887	329.59	89.2015	329.59	87.9518	329.59	89.0118	329.59	87.8715	329.59	88.8958	329.59	87.6408	329.59	88.8449	329.59	87.234	329.59	88.8184	329.59	86.7438	329.59	88.7526	329.59	86.3621	329.59	88.5796	329.59	86.2369	329.59	88.2504	329.59	86.3114	329.59	87.7587	329.59	86.3921	329.59	87.162	329.59	86.3472	329.59	86.5884	329.59	86.1975	329.59	86.2	329.59	86.0907
341.309	91.7266	341.309	91.3966	341.309	91.8953	341.309	90.9142	341.309	91.8898	341.309	90.293	341.309	91.6885	341.309	89.5627	341.309	91.2606	341.309	88.7765	341.309	90.5674	341.309	88.0046	341.309	89.5685	341.309	87.3094	341.309	88.2427	341.309	86.7288	341.309	86.6654	341.309	86.3173	341.309	85.2191	341.309	86.2252	341.309	84.7187	341.309	86.6527	341.309	85.5077	341.309	87.5882	341.309	86.8509	341.309	88.7274	341.309	88.0797	341.309	89.7403	341.309	89.0014	341.309	90.451	341.309	89.6507	341.309	90.8221	341.309	90.1204	341.309	90.8975	341.309	90.484	341.309	90.7579
353.027	91.2507	353.027	90.9148	353.027	91.4811	353.027	90.489	353.027	91.5931	353.027	89.9999	353.027	91.5698	353.027	89.4849	353.027	91.3871	353.027	88.9744	353.027	91.0113	353.027	88.4563	353.027	90.3996	353.027	87.8467	353.027	89.4992	353.027	86.9963	353.027	88.2533	353.027	85.7415	353.027	86.6292	353.027	84.0474	353.027	84.717	353.027	82.4895	353.027	82.9688	353.027	82.5937	353.027	82.2457	353.027	84.3425	353.027	82.7831	353.027	86.1404	353.027	83.8582	353.027	87.3315	353.027	84.9491	353.027	87.8782	353.027	85.9346	353.027	87.8854	353.027	86.7975	353.027	87.4826
366.211	90.6296	366.211	90.2412	366.211	90.9334	366.211	89.775	366.211	91.145	366.211	89.2468	366.211	91.248	366.211	88.6853	366.211	91.2163	366.211	88.1185	366.211	91.0156	366.211	87.5403	366.211	90.6072	366.211	86.8774	366.211	89.9523	366.211	85.9945	366.211	89.0194	366.211	84.7647	366.211	87.8057	366.211	83.2876	366.211	86.3828	366.211	82.3872	366.211	84.9687	366.211	83.1809	366.211	83.9341	366.211	84.97	366.211	83.5695	366.211	86.5355	366.211	83.8283	366.211	87.4852	366.211	84.4804	366.211	87.82	366.211	85.3373	366.211	87.6394	366.211	86.2508	366.211	87.0692
379.395	90.7469	379.395	90.2602	379.395	91.1008	379.395	89.6313	379.395	91.3325	379.395	88.8761	379.395	91.4421	379.395	88.064	379.395	91.4146	379.395	87.3275	379.395	91.2229	379.395	86.7964	379.395	90.8323	379.395	86.4622	379.395	90.2076	379.395	86.134	379.395	89.3225	379.395	85.5583	379.395	88.18	379.395	84.5709	379.395	86.8425	379.395	83.2648	379.395	85.4508	379.395	82.2486	379.395	84.1656	379.395	82.3106	379.395	83.0408	379.395	83.1355	379.395	82.0385	379.395	83.8309	379.395	81.2666	379.395	83.9818	379.395	81.0861	379.395	83.5488	379.395	81.6792	379.395	82.6735
392.578	90.8422	392.578	90.3503	392.578	91.2464	392.578	89.7732	392.578	91.5499	392.578	89.1146	392.578	91.7286	392.578	88.3926	392.578	91.7504	392.578	87.6459	392.578	91.5816	392.578	86.9166	392.578	91.1897	392.578	86.2105	392.578	90.5458	392.578	85.4774	392.578	89.6314	392.578	84.6674	392.578	88.4619	392.578	83.8867	392.578	87.1392	392.578	83.5479	392.578	85.9112	392.578	84.0449	392.578	85.0969	392.578	85.0872	392.578	84.7968	392.578	86.0527	392.578	84.8109	392.578	86.6001	392.578	84.9348	392.578	86.6774	392.578	85.1322	392.578	86.3883	392.578	85.4583	392.578	85.9166
405.762	89.603	405.762	89.6942	405.762	89.4387	405.762	89.7117	405.762	89.2018	405.762	89.6523	405.762	88.8939	405.762	89.5068	405.762	88.5174	405.762	89.2582	405.762	88.074	405.762	88.8813	405.762	87.5621	405.762	88.3451	405.762	86.9745	405.762	87.6189	405.762	86.2994	405.762	86.6842	405.762	85.5259	405.762	85.5568	405.762	84.657	405.762	84.3272	405.762	83.7347	405.762	83.2088	405.762	82.8709	405.762	82.5062	405.762	82.255	405.762	82.3847	405.762	82.0608	405.762	82.6796	405.762	82.2824	405.762	83.074	405.762	82.7175	405.762	83.3349	405.762	83.1286	405.762	83.357
420.41	88.8933	420.41	88.915	420.41	88.8166	420.41	88.8804	420.41	88.6871	420.41	88.7862	420.41	88.5077	420.41	88.6231	420.41	88.2805	420.41	88.3736	420.41	88.003	420.41	88.0109	420.41	87.6648	420.41	87.5021	420.41	87.2467	420.41	86.8145	420.41	86.724	420.41	85.9268	420.41	86.0735	420.41	84.8494	420.41	85.2862	420.41	83.6593	420.41	84.3866	420.41	82.5461	420.41	83.4611	420.41	81.7973	420.41	82.6756	420.41	81.6072	420.41	82.2224	420.41	81.8671	420.41	82.1693	420.41	82.2812	420.41	82.3784	420.41	82.6062	420.41	82.6216	420.41	82.724
435.059	89.0282	435.059	89.0788	435.059	88.9288	435.059	89.0837	435.059	88.7822	435.059	89.0455	435.059	88.5943	435.059	88.9582	435.059	88.3699	435.059	88.7997	435.059	88.1057	435.059	88.5291	435.059	87.7825	435.059	88.0909	435.059	87.364	435.059	87.4226	435.059	86.8007	435.059	86.4682	435.059	86.0378	435.059	85.1999	435.059	85.0285	435.059	83.6752	435.059	83.7612	435.059	82.1618	435.059	82.3327	435.059	81.2274	435.059	81.091	435.059	81.2904	435.059	80.6202	435.059	82.0042	435.059	81.1061	435.059	82.7558	435.059	82.0192	435.059	83.2036	435.059	82.8098	435.059	83.2276
451.172	88.656	451.172	88.681	451.172	88.4578	451.172	88.5595	451.172	88.08	451.172	88.3365	451.172	87.5389	451.172	88.0671	451.172	86.8794	451.172	87.7971	451.172	86.1789	451.172	87.5365	451.172	85.5355	451.172	87.2456	451.172	85.0265	451.172	86.8483	451.172	84.6598	451.172	86.2659	451.172	84.3682	451.172	85.4578	451.172	84.0624	451.172	84.4763	451.172	83.698	451.172	83.5394	451.172	83.324	451.172	83.0261	451.172	83.0939	451.172	83.1755	451.172	83.1823	451.172	83.7791	451.172	83.6114	451.172	84.4304	451.172	84.1984	451.172	84.856	451.172	84.7011	451.172	84.9471
465.82	90.0451	465.82	89.9794	465.82	89.9302	465.82	89.735	465.82	89.6363	465.82	89.3197	465.82	89.1673	465.82	88.7482	465.82	88.5293	465.82	88.0431	465.82	87.7297	465.82	87.2315	465.82	86.7779	465.82	86.337	465.82	85.6829	465.82	85.3673	465.82	84.4508	465.82	84.3106	465.82	83.0858	465.82	83.1589	465.82	81.6107	465.82	81.9781	465.82	80.1433	465.82	81.0149	465.82	79.0456	465.82	80.6713	465.82	78.8769	465.82	81.098	465.82	79.728	465.82	81.9407	465.82	81.0093	465.82	82.7437	465.82	82.1722	465.82	83.2431	465.82	82.9712	465.82	83.3307
483.398	89.7054	483.398	89.6563	483.398	89.6283	483.398	89.4876	483.398	89.4246	483.398	89.2113	483.398	89.0977	483.398	88.8426	483.398	88.6533	483.398	88.3937	483.398	88.096	483.398	87.8661	483.398	87.4257	483.398	87.2439	483.398	86.6328	483.398	86.4914	483.398	85.6942	483.398	85.5595	483.398	84.5714	483.398	84.3995	483.398	83.2182	483.398	82.992	483.398	81.6126	483.398	81.4163	483.398	79.8647	483.398	79.9861	483.398	78.447	483.398	79.2677	483.398	78.1291	483.398	79.5087	483.398	78.9211	483.398	80.226	483.398	79.9931	483.398	80.8384	483.398	80.7658	483.398	81.0516
499.512	89.1205	499.512	88.9925	499.512	89.0342	499.512	88.6549	499.512	88.745	499.512	88.1348	499.512	88.2781	499.512	87.4908	499.512	87.6743	499.512	86.8176	499.512	86.9888	499.512	86.2246	499.512	86.2822	499.512	85.7781	499.512	85.5984	499.512	85.4485	499.512	84.9377	499.512	85.1282	499.512	84.2458	499.512	84.7078	499.512	83.4331	499.512	84.1508	499.512	82.4228	499.512	83.5401	499.512	81.2455	499.512	83.0779	499.512	80.2134	499.512	82.9664	499.512	79.9589	499.512	83.1986	499.512	80.7238	499.512	83.5394	499.512	81.9182	499.512	83.7171	499.512	82.939	499.512	83.5463
517.09	89.4645	517.09	89.4104	517.09	89.3342	517.09	89.1658	517.09	89.0285	517.09	88.7282	517.09	88.5606	517.09	88.0986	517.09	87.948	517.09	87.2827	517.09	87.213	517.09	86.2939	517.09	86.3832	517.09	85.1541	517.09	85.4881	517.09	83.8913	517.09	84.5506	517.09	82.5339	517.09	83.5727	517.09	81.1186	517.09	82.5252	517.09	79.7504	517.09	81.3571	517.09	78.7222	517.09	80.0531	517.09	78.4696	517.09	78.7755	517.09	79.0621	517.09	78.0329	517.09	80.0107	517.09	78.3296	517.09	80.8077	517.09	79.3566	517.09	81.1885	517.09	80.4009	517.09	81.054
536.133	90.377	536.133	90.3653	536.133	90.1544	536.133	90.1334	536.133	89.7053	536.133	89.7223	536.133	89.0586	536.133	89.2025	536.133	88.2686	536.133	88.6584	536.133	87.4189	536.133	88.1444	536.133	86.6103	536.133	87.6345	536.133	85.9172	536.133	87.013	536.133	85.3323	536.133	86.1116	536.133	84.7507	536.133	84.7451	536.133	84.0042	536.133	82.7249	536.133	82.8999	536.133	79.9347	536.133	81.2457	536.133	77.039	536.133	78.963	536.133	76.8669	536.133	76.7689	536.133	79.0992	536.133	76.9511	536.133	80.9752	536.133	79.0893	536.133	81.8995	536.133	80.9325	536.133	81.8809
555.176	89.0655	555.176	88.8536	555.176	89.0286	555.176	88.406	555.176	88.7455	555.176	87.7632	555.176	88.2298	555.176	87.0105	555.176	87.5095	555.176	86.2798	555.176	86.6388	555.176	85.7017	555.176	85.7136	555.176	85.305	555.176	84.8698	555.176	84.9642	555.176	84.2259	555.176	84.4636	555.176	83.7777	555.176	83.5872	555.176	83.361	555.176	82.1578	555.176	82.7399	555.176	80.0863	555.176	81.7256	555.176	77.7217	555.176	80.3043	555.176	76.7345	555.176	78.923	555.176	78.0825	555.176	78.6033	555.176	79.8421	555.176	79.5266	555.176	80.9212	555.176	80.6217	555.176	81.1628
574.219	89.943	574.219	89.8554	574.219	89.7614	574.219	89.4994	574.219	89.3161	574.219	88.8903	574.219	88.6194	574.219	88.0762	574.219	87.6989	574.219	87.1649	574.219	86.6148	574.219	86.3268	574.219	85.4826	574.219	85.7092	574.219	84.4725	574.219	85.2861	574.219	83.7327	574.219	84.8354	574.219	83.253	574.219	84.0777	574.219	82.8254	574.219	82.7861	574.219	82.1509	574.219	80.8493	574.219	80.942	574.219	78.5808	574.219	79.0068	574.219	77.5362	574.219	76.7164	574.219	78.7367	574.219	76.2339	574.219	80.3817	574.219	78.2473	574.219	81.3091	574.219	80.2404	574.219	81.2806
594.727	90.3026	594.727	90.2307	594.727	90.1128	594.727	89.8885	594.727	89.6752	594.727	89.2769	594.727	89.0095	594.727	88.4163	594.727	88.1458	594.727	87.3634	594.727	87.1316	594.727	86.2228	594.727	86.0389	594.727	85.1195	594.727	84.963	594.727	84.1035	594.727	83.9939	594.727	83.053	594.727	83.1484	594.727	81.6879	594.727	82.2995	594.727	79.628	594.727	81.1668	594.727	76.3871	594.727	79.3375	594.727	72.0525	594.727	76.2127	594.727	72.5902	594.727	71.3618	594.727	76.7009	594.727	71.5754	594.727	79.3401	594.727	76.3784	594.727	80.5474	594.727	79.256	594.727	80.5332
615.234	90.1391	615.234	90.1204	615.234	89.896	615.234	89.8181	615.234	89.4123	615.234	89.2152	615.234	88.7079	615.234	88.3144	615.234	87.8048	615.234	87.1673	615.234	86.7327	615.234	85.9137	615.234	85.5417	615.234	84.7787	615.234	84.3225	615.234	83.9276	615.234	83.2168	615.234	83.2678	615.234	82.3584	615.234	82.4896	615.234	81.7251	615.234	81.2575	615.234	81.0707	615.234	79.2934	615.234	80.0534	615.234	76.5385	615.234	78.4307	615.234	74.4032	615.234	76.4581	615.234	75.663	615.234	75.7491	615.234	78.0102	615.234	77.2048	615.234	79.4282	615.234	78.8923	615.234	79.7043
637.207	88.7557	637.207	88.7701	637.207	88.5837	637.207	88.6291	637.207	88.2607	637.207	88.3323	637.207	87.8084	637.207	87.867	637.207	87.2618	637.207	87.2085	637.207	86.6582	637.207	86.3337	637.207	86.0225	637.207	85.2427	637.207	85.3543	637.207	83.9788	637.207	84.6264	637.207	82.6309	637.207	83.7921	637.207	81.2912	637.207	82.7978	637.207	79.9751	637.207	81.5897	637.207	78.5973	637.207	80.1258	637.207	77.1082	637.207	78.4317	637.207	75.8034	637.207	76.7829	637.207	75.4063	637.207	75.8748	637.207	76.031	637.207	76.1042	637.207	76.8168	637.207	76.7794	637.207	77.1125
659.18	89.7325	659.18	89.6615	659.18	89.5617	659.18	89.3444	659.18	89.1684	659.18	88.7964	659.18	88.5891	659.18	88.0619	659.18	87.8793	659.18	87.2251	659.18	87.1124	659.18	86.4022	659.18	86.3669	659.18	85.6899	659.18	85.6951	659.18	85.0835	659.18	85.0841	659.18	84.4468	659.18	84.4354	659.18	83.5651	659.18	83.5807	659.18	82.207	659.18	82.3133	659.18	80.1613	659.18	80.4164	659.18	77.4263	659.18	77.7896	659.18	75.2905	659.18	75.2957	659.18	76.1756	659.18	75.6089	659.18	78.2674	659.18	77.7765	659.18	79.6476	659.18	79.4044	659.18	80.0291
682.617	90.6438	682.617	90.5883	682.617	90.3644	682.617	90.1705	682.617	89.7762	682.617	89.3648	682.617	88.9098	682.617	88.173	682.617	87.8178	682.617	86.6975	682.617	86.6093	682.617	85.2829	682.617	85.5034	682.617	84.4941	682.617	84.8153	682.617	84.4931	682.617	84.7127	682.617	84.7393	682.617	84.9649	682.617	84.6585	682.617	85.1306	682.617	83.946	682.617	84.8425	682.617	82.4543	682.617	83.847	682.617	80.2138	682.617	81.9695	682.617	78.0799	682.617	79.3395	682.617	78.1507	682.617	77.6046	682.617	79.8279	682.617	78.7421	682.617	81.092	682.617	80.5038	682.617	81.3476
707.52	90.7735	707.52	90.8368	707.52	90.4962	707.52	90.6577	707.52	90.0134	707.52	90.1854	707.52	89.3201	707.52	89.3502	707.52	88.4026	707.52	88.0769	707.52	87.2411	707.52	86.3289	707.52	85.8256	707.52	84.2479	707.52	84.2291	707.52	82.4409	707.52	82.7836	707.52	81.7444	707.52	82.0851	707.52	81.8782	707.52	82.2173	707.52	81.8134	707.52	82.4321	707.52	80.9188	707.52	82.008	707.52	78.9656	707.52	80.5512	707.52	76.6358	707.52	78.0943	707.52	76.8739	707.52	76.563	707.52	79.2388	707.52	78.3122	707.52	80.9228	707.52	80.4223	707.52	81.3315
732.422	89.9189	732.422	89.9197	732.422	89.7456	732.422	89.7653	732.422	89.391	732.422	89.4589	732.422	88.8602	732.422	88.9642	732.422	88.1608	732.422	88.2024	732.422	87.2883	732.422	87.0787	732.422	86.225	732.422	85.5334	732.422	84.9698	732.422	83.6261	732.422	83.6149	732.422	81.6868	732.422	82.431	732.422	80.3126	732.422	81.7235	732.422	79.6676	732.422	81.3877	732.422	79.0815	732.422	80.9029	732.422	77.8461	732.422	79.7979	732.422	75.799	732.422	77.9599	732.422	74.2179	732.422	76.1879	732.422	75.1703	732.422	76.1669	732.422	76.8921	732.422	77.2277	732.422	77.6508
757.324	90.0792	757.324	89.9914	757.324	89.9556	757.324	89.7109	757.324	89.6125	757.324	89.2552	757.324	89.0568	757.324	88.6275	757.324	88.3086	757.324	87.8095	757.324	87.3932	757.324	86.7743	757.324	86.3362	757.324	85.5235	757.324	85.1763	757.324	84.1349	757.324	83.9975	757.324	82.7654	757.324	82.9324	757.324	81.5193	757.324	82.0451	757.324	80.2492	757.324	81.155	757.324	78.5427	757.324	79.8504	757.324	75.9004	757.324	77.6703	757.324	72.6227	757.324	74.6316	757.324	73.0859	757.324	73.743	757.324	76.4444	757.324	76.4342	757.324	78.6434	757.324	78.6132	757.324	79.345
785.156	89.5559	785.156	89.3055	785.156	89.5203	785.156	88.819	785.156	89.1909	785.156	88.1877	785.156	88.5981	785.156	87.5227	785.156	87.8068	785.156	86.9105	785.156	86.9114	785.156	86.3765	785.156	86.0288	785.156	85.8986	785.156	85.2807	785.156	85.4433	785.156	84.7495	785.156	84.9635	785.156	84.4056	785.156	84.3542	785.156	84.068	785.156	83.4098	785.156	83.4425	785.156	81.8056	785.156	82.1629	785.156	79.052	785.156	79.7313	785.156	74.4706	785.156	75.2943	785.156	71.0257	785.156	69.8399	785.156	75.1405	785.156	74.1578	785.156	78.0832	785.156	77.7661	785.156	78.9073
811.523	89.9631	811.523	89.7543	811.523	89.8541	811.523	89.25	811.523	89.4203	811.523	88.4804	811.523	88.6645	811.523	87.4651	811.523	87.5885	811.523	86.2098	811.523	86.1889	811.523	84.7757	811.523	84.4933	811.523	83.4728	811.523	82.7253	811.523	82.934	811.523	81.6082	811.523	83.3615	811.523	81.8677	811.523	84.0484	811.523	82.8893	811.523	84.2611	811.523	83.6085	811.523	83.5968	811.523	83.4559	811.523	81.7744	811.523	82.0858	811.523	78.5401	811.523	79.0771	811.523	74.9516	811.523	74.4995	811.523	75.9001	811.523	74.4736	811.523	78.3317	811.523	77.7556	811.523	79.0588
840.82	90.089	840.82	89.9569	840.82	89.9302	840.82	89.5648	840.82	89.4803	840.82	88.9501	840.82	88.767	840.82	88.1115	840.82	87.8189	840.82	86.9775	840.82	86.6257	840.82	85.4187	840.82	85.1113	840.82	83.3323	840.82	83.1639	840.82	80.9494	840.82	80.8502	840.82	79.513	840.82	79.0842	840.82	79.994	840.82	79.2853	840.82	80.8576	840.82	80.4408	840.82	80.759	840.82	80.8977	840.82	79.1686	840.82	79.9295	840.82	75.915	840.82	76.9244	840.82	74.0551	840.82	72.1923	840.82	77.1872	840.82	74.7513	840.82	79.6515	840.82	78.7027	840.82	80.191
870.117	90.4067	870.117	90.2208	870.117	90.2324	870.117	89.6901	870.117	89.7354	870.117	88.8937	870.117	88.9829	870.117	87.9482	870.117	88.044	870.117	86.9222	870.117	86.9538	870.117	85.7534	870.117	85.6809	870.117	84.2836	870.117	84.1276	870.117	82.4366	870.117	82.214	870.117	80.578	870.117	80.1775	870.117	79.6974	870.117	78.9927	870.117	79.8708	870.117	79.168	870.117	79.7591	870.117	79.405	870.117	78.3299	870.117	78.4491	870.117	75.1005	870.117	75.5835	870.117	72.9885	870.117	72.3811	870.117	76.5472	870.117	75.6179	870.117	79.3469	870.117	78.9521	870.117	80.1279
900.879	89.9361	900.879	89.785	900.879	89.7141	900.879	89.2503	900.879	89.1733	900.879	88.3807	900.879	88.3961	900.879	87.2925	900.879	87.4699	900.879	86.1386	900.879	86.4494	900.879	85.0173	900.879	85.3191	900.879	83.8997	900.879	83.9911	900.879	82.7052	900.879	82.3787	900.879	81.5431	900.879	80.5962	900.879	80.83	900.879	79.2937	900.879	80.6489	900.879	79.2005	900.879	80.2683	900.879	79.6187	900.879	78.8304	900.879	79.2557	900.879	75.6614	900.879	77.2371	900.879	71.5606	900.879	73.1117	900.879	73.5036	900.879	71.9747	900.879	76.5971	900.879	75.7118	900.879	77.3622
933.105	89.6454	933.105	89.4824	933.105	89.5258	933.105	89.0471	933.105	89.1571	933.105	88.3963	933.105	88.5774	933.105	87.5844	933.105	87.7925	933.105	86.5898	933.105	86.7679	933.105	85.2847	933.105	85.4474	933.105	83.5	933.105	83.7807	933.105	81.2605	933.105	81.766	933.105	79.3774	933.105	79.6074	933.105	79.1783	933.105	78.1383	933.105	79.8845	933.105	78.2703	933.105	79.9441	933.105	79.0115	933.105	78.6198	933.105	78.9011	933.105	75.2967	933.105	77.1943	933.105	70.2177	933.105	73.7778	933.105	72.3652	933.105	72.5836	933.105	75.9482	933.105	75.4503	933.105	76.8738
965.332	89.4422	965.332	89.3408	965.332	89.2658	965.332	88.9324	965.332	88.8523	965.332	88.2526	965.332	88.2131	965.332	87.4115	965.332	87.3384	965.332	86.5145	965.332	86.2328	965.332	85.5194	965.332	84.9169	965.332	84.1695	965.332	83.3907	965.332	82.079	965.332	81.6334	965.332	79.0062	965.332	79.7951	965.332	76.3485	965.332	78.6899	965.332	77.2845	965.332	79.174	965.332	78.8994	965.332	80.1924	965.332	78.8509	965.332	80.3169	965.332	76.5096	965.332	78.7525	965.332	70.6673	965.332	74.6043	965.332	67.8961	965.332	68.4398	965.332	73.4678	965.332	72.3088	965.332	74.7726
1000.49	89.624	1000.49	89.3606	1000.49	89.5336	1000.49	88.6809	1000.49	89.1385	1000.49	87.586	1000.49	88.4434	1000.49	86.2478	1000.49	87.44	1000.49	85.0725	1000.49	86.1708	1000.49	84.4035	1000.49	84.7585	1000.49	83.9843	1000.49	83.3461	1000.49	83.1725	1000.49	81.9796	1000.49	81.4745	1000.49	80.603	1000.49	78.8293	1000.49	79.3026	1000.49	76.533	1000.49	78.5164	1000.49	76.4318	1000.49	78.345	1000.49	76.3797	1000.49	77.8673	1000.49	73.9581	1000.49	75.8861	1000.49	67.7033	1000.49	71.6368	1000.49	71.6765	1000.49	71.7832	1000.49	76.5698	1000.49	76.1911	1000.49	77.813
1035.64	89.4883	1035.64	89.2209	1035.64	89.4408	1035.64	88.6417	1035.64	89.0325	1035.64	87.7175	1035.64	88.2185	1035.64	86.4412	1035.64	87.019	1035.64	84.941	1035.64	85.5556	1035.64	83.5837	1035.64	84.0095	1035.64	82.7705	1035.64	82.4671	1035.64	82.3742	1035.64	80.7167	1035.64	81.858	1035.64	78.294	1035.64	80.9617	1035.64	75.6645	1035.64	79.9654	1035.64	76.2737	1035.64	79.2008	1035.64	78.5196	1035.64	78.1543	1035.64	79.1495	1035.64	75.698	1035.64	77.4507	1035.64	71.2439	1035.64	72.9995	1035.64	72.1939	1035.64	71.9223	1035.64	76.2887	1035.64	76.1359	1035.64	77.6102
1072.27	89.2298	1072.27	88.9256	1072.27	89.2057	1072.27	88.353	1072.27	88.7678	1072.27	87.5246	1072.27	87.8632	1072.27	86.4255	1072.27	86.5511	1072.27	85.0574	1072.27	85.0748	1072.27	83.4551	1072.27	83.7946	1072.27	81.6289	1072.27	82.868	1072.27	79.5121	1072.27	81.9808	1072.27	77.2134	1072.27	80.5108	1072.27	75.9771	1072.27	77.9965	1072.27	77.054	1072.27	75.5566	1072.27	78.415	1072.27	76.1824	1072.27	78.261	1072.27	77.1978	1072.27	75.5179	1072.27	75.7963	1072.27	67.375	1072.27	70.2135	1072.27	69.9987	1072.27	69.6353	1072.27	76.168	1072.27	75.8521	1072.27	77.6567
1108.89	89.3163	1108.89	89.0764	1108.89	89.0999	1108.89	88.4109	1108.89	88.4232	1108.89	87.3756	1108.89	87.3354	1108.89	86.0682	1108.89	85.9789	1108.89	84.6392	1108.89	84.608	1108.89	83.2318	1108.89	83.501	1108.89	81.8256	1108.89	82.7385	1108.89	80.131	1108.89	82.0146	1108.89	77.7544	1108.89	80.7355	1108.89	75.2345	1108.89	78.3777	1108.89	75.5962	1108.89	75.5822	1108.89	77.6438	1108.89	75.8421	1108.89	78.336	1108.89	77.5358	1108.89	76.8233	1108.89	77.2916	1108.89	72.1749	1108.89	73.8256	1108.89	68.2023	1108.89	66.9062	1108.89	73.3669	1108.89	72.1005	1108.89	74.8657
1148.44	89.1393	1148.44	88.9034	1148.44	88.9339	1148.44	88.2627	1148.44	88.3016	1148.44	87.2798	1148.44	87.3137	1148.44	86.0192	1148.44	86.0976	1148.44	84.5772	1148.44	84.8251	1148.44	83.1673	1148.44	83.6821	1148.44	82.1131	1148.44	82.798	1148.44	81.3856	1148.44	82.0751	1148.44	80.2579	1148.44	81.1022	1148.44	77.9003	1148.44	79.3997	1148.44	74.531	1148.44	76.9564	1148.44	74.2063	1148.44	75.3861	1148.44	75.9741	1148.44	75.7139	1148.44	75.5076	1148.44	75.213	1148.44	71.1164	1148.44	71.8842	1148.44	64.5694	1148.44	68.2968	1148.44	72.2519	1148.44	72.7525	1148.44	74.55
1189.45	88.6336	1189.45	88.4322	1189.45	88.4575	1189.45	87.7989	1189.45	87.9626	1189.45	86.7446	1189.45	87.1697	1189.45	85.376	1189.45	86.077	1189.45	83.8653	1189.45	84.7067	1189.45	82.3653	1189.45	83.1628	1189.45	80.9339	1189.45	81.7294	1189.45	79.5022	1189.45	80.7712	1189.45	77.9154	1189.45	80.1258	1189.45	76.1886	1189.45	79.1212	1189.45	75.0183	1189.45	77.5359	1189.45	75.1297	1189.45	76.3042	1189.45	75.2554	1189.45	75.9461	1189.45	73.4096	1189.45	74.4831	1189.45	66.6336	1189.45	69.1393	1189.45	66.5215	1189.45	67.6215	1189.45	74.0645	1189.45	74.3051	1189.45	76.0328
1230.47	88.3028	1230.47	87.9563	1230.47	88.3496	1230.47	87.3283	1230.47	87.9966	1230.47	86.414	1230.47	87.1527	1230.47	85.2595	1230.47	85.8869	1230.47	83.9417	1230.47	84.459	1230.47	82.5599	1230.47	83.1064	1230.47	81.2812	1230.47	81.8585	1230.47	80.2025	1230.47	80.6916	1230.47	79.0881	1230.47	79.4727	1230.47	77.5096	1230.47	77.8581	1230.47	75.6497	1230.47	76.0083	1230.47	75.3081	1230.47	75.4503	1230.47	76.295	1230.47	76.1519	1230.47	75.9649	1230.47	75.5662	1230.47	72.7689	1230.47	71.6241	1230.47	67.14	1230.47	66.314	1230.47	71.4924	1230.47	72.3639	1230.47	74.1189
1274.41	88.7662	1274.41	88.2567	1274.41	88.8694	1274.41	87.5964	1274.41	88.415	1274.41	86.9739	1274.41	87.4828	1274.41	86.366	1274.41	86.3933	1274.41	85.5481	1274.41	85.4067	1274.41	84.2808	1274.41	84.3841	1274.41	82.613	1274.41	83.0269	1274.41	81.154	1274.41	81.2575	1274.41	80.3004	1274.41	79.2068	1274.41	79.2128	1274.41	76.9339	1274.41	77.3944	1274.41	74.7557	1274.41	76.6061	1274.41	74.7835	1274.41	77.5871	1274.41	76.5055	1274.41	77.3701	1274.41	76.4597	1274.41	73.7775	1274.41	72.4298	1274.41	64.6891	1274.41	65.6378	1274.41	72.7922	1274.41	73.9329	1274.41	75.9047
1319.82	90.5594	1319.82	90.3124	1319.82	90.2973	1319.82	89.6816	1319.82	89.5492	1319.82	88.8132	1319.82	88.5708	1319.82	87.82	1319.82	87.6477	1319.82	86.7899	1319.82	86.6655	1319.82	85.7361	1319.82	85.2211	1319.82	84.5027	1319.82	83.252	1319.82	82.84	1319.82	81.5107	1319.82	80.6152	1319.82	80.8024	1319.82	78.022	1319.82	80.3901	1319.82	76.1421	1319.82	78.8954	1319.82	76.5603	1319.82	75.9438	1319.82	77.7205	1319.82	75.3689	1319.82	77.2338	1319.82	76.6067	1319.82	73.5155	1319.82	74.3996	1319.82	68.9424	1319.82	69.0453	1319.82	75.135	1319.82	74.92	1319.82	77.309
1366.7	91.3687	1366.7	91.1678	1366.7	91.0116	1366.7	90.5081	1366.7	90.182	1366.7	89.5357	1366.7	89.1702	1366.7	88.3323	1366.7	88.1898	1366.7	86.9429	1366.7	87.0762	1366.7	85.5365	1366.7	85.4461	1366.7	84.4774	1366.7	82.9505	1366.7	83.8925	1366.7	79.4165	1366.7	83.1735	1366.7	75.8768	1366.7	81.4159	1366.7	76.5836	1366.7	77.9924	1366.7	78.6046	1366.7	75.0802	1366.7	78.8069	1366.7	77.1181	1366.7	78.2172	1366.7	78.1508	1366.7	78.0331	1366.7	75.5681	1366.7	75.8514	1366.7	66.3715	1366.7	66.4126	1366.7	72.9364	1366.7	72.4788	1366.7	76.1392
1413.57	90.7933	1413.57	90.8265	1413.57	90.2649	1413.57	90.275	1413.57	89.547	1413.57	89.2859	1413.57	88.8705	1413.57	88.1326	1413.57	88.0775	1413.57	86.9725	1413.57	86.9109	1413.57	85.6395	1413.57	85.4773	1413.57	83.8633	1413.57	84.2017	1413.57	82.0273	1413.57	83.1906	1413.57	81.3082	1413.57	81.5939	1413.57	81.2852	1413.57	77.8703	1413.57	80.4214	1413.57	71.5598	1413.57	78.5609	1413.57	74.5664	1413.57	77.8404	1413.57	77.6549	1413.57	77.8656	1413.57	77.7562	1413.57	75.0571	1413.57	74.709	1413.57	66.5073	1413.57	65.7743	1413.57	73.5736	1413.57	72.9737	1413.57	76.2962
1463.38	90.6295	1463.38	90.4365	1463.38	90.3129	1463.38	89.7557	1463.38	89.7316	1463.38	88.8536	1463.38	89.0441	1463.38	87.9577	1463.38	88.0321	1463.38	87.0105	1463.38	86.4257	1463.38	85.7981	1463.38	84.3728	1463.38	84.2463	1463.38	82.5718	1463.38	82.4565	1463.38	81.7643	1463.38	80.5672	1463.38	81.7793	1463.38	78.8421	1463.38	81.393	1463.38	77.7589	1463.38	79.3762	1463.38	77.7306	1463.38	74.964	1463.38	78.4475	1463.38	72.8135	1463.38	78.3386	1463.38	75.406	1463.38	75.322	1463.38	74.1266	1463.38	66.9796	1463.38	64.7261	1463.38	73.4326	1463.38	72.1271	1463.38	75.9652
1516.11	89.5985	1516.11	89.5154	1516.11	89.444	1516.11	89.1068	1516.11	89.1317	1516.11	88.4075	1516.11	88.5716	1516.11	87.5653	1516.11	87.5701	1516.11	86.6999	1516.11	86.121	1516.11	85.6819	1516.11	84.6018	1516.11	84.1764	1516.11	83.3508	1516.11	82.0971	1516.11	81.8956	1516.11	80.0474	1516.11	79.4797	1516.11	78.554	1516.11	77.0727	1516.11	76.8482	1516.11	77.1914	1516.11	75.2514	1516.11	77.31	1516.11	76.5829	1516.11	75.9187	1516.11	77.8534	1516.11	75.0441	1516.11	75.7034	1516.11	73.8429	1516.11	65.9604	1516.11	66.6201	1516.11	71.3552	1516.11	70.3599	1516.11	74.6921
1568.85	89.3979	1568.85	89.1583	1568.85	89.3623	1568.85	88.811	1568.85	88.9647	1568.85	88.4217	1568.85	88.2022	1568.85	87.8163	1568.85	87.096	1568.85	86.7351	1568.85	85.7939	1568.85	85.1958	1568.85	84.579	1568.85	83.7029	1568.85	83.6275	1568.85	82.5751	1568.85	83.1327	1568.85	81.2156	1568.85	82.6142	1568.85	79.0412	1568.85	80.8671	1568.85	76.3476	1568.85	77.0655	1568.85	74.4329	1568.85	72.537	1568.85	75.231	1568.85	74.1388	1568.85	76.6103	1568.85	75.7806	1568.85	75.1583	1568.85	74.4662	1568.85	68.17	1568.85	68.6875	1568.85	70.9775	1568.85	70.4608	1568.85	74.1284
1624.51	89.6217	1624.51	89.5916	1624.51	89.3099	1624.51	89.1718	1624.51	88.8239	1624.51	88.5059	1624.51	88.1759	1624.51	87.7554	1624.51	87.2705	1624.51	86.8751	1624.51	86.3054	1624.51	85.6408	1624.51	85.5216	1624.51	83.9451	1624.51	84.4914	1624.51	82.0332	1624.51	82.5366	1624.51	80.4068	1624.51	79.8071	1624.51	79.2429	1624.51	78.0245	1624.51	77.8318	1624.51	77.6783	1624.51	75.3983	1624.51	76.6606	1624.51	74.5473	1624.51	74.8568	1624.51	76.2028	1624.51	75.4669	1624.51	74.9464	1624.51	75.2118	1624.51	65.5652	1624.51	68.3232	1624.51	71.0839	1624.51	69.8471	1624.51	74.7884
1681.64	89.4636	1681.64	89.3877	1681.64	89.2014	1681.64	88.9374	1681.64	88.7488	1681.64	88.4417	1681.64	87.9406	1681.64	88.0178	1681.64	86.8419	1681.64	87.2378	1681.64	85.9422	1681.64	85.7255	1681.64	85.0601	1681.64	83.9351	1681.64	83.7534	1681.64	82.6771	1681.64	82.4763	1681.64	81.3623	1681.64	81.3245	1681.64	79.0069	1681.64	79.5828	1681.64	76.5436	1681.64	76.339	1681.64	75.1917	1681.64	72.9105	1681.64	74.381	1681.64	73.2668	1681.64	75.5433	1681.64	74.4156	1681.64	75.2037	1681.64	73.8182	1681.64	68.9387	1681.64	66.1129	1681.64	69.4446	1681.64	68.5928	1681.64	73.7209
1741.7	88.1729	1741.7	88.1739	1741.7	88.5295	1741.7	88.475	1741.7	88.7322	1741.7	88.6287	1741.7	88.3741	1741.7	88.2512	1741.7	87.7059	1741.7	87.3563	1741.7	86.8079	1741.7	85.9754	1741.7	85.0741	1741.7	83.8034	1741.7	81.9048	1741.7	80.9469	1741.7	77.4487	1741.7	79.3495	1741.7	74.5585	1741.7	79.2973	1741.7	76.7779	1741.7	78.435	1741.7	78.682	1741.7	76.001	1741.7	77.5833	1741.7	74.2477	1741.7	73.5415	1741.7	75.6142	1741.7	72.8419	1741.7	74.8426	1741.7	73.9817	1741.7	66.7636	1741.7	68.0537	1741.7	69.1511	1741.7	66.2733	1741.7	73.1366
1803.22	87.9533	1803.22	87.8451	1803.22	88.3146	1803.22	88.1216	1803.22	88.3782	1803.22	88.2652	1803.22	88.0316	1803.22	87.8722	1803.22	87.5004	1803.22	86.9208	1803.22	86.5358	1803.22	85.5187	1803.22	84.6818	1803.22	83.8955	1803.22	82.2592	1803.22	82.3025	1803.22	80.3821	1803.22	80.1793	1803.22	79.019	1803.22	76.6508	1803.22	76.476	1803.22	74.5384	1803.22	72.9106	1803.22	75.4048	1803.22	73.6911	1803.22	74.5156	1803.22	73.8379	1803.22	74.321	1803.22	72.3199	1803.22	74.6604	1803.22	72.5105	1803.22	69.5798	1803.22	67.8802	1803.22	62.3397	1803.22	62.8244	1803.22	70.114
1866.21	88.6855	1866.21	88.5559	1866.21	88.4647	1866.21	88.3675	1866.21	87.8954	1866.21	88.1191	1866.21	87.3897	1866.21	87.5172	1866.21	86.9396	1866.21	86.5339	1866.21	85.8448	1866.21	85.4472	1866.21	83.9743	1866.21	83.9626	1866.21	82.3416	1866.21	81.4989	1866.21	81.2259	1866.21	78.862	1866.21	79.1143	1866.21	77.3788	1866.21	76.1929	1866.21	75.8664	1866.21	75.5491	1866.21	74.5207	1866.21	75.9163	1866.21	73.9395	1866.21	73.9446	1866.21	74.0561	1866.21	71.0347	1866.21	74.2214	1866.21	72.9914	1866.21	69.6876	1866.21	69.0673	1866.21	64.2769	1866.21	62.3278	1866.21	70.9199
1932.13	88.519	1932.13	88.5385	1932.13	88.1488	1932.13	88.2866	1932.13	87.8771	1932.13	88.073	1932.13	87.7673	1932.13	87.7175	1932.13	87.0929	1932.13	86.7926	1932.13	85.4363	1932.13	85.1672	1932.13	83.4547	1932.13	83.0491	1932.13	82.1206	1932.13	81.2878	1932.13	81.2726	1932.13	80.5956	1932.13	80.8323	1932.13	79.1289	1932.13	79.3414	1932.13	75.6999	1932.13	74.7665	1932.13	74.1058	1932.13	71.1942	1932.13	74.347	1932.13	74.2987	1932.13	73.6882	1932.13	72.2739	1932.13	73.7675	1932.13	71.2581	1932.13	68.9379	1932.13	67.9664	1932.13	63.502	1932.13	62.7331	1932.13	71.021
1999.51	87.1372	1999.51	87.3439	1999.51	87.5129	1999.51	87.8994	1999.51	88.0411	1999.51	88.2813	1999.51	87.9966	1999.51	87.899	1999.51	87.067	1999.51	86.5615	1999.51	85.5751	1999.51	84.9895	1999.51	84.2829	1999.51	83.7081	1999.51	83.0828	1999.51	81.332	1999.51	80.9044	1999.51	76.883	1999.51	77.3938	1999.51	74.7885	1999.51	75.3896	1999.51	75.9955	1999.51	75.6807	1999.51	75.5663	1999.51	75.2279	1999.51	73.9982	1999.51	74.181	1999.51	73.0769	1999.51	71.4576	1999.51	73.3955	1999.51	71.6059	1999.51	69.4077	1999.51	68.9903	1999.51	60.8076	1999.51	60.6056	1999.51	70.4117
2069.82	87.4016	2069.82	87.3346	2069.82	87.7256	2069.82	87.8623	2069.82	87.8216	2069.82	88.3237	2069.82	87.6022	2069.82	87.9366	2069.82	86.9189	2069.82	86.7204	2069.82	85.744	2069.82	85.1726	2069.82	84.3547	2069.82	83.4329	2069.82	82.5906	2069.82	81.5303	2069.82	80.3811	2069.82	80.2785	2069.82	78.8513	2069.82	78.9345	2069.82	77.8798	2069.82	75.2404	2069.82	74.5323	2069.82	72.7297	2069.82	69.6433	2069.82	74.29	2069.82	73.665	2069.82	73.0088	2069.82	71.817	2069.82	72.721	2069.82	69.9812	2069.82	70.1937	2069.82	68.8098	2069.82	57.1726	2069.82	56.1956	2069.82	67.8867
2143.07	88.3276	2143.07	88.5686	2143.07	87.8826	2143.07	88.441	2143.07	87.9356	2143.07	88.2408	2143.07	88.007	2143.07	88.0156	2143.07	87.0626	2143.07	87.2277	2143.07	85.723	2143.07	85.3577	2143.07	84.4958	2143.07	83.2703	2143.07	82.1757	2143.07	82.1433	2143.07	78.397	2143.07	80.5035	2143.07	75.1032	2143.07	77.421	2143.07	75.7366	2143.07	74.3843	2143.07	76.4114	2143.07	73.5876	2143.07	73.8454	2143.07	73.7146	2143.07	73.3586	2143.07	72.5971	2143.07	71.6847	2143.07	73.0036	2143.07	70.5058	2143.07	70.6495	2143.07	70.5783	2143.07	58.9262	2143.07	48.597	2143.07	68.4944
2219.24	88.2203	2219.24	88.599	2219.24	88.4616	2219.24	88.915	2219.24	88.9417	2219.24	88.8364	2219.24	88.7142	2219.24	88.4271	2219.24	87.5981	2219.24	87.5329	2219.24	86.1345	2219.24	85.976	2219.24	84.7262	2219.24	84.0923	2219.24	83.0167	2219.24	82.0121	2219.24	81.1734	2219.24	79.7365	2219.24	80.0143	2219.24	78.3407	2219.24	78.5819	2219.24	77.2286	2219.24	75.7186	2219.24	75.1389	2219.24	73.5376	2219.24	74.1271	2219.24	74.5631	2219.24	72.9194	2219.24	72.9635	2219.24	73.6595	2219.24	71.6645	2219.24	71.9228	2219.24	71.6507	2219.24	58.9144	2219.24	53.2335	2219.24	68.1186
2296.88	87.7132	2296.88	87.9485	2296.88	88.4758	2296.88	89.1021	2296.88	88.9669	2296.88	89.5108	2296.88	88.7644	2296.88	88.6224	2296.88	87.9041	2296.88	87.2329	2296.88	86.5742	2296.88	85.8739	2296.88	84.8973	2296.88	84.1165	2296.88	82.7212	2296.88	82.1644	2296.88	80.7318	2296.88	80.5126	2296.88	79.0342	2296.88	78.7871	2296.88	76.6469	2296.88	76.933	2296.88	75.2462	2296.88	75.7883	2296.88	74.3173	2296.88	75.2683	2296.88	74.968	2296.88	72.7647	2296.88	73.553	2296.88	73.3934	2296.88	71.4329	2296.88	72.2342	2296.88	72.0794	2296.88	52.6827	2296.88	55.3516	2296.88	67.9633
2378.91	88.8431	2378.91	88.9298	2378.91	88.8753	2378.91	89.3192	2378.91	89.166	2378.91	89.6413	2378.91	89.3349	2378.91	89.2047	2378.91	88.5372	2378.91	87.9735	2378.91	86.9484	2378.91	86.0961	2378.91	85.4264	2378.91	83.8053	2378.91	83.7539	2378.91	81.7952	2378.91	81.4059	2378.91	79.7049	2378.91	78.7793	2378.91	77.3066	2378.91	77.5724	2378.91	76.5832	2378.91	77.3905	2378.91	75.7099	2378.91	74.4493	2378.91	76.2089	2378.91	75.3228	2378.91	74.4153	2378.91	75.1211	2378.91	72.4704	2378.91	71.1745	2378.91	72.3346	2378.91	72.9884	2378.91	55.2179	2378.91	59.1112	2378.91	67.2091
2462.4	89.4592	2462.4	89.5706	2462.4	89.4171	2462.4	89.5409	2462.4	89.6127	2462.4	89.4961	2462.4	89.3434	2462.4	89.1145	2462.4	88.2491	2462.4	87.9679	2462.4	86.9685	2462.4	86.2434	2462.4	85.4056	2462.4	84.0457	2462.4	83.2256	2462.4	81.1709	2462.4	81.1147	2462.4	78.5691	2462.4	79.5303	2462.4	78.0315	2462.4	77.1853	2462.4	77.6914	2462.4	75.4091	2462.4	75.0945	2462.4	74.5204	2462.4	75.8258	2462.4	74.2749	2462.4	75.4197	2462.4	75.512	2462.4	73.6786	2462.4	71.6079	2462.4	73.1786	2462.4	73.188	2462.4	58.8919	2462.4	62.6056	2462.4	66.2018
2548.83	89.0472	2548.83	88.9753	2548.83	89.4093	2548.83	89.4061	2548.83	89.613	2548.83	89.5704	2548.83	89.2559	2548.83	88.8835	2548.83	88.3591	2548.83	87.6213	2548.83	87.0591	2548.83	86.013	2548.83	84.975	2548.83	83.9236	2548.83	82.671	2548.83	81.8372	2548.83	80.7154	2548.83	80.1296	2548.83	78.7227	2548.83	76.9131	2548.83	76.0432	2548.83	75.4341	2548.83	74.8136	2548.83	75.6242	2548.83	74.9271	2548.83	74.7652	2548.83	73.8713	2548.83	74.5374	2548.83	75.0092	2548.83	73.3525	2548.83	71.6747	2548.83	73.0449	2548.83	72.7232	2548.83	56.5939	2548.83	62.1077	2548.83	65.8539
2639.65	89.5243	2639.65	89.6755	2639.65	89.4933	2639.65	89.5306	2639.65	89.7066	2639.65	89.3381	2639.65	89.2902	2639.65	88.7757	2639.65	88.477	2639.65	87.624	2639.65	86.9851	2639.65	85.9767	2639.65	84.899	2639.65	84.009	2639.65	83.5114	2639.65	81.556	2639.65	81.6787	2639.65	79.2319	2639.65	79.1923	2639.65	76.0922	2639.65	77.6596	2639.65	73.635	2639.65	75.4989	2639.65	73.9426	2639.65	74.3168	2639.65	74.0138	2639.65	74.0095	2639.65	74.9649	2639.65	75.2869	2639.65	72.4229	2639.65	71.8683	2639.65	72.7832	2639.65	72.267	2639.65	59.9084	2639.65	63.4427	2639.65	64.6837
2731.93	89.4229	2731.93	89.5589	2731.93	89.4912	2731.93	89.4611	2731.93	89.2255	2731.93	89.0932	2731.93	88.7034	2731.93	88.4943	2731.93	88.0127	2731.93	87.4963	2731.93	86.4733	2731.93	85.96	2731.93	85.2361	2731.93	84.3636	2731.93	83.7818	2731.93	82.1364	2731.93	81.8764	2731.93	78.4378	2731.93	79.9304	2731.93	77.0933	2731.93	77.6872	2731.93	75.2872	2731.93	75.6379	2731.93	72.6532	2731.93	73.9927	2731.93	73.7149	2731.93	74.038	2731.93	74.545	2731.93	74.9541	2731.93	71.7147	2731.93	71.9295	2731.93	71.56	2731.93	71.6057	2731.93	60.0116	2731.93	62.6814	2731.93	63.0626
2828.61	89.5286	2828.61	89.2825	2828.61	89.7194	2828.61	89.3233	2828.61	89.5514	2828.61	89.0698	2828.61	89.1747	2828.61	88.462	2828.61	88.1532	2828.61	87.6456	2828.61	87.1749	2828.61	86.4165	2828.61	86.1981	2828.61	84.9621	2828.61	84.1052	2828.61	83.0322	2828.61	81.3547	2828.61	80.5481	2828.61	78.8437	2828.61	77.6395	2828.61	77.1541	2828.61	75.1913	2828.61	75.6885	2828.61	74.5465	2828.61	74.5516	2828.61	73.277	2828.61	73.4004	2828.61	75.3733	2828.61	74.9416	2828.61	72.5467	2828.61	72.7448	2828.61	71.1383	2828.61	71.2549	2828.61	57.5666	2828.61	63.8762	2828.61	63.0492
2928.22	90.3994	2928.22	90.2679	2928.22	89.9943	2928.22	89.5649	2928.22	89.5136	2928.22	89.1058	2928.22	89.2062	2928.22	88.695	2928.22	88.5861	2928.22	88.055	2928.22	87.7473	2928.22	87.3178	2928.22	85.9436	2928.22	85.976	2928.22	82.9911	2928.22	83.9378	2928.22	80.77	2928.22	81.2668	2928.22	78.5666	2928.22	78.506	2928.22	76.5039	2928.22	75.8973	2928.22	75.0676	2928.22	75.6173	2928.22	74.6179	2928.22	72.8203	2928.22	73.0932	2928.22	75.2024	2928.22	75.0082	2928.22	73.1427	2928.22	73.2262	2928.22	72.3442	2928.22	71.5964	2928.22	61.4406	2928.22	64.1376	2928.22	64.1076
3030.76	90.5241	3030.76	90.1665	3030.76	90.0695	3030.76	89.5427	3030.76	89.4801	3030.76	89.1729	3030.76	89.0843	3030.76	88.9861	3030.76	88.4611	3030.76	88.3864	3030.76	87.5824	3030.76	87.5537	3030.76	85.5493	3030.76	85.9975	3030.76	84.2512	3030.76	84.2491	3030.76	82.4888	3030.76	81.7549	3030.76	80.2499	3030.76	79.0406	3030.76	77.6677	3030.76	75.4597	3030.76	75.6229	3030.76	75.5546	3030.76	74.6785	3030.76	73.8703	3030.76	74.0068	3030.76	74.5973	3030.76	75.0212	3030.76	73.1974	3030.76	73.6053	3030.76	71.7056	3030.76	70.4116	3030.76	59.9521	3030.76	63.8319	3030.76	65.9007
3137.7	90.1358	3137.7	90.0072	3137.7	90.0031	3137.7	89.7788	3137.7	89.4311	3137.7	89.1376	3137.7	88.816	3137.7	88.9571	3137.7	88.8947	3137.7	88.4717	3137.7	87.9809	3137.7	87.2784	3137.7	86.9534	3137.7	85.5243	3137.7	85.5174	3137.7	83.6899	3137.7	83.0707	3137.7	82.0314	3137.7	80.7476	3137.7	79.3859	3137.7	77.7447	3137.7	76.6093	3137.7	76.3897	3137.7	74.138	3137.7	74.6345	3137.7	73.7166	3137.7	74.1848	3137.7	74.3761	3137.7	74.1875	3137.7	73.3245	3137.7	74.1564	3137.7	71.5917	3137.7	70.0489	3137.7	61.0984	3137.7	65.2628	3137.7	65.3011
3249.02	90.8371	3249.02	90.425	3249.02	90.0245	3249.02	89.2975	3249.02	89.1636	3249.02	89.1055	3249.02	88.7544	3249.02	88.8839	3249.02	88.6872	3249.02	88.1715	3249.02	87.8234	3249.02	86.5747	3249.02	87.1874	3249.02	84.5994	3249.02	84.5762	3249.02	83.0079	3249.02	81.2032	3249.02	81.5716	3249.02	78.459	3249.02	78.955	3249.02	76.5309	3249.02	76.835	3249.02	75.5465	3249.02	74.7499	3249.02	74.6585	3249.02	73.2881	3249.02	73.8885	3249.02	74.2434	3249.02	73.5937	3249.02	73.4481	3249.02	74.1507	3249.02	72.5334	3249.02	69.4632	3249.02	64.0227	3249.02	64.1786	3249.02	63.8741
3363.28	89.9044	3363.28	89.8932	3363.28	89.9636	3363.28	89.6793	3363.28	88.9014	3363.28	88.9339	3363.28	88.9205	3363.28	88.7285	3363.28	88.1791	3363.28	87.9065	3363.28	87.9018	3363.28	85.1104	3363.28	85.5536	3363.28	82.4491	3363.28	83.0007	3363.28	80.9423	3363.28	81.1392	3363.28	79.749	3363.28	78.1571	3363.28	78.4571	3363.28	76.2706	3363.28	76.3334	3363.28	74.2332	3363.28	73.2705	3363.28	73.6909	3363.28	73.2778	3363.28	73.4989	3363.28	73.5247	3363.28	72.8318	3363.28	73.6485	3363.28	73.8615	3363.28	70.6326	3363.28	68.6445	3363.28	60.405	3363.28	62.6223	3363.28	66.1398
3481.93	90.7783	3481.93	90.2392	3481.93	89.8273	3481.93	89.5446	3481.93	89.1654	3481.93	89.1986	3481.93	88.5324	3481.93	88.8097	3481.93	88.4779	3481.93	87.6496	3481.93	87.5397	3481.93	84.9905	3481.93	85.991	3481.93	81.9076	3481.93	84.5406	3481.93	79.9791	3481.93	81.6707	3481.93	78.3946	3481.93	78.6156	3481.93	77.8776	3481.93	76.317	3481.93	76.8036	3481.93	74.1672	3481.93	73.6055	3481.93	74.0432	3481.93	73.2623	3481.93	72.7771	3481.93	73.0461	3481.93	72.6699	3481.93	73.7513	3481.93	74.065	3481.93	69.5251	3481.93	68.1481	3481.93	58.5399	3481.93	64.0357	3481.93	67.6169
3604.98	90.3298	3604.98	89.9091	3604.98	90.1321	3604.98	89.7965	3604.98	89.4459	3604.98	89.2675	3604.98	88.4776	3604.98	88.8063	3604.98	88.0671	3604.98	87.9725	3604.98	87.072	3604.98	86.0067	3604.98	86.3357	3604.98	82.7797	3604.98	84.2866	3604.98	78.6516	3604.98	81.5057	3604.98	77.445	3604.98	78.7048	3604.98	77.8351	3604.98	76.8435	3604.98	76.6498	3604.98	73.2673	3604.98	75.0781	3604.98	73.5481	3604.98	73.821	3604.98	72.682	3604.98	72.7036	3604.98	72.2646	3604.98	73.9549	3604.98	73.2815	3604.98	69.047	3604.98	67.5673	3604.98	58.0555	3604.98	63.848	3604.98	65.8275
3732.42	90.8781	3732.42	90.571	3732.42	90.308	3732.42	89.6921	3732.42	89.6778	3732.42	89.3752	3732.42	88.9581	3732.42	88.9745	3732.42	88.1986	3732.42	88.0283	3732.42	87.4236	3732.42	87.1276	3732.42	85.5541	3732.42	84.7353	3732.42	83.3746	3732.42	81.0911	3732.42	80.8614	3732.42	77.9784	3732.42	77.8022	3732.42	77.0686	3732.42	75.8736	3732.42	75.6018	3732.42	73.7977	3732.42	73.877	3732.42	72.5885	3732.42	73.9591	3732.42	72.4549	3732.42	72.7296	3732.42	72.2057	3732.42	73.9546	3732.42	72.9784	3732.42	69.5139	3732.42	67.5878	3732.42	56.5045	3732.42	62.3235	3732.42	67.5804
3864.26	90.0741	3864.26	90.1095	3864.26	90.305	3864.26	89.5189	3864.26	89.6589	3864.26	88.9244	3864.26	88.7692	3864.26	88.5135	3864.26	87.7625	3864.26	88.1533	3864.26	86.8677	3864.26	87.3648	3864.26	85.4663	3864.26	85.0082	3864.26	83.216	3864.26	81.0613	3864.26	80.5855	3864.26	76.6767	3864.26	78.0422	3864.26	77.0847	3864.26	74.7093	3864.26	77.0083	3864.26	73.1981	3864.26	75.7454	3864.26	72.0015	3864.26	72.6418	3864.26	71.7919	3864.26	71.7578	3864.26	71.6632	3864.26	73.1058	3864.26	72.5614	3864.26	68.4311	3864.26	68.1199	3864.26	55.619	3864.26	59.7718	3864.26	67.6777
4000.49	90.3003	4000.49	90.3715	4000.49	90.1652	4000.49	89.2337	4000.49	89.7909	4000.49	88.1679	4000.49	88.5413	4000.49	87.732	4000.49	87.6104	4000.49	88.1273	4000.49	87.1804	4000.49	87.2845	4000.49	86.2385	4000.49	85.2949	4000.49	84.7351	4000.49	82.0683	4000.49	82.417	4000.49	76.3627	4000.49	79.2855	4000.49	73.5486	4000.49	76.5524	4000.49	75.9359	4000.49	73.0689	4000.49	76.4508	4000.49	72.1974	4000.49	72.5871	4000.49	72.2332	4000.49	69.8588	4000.49	71.8147	4000.49	71.8511	4000.49	71.7932	4000.49	65.1237	4000.49	67.2205	4000.49	52.5244	4000.49	55.718	4000.49	67.8611
4141.11	89.448	4141.11	89.6512	4141.11	90.0234	4141.11	89.4456	4141.11	89.6238	4141.11	87.5898	4141.11	88.2858	4141.11	87.1513	4141.11	87.5053	4141.11	87.0707	4141.11	86.6264	4141.11	86.9557	4141.11	86.0182	4141.11	84.9941	4141.11	83.9741	4141.11	82.3026	4141.11	80.8192	4141.11	78.2539	4141.11	78.028	4141.11	69.7459	4141.11	75.1083	4141.11	71.983	4141.11	73.8076	4141.11	75.3533	4141.11	70.9507	4141.11	73.3796	4141.11	71.8361	4141.11	70.4073	4141.11	71.1132	4141.11	70.8476	4141.11	71.0843	4141.11	62.378	4141.11	66.0272	4141.11	40.5692	4141.11	51.2859	4141.11	67.8337
4287.6	89.7063	4287.6	89.4281	4287.6	89.7042	4287.6	88.8893	4287.6	89.1411	4287.6	87.2848	4287.6	87.7531	4287.6	86.6918	4287.6	86.8286	4287.6	86.4454	4287.6	86.5651	4287.6	86.3587	4287.6	84.9127	4287.6	85.1427	4287.6	82.005	4287.6	81.8699	4287.6	80.1616	4287.6	77.3405	4287.6	77.304	4287.6	74.799	4287.6	73.6774	4287.6	70.7491	4287.6	71.6574	4287.6	72.7071	4287.6	70.0982	4287.6	73.4548	4287.6	70.6426	4287.6	70.0702	4287.6	70.0845	4287.6	70.6718	4287.6	69.6921	4287.6	63.8103	4287.6	64.0364	4287.6	49.7072	4287.6	54.6435	4287.6	68.0067
4438.48	89.0127	4438.48	88.872	4438.48	89.236	4438.48	88.2891	4438.48	88.5745	4438.48	86.5372	4438.48	87.1588	4438.48	85.7842	4438.48	85.8504	4438.48	85.7658	4438.48	85.5848	4438.48	85.5174	4438.48	84.7108	4438.48	84.8302	4438.48	83.859	4438.48	82.4814	4438.48	80.9922	4438.48	78.7075	4438.48	77.5883	4438.48	72.4972	4438.48	75.0172	4438.48	70.9257	4438.48	70.9095	4438.48	71.3721	4438.48	70.0936	4438.48	73.952	4438.48	70.1095	4438.48	70.5469	4438.48	69.7295	4438.48	66.5943	4438.48	68.4809	4438.48	61.8297	4438.48	64.0051	4438.48	56.1353	4438.48	53.2704	4438.48	66.9336
4595.21	88.9799	4595.21	88.7448	4595.21	88.7714	4595.21	87.8369	4595.21	88.1723	4595.21	86.3854	4595.21	86.6203	4595.21	85.2668	4595.21	86.0127	4595.21	85.2376	4595.21	85.2187	4595.21	84.1451	4595.21	84.4846	4595.21	83.6595	4595.21	80.9383	4595.21	82.5275	4595.21	77.1405	4595.21	78.8556	4595.21	74.5298	4595.21	73.0511	4595.21	72.8109	4595.21	65.4115	4595.21	71.1374	4595.21	69.0814	4595.21	69.3816	4595.21	71.8113	4595.21	69.3004	4595.21	71.1159	4595.21	68.6921	4595.21	68.3832	4595.21	67.9142	4595.21	58.0666	4595.21	63.8508	4595.21	55.7305	4595.21	53.8262	4595.21	66.4199
4756.35	89.1662	4756.35	88.6457	4756.35	88.6521	4756.35	87.9162	4756.35	87.9773	4756.35	86.85	4756.35	87.0167	4756.35	85.1811	4756.35	85.7297	4756.35	84.7748	4756.35	85.5072	4756.35	82.9957	4756.35	83.284	4756.35	81.4379	4756.35	82.2403	4756.35	80.9229	4756.35	80.3599	4756.35	80.0755	4756.35	76.6732	4756.35	76.2156	4756.35	72.9026	4756.35	65.8267	4756.35	70.296	4756.35	63.9042	4756.35	69.2553	4756.35	71.9344	4756.35	69.2344	4756.35	71.3369	4756.35	68.8904	4756.35	67.1589	4756.35	68.2681	4756.35	63.7024	4756.35	63.9868	4756.35	52.0469	4756.35	50.8546	4756.35	66.2163
4924.8	89.3172	4924.8	88.5861	4924.8	88.8243	4924.8	87.9409	4924.8	87.9758	4924.8	86.8998	4924.8	87.1328	4924.8	85.537	4924.8	85.6488	4924.8	84.34	4924.8	84.4153	4924.8	83.0444	4924.8	84.4693	4924.8	80.6207	4924.8	82.8811	4924.8	78.7685	4924.8	79.0294	4924.8	78.0077	4924.8	76.7206	4924.8	76.5342	4924.8	73.4494	4924.8	73.8612	4924.8	70.5438	4924.8	65.8513	4924.8	69.6549	4924.8	70.3826	4924.8	68.6484	4924.8	72.7868	4924.8	68.8121	4924.8	65.9687	4924.8	67.3862	4924.8	60.1188	4924.8	62.8183	4924.8	56.4951	4924.8	52.1881	4924.8	64.8354
5097.66	89.6639	5097.66	89.0227	5097.66	88.6668	5097.66	87.6715	5097.66	88.0113	5097.66	87.2364	5097.66	86.9479	5097.66	85.4941	5097.66	85.6146	5097.66	84.2972	5097.66	84.6231	5097.66	83.2652	5097.66	82.946	5097.66	81.3154	5097.66	79.9454	5097.66	77.6521	5097.66	78.6773	5097.66	76.465	5097.66	75.1011	5097.66	73.8934	5097.66	71.6889	5097.66	72.9721	5097.66	69.6339	5097.66	69.9025	5097.66	67.6097	5097.66	66.5731	5097.66	68.3075	5097.66	71.0208	5097.66	68.0782	5097.66	69.1477	5097.66	67.5453	5097.66	64.9199	5097.66	63.9098	5097.66	55.6716	5097.66	56.3572	5097.66	65.1979
5277.83	89.6359	5277.83	89.0033	5277.83	88.6718	5277.83	88.2951	5277.83	88.0026	5277.83	87.9052	5277.83	87.3537	5277.83	85.6254	5277.83	85.2986	5277.83	84.7793	5277.83	84.1147	5277.83	84.7483	5277.83	83.9016	5277.83	81.6745	5277.83	83.2206	5277.83	78.982	5277.83	80.1992	5277.83	76.289	5277.83	76.746	5277.83	72.6579	5277.83	73.449	5277.83	71.7441	5277.83	69.6241	5277.83	70.4445	5277.83	69.2137	5277.83	66.8086	5277.83	67.8243	5277.83	70.6803	5277.83	68.1295	5277.83	68.5378	5277.83	67.9364	5277.83	66.721	5277.83	65.0029	5277.83	60.7221	5277.83	60.0568	5277.83	64.1144
5463.87	89.3383	5463.87	88.6002	5463.87	88.7611	5463.87	88.3826	5463.87	88.0049	5463.87	87.57	5463.87	87.1696	5463.87	86.2059	5463.87	85.6694	5463.87	85.3817	5463.87	84.6044	5463.87	85.2303	5463.87	83.7579	5463.87	82.9787	5463.87	80.2862	5463.87	79.3285	5463.87	78.2402	5463.87	76.1076	5463.87	74.8823	5463.87	75.1906	5463.87	72.0443	5463.87	72.8359	5463.87	70.2844	5463.87	69.6427	5463.87	66.9769	5463.87	66.6988	5463.87	67.5748	5463.87	71.1772	5463.87	69.1856	5463.87	68.8893	5463.87	67.1005	5463.87	60.0333	5463.87	64.1272	5463.87	64.7966	5463.87	55.8153	5463.87	64.4904
5657.23	89.0942	5657.23	88.6148	5657.23	88.4308	5657.23	87.5883	5657.23	88.313	5657.23	86.8554	5657.23	87.1531	5657.23	86.3569	5657.23	85.527	5657.23	85.6257	5657.23	84.6973	5657.23	84.4794	5657.23	84.1595	5657.23	83.6474	5657.23	83.3703	5657.23	80.0268	5657.23	80.5671	5657.23	75.8259	5657.23	77.1195	5657.23	74.4284	5657.23	73.3862	5657.23	73.4032	5657.23	70.0466	5657.23	70.0827	5657.23	68.6862	5657.23	67.7431	5657.23	68.2372	5657.23	69.2212	5657.23	68.4374	5657.23	69.467	5657.23	68.2179	5657.23	66.435	5657.23	64.4566	5657.23	64.4419	5657.23	63.5939	5657.23	63.7035
5856.45	89.1367	5856.45	89.0637	5856.45	88.8661	5856.45	88.0996	5856.45	88.3209	5856.45	86.9396	5856.45	87.3564	5856.45	85.7613	5856.45	86.0734	5856.45	85.5758	5856.45	85.8008	5856.45	84.6505	5856.45	84.8542	5856.45	83.6707	5856.45	82.2892	5856.45	80.6088	5856.45	79.4404	5856.45	76.4718	5856.45	76.3953	5856.45	75.2569	5856.45	74.0713	5856.45	70.3041	5856.45	71.3025	5856.45	68.6833	5856.45	68.3594	5856.45	68.1335	5856.45	69.2016	5856.45	69.3404	5856.45	69.2622	5856.45	70.4128	5856.45	67.6779	5856.45	66.3032	5856.45	65.198	5856.45	65.411	5856.45	63.5702	5856.45	62.1824
6062.99	88.7755	6062.99	89.3151	6062.99	89.3262	6062.99	89.0915	6062.99	88.7383	6062.99	86.7953	6062.99	87.3869	6062.99	85.8826	6062.99	86.8242	6062.99	85.3346	6062.99	85.57	6062.99	85.7255	6062.99	85.1458	6062.99	84.0915	6062.99	84.0391	6062.99	80.2332	6062.99	81.2938	6062.99	77.6948	6062.99	78.3279	6062.99	75.1186	6062.99	73.5656	6062.99	72.1725	6062.99	70.9024	6062.99	69.9067	6062.99	69.3767	6062.99	70.9683	6062.99	68.9426	6062.99	68.9995	6062.99	69.2967	6062.99	68.4267	6062.99	67.6826	6062.99	63.7457	6062.99	62.9023	6062.99	64.6024	6062.99	62.6688	6062.99	55.5451
6276.86	89.5768	6276.86	89.5903	6276.86	89.6951	6276.86	88.6887	6276.86	88.7598	6276.86	88.1519	6276.86	87.6585	6276.86	86.8745	6276.86	86.6099	6276.86	86.7228	6276.86	86.2319	6276.86	86.3757	6276.86	85.2333	6276.86	85.2137	6276.86	83.0844	6276.86	81.6739	6276.86	80.4656	6276.86	76.255	6276.86	76.5174	6276.86	74.1366	6276.86	74.431	6276.86	72.7643	6276.86	70.2873	6276.86	70.7143	6276.86	69.2383	6276.86	69.7963	6276.86	68.8379	6276.86	69.5787	6276.86	69.2851	6276.86	67.99	6276.86	67.5195	6276.86	65.4211	6276.86	63.1934	6276.86	65.1826	6276.86	63.6117	6276.86	59.1753
6498.05	89.3263	6498.05	90.1448	6498.05	90.0004	6498.05	88.3352	6498.05	88.7945	6498.05	88.5352	6498.05	87.8339	6498.05	87.9242	6498.05	87.1959	6498.05	87.0137	6498.05	85.4921	6498.05	87.4726	6498.05	84.9322	6498.05	85.5583	6498.05	84.3253	6498.05	84.1198	6498.05	81.7963	6498.05	77.9878	6498.05	78.192	6498.05	71.7956	6498.05	74.4158	6498.05	72.8156	6498.05	71.1782	6498.05	71.6799	6498.05	68.4122	6498.05	70.7878	6498.05	69.2526	6498.05	70.9536	6498.05	69.3973	6498.05	66.1864	6498.05	66.1311	6498.05	64.0902	6498.05	64.0692	6498.05	66.9809	6498.05	65.1858	6498.05	55.756
6726.56	89.6459	6726.56	90.2146	6726.56	89.7616	6726.56	89.0759	6726.56	88.9876	6726.56	87.6428	6726.56	87.9404	6726.56	87.7427	6726.56	86.6696	6726.56	87.2049	6726.56	85.8386	6726.56	87.1289	6726.56	84.9783	6726.56	86.7939	6726.56	82.0706	6726.56	84.485	6726.56	79.3442	6726.56	80.6872	6726.56	76.8278	6726.56	70.8527	6726.56	72.6218	6726.56	71.4485	6726.56	70.4114	6726.56	70.0886	6726.56	68.633	6726.56	68.7693	6726.56	68.7141	6726.56	70.1888	6726.56	69.6474	6726.56	65.3789	6726.56	65.687	6726.56	66.1082	6726.56	62.6355	6726.56	64.5677	6726.56	62.6996	6726.56	52.4344
6963.87	90.0566	6963.87	89.0832	6963.87	89.4154	6963.87	89.3	6963.87	88.646	6963.87	86.8034	6963.87	87.5739	6963.87	85.6861	6963.87	86.4192	6963.87	85.9529	6963.87	85.0014	6963.87	84.8812	6963.87	84.1321	6963.87	85.2117	6963.87	83.8265	6963.87	83.6376	6963.87	80.534	6963.87	80.0655	6963.87	76.2604	6963.87	74.1238	6963.87	73.266	6963.87	69.7508	6963.87	69.2606	6963.87	67.9647	6963.87	67.6547	6963.87	68.5255	6963.87	68.3034	6963.87	68.7996	6963.87	68.5806	6963.87	62.7868	6963.87	64.1997	6963.87	62.1239	6963.87	62.6781	6963.87	66.0664	6963.87	64.026	6963.87	59.3338
7209.96	89.9046	7209.96	89.6269	7209.96	89.4872	7209.96	88.8691	7209.96	88.9165	7209.96	87.6047	7209.96	87.5563	7209.96	85.0536	7209.96	86.1396	7209.96	83.8379	7209.96	85.2087	7209.96	82.3289	7209.96	84.2946	7209.96	81.1409	7209.96	81.5018	7209.96	80.2473	7209.96	79.0903	7209.96	79.8077	7209.96	75.5381	7209.96	74.1418	7209.96	72.1581	7209.96	66.4834	7209.96	69.4399	7209.96	68.2368	7209.96	67.5334	7209.96	69.061	7209.96	67.9415	7209.96	67.297	7209.96	68.4004	7209.96	60.5432	7209.96	65.155	7209.96	65.4416	7209.96	63.1308	7209.96	62.7663	7209.96	60.7458	7209.96	54.6354
7464.84	90.2254	7464.84	89.2904	7464.84	88.9843	7464.84	88.6941	7464.84	89.1012	7464.84	87.4492	7464.84	87.478	7464.84	85.6718	7464.84	86.3863	7464.84	84.0846	7464.84	85.321	7464.84	83.6981	7464.84	84.3312	7464.84	80.5346	7464.84	83.1563	7464.84	74.227	7464.84	80.0033	7464.84	77.6907	7464.84	76.8369	7464.84	77.3369	7464.84	72.7199	7464.84	65.1106	7464.84	68.841	7464.84	68.6366	7464.84	67.4781	7464.84	68.1113	7464.84	66.8093	7464.84	69.0311	7464.84	67.9526	7464.84	63.7854	7464.84	63.4044	7464.84	63.8143	7464.84	64.6372	7464.84	65.5157	7464.84	63.5759	7464.84	59.576
7727.05	90.1875	7727.05	89.3514	7727.05	89.3602	7727.05	89.6342	7727.05	89.3733	7727.05	87.6837	7727.05	88.2761	7727.05	87.4319	7727.05	86.8844	7727.05	86.4545	7727.05	85.5316	7727.05	86.0954	7727.05	84.3747	7727.05	83.7041	7727.05	83.2741	7727.05	78.7683	7727.05	80.6437	7727.05	73.4881	7727.05	76.3077	7727.05	75.9592	7727.05	71.9837	7727.05	71.3425	7727.05	68.6846	7727.05	66.2106	7727.05	66.3177	7727.05	68.6831	7727.05	66.4262	7727.05	65.6871	7727.05	67.2445	7727.05	60.882	7727.05	61.7985	7727.05	65.91	7727.05	63.2226	7727.05	57.819	7727.05	61.4946	7727.05	55.0026
7999.51	90.4918	7999.51	89.917	7999.51	89.9996	7999.51	89.5972	7999.51	89.8828	7999.51	89.44	7999.51	88.8384	7999.51	87.6978	7999.51	87.1932	7999.51	88.0553	7999.51	86.0764	7999.51	86.8826	7999.51	84.6271	7999.51	86.5872	7999.51	82.6023	7999.51	82.4409	7999.51	79.4968	7999.51	72.4611	7999.51	75.7072	7999.51	74.6199	7999.51	71.7081	7999.51	70.2899	7999.51	67.6037	7999.51	63.9491	7999.51	64.9372	7999.51	69.3076	7999.51	65.5859	7999.51	66.5327	7999.51	66.2041	7999.51	60.5817	7999.51	58.4247	7999.51	64.6058	7999.51	63.341	7999.51	62.9949	7999.51	60.1268	7999.51	58.5958
8282.23	90.6453	8282.23	90.3642	8282.23	90.4417	8282.23	90.2002	8282.23	90.2865	8282.23	88.9929	8282.23	89.3256	8282.23	87.8905	8282.23	87.3048	8282.23	87.1906	8282.23	85.9443	8282.23	86.82	8282.23	84.5609	8282.23	85.9804	8282.23	83.2968	8282.23	83.6336	8282.23	80.1596	8282.23	77.3749	8282.23	76.1838	8282.23	69.1489	8282.23	71.7383	8282.23	71.2654	8282.23	67.8646	8282.23	65.286	8282.23	64.658	8282.23	68.1285	8282.23	65.5094	8282.23	68.5473	8282.23	66.2998	8282.23	62.0786	8282.23	60.1187	8282.23	66.1292	8282.23	62.962	8282.23	59.1445	8282.23	58.1941	8282.23	61.9415
8573.73	90.8439	8573.73	90.7962	8573.73	91.034	8573.73	90.5345	8573.73	90.4062	8573.73	89.4724	8573.73	89.3881	8573.73	86.9971	8573.73	87.0805	8573.73	85.4519	8573.73	85.5967	8573.73	84.9509	8573.73	83.88	8573.73	83.202	8573.73	81.9164	8573.73	81.6283	8573.73	79.1237	8573.73	79.1846	8573.73	74.9048	8573.73	65.5615	8573.73	70.5591	8573.73	70.2757	8573.73	67.3089	8573.73	67.1323	8573.73	64.0249	8573.73	65.274	8573.73	64.6606	8573.73	67.3738	8573.73	65.2081	8573.73	60.3366	8573.73	57.4716	8573.73	64.4582	8573.73	61.979	8573.73	56.9244	8573.73	55.233	8573.73	58.2458
8876.95	90.9008	8876.95	91.4103	8876.95	90.8871	8876.95	90.0115	8876.95	89.9859	8876.95	89.2242	8876.95	88.8464	8876.95	86.5738	8876.95	86.2002	8876.95	85.129	8876.95	84.3174	8876.95	83.1719	8876.95	81.9772	8876.95	81.9206	8876.95	80.1386	8876.95	79.7666	8876.95	77.4142	8876.95	77.1495	8876.95	73.6107	8876.95	74.1431	8876.95	70.2898	8876.95	67.3982	8876.95	65.6404	8876.95	65.4795	8876.95	62.0972	8876.95	65.1891	8876.95	62.7665	8876.95	64.989	8876.95	62.4077	8876.95	54.7751	8876.95	52.8195	8876.95	64.1526	8876.95	61.1393	8876.95	51.902	8876.95	40.4665	8876.95	63.2748
9188.96	90.8662	9188.96	91.0641	9188.96	90.9465	9188.96	90.2771	9188.96	89.8571	9188.96	89.1948	9188.96	88.8051	9188.96	86.4923	9188.96	85.654	9188.96	85.087	9188.96	83.0758	9188.96	83.2545	9188.96	81.2221	9188.96	82.4464	9188.96	80.4527	9188.96	78	9188.96	77.4501	9188.96	75.96	9188.96	74.1228	9188.96	71.0841	9188.96	69.4668	9188.96	65.6328	9188.96	65.4846	9188.96	64.1351	9188.96	60.9159	9188.96	64.2579	9188.96	60.2792	9188.96	66.9878	9188.96	60.078	9188.96	59.3443	9188.96	49.0502	9188.96	67.4456	9188.96	62.0348	9188.96	49.7818	9188.96	50.885	9188.96	59.4456
9514.16	90.6971	9514.16	91.0013	9514.16	90.9828	9514.16	90.3353	9514.16	90.3088	9514.16	89.5416	9514.16	89.3501	9514.16	86.6416	9514.16	85.813	9514.16	84.1484	9514.16	83.2989	9514.16	83.8774	9514.16	81.4868	9514.16	81.7141	9514.16	80.3746	9514.16	77.9259	9514.16	77.2736	9514.16	73.3923	9514.16	73.154	9514.16	71.6937	9514.16	68.6964	9514.16	61.3265	9514.16	64.0649	9514.16	62.2081	9514.16	60.6411	9514.16	63.993	9514.16	58.6087	9514.16	63.0859	9514.16	59.9431	9514.16	51.1059	9514.16	50.2719	9514.16	64.3925	9514.16	62.1184	9514.16	34.6764	9514.16	56.5412	9514.16	57.1658
9849.61	90.8556	9849.61	90.7924	9849.61	90.9743	9849.61	90.2985	9849.61	90.4679	9849.61	89.1871	9849.61	89.7528	9849.61	86.4125	9849.61	86.3966	9849.61	83.509	9849.61	83.8384	9849.61	82.2225	9849.61	81.7385	9849.61	79.8759	9849.61	79.6533	9849.61	76.1705	9849.61	76.7792	9849.61	72.3882	9849.61	72.8292	9849.61	66.2079	9849.61	67.8838	9849.61	63.4714	9849.61	63.8982	9849.61	60.3173	9849.61	58.3374	9849.61	60.6894	9849.61	57.819	9849.61	61.2785	9849.61	60.1229	9849.61	52.0282	9849.61	53.595	9849.61	63.5472	9849.61	60.9888	9849.61	56.0903	9849.61	54.7423	9849.61	52.9959
10196.8	90.7478	10196.8	90.6652	10196.8	90.7969	10196.8	90.1953	10196.8	90.0736	10196.8	88.9737	10196.8	89.2771	10196.8	86.3679	10196.8	86.3413	10196.8	83.8331	10196.8	83.478	10196.8	81.0558	10196.8	80.8405	10196.8	78.8354	10196.8	78.1389	10196.8	74.6422	10196.8	75.1499	10196.8	68.5247	10196.8	71.0469	10196.8	67.7804	10196.8	66.8907	10196.8	62.1819	10196.8	63.2593	10196.8	59.2363	10196.8	58.3414	10196.8	57.7908	10196.8	58.4528	10196.8	61.7443	10196.8	60.3713	10196.8	42.3498	10196.8	53.7882	10196.8	66.3903	10196.8	60.8461	10196.8	51.9085	10196.8	43.6273	10196.8	59.8798
10555.7	90.4822	10555.7	90.4713	10555.7	90.5248	10555.7	89.8479	10555.7	89.7005	10555.7	88.5927	10555.7	88.7191	10555.7	86.444	10555.7	85.9703	10555.7	83.0677	10555.7	82.8986	10555.7	81.6855	10555.7	80.3026	10555.7	79.6053	10555.7	77.9896	10555.7	75.6891	10555.7	74.8914	10555.7	69.4321	10555.7	70.635	10555.7	66.5664	10555.7	67.0942	10555.7	61.7235	10555.7	62.7524	10555.7	55.7763	10555.7	58.7423	10555.7	56.6099	10555.7	58.3963	10555.7	61.3433	10555.7	61.2205	10555.7	57.239	10555.7	55.4463	10555.7	60.2855	10555.7	61.533	10555.7	36.0713	10555.7	37.9593	10555.7	57.1692
10927.7	90.3926	10927.7	90.1718	10927.7	90.3236	10927.7	89.5278	10927.7	89.5948	10927.7	87.8077	10927.7	88.1979	10927.7	85.6075	10927.7	85.6576	10927.7	82.5089	10927.7	82.5332	10927.7	80.9128	10927.7	80.22	10927.7	78.1931	10927.7	78.1319	10927.7	75.6835	10927.7	74.7622	10927.7	69.9163	10927.7	70.7824	10927.7	63.8868	10927.7	67.1192	10927.7	61.8489	10927.7	62.7407	10927.7	55.4427	10927.7	58.3951	10927.7	58.4392	10927.7	59.5038	10927.7	59.3189	10927.7	61.958	10927.7	48.1125	10927.7	56.2627	10927.7	61.5338	10927.7	60.1098	10927.7	49.8912	10927.7	40.086	10927.7	48.3208
11313	90.7836	11313	90.5212	11313	90.5474	11313	89.5279	11313	89.7213	11313	87.7894	11313	88.2859	11313	85.6924	11313	85.6435	11313	82.6369	11313	82.0176	11313	79.9696	11313	79.321	11313	75.5012	11313	77.1139	11313	70.9043	11313	73.5606	11313	71.0318	11313	69.8836	11313	61.6296	11313	66.0353	11313	62.2927	11313	61.747	11313	50.5372	11313	58.0066	11313	57.5922	11313	57.5924	11313	60.9424	11313	60.1263	11313	52.0162	11313	54.1492	11313	59.1614	11313	59.495	11313	52.4981	11313	41.3013	11313	53.3188
11712.9	91.034	11712.9	90.6815	11712.9	90.6442	11712.9	89.6094	11712.9	89.7837	11712.9	88.0436	11712.9	88.4839	11712.9	85.6629	11712.9	85.6601	11712.9	82.3739	11712.9	82.3147	11712.9	79.567	11712.9	79.2902	11712.9	76.4219	11712.9	77.1668	11712.9	70.4242	11712.9	73.8259	11712.9	68.6328	11712.9	70.2309	11712.9	63.9662	11712.9	66.5546	11712.9	58.97	11712.9	61.678	11712.9	50.0806	11712.9	56.7239	11712.9	57.0498	11712.9	55.0548	11712.9	58.5671	11712.9	59.2169	11712.9	46.7632	11712.9	54.0894	11712.9	58.7097	11712.9	57.7687	11712.9	53.426	11712.9	47.4555	11712.9	51.6223
12126	91.0374	12126	90.8301	12126	90.8516	12126	89.5692	12126	89.7722	12126	87.7038	12126	88.4284	12126	85.1945	12126	85.703	12126	81.0529	12126	81.9578	12126	79.126	12126	78.9211	12126	76.5053	12126	76.6334	12126	72.5891	12126	73.4335	12126	64.132	12126	69.7687	12126	66.4956	12126	65.8537	12126	53.8495	12126	60.3997	12126	57.0612	12126	56.1786	12126	53.5214	12126	51.7846	12126	58.0989	12126	57.8441	12126	51.208	12126	53.5629	12126	57.1021	12126	56.102	12126	50.2884	12126	42.9153	12126	48.6589
12553.7	90.9114	12553.7	90.6178	12553.7	90.6898	12553.7	89.3269	12553.7	89.5114	12553.7	87.5238	12553.7	88.0934	12553.7	84.9957	12553.7	85.2377	12553.7	80.8484	12553.7	81.2331	12553.7	77.5751	12553.7	78.2686	12553.7	75.0762	12553.7	75.8422	12553.7	72.4167	12553.7	72.6815	12553.7	68.0625	12553.7	69.0786	12553.7	63.342	12553.7	64.8289	12553.7	59.0817	12553.7	60.6411	12553.7	57.2021	12553.7	56.4033	12553.7	48.5985	12553.7	49.6339	12553.7	56.2138	12553.7	56.2386	12553.7	49.4032	12553.7	52.9532	12553.7	56.2715	12553.7	55.8259	12553.7	48.1991	12553.7	44.1688	12553.7	53.0216
12996.1	90.971	12996.1	90.7064	12996.1	90.7059	12996.1	89.2272	12996.1	89.3574	12996.1	87.4398	12996.1	88.0137	12996.1	84.9505	12996.1	84.89	12996.1	81.0758	12996.1	80.3346	12996.1	78.1499	12996.1	77.5053	12996.1	75.3788	12996.1	75.4497	12996.1	71.8799	12996.1	72.6958	12996.1	67.7089	12996.1	68.8445	12996.1	62.4178	12996.1	64.1468	12996.1	61.049	12996.1	59.7016	12996.1	55.236	12996.1	56.4857	12996.1	46.9224	12996.1	50.559	12996.1	54.8127	12996.1	54.3018	12996.1	48.4783	12996.1	52.5436	12996.1	53.6388	12996.1	54.8924	12996.1	48.3618	12996.1	43.9377	12996.1	50.4869
13454.6	91.2666	13454.6	90.8222	13454.6	90.7991	13454.6	89.3206	13454.6	89.3593	13454.6	87.8521	13454.6	88.1388	13454.6	85.024	13454.6	84.8446	13454.6	80.8152	13454.6	79.5256	13454.6	78.3113	13454.6	77.2656	13454.6	76.552	13454.6	75.0831	13454.6	72.479	13454.6	72.0296	13454.6	67.9363	13454.6	67.9872	13454.6	64.1571	13454.6	62.6832	13454.6	59.2836	13454.6	59.1466	13454.6	52.3667	13454.6	54.8523	13454.6	51.7454	13454.6	50.7857	13454.6	53.6888	13454.6	52.8882	13454.6	50.1045	13454.6	50.667	13454.6	51.4681	13454.6	53.7875	13454.6	48.9043	13454.6	42.43	13454.6	49.7471
13929.2	91.7458	13929.2	91.1365	13929.2	91.0684	13929.2	89.5752	13929.2	89.4224	13929.2	87.7811	13929.2	88.1547	13929.2	84.8902	13929.2	84.6606	13929.2	80.2011	13929.2	78.8787	13929.2	77.295	13929.2	76.311	13929.2	74.4622	13929.2	74.2593	13929.2	71.3462	13929.2	71.0541	13929.2	68.9306	13929.2	67.0863	13929.2	60.1217	13929.2	62.0745	13929.2	59.3737	13929.2	58.18	13929.2	54.474	13929.2	53.7325	13929.2	51.7017	13929.2	49.0546	13929.2	52.0874	13929.2	51.3825	13929.2	50.0849	13929.2	48.777	13929.2	49.8982	13929.2	50.8941	13929.2	48.9813	13929.2	41.328	13929.2	48.8479
14419.9	92.1075	14419.9	91.483	14419.9	91.3381	14419.9	89.6877	14419.9	89.4216	14419.9	87.6421	14419.9	87.894	14419.9	84.3036	14419.9	84.3224	14419.9	80.016	14419.9	78.341	14419.9	76.7376	14419.9	75.4513	14419.9	72.9699	14419.9	73.3523	14419.9	68.1148	14419.9	70.0706	14419.9	65.5855	14419.9	65.9877	14419.9	60.8652	14419.9	61.8855	14419.9	55.2391	14419.9	57.488	14419.9	53.3498	14419.9	53.2308	14419.9	50.1742	14419.9	49.6723	14419.9	43.7964	14419.9	50.1093	14419.9	50.3336	14419.9	48.762	14419.9	38.2828	14419.9	47.9672	14419.9	49.4621	14419.9	47.5198	14419.9	52.4072
14928.2	92.0823	14928.2	91.4702	14928.2	91.3292	14928.2	89.6388	14928.2	89.2669	14928.2	87.3948	14928.2	87.3674	14928.2	83.814	14928.2	83.7236	14928.2	79.7775	14928.2	77.4243	14928.2	76.5017	14928.2	74.2493	14928.2	72.7983	14928.2	71.9413	14928.2	69.4814	14928.2	69.2471	14928.2	61.5513	14928.2	64.8794	14928.2	61.5549	14928.2	61.0398	14928.2	50.2718	14928.2	56.5517	14928.2	51.1817	14928.2	51.967	14928.2	45.0865	14928.2	50.8203	14928.2	37.462	14928.2	47.1243	14928.2	50.236	14928.2	47.7044	14928.2	32.5455	14928.2	38.35	14928.2	48.8584	14928.2	50.3561	14928.2	52.3963
15455.6	91.5827	15455.6	91.0695	15455.6	90.9452	15455.6	89.2745	15455.6	88.9092	15455.6	86.6429	15455.6	86.6245	15455.6	82.6347	15455.6	82.6767	15455.6	78.1379	15455.6	76.3176	15455.6	73.6547	15455.6	72.6471	15455.6	68.2991	15455.6	69.5445	15455.6	65.296	15455.6	67.0821	15455.6	63.2601	15455.6	62.902	15455.6	56.5957	15455.6	59.5923	15455.6	53.4865	15455.6	55.2661	15455.6	50.32	15455.6	51.5934	15455.6	47.0277	15455.6	50.0611	15455.6	44.6582	15455.6	46.6362	15455.6	46.5865	15455.6	39.3927	15455.6	39.012	15455.6	38.478	15455.6	49.6794	15455.6	50.1239	15455.6	50.8557
16000.5	91.0164	16000.5	90.5482	16000.5	90.4749	16000.5	88.6914	16000.5	88.5224	16000.5	85.7828	16000.5	86.0576	16000.5	81.5985	16000.5	81.6087	16000.5	75.278	16000.5	74.6346	16000.5	70.0135	16000.5	70.0537	16000.5	63.6434	16000.5	66.4968	16000.5	61.2073	16000.5	64.8271	16000.5	59.9838	16000.5	60.2771	16000.5	54.0451	16000.5	56.3355	16000.5	53.8121	16000.5	52.3396	16000.5	50.1495	16000.5	48.0916	16000.5	45.6525	16000.5	49.3243	16000.5	43.2819	16000.5	42.7051	16000.5	45.5957	16000.5	29.178	16000.5	39.5622	16000.5	38.5338	16000.5	49.2029	16000.5	46.7806	16000.5	48.4364
16564.5	90.5623	16564.5	89.9924	16564.5	89.9155	16564.5	88.0493	16564.5	87.9464	16564.5	84.9652	16564.5	85.4492	16564.5	80.481	16564.5	80.4723	16564.5	73.6914	16564.5	71.9267	16564.5	66.5847	16564.5	66.2155	16564.5	62.6077	16564.5	63.3757	16564.5	62.3426	16564.5	62.6206	16564.5	56.0899	16564.5	58.1366	16564.5	54.3507	16564.5	53.5709	16564.5	51.1548	16564.5	49.3073	16564.5	43.4944	16564.5	44.2992	16564.5	35.7691	16564.5	47.9429	16564.5	42.8087	16564.5	39.2763	16564.5	37.3346	16564.5	29.1621	16564.5	42.1374	16564.5	37.7491	16564.5	46.9333	16564.5	41.9369	16564.5	41.3868
17148.9	90.0752	17148.9	89.502	17148.9	89.3479	17148.9	87.4039	17148.9	87.2119	17148.9	83.9146	17148.9	84.4901	17148.9	78.9617	17148.9	79.0624	17148.9	71.0531	17148.9	67.828	17148.9	60.6673	17148.9	60.577	17148.9	63.8555	17148.9	63.0731	17148.9	63.8658	17148.9	62.6087	17148.9	58.1496	17148.9	58.4698	17148.9	52.2465	17148.9	54.5565	17148.9	51.5246	17148.9	48.6418	17148.9	45.8286	17148.9	46.052	17148.9	40.1418	17148.9	46.5679	17148.9	42.0751	17148.9	41.4648	17148.9	39.8208	17148.9	33.8393	17148.9	29.869	17148.9	36.3754	17148.9	47.0149	17148.9	38.8995	17148.9	42.9199
17752.4	89.5556	17752.4	88.9781	17752.4	88.7508	17752.4	86.6633	17752.4	86.2338	17752.4	82.8738	17752.4	83.1466	17752.4	76.7822	17752.4	77.1426	17752.4	64.9192	17752.4	61.0795	17752.4	58.2346	17752.4	59.1638	17752.4	65.9305	17752.4	65.2817	17752.4	65.4475	17752.4	64.3914	17752.4	61.3701	17752.4	59.5926	17752.4	53.7558	17752.4	55.6953	17752.4	50.217	17752.4	49.9591	17752.4	44.687	17752.4	48.3608	17752.4	46.3916	17752.4	47.2304	17752.4	42.921	17752.4	42.0838	17752.4	41.6384	17752.4	36.7676	17752.4	35.9154	17752.4	33.7627	17752.4	39.7173	17752.4	37.5858	17752.4	44.5236
18379.4	88.8749	18379.4	88.2728	18379.4	88.1137	18379.4	85.6297	18379.4	85.1854	18379.4	81.3509	18379.4	81.4687	18379.4	74.4997	18379.4	74.5542	18379.4	58.1078	18379.4	54.9309	18379.4	63.4326	18379.4	63.3771	18379.4	66.9687	18379.4	67.0422	18379.4	64.9217	18379.4	65.3502	18379.4	61.2759	18379.4	60.7061	18379.4	54.2514	18379.4	55.8226	18379.4	50.1357	18379.4	49.6794	18379.4	46.8094	18379.4	47.5368	18379.4	44.7234	18379.4	45.8724	18379.4	41.253	18379.4	41.6619	18379.4	46.111	18379.4	37.8255	18379.4	37.6593	18379.4	30.0824	18379.4	39.4675	18379.4	35.6015	18379.4	42.7813
19026.9	88.3546	19026.9	87.7109	19026.9	87.6293	19026.9	84.6446	19026.9	84.3885	19026.9	79.9515	19026.9	80.2518	19026.9	72.048	19026.9	71.8107	19026.9	60.7443	19026.9	61.092	19026.9	66.0708	19026.9	65.4606	19026.9	68.4168	19026.9	67.5184	19026.9	66.5165	19026.9	65.8284	19026.9	59.1759	19026.9	61.2296	19026.9	57.0832	19026.9	56.2935	19026.9	50.6206	19026.9	50.7016	19026.9	49.3739	19026.9	48.2824	19026.9	43.7529	19026.9	43.4676	19026.9	38.9583	19026.9	38.1359	19026.9	44.2383	19026.9	38.2107	19026.9	34.8027	19026.9	29.1101	19026.9	37.3083	19026.9	35.0957	19026.9	35.9545
19697.8	88.0925	19697.8	87.507	19697.8	87.24	19697.8	84.2121	19697.8	83.5647	19697.8	79.1341	19697.8	78.8266	19697.8	69.6161	19697.8	67.3495	19697.8	63.0187	19697.8	65.6025	19697.8	66.3659	19697.8	66.6231	19697.8	67.0729	19697.8	68.0605	19697.8	65.5008	19697.8	66.0312	19697.8	62.0573	19697.8	61.5651	19697.8	54.9089	19697.8	56.2652	19697.8	50.6774	19697.8	50.6009	19697.8	47.5222	19697.8	48.2475	19697.8	48.2713	19697.8	42.336	19697.8	37.8403	19697.8	36.7666	19697.8	38.7606	19697.8	38.7499	19697.8	34.1513	19697.8	26.9625	19697.8	31.73	19697.8	32.5969	19697.8	27.8896
19999.5	87.9756	19999.5	87.3945	19999.5	86.9761	19999.5	84.0789	19999.5	83.0537	19999.5	78.644	19999.5	78.0089	19999.5	68.5879	19999.5	64.5933	19999.5	65.0865	19999.5	66.8816	19999.5	67.3294	19999.5	67.8254	19999.5	67.3181	19999.5	68.116	19999.5	66.8693	19999.5	66.4416	19999.5	61.766	19999.5	57.9545	19999.5	54.1728	19999.5	56.4705	19999.5	52.6964	19999.5	52.2053	19999.5	45.791	19999.5	49.3958	19999.5	48.7201	19999.5	44.5874	19999.5	52.3533	19999.5	30.1712	19999.5	38.4587	19999.5	48.1798	19999.5	43.3668	19999.5	34.9864	19999.5	25.8631	19999.5	32.5921	19999.5	49.7489
