"SPL Vertical"
"On-Axis"		"10°"		"-10°"		"20°"		"-20°"		"30°"		"-30°"		"40°"		"-40°"		"50°"		"-50°"		"60°"		"-60°"		"70°"		"-70°"		"80°"		"-80°"		"90°"		"-90°"		"100°"		"-100°"		"110°"		"-110°"		"120°"		"-120°"		"130°"		"-130°"		"140°"		"-140°"		"150°"		"-150°"		"160°"		"-160°"		"170°"		"-170°"		"180°"
"Frequency / Hz"	"Sound Pressure Level / dB (re 20 µPa/V)  [2.83  V @ 1. m]"	"Frequency / Hz"	"Sound Pressure Level / dB (re 20 µPa/V)  [2.83  V @ 1. m]"	"Frequency / Hz"	"Sound Pressure Level / dB (re 20 µPa/V)  [2.83  V @ 1. m]"	"Frequency / Hz"	"Sound Pressure Level / dB (re 20 µPa/V)  [2.83  V @ 1. m]"	"Frequency / Hz"	"Sound Pressure Level / dB (re 20 µPa/V)  [2.83  V @ 1. m]"	"Frequency / Hz"	"Sound Pressure Level / dB (re 20 µPa/V)  [2.83  V @ 1. m]"	"Frequency / Hz"	"Sound Pressure Level / dB (re 20 µPa/V)  [2.83  V @ 1. m]"	"Frequency / Hz"	"Sound Pressure Level / dB (re 20 µPa/V)  [2.83  V @ 1. m]"	"Frequency / Hz"	"Sound Pressure Level / dB (re 20 µPa/V)  [2.83  V @ 1. m]"	"Frequency / Hz"	"Sound Pressure Level / dB (re 20 µPa/V)  [2.83  V @ 1. m]"	"Frequency / Hz"	"Sound Pressure Level / dB (re 20 µPa/V)  [2.83  V @ 1. m]"	"Frequency / Hz"	"Sound Pressure Level / dB (re 20 µPa/V)  [2.83  V @ 1. m]"	"Frequency / Hz"	"Sound Pressure Level / dB (re 20 µPa/V)  [2.83  V @ 1. m]"	"Frequency / Hz"	"Sound Pressure Level / dB (re 20 µPa/V)  [2.83  V @ 1. m]"	"Frequency / Hz"	"Sound Pressure Level / dB (re 20 µPa/V)  [2.83  V @ 1. m]"	"Frequency / Hz"	"Sound Pressure Level / dB (re 20 µPa/V)  [2.83  V @ 1. m]"	"Frequency / Hz"	"Sound Pressure Level / dB (re 20 µPa/V)  [2.83  V @ 1. m]"	"Frequency / Hz"	"Sound Pressure Level / dB (re 20 µPa/V)  [2.83  V @ 1. m]"	"Frequency / Hz"	"Sound Pressure Level / dB (re 20 µPa/V)  [2.83  V @ 1. m]"	"Frequency / Hz"	"Sound Pressure Level / dB (re 20 µPa/V)  [2.83  V @ 1. m]"	"Frequency / Hz"	"Sound Pressure Level / dB (re 20 µPa/V)  [2.83  V @ 1. m]"	"Frequency / Hz"	"Sound Pressure Level / dB (re 20 µPa/V)  [2.83  V @ 1. m]"	"Frequency / Hz"	"Sound Pressure Level / dB (re 20 µPa/V)  [2.83  V @ 1. m]"	"Frequency / Hz"	"Sound Pressure Level / dB (re 20 µPa/V)  [2.83  V @ 1. m]"	"Frequency / Hz"	"Sound Pressure Level / dB (re 20 µPa/V)  [2.83  V @ 1. m]"	"Frequency / Hz"	"Sound Pressure Level / dB (re 20 µPa/V)  [2.83  V @ 1. m]"	"Frequency / Hz"	"Sound Pressure Level / dB (re 20 µPa/V)  [2.83  V @ 1. m]"	"Frequency / Hz"	"Sound Pressure Level / dB (re 20 µPa/V)  [2.83  V @ 1. m]"	"Frequency / Hz"	"Sound Pressure Level / dB (re 20 µPa/V)  [2.83  V @ 1. m]"	"Frequency / Hz"	"Sound Pressure Level / dB (re 20 µPa/V)  [2.83  V @ 1. m]"	"Frequency / Hz"	"Sound Pressure Level / dB (re 20 µPa/V)  [2.83  V @ 1. m]"	"Frequency / Hz"	"Sound Pressure Level / dB (re 20 µPa/V)  [2.83  V @ 1. m]"	"Frequency / Hz"	"Sound Pressure Level / dB (re 20 µPa/V)  [2.83  V @ 1. m]"	"Frequency / Hz"	"Sound Pressure Level / dB (re 20 µPa/V)  [2.83  V @ 1. m]"	"Frequency / Hz"	"Sound Pressure Level / dB (re 20 µPa/V)  [2.83  V @ 1. m]"	"Frequency / Hz"	"Sound Pressure Level / dB (re 20 µPa/V)  [2.83  V @ 1. m]"
20.5078	57.5007	20.5078	57.5004	20.5078	57.4891	20.5078	57.4881	20.5078	57.4662	20.5078	57.4643	20.5078	57.4326	20.5078	57.4296	20.5078	57.3896	20.5078	57.3851	20.5078	57.3384	20.5078	57.3322	20.5078	57.2804	20.5078	57.2726	20.5078	57.2175	20.5078	57.2081	20.5078	57.1513	20.5078	57.1406	20.5078	57.0837	20.5078	57.0721	20.5078	57.0166	20.5078	57.0046	20.5078	56.952	20.5078	56.9401	20.5078	56.8919	20.5078	56.8806	20.5078	56.8381	20.5078	56.8279	20.5078	56.7923	20.5078	56.7838	20.5078	56.7562	20.5078	56.7497	20.5078	56.7308	20.5078	56.7267	20.5078	56.7172	20.5078	56.7158
21.9727	58.9578	21.9727	58.9582	21.9727	58.9506	21.9727	58.9516	21.9727	58.9365	21.9727	58.9381	21.9727	58.916	21.9727	58.9181	21.9727	58.8893	21.9727	58.8919	21.9727	58.8572	21.9727	58.8603	21.9727	58.8204	21.9727	58.8239	21.9727	58.7799	21.9727	58.784	21.9727	58.7369	21.9727	58.7416	21.9727	58.6926	21.9727	58.6981	21.9727	58.6484	21.9727	58.6547	21.9727	58.6059	21.9727	58.6129	21.9727	58.5665	21.9727	58.5739	21.9727	58.5315	21.9727	58.5388	21.9727	58.5022	21.9727	58.5089	21.9727	58.4798	21.9727	58.4852	21.9727	58.4648	21.9727	58.4683	21.9727	58.4579	21.9727	58.4591
23.4375	60.2863	23.4375	60.2807	23.4375	60.283	23.4375	60.2665	23.4375	60.2709	23.4375	60.244	23.4375	60.2501	23.4375	60.2139	23.4375	60.2212	23.4375	60.177	23.4375	60.1849	23.4375	60.1343	23.4375	60.1423	23.4375	60.0871	23.4375	60.0946	23.4375	60.0365	23.4375	60.0432	23.4375	59.9842	23.4375	59.9897	23.4375	59.9316	23.4375	59.9359	23.4375	59.8803	23.4375	59.8835	23.4375	59.8319	23.4375	59.8341	23.4375	59.788	23.4375	59.7894	23.4375	59.75	23.4375	59.7508	23.4375	59.7191	23.4375	59.7194	23.4375	59.6963	23.4375	59.6964	23.4375	59.6822	23.4375	59.6823	23.4375	59.6775
24.9023	62.0802	24.9023	62.081	24.9023	62.0706	24.9023	62.0729	24.9023	62.0525	24.9023	62.0562	24.9023	62.0264	24.9023	62.0313	24.9023	61.993	24.9023	61.9988	24.9023	61.9531	24.9023	61.9597	24.9023	61.9079	24.9023	61.9152	24.9023	61.8586	24.9023	61.8666	24.9023	61.8067	24.9023	61.8153	24.9023	61.7538	24.9023	61.7629	24.9023	61.7015	24.9023	61.711	24.9023	61.6515	24.9023	61.6613	24.9023	61.6054	24.9023	61.6151	24.9023	61.5648	24.9023	61.5739	24.9023	61.531	24.9023	61.5389	24.9023	61.5051	24.9023	61.5113	24.9023	61.4879	24.9023	61.4918	24.9023	61.4799	24.9023	61.4813
26.3672	63.2913	26.3672	63.2885	26.3672	63.2846	26.3672	63.2763	26.3672	63.2686	26.3672	63.2547	26.3672	63.2438	26.3672	63.2243	26.3672	63.2105	26.3672	63.1856	26.3672	63.1696	26.3672	63.1395	26.3672	63.122	26.3672	63.0872	26.3672	63.0689	26.3672	63.0301	26.3672	63.0117	26.3672	62.9698	26.3672	62.952	26.3672	62.9082	26.3672	62.8914	26.3672	62.8473	26.3672	62.832	26.3672	62.789	26.3672	62.7756	26.3672	62.7354	26.3672	62.7242	26.3672	62.6884	26.3672	62.6794	26.3672	62.6497	26.3672	62.6429	26.3672	62.6207	26.3672	62.6161	26.3672	62.6023	26.3672	62.6001	26.3672	62.5954
27.832	64.931	27.832	64.928	27.832	64.9236	27.832	64.9144	27.832	64.9059	27.832	64.8907	27.832	64.8784	27.832	64.8576	27.832	64.842	27.832	64.816	27.832	64.7976	27.832	64.7672	27.832	64.7467	27.832	64.7126	27.832	64.6906	27.832	64.6538	27.832	64.631	27.832	64.5927	27.832	64.5697	27.832	64.531	27.832	64.5085	27.832	64.4706	27.832	64.4492	27.832	64.4135	27.832	64.3938	27.832	64.3613	27.832	64.3438	27.832	64.3157	27.832	64.3011	27.832	64.2782	27.832	64.2668	27.832	64.2498	27.832	64.242	27.832	64.2317	27.832	64.2277	27.832	64.2242
29.2969	66.1244	29.2969	66.1235	29.2969	66.1149	29.2969	66.1122	29.2969	66.0953	29.2969	66.0907	29.2969	66.0661	29.2969	66.0596	29.2969	66.0281	29.2969	66.0197	29.2969	65.9822	29.2969	65.972	29.2969	65.9297	29.2969	65.9178	29.2969	65.872	29.2969	65.8587	29.2969	65.8107	29.2969	65.7965	29.2969	65.7476	29.2969	65.7329	29.2969	65.6846	29.2969	65.67	29.2969	65.6237	29.2969	65.6097	29.2969	65.5668	29.2969	65.554	29.2969	65.5159	29.2969	65.5046	29.2969	65.4725	29.2969	65.4633	29.2969	65.4382	29.2969	65.4314	29.2969	65.4142	29.2969	65.41	29.2969	65.4013	29.2969	65.3999
30.7617	67.3028	30.7617	67.3006	30.7617	67.294	30.7617	67.2874	30.7617	67.2744	30.7617	67.2636	30.7617	67.2448	30.7617	67.2301	30.7617	67.2061	30.7617	67.188	30.7617	67.1595	30.7617	67.1387	30.7617	67.1066	30.7617	67.0836	30.7617	67.0488	30.7617	67.0246	30.7617	66.9881	30.7617	66.9634	30.7617	66.9261	30.7617	66.9018	30.7617	66.8648	30.7617	66.8417	30.7617	66.8059	30.7617	66.7848	30.7617	66.7513	30.7617	66.7327	30.7617	66.7025	30.7617	66.687	30.7617	66.6612	30.7617	66.6489	30.7617	66.6286	30.7617	66.6197	30.7617	66.6056	30.7617	66.6003	30.7617	66.5931	30.7617	66.5913
32.2266	68.2767	32.2266	68.2768	32.2266	68.2658	32.2266	68.2661	32.2266	68.2446	32.2266	68.2447	32.2266	68.2136	32.2266	68.2134	32.2266	68.1738	32.2266	68.173	32.2266	68.1263	32.2266	68.1249	32.2266	68.0726	32.2266	68.0704	32.2266	68.0141	32.2266	68.0112	32.2266	67.9525	32.2266	67.9493	32.2266	67.8896	32.2266	67.8863	32.2266	67.8274	32.2266	67.8243	32.2266	67.7677	32.2266	67.765	32.2266	67.7124	32.2266	67.7103	32.2266	67.6633	32.2266	67.6618	32.2266	67.622	32.2266	67.6209	32.2266	67.5897	32.2266	67.5891	32.2266	67.5676	32.2266	67.5673	32.2266	67.5563	32.2266	67.5562
33.6914	69.3299	33.6914	69.3284	33.6914	69.3215	33.6914	69.317	33.6914	69.3036	33.6914	69.2961	33.6914	69.2767	33.6914	69.2662	33.6914	69.2416	33.6914	69.2282	33.6914	69.1993	33.6914	69.1834	33.6914	69.1512	33.6914	69.1332	33.6914	69.0987	33.6914	69.079	33.6914	69.0433	33.6914	69.0227	33.6914	68.9867	33.6914	68.966	33.6914	68.9307	33.6914	68.9107	33.6914	68.8769	33.6914	68.8583	33.6914	68.827	33.6914	68.8105	33.6914	68.7827	33.6914	68.7686	33.6914	68.7451	33.6914	68.7339	33.6914	68.7155	33.6914	68.7074	33.6914	68.6947	33.6914	68.6898	33.6914	68.6833	33.6914	68.6817
35.1562	70.3982	35.1562	70.3954	35.1562	70.3898	35.1562	70.3815	35.1562	70.3706	35.1562	70.3567	35.1562	70.3412	35.1562	70.3218	35.1562	70.3023	35.1562	70.2778	35.1562	70.2553	35.1562	70.2259	35.1562	70.2014	35.1562	70.1678	35.1562	70.1422	35.1562	70.1052	35.1562	70.0795	35.1562	70.04	35.1562	70.015	35.1562	69.9743	35.1562	69.9508	35.1562	69.9102	35.1562	69.8886	35.1562	69.8495	35.1562	69.8305	35.1562	69.7943	35.1562	69.7781	35.1562	69.7463	35.1562	69.7332	35.1562	69.7069	35.1562	69.697	35.1562	69.6774	35.1562	69.6708	35.1562	69.6587	35.1562	69.6554	35.1562	69.6513
36.6211	71.2391	36.6211	71.2362	36.6211	71.231	36.6211	71.2222	36.6211	71.212	36.6211	71.1976	36.6211	71.1828	36.6211	71.1631	36.6211	71.1443	36.6211	71.1197	36.6211	71.0976	36.6211	71.0688	36.6211	71.0443	36.6211	71.012	36.6211	70.9858	36.6211	70.951	36.6211	70.9241	36.6211	70.8879	36.6211	70.8609	36.6211	70.8246	36.6211	70.7984	36.6211	70.7631	36.6211	70.7383	36.6211	70.7053	36.6211	70.6827	36.6211	70.6529	36.6211	70.633	36.6211	70.6075	36.6211	70.5908	36.6211	70.5703	36.6211	70.5573	36.6211	70.5423	36.6211	70.5334	36.6211	70.5243	36.6211	70.5198	36.6211	70.5167
38.0859	72.0777	38.0859	72.0756	38.0859	72.0692	38.0859	72.0629	38.0859	72.0502	38.0859	72.0399	38.0859	72.0215	38.0859	72.0074	38.0859	71.9838	38.0859	71.9662	38.0859	71.9382	38.0859	71.9176	38.0859	71.8862	38.0859	71.8631	38.0859	71.8293	38.0859	71.8045	38.0859	71.7693	38.0859	71.7434	38.0859	71.7079	38.0859	71.682	38.0859	71.6472	38.0859	71.6221	38.0859	71.589	38.0859	71.5655	38.0859	71.535	38.0859	71.5139	38.0859	71.487	38.0859	71.469	38.0859	71.4464	38.0859	71.4319	38.0859	71.4143	38.0859	71.4037	38.0859	71.3916	38.0859	71.3852	38.0859	71.3791	38.0859	71.3769
39.5508	72.9245	39.5508	72.9213	39.5508	72.9167	39.5508	72.9071	39.5508	72.8981	39.5508	72.8824	39.5508	72.8693	39.5508	72.8478	39.5508	72.8312	39.5508	72.8044	39.5508	72.7849	39.5508	72.7536	39.5508	72.7318	39.5508	72.6969	39.5508	72.6736	39.5508	72.6361	39.5508	72.6121	39.5508	72.5731	39.5508	72.5493	39.5508	72.51	39.5508	72.487	39.5508	72.4488	39.5508	72.4272	39.5508	72.3913	39.5508	72.3717	39.5508	72.3393	39.5508	72.3222	39.5508	72.2944	39.5508	72.2802	39.5508	72.2577	39.5508	72.2467	39.5508	72.2302	39.5508	72.2228	39.5508	72.2127	39.5508	72.2089	39.5508	72.2056
41.0156	73.761	41.0156	73.7577	41.0156	73.7525	41.0156	73.7425	41.0156	73.7325	41.0156	73.716	41.0156	73.7016	41.0156	73.6788	41.0156	73.6609	41.0156	73.6322	41.0156	73.6115	41.0156	73.5775	41.0156	73.5551	41.0156	73.5165	41.0156	73.4934	41.0156	73.451	41.0156	73.4284	41.0156	73.3833	41.0156	73.362	41.0156	73.3155	41.0156	73.2962	41.0156	73.2499	41.0156	73.2331	41.0156	73.1884	41.0156	73.1745	41.0156	73.1331	41.0156	73.1221	41.0156	73.0856	41.0156	73.0773	41.0156	73.0471	41.0156	73.0413	41.0156	73.0188	41.0156	73.0152	41.0156	73.0012	41.0156	72.9995	41.0156	72.9948
42.4805	74.4614	42.4805	74.4584	42.4805	74.4526	42.4805	74.4437	42.4805	74.4324	42.4805	74.4177	42.4805	74.4014	42.4805	74.3812	42.4805	74.3606	42.4805	74.3352	42.4805	74.3111	42.4805	74.2811	42.4805	74.2547	42.4805	74.2206	42.4805	74.1929	42.4805	74.1556	42.4805	74.1276	42.4805	74.0881	42.4805	74.061	42.4805	74.0201	42.4805	73.995	42.4805	73.9541	42.4805	73.9316	42.4805	73.8919	42.4805	73.8726	42.4805	73.8356	42.4805	73.8198	42.4805	73.7869	42.4805	73.7746	42.4805	73.7473	42.4805	73.7384	42.4805	73.7178	42.4805	73.7121	42.4805	73.6993	42.4805	73.6965	42.4805	73.6922
43.9453	75.1886	43.9453	75.1856	43.9453	75.1807	43.9453	75.1716	43.9453	75.162	43.9453	75.147	43.9453	75.133	43.9453	75.1125	43.9453	75.0946	43.9453	75.069	43.9453	75.0479	43.9453	75.0178	43.9453	74.9943	43.9453	74.9605	43.9453	74.9354	43.9453	74.8987	43.9453	74.873	43.9453	74.8345	43.9453	74.809	43.9453	74.7698	43.9453	74.7454	43.9453	74.7067	43.9453	74.6842	43.9453	74.6471	43.9453	74.6272	43.9453	74.5931	43.9453	74.5761	43.9453	74.5461	43.9453	74.5324	43.9453	74.5077	43.9453	74.4975	43.9453	74.479	43.9453	74.4722	43.9453	74.4608	43.9453	74.4574	43.9453	74.4535
45.4102	75.8173	45.4102	75.813	45.4102	75.8107	45.4102	75.7979	45.4102	75.7934	45.4102	75.7725	45.4102	75.7661	45.4102	75.7374	45.4102	75.7292	45.4102	75.6935	45.4102	75.684	45.4102	75.6422	45.4102	75.6318	45.4102	75.5849	45.4102	75.574	45.4102	75.5234	45.4102	75.5124	45.4102	75.4597	45.4102	75.449	45.4102	75.3958	45.4102	75.3857	45.4102	75.3336	45.4102	75.3244	45.4102	75.2751	45.4102	75.267	45.4102	75.2221	45.4102	75.2152	45.4102	75.1762	45.4102	75.1707	45.4102	75.1388	45.4102	75.1347	45.4102	75.1111	45.4102	75.1084	45.4102	75.0939	45.4102	75.0925	45.4102	75.0876
46.875	76.5235	46.875	76.5189	46.875	76.5163	46.875	76.5027	46.875	76.4977	46.875	76.4754	46.875	76.4683	46.875	76.4378	46.875	76.4291	46.875	76.3913	46.875	76.3813	46.875	76.3375	46.875	76.3267	46.875	76.278	46.875	76.267	46.875	76.215	46.875	76.2042	46.875	76.1506	46.875	76.1403	46.875	76.0867	46.875	76.0773	46.875	76.0254	46.875	76.0172	46.875	75.9686	46.875	75.9616	46.875	75.9178	46.875	75.9121	46.875	75.8744	46.875	75.87	46.875	75.8395	46.875	75.8363	46.875	75.8138	46.875	75.8118	46.875	75.798	46.875	75.797	46.875	75.7924
48.3398	76.978	48.3398	76.972	48.3398	76.9717	48.3398	76.954	48.3398	76.9536	48.3398	76.9247	48.3398	76.9243	48.3398	76.885	48.3398	76.8848	48.3398	76.8364	48.3398	76.8365	48.3398	76.7806	48.3398	76.7812	48.3398	76.7194	48.3398	76.7208	48.3398	76.6551	48.3398	76.6573	48.3398	76.5897	48.3398	76.5929	48.3398	76.5255	48.3398	76.5295	48.3398	76.4643	48.3398	76.4691	48.3398	76.4081	48.3398	76.4134	48.3398	76.3584	48.3398	76.3639	48.3398	76.3165	48.3398	76.3216	48.3398	76.2833	48.3398	76.2876	48.3398	76.2594	48.3398	76.2626	48.3398	76.2453	48.3398	76.247	48.3398	76.2412
51.2695	78.0039	51.2695	77.9989	51.2695	77.9978	51.2695	77.9827	51.2695	77.9806	51.2695	77.956	51.2695	77.9529	51.2695	77.9195	51.2695	77.9157	51.2695	77.8744	51.2695	77.8703	51.2695	77.8223	51.2695	77.8181	51.2695	77.7648	51.2695	77.761	51.2695	77.7038	51.2695	77.7009	51.2695	77.6415	51.2695	77.6397	51.2695	77.5799	51.2695	77.5794	51.2695	77.521	51.2695	77.5219	51.2695	77.4666	51.2695	77.4687	51.2695	77.4184	51.2695	77.4214	51.2695	77.3776	51.2695	77.3811	51.2695	77.3452	51.2695	77.3486	51.2695	77.322	51.2695	77.3246	51.2695	77.3083	51.2695	77.3097	51.2695	77.3042
52.7344	78.5364	52.7344	78.5325	52.7344	78.5289	52.7344	78.5176	52.7344	78.5105	52.7344	78.492	52.7344	78.4818	52.7344	78.4564	52.7344	78.4436	52.7344	78.4122	52.7344	78.3973	52.7344	78.3606	52.7344	78.3445	52.7344	78.3035	52.7344	78.287	52.7344	78.2429	52.7344	78.2267	52.7344	78.1808	52.7344	78.1658	52.7344	78.1193	52.7344	78.1061	52.7344	78.0606	52.7344	78.0495	52.7344	78.0063	52.7344	77.9976	52.7344	77.9582	52.7344	77.9518	52.7344	77.9175	52.7344	77.9132	52.7344	77.8851	52.7344	77.8824	52.7344	77.8615	52.7344	77.86	52.7344	77.8472	52.7344	77.8466	52.7344	77.8422
54.1992	79.073	54.1992	79.0696	54.1992	79.0641	54.1992	79.0541	54.1992	79.0434	54.1992	79.0269	54.1992	79.0114	54.1992	78.989	54.1992	78.9695	54.1992	78.9415	54.1992	78.9188	54.1992	78.8864	54.1992	78.8613	54.1992	78.8254	54.1992	78.799	54.1992	78.7607	54.1992	78.7339	54.1992	78.6948	54.1992	78.6683	54.1992	78.6298	54.1992	78.6045	54.1992	78.5678	54.1992	78.5444	54.1992	78.5107	54.1992	78.4897	54.1992	78.4601	54.1992	78.442	54.1992	78.417	54.1992	78.4023	54.1992	78.3825	54.1992	78.3712	54.1992	78.3569	54.1992	78.3494	54.1992	78.3407	54.1992	78.3369	54.1992	78.334
55.6641	79.5478	55.6641	79.5413	55.6641	79.5404	55.6641	79.5211	55.6641	79.5193	55.6641	79.4879	55.6641	79.4854	55.6641	79.4428	55.6641	79.4398	55.6641	79.3874	55.6641	79.3842	55.6641	79.3238	55.6641	79.3206	55.6641	79.2542	55.6641	79.2512	55.6641	79.1812	55.6641	79.1786	55.6641	79.1075	55.6641	79.1052	55.6641	79.0357	55.6641	79.0338	55.6641	78.968	55.6641	78.9664	55.6641	78.9065	55.6641	78.9052	55.6641	78.8528	55.6641	78.8517	55.6641	78.808	55.6641	78.807	55.6641	78.7727	55.6641	78.7719	55.6641	78.7474	55.6641	78.7468	55.6641	78.7321	55.6641	78.7318	55.6641	78.7269
58.5938	80.2748	58.5938	80.2696	58.5938	80.2659	58.5938	80.2506	58.5938	80.2434	58.5938	80.2182	58.5938	80.208	58.5938	80.1732	58.5938	80.1607	58.5938	80.1171	58.5938	80.103	58.5938	80.0514	58.5938	80.0368	58.5938	79.9782	58.5938	79.9642	58.5938	79.8998	58.5938	79.8875	58.5938	79.819	58.5938	79.8093	58.5938	79.7384	58.5938	79.7319	58.5938	79.6609	58.5938	79.6577	58.5938	79.5889	58.5938	79.589	58.5938	79.5249	58.5938	79.5275	58.5938	79.4708	58.5938	79.4749	58.5938	79.4279	58.5938	79.4324	58.5938	79.3971	58.5938	79.4009	58.5938	79.3791	58.5938	79.3812	58.5938	79.3738
60.0586	80.6795	60.0586	80.6738	60.0586	80.6717	60.0586	80.6547	60.0586	80.6507	60.0586	80.6227	60.0586	80.6172	60.0586	80.5788	60.0586	80.5724	60.0586	80.5244	60.0586	80.5177	60.0586	80.4612	60.0586	80.4551	60.0586	80.3913	60.0586	80.3866	60.0586	80.3171	60.0586	80.3144	60.0586	80.2411	60.0586	80.241	60.0586	80.1658	60.0586	80.1685	60.0586	80.0938	60.0586	80.0992	60.0586	80.0274	60.0586	80.035	60.0586	79.9686	60.0586	79.9776	60.0586	79.919	60.0586	79.9284	60.0586	79.8799	60.0586	79.8884	60.0586	79.8521	60.0586	79.8586	60.0586	79.8362	60.0586	79.8397	60.0586	79.832
62.9883	81.2836	62.9883	81.2775	62.9883	81.276	62.9883	81.2578	62.9883	81.2549	62.9883	81.2251	62.9883	81.221	62.9883	81.1804	62.9883	81.1756	62.9883	81.1254	62.9883	81.1203	62.9883	81.0618	62.9883	81.0569	62.9883	80.9918	62.9883	80.9877	62.9883	80.9179	62.9883	80.9149	62.9883	80.8426	62.9883	80.8412	62.9883	80.7684	62.9883	80.7688	62.9883	80.6978	62.9883	80.6999	62.9883	80.6329	62.9883	80.6365	62.9883	80.5755	62.9883	80.5802	62.9883	80.5272	62.9883	80.5322	62.9883	80.489	62.9883	80.4936	62.9883	80.4616	62.9883	80.4652	62.9883	80.4455	62.9883	80.4474	62.9883	80.4408
64.4531	81.5412	64.4531	81.536	64.4531	81.5318	64.4531	81.5165	64.4531	81.5082	64.4531	81.4832	64.4531	81.4713	64.4531	81.4374	64.4531	81.4226	64.4531	81.3807	64.4531	81.3638	64.4531	81.3152	64.4531	81.2971	64.4531	81.2433	64.4531	81.2248	64.4531	81.1676	64.4531	81.1497	64.4531	81.0907	64.4531	81.0741	64.4531	81.0152	64.4531	81.0006	64.4531	80.9436	64.4531	80.9314	64.4531	80.878	64.4531	80.8684	64.4531	80.8202	64.4531	80.8131	64.4531	80.7714	64.4531	80.7666	64.4531	80.7328	64.4531	80.7297	64.4531	80.7048	64.4531	80.7031	64.4531	80.6878	64.4531	80.6871	64.4531	80.682
67.3828	81.9841	67.3828	81.9787	67.3828	81.9758	67.3828	81.9599	67.3828	81.9543	67.3828	81.9283	67.3828	81.9206	67.3828	81.8852	67.3828	81.8761	67.3828	81.8324	67.3828	81.8227	67.3828	81.7722	67.3828	81.7627	67.3828	81.7068	67.3828	81.6984	67.3828	81.639	67.3828	81.6323	67.3828	81.5712	67.3828	81.5666	67.3828	81.5058	67.3828	81.5035	67.3828	81.4449	67.3828	81.4449	67.3828	81.3902	67.3828	81.3921	67.3828	81.3429	67.3828	81.3463	67.3828	81.3039	67.3828	81.308	67.3828	81.2737	67.3828	81.2777	67.3828	81.2525	67.3828	81.2557	67.3828	81.2403	67.3828	81.242	67.3828	81.2368
68.8477	82.147	68.8477	82.1395	68.8477	82.142	68.8477	82.1197	68.8477	82.1247	68.8477	82.0884	68.8477	82.0961	68.8477	82.0469	68.8477	82.0575	68.8477	81.9971	68.8477	82.0109	68.8477	81.9411	68.8477	81.9583	68.8477	81.8814	68.8477	81.9019	68.8477	81.8204	68.8477	81.8441	68.8477	81.7607	68.8477	81.7871	68.8477	81.7043	68.8477	81.7327	68.8477	81.6531	68.8477	81.6826	68.8477	81.6085	68.8477	81.6377	68.8477	81.5714	68.8477	81.5989	68.8477	81.5421	68.8477	81.5665	68.8477	81.5208	68.8477	81.5406	68.8477	81.507	68.8477	81.521	68.8477	81.5005	68.8477	81.5078	68.8477	81.5009
71.7773	82.6739	71.7773	82.6666	71.7773	82.6681	71.7773	82.6466	71.7773	82.6495	71.7773	82.6147	71.7773	82.6191	71.7773	82.5724	71.7773	82.5781	71.7773	82.5215	71.7773	82.5286	71.7773	82.4642	71.7773	82.4727	71.7773	82.4029	71.7773	82.4131	71.7773	82.3404	71.7773	82.3522	71.7773	82.279	71.7773	82.2925	71.7773	82.2212	71.7773	82.2363	71.7773	82.1689	71.7773	82.1851	71.7773	82.1234	71.7773	82.1402	71.7773	82.0857	71.7773	82.1022	71.7773	82.0561	71.7773	82.0712	71.7773	82.0344	71.7773	82.0471	71.7773	82.0203	71.7773	82.0294	71.7773	82.0132	71.7773	82.018	71.7773	82.0125
74.707	83.1178	74.707	83.1168	74.707	83.1046	74.707	83.1016	74.707	83.0777	74.707	83.0728	74.707	83.0384	74.707	83.0318	74.707	82.9884	74.707	82.9805	74.707	82.9301	74.707	82.9211	74.707	82.8659	74.707	82.8564	74.707	82.7988	74.707	82.7892	74.707	82.7316	74.707	82.7224	74.707	82.6668	74.707	82.6584	74.707	82.6068	74.707	82.5995	74.707	82.5534	74.707	82.5473	74.707	82.5076	74.707	82.5028	74.707	82.4701	74.707	82.4664	74.707	82.4408	74.707	82.4381	74.707	82.4195	74.707	82.4177	74.707	82.4056	74.707	82.4046	74.707	82.3986	74.707	82.3983
77.6367	83.5102	77.6367	83.5076	77.6367	83.4976	77.6367	83.4897	77.6367	83.4702	77.6367	83.4574	77.6367	83.4296	77.6367	83.4122	77.6367	83.3774	77.6367	83.3561	77.6367	83.3161	77.6367	83.2917	77.6367	83.2485	77.6367	83.2221	77.6367	83.1776	77.6367	83.1502	77.6367	83.1065	77.6367	83.0792	77.6367	83.0379	77.6367	83.0118	77.6367	82.9744	77.6367	82.9504	77.6367	82.9177	77.6367	82.8965	77.6367	82.8691	77.6367	82.8512	77.6367	82.8293	77.6367	82.8148	77.6367	82.7981	77.6367	82.787	77.6367	82.7752	77.6367	82.7674	77.6367	82.7599	77.6367	82.7553	77.6367	82.7516	77.6367	82.7501
79.1016	83.6753	79.1016	83.6717	79.1016	83.6631	79.1016	83.6522	79.1016	83.6356	79.1016	83.6179	79.1016	83.594	79.1016	83.5703	79.1016	83.5404	79.1016	83.5115	79.1016	83.4772	79.1016	83.4444	79.1016	83.4074	79.1016	83.3719	79.1016	83.3341	79.1016	83.2973	79.1016	83.2604	79.1016	83.2238	79.1016	83.1894	79.1016	83.1543	79.1016	83.1235	79.1016	83.091	79.1016	83.0647	79.1016	83.0357	79.1016	83.0143	79.1016	82.9894	79.1016	82.9728	79.1016	82.9523	79.1016	82.9402	79.1016	82.9242	79.1016	82.916	79.1016	82.9046	79.1016	82.8996	79.1016	82.8928	79.1016	82.8904	79.1016	82.8882
82.0312	83.8657	82.0312	83.863	82.0312	83.8519	82.0312	83.8441	82.0312	83.8223	82.0312	83.8099	82.0312	83.7783	82.0312	83.762	82.0312	83.7219	82.0312	83.7027	82.0312	83.6557	82.0312	83.6348	82.0312	83.583	82.0312	83.5614	82.0312	83.5071	82.0312	83.4857	82.0312	83.4313	82.0312	83.411	82.0312	83.3587	82.0312	83.34	82.0312	83.2919	82.0312	83.2752	82.0312	83.2328	82.0312	83.2184	82.0312	83.1827	82.0312	83.1705	82.0312	83.1419	82.0312	83.1319	82.0312	83.1102	82.0312	83.1024	82.0312	83.0872	82.0312	83.0815	82.0312	83.0719	82.0312	83.0685	82.0312	83.0639	82.0312	83.0628
84.9609	84.0684	84.9609	84.0687	84.9609	84.0536	84.9609	84.0545	84.9609	84.0249	84.9609	84.0268	84.9609	83.9837	84.9609	83.987	84.9609	83.9319	84.9609	83.9373	84.9609	83.872	84.9609	83.8803	84.9609	83.8072	84.9609	83.8189	84.9609	83.7404	84.9609	83.7562	84.9609	83.6749	84.9609	83.695	84.9609	83.6137	84.9609	83.6379	84.9609	83.5591	84.9609	83.5868	84.9609	83.5128	84.9609	83.5428	84.9609	83.4759	84.9609	83.5065	84.9609	83.4484	84.9609	83.4776	84.9609	83.4297	84.9609	83.4553	84.9609	83.4185	84.9609	83.4385	84.9609	83.4137	84.9609	83.4264	84.9609	83.4139	84.9609	83.4183
87.8906	84.4876	87.8906	84.4884	87.8906	84.4735	87.8906	84.4759	87.8906	84.4466	87.8906	84.4508	87.8906	84.4081	87.8906	84.4143	87.8906	84.3599	87.8906	84.3684	87.8906	84.3043	87.8906	84.3154	87.8906	84.2439	87.8906	84.2584	87.8906	84.1819	87.8906	84.2001	87.8906	84.1212	87.8906	84.1437	87.8906	84.0649	87.8906	84.0916	87.8906	84.0153	87.8906	84.0458	87.8906	83.9742	87.8906	84.0074	87.8906	83.9424	87.8906	83.9766	87.8906	83.9199	87.8906	83.9529	87.8906	83.9059	87.8906	83.9352	87.8906	83.8989	87.8906	83.9219	87.8906	83.8973	87.8906	83.9121	87.8906	83.8996	87.8906	83.9047
90.8203	84.8723	90.8203	84.8714	90.8203	84.8543	90.8203	84.8516	90.8203	84.8181	90.8203	84.8136	90.8203	84.7654	90.8203	84.7593	90.8203	84.6985	90.8203	84.6912	90.8203	84.6205	90.8203	84.6125	90.8203	84.5352	90.8203	84.5271	90.8203	84.4465	90.8203	84.4393	90.8203	84.3587	90.8203	84.3533	90.8203	84.2757	90.8203	84.2728	90.8203	84.2008	90.8203	84.2011	90.8203	84.1364	90.8203	84.14	90.8203	84.084	90.8203	84.0904	90.8203	84.0438	90.8203	84.0521	90.8203	84.0151	90.8203	84.0239	90.8203	83.9964	90.8203	84.0041	90.8203	83.986	90.8203	83.9913	90.8203	83.9823	90.8203	83.9842
95.2148	84.9392	95.2148	84.9368	95.2148	84.9234	95.2148	84.916	95.2148	84.89	95.2148	84.8782	95.2148	84.8409	95.2148	84.8254	95.2148	84.7787	95.2148	84.7605	95.2148	84.7069	95.2148	84.6869	95.2148	84.6291	95.2148	84.6086	95.2148	84.5493	95.2148	84.5294	95.2148	84.4714	95.2148	84.4531	95.2148	84.3989	95.2148	84.3827	95.2148	84.3344	95.2148	84.3208	95.2148	84.2798	95.2148	84.2689	95.2148	84.2359	95.2148	84.2274	95.2148	84.2025	95.2148	84.1961	95.2148	84.1785	95.2148	84.1738	95.2148	84.1624	95.2148	84.1592	95.2148	84.1526	95.2148	84.1508	95.2148	84.1478	95.2148	84.1472
98.1445	85.1744	98.1445	85.1747	98.1445	85.1564	98.1445	85.1574	98.1445	85.1215	98.1445	85.1235	98.1445	85.0716	98.1445	85.0748	98.1445	85.0091	98.1445	85.014	98.1445	84.9372	98.1445	84.9441	98.1445	84.8595	98.1445	84.869	98.1445	84.78	98.1445	84.7922	98.1445	84.7024	98.1445	84.7174	98.1445	84.6301	98.1445	84.6477	98.1445	84.566	98.1445	84.5855	98.1445	84.5118	98.1445	84.5322	98.1445	84.4684	98.1445	84.4887	98.1445	84.4357	98.1445	84.4545	98.1445	84.4128	98.1445	84.4289	98.1445	84.3982	98.1445	84.4106	98.1445	84.3906	98.1445	84.3983	98.1445	84.3885	98.1445	84.3911
101.074	85.1889	101.074	85.195	101.074	85.1668	101.074	85.1853	101.074	85.1299	101.074	85.1608	101.074	85.0798	101.074	85.1232	101.074	85.0193	101.074	85.0753	101.074	84.9518	101.074	85.0202	101.074	84.8812	101.074	84.9612	101.074	84.8116	101.074	84.9019	101.074	84.7469	101.074	84.8454	101.074	84.6903	101.074	84.7943	101.074	84.6443	101.074	84.7502	101.074	84.6102	101.074	84.7139	101.074	84.5879	101.074	84.6851	101.074	84.5764	101.074	84.6629	101.074	84.5738	101.074	84.6456	101.074	84.5778	101.074	84.6316	101.074	84.586	101.074	84.6193	101.074	84.5964	101.074	84.6077
105.469	85.5619	105.469	85.575	105.469	85.5287	105.469	85.5681	105.469	85.4763	105.469	85.5422	105.469	85.4068	105.469	85.4995	105.469	85.3234	105.469	85.4428	105.469	85.2302	105.469	85.3758	105.469	85.1321	105.469	85.3023	105.469	85.0345	105.469	85.2266	105.469	84.9428	105.469	85.1524	105.469	84.8618	105.469	85.0829	105.469	84.7953	105.469	85.0206	105.469	84.7458	105.469	84.9665	105.469	84.7138	105.469	84.9207	105.469	84.6983	105.469	84.8824	105.469	84.697	105.469	84.8498	105.469	84.7067	105.469	84.8212	105.469	84.7238	105.469	84.7947	105.469	84.7455	105.469	84.7695
108.398	85.7703	108.398	85.7768	108.398	85.743	108.398	85.763	108.398	85.6957	108.398	85.7302	108.398	85.6303	108.398	85.6809	108.398	85.5497	108.398	85.6184	108.398	85.4581	108.398	85.5465	108.398	85.3603	108.398	85.4697	108.398	85.2616	108.398	85.3921	108.398	85.1676	108.398	85.3178	108.398	85.0833	108.398	85.2498	108.398	85.0128	108.398	85.1902	108.398	84.9588	108.398	85.1398	108.398	84.9224	108.398	85.098	108.398	84.9027	108.398	85.0635	108.398	84.8978	108.398	85.0344	108.398	84.9044	108.398	85.0086	108.398	84.9192	108.398	84.9844	108.398	84.9389	108.398	84.9611
112.793	85.9777	112.793	85.9803	112.793	85.952	112.793	85.9601	112.793	85.9042	112.793	85.9189	112.793	85.8365	112.793	85.8598	112.793	85.7526	112.793	85.7868	112.793	85.6573	112.793	85.705	112.793	85.556	112.793	85.6198	112.793	85.455	112.793	85.5365	112.793	85.3603	112.793	85.46	112.793	85.2772	112.793	85.3939	112.793	85.21	112.793	85.3402	112.793	85.1611	112.793	85.2992	112.793	85.1309	112.793	85.2694	112.793	85.118	112.793	85.2483	112.793	85.1194	112.793	85.2324	112.793	85.131	112.793	85.2185	112.793	85.1485	112.793	85.204	112.793	85.1682	112.793	85.1872
117.188	86.2093	117.188	86.2108	117.188	86.1818	117.188	86.1867	117.188	86.1293	117.188	86.1385	117.188	86.0539	117.188	86.0689	117.188	85.9593	117.188	85.982	117.188	85.8501	117.188	85.8825	117.188	85.7319	117.188	85.776	117.188	85.6111	117.188	85.6683	117.188	85.4942	117.188	85.5651	117.188	85.3875	117.188	85.4711	117.188	85.2958	117.188	85.3899	117.188	85.2228	117.188	85.3233	117.188	85.1699	117.188	85.2713	117.188	85.1364	117.188	85.2323	117.188	85.1199	117.188	85.2034	117.188	85.1166	117.188	85.1815	117.188	85.1225	117.188	85.1637	117.188	85.1338	117.188	85.1479
120.117	86.2575	120.117	86.2574	120.117	86.2315	120.117	86.2317	120.117	86.1801	120.117	86.1823	120.117	86.1056	120.117	86.1124	120.117	86.0115	120.117	86.0263	120.117	85.9025	120.117	85.9291	120.117	85.7846	120.117	85.8263	120.117	85.6641	120.117	85.7235	120.117	85.5476	120.117	85.6259	120.117	85.4413	120.117	85.5377	120.117	85.3503	120.117	85.4616	120.117	85.278	120.117	85.3987	120.117	85.2259	120.117	85.3488	120.117	85.1933	120.117	85.3099	120.117	85.178	120.117	85.2797	120.117	85.1762	120.117	85.2553	120.117	85.1842	120.117	85.2343	120.117	85.1981	120.117	85.2152
124.512	86.2886	124.512	86.2853	124.512	86.2651	124.512	86.2561	124.512	86.2158	124.512	86.203	124.512	86.1431	124.512	86.1298	124.512	86.0508	124.512	86.0413	124.512	85.9442	124.512	85.9432	124.512	85.8294	124.512	85.8417	124.512	85.7131	124.512	85.7429	124.512	85.6021	124.512	85.652	124.512	85.5026	124.512	85.573	124.512	85.4194	124.512	85.5083	124.512	85.3558	124.512	85.4583	124.512	85.3127	124.512	85.4217	124.512	85.2889	124.512	85.3956	124.512	85.2814	124.512	85.3767	124.512	85.2862	124.512	85.3614	124.512	85.2986	124.512	85.3468	124.512	85.3147	124.512	85.3312
128.906	86.3108	128.906	86.3065	128.906	86.2887	128.906	86.2765	128.906	86.2413	128.906	86.2231	128.906	86.1713	128.906	86.15	128.906	86.0826	128.906	86.0625	128.906	85.9806	128.906	85.9666	128.906	85.8714	128.906	85.8687	128.906	85.7619	128.906	85.7754	128.906	85.6586	128.906	85.692	128.906	85.5677	128.906	85.6227	128.906	85.4939	128.906	85.5695	128.906	85.4402	128.906	85.5322	128.906	85.4071	128.906	85.5087	128.906	85.3931	128.906	85.4954	128.906	85.3947	128.906	85.4879	128.906	85.4071	128.906	85.4817	128.906	85.4253	128.906	85.4735	128.906	85.4444	128.906	85.4611
133.301	86.3981	133.301	86.3901	133.301	86.3806	133.301	86.357	133.301	86.3383	133.301	86.3011	133.301	86.2737	133.301	86.2257	133.301	86.1903	133.301	86.1359	133.301	86.0931	133.301	86.0375	133.301	85.9878	133.301	85.9369	133.301	85.881	133.301	85.8406	133.301	85.7791	133.301	85.7542	133.301	85.6881	133.301	85.6821	133.301	85.6128	133.301	85.6266	133.301	85.5562	133.301	85.588	133.301	85.519	133.301	85.5644	133.301	85.4999	133.301	85.5523	133.301	85.4954	133.301	85.5473	133.301	85.5013	133.301	85.545	133.301	85.5126	133.301	85.5417	133.301	85.5249	133.301	85.5351
139.16	86.4789	139.16	86.4638	139.16	86.466	139.16	86.4216	139.16	86.4255	139.16	86.3551	139.16	86.3599	139.16	86.2688	139.16	86.273	139.16	86.1684	139.16	86.1703	139.16	86.0611	139.16	86.0584	139.16	85.9545	139.16	85.9448	139.16	85.8557	139.16	85.8373	139.16	85.7711	139.16	85.7429	139.16	85.7051	139.16	85.6671	139.16	85.6594	139.16	85.6131	139.16	85.6331	139.16	85.5814	139.16	85.6229	139.16	85.5698	139.16	85.6239	139.16	85.574	139.16	85.6303	139.16	85.5881	139.16	85.6368	139.16	85.6062	139.16	85.639	139.16	85.623	139.16	85.6345
143.555	86.5702	143.555	86.5441	143.555	86.5651	143.555	86.488	143.555	86.5295	143.555	86.4052	143.555	86.4655	143.555	86.3006	143.555	86.3774	143.555	86.1808	143.555	86.2707	143.555	86.0536	143.555	86.1525	143.555	85.9276	143.555	86.0307	143.555	85.8114	143.555	85.9133	143.555	85.7123	143.555	85.8079	143.555	85.6357	143.555	85.7206	143.555	85.5839	143.555	85.6549	143.555	85.5561	143.555	85.6119	143.555	85.5485	143.555	85.5895	143.555	85.5555	143.555	85.5834	143.555	85.5704	143.555	85.5878	143.555	85.5866	143.555	85.5963	143.555	85.5991	143.555	85.6033	143.555	85.6049
147.949	86.6068	147.949	86.5814	147.949	86.5999	147.949	86.5246	147.949	86.5614	147.949	86.4395	147.949	86.4943	147.949	86.3309	147.949	86.4028	147.949	86.2056	147.949	86.2931	147.949	86.0717	147.949	86.1724	147.949	85.9383	147.949	86.0488	147.949	85.8144	147.949	85.9305	147.949	85.7082	147.949	85.825	147.949	85.6257	147.949	85.7383	147.949	85.5701	147.949	85.6737	147.949	85.5408	147.949	85.6318	147.949	85.5342	147.949	85.6103	147.949	85.5443	147.949	85.6043	147.949	85.5639	147.949	85.6079	147.949	85.5858	147.949	85.6144	147.949	85.6041	147.949	85.6182	147.949	85.6153
153.809	86.6321	153.809	86.609	153.809	86.6215	153.809	86.5529	153.809	86.5788	153.809	86.4664	153.809	86.5071	153.809	86.3542	153.809	86.4115	153.809	86.2232	153.809	86.2984	153.809	86.0818	153.809	86.1755	153.809	85.9399	153.809	86.0509	153.809	85.8072	153.809	85.9329	153.809	85.6928	153.809	85.8288	153.809	85.6037	153.809	85.7442	153.809	85.5436	153.809	85.6819	153.809	85.5122	153.809	85.6419	153.809	85.5062	153.809	85.6214	153.809	85.519	153.809	85.6153	153.809	85.543	153.809	85.6173	153.809	85.5704	153.809	85.6207	153.809	85.5948	153.809	85.6202	153.809	85.612
159.668	86.6459	159.668	86.6131	159.668	86.6441	159.668	86.5466	159.668	86.6092	159.668	86.4493	159.668	86.5446	159.668	86.3264	159.668	86.4555	159.668	86.1853	159.668	86.3487	159.668	86.0353	159.668	86.2325	159.668	85.887	159.668	86.1156	159.668	85.7514	159.668	86.0067	159.668	85.6387	159.668	85.9131	159.668	85.5567	159.668	85.8403	159.668	85.5094	159.668	85.7905	159.668	85.4965	159.668	85.7628	159.668	85.5135	159.668	85.7531	159.668	85.5522	159.668	85.7551	159.668	85.6028	159.668	85.7611	159.668	85.6555	159.668	85.7638	159.668	85.702	159.668	85.7569	159.668	85.7366
165.527	86.8241	165.527	86.8084	165.527	86.8038	165.527	86.7572	165.527	86.749	165.527	86.6736	165.527	86.6637	165.527	86.5628	165.527	86.5538	165.527	86.4321	165.527	86.4274	165.527	86.2909	165.527	86.2938	165.527	86.1495	165.527	86.1635	165.527	86.0189	165.527	86.0465	165.527	85.9089	165.527	85.9514	165.527	85.8272	165.527	85.8838	165.527	85.7779	165.527	85.8459	165.527	85.7608	165.527	85.8355	165.527	85.7715	165.527	85.8468	165.527	85.8022	165.527	85.8718	165.527	85.8431	165.527	85.9011	165.527	85.8845	165.527	85.9259	165.527	85.9177	165.527	85.9393	165.527	85.9369
171.387	86.8432	171.387	86.8269	171.387	86.8204	171.387	86.7724	171.387	86.7597	171.387	86.6829	171.387	86.6648	171.387	86.5637	171.387	86.5415	171.387	86.4225	171.387	86.398	171.387	86.2692	171.387	86.2443	171.387	86.1148	171.387	86.092	171.387	85.9714	171.387	85.9529	171.387	85.8498	171.387	85.8374	171.387	85.7586	171.387	85.7531	171.387	85.7022	171.387	85.7034	171.387	85.6803	171.387	85.6869	171.387	85.6878	171.387	85.6976	171.387	85.7158	171.387	85.7267	171.387	85.7536	171.387	85.7635	171.387	85.7905	171.387	85.7978	171.387	85.8174	171.387	85.8213	171.387	85.8284
177.246	86.8607	177.246	86.8313	177.246	86.8456	177.246	86.7584	177.246	86.7871	177.246	86.6458	177.246	86.6889	177.246	86.4996	177.246	86.5572	177.246	86.3289	177.246	86.4005	177.246	86.145	177.246	86.2295	177.246	85.9611	177.246	86.0566	177.246	85.7913	177.246	85.8948	177.246	85.6487	177.246	85.756	177.246	85.5433	177.246	85.6495	177.246	85.4803	177.246	85.5804	177.246	85.4586	177.246	85.5485	177.246	85.472	177.246	85.5484	177.246	85.5093	177.246	85.5705	177.246	85.5579	177.246	85.6033	177.246	85.6052	177.246	85.635	177.246	85.6408	177.246	85.6555	177.246	85.6583
183.105	86.7739	183.105	86.7463	183.105	86.7559	183.105	86.6739	183.105	86.6946	183.105	86.5597	183.105	86.5945	183.105	86.4096	183.105	86.4627	183.105	86.2325	183.105	86.3088	183.105	86.0398	183.105	86.1441	183.105	85.8453	183.105	85.9809	183.105	85.6639	183.105	85.8314	183.105	85.5102	183.105	85.7063	183.105	85.396	183.105	85.6127	183.105	85.3281	183.105	85.5539	183.105	85.3068	183.105	85.5279	183.105	85.3258	183.105	85.5286	183.105	85.3736	183.105	85.5468	183.105	85.4361	183.105	85.5714	183.105	85.4993	183.105	85.5916	183.105	85.5517	183.105	85.5984	183.105	85.5857
188.965	86.8054	188.965	86.7867	188.965	86.7762	188.965	86.7198	188.965	86.7018	188.965	86.6071	188.965	86.5877	188.965	86.454	188.965	86.4418	188.965	86.2689	188.965	86.2744	188.965	86.0633	188.965	86.0981	188.965	85.8517	188.965	85.9264	188.965	85.6501	188.965	85.7727	188.965	85.475	188.965	85.6484	188.965	85.3406	188.965	85.5606	188.965	85.2563	188.965	85.5116	188.965	85.2244	188.965	85.4974	188.965	85.2401	188.965	85.5094	188.965	85.2917	188.965	85.5359	188.965	85.3641	188.965	85.5643	188.965	85.4412	188.965	85.5827	188.965	85.5091	188.965	85.5821	188.965	85.5577
196.289	86.8584	196.289	86.8456	196.289	86.8199	196.289	86.7816	196.289	86.7327	196.289	86.6691	196.289	86.6022	196.289	86.5138	196.289	86.4364	196.289	86.3243	196.289	86.2467	196.289	86.1125	196.289	86.0466	196.289	85.8931	196.289	85.8519	196.289	85.6825	196.289	85.6781	196.289	85.4977	196.289	85.5391	196.289	85.3536	196.289	85.4437	196.289	85.2601	196.289	85.3944	196.289	85.2202	196.289	85.3868	196.289	85.2291	196.289	85.4104	196.289	85.2753	196.289	85.4511	196.289	85.3431	196.289	85.4941	196.289	85.4159	196.289	85.526	196.289	85.4787	196.289	85.5367	196.289	85.5209
203.613	86.9242	203.613	86.9299	203.613	86.8618	203.613	86.8797	203.613	86.7445	203.613	86.7771	203.613	86.5774	203.613	86.6283	203.613	86.3688	203.613	86.4423	203.613	86.1308	203.613	86.2307	203.613	85.8791	203.613	86.0077	203.613	85.6324	203.613	85.7896	203.613	85.4104	203.613	85.5928	203.613	85.2315	203.613	85.4326	203.613	85.109	203.613	85.3195	203.613	85.0483	203.613	85.2576	203.613	85.0457	203.613	85.243	203.613	85.0892	203.613	85.2645	203.613	85.1611	203.613	85.3063	203.613	85.2424	203.613	85.3508	203.613	85.3155	203.613	85.3824	203.613	85.3671	203.613	85.3897
210.938	86.8499	210.938	86.8504	210.938	86.7928	210.938	86.795	210.938	86.681	210.938	86.6874	210.938	86.5194	210.938	86.5337	210.938	86.316	210.938	86.3431	210.938	86.0823	210.938	86.1273	210.938	85.8331	210.938	85.9006	210.938	85.5859	210.938	85.6789	210.938	85.3595	210.938	85.4782	210.938	85.1712	210.938	85.3126	210.938	85.0342	210.938	85.1922	210.938	84.9547	210.938	85.1204	210.938	84.9302	210.938	85.0939	210.938	84.951	210.938	85.1025	210.938	85.0018	210.938	85.1316	210.938	85.0655	210.938	85.1652	210.938	85.1261	210.938	85.1888	210.938	85.1709	210.938	85.1923
218.262	86.6043	218.262	86.6005	218.262	86.5518	218.262	86.5417	218.262	86.4449	218.262	86.4322	218.262	86.2887	218.262	86.2795	218.262	86.092	218.262	86.0945	218.262	85.8676	218.262	85.8909	218.262	85.6322	218.262	85.6852	218.262	85.4053	218.262	85.4949	218.262	85.2081	218.262	85.3366	218.262	85.0591	218.262	85.2233	218.262	84.9711	218.262	85.1618	218.262	84.9475	218.262	85.1512	218.262	84.9818	218.262	85.1834	218.262	85.0589	218.262	85.2439	218.262	85.1593	218.262	85.3154	218.262	85.2626	218.262	85.3804	218.262	85.351	218.262	85.4242	218.262	85.4113	218.262	85.4361
225.586	86.7291	225.586	86.726	225.586	86.6667	225.586	86.6591	225.586	86.5402	225.586	86.5334	225.586	86.3542	225.586	86.357	225.586	86.1179	225.586	86.1419	225.586	85.8453	225.586	85.9038	225.586	85.5559	225.586	85.662	225.586	85.2749	225.586	85.4382	225.586	85.0301	225.586	85.2536	225.586	84.8483	225.586	85.1261	225.586	84.7486	225.586	85.0654	225.586	84.7369	225.586	85.0707	225.586	84.8039	225.586	85.1306	225.586	84.9279	225.586	85.225	225.586	85.081	225.586	85.33	225.586	85.2348	225.586	85.422	225.586	85.3653	225.586	85.4812	225.586	85.455	225.586	85.4942
232.91	86.9017	232.91	86.896	232.91	86.8385	232.91	86.8244	232.91	86.7062	232.91	86.6924	232.91	86.5077	232.91	86.5084	232.91	86.2496	232.91	86.284	232.91	85.9433	232.91	86.034	232.91	85.6064	232.91	85.7765	232.91	85.2626	232.91	85.5316	232.91	84.9417	232.91	85.3199	232.91	84.6755	232.91	85.159	232.91	84.4924	232.91	85.0598	232.91	84.4089	232.91	85.0234	232.91	84.4245	232.91	85.0404	232.91	84.5219	232.91	85.0924	232.91	84.6716	232.91	85.1562	232.91	84.8406	232.91	85.2078	232.91	84.9988	232.91	85.2273	232.91	85.1234	232.91	85.2009
241.699	86.7848	241.699	86.7583	241.699	86.7377	241.699	86.6624	241.699	86.6157	241.699	86.5041	241.699	86.4203	241.699	86.2935	241.699	86.1566	241.699	86.0446	241.699	85.8344	241.699	85.7747	241.699	85.4691	241.699	85.5042	241.699	85.0832	241.699	85.2548	241.699	84.7067	241.699	85.0468	241.699	84.3745	241.699	84.8952	241.699	84.1218	241.699	84.807	241.699	83.9752	241.699	84.7786	241.699	83.944	241.699	84.7967	241.699	84.0168	241.699	84.8404	241.699	84.1651	241.699	84.8857	241.699	84.3523	241.699	84.9095	241.699	84.5425	241.699	84.8936	241.699	84.7069	241.699	84.8267
250.488	86.8282	250.488	86.7318	250.488	86.842	250.488	86.5555	250.488	86.7731	250.488	86.3051	250.488	86.6244	250.488	85.9913	250.488	86.4015	250.488	85.6302	250.488	86.1138	250.488	85.2453	250.488	85.7757	250.488	84.8669	250.488	85.4076	250.488	84.5303	250.488	85.0359	250.488	84.2696	250.488	84.6921	250.488	84.1097	250.488	84.4089	250.488	84.0579	250.488	84.2135	250.488	84.1015	250.488	84.1197	250.488	84.2117	250.488	84.1234	250.488	84.3527	250.488	84.2033	250.488	84.4891	250.488	84.3271	250.488	84.5928	250.488	84.4598	250.488	84.6447	250.488	84.5706	250.488	84.6365
259.277	87.0179	259.277	86.9477	259.277	87.0108	259.277	86.8014	259.277	86.9274	259.277	86.5831	259.277	86.7711	259.277	86.3005	259.277	86.5482	259.277	85.9657	259.277	86.2684	259.277	85.5967	259.277	85.9458	259.277	85.2174	259.277	85.5997	259.277	84.8573	259.277	85.2543	259.277	84.5491	259.277	84.9376	259.277	84.3221	259.277	84.6771	259.277	84.1953	259.277	84.4945	259.277	84.1702	259.277	84.3993	259.277	84.2297	259.277	84.3862	259.277	84.343	259.277	84.4359	259.277	84.4746	259.277	84.5202	259.277	84.5918	259.277	84.6089	259.277	84.6708	259.277	84.675	259.277	84.6989
268.066	86.8799	268.066	86.7907	268.066	86.8837	268.066	86.6163	268.066	86.8036	268.066	86.3597	268.066	86.6436	268.066	86.0272	268.066	86.41	268.066	85.6308	268.066	86.113	268.066	85.1898	268.066	85.7672	268.066	84.7338	268.066	85.3929	268.066	84.302	268.066	85.0162	268.066	83.9396	268.066	84.6678	268.066	83.6883	268.066	84.3796	268.066	83.5723	268.066	84.1779	268.066	83.589	268.066	84.0759	268.066	83.7093	268.066	84.0681	268.066	83.8889	268.066	84.1312	268.066	84.0815	268.066	84.231	268.066	84.2485	268.066	84.331	268.066	84.3638	268.066	84.3995	268.066	84.4143
276.855	87.0659	276.855	86.9954	276.855	87.0546	276.855	86.8423	276.855	86.9635	276.855	86.6071	276.855	86.7965	276.855	86.2922	276.855	86.5603	276.855	85.9029	276.855	86.2656	276.855	85.45	276.855	85.9277	276.855	84.9523	276.855	85.5669	276.855	84.4394	276.855	85.2076	276.855	83.9534	276.855	84.8757	276.855	83.5459	276.855	84.5951	276.855	83.2662	276.855	84.3836	276.855	83.1445	276.855	84.2487	276.855	83.1774	276.855	84.1852	276.855	83.3287	276.855	84.1755	276.855	83.5442	276.855	84.1922	276.855	83.7701	276.855	84.2038	276.855	83.9651	276.855	84.1815	276.855	84.1047
287.109	86.9006	287.109	86.896	287.109	86.8221	287.109	86.8069	287.109	86.6643	287.109	86.6348	287.109	86.4344	287.109	86.3844	287.109	86.1432	287.109	86.0645	287.109	85.8064	287.109	85.6894	287.109	85.4456	287.109	85.2798	287.109	85.0884	287.109	84.8633	287.109	84.7662	287.109	84.4744	287.109	84.5094	287.109	84.1512	287.109	84.3405	287.109	83.929	287.109	84.2668	287.109	83.83	287.109	84.2784	287.109	83.8539	287.109	84.3513	287.109	83.9756	287.109	84.4544	287.109	84.1533	287.109	84.5559	287.109	84.3415	287.109	84.628	287.109	84.5016	287.109	84.6496	287.109	84.608
297.363	87.1359	297.363	87.1275	297.363	87.0508	297.363	87.0253	297.363	86.8745	297.363	86.8314	297.363	86.6115	297.363	86.5512	297.363	86.2693	297.363	86.1956	297.363	85.861	297.363	85.7822	297.363	85.4073	297.363	85.3369	297.363	84.9401	297.363	84.8945	297.363	84.5028	297.363	84.496	297.363	84.1466	297.363	84.1829	297.363	83.9184	297.363	83.988	297.363	83.843	297.363	83.9255	297.363	83.9116	297.363	83.9854	297.363	84.0839	297.363	84.1361	297.363	84.3042	297.363	84.3329	297.363	84.518	297.363	84.5294	297.363	84.6828	297.363	84.6853	297.363	84.7713	297.363	84.7713
307.617	87.4656	307.617	87.4139	307.617	87.4238	307.617	87.2713	307.617	87.2867	307.617	87.0418	307.617	87.0538	307.617	86.7307	307.617	86.7279	307.617	86.3469	307.617	86.3165	307.617	85.9037	307.617	85.8347	307.617	85.4219	307.617	85.3081	307.617	84.9312	307.617	84.7748	307.617	84.4716	307.617	84.2849	307.617	84.0906	307.617	83.8938	307.617	83.8331	307.617	83.6485	307.617	83.7264	307.617	83.5704	307.617	83.7661	307.617	83.6443	307.617	83.9142	307.617	83.8241	307.617	84.1121	307.617	84.0484	307.617	84.2995	307.617	84.2582	307.617	84.4278	307.617	84.4073	307.617	84.4671
319.336	86.9528	319.336	86.8982	319.336	86.9127	319.336	86.7497	319.336	86.7776	319.336	86.5099	319.336	86.5486	319.336	86.184	319.336	86.229	319.336	85.7823	319.336	85.8268	319.336	85.323	319.336	85.3568	319.336	84.8342	319.336	84.8446	319.336	84.3549	319.336	84.3294	319.336	83.9318	319.336	83.8638	319.336	83.611	319.336	83.5061	319.336	83.4254	319.336	83.3024	319.336	83.3834	319.336	83.2668	319.336	83.465	319.336	83.3736	319.336	83.6287	319.336	83.5687	319.336	83.8236	319.336	83.7907	319.336	84.0016	319.336	83.9866	319.336	84.1241	319.336	84.1189	319.336	84.1665
329.59	86.8885	329.59	86.8346	329.59	86.8453	329.59	86.682	329.59	86.7066	329.59	86.4298	329.59	86.4749	329.59	86.0788	329.59	86.1543	329.59	85.6338	329.59	85.7521	329.59	85.1067	329.59	85.2807	329.59	84.5218	329.59	84.7604	329.59	83.9198	329.59	84.2228	329.59	83.3606	329.59	83.7138	329.59	82.9165	329.59	83.2902	329.59	82.6519	329.59	83.0076	329.59	82.594	329.59	82.8981	329.59	82.7174	329.59	82.9523	329.59	82.9557	329.59	83.1216	329.59	83.2308	329.59	83.3386	329.59	83.4761	329.59	83.5388	329.59	83.6451	329.59	83.6736	329.59	83.713
341.309	86.8251	341.309	86.7966	341.309	86.7538	341.309	86.6676	341.309	86.5845	341.309	86.4384	341.309	86.3211	341.309	86.1108	341.309	85.97	341.309	85.6891	341.309	85.542	341.309	85.1822	341.309	85.0545	341.309	84.6072	341.309	84.5338	341.309	83.9948	341.309	84.0179	341.309	83.3962	341.309	83.5562	341.309	82.8844	341.309	83.204	341.309	82.5422	341.309	83.0075	341.309	82.4291	341.309	82.9846	341.309	82.5461	341.309	83.1136	341.309	82.8303	341.309	83.3387	341.309	83.1864	341.309	83.5893	341.309	83.5245	341.309	83.7992	341.309	83.7796	341.309	83.918	341.309	83.9148
353.027	87.1903	353.027	87.1636	353.027	87.1053	353.027	87.0271	353.027	86.9063	353.027	86.7818	353.027	86.5923	353.027	86.428	353.027	86.1646	353.027	85.9665	353.027	85.6296	353.027	85.401	353.027	85.0005	353.027	84.7418	353.027	84.3022	353.027	84.0124	353.027	83.5762	353.027	83.2592	353.027	82.8869	353.027	82.5611	353.027	82.3204	353.027	82.0258	353.027	81.9641	353.027	81.7537	353.027	81.8651	353.027	81.7761	353.027	81.9985	353.027	82.027	353.027	82.2785	353.027	82.383	353.027	82.6012	353.027	82.7263	353.027	82.8793	353.027	82.9758	353.027	83.0531	353.027	83.0889
366.211	87.265	366.211	87.2428	366.211	87.1835	366.211	87.1185	366.211	86.9979	366.211	86.8949	366.211	86.7092	366.211	86.5758	366.211	86.3195	366.211	86.1673	366.211	85.8339	366.211	85.6781	366.211	85.2626	366.211	85.1212	366.211	84.6256	366.211	84.5166	366.211	83.9594	366.211	83.895	366.211	83.3222	366.211	83.3021	366.211	82.7922	366.211	82.7992	366.211	82.4469	366.211	82.4527	366.211	82.3281	366.211	82.308	366.211	82.4142	366.211	82.3617	366.211	82.6295	366.211	82.5565	366.211	82.8795	366.211	82.8067	366.211	83.083	366.211	83.0304	366.211	83.187	366.211	83.1679
379.395	87.5704	379.395	87.5096	379.395	87.5291	379.395	87.3482	379.395	87.3829	379.395	87.0875	379.395	87.1282	379.395	86.7295	379.395	86.7606	379.395	86.2785	379.395	86.2764	379.395	85.7435	379.395	85.6751	379.395	85.1422	379.395	84.964	379.395	84.5045	379.395	84.1665	379.395	83.8766	379.395	83.3345	379.395	83.3201	379.395	82.5617	379.395	82.9031	379.395	81.981	379.395	82.6783	379.395	81.7166	379.395	82.6571	379.395	81.8014	379.395	82.7988	379.395	82.1433	379.395	83.0263	379.395	82.5879	379.395	83.2529	379.395	82.9986	379.395	83.4037	379.395	83.2903	379.395	83.4255
392.578	87.0337	392.578	86.9197	392.578	87.0475	392.578	86.7055	392.578	86.9608	392.578	86.3915	392.578	86.773	392.578	85.9795	392.578	86.4826	392.578	85.4738	392.578	86.0885	392.578	84.8832	392.578	85.5915	392.578	84.2242	392.578	84.9972	392.578	83.5269	392.578	84.3207	392.578	82.8428	392.578	83.5936	392.578	82.2505	392.578	82.872	392.578	81.8448	392.578	82.2427	392.578	81.6982	392.578	81.8104	392.578	81.8113	392.578	81.6548	392.578	82.1028	392.578	81.7759	392.578	82.4521	392.578	82.0835	392.578	82.7489	392.578	82.4471	392.578	82.9173	392.578	82.7508	392.578	82.9189
405.762	86.8977	405.762	86.8518	405.762	86.8454	405.762	86.7039	405.762	86.6989	405.762	86.4503	405.762	86.4622	405.762	86.0878	405.762	86.1398	405.762	85.6141	405.762	85.7384	405.762	85.0294	405.762	85.2676	405.762	84.3396	405.762	84.7419	405.762	83.5642	405.762	84.1841	405.762	82.7493	405.762	83.6291	405.762	81.9838	405.762	83.1284	405.762	81.4013	405.762	82.7462	405.762	81.1374	405.762	82.5403	405.762	81.2418	405.762	82.5313	405.762	81.6311	405.762	82.6828	405.762	82.1455	405.762	82.9127	405.762	82.6369	405.762	83.1266	405.762	83.0083	405.762	83.2446	405.762	83.2133
420.41	87.5965	420.41	87.6149	420.41	87.4727	420.41	87.5296	420.41	87.2428	420.41	87.3422	420.41	86.9082	420.41	87.0516	420.41	86.4718	420.41	86.6526	420.41	85.9374	420.41	86.1354	420.41	85.3097	420.41	85.4903	420.41	84.5985	420.41	84.7159	420.41	83.8262	420.41	83.8334	420.41	83.0405	420.41	82.9074	420.41	82.3265	420.41	82.0638	420.41	81.8008	420.41	81.4753	420.41	81.5661	420.41	81.277	420.41	81.6417	420.41	81.4582	420.41	81.9403	420.41	81.8662	420.41	82.3203	420.41	82.3161	420.41	82.6521	420.41	82.6713	420.41	82.8468	420.41	82.857
435.059	86.8323	435.059	86.838	435.059	86.7332	435.059	86.7512	435.059	86.5395	435.059	86.5722	435.059	86.2499	435.059	86.3003	435.059	85.8624	435.059	85.9327	435.059	85.3757	435.059	85.464	435.059	84.7909	435.059	84.8888	435.059	84.1157	435.059	84.2068	435.059	83.3709	435.059	83.435	435.059	82.6032	435.059	82.626	435.059	81.8986	435.059	81.8876	435.059	81.3838	435.059	81.3771	435.059	81.1838	435.059	81.2301	435.059	81.3345	435.059	81.4509	435.059	81.7391	435.059	81.8963	435.059	82.2285	435.059	82.3786	435.059	82.6492	435.059	82.7535	435.059	82.9019	435.059	82.9389
451.172	87.2994	451.172	87.2647	451.172	87.2162	451.172	87.1125	451.172	87.0141	451.172	86.8429	451.172	86.6919	451.172	86.4557	451.172	86.2477	451.172	85.9526	451.172	85.6789	451.172	85.3382	451.172	84.9817	451.172	84.6228	451.172	84.1517	451.172	83.825	451.172	83.1882	451.172	82.9773	451.172	82.1064	451.172	82.1344	451.172	80.9653	451.172	81.3833	451.172	79.9136	451.172	80.8383	451.172	79.2068	451.172	80.5962	451.172	79.0773	451.172	80.6656	451.172	79.4939	451.172	80.9426	451.172	80.175	451.172	81.2677	451.172	80.8346	451.172	81.4953	451.172	81.306	451.172	81.5253
465.82	87.0773	465.82	87.0154	465.82	87.039	465.82	86.8516	465.82	86.8978	465.82	86.5808	465.82	86.6475	465.82	86.1958	465.82	86.2805	465.82	85.6899	465.82	85.7898	465.82	85.0612	465.82	85.1711	465.82	84.3168	465.82	84.4243	465.82	83.479	465.82	83.5565	465.82	82.5925	465.82	82.5898	465.82	81.7335	465.82	81.58	465.82	81.0164	465.82	80.6446	465.82	80.5726	465.82	79.9708	465.82	80.4829	465.82	79.7363	465.82	80.7038	465.82	79.9567	465.82	81.0825	465.82	80.4553	465.82	81.445	465.82	81.0039	465.82	81.6626	465.82	81.4367	465.82	81.666
483.398	87.5142	483.398	87.466	483.398	87.4652	483.398	87.3126	483.398	87.3249	483.398	87.0432	483.398	87.0968	483.398	86.6446	483.398	86.7818	483.398	86.1007	483.398	86.3779	483.398	85.3943	483.398	85.8789	483.398	84.5108	483.398	85.2757	483.398	83.4475	483.398	84.5586	483.398	82.2347	483.398	83.7281	483.398	80.9789	483.398	82.8135	483.398	79.9246	483.398	81.9022	483.398	79.4241	483.398	81.1631	483.398	79.6492	483.398	80.8018	483.398	80.3684	483.398	80.9064	483.398	81.2003	483.398	81.3428	483.398	81.8868	483.398	81.8647	483.398	82.3105	483.398	82.268	483.398	82.4344
499.512	87.1221	499.512	87.1349	499.512	87.0181	499.512	87.0526	499.512	86.8254	499.512	86.8681	499.512	86.5466	499.512	86.5714	499.512	86.1852	499.512	86.1516	499.512	85.7448	499.512	85.5989	499.512	85.226	499.512	84.9064	499.512	84.6256	499.512	84.0708	499.512	83.9392	499.512	83.0943	499.512	83.1723	499.512	81.9997	499.512	82.3596	499.512	80.8703	499.512	81.5913	499.512	79.91	499.512	81.0213	499.512	79.4266	499.512	80.804	499.512	79.5899	499.512	80.9631	499.512	80.215	499.512	81.3441	499.512	80.9537	499.512	81.7272	499.512	81.5529	499.512	81.9414	499.512	81.8929
517.09	86.8021	517.09	86.8194	517.09	86.692	517.09	86.7367	517.09	86.4981	517.09	86.5493	517.09	86.2297	517.09	86.2548	517.09	85.8945	517.09	85.8505	517.09	85.4954	517.09	85.3287	517.09	85.0276	517.09	84.6695	517.09	84.4776	517.09	83.8379	517.09	83.8275	517.09	82.7894	517.09	83.0641	517.09	81.497	517.09	82.1951	517.09	80.02	517.09	81.2771	517.09	78.6446	517.09	80.4548	517.09	77.9552	517.09	79.9628	517.09	78.3168	517.09	79.9795	517.09	79.3152	517.09	80.4157	517.09	80.3412	517.09	80.9694	517.09	81.0761	517.09	81.3579	517.09	81.4162
536.133	86.4657	536.133	86.5452	536.133	86.2347	536.133	86.4892	536.133	85.837	536.133	86.3104	536.133	85.2684	536.133	86.0189	536.133	84.5468	536.133	85.624	536.133	83.7157	536.133	85.133	536.133	82.8375	536.133	84.5447	536.133	81.9746	536.133	83.8404	536.133	81.1744	536.133	82.9818	536.133	80.4681	536.133	81.9269	536.133	79.8911	536.133	80.6775	536.133	79.5065	536.133	79.3778	536.133	79.3979	536.133	78.4252	536.133	79.6036	536.133	78.2891	536.133	80.0509	536.133	78.9297	536.133	80.5754	536.133	79.8396	536.133	81.0011	536.133	80.6117	536.133	81.1948	536.133	81.0754
555.176	86.4622	555.176	86.4387	555.176	86.4081	555.176	86.3536	555.176	86.2612	555.176	86.2182	555.176	86.0117	555.176	86.0373	555.176	85.6535	555.176	85.8092	555.176	85.1743	555.176	85.5255	555.176	84.5443	555.176	85.1672	555.176	83.7125	555.176	84.6982	555.176	82.616	555.176	84.065	555.176	81.1984	555.176	83.2067	555.176	79.453	555.176	82.083	555.176	77.5557	555.176	80.731	555.176	76.1517	555.176	79.3746	555.176	76.1298	555.176	78.502	555.176	77.2611	555.176	78.5087	555.176	78.5825	555.176	79.1345	555.176	79.5823	555.176	79.8112	555.176	80.1221	555.176	80.1857
574.219	86.1726	574.219	85.9933	574.219	86.2489	574.219	85.7215	574.219	86.2258	574.219	85.3896	574.219	86.1117	574.219	85.0499	574.219	85.9107	574.219	84.7572	574.219	85.6175	574.219	84.5369	574.219	85.2156	574.219	84.3592	574.219	84.6748	574.219	84.1401	574.219	83.9452	574.219	83.7701	574.219	82.9535	574.219	83.1539	574.219	81.6075	574.219	82.25	574.219	79.8375	574.219	81.1261	574.219	77.7792	574.219	80.048	574.219	76.2953	574.219	79.4754	574.219	76.6763	574.219	79.6587	574.219	78.278	574.219	80.2792	574.219	79.7678	574.219	80.8404	574.219	80.6968	574.219	81.0301
594.727	87.0047	594.727	86.8943	594.727	86.8881	594.727	86.5534	594.727	86.5742	594.727	85.9985	594.727	86.1234	594.727	85.2632	594.727	85.6171	594.727	84.4018	594.727	85.128	594.727	83.4952	594.727	84.6841	594.727	82.6444	594.727	84.2539	594.727	81.9307	594.727	83.7633	594.727	81.3538	594.727	83.1185	594.727	80.8121	594.727	82.2113	594.727	80.1589	594.727	80.9182	594.727	79.3069	594.727	79.1475	594.727	78.3687	594.727	77.1096	594.727	77.7734	594.727	75.9853	594.727	77.9736	594.727	76.8683	594.727	78.7765	594.727	78.4531	594.727	79.5632	594.727	79.5432	594.727	79.8903
615.234	87.0488	615.234	86.9161	615.234	86.9889	615.234	86.601	615.234	86.7503	615.234	86.1321	615.234	86.3677	615.234	85.5521	615.234	85.8802	615.234	84.9151	615.234	85.3093	615.234	84.2771	615.234	84.6549	615.234	83.6706	615.234	83.9074	615.234	83.0739	615.234	83.0548	615.234	82.4021	615.234	82.0731	615.234	81.5341	615.234	80.9123	615.234	80.3584	615.234	79.4995	615.234	78.8176	615.234	77.785	615.234	76.9905	615.234	75.8772	615.234	75.2796	615.234	74.2998	615.234	74.4396	615.234	73.8554	615.234	74.6734	615.234	74.4444	615.234	75.2337	615.234	75.1674	615.234	75.4693
637.207	86.8773	637.207	86.6272	637.207	86.9213	637.207	86.1611	637.207	86.7865	637.207	85.498	637.207	86.5069	637.207	84.7008	637.207	86.1172	637.207	83.8918	637.207	85.6528	637.207	83.2421	637.207	85.1522	637.207	82.8913	637.207	84.6483	637.207	82.8277	637.207	84.1469	637.207	82.8726	637.207	83.6058	637.207	82.802	637.207	82.934	637.207	82.4589	637.207	82.0138	637.207	81.7808	637.207	80.7365	637.207	80.7808	637.207	79.0533	637.207	79.5289	637.207	77.0774	637.207	78.1523	637.207	75.2595	637.207	76.832	637.207	74.2928	637.207	75.7322	637.207	74.3259	637.207	74.8955
659.18	88.1889	659.18	88.0746	659.18	88.0348	659.18	87.6777	659.18	87.6297	659.18	86.9916	659.18	86.9986	659.18	86.0257	659.18	86.1837	659.18	84.8133	659.18	85.2502	659.18	83.413	659.18	84.2809	659.18	81.9198	659.18	83.3739	659.18	80.5166	659.18	82.6526	659.18	79.5064	659.18	82.2333	659.18	79.1142	659.18	82.1068	659.18	79.2311	659.18	82.099	659.18	79.5883	659.18	82.0131	659.18	80.0282	659.18	81.7775	659.18	80.5028	659.18	81.4877	659.18	80.9736	659.18	81.3296	659.18	81.3724	659.18	81.3932	659.18	81.6247	659.18	81.5715	659.18	81.6853
682.617	87.4894	682.617	87.5283	682.617	87.2464	682.617	87.3371	682.617	86.8507	682.617	86.9265	682.617	86.3705	682.617	86.3427	682.617	85.8699	682.617	85.6366	682.617	85.3643	682.617	84.8129	682.617	84.7851	682.617	83.8177	682.617	84.0145	682.617	82.6051	682.617	82.9728	682.617	81.2151	682.617	81.696	682.617	79.7633	682.617	80.4013	682.617	78.3747	682.617	79.4829	682.617	77.3001	682.617	79.2382	682.617	77.1549	682.617	79.5474	682.617	78.2399	682.617	80.1075	682.617	79.8124	682.617	80.7584	682.617	81.1261	682.617	81.4203	682.617	81.9165	682.617	81.9505	682.617	82.1648
707.52	87.2433	707.52	87.0888	707.52	87.1926	707.52	86.7152	707.52	86.9734	707.52	86.1423	707.52	86.6396	707.52	85.4376	707.52	86.2326	707.52	84.7057	707.52	85.7344	707.52	84.0258	707.52	85.061	707.52	83.3801	707.52	84.1261	707.52	82.6633	707.52	82.9215	707.52	81.78	707.52	81.53	707.52	80.7238	707.52	80.0429	707.52	79.5209	707.52	78.4551	707.52	78.0943	707.52	76.716	707.52	76.401	707.52	75.2155	707.52	75.1009	707.52	75.2422	707.52	75.5426	707.52	76.8497	707.52	77.2303	707.52	78.4921	707.52	78.7264	707.52	79.4169	707.52	79.491
732.422	86.7038	732.422	86.6821	732.422	86.5434	732.422	86.4495	732.422	86.2599	732.422	86.0087	732.422	85.9314	732.422	85.4072	732.422	85.6186	732.422	84.7408	732.422	85.3287	732.422	84.109	732.422	85.0225	732.422	83.5349	732.422	84.6427	732.422	82.9365	732.422	84.1153	732.422	82.2001	732.422	83.3491	732.422	81.2733	732.422	82.2934	732.422	80.1752	732.422	81.01	732.422	78.9244	732.422	79.627	732.422	77.5685	732.422	78.3051	732.422	76.5376	732.422	77.5536	732.422	76.773	732.422	78.055	732.422	78.1982	732.422	79.3004	732.422	79.6277	732.422	80.2322	732.422	80.3669
757.324	87.1096	757.324	87.0486	757.324	86.9149	757.324	86.6977	757.324	86.5211	757.324	86.0506	757.324	86.011	757.324	85.1741	757.324	85.4754	757.324	84.2578	757.324	84.983	757.324	83.5532	757.324	84.554	757.324	83.14	757.324	84.132	757.324	82.7844	757.324	83.5776	757.324	82.143	757.324	82.7215	757.324	81.0583	757.324	81.4613	757.324	79.6556	757.324	79.8701	757.324	78.2014	757.324	78.2896	757.324	76.9025	757.324	77.2695	757.324	76.0691	757.324	77.1816	757.324	76.3018	757.324	77.8657	757.324	77.5095	757.324	78.7825	757.324	78.7572	757.324	79.4103	757.324	79.4374
785.156	86.6991	785.156	86.4161	785.156	86.7045	785.156	85.8426	785.156	86.495	785.156	85.0685	785.156	86.1381	785.156	84.3	785.156	85.6658	785.156	83.7184	785.156	85.0564	785.156	83.2491	785.156	84.2639	785.156	82.6135	785.156	83.2826	785.156	81.6164	785.156	82.1942	785.156	80.2646	785.156	81.127	785.156	78.6943	785.156	80.1235	785.156	77.1373	785.156	79.0498	785.156	75.9813	785.156	77.6454	785.156	75.4235	785.156	75.6416	785.156	75.1089	785.156	73.0867	785.156	74.8023	785.156	71.5001	785.156	74.7095	785.156	72.5118	785.156	74.8546	785.156	74.0384	785.156	74.7906
811.523	86.7072	811.523	86.7197	811.523	86.5622	811.523	86.5858	811.523	86.3286	811.523	86.3335	811.523	86.0657	811.523	86.031	811.523	85.7999	811.523	85.7144	811.523	85.4869	811.523	85.3025	811.523	85.0524	811.523	84.6447	811.523	84.4608	811.523	83.6445	811.523	83.694	811.523	82.2867	811.523	82.665	811.523	80.5649	811.523	81.2633	811.523	78.4462	811.523	79.5824	811.523	76.0216	811.523	78.0074	811.523	73.9499	811.523	76.7506	811.523	73.2552	811.523	75.5911	811.523	73.7829	811.523	74.7163	811.523	74.7508	811.523	74.8597	811.523	75.6297	811.523	75.6273	811.523	75.9926
840.82	84.9687	840.82	85.0017	840.82	84.8315	840.82	84.8961	840.82	84.6789	840.82	84.6967	840.82	84.5921	840.82	84.5198	840.82	84.5874	840.82	84.4685	840.82	84.6234	840.82	84.4981	840.82	84.6376	840.82	84.4107	840.82	84.5278	840.82	84.0326	840.82	84.1427	840.82	83.3626	840.82	83.3765	840.82	82.4677	840.82	82.2437	840.82	81.2266	840.82	80.7995	840.82	79.3613	840.82	79.0515	840.82	76.9467	840.82	77.2513	840.82	75.359	840.82	76.4395	840.82	76.0947	840.82	77.1346	840.82	77.682	840.82	78.2329	840.82	78.8022	840.82	78.9883	840.82	79.2147
870.117	86.3554	870.117	86.4321	870.117	85.9763	870.117	86.2755	870.117	85.3016	870.117	85.981	870.117	84.4401	870.117	85.6165	870.117	83.5987	870.117	85.206	870.117	83.0213	870.117	84.7594	870.117	82.8208	870.117	84.302	870.117	82.8318	870.117	83.8421	870.117	82.7446	870.117	83.3075	870.117	82.3537	870.117	82.5366	870.117	81.6173	870.117	81.3257	870.117	80.6196	870.117	79.4637	870.117	79.4946	870.117	76.7784	870.117	78.3207	870.117	73.9327	870.117	77.449	870.117	74.3924	870.117	77.7644	870.117	77.2592	870.117	79.0791	870.117	79.377	870.117	80.1503	870.117	80.3145
900.879	86.6363	900.879	86.8147	900.879	85.9459	900.879	86.431	900.879	84.8918	900.879	85.5521	900.879	83.8008	900.879	84.4461	900.879	83.218	900.879	83.5694	900.879	83.4104	900.879	83.1796	900.879	83.9629	900.879	82.9765	900.879	84.3856	900.879	82.5317	900.879	84.4368	900.879	81.8716	900.879	83.94	900.879	81.3516	900.879	82.6606	900.879	80.9962	900.879	80.3477	900.879	80.3918	900.879	76.9651	900.879	79.3119	900.879	73.7682	900.879	78.0965	900.879	73.6762	900.879	77.3382	900.879	75.2621	900.879	77.1652	900.879	76.4917	900.879	77.2652	900.879	77.1399	900.879	77.3347
933.105	88.2556	933.105	87.7189	933.105	88.0908	933.105	86.4858	933.105	87.2573	933.105	84.7089	933.105	85.7847	933.105	82.7786	933.105	83.7377	933.105	81.1468	933.105	81.468	933.105	79.9856	933.105	80.2599	933.105	79.1023	933.105	81.014	933.105	78.2689	933.105	82.1752	933.105	77.7786	933.105	82.6328	933.105	77.9982	933.105	82.2603	933.105	78.3127	933.105	81.1939	933.105	77.8613	933.105	79.4898	933.105	76.5369	933.105	76.8891	933.105	75.1887	933.105	73.7186	933.105	75.3488	933.105	74.2858	933.105	76.9889	933.105	77.4818	933.105	78.7163	933.105	79.3498	933.105	79.6554
965.332	87.7032	965.332	87.3668	965.332	87.5068	965.332	86.4952	965.332	86.8105	965.332	85.2712	965.332	85.7318	965.332	84.137	965.332	84.557	965.332	83.1985	965.332	83.6044	965.332	81.9765	965.332	82.9757	965.332	80.3899	965.332	82.5793	965.332	78.9559	965.332	82.3778	965.332	77.8715	965.332	82.1092	965.332	76.6955	965.332	81.0569	965.332	75.3287	965.332	78.6517	965.332	74.7688	965.332	75.0831	965.332	74.8788	965.332	71.2384	965.332	74.3271	965.332	67.6344	965.332	72.5929	965.332	67.944	965.332	71.3285	965.332	72.4096	965.332	73.152	965.332	74.8953	965.332	74.9909
1,000.49	86.5395	1,000.49	86.0672	1,000.49	86.6029	1,000.49	85.4411	1,000.49	86.2025	1,000.49	84.9684	1,000.49	85.3804	1,000.49	84.5894	1,000.49	84.1373	1,000.49	83.8949	1,000.49	82.6327	1,000.49	82.6905	1,000.49	81.6775	1,000.49	81.2384	1,000.49	82.0775	1,000.49	79.9618	1,000.49	83.105	1,000.49	78.8775	1,000.49	83.5659	1,000.49	77.6598	1,000.49	83.0089	1,000.49	76.2011	1,000.49	81.6654	1,000.49	74.5904	1,000.49	79.9723	1,000.49	73.3996	1,000.49	77.8214	1,000.49	73.7596	1,000.49	74.4548	1,000.49	74.5954	1,000.49	70.7012	1,000.49	74.74	1,000.49	72.0628	1,000.49	74.5474	1,000.49	74.1183	1,000.49	74.5768
1,035.64	88.0978	1,035.64	87.6329	1,035.64	87.8784	1,035.64	86.4757	1,035.64	86.9861	1,035.64	84.6793	1,035.64	85.3132	1,035.64	82.4279	1,035.64	82.5144	1,035.64	80.2234	1,035.64	78.3031	1,035.64	78.8202	1,035.64	75.7129	1,035.64	78.3607	1,035.64	78.5821	1,035.64	78.4145	1,035.64	81.1886	1,035.64	78.5671	1,035.64	82.1016	1,035.64	78.482	1,035.64	81.1537	1,035.64	77.6484	1,035.64	78.2094	1,035.64	74.8836	1,035.64	73.5702	1,035.64	67.5313	1,035.64	68.7365	1,035.64	69.5613	1,035.64	65.4812	1,035.64	75.6117	1,035.64	65.576	1,035.64	77.6056	1,035.64	69.2082	1,035.64	77.4726	1,035.64	73.1127	1,035.64	75.91
1,072.27	87.2719	1,072.27	86.6643	1,072.27	87.4161	1,072.27	85.8215	1,072.27	87.1462	1,072.27	85.2073	1,072.27	86.4877	1,072.27	84.8531	1,072.27	85.2525	1,072.27	84.3076	1,072.27	83.1217	1,072.27	83.3677	1,072.27	79.8756	1,072.27	82.279	1,072.27	76.0207	1,072.27	81.4573	1,072.27	74.3925	1,072.27	80.9436	1,072.27	75.0233	1,072.27	80.4714	1,072.27	74.7752	1,072.27	80.0371	1,072.27	73.7555	1,072.27	79.254	1,072.27	73.2187	1,072.27	76.8891	1,072.27	73.2788	1,072.27	70.5243	1,072.27	71.9633	1,072.27	63.7067	1,072.27	66.5901	1,072.27	73.5056	1,072.27	67.2917	1,072.27	76.3741	1,072.27	73.8022	1,072.27	76.3622
1,108.89	86.7144	1,108.89	86.0572	1,108.89	87.1288	1,108.89	85.4409	1,108.89	87.1333	1,108.89	85.3307	1,108.89	86.5249	1,108.89	85.7019	1,108.89	85.1059	1,108.89	85.7705	1,108.89	82.8017	1,108.89	84.942	1,108.89	79.5733	1,108.89	83.3875	1,108.89	75.071	1,108.89	81.9495	1,108.89	68.7219	1,108.89	81.126	1,108.89	61.7611	1,108.89	80.5124	1,108.89	62.8428	1,108.89	79.8084	1,108.89	69.1938	1,108.89	78.7369	1,108.89	72.9019	1,108.89	76.3831	1,108.89	73.1765	1,108.89	70.8309	1,108.89	70.5594	1,108.89	48.5875	1,108.89	65.9925	1,108.89	70.6167	1,108.89	65.2758	1,108.89	74.6305	1,108.89	71.8933	1,108.89	74.8838
1,148.44	84.6682	1,148.44	84.1134	1,148.44	85.471	1,148.44	84.3692	1,148.44	86.1023	1,148.44	85.4385	1,148.44	86.3227	1,148.44	86.4174	1,148.44	86.022	1,148.44	86.435	1,148.44	85.1781	1,148.44	85.2548	1,148.44	83.7553	1,148.44	83.3813	1,148.44	81.8783	1,148.44	81.7572	1,148.44	80.1682	1,148.44	80.5852	1,148.44	79.3688	1,148.44	79.4395	1,148.44	79.2462	1,148.44	78.9391	1,148.44	79.0833	1,148.44	79.5708	1,148.44	78.9909	1,148.44	79.9205	1,148.44	78.6726	1,148.44	78.6533	1,148.44	76.6976	1,148.44	74.8533	1,148.44	73.2382	1,148.44	66.4706	1,148.44	72.0392	1,148.44	68.7524	1,148.44	73.466	1,148.44	73.2252
1,189.45	83.9962	1,189.45	83.9248	1,189.45	84.8658	1,189.45	84.7904	1,189.45	85.7358	1,189.45	85.7817	1,189.45	86.0504	1,189.45	86.0378	1,189.45	85.6193	1,189.45	85.1122	1,189.45	84.564	1,189.45	83.1572	1,189.45	83.3641	1,189.45	81.1956	1,189.45	82.4853	1,189.45	80.0197	1,189.45	81.9743	1,189.45	78.9225	1,189.45	81.7917	1,189.45	76.9152	1,189.45	82.1165	1,189.45	74.3188	1,189.45	82.6081	1,189.45	74.6921	1,189.45	82.2623	1,189.45	76.4023	1,189.45	80.2238	1,189.45	76.38	1,189.45	76.226	1,189.45	74.5126	1,189.45	71.3205	1,189.45	70.3229	1,189.45	67.8701	1,189.45	64.1727	1,189.45	67.5993	1,189.45	66.3093
1,230.47	85.5981	1,230.47	85.9834	1,230.47	84.9303	1,230.47	85.8464	1,230.47	84.4411	1,230.47	85.1557	1,230.47	84.5054	1,230.47	83.9388	1,230.47	84.9963	1,230.47	82.1737	1,230.47	85.4197	1,230.47	80.293	1,230.47	85.372	1,230.47	79.4607	1,230.47	84.8232	1,230.47	79.3929	1,230.47	84.2119	1,230.47	79.4268	1,230.47	84.0886	1,230.47	79.1939	1,230.47	83.9546	1,230.47	77.6976	1,230.47	82.8295	1,230.47	74.9591	1,230.47	80.7874	1,230.47	75.3336	1,230.47	78.2792	1,230.47	76.7128	1,230.47	74.4067	1,230.47	75.6645	1,230.47	69.9181	1,230.47	71.7335	1,230.47	70.1511	1,230.47	67.705	1,230.47	71.0078	1,230.47	69.9557
1,274.41	87.2884	1,274.41	87.3364	1,274.41	86.371	1,274.41	86.4159	1,274.41	85.0302	1,274.41	84.6969	1,274.41	83.9383	1,274.41	82.581	1,274.41	83.4205	1,274.41	80.7492	1,274.41	83.0768	1,274.41	79.7324	1,274.41	82.3356	1,274.41	79.2426	1,274.41	80.8404	1,274.41	78.89	1,274.41	79.7667	1,274.41	79.3732	1,274.41	80.7532	1,274.41	80.2491	1,274.41	81.5372	1,274.41	80.0399	1,274.41	80.9331	1,274.41	78.7323	1,274.41	79.5895	1,274.41	77.2052	1,274.41	77.8038	1,274.41	75.0506	1,274.41	74.1778	1,274.41	70.9699	1,274.41	67.0367	1,274.41	68.3824	1,274.41	69.6085	1,274.41	71.6428	1,274.41	73.2188	1,274.41	73.5979
1,319.82	87.0158	1,319.82	86.8199	1,319.82	86.3345	1,319.82	85.6942	1,319.82	84.9914	1,319.82	83.9252	1,319.82	83.3327	1,319.82	81.9388	1,319.82	82.2787	1,319.82	80.683	1,319.82	82.4024	1,319.82	81.204	1,319.82	82.7668	1,319.82	81.8973	1,319.82	82.411	1,319.82	81.1353	1,319.82	81.5463	1,319.82	79.6234	1,319.82	80.8161	1,319.82	78.5842	1,319.82	79.9946	1,319.82	76.5814	1,319.82	78.878	1,319.82	73.608	1,319.82	77.8533	1,319.82	73.7011	1,319.82	75.942	1,319.82	73.577	1,319.82	70.9186	1,319.82	70.322	1,319.82	62.6745	1,319.82	65.7384	1,319.82	66.7423	1,319.82	67.1641	1,319.82	68.9338	1,319.82	68.9331
1,366.7	86.8948	1,366.7	86.1065	1,366.7	86.8492	1,366.7	84.7165	1,366.7	86.006	1,366.7	83.4613	1,366.7	84.0657	1,366.7	82.6702	1,366.7	81.0537	1,366.7	82.3103	1,366.7	79.6685	1,366.7	82.2992	1,366.7	81.2747	1,366.7	82.3265	1,366.7	82.4897	1,366.7	82.3067	1,366.7	82.3261	1,366.7	81.8383	1,366.7	81.9949	1,366.7	81.0745	1,366.7	82.0346	1,366.7	79.7851	1,366.7	81.35	1,366.7	76.7691	1,366.7	79.7373	1,366.7	72.6005	1,366.7	77.5997	1,366.7	73.4296	1,366.7	73.9968	1,366.7	74.3547	1,366.7	68.4164	1,366.7	72.124	1,366.7	64.5648	1,366.7	68.5521	1,366.7	67.3328	1,366.7	68.4923
1,413.57	86.4164	1,413.57	85.7115	1,413.57	86.9372	1,413.57	85.6124	1,413.57	86.6631	1,413.57	85.646	1,413.57	85.4221	1,413.57	85.033	1,413.57	83.2632	1,413.57	84.1718	1,413.57	80.4044	1,413.57	83.3575	1,413.57	79.33	1,413.57	82.4069	1,413.57	80.6763	1,413.57	81.8421	1,413.57	81.8883	1,413.57	81.4093	1,413.57	82.7788	1,413.57	81.3126	1,413.57	83.3564	1,413.57	80.9446	1,413.57	82.8455	1,413.57	79.1038	1,413.57	80.9284	1,413.57	75.2479	1,413.57	76.388	1,413.57	68.663	1,413.57	65.7939	1,413.57	68.4898	1,413.57	46.9802	1,413.57	71.5012	1,413.57	60.0486	1,413.57	72.9656	1,413.57	67.7662	1,413.57	71.9038
1,463.38	85.9803	1,463.38	86.0021	1,463.38	86.3945	1,463.38	86.2936	1,463.38	86.5665	1,463.38	86.1598	1,463.38	85.8104	1,463.38	85.7672	1,463.38	83.9309	1,463.38	85.6324	1,463.38	80.8665	1,463.38	84.9202	1,463.38	77.5125	1,463.38	82.7886	1,463.38	78.7263	1,463.38	80.7366	1,463.38	80.4792	1,463.38	80.4345	1,463.38	81.0696	1,463.38	80.7906	1,463.38	81.4242	1,463.38	81.0897	1,463.38	80.1886	1,463.38	80.7962	1,463.38	76.1694	1,463.38	79.087	1,463.38	70.5325	1,463.38	75.8241	1,463.38	67.9651	1,463.38	71.5536	1,463.38	63.801	1,463.38	66.1042	1,463.38	67.9478	1,463.38	68.2237	1,463.38	70.5157	1,463.38	70.775
1,516.11	86.4861	1,516.11	86.3196	1,516.11	86.5649	1,516.11	85.9777	1,516.11	86.148	1,516.11	85.3772	1,516.11	85.0181	1,516.11	85.4615	1,516.11	83.5275	1,516.11	86.0162	1,516.11	82.2354	1,516.11	85.6221	1,516.11	81.7738	1,516.11	83.5438	1,516.11	82.4123	1,516.11	81.2278	1,516.11	83.1562	1,516.11	81.1806	1,516.11	83.4396	1,516.11	81.6456	1,516.11	83.0522	1,516.11	81.9583	1,516.11	80.2208	1,516.11	81.8114	1,516.11	72.0103	1,516.11	80.2369	1,516.11	63.5537	1,516.11	77.0916	1,516.11	68.7535	1,516.11	72.8018	1,516.11	63.7164	1,516.11	66.8611	1,516.11	66.0547	1,516.11	67.3715	1,516.11	70.9277	1,516.11	70.7995
1,568.85	85.7566	1,568.85	85.4026	1,568.85	86.3324	1,568.85	85.3961	1,568.85	86.394	1,568.85	85.561	1,568.85	85.4228	1,568.85	85.7961	1,568.85	83.3185	1,568.85	85.3484	1,568.85	80.9001	1,568.85	82.9399	1,568.85	80.8247	1,568.85	78.2866	1,568.85	81.3331	1,568.85	73.0386	1,568.85	80.1841	1,568.85	70.3577	1,568.85	77.4336	1,568.85	72.4739	1,568.85	72.0369	1,568.85	74.0758	1,568.85	66.4211	1,568.85	75.7672	1,568.85	45.083	1,568.85	76.6932	1,568.85	68.6143	1,568.85	76.1943	1,568.85	67.9505	1,568.85	73.6337	1,568.85	66.4205	1,568.85	67.6685	1,568.85	57.482	1,568.85	68.8427	1,568.85	69.5487	1,568.85	71.9528
1,624.51	87.2044	1,624.51	86.9872	1,624.51	87.004	1,624.51	86.4721	1,624.51	86.5599	1,624.51	86.0386	1,624.51	85.8358	1,624.51	85.684	1,624.51	84.5625	1,624.51	84.6021	1,624.51	82.2467	1,624.51	81.6951	1,624.51	80.2979	1,624.51	76.4885	1,624.51	80.8245	1,624.51	69.353	1,624.51	80.6526	1,624.51	62.6968	1,624.51	78.8969	1,624.51	70.3287	1,624.51	75.2714	1,624.51	73.3797	1,624.51	65.8966	1,624.51	75.8735	1,624.51	61.2148	1,624.51	76.7242	1,624.51	72.8115	1,624.51	77.2889	1,624.51	73.3065	1,624.51	75.9876	1,624.51	69.8122	1,624.51	69.7428	1,624.51	68.9937	1,624.51	62.6755	1,624.51	73.8181	1,624.51	73.28
1,681.64	88.3747	1,681.64	88.0217	1,681.64	87.7115	1,681.64	86.8975	1,681.64	86.4889	1,681.64	85.8713	1,681.64	85.6629	1,681.64	85.5656	1,681.64	85.357	1,681.64	85.1781	1,681.64	84.4259	1,681.64	83.6296	1,681.64	82.761	1,681.64	80.959	1,681.64	81.4624	1,681.64	77.9071	1,681.64	79.8261	1,681.64	74.6223	1,681.64	76.5136	1,681.64	69.9426	1,681.64	71.087	1,681.64	66.1754	1,681.64	65.9413	1,681.64	69.6434	1,681.64	69.7261	1,681.64	71.267	1,681.64	72.6974	1,681.64	71.6214	1,681.64	69.0645	1,681.64	70.2888	1,681.64	63.9771	1,681.64	67.2405	1,681.64	62.9324	1,681.64	69.9786	1,681.64	69.3721	1,681.64	72.5432
1,741.7	88.8625	1,741.7	88.2664	1,741.7	88.6112	1,741.7	87.4478	1,741.7	87.6461	1,741.7	86.9128	1,741.7	85.988	1,741.7	85.9493	1,741.7	83.5278	1,741.7	83.9471	1,741.7	81.0085	1,741.7	80.314	1,741.7	79.87	1,741.7	78.3464	1,741.7	81.0178	1,741.7	77.7277	1,741.7	81.9363	1,741.7	76.2228	1,741.7	80.0643	1,741.7	73.9459	1,741.7	75.9521	1,741.7	72.1756	1,741.7	75.0202	1,741.7	71.8542	1,741.7	76.1022	1,741.7	72.75	1,741.7	77.0026	1,741.7	72.8009	1,741.7	74.3305	1,741.7	73.469	1,741.7	66.1571	1,741.7	71.2492	1,741.7	61.1507	1,741.7	60.6037	1,741.7	69.4124	1,741.7	71.2042
1,803.22	89.0203	1,803.22	88.2326	1,803.22	89.0626	1,803.22	87.6018	1,803.22	88.0707	1,803.22	87.3477	1,803.22	85.7598	1,803.22	86.1958	1,803.22	83.2729	1,803.22	84.0087	1,803.22	82.6119	1,803.22	83.5969	1,803.22	81.6591	1,803.22	84.6603	1,803.22	77.3778	1,803.22	84.6963	1,803.22	70.1868	1,803.22	83.7083	1,803.22	72.6082	1,803.22	81.7482	1,803.22	77.0783	1,803.22	79.7491	1,803.22	78.0246	1,803.22	77.769	1,803.22	77.7206	1,803.22	75.2086	1,803.22	75.9391	1,803.22	75.2026	1,803.22	74.1498	1,803.22	75.8624	1,803.22	71.3994	1,803.22	72.0162	1,803.22	63.6432	1,803.22	63.4988	1,803.22	65.5702	1,803.22	68.2342
1,866.21	88.2924	1,866.21	88.0572	1,866.21	88.2304	1,866.21	87.8197	1,866.21	87.4706	1,866.21	87.3965	1,866.21	85.8858	1,866.21	86.0648	1,866.21	84.4925	1,866.21	84.4585	1,866.21	84.1437	1,866.21	83.8051	1,866.21	83.1758	1,866.21	82.7396	1,866.21	80.2737	1,866.21	80.1852	1,866.21	77.9187	1,866.21	76.2839	1,866.21	79.9252	1,866.21	73.3329	1,866.21	81.4085	1,866.21	74.3389	1,866.21	81.1968	1,866.21	76.977	1,866.21	79.2034	1,866.21	77.2388	1,866.21	77.2994	1,866.21	71.7607	1,866.21	76.0734	1,866.21	70.7489	1,866.21	69.0965	1,866.21	75.7124	1,866.21	64.4253	1,866.21	69.7696	1,866.21	68.6604	1,866.21	62.0081
1,932.13	87.9182	1,932.13	88.1665	1,932.13	87.5884	1,932.13	88.2649	1,932.13	86.8897	1,932.13	87.346	1,932.13	85.8335	1,932.13	83.8687	1,932.13	84.5192	1,932.13	78.7394	1,932.13	80.2044	1,932.13	79.4657	1,932.13	74.8621	1,932.13	81.288	1,932.13	80.8834	1,932.13	81.1904	1,932.13	83.7935	1,932.13	79.3831	1,932.13	83.7769	1,932.13	75.2185	1,932.13	82.2502	1,932.13	67.8438	1,932.13	80.3037	1,932.13	74.8596	1,932.13	78.29	1,932.13	76.5079	1,932.13	75.0403	1,932.13	73.8156	1,932.13	73.5259	1,932.13	69.1635	1,932.13	69.0944	1,932.13	68.7177	1,932.13	59.3171	1,932.13	68.1469	1,932.13	68.4026	1,932.13	67.367
1,999.51	87.6527	1,999.51	87.6958	1,999.51	87.2914	1,999.51	87.239	1,999.51	86.6661	1,999.51	86.1446	1,999.51	85.4813	1,999.51	84.7706	1,999.51	84.2281	1,999.51	83.017	1,999.51	82.8708	1,999.51	80.871	1,999.51	80.4461	1,999.51	80.598	1,999.51	77.9517	1,999.51	78.9544	1,999.51	74.8221	1,999.51	75.8313	1,999.51	71.1382	1,999.51	75.9809	1,999.51	71.9645	1,999.51	74.953	1,999.51	71.7894	1,999.51	71.9776	1,999.51	69.6567	1,999.51	71.9852	1,999.51	71.1501	1,999.51	72.9878	1,999.51	71.3021	1,999.51	69.8498	1,999.51	66.1145	1,999.51	65.8032	1,999.51	54.6047	1,999.51	69.2797	1,999.51	66.8354	1,999.51	69.0765
2,069.82	87.0375	2,069.82	86.8686	2,069.82	86.4092	2,069.82	85.7652	2,069.82	85.2315	2,069.82	84.4022	2,069.82	83.7283	2,069.82	83.1974	2,069.82	82.7983	2,069.82	81.8398	2,069.82	81.7723	2,069.82	80.7553	2,069.82	80.2731	2,069.82	79.1167	2,069.82	78.3981	2,069.82	74.3087	2,069.82	76.4296	2,069.82	69.7381	2,069.82	75.5904	2,069.82	70.6506	2,069.82	70.8291	2,069.82	73.6705	2,069.82	65.1753	2,069.82	72.7006	2,069.82	66.1718	2,069.82	69.0098	2,069.82	68.9423	2,069.82	71.2491	2,069.82	68.9697	2,069.82	70.1363	2,069.82	63.9551	2,069.82	62.65	2,069.82	57.14	2,069.82	63.3916	2,069.82	66.584	2,069.82	66.599
2,143.07	86.4527	2,143.07	86.3162	2,143.07	85.8529	2,143.07	85.2026	2,143.07	84.6716	2,143.07	83.8086	2,143.07	82.9864	2,143.07	82.8418	2,143.07	81.7763	2,143.07	81.6798	2,143.07	80.769	2,143.07	79.476	2,143.07	79.3501	2,143.07	77.5084	2,143.07	78.2537	2,143.07	76.9509	2,143.07	77.015	2,143.07	74.8442	2,143.07	75.2394	2,143.07	70.7308	2,143.07	71.8597	2,143.07	70.0483	2,143.07	65.0779	2,143.07	73.016	2,143.07	60.845	2,143.07	70.3667	2,143.07	65.4206	2,143.07	69.4067	2,143.07	67.1648	2,143.07	70.5909	2,143.07	64.7481	2,143.07	65.1979	2,143.07	57.17	2,143.07	62.137	2,143.07	63.1996	2,143.07	61.8416
2,219.24	85.604	2,219.24	85.4732	2,219.24	85.2757	2,219.24	84.8389	2,219.24	84.1932	2,219.24	83.8375	2,219.24	82.6762	2,219.24	82.3464	2,219.24	81.5297	2,219.24	80.3326	2,219.24	79.8924	2,219.24	78.7099	2,219.24	78.7184	2,219.24	77.3335	2,219.24	77.251	2,219.24	75.2494	2,219.24	74.8869	2,219.24	73.3218	2,219.24	73.5362	2,219.24	69.7373	2,219.24	69.142	2,219.24	68.7771	2,219.24	67.5622	2,219.24	71.7441	2,219.24	64.3982	2,219.24	72.1902	2,219.24	65.879	2,219.24	67.4069	2,219.24	65.3077	2,219.24	68.0169	2,219.24	61.6126	2,219.24	63.7966	2,219.24	55.6223	2,219.24	62.6419	2,219.24	63.0809	2,219.24	64.9364
2,296.88	85.3042	2,296.88	85.276	2,296.88	85.0171	2,296.88	84.9628	2,296.88	84.4067	2,296.88	84.3872	2,296.88	83.2218	2,296.88	82.443	2,296.88	81.4877	2,296.88	79.4622	2,296.88	79.7188	2,296.88	77.983	2,296.88	78.7598	2,296.88	75.5932	2,296.88	76.9729	2,296.88	75.7233	2,296.88	76.978	2,296.88	76.6595	2,296.88	76.9153	2,296.88	72.0908	2,296.88	70.6304	2,296.88	65.9522	2,296.88	64.4077	2,296.88	72.5045	2,296.88	67.2616	2,296.88	74.4094	2,296.88	66.5879	2,296.88	70.1232	2,296.88	67.4925	2,296.88	68.2262	2,296.88	61.3896	2,296.88	66.5055	2,296.88	52.3027	2,296.88	58.9336	2,296.88	61.3432	2,296.88	64.0875
2,378.91	85.2597	2,378.91	84.7674	2,378.91	84.8209	2,378.91	84.5454	2,378.91	83.741	2,378.91	83.8938	2,378.91	82.7139	2,378.91	81.3164	2,378.91	82.0106	2,378.91	79.6646	2,378.91	80.5748	2,378.91	78.9754	2,378.91	79.4812	2,378.91	78.7992	2,378.91	78.8237	2,378.91	76.9182	2,378.91	77.6152	2,378.91	72.0973	2,378.91	75.8644	2,378.91	72.4652	2,378.91	72.6838	2,378.91	71.3439	2,378.91	68.4818	2,378.91	66.3805	2,378.91	65.4777	2,378.91	74.439	2,378.91	67.0268	2,378.91	71.7159	2,378.91	67.7952	2,378.91	67.5653	2,378.91	66.7063	2,378.91	68.1092	2,378.91	59.3129	2,378.91	59.4817	2,378.91	60.4557	2,378.91	64.0272
2,462.4	86.2036	2,462.4	86.19	2,462.4	85.8172	2,462.4	85.2278	2,462.4	84.5491	2,462.4	82.9523	2,462.4	82.934	2,462.4	81.224	2,462.4	81.898	2,462.4	81.7007	2,462.4	79.7524	2,462.4	80.677	2,462.4	78.9984	2,462.4	77.1744	2,462.4	78.482	2,462.4	74.4894	2,462.4	76.3143	2,462.4	75.1071	2,462.4	72.8659	2,462.4	73.1318	2,462.4	68.36	2,462.4	72.5651	2,462.4	70.4907	2,462.4	69.9013	2,462.4	67.9267	2,462.4	71.5311	2,462.4	68.0986	2,462.4	72.0689	2,462.4	68.6595	2,462.4	66.7385	2,462.4	66.4038	2,462.4	67.9854	2,462.4	60.1129	2,462.4	63.3338	2,462.4	61.246	2,462.4	65.3823
2,548.83	86.3668	2,548.83	86.7517	2,548.83	86.3116	2,548.83	85.8818	2,548.83	85.2534	2,548.83	83.9142	2,548.83	83.7197	2,548.83	83.5675	2,548.83	82.1214	2,548.83	82.6027	2,548.83	80.558	2,548.83	80.1763	2,548.83	78.3807	2,548.83	79.4376	2,548.83	75.2525	2,548.83	77.282	2,548.83	76.755	2,548.83	71.6507	2,548.83	76.3853	2,548.83	73.3418	2,548.83	72.0882	2,548.83	73.2141	2,548.83	66.7567	2,548.83	69.9052	2,548.83	71.3959	2,548.83	68.8921	2,548.83	68.4248	2,548.83	73.0963	2,548.83	69.5874	2,548.83	69.5369	2,548.83	65.039	2,548.83	69.3551	2,548.83	59.4563	2,548.83	61.7971	2,548.83	65.6809	2,548.83	67.9822
2,639.65	86.212	2,639.65	85.9935	2,639.65	86.5297	2,639.65	85.6065	2,639.65	85.9774	2,639.65	85.7479	2,639.65	84.9586	2,639.65	85.2034	2,639.65	83.2766	2,639.65	83.0475	2,639.65	81.7082	2,639.65	80.7918	2,639.65	78.1909	2,639.65	77.0705	2,639.65	76.9358	2,639.65	77.8324	2,639.65	77.0589	2,639.65	77.7034	2,639.65	69.3393	2,639.65	73.7231	2,639.65	69.8369	2,639.65	72.2555	2,639.65	70.4566	2,639.65	73.8535	2,639.65	69.9149	2,639.65	70.4092	2,639.65	70.1278	2,639.65	73.4557	2,639.65	71.0159	2,639.65	72.3435	2,639.65	68.9569	2,639.65	69.1176	2,639.65	49.9642	2,639.65	66.1552	2,639.65	65.2283	2,639.65	58.6355
2,731.93	86.3599	2,731.93	85.7565	2,731.93	86.3082	2,731.93	86.0382	2,731.93	85.9353	2,731.93	86.3798	2,731.93	85.4323	2,731.93	84.8419	2,731.93	84.3705	2,731.93	83.4815	2,731.93	82.5378	2,731.93	80.9941	2,731.93	80.8918	2,731.93	80.2407	2,731.93	78.5114	2,731.93	79.8059	2,731.93	74.5772	2,731.93	76.0501	2,731.93	72.187	2,731.93	73.613	2,731.93	70.6477	2,731.93	71.5618	2,731.93	65.4901	2,731.93	72.2288	2,731.93	68.1	2,731.93	73.9929	2,731.93	67.1611	2,731.93	72.3403	2,731.93	69.4687	2,731.93	72.9359	2,731.93	68.0467	2,731.93	69.4256	2,731.93	54.6627	2,731.93	63.9325	2,731.93	61.402	2,731.93	64.4672
2,828.61	87.5052	2,828.61	87.0379	2,828.61	87.2487	2,828.61	87.1527	2,828.61	86.2243	2,828.61	86.6308	2,828.61	85.5765	2,828.61	85.1874	2,828.61	84.7939	2,828.61	84.0429	2,828.61	83.1521	2,828.61	82.3632	2,828.61	81.5077	2,828.61	81.0536	2,828.61	80.6757	2,828.61	78.1409	2,828.61	77.3797	2,828.61	76.0371	2,828.61	74.6025	2,828.61	73.6229	2,828.61	74.9433	2,828.61	70.0253	2,828.61	65.0171	2,828.61	72.9603	2,828.61	67.3689	2,828.61	71.9015	2,828.61	61.6877	2,828.61	72.7729	2,828.61	70.2177	2,828.61	70.6975	2,828.61	70.1428	2,828.61	72.0763	2,828.61	63.425	2,828.61	65.6785	2,828.61	64.691	2,828.61	62.6417
2,928.22	88.4715	2,928.22	88.9613	2,928.22	88.1801	2,928.22	88.8703	2,928.22	87.2806	2,928.22	87.4877	2,928.22	86.2269	2,928.22	86.3971	2,928.22	84.6002	2,928.22	84.5718	2,928.22	83.127	2,928.22	82.6752	2,928.22	83.2609	2,928.22	81.0171	2,928.22	81.1217	2,928.22	76.2222	2,928.22	76.8015	2,928.22	73.7612	2,928.22	81.5372	2,928.22	75.2126	2,928.22	77.5966	2,928.22	73.1221	2,928.22	69.6205	2,928.22	70.2614	2,928.22	67.7165	2,928.22	73.5055	2,928.22	62.4718	2,928.22	72.0782	2,928.22	69.0128	2,928.22	71.4575	2,928.22	69.9388	2,928.22	69.4867	2,928.22	64.0618	2,928.22	66.1468	2,928.22	69.3048	2,928.22	63.669
3,030.76	88.5151	3,030.76	88.7768	3,030.76	88.3452	3,030.76	88.7657	3,030.76	87.8043	3,030.76	87.7758	3,030.76	86.1117	3,030.76	85.9489	3,030.76	84.4933	3,030.76	84.0573	3,030.76	83.1692	3,030.76	82.5314	3,030.76	82.1249	3,030.76	77.6472	3,030.76	80.8834	3,030.76	77.8138	3,030.76	79.684	3,030.76	77.5868	3,030.76	82.3794	3,030.76	75.0405	3,030.76	77.5705	3,030.76	73.8483	3,030.76	71.6684	3,030.76	70.7637	3,030.76	68.5096	3,030.76	74.008	3,030.76	65.692	3,030.76	74.6292	3,030.76	69.1016	3,030.76	72.5075	3,030.76	70.2466	3,030.76	73.553	3,030.76	62.3557	3,030.76	69.2384	3,030.76	70.6371	3,030.76	64.9049
3,137.7	88.404	3,137.7	89.0029	3,137.7	88.0447	3,137.7	89.5604	3,137.7	87.7769	3,137.7	87.8278	3,137.7	85.8478	3,137.7	84.6926	3,137.7	85.5556	3,137.7	84.2783	3,137.7	83.944	3,137.7	80.8686	3,137.7	82.5948	3,137.7	79.2193	3,137.7	81.5962	3,137.7	80.5964	3,137.7	82.6975	3,137.7	78.2658	3,137.7	82.5922	3,137.7	72.3403	3,137.7	74.8588	3,137.7	73.8724	3,137.7	75.4008	3,137.7	72.0368	3,137.7	71.2063	3,137.7	72.6433	3,137.7	63.413	3,137.7	73.8371	3,137.7	60.253	3,137.7	72.2434	3,137.7	71.2951	3,137.7	72.0805	3,137.7	63.5243	3,137.7	69.3191	3,137.7	70.6462	3,137.7	64.1166
3,249.02	87.7874	3,249.02	88.8477	3,249.02	87.1759	3,249.02	88.8706	3,249.02	86.9878	3,249.02	87.2758	3,249.02	86.3879	3,249.02	85.255	3,249.02	85.6703	3,249.02	83.7059	3,249.02	84.6051	3,249.02	82.0766	3,249.02	84.0337	3,249.02	83.5075	3,249.02	83.9928	3,249.02	80.9994	3,249.02	85.2258	3,249.02	75.1631	3,249.02	82.5668	3,249.02	76.9389	3,249.02	76.3989	3,249.02	72.6592	3,249.02	73.8488	3,249.02	73.7054	3,249.02	73.7819	3,249.02	72.3708	3,249.02	66.0986	3,249.02	74.0481	3,249.02	70.9736	3,249.02	73.1233	3,249.02	72.0131	3,249.02	73.663	3,249.02	67.6942	3,249.02	70.7531	3,249.02	72.8922	3,249.02	65.5957
3,363.28	87.9545	3,363.28	88.6678	3,363.28	87.3023	3,363.28	88.0739	3,363.28	86.5751	3,363.28	86.0766	3,363.28	86.1234	3,363.28	85.101	3,363.28	85.3653	3,363.28	83.385	3,363.28	83.8151	3,363.28	83.4712	3,363.28	85.2551	3,363.28	82.5278	3,363.28	85.1899	3,363.28	74.9181	3,363.28	85.414	3,363.28	77.8407	3,363.28	80.4857	3,363.28	75.46	3,363.28	76.5707	3,363.28	74.9648	3,363.28	68.4092	3,363.28	72.4684	3,363.28	73.7921	3,363.28	74.0891	3,363.28	67.4273	3,363.28	74.0048	3,363.28	75.1859	3,363.28	72.9071	3,363.28	72.4881	3,363.28	70.3584	3,363.28	66.306	3,363.28	69.1827	3,363.28	73.9788	3,363.28	66.2211
3,481.93	87.8913	3,481.93	88.6413	3,481.93	87.4323	3,481.93	87.7858	3,481.93	86.9137	3,481.93	85.3427	3,481.93	86.6037	3,481.93	85.2098	3,481.93	85.0953	3,481.93	84.6514	3,481.93	83.6122	3,481.93	84.0983	3,481.93	84.8446	3,481.93	81.5177	3,481.93	83.8407	3,481.93	80.1619	3,481.93	83.6268	3,481.93	79.1556	3,481.93	76.3671	3,481.93	75.072	3,481.93	77.0142	3,481.93	75.74	3,481.93	69.6073	3,481.93	71.6101	3,481.93	70.2282	3,481.93	75.3285	3,481.93	67.7947	3,481.93	74.6265	3,481.93	73.8569	3,481.93	73.4959	3,481.93	70.4083	3,481.93	71.7988	3,481.93	66.6789	3,481.93	69.4649	3,481.93	73.148	3,481.93	66.3325
3,604.98	88.0636	3,604.98	87.9553	3,604.98	86.7589	3,604.98	86.922	3,604.98	85.8607	3,604.98	86.0252	3,604.98	86.7222	3,604.98	84.3932	3,604.98	84.7945	3,604.98	85.6087	3,604.98	86.1803	3,604.98	84.0269	3,604.98	85.4798	3,604.98	81.1708	3,604.98	82.512	3,604.98	83.4596	3,604.98	76.4737	3,604.98	76.7952	3,604.98	57.8171	3,604.98	76.8622	3,604.98	69.6192	3,604.98	74.1642	3,604.98	68.2612	3,604.98	72.5754	3,604.98	72.0724	3,604.98	72.9579	3,604.98	60.6209	3,604.98	73.0056	3,604.98	72.2856	3,604.98	73.13	3,604.98	67.0283	3,604.98	69.6318	3,604.98	65.555	3,604.98	71.3396	3,604.98	72.6224	3,604.98	65.585
3,732.42	88.7107	3,732.42	87.5153	3,732.42	87.9259	3,732.42	85.7037	3,732.42	85.7367	3,732.42	85.6028	3,732.42	84.7943	3,732.42	85.5124	3,732.42	83.7271	3,732.42	85.8533	3,732.42	85.8639	3,732.42	84.0296	3,732.42	83.841	3,732.42	83.6845	3,732.42	81.2631	3,732.42	81.0762	3,732.42	73.7454	3,732.42	76.1986	3,732.42	76.6343	3,732.42	75.6892	3,732.42	75.1127	3,732.42	71.837	3,732.42	70.404	3,732.42	72.6872	3,732.42	68.8847	3,732.42	72.2617	3,732.42	69.1694	3,732.42	71.3478	3,732.42	67.8038	3,732.42	73.2743	3,732.42	70.0092	3,732.42	69.9879	3,732.42	67.5582	3,732.42	73.2102	3,732.42	70.0144	3,732.42	62.1779
3,864.26	87.5565	3,864.26	86.6887	3,864.26	88.1938	3,864.26	86.4146	3,864.26	87.8174	3,864.26	85.0697	3,864.26	85.806	3,864.26	87.5939	3,864.26	84.3902	3,864.26	86.6373	3,864.26	84.476	3,864.26	84.902	3,864.26	81.952	3,864.26	84.3108	3,864.26	80.0617	3,864.26	78.1147	3,864.26	77.8764	3,864.26	76.8808	3,864.26	79.4048	3,864.26	74.5159	3,864.26	79.8963	3,864.26	74.5297	3,864.26	72.6928	3,864.26	73.0064	3,864.26	70.1827	3,864.26	73.026	3,864.26	67.6182	3,864.26	73.2616	3,864.26	65.9054	3,864.26	72.0611	3,864.26	69.6999	3,864.26	69.2014	3,864.26	65.3241	3,864.26	72.566	3,864.26	70.8675	3,864.26	59.3465
4,000.49	87.0549	4,000.49	86.2014	4,000.49	86.8698	4,000.49	85.6115	4,000.49	86.9105	4,000.49	87.0727	4,000.49	86.0536	4,000.49	87.1753	4,000.49	85.0286	4,000.49	86.0967	4,000.49	84.599	4,000.49	85.0512	4,000.49	81.5445	4,000.49	81.094	4,000.49	75.6413	4,000.49	79.906	4,000.49	74.2709	4,000.49	77.1428	4,000.49	76.3648	4,000.49	74.7639	4,000.49	76.8974	4,000.49	72.4677	4,000.49	64.9145	4,000.49	73.5851	4,000.49	67.8625	4,000.49	70.7409	4,000.49	61.3972	4,000.49	71.4163	4,000.49	62.1579	4,000.49	70.5307	4,000.49	68.9972	4,000.49	65.1059	4,000.49	63.6052	4,000.49	71.1725	4,000.49	69.828	4,000.49	56.8633
4,141.11	87.4142	4,141.11	85.6665	4,141.11	87.9984	4,141.11	86.1545	4,141.11	87.3579	4,141.11	87.1787	4,141.11	85.7375	4,141.11	86.6453	4,141.11	85.7217	4,141.11	86.9048	4,141.11	84.4417	4,141.11	84.3213	4,141.11	81.2151	4,141.11	81.3679	4,141.11	75.1103	4,141.11	81.6613	4,141.11	76.7723	4,141.11	74.7594	4,141.11	77.3611	4,141.11	73.2802	4,141.11	61.5818	4,141.11	69.4189	4,141.11	72.9358	4,141.11	72.1156	4,141.11	69.3815	4,141.11	69.4345	4,141.11	65.5978	4,141.11	73.2841	4,141.11	60.0765	4,141.11	68.5319	4,141.11	70.348	4,141.11	64.2476	4,141.11	65.4734	4,141.11	71.7071	4,141.11	70.9497	4,141.11	51.8051
4,287.6	85.979	4,287.6	85.693	4,287.6	88.251	4,287.6	86.5625	4,287.6	87.8617	4,287.6	86.7802	4,287.6	86.3309	4,287.6	87.3281	4,287.6	87.4143	4,287.6	86.6418	4,287.6	86.0681	4,287.6	82.2955	4,287.6	79.1058	4,287.6	82.2584	4,287.6	79.0804	4,287.6	77.0862	4,287.6	80.1177	4,287.6	74.6096	4,287.6	73.4111	4,287.6	71.3603	4,287.6	75.7358	4,287.6	70.9126	4,287.6	78.171	4,287.6	70.4844	4,287.6	71.6204	4,287.6	68.7979	4,287.6	70.8119	4,287.6	72.2546	4,287.6	60.0073	4,287.6	70.7763	4,287.6	68.0613	4,287.6	62.0779	4,287.6	63.4277	4,287.6	70.3643	4,287.6	69.828	4,287.6	50.1019
4,438.48	86.4593	4,438.48	84.9091	4,438.48	88.5866	4,438.48	86.8664	4,438.48	87.8728	4,438.48	88.6981	4,438.48	86.8528	4,438.48	87.8114	4,438.48	87.2306	4,438.48	85.7995	4,438.48	84.7403	4,438.48	82.9321	4,438.48	78.2825	4,438.48	81.4045	4,438.48	82.0074	4,438.48	76.763	4,438.48	77.8492	4,438.48	75.2542	4,438.48	73.1381	4,438.48	70.706	4,438.48	79.2141	4,438.48	73.4772	4,438.48	76.0083	4,438.48	69.6941	4,438.48	69.807	4,438.48	69.7753	4,438.48	69.3469	4,438.48	70.3889	4,438.48	67.2761	4,438.48	71.3609	4,438.48	62.3546	4,438.48	67.4431	4,438.48	62.4483	4,438.48	70.694	4,438.48	69.3742	4,438.48	45.3424
4,595.21	85.5473	4,595.21	85.0426	4,595.21	88.427	4,595.21	87.6853	4,595.21	88.9623	4,595.21	89.2483	4,595.21	87.3119	4,595.21	87.0858	4,595.21	87.5248	4,595.21	85.3726	4,595.21	82.1222	4,595.21	83.1638	4,595.21	83.1111	4,595.21	77.7309	4,595.21	82.8867	4,595.21	78.9998	4,595.21	78.7467	4,595.21	73.6064	4,595.21	77.0855	4,595.21	71.6382	4,595.21	79.419	4,595.21	68.4516	4,595.21	71.3076	4,595.21	65.2028	4,595.21	74.7505	4,595.21	70.4388	4,595.21	70.906	4,595.21	68.5634	4,595.21	70.4391	4,595.21	68.7192	4,595.21	65.3487	4,595.21	65.4341	4,595.21	64.3677	4,595.21	68.7916	4,595.21	68.7841	4,595.21	56.5444
4,756.35	86.7101	4,756.35	87.3726	4,756.35	87.6695	4,756.35	89.597	4,756.35	88.9906	4,756.35	87.746	4,756.35	87.1797	4,756.35	86.0609	4,756.35	86.8718	4,756.35	84.6354	4,756.35	80.5257	4,756.35	80.8095	4,756.35	85.0683	4,756.35	81.3538	4,756.35	80.5762	4,756.35	76.9089	4,756.35	77.8267	4,756.35	75.2769	4,756.35	77.6252	4,756.35	68.5078	4,756.35	75.2755	4,756.35	70.9224	4,756.35	74.1236	4,756.35	71.0756	4,756.35	74.0316	4,756.35	68.5438	4,756.35	70.2999	4,756.35	71.4748	4,756.35	68.1538	4,756.35	69.5281	4,756.35	57.3245	4,756.35	64.7191	4,756.35	60.9861	4,756.35	68.4732	4,756.35	68.979	4,756.35	55.7063
4,924.8	86.0326	4,924.8	88.3834	4,924.8	87.9205	4,924.8	88.6765	4,924.8	88.2788	4,924.8	86.9503	4,924.8	86.7298	4,924.8	85.9794	4,924.8	85.9718	4,924.8	84.2607	4,924.8	80.7713	4,924.8	80.8934	4,924.8	85.4131	4,924.8	79.9636	4,924.8	78.6683	4,924.8	73.2959	4,924.8	79.4543	4,924.8	75.642	4,924.8	75.5058	4,924.8	70.7771	4,924.8	74.227	4,924.8	71.0232	4,924.8	70.7538	4,924.8	69.3282	4,924.8	62.8705	4,924.8	68.9561	4,924.8	70.7859	4,924.8	69.7416	4,924.8	56.3944	4,924.8	69.702	4,924.8	65.3053	4,924.8	65.71	4,924.8	64.6317	4,924.8	67.937	4,924.8	65.9198	4,924.8	53.1798
5,097.66	85.0641	5,097.66	87.4788	5,097.66	87.3351	5,097.66	87.9172	5,097.66	87.7838	5,097.66	87.266	5,097.66	87.1916	5,097.66	86.0721	5,097.66	84.6557	5,097.66	82.5976	5,097.66	84.0618	5,097.66	81.3748	5,097.66	84.4615	5,097.66	77.438	5,097.66	75.1313	5,097.66	78.4512	5,097.66	75.9488	5,097.66	73.6365	5,097.66	72.4485	5,097.66	68.527	5,097.66	76.341	5,097.66	68.255	5,097.66	73.2943	5,097.66	71.0256	5,097.66	67.7316	5,097.66	67.4638	5,097.66	68.6359	5,097.66	69.6026	5,097.66	65.1177	5,097.66	67.909	5,097.66	69.778	5,097.66	64.5652	5,097.66	63.4794	5,097.66	66.8055	5,097.66	64.4542	5,097.66	47.6413
5,277.83	86.7137	5,277.83	86.9734	5,277.83	86.0696	5,277.83	87.1282	5,277.83	87.6548	5,277.83	87.1997	5,277.83	87.2916	5,277.83	82.9072	5,277.83	83.0306	5,277.83	82.8819	5,277.83	85.3516	5,277.83	79.9583	5,277.83	81.7031	5,277.83	80.5508	5,277.83	77.6383	5,277.83	74.9857	5,277.83	70.7187	5,277.83	72.4177	5,277.83	71.3539	5,277.83	70.4447	5,277.83	68.8331	5,277.83	69.0707	5,277.83	72.6683	5,277.83	68.8191	5,277.83	67.239	5,277.83	67.4456	5,277.83	60.148	5,277.83	68.4402	5,277.83	65.2044	5,277.83	67.3931	5,277.83	67.256	5,277.83	64.2492	5,277.83	61.3536	5,277.83	66.3415	5,277.83	67.4816	5,277.83	58.0025
5,463.87	87.5034	5,463.87	87.6719	5,463.87	86.3103	5,463.87	87.2998	5,463.87	86.9521	5,463.87	85.0717	5,463.87	86.898	5,463.87	83.059	5,463.87	80.896	5,463.87	82.6321	5,463.87	84.6647	5,463.87	80.3074	5,463.87	75.7688	5,463.87	78.0459	5,463.87	77.3217	5,463.87	75.2571	5,463.87	71.9	5,463.87	72.1234	5,463.87	74.7204	5,463.87	68.758	5,463.87	70.576	5,463.87	68.5974	5,463.87	70.7538	5,463.87	66.5845	5,463.87	69.4004	5,463.87	68.8294	5,463.87	60.9975	5,463.87	67.9177	5,463.87	66.2153	5,463.87	66.2548	5,463.87	67.6542	5,463.87	64.7152	5,463.87	61.1414	5,463.87	67.5272	5,463.87	66.9248	5,463.87	61.2875
5,657.23	87.5662	5,657.23	88.4753	5,657.23	87.0661	5,657.23	87.0944	5,657.23	87.1282	5,657.23	84.0571	5,657.23	86.2823	5,657.23	84.4127	5,657.23	81.1081	5,657.23	82.012	5,657.23	82.7154	5,657.23	80.7887	5,657.23	74.5374	5,657.23	78.4922	5,657.23	75.0128	5,657.23	78.3093	5,657.23	72.6919	5,657.23	70.9355	5,657.23	71.4755	5,657.23	71.7503	5,657.23	62.8372	5,657.23	65.8671	5,657.23	71.1996	5,657.23	64.9127	5,657.23	68.0788	5,657.23	69.7881	5,657.23	59.1035	5,657.23	69.5866	5,657.23	62.9949	5,657.23	58.4038	5,657.23	67.5632	5,657.23	62.1386	5,657.23	64.8733	5,657.23	68.3504	5,657.23	64.9597	5,657.23	53.1479
5,856.45	87.5161	5,856.45	88.4304	5,856.45	87.04	5,856.45	86.2212	5,856.45	86.8377	5,856.45	84.2414	5,856.45	85.7929	5,856.45	83.8188	5,856.45	83.693	5,856.45	83.2947	5,856.45	79.8101	5,856.45	80.3098	5,856.45	78.9353	5,856.45	79.3867	5,856.45	75.0552	5,856.45	73.4362	5,856.45	75.2874	5,856.45	73.0564	5,856.45	71.0555	5,856.45	68.1935	5,856.45	70.3892	5,856.45	61.3282	5,856.45	72.8554	5,856.45	67.3748	5,856.45	64.7913	5,856.45	69.0682	5,856.45	67.2886	5,856.45	65.8674	5,856.45	58.7897	5,856.45	64.8971	5,856.45	61.9164	5,856.45	65.8769	5,856.45	63.8814	5,856.45	66.8419	5,856.45	66.6736	5,856.45	60.1735
6,062.99	88.1817	6,062.99	87.0084	6,062.99	86.0785	6,062.99	85.6206	6,062.99	86.1251	6,062.99	85.0828	6,062.99	84.7069	6,062.99	83.5106	6,062.99	84.9845	6,062.99	83.3433	6,062.99	80.9055	6,062.99	81.4377	6,062.99	81.1404	6,062.99	77.2311	6,062.99	77.0707	6,062.99	76.8212	6,062.99	77.3351	6,062.99	71.6635	6,062.99	68.2916	6,062.99	65.507	6,062.99	71.9955	6,062.99	66.1136	6,062.99	72.7169	6,062.99	66.5726	6,062.99	69.477	6,062.99	64.2146	6,062.99	65.8674	6,062.99	65.6473	6,062.99	62.8992	6,062.99	66.4026	6,062.99	59.2571	6,062.99	67.2131	6,062.99	63.0748	6,062.99	61.9142	6,062.99	65.2378	6,062.99	63.2574
6,276.86	87.4885	6,276.86	86.4508	6,276.86	85.1644	6,276.86	85.9822	6,276.86	85.1144	6,276.86	85.1958	6,276.86	84.5117	6,276.86	84.9084	6,276.86	85.7045	6,276.86	82.9425	6,276.86	82.639	6,276.86	80.4474	6,276.86	81.4938	6,276.86	79.0164	6,276.86	80.0042	6,276.86	75.2467	6,276.86	76.1785	6,276.86	71.8364	6,276.86	70.4016	6,276.86	65.6541	6,276.86	72.1393	6,276.86	64.2883	6,276.86	71.3304	6,276.86	66.9832	6,276.86	70.2393	6,276.86	64.8467	6,276.86	62.0654	6,276.86	62.8761	6,276.86	61.9656	6,276.86	66.4196	6,276.86	63.5675	6,276.86	65.9288	6,276.86	55.7722	6,276.86	61.7375	6,276.86	65.4809	6,276.86	62.3673
6,498.05	88.1053	6,498.05	87.1177	6,498.05	86.0213	6,498.05	86.4773	6,498.05	85.1293	6,498.05	84.9138	6,498.05	83.8437	6,498.05	84.7128	6,498.05	85.5429	6,498.05	82.9629	6,498.05	82.5001	6,498.05	80.6829	6,498.05	80.2774	6,498.05	76.3856	6,498.05	79.827	6,498.05	70.7207	6,498.05	69.8681	6,498.05	70.4189	6,498.05	71.9677	6,498.05	65.495	6,498.05	70.7311	6,498.05	65.6083	6,498.05	69.3287	6,498.05	62.4246	6,498.05	64.7901	6,498.05	64.8546	6,498.05	63.2833	6,498.05	62.1181	6,498.05	60.9644	6,498.05	63.8637	6,498.05	61.0083	6,498.05	60.3808	6,498.05	59.6561	6,498.05	53.0817	6,498.05	61.9952	6,498.05	59.982
6,726.56	88.6573	6,726.56	87.4807	6,726.56	88.3866	6,726.56	86.207	6,726.56	84.1654	6,726.56	84.9799	6,726.56	84.3502	6,726.56	84.0616	6,726.56	85.2561	6,726.56	82.6451	6,726.56	81.6806	6,726.56	79.1737	6,726.56	79.81	6,726.56	77.062	6,726.56	73.1525	6,726.56	74.1412	6,726.56	68.0983	6,726.56	69.1361	6,726.56	68.3149	6,726.56	65.1391	6,726.56	63.5502	6,726.56	61.2701	6,726.56	64.9121	6,726.56	63.0174	6,726.56	65.9491	6,726.56	65.0222	6,726.56	62.8936	6,726.56	63.242	6,726.56	40.5969	6,726.56	64.7642	6,726.56	59.7051	6,726.56	61.7862	6,726.56	60.588	6,726.56	52.5508	6,726.56	59.9722	6,726.56	58.2128
6,963.87	88.5489	6,963.87	87.3993	6,963.87	89.0762	6,963.87	86.2952	6,963.87	85.085	6,963.87	85.3902	6,963.87	85.2931	6,963.87	84.1725	6,963.87	85.0083	6,963.87	81.6528	6,963.87	79.9184	6,963.87	79.1813	6,963.87	79.2652	6,963.87	74.8813	6,963.87	68.668	6,963.87	70.2936	6,963.87	71.6131	6,963.87	68.9424	6,963.87	58.7086	6,963.87	64.6541	6,963.87	60.7658	6,963.87	60.8461	6,963.87	68.9564	6,963.87	61.7664	6,963.87	62.4518	6,963.87	64.8271	6,963.87	57.9429	6,963.87	62.5968	6,963.87	55.0932	6,963.87	64.4754	6,963.87	51.4255	6,963.87	61.2633	6,963.87	59.6206	6,963.87	46.8822	6,963.87	60.9067	6,963.87	59.4789
7,209.96	87.807	7,209.96	87.4848	7,209.96	87.9836	7,209.96	86.1411	7,209.96	84.2048	7,209.96	84.2352	7,209.96	85.2302	7,209.96	82.8753	7,209.96	83.6464	7,209.96	81.5356	7,209.96	81.3205	7,209.96	78.0696	7,209.96	75.4703	7,209.96	75.4185	7,209.96	75.5194	7,209.96	73.1853	7,209.96	71.2314	7,209.96	68.5606	7,209.96	66.8344	7,209.96	62.9712	7,209.96	65.1597	7,209.96	59.5276	7,209.96	65.6388	7,209.96	62.0711	7,209.96	65.1371	7,209.96	61.1834	7,209.96	60.9817	7,209.96	61.3586	7,209.96	57.5003	7,209.96	63.5354	7,209.96	56.0009	7,209.96	63.3066	7,209.96	56.9316	7,209.96	50.6142	7,209.96	60.8109	7,209.96	57.0647
7,464.84	87.3904	7,464.84	86.8216	7,464.84	86.6314	7,464.84	85.7319	7,464.84	84.3685	7,464.84	84.1299	7,464.84	85.0204	7,464.84	82.4067	7,464.84	81.4126	7,464.84	78.9688	7,464.84	81.2066	7,464.84	78.0095	7,464.84	72.2836	7,464.84	73.4254	7,464.84	77.508	7,464.84	68.4928	7,464.84	71.4443	7,464.84	65.1046	7,464.84	70.9493	7,464.84	60.6522	7,464.84	61.6936	7,464.84	58.9993	7,464.84	67.7362	7,464.84	59.3903	7,464.84	65.1324	7,464.84	58.2322	7,464.84	60.5031	7,464.84	61.4256	7,464.84	54.6714	7,464.84	63.1353	7,464.84	52.9286	7,464.84	61.1824	7,464.84	55.741	7,464.84	58.9831	7,464.84	58.4319	7,464.84	58.629
7,727.05	87.5096	7,727.05	87.1191	7,727.05	85.6797	7,727.05	85.9622	7,727.05	84.4753	7,727.05	82.8892	7,727.05	83.9447	7,727.05	81.2181	7,727.05	80.5915	7,727.05	78.9171	7,727.05	80.112	7,727.05	76.344	7,727.05	75.5753	7,727.05	72.8698	7,727.05	75.8011	7,727.05	70.2432	7,727.05	66.7321	7,727.05	61.7262	7,727.05	63.1237	7,727.05	62.297	7,727.05	59.2274	7,727.05	58.299	7,727.05	68.2956	7,727.05	54.2035	7,727.05	64.3728	7,727.05	59.621	7,727.05	59.7251	7,727.05	59.8931	7,727.05	52.5893	7,727.05	63.4098	7,727.05	55.1571	7,727.05	57.5954	7,727.05	49.9592	7,727.05	60.304	7,727.05	57.4928	7,727.05	55.2738
7,999.51	87.6419	7,999.51	86.7743	7,999.51	87.5058	7,999.51	85.7992	7,999.51	85.4965	7,999.51	83.1171	7,999.51	82.2164	7,999.51	81.4338	7,999.51	81.5376	7,999.51	78.1304	7,999.51	78.1691	7,999.51	75.9681	7,999.51	77.3738	7,999.51	71.1707	7,999.51	65.544	7,999.51	65.7075	7,999.51	67.7045	7,999.51	63.2365	7,999.51	52.6027	7,999.51	60.0867	7,999.51	55.5063	7,999.51	52.5076	7,999.51	63.5309	7,999.51	55.3308	7,999.51	65.758	7,999.51	60.7571	7,999.51	55.2891	7,999.51	59.2406	7,999.51	52.5397	7,999.51	56.4643	7,999.51	57.8167	7,999.51	57.455	7,999.51	51.7636	7,999.51	58.1475	7,999.51	54.7037	7,999.51	44.1271
8,282.23	86.9303	8,282.23	86.2241	8,282.23	88.1318	8,282.23	85.7785	8,282.23	86.6816	8,282.23	83.5154	8,282.23	81.1933	8,282.23	80.6909	8,282.23	82.541	8,282.23	78.6514	8,282.23	78.8411	8,282.23	74.6379	8,282.23	76.1749	8,282.23	71.6669	8,282.23	69.552	8,282.23	66.8196	8,282.23	69.4237	8,282.23	63.3238	8,282.23	60.3256	8,282.23	57.2563	8,282.23	59.2792	8,282.23	48.2418	8,282.23	64.3447	8,282.23	55.5261	8,282.23	64.6517	8,282.23	61.5941	8,282.23	60.7622	8,282.23	59.3038	8,282.23	50.3854	8,282.23	54.9095	8,282.23	56.5021	8,282.23	45.1521	8,282.23	54.7676	8,282.23	44.9202	8,282.23	50.0222	8,282.23	53.8916
8,573.73	86.7102	8,573.73	86.7416	8,573.73	87.7153	8,573.73	85.7451	8,573.73	86.1811	8,573.73	82.6669	8,573.73	81.9294	8,573.73	81.0156	8,573.73	82.6473	8,573.73	77.4877	8,573.73	79.8332	8,573.73	74.7391	8,573.73	73.0314	8,573.73	68.6825	8,573.73	73.1607	8,573.73	64.5608	8,573.73	67.212	8,573.73	61.8921	8,573.73	55.3781	8,573.73	52.4705	8,573.73	58.302	8,573.73	56.1097	8,573.73	67.3464	8,573.73	54.2981	8,573.73	64.9465	8,573.73	53.6038	8,573.73	61.8415	8,573.73	55.5154	8,573.73	48.7548	8,573.73	57.7975	8,573.73	46.1345	8,573.73	41.5379	8,573.73	55.4094	8,573.73	53.2779	8,573.73	49.1963	8,573.73	53.0602
8,876.95	86.6768	8,876.95	86.4751	8,876.95	85.6015	8,876.95	85.5982	8,876.95	85.4992	8,876.95	82.7716	8,876.95	82.9719	8,876.95	80.6104	8,876.95	82.4214	8,876.95	76.9144	8,876.95	78.8662	8,876.95	73.6233	8,876.95	71.4617	8,876.95	68.4376	8,876.95	71.5872	8,876.95	63.1549	8,876.95	63.0923	8,876.95	57.758	8,876.95	49.8432	8,876.95	53.4769	8,876.95	57.2714	8,876.95	49.6384	8,876.95	68.0722	8,876.95	48.7586	8,876.95	66.3181	8,876.95	42.6185	8,876.95	59.7476	8,876.95	48.804	8,876.95	43.5683	8,876.95	58.3611	8,876.95	48.5658	8,876.95	48.0942	8,876.95	52.6213	8,876.95	54.3939	8,876.95	49.7584	8,876.95	46.25
9,188.96	86.4878	9,188.96	86.2402	9,188.96	85.4925	9,188.96	85.1171	9,188.96	84.4699	9,188.96	82.4376	9,188.96	83.2529	9,188.96	79.8063	9,188.96	80.5261	9,188.96	75.8246	9,188.96	78.6527	9,188.96	72.4635	9,188.96	73.5932	9,188.96	65.4235	9,188.96	68.2465	9,188.96	62.3624	9,188.96	63.9272	9,188.96	50.2087	9,188.96	57.353	9,188.96	55.6607	9,188.96	61.338	9,188.96	44.0946	9,188.96	66.5609	9,188.96	48.8492	9,188.96	67.1682	9,188.96	49.9127	9,188.96	58.396	9,188.96	49.4646	9,188.96	54.184	9,188.96	57.0674	9,188.96	49.0205	9,188.96	52.3207	9,188.96	46.0924	9,188.96	50.2397	9,188.96	45.9628	9,188.96	36.6465
9,514.16	87.2262	9,514.16	86.6032	9,514.16	87.3694	9,514.16	85.4899	9,514.16	84.1778	9,514.16	82.4092	9,514.16	83.4757	9,514.16	79.0617	9,514.16	78.9174	9,514.16	74.9777	9,514.16	76.722	9,514.16	69.8861	9,514.16	72.3142	9,514.16	61.9633	9,514.16	65.7827	9,514.16	55.0728	9,514.16	63.6293	9,514.16	53.194	9,514.16	58.87	9,514.16	49.6296	9,514.16	50.03	9,514.16	44.4532	9,514.16	64.0205	9,514.16	48.4731	9,514.16	65.3443	9,514.16	52.8827	9,514.16	56.4272	9,514.16	48.3055	9,514.16	49.0362	9,514.16	54.2365	9,514.16	48.1626	9,514.16	46.6755	9,514.16	43.005	9,514.16	45.3192	9,514.16	35.8691	9,514.16	34.4441
9,849.61	87.4382	9,849.61	86.4613	9,849.61	87.62	9,849.61	85.0924	9,849.61	85.0068	9,849.61	82.1576	9,849.61	83.0346	9,849.61	78.8852	9,849.61	78.9726	9,849.61	73.0272	9,849.61	76.5522	9,849.61	68.3299	9,849.61	69.5948	9,849.61	55.5965	9,849.61	63.2568	9,849.61	45.4914	9,849.61	60.2659	9,849.61	52.7825	9,849.61	57.4493	9,849.61	46.9066	9,849.61	57.9429	9,849.61	40.4198	9,849.61	64.9159	9,849.61	46.9367	9,849.61	67.4532	9,849.61	48.7755	9,849.61	58.929	9,849.61	50.6199	9,849.61	49.4653	9,849.61	51.0299	9,849.61	41.4754	9,849.61	44.6577	9,849.61	44.9982	9,849.61	31.7073	9,849.61	42.9093	9,849.61	39.3853
10,196.8	86.978	10,196.8	87.1882	10,196.8	86.7952	10,196.8	85.5689	10,196.8	85.9462	10,196.8	81.9827	10,196.8	82.2252	10,196.8	78.5118	10,196.8	79.2587	10,196.8	72.1388	10,196.8	74.8441	10,196.8	66.2378	10,196.8	67.3435	10,196.8	46.9689	10,196.8	61.6943	10,196.8	50.0143	10,196.8	57.535	10,196.8	45.0319	10,196.8	56.8686	10,196.8	49.3716	10,196.8	61.6068	10,196.8	47.6967	10,196.8	66.5425	10,196.8	52.6479	10,196.8	67.8726	10,196.8	53.1321	10,196.8	60.4452	10,196.8	49.1926	10,196.8	51.4713	10,196.8	47.6211	10,196.8	33.8339	10,196.8	39.7192	10,196.8	49.1296	10,196.8	44.0156	10,196.8	48.1235	10,196.8	45.4389
10,555.7	87.6029	10,555.7	87.0202	10,555.7	86.9462	10,555.7	85.4495	10,555.7	86.1656	10,555.7	81.5857	10,555.7	81.1838	10,555.7	78.2567	10,555.7	79.4741	10,555.7	71.4393	10,555.7	73.6801	10,555.7	62.8105	10,555.7	64.5072	10,555.7	53.1829	10,555.7	62.8246	10,555.7	57.7735	10,555.7	60.7628	10,555.7	56.4348	10,555.7	60.7185	10,555.7	51.2486	10,555.7	63.224	10,555.7	46.3985	10,555.7	67.8291	10,555.7	49.0284	10,555.7	68.5229	10,555.7	52.7933	10,555.7	61.1233	10,555.7	52.5618	10,555.7	51.0647	10,555.7	49.0587	10,555.7	45.52	10,555.7	48.2564	10,555.7	48.2364	10,555.7	49.0888	10,555.7	47.9063	10,555.7	47.5405
10,927.7	88.3033	10,927.7	87.3018	10,927.7	87.5699	10,927.7	85.8336	10,927.7	85.5735	10,927.7	81.5023	10,927.7	81.1969	10,927.7	77.9413	10,927.7	78.3306	10,927.7	69.7082	10,927.7	73.0116	10,927.7	60.0325	10,927.7	62.7049	10,927.7	59.2108	10,927.7	63.0088	10,927.7	58.4576	10,927.7	61.5484	10,927.7	57.1778	10,927.7	64.0103	10,927.7	49.5897	10,927.7	65.8136	10,927.7	43.7017	10,927.7	68.4136	10,927.7	52.3608	10,927.7	68.7189	10,927.7	52.9094	10,927.7	61.4353	10,927.7	53.0272	10,927.7	54.1322	10,927.7	51.7691	10,927.7	46.7773	10,927.7	49.033	10,927.7	51.746	10,927.7	47.3831	10,927.7	50.1204	10,927.7	46.2948
11,313	88.2483	11,313	87.5453	11,313	88.1244	11,313	85.8476	11,313	85.1608	11,313	81.3689	11,313	81.9378	11,313	77.4332	11,313	77.066	11,313	67.974	11,313	71.7212	11,313	57.6739	11,313	62.6782	11,313	61.4783	11,313	61.0305	11,313	58.3784	11,313	65.3553	11,313	56.4047	11,313	66.3096	11,313	53.4957	11,313	66.1549	11,313	48.5991	11,313	69.4781	11,313	49.8135	11,313	69.8609	11,313	54.6628	11,313	62.3765	11,313	53.7749	11,313	47.8733	11,313	54.5639	11,313	44.9203	11,313	50.9255	11,313	51.8321	11,313	51.6255	11,313	50.7824	11,313	47.8931
11,712.9	88.4257	11,712.9	87.6775	11,712.9	88.0114	11,712.9	85.796	11,712.9	85.2072	11,712.9	80.7847	11,712.9	81.9542	11,712.9	75.7852	11,712.9	75.9015	11,712.9	65.3086	11,712.9	68.8043	11,712.9	61.5428	11,712.9	65.0049	11,712.9	64.2622	11,712.9	66.1907	11,712.9	62.2784	11,712.9	66.4308	11,712.9	60.0067	11,712.9	67.0073	11,712.9	54.2006	11,712.9	67.458	11,712.9	50.2107	11,712.9	70.2333	11,712.9	52.7564	11,712.9	70.5957	11,712.9	56.2669	11,712.9	61.7034	11,712.9	55.8577	11,712.9	52.1837	11,712.9	56.1952	11,712.9	39.5756	11,712.9	50.892	11,712.9	36.764	11,712.9	46.49	11,712.9	52.6312	11,712.9	44.215
12,126	88.2309	12,126	87.6676	12,126	87.8355	12,126	85.4045	12,126	85.2361	12,126	80.5554	12,126	81.5071	12,126	73.9497	12,126	74.729	12,126	60.9696	12,126	69.7206	12,126	67.0264	12,126	66.7876	12,126	65.9002	12,126	68.4926	12,126	63.9605	12,126	65.3492	12,126	59.4635	12,126	69.1092	12,126	53.6499	12,126	69.394	12,126	46.0111	12,126	70.9375	12,126	51.4036	12,126	71.1839	12,126	55.4765	12,126	63.4875	12,126	56.6365	12,126	41.594	12,126	56.1928	12,126	45.6818	12,126	51.1274	12,126	55.233	12,126	55.4604	12,126	49.9473	12,126	54.8571
12,553.7	88.2513	12,553.7	87.7625	12,553.7	87.9786	12,553.7	85.0953	12,553.7	84.9309	12,553.7	79.5742	12,553.7	81.0443	12,553.7	72.1275	12,553.7	74.1269	12,553.7	63.311	12,553.7	69.6966	12,553.7	66.9831	12,553.7	69.1877	12,553.7	66.0908	12,553.7	65.0971	12,553.7	62.6202	12,553.7	69.6122	12,553.7	58.3564	12,553.7	68.9929	12,553.7	56.4716	12,553.7	69.3956	12,553.7	45.5102	12,553.7	71.8822	12,553.7	50.5802	12,553.7	72.1007	12,553.7	55.9273	12,553.7	64.1516	12,553.7	56.4083	12,553.7	51.6186	12,553.7	55.7305	12,553.7	49.9536	12,553.7	52.8738	12,553.7	57.4795	12,553.7	51.5572	12,553.7	54.3044	12,553.7	51.906
12,996.1	88.2416	12,996.1	87.7107	12,996.1	88.0864	12,996.1	84.8698	12,996.1	85.0008	12,996.1	78.9977	12,996.1	80.4245	12,996.1	71.2656	12,996.1	73.0069	12,996.1	65.3969	12,996.1	66.6047	12,996.1	66.9115	12,996.1	71.1811	12,996.1	66.6551	12,996.1	65.5343	12,996.1	64.0986	12,996.1	68.235	12,996.1	60.273	12,996.1	70.8092	12,996.1	55.5209	12,996.1	70.8749	12,996.1	45.8012	12,996.1	72.9344	12,996.1	56.1924	12,996.1	72.8017	12,996.1	57.6497	12,996.1	63.005	12,996.1	56.2352	12,996.1	55.4431	12,996.1	53.5321	12,996.1	53.4139	12,996.1	53.1767	12,996.1	50.269	12,996.1	57.1948	12,996.1	45.9019	12,996.1	46.6179
13,454.6	88.5542	13,454.6	87.4193	13,454.6	87.6456	13,454.6	84.8809	13,454.6	84.7833	13,454.6	78.3668	13,454.6	79.0723	13,454.6	70.9736	13,454.6	71.8652	13,454.6	64.9694	13,454.6	69.6896	13,454.6	68.1515	13,454.6	67.3199	13,454.6	66.4079	13,454.6	68.4039	13,454.6	62.9626	13,454.6	67.9259	13,454.6	59.2462	13,454.6	70.8688	13,454.6	55.0634	13,454.6	71.2756	13,454.6	49.27	13,454.6	72.8753	13,454.6	54.7664	13,454.6	73.013	13,454.6	56.3584	13,454.6	63.8027	13,454.6	55.401	13,454.6	52.2585	13,454.6	53.1068	13,454.6	43.2807	13,454.6	51.5209	13,454.6	49.0665	13,454.6	54.6582	13,454.6	31.9413	13,454.6	46.9753
13,929.2	88.8515	13,929.2	87.5807	13,929.2	87.7986	13,929.2	85.1098	13,929.2	84.8854	13,929.2	77.7401	13,929.2	79.3139	13,929.2	71.9501	13,929.2	73.2323	13,929.2	65.8611	13,929.2	66.8845	13,929.2	67.5413	13,929.2	68.1782	13,929.2	65.6088	13,929.2	68.8825	13,929.2	62.32	13,929.2	68.1248	13,929.2	58.2338	13,929.2	70.9489	13,929.2	51.5783	13,929.2	71.0606	13,929.2	43.4309	13,929.2	73.136	13,929.2	55.6731	13,929.2	73.153	13,929.2	55.6141	13,929.2	64.396	13,929.2	54.8816	13,929.2	57.8988	13,929.2	55.2691	13,929.2	48.5622	13,929.2	56.5812	13,929.2	44.487	13,929.2	53.1879	13,929.2	48.5786	13,929.2	41.8369
14,419.9	88.999	14,419.9	87.6571	14,419.9	87.9009	14,419.9	85.1268	14,419.9	84.6497	14,419.9	77.7302	14,419.9	78.4884	14,419.9	72.2054	14,419.9	68.6743	14,419.9	65.2857	14,419.9	67.3734	14,419.9	67.6762	14,419.9	69.2801	14,419.9	63.8696	14,419.9	68.4171	14,419.9	61.9896	14,419.9	67.2426	14,419.9	57.9606	14,419.9	70.8424	14,419.9	53.9929	14,419.9	71.0876	14,419.9	46.0165	14,419.9	73.4108	14,419.9	56.5928	14,419.9	73.2532	14,419.9	53.2006	14,419.9	64.5163	14,419.9	52.8882	14,419.9	53.1978	14,419.9	51.6489	14,419.9	41.8866	14,419.9	53.8673	14,419.9	50.7379	14,419.9	54.165	14,419.9	49.4193	14,419.9	39.3047
14,928.2	88.9454	14,928.2	87.9606	14,928.2	88.033	14,928.2	85.3018	14,928.2	84.4977	14,928.2	78.2412	14,928.2	78.8729	14,928.2	71.1088	14,928.2	70.9509	14,928.2	63.0708	14,928.2	68.008	14,928.2	68.911	14,928.2	67.1762	14,928.2	67.1281	14,928.2	69.0704	14,928.2	64.027	14,928.2	66.0356	14,928.2	59.175	14,928.2	69.6752	14,928.2	57.4892	14,928.2	71.0616	14,928.2	48.0562	14,928.2	73.0919	14,928.2	55.4238	14,928.2	73.0954	14,928.2	55.5278	14,928.2	63.8372	14,928.2	50.5708	14,928.2	55.9592	14,928.2	52.4652	14,928.2	36.9182	14,928.2	54.0796	14,928.2	43.4527	14,928.2	52.7823	14,928.2	46.4412	14,928.2	47.1914
15,455.6	88.7381	15,455.6	87.8389	15,455.6	88.1016	15,455.6	85.1539	15,455.6	84.797	15,455.6	78.5419	15,455.6	77.2126	15,455.6	68.1478	15,455.6	68.1348	15,455.6	61.0434	15,455.6	66.7236	15,455.6	70.1507	15,455.6	65.483	15,455.6	68.4874	15,455.6	66.0447	15,455.6	64.4394	15,455.6	64.6981	15,455.6	60.0241	15,455.6	68.8868	15,455.6	58.6384	15,455.6	70.8616	15,455.6	48.9769	15,455.6	72.9296	15,455.6	53.5273	15,455.6	72.6771	15,455.6	51.9298	15,455.6	64.4184	15,455.6	52.1526	15,455.6	53.8087	15,455.6	54.7651	15,455.6	42.7532	15,455.6	53.0001	15,455.6	48.9575	15,455.6	53.799	15,455.6	46.9639	15,455.6	38.9746
16,000.5	88.6114	16,000.5	87.8646	16,000.5	87.8649	16,000.5	84.9893	16,000.5	84.0993	16,000.5	78.3219	16,000.5	77.4748	16,000.5	64.8946	16,000.5	66.609	16,000.5	60.742	16,000.5	63.0664	16,000.5	71.2003	16,000.5	65.9563	16,000.5	68.9739	16,000.5	63.8406	16,000.5	65.8599	16,000.5	64.6461	16,000.5	60.8094	16,000.5	66.7784	16,000.5	58.8977	16,000.5	69.6933	16,000.5	49.2656	16,000.5	71.8064	16,000.5	53.0486	16,000.5	71.24	16,000.5	54.079	16,000.5	62.9049	16,000.5	50.1888	16,000.5	54.6687	16,000.5	52.8312	16,000.5	42.0488	16,000.5	46.6333	16,000.5	23.905	16,000.5	55.3669	16,000.5	48.2592	16,000.5	34.4784
16,564.5	88.2423	16,564.5	87.6758	16,564.5	87.0437	16,564.5	84.6469	16,564.5	82.6245	16,564.5	77.0475	16,564.5	76.4583	16,564.5	58.619	16,564.5	61.0196	16,564.5	63.5769	16,564.5	50.503	16,564.5	71.235	16,564.5	64.0555	16,564.5	70.4157	16,564.5	62.5836	16,564.5	65.0422	16,564.5	63.6353	16,564.5	60.2839	16,564.5	66.5116	16,564.5	58.2638	16,564.5	70.2823	16,564.5	51.0737	16,564.5	71.6007	16,564.5	48.8204	16,564.5	70.2067	16,564.5	53.3099	16,564.5	60.592	16,564.5	49.4913	16,564.5	51.8951	16,564.5	52.5647	16,564.5	41.4668	16,564.5	47.1386	16,564.5	46.2431	16,564.5	49.4549	16,564.5	45.2865	16,564.5	44.0824
17,148.9	87.7634	17,148.9	86.8136	17,148.9	86.1319	17,148.9	83.3717	17,148.9	81.162	17,148.9	75.0045	17,148.9	74.251	17,148.9	45.5464	17,148.9	59.7104	17,148.9	65.3994	17,148.9	60.1378	17,148.9	69.9702	17,148.9	65.1462	17,148.9	69.1565	17,148.9	61.0632	17,148.9	63.565	17,148.9	62.9882	17,148.9	59.7676	17,148.9	67.121	17,148.9	54.9805	17,148.9	70.5447	17,148.9	52.7201	17,148.9	71.2151	17,148.9	43.7529	17,148.9	68.8439	17,148.9	54.5666	17,148.9	59.706	17,148.9	50.054	17,148.9	49.9777	17,148.9	51.5317	17,148.9	44.5184	17,148.9	36.6077	17,148.9	46.4627	17,148.9	51.7916	17,148.9	37.4571	17,148.9	46.6437
17,752.4	87.273	17,752.4	85.9544	17,752.4	84.9172	17,752.4	82.0512	17,752.4	79.9544	17,752.4	73.2035	17,752.4	72.5062	17,752.4	58.0787	17,752.4	63.2572	17,752.4	66.2311	17,752.4	65.4553	17,752.4	69.0393	17,752.4	66.1588	17,752.4	66.4655	17,752.4	63.7428	17,752.4	61.918	17,752.4	63.3948	17,752.4	59.1796	17,752.4	68.1635	17,752.4	48.9036	17,752.4	70.3437	17,752.4	54.8427	17,752.4	70.6701	17,752.4	26.1072	17,752.4	67.6021	17,752.4	54.552	17,752.4	56.157	17,752.4	52.8073	17,752.4	45.2172	17,752.4	47.3174	17,752.4	32.3781	17,752.4	50.9198	17,752.4	47.9732	17,752.4	50.738	17,752.4	38.1008	17,752.4	46.8275
18,379.4	86.2285	18,379.4	85.2178	18,379.4	84.2142	18,379.4	81.3211	18,379.4	78.2842	18,379.4	71.5806	18,379.4	69.2434	18,379.4	63.4013	18,379.4	64.1024	18,379.4	68.1581	18,379.4	66.4997	18,379.4	68.7509	18,379.4	64.8969	18,379.4	66.4634	18,379.4	64.6785	18,379.4	60.3733	18,379.4	61.8769	18,379.4	59.9633	18,379.4	67.8435	18,379.4	49.6516	18,379.4	69.6014	18,379.4	54.4607	18,379.4	69.6679	18,379.4	32.0589	18,379.4	66.5366	18,379.4	56.6971	18,379.4	54.4356	18,379.4	54.9047	18,379.4	50.0261	18,379.4	50.5788	18,379.4	43.1857	18,379.4	48.4696	18,379.4	37.7626	18,379.4	53.0801	18,379.4	35.065	18,379.4	50.7942
19,026.9	85.7579	19,026.9	84.4798	19,026.9	83.1767	19,026.9	79.8682	19,026.9	76.0982	19,026.9	69.6085	19,026.9	66.6153	19,026.9	65.7813	19,026.9	64.9363	19,026.9	67.1225	19,026.9	67.3368	19,026.9	68.0012	19,026.9	63.6229	19,026.9	64.6356	19,026.9	61.629	19,026.9	58.7105	19,026.9	61.1043	19,026.9	55.2934	19,026.9	66.3282	19,026.9	47.8912	19,026.9	68.0102	19,026.9	51.0811	19,026.9	68.105	19,026.9	34.7083	19,026.9	64.8841	19,026.9	47.5999	19,026.9	53.7753	19,026.9	50.4421	19,026.9	43.2411	19,026.9	47.1649	19,026.9	32.8392	19,026.9	47.6946	19,026.9	34.79	19,026.9	47.4167	19,026.9	44.3218	19,026.9	49.1867
19,697.8	85.1733	19,697.8	83.7048	19,697.8	83.5897	19,697.8	78.4666	19,697.8	75.9428	19,697.8	65.9819	19,697.8	66.602	19,697.8	67.6299	19,697.8	68.3366	19,697.8	68.2347	19,697.8	67.5139	19,697.8	67.5777	19,697.8	62.8841	19,697.8	61.8226	19,697.8	60.2617	19,697.8	54.8978	19,697.8	58.4757	19,697.8	52.631	19,697.8	64.4717	19,697.8	28.5049	19,697.8	66.5997	19,697.8	49.8165	19,697.8	66.241	19,697.8	37.6982	19,697.8	63.3225	19,697.8	46.8312	19,697.8	51.3046	19,697.8	50.1781	19,697.8	43.8933	19,697.8	41.8086	19,697.8	38.6894	19,697.8	51.2413	19,697.8	39.6907	19,697.8	41.8904	19,697.8	35.6756	19,697.8	39.5965
19,999.5	85.1442	19,999.5	83.3335	19,999.5	83.2562	19,999.5	77.6475	19,999.5	75.5761	19,999.5	64.5947	19,999.5	66.8775	19,999.5	68.3896	19,999.5	68.3196	19,999.5	68.1338	19,999.5	68.533	19,999.5	66.4916	19,999.5	64.089	19,999.5	59.0815	19,999.5	59.1904	19,999.5	51.4581	19,999.5	59.4105	19,999.5	49.6252	19,999.5	63.837	19,999.5	38.4391	19,999.5	66.4684	19,999.5	48.6324	19,999.5	65.7914	19,999.5	47.308	19,999.5	62.499	19,999.5	48.1329	19,999.5	51.2783	19,999.5	47.5436	19,999.5	43.0648	19,999.5	44.3753	19,999.5	40.8617	19,999.5	48.3202	19,999.5	48.2525	19,999.5	39.8701	19,999.5	50.3045	19,999.5	40.5361
