"SPL Horizontal"
"On-Axis"		"10°"		"-10°"		"20°"		"-20°"		"30°"		"-30°"		"40°"		"-40°"		"50°"		"-50°"		"60°"		"-60°"		"70°"		"-70°"		"80°"		"-80°"		"90°"		"-90°"		"100°"		"-100°"		"110°"		"-110°"		"120°"		"-120°"		"130°"		"-130°"		"140°"		"-140°"		"150°"		"-150°"		"160°"		"-160°"		"170°"		"-170°"		"180°"
"Frequency / Hz"	"Sound Pressure Level / dB (re 20 µPa/V)  [2.83  V @ 1. m]"	"Frequency / Hz"	"Sound Pressure Level / dB (re 20 µPa/V)  [2.83  V @ 1. m]"	"Frequency / Hz"	"Sound Pressure Level / dB (re 20 µPa/V)  [2.83  V @ 1. m]"	"Frequency / Hz"	"Sound Pressure Level / dB (re 20 µPa/V)  [2.83  V @ 1. m]"	"Frequency / Hz"	"Sound Pressure Level / dB (re 20 µPa/V)  [2.83  V @ 1. m]"	"Frequency / Hz"	"Sound Pressure Level / dB (re 20 µPa/V)  [2.83  V @ 1. m]"	"Frequency / Hz"	"Sound Pressure Level / dB (re 20 µPa/V)  [2.83  V @ 1. m]"	"Frequency / Hz"	"Sound Pressure Level / dB (re 20 µPa/V)  [2.83  V @ 1. m]"	"Frequency / Hz"	"Sound Pressure Level / dB (re 20 µPa/V)  [2.83  V @ 1. m]"	"Frequency / Hz"	"Sound Pressure Level / dB (re 20 µPa/V)  [2.83  V @ 1. m]"	"Frequency / Hz"	"Sound Pressure Level / dB (re 20 µPa/V)  [2.83  V @ 1. m]"	"Frequency / Hz"	"Sound Pressure Level / dB (re 20 µPa/V)  [2.83  V @ 1. m]"	"Frequency / Hz"	"Sound Pressure Level / dB (re 20 µPa/V)  [2.83  V @ 1. m]"	"Frequency / Hz"	"Sound Pressure Level / dB (re 20 µPa/V)  [2.83  V @ 1. m]"	"Frequency / Hz"	"Sound Pressure Level / dB (re 20 µPa/V)  [2.83  V @ 1. m]"	"Frequency / Hz"	"Sound Pressure Level / dB (re 20 µPa/V)  [2.83  V @ 1. m]"	"Frequency / Hz"	"Sound Pressure Level / dB (re 20 µPa/V)  [2.83  V @ 1. m]"	"Frequency / Hz"	"Sound Pressure Level / dB (re 20 µPa/V)  [2.83  V @ 1. m]"	"Frequency / Hz"	"Sound Pressure Level / dB (re 20 µPa/V)  [2.83  V @ 1. m]"	"Frequency / Hz"	"Sound Pressure Level / dB (re 20 µPa/V)  [2.83  V @ 1. m]"	"Frequency / Hz"	"Sound Pressure Level / dB (re 20 µPa/V)  [2.83  V @ 1. m]"	"Frequency / Hz"	"Sound Pressure Level / dB (re 20 µPa/V)  [2.83  V @ 1. m]"	"Frequency / Hz"	"Sound Pressure Level / dB (re 20 µPa/V)  [2.83  V @ 1. m]"	"Frequency / Hz"	"Sound Pressure Level / dB (re 20 µPa/V)  [2.83  V @ 1. m]"	"Frequency / Hz"	"Sound Pressure Level / dB (re 20 µPa/V)  [2.83  V @ 1. m]"	"Frequency / Hz"	"Sound Pressure Level / dB (re 20 µPa/V)  [2.83  V @ 1. m]"	"Frequency / Hz"	"Sound Pressure Level / dB (re 20 µPa/V)  [2.83  V @ 1. m]"	"Frequency / Hz"	"Sound Pressure Level / dB (re 20 µPa/V)  [2.83  V @ 1. m]"	"Frequency / Hz"	"Sound Pressure Level / dB (re 20 µPa/V)  [2.83  V @ 1. m]"	"Frequency / Hz"	"Sound Pressure Level / dB (re 20 µPa/V)  [2.83  V @ 1. m]"	"Frequency / Hz"	"Sound Pressure Level / dB (re 20 µPa/V)  [2.83  V @ 1. m]"	"Frequency / Hz"	"Sound Pressure Level / dB (re 20 µPa/V)  [2.83  V @ 1. m]"	"Frequency / Hz"	"Sound Pressure Level / dB (re 20 µPa/V)  [2.83  V @ 1. m]"	"Frequency / Hz"	"Sound Pressure Level / dB (re 20 µPa/V)  [2.83  V @ 1. m]"	"Frequency / Hz"	"Sound Pressure Level / dB (re 20 µPa/V)  [2.83  V @ 1. m]"	"Frequency / Hz"	"Sound Pressure Level / dB (re 20 µPa/V)  [2.83  V @ 1. m]"
20.5078	59.45	20.5078	59.2866	20.5078	59.4995	20.5078	59.0119	20.5078	59.4375	20.5078	58.6368	20.5078	59.2703	20.5078	58.1885	20.5078	59.0103	20.5078	57.7228	20.5078	58.6807	20.5078	57.3368	20.5078	58.325	20.5078	57.1668	20.5078	58.0198	20.5078	57.3413	20.5078	57.8793	20.5078	57.9021	20.5078	58.0302	20.5078	58.7706	20.5078	58.5423	20.5078	59.8038	20.5078	59.3704	20.5078	60.8675	20.5078	60.3791	20.5078	61.8656	20.5078	61.4185	20.5078	62.736	20.5078	62.3743	20.5078	63.4387	20.5078	63.1739	20.5078	63.9471	20.5078	63.7764	20.5078	64.2434	20.5078	64.1602	20.5078	64.3163
21.9727	62.2399	21.9727	62.1782	21.9727	62.196	21.9727	62.0144	21.9727	62.0456	21.9727	61.7554	21.9727	61.7907	21.9727	61.4151	21.9727	61.4395	21.9727	61.0203	21.9727	61.0124	21.9727	60.6193	21.9727	60.5545	21.9727	60.2903	21.9727	60.1493	21.9727	60.1376	21.9727	59.9249	21.9727	60.2619	21.9727	60.0184	21.9727	60.7061	21.9727	60.4938	21.9727	61.4218	21.9727	61.2856	21.9727	62.2958	21.9727	62.2423	21.9727	63.2045	21.9727	63.213	21.9727	64.0489	21.9727	64.0905	21.9727	64.761	21.9727	64.811	21.9727	65.298	21.9727	65.3393	21.9727	65.6342	21.9727	65.657	21.9727	65.7557
23.4375	63.3653	23.4375	63.2722	23.4375	63.3638	23.4375	63.0872	23.4375	63.2699	23.4375	62.82	23.4375	63.092	23.4375	62.4914	23.4375	62.847	23.4375	62.14	23.4375	62.5658	23.4375	61.8302	23.4375	62.3004	23.4375	61.6537	23.4375	62.1273	23.4375	61.7104	23.4375	62.1379	23.4375	62.0642	23.4375	62.406	23.4375	62.7014	23.4375	62.9452	23.4375	63.5359	23.4375	63.6956	23.4375	64.4541	23.4375	64.5544	23.4375	65.3554	23.4375	65.4182	23.4375	66.166	23.4375	66.206	23.4375	66.8365	23.4375	66.8621	23.4375	67.3353	23.4375	67.3508	23.4375	67.643	23.4375	67.6504	23.4375	67.7491
24.9023	64.473	24.9023	64.3813	24.9023	64.4818	24.9023	64.2094	24.9023	64.4108	24.9023	63.9671	24.9023	64.2686	24.9023	63.6753	24.9023	64.0726	24.9023	63.3717	24.9023	63.8522	24.9023	63.1172	24.9023	63.6543	24.9023	62.9947	24.9023	63.5443	24.9023	63.0905	24.9023	63.597	24.9023	63.4571	24.9023	63.8709	24.9023	64.0793	24.9023	64.3778	24.9023	64.8804	24.9023	65.0713	24.9023	65.7584	24.9023	65.8675	24.9023	66.6208	24.9023	66.6762	24.9023	67.3977	24.9023	67.4219	24.9023	68.041	24.9023	68.0492	24.9023	68.5193	24.9023	68.5207	24.9023	68.813	24.9023	68.8126	24.9023	68.9117
26.3672	65.884	26.3672	65.8239	26.3672	65.8823	26.3672	65.7078	26.3672	65.8192	26.3672	65.5497	26.3672	65.702	26.3672	65.3732	26.3672	65.5465	26.3672	65.2148	26.3672	65.3804	26.3672	65.124	26.3672	65.246	26.3672	65.1574	26.3672	65.1997	26.3672	65.3637	26.3672	65.3023	26.3672	65.763	26.3672	65.5991	26.3672	66.3356	26.3672	66.0964	26.3672	67.0284	26.3672	66.7547	26.3672	67.7728	26.3672	67.5034	26.3672	68.503	26.3672	68.2647	26.3672	69.1638	26.3672	68.9707	26.3672	69.713	26.3672	69.5699	26.3672	70.12	26.3672	70.0264	26.3672	70.3635	26.3672	70.3175	26.3672	70.4309
27.832	67.3179	27.832	67.3002	27.832	67.2887	27.832	67.2389	27.832	67.2154	27.832	67.144	27.832	67.1075	27.832	67.0334	27.832	66.9826	27.832	66.9348	27.832	66.8683	27.832	66.8853	27.832	66.8022	27.832	66.9278	27.832	66.8293	27.832	67.102	27.832	66.9924	27.832	67.4301	27.832	67.3172	27.832	67.9065	27.832	67.7997	27.832	68.497	27.832	68.4047	27.832	69.1489	27.832	69.0761	27.832	69.8047	27.832	69.7523	27.832	70.4117	27.832	70.3775	27.832	70.9267	27.832	70.9066	27.832	71.317	27.832	71.3066	27.832	71.5597	27.832	71.5554	27.832	71.6409
29.2969	69.1517	29.2969	69.1149	29.2969	69.1459	29.2969	69.0379	29.2969	69.0997	29.2969	68.9291	29.2969	69.0205	29.2969	68.8031	29.2969	68.9217	29.2969	68.6829	29.2969	68.8242	29.2969	68.6	29.2969	68.7564	29.2969	68.5923	29.2969	68.7532	29.2969	68.6971	29.2969	68.8504	29.2969	68.9399	29.2969	69.0747	29.2969	69.3236	29.2969	69.4332	29.2969	69.8241	29.2969	69.9077	29.2969	70.3971	29.2969	70.458	29.2969	70.9889	29.2969	71.0323	29.2969	71.5473	29.2969	71.5779	29.2969	72.0279	29.2969	72.049	29.2969	72.3961	29.2969	72.4096	29.2969	72.6278	29.2969	72.6344	29.2969	72.7088
30.7617	70.0726	30.7617	70.0499	30.7617	70.0616	30.7617	69.9966	30.7617	70.0191	30.7617	69.9206	30.7617	69.9522	30.7617	69.8361	30.7617	69.8741	30.7617	69.7643	30.7617	69.8045	30.7617	69.7328	30.7617	69.7699	30.7617	69.7735	30.7617	69.8017	30.7617	69.9159	30.7617	69.9304	30.7617	70.1787	30.7617	70.1774	30.7617	70.5617	30.7617	70.5457	30.7617	71.0431	30.7617	71.0168	30.7617	71.5843	30.7617	71.5535	30.7617	72.1386	30.7617	72.1088	30.7617	72.6599	30.7617	72.6347	30.7617	73.1078	30.7617	73.0888	30.7617	73.4499	30.7617	73.4376	30.7617	73.6633	30.7617	73.6573	30.7617	73.7341
32.2266	71.0472	32.2266	71.0269	32.2266	71.0431	32.2266	70.9845	32.2266	71.0167	32.2266	70.9272	32.2266	70.9751	32.2266	70.8677	32.2266	70.9302	32.2266	70.8242	32.2266	70.8997	32.2266	70.8206	32.2266	70.9063	32.2266	70.8836	32.2266	70.9753	32.2266	71.0375	32.2266	71.1304	32.2266	71.2978	32.2266	71.3867	32.2266	71.664	32.2266	71.745	32.2266	72.1179	32.2266	72.1889	32.2266	72.6265	32.2266	72.6869	32.2266	73.1486	32.2266	73.1989	32.2266	73.6421	32.2266	73.6829	32.2266	74.0689	32.2266	74.1003	32.2266	74.3981	32.2266	74.4196	32.2266	74.6071	32.2266	74.618	32.2266	74.682
33.6914	72.4602	33.6914	72.4467	33.6914	72.4571	33.6914	72.4187	33.6914	72.4396	33.6914	72.3818	33.6914	72.4134	33.6914	72.346	33.6914	72.3885	33.6914	72.3258	33.6914	72.3789	33.6914	72.3393	33.6914	72.4021	33.6914	72.407	33.6914	72.4776	33.6914	72.5478	33.6914	72.6229	33.6914	72.7743	33.6914	72.85	33.6914	73.0877	33.6914	73.16	33.6914	73.4758	33.6914	73.5414	33.6914	73.9132	33.6914	73.9704	33.6914	74.3666	33.6914	74.4146	33.6914	74.7996	33.6914	74.8384	33.6914	75.1775	33.6914	75.207	33.6914	75.4712	33.6914	75.4912	33.6914	75.6585	33.6914	75.6686	33.6914	75.7259
35.1562	73.6953	35.1562	73.6827	35.1562	73.6966	35.1562	73.6607	35.1562	73.6878	35.1562	73.6344	35.1562	73.6736	35.1562	73.6123	35.1562	73.6616	35.1562	73.6063	35.1562	73.6628	35.1562	73.6312	35.1562	73.6911	35.1562	73.7037	35.1562	73.7619	35.1562	73.8391	35.1562	73.8904	35.1562	74.0481	35.1562	74.0876	35.1562	74.3327	35.1562	74.3573	35.1562	74.6835	35.1562	74.6928	35.1562	75.0798	35.1562	75.0763	35.1562	75.4928	35.1562	75.4808	35.1562	75.8893	35.1562	75.8738	35.1562	76.2368	35.1562	76.222	35.1562	76.5065	35.1562	76.4954	35.1562	76.6764	35.1562	76.6705	35.1562	76.7326
36.6211	74.6437	36.6211	74.6361	36.6211	74.6439	36.6211	74.6225	36.6211	74.6377	36.6211	74.6074	36.6211	74.629	36.6211	74.5979	36.6211	74.6244	36.6211	74.6042	36.6211	74.6333	36.6211	74.6385	36.6211	74.6676	36.6211	74.7145	36.6211	74.7403	36.6211	74.845	36.6211	74.8641	36.6211	75.0389	36.6211	75.0484	36.6211	75.2981	36.6211	75.2963	36.6211	75.6151	36.6211	75.6022	36.6211	75.9728	36.6211	75.9512	36.6211	76.3462	36.6211	76.3198	36.6211	76.706	36.6211	76.6792	36.6211	77.0224	36.6211	76.9992	36.6211	77.2686	36.6211	77.2517	36.6211	77.4235	36.6211	77.4147	36.6211	77.4736
38.0859	75.3546	38.0859	75.3472	38.0859	75.3599	38.0859	75.3392	38.0859	75.364	38.0859	75.3344	38.0859	75.3701	38.0859	75.3392	38.0859	75.3839	38.0859	75.3622	38.0859	75.4132	38.0859	75.4139	38.0859	75.4678	38.0859	75.5056	38.0859	75.5585	38.0859	75.6477	38.0859	75.6953	38.0859	75.8471	38.0859	75.8856	38.0859	76.1047	38.0859	76.1313	38.0859	76.4132	38.0859	76.427	38.0859	76.7571	38.0859	76.7592	38.0859	77.1137	38.0859	77.1072	38.0859	77.4562	38.0859	77.4452	38.0859	77.7572	38.0859	77.7455	38.0859	77.9915	38.0859	77.9822	38.0859	78.1395	38.0859	78.1344	38.0859	78.1885
39.5508	76.3637	39.5508	76.3654	39.5508	76.3634	39.5508	76.3697	39.5508	76.3652	39.5508	76.3794	39.5508	76.3714	39.5508	76.3993	39.5508	76.3863	39.5508	76.4355	39.5508	76.4156	39.5508	76.4954	39.5508	76.4667	39.5508	76.5871	39.5508	76.548	39.5508	76.718	39.5508	76.6673	39.5508	76.8931	39.5508	76.8308	39.5508	77.1133	39.5508	77.041	39.5508	77.3736	39.5508	77.2945	39.5508	77.6624	39.5508	77.5815	39.5508	77.9621	39.5508	77.8851	39.5508	78.2509	39.5508	78.1834	39.5508	78.5054	39.5508	78.4518	39.5508	78.7033	39.5508	78.6664	39.5508	78.8263	39.5508	78.8076	39.5508	78.8624
41.0156	77.0475	41.0156	77.0513	41.0156	77.0468	41.0156	77.0592	41.0156	77.0498	41.0156	77.0734	41.0156	77.0585	41.0156	77.0975	41.0156	77.0761	41.0156	77.1364	41.0156	77.1075	41.0156	77.1961	41.0156	77.1588	41.0156	77.2829	41.0156	77.2369	41.0156	77.4032	41.0156	77.3486	41.0156	77.5616	41.0156	77.4992	41.0156	77.7594	41.0156	77.6912	41.0156	77.9932	41.0156	77.9218	41.0156	78.2536	41.0156	78.1828	41.0156	78.5254	41.0156	78.4595	41.0156	78.789	41.0156	78.732	41.0156	79.0227	41.0156	78.9779	41.0156	79.2055	41.0156	79.1749	41.0156	79.3199	41.0156	79.3045	41.0156	79.3543
42.4805	77.6975	42.4805	77.7013	42.4805	77.6983	42.4805	77.7101	42.4805	77.7042	42.4805	77.7256	42.4805	77.7166	42.4805	77.7503	42.4805	77.7384	42.4805	77.788	42.4805	77.7732	42.4805	77.8433	42.4805	77.8257	42.4805	77.9216	42.4805	77.9011	42.4805	78.0279	42.4805	78.0049	42.4805	78.1665	42.4805	78.1412	42.4805	78.3389	42.4805	78.312	42.4805	78.5427	42.4805	78.5155	42.4805	78.7708	42.4805	78.7448	42.4805	79.0108	42.4805	78.9878	42.4805	79.2459	42.4805	79.2274	42.4805	79.457	42.4805	79.4436	42.4805	79.6245	42.4805	79.6161	42.4805	79.732	42.4805	79.728	42.4805	79.7679
43.9453	78.3455	43.9453	78.3517	43.9453	78.3452	43.9453	78.3641	43.9453	78.3514	43.9453	78.3839	43.9453	78.3651	43.9453	78.413	43.9453	78.3884	43.9453	78.454	43.9453	78.4241	43.9453	78.5106	43.9453	78.4761	43.9453	78.5868	43.9453	78.5486	43.9453	78.6868	43.9453	78.646	43.9453	78.8141	43.9453	78.7721	43.9453	78.9703	43.9453	78.9286	43.9453	79.1538	43.9453	79.1141	43.9453	79.359	43.9453	79.3231	43.9453	79.5754	43.9453	79.5447	43.9453	79.7882	43.9453	79.7639	43.9453	79.98	43.9453	79.9624	43.9453	80.1328	43.9453	80.1215	43.9453	80.2307	43.9453	80.2253	43.9453	80.2628
45.4102	78.8924	45.4102	78.8992	45.4102	78.8931	45.4102	78.9136	45.4102	78.9018	45.4102	78.9364	45.4102	78.9192	45.4102	78.9689	45.4102	78.947	45.4102	79.013	45.4102	78.9874	45.4102	79.0713	45.4102	79.0432	45.4102	79.1469	45.4102	79.1176	45.4102	79.243	45.4102	79.214	45.4102	79.3625	45.4102	79.3352	45.4102	79.5067	45.4102	79.4824	45.4102	79.6748	45.4102	79.6544	45.4102	79.8622	45.4102	79.8461	45.4102	80.0601	45.4102	80.0482	45.4102	80.2554	45.4102	80.2474	45.4102	80.4323	45.4102	80.4274	45.4102	80.574	45.4102	80.5713	45.4102	80.6657	45.4102	80.6646	45.4102	80.6972
46.875	79.423	46.875	79.4286	46.875	79.4266	46.875	79.4432	46.875	79.4394	46.875	79.4674	46.875	79.462	46.875	79.5021	46.875	79.4954	46.875	79.5485	46.875	79.5409	46.875	79.6083	46.875	79.6003	46.875	79.6836	46.875	79.6758	46.875	79.7769	46.875	79.7697	46.875	79.8902	46.875	79.884	46.875	80.0246	46.875	80.0194	46.875	80.1792	46.875	80.175	46.875	80.3502	46.875	80.3465	46.875	80.5298	46.875	80.5264	46.875	80.7067	46.875	80.7035	46.875	80.8666	46.875	80.8637	46.875	80.9944	46.875	80.9922	46.875	81.077	46.875	81.0758	46.875	81.1051
48.3398	79.8628	48.3398	79.8693	48.3398	79.8665	48.3398	79.8862	48.3398	79.8806	48.3398	79.9136	48.3398	79.9053	48.3398	79.9519	48.3398	79.9409	48.3398	80.0017	48.3398	79.9883	48.3398	80.0639	48.3398	80.0485	48.3398	80.1398	48.3398	80.1228	48.3398	80.2307	48.3398	80.2128	48.3398	80.3379	48.3398	80.3199	48.3398	80.4621	48.3398	80.4446	48.3398	80.6025	48.3398	80.5859	48.3398	80.7558	48.3398	80.7405	48.3398	80.9157	48.3398	80.9018	48.3398	81.0723	48.3398	81.0604	48.3398	81.2135	48.3398	81.204	48.3398	81.3262	48.3398	81.3196	48.3398	81.3986	48.3398	81.3952	48.3398	81.4225
51.2695	80.7301	51.2695	80.7414	51.2695	80.7311	51.2695	80.7648	51.2695	80.7446	51.2695	80.7995	51.2695	80.7703	51.2695	80.8449	51.2695	80.8078	51.2695	80.9002	51.2695	80.8569	51.2695	80.9647	51.2695	80.9171	51.2695	81.0382	51.2695	80.9883	51.2695	81.1207	51.2695	81.0705	51.2695	81.2124	51.2695	81.1638	51.2695	81.3136	51.2695	81.2683	51.2695	81.4239	51.2695	81.3831	51.2695	81.5417	51.2695	81.5059	51.2695	81.6629	51.2695	81.6327	51.2695	81.7811	51.2695	81.7567	51.2695	81.8875	51.2695	81.8691	51.2695	81.9724	51.2695	81.9602	51.2695	82.0266	51.2695	82.0204	51.2695	82.0434
52.7344	81.2157	52.7344	81.2278	52.7344	81.2158	52.7344	81.2517	52.7344	81.2283	52.7344	81.2864	52.7344	81.2528	52.7344	81.3307	52.7344	81.2887	52.7344	81.3835	52.7344	81.3354	52.7344	81.4436	52.7344	81.3919	52.7344	81.5101	52.7344	81.4576	52.7344	81.5826	52.7344	81.5321	52.7344	81.6614	52.7344	81.6152	52.7344	81.7466	52.7344	81.7065	52.7344	81.8384	52.7344	81.8056	52.7344	81.936	52.7344	81.9106	52.7344	82.0367	52.7344	82.0185	52.7344	82.1358	52.7344	82.1237	52.7344	82.2262	52.7344	82.2189	52.7344	82.2994	52.7344	82.2955	52.7344	82.3472	52.7344	82.3456	52.7344	82.3634
54.1992	81.6365	54.1992	81.6457	54.1992	81.6383	54.1992	81.6652	54.1992	81.6511	54.1992	81.6941	54.1992	81.6748	54.1992	81.7309	54.1992	81.7085	54.1992	81.7746	54.1992	81.7512	54.1992	81.8236	54.1992	81.8019	54.1992	81.8773	54.1992	81.8595	54.1992	81.9352	54.1992	81.9233	54.1992	81.9972	54.1992	81.993	54.1992	82.064	54.1992	82.0681	54.1992	82.1359	54.1992	82.1484	54.1992	82.213	54.1992	82.2327	54.1992	82.2939	54.1992	82.3184	54.1992	82.3753	54.1992	82.4015	54.1992	82.4516	54.1992	82.4757	54.1992	82.5158	54.1992	82.5342	54.1992	82.5603	54.1992	82.5703	54.1992	82.5794
55.6641	81.9737	55.6641	81.978	55.6641	81.9806	55.6641	81.9931	55.6641	81.9984	55.6641	82.0182	55.6641	82.0265	55.6641	82.0522	55.6641	82.0638	55.6641	82.0937	55.6641	82.109	55.6641	82.1413	55.6641	82.1606	55.6641	82.1938	55.6641	82.2175	55.6641	82.2501	55.6641	82.2786	55.6641	82.3098	55.6641	82.3434	55.6641	82.3729	55.6641	82.4116	55.6641	82.4397	55.6641	82.4826	55.6641	82.5103	55.6641	82.5558	55.6641	82.5837	55.6641	82.6291	55.6641	82.6573	55.6641	82.6994	55.6641	82.7265	55.6641	82.7618	55.6641	82.7849	55.6641	82.8104	55.6641	82.8262	55.6641	82.8395	55.6641	82.8451
58.5938	82.6097	58.5938	82.6154	58.5938	82.6172	58.5938	82.6337	58.5938	82.6375	58.5938	82.6637	58.5938	82.6695	58.5938	82.7038	58.5938	82.7118	58.5938	82.7519	58.5938	82.7624	58.5938	82.8057	58.5938	82.819	58.5938	82.8631	58.5938	82.8795	58.5938	82.9221	58.5938	82.9418	58.5938	82.9816	58.5938	83.0044	58.5938	83.041	58.5938	83.0662	58.5938	83.1001	58.5938	83.1265	58.5938	83.1591	58.5938	83.185	58.5938	83.2174	58.5938	83.241	58.5938	83.2735	58.5938	83.2933	58.5938	83.3243	58.5938	83.3393	58.5938	83.3658	58.5938	83.3756	58.5938	83.3938	58.5938	83.3986	58.5938	83.4051
60.0586	82.8958	60.0586	82.9001	60.0586	82.9057	60.0586	82.9182	60.0586	82.9292	60.0586	82.9489	60.0586	82.9653	60.0586	82.9903	60.0586	83.012	60.0586	83.0403	60.0586	83.0669	60.0586	83.0963	60.0586	83.1275	60.0586	83.1556	60.0586	83.191	60.0586	83.2162	60.0586	83.255	60.0586	83.2761	60.0586	83.3175	60.0586	83.3344	60.0586	83.377	60.0586	83.3906	60.0586	83.433	60.0586	83.4446	60.0586	83.4849	60.0586	83.4963	60.0586	83.5326	60.0586	83.5447	60.0586	83.5754	60.0586	83.5881	60.0586	83.6118	60.0586	83.6236	60.0586	83.6397	60.0586	83.6481	60.0586	83.6562	60.0586	83.6593
62.9883	83.445	62.9883	83.4498	62.9883	83.4547	62.9883	83.4686	62.9883	83.4783	62.9883	83.5001	62.9883	83.5146	62.9883	83.5422	62.9883	83.5614	62.9883	83.5922	62.9883	83.616	62.9883	83.6471	62.9883	83.6753	62.9883	83.7036	62.9883	83.736	62.9883	83.7589	62.9883	83.7951	62.9883	83.8107	62.9883	83.85	62.9883	83.8573	62.9883	83.8989	62.9883	83.8982	62.9883	83.941	62.9883	83.9338	62.9883	83.976	62.9883	83.9649	62.9883	84.0045	62.9883	83.9923	62.9883	84.0272	62.9883	84.0163	62.9883	84.0445	62.9883	84.0364	62.9883	84.0562	62.9883	84.0514	62.9883	84.0616	62.9883	84.0601
64.4531	83.7042	64.4531	83.7079	64.4531	83.7153	64.4531	83.726	64.4531	83.7408	64.4531	83.7572	64.4531	83.7793	64.4531	83.7993	64.4531	83.8283	64.4531	83.8494	64.4531	83.8851	64.4531	83.9042	64.4531	83.9461	64.4531	83.9604	64.4531	84.0079	64.4531	84.0147	64.4531	84.0671	64.4531	84.0645	64.4531	84.1207	64.4531	84.108	64.4531	84.1667	64.4531	84.1444	64.4531	84.204	64.4531	84.1742	64.4531	84.2325	64.4531	84.1984	64.4531	84.2529	64.4531	84.2186	64.4531	84.2666	64.4531	84.236	64.4531	84.2748	64.4531	84.251	64.4531	84.2784	64.4531	84.2634	64.4531	84.2775	64.4531	84.2724
67.3828	84.2041	67.3828	84.2043	67.3828	84.2188	67.3828	84.219	67.3828	84.2477	67.3828	84.2468	67.3828	84.2891	67.3828	84.2855	67.3828	84.3406	67.3828	84.3321	67.3828	84.3989	67.3828	84.383	67.3828	84.4602	67.3828	84.4346	67.3828	84.5204	67.3828	84.4833	67.3828	84.5758	67.3828	84.526	67.3828	84.6229	67.3828	84.5605	67.3828	84.6593	67.3828	84.586	67.3828	84.6836	67.3828	84.6029	67.3828	84.6961	67.3828	84.6129	67.3828	84.6982	67.3828	84.6185	67.3828	84.6922	67.3828	84.6224	67.3828	84.6812	67.3828	84.6269	67.3828	84.668	67.3828	84.6336	67.3828	84.6547	67.3828	84.6429
68.8477	84.4373	68.8477	84.437	68.8477	84.4519	68.8477	84.4508	68.8477	84.4803	68.8477	84.4771	68.8477	84.5208	68.8477	84.5136	68.8477	84.5708	68.8477	84.5574	68.8477	84.6271	68.8477	84.6049	68.8477	84.6858	68.8477	84.6522	68.8477	84.7428	68.8477	84.6956	68.8477	84.7941	68.8477	84.7322	68.8477	84.8363	68.8477	84.7597	68.8477	84.8667	68.8477	84.7774	68.8477	84.8841	68.8477	84.7858	68.8477	84.8885	68.8477	84.7871	68.8477	84.8819	68.8477	84.7844	68.8477	84.8669	68.8477	84.7811	68.8477	84.8473	68.8477	84.7803	68.8477	84.8266	68.8477	84.784	68.8477	84.8078	68.8477	84.7932
71.7773	84.8684	71.7773	84.8654	71.7773	84.885	71.7773	84.8757	71.7773	84.9145	71.7773	84.8979	71.7773	84.9552	71.7773	84.9297	71.7773	85.0045	71.7773	84.9682	71.7773	85.059	71.7773	85.0096	71.7773	85.1146	71.7773	85.0501	71.7773	85.1669	71.7773	85.0857	71.7773	85.2117	71.7773	85.1132	71.7773	85.2451	71.7773	85.13	71.7773	85.2643	71.7773	85.1352	71.7773	85.268	71.7773	85.1296	71.7773	85.2564	71.7773	85.1157	71.7773	85.2321	71.7773	85.0978	71.7773	85.1988	71.7773	85.0807	71.7773	85.1616	71.7773	85.0692	71.7773	85.1258	71.7773	85.0669	71.7773	85.0961	71.7773	85.0758
74.707	85.2684	74.707	85.2677	74.707	85.2828	74.707	85.2803	74.707	85.3104	74.707	85.3049	74.707	85.3494	74.707	85.339	74.707	85.3972	74.707	85.3794	74.707	85.4503	74.707	85.4223	74.707	85.5044	74.707	85.4635	74.707	85.5549	74.707	85.4986	74.707	85.5972	74.707	85.5241	74.707	85.6272	74.707	85.5371	74.707	85.6418	74.707	85.5363	74.707	85.6393	74.707	85.5225	74.707	85.6204	74.707	85.4984	74.707	85.5876	74.707	85.4687	74.707	85.5457	74.707	85.4393	74.707	85.5006	74.707	85.4163	74.707	85.459	74.707	85.4047	74.707	85.4267	74.707	85.408
77.6367	85.6072	77.6367	85.6077	77.6367	85.6203	77.6367	85.6214	77.6367	85.6464	77.6367	85.6468	77.6367	85.6838	77.6367	85.6815	77.6367	85.73	77.6367	85.7222	77.6367	85.7812	77.6367	85.7649	77.6367	85.8332	77.6367	85.8051	77.6367	85.8811	77.6367	85.8386	77.6367	85.9202	77.6367	85.861	77.6367	85.9461	77.6367	85.8695	77.6367	85.9553	77.6367	85.8626	77.6367	85.9464	77.6367	85.8409	77.6367	85.9196	77.6367	85.8072	77.6367	85.8781	77.6367	85.7669	77.6367	85.8271	77.6367	85.7265	77.6367	85.7737	77.6367	85.6934	77.6367	85.7258	77.6367	85.6738	77.6367	85.6903	77.6367	85.6724
79.1016	85.7473	79.1016	85.7486	79.1016	85.7589	79.1016	85.7625	79.1016	85.7828	79.1016	85.7876	79.1016	85.8175	79.1016	85.8216	79.1016	85.8602	79.1016	85.8611	79.1016	85.9074	79.1016	85.9023	79.1016	85.9549	79.1016	85.9407	79.1016	85.998	79.1016	85.9718	79.1016	86.0318	79.1016	85.9912	79.1016	86.052	79.1016	85.9958	79.1016	86.0553	79.1016	85.9839	79.1016	86.04	79.1016	85.956	79.1016	86.0068	79.1016	85.9149	79.1016	85.9589	79.1016	85.8662	79.1016	85.9022	79.1016	85.817	79.1016	85.8441	79.1016	85.7753	79.1016	85.7934	79.1016	85.7486	79.1016	85.7576	79.1016	85.7421
82.0312	86.0283	82.0312	86.0344	82.0312	86.0342	82.0312	86.0519	82.0312	86.0515	82.0312	86.0794	82.0312	86.0788	82.0312	86.1144	82.0312	86.1137	82.0312	86.1536	82.0312	86.1529	82.0312	86.1931	82.0312	86.1921	82.0312	86.2281	82.0312	86.2266	82.0312	86.254	82.0312	86.2517	82.0312	86.2663	82.0312	86.2628	82.0312	86.2619	82.0312	86.2566	82.0312	86.2388	82.0312	86.2317	82.0312	86.1977	82.0312	86.1888	82.0312	86.1419	82.0312	86.1316	82.0312	86.0773	82.0312	86.0666	82.0312	86.0122	82.0312	86.0023	82.0312	85.9558	82.0312	85.9482	82.0312	85.9169	82.0312	85.9127	82.0312	85.9017
84.9609	86.2504	84.9609	86.2504	84.9609	86.2631	84.9609	86.2625	84.9609	86.2878	84.9609	86.2854	84.9609	86.323	84.9609	86.3168	84.9609	86.3662	84.9609	86.3534	84.9609	86.4137	84.9609	86.3911	84.9609	86.4611	84.9609	86.4252	84.9609	86.5031	84.9609	86.4507	84.9609	86.5345	84.9609	86.4631	84.9609	86.5502	84.9609	86.4585	84.9609	86.5463	84.9609	86.435	84.9609	86.5208	84.9609	86.3933	84.9609	86.4742	84.9609	86.3369	84.9609	86.4101	84.9609	86.2724	84.9609	86.3351	84.9609	86.2087	84.9609	86.2584	84.9609	86.156	84.9609	86.1905	84.9609	86.1237	84.9609	86.1414	84.9609	86.1181
87.8906	86.4591	87.8906	86.471	87.8906	86.4582	87.8906	86.4932	87.8906	86.4683	87.8906	86.5242	87.8906	86.4884	87.8906	86.5619	87.8906	86.5168	87.8906	86.6029	87.8906	86.5507	87.8906	86.6433	87.8906	86.5865	87.8906	86.6786	87.8906	86.6196	87.8906	86.704	87.8906	86.6451	87.8906	86.7148	87.8906	86.6581	87.8906	86.7073	87.8906	86.6545	87.8906	86.6796	87.8906	86.6318	87.8906	86.6319	87.8906	86.5899	87.8906	86.5677	87.8906	86.532	87.8906	86.4934	87.8906	86.4642	87.8906	86.4181	87.8906	86.3958	87.8906	86.3525	87.8906	86.3373	87.8906	86.3066	87.8906	86.2989	87.8906	86.2878
90.8203	86.59	90.8203	86.5946	90.8203	86.5953	90.8203	86.6085	90.8203	86.6101	90.8203	86.6307	90.8203	86.6333	90.8203	86.6591	90.8203	86.6633	90.8203	86.6909	90.8203	86.6971	90.8203	86.7223	90.8203	86.7312	90.8203	86.7487	90.8203	86.7609	90.8203	86.7655	90.8203	86.7814	90.8203	86.768	90.8203	86.7875	90.8203	86.7523	90.8203	86.7752	90.8203	86.7166	90.8203	86.7418	90.8203	86.6613	90.8203	86.6875	90.8203	86.5899	90.8203	86.6154	90.8203	86.5095	90.8203	86.5326	90.8203	86.4299	90.8203	86.449	90.8203	86.3626	90.8203	86.3762	90.8203	86.3185	90.8203	86.3255	90.8203	86.3052
95.2148	86.88	95.2148	86.8854	95.2148	86.8824	95.2148	86.8982	95.2148	86.8921	95.2148	86.9175	95.2148	86.9082	95.2148	86.9415	95.2148	86.9292	95.2148	86.9676	95.2148	86.9524	95.2148	86.9923	95.2148	86.9745	95.2148	87.0111	95.2148	86.9915	95.2148	87.0191	95.2148	86.9987	95.2148	87.0116	95.2148	86.9916	95.2148	86.9846	95.2148	86.9664	95.2148	86.9361	95.2148	86.9208	95.2148	86.8667	95.2148	86.8549	95.2148	86.7803	95.2148	86.7723	95.2148	86.6846	95.2148	86.6799	95.2148	86.5905	95.2148	86.5883	95.2148	86.5106	95.2148	86.5099	95.2148	86.4569	95.2148	86.4569	95.2148	86.438
98.1445	87.0115	98.1445	87.014	98.1445	87.0145	98.1445	87.0219	98.1445	87.0228	98.1445	87.0346	98.1445	87.0357	98.1445	87.0509	98.1445	87.0519	98.1445	87.0688	98.1445	87.0695	98.1445	87.0853	98.1445	87.0854	98.1445	87.0963	98.1445	87.0961	98.1445	87.0974	98.1445	87.097	98.1445	87.0837	98.1445	87.0836	98.1445	87.0512	98.1445	87.0522	98.1445	86.9977	98.1445	87.0002	98.1445	86.9234	98.1445	86.9276	98.1445	86.8322	98.1445	86.838	98.1445	86.732	98.1445	86.7387	98.1445	86.6338	98.1445	86.6405	98.1445	86.551	98.1445	86.5563	98.1445	86.4959	98.1445	86.4988	98.1445	86.4775
101.074	87.0722	101.074	87.0705	101.074	87.0775	101.074	87.0722	101.074	87.0859	101.074	87.0767	101.074	87.0966	101.074	87.083	101.074	87.1084	101.074	87.0891	101.074	87.1192	101.074	87.0922	101.074	87.1261	101.074	87.0887	101.074	87.1256	101.074	87.0741	101.074	87.1134	101.074	87.0442	101.074	87.0854	101.074	86.9953	101.074	87.038	101.074	86.9256	101.074	86.9693	101.074	86.8361	101.074	86.8797	101.074	86.7313	101.074	86.7733	101.074	86.6197	101.074	86.658	101.074	86.5133	101.074	86.5452	101.074	86.4256	101.074	86.4486	101.074	86.3694	101.074	86.3814	101.074	86.3537
105.469	87.1886	105.469	87.1906	105.469	87.1895	105.469	87.195	105.469	87.1936	105.469	87.2008	105.469	87.2007	105.469	87.2067	105.469	87.2099	105.469	87.2107	105.469	87.2193	105.469	87.2098	105.469	87.2258	105.469	87.2004	105.469	87.2251	105.469	87.1783	105.469	87.2123	105.469	87.1393	105.469	87.1821	105.469	87.0799	105.469	87.1299	105.469	86.9985	105.469	87.0531	105.469	86.8962	105.469	86.952	105.469	86.778	105.469	86.8314	105.469	86.653	105.469	86.7002	105.469	86.5339	105.469	86.5719	105.469	86.4355	105.469	86.4621	105.469	86.3723	105.469	86.3859	105.469	86.3545
108.398	87.3959	108.398	87.3953	108.398	87.3973	108.398	87.3952	108.398	87.3994	108.398	87.3951	108.398	87.4022	108.398	87.394	108.398	87.405	108.398	87.3902	108.398	87.4064	108.398	87.3811	108.398	87.404	108.398	87.3636	108.398	87.3943	108.398	87.3336	108.398	87.3728	108.398	87.2873	108.398	87.3349	108.398	87.2217	108.398	87.2764	108.398	87.1356	108.398	87.1949	108.398	87.0305	108.398	87.0908	108.398	86.9115	108.398	86.9688	108.398	86.7872	108.398	86.8375	108.398	86.6699	108.398	86.71	108.398	86.5736	108.398	86.6013	108.398	86.512	108.398	86.5261	108.398	86.4949
112.793	87.5764	112.793	87.5801	112.793	87.5716	112.793	87.5826	112.793	87.5659	112.793	87.5837	112.793	87.5596	112.793	87.5829	112.793	87.5525	112.793	87.579	112.793	87.5441	112.793	87.5699	112.793	87.5327	112.793	87.5523	112.793	87.5156	112.793	87.5224	112.793	87.4888	112.793	87.4761	112.793	87.448	112.793	87.4101	112.793	87.389	112.793	87.3227	112.793	87.3093	112.793	87.2154	112.793	87.209	112.793	87.093	112.793	87.0922	112.793	86.9646	112.793	86.9673	112.793	86.8427	112.793	86.8467	112.793	86.7414	112.793	86.7451	112.793	86.6746	112.793	86.6767	112.793	86.6518
117.188	87.6636	117.188	87.6595	117.188	87.6652	117.188	87.6532	117.188	87.664	117.188	87.6452	117.188	87.6598	117.188	87.6353	117.188	87.6524	117.188	87.6229	117.188	87.6411	117.188	87.6059	117.188	87.6242	117.188	87.5814	117.188	87.5991	117.188	87.5453	117.188	87.5624	117.188	87.4933	117.188	87.51	117.188	87.4217	117.188	87.4386	117.188	87.3289	117.188	87.3462	117.188	87.2161	117.188	87.2337	117.188	87.0886	117.188	87.106	117.188	86.9558	117.188	86.972	117.188	86.8306	117.188	86.8443	117.188	86.7276	117.188	86.7374	117.188	86.6603	117.188	86.6655	117.188	86.6385
120.117	87.7112	120.117	87.7037	120.117	87.715	120.117	87.693	120.117	87.7149	120.117	87.6796	120.117	87.7106	120.117	87.6635	120.117	87.7019	120.117	87.6438	120.117	87.688	120.117	87.6186	120.117	87.6671	120.117	87.5849	120.117	87.6366	120.117	87.5384	120.117	87.593	120.117	87.4747	120.117	87.5322	120.117	87.3901	120.117	87.4511	120.117	87.2832	120.117	87.3477	120.117	87.1559	120.117	87.2232	120.117	87.0145	120.117	87.0826	120.117	86.8699	120.117	86.9351	120.117	86.7365	120.117	86.7936	120.117	86.6302	120.117	86.6731	120.117	86.5652	120.117	86.5883	120.117	86.5505
124.512	87.8461	124.512	87.8422	124.512	87.8448	124.512	87.8335	124.512	87.8388	124.512	87.8204	124.512	87.8283	124.512	87.8032	124.512	87.8138	124.512	87.7816	124.512	87.7951	124.512	87.7546	124.512	87.7712	124.512	87.7197	124.512	87.7398	124.512	87.6735	124.512	87.6973	124.512	87.6121	124.512	87.6399	124.512	87.5321	124.512	87.5639	124.512	87.4318	124.512	87.4673	124.512	87.3126	124.512	87.3512	124.512	87.1799	124.512	87.2201	124.512	87.0436	124.512	87.0831	124.512	86.917	124.512	86.9523	124.512	86.815	124.512	86.8419	124.512	86.7509	124.512	86.7655	124.512	86.7337
128.906	87.8313	128.906	87.8296	128.906	87.8267	128.906	87.8216	128.906	87.8161	128.906	87.8076	128.906	87.8004	128.906	87.7881	128.906	87.78	128.906	87.7628	128.906	87.7553	128.906	87.7309	128.906	87.7253	128.906	87.6903	128.906	87.688	128.906	87.6381	128.906	87.64	128.906	87.5707	128.906	87.5775	128.906	87.4851	128.906	87.4969	128.906	87.3798	128.906	87.3966	128.906	87.2564	128.906	87.2777	128.906	87.1204	128.906	87.1451	128.906	86.9816	128.906	87.0077	128.906	86.8531	128.906	86.8777	128.906	86.7496	128.906	86.769	128.906	86.684	128.906	86.6948	128.906	86.665
133.301	87.7982	133.301	87.8022	133.301	87.7869	133.301	87.7989	133.301	87.7689	133.301	87.7887	133.301	87.7451	133.301	87.7719	133.301	87.7168	133.301	87.7486	133.301	87.6845	133.301	87.7179	133.301	87.6479	133.301	87.6779	133.301	87.6053	133.301	87.6259	133.301	87.5538	133.301	87.5587	133.301	87.4897	133.301	87.4734	133.301	87.4097	133.301	87.3691	133.301	87.3121	133.301	87.2472	133.301	87.1983	133.301	87.113	133.301	87.0732	133.301	86.9759	133.301	86.9455	133.301	86.8481	133.301	86.8268	133.301	86.7432	133.301	86.7302	133.301	86.6735	133.301	86.6675	133.301	86.6474
139.16	87.6953	139.16	87.6967	139.16	87.6839	139.16	87.6891	139.16	87.6626	139.16	87.6739	139.16	87.6327	139.16	87.6531	139.16	87.5959	139.16	87.6278	139.16	87.5543	139.16	87.5983	139.16	87.5088	139.16	87.5633	139.16	87.4595	139.16	87.5201	139.16	87.4047	139.16	87.4653	139.16	87.3419	139.16	87.3957	139.16	87.2686	139.16	87.3097	139.16	87.1833	139.16	87.2081	139.16	87.0875	139.16	87.0952	139.16	86.9854	139.16	86.9786	139.16	86.8846	139.16	86.8685	139.16	86.7945	139.16	86.776	139.16	86.7251	139.16	86.7107	139.16	86.6848	139.16	86.6794
143.555	87.6836	143.555	87.6663	143.555	87.6878	143.555	87.6374	143.555	87.6789	143.555	87.5995	143.555	87.6579	143.555	87.5556	143.555	87.6266	143.555	87.5087	143.555	87.587	143.555	87.4603	143.555	87.5402	143.555	87.4105	143.555	87.4863	143.555	87.3577	143.555	87.4239	143.555	87.299	143.555	87.3508	143.555	87.2313	143.555	87.2651	143.555	87.1523	143.555	87.1662	143.555	87.0623	143.555	87.0566	143.555	86.9639	143.555	86.942	143.555	86.8632	143.555	86.8308	143.555	86.7682	143.555	86.7333	143.555	86.6882	143.555	86.6591	143.555	86.6321	143.555	86.6156	143.555	86.6066
147.949	87.8232	147.949	87.8082	147.949	87.817	147.949	87.7725	147.949	87.7908	147.949	87.7181	147.949	87.7471	147.949	87.6483	147.949	87.6895	147.949	87.5667	147.949	87.6218	147.949	87.4764	147.949	87.5466	147.949	87.3797	147.949	87.4653	147.949	87.2775	147.949	87.3773	147.949	87.1696	147.949	87.2804	147.949	87.0556	147.949	87.1725	147.949	86.9358	147.949	87.0523	147.949	86.8122	147.949	86.9214	147.949	86.6893	147.949	86.7848	147.949	86.5736	147.949	86.6509	147.949	86.4731	147.949	86.5301	147.949	86.3961	147.949	86.433	147.949	86.3499	147.949	86.3678	147.949	86.3397
153.809	87.8241	153.809	87.814	153.809	87.8116	153.809	87.7829	153.809	87.7771	153.809	87.733	153.809	87.7224	153.809	87.6676	153.809	87.6507	153.809	87.5897	153.809	87.5657	153.809	87.5012	153.809	87.4707	153.809	87.4029	153.809	87.3681	153.809	87.2939	153.809	87.259	153.809	87.1731	153.809	87.143	153.809	87.0396	153.809	87.0195	153.809	86.8947	153.809	86.8884	153.809	86.7429	153.809	86.7514	153.809	86.5917	153.809	86.6128	153.809	86.451	153.809	86.4795	153.809	86.331	153.809	86.3604	153.809	86.2411	153.809	86.2648	153.809	86.1876	153.809	86.2008	153.809	86.1741
159.668	87.9542	159.668	87.9397	159.668	87.9438	159.668	87.9015	159.668	87.9086	159.668	87.8425	159.668	87.8503	159.668	87.7666	159.668	87.7717	159.668	87.6778	159.668	87.6761	159.668	87.5795	159.668	87.5665	159.668	87.4736	159.668	87.4454	159.668	87.3604	159.668	87.3145	159.668	87.2388	159.668	87.175	159.668	87.1074	159.668	87.0284	159.668	86.9663	159.668	86.878	159.668	86.8182	159.668	86.7287	159.668	86.6693	159.668	86.5873	159.668	86.5289	159.668	86.4615	159.668	86.4072	159.668	86.3581	159.668	86.3132	159.668	86.2825	159.668	86.2526	159.668	86.2382	159.668	86.2277
165.527	88.0319	165.527	88.0197	165.527	88.0193	165.527	87.9837	165.527	87.9827	165.527	87.9264	165.527	87.9248	165.527	87.8515	165.527	87.8492	165.527	87.7632	165.527	87.7599	165.527	87.665	165.527	87.6603	165.527	87.5595	165.527	87.5527	165.527	87.4476	165.527	87.4377	165.527	87.329	165.527	87.3148	165.527	87.2031	165.527	87.1834	165.527	87.0705	165.527	87.0447	165.527	86.9338	165.527	86.9024	165.527	86.7985	165.527	86.7636	165.527	86.6723	165.527	86.6374	165.527	86.5635	165.527	86.5326	165.527	86.4791	165.527	86.4563	165.527	86.4243	165.527	86.4122	165.527	86.4016
171.387	87.8889	171.387	87.8626	171.387	87.8866	171.387	87.8092	171.387	87.8561	171.387	87.7323	171.387	87.7998	171.387	87.6369	171.387	87.7215	171.387	87.5286	171.387	87.6258	171.387	87.4128	171.387	87.5171	171.387	87.294	171.387	87.3988	171.387	87.1747	171.387	87.2729	171.387	87.056	171.387	87.1404	171.387	86.938	171.387	87.0024	171.387	86.8214	171.387	86.8613	171.387	86.7079	171.387	86.722	171.387	86.6009	171.387	86.5921	171.387	86.5051	171.387	86.4801	171.387	86.4248	171.387	86.3932	171.387	86.3632	171.387	86.335	171.387	86.3218	171.387	86.3054	171.387	86.3019
177.246	87.8128	177.246	87.7934	177.246	87.7997	177.246	87.7415	177.246	87.7558	177.246	87.6597	177.246	87.685	177.246	87.5522	177.246	87.5925	177.246	87.4243	177.246	87.4838	177.246	87.2822	177.246	87.3642	177.246	87.1316	177.246	87.2375	177.246	86.9777	177.246	87.1055	177.246	86.8247	177.246	86.9689	177.246	86.6767	177.246	86.8275	177.246	86.5376	177.246	86.683	177.246	86.4119	177.246	86.5396	177.246	86.3038	177.246	86.4048	177.246	86.2169	177.246	86.2876	177.246	86.1525	177.246	86.1955	177.246	86.1098	177.246	86.1318	177.246	86.0865	177.246	86.0952	177.246	86.0813
183.105	87.7054	183.105	87.6961	183.105	87.6787	183.105	87.6512	183.105	87.6182	183.105	87.5732	183.105	87.528	183.105	87.4667	183.105	87.414	183.105	87.3375	183.105	87.283	183.105	87.192	183.105	87.142	183.105	87.0365	183.105	86.9968	183.105	86.8768	183.105	86.8513	183.105	86.7176	183.105	86.7077	183.105	86.5632	183.105	86.5668	183.105	86.4177	183.105	86.4296	183.105	86.2852	183.105	86.2985	183.105	86.17	183.105	86.1784	183.105	86.0754	183.105	86.0756	183.105	86.003	183.105	85.9959	183.105	85.9522	183.105	85.9424	183.105	85.921	183.105	85.9142	183.105	85.9081
188.965	87.6958	188.965	87.6811	188.965	87.6681	188.965	87.6249	188.965	87.599	188.965	87.5304	188.965	87.4921	188.965	87.402	188.965	87.353	188.965	87.2459	188.965	87.1894	188.965	87.0685	188.965	87.0104	188.965	86.8771	188.965	86.825	188.965	86.679	188.965	86.6414	188.965	86.4823	188.965	86.466	188.965	86.2961	188.965	86.3029	188.965	86.1302	188.965	86.1552	188.965	85.993	188.965	86.026	188.965	85.8897	188.965	85.9186	188.965	85.8199	188.965	85.8363	188.965	85.778	188.965	85.7807	188.965	85.7551	188.965	85.7495	188.965	85.743	188.965	85.7372	188.965	85.7368
196.289	87.9168	196.289	87.8991	196.289	87.8913	196.289	87.8399	196.289	87.8225	196.289	87.7426	196.289	87.7129	196.289	87.6121	196.289	87.5665	196.289	87.4538	196.289	87.3895	196.289	87.2733	196.289	87.1895	196.289	87.0751	196.289	86.9754	196.289	86.8634	196.289	86.7572	196.289	86.6423	196.289	86.5445	196.289	86.4177	196.289	86.346	196.289	86.1993	196.289	86.1679	196.289	86.0003	196.289	86.0138	196.289	85.8348	196.289	85.8851	196.289	85.7128	196.289	85.7822	196.289	85.6359	196.289	85.7041	196.289	85.5974	196.289	85.649	196.289	85.5861	196.289	85.6132	196.289	85.5927
203.613	87.8357	203.613	87.7997	203.613	87.8214	203.613	87.7142	203.613	87.7575	203.613	87.5828	203.613	87.6468	203.613	87.4113	203.613	87.4932	203.613	87.2075	203.613	87.3016	203.613	86.9814	203.613	87.0783	203.613	86.7432	203.613	86.831	203.613	86.5028	203.613	86.5698	203.613	86.2688	203.613	86.3086	203.613	86.0485	203.613	86.0638	203.613	85.8493	203.613	85.8521	203.613	85.6795	203.613	85.6862	203.613	85.5473	203.613	85.5704	203.613	85.4581	203.613	85.4996	203.613	85.4108	203.613	85.4616	203.613	85.3967	203.613	85.4421	203.613	85.4025	203.613	85.429	203.613	85.4157
210.938	87.8862	210.938	87.863	210.938	87.863	210.938	87.795	210.938	87.7934	210.938	87.6847	210.938	87.6795	210.938	87.5345	210.938	87.525	210.938	87.3471	210.938	87.3356	210.938	87.1254	210.938	87.1171	210.938	86.8738	210.938	86.8759	210.938	86.5993	210.938	86.6194	210.938	86.3127	210.938	86.3568	210.938	86.0285	210.938	86.1004	210.938	85.765	210.938	85.8651	210.938	85.5408	210.938	85.6655	210.938	85.3711	210.938	85.5114	210.938	85.2622	210.938	85.404	210.938	85.2093	210.938	85.3357	210.938	85.1985	210.938	85.2931	210.938	85.2124	210.938	85.2629	210.938	85.2364
218.262	87.6729	218.262	87.6317	218.262	87.6683	218.262	87.5492	218.262	87.6159	218.262	87.4317	218.262	87.517	218.262	87.2853	218.262	87.3761	218.262	87.1154	218.262	87.2002	218.262	86.9258	218.262	86.997	218.262	86.7196	218.262	86.7749	218.262	86.5004	218.262	86.5421	218.262	86.2735	218.262	86.3081	218.262	86.047	218.262	86.0852	218.262	85.8323	218.262	85.888	218.262	85.6445	218.262	85.7313	218.262	85.4996	218.262	85.6237	218.262	85.4097	218.262	85.5631	218.262	85.3769	218.262	85.5359	218.262	85.39	218.262	85.5221	218.262	85.4288	218.262	85.5038	218.262	85.4717
225.586	87.7323	225.586	87.7168	225.586	87.6882	225.586	87.6443	225.586	87.585	225.586	87.5198	225.586	87.4266	225.586	87.3503	225.586	87.2197	225.586	87.1434	225.586	86.9736	225.586	86.9072	225.586	86.6996	225.586	86.6498	225.586	86.4104	225.586	86.3814	225.586	86.1207	225.586	86.115	225.586	85.8472	225.586	85.8668	225.586	85.61	225.586	85.6552	225.586	85.4304	225.586	85.4967	225.586	85.3258	225.586	85.4019	225.586	85.3012	225.586	85.3719	225.586	85.3429	225.586	85.3956	225.586	85.4207	225.586	85.4517	225.586	85.4983	225.586	85.512	225.586	85.5462	225.586	85.5496
232.91	87.8742	232.91	87.8364	232.91	87.8479	232.91	87.7377	232.91	87.7572	232.91	87.5843	232.91	87.6038	232.91	87.3847	232.91	87.3916	232.91	87.1487	232.91	87.1259	232.91	86.8857	232.91	86.8128	232.91	86.6032	232.91	86.4599	232.91	86.3077	232.91	86.0776	232.91	86.007	232.91	85.6825	232.91	85.7133	232.91	85.3021	232.91	85.4455	232.91	84.9765	232.91	85.2276	232.91	84.7508	232.91	85.0814	232.91	84.656	232.91	85.0163	232.91	84.6885	232.91	85.0217	232.91	84.8065	232.91	85.0671	232.91	84.9492	232.91	85.1117	232.91	85.0631	232.91	85.1179
241.699	87.7539	241.699	87.6935	241.699	87.7561	241.699	87.5768	241.699	87.7	241.699	87.4076	241.699	87.5872	241.699	87.1917	241.699	87.4202	241.699	86.936	241.699	87.2017	241.699	86.6485	241.699	86.9342	241.699	86.3386	241.699	86.6208	241.699	86.0186	241.699	86.2656	241.699	85.7053	241.699	85.8769	241.699	85.4196	241.699	85.4704	241.699	85.1841	241.699	85.0739	241.699	85.0159	241.699	84.7292	241.699	84.9199	241.699	84.4854	241.699	84.8854	241.699	84.3781	241.699	84.8877	241.699	84.4062	241.699	84.8942	241.699	84.5267	241.699	84.8726	241.699	84.6762	241.699	84.8005
250.488	87.866	250.488	87.808	250.488	87.8541	250.488	87.6783	250.488	87.7767	250.488	87.4775	250.488	87.6401	250.488	87.2089	250.488	87.4518	250.488	86.8788	250.488	87.2194	250.488	86.4965	250.488	86.9496	250.488	86.0744	250.488	86.6474	250.488	85.6299	250.488	86.3173	250.488	85.1868	250.488	85.9664	250.488	84.7782	250.488	85.6089	250.488	84.4445	250.488	85.2692	250.488	84.2232	250.488	84.98	250.488	84.1326	250.488	84.7719	250.488	84.1601	250.488	84.6574	250.488	84.2659	250.488	84.6214	250.488	84.4004	250.488	84.6268	250.488	84.5206	250.488	84.6304	250.488	84.5996
259.277	87.9825	259.277	87.9701	259.277	87.9387	259.277	87.9007	259.277	87.8398	259.277	87.7728	259.277	87.6883	259.277	87.584	259.277	87.4882	259.277	87.3314	259.277	87.2449	259.277	87.0128	259.277	86.9653	259.277	86.6298	259.277	86.656	259.277	86.1906	259.277	86.3234	259.277	85.7143	259.277	85.9734	259.277	85.2346	259.277	85.6151	259.277	84.8016	259.277	85.2663	259.277	84.4744	259.277	84.9594	259.277	84.2997	259.277	84.7362	259.277	84.2855	259.277	84.6283	259.277	84.3922	259.277	84.6314	259.277	84.5509	259.277	84.6982	259.277	84.6919	259.277	84.7618	259.277	84.7672
268.066	87.6321	268.066	87.6045	268.066	87.5931	268.066	87.5124	268.066	87.4892	268.066	87.362	268.066	87.3251	268.066	87.1619	268.066	87.1071	268.066	86.9207	268.066	86.8419	268.066	86.6436	268.066	86.5369	268.066	86.3317	268.066	86.2011	268.066	85.9844	268.066	85.8472	268.066	85.6052	268.066	85.492	268.066	85.2093	268.066	85.1543	268.066	84.83	268.066	84.8514	268.066	84.5164	268.066	84.5985	268.066	84.3158	268.066	84.4102	268.066	84.2462	268.066	84.3011	268.066	84.2804	268.066	84.2761	268.066	84.359	268.066	84.3178	268.066	84.421	268.066	84.3851	268.066	84.43
276.855	87.4537	276.855	87.4113	276.855	87.4292	276.855	87.3004	276.855	87.3407	276.855	87.1214	276.855	87.192	276.855	86.8783	276.855	86.9862	276.855	86.5804	276.855	86.7244	276.855	86.2425	276.855	86.4062	276.855	85.8817	276.855	86.0336	276.855	85.5123	276.855	85.6178	276.855	85.1434	276.855	85.1871	276.855	84.7837	276.855	84.7872	276.855	84.4534	276.855	84.4677	276.855	84.1927	276.855	84.2601	276.855	84.0502	276.855	84.163	276.855	84.0477	276.855	84.1498	276.855	84.15	276.855	84.1898	276.855	84.28	276.855	84.2587	276.855	84.3664	276.855	84.3326	276.855	84.3797
287.109	87.7138	287.109	87.6986	287.109	87.6634	287.109	87.6224	287.109	87.5435	287.109	87.4862	287.109	87.3548	287.109	87.2851	287.109	87.1062	287.109	87.0082	287.109	86.8139	287.109	86.6428	287.109	86.495	287.109	86.1834	287.109	86.1585	287.109	85.6439	287.109	85.8012	287.109	85.0675	287.109	85.4159	287.109	84.5242	287.109	85.0094	287.109	84.0877	287.109	84.6184	287.109	83.8013	287.109	84.3046	287.109	83.6645	287.109	84.1228	287.109	83.6513	287.109	84.0811	287.109	83.7318	287.109	84.1307	287.109	83.8734	287.109	84.1966	287.109	84.0321	287.109	84.2159	287.109	84.1586
297.363	87.6181	297.363	87.6126	297.363	87.5381	297.363	87.5296	297.363	87.3717	297.363	87.3827	297.363	87.1223	297.363	87.1852	297.363	86.7929	297.363	86.9435	297.363	86.3828	297.363	86.6515	297.363	85.8911	297.363	86.293	297.363	85.3261	297.363	85.8501	297.363	84.7188	297.363	85.3202	297.363	84.1329	297.363	84.7369	297.363	83.6635	297.363	84.1863	297.363	83.4109	297.363	83.7938	297.363	83.4281	297.363	83.6581	297.363	83.678	297.363	83.7759	297.363	84.0485	297.363	84.0491	297.363	84.4133	297.363	84.3595	297.363	84.6803	297.363	84.6203	297.363	84.8047	297.363	84.7793
307.617	87.7894	307.617	87.7248	307.617	87.7845	307.617	87.5895	307.617	87.7142	307.617	87.3865	307.617	87.5844	307.617	87.1255	307.617	87.4016	307.617	86.8223	307.617	87.1685	307.617	86.4928	307.617	86.8773	307.617	86.1447	307.617	86.5058	307.617	85.7717	307.617	86.0225	307.617	85.3584	307.617	85.4025	307.617	84.8985	307.617	84.6537	307.617	84.4176	307.617	83.8483	307.617	83.9862	307.617	83.145	307.617	83.6989	307.617	82.747	307.617	83.6137	307.617	82.7542	307.617	83.6976	307.617	83.0597	307.617	83.8473	307.617	83.4528	307.617	83.9533	307.617	83.7705	307.617	83.9398
319.336	87.466	319.336	87.4043	319.336	87.4489	319.336	87.2704	319.336	87.3482	319.336	87.0704	319.336	87.1624	319.336	86.8062	319.336	86.8941	319.336	86.4749	319.336	86.5512	319.336	86.0717	319.336	86.149	319.336	85.5955	319.336	85.7086	319.336	85.0558	319.336	85.2505	319.336	84.4779	319.336	84.785	319.336	83.9076	319.336	84.3112	319.336	83.4124	319.336	83.835	319.336	83.0744	319.336	83.3982	319.336	82.9609	319.336	83.0933	319.336	83.0816	319.336	83.0203	319.336	83.3651	319.336	83.1961	319.336	83.6853	319.336	83.5144	319.336	83.914	319.336	83.8131	319.336	83.9642
329.59	87.4016	329.59	87.368	329.59	87.3648	329.59	87.2657	329.59	87.258	329.59	87.0974	329.59	87.0838	329.59	86.8642	329.59	86.8461	329.59	86.5641	329.59	86.5487	329.59	86.1914	329.59	86.1936	329.59	85.7402	329.59	85.7812	329.59	85.2095	329.59	85.3113	329.59	84.61	329.59	84.787	329.59	83.9716	329.59	84.2242	329.59	83.354	329.59	83.6666	329.59	82.8531	329.59	83.1979	329.59	82.5801	329.59	82.9219	329.59	82.5949	329.59	82.8975	329.59	82.8433	329.59	83.0789	329.59	83.1818	329.59	83.338	329.59	83.4627	329.59	83.5392	329.59	83.5916
341.309	87.325	341.309	87.2825	341.309	87.2628	341.309	87.1399	341.309	87.1038	341.309	86.9129	341.309	86.8671	341.309	86.6242	341.309	86.5787	341.309	86.2958	341.309	86.2628	341.309	85.9367	341.309	85.9315	341.309	85.5373	341.309	85.5823	341.309	85.075	341.309	85.2083	341.309	84.534	341.309	84.8115	341.309	83.9273	341.309	84.4084	341.309	83.3099	341.309	84.0222	341.309	82.7741	341.309	83.6762	341.309	82.4201	341.309	83.3966	341.309	82.3092	341.309	83.2146	341.309	82.4241	341.309	83.1455	341.309	82.6723	341.309	83.1576	341.309	82.9322	341.309	83.1727	341.309	83.1097
353.027	87.1942	353.027	87.1519	353.027	87.1358	353.027	87.0155	353.027	86.9703	353.027	86.793	353.027	86.6948	353.027	86.4984	353.027	86.3148	353.027	86.1523	353.027	85.846	353.027	85.7756	353.027	85.3109	353.027	85.3749	353.027	84.7333	353.027	84.9329	353.027	84.1333	353.027	84.4184	353.027	83.5314	353.027	83.8192	353.027	82.9624	353.027	83.1814	353.027	82.4909	353.027	82.6255	353.027	82.2059	353.027	82.2938	353.027	82.1733	353.027	82.2427	353.027	82.3711	353.027	82.4036	353.027	82.6818	353.027	82.6579	353.027	82.9593	353.027	82.9067	353.027	83.1009	353.027	83.0742
366.211	87.5946	366.211	87.4605	366.211	87.6008	366.211	87.2037	366.211	87.4717	366.211	86.8249	366.211	87.202	366.211	86.3232	366.211	86.7924	366.211	85.7091	366.211	86.2554	366.211	85.0243	366.211	85.6195	366.211	84.3527	366.211	84.9263	366.211	83.7981	366.211	84.2212	366.211	83.4214	366.211	83.5448	366.211	83.1981	366.211	82.9353	366.211	83.0531	366.211	82.4348	366.211	82.9335	366.211	82.0855	366.211	82.8414	366.211	81.9092	366.211	82.8036	366.211	81.8941	366.211	82.8161	366.211	82.0042	366.211	82.8265	366.211	82.1959	366.211	82.773	366.211	82.4223	366.211	82.6309
379.395	88.3985	379.395	88.3656	379.395	88.339	379.395	88.2406	379.395	88.1886	379.395	88.0223	379.395	87.9465	379.395	87.6999	379.395	87.6053	379.395	87.2448	379.395	87.1489	379.395	86.6161	379.395	86.5556	379.395	85.7827	379.395	85.8074	379.395	84.7616	379.395	84.9111	379.395	83.663	379.395	83.937	379.395	82.7093	379.395	83.0687	379.395	82.1494	379.395	82.576	379.395	82.0723	379.395	82.6007	379.395	82.3607	379.395	82.9843	379.395	82.8332	379.395	83.4484	379.395	83.3417	379.395	83.8226	379.395	83.7778	379.395	84.067	379.395	84.0723	379.395	84.1946	379.395	84.2049
392.578	87.6838	392.578	87.6364	392.578	87.636	392.578	87.4966	392.578	87.4979	392.578	87.2758	392.578	87.2774	392.578	86.9876	392.578	86.9774	392.578	86.6328	392.578	86.5902	392.578	86.1864	392.578	86.0956	392.578	85.6011	392.578	85.4669	392.578	84.8334	392.578	84.6836	392.578	83.8952	392.578	83.7544	392.578	82.9265	392.578	82.7606	392.578	82.2309	392.578	81.925	392.578	82.1059	392.578	81.5999	392.578	82.528	392.578	81.9715	392.578	83.1995	392.578	82.7958	392.578	83.8588	392.578	83.6704	392.578	84.3813	392.578	84.3455	392.578	84.7212	392.578	84.7376	392.578	84.8512
405.762	87.4408	405.762	87.4219	405.762	87.3664	405.762	87.2969	405.762	87.208	405.762	87.0586	405.762	86.9667	405.762	86.7131	405.762	86.6369	405.762	86.2766	405.762	86.2093	405.762	85.7594	405.762	85.6708	405.762	85.1465	405.762	85.0016	405.762	84.3944	405.762	84.1759	405.762	83.463	405.762	83.1845	405.762	82.395	405.762	82.1015	405.762	81.435	405.762	81.1993	405.762	81.0351	405.762	80.9271	405.762	81.4229	405.762	81.4436	405.762	82.2545	405.762	82.3506	405.762	83.0686	405.762	83.1912	405.762	83.6533	405.762	83.7647	405.762	83.9902	405.762	84.0571	405.762	84.1201
420.41	87.7814	420.41	87.6916	420.41	87.8105	420.41	87.5551	420.41	87.7677	420.41	87.374	420.41	87.6488	420.41	87.1288	420.41	87.4455	420.41	86.7812	420.41	87.1318	420.41	86.2853	420.41	86.6601	420.41	85.5958	420.41	85.9728	420.41	84.6701	420.41	85.0158	420.41	83.4704	420.41	83.7455	420.41	81.9979	420.41	82.1362	420.41	80.4226	420.41	80.2417	420.41	79.3215	420.41	78.4809	420.41	79.4088	420.41	77.9926	420.41	80.4668	420.41	79.2396	420.41	81.7146	420.41	81.0112	420.41	82.7266	420.41	82.4284	420.41	83.3669	420.41	83.2784	420.41	83.5715
435.059	86.4943	435.059	86.4568	435.059	86.4388	435.059	86.3437	435.059	86.2968	435.059	86.1838	435.059	86.0988	435.059	85.9959	435.059	85.8847	435.059	85.7687	435.059	85.6749	435.059	85.457	435.059	85.4421	435.059	84.9964	435.059	85.1098	435.059	84.3278	435.059	84.5878	435.059	83.4211	435.059	83.8262	435.059	82.3118	435.059	82.8701	435.059	81.1771	435.059	81.9078	435.059	80.4096	435.059	81.2496	435.059	80.4187	435.059	81.1333	435.059	81.1395	435.059	81.5128	435.059	82.1037	435.059	82.1478	435.059	82.9234	435.059	82.803	435.059	83.4178	435.059	83.3067	435.059	83.5373
451.172	86.8414	451.172	86.7795	451.172	86.8512	451.172	86.6768	451.172	86.7953	451.172	86.5416	451.172	86.6601	451.172	86.3762	451.172	86.4352	451.172	86.1671	451.172	86.1122	451.172	85.8752	451.172	85.6742	451.172	85.4313	451.172	85.0799	451.172	84.7417	451.172	84.2528	451.172	83.7051	451.172	83.0864	451.172	82.2504	451.172	81.48	451.172	80.443	451.172	79.4886	451.172	78.8004	451.172	77.8423	451.172	78.479	451.172	78.0426	451.172	79.7238	451.172	79.7754	451.172	81.3792	451.172	81.5488	451.172	82.7035	451.172	82.8266	451.172	83.5111	451.172	83.5653	451.172	83.7925
465.82	86.8707	465.82	86.8085	465.82	86.8561	465.82	86.6466	465.82	86.783	465.82	86.3865	465.82	86.6542	465.82	86.069	465.82	86.466	465.82	85.7469	465.82	86.2178	465.82	85.4297	465.82	85.9022	465.82	85.0581	465.82	85.4864	465.82	84.5349	465.82	84.9	465.82	83.7688	465.82	84.0408	465.82	82.7092	465.82	82.8019	465.82	81.421	465.82	81.1549	465.82	80.2586	465.82	79.4203	465.82	79.8868	465.82	78.6279	465.82	80.524	465.82	79.3996	465.82	81.5621	465.82	80.769	465.82	82.4248	465.82	81.9106	465.82	82.9002	465.82	82.6385	465.82	82.9655
483.398	86.9175	483.398	86.8574	483.398	86.8496	483.398	86.7118	483.398	86.6623	483.398	86.5382	483.398	86.4157	483.398	86.364	483.398	86.1833	483.398	86.1686	483.398	85.997	483.398	85.8958	483.398	85.8178	483.398	85.4635	483.398	85.5524	483.398	84.758	483.398	85.0904	483.398	83.6368	483.398	84.3288	483.398	81.9652	483.398	83.189	483.398	79.7641	483.398	81.6829	483.398	77.8118	483.398	80.1606	483.398	77.9695	483.398	79.6033	483.398	79.8408	483.398	80.5294	483.398	81.6328	483.398	81.9766	483.398	82.8514	483.398	83.1108	483.398	83.5584	483.398	83.7217	483.398	83.8479
499.512	87.2103	499.512	87.1427	499.512	87.1143	499.512	86.908	499.512	86.8966	499.512	86.5617	499.512	86.6104	499.512	86.2036	499.512	86.308	499.512	85.9093	499.512	86.0299	499.512	85.6572	499.512	85.7726	499.512	85.3312	499.512	85.4526	499.512	84.7866	499.512	84.9117	499.512	83.8841	499.512	83.951	499.512	82.4702	499.512	82.3601	499.512	80.3874	499.512	79.9996	499.512	77.8138	499.512	77.3386	499.512	76.6117	499.512	76.7292	499.512	78.4227	499.512	78.7648	499.512	80.827	499.512	80.9655	499.512	82.5578	499.512	82.5419	499.512	83.5317	499.512	83.4841	499.512	83.8211
517.09	86.9938	517.09	86.9114	517.09	86.9596	517.09	86.7522	517.09	86.7868	517.09	86.5462	517.09	86.5189	517.09	86.3284	517.09	86.2722	517.09	86.1579	517.09	86.1567	517.09	86.0755	517.09	86.1581	517.09	86.0137	517.09	86.1226	517.09	85.7778	517.09	85.85	517.09	85.1276	517.09	85.1695	517.09	83.8425	517.09	83.941	517.09	81.735	517.09	82.0169	517.09	78.801	517.09	79.3308	517.09	76.4541	517.09	76.9333	517.09	77.6559	517.09	77.8043	517.09	80.201	517.09	80.3365	517.09	82.0455	517.09	82.1953	517.09	83.0742	517.09	83.1726	517.09	83.4342
536.133	87.2056	536.133	87.0367	536.133	87.1186	536.133	86.6363	536.133	86.7703	536.133	86.0605	536.133	86.1854	536.133	85.4225	536.133	85.4582	536.133	84.8919	536.133	84.7966	536.133	84.6083	536.133	84.4415	536.133	84.5524	536.133	84.4048	536.133	84.5285	536.133	84.3938	536.133	84.2554	536.133	84.0551	536.133	83.4298	536.133	83.1221	536.133	81.7451	536.133	81.4161	536.133	79.0436	536.133	79.0005	536.133	76.5556	536.133	77.0984	536.133	77.6356	536.133	77.9235	536.133	80.2545	536.133	80.1307	536.133	82.1493	536.133	81.9508	536.133	83.1814	536.133	83.0622	536.133	83.4694
555.176	87.6056	555.176	87.5365	555.176	87.4434	555.176	87.2075	555.176	87.1269	555.176	86.663	555.176	86.7302	555.176	86.0148	555.176	86.2776	555.176	85.4065	555.176	85.7579	555.176	84.9402	555.176	85.1973	555.176	84.5901	555.176	84.6853	555.176	84.1929	555.176	84.2532	555.176	83.5318	555.176	83.7269	555.176	82.4002	555.176	82.7672	555.176	80.5608	555.176	80.978	555.176	77.6399	555.176	77.9174	555.176	73.7595	555.176	73.8443	555.176	74.3274	555.176	74.495	555.176	78.3476	555.176	78.4207	555.176	80.9763	555.176	80.994	555.176	82.2961	555.176	82.3025	555.176	82.6934
574.219	87.273	574.219	87.142	574.219	87.2193	574.219	86.833	574.219	86.958	574.219	86.364	574.219	86.4827	574.219	85.7998	574.219	85.873	574.219	85.2518	574.219	85.3056	574.219	84.8503	574.219	84.9453	574.219	84.6632	574.219	84.8	574.219	84.5595	574.219	84.7008	574.219	84.2123	574.219	84.3907	574.219	83.2556	574.219	83.5826	574.219	81.3722	574.219	81.9489	574.219	78.3354	574.219	79.0977	574.219	74.7114	574.219	75.0397	574.219	74.5993	574.219	73.9812	574.219	77.726	574.219	77.2535	574.219	80.1732	574.219	79.803	574.219	81.4634	574.219	81.2238	574.219	81.7665
594.727	87.3338	594.727	87.1172	594.727	87.2684	594.727	86.6689	594.727	86.9234	594.727	86.0549	594.727	86.3544	594.727	85.3527	594.727	85.6448	594.727	84.7089	594.727	84.9236	594.727	84.3288	594.727	84.4188	594.727	84.2964	594.727	84.318	594.727	84.4556	594.727	84.4552	594.727	84.5137	594.727	84.3956	594.727	84.1614	594.727	83.7628	594.727	83.1143	594.727	82.3215	594.727	81.1146	594.727	79.9518	594.727	78.034	594.727	76.988	594.727	75.1218	594.727	75.7304	594.727	76.0201	594.727	77.5171	594.727	78.5228	594.727	79.5124	594.727	80.1993	594.727	80.6475	594.727	80.8807
615.234	88.2051	615.234	88.096	615.234	88.0529	615.234	87.6841	615.234	87.6749	615.234	86.9622	615.234	87.0709	615.234	85.9846	615.234	86.2446	615.234	84.8998	615.234	85.3209	615.234	83.9976	615.234	84.5807	615.234	83.6019	615.234	84.2269	615.234	83.6734	615.234	84.1693	615.234	83.7329	615.234	84.1347	615.234	83.2613	615.234	83.7736	615.234	81.8773	615.234	82.6773	615.234	79.3002	615.234	80.45	615.234	75.8535	615.234	77.0488	615.234	75.2557	615.234	75.1986	615.234	78.2181	615.234	77.8006	615.234	80.6818	615.234	80.5028	615.234	82.0635	615.234	82.025	615.234	82.502
637.207	88.7974	637.207	88.6128	637.207	88.7612	637.207	88.2337	637.207	88.4239	637.207	87.618	637.207	87.7106	637.207	86.6912	637.207	86.6268	637.207	85.4515	637.207	85.3164	637.207	84.1813	637.207	84.1457	637.207	83.5155	637.207	83.6602	637.207	83.6818	637.207	83.9271	637.207	84.045	637.207	84.2874	637.207	83.96	637.207	84.1365	637.207	83.0523	637.207	83.1352	637.207	80.9825	637.207	80.9367	637.207	77.5125	637.207	77.2365	637.207	75.2808	637.207	75.1904	637.207	78.5247	637.207	78.6251	637.207	81.7059	637.207	81.5691	637.207	83.3898	637.207	83.1992	637.207	83.8132
659.18	88.7234	659.18	88.6433	659.18	88.5918	659.18	88.3097	659.18	88.2825	659.18	87.6859	659.18	87.8063	659.18	86.7876	659.18	87.1276	659.18	85.7418	659.18	86.2072	659.18	84.7444	659.18	85.128	659.18	83.9399	659.18	84.1686	659.18	83.4325	659.18	83.6228	659.18	83.1735	659.18	83.4278	659.18	82.742	659.18	83.1131	659.18	81.6425	659.18	82.1163	659.18	79.5086	659.18	79.951	659.18	75.9252	659.18	76.2718	659.18	72.9721	659.18	73.1791	659.18	76.2271	659.18	76.0753	659.18	79.3734	659.18	79.3896	659.18	81.0413	659.18	81.179	659.18	81.6492
682.617	88.5158	682.617	88.3835	682.617	88.3867	682.617	87.9769	682.617	88.0211	682.617	87.3341	682.617	87.4159	682.617	86.5456	682.617	86.5279	682.617	85.6677	682.617	85.3768	682.617	84.6977	682.617	84.2641	682.617	83.8013	682.617	83.6851	682.617	83.3862	682.617	83.6808	682.617	83.469	682.617	83.8422	682.617	83.4314	682.617	83.7257	682.617	82.6466	682.617	82.806	682.617	80.7229	682.617	80.5585	682.617	77.2347	682.617	76.524	682.617	71.9194	682.617	71.9631	682.617	73.6201	682.617	75.1322	682.617	78.3221	682.617	78.923	682.617	80.5146	682.617	80.6842	682.617	81.126
707.52	88.5416	707.52	88.3781	707.52	88.4621	707.52	88.0217	707.52	88.0932	707.52	87.4397	707.52	87.4273	707.52	86.495	707.52	86.4383	707.52	85.0521	707.52	85.0729	707.52	83.2796	707.52	83.465	707.52	82.0029	707.52	82.2764	707.52	81.9201	707.52	82.2141	707.52	82.4173	707.52	82.6891	707.52	82.681	707.52	82.7006	707.52	82.1852	707.52	81.8661	707.52	80.4516	707.52	79.9811	707.52	77.3144	707.52	76.6414	707.52	74.7398	707.52	73.9572	707.52	76.7214	707.52	76.7608	707.52	79.7446	707.52	79.5883	707.52	81.5542	707.52	81.2694	707.52	81.9966
732.422	87.4986	732.422	87.417	732.422	87.4154	732.422	87.1147	732.422	87.1603	732.422	86.571	732.422	86.6688	732.422	85.8352	732.422	85.9234	732.422	84.9055	732.422	84.948	732.422	83.6954	732.422	83.6898	732.422	82.4406	732.422	82.2187	732.422	81.9323	732.422	81.2845	732.422	82.1506	732.422	81.5085	732.422	82.1509	732.422	81.9343	732.422	81.4412	732.422	81.5822	732.422	79.657	732.422	80.0353	732.422	75.8573	732.422	76.8329	732.422	70.2215	732.422	72.1565	732.422	73.292	732.422	73.921	732.422	77.298	732.422	77.8166	732.422	79.4775	732.422	79.7712	732.422	80.2755
757.324	87.7399	757.324	87.5513	757.324	87.5284	757.324	87.0582	757.324	87.0625	757.324	86.4189	757.324	86.5348	757.324	85.5604	757.324	85.8665	757.324	84.3141	757.324	84.7699	757.324	82.778	757.324	83.2054	757.324	81.1505	757.324	81.7375	757.324	79.7718	757.324	81.073	757.324	79.7183	757.324	81.0777	757.324	80.4908	757.324	81.2279	757.324	80.5447	757.324	80.9431	757.324	79.2936	757.324	79.4453	757.324	76.0641	757.324	75.9831	757.324	70.4919	757.324	70.7307	757.324	73.5544	757.324	72.003	757.324	77.7314	757.324	76.3866	757.324	79.2986	757.324	78.6433	757.324	79.447
785.156	86.4611	785.156	86.0856	785.156	86.7503	785.156	85.667	785.156	86.8077	785.156	85.1596	785.156	86.5439	785.156	84.4646	785.156	85.9471	785.156	83.3044	785.156	85.0352	785.156	81.3799	785.156	83.9041	785.156	79.2736	785.156	82.5519	785.156	78.6088	785.156	80.678	785.156	78.7329	785.156	78.4969	785.156	78.3074	785.156	77.4519	785.156	77.0856	785.156	77.1168	785.156	74.6018	785.156	75.6684	785.156	69.7199	785.156	71.4804	785.156	65.0912	785.156	57.8674	785.156	73.6153	785.156	73.1077	785.156	78.5085	785.156	78.8163	785.156	81.0053	785.156	81.3245	785.156	81.9428
811.523	86.7361	811.523	86.9916	811.523	86.5456	811.523	87.2038	811.523	86.4428	811.523	87.2307	811.523	86.1639	811.523	86.9072	811.523	85.3454	811.523	86.1341	811.523	83.6883	811.523	84.904	811.523	80.9947	811.523	83.3451	811.523	77.8274	811.523	82.2549	811.523	76.4532	811.523	82.4892	811.523	76.8839	811.523	82.9166	811.523	77.0735	811.523	82.4782	811.523	76.4092	811.523	81.07	811.523	74.1348	811.523	78.8676	811.523	68.5322	811.523	76.1951	811.523	68.4826	811.523	75.587	811.523	75.5695	811.523	78.7803	811.523	79.5721	811.523	81.436	811.523	81.7896	811.523	82.4293
840.82	88.483	840.82	88.2468	840.82	88.3546	840.82	87.7534	840.82	87.9772	840.82	86.9819	840.82	87.5472	840.82	85.7621	840.82	87.0466	840.82	84.1806	840.82	86.4105	840.82	82.4318	840.82	85.617	840.82	80.5826	840.82	84.4137	840.82	78.5741	840.82	82.9194	840.82	76.0078	840.82	82.5662	840.82	73.8557	840.82	83.132	840.82	74.3289	840.82	82.9964	840.82	73.5792	840.82	82.1845	840.82	68.5807	840.82	80.3596	840.82	61.76	840.82	76.3255	840.82	66.2473	840.82	70.1815	840.82	70.0459	840.82	65.9309	840.82	72.1073	840.82	63.7342	840.82	69.8032
870.117	87.633	870.117	87.3931	870.117	87.5745	870.117	86.8713	870.117	87.121	870.117	86.2438	870.117	86.2227	870.117	85.5131	870.117	85.1147	870.117	84.3382	870.117	83.8586	870.117	82.744	870.117	82.1389	870.117	80.8828	870.117	80.186	870.117	79.2094	870.117	79.1064	870.117	79.2942	870.117	78.8345	870.117	80.0055	870.117	78.0865	870.117	79.9302	870.117	77.1577	870.117	79.0022	870.117	75.7266	870.117	77.5735	870.117	72.3543	870.117	75.3901	870.117	70.2662	870.117	73.523	870.117	72.2858	870.117	76.7428	870.117	76.3672	870.117	79.1375	870.117	79.3109	870.117	79.9782
900.879	87.9546	900.879	87.8306	900.879	87.6987	900.879	87.4777	900.879	87.2412	900.879	86.9719	900.879	86.8366	900.879	86.1236	900.879	86.3202	900.879	84.6203	900.879	85.4856	900.879	82.357	900.879	84.3947	900.879	79.9949	900.879	83.0852	900.879	77.9959	900.879	81.5295	900.879	75.8	900.879	80.4513	900.879	75.69	900.879	80.2921	900.879	76.6256	900.879	79.5744	900.879	75.3429	900.879	77.9813	900.879	72.1941	900.879	75.6458	900.879	66.296	900.879	72.9499	900.879	60.8304	900.879	74.4945	900.879	71.8869	900.879	76.2287	900.879	76.3631	900.879	76.9926	900.879	77.4792
933.105	87.8925	933.105	87.5541	933.105	88.1092	933.105	87.0618	933.105	87.9918	933.105	86.2469	933.105	87.3567	933.105	85.2524	933.105	86.2001	933.105	84.3681	933.105	84.6397	933.105	83.4094	933.105	82.8082	933.105	81.9259	933.105	81.0806	933.105	80.6016	933.105	79.8896	933.105	80.4693	933.105	78.5456	933.105	79.731	933.105	76.951	933.105	78.1227	933.105	75.5815	933.105	76.3828	933.105	73.0181	933.105	73.2882	933.105	69.6875	933.105	74.035	933.105	70.643	933.105	77.5035	933.105	73.6254	933.105	78.8994	933.105	77.7613	933.105	79.8438	933.105	80.4594	933.105	80.8927
965.332	88.6245	965.332	88.5796	965.332	88.1449	965.332	88.1332	965.332	87.5413	965.332	87.6198	965.332	87.0148	965.332	86.6804	965.332	86.4281	965.332	84.8934	965.332	85.7261	965.332	82.4431	965.332	84.7185	965.332	79.2228	965.332	83.1639	965.332	76.2418	965.332	81.4928	965.332	76.5361	965.332	81.3998	965.332	76.9421	965.332	82.0245	965.332	75.9127	965.332	81.5359	965.332	73.7966	965.332	80.7743	965.332	73.2568	965.332	79.6755	965.332	74.9576	965.332	78.1663	965.332	76.3038	965.332	77.6533	965.332	77.9408	965.332	77.0092	965.332	78.4474	965.332	75.9078	965.332	76.8875
1,000.49	87.9329	1,000.49	87.6693	1,000.49	87.8196	1,000.49	87.0445	1,000.49	87.4131	1,000.49	86.3525	1,000.49	86.7209	1,000.49	86.0093	1,000.49	85.6752	1,000.49	85.6931	1,000.49	84.1836	1,000.49	84.6937	1,000.49	82.0721	1,000.49	82.9499	1,000.49	78.6723	1,000.49	80.6562	1,000.49	73.7265	1,000.49	79.7564	1,000.49	75.7216	1,000.49	81.1416	1,000.49	77.4758	1,000.49	80.9851	1,000.49	74.8613	1,000.49	77.6833	1,000.49	66.497	1,000.49	70.7956	1,000.49	65.1599	1,000.49	72.6202	1,000.49	74.9093	1,000.49	77.9754	1,000.49	78.6624	1,000.49	80.2828	1,000.49	80.8363	1,000.49	81.2057	1,000.49	82.336	1,000.49	82.2283
1,035.64	86.173	1,035.64	86.0732	1,035.64	85.9508	1,035.64	85.4916	1,035.64	85.4567	1,035.64	84.9054	1,035.64	84.9006	1,035.64	84.9003	1,035.64	84.8806	1,035.64	84.9305	1,035.64	85.1613	1,035.64	83.9004	1,035.64	84.5151	1,035.64	80.9716	1,035.64	81.6883	1,035.64	75.3064	1,035.64	76.6696	1,035.64	75.2288	1,035.64	74.142	1,035.64	80.0634	1,035.64	78.8079	1,035.64	81.2319	1,035.64	80.8825	1,035.64	79.3353	1,035.64	78.1899	1,035.64	71.2703	1,035.64	62.8566	1,035.64	73.3344	1,035.64	76.3126	1,035.64	81.4724	1,035.64	82.4405	1,035.64	84.3233	1,035.64	84.5644	1,035.64	85.6843	1,035.64	85.214	1,035.64	85.7494
1,072.27	87.3442	1,072.27	87.1724	1,072.27	86.7384	1,072.27	86.7504	1,072.27	85.6029	1,072.27	86.4928	1,072.27	84.5607	1,072.27	86.0529	1,072.27	84.3349	1,072.27	85.5344	1,072.27	84.6949	1,072.27	85.2494	1,072.27	84.7982	1,072.27	84.2058	1,072.27	83.9338	1,072.27	80.6412	1,072.27	80.2357	1,072.27	75.7663	1,072.27	74.4056	1,072.27	80.2979	1,072.27	79.2626	1,072.27	82.971	1,072.27	81.68	1,072.27	81.9342	1,072.27	81.0296	1,072.27	76.8586	1,072.27	76.6832	1,072.27	73.4471	1,072.27	71.4151	1,072.27	80.8928	1,072.27	76.8516	1,072.27	84.2229	1,072.27	82.4544	1,072.27	85.3307	1,072.27	85.3995	1,072.27	85.9132
1,108.89	88.2172	1,108.89	87.7002	1,108.89	88.2408	1,108.89	86.3941	1,108.89	87.6895	1,108.89	84.503	1,108.89	86.5308	1,108.89	83.6626	1,108.89	85.0377	1,108.89	84.1584	1,108.89	84.18	1,108.89	84.3933	1,108.89	84.3001	1,108.89	83.305	1,108.89	83.5034	1,108.89	80.0722	1,108.89	80.4693	1,108.89	71.0786	1,108.89	72.1509	1,108.89	76.7436	1,108.89	73.1697	1,108.89	82.3467	1,108.89	80.9916	1,108.89	82.867	1,108.89	81.4873	1,108.89	79.6992	1,108.89	77.3319	1,108.89	73.764	1,108.89	71.0191	1,108.89	78.247	1,108.89	78.8211	1,108.89	82.0844	1,108.89	82.503	1,108.89	83.6271	1,108.89	83.6818	1,108.89	83.988
1,148.44	88.6001	1,148.44	88.238	1,148.44	88.1847	1,148.44	87.2336	1,148.44	87.2363	1,148.44	85.6118	1,148.44	85.764	1,148.44	83.4275	1,148.44	83.3765	1,148.44	82.3269	1,148.44	81.6863	1,148.44	83.2805	1,148.44	82.7383	1,148.44	84.1647	1,148.44	83.4646	1,148.44	83.2627	1,148.44	82.1615	1,148.44	78.4918	1,148.44	77.022	1,148.44	61.7886	1,148.44	60.946	1,148.44	77.3777	1,148.44	77.7785	1,148.44	80.3616	1,148.44	81.9308	1,148.44	79.3613	1,148.44	82.5063	1,148.44	74.8206	1,148.44	79.563	1,148.44	76.03	1,148.44	75.7931	1,148.44	82.6819	1,148.44	81.829	1,148.44	85.6736	1,148.44	85.1757	1,148.44	86.2332
1,189.45	88.9777	1,189.45	88.8758	1,189.45	88.9252	1,189.45	88.1566	1,189.45	88.5599	1,189.45	86.8027	1,189.45	87.4197	1,189.45	84.4348	1,189.45	85.5772	1,189.45	81.1184	1,189.45	83.0011	1,189.45	80.2289	1,189.45	81.4431	1,189.45	81.4336	1,189.45	83.1412	1,189.45	82.1108	1,189.45	84.1925	1,189.45	79.8265	1,189.45	82.329	1,189.45	69.464	1,189.45	74.4667	1,189.45	74.9394	1,189.45	73.0341	1,189.45	80.7699	1,189.45	77.8864	1,189.45	80.9268	1,189.45	77.4335	1,189.45	77.4919	1,189.45	75.481	1,189.45	77.5757	1,189.45	78.3347	1,189.45	81.7322	1,189.45	82.3925	1,189.45	84.0331	1,189.45	84.7947	1,189.45	85.1495
1,230.47	88.9538	1,230.47	88.9137	1,230.47	88.8427	1,230.47	88.6685	1,230.47	88.6948	1,230.47	87.9436	1,230.47	88.2953	1,230.47	86.7068	1,230.47	87.1149	1,230.47	84.558	1,230.47	85.0211	1,230.47	81.7965	1,230.47	82.9174	1,230.47	81.7158	1,230.47	82.0976	1,230.47	82.4871	1,230.47	82.1354	1,230.47	81.2769	1,230.47	81.1821	1,230.47	76.624	1,230.47	76.7742	1,230.47	72.7342	1,230.47	74.1007	1,230.47	77.7633	1,230.47	80.2387	1,230.47	79.2956	1,230.47	81.9001	1,230.47	77.8728	1,230.47	79.3887	1,230.47	74.385	1,230.47	71.7217	1,230.47	77.4146	1,230.47	75.2829	1,230.47	80.9275	1,230.47	79.4104	1,230.47	81.2331
1,274.41	88.3683	1,274.41	88.257	1,274.41	88.3781	1,274.41	87.9622	1,274.41	88.1164	1,274.41	87.5804	1,274.41	87.2833	1,274.41	86.4413	1,274.41	86.306	1,274.41	84.2467	1,274.41	85.0919	1,274.41	81.6272	1,274.41	83.1207	1,274.41	80.1469	1,274.41	81.3599	1,274.41	80.0373	1,274.41	80.9916	1,274.41	79.1933	1,274.41	78.821	1,274.41	76.85	1,274.41	74.8999	1,274.41	72.3377	1,274.41	74.2315	1,274.41	77.4374	1,274.41	78.226	1,274.41	79.5908	1,274.41	79.9468	1,274.41	76.8908	1,274.41	78.5641	1,274.41	64.027	1,274.41	71.8137	1,274.41	72.0949	1,274.41	72.6834	1,274.41	78.9414	1,274.41	79.701	1,274.41	80.7222
1,319.82	88.47	1,319.82	88.2794	1,319.82	88.2923	1,319.82	87.9427	1,319.82	87.5278	1,319.82	86.8728	1,319.82	86.7355	1,319.82	85.5757	1,319.82	85.5195	1,319.82	84.2656	1,319.82	82.5809	1,319.82	81.9672	1,319.82	77.8502	1,319.82	79.6226	1,319.82	75.6833	1,319.82	79.7683	1,319.82	76.3866	1,319.82	79.1413	1,319.82	77.0514	1,319.82	75.9307	1,319.82	74.4613	1,319.82	73.2677	1,319.82	70.4317	1,319.82	76.2057	1,319.82	75.0849	1,319.82	77.1459	1,319.82	76.2812	1,319.82	75.8968	1,319.82	72.1826	1,319.82	70.7421	1,319.82	58.9703	1,319.82	70.0331	1,319.82	68.0521	1,319.82	74.9193	1,319.82	75.7234	1,319.82	77.6145
1,366.7	87.3541	1,366.7	86.996	1,366.7	86.9917	1,366.7	86.4692	1,366.7	86.2314	1,366.7	85.7165	1,366.7	85.6516	1,366.7	84.578	1,366.7	84.1831	1,366.7	82.9288	1,366.7	82.5583	1,366.7	80.18	1,366.7	81.1414	1,366.7	77.6814	1,366.7	79.2891	1,366.7	77.9476	1,366.7	79.1191	1,366.7	76.8702	1,366.7	78.8303	1,366.7	74.7944	1,366.7	76.3999	1,366.7	74.9935	1,366.7	74.9278	1,366.7	76.9974	1,366.7	76.8135	1,366.7	76.4775	1,366.7	77.6937	1,366.7	73.9123	1,366.7	76.5841	1,366.7	66.8405	1,366.7	68.8896	1,366.7	65.3675	1,366.7	68.9036	1,366.7	75.3689	1,366.7	76.0823	1,366.7	77.8653
1,413.57	85.5012	1,413.57	85.9673	1,413.57	84.9758	1,413.57	85.682	1,413.57	85.0316	1,413.57	85.3928	1,413.57	84.5694	1,413.57	84.6074	1,413.57	84.1509	1,413.57	83.0489	1,413.57	83.4151	1,413.57	80.7239	1,413.57	81.0017	1,413.57	77.5211	1,413.57	78.9828	1,413.57	76.2756	1,413.57	78.5641	1,413.57	76.9458	1,413.57	78.4865	1,413.57	74.9199	1,413.57	75.385	1,413.57	72.0829	1,413.57	70.1191	1,413.57	75.9616	1,413.57	75.6305	1,413.57	77.9053	1,413.57	77.3387	1,413.57	76.9648	1,413.57	74.8242	1,413.57	70.8969	1,413.57	64.8033	1,413.57	63.1143	1,413.57	69.6406	1,413.57	74.6467	1,413.57	74.4601	1,413.57	75.9332
1,463.38	87.2666	1,463.38	86.9118	1,463.38	87.3396	1,463.38	86.4564	1,463.38	86.6584	1,463.38	85.5712	1,463.38	85.3032	1,463.38	84.2129	1,463.38	84.6521	1,463.38	83.5682	1,463.38	83.0777	1,463.38	82.3192	1,463.38	80.2877	1,463.38	79.5208	1,463.38	77.5778	1,463.38	78.5768	1,463.38	75.4501	1,463.38	77.6699	1,463.38	74.0383	1,463.38	74.6026	1,463.38	68.7877	1,463.38	69.7938	1,463.38	68.1234	1,463.38	69.7109	1,463.38	71.5733	1,463.38	73.0476	1,463.38	74.9956	1,463.38	69.1307	1,463.38	71.09	1,463.38	68.4037	1,463.38	61.5878	1,463.38	75.0299	1,463.38	68.758	1,463.38	77.5	1,463.38	77.0934	1,463.38	78.9878
1,516.11	87.3381	1,516.11	86.9607	1,516.11	87.1944	1,516.11	86.0828	1,516.11	86.3008	1,516.11	84.8812	1,516.11	85.195	1,516.11	84.0947	1,516.11	83.9574	1,516.11	82.8033	1,516.11	82.7284	1,516.11	80.9548	1,516.11	81.2902	1,516.11	77.3452	1,516.11	79.1226	1,516.11	76.1027	1,516.11	76.4245	1,516.11	77.2905	1,516.11	77.3942	1,516.11	76.568	1,516.11	77.3469	1,516.11	70.3612	1,516.11	73.7261	1,516.11	74.0515	1,516.11	76.0322	1,516.11	77.432	1,516.11	75.8542	1,516.11	75.7853	1,516.11	73.3765	1,516.11	66.8518	1,516.11	65.821	1,516.11	66.5341	1,516.11	69.3019	1,516.11	76.24	1,516.11	76.5661	1,516.11	77.8015
1,568.85	87.2574	1,568.85	87.0137	1,568.85	86.8868	1,568.85	86.2143	1,568.85	86.533	1,568.85	84.692	1,568.85	85.4202	1,568.85	83.4098	1,568.85	84.3747	1,568.85	82.5743	1,568.85	83.248	1,568.85	79.3695	1,568.85	81.68	1,568.85	77.0852	1,568.85	78.6613	1,568.85	75.072	1,568.85	74.3353	1,568.85	74.8291	1,568.85	75.7708	1,568.85	75.5343	1,568.85	74.8504	1,568.85	71.8721	1,568.85	64.758	1,568.85	71.0153	1,568.85	66.3335	1,568.85	75.6125	1,568.85	73.6151	1,568.85	77.108	1,568.85	74.4349	1,568.85	72.5691	1,568.85	66.9058	1,568.85	61.887	1,568.85	68.6062	1,568.85	73.7403	1,568.85	75.2847	1,568.85	77.1132
1,624.51	86.923	1,624.51	86.3074	1,624.51	86.3408	1,624.51	85.897	1,624.51	85.5534	1,624.51	84.6944	1,624.51	84.5773	1,624.51	82.9046	1,624.51	83.2147	1,624.51	81.6504	1,624.51	82.3144	1,624.51	80.5951	1,624.51	80.4642	1,624.51	78.37	1,624.51	78.4474	1,624.51	76.882	1,624.51	76.5359	1,624.51	77.4785	1,624.51	74.4842	1,624.51	76.6115	1,624.51	73.7016	1,624.51	73.1151	1,624.51	69.2475	1,624.51	72.2788	1,624.51	62.2828	1,624.51	75.1651	1,624.51	73.5832	1,624.51	75.1692	1,624.51	75.2027	1,624.51	69.1009	1,624.51	70.5755	1,624.51	56.7455	1,624.51	54.2799	1,624.51	70.5286	1,624.51	72.9534	1,624.51	74.9667
1,681.64	86.4923	1,681.64	86.6337	1,681.64	86.5074	1,681.64	85.5076	1,681.64	85.9266	1,681.64	83.7933	1,681.64	84.4422	1,681.64	83.2256	1,681.64	82.7534	1,681.64	81.2738	1,681.64	80.6025	1,681.64	80.2962	1,681.64	78.9477	1,681.64	79.3087	1,681.64	79.1461	1,681.64	76.1301	1,681.64	76.09	1,681.64	74.7084	1,681.64	75.5895	1,681.64	75.2139	1,681.64	74.3874	1,681.64	70.8888	1,681.64	69.9684	1,681.64	65.195	1,681.64	71.1101	1,681.64	70.7104	1,681.64	70.1419	1,681.64	71.4037	1,681.64	73.3263	1,681.64	68.98	1,681.64	69.5515	1,681.64	64.4713	1,681.64	62.2925	1,681.64	72.1058	1,681.64	73.7807	1,681.64	74.724
1,741.7	88.2105	1,741.7	87.592	1,741.7	87.7925	1,741.7	86.4057	1,741.7	86.7697	1,741.7	85.591	1,741.7	85.2032	1,741.7	83.9502	1,741.7	84.5855	1,741.7	80.6017	1,741.7	82.9873	1,741.7	79.0643	1,741.7	81.5154	1,741.7	77.7674	1,741.7	79.2787	1,741.7	74.3513	1,741.7	76.5475	1,741.7	73.2551	1,741.7	77.4524	1,741.7	76.2335	1,741.7	76.9583	1,741.7	71.0151	1,741.7	73.8123	1,741.7	67.371	1,741.7	71.1479	1,741.7	70.9992	1,741.7	72.572	1,741.7	71.7949	1,741.7	74.9854	1,741.7	68.8096	1,741.7	69.5	1,741.7	66.938	1,741.7	64.7497	1,741.7	71.4296	1,741.7	68.8432	1,741.7	73.0757
1,803.22	88.6218	1,803.22	87.882	1,803.22	88.843	1,803.22	87.5193	1,803.22	87.4825	1,803.22	87.006	1,803.22	86.4911	1,803.22	84.9414	1,803.22	85.7976	1,803.22	83.4282	1,803.22	83.9105	1,803.22	81.963	1,803.22	82.8087	1,803.22	80.8669	1,803.22	80.9724	1,803.22	79.2114	1,803.22	79.3761	1,803.22	76.9297	1,803.22	77.4371	1,803.22	76.5839	1,803.22	76.4095	1,803.22	72.7612	1,803.22	71.7682	1,803.22	69.0111	1,803.22	72.3095	1,803.22	69.9494	1,803.22	75.0201	1,803.22	72.4315	1,803.22	73.9888	1,803.22	71.2252	1,803.22	73.5073	1,803.22	67.5026	1,803.22	65.0603	1,803.22	73.5143	1,803.22	69.8062	1,803.22	76.8473
1,866.21	88.0165	1,866.21	88.0103	1,866.21	87.4711	1,866.21	87.3241	1,866.21	87.1714	1,866.21	86.3119	1,866.21	86.1274	1,866.21	85.0172	1,866.21	85.3425	1,866.21	83.2153	1,866.21	83.3646	1,866.21	81.7106	1,866.21	80.9011	1,866.21	79.1892	1,866.21	79.937	1,866.21	77.0625	1,866.21	78.5513	1,866.21	76.7985	1,866.21	76.295	1,866.21	78.1608	1,866.21	76.3437	1,866.21	75.8192	1,866.21	74.5613	1,866.21	74.0037	1,866.21	71.6976	1,866.21	75.6716	1,866.21	70.6411	1,866.21	75.8734	1,866.21	71.2101	1,866.21	73.3484	1,866.21	70.618	1,866.21	65.5303	1,866.21	64.5594	1,866.21	69.8813	1,866.21	73.0708	1,866.21	73.8558
1,932.13	87.2692	1,932.13	87.0362	1,932.13	87.1834	1,932.13	86.4486	1,932.13	86.524	1,932.13	85.5671	1,932.13	85.5711	1,932.13	84.5172	1,932.13	84.4582	1,932.13	82.72	1,932.13	82.8275	1,932.13	81.0493	1,932.13	80.924	1,932.13	79.5574	1,932.13	79.0093	1,932.13	78.4873	1,932.13	77.8601	1,932.13	75.2289	1,932.13	75.8173	1,932.13	75.0301	1,932.13	75.1474	1,932.13	72.637	1,932.13	72.6021	1,932.13	70.526	1,932.13	68.9541	1,932.13	72.9494	1,932.13	72.4945	1,932.13	71.4516	1,932.13	69.1673	1,932.13	71.6475	1,932.13	70.4768	1,932.13	64.5983	1,932.13	67.0805	1,932.13	71.1046	1,932.13	70.0592	1,932.13	74.6617
1,999.51	87.8755	1,999.51	87.3582	1,999.51	87.6489	1,999.51	86.6827	1,999.51	87.1547	1,999.51	85.8152	1,999.51	86.3992	1,999.51	84.7816	1,999.51	85.4063	1,999.51	83.3029	1,999.51	84.0316	1,999.51	80.9105	1,999.51	81.9908	1,999.51	79.6279	1,999.51	80.3486	1,999.51	77.9191	1,999.51	78.8793	1,999.51	74.7506	1,999.51	75.9552	1,999.51	75.1892	1,999.51	75.456	1,999.51	72.6452	1,999.51	74.562	1,999.51	69.8538	1,999.51	69.2839	1,999.51	73.0872	1,999.51	74.0098	1,999.51	71.0611	1,999.51	72.2177	1,999.51	67.8242	1,999.51	70.754	1,999.51	65.385	1,999.51	67.2474	1,999.51	71.1188	1,999.51	71.4663	1,999.51	74.3452
2,069.82	88.5477	2,069.82	88.4154	2,069.82	88.4818	2,069.82	87.8136	2,069.82	87.9197	2,069.82	86.9037	2,069.82	87.0091	2,069.82	85.9015	2,069.82	86.078	2,069.82	84.6952	2,069.82	84.9194	2,069.82	82.7272	2,069.82	82.8829	2,069.82	80.4865	2,069.82	80.8214	2,069.82	79.0041	2,069.82	79.4813	2,069.82	75.9983	2,069.82	76.781	2,069.82	74.9467	2,069.82	75.9695	2,069.82	73.919	2,069.82	74.1959	2,069.82	67.1146	2,069.82	69.1699	2,069.82	72.6886	2,069.82	73.5294	2,069.82	72.5526	2,069.82	73.4262	2,069.82	71.4254	2,069.82	70.4715	2,069.82	65.3558	2,069.82	65.91	2,069.82	71.2567	2,069.82	71.7404	2,069.82	74.8214
2,143.07	88.097	2,143.07	88.0402	2,143.07	87.8871	2,143.07	87.6388	2,143.07	87.2868	2,143.07	86.9176	2,143.07	86.4264	2,143.07	86.0618	2,143.07	85.2772	2,143.07	85.1768	2,143.07	84.2406	2,143.07	83.525	2,143.07	82.6805	2,143.07	81.6115	2,143.07	80.3165	2,143.07	79.986	2,143.07	78.7182	2,143.07	77.5822	2,143.07	76.4451	2,143.07	75.6563	2,143.07	74.1996	2,143.07	75.5367	2,143.07	74.1873	2,143.07	70.512	2,143.07	68.7709	2,143.07	71.8181	2,143.07	71.0484	2,143.07	73.2359	2,143.07	71.6727	2,143.07	71.8954	2,143.07	72.0703	2,143.07	67.2205	2,143.07	64.908	2,143.07	67.8735	2,143.07	70.8547	2,143.07	73.6249
2,219.24	86.8337	2,219.24	86.6224	2,219.24	86.4975	2,219.24	86.4612	2,219.24	86.109	2,219.24	85.976	2,219.24	85.3866	2,219.24	85.2194	2,219.24	84.3719	2,219.24	84.2466	2,219.24	83.3085	2,219.24	82.5231	2,219.24	81.9907	2,219.24	80.8682	2,219.24	80.0735	2,219.24	77.9937	2,219.24	78.0465	2,219.24	76.4577	2,219.24	75.6226	2,219.24	74.3111	2,219.24	73.0953	2,219.24	74.3764	2,219.24	73.5102	2,219.24	71.6056	2,219.24	67.4613	2,219.24	70.5808	2,219.24	68.5732	2,219.24	72.5209	2,219.24	68.354	2,219.24	72.9279	2,219.24	70.449	2,219.24	69.2264	2,219.24	66.5713	2,219.24	69.0827	2,219.24	67.039	2,219.24	72.1642
2,296.88	86.8911	2,296.88	87.1151	2,296.88	86.7283	2,296.88	86.6962	2,296.88	86.4298	2,296.88	86.0498	2,296.88	85.8398	2,296.88	84.9268	2,296.88	84.913	2,296.88	83.8286	2,296.88	83.6916	2,296.88	82.3487	2,296.88	82.007	2,296.88	80.5264	2,296.88	80.2564	2,296.88	79.3075	2,296.88	78.5822	2,296.88	75.3991	2,296.88	76.2146	2,296.88	73.8833	2,296.88	74.3703	2,296.88	73.4172	2,296.88	72.7855	2,296.88	67.5233	2,296.88	68.8386	2,296.88	70.9534	2,296.88	69.5357	2,296.88	64.9563	2,296.88	66.7919	2,296.88	71.8991	2,296.88	70.2055	2,296.88	69.4382	2,296.88	70.8172	2,296.88	62.2199	2,296.88	65.3728	2,296.88	68.6505
2,378.91	87.2731	2,378.91	87.3896	2,378.91	87.0072	2,378.91	87.2785	2,378.91	86.8673	2,378.91	86.9227	2,378.91	86.2653	2,378.91	85.9008	2,378.91	85.174	2,378.91	84.4451	2,378.91	83.6318	2,378.91	83.1725	2,378.91	82.0723	2,378.91	80.6804	2,378.91	79.7811	2,378.91	79.3282	2,378.91	77.9514	2,378.91	77.7267	2,378.91	75.0449	2,378.91	73.4126	2,378.91	72.6032	2,378.91	73.5912	2,378.91	72.9566	2,378.91	68.8464	2,378.91	69.0997	2,378.91	70.103	2,378.91	68.4019	2,378.91	68.5086	2,378.91	65.8075	2,378.91	69.1583	2,378.91	70.2295	2,378.91	70.7195	2,378.91	70.1654	2,378.91	65.6505	2,378.91	64.0549	2,378.91	70.2408
2,462.4	86.0631	2,462.4	86.5157	2,462.4	86.1333	2,462.4	86.6302	2,462.4	85.8789	2,462.4	86.2875	2,462.4	85.5695	2,462.4	85.4871	2,462.4	84.8647	2,462.4	84.1129	2,462.4	83.1573	2,462.4	82.9814	2,462.4	81.3244	2,462.4	80.3845	2,462.4	78.832	2,462.4	79.5527	2,462.4	76.4596	2,462.4	77.1218	2,462.4	75.5566	2,462.4	73.4089	2,462.4	70.3947	2,462.4	73.4951	2,462.4	71.0292	2,462.4	70.8978	2,462.4	68.8623	2,462.4	69.6646	2,462.4	68.5399	2,462.4	69.099	2,462.4	68.2546	2,462.4	68.8695	2,462.4	65.9903	2,462.4	70.5073	2,462.4	68.5995	2,462.4	69.7256	2,462.4	61.0907	2,462.4	71.555
2,548.83	85.463	2,548.83	85.7727	2,548.83	85.5247	2,548.83	85.9364	2,548.83	85.5545	2,548.83	85.5982	2,548.83	85.477	2,548.83	84.9893	2,548.83	84.8131	2,548.83	83.6278	2,548.83	83.4153	2,548.83	81.8885	2,548.83	81.4745	2,548.83	80.0747	2,548.83	79.6003	2,548.83	77.4794	2,548.83	76.6061	2,548.83	74.975	2,548.83	76.0749	2,548.83	72.5696	2,548.83	71.9201	2,548.83	70.4712	2,548.83	70.6744	2,548.83	66.9903	2,548.83	68.0407	2,548.83	66.4822	2,548.83	68.8971	2,548.83	66.8463	2,548.83	68.9715	2,548.83	69.3441	2,548.83	68.5876	2,548.83	68.4717	2,548.83	69.9842	2,548.83	66.7421	2,548.83	62.9687	2,548.83	70.9081
2,639.65	85.4487	2,639.65	85.5099	2,639.65	85.2731	2,639.65	85.7501	2,639.65	85.4199	2,639.65	85.7678	2,639.65	85.2054	2,639.65	84.9901	2,639.65	84.5036	2,639.65	83.2919	2,639.65	83.0501	2,639.65	80.8064	2,639.65	81.1264	2,639.65	79.7724	2,639.65	79.2577	2,639.65	74.7287	2,639.65	76.4555	2,639.65	75.087	2,639.65	75.0536	2,639.65	70.9154	2,639.65	71.8092	2,639.65	70.172	2,639.65	70.624	2,639.65	68.8042	2,639.65	66.3303	2,639.65	66.048	2,639.65	68.7755	2,639.65	64.6908	2,639.65	62.9492	2,639.65	66.5771	2,639.65	68.7923	2,639.65	68.3428	2,639.65	69.0656	2,639.65	57.4034	2,639.65	59.2544	2,639.65	67.2572
2,731.93	84.9176	2,731.93	84.397	2,731.93	84.541	2,731.93	84.8999	2,731.93	85.1098	2,731.93	85.0579	2,731.93	84.9137	2,731.93	84.0674	2,731.93	83.4788	2,731.93	82.799	2,731.93	82.1941	2,731.93	79.8294	2,731.93	79.9506	2,731.93	78.783	2,731.93	78.2743	2,731.93	74.5661	2,731.93	75.3841	2,731.93	74.4674	2,731.93	73.7048	2,731.93	72.4141	2,731.93	71.2931	2,731.93	70.5637	2,731.93	69.4349	2,731.93	67.4733	2,731.93	66.9855	2,731.93	67.0701	2,731.93	66.7642	2,731.93	62.732	2,731.93	63.1671	2,731.93	65.598	2,731.93	64.7202	2,731.93	68.2909	2,731.93	67.5343	2,731.93	60.9117	2,731.93	59.4725	2,731.93	66.9312
2,828.61	84.8012	2,828.61	84.8044	2,828.61	85.4081	2,828.61	85.0494	2,828.61	85.4511	2,828.61	84.6305	2,828.61	85.2622	2,828.61	83.9083	2,828.61	83.8109	2,828.61	82.4248	2,828.61	82.7712	2,828.61	79.7323	2,828.61	80.3625	2,828.61	76.451	2,828.61	78.0445	2,828.61	75.2683	2,828.61	76.3631	2,828.61	73.6452	2,828.61	73.4626	2,828.61	71.4234	2,828.61	72.9165	2,828.61	67.9104	2,828.61	69.088	2,828.61	68.0159	2,828.61	68.1146	2,828.61	65.4565	2,828.61	60.0204	2,828.61	64.7571	2,828.61	62.9256	2,828.61	64.8143	2,828.61	61.5376	2,828.61	66.6403	2,828.61	66.7364	2,828.61	58.7985	2,828.61	52.1502	2,828.61	66.5087
2,928.22	85.2643	2,928.22	85.4524	2,928.22	85.5334	2,928.22	85.1164	2,928.22	85.3842	2,928.22	84.7832	2,928.22	84.8607	2,928.22	83.4031	2,928.22	83.5206	2,928.22	82.1883	2,928.22	81.8436	2,928.22	80.3423	2,928.22	79.5782	2,928.22	76.2381	2,928.22	76.7101	2,928.22	75.5199	2,928.22	74.6871	2,928.22	72.6956	2,928.22	72.6118	2,928.22	71.0708	2,928.22	71.2471	2,928.22	68.6997	2,928.22	67.9216	2,928.22	66.7424	2,928.22	69.0059	2,928.22	64.9231	2,928.22	63.5998	2,928.22	61.3632	2,928.22	63.0401	2,928.22	61.3339	2,928.22	57.71	2,928.22	65.4095	2,928.22	66.359	2,928.22	54.3041	2,928.22	57.1019	2,928.22	68.2206
3,030.76	85.2576	3,030.76	85.2189	3,030.76	85.4287	3,030.76	84.5542	3,030.76	84.4875	3,030.76	83.7764	3,030.76	83.8637	3,030.76	82.4775	3,030.76	82.6914	3,030.76	80.5249	3,030.76	80.9272	3,030.76	79.2877	3,030.76	78.7933	3,030.76	75.5747	3,030.76	76.386	3,030.76	75.5272	3,030.76	73.8393	3,030.76	70.5427	3,030.76	70.9853	3,030.76	70.4198	3,030.76	69.1502	3,030.76	67.4028	3,030.76	66.8534	3,030.76	66.783	3,030.76	64.8541	3,030.76	65.0529	3,030.76	65.3173	3,030.76	62.1527	3,030.76	67.1257	3,030.76	64.9742	3,030.76	59.2292	3,030.76	67.7991	3,030.76	68.6755	3,030.76	64.6089	3,030.76	58.4103	3,030.76	69.7375
3,137.7	85.7735	3,137.7	85.7932	3,137.7	85.8306	3,137.7	84.8245	3,137.7	85.3203	3,137.7	83.5557	3,137.7	84.276	3,137.7	82.4606	3,137.7	83.3249	3,137.7	81.2868	3,137.7	81.2433	3,137.7	79.1221	3,137.7	79.5227	3,137.7	77.7571	3,137.7	77.5299	3,137.7	75.576	3,137.7	75.5799	3,137.7	70.9656	3,137.7	72.8277	3,137.7	70.8621	3,137.7	71.1146	3,137.7	64.8446	3,137.7	68.8214	3,137.7	67.3729	3,137.7	66.1108	3,137.7	57.7812	3,137.7	64.1015	3,137.7	66.8593	3,137.7	68.2512	3,137.7	60.535	3,137.7	56.6964	3,137.7	68.7306	3,137.7	69.5183	3,137.7	66.6377	3,137.7	62.624	3,137.7	67.7176
3,249.02	86.7398	3,249.02	86.3473	3,249.02	86.1282	3,249.02	85.4978	3,249.02	85.8343	3,249.02	84.1491	3,249.02	84.5005	3,249.02	82.0834	3,249.02	83.2122	3,249.02	80.3255	3,249.02	81.0428	3,249.02	78.1805	3,249.02	79.1918	3,249.02	77.773	3,249.02	77.0421	3,249.02	73.2672	3,249.02	75.0236	3,249.02	72.2939	3,249.02	72.1138	3,249.02	68.0667	3,249.02	70.5632	3,249.02	64.4192	3,249.02	68.5843	3,249.02	65.8537	3,249.02	66.1633	3,249.02	61.9769	3,249.02	63.0552	3,249.02	64.719	3,249.02	65.4982	3,249.02	56.9601	3,249.02	62.0766	3,249.02	62.1089	3,249.02	65.0815	3,249.02	52.8674	3,249.02	62.1895	3,249.02	60.2091
3,363.28	87.5467	3,363.28	87.0945	3,363.28	86.9353	3,363.28	86.1936	3,363.28	86.2796	3,363.28	84.4071	3,363.28	84.6209	3,363.28	82.1012	3,363.28	82.9595	3,363.28	78.8716	3,363.28	80.5971	3,363.28	76.4053	3,363.28	78.6392	3,363.28	74.8081	3,363.28	75.9207	3,363.28	71.648	3,363.28	74.1882	3,363.28	69.9044	3,363.28	71.0065	3,363.28	67.1846	3,363.28	69.3016	3,363.28	65.85	3,363.28	65.2711	3,363.28	64.0366	3,363.28	67.9463	3,363.28	58.2026	3,363.28	62.5039	3,363.28	61.2014	3,363.28	63.1362	3,363.28	46.0227	3,363.28	56.3123	3,363.28	67.1775	3,363.28	66.411	3,363.28	64.3316	3,363.28	63.8498	3,363.28	65.9926
3,481.93	88.4761	3,481.93	87.9517	3,481.93	87.9133	3,481.93	86.8963	3,481.93	87.2604	3,481.93	85.2728	3,481.93	85.6757	3,481.93	82.8162	3,481.93	83.2989	3,481.93	79.4047	3,481.93	81.0956	3,481.93	77.8043	3,481.93	78.9556	3,481.93	75.6336	3,481.93	76.845	3,481.93	72.4509	3,481.93	74.6577	3,481.93	71.5049	3,481.93	72.1027	3,481.93	70.1419	3,481.93	69.7394	3,481.93	68.1286	3,481.93	67.8264	3,481.93	65.5302	3,481.93	67.0584	3,481.93	63.0657	3,481.93	60.3831	3,481.93	63.3919	3,481.93	66.5651	3,481.93	61.2351	3,481.93	58.5474	3,481.93	68.9567	3,481.93	69.3012	3,481.93	65.2245	3,481.93	65.0879	3,481.93	68.4397
3,604.98	88.2126	3,604.98	87.7442	3,604.98	88.4378	3,604.98	86.6309	3,604.98	86.8142	3,604.98	85.0742	3,604.98	85.1723	3,604.98	82.7421	3,604.98	82.9563	3,604.98	80.5896	3,604.98	81.5943	3,604.98	78.3694	3,604.98	79.9978	3,604.98	76.6421	3,604.98	78.5684	3,604.98	76.1023	3,604.98	75.8618	3,604.98	73.8166	3,604.98	74.4697	3,604.98	71.4454	3,604.98	70.8299	3,604.98	70.6113	3,604.98	69.0907	3,604.98	68.3289	3,604.98	66.7443	3,604.98	67.0676	3,604.98	62.2753	3,604.98	66.928	3,604.98	66.4285	3,604.98	65.4221	3,604.98	62.1266	3,604.98	66.9053	3,604.98	65.7568	3,604.98	66.043	3,604.98	67.7177	3,604.98	62.5058
3,732.42	87.1566	3,732.42	86.8236	3,732.42	86.7287	3,732.42	85.8413	3,732.42	85.6275	3,732.42	84.0155	3,732.42	84.3695	3,732.42	83.1511	3,732.42	83.2554	3,732.42	82.6847	3,732.42	82.8115	3,732.42	81.4574	3,732.42	81.8714	3,732.42	78.5518	3,732.42	80.401	3,732.42	78.0182	3,732.42	78.5802	3,732.42	74.681	3,732.42	75.9185	3,732.42	72.8686	3,732.42	73.1846	3,732.42	71.0346	3,732.42	70.3334	3,732.42	67.8717	3,732.42	68.6093	3,732.42	68.7974	3,732.42	66.0982	3,732.42	66.6109	3,732.42	65.5119	3,732.42	67.0153	3,732.42	65.196	3,732.42	63.8028	3,732.42	62.2863	3,732.42	67.198	3,732.42	66.8182	3,732.42	60.4776
3,864.26	85.7163	3,864.26	84.9269	3,864.26	86.0552	3,864.26	84.4837	3,864.26	83.937	3,864.26	83.9757	3,864.26	83.7944	3,864.26	83.4049	3,864.26	84.2551	3,864.26	84.3246	3,864.26	84.0323	3,864.26	83.1622	3,864.26	82.5278	3,864.26	81.8875	3,864.26	81.6151	3,864.26	80.2321	3,864.26	77.8332	3,864.26	77.0559	3,864.26	76.8243	3,864.26	74.552	3,864.26	73.9123	3,864.26	71.6696	3,864.26	73.5686	3,864.26	70.9254	3,864.26	71.2171	3,864.26	69.2778	3,864.26	68.8729	3,864.26	67.7325	3,864.26	68.2103	3,864.26	66.4082	3,864.26	68.416	3,864.26	60.675	3,864.26	63.7817	3,864.26	66.3738	3,864.26	66.467	3,864.26	55.2145
4,000.49	83.3794	4,000.49	83.5624	4,000.49	84.0791	4,000.49	82.7276	4,000.49	83.3497	4,000.49	83.201	4,000.49	83.8085	4,000.49	84.0074	4,000.49	84.5533	4,000.49	84.8533	4,000.49	84.5479	4,000.49	83.0958	4,000.49	83.5426	4,000.49	82.2575	4,000.49	81.7066	4,000.49	79.6054	4,000.49	80.4915	4,000.49	77.3905	4,000.49	78.1085	4,000.49	73.014	4,000.49	74.415	4,000.49	71.7371	4,000.49	73.7586	4,000.49	69.9445	4,000.49	69.3325	4,000.49	68.0441	4,000.49	70.4125	4,000.49	66.6234	4,000.49	67.1705	4,000.49	68.0556	4,000.49	67.3223	4,000.49	64.5142	4,000.49	59.2381	4,000.49	67.0895	4,000.49	65.2985	4,000.49	55.3785
4,141.11	84.8811	4,141.11	83.5455	4,141.11	83.4072	4,141.11	82.875	4,141.11	83.9666	4,141.11	82.8713	4,141.11	83.5976	4,141.11	84.2338	4,141.11	84.8091	4,141.11	85.4063	4,141.11	84.3678	4,141.11	84.4037	4,141.11	83.7548	4,141.11	83.229	4,141.11	82.2407	4,141.11	79.6522	4,141.11	78.1393	4,141.11	77.6931	4,141.11	77.3137	4,141.11	73.5582	4,141.11	74.1312	4,141.11	72.6626	4,141.11	71.5715	4,141.11	69.6681	4,141.11	68.6779	4,141.11	69.8293	4,141.11	71.4567	4,141.11	67.3608	4,141.11	64.0525	4,141.11	66.8104	4,141.11	65.5084	4,141.11	62.6048	4,141.11	59.6452	4,141.11	65.3994	4,141.11	61.2566	4,141.11	59.0582
4,287.6	84.019	4,287.6	84.1394	4,287.6	82.3102	4,287.6	83.4599	4,287.6	83.4126	4,287.6	83.5269	4,287.6	83.8053	4,287.6	85.2497	4,287.6	84.1602	4,287.6	84.8051	4,287.6	84.3134	4,287.6	83.6836	4,287.6	83.2297	4,287.6	81.5137	4,287.6	81.4525	4,287.6	78.8055	4,287.6	79.8464	4,287.6	76.7164	4,287.6	77.4396	4,287.6	73.7393	4,287.6	74.8777	4,287.6	73.0602	4,287.6	71.6633	4,287.6	67.6776	4,287.6	71.2507	4,287.6	69.7893	4,287.6	69.5137	4,287.6	68.2682	4,287.6	66.1399	4,287.6	66.461	4,287.6	68.1542	4,287.6	64.1978	4,287.6	65.8361	4,287.6	59.8637	4,287.6	66.9146	4,287.6	62.1556
4,438.48	83.7604	4,438.48	84.2078	4,438.48	83.0808	4,438.48	82.893	4,438.48	81.8262	4,438.48	83.8855	4,438.48	82.343	4,438.48	85.1066	4,438.48	82.7395	4,438.48	83.8887	4,438.48	83.1056	4,438.48	83.3195	4,438.48	82.6712	4,438.48	80.9184	4,438.48	80.273	4,438.48	79.2579	4,438.48	78.5807	4,438.48	75.3014	4,438.48	76.0958	4,438.48	74.8068	4,438.48	74.8986	4,438.48	71.0521	4,438.48	71.4075	4,438.48	68.172	4,438.48	67.1949	4,438.48	67.8185	4,438.48	68.1263	4,438.48	65.7151	4,438.48	61.0749	4,438.48	66.0434	4,438.48	67.9638	4,438.48	57.6929	4,438.48	64.7352	4,438.48	61.9059	4,438.48	66.8975	4,438.48	60.5684
4,595.21	84.8117	4,595.21	84.3168	4,595.21	85.524	4,595.21	84.004	4,595.21	83.3495	4,595.21	84.3627	4,595.21	83.9572	4,595.21	84.405	4,595.21	83.9924	4,595.21	83.4872	4,595.21	84.1871	4,595.21	82.8507	4,595.21	83.2636	4,595.21	80.5679	4,595.21	81.1623	4,595.21	78.7239	4,595.21	78.1986	4,595.21	74.7811	4,595.21	74.9762	4,595.21	75.4223	4,595.21	74.27	4,595.21	70.0351	4,595.21	71.1027	4,595.21	69.5114	4,595.21	69.2498	4,595.21	65.2495	4,595.21	68.8675	4,595.21	57.3551	4,595.21	64.8457	4,595.21	67.1726	4,595.21	67.967	4,595.21	63.3031	4,595.21	65.1	4,595.21	63.3287	4,595.21	64.6739	4,595.21	61.7408
4,756.35	83.7378	4,756.35	82.3722	4,756.35	84.6191	4,756.35	83.5695	4,756.35	83.2122	4,756.35	83.8326	4,756.35	82.9941	4,756.35	82.3578	4,756.35	84.4707	4,756.35	83.1188	4,756.35	84.5745	4,756.35	82.4317	4,756.35	82.5441	4,756.35	81.2526	4,756.35	80.4001	4,756.35	80.0734	4,756.35	79.1469	4,756.35	76.0136	4,756.35	75.5226	4,756.35	75.0245	4,756.35	72.6304	4,756.35	72.268	4,756.35	70.2041	4,756.35	69.9221	4,756.35	71.1132	4,756.35	66.4272	4,756.35	63.0382	4,756.35	66.4586	4,756.35	66.4963	4,756.35	68.1969	4,756.35	67.178	4,756.35	63.6089	4,756.35	59.2045	4,756.35	64.6217	4,756.35	62.1447	4,756.35	55.5583
4,924.8	84.0586	4,924.8	84.3834	4,924.8	82.9576	4,924.8	84.4333	4,924.8	84.5804	4,924.8	84.1741	4,924.8	83.1611	4,924.8	83.5568	4,924.8	84.9472	4,924.8	83.881	4,924.8	84.6294	4,924.8	83.1587	4,924.8	83.1804	4,924.8	81.4148	4,924.8	81.4104	4,924.8	78.6836	4,924.8	78.7264	4,924.8	76.0819	4,924.8	77.0008	4,924.8	70.0883	4,924.8	74.6292	4,924.8	71.8667	4,924.8	72.2318	4,924.8	67.9113	4,924.8	69.5817	4,924.8	67.9911	4,924.8	63.1595	4,924.8	66.6466	4,924.8	66.1047	4,924.8	67.0585	4,924.8	67.5077	4,924.8	62.4712	4,924.8	62.5381	4,924.8	64.7916	4,924.8	63.0717	4,924.8	50.6676
5,097.66	82.0901	5,097.66	84.0894	5,097.66	82.8049	5,097.66	81.822	5,097.66	83.6677	5,097.66	83.1065	5,097.66	84.8925	5,097.66	85.2298	5,097.66	84.2866	5,097.66	84.5812	5,097.66	83.9416	5,097.66	83.4259	5,097.66	83.4415	5,097.66	81.4385	5,097.66	81.9991	5,097.66	77.773	5,097.66	79.5599	5,097.66	75.8085	5,097.66	77.7666	5,097.66	73.7919	5,097.66	72.6769	5,097.66	73.3226	5,097.66	71.6015	5,097.66	69.4726	5,097.66	68.4978	5,097.66	70.9286	5,097.66	69.1291	5,097.66	65.6039	5,097.66	64.6672	5,097.66	62.2468	5,097.66	65.2421	5,097.66	60.634	5,097.66	61.6958	5,097.66	63.6317	5,097.66	65.9142	5,097.66	54.6013
5,277.83	84.1212	5,277.83	84.3401	5,277.83	85.6053	5,277.83	85.7142	5,277.83	84.0051	5,277.83	85.9089	5,277.83	85.7541	5,277.83	87.0028	5,277.83	84.4661	5,277.83	86.6864	5,277.83	84.206	5,277.83	84.6088	5,277.83	84.2804	5,277.83	82.4416	5,277.83	83.4681	5,277.83	80.2305	5,277.83	80.0804	5,277.83	78.4413	5,277.83	78.3695	5,277.83	77.6716	5,277.83	73.8502	5,277.83	72.8697	5,277.83	72.2084	5,277.83	70.0926	5,277.83	68.2398	5,277.83	62.7476	5,277.83	71.5712	5,277.83	68.3578	5,277.83	67.622	5,277.83	65.382	5,277.83	65.2934	5,277.83	58.4503	5,277.83	63.1172	5,277.83	64.7911	5,277.83	66.7057	5,277.83	51.5769
5,463.87	85.4408	5,463.87	84.8089	5,463.87	85.3494	5,463.87	86.7696	5,463.87	85.0222	5,463.87	85.3425	5,463.87	84.6454	5,463.87	85.235	5,463.87	85.0894	5,463.87	85.6074	5,463.87	85.5599	5,463.87	83.9165	5,463.87	84.4901	5,463.87	80.6435	5,463.87	82.4713	5,463.87	80.6917	5,463.87	81.0415	5,463.87	77.0909	5,463.87	77.0821	5,463.87	77.3441	5,463.87	75.0588	5,463.87	72.5079	5,463.87	72.4003	5,463.87	68.0549	5,463.87	71.863	5,463.87	67.3629	5,463.87	71.2343	5,463.87	68.7371	5,463.87	68.8955	5,463.87	63.3965	5,463.87	60.2266	5,463.87	62.9308	5,463.87	61.8139	5,463.87	67.3077	5,463.87	66.1221	5,463.87	46.9136
5,657.23	85.3933	5,657.23	85.5549	5,657.23	83.6334	5,657.23	85.4711	5,657.23	85.6714	5,657.23	84.8425	5,657.23	83.3238	5,657.23	84.3541	5,657.23	85.4016	5,657.23	84.8307	5,657.23	86.1704	5,657.23	84.181	5,657.23	85.2978	5,657.23	83.5645	5,657.23	82.9747	5,657.23	81.7555	5,657.23	79.2588	5,657.23	76.9693	5,657.23	76.9729	5,657.23	72.973	5,657.23	75.3787	5,657.23	72.7591	5,657.23	72.7857	5,657.23	70.6921	5,657.23	67.3211	5,657.23	69.4194	5,657.23	69.379	5,657.23	65.32	5,657.23	65.3055	5,657.23	63.1984	5,657.23	64.8737	5,657.23	67.3093	5,657.23	64.2758	5,657.23	63.4894	5,657.23	65.2423	5,657.23	53.0472
5,856.45	84.8513	5,856.45	86.1583	5,856.45	85.0369	5,856.45	83.6697	5,856.45	85.0721	5,856.45	84.1106	5,856.45	84.443	5,856.45	83.3567	5,856.45	84.5636	5,856.45	83.0414	5,856.45	84.9774	5,856.45	84.0102	5,856.45	84.3645	5,856.45	82.9536	5,856.45	82.4627	5,856.45	79.4156	5,856.45	78.4382	5,856.45	75.9514	5,856.45	77.2857	5,856.45	68.3345	5,856.45	75.1464	5,856.45	69.6557	5,856.45	70.2562	5,856.45	66.3529	5,856.45	74.1346	5,856.45	71.1449	5,856.45	69.0002	5,856.45	62.0574	5,856.45	66.0972	5,856.45	64.4051	5,856.45	65.9501	5,856.45	67.5801	5,856.45	61.4379	5,856.45	56.4823	5,856.45	59.0959	5,856.45	48.1833
6,062.99	84.5215	6,062.99	85.2398	6,062.99	86.8069	6,062.99	84.885	6,062.99	84.4574	6,062.99	82.9821	6,062.99	84.6696	6,062.99	82.6972	6,062.99	83.0878	6,062.99	83.0366	6,062.99	82.5843	6,062.99	82.0515	6,062.99	83.3566	6,062.99	80.5483	6,062.99	81.8285	6,062.99	77.77	6,062.99	79.4945	6,062.99	75.8922	6,062.99	76.108	6,062.99	73.3116	6,062.99	73.3842	6,062.99	67.7742	6,062.99	69.7866	6,062.99	66.8127	6,062.99	71.5376	6,062.99	68.4631	6,062.99	67.1513	6,062.99	69.4089	6,062.99	66.618	6,062.99	64.6	6,062.99	57.3799	6,062.99	61.1951	6,062.99	61.9133	6,062.99	60.6327	6,062.99	62.179	6,062.99	56.2122
6,276.86	84.2226	6,276.86	83.9286	6,276.86	85.6098	6,276.86	84.9828	6,276.86	85.2511	6,276.86	83.3462	6,276.86	82.708	6,276.86	84.1761	6,276.86	84.4289	6,276.86	83.9153	6,276.86	84.8041	6,276.86	82.1633	6,276.86	83.6823	6,276.86	79.2312	6,276.86	81.3487	6,276.86	78.2475	6,276.86	80.9244	6,276.86	74.2954	6,276.86	77.8661	6,276.86	74.9376	6,276.86	70.9028	6,276.86	68.1423	6,276.86	72.3358	6,276.86	70.6697	6,276.86	70.7845	6,276.86	62.6033	6,276.86	65.3377	6,276.86	65.2292	6,276.86	65.6165	6,276.86	66.3005	6,276.86	65.4551	6,276.86	64.4039	6,276.86	63.2154	6,276.86	64.2948	6,276.86	64.1132	6,276.86	61.5214
6,498.05	82.6176	6,498.05	81.2677	6,498.05	80.9251	6,498.05	82.6836	6,498.05	83.2764	6,498.05	81.9234	6,498.05	82.223	6,498.05	82.7267	6,498.05	83.201	6,498.05	82.9983	6,498.05	84.6732	6,498.05	83.1475	6,498.05	83.341	6,498.05	80.4112	6,498.05	82.9037	6,498.05	78.3111	6,498.05	78.9601	6,498.05	74.1056	6,498.05	75.756	6,498.05	72.5275	6,498.05	73.0911	6,498.05	70.9678	6,498.05	71.1001	6,498.05	68.653	6,498.05	64.9199	6,498.05	62.703	6,498.05	55.4991	6,498.05	56.9667	6,498.05	59.7955	6,498.05	61.9309	6,498.05	64.5304	6,498.05	65.0436	6,498.05	67.7129	6,498.05	62.7791	6,498.05	63.1188	6,498.05	61.6809
6,726.56	82.4994	6,726.56	82.8979	6,726.56	83.3189	6,726.56	82.3825	6,726.56	82.2602	6,726.56	81.8411	6,726.56	83.9096	6,726.56	80.8722	6,726.56	81.4878	6,726.56	82.9845	6,726.56	81.8494	6,726.56	82.3655	6,726.56	83.4688	6,726.56	82.1481	6,726.56	81.9379	6,726.56	77.7444	6,726.56	77.9409	6,726.56	75.5494	6,726.56	76.3072	6,726.56	68.9648	6,726.56	74.4076	6,726.56	69.8729	6,726.56	69.4031	6,726.56	65.4126	6,726.56	69.3933	6,726.56	67.0732	6,726.56	70.0488	6,726.56	67.0227	6,726.56	69.345	6,726.56	66.3803	6,726.56	65.1342	6,726.56	65.8765	6,726.56	65.5884	6,726.56	61.2776	6,726.56	59.9512	6,726.56	56.4825
6,963.87	84.0268	6,963.87	84.3056	6,963.87	83.8031	6,963.87	84.273	6,963.87	84.4779	6,963.87	84.0135	6,963.87	83.7636	6,963.87	81.7343	6,963.87	83.3249	6,963.87	82.717	6,963.87	83.0627	6,963.87	82.2837	6,963.87	82.875	6,963.87	81.4428	6,963.87	79.4169	6,963.87	77.7633	6,963.87	78.6192	6,963.87	74.68	6,963.87	76.0816	6,963.87	71.6127	6,963.87	72.4636	6,963.87	66.2821	6,963.87	68.0991	6,963.87	66.6345	6,963.87	67.203	6,963.87	66.2113	6,963.87	66.6298	6,963.87	63.5617	6,963.87	68.0084	6,963.87	63.5434	6,963.87	47.9389	6,963.87	62.9107	6,963.87	64.6624	6,963.87	57.4968	6,963.87	40.9479	6,963.87	53.4206
7,209.96	85.252	7,209.96	85.0512	7,209.96	84.4773	7,209.96	84.3329	7,209.96	85.7875	7,209.96	83.6893	7,209.96	84.3747	7,209.96	82.7504	7,209.96	83.8496	7,209.96	80.7997	7,209.96	84.8154	7,209.96	80.7987	7,209.96	82.4547	7,209.96	78.1021	7,209.96	81.0219	7,209.96	76.3355	7,209.96	78.648	7,209.96	71.7238	7,209.96	73.3074	7,209.96	69.766	7,209.96	72.013	7,209.96	66.4789	7,209.96	69.5093	7,209.96	62.9858	7,209.96	66.8601	7,209.96	54.8052	7,209.96	66.0936	7,209.96	61.0413	7,209.96	65.0898	7,209.96	65.3987	7,209.96	61.6098	7,209.96	62.8282	7,209.96	63.5992	7,209.96	58.45	7,209.96	57.0307	7,209.96	51.6875
7,464.84	85.4851	7,464.84	85.2506	7,464.84	86.5735	7,464.84	84.587	7,464.84	85.435	7,464.84	84.2607	7,464.84	85.7206	7,464.84	82.8716	7,464.84	83.0063	7,464.84	81.2648	7,464.84	82.5602	7,464.84	81.0157	7,464.84	82.4591	7,464.84	78.1315	7,464.84	81.7657	7,464.84	76.2682	7,464.84	76.315	7,464.84	72.7065	7,464.84	74.3275	7,464.84	69.3587	7,464.84	68.5103	7,464.84	66.8986	7,464.84	68.3465	7,464.84	62.6344	7,464.84	62.8529	7,464.84	62.1121	7,464.84	58.5759	7,464.84	62.1612	7,464.84	57.8232	7,464.84	60.0425	7,464.84	58.698	7,464.84	62.8884	7,464.84	62.7307	7,464.84	56.2269	7,464.84	57.4697	7,464.84	57.1707
7,727.05	86.383	7,727.05	86.1028	7,727.05	86.7688	7,727.05	86.1753	7,727.05	85.9772	7,727.05	85.7367	7,727.05	85.5751	7,727.05	83.5319	7,727.05	83.8203	7,727.05	82.7935	7,727.05	80.9853	7,727.05	80.9822	7,727.05	81.5762	7,727.05	79.3762	7,727.05	79.6917	7,727.05	75.8156	7,727.05	76.7827	7,727.05	73.1809	7,727.05	73.8549	7,727.05	68.7694	7,727.05	70.1292	7,727.05	65.6396	7,727.05	65.1468	7,727.05	64.9802	7,727.05	65.7394	7,727.05	65.2751	7,727.05	63.6212	7,727.05	57.6125	7,727.05	59.8782	7,727.05	56.5143	7,727.05	64.8398	7,727.05	59.8757	7,727.05	62.8433	7,727.05	52.1137	7,727.05	48.3749	7,727.05	54.7786
7,999.51	86.8901	7,999.51	86.685	7,999.51	86.0597	7,999.51	87.1634	7,999.51	87.0388	7,999.51	85.7439	7,999.51	85.0719	7,999.51	83.776	7,999.51	83.8882	7,999.51	82.3442	7,999.51	82.1911	7,999.51	80.3966	7,999.51	80.6998	7,999.51	78.7194	7,999.51	78.1453	7,999.51	76.9585	7,999.51	75.4986	7,999.51	72.7686	7,999.51	72.3861	7,999.51	69.6158	7,999.51	68.0538	7,999.51	65.9508	7,999.51	67.0791	7,999.51	63.4537	7,999.51	63.0226	7,999.51	64.5275	7,999.51	64.4132	7,999.51	60.0754	7,999.51	59.8658	7,999.51	55.6719	7,999.51	50.2182	7,999.51	60.856	7,999.51	63.5362	7,999.51	55.3255	7,999.51	47.2342	7,999.51	52.3534
8,282.23	86.6894	8,282.23	86.6947	8,282.23	86.7523	8,282.23	86.5675	8,282.23	86.1921	8,282.23	85.4618	8,282.23	85.1608	8,282.23	83.7978	8,282.23	82.8631	8,282.23	80.8597	8,282.23	81.4366	8,282.23	80.7569	8,282.23	79.738	8,282.23	78.1968	8,282.23	77.7159	8,282.23	75.48	8,282.23	74.3125	8,282.23	70.703	8,282.23	70.6038	8,282.23	68.4456	8,282.23	67.8046	8,282.23	64.7245	8,282.23	66.3184	8,282.23	61.971	8,282.23	55.7376	8,282.23	60.0476	8,282.23	62.6227	8,282.23	62.0265	8,282.23	58.6437	8,282.23	61.3269	8,282.23	59.7131	8,282.23	59.2601	8,282.23	59.2627	8,282.23	50.9481	8,282.23	54.3048	8,282.23	51.7756
8,573.73	86.5323	8,573.73	86.3899	8,573.73	86.6551	8,573.73	86.0786	8,573.73	86.1389	8,573.73	85.3706	8,573.73	85.6429	8,573.73	82.641	8,573.73	82.6802	8,573.73	80.337	8,573.73	80.175	8,573.73	79.7651	8,573.73	78.8719	8,573.73	77.3911	8,573.73	76.1563	8,573.73	73.8055	8,573.73	74.6456	8,573.73	69.3167	8,573.73	69.0775	8,573.73	66.2211	8,573.73	65.4714	8,573.73	63.8429	8,573.73	61.0961	8,573.73	60.3834	8,573.73	64.427	8,573.73	53.9915	8,573.73	59.3534	8,573.73	60.3681	8,573.73	61.169	8,573.73	60.6211	8,573.73	61.5806	8,573.73	58.5164	8,573.73	59.9089	8,573.73	51.6373	8,573.73	55.3878	8,573.73	43.9108
8,876.95	86.8845	8,876.95	86.8424	8,876.95	86.3467	8,876.95	86.2381	8,876.95	86.5381	8,876.95	84.6575	8,876.95	84.8189	8,876.95	82.1144	8,876.95	83.1494	8,876.95	80.4125	8,876.95	80.7794	8,876.95	78.1146	8,876.95	79.5546	8,876.95	75.6662	8,876.95	76.9872	8,876.95	72.959	8,876.95	73.4488	8,876.95	68.6338	8,876.95	71.5361	8,876.95	65.56	8,876.95	68.0019	8,876.95	63.6358	8,876.95	63.5152	8,876.95	59.7321	8,876.95	63.8416	8,876.95	53.5838	8,876.95	63.022	8,876.95	60.778	8,876.95	61.4262	8,876.95	61.1619	8,876.95	60.8372	8,876.95	58.9924	8,876.95	59.6842	8,876.95	53.3043	8,876.95	51.3622	8,876.95	45.8337
9,188.96	86.6729	9,188.96	86.6658	9,188.96	87.3583	9,188.96	85.5444	9,188.96	86.0977	9,188.96	84.6226	9,188.96	85.0474	9,188.96	81.6406	9,188.96	82.8342	9,188.96	78.9663	9,188.96	80.3285	9,188.96	77.0795	9,188.96	79.34	9,188.96	75.2557	9,188.96	78.4912	9,188.96	72.6291	9,188.96	73.4197	9,188.96	69.8855	9,188.96	72.6526	9,188.96	66.0516	9,188.96	67.5558	9,188.96	61.4197	9,188.96	65.5237	9,188.96	56.3755	9,188.96	61.2568	9,188.96	57.659	9,188.96	55.8585	9,188.96	59.5289	9,188.96	60.8938	9,188.96	59.0632	9,188.96	57.0144	9,188.96	56.3575	9,188.96	57.8368	9,188.96	51.2784	9,188.96	47.3176	9,188.96	49.7396
9,514.16	86.9574	9,514.16	86.5596	9,514.16	87.0305	9,514.16	86.1289	9,514.16	86.6826	9,514.16	84.0994	9,514.16	85.0385	9,514.16	81.4081	9,514.16	82.3805	9,514.16	77.9334	9,514.16	79.2958	9,514.16	77.2776	9,514.16	78.8737	9,514.16	74.7752	9,514.16	76.9887	9,514.16	71.5338	9,514.16	75.0042	9,514.16	68.8413	9,514.16	71.0295	9,514.16	64.6701	9,514.16	66.1482	9,514.16	62.1708	9,514.16	63.9429	9,514.16	61.9048	9,514.16	63.4362	9,514.16	58.72	9,514.16	61.6843	9,514.16	59.4013	9,514.16	53.7322	9,514.16	58.9773	9,514.16	58.0998	9,514.16	56.316	9,514.16	55.7361	9,514.16	44.9572	9,514.16	45.8463	9,514.16	40.0969
9,849.61	86.4205	9,849.61	85.9336	9,849.61	86.8187	9,849.61	84.8096	9,849.61	85.6125	9,849.61	82.4401	9,849.61	84.4304	9,849.61	79.2502	9,849.61	82.2936	9,849.61	77.1938	9,849.61	79.2669	9,849.61	75.4749	9,849.61	78.4016	9,849.61	74.8586	9,849.61	77.1633	9,849.61	70.5455	9,849.61	73.2724	9,849.61	67.8311	9,849.61	69.187	9,849.61	64.6041	9,849.61	65.9545	9,849.61	59.6455	9,849.61	64.3685	9,849.61	56.0537	9,849.61	62.4471	9,849.61	57.2812	9,849.61	63.1321	9,849.61	52.4341	9,849.61	56.1229	9,849.61	55.7613	9,849.61	62.1705	9,849.61	53.6444	9,849.61	56.6523	9,849.61	47.9194	9,849.61	46.2788	9,849.61	43.3187
10,196.8	85.7144	10,196.8	85.5297	10,196.8	85.8633	10,196.8	83.849	10,196.8	85.4352	10,196.8	81.7579	10,196.8	83.2858	10,196.8	78.7427	10,196.8	80.5738	10,196.8	76.0537	10,196.8	78.0826	10,196.8	75.5672	10,196.8	77.2509	10,196.8	73.9163	10,196.8	75.2001	10,196.8	72.7052	10,196.8	72.7897	10,196.8	68.9397	10,196.8	70.2958	10,196.8	66.3955	10,196.8	66.4697	10,196.8	64.1181	10,196.8	61.6022	10,196.8	60.599	10,196.8	59.937	10,196.8	56.2433	10,196.8	57.6932	10,196.8	57.9907	10,196.8	55.4833	10,196.8	53.8946	10,196.8	56.7392	10,196.8	53.0506	10,196.8	57.219	10,196.8	52.9816	10,196.8	38.5003	10,196.8	47.5528
10,555.7	85.283	10,555.7	84.8802	10,555.7	85.3275	10,555.7	82.8366	10,555.7	84.0589	10,555.7	81.3332	10,555.7	82.1371	10,555.7	78.9816	10,555.7	80.2364	10,555.7	76.403	10,555.7	77.436	10,555.7	77.4429	10,555.7	77.5247	10,555.7	75.9026	10,555.7	76.2366	10,555.7	74.5448	10,555.7	73.0053	10,555.7	70.5945	10,555.7	69.5546	10,555.7	66.9292	10,555.7	67.8447	10,555.7	63.0017	10,555.7	62.5995	10,555.7	57.3262	10,555.7	62.6208	10,555.7	56.9687	10,555.7	63.3493	10,555.7	60.3857	10,555.7	52.3777	10,555.7	56.6925	10,555.7	58.3122	10,555.7	56.0575	10,555.7	58.1782	10,555.7	40.5112	10,555.7	32.4289	10,555.7	51.4187
10,927.7	84.5949	10,927.7	83.5824	10,927.7	84.2159	10,927.7	82.1531	10,927.7	82.788	10,927.7	80.544	10,927.7	80.3441	10,927.7	79.0577	10,927.7	78.938	10,927.7	76.5949	10,927.7	76.9682	10,927.7	76.3118	10,927.7	76.2109	10,927.7	76.1899	10,927.7	75.7033	10,927.7	72.2461	10,927.7	73.0259	10,927.7	68.5454	10,927.7	69.5462	10,927.7	65.7585	10,927.7	65.2141	10,927.7	60.9347	10,927.7	64.1726	10,927.7	61.7189	10,927.7	62.0779	10,927.7	57.6061	10,927.7	62.2019	10,927.7	61.591	10,927.7	55.3017	10,927.7	57.3932	10,927.7	55.1345	10,927.7	53.4741	10,927.7	56.3283	10,927.7	50.6269	10,927.7	48.5115	10,927.7	52.5148
11,313	84.5278	11,313	83.4628	11,313	83.3543	11,313	82.4853	11,313	82.0053	11,313	80.0053	11,313	79.9707	11,313	78.8077	11,313	78.6538	11,313	75.854	11,313	75.3641	11,313	76.1581	11,313	75.2718	11,313	75.118	11,313	74.0991	11,313	69.0953	11,313	72.5808	11,313	68.9142	11,313	68.9524	11,313	65.0878	11,313	66.1348	11,313	63.0298	11,313	61.161	11,313	57.6995	11,313	53.7467	11,313	57.0019	11,313	48.4515	11,313	59.1221	11,313	51.0939	11,313	55.1258	11,313	52.1567	11,313	54.4936	11,313	50.5949	11,313	52.4277	11,313	54.6425	11,313	55.9258
11,712.9	84.2662	11,712.9	82.464	11,712.9	82.7642	11,712.9	81.1967	11,712.9	79.9921	11,712.9	79.2715	11,712.9	78.5456	11,712.9	78.1311	11,712.9	77.8305	11,712.9	75.7017	11,712.9	75.9769	11,712.9	72.7711	11,712.9	74.4888	11,712.9	70.8245	11,712.9	73.933	11,712.9	70.2171	11,712.9	70.8271	11,712.9	65.9445	11,712.9	69.1577	11,712.9	61.2291	11,712.9	64.9183	11,712.9	57.1597	11,712.9	60.0101	11,712.9	56.3995	11,712.9	60.4899	11,712.9	52.7747	11,712.9	59.9173	11,712.9	52.4993	11,712.9	43.4532	11,712.9	51.3384	11,712.9	52.982	11,712.9	38.908	11,712.9	48.8256	11,712.9	51.6749	11,712.9	55.7042	11,712.9	50.4332
12,126	83.3074	12,126	81.4885	12,126	82.1245	12,126	79.2686	12,126	80.7855	12,126	77.3154	12,126	79.5576	12,126	77.6398	12,126	79.2966	12,126	73.8265	12,126	77.025	12,126	73.9404	12,126	76.2233	12,126	73.1918	12,126	77.0106	12,126	70.9815	12,126	74.1783	12,126	67.1766	12,126	70.5489	12,126	63.5676	12,126	65.6036	12,126	57.728	12,126	61.3433	12,126	57.9166	12,126	60.0088	12,126	57.4515	12,126	56.6277	12,126	57.0352	12,126	51.5677	12,126	52.6379	12,126	54.8528	12,126	52.2063	12,126	55.5306	12,126	43.5654	12,126	51.0553	12,126	49.125
12,553.7	82.9561	12,553.7	81.1896	12,553.7	82.5214	12,553.7	78.7224	12,553.7	80.4196	12,553.7	79.3809	12,553.7	81.0463	12,553.7	78.5113	12,553.7	80.2093	12,553.7	75.8366	12,553.7	78.4167	12,553.7	75.097	12,553.7	77.7071	12,553.7	74.6496	12,553.7	76.9494	12,553.7	71.3054	12,553.7	74.446	12,553.7	67.386	12,553.7	71.1393	12,553.7	62.7658	12,553.7	65.6208	12,553.7	59.3999	12,553.7	64.0651	12,553.7	56.1497	12,553.7	60.988	12,553.7	51.2117	12,553.7	51.827	12,553.7	52.9111	12,553.7	51.1427	12,553.7	50.1882	12,553.7	49.9631	12,553.7	48.6578	12,553.7	53.2687	12,553.7	43.5785	12,553.7	36.4149	12,553.7	49.1084
12,996.1	83.2962	12,996.1	82.2691	12,996.1	82.5824	12,996.1	82.0994	12,996.1	82.2994	12,996.1	80.9404	12,996.1	81.499	12,996.1	80.7064	12,996.1	81.0706	12,996.1	78.1815	12,996.1	78.572	12,996.1	75.4705	12,996.1	77.7305	12,996.1	74.5114	12,996.1	76.6233	12,996.1	71.2801	12,996.1	74.1355	12,996.1	66.6052	12,996.1	70.1446	12,996.1	62.4782	12,996.1	66.1416	12,996.1	59.07	12,996.1	61.1601	12,996.1	58.1787	12,996.1	59.1646	12,996.1	56.1729	12,996.1	50.2822	12,996.1	52.8834	12,996.1	53.195	12,996.1	49.2532	12,996.1	45.5257	12,996.1	50.334	12,996.1	51.1075	12,996.1	40.9913	12,996.1	52.5517	12,996.1	49.0259
13,454.6	84.5705	13,454.6	84.4439	13,454.6	84.2551	13,454.6	83.6856	13,454.6	83.4428	13,454.6	82.8463	13,454.6	81.9211	13,454.6	80.7473	13,454.6	80.8437	13,454.6	77.9188	13,454.6	79.0675	13,454.6	76.8341	13,454.6	77.572	13,454.6	73.2337	13,454.6	76.7668	13,454.6	69.5963	13,454.6	73.6091	13,454.6	65.5748	13,454.6	69.9239	13,454.6	60.5548	13,454.6	64.0036	13,454.6	58.3624	13,454.6	62.3393	13,454.6	55.5801	13,454.6	61.0976	13,454.6	51.0981	13,454.6	54.3114	13,454.6	50.1449	13,454.6	50.1981	13,454.6	45.2533	13,454.6	49.7888	13,454.6	47.9366	13,454.6	48.3943	13,454.6	39.6358	13,454.6	41.173	13,454.6	40.377
13,929.2	85.8731	13,929.2	85.2812	13,929.2	85.4677	13,929.2	84.6855	13,929.2	84.3373	13,929.2	82.6499	13,929.2	82.4961	13,929.2	80.5073	13,929.2	81.0218	13,929.2	77.3859	13,929.2	78.6202	13,929.2	74.2278	13,929.2	76.7026	13,929.2	72.0667	13,929.2	75.3132	13,929.2	65.4545	13,929.2	71.8025	13,929.2	63.5014	13,929.2	68.0557	13,929.2	57.1598	13,929.2	62.2985	13,929.2	57.9532	13,929.2	59.1828	13,929.2	54.0961	13,929.2	57.3338	13,929.2	43.8057	13,929.2	27.5719	13,929.2	49.2021	13,929.2	43.7981	13,929.2	48.3588	13,929.2	44.8201	13,929.2	40.5788	13,929.2	45.8774	13,929.2	43.1325	13,929.2	46.7894	13,929.2	41.225
14,419.9	86.1645	14,419.9	85.976	14,419.9	85.5382	14,419.9	84.454	14,419.9	84.4508	14,419.9	81.9337	14,419.9	82.2806	14,419.9	79.7892	14,419.9	80.0368	14,419.9	76.4238	14,419.9	77.1248	14,419.9	72.4997	14,419.9	74.1749	14,419.9	70.0032	14,419.9	71.5007	14,419.9	67.4279	14,419.9	67.0839	14,419.9	64.4881	14,419.9	63.4468	14,419.9	56.5621	14,419.9	59.4015	14,419.9	57.7235	14,419.9	55.4221	14,419.9	54.2661	14,419.9	53.0892	14,419.9	49.8404	14,419.9	47.5129	14,419.9	42.8084	14,419.9	47.9443	14,419.9	41.0204	14,419.9	48.2332	14,419.9	36.6911	14,419.9	20.2808	14,419.9	30.649	14,419.9	44.902	14,419.9	48.0108
14,928.2	86.4188	14,928.2	86.1414	14,928.2	86.0611	14,928.2	84.5812	14,928.2	84.5415	14,928.2	82.1873	14,928.2	81.7895	14,928.2	79.7381	14,928.2	78.724	14,928.2	76.0579	14,928.2	75.4813	14,928.2	72.9508	14,928.2	71.4557	14,928.2	69.381	14,928.2	67.8356	14,928.2	63.6767	14,928.2	61.513	14,928.2	61.1412	14,928.2	56.5938	14,928.2	56.0511	14,928.2	45.997	14,928.2	56.4129	14,928.2	49.2666	14,928.2	48.7413	14,928.2	46.5788	14,928.2	46.7998	14,928.2	33.4164	14,928.2	38.2102	14,928.2	44.8921	14,928.2	36.0158	14,928.2	40.4255	14,928.2	42.1444	14,928.2	41.1487	14,928.2	45.7172	14,928.2	38.9019	14,928.2	41.7222
15,455.6	86.7309	15,455.6	86.4536	15,455.6	86.1299	15,455.6	85.1179	15,455.6	84.2949	15,455.6	82.6103	15,455.6	80.9744	15,455.6	80.0456	15,455.6	77.3207	15,455.6	75.2477	15,455.6	72.7039	15,455.6	70.4996	15,455.6	67.7427	15,455.6	64.5909	15,455.6	57.0033	15,455.6	54.9154	15,455.6	52.6099	15,455.6	54.6475	15,455.6	50.8912	15,455.6	41.0498	15,455.6	44.8149	15,455.6	48.3156	15,455.6	43.0224	15,455.6	46.3071	15,455.6	45.1354	15,455.6	40.4118	15,455.6	49.3499	15,455.6	40.5513	15,455.6	44.7026	15,455.6	43.3583	15,455.6	46.7479	15,455.6	39.253	15,455.6	35.9008	15,455.6	45.9764	15,455.6	42.9425	15,455.6	43.4796
16,000.5	86.1983	16,000.5	86.2418	16,000.5	85.3196	16,000.5	84.9292	16,000.5	83.1059	16,000.5	82.0171	16,000.5	79.3032	16,000.5	79.347	16,000.5	75.6182	16,000.5	73.9587	16,000.5	69.6322	16,000.5	67.9378	16,000.5	58.8466	16,000.5	62.6724	16,000.5	61.0986	16,000.5	62.4203	16,000.5	63.9921	16,000.5	61.0231	16,000.5	61.0527	16,000.5	57.9528	16,000.5	56.1666	16,000.5	57.1907	16,000.5	53.2292	16,000.5	50.7249	16,000.5	50.6884	16,000.5	42.8602	16,000.5	54.451	16,000.5	38.9869	16,000.5	45.525	16,000.5	37.3468	16,000.5	47.8187	16,000.5	40.1248	16,000.5	35.7636	16,000.5	37.0075	16,000.5	47.2772	16,000.5	36.9457
16,564.5	85.0198	16,564.5	85.1553	16,564.5	84.4673	16,564.5	83.5894	16,564.5	82.0437	16,564.5	80.8817	16,564.5	78.4417	16,564.5	77.7569	16,564.5	75.1428	16,564.5	69.7768	16,564.5	66.414	16,564.5	62.5761	16,564.5	61.6329	16,564.5	67.7055	16,564.5	68.5911	16,564.5	67.3263	16,564.5	68.6857	16,564.5	65.1064	16,564.5	65.1468	16,564.5	60.6123	16,564.5	60.9333	16,564.5	57.5393	16,564.5	57.5908	16,564.5	52.6483	16,564.5	53.1398	16,564.5	47.4541	16,564.5	53.6142	16,564.5	45.1943	16,564.5	43.8431	16,564.5	43.096	16,564.5	48.8102	16,564.5	43.5201	16,564.5	33.3207	16,564.5	42.1357	16,564.5	41.9542	16,564.5	35.334
17,148.9	84.465	17,148.9	84.3165	17,148.9	84.024	17,148.9	81.8999	17,148.9	81.2172	17,148.9	78.7822	17,148.9	77.7812	17,148.9	74.3007	17,148.9	72.9847	17,148.9	63.6896	17,148.9	62.6025	17,148.9	66.3235	17,148.9	66.7514	17,148.9	70.4569	17,148.9	70.3321	17,148.9	69.885	17,148.9	69.5947	17,148.9	65.7521	17,148.9	66.0233	17,148.9	62.0772	17,148.9	61.8435	17,148.9	59.3186	17,148.9	57.7972	17,148.9	54.6672	17,148.9	52.0635	17,148.9	52.1857	17,148.9	52.6985	17,148.9	45.1055	17,148.9	37.9376	17,148.9	43.7156	17,148.9	45.2626	17,148.9	48.9923	17,148.9	28.2329	17,148.9	42.2596	17,148.9	32.6641	17,148.9	27.9902
17,752.4	83.7062	17,752.4	83.4796	17,752.4	83.2874	17,752.4	80.8073	17,752.4	80.1527	17,752.4	76.7001	17,752.4	75.9742	17,752.4	71.8821	17,752.4	70.48	17,752.4	66.7066	17,752.4	68.3714	17,752.4	68.0498	17,752.4	68.5957	17,752.4	70.4787	17,752.4	70.9486	17,752.4	69.6436	17,752.4	69.739	17,752.4	65.6785	17,752.4	65.3019	17,752.4	61.8866	17,752.4	60.6683	17,752.4	59.7749	17,752.4	57.7892	17,752.4	54.4433	17,752.4	52.6984	17,752.4	51.0927	17,752.4	51.308	17,752.4	42.3388	17,752.4	32.5535	17,752.4	33.1035	17,752.4	32.5996	17,752.4	49.9494	17,752.4	42.6952	17,752.4	45.9655	17,752.4	36.936	17,752.4	40.5747
18,379.4	83.111	18,379.4	82.8632	18,379.4	82.5452	18,379.4	80.0155	18,379.4	79.4382	18,379.4	75.5346	18,379.4	74.5785	18,379.4	70.7028	18,379.4	70.4753	18,379.4	68.8516	18,379.4	70.4217	18,379.4	68.3461	18,379.4	68.7835	18,379.4	70.4992	18,379.4	69.8281	18,379.4	69.5955	18,379.4	68.7157	18,379.4	64.7109	18,379.4	64.3008	18,379.4	60.9674	18,379.4	59.7127	18,379.4	58.4398	18,379.4	56.2349	18,379.4	53.3796	18,379.4	50.4136	18,379.4	51.1854	18,379.4	51.4346	18,379.4	41.0937	18,379.4	36.771	18,379.4	45.2403	18,379.4	34.2909	18,379.4	49.1384	18,379.4	42.8452	18,379.4	44.2305	18,379.4	35.0922	18,379.4	38.9407
19,026.9	82.2974	19,026.9	81.8135	19,026.9	81.356	19,026.9	79.3018	19,026.9	78.2888	19,026.9	73.9565	19,026.9	73.3716	19,026.9	69.9699	19,026.9	70.6148	19,026.9	68.5763	19,026.9	70.6575	19,026.9	68.0648	19,026.9	68.0087	19,026.9	70.2883	19,026.9	68.1278	19,026.9	69.3711	19,026.9	66.3612	19,026.9	64.756	19,026.9	60.8396	19,026.9	60.4361	19,026.9	56.5712	19,026.9	58.6948	19,026.9	52.8575	19,026.9	53.3928	19,026.9	48.5156	19,026.9	50.3139	19,026.9	47.4176	19,026.9	43.4984	19,026.9	25.3142	19,026.9	43.3457	19,026.9	30.2065	19,026.9	42.7918	19,026.9	35.305	19,026.9	44.0396	19,026.9	39.2366	19,026.9	40.9718
19,697.8	81.628	19,697.8	80.7433	19,697.8	80.1631	19,697.8	78.6925	19,697.8	77.1125	19,697.8	73.4776	19,697.8	72.6115	19,697.8	69.8792	19,697.8	69.5711	19,697.8	69.2509	19,697.8	68.4999	19,697.8	69.9173	19,697.8	66.9034	19,697.8	70.3198	19,697.8	66.1357	19,697.8	68.9917	19,697.8	64.1741	19,697.8	63.9931	19,697.8	58.3411	19,697.8	57.96	19,697.8	53.6689	19,697.8	57.1503	19,697.8	49.4219	19,697.8	51.4205	19,697.8	43.6154	19,697.8	48.1592	19,697.8	46.9627	19,697.8	40.2694	19,697.8	29.3485	19,697.8	45.1452	19,697.8	32.9277	19,697.8	38.8535	19,697.8	36.4896	19,697.8	46.48	19,697.8	44.7452	19,697.8	43.6438
19,999.5	81.6132	19,999.5	80.577	19,999.5	79.7376	19,999.5	78.1392	19,999.5	76.7282	19,999.5	72.604	19,999.5	71.875	19,999.5	68.7058	19,999.5	68.4797	19,999.5	69.6751	19,999.5	67.5556	19,999.5	69.7358	19,999.5	65.7929	19,999.5	69.9387	19,999.5	65.478	19,999.5	68.1879	19,999.5	63.1168	19,999.5	63.6877	19,999.5	54.4019	19,999.5	59.0818	19,999.5	49.6455	19,999.5	56.4734	19,999.5	47.7892	19,999.5	57.3593	19,999.5	40.7941	19,999.5	52.1339	19,999.5	46.7856	19,999.5	50.2543	19,999.5	34.0556	19,999.5	42.9546	19,999.5	40.1734	19,999.5	44.4549	19,999.5	42.0461	19,999.5	38.5043	19,999.5	39.3092	19,999.5	47.6865
