"SPL Vertical"
"On-Axis"		"10°"		"-10°"		"20°"		"-20°"		"30°"		"-30°"		"40°"		"-40°"		"50°"		"-50°"		"60°"		"-60°"		"70°"		"-70°"		"80°"		"-80°"		"90°"		"-90°"		"100°"		"-100°"		"110°"		"-110°"		"120°"		"-120°"		"130°"		"-130°"		"140°"		"-140°"		"150°"		"-150°"		"160°"		"-160°"		"170°"		"-170°"		"180°"
"Frequency / Hz"	"Sound Pressure Level / dB (re 20 µPa/V)  [2.83  V @ 1. m]"	"Frequency / Hz"	"Sound Pressure Level / dB (re 20 µPa/V)  [2.83  V @ 1. m]"	"Frequency / Hz"	"Sound Pressure Level / dB (re 20 µPa/V)  [2.83  V @ 1. m]"	"Frequency / Hz"	"Sound Pressure Level / dB (re 20 µPa/V)  [2.83  V @ 1. m]"	"Frequency / Hz"	"Sound Pressure Level / dB (re 20 µPa/V)  [2.83  V @ 1. m]"	"Frequency / Hz"	"Sound Pressure Level / dB (re 20 µPa/V)  [2.83  V @ 1. m]"	"Frequency / Hz"	"Sound Pressure Level / dB (re 20 µPa/V)  [2.83  V @ 1. m]"	"Frequency / Hz"	"Sound Pressure Level / dB (re 20 µPa/V)  [2.83  V @ 1. m]"	"Frequency / Hz"	"Sound Pressure Level / dB (re 20 µPa/V)  [2.83  V @ 1. m]"	"Frequency / Hz"	"Sound Pressure Level / dB (re 20 µPa/V)  [2.83  V @ 1. m]"	"Frequency / Hz"	"Sound Pressure Level / dB (re 20 µPa/V)  [2.83  V @ 1. m]"	"Frequency / Hz"	"Sound Pressure Level / dB (re 20 µPa/V)  [2.83  V @ 1. m]"	"Frequency / Hz"	"Sound Pressure Level / dB (re 20 µPa/V)  [2.83  V @ 1. m]"	"Frequency / Hz"	"Sound Pressure Level / dB (re 20 µPa/V)  [2.83  V @ 1. m]"	"Frequency / Hz"	"Sound Pressure Level / dB (re 20 µPa/V)  [2.83  V @ 1. m]"	"Frequency / Hz"	"Sound Pressure Level / dB (re 20 µPa/V)  [2.83  V @ 1. m]"	"Frequency / Hz"	"Sound Pressure Level / dB (re 20 µPa/V)  [2.83  V @ 1. m]"	"Frequency / Hz"	"Sound Pressure Level / dB (re 20 µPa/V)  [2.83  V @ 1. m]"	"Frequency / Hz"	"Sound Pressure Level / dB (re 20 µPa/V)  [2.83  V @ 1. m]"	"Frequency / Hz"	"Sound Pressure Level / dB (re 20 µPa/V)  [2.83  V @ 1. m]"	"Frequency / Hz"	"Sound Pressure Level / dB (re 20 µPa/V)  [2.83  V @ 1. m]"	"Frequency / Hz"	"Sound Pressure Level / dB (re 20 µPa/V)  [2.83  V @ 1. m]"	"Frequency / Hz"	"Sound Pressure Level / dB (re 20 µPa/V)  [2.83  V @ 1. m]"	"Frequency / Hz"	"Sound Pressure Level / dB (re 20 µPa/V)  [2.83  V @ 1. m]"	"Frequency / Hz"	"Sound Pressure Level / dB (re 20 µPa/V)  [2.83  V @ 1. m]"	"Frequency / Hz"	"Sound Pressure Level / dB (re 20 µPa/V)  [2.83  V @ 1. m]"	"Frequency / Hz"	"Sound Pressure Level / dB (re 20 µPa/V)  [2.83  V @ 1. m]"	"Frequency / Hz"	"Sound Pressure Level / dB (re 20 µPa/V)  [2.83  V @ 1. m]"	"Frequency / Hz"	"Sound Pressure Level / dB (re 20 µPa/V)  [2.83  V @ 1. m]"	"Frequency / Hz"	"Sound Pressure Level / dB (re 20 µPa/V)  [2.83  V @ 1. m]"	"Frequency / Hz"	"Sound Pressure Level / dB (re 20 µPa/V)  [2.83  V @ 1. m]"	"Frequency / Hz"	"Sound Pressure Level / dB (re 20 µPa/V)  [2.83  V @ 1. m]"	"Frequency / Hz"	"Sound Pressure Level / dB (re 20 µPa/V)  [2.83  V @ 1. m]"	"Frequency / Hz"	"Sound Pressure Level / dB (re 20 µPa/V)  [2.83  V @ 1. m]"	"Frequency / Hz"	"Sound Pressure Level / dB (re 20 µPa/V)  [2.83  V @ 1. m]"	"Frequency / Hz"	"Sound Pressure Level / dB (re 20 µPa/V)  [2.83  V @ 1. m]"
20.5078	59.45	20.5078	59.4763	20.5078	59.3039	20.5078	59.3844	20.5078	59.0424	20.5078	59.1826	20.5078	58.6766	20.5078	58.8913	20.5078	58.2294	20.5078	58.5513	20.5078	57.7441	20.5078	58.2356	20.5078	57.297	20.5078	58.056	20.5078	57.0046	20.5078	58.1407	20.5078	57.0036	20.5078	58.5711	20.5078	57.3852	20.5078	59.3209	20.5078	58.129	20.5078	60.2698	20.5078	59.1144	20.5078	61.2747	20.5078	60.1951	20.5078	62.2214	20.5078	61.2541	20.5078	63.0349	20.5078	62.2136	20.5078	63.6707	20.5078	63.0252	20.5078	64.1035	20.5078	63.6585	20.5078	64.3203	20.5078	64.0932	20.5078	64.3163
21.9727	62.2399	21.9727	62.2628	21.9727	62.1088	21.9727	62.1749	21.9727	61.8752	21.9727	61.9769	21.9727	61.5484	21.9727	61.6762	21.9727	61.1452	21.9727	61.2935	21.9727	60.6958	21.9727	60.8745	21.9727	60.2523	21.9727	60.5037	21.9727	59.8974	21.9727	60.3072	21.9727	59.7395	21.9727	60.4168	21.9727	59.8784	21.9727	60.8906	21.9727	60.3492	21.9727	61.6626	21.9727	61.0943	21.9727	62.5863	21.9727	61.9965	21.9727	63.5152	21.9727	62.9346	21.9727	64.3442	21.9727	63.8145	21.9727	65.0097	21.9727	64.5718	21.9727	65.4764	21.9727	65.1644	21.9727	65.727	21.9727	65.5649	21.9727	65.7557
23.4375	63.3653	23.4375	63.3572	23.4375	63.2768	23.4375	63.252	23.4375	63.0971	23.4375	63.0564	23.4375	62.8382	23.4375	62.788	23.4375	62.5212	23.4375	62.4829	23.4375	62.1812	23.4375	62.2049	23.4375	61.8737	23.4375	62.0492	23.4375	61.6756	23.4375	62.1237	23.4375	61.6748	23.4375	62.4992	23.4375	61.9374	23.4375	63.1606	23.4375	62.4724	23.4375	64.0113	23.4375	63.2222	23.4375	64.9267	23.4375	64.0916	23.4375	65.8	23.4375	64.9845	23.4375	66.5569	23.4375	65.8235	23.4375	67.1509	23.4375	66.5527	23.4375	67.5551	23.4375	67.1332	23.4375	67.7559	23.4375	67.538	23.4375	67.7491
24.9023	64.473	24.9023	64.4743	24.9023	64.3865	24.9023	64.3918	24.9023	64.2194	24.9023	64.2339	24.9023	63.9827	24.9023	64.0199	24.9023	63.6967	24.9023	63.7856	24.9023	63.3955	24.9023	63.5897	24.9023	63.1311	24.9023	63.5136	24.9023	62.9742	24.9023	63.6433	24.9023	63.0026	24.9023	64.0307	24.9023	63.2737	24.9023	64.6598	24.9023	63.7943	24.9023	65.451	24.9023	64.5136	24.9023	66.2997	24.9023	65.3468	24.9023	67.1119	24.9023	66.2057	24.9023	67.8183	24.9023	67.0172	24.9023	68.3732	24.9023	67.7269	24.9023	68.7487	24.9023	68.2958	24.9023	68.93	24.9023	68.6968	24.9023	68.9117
26.3672	65.884	26.3672	65.8931	26.3672	65.8119	26.3672	65.8407	26.3672	65.6814	26.3672	65.7365	26.3672	65.5042	26.3672	65.6003	26.3672	65.3009	26.3672	65.4659	26.3672	65.1028	26.3672	65.3835	26.3672	64.9537	26.3672	65.4154	26.3672	64.9073	26.3672	65.6203	26.3672	65.0168	26.3672	66.0277	26.3672	65.3174	26.3672	66.6192	26.3672	65.8096	26.3672	67.3341	26.3672	66.4562	26.3672	68.0926	26.3672	67.1957	26.3672	68.8191	26.3672	67.9605	26.3672	69.4538	26.3672	68.6898	26.3672	69.9541	26.3672	69.3343	26.3672	70.2924	26.3672	69.8564	26.3672	70.4533	26.3672	70.2283	26.3672	70.4309
27.832	67.3179	27.832	67.336	27.832	67.2527	27.832	67.3089	27.832	67.1445	27.832	67.2454	27.832	67.0037	27.832	67.1633	27.832	66.848	27.832	67.0909	27.832	66.704	27.832	67.0685	27.832	66.6068	27.832	67.1434	27.832	66.5985	27.832	67.3588	27.832	66.7194	27.832	67.736	27.832	66.997	27.832	68.2623	27.832	67.4336	27.832	68.8921	27.832	68.0036	27.832	69.5625	27.832	68.6599	27.832	70.2093	27.832	69.3469	27.832	70.7781	27.832	70.0109	27.832	71.228	27.832	70.6052	27.832	71.531	27.832	71.0925	27.832	71.6707	27.832	71.4443	27.832	71.6409
29.2969	69.1517	29.2969	69.1676	29.2969	69.0912	29.2969	69.1402	29.2969	68.9897	29.2969	69.0768	29.2969	68.856	29.2969	68.9916	29.2969	68.7049	29.2969	68.908	29.2969	68.558	29.2969	68.8589	29.2969	68.4446	29.2969	68.8847	29.2969	68.3997	29.2969	69.0248	29.2969	68.4591	29.2969	69.3047	29.2969	68.6511	29.2969	69.7227	29.2969	68.9855	29.2969	70.2474	29.2969	69.4485	29.2969	70.8264	29.2969	70.0047	29.2969	71.4004	29.2969	70.606	29.2969	71.9154	29.2969	71.2015	29.2969	72.3282	29.2969	71.7444	29.2969	72.6086	29.2969	72.1953	29.2969	72.7379	29.2969	72.5239	29.2969	72.7088
30.7617	70.0726	30.7617	70.0893	30.7617	70.0209	30.7617	70.0732	30.7617	69.9375	30.7617	70.0319	30.7617	69.8304	30.7617	69.9797	30.7617	69.7135	30.7617	69.9386	30.7617	69.6066	30.7617	69.9384	30.7617	69.5358	30.7617	70.0131	30.7617	69.5313	30.7617	70.194	30.7617	69.6229	30.7617	70.4982	30.7617	69.8332	30.7617	70.9203	30.7617	70.1689	30.7617	71.4306	30.7617	70.6175	30.7617	71.9826	30.7617	71.1483	30.7617	72.5243	30.7617	71.7193	30.7617	73.0075	30.7617	72.285	30.7617	73.393	30.7617	72.8024	30.7617	73.6524	30.7617	73.2345	30.7617	73.7684	30.7617	73.5521	30.7617	73.7341
32.2266	71.0472	32.2266	71.0719	32.2266	70.9976	32.2266	71.0735	32.2266	70.9254	32.2266	71.0593	32.2266	70.8382	32.2266	71.0421	32.2266	70.7482	32.2266	71.0411	32.2266	70.673	32.2266	71.0808	32.2266	70.6349	32.2266	71.1888	32.2266	70.6593	32.2266	71.3889	32.2266	70.7705	32.2266	71.6935	32.2266	70.9863	32.2266	72.0965	32.2266	71.3119	32.2266	72.573	32.2266	71.7365	32.2266	73.0834	32.2266	72.2343	32.2266	73.5828	32.2266	72.7691	32.2266	74.0278	32.2266	73.3004	32.2266	74.3822	32.2266	73.7889	32.2266	74.6189	32.2266	74.1996	32.2266	74.7212	32.2266	74.5041	32.2266	74.682
33.6914	72.4602	33.6914	72.4913	33.6914	72.4123	33.6914	72.5074	33.6914	72.3502	33.6914	72.5137	33.6914	72.28	33.6914	72.5203	33.6914	72.2115	33.6914	72.5417	33.6914	72.1586	33.6914	72.5967	33.6914	72.1388	33.6914	72.7059	33.6914	72.1712	33.6914	72.8877	33.6914	72.2748	33.6914	73.1525	33.6914	72.4636	33.6914	73.4973	33.6914	72.7432	33.6914	73.9042	33.6914	73.107	33.6914	74.3426	33.6914	73.5363	33.6914	74.775	33.6914	74.0026	33.6914	75.1634	33.6914	74.4718	33.6914	75.474	33.6914	74.9087	33.6914	75.6809	33.6914	75.2805	33.6914	75.7672	33.6914	75.5597	33.6914	75.7259
35.1562	73.6953	35.1562	73.7235	35.1562	73.6555	35.1562	73.7418	35.1562	73.6055	35.1562	73.7552	35.1562	73.5502	35.1562	73.7724	35.1562	73.4973	35.1562	73.8055	35.1562	73.4581	35.1562	73.8698	35.1562	73.4463	35.1562	73.9818	35.1562	73.4781	35.1562	74.1564	35.1562	73.5693	35.1562	74.4021	35.1562	73.733	35.1562	74.7171	35.1562	73.9762	35.1562	75.0868	35.1562	74.2959	35.1562	75.4855	35.1562	74.6788	35.1562	75.8801	35.1562	75.1017	35.1562	76.2355	35.1562	75.5344	35.1562	76.5195	35.1562	75.9437	35.1562	76.7067	35.1562	76.2974	35.1562	76.7801	35.1562	76.5675	35.1562	76.7326
36.6211	74.6437	36.6211	74.6764	36.6211	74.6032	36.6211	74.7025	36.6211	74.5561	36.6211	74.7265	36.6211	74.5066	36.6211	74.7555	36.6211	74.4614	36.6211	74.7998	36.6211	74.4303	36.6211	74.8718	36.6211	74.4252	36.6211	74.985	36.6211	74.4598	36.6211	75.1516	36.6211	74.5476	36.6211	75.3786	36.6211	74.7001	36.6211	75.6648	36.6211	74.9232	36.6211	75.9983	36.6211	75.2152	36.6211	76.3575	36.6211	75.5651	36.6211	76.7135	36.6211	75.9527	36.6211	77.0347	36.6211	76.3514	36.6211	77.2915	36.6211	76.7311	36.6211	77.4595	36.6211	77.0614	36.6211	77.5225	36.6211	77.3158	36.6211	77.4736
38.0859	75.3546	38.0859	75.39	38.0859	75.3173	38.0859	75.4249	38.0859	75.2788	38.0859	75.4633	38.0859	75.2426	38.0859	75.5115	38.0859	75.2144	38.0859	75.5779	38.0859	75.2025	38.0859	75.6725	38.0859	75.2171	38.0859	75.8057	38.0859	75.2695	38.0859	75.9862	38.0859	75.3709	38.0859	76.2186	38.0859	75.5305	38.0859	76.5003	38.0859	75.7531	38.0859	76.8205	38.0859	76.0367	38.0859	77.16	38.0859	76.3715	38.0859	77.4933	38.0859	76.7398	38.0859	77.7923	38.0859	77.1178	38.0859	78.03	38.0859	77.478	38.0859	78.1839	38.0859	77.7923	38.0859	78.2389	38.0859	78.0357	38.0859	78.1885
39.5508	76.3637	39.5508	76.4035	39.5508	76.3254	39.5508	76.4456	39.5508	76.2896	39.5508	76.4924	39.5508	76.2591	39.5508	76.5482	39.5508	76.2383	39.5508	76.6188	39.5508	76.2334	39.5508	76.7113	39.5508	76.2518	39.5508	76.8334	39.5508	76.3024	39.5508	76.9919	39.5508	76.3935	39.5508	77.191	39.5508	76.5326	39.5508	77.4297	39.5508	76.724	39.5508	77.7005	39.5508	76.967	39.5508	77.9887	39.5508	77.2548	39.5508	78.2733	39.5508	77.5737	39.5508	78.5303	39.5508	77.9042	39.5508	78.7351	39.5508	78.2222	39.5508	78.867	39.5508	78.5028	39.5508	78.9116	39.5508	78.7223	39.5508	78.8624
41.0156	77.0475	41.0156	77.0877	41.0156	77.0106	41.0156	77.1319	41.0156	76.9778	41.0156	77.182	41.0156	76.9514	41.0156	77.2413	41.0156	76.9351	41.0156	77.3145	41.0156	76.9339	41.0156	77.4072	41.0156	76.954	41.0156	77.5255	41.0156	77.0027	41.0156	77.6749	41.0156	77.0872	41.0156	77.8589	41.0156	77.214	41.0156	78.0765	41.0156	77.387	41.0156	78.3216	41.0156	77.6064	41.0156	78.5815	41.0156	77.8669	41.0156	78.8379	41.0156	78.157	41.0156	79.0689	41.0156	78.4595	41.0156	79.2523	41.0156	78.7529	41.0156	79.3688	41.0156	79.0139	41.0156	79.4047	41.0156	79.2203	41.0156	79.3543
42.4805	77.6975	42.4805	77.7372	42.4805	77.6625	42.4805	77.7817	42.4805	77.6328	42.4805	77.8327	42.4805	77.6102	42.4805	77.8925	42.4805	77.5976	42.4805	77.9647	42.4805	77.5991	42.4805	78.0535	42.4805	77.6196	42.4805	78.1637	42.4805	77.6649	42.4805	78.2995	42.4805	77.7411	42.4805	78.4639	42.4805	77.8534	42.4805	78.6562	42.4805	78.0057	42.4805	78.8716	42.4805	78.1985	42.4805	79.0995	42.4805	78.4279	42.4805	79.3245	42.4805	78.6847	42.4805	79.5274	42.4805	78.9543	42.4805	79.6882	42.4805	79.2179	42.4805	79.789	42.4805	79.4544	42.4805	79.8174	42.4805	79.6433	42.4805	79.7679
43.9453	78.3455	43.9453	78.3881	43.9453	78.3092	43.9453	78.4371	43.9453	78.2799	43.9453	78.4936	43.9453	78.2589	43.9453	78.5591	43.9453	78.2485	43.9453	78.6359	43.9453	78.2519	43.9453	78.7269	43.9453	78.273	43.9453	78.8355	43.9453	78.3167	43.9453	78.965	43.9453	78.3878	43.9453	79.1174	43.9453	78.4911	43.9453	79.2925	43.9453	78.6299	43.9453	79.4862	43.9453	78.8051	43.9453	79.6898	43.9453	79.0139	43.9453	79.8899	43.9453	79.2487	43.9453	80.0694	43.9453	79.4967	43.9453	80.2102	43.9453	79.7412	43.9453	80.2961	43.9453	79.9626	43.9453	80.3152	43.9453	80.1419	43.9453	80.2628
45.4102	78.8924	45.4102	78.9339	45.4102	78.8586	45.4102	78.9833	45.4102	78.8331	45.4102	79.041	45.4102	78.817	45.4102	79.1083	45.4102	78.812	45.4102	79.1868	45.4102	78.8206	45.4102	79.2787	45.4102	78.8461	45.4102	79.3864	45.4102	78.8919	45.4102	79.5122	45.4102	78.9621	45.4102	79.6575	45.4102	79.0605	45.4102	79.8219	45.4102	79.1898	45.4102	80.0015	45.4102	79.3511	45.4102	80.1886	45.4102	79.5422	45.4102	80.3711	45.4102	79.7567	45.4102	80.5338	45.4102	79.984	45.4102	80.6603	45.4102	80.2091	45.4102	80.7357	45.4102	80.4144	45.4102	80.7494	45.4102	80.5822	45.4102	80.6972
46.875	79.423	46.875	79.4659	46.875	79.3898	46.875	79.5182	46.875	79.3665	46.875	79.5803	46.875	79.3538	46.875	79.6525	46.875	79.353	46.875	79.7356	46.875	79.3656	46.875	79.8307	46.875	79.3938	46.875	79.9389	46.875	79.4403	46.875	80.0616	46.875	79.5081	46.875	80.1993	46.875	79.6004	46.875	80.3513	46.875	79.7194	46.875	80.5142	46.875	79.8663	46.875	80.6812	46.875	80.0395	46.875	80.8423	46.875	80.2341	46.875	80.9841	46.875	80.441	46.875	81.0923	46.875	80.6473	46.875	81.1538	46.875	80.8373	46.875	81.1593	46.875	80.9946	46.875	81.1051
48.3398	79.8628	48.3398	79.9064	48.3398	79.83	48.3398	79.9607	48.3398	79.8082	48.3398	80.0257	48.3398	79.7979	48.3398	80.1013	48.3398	79.7996	48.3398	80.1875	48.3398	79.8144	48.3398	80.2845	48.3398	79.8438	48.3398	80.3925	48.3398	79.8897	48.3398	80.5118	48.3398	79.9543	48.3398	80.6424	48.3398	80.0401	48.3398	80.7829	48.3398	80.1492	48.3398	80.9303	48.3398	80.2827	48.3398	81.0789	48.3398	80.4394	48.3398	81.22	48.3398	80.6157	48.3398	81.3422	48.3398	80.8038	48.3398	81.4331	48.3398	80.9927	48.3398	81.4813	48.3398	81.1684	48.3398	81.4787	48.3398	81.3161	48.3398	81.4225
51.2695	80.7301	51.2695	80.777	51.2695	80.6961	51.2695	80.8363	51.2695	80.6753	51.2695	80.9071	51.2695	80.6675	51.2695	80.9883	51.2695	80.6729	51.2695	81.0785	51.2695	80.6912	51.2695	81.1764	51.2695	80.7226	51.2695	81.2805	51.2695	80.7675	51.2695	81.3897	51.2695	80.8268	51.2695	81.5028	51.2695	80.9015	51.2695	81.6183	51.2695	80.9928	51.2695	81.7339	51.2695	81.1016	51.2695	81.8457	51.2695	81.2276	51.2695	81.9481	51.2695	81.3689	51.2695	82.0331	51.2695	81.5205	51.2695	82.092	51.2695	81.6747	51.2695	82.1165	51.2695	81.8209	51.2695	82.1009	51.2695	81.9474	51.2695	82.0434
52.7344	81.2157	52.7344	81.2637	52.7344	81.1804	52.7344	81.3236	52.7344	81.1581	52.7344	81.3945	52.7344	81.1486	52.7344	81.4747	52.7344	81.1519	52.7344	81.5624	52.7344	81.1674	52.7344	81.6558	52.7344	81.1949	52.7344	81.753	52.7344	81.2345	52.7344	81.8523	52.7344	81.2864	52.7344	81.9525	52.7344	81.3513	52.7344	82.0521	52.7344	81.4303	52.7344	82.1492	52.7344	81.5242	52.7344	82.2409	52.7344	81.6331	52.7344	82.3227	52.7344	81.7558	52.7344	82.3885	52.7344	81.8887	52.7344	82.4311	52.7344	82.0252	52.7344	82.4437	52.7344	82.1567	52.7344	82.4215	52.7344	82.2727	52.7344	82.3634
54.1992	81.6365	54.1992	81.6868	54.1992	81.5975	54.1992	81.7476	54.1992	81.5703	54.1992	81.8173	54.1992	81.5552	54.1992	81.8942	54.1992	81.5519	54.1992	81.9762	54.1992	81.5601	54.1992	82.0612	54.1992	81.5794	54.1992	82.1471	54.1992	81.6097	54.1992	82.2322	54.1992	81.6508	54.1992	82.3153	54.1992	81.7034	54.1992	82.3951	54.1992	81.768	54.1992	82.4704	54.1992	81.8454	54.1992	82.5392	54.1992	81.9362	54.1992	82.5984	54.1992	82.0396	54.1992	82.6434	54.1992	82.1531	54.1992	82.6685	54.1992	82.2717	54.1992	82.6681	54.1992	82.3882	54.1992	82.6386	54.1992	82.4937	54.1992	82.5794
55.6641	81.9737	55.6641	82.0278	55.6641	81.9312	55.6641	82.0922	55.6641	81.9007	55.6641	82.1655	55.6641	81.8825	55.6641	82.2458	55.6641	81.8764	55.6641	82.3305	55.6641	81.8819	55.6641	82.4173	55.6641	81.8986	55.6641	82.5037	55.6641	81.9259	55.6641	82.5877	55.6641	81.9637	55.6641	82.6674	55.6641	82.012	55.6641	82.7415	55.6641	82.0714	55.6641	82.8087	55.6641	82.1426	55.6641	82.8673	55.6641	82.2261	55.6641	82.9147	55.6641	82.3218	55.6641	82.947	55.6641	82.4279	55.6641	82.9596	55.6641	82.5404	55.6641	82.9482	55.6641	82.6529	55.6641	82.91	55.6641	82.7572	55.6641	82.8451
58.5938	82.6097	58.5938	82.6646	58.5938	82.5688	58.5938	82.732	58.5938	82.5424	58.5938	82.8099	58.5938	82.5303	58.5938	82.8957	58.5938	82.5317	58.5938	82.9863	58.5938	82.5454	58.5938	83.0782	58.5938	82.5697	58.5938	83.1684	58.5938	82.6031	58.5938	83.2536	58.5938	82.6442	58.5938	83.3313	58.5938	82.6922	58.5938	83.3995	58.5938	82.7467	58.5938	83.4566	58.5938	82.8083	58.5938	83.5014	58.5938	82.8776	58.5938	83.5321	58.5938	82.9555	58.5938	83.5467	58.5938	83.0418	58.5938	83.5427	58.5938	83.1346	58.5938	83.518	58.5938	83.2302	58.5938	83.4716	58.5938	83.3226	58.5938	83.4051
60.0586	82.8958	60.0586	82.949	60.0586	82.8576	60.0586	83.0158	60.0586	82.8348	60.0586	83.0942	60.0586	82.8267	60.0586	83.1814	60.0586	82.8324	60.0586	83.2739	60.0586	82.85	60.0586	83.368	60.0586	82.8776	60.0586	83.46	60.0586	82.9132	60.0586	83.5461	60.0586	82.9552	60.0586	83.6235	60.0586	83.0024	60.0586	83.6896	60.0586	83.0543	60.0586	83.7429	60.0586	83.1113	60.0586	83.7821	60.0586	83.1744	60.0586	83.8062	60.0586	83.2445	60.0586	83.8137	60.0586	83.3222	60.0586	83.8033	60.0586	83.4063	60.0586	83.7738	60.0586	83.4941	60.0586	83.7252	60.0586	83.5804	60.0586	83.6593
62.9883	83.445	62.9883	83.4994	62.9883	83.4058	62.9883	83.5673	62.9883	83.3823	62.9883	83.6463	62.9883	83.3743	62.9883	83.7331	62.9883	83.3806	62.9883	83.8238	62.9883	83.3991	62.9883	83.9142	62.9883	83.4276	62.9883	84.0001	62.9883	83.4633	62.9883	84.0775	62.9883	83.5039	62.9883	84.143	62.9883	83.5474	62.9883	84.1942	62.9883	83.5924	62.9883	84.2297	62.9883	83.6388	62.9883	84.2491	62.9883	83.6872	62.9883	84.2525	62.9883	83.739	62.9883	84.2407	62.9883	83.7954	62.9883	84.2142	62.9883	83.8573	62.9883	84.174	62.9883	83.9239	62.9883	84.1217	62.9883	83.9927	62.9883	84.0601
64.4531	83.7042	64.4531	83.7587	64.4531	83.6653	64.4531	83.8271	64.4531	83.6427	64.4531	83.9069	64.4531	83.636	64.4531	83.9946	64.4531	83.644	64.4531	84.0861	64.4531	83.6644	64.4531	84.177	64.4531	83.6945	64.4531	84.2628	64.4531	83.7315	64.4531	84.339	64.4531	83.7725	64.4531	84.4021	64.4531	83.8151	64.4531	84.4495	64.4531	83.8579	64.4531	84.4797	64.4531	83.9002	64.4531	84.4922	64.4531	83.9427	64.4531	84.488	64.4531	83.987	64.4531	84.4682	64.4531	84.0348	64.4531	84.4344	64.4531	84.0878	64.4531	84.3888	64.4531	84.1461	64.4531	84.3337	64.4531	84.2087	64.4531	84.2724
67.3828	84.2041	67.3828	84.2596	67.3828	84.1646	67.3828	84.329	67.3828	84.1415	67.3828	84.4097	67.3828	84.1346	67.3828	84.4979	67.3828	84.1423	67.3828	84.5891	67.3828	84.1623	67.3828	84.6785	67.3828	84.1914	67.3828	84.7611	67.3828	84.2264	67.3828	84.832	67.3828	84.2638	67.3828	84.8873	67.3828	84.3009	67.3828	84.924	67.3828	84.3355	67.3828	84.9405	67.3828	84.3669	67.3828	84.937	67.3828	84.3958	67.3828	84.915	67.3828	84.4239	67.3828	84.8771	67.3828	84.4543	67.3828	84.8268	67.3828	84.4899	67.3828	84.7682	67.3828	84.5331	67.3828	84.7055	67.3828	84.5845	67.3828	84.6429
68.8477	84.4373	68.8477	84.4924	68.8477	84.3977	68.8477	84.5612	68.8477	84.3743	68.8477	84.6407	68.8477	84.3667	68.8477	84.7271	68.8477	84.3734	68.8477	84.816	68.8477	84.3919	68.8477	84.9022	68.8477	84.4192	68.8477	84.9808	68.8477	84.4515	68.8477	85.0468	68.8477	84.4856	68.8477	85.096	68.8477	84.5182	68.8477	85.1256	68.8477	84.5473	68.8477	85.1341	68.8477	84.5718	68.8477	85.1217	68.8477	84.5926	68.8477	85.0904	68.8477	84.6117	68.8477	85.0436	68.8477	84.6324	68.8477	84.9855	68.8477	84.6585	68.8477	84.9212	68.8477	84.6933	68.8477	84.8555	68.8477	84.7384	68.8477	84.7932
71.7773	84.8684	71.7773	84.9252	71.7773	84.8263	71.7773	84.9946	71.7773	84.7997	71.7773	85.0736	71.7773	84.7883	71.7773	85.1583	71.7773	84.7908	71.7773	85.2441	71.7773	84.8048	71.7773	85.3259	71.7773	84.827	71.7773	85.3982	71.7773	84.8537	71.7773	85.456	71.7773	84.8812	71.7773	85.495	71.7773	84.9061	71.7773	85.512	71.7773	84.9259	71.7773	85.5057	71.7773	84.9394	71.7773	85.4767	71.7773	84.9472	71.7773	85.4276	71.7773	84.9518	71.7773	85.3632	71.7773	84.9571	71.7773	85.2893	71.7773	84.9682	71.7773	85.2126	71.7773	84.9899	71.7773	85.1396	71.7773	85.0254	71.7773	85.0758
74.707	85.2684	74.707	85.3302	74.707	85.2215	74.707	85.4046	74.707	85.1905	74.707	85.4884	74.707	85.1753	74.707	85.5775	74.707	85.1745	74.707	85.6669	74.707	85.1857	74.707	85.7511	74.707	85.2056	74.707	85.8244	74.707	85.2303	74.707	85.8815	74.707	85.2556	74.707	85.9175	74.707	85.278	74.707	85.9291	74.707	85.2944	74.707	85.9147	74.707	85.3037	74.707	85.8751	74.707	85.3061	74.707	85.8135	74.707	85.3042	74.707	85.7354	74.707	85.3026	74.707	85.6479	74.707	85.3071	74.707	85.5591	74.707	85.3235	74.707	85.477	74.707	85.3564	74.707	85.408
77.6367	85.6072	77.6367	85.6696	77.6367	85.5596	77.6367	85.7446	77.6367	85.528	77.6367	85.8287	77.6367	85.5123	77.6367	85.9176	77.6367	85.5113	77.6367	86.0062	77.6367	85.5224	77.6367	86.089	77.6367	85.5421	77.6367	86.16	77.6367	85.5664	77.6367	86.2136	77.6367	85.5908	77.6367	86.2448	77.6367	85.6112	77.6367	86.2499	77.6367	85.6243	77.6367	86.2276	77.6367	85.6284	77.6367	86.1786	77.6367	85.6238	77.6367	86.1066	77.6367	85.6132	77.6367	86.0181	77.6367	85.6013	77.6367	85.9214	77.6367	85.5949	77.6367	85.8258	77.6367	85.6011	77.6367	85.7404	77.6367	85.6258	77.6367	85.6724
79.1016	85.7473	79.1016	85.8094	79.1016	85.6994	79.1016	85.8833	79.1016	85.6669	79.1016	85.9657	79.1016	85.6499	79.1016	86.0522	79.1016	85.6472	79.1016	86.1379	79.1016	85.6562	79.1016	86.2172	79.1016	85.6737	79.1016	86.2841	79.1016	85.6952	79.1016	86.3331	79.1016	85.7165	79.1016	86.359	79.1016	85.7331	79.1016	86.3583	79.1016	85.7419	79.1016	86.3294	79.1016	85.7408	79.1016	86.2735	79.1016	85.7302	79.1016	86.1945	79.1016	85.7128	79.1016	86.0992	79.1016	85.6936	79.1016	85.9966	79.1016	85.6799	79.1016	85.8968	79.1016	85.6794	79.1016	85.8094	79.1016	85.6987	79.1016	85.7421
82.0312	86.0283	82.0312	86.0898	82.0312	85.9796	82.0312	86.1617	82.0312	85.9452	82.0312	86.2406	82.0312	85.9252	82.0312	86.3225	82.0312	85.9187	82.0312	86.4025	82.0312	85.9234	82.0312	86.4751	82.0312	85.9361	82.0312	86.5346	82.0312	85.9526	82.0312	86.5753	82.0312	85.9681	82.0312	86.5922	82.0312	85.9784	82.0312	86.5816	82.0312	85.9798	82.0312	86.5421	82.0312	85.9701	82.0312	86.4748	82.0312	85.9496	82.0312	86.3842	82.0312	85.921	82.0312	86.2778	82.0312	85.8899	82.0312	86.1656	82.0312	85.8642	82.0312	86.0588	82.0312	85.8527	82.0312	85.9681	82.0312	85.8634	82.0312	85.9017
84.9609	86.2504	84.9609	86.3126	84.9609	86.2021	84.9609	86.3862	84.9609	86.1693	84.9609	86.4675	84.9609	86.1523	84.9609	86.5521	84.9609	86.15	84.9609	86.6348	84.9609	86.1602	84.9609	86.71	84.9609	86.179	84.9609	86.7715	84.9609	86.202	84.9609	86.8133	84.9609	86.2238	84.9609	86.83	84.9609	86.2394	84.9609	86.8179	84.9609	86.2445	84.9609	86.7751	84.9609	86.2363	84.9609	86.7032	84.9609	86.2146	84.9609	86.607	84.9609	86.1818	84.9609	86.4949	84.9609	86.1437	84.9609	86.3782	84.9609	86.1088	84.9609	86.2692	84.9609	86.087	84.9609	86.1797	84.9609	86.0879	84.9609	86.1181
87.8906	86.4591	87.8906	86.5223	87.8906	86.4088	87.8906	86.5958	87.8906	86.3734	87.8906	86.6761	87.8906	86.3532	87.8906	86.7588	87.8906	86.3477	87.8906	86.8387	87.8906	86.3549	87.8906	86.9103	87.8906	86.3713	87.8906	86.9676	87.8906	86.3927	87.8906	87.0048	87.8906	86.4139	87.8906	87.0165	87.8906	86.4297	87.8906	86.9991	87.8906	86.4356	87.8906	86.951	87.8906	86.4282	87.8906	86.874	87.8906	86.4069	87.8906	86.7734	87.8906	86.3735	87.8906	86.6582	87.8906	86.3334	87.8906	86.5399	87.8906	86.2949	87.8906	86.4316	87.8906	86.2681	87.8906	86.3448	87.8906	86.2632	87.8906	86.2878
90.8203	86.59	90.8203	86.6552	90.8203	86.5363	90.8203	86.7291	90.8203	86.4961	90.8203	86.808	90.8203	86.4705	90.8203	86.8876	90.8203	86.4591	90.8203	86.963	90.8203	86.4603	90.8203	87.0286	90.8203	86.4709	90.8203	87.0788	90.8203	86.4867	90.8203	87.1076	90.8203	86.5024	90.8203	87.1099	90.8203	86.5125	90.8203	87.0821	90.8203	86.5123	90.8203	87.0229	90.8203	86.4982	90.8203	86.9342	90.8203	86.4692	90.8203	86.8219	90.8203	86.4274	90.8203	86.6956	90.8203	86.3782	90.8203	86.5679	90.8203	86.3306	90.8203	86.4526	90.8203	86.2955	90.8203	86.3622	90.8203	86.2842	90.8203	86.3052
95.2148	86.88	95.2148	86.9454	95.2148	86.8243	95.2148	87.0177	95.2148	86.7803	95.2148	87.0935	95.2148	86.7492	95.2148	87.1687	95.2148	86.731	95.2148	87.2386	95.2148	86.7246	95.2148	87.2979	95.2148	86.7269	95.2148	87.3406	95.2148	86.7338	95.2148	87.3608	95.2148	86.74	95.2148	87.353	95.2148	86.7402	95.2148	87.3134	95.2148	86.7291	95.2148	87.2405	95.2148	86.7033	95.2148	87.1366	95.2148	86.6618	95.2148	87.008	95.2148	86.6068	95.2148	86.8653	95.2148	86.5443	95.2148	86.7227	95.2148	86.4842	95.2148	86.5954	95.2148	86.4385	95.2148	86.4974	95.2148	86.4199	95.2148	86.438
98.1445	87.0115	98.1445	87.0811	98.1445	86.95	98.1445	87.1559	98.1445	86.8993	98.1445	87.2322	98.1445	86.861	98.1445	87.3059	98.1445	86.8355	98.1445	87.3721	98.1445	86.822	98.1445	87.4258	98.1445	86.818	98.1445	87.4611	98.1445	86.8194	98.1445	87.4724	98.1445	86.821	98.1445	87.4548	98.1445	86.8171	98.1445	87.4046	98.1445	86.8023	98.1445	87.321	98.1445	86.7729	98.1445	87.2065	98.1445	86.7275	98.1445	87.068	98.1445	86.6682	98.1445	86.9168	98.1445	86.601	98.1445	86.7674	98.1445	86.5358	98.1445	86.6358	98.1445	86.4852	98.1445	86.5361	98.1445	86.4622	98.1445	86.4775
101.074	87.0722	101.074	87.1457	101.074	87.0038	101.074	87.2206	101.074	86.9435	101.074	87.2933	101.074	86.8937	101.074	87.3598	101.074	86.8557	101.074	87.4157	101.074	86.8295	101.074	87.4563	101.074	86.8132	101.074	87.4764	101.074	86.803	101.074	87.4709	101.074	86.7939	101.074	87.4353	101.074	86.7801	101.074	87.3663	101.074	86.7561	101.074	87.2636	101.074	86.7176	101.074	87.1305	101.074	86.6628	101.074	86.9747	101.074	86.5936	101.074	86.8088	101.074	86.5159	101.074	86.6483	101.074	86.4397	101.074	86.5102	101.074	86.3782	101.074	86.409	101.074	86.3456	101.074	86.3537
105.469	87.1886	105.469	87.2675	105.469	87.112	105.469	87.3457	105.469	87.0408	105.469	87.4199	105.469	86.9778	105.469	87.4868	105.469	86.9248	105.469	87.5426	105.469	86.8827	105.469	87.5831	105.469	86.8504	105.469	87.6031	105.469	86.8252	105.469	87.5971	105.469	86.8026	105.469	87.56	105.469	86.7772	105.469	87.4878	105.469	86.7436	105.469	87.3792	105.469	86.6976	105.469	87.2368	105.469	86.6375	105.469	87.068	105.469	86.5651	105.469	86.8854	105.469	86.4865	105.469	86.7057	105.469	86.4124	105.469	86.5474	105.469	86.3564	105.469	86.4268	105.469	86.3331	105.469	86.3545
108.398	87.3959	108.398	87.4751	108.398	87.3185	108.398	87.5528	108.398	87.2456	108.398	87.6259	108.398	87.1801	108.398	87.6912	108.398	87.1241	108.398	87.7448	108.398	87.0783	108.398	87.7822	108.398	87.0418	108.398	87.7983	108.398	87.0122	108.398	87.7874	108.398	86.985	108.398	87.7445	108.398	86.9549	108.398	87.6657	108.398	86.9167	108.398	87.55	108.398	86.866	108.398	87.4002	108.398	86.8011	108.398	87.2243	108.398	86.7239	108.398	87.0353	108.398	86.6407	108.398	86.8506	108.398	86.562	108.398	86.6889	108.398	86.5019	108.398	86.5668	108.398	86.4754	108.398	86.4949
112.793	87.5764	112.793	87.663	112.793	87.4903	112.793	87.7464	112.793	87.4086	112.793	87.8229	112.793	87.3349	112.793	87.8889	112.793	87.2721	112.793	87.9407	112.793	87.2218	112.793	87.974	112.793	87.1836	112.793	87.9838	112.793	87.1548	112.793	87.9653	112.793	87.1311	112.793	87.9137	112.793	87.1064	112.793	87.8259	112.793	87.0746	112.793	87.7016	112.793	87.0306	112.793	87.5444	112.793	86.9717	112.793	87.3632	112.793	86.8987	112.793	87.1718	112.793	86.8173	112.793	86.9881	112.793	86.7375	112.793	86.8306	112.793	86.6735	112.793	86.7154	112.793	86.6404	112.793	86.6518
117.188	87.6636	117.188	87.7451	117.188	87.5812	117.188	87.8224	117.188	87.5013	117.188	87.8925	117.188	87.4274	117.188	87.9522	117.188	87.3622	117.188	87.9979	117.188	87.3076	117.188	88.0254	117.188	87.2633	117.188	88.0296	117.188	87.2273	117.188	88.0051	117.188	87.1953	117.188	87.947	117.188	87.1618	117.188	87.8517	117.188	87.1207	117.188	87.719	117.188	87.0673	117.188	87.5531	117.188	86.9991	117.188	87.3634	117.188	86.9173	117.188	87.1647	117.188	86.8276	117.188	86.9755	117.188	86.7404	117.188	86.8152	117.188	86.6697	117.188	86.6999	117.188	86.6312	117.188	86.6385
120.117	87.7112	120.117	87.8006	120.117	87.62	120.117	87.885	120.117	87.5304	120.117	87.9613	120.117	87.4456	120.117	88.026	120.117	87.3683	120.117	88.0751	120.117	87.3001	120.117	88.104	120.117	87.2411	120.117	88.1072	120.117	87.1895	120.117	88.079	120.117	87.1416	120.117	88.014	120.117	87.0925	120.117	87.9088	120.117	87.037	120.117	87.763	120.117	86.9711	120.117	87.581	120.117	86.8929	120.117	87.3727	120.117	86.8044	120.117	87.1535	120.117	86.7116	120.117	86.9433	120.117	86.6253	120.117	86.7624	120.117	86.5597	120.117	86.6282	120.117	86.5303	120.117	86.5505
124.512	87.8461	124.512	87.9269	124.512	87.763	124.512	88.0027	124.512	87.6806	124.512	88.0709	124.512	87.602	124.512	88.1287	124.512	87.5297	124.512	88.1729	124.512	87.4651	124.512	88.1992	124.512	87.4086	124.512	88.2028	124.512	87.3581	124.512	88.178	124.512	87.3105	124.512	88.1194	124.512	87.261	124.512	88.0229	124.512	87.205	124.512	87.8878	124.512	87.1388	124.512	87.7174	124.512	87.061	124.512	87.521	124.512	86.9737	124.512	87.3133	124.512	86.8835	124.512	87.1129	124.512	86.8006	124.512	86.9395	124.512	86.7387	124.512	86.8098	124.512	86.7122	124.512	86.7337
128.906	87.8313	128.906	87.9093	128.906	87.7488	128.906	87.9799	128.906	87.6651	128.906	88.0406	128.906	87.5841	128.906	88.089	128.906	87.5092	128.906	88.1227	128.906	87.4426	128.906	88.1381	128.906	87.3849	128.906	88.1308	128.906	87.3347	128.906	88.0955	128.906	87.2883	128.906	88.0271	128.906	87.2406	128.906	87.9221	128.906	87.1862	128.906	87.7799	128.906	87.1208	128.906	87.6048	128.906	87.0424	128.906	87.4067	128.906	86.9529	128.906	87.201	128.906	86.8579	128.906	87.0068	128.906	86.7679	128.906	86.8436	128.906	86.6961	128.906	86.7269	128.906	86.6574	128.906	86.665
133.301	87.7982	133.301	87.8721	133.301	87.7173	133.301	87.9364	133.301	87.6334	133.301	87.989	133.301	87.551	133.301	88.0286	133.301	87.4745	133.301	88.0537	133.301	87.4072	133.301	88.0619	133.301	87.3503	133.301	88.0496	133.301	87.3026	133.301	88.0122	133.301	87.2604	133.301	87.9447	133.301	87.2179	133.301	87.8431	133.301	87.169	133.301	87.7064	133.301	87.1087	133.301	87.5382	133.301	87.0343	133.301	87.348	133.301	86.9473	133.301	87.1508	133.301	86.8533	133.301	86.9654	133.301	86.7626	133.301	86.8108	133.301	86.6884	133.301	86.7022	133.301	86.6456	133.301	86.6474
139.16	87.6953	139.16	87.7704	139.16	87.6117	139.16	87.8342	139.16	87.524	139.16	87.8848	139.16	87.4377	139.16	87.9216	139.16	87.3583	139.16	87.9437	139.16	87.2906	139.16	87.9494	139.16	87.237	139.16	87.9359	139.16	87.1971	139.16	87.8991	139.16	87.1674	139.16	87.8345	139.16	87.1417	139.16	87.7386	139.16	87.113	139.16	87.6108	139.16	87.0747	139.16	87.4551	139.16	87.0226	139.16	87.2809	139.16	86.9562	139.16	87.103	139.16	86.8795	139.16	86.9391	139.16	86.8007	139.16	86.8066	139.16	86.7319	139.16	86.7183	139.16	86.6871	139.16	86.6794
143.555	87.6836	143.555	87.761	143.555	87.5958	143.555	87.8247	143.555	87.5023	143.555	87.8728	143.555	87.4091	143.555	87.9041	143.555	87.3222	143.555	87.9175	143.555	87.2468	143.555	87.9117	143.555	87.1861	143.555	87.8844	143.555	87.1403	143.555	87.8323	143.555	87.1059	143.555	87.7524	143.555	87.0773	143.555	87.6426	143.555	87.0471	143.555	87.5037	143.555	87.0086	143.555	87.341	143.555	86.9575	143.555	87.1649	143.555	86.8926	143.555	86.9903	143.555	86.8174	143.555	86.8343	143.555	86.7395	143.555	86.7126	143.555	86.6698	143.555	86.6356	143.555	86.6213	143.555	86.6066
147.949	87.8232	147.949	87.9007	147.949	87.7301	147.949	87.9586	147.949	87.6265	147.949	87.9942	147.949	87.5186	147.949	88.0057	147.949	87.4126	147.949	87.992	147.949	87.3139	147.949	87.9518	147.949	87.2261	147.949	87.8834	147.949	87.1498	147.949	87.7851	147.949	87.0829	147.949	87.6557	147.949	87.0206	147.949	87.4958	147.949	86.9572	147.949	87.3095	147.949	86.8873	147.949	87.1053	147.949	86.8075	147.949	86.8971	147.949	86.7175	147.949	86.7021	147.949	86.6205	147.949	86.5382	147.949	86.5236	147.949	86.4195	147.949	86.4365	147.949	86.3535	147.949	86.3711	147.949	86.3397
153.809	87.8241	153.809	87.9117	153.809	87.7166	153.809	87.9761	153.809	87.5949	153.809	88.0152	153.809	87.4659	153.809	88.0284	153.809	87.3376	153.809	88.0151	153.809	87.2175	153.809	87.9743	153.809	87.1109	153.809	87.904	153.809	87.02	153.809	87.8015	153.809	86.9431	153.809	87.6643	153.809	86.875	153.809	87.4919	153.809	86.8088	153.809	87.2873	153.809	86.7376	153.809	87.0598	153.809	86.6567	153.809	86.8244	153.809	86.5647	153.809	86.6014	153.809	86.4647	153.809	86.4119	153.809	86.3637	153.809	86.2732	153.809	86.2726	153.809	86.1941	153.809	86.2046	153.809	86.1741
159.668	87.9542	159.668	88.0439	159.668	87.8432	159.668	88.1086	159.668	87.7163	159.668	88.1469	159.668	87.5807	159.668	88.1583	159.668	87.4445	159.668	88.143	159.668	87.3151	159.668	88.1001	159.668	87.1979	159.668	88.028	159.668	87.0949	159.668	87.9236	159.668	87.0049	159.668	87.784	159.668	86.9233	159.668	87.6078	159.668	86.8444	159.668	87.398	159.668	86.7626	159.668	87.1634	159.668	86.6745	159.668	86.9198	159.668	86.5799	159.668	86.6882	159.668	86.482	159.668	86.4903	159.668	86.3876	159.668	86.3436	159.668	86.3058	159.668	86.2566	159.668	86.2483	159.668	86.2277
165.527	88.0319	165.527	88.1272	165.527	87.914	165.527	88.1964	165.527	87.7793	165.527	88.2382	165.527	87.6358	165.527	88.2527	165.527	87.4927	165.527	88.2401	165.527	87.359	165.527	88.2002	165.527	87.2414	165.527	88.1313	165.527	87.143	165.527	88.0307	165.527	87.0622	165.527	87.8955	165.527	86.9941	165.527	87.7246	165.527	86.9312	165.527	87.5209	165.527	86.8665	165.527	87.2935	165.527	86.795	165.527	87.0583	165.527	86.7156	165.527	86.8358	165.527	86.631	165.527	86.6472	165.527	86.5473	165.527	86.5089	165.527	86.4736	165.527	86.4278	165.527	86.4209	165.527	86.4016
171.387	87.8889	171.387	87.9776	171.387	87.7736	171.387	88.037	171.387	87.6374	171.387	88.0669	171.387	87.4885	171.387	88.0686	171.387	87.3372	171.387	88.0436	171.387	87.1934	171.387	87.9931	171.387	87.0654	171.387	87.9163	171.387	86.958	171.387	87.8111	171.387	86.8711	171.387	87.6748	171.387	86.8007	171.387	87.5064	171.387	86.74	171.387	87.3091	171.387	86.6824	171.387	87.0921	171.387	86.6227	171.387	86.8716	171.387	86.5588	171.387	86.6677	171.387	86.492	171.387	86.5003	171.387	86.4259	171.387	86.3828	171.387	86.3666	171.387	86.3186	171.387	86.3219	171.387	86.3019
177.246	87.8128	177.246	87.8986	177.246	87.6985	177.246	87.952	177.246	87.5619	177.246	87.972	177.246	87.4121	177.246	87.959	177.246	87.2596	177.246	87.9145	177.246	87.1148	177.246	87.8401	177.246	86.986	177.246	87.7363	177.246	86.8774	177.246	87.603	177.246	86.7884	177.246	87.4399	177.246	86.7138	177.246	87.2484	177.246	86.6461	177.246	87.0336	177.246	86.5779	177.246	86.8063	177.246	86.5043	177.246	86.5835	177.246	86.4239	177.246	86.3851	177.246	86.3392	177.246	86.2295	177.246	86.2554	177.246	86.1278	177.246	86.1789	177.246	86.0809	177.246	86.1177	177.246	86.0813
183.105	87.7054	183.105	87.8063	183.105	87.572	183.105	87.8704	183.105	87.4138	183.105	87.8963	183.105	87.2414	183.105	87.8845	183.105	87.0678	183.105	87.8364	183.105	86.9058	183.105	87.7531	183.105	86.7661	183.105	87.6349	183.105	86.6544	183.105	87.4815	183.105	86.5701	183.105	87.2928	183.105	86.5071	183.105	87.0716	183.105	86.4557	183.105	86.826	183.105	86.4059	183.105	86.5712	183.105	86.3501	183.105	86.3295	183.105	86.2845	183.105	86.1253	183.105	86.2093	183.105	85.9786	183.105	86.1276	183.105	85.8981	183.105	86.0447	183.105	85.8792	183.105	85.968	183.105	85.9081
188.965	87.6958	188.965	87.8069	188.965	87.5452	188.965	87.8748	188.965	87.3624	188.965	87.8986	188.965	87.1592	188.965	87.8797	188.965	86.9503	188.965	87.8199	188.965	86.7524	188.965	87.7205	188.965	86.5803	188.965	87.5819	188.965	86.4443	188.965	87.4038	188.965	86.3469	188.965	87.1863	188.965	86.283	188.965	86.933	188.965	86.2414	188.965	86.6541	188.965	86.209	188.965	86.3681	188.965	86.1741	188.965	86.1019	188.965	86.1285	188.965	85.885	188.965	86.0685	188.965	85.7404	188.965	85.9941	188.965	85.6757	188.965	85.9085	188.965	85.6815	188.965	85.8186	188.965	85.7368
196.289	87.9168	196.289	88.0342	196.289	87.7585	196.289	88.1081	196.289	87.565	196.289	88.1387	196.289	87.3461	196.289	88.1275	196.289	87.1155	196.289	88.0757	196.289	86.8885	196.289	87.9835	196.289	86.6806	196.289	87.8487	196.289	86.5036	196.289	87.6678	196.289	86.3629	196.289	87.4376	196.289	86.2571	196.289	87.1585	196.289	86.1786	196.289	86.8385	196.289	86.1167	196.289	86.4969	196.289	86.0606	196.289	86.1648	196.289	86.0014	196.289	85.88	196.289	85.9336	196.289	85.6756	196.289	85.8545	196.289	85.5674	196.289	85.7654	196.289	85.5478	196.289	85.6732	196.289	85.5927
203.613	87.8357	203.613	87.9536	203.613	87.6665	203.613	88.0194	203.613	87.4509	203.613	88.0352	203.613	87.1983	203.613	88.0051	203.613	86.9229	203.613	87.9334	203.613	86.6429	203.613	87.823	203.613	86.3776	203.613	87.6748	203.613	86.1449	203.613	87.4872	203.613	85.9571	203.613	87.2578	203.613	85.8187	203.613	86.9865	203.613	85.726	203.613	86.6793	203.613	85.6694	203.613	86.3522	203.613	85.6364	203.613	86.0327	203.613	85.6142	203.613	85.755	203.613	85.5916	203.613	85.5497	203.613	85.5603	203.613	85.4322	203.613	85.5166	203.613	85.3954	203.613	85.464	203.613	85.4157
210.938	87.8862	210.938	87.9975	210.938	87.7278	210.938	88.0615	210.938	87.5259	210.938	88.0801	210.938	87.2881	210.938	88.0561	210.938	87.0261	210.938	87.9915	210.938	86.7549	210.938	87.8865	210.938	86.4908	210.938	87.7384	210.938	86.2492	210.938	87.5424	210.938	86.0413	210.938	87.294	210.938	85.8723	210.938	86.9923	210.938	85.7413	210.938	86.6453	210.938	85.6426	210.938	86.2736	210.938	85.5684	210.938	85.911	210.938	85.51	210.938	85.5989	210.938	85.459	210.938	85.3728	210.938	85.4077	210.938	85.2473	210.938	85.3513	210.938	85.2115	210.938	85.2906	210.938	85.2364
218.262	87.6729	218.262	87.7877	218.262	87.5113	218.262	87.8562	218.262	87.3068	218.262	87.8827	218.262	87.0685	218.262	87.8729	218.262	86.8104	218.262	87.8323	218.262	86.5498	218.262	87.7634	218.262	86.3045	218.262	87.6645	218.262	86.0902	218.262	87.5292	218.262	85.9166	218.262	87.3488	218.262	85.7867	218.262	87.117	218.262	85.6971	218.262	86.8347	218.262	85.6403	218.262	86.5156	218.262	85.6077	218.262	86.1883	218.262	85.5899	218.262	85.8917	218.262	85.5776	218.262	85.6633	218.262	85.5619	218.262	85.5238	218.262	85.5366	218.262	85.4683	218.262	85.5026	218.262	85.4717
225.586	87.7323	225.586	87.8476	225.586	87.5547	225.586	87.9018	225.586	87.3187	225.586	87.9004	225.586	87.0349	225.586	87.8507	225.586	86.721	225.586	87.7606	225.586	86.4007	225.586	87.6357	225.586	86.1014	225.586	87.4786	225.586	85.8482	225.586	87.2884	225.586	85.6586	225.586	87.0625	225.586	85.5381	225.586	86.8005	225.586	85.4806	225.586	86.5093	225.586	85.4726	225.586	86.2073	225.586	85.4975	225.586	85.9246	225.586	85.5391	225.586	85.6969	225.586	85.5819	225.586	85.5516	225.586	85.6119	225.586	85.4942	225.586	85.6176	225.586	85.505	225.586	85.5944	225.586	85.5496
232.91	87.8742	232.91	87.9883	232.91	87.6901	232.91	88.0388	232.91	87.434	232.91	88.0344	232.91	87.11	232.91	87.9848	232.91	86.7296	232.91	87.8984	232.91	86.3133	232.91	87.7797	232.91	85.8904	232.91	87.6281	232.91	85.4967	232.91	87.4373	232.91	85.1684	232.91	87.1981	232.91	84.9331	232.91	86.9029	232.91	84.8029	232.91	86.5531	232.91	84.7712	232.91	86.1662	232.91	84.8165	232.91	85.7794	232.91	84.9084	232.91	85.4448	232.91	85.0139	232.91	85.2106	232.91	85.1025	232.91	85.0966	232.91	85.1516	232.91	85.0819	232.91	85.1527	232.91	85.1179
241.699	87.7539	241.699	87.8023	241.699	87.6434	241.699	87.7941	241.699	87.4681	241.699	87.7372	241.699	87.2289	241.699	87.6414	241.699	86.9304	241.699	87.5165	241.699	86.5809	241.699	87.3711	241.699	86.1938	241.699	87.2098	241.699	85.7865	241.699	87.0326	241.699	85.3813	241.699	86.835	241.699	85.0035	241.699	86.6102	241.699	84.6805	241.699	86.3541	241.699	84.438	241.699	86.0706	241.699	84.2945	241.699	85.7749	241.699	84.2545	241.699	85.4925	241.699	84.3043	241.699	85.2498	241.699	84.4142	241.699	85.0608	241.699	84.5491	241.699	84.9188	241.699	84.681	241.699	84.8005
250.488	87.866	250.488	87.8989	250.488	87.7675	250.488	87.8696	250.488	87.6034	250.488	87.7839	250.488	87.3768	250.488	87.6492	250.488	87.0943	250.488	87.4728	250.488	86.766	250.488	87.2608	250.488	86.4047	250.488	87.0163	250.488	86.026	250.488	86.7403	250.488	85.6474	250.488	86.4334	250.488	85.2888	250.488	86.0997	250.488	84.9713	250.488	85.7506	250.488	84.7163	250.488	85.408	250.488	84.541	250.488	85.1021	250.488	84.4519	250.488	84.8634	250.488	84.4391	250.488	84.7092	250.488	84.4768	250.488	84.6336	250.488	84.5321	250.488	84.6091	250.488	84.5771	250.488	84.5996
259.277	87.9825	259.277	88.0355	259.277	87.8699	259.277	88.0302	259.277	87.6991	259.277	87.9704	259.277	87.4746	259.277	87.8619	259.277	87.2035	259.277	87.7108	259.277	86.8955	259.277	87.522	259.277	86.562	259.277	87.2969	259.277	86.2154	259.277	87.0332	259.277	85.868	259.277	86.7274	259.277	85.5331	259.277	86.3792	259.277	85.2253	259.277	85.9988	259.277	84.9629	259.277	85.6122	259.277	84.7659	259.277	85.2612	259.277	84.65	259.277	84.9909	259.277	84.6165	259.277	84.8282	259.277	84.6458	259.277	84.7647	259.277	84.7025	259.277	84.7607	259.277	84.7499	259.277	84.7672
268.066	87.6321	268.066	87.6845	268.066	87.5179	268.066	87.6742	268.066	87.3465	268.066	87.6049	268.066	87.126	268.066	87.4832	268.066	86.8664	268.066	87.3172	268.066	86.5791	268.066	87.1137	268.066	86.2752	268.066	86.8758	268.066	85.9656	268.066	86.6019	268.066	85.6605	268.066	86.2881	268.066	85.3704	268.066	85.9331	268.066	85.1059	268.066	85.5459	268.066	84.8786	268.066	85.1522	268.066	84.7	268.066	84.796	268.066	84.5776	268.066	84.527	268.066	84.5109	268.066	84.3776	268.066	84.487	268.066	84.3412	268.066	84.4815	268.066	84.376	268.066	84.4678	268.066	84.43
276.855	87.4537	276.855	87.4986	276.855	87.3434	276.855	87.4796	276.855	87.1725	276.855	87.4041	276.855	86.9507	276.855	87.284	276.855	86.6914	276.855	87.1314	276.855	86.409	276.855	86.9542	276.855	86.1172	276.855	86.7507	276.855	85.8264	276.855	86.5093	276.855	85.5437	276.855	86.2131	276.855	85.2753	276.855	85.8504	276.855	85.0296	276.855	85.4278	276.855	84.82	276.855	84.9808	276.855	84.6621	276.855	84.5743	276.855	84.5658	276.855	84.282	276.855	84.5257	276.855	84.1486	276.855	84.5181	276.855	84.1618	276.855	84.509	276.855	84.262	276.855	84.4672	276.855	84.3797
287.109	87.7138	287.109	87.8323	287.109	87.5256	287.109	87.8779	287.109	87.2753	287.109	87.8513	287.109	86.9753	287.109	87.7561	287.109	86.6419	287.109	87.5975	287.109	86.2935	287.109	87.3805	287.109	85.9499	287.109	87.1086	287.109	85.6295	287.109	86.7827	287.109	85.3471	287.109	86.4013	287.109	85.1117	287.109	85.9639	287.109	84.925	287.109	85.4781	287.109	84.7825	287.109	84.97	287.109	84.6764	287.109	84.4928	287.109	84.5985	287.109	84.1207	287.109	84.5386	287.109	83.9178	287.109	84.4824	287.109	83.8953	287.109	84.4102	287.109	84.0018	287.109	84.3035	287.109	84.1586
297.363	87.6181	297.363	87.7113	297.363	87.4331	297.363	87.717	297.363	87.1618	297.363	87.6464	297.363	86.8207	297.363	87.5144	297.363	86.4361	297.363	87.3355	297.363	86.0393	297.363	87.12	297.363	85.6592	297.363	86.8717	297.363	85.3165	297.363	86.5871	297.363	85.0234	297.363	86.2586	297.363	84.79	297.363	85.8805	297.363	84.631	297.363	85.4597	297.363	84.5639	297.363	85.0262	297.363	84.5955	297.363	84.6385	297.363	84.7068	297.363	84.3716	297.363	84.8506	297.363	84.2814	297.363	84.9676	297.363	84.366	297.363	85.0069	297.363	84.5619	297.363	84.942	297.363	84.7793
307.617	87.7894	307.617	87.8287	307.617	87.6632	307.617	87.7918	307.617	87.4451	307.617	87.6932	307.617	87.138	307.617	87.5499	307.617	86.7543	307.617	87.3777	307.617	86.3167	307.617	87.1864	307.617	85.8552	307.617	86.9743	307.617	85.3994	307.617	86.7258	307.617	84.9719	307.617	86.415	307.617	84.5853	307.617	86.0165	307.617	84.2502	307.617	85.5206	307.617	83.9868	307.617	84.9501	307.617	83.8253	307.617	84.3749	307.617	83.787	307.617	83.906	307.617	83.8556	307.617	83.6482	307.617	83.9714	307.617	83.627	307.617	84.0565	307.617	83.7654	307.617	84.0511	307.617	83.9398
319.336	87.466	319.336	87.5112	319.336	87.3314	319.336	87.4701	319.336	87.1092	319.336	87.3516	319.336	86.8062	319.336	87.17	319.336	86.4342	319.336	86.9436	319.336	86.0115	319.336	86.691	319.336	85.5622	319.336	86.4271	319.336	85.1153	319.336	86.158	319.336	84.6999	319.336	85.8792	319.336	84.3412	319.336	85.5761	319.336	84.0574	319.336	85.2322	319.336	83.8622	319.336	84.843	319.336	83.7657	319.336	84.4334	319.336	83.7689	319.336	84.0667	319.336	83.8509	319.336	83.8256	319.336	83.9643	319.336	83.7589	319.336	84.0471	319.336	83.8361	319.336	84.0501	319.336	83.9642
329.59	87.4016	329.59	87.4304	329.59	87.2807	329.59	87.3713	329.59	87.0713	329.59	87.2364	329.59	86.7834	329.59	87.0441	329.59	86.4317	329.59	86.8158	329.59	86.0337	329.59	86.5692	329.59	85.6072	329.59	86.3121	329.59	85.1678	329.59	86.0395	329.59	84.728	329.59	85.7356	329.59	84.2995	329.59	85.3824	329.59	83.9016	329.59	84.9709	329.59	83.5686	329.59	84.5141	329.59	83.3468	329.59	84.0569	329.59	83.2716	329.59	83.6744	329.59	83.3345	329.59	83.4442	329.59	83.4731	329.59	83.3952	329.59	83.6	329.59	83.4777	329.59	83.6461	329.59	83.5916
341.309	87.325	341.309	87.3507	341.309	87.2076	341.309	87.2875	341.309	87.0022	341.309	87.1442	341.309	86.7191	341.309	86.9355	341.309	86.3742	341.309	86.6808	341.309	85.9868	341.309	86.4016	341.309	85.5756	341.309	86.1154	341.309	85.156	341.309	85.8299	341.309	84.7386	341.309	85.539	341.309	84.3309	341.309	85.2271	341.309	83.9422	341.309	84.8767	341.309	83.5902	341.309	84.4821	341.309	83.3033	341.309	84.0609	341.309	83.1125	341.309	83.6604	341.309	83.0316	341.309	83.3453	341.309	83.0391	341.309	83.1624	341.309	83.0837	341.309	83.1037	341.309	83.1134	341.309	83.1097
353.027	87.1942	353.027	87.2167	353.027	87.0452	353.027	87.1181	353.027	86.7759	353.027	86.9149	353.027	86.4055	353.027	86.6348	353.027	85.9661	353.027	86.3124	353.027	85.5001	353.027	85.9825	353.027	85.0518	353.027	85.6697	353.027	84.6532	353.027	85.3802	353.027	84.3129	353.027	85.1012	353.027	84.0177	353.027	84.8098	353.027	83.7483	353.027	84.4847	353.027	83.4983	353.027	84.1196	353.027	83.2841	353.027	83.734	353.027	83.1368	353.027	83.378	353.027	83.0758	353.027	83.1189	353.027	83.0857	353.027	83.0018	353.027	83.118	353.027	83.0102	353.027	83.1207	353.027	83.0742
366.211	87.5946	366.211	87.6858	366.211	87.3475	366.211	87.6211	366.211	86.9484	366.211	87.4042	366.211	86.4112	366.211	87.0461	366.211	85.7686	366.211	86.5721	366.211	85.084	366.211	86.0275	366.211	84.4526	366.211	85.477	366.211	83.9756	366.211	84.9905	366.211	83.7057	366.211	84.6127	366.211	83.6108	366.211	84.3374	366.211	83.5989	366.211	84.1106	366.211	83.5782	366.211	83.8657	366.211	83.4973	366.211	83.5647	366.211	83.3532	366.211	83.2223	366.211	83.1757	366.211	82.9028	366.211	83.0014	366.211	82.6832	366.211	82.8504	366.211	82.6004	366.211	82.725	366.211	82.6309
379.395	88.3985	379.395	88.3967	379.395	88.2691	379.395	88.2709	379.395	88.0003	379.395	88.028	379.395	87.5826	379.395	87.675	379.395	87.0079	379.395	87.2193	379.395	86.2763	379.395	86.6688	379.395	85.4103	379.395	86.0383	379.395	84.4787	379.395	85.3629	379.395	83.6223	379.395	84.7126	379.395	83.0395	379.395	84.1871	379.395	82.8757	379.395	83.8661	379.395	83.0913	379.395	83.7489	379.395	83.4987	379.395	83.7583	379.395	83.9113	379.395	83.8107	379.395	84.2202	379.395	83.8706	379.395	84.3867	379.395	83.9481	379.395	84.4162	379.395	84.0618	379.395	84.34	379.395	84.2049
392.578	87.6838	392.578	87.6793	392.578	87.5837	392.578	87.5745	392.578	87.3746	392.578	87.3749	392.578	87.0518	392.578	87.0864	392.578	86.6107	392.578	86.7144	392.578	86.0508	392.578	86.2615	392.578	85.3823	392.578	85.7295	392.578	84.638	392.578	85.1281	392.578	83.8871	392.578	84.4931	392.578	83.2441	392.578	83.904	392.578	82.8503	392.578	83.4771	392.578	82.8042	392.578	83.3076	392.578	83.0867	392.578	83.3991	392.578	83.5692	392.578	83.6668	392.578	84.0928	392.578	84.0083	392.578	84.5332	392.578	84.3509	392.578	84.8175	392.578	84.6466	392.578	84.92	392.578	84.8512
405.762	87.4408	405.762	87.4959	405.762	87.253	405.762	87.4141	405.762	86.9421	405.762	87.1961	405.762	86.5231	405.762	86.8469	405.762	86.0136	405.762	86.3756	405.762	85.4295	405.762	85.7932	405.762	84.7826	405.762	85.1108	405.762	84.0871	405.762	84.3421	405.762	83.3775	405.762	83.5205	405.762	82.7354	405.762	82.7284	405.762	82.2984	405.762	82.1163	405.762	82.2024	405.762	81.8475	405.762	82.4665	405.762	81.9696	405.762	82.9595	405.762	82.3695	405.762	83.4962	405.762	82.8824	405.762	83.9344	405.762	83.3883	405.762	84.1967	405.762	83.8172	405.762	84.2562	405.762	84.1201
420.41	87.7814	420.41	87.8005	420.41	87.6457	420.41	87.7055	420.41	87.3896	420.41	87.4997	420.41	87.0085	420.41	87.1896	420.41	86.497	420.41	86.7847	420.41	85.847	420.41	86.2937	420.41	85.0471	420.41	85.7142	420.41	84.0904	420.41	85.0275	420.41	83.001	420.41	84.2085	420.41	81.8916	420.41	83.2601	420.41	81.0229	420.41	82.2719	420.41	80.7187	420.41	81.4665	420.41	81.0582	420.41	81.1224	420.41	81.7767	420.41	81.3319	420.41	82.5516	420.41	81.9081	420.41	83.1855	420.41	82.5854	420.41	83.5861	420.41	83.1755	420.41	83.7163	420.41	83.5715
435.059	86.4943	435.059	86.4462	435.059	86.4342	435.059	86.2965	435.059	86.2753	435.059	86.0696	435.059	86.0347	435.059	85.8001	435.059	85.7256	435.059	85.5166	435.059	85.3465	435.059	85.2231	435.059	84.8767	435.059	84.892	435.059	84.2849	435.059	84.4746	435.059	83.5527	435.059	83.932	435.059	82.7192	435.059	83.2741	435.059	81.9374	435.059	82.5982	435.059	81.4745	435.059	82.0861	435.059	81.5307	435.059	81.9049	435.059	82.0147	435.059	82.0687	435.059	82.6431	435.059	82.4441	435.059	83.183	435.059	82.8786	435.059	83.5234	435.059	83.2665	435.059	83.6362	435.059	83.5373
451.172	86.8414	451.172	86.8099	451.172	86.7513	451.172	86.6681	451.172	86.5372	451.172	86.433	451.172	86.205	451.172	86.123	451.172	85.7632	451.172	85.7513	451.172	85.2151	451.172	85.3192	451.172	84.5516	451.172	84.8071	451.172	83.7486	451.172	84.1707	451.172	82.7808	451.172	83.352	451.172	81.6694	451.172	82.3139	451.172	80.5928	451.172	81.1215	451.172	79.9876	451.172	80.0771	451.172	80.2634	451.172	79.721	451.172	81.2281	451.172	80.2909	451.172	82.3352	451.172	81.3671	451.172	83.2276	451.172	82.4449	451.172	83.7777	451.172	83.2791	451.172	83.963	451.172	83.7925
465.82	86.8707	465.82	86.8482	465.82	86.7676	465.82	86.6948	465.82	86.5647	465.82	86.428	465.82	86.298	465.82	86.0825	465.82	85.9921	465.82	85.6989	465.82	85.6396	465.82	85.3056	465.82	85.1928	465.82	84.8998	465.82	84.5755	465.82	84.4389	465.82	83.7098	465.82	83.8543	465.82	82.5596	465.82	83.0857	465.82	81.2256	465.82	82.1274	465.82	80.1184	465.82	81.0828	465.82	79.8989	465.82	80.2209	465.82	80.6738	465.82	79.9229	465.82	81.7999	465.82	80.3594	465.82	82.7325	465.82	81.2667	465.82	83.2581	465.82	82.2302	465.82	83.3297	465.82	82.9655
483.398	86.9175	483.398	86.8694	483.398	86.7545	483.398	86.6167	483.398	86.4237	483.398	86.2128	483.398	86.0168	483.398	85.7508	483.398	85.6456	483.398	85.3364	483.398	85.3782	483.398	85.0341	483.398	85.1811	483.398	84.8167	483.398	84.9315	483.398	84.5721	483.398	84.4796	483.398	84.1705	483.398	83.7019	483.398	83.5445	483.398	82.5545	483.398	82.7443	483.398	81.2116	483.398	81.9507	483.398	80.3281	483.398	81.4077	483.398	80.6912	483.398	81.2904	483.398	81.9529	483.398	81.6315	483.398	83.1944	483.398	82.3287	483.398	83.9631	483.398	83.1595	483.398	84.1636	483.398	83.8479
499.512	87.2103	499.512	87.1307	499.512	87.0524	499.512	86.848	499.512	86.6567	499.512	86.4155	499.512	86.0737	499.512	85.891	499.512	85.4189	499.512	85.3227	499.512	84.8467	499.512	84.738	499.512	84.4516	499.512	84.1369	499.512	84.1715	499.512	83.4907	499.512	83.8241	499.512	82.7545	499.512	83.2367	499.512	81.912	499.512	82.357	499.512	81.0528	499.512	81.3666	499.512	80.435	499.512	80.7755	499.512	80.3547	499.512	81.0737	499.512	80.832	499.512	82.0429	499.512	81.6181	499.512	83.0715	499.512	82.4791	499.512	83.7746	499.512	83.2613	499.512	84.022	499.512	83.8211
517.09	86.9938	517.09	86.8233	517.09	86.9822	517.09	86.5058	517.09	86.7846	517.09	86.1068	517.09	86.4338	517.09	85.7188	517.09	85.9997	517.09	85.4332	517.09	85.5643	517.09	85.2815	517.09	85.1614	517.09	85.1888	517.09	84.7241	517.09	84.9883	517.09	84.1029	517.09	84.4811	517.09	83.1405	517.09	83.5005	517.09	81.7714	517.09	81.991	517.09	80.2307	517.09	80.2112	517.09	79.3857	517.09	79.0723	517.09	80.0249	517.09	79.4387	517.09	81.4397	517.09	80.6775	517.09	82.6805	517.09	81.905	517.09	83.4235	517.09	82.8386	517.09	83.6525	517.09	83.4342
536.133	87.2056	536.133	87.0142	536.133	87.0932	536.133	86.5448	536.133	86.662	536.133	85.8392	536.133	85.9348	536.133	84.983	536.133	85.0317	536.133	84.1382	536.133	84.2235	536.133	83.5304	536.133	83.8227	536.133	83.3132	536.133	83.8574	536.133	83.3835	536.133	83.9911	536.133	83.4212	536.133	83.8215	536.133	83.1125	536.133	83.0771	536.133	82.2846	536.133	81.6849	536.133	80.9738	536.133	80.065	536.133	79.6142	536.133	79.5942	536.133	79.142	536.133	80.8536	536.133	79.971	536.133	82.4354	536.133	81.3575	536.133	83.4602	536.133	82.6166	536.133	83.7844	536.133	83.4694
555.176	87.6056	555.176	87.4674	555.176	87.4615	555.176	87.0688	555.176	87.0192	555.176	86.4482	555.176	86.2743	555.176	85.6772	555.176	85.2627	555.176	84.8649	555.176	84.1208	555.176	84.1327	555.176	83.1386	555.176	83.5551	555.176	82.6278	555.176	83.1022	555.176	82.5562	555.176	82.6456	555.176	82.5122	555.176	82.0322	555.176	82.0835	555.176	81.1612	555.176	81.0895	555.176	80.0303	555.176	79.7704	555.176	78.8176	555.176	79.1521	555.176	78.068	555.176	80.0986	555.176	78.5099	555.176	81.651	555.176	79.9785	555.176	82.7628	555.176	81.5706	555.176	83.1175	555.176	82.6934
574.219	87.273	574.219	87.0667	574.219	87.249	574.219	86.654	574.219	86.9567	574.219	86.0525	574.219	86.3595	574.219	85.3027	574.219	85.4535	574.219	84.4973	574.219	84.3098	574.219	83.7705	574.219	83.1186	574.219	83.2157	574.219	82.1621	574.219	82.7818	574.219	81.6008	574.219	82.2804	574.219	81.2617	574.219	81.5302	574.219	80.8152	574.219	80.5178	574.219	80.1163	574.219	79.4722	574.219	79.4496	574.219	78.7463	574.219	79.5022	574.219	78.5162	574.219	80.4589	574.219	78.7802	574.219	81.6081	574.219	79.562	574.219	82.3205	574.219	80.7013	574.219	82.3698	574.219	81.7665
594.727	87.3338	594.727	87.0322	594.727	87.3355	594.727	86.4498	594.727	87.0537	594.727	85.6614	594.727	86.5267	594.727	84.8084	594.727	85.802	594.727	84.0698	594.727	84.9276	594.727	83.584	594.727	83.9584	594.727	83.3481	594.727	82.9685	594.727	83.1705	594.727	82.0222	594.727	82.7594	594.727	81.0847	594.727	81.8808	594.727	80.0176	594.727	80.4863	594.727	78.8349	594.727	78.855	594.727	78.1548	594.727	77.6969	594.727	78.7878	594.727	77.5565	594.727	80.1899	594.727	78.0977	594.727	81.3335	594.727	78.9	594.727	81.8129	594.727	79.8777	594.727	81.6125	594.727	80.8807
615.234	88.2051	615.234	87.9222	615.234	88.206	615.234	87.4064	615.234	87.8801	615.234	86.7068	615.234	87.205	615.234	85.8787	615.234	86.2182	615.234	85.0126	615.234	85.0724	615.234	84.2706	615.234	84.0616	615.234	83.8326	615.234	83.4728	615.234	83.699	615.234	83.2555	615.234	83.6105	615.234	82.9844	615.234	83.2328	615.234	82.174	615.234	82.3322	615.234	80.4501	615.234	80.8446	615.234	77.7724	615.234	79.0491	615.234	76.2201	615.234	77.9387	615.234	78.4942	615.234	78.4687	615.234	81.1272	615.234	79.9502	615.234	82.5893	615.234	81.4248	615.234	82.966	615.234	82.502
637.207	88.7974	637.207	88.5524	637.207	88.757	637.207	88.0177	637.207	88.4128	637.207	87.1682	637.207	87.7348	637.207	85.9819	637.207	86.7065	637.207	84.5075	637.207	85.3812	637.207	82.9959	637.207	84.003	637.207	81.9917	637.207	83.0863	637.207	81.8973	637.207	82.9513	637.207	82.3218	637.207	83.1293	637.207	82.6023	637.207	82.8966	637.207	82.3932	637.207	81.8267	637.207	81.5624	637.207	79.9145	637.207	80.1004	637.207	78.4711	637.207	78.6025	637.207	79.7673	637.207	78.8284	637.207	82.0694	637.207	80.7769	637.207	83.5973	637.207	82.6592	637.207	84.1469	637.207	83.8132
659.18	88.7234	659.18	88.4632	659.18	88.7414	659.18	87.9529	659.18	88.5123	659.18	87.2024	659.18	88.007	659.18	86.2672	659.18	87.1891	659.18	85.2343	659.18	86.0537	659.18	84.1618	659.18	84.6779	659.18	83.0483	659.18	83.2988	659.18	81.8484	659.18	82.3245	659.18	80.5376	659.18	81.9401	659.18	79.3875	659.18	81.7481	659.18	79.0604	659.18	81.2364	659.18	79.4852	659.18	80.286	659.18	79.6361	659.18	79.4965	659.18	78.8938	659.18	79.9023	659.18	77.7647	659.18	81.1689	659.18	78.1393	659.18	82.1625	659.18	80.0329	659.18	82.3678	659.18	81.6492
682.617	88.5158	682.617	88.3152	682.617	88.4138	682.617	87.7962	682.617	88.0432	682.617	86.9969	682.617	87.4269	682.617	86.0164	682.617	86.5685	682.617	84.9616	682.617	85.4726	682.617	83.8903	682.617	84.1993	682.617	82.8722	682.617	82.94	682.617	82.0507	682.617	81.9872	682.617	81.4501	682.617	81.4425	682.617	80.7823	682.617	80.9851	682.617	79.7169	682.617	80.0887	682.617	78.4371	682.617	78.4759	682.617	77.8076	682.617	77.3372	682.617	77.8927	682.617	78.9865	682.617	77.805	682.617	81.3575	682.617	77.8192	682.617	82.5792	682.617	79.1355	682.617	82.4489	682.617	81.126
707.52	88.5416	707.52	88.1738	707.52	88.4899	707.52	87.471	707.52	88.033	707.52	86.5758	707.52	87.2559	707.52	85.5658	707.52	86.246	707.52	84.3983	707.52	85.0538	707.52	83.1167	707.52	83.7735	707.52	82.0646	707.52	82.6836	707.52	81.5478	707.52	82.0907	707.52	81.3021	707.52	81.8671	707.52	80.8791	707.52	81.5171	707.52	80.1434	707.52	80.5945	707.52	79.095	707.52	79.018	707.52	77.7824	707.52	77.9591	707.52	76.8285	707.52	79.2007	707.52	77.1822	707.52	81.2293	707.52	78.6593	707.52	82.4934	707.52	80.4899	707.52	82.7299	707.52	81.9966
732.422	87.4986	732.422	86.9503	732.422	87.8285	732.422	86.2792	732.422	87.8443	732.422	85.5346	732.422	87.4868	732.422	84.7236	732.422	86.7446	732.422	83.8773	732.422	85.6446	732.422	83.052	732.422	84.2525	732.422	82.2068	732.422	82.7386	732.422	81.1913	732.422	81.4756	732.422	79.9766	732.422	80.7671	732.422	78.8681	732.422	80.2848	732.422	78.2785	732.422	79.4171	732.422	78.1178	732.422	77.9824	732.422	77.7994	732.422	77.116	732.422	76.8571	732.422	78.7203	732.422	75.4435	732.422	81.0262	732.422	75.1813	732.422	82.2065	732.422	77.5207	732.422	81.9397	732.422	80.2755
757.324	87.7399	757.324	87.7675	757.324	87.4224	757.324	87.328	757.324	87.0265	757.324	86.3644	757.324	86.6436	757.324	84.9373	757.324	86.1662	757.324	83.1302	757.324	85.3908	757.324	81.0079	757.324	84.1923	757.324	78.9442	757.324	82.723	757.324	77.7269	757.324	81.4501	757.324	77.2216	757.324	80.6449	757.324	76.3612	757.324	80.062	757.324	75.4452	757.324	79.2383	757.324	77.0786	757.324	77.5964	757.324	79.1971	757.324	75.4998	757.324	79.645	757.324	76.8124	757.324	78.3739	757.324	79.9393	757.324	76.1148	757.324	81.5713	757.324	76.4292	757.324	81.3934	757.324	79.447
785.156	86.4611	785.156	88.1726	785.156	85.0846	785.156	88.7957	785.156	86.1678	785.156	88.1525	785.156	87.9806	785.156	86.2698	785.156	88.8574	785.156	83.2191	785.156	88.564	785.156	79.2475	785.156	87.1896	785.156	75.1386	785.156	84.9043	785.156	72.61	785.156	82.0876	785.156	72.6926	785.156	79.6086	785.156	74.1185	785.156	78.2639	785.156	76.6162	785.156	77.6865	785.156	79.9816	785.156	77.1425	785.156	82.348	785.156	76.8298	785.156	82.6383	785.156	78.2472	785.156	79.8795	785.156	81.1407	785.156	71.1089	785.156	83.2232	785.156	76.5103	785.156	83.6342	785.156	81.9428
811.523	86.7361	811.523	87.2705	811.523	86.2542	811.523	87.2715	811.523	86.6053	811.523	86.6792	811.523	87.3279	811.523	85.5629	811.523	87.3808	811.523	83.9111	811.523	86.2546	811.523	81.881	811.523	83.815	811.523	80.3739	811.523	80.4157	811.523	80.4849	811.523	78.3624	811.523	81.4408	811.523	79.336	811.523	82.081	811.523	79.9718	811.523	82.2519	811.523	78.0813	811.523	81.7144	811.523	73.842	811.523	79.9286	811.523	74.5086	811.523	76.7716	811.523	75.6046	811.523	73.191	811.523	77.2362	811.523	74.9125	811.523	80.7438	811.523	79.7824	811.523	82.7013	811.523	82.4293
840.82	88.483	840.82	87.5736	840.82	88.2616	840.82	85.8294	840.82	86.9626	840.82	84.1816	840.82	85.1277	840.82	83.7737	840.82	84.1582	840.82	84.152	840.82	84.6195	840.82	84.2198	840.82	85.1957	840.82	83.5901	840.82	85.1743	840.82	82.6152	840.82	84.5166	840.82	81.8905	840.82	83.4375	840.82	80.6628	840.82	82.7622	840.82	76.9843	840.82	83.031	840.82	69.0985	840.82	82.8605	840.82	74.5566	840.82	80.7333	840.82	79.4829	840.82	79.6995	840.82	81.8284	840.82	82.6407	840.82	81.4454	840.82	83.3529	840.82	76.1807	840.82	80.4843	840.82	69.8032
870.117	87.633	870.117	87.5254	870.117	87.5819	870.117	87.2508	870.117	87.4685	870.117	86.7275	870.117	87.3642	870.117	85.7437	870.117	86.987	870.117	84.0946	870.117	85.8047	870.117	81.885	870.117	83.375	870.117	79.7401	870.117	79.5717	870.117	78.2137	870.117	75.7171	870.117	76.8385	870.117	74.4857	870.117	74.3373	870.117	74.0154	870.117	71.0257	870.117	72.931	870.117	73.9693	870.117	71.3241	870.117	78.6109	870.117	71.4216	870.117	80.8742	870.117	74.4191	870.117	80.2702	870.117	78.0213	870.117	76.4462	870.117	80.6865	870.117	75.7669	870.117	81.5339	870.117	79.9782
900.879	87.9546	900.879	88.5648	900.879	86.7021	900.879	87.8478	900.879	86.5255	900.879	85.8303	900.879	87.4224	900.879	83.1048	900.879	87.7694	900.879	81.29	900.879	86.9068	900.879	80.7381	900.879	84.7125	900.879	80.4518	900.879	81.3509	900.879	80.7912	900.879	78.2324	900.879	81.1003	900.879	77.8717	900.879	80.2542	900.879	78.3296	900.879	77.8572	900.879	77.6245	900.879	74.3823	900.879	75.7933	900.879	74.2586	900.879	75.2265	900.879	77.6356	900.879	78.5043	900.879	79.3679	900.879	81.3521	900.879	78.6268	900.879	82.1709	900.879	76.3008	900.879	80.7665	900.879	77.4792
933.105	87.8925	933.105	88.1669	933.105	87.482	933.105	87.8941	933.105	87.4445	933.105	86.8012	933.105	87.7551	933.105	84.6539	933.105	87.6417	933.105	81.3729	933.105	86.2867	933.105	77.5763	933.105	82.8318	933.105	73.5171	933.105	74.7536	933.105	70.4782	933.105	67.484	933.105	73.5775	933.105	76.8455	933.105	74.0386	933.105	78.6453	933.105	73.0976	933.105	78.1265	933.105	76.6283	933.105	75.9205	933.105	79.4695	933.105	75.6613	933.105	80.2897	933.105	79.5169	933.105	79.2828	933.105	81.5872	933.105	77.6234	933.105	82.0033	933.105	78.8512	933.105	81.7744	933.105	80.8927
965.332	88.6245	965.332	87.3338	965.332	88.4498	965.332	85.3656	965.332	86.8747	965.332	84.8463	965.332	84.8077	965.332	85.9601	965.332	84.6488	965.332	86.7503	965.332	86.1713	965.332	86.5959	965.332	86.8204	965.332	85.8193	965.332	86.1324	965.332	85.1163	965.332	84.7352	965.332	84.952	965.332	83.5819	965.332	84.6108	965.332	83.0508	965.332	82.5358	965.332	82.0413	965.332	76.7118	965.332	78.6194	965.332	54.3017	965.332	73.528	965.332	77.4309	965.332	80.4141	965.332	82.3537	965.332	83.7912	965.332	83.3982	965.332	83.5586	965.332	81.0356	965.332	80.2424	965.332	76.8875
1,000.49	87.9329	1,000.49	87.789	1,000.49	87.4202	1,000.49	87.1064	1,000.49	86.7044	1,000.49	86.1333	1,000.49	86.5165	1,000.49	84.7893	1,000.49	86.442	1,000.49	82.9323	1,000.49	85.3262	1,000.49	81.32	1,000.49	82.083	1,000.49	79.9033	1,000.49	74.0692	1,000.49	77.8075	1,000.49	73.2074	1,000.49	78.1892	1,000.49	79.3233	1,000.49	78.4992	1,000.49	79.7067	1,000.49	75.2666	1,000.49	76.053	1,000.49	64.3199	1,000.49	66.5496	1,000.49	76.6743	1,000.49	70.0783	1,000.49	81.6839	1,000.49	80.4614	1,000.49	83.1307	1,000.49	84.3496	1,000.49	82.6176	1,000.49	85.0671	1,000.49	81.6864	1,000.49	83.9043	1,000.49	82.2283
1,035.64	86.173	1,035.64	86.1615	1,035.64	85.9845	1,035.64	85.5956	1,035.64	86.1846	1,035.64	84.6393	1,035.64	86.5662	1,035.64	83.8926	1,035.64	86.2477	1,035.64	84.4615	1,035.64	84.9804	1,035.64	84.7806	1,035.64	83.3888	1,035.64	81.4211	1,035.64	81.0809	1,035.64	72.7637	1,035.64	75.5571	1,035.64	79.2713	1,035.64	68.2225	1,035.64	83.0186	1,035.64	80.6938	1,035.64	83.509	1,035.64	84.2535	1,035.64	79.5697	1,035.64	82.0736	1,035.64	61.2458	1,035.64	55.4855	1,035.64	78.2615	1,035.64	83.8176	1,035.64	82.1272	1,035.64	87.1124	1,035.64	84.5362	1,035.64	86.3253	1,035.64	86.0166	1,035.64	85.0346	1,035.64	85.7494
1,072.27	87.3442	1,072.27	85.0465	1,072.27	88.7887	1,072.27	83.9499	1,072.27	88.1506	1,072.27	83.5984	1,072.27	85.0239	1,072.27	83.8861	1,072.27	81.6286	1,072.27	85.3583	1,072.27	84.0476	1,072.27	86.5247	1,072.27	85.2198	1,072.27	85.4606	1,072.27	83.8029	1,072.27	81.5642	1,072.27	80.9894	1,072.27	81.1671	1,072.27	77.6234	1,072.27	85.1325	1,072.27	64.8891	1,072.27	85.6875	1,072.27	76.832	1,072.27	83.0802	1,072.27	81.7485	1,072.27	77.8204	1,072.27	78.8335	1,072.27	79.8528	1,072.27	74.0663	1,072.27	85.1193	1,072.27	84.1917	1,072.27	85.9029	1,072.27	87.5783	1,072.27	84.5787	1,072.27	87.8325	1,072.27	85.9132
1,108.89	88.2172	1,108.89	87.3746	1,108.89	87.7384	1,108.89	84.7614	1,108.89	87.2794	1,108.89	83.1892	1,108.89	87.1341	1,108.89	84.4421	1,108.89	86.2191	1,108.89	85.9775	1,108.89	84.4324	1,108.89	86.2162	1,108.89	83.5415	1,108.89	83.5908	1,108.89	83.8004	1,108.89	77.1336	1,108.89	83.1284	1,108.89	64.7122	1,108.89	79.2043	1,108.89	79.4119	1,108.89	71.4413	1,108.89	82.3208	1,108.89	82.0726	1,108.89	80.9453	1,108.89	84.6699	1,108.89	73.7312	1,108.89	81.4942	1,108.89	73.8634	1,108.89	77.2355	1,108.89	82.873	1,108.89	86.4054	1,108.89	86.1063	1,108.89	88.7314	1,108.89	85.8132	1,108.89	86.8461	1,108.89	83.988
1,148.44	88.6001	1,148.44	88.2385	1,148.44	89.0121	1,148.44	87.9235	1,148.44	88.8708	1,148.44	87.069	1,148.44	87.5979	1,148.44	85.0042	1,148.44	84.8434	1,148.44	82.5282	1,148.44	81.9023	1,148.44	82.3341	1,148.44	82.6099	1,148.44	82.7615	1,148.44	84.2276	1,148.44	81.2247	1,148.44	84.3123	1,148.44	70.8118	1,148.44	81.7761	1,148.44	75.9712	1,148.44	69.507	1,148.44	81.5069	1,148.44	79.7205	1,148.44	82.2624	1,148.44	84.8178	1,148.44	78.3733	1,148.44	81.8927	1,148.44	73.1528	1,148.44	74.9492	1,148.44	81.6412	1,148.44	84.3626	1,148.44	85.1686	1,148.44	86.1043	1,148.44	86.3969	1,148.44	85.7652	1,148.44	86.2332
1,189.45	88.9777	1,189.45	89.0581	1,189.45	88.4089	1,189.45	88.483	1,189.45	88.2378	1,189.45	87.7986	1,189.45	88.3047	1,189.45	86.6471	1,189.45	87.5429	1,189.45	84.5558	1,189.45	84.9675	1,189.45	83.658	1,189.45	79.7301	1,189.45	84.9462	1,189.45	78.2363	1,189.45	85.2043	1,189.45	82.379	1,189.45	82.226	1,189.45	82.8632	1,189.45	72.1312	1,189.45	77.2939	1,189.45	72.202	1,189.45	76.9896	1,189.45	77.9987	1,189.45	82.9269	1,189.45	76.3371	1,189.45	81.8946	1,189.45	66.661	1,189.45	76.0072	1,189.45	77.4923	1,189.45	81.6589	1,189.45	82.2628	1,189.45	84.5836	1,189.45	84.4286	1,189.45	85.1008	1,189.45	85.1495
1,230.47	88.9538	1,230.47	89.4349	1,230.47	88.1453	1,230.47	88.6225	1,230.47	88.3268	1,230.47	87.3934	1,230.47	88.5199	1,230.47	86.6566	1,230.47	87.3154	1,230.47	84.9326	1,230.47	84.4089	1,230.47	82.3216	1,230.47	80.4614	1,230.47	81.8872	1,230.47	77.7098	1,230.47	81.9745	1,230.47	77.8688	1,230.47	79.4356	1,230.47	78.5159	1,230.47	75.3428	1,230.47	74.9135	1,230.47	78.2734	1,230.47	70.4954	1,230.47	80.6422	1,230.47	79.5422	1,230.47	79.1182	1,230.47	79.0832	1,230.47	71.5186	1,230.47	74.8276	1,230.47	73.9793	1,230.47	74.4768	1,230.47	78.882	1,230.47	81.5313	1,230.47	78.8955	1,230.47	83.3602	1,230.47	81.2331
1,274.41	88.3683	1,274.41	88.2606	1,274.41	88.5521	1,274.41	88.5526	1,274.41	88.0047	1,274.41	87.7608	1,274.41	86.9185	1,274.41	85.5522	1,274.41	85.5305	1,274.41	83.972	1,274.41	83.5558	1,274.41	82.8597	1,274.41	80.9686	1,274.41	82.3457	1,274.41	79.7487	1,274.41	82.3067	1,274.41	80.7832	1,274.41	80.3106	1,274.41	80.4215	1,274.41	74.661	1,274.41	77.4504	1,274.41	73.4625	1,274.41	73.9007	1,274.41	76.5088	1,274.41	81.16	1,274.41	74.9067	1,274.41	83.3037	1,274.41	71.8148	1,274.41	74.4497	1,274.41	68.9042	1,274.41	76.1721	1,274.41	70.1237	1,274.41	78.4034	1,274.41	79.2033	1,274.41	77.1132	1,274.41	80.7222
1,319.82	88.47	1,319.82	87.9211	1,319.82	86.9016	1,319.82	85.9154	1,319.82	86.1038	1,319.82	86.8702	1,319.82	87.4972	1,319.82	87.6929	1,319.82	87.7434	1,319.82	85.1673	1,319.82	85.945	1,319.82	79.7462	1,319.82	82.122	1,319.82	75.2866	1,319.82	76.0847	1,319.82	75.8726	1,319.82	69.9648	1,319.82	76.1181	1,319.82	74.4542	1,319.82	72.9047	1,319.82	72.9983	1,319.82	72.744	1,319.82	63.1922	1,319.82	76.8537	1,319.82	73.8366	1,319.82	77.2009	1,319.82	72.4	1,319.82	69.2205	1,319.82	69.9325	1,319.82	72.6432	1,319.82	65.6241	1,319.82	78.9934	1,319.82	78.4593	1,319.82	78.68	1,319.82	79.8528	1,319.82	77.6145
1,366.7	87.3541	1,366.7	87.103	1,366.7	87.7586	1,366.7	87.6655	1,366.7	86.8068	1,366.7	87.0706	1,366.7	84.9963	1,366.7	85.1703	1,366.7	84.1498	1,366.7	83.2493	1,366.7	83.6057	1,366.7	81.1939	1,366.7	81.9722	1,366.7	79.1908	1,366.7	78.9095	1,366.7	77.2056	1,366.7	76.5284	1,366.7	74.4097	1,366.7	76.4227	1,366.7	70.8532	1,366.7	75.9211	1,366.7	72.1647	1,366.7	70.4494	1,366.7	75.7189	1,366.7	73.5744	1,366.7	76.2238	1,366.7	78.7507	1,366.7	72.511	1,366.7	70.9392	1,366.7	65.4521	1,366.7	71.5398	1,366.7	76.8796	1,366.7	75.9487	1,366.7	77.8855	1,366.7	77.6403	1,366.7	77.8653
1,413.57	85.5012	1,413.57	86.4808	1,413.57	86.815	1,413.57	87.6982	1,413.57	87.1391	1,413.57	86.8952	1,413.57	84.575	1,413.57	83.5532	1,413.57	82.3307	1,413.57	81.8478	1,413.57	84.5705	1,413.57	82.3553	1,413.57	84.6256	1,413.57	80.6206	1,413.57	80.473	1,413.57	79.9028	1,413.57	70.4807	1,413.57	79.2869	1,413.57	67.5686	1,413.57	72.673	1,413.57	71.7475	1,413.57	69.6364	1,413.57	70.4265	1,413.57	78.5433	1,413.57	75.542	1,413.57	78.2482	1,413.57	74.4264	1,413.57	69.2018	1,413.57	64.5498	1,413.57	72.4321	1,413.57	71.3545	1,413.57	78.1482	1,413.57	76.5165	1,413.57	78.6345	1,413.57	76.7206	1,413.57	75.9332
1,463.38	87.2666	1,463.38	86.0509	1,463.38	87.7482	1,463.38	87.4562	1,463.38	85.306	1,463.38	87.9496	1,463.38	83.4168	1,463.38	85.8314	1,463.38	85.1901	1,463.38	81.6798	1,463.38	84.3315	1,463.38	76.4472	1,463.38	79.3116	1,463.38	72.0579	1,463.38	63.0358	1,463.38	74.3095	1,463.38	74.1754	1,463.38	75.3024	1,463.38	79.7652	1,463.38	61.9358	1,463.38	80.9441	1,463.38	75.8269	1,463.38	78.4438	1,463.38	79.1646	1,463.38	79.091	1,463.38	75.0884	1,463.38	79.8239	1,463.38	57.0119	1,463.38	70.9588	1,463.38	74.3654	1,463.38	72.0924	1,463.38	76.0034	1,463.38	72.4068	1,463.38	74.7224	1,463.38	78.2196	1,463.38	78.9878
1,516.11	87.3381	1,516.11	87.1911	1,516.11	86.5908	1,516.11	86.7349	1,516.11	85.3953	1,516.11	85.3429	1,516.11	84.1559	1,516.11	83.1863	1,516.11	82.6217	1,516.11	82.8596	1,516.11	81.9078	1,516.11	82.8645	1,516.11	81.5268	1,516.11	81.2891	1,516.11	79.7056	1,516.11	82.0526	1,516.11	75.9298	1,516.11	81.7363	1,516.11	70.3694	1,516.11	79.3744	1,516.11	70.4866	1,516.11	77.1661	1,516.11	72.2148	1,516.11	71.1125	1,516.11	73.3475	1,516.11	68.0927	1,516.11	73.6627	1,516.11	73.8288	1,516.11	75.2266	1,516.11	55.8674	1,516.11	58.3566	1,516.11	74.1804	1,516.11	74.1757	1,516.11	78.2495	1,516.11	74.8916	1,516.11	77.8015
1,568.85	87.2574	1,568.85	88.5681	1,568.85	86.4147	1,568.85	87.4629	1,568.85	86.2968	1,568.85	84.6924	1,568.85	84.3484	1,568.85	84.2707	1,568.85	80.6707	1,568.85	83.3034	1,568.85	77.6949	1,568.85	78.932	1,568.85	78.9746	1,568.85	74.1401	1,568.85	80.6042	1,568.85	73.6614	1,568.85	78.1412	1,568.85	72.0752	1,568.85	73.2745	1,568.85	70.003	1,568.85	77.7087	1,568.85	77.017	1,568.85	78.4026	1,568.85	79.8408	1,568.85	75.8208	1,568.85	77.403	1,568.85	78.8247	1,568.85	67.4859	1,568.85	72.1555	1,568.85	68.0218	1,568.85	67.2365	1,568.85	76.2667	1,568.85	70.8769	1,568.85	78.8074	1,568.85	74.4956	1,568.85	77.1132
1,624.51	86.923	1,624.51	88.7148	1,624.51	86.0998	1,624.51	88.0109	1,624.51	86.3246	1,624.51	85.2648	1,624.51	84.4356	1,624.51	84.4712	1,624.51	80.7387	1,624.51	83.6852	1,624.51	79.3554	1,624.51	80.9452	1,624.51	80.5089	1,624.51	74.6034	1,624.51	81.5385	1,624.51	62.5447	1,624.51	80.5946	1,624.51	69.5427	1,624.51	76.0936	1,624.51	69.6205	1,624.51	73.4802	1,624.51	56.2572	1,624.51	69.4148	1,624.51	73.2302	1,624.51	68.3758	1,624.51	73.3589	1,624.51	71.1733	1,624.51	70.0736	1,624.51	69.8712	1,624.51	62.6852	1,624.51	62.8017	1,624.51	72.9734	1,624.51	69.3997	1,624.51	77.3846	1,624.51	73.7794	1,624.51	74.9667
1,681.64	86.4923	1,681.64	87.6407	1,681.64	86.0946	1,681.64	88.007	1,681.64	84.6058	1,681.64	84.7309	1,681.64	82.1553	1,681.64	81.7354	1,681.64	82.982	1,681.64	82.6565	1,681.64	83.5413	1,681.64	81.9854	1,681.64	79.7837	1,681.64	79.8232	1,681.64	71.5249	1,681.64	76.8648	1,681.64	74.9272	1,681.64	76.6086	1,681.64	77.6467	1,681.64	76.3792	1,681.64	78.2526	1,681.64	71.569	1,681.64	76.2881	1,681.64	66.0814	1,681.64	73.7849	1,681.64	74.2862	1,681.64	76.2171	1,681.64	70.2296	1,681.64	72.0778	1,681.64	63.2592	1,681.64	68.1986	1,681.64	74.9359	1,681.64	62.8787	1,681.64	75.4361	1,681.64	75.5117	1,681.64	74.724
1,741.7	88.2105	1,741.7	87.8562	1,741.7	86.1143	1,741.7	87.0317	1,741.7	82.0689	1,741.7	85.9828	1,741.7	82.6356	1,741.7	83.3335	1,741.7	81.6513	1,741.7	77.371	1,741.7	77.713	1,741.7	78.9118	1,741.7	76.2505	1,741.7	78.2844	1,741.7	78.8796	1,741.7	77.9381	1,741.7	81.7196	1,741.7	78.7041	1,741.7	80.6031	1,741.7	76.2016	1,741.7	78.0707	1,741.7	72.3442	1,741.7	75.2885	1,741.7	66.0461	1,741.7	74.2393	1,741.7	71.8014	1,741.7	76.0935	1,741.7	67.646	1,741.7	69.9697	1,741.7	56.9495	1,741.7	57.0305	1,741.7	67.4795	1,741.7	62.5012	1,741.7	74.9677	1,741.7	70.6545	1,741.7	73.0757
1,803.22	88.6218	1,803.22	88.6637	1,803.22	86.4147	1,803.22	86.8061	1,803.22	83.4948	1,803.22	85.1015	1,803.22	81.6578	1,803.22	81.3138	1,803.22	79.0743	1,803.22	76.6174	1,803.22	77.9498	1,803.22	76.0712	1,803.22	79.152	1,803.22	72.923	1,803.22	76.9325	1,803.22	75.0167	1,803.22	72.4336	1,803.22	73.5344	1,803.22	71.8309	1,803.22	73.4932	1,803.22	71.3601	1,803.22	68.4193	1,803.22	72.1671	1,803.22	68.403	1,803.22	72.016	1,803.22	70.7308	1,803.22	72.4125	1,803.22	61.5964	1,803.22	70.4562	1,803.22	71.1738	1,803.22	64.203	1,803.22	67.699	1,803.22	65.6547	1,803.22	75.5481	1,803.22	68.9404	1,803.22	76.8473
1,866.21	88.0165	1,866.21	88.3143	1,866.21	86.9706	1,866.21	87.6979	1,866.21	83.7017	1,866.21	84.4659	1,866.21	80.5617	1,866.21	79.4432	1,866.21	79.8833	1,866.21	78.2615	1,866.21	76.7851	1,866.21	76.303	1,866.21	78.5422	1,866.21	78.2105	1,866.21	80.6983	1,866.21	77.471	1,866.21	77.9272	1,866.21	67.12	1,866.21	72.1248	1,866.21	63.3398	1,866.21	78.902	1,866.21	62.8309	1,866.21	74.5467	1,866.21	73.3511	1,866.21	65.4539	1,866.21	74.134	1,866.21	70.5023	1,866.21	67.9535	1,866.21	70.8247	1,866.21	56.307	1,866.21	60.2945	1,866.21	67.9054	1,866.21	42.0478	1,866.21	72.6792	1,866.21	69.6664	1,866.21	73.8558
1,932.13	87.2692	1,932.13	87.2356	1,932.13	86.0961	1,932.13	86.0754	1,932.13	84.1457	1,932.13	84.1844	1,932.13	80.35	1,932.13	79.883	1,932.13	76.8286	1,932.13	72.2723	1,932.13	78.1285	1,932.13	71.9849	1,932.13	78.2264	1,932.13	69.5138	1,932.13	76.4198	1,932.13	72.0462	1,932.13	69.8189	1,932.13	66.3159	1,932.13	70.175	1,932.13	68.4994	1,932.13	73.3241	1,932.13	69.9813	1,932.13	72.9105	1,932.13	59.5914	1,932.13	70.7022	1,932.13	69.8844	1,932.13	72.1025	1,932.13	63.5942	1,932.13	69.4017	1,932.13	45.4399	1,932.13	59.6154	1,932.13	66.9633	1,932.13	56.8197	1,932.13	71.4149	1,932.13	72.2185	1,932.13	74.6617
1,999.51	87.8755	1,999.51	87.005	1,999.51	86.0226	1,999.51	85.3418	1,999.51	83.2352	1,999.51	83.4669	1,999.51	80.6096	1,999.51	78.4405	1,999.51	76.1016	1,999.51	75.5314	1,999.51	77.5242	1,999.51	71.7718	1,999.51	78.4722	1,999.51	73.4289	1,999.51	75.9674	1,999.51	73.5808	1,999.51	71.2323	1,999.51	71.2172	1,999.51	70.1884	1,999.51	70.7612	1,999.51	74.1496	1,999.51	71.5455	1,999.51	74.6252	1,999.51	59.8252	1,999.51	70.7052	1,999.51	72.1133	1,999.51	71.4272	1,999.51	70.2873	1,999.51	68.4249	1,999.51	53.2219	1,999.51	62.1915	1,999.51	63.6745	1,999.51	58.5176	1,999.51	70.0765	1,999.51	70.8786	1,999.51	74.3452
2,069.82	88.5477	2,069.82	87.5463	2,069.82	86.9767	2,069.82	85.7076	2,069.82	82.0782	2,069.82	81.1924	2,069.82	79.055	2,069.82	78.0795	2,069.82	77.006	2,069.82	74.4707	2,069.82	76.43	2,069.82	74.042	2,069.82	78.1449	2,069.82	70.397	2,069.82	74.6867	2,069.82	71.8509	2,069.82	71.1037	2,069.82	70.7171	2,069.82	66.8147	2,069.82	66.6697	2,069.82	67.8178	2,069.82	69.9982	2,069.82	74.601	2,069.82	68.8432	2,069.82	71.8059	2,069.82	69.4557	2,069.82	69.8548	2,069.82	72.2182	2,069.82	66.1818	2,069.82	63.4716	2,069.82	62.5957	2,069.82	60.7193	2,069.82	56.7463	2,069.82	70.0699	2,069.82	72.6825	2,069.82	74.8214
2,143.07	88.097	2,143.07	88.042	2,143.07	87.5258	2,143.07	86.0528	2,143.07	83.0751	2,143.07	80.9306	2,143.07	76	2,143.07	76.317	2,143.07	76.9161	2,143.07	73.0052	2,143.07	76.7002	2,143.07	71.3773	2,143.07	77.8867	2,143.07	75.4753	2,143.07	77.4414	2,143.07	75.978	2,143.07	74.5333	2,143.07	71.8542	2,143.07	73.3074	2,143.07	72.8152	2,143.07	69.2738	2,143.07	69.5045	2,143.07	73.1177	2,143.07	69.4654	2,143.07	72.378	2,143.07	67.6435	2,143.07	68.373	2,143.07	71.9075	2,143.07	67.7956	2,143.07	67.2904	2,143.07	51.2436	2,143.07	53.5773	2,143.07	60.2699	2,143.07	65.5224	2,143.07	71.8881	2,143.07	73.6249
2,219.24	86.8337	2,219.24	87.3322	2,219.24	86.3439	2,219.24	85.1199	2,219.24	83.3521	2,219.24	82.3991	2,219.24	74.9286	2,219.24	74.7033	2,219.24	76.5663	2,219.24	71.5057	2,219.24	77.8515	2,219.24	77.2632	2,219.24	78.1368	2,219.24	77.2798	2,219.24	76.8373	2,219.24	74.2932	2,219.24	73.7965	2,219.24	74.8482	2,219.24	71.1098	2,219.24	72.4847	2,219.24	70.8314	2,219.24	72.3739	2,219.24	72.1268	2,219.24	70.0256	2,219.24	71.9669	2,219.24	70.0525	2,219.24	67.4523	2,219.24	71.2042	2,219.24	67.6619	2,219.24	69.0088	2,219.24	48.5927	2,219.24	53.6542	2,219.24	62.6934	2,219.24	61.1983	2,219.24	70.7274	2,219.24	72.1642
2,296.88	86.8911	2,296.88	86.5015	2,296.88	85.0197	2,296.88	84.35	2,296.88	82.1162	2,296.88	81.8988	2,296.88	73.3857	2,296.88	73.3879	2,296.88	76.4707	2,296.88	77.0574	2,296.88	79.1453	2,296.88	78.3224	2,296.88	79.8615	2,296.88	78.5792	2,296.88	78.1648	2,296.88	77.1969	2,296.88	74.3306	2,296.88	75.1591	2,296.88	75.1167	2,296.88	71.634	2,296.88	73.2347	2,296.88	70.1353	2,296.88	72.2756	2,296.88	71.0207	2,296.88	72.5342	2,296.88	71.5502	2,296.88	67.8355	2,296.88	69.7782	2,296.88	65.23	2,296.88	71.5342	2,296.88	55.3679	2,296.88	66.0523	2,296.88	66.6847	2,296.88	50.6584	2,296.88	67.4612	2,296.88	68.6505
2,378.91	87.2731	2,378.91	86.8374	2,378.91	84.9877	2,378.91	84.9885	2,378.91	80.952	2,378.91	79.8859	2,378.91	68.916	2,378.91	75.0896	2,378.91	77.9406	2,378.91	76.4509	2,378.91	80.2758	2,378.91	79.6382	2,378.91	79.6767	2,378.91	77.0649	2,378.91	79.636	2,378.91	75.0799	2,378.91	78.7659	2,378.91	72.4591	2,378.91	77.5293	2,378.91	69.3797	2,378.91	75.6764	2,378.91	73.6191	2,378.91	62.3764	2,378.91	65.9787	2,378.91	72.5556	2,378.91	74.0078	2,378.91	69.9302	2,378.91	68.3963	2,378.91	63.7194	2,378.91	69.4554	2,378.91	59.8216	2,378.91	67.2944	2,378.91	66.6289	2,378.91	62.0336	2,378.91	70.7611	2,378.91	70.2408
2,462.4	86.0631	2,462.4	86.1302	2,462.4	83.9838	2,462.4	85.6487	2,462.4	80.4037	2,462.4	79.1952	2,462.4	67.6075	2,462.4	74.2647	2,462.4	77.8517	2,462.4	78.7878	2,462.4	82.0946	2,462.4	79.1441	2,462.4	80.0608	2,462.4	79.4547	2,462.4	78.7518	2,462.4	79.5573	2,462.4	77.8073	2,462.4	74.1518	2,462.4	74.6626	2,462.4	74.3582	2,462.4	73.3222	2,462.4	70.8411	2,462.4	67.2845	2,462.4	71.1488	2,462.4	67.749	2,462.4	72.7656	2,462.4	68.3116	2,462.4	71.0578	2,462.4	64.939	2,462.4	70.1308	2,462.4	60.6854	2,462.4	62.9805	2,462.4	64.4277	2,462.4	58.5029	2,462.4	70.9296	2,462.4	71.555
2,548.83	85.463	2,548.83	85.8	2,548.83	83.4967	2,548.83	85.1973	2,548.83	77.9342	2,548.83	80.3699	2,548.83	66.5552	2,548.83	73.49	2,548.83	78.6517	2,548.83	80.1285	2,548.83	82.9753	2,548.83	80.9385	2,548.83	80.8218	2,548.83	80.9462	2,548.83	77.2687	2,548.83	76.3264	2,548.83	73.8646	2,548.83	76.5497	2,548.83	78.7282	2,548.83	73.1239	2,548.83	75.3007	2,548.83	69.687	2,548.83	66.8338	2,548.83	71.4926	2,548.83	46.2726	2,548.83	70.3913	2,548.83	65.4468	2,548.83	70.9107	2,548.83	64.1822	2,548.83	71.7598	2,548.83	66.9912	2,548.83	65.1062	2,548.83	64.0912	2,548.83	62.4413	2,548.83	65.728	2,548.83	70.9081
2,639.65	85.4487	2,639.65	86.2869	2,639.65	83.8222	2,639.65	84.4205	2,639.65	77.9055	2,639.65	79.2584	2,639.65	63.6682	2,639.65	74.0023	2,639.65	78.793	2,639.65	80.7571	2,639.65	83.4743	2,639.65	80.7667	2,639.65	81.5821	2,639.65	80.9446	2,639.65	77.8743	2,639.65	76.1062	2,639.65	74.7592	2,639.65	74.9136	2,639.65	76.1205	2,639.65	68.0357	2,639.65	72.067	2,639.65	69.4915	2,639.65	60.972	2,639.65	69.4058	2,639.65	59.7073	2,639.65	70.7654	2,639.65	70.0632	2,639.65	70.915	2,639.65	67.1912	2,639.65	69.801	2,639.65	67.6047	2,639.65	66.7278	2,639.65	66.7532	2,639.65	61.4004	2,639.65	68.0459	2,639.65	67.2572
2,731.93	84.9176	2,731.93	86.329	2,731.93	83.1519	2,731.93	84.3246	2,731.93	77.4989	2,731.93	77.0708	2,731.93	64.1194	2,731.93	76.0867	2,731.93	80.0895	2,731.93	79.7002	2,731.93	82.7753	2,731.93	81.6044	2,731.93	82.3344	2,731.93	77.7882	2,731.93	77.0144	2,731.93	75.9402	2,731.93	72.318	2,731.93	71.2846	2,731.93	71.5762	2,731.93	67.0178	2,731.93	54.3583	2,731.93	70.517	2,731.93	60.7907	2,731.93	66.1516	2,731.93	60.2068	2,731.93	71.532	2,731.93	71.8264	2,731.93	70.4773	2,731.93	65.4778	2,731.93	70.3845	2,731.93	67.0044	2,731.93	68.211	2,731.93	68.6166	2,731.93	62.8535	2,731.93	67.9343	2,731.93	66.9312
2,828.61	84.8012	2,828.61	86.2512	2,828.61	82.6564	2,828.61	84.4872	2,828.61	75.7654	2,828.61	76.7119	2,828.61	69.7043	2,828.61	75.3568	2,828.61	81.1321	2,828.61	80.7593	2,828.61	81.9238	2,828.61	80.9861	2,828.61	80.0323	2,828.61	79.1958	2,828.61	76.0563	2,828.61	76.5748	2,828.61	73.8535	2,828.61	71.8738	2,828.61	71.0903	2,828.61	71.7417	2,828.61	70.087	2,828.61	67.9762	2,828.61	70.4618	2,828.61	67.0743	2,828.61	59.1193	2,828.61	71.0682	2,828.61	70.6176	2,828.61	69.5717	2,828.61	64.276	2,828.61	69.099	2,828.61	64.7202	2,828.61	66.7655	2,828.61	68.2608	2,828.61	55.7675	2,828.61	67.8003	2,828.61	66.5087
2,928.22	85.2643	2,928.22	86.3655	2,928.22	82.4591	2,928.22	84.3347	2,928.22	74.1615	2,928.22	75.7586	2,928.22	73.9795	2,928.22	75.267	2,928.22	81.5019	2,928.22	81.1308	2,928.22	81.5587	2,928.22	81.1368	2,928.22	78.7941	2,928.22	78.8143	2,928.22	75.437	2,928.22	76.8833	2,928.22	71.2765	2,928.22	74.3642	2,928.22	52.1353	2,928.22	69.5318	2,928.22	73.1011	2,928.22	67.2215	2,928.22	71.6629	2,928.22	63.0228	2,928.22	65.1554	2,928.22	69.7841	2,928.22	65.6806	2,928.22	69.2909	2,928.22	66.0792	2,928.22	70.2976	2,928.22	68.1625	2,928.22	66.3626	2,928.22	69.0419	2,928.22	44.6486	2,928.22	67.5592	2,928.22	68.2206
3,030.76	85.2576	3,030.76	86.0507	3,030.76	80.9975	3,030.76	83.8292	3,030.76	70.9262	3,030.76	73.7109	3,030.76	77.0015	3,030.76	74.7221	3,030.76	81.8874	3,030.76	80.8826	3,030.76	81.364	3,030.76	79.8529	3,030.76	77.1839	3,030.76	79.9716	3,030.76	74.8723	3,030.76	75.9552	3,030.76	69.7695	3,030.76	72.3763	3,030.76	71.3822	3,030.76	67.4466	3,030.76	71.7061	3,030.76	67.7378	3,030.76	68.7879	3,030.76	64.2108	3,030.76	63.5166	3,030.76	70.5387	3,030.76	67.4136	3,030.76	67.7126	3,030.76	62.7018	3,030.76	70.4327	3,030.76	68.1288	3,030.76	66.923	3,030.76	70.6728	3,030.76	52.6617	3,030.76	67.7083	3,030.76	69.7375
3,137.7	85.7735	3,137.7	86.8881	3,137.7	79.655	3,137.7	84.3282	3,137.7	62.3795	3,137.7	72.4723	3,137.7	78.1244	3,137.7	73.1507	3,137.7	81.4086	3,137.7	78.8592	3,137.7	81.0491	3,137.7	79.9485	3,137.7	78.0638	3,137.7	78.7909	3,137.7	76.7741	3,137.7	74.4038	3,137.7	72.0967	3,137.7	70.6178	3,137.7	75.558	3,137.7	68.1649	3,137.7	71.6322	3,137.7	68.3816	3,137.7	59.0202	3,137.7	63.081	3,137.7	62.8261	3,137.7	72.3496	3,137.7	62.9407	3,137.7	62.0927	3,137.7	56.7302	3,137.7	69.5477	3,137.7	69.3879	3,137.7	68.0017	3,137.7	67.4665	3,137.7	57.253	3,137.7	70.9268	3,137.7	67.7176
3,249.02	86.7398	3,249.02	87.8049	3,249.02	79.968	3,249.02	83.6275	3,249.02	54.4366	3,249.02	72.0998	3,249.02	78.7923	3,249.02	70.4341	3,249.02	80.7038	3,249.02	78.0421	3,249.02	79.9807	3,249.02	80.3373	3,249.02	77.7413	3,249.02	77.7842	3,249.02	78.37	3,249.02	74.8128	3,249.02	77.9837	3,249.02	73.5852	3,249.02	77.4053	3,249.02	70.3401	3,249.02	70.5644	3,249.02	66.4307	3,249.02	53.4158	3,249.02	67.9969	3,249.02	40.2624	3,249.02	70.864	3,249.02	62.3525	3,249.02	67.8413	3,249.02	61.642	3,249.02	66.4994	3,249.02	67.7257	3,249.02	59.8717	3,249.02	64.7427	3,249.02	46.2288	3,249.02	70.4812	3,249.02	60.2091
3,363.28	87.5467	3,363.28	88.5869	3,363.28	79.5303	3,363.28	83.2499	3,363.28	65.6244	3,363.28	72.512	3,363.28	79.5656	3,363.28	71.6641	3,363.28	81.8226	3,363.28	76.1957	3,363.28	79.7925	3,363.28	79.4145	3,363.28	79.0848	3,363.28	77.5636	3,363.28	79.4861	3,363.28	76.568	3,363.28	78.8913	3,363.28	73.8399	3,363.28	78.8711	3,363.28	69.6947	3,363.28	72.2208	3,363.28	66.7333	3,363.28	66.157	3,363.28	66.9268	3,363.28	63.218	3,363.28	70.0198	3,363.28	64.5779	3,363.28	68.1765	3,363.28	54.7098	3,363.28	69.2364	3,363.28	64.8248	3,363.28	67.6009	3,363.28	68.9193	3,363.28	61.3678	3,363.28	71.5598	3,363.28	65.9926
3,481.93	88.4761	3,481.93	89.7692	3,481.93	78.8712	3,481.93	84.9335	3,481.93	73.9997	3,481.93	71.8933	3,481.93	81.0802	3,481.93	72.8043	3,481.93	83.5932	3,481.93	76.8081	3,481.93	79.7026	3,481.93	76.7531	3,481.93	80.7863	3,481.93	76.8456	3,481.93	80.4256	3,481.93	76.9151	3,481.93	80.7204	3,481.93	67.0731	3,481.93	77.9341	3,481.93	68.742	3,481.93	68.0417	3,481.93	70.0037	3,481.93	70.8335	3,481.93	63.6615	3,481.93	64.3255	3,481.93	70.7289	3,481.93	63.9787	3,481.93	66.1031	3,481.93	60.1166	3,481.93	68.9188	3,481.93	46.7802	3,481.93	68.9807	3,481.93	66.789	3,481.93	61.6755	3,481.93	71.9649	3,481.93	68.4397
3,604.98	88.2126	3,604.98	89.9391	3,604.98	76.0127	3,604.98	86.9208	3,604.98	78.3341	3,604.98	75.6345	3,604.98	82.3683	3,604.98	71.9705	3,604.98	83.3035	3,604.98	74.196	3,604.98	81.0425	3,604.98	74.9639	3,604.98	83.5151	3,604.98	76.7686	3,604.98	83.2947	3,604.98	69.4444	3,604.98	81.7339	3,604.98	72.4696	3,604.98	71.1216	3,604.98	69.8266	3,604.98	63.9403	3,604.98	65.7266	3,604.98	69.4614	3,604.98	65.7016	3,604.98	67.9571	3,604.98	70.808	3,604.98	67.8976	3,604.98	65.312	3,604.98	66.0478	3,604.98	68.8474	3,604.98	62.8174	3,604.98	66.9765	3,604.98	67.5962	3,604.98	58.4935	3,604.98	74.7334	3,604.98	62.5058
3,732.42	87.1566	3,732.42	89.7207	3,732.42	64.4964	3,732.42	86.3934	3,732.42	80.8769	3,732.42	77.5621	3,732.42	83.6102	3,732.42	76.1951	3,732.42	81.7952	3,732.42	73.6342	3,732.42	82.3124	3,732.42	75.5895	3,732.42	84.9611	3,732.42	74.0309	3,732.42	83.4794	3,732.42	74.2943	3,732.42	80.0043	3,732.42	74.0656	3,732.42	73.4129	3,732.42	65.182	3,732.42	73.1699	3,732.42	68.2111	3,732.42	65.9978	3,732.42	66.81	3,732.42	69.4973	3,732.42	69.3278	3,732.42	62.7024	3,732.42	68.3508	3,732.42	68.7798	3,732.42	67.9911	3,732.42	65.1427	3,732.42	63.511	3,732.42	65.7826	3,732.42	57.3635	3,732.42	73.4739	3,732.42	60.4776
3,864.26	85.7163	3,864.26	89.2511	3,864.26	67.337	3,864.26	86.4933	3,864.26	82.6357	3,864.26	81.1367	3,864.26	83.1166	3,864.26	77.6693	3,864.26	81.7694	3,864.26	75.2097	3,864.26	82.4852	3,864.26	76.076	3,864.26	84.323	3,864.26	77.4444	3,864.26	83.3278	3,864.26	78.4463	3,864.26	78.6366	3,864.26	72.9694	3,864.26	75.7579	3,864.26	71.4444	3,864.26	74.8462	3,864.26	69.9163	3,864.26	71.131	3,864.26	68.076	3,864.26	68.2314	3,864.26	71.9829	3,864.26	57.4728	3,864.26	71.6808	3,864.26	65.7767	3,864.26	64.8654	3,864.26	66.3445	3,864.26	63.2852	3,864.26	66.8104	3,864.26	60.9387	3,864.26	72.552	3,864.26	55.2145
4,000.49	83.3794	4,000.49	88.9516	4,000.49	74.1963	4,000.49	86.7472	4,000.49	84.5224	4,000.49	82.5575	4,000.49	83.8667	4,000.49	82.1573	4,000.49	81.4597	4,000.49	77.7831	4,000.49	83.7837	4,000.49	76.9685	4,000.49	84.0163	4,000.49	79.7683	4,000.49	81.6747	4,000.49	77.0987	4,000.49	77.1934	4,000.49	72.5745	4,000.49	73.5923	4,000.49	69.8576	4,000.49	72.1369	4,000.49	68.6752	4,000.49	74.148	4,000.49	70.6525	4,000.49	67.7941	4,000.49	72.8605	4,000.49	63.6922	4,000.49	71.7469	4,000.49	65.4638	4,000.49	65.9432	4,000.49	69.0435	4,000.49	52.3385	4,000.49	68.9412	4,000.49	67.2064	4,000.49	72.4727	4,000.49	55.3785
4,141.11	84.8811	4,141.11	89.5637	4,141.11	77.9076	4,141.11	85.563	4,141.11	84.675	4,141.11	83.3479	4,141.11	84.3563	4,141.11	84.2257	4,141.11	82.3354	4,141.11	77.47	4,141.11	85.2414	4,141.11	77.1764	4,141.11	84.6664	4,141.11	80.0188	4,141.11	78.2775	4,141.11	76.2599	4,141.11	74.8228	4,141.11	76.7433	4,141.11	78.0087	4,141.11	73.2362	4,141.11	76.1984	4,141.11	68.4995	4,141.11	71.7318	4,141.11	70.728	4,141.11	58.4788	4,141.11	73.1514	4,141.11	59.8302	4,141.11	72.1253	4,141.11	62.8185	4,141.11	65.1543	4,141.11	70.5137	4,141.11	57.2394	4,141.11	69.4296	4,141.11	63.9459	4,141.11	70.9243	4,141.11	59.0582
4,287.6	84.019	4,287.6	88.5267	4,287.6	81.6016	4,287.6	85.4301	4,287.6	85.822	4,287.6	83.563	4,287.6	84.2634	4,287.6	84.6939	4,287.6	82.9959	4,287.6	78.0168	4,287.6	85.4419	4,287.6	75.1664	4,287.6	81.4556	4,287.6	77.4276	4,287.6	76.202	4,287.6	79.7107	4,287.6	76.1324	4,287.6	72.8619	4,287.6	76.3552	4,287.6	70.9287	4,287.6	73.1868	4,287.6	70.8779	4,287.6	54.5706	4,287.6	69.7932	4,287.6	62.0432	4,287.6	73.0852	4,287.6	55.1382	4,287.6	71.2495	4,287.6	56.926	4,287.6	64.7064	4,287.6	68.6655	4,287.6	61.8307	4,287.6	68.468	4,287.6	67.6393	4,287.6	70.6691	4,287.6	62.1556
4,438.48	83.7604	4,438.48	87.4761	4,438.48	83.6986	4,438.48	84.8573	4,438.48	86.6437	4,438.48	84.5936	4,438.48	84.2683	4,438.48	85.5528	4,438.48	83.3474	4,438.48	78.8495	4,438.48	84.7309	4,438.48	75.2525	4,438.48	75.1671	4,438.48	79.5434	4,438.48	72.7818	4,438.48	76.2628	4,438.48	75.0822	4,438.48	74.6248	4,438.48	73.9607	4,438.48	70.7937	4,438.48	70.6577	4,438.48	64.771	4,438.48	72.9186	4,438.48	68.9153	4,438.48	64.4403	4,438.48	73.0544	4,438.48	58.9711	4,438.48	70.6271	4,438.48	52.7645	4,438.48	66.6105	4,438.48	61.7801	4,438.48	61.3527	4,438.48	67.1638	4,438.48	67.2396	4,438.48	70.6257	4,438.48	60.5684
4,595.21	84.8117	4,595.21	87.4477	4,595.21	85.1392	4,595.21	85.7706	4,595.21	86.9704	4,595.21	85.673	4,595.21	83.2721	4,595.21	85.9767	4,595.21	84.4497	4,595.21	79.7897	4,595.21	81.9711	4,595.21	74.8088	4,595.21	71.999	4,595.21	77.9354	4,595.21	76.4129	4,595.21	77.2687	4,595.21	75.606	4,595.21	75.5925	4,595.21	71.8335	4,595.21	70.5845	4,595.21	70.0731	4,595.21	68.3481	4,595.21	73.6804	4,595.21	69.4379	4,595.21	42.7106	4,595.21	70.8731	4,595.21	65.2088	4,595.21	70.2866	4,595.21	58.371	4,595.21	67.419	4,595.21	63.9655	4,595.21	62.7297	4,595.21	66.7221	4,595.21	67.449	4,595.21	68.7725	4,595.21	61.7408
4,756.35	83.7378	4,756.35	87.5772	4,756.35	86.2061	4,756.35	85.5709	4,756.35	86.8395	4,756.35	86.0812	4,756.35	83.5765	4,756.35	85.9398	4,756.35	85.652	4,756.35	78.7908	4,756.35	80.3704	4,756.35	73.2504	4,756.35	77.0798	4,756.35	79.2336	4,756.35	79.5055	4,756.35	79.2265	4,756.35	76.6654	4,756.35	73.0503	4,756.35	70.2959	4,756.35	69.9201	4,756.35	72.6033	4,756.35	66.9879	4,756.35	71.3409	4,756.35	69.0297	4,756.35	69.0168	4,756.35	71.37	4,756.35	66.7971	4,756.35	70.9155	4,756.35	54.1373	4,756.35	64.8348	4,756.35	67.0619	4,756.35	63.2391	4,756.35	66.548	4,756.35	68.1824	4,756.35	68.266	4,756.35	55.5583
4,924.8	84.0586	4,924.8	88.5177	4,924.8	87.2395	4,924.8	84.5408	4,924.8	85.7745	4,924.8	85.0774	4,924.8	83.9099	4,924.8	86.0682	4,924.8	85.0481	4,924.8	79.8195	4,924.8	79.2234	4,924.8	76.8587	4,924.8	83.2362	4,924.8	80.3047	4,924.8	80.431	4,924.8	77.6641	4,924.8	76.7336	4,924.8	74.6465	4,924.8	72.9446	4,924.8	72.1449	4,924.8	75.0043	4,924.8	64.0771	4,924.8	70.1206	4,924.8	66.427	4,924.8	71.2286	4,924.8	69.6428	4,924.8	64.4233	4,924.8	71.0261	4,924.8	54.667	4,924.8	65.1538	4,924.8	64.3783	4,924.8	57.9221	4,924.8	66.8178	4,924.8	67.6921	4,924.8	69.7502	4,924.8	50.6676
5,097.66	82.0901	5,097.66	87.6579	5,097.66	86.4527	5,097.66	84.2932	5,097.66	86.4367	5,097.66	85.2317	5,097.66	84.7359	5,097.66	86.4467	5,097.66	83.996	5,097.66	81.2641	5,097.66	81.042	5,097.66	77.2157	5,097.66	85.045	5,097.66	80.5591	5,097.66	78.7266	5,097.66	79.7439	5,097.66	75.6224	5,097.66	75.7027	5,097.66	70.7036	5,097.66	70.3804	5,097.66	74.1584	5,097.66	68.0449	5,097.66	75.7111	5,097.66	61.8728	5,097.66	70.2472	5,097.66	71.1166	5,097.66	66.1174	5,097.66	70.7636	5,097.66	60.3773	5,097.66	66.2568	5,097.66	57.0466	5,097.66	57.4854	5,097.66	66.2058	5,097.66	69.0991	5,097.66	69.3176	5,097.66	54.6013
5,277.83	84.1212	5,277.83	86.9604	5,277.83	86.3674	5,277.83	85.6104	5,277.83	86.5616	5,277.83	85.7948	5,277.83	85.705	5,277.83	86.5946	5,277.83	83.6522	5,277.83	80.1512	5,277.83	82.5837	5,277.83	77.2033	5,277.83	83.7131	5,277.83	81.5674	5,277.83	78.3783	5,277.83	79.2567	5,277.83	74.8405	5,277.83	75.0004	5,277.83	71.0445	5,277.83	71.6127	5,277.83	68.1049	5,277.83	65.5788	5,277.83	74.2023	5,277.83	63.0169	5,277.83	62.8706	5,277.83	70.5706	5,277.83	67.8673	5,277.83	69.9324	5,277.83	63.1183	5,277.83	62.6522	5,277.83	57.2923	5,277.83	63.4229	5,277.83	65.9901	5,277.83	70.1053	5,277.83	68.3372	5,277.83	51.5769
5,463.87	85.4408	5,463.87	86.6675	5,463.87	85.5025	5,463.87	85.8587	5,463.87	86.6757	5,463.87	84.3092	5,463.87	85.6368	5,463.87	86.5382	5,463.87	82.0526	5,463.87	83.0175	5,463.87	83.7353	5,463.87	78.1624	5,463.87	82.2836	5,463.87	80.915	5,463.87	79.5368	5,463.87	78.725	5,463.87	74.1804	5,463.87	75.7471	5,463.87	73.4048	5,463.87	68.2308	5,463.87	71.6405	5,463.87	66.96	5,463.87	73.0924	5,463.87	64.202	5,463.87	69.5628	5,463.87	69.1828	5,463.87	66.4023	5,463.87	69.5794	5,463.87	62.707	5,463.87	57.2251	5,463.87	55.0756	5,463.87	63.4019	5,463.87	67.1953	5,463.87	69.8191	5,463.87	69.3504	5,463.87	46.9136
5,657.23	85.3933	5,657.23	86.6178	5,657.23	85.0375	5,657.23	86.0559	5,657.23	86.3185	5,657.23	82.7011	5,657.23	85.6866	5,657.23	86.9413	5,657.23	81.5355	5,657.23	82.8019	5,657.23	84.2019	5,657.23	76.7806	5,657.23	81.238	5,657.23	80.162	5,657.23	79.8997	5,657.23	79.47	5,657.23	74.7662	5,657.23	74.0354	5,657.23	74.7342	5,657.23	68.6009	5,657.23	70.3275	5,657.23	67.7	5,657.23	72.0649	5,657.23	66.6128	5,657.23	68.5999	5,657.23	66.954	5,657.23	63.8648	5,657.23	68.8851	5,657.23	65.7387	5,657.23	43.834	5,657.23	54.4661	5,657.23	63.0087	5,657.23	68.1489	5,657.23	68.8821	5,657.23	68.292	5,657.23	53.0472
5,856.45	84.8513	5,856.45	84.9781	5,856.45	84.6718	5,856.45	85.0633	5,856.45	86.864	5,856.45	84.1626	5,856.45	83.7887	5,856.45	85.4279	5,856.45	82.6989	5,856.45	83.3357	5,856.45	83.1875	5,856.45	76.1771	5,856.45	81.1271	5,856.45	80.6852	5,856.45	78.7475	5,856.45	77.1299	5,856.45	78.0066	5,856.45	75.0009	5,856.45	74.5055	5,856.45	69.3762	5,856.45	73.1031	5,856.45	64.211	5,856.45	73.8751	5,856.45	64.164	5,856.45	70.3292	5,856.45	61.5713	5,856.45	55.7937	5,856.45	68.9755	5,856.45	61.8345	5,856.45	51.8925	5,856.45	55.2381	5,856.45	58.4521	5,856.45	66.3749	5,856.45	65.8239	5,856.45	68.2862	5,856.45	48.1833
6,062.99	84.5215	6,062.99	85.3422	6,062.99	85.6288	6,062.99	84.8748	6,062.99	86.7375	6,062.99	82.3856	6,062.99	80.9984	6,062.99	84.9441	6,062.99	82.3926	6,062.99	84.7588	6,062.99	84.0464	6,062.99	77.6467	6,062.99	82.4095	6,062.99	79.3889	6,062.99	79.8673	6,062.99	79.4852	6,062.99	80.4172	6,062.99	73.2941	6,062.99	71.675	6,062.99	71.0382	6,062.99	72.6259	6,062.99	66.0908	6,062.99	73.6058	6,062.99	62.9263	6,062.99	71.3151	6,062.99	62.4703	6,062.99	65.9405	6,062.99	67.8778	6,062.99	55.0264	6,062.99	50.2487	6,062.99	56.685	6,062.99	64.9801	6,062.99	63.1156	6,062.99	65.0174	6,062.99	65.5732	6,062.99	56.2122
6,276.86	84.2226	6,276.86	87.0775	6,276.86	86.4293	6,276.86	83.3343	6,276.86	84.4294	6,276.86	83.3595	6,276.86	81.5819	6,276.86	84.4485	6,276.86	81.9364	6,276.86	84.5301	6,276.86	83.2669	6,276.86	76.0862	6,276.86	81.8903	6,276.86	79.6348	6,276.86	80.5335	6,276.86	76.9372	6,276.86	79.9711	6,276.86	74.3136	6,276.86	71.7069	6,276.86	69.7966	6,276.86	68.9222	6,276.86	57.0779	6,276.86	69.0558	6,276.86	58.8095	6,276.86	66.5976	6,276.86	57.9839	6,276.86	57.4913	6,276.86	63.3016	6,276.86	63.7827	6,276.86	62.089	6,276.86	59.9314	6,276.86	63.4458	6,276.86	65.6903	6,276.86	63.1435	6,276.86	62.2012	6,276.86	61.5214
6,498.05	82.6176	6,498.05	86.5302	6,498.05	86.5577	6,498.05	82.0389	6,498.05	79.6523	6,498.05	84.0028	6,498.05	83.2601	6,498.05	83.4509	6,498.05	81.3918	6,498.05	84.9577	6,498.05	83.0564	6,498.05	75.0922	6,498.05	81.5502	6,498.05	79.7894	6,498.05	80.3377	6,498.05	76.8409	6,498.05	77.8213	6,498.05	75.2617	6,498.05	73.6874	6,498.05	70.8231	6,498.05	71.8791	6,498.05	59.1952	6,498.05	72.7027	6,498.05	56.6194	6,498.05	65.7336	6,498.05	52.3811	6,498.05	58.559	6,498.05	66.4071	6,498.05	62.3423	6,498.05	60.7845	6,498.05	47.2803	6,498.05	58.8744	6,498.05	65.6323	6,498.05	63.5593	6,498.05	57.8258	6,498.05	61.6809
6,726.56	82.4994	6,726.56	84.8472	6,726.56	85.5743	6,726.56	82.9306	6,726.56	83.3334	6,726.56	83.8153	6,726.56	84.2575	6,726.56	81.1637	6,726.56	81.4574	6,726.56	84.9336	6,726.56	82.9328	6,726.56	76.6186	6,726.56	82.6855	6,726.56	78.4269	6,726.56	81.8541	6,726.56	76.184	6,726.56	71.1474	6,726.56	75.1072	6,726.56	70.4669	6,726.56	70.2925	6,726.56	71.7736	6,726.56	48.7962	6,726.56	75.4925	6,726.56	53.9651	6,726.56	73.3735	6,726.56	48.0306	6,726.56	61.2497	6,726.56	66.5777	6,726.56	50.7743	6,726.56	55.6869	6,726.56	55.1681	6,726.56	58.893	6,726.56	65.3112	6,726.56	57.494	6,726.56	62.18	6,726.56	56.4825
6,963.87	84.0268	6,963.87	85.2561	6,963.87	85.8763	6,963.87	83.8898	6,963.87	85.9021	6,963.87	84.6773	6,963.87	81.9692	6,963.87	80.8143	6,963.87	83.3939	6,963.87	83.771	6,963.87	81.4566	6,963.87	79.0903	6,963.87	83.1856	6,963.87	78.8075	6,963.87	78.9211	6,963.87	76.0981	6,963.87	72.4169	6,963.87	75.1211	6,963.87	73.3479	6,963.87	68.5815	6,963.87	69.7456	6,963.87	60.0181	6,963.87	74.6334	6,963.87	61.665	6,963.87	72.4674	6,963.87	58.559	6,963.87	66.9416	6,963.87	66.7179	6,963.87	57.4135	6,963.87	55.5492	6,963.87	57.9751	6,963.87	59.5877	6,963.87	59.467	6,963.87	60.434	6,963.87	61.6943	6,963.87	53.4206
7,209.96	85.252	7,209.96	85.0693	7,209.96	86.3469	7,209.96	84.697	7,209.96	86.7527	7,209.96	84.0304	7,209.96	82.3744	7,209.96	79.5973	7,209.96	85.1707	7,209.96	84.0665	7,209.96	78.9132	7,209.96	78.7109	7,209.96	83.3826	7,209.96	77.5403	7,209.96	71.8026	7,209.96	75.0021	7,209.96	77.3467	7,209.96	72.5315	7,209.96	71.9871	7,209.96	67.0885	7,209.96	59.4636	7,209.96	54.7477	7,209.96	70.6175	7,209.96	61.5065	7,209.96	70.3862	7,209.96	58.0553	7,209.96	60.6899	7,209.96	65.4193	7,209.96	46.9836	7,209.96	54.0428	7,209.96	51.6521	7,209.96	51.6448	7,209.96	58.9297	7,209.96	55.2029	7,209.96	59.2487	7,209.96	51.6875
7,464.84	85.4851	7,464.84	85.7641	7,464.84	84.8641	7,464.84	86.1872	7,464.84	85.1486	7,464.84	84.9493	7,464.84	84.5298	7,464.84	80.4977	7,464.84	83.4129	7,464.84	83.0743	7,464.84	80.4688	7,464.84	79.7434	7,464.84	80.5301	7,464.84	76.8503	7,464.84	77.8061	7,464.84	74.4861	7,464.84	77.1955	7,464.84	72.0554	7,464.84	68.5836	7,464.84	66.6742	7,464.84	64.6522	7,464.84	59.5908	7,464.84	68.2782	7,464.84	61.0232	7,464.84	60.5475	7,464.84	57.2029	7,464.84	58.5272	7,464.84	63.9432	7,464.84	49.7357	7,464.84	57.1546	7,464.84	53.7179	7,464.84	58.0524	7,464.84	55.4731	7,464.84	56.8249	7,464.84	53.8708	7,464.84	57.1707
7,727.05	86.383	7,727.05	86.6233	7,727.05	85.5373	7,727.05	86.2295	7,727.05	83.954	7,727.05	84.7901	7,727.05	85.7542	7,727.05	81.0538	7,727.05	81.5642	7,727.05	83.3498	7,727.05	82.5576	7,727.05	80.0504	7,727.05	76.6788	7,727.05	75.9522	7,727.05	79.925	7,727.05	73.9246	7,727.05	72.4268	7,727.05	70.3753	7,727.05	67.3556	7,727.05	65.3937	7,727.05	66.205	7,727.05	61.2528	7,727.05	69.4284	7,727.05	60.291	7,727.05	64.7503	7,727.05	56.1907	7,727.05	55.6799	7,727.05	62.2763	7,727.05	48.7301	7,727.05	58.9554	7,727.05	59.5333	7,727.05	58.6533	7,727.05	52.5327	7,727.05	54.0309	7,727.05	55.9986	7,727.05	54.7786
7,999.51	86.8901	7,999.51	87.0368	7,999.51	87.3191	7,999.51	86.0937	7,999.51	85.4646	7,999.51	85.8513	7,999.51	86.4343	7,999.51	82.3129	7,999.51	81.6059	7,999.51	81.9603	7,999.51	81.9084	7,999.51	79.8654	7,999.51	76.4838	7,999.51	72.9976	7,999.51	78.5988	7,999.51	74.1316	7,999.51	66.1588	7,999.51	68.8477	7,999.51	64.2295	7,999.51	63.0021	7,999.51	59.7926	7,999.51	62.1117	7,999.51	68.0558	7,999.51	60.4459	7,999.51	64.0235	7,999.51	58.3181	7,999.51	58.6292	7,999.51	61.0677	7,999.51	53.4471	7,999.51	58.7637	7,999.51	57.0719	7,999.51	52.9414	7,999.51	50.1942	7,999.51	55.8053	7,999.51	54.3349	7,999.51	52.3534
8,282.23	86.6894	8,282.23	86.3849	8,282.23	87.6739	8,282.23	85.8175	8,282.23	86.7293	8,282.23	85.7359	8,282.23	86.398	8,282.23	81.9396	8,282.23	82.0382	8,282.23	81.1969	8,282.23	78.62	8,282.23	78.635	8,282.23	79.6316	8,282.23	68.4364	8,282.23	74.4665	8,282.23	73.1312	8,282.23	71.59	8,282.23	68.9723	8,282.23	65.1486	8,282.23	63.6719	8,282.23	67.7834	8,282.23	61.9307	8,282.23	64.3116	8,282.23	59.3016	8,282.23	63.5248	8,282.23	58.7489	8,282.23	59.002	8,282.23	59.5452	8,282.23	50.5308	8,282.23	56.0512	8,282.23	58.4094	8,282.23	50.199	8,282.23	55.2318	8,282.23	58.3736	8,282.23	52.9696	8,282.23	51.7756
8,573.73	86.5323	8,573.73	87.0607	8,573.73	87.229	8,573.73	85.6879	8,573.73	87.36	8,573.73	85.8172	8,573.73	84.6345	8,573.73	81.8597	8,573.73	81.8263	8,573.73	79.5493	8,573.73	77.5922	8,573.73	78.2267	8,573.73	80.5581	8,573.73	65.8303	8,573.73	68.6901	8,573.73	71.9583	8,573.73	74.5523	8,573.73	65.6963	8,573.73	66.5838	8,573.73	64.643	8,573.73	65.9807	8,573.73	54.5029	8,573.73	60.5164	8,573.73	58.2669	8,573.73	63.6627	8,573.73	56.6883	8,573.73	59.7045	8,573.73	56.6005	8,573.73	55.1437	8,573.73	52.8595	8,573.73	54.3239	8,573.73	41.9933	8,573.73	52.3075	8,573.73	59.5911	8,573.73	56.2663	8,573.73	43.9108
8,876.95	86.8845	8,876.95	86.8153	8,876.95	86.2486	8,876.95	85.7663	8,876.95	86.9033	8,876.95	84.705	8,876.95	83.6441	8,876.95	81.2637	8,876.95	82.9584	8,876.95	78.2104	8,876.95	80.0631	8,876.95	77.6652	8,876.95	78.7203	8,876.95	66.134	8,876.95	76.1344	8,876.95	69.2541	8,876.95	72.8102	8,876.95	65.0786	8,876.95	67.914	8,876.95	64.276	8,876.95	56.6638	8,876.95	47.8868	8,876.95	62.7137	8,876.95	55.4074	8,876.95	61.6853	8,876.95	46.6599	8,876.95	42.3886	8,876.95	46.6034	8,876.95	53.939	8,876.95	52.0622	8,876.95	53.2953	8,876.95	37.8718	8,876.95	54.0882	8,876.95	48.2811	8,876.95	58.3813	8,876.95	45.8337
9,188.96	86.6729	9,188.96	86.3962	9,188.96	86.635	9,188.96	85.6018	9,188.96	86.3228	9,188.96	84.7264	9,188.96	83.7799	9,188.96	81.1964	9,188.96	83.2308	9,188.96	76.749	9,188.96	80.7311	9,188.96	76.6034	9,188.96	76.054	9,188.96	66.3212	9,188.96	76.7456	9,188.96	67.9337	9,188.96	68.7034	9,188.96	66.5473	9,188.96	68.0604	9,188.96	60.1082	9,188.96	58.7291	9,188.96	59.2271	9,188.96	65.9274	9,188.96	57.2133	9,188.96	63.3774	9,188.96	50.4659	9,188.96	46.8542	9,188.96	55.007	9,188.96	52.8961	9,188.96	55.2668	9,188.96	43.5654	9,188.96	36.9619	9,188.96	54.7305	9,188.96	52.474	9,188.96	57.9626	9,188.96	49.7396
9,514.16	86.9574	9,514.16	86.9514	9,514.16	87.2082	9,514.16	85.6791	9,514.16	85.6263	9,514.16	84.0643	9,514.16	84.4851	9,514.16	79.8161	9,514.16	82.4216	9,514.16	76.0405	9,514.16	79.3629	9,514.16	75.8676	9,514.16	76.1618	9,514.16	66.323	9,514.16	74.2265	9,514.16	66.3456	9,514.16	70.4445	9,514.16	64.5958	9,514.16	66.0109	9,514.16	55.6593	9,514.16	63.2004	9,514.16	58.8618	9,514.16	65.1584	9,514.16	56.5884	9,514.16	64.8384	9,514.16	52.1167	9,514.16	58.5001	9,514.16	54.9368	9,514.16	57.0717	9,514.16	54.3843	9,514.16	52.5228	9,514.16	50.0476	9,514.16	55.1736	9,514.16	49.2953	9,514.16	55.9712	9,514.16	40.0969
9,849.61	86.4205	9,849.61	86.487	9,849.61	86.6155	9,849.61	84.9681	9,849.61	86.1586	9,849.61	82.7228	9,849.61	84.5908	9,849.61	79.4706	9,849.61	81.9358	9,849.61	74.6166	9,849.61	77.1322	9,849.61	75.9826	9,849.61	77.7159	9,849.61	67.0719	9,849.61	73.2025	9,849.61	65.9227	9,849.61	69.5517	9,849.61	62.7843	9,849.61	62.602	9,849.61	57.5888	9,849.61	58.4628	9,849.61	58.3159	9,849.61	62.7973	9,849.61	55.0968	9,849.61	64.4086	9,849.61	51.1495	9,849.61	54.94	9,849.61	51.8253	9,849.61	56.8816	9,849.61	55.2783	9,849.61	47.0787	9,849.61	49.5746	9,849.61	48.4041	9,849.61	53.9239	9,849.61	55.9722	9,849.61	43.3187
10,196.8	85.7144	10,196.8	85.4928	10,196.8	85.6774	10,196.8	83.9664	10,196.8	85.8069	10,196.8	80.711	10,196.8	84.3071	10,196.8	79.0821	10,196.8	79.913	10,196.8	71.5661	10,196.8	76.3284	10,196.8	76.4753	10,196.8	77.5564	10,196.8	69.8168	10,196.8	72.0572	10,196.8	65.7755	10,196.8	68.417	10,196.8	64.2929	10,196.8	67.2913	10,196.8	58.3394	10,196.8	52.4116	10,196.8	56.5691	10,196.8	59.4301	10,196.8	55.1629	10,196.8	61.4737	10,196.8	50.5378	10,196.8	37.4586	10,196.8	50.4221	10,196.8	52.1922	10,196.8	58.5269	10,196.8	39.401	10,196.8	45.0364	10,196.8	54.0112	10,196.8	53.306	10,196.8	54.142	10,196.8	47.5528
10,555.7	85.283	10,555.7	84.1251	10,555.7	84.7443	10,555.7	82.6834	10,555.7	84.3693	10,555.7	79.0818	10,555.7	82.1869	10,555.7	78.6631	10,555.7	79.0419	10,555.7	69.263	10,555.7	77.258	10,555.7	76.9	10,555.7	73.3608	10,555.7	72.4503	10,555.7	72.2221	10,555.7	62.7518	10,555.7	69.211	10,555.7	64.5822	10,555.7	65.2092	10,555.7	58.9687	10,555.7	59.3316	10,555.7	54.9458	10,555.7	62.4904	10,555.7	54.3956	10,555.7	56.1329	10,555.7	54.3117	10,555.7	52.0895	10,555.7	51.1923	10,555.7	52.7743	10,555.7	58.0245	10,555.7	54.3085	10,555.7	49.2617	10,555.7	50.1023	10,555.7	50.5497	10,555.7	50.3541	10,555.7	51.4187
10,927.7	84.5949	10,927.7	83.1589	10,927.7	84.0139	10,927.7	81.4337	10,927.7	81.6501	10,927.7	78.9859	10,927.7	79.908	10,927.7	78.3083	10,927.7	78.998	10,927.7	73.2983	10,927.7	74.7674	10,927.7	76.9789	10,927.7	72.8197	10,927.7	73.9369	10,927.7	71.4283	10,927.7	59.4376	10,927.7	65.6396	10,927.7	63.5813	10,927.7	59.6293	10,927.7	59.3079	10,927.7	57.4461	10,927.7	55.2151	10,927.7	62.5495	10,927.7	55.2988	10,927.7	58.878	10,927.7	51.9033	10,927.7	56.6515	10,927.7	53.1802	10,927.7	55.8537	10,927.7	54.3314	10,927.7	50.9058	10,927.7	52.5617	10,927.7	44.9594	10,927.7	52.0272	10,927.7	56.359	10,927.7	52.5148
11,313	84.5278	11,313	82.7911	11,313	83.4543	11,313	80.9518	11,313	81.3035	11,313	79.6244	11,313	78.8799	11,313	77.207	11,313	78.7051	11,313	76.1997	11,313	73.5704	11,313	76.8824	11,313	73.6277	11,313	75.0457	11,313	73.8675	11,313	57.2006	11,313	68.9828	11,313	62.9833	11,313	65.3569	11,313	57.2824	11,313	59.3825	11,313	52.6332	11,313	66.0709	11,313	50.2277	11,313	63.9128	11,313	49.1078	11,313	59.887	11,313	56.8167	11,313	56.2761	11,313	51.0612	11,313	48.3334	11,313	55.132	11,313	43.5792	11,313	49.5454	11,313	50.067	11,313	55.9258
11,712.9	84.2662	11,712.9	82.5107	11,712.9	82.7473	11,712.9	80.2962	11,712.9	81.4894	11,712.9	79.9004	11,712.9	77.9736	11,712.9	75.8501	11,712.9	78.7219	11,712.9	78.0408	11,712.9	73.6315	11,712.9	75.6926	11,712.9	75.8592	11,712.9	75.5137	11,712.9	73.1606	11,712.9	60.6701	11,712.9	72.5213	11,712.9	62.4408	11,712.9	67.8541	11,712.9	54.952	11,712.9	62.4786	11,712.9	52.0668	11,712.9	63.5088	11,712.9	47.4951	11,712.9	63.3038	11,712.9	47.6809	11,712.9	58.0291	11,712.9	55.7047	11,712.9	50.7206	11,712.9	51.1931	11,712.9	51.911	11,712.9	52.3231	11,712.9	49.1142	11,712.9	56.3178	11,712.9	57.4521	11,712.9	50.4332
12,126	83.3074	12,126	81.0263	12,126	81.4353	12,126	79.4446	12,126	80.9583	12,126	79.1404	12,126	78.8581	12,126	76.9729	12,126	77.9661	12,126	78.0476	12,126	75.6046	12,126	74.5792	12,126	74.3429	12,126	75.5784	12,126	73.8281	12,126	62.0025	12,126	69.5948	12,126	60.0936	12,126	64.9331	12,126	53.0707	12,126	58.6964	12,126	46.3373	12,126	62.1225	12,126	46.3746	12,126	61.9194	12,126	35.3996	12,126	52.7897	12,126	57.2975	12,126	59.574	12,126	47.1766	12,126	54.0475	12,126	47.4636	12,126	45.1675	12,126	46.7768	12,126	54.2073	12,126	49.125
12,553.7	82.9561	12,553.7	81.2292	12,553.7	82.0972	12,553.7	79.4064	12,553.7	80.934	12,553.7	79.2736	12,553.7	79.5401	12,553.7	78.6572	12,553.7	76.3048	12,553.7	77.6909	12,553.7	74.2853	12,553.7	73.9637	12,553.7	72.7058	12,553.7	74.5329	12,553.7	70.9777	12,553.7	61.6131	12,553.7	64.1485	12,553.7	56.8613	12,553.7	58.8432	12,553.7	47.7413	12,553.7	55.2512	12,553.7	49.7123	12,553.7	60.977	12,553.7	43.2796	12,553.7	61.5109	12,553.7	46.5156	12,553.7	56.6742	12,553.7	55.6228	12,553.7	51.3216	12,553.7	51.2358	12,553.7	56.525	12,553.7	43.3325	12,553.7	50.8726	12,553.7	56.1868	12,553.7	56.1158	12,553.7	49.1084
12,996.1	83.2962	12,996.1	83.4863	12,996.1	82.7022	12,996.1	81.4431	12,996.1	80.6839	12,996.1	80.456	12,996.1	77.2774	12,996.1	79.4937	12,996.1	75.4283	12,996.1	76.5929	12,996.1	73.2702	12,996.1	73.2514	12,996.1	68.9771	12,996.1	72.7271	12,996.1	67.6461	12,996.1	62.1149	12,996.1	61.5702	12,996.1	55.1792	12,996.1	56.6938	12,996.1	45.6957	12,996.1	48.2853	12,996.1	46.106	12,996.1	58.969	12,996.1	43.8108	12,996.1	57.8071	12,996.1	45.0123	12,996.1	53.8638	12,996.1	52.6847	12,996.1	42.2169	12,996.1	51.2103	12,996.1	48.5418	12,996.1	37.9778	12,996.1	46.7789	12,996.1	48.7621	12,996.1	53.6519	12,996.1	49.0259
13,454.6	84.5705	13,454.6	84.4411	13,454.6	83.8018	13,454.6	83.2624	13,454.6	81.6981	13,454.6	80.7815	13,454.6	78.1723	13,454.6	78.2165	13,454.6	76.9979	13,454.6	74.4821	13,454.6	73.0844	13,454.6	71.7024	13,454.6	70.063	13,454.6	69.5756	13,454.6	68.8949	13,454.6	60.5183	13,454.6	64.4734	13,454.6	52.9793	13,454.6	61.9098	13,454.6	42.8233	13,454.6	48.7992	13,454.6	52.0272	13,454.6	58.2933	13,454.6	40.1853	13,454.6	60.3244	13,454.6	46.8705	13,454.6	47.345	13,454.6	48.4772	13,454.6	41.7828	13,454.6	49.9977	13,454.6	41.4854	13,454.6	41.9971	13,454.6	39.6113	13,454.6	42.8533	13,454.6	47.8033	13,454.6	40.377
13,929.2	85.8731	13,929.2	85.1191	13,929.2	85.0245	13,929.2	83.5834	13,929.2	83.6311	13,929.2	80.7984	13,929.2	80.5542	13,929.2	76.9276	13,929.2	78.4513	13,929.2	72.9929	13,929.2	74.9877	13,929.2	69.211	13,929.2	71.2676	13,929.2	67.6372	13,929.2	70.5286	13,929.2	55.4003	13,929.2	65.1727	13,929.2	51.2868	13,929.2	59.4486	13,929.2	11.4506	13,929.2	50.8661	13,929.2	49.034	13,929.2	58.4913	13,929.2	31.4671	13,929.2	59.4775	13,929.2	35.6583	13,929.2	55.076	13,929.2	45.5907	13,929.2	46.9507	13,929.2	49.6731	13,929.2	48.7402	13,929.2	41.3667	13,929.2	43.4412	13,929.2	43.8219	13,929.2	41.1678	13,929.2	41.225
14,419.9	86.1645	14,419.9	85.6502	14,419.9	85.9207	14,419.9	84.0714	14,419.9	84.0405	14,419.9	80.873	14,419.9	81.0676	14,419.9	76.6749	14,419.9	79.1311	14,419.9	73.3312	14,419.9	75.2254	14,419.9	68.9459	14,419.9	70.4742	14,419.9	66.3252	14,419.9	71.5237	14,419.9	51.5945	14,419.9	64.5297	14,419.9	43.2308	14,419.9	62.3218	14,419.9	36.8989	14,419.9	53.4784	14,419.9	38.197	14,419.9	58.1513	14,419.9	31.428	14,419.9	57.1687	14,419.9	38.7675	14,419.9	50.8798	14,419.9	42.9396	14,419.9	45.7521	14,419.9	49.1294	14,419.9	32.5308	14,419.9	39.1241	14,419.9	49.2612	14,419.9	45.3764	14,419.9	44.7155	14,419.9	48.0108
14,928.2	86.4188	14,928.2	85.9616	14,928.2	85.6839	14,928.2	84.0432	14,928.2	84.4701	14,928.2	80.7099	14,928.2	81.2274	14,928.2	75.8409	14,928.2	78.0836	14,928.2	71.5194	14,928.2	76.0246	14,928.2	66.6119	14,928.2	71.7869	14,928.2	61.6626	14,928.2	69.9893	14,928.2	43.7777	14,928.2	65.5038	14,928.2	48.7692	14,928.2	59.9099	14,928.2	36.4416	14,928.2	42.5125	14,928.2	35.2656	14,928.2	54.1001	14,928.2	20.5461	14,928.2	55.7279	14,928.2	40.9397	14,928.2	49.0201	14,928.2	44.4981	14,928.2	42.3904	14,928.2	49.5792	14,928.2	44.3749	14,928.2	45.5777	14,928.2	46.9603	14,928.2	51.2115	14,928.2	48.4796	14,928.2	41.7222
15,455.6	86.7309	15,455.6	85.935	15,455.6	86.3643	15,455.6	83.1317	15,455.6	84.218	15,455.6	79.132	15,455.6	80.6968	15,455.6	72.7442	15,455.6	77.9478	15,455.6	63.6683	15,455.6	73.7679	15,455.6	58.3778	15,455.6	68.6615	15,455.6	58.7822	15,455.6	66.2031	15,455.6	59.6941	15,455.6	60.8053	15,455.6	53.1479	15,455.6	54.0864	15,455.6	44.8656	15,455.6	46.6231	15,455.6	44.7844	15,455.6	39.9188	15,455.6	33.5447	15,455.6	43.8712	15,455.6	42.6204	15,455.6	41.802	15,455.6	46.8619	15,455.6	36.2438	15,455.6	45.151	15,455.6	37.4476	15,455.6	34.9592	15,455.6	41.5341	15,455.6	44.7623	15,455.6	45.7503	15,455.6	43.4796
16,000.5	86.1983	16,000.5	85.7216	16,000.5	85.6494	16,000.5	82.2306	16,000.5	82.8303	16,000.5	76.9911	16,000.5	78.2038	16,000.5	69.0257	16,000.5	74.3032	16,000.5	60.5195	16,000.5	68.4343	16,000.5	64.3462	16,000.5	63.4476	16,000.5	64.4746	16,000.5	61.054	16,000.5	65.5348	16,000.5	47.5156	16,000.5	55.3633	16,000.5	47.5935	16,000.5	49.4767	16,000.5	44.8212	16,000.5	50.5975	16,000.5	50.1091	16,000.5	38.8823	16,000.5	48.5414	16,000.5	37.5972	16,000.5	45.2605	16,000.5	48.9789	16,000.5	43.8372	16,000.5	45.3679	16,000.5	38.0409	16,000.5	43.5036	16,000.5	39.0121	16,000.5	37.7539	16,000.5	41.8591	16,000.5	36.9457
16,564.5	85.0198	16,564.5	84.977	16,564.5	84.6182	16,564.5	81.5319	16,564.5	81.8846	16,564.5	76.7421	16,564.5	77.078	16,564.5	69.0336	16,564.5	74.2654	16,564.5	69.4101	16,564.5	71.3567	16,564.5	67.7174	16,564.5	65.7261	16,564.5	67.7318	16,564.5	63.2267	16,564.5	66.7376	16,564.5	59.2877	16,564.5	56.4618	16,564.5	54.3888	16,564.5	50.1304	16,564.5	34.8768	16,564.5	52.3159	16,564.5	55.8973	16,564.5	41.1516	16,564.5	52.9263	16,564.5	41.2755	16,564.5	44.4022	16,564.5	49.0992	16,564.5	46.3084	16,564.5	43.3707	16,564.5	36.0324	16,564.5	43.2133	16,564.5	38.015	16,564.5	46.1046	16,564.5	37.5724	16,564.5	35.334
17,148.9	84.465	17,148.9	83.5738	17,148.9	83.2517	17,148.9	80.3165	17,148.9	81.1581	17,148.9	75.6592	17,148.9	77.4947	17,148.9	68.3005	17,148.9	76.0306	17,148.9	72.0713	17,148.9	72.4935	17,148.9	69.8676	17,148.9	66.326	17,148.9	69.1507	17,148.9	64.5316	17,148.9	66.9136	17,148.9	60.4598	17,148.9	57.4636	17,148.9	56.3137	17,148.9	49.1194	17,148.9	44.1939	17,148.9	51.0445	17,148.9	52.5051	17,148.9	44.3318	17,148.9	53.6596	17,148.9	41.6068	17,148.9	50.4498	17,148.9	47.2576	17,148.9	29.3148	17,148.9	39.4393	17,148.9	40.9414	17,148.9	40.6185	17,148.9	34.9367	17,148.9	46.5912	17,148.9	37.4093	17,148.9	27.9902
17,752.4	83.7062	17,752.4	82.4319	17,752.4	83.0084	17,752.4	79.1865	17,752.4	81.4514	17,752.4	73.9235	17,752.4	78.6329	17,752.4	69.4997	17,752.4	75.5268	17,752.4	71.8869	17,752.4	71.9035	17,752.4	70.9112	17,752.4	64.81	17,752.4	68.7716	17,752.4	64.7101	17,752.4	65.7805	17,752.4	61.1688	17,752.4	55.973	17,752.4	54.1883	17,752.4	49.7812	17,752.4	42.1294	17,752.4	49.9532	17,752.4	53.265	17,752.4	48.1523	17,752.4	54.2804	17,752.4	44.6329	17,752.4	43.9756	17,752.4	40.2518	17,752.4	41.6422	17,752.4	35.7198	17,752.4	30.0667	17,752.4	45.5134	17,752.4	40.6562	17,752.4	40.159	17,752.4	40.3529	17,752.4	40.5747
18,379.4	83.111	18,379.4	81.3455	18,379.4	82.2515	18,379.4	78.3549	18,379.4	81.8093	18,379.4	72.8892	18,379.4	76.7413	18,379.4	69.5518	18,379.4	75.5096	18,379.4	69.5684	18,379.4	70.4499	18,379.4	69.1585	18,379.4	65.7942	18,379.4	66.3665	18,379.4	64.6551	18,379.4	63.924	18,379.4	60.7527	18,379.4	54.7364	18,379.4	54.6912	18,379.4	49.3086	18,379.4	47.1614	18,379.4	47.7262	18,379.4	54.56	18,379.4	45.8933	18,379.4	54.2896	18,379.4	43.3684	18,379.4	45.1486	18,379.4	36.9665	18,379.4	34.1897	18,379.4	39.6174	18,379.4	37.1315	18,379.4	43.4129	18,379.4	37.7511	18,379.4	36.7377	18,379.4	31.3733	18,379.4	38.9407
19,026.9	82.2974	19,026.9	80.91	19,026.9	81.8739	19,026.9	77.3802	19,026.9	80.4952	19,026.9	73.5946	19,026.9	76.6631	19,026.9	69.5119	19,026.9	74.6083	19,026.9	68.8385	19,026.9	69.5135	19,026.9	67.4451	19,026.9	64.2549	19,026.9	64.9131	19,026.9	63.0457	19,026.9	61.3012	19,026.9	59.2897	19,026.9	51.4485	19,026.9	52.4489	19,026.9	45.3813	19,026.9	45.555	19,026.9	43.2453	19,026.9	53.3985	19,026.9	43.474	19,026.9	53.0765	19,026.9	41.328	19,026.9	45.5648	19,026.9	32.939	19,026.9	31.8764	19,026.9	39.1357	19,026.9	30.0752	19,026.9	32.4599	19,026.9	34.8617	19,026.9	30.8297	19,026.9	37.3329	19,026.9	40.9718
19,697.8	81.628	19,697.8	79.773	19,697.8	81.1802	19,697.8	75.9501	19,697.8	80.4141	19,697.8	72.8039	19,697.8	76.7224	19,697.8	68.9056	19,697.8	72.354	19,697.8	68.6593	19,697.8	67.6775	19,697.8	64.6183	19,697.8	61.0887	19,697.8	61.9529	19,697.8	58.8861	19,697.8	57.431	19,697.8	56.5389	19,697.8	48.8341	19,697.8	50.2924	19,697.8	44.0732	19,697.8	40.0269	19,697.8	41.7094	19,697.8	51.5368	19,697.8	41.2908	19,697.8	52.1965	19,697.8	37.9073	19,697.8	44.9551	19,697.8	43.6598	19,697.8	37.5441	19,697.8	43.5634	19,697.8	32.3805	19,697.8	37.4048	19,697.8	29.6064	19,697.8	40.288	19,697.8	38.7039	19,697.8	43.6438
19,999.5	81.6132	19,999.5	79.1879	19,999.5	80.9431	19,999.5	75.4861	19,999.5	80.0478	19,999.5	72.6085	19,999.5	76.4588	19,999.5	68.8185	19,999.5	71.3727	19,999.5	68.4206	19,999.5	66.252	19,999.5	62.4261	19,999.5	62.0372	19,999.5	57.675	19,999.5	56.5997	19,999.5	58.8042	19,999.5	55.9938	19,999.5	47.1822	19,999.5	48.6349	19,999.5	42.3535	19,999.5	33.7883	19,999.5	25.4246	19,999.5	51.0851	19,999.5	47.5813	19,999.5	55.507	19,999.5	30.2864	19,999.5	46.9453	19,999.5	54.3828	19,999.5	47.924	19,999.5	45.6854	19,999.5	39.851	19,999.5	48.0307	19,999.5	43.234	19,999.5	48.6375	19,999.5	48.3992	19,999.5	47.6865
