"SPL Horizontal"
"On-Axis"		"10°"		"-10°"		"20°"		"-20°"		"30°"		"-30°"		"40°"		"-40°"		"50°"		"-50°"		"60°"		"-60°"		"70°"		"-70°"		"80°"		"-80°"		"90°"		"-90°"		"100°"		"-100°"		"110°"		"-110°"		"120°"		"-120°"		"130°"		"-130°"		"140°"		"-140°"		"150°"		"-150°"		"160°"		"-160°"		"170°"		"-170°"		"180°"
"Frequency / Hz"	"Sound Pressure Level / dB (re 20 µPa/V)  [2.83V at 1m]"	"Frequency / Hz"	"Sound Pressure Level / dB (re 20 µPa/V)  [2.83V at 1m]"	"Frequency / Hz"	"Sound Pressure Level / dB (re 20 µPa/V)  [2.83V at 1m]"	"Frequency / Hz"	"Sound Pressure Level / dB (re 20 µPa/V)  [2.83V at 1m]"	"Frequency / Hz"	"Sound Pressure Level / dB (re 20 µPa/V)  [2.83V at 1m]"	"Frequency / Hz"	"Sound Pressure Level / dB (re 20 µPa/V)  [2.83V at 1m]"	"Frequency / Hz"	"Sound Pressure Level / dB (re 20 µPa/V)  [2.83V at 1m]"	"Frequency / Hz"	"Sound Pressure Level / dB (re 20 µPa/V)  [2.83V at 1m]"	"Frequency / Hz"	"Sound Pressure Level / dB (re 20 µPa/V)  [2.83V at 1m]"	"Frequency / Hz"	"Sound Pressure Level / dB (re 20 µPa/V)  [2.83V at 1m]"	"Frequency / Hz"	"Sound Pressure Level / dB (re 20 µPa/V)  [2.83V at 1m]"	"Frequency / Hz"	"Sound Pressure Level / dB (re 20 µPa/V)  [2.83V at 1m]"	"Frequency / Hz"	"Sound Pressure Level / dB (re 20 µPa/V)  [2.83V at 1m]"	"Frequency / Hz"	"Sound Pressure Level / dB (re 20 µPa/V)  [2.83V at 1m]"	"Frequency / Hz"	"Sound Pressure Level / dB (re 20 µPa/V)  [2.83V at 1m]"	"Frequency / Hz"	"Sound Pressure Level / dB (re 20 µPa/V)  [2.83V at 1m]"	"Frequency / Hz"	"Sound Pressure Level / dB (re 20 µPa/V)  [2.83V at 1m]"	"Frequency / Hz"	"Sound Pressure Level / dB (re 20 µPa/V)  [2.83V at 1m]"	"Frequency / Hz"	"Sound Pressure Level / dB (re 20 µPa/V)  [2.83V at 1m]"	"Frequency / Hz"	"Sound Pressure Level / dB (re 20 µPa/V)  [2.83V at 1m]"	"Frequency / Hz"	"Sound Pressure Level / dB (re 20 µPa/V)  [2.83V at 1m]"	"Frequency / Hz"	"Sound Pressure Level / dB (re 20 µPa/V)  [2.83V at 1m]"	"Frequency / Hz"	"Sound Pressure Level / dB (re 20 µPa/V)  [2.83V at 1m]"	"Frequency / Hz"	"Sound Pressure Level / dB (re 20 µPa/V)  [2.83V at 1m]"	"Frequency / Hz"	"Sound Pressure Level / dB (re 20 µPa/V)  [2.83V at 1m]"	"Frequency / Hz"	"Sound Pressure Level / dB (re 20 µPa/V)  [2.83V at 1m]"	"Frequency / Hz"	"Sound Pressure Level / dB (re 20 µPa/V)  [2.83V at 1m]"	"Frequency / Hz"	"Sound Pressure Level / dB (re 20 µPa/V)  [2.83V at 1m]"	"Frequency / Hz"	"Sound Pressure Level / dB (re 20 µPa/V)  [2.83V at 1m]"	"Frequency / Hz"	"Sound Pressure Level / dB (re 20 µPa/V)  [2.83V at 1m]"	"Frequency / Hz"	"Sound Pressure Level / dB (re 20 µPa/V)  [2.83V at 1m]"	"Frequency / Hz"	"Sound Pressure Level / dB (re 20 µPa/V)  [2.83V at 1m]"	"Frequency / Hz"	"Sound Pressure Level / dB (re 20 µPa/V)  [2.83V at 1m]"	"Frequency / Hz"	"Sound Pressure Level / dB (re 20 µPa/V)  [2.83V at 1m]"	"Frequency / Hz"	"Sound Pressure Level / dB (re 20 µPa/V)  [2.83V at 1m]"	"Frequency / Hz"	"Sound Pressure Level / dB (re 20 µPa/V)  [2.83V at 1m]"
20.5078	53.5584	20.5078	53.4524	20.5078	53.5046	20.5078	53.1826	20.5078	53.288	20.5078	52.7375	20.5078	52.8985	20.5078	52.0966	20.5078	52.3172	20.5078	51.2272	20.5078	51.5135	20.5078	50.0778	20.5078	50.4393	20.5078	48.5658	20.5078	49.0171	20.5078	46.5507	20.5078	47.1131	20.5078	43.7712	20.5078	44.4683	20.5078	39.6954	20.5078	40.4655	20.5078	33.8525	20.5078	32.8526	20.5078	34.6955	20.5078	26.5645	20.5078	39.8604	20.5078	37.6034	20.5078	43.1292	20.5078	42.0284	20.5078	45.1725	20.5078	44.5425	20.5078	46.428	20.5078	46.0685	20.5078	47.0941	20.5078	46.9285	20.5078	47.2555
21.9727	53.6801	21.9727	53.5631	21.9727	53.6021	21.9727	53.245	21.9727	53.3243	21.9727	52.7076	21.9727	52.8303	21.9727	51.917	21.9727	52.0886	21.9727	50.8149	21.9727	51.0455	21.9727	49.3007	21.9727	49.6092	21.9727	47.1857	21.9727	47.6114	21.9727	44.0588	21.9727	44.7007	21.9727	38.6958	21.9727	39.9325	21.9727	20.3693	21.9727	29.2585	21.9727	36.3503	21.9727	35.3841	21.9727	42.8546	21.9727	42.339	21.9727	46.3131	21.9727	45.9953	21.9727	48.524	21.9727	48.3149	21.9727	50.0011	21.9727	49.8634	21.9727	50.9567	21.9727	50.8722	21.9727	51.4915	21.9727	51.4512	21.9727	51.6521
23.4375	55.3107	23.4375	55.1959	23.4375	55.1898	23.4375	54.8378	23.4375	54.8244	23.4375	54.2103	23.4375	54.187	23.4375	53.2619	23.4375	53.2238	23.4375	51.899	23.4375	51.837	23.4375	49.9451	23.4375	49.84	23.4375	47.029	23.4375	46.8297	23.4375	42.2162	23.4375	41.7055	23.4375	34.9146	23.4375	32.9868	23.4375	41.374	23.4375	41.3363	23.4375	46.9725	23.4375	47.0586	23.4375	50.3872	23.4375	50.468	23.4375	52.7123	23.4375	52.778	23.4375	54.3661	23.4375	54.417	23.4375	55.5392	23.4375	55.5764	23.4375	56.3292	23.4375	56.3535	23.4375	56.7884	23.4375	56.8004	23.4375	56.9427
24.9023	56.2836	24.9023	56.1573	24.9023	56.1741	24.9023	55.7887	24.9023	55.8209	24.9023	55.1559	24.9023	55.2004	24.9023	54.2186	24.9023	54.2685	24.9023	52.914	24.9023	52.954	24.9023	51.1609	24.9023	51.1527	24.9023	48.9344	24.9023	48.7711	24.9023	46.7236	24.9023	46.1552	24.9023	46.4548	24.9023	45.5252	24.9023	48.7164	24.9023	48.0362	24.9023	51.4183	24.9023	51.0147	24.9023	53.6802	24.9023	53.4334	24.9023	55.4461	24.9023	55.2881	24.9023	56.7896	24.9023	56.6863	24.9023	57.777	24.9023	57.7103	24.9023	58.4531	24.9023	58.4131	24.9023	58.8456	24.9023	58.8267	24.9023	58.9688
26.3672	57.4411	26.3672	57.3177	26.3672	57.3335	26.3672	56.9573	26.3672	56.9886	26.3672	56.3404	26.3672	56.3864	26.3672	55.4334	26.3672	55.4917	26.3672	54.1895	26.3672	54.2535	26.3672	52.5684	26.3672	52.6193	26.3672	50.6458	26.3672	50.6288	26.3672	49.0233	26.3672	48.8226	26.3672	49.1147	26.3672	48.7246	26.3672	51.0418	26.3672	50.6756	26.3672	53.3769	26.3672	53.1086	26.3672	55.4186	26.3672	55.2284	26.3672	57.0574	26.3672	56.9218	26.3672	58.3245	26.3672	58.2281	26.3672	59.2644	26.3672	59.198	26.3672	59.9113	26.3672	59.8695	26.3672	60.2874	26.3672	60.2672	26.3672	60.4049
27.832	58.9151	27.832	58.8038	27.832	58.8046	27.832	58.4649	27.832	58.4664	27.832	57.8808	27.832	57.8824	27.832	57.0208	27.832	57.0213	27.832	55.8427	27.832	55.8391	27.832	54.3079	27.832	54.2939	27.832	52.4673	27.832	52.4286	27.832	50.784	27.832	50.6983	27.832	50.5091	27.832	50.3883	27.832	52.1202	27.832	52.0207	27.832	54.3673	27.832	54.3023	27.832	56.4136	27.832	56.3725	27.832	58.0779	27.832	58.0515	27.832	59.3712	27.832	59.3543	27.832	60.3336	27.832	60.3229	27.832	60.9984	27.832	60.9921	27.832	61.3884	27.832	61.3855	27.832	61.5161
29.2969	58.9692	29.2969	58.83	29.2969	58.8731	29.2969	58.4507	29.2969	58.5371	29.2969	57.8174	29.2969	57.9469	29.2969	56.9124	29.2969	57.0821	29.2969	55.7319	29.2969	55.9299	29.2969	54.3494	29.2969	54.5383	29.2969	53.0909	29.2969	53.1773	29.2969	52.7006	29.2969	52.5704	29.2969	53.685	29.2969	53.3903	29.2969	55.4889	29.2969	55.1842	29.2969	57.3804	29.2969	57.1332	29.2969	59.0494	29.2969	58.8648	29.2969	60.427	29.2969	60.2942	29.2969	61.518	29.2969	61.4251	29.2969	62.3415	29.2969	62.2795	29.2969	62.9153	29.2969	62.8774	29.2969	63.2516	29.2969	63.2337	29.2969	63.3573
30.7617	59.8067	30.7617	59.691	30.7617	59.7297	30.7617	59.386	30.7617	59.4586	30.7617	58.9008	30.7617	58.996	30.7617	58.2622	30.7617	58.3585	30.7617	57.541	30.7617	57.6008	30.7617	56.8941	30.7617	56.8623	30.7617	56.5851	30.7617	56.4117	30.7617	56.8687	30.7617	56.5644	30.7617	57.7558	30.7617	57.4023	30.7617	58.9994	30.7617	58.6756	30.7617	60.3262	30.7617	60.0653	30.7617	61.568	30.7617	61.3714	30.7617	62.6474	30.7617	62.5052	30.7617	63.5353	30.7617	63.4361	30.7617	64.2235	30.7617	64.1575	30.7617	64.7113	30.7617	64.6711	30.7617	64.9997	30.7617	64.9808	30.7617	65.0897
32.2266	61.5627	32.2266	61.4756	32.2266	61.4732	32.2266	61.2121	32.2266	61.2063	32.2266	60.7729	32.2266	60.7615	32.2266	60.1652	32.2266	60.1444	32.2266	59.4166	32.2266	59.3804	32.2266	58.604	32.2266	58.5445	32.2266	57.8977	32.2266	57.8083	32.2266	57.5711	32.2266	57.4553	32.2266	57.8586	32.2266	57.7355	32.2266	58.725	32.2266	58.6168	32.2266	59.901	32.2266	59.8172	32.2266	61.1221	32.2266	61.0611	32.2266	62.2339	32.2266	62.191	32.2266	63.168	32.2266	63.1385	32.2266	63.8992	32.2266	63.8798	32.2266	64.4207	32.2266	64.4089	32.2266	64.7319	32.2266	64.7263	32.2266	64.8337
33.6914	62.0921	33.6914	62.0215	33.6914	62.0086	33.6914	61.8006	33.6914	61.7734	33.6914	61.4426	33.6914	61.3984	33.6914	60.9782	33.6914	60.9131	33.6914	60.4716	33.6914	60.3821	33.6914	60.0398	33.6914	59.9259	33.6914	59.8514	33.6914	59.7214	33.6914	60.0616	33.6914	59.9333	33.6914	60.701	33.6914	60.5925	33.6914	61.6466	33.6914	61.566	33.6914	62.7182	33.6914	62.6637	33.6914	63.7718	33.6914	63.7373	33.6914	64.7208	33.6914	64.7003	33.6914	65.5213	33.6914	65.5098	33.6914	66.1529	33.6914	66.147	33.6914	66.6069	33.6914	66.6041	33.6914	66.8799	33.6914	66.8789	33.6914	66.9708
35.1562	64.5417	35.1562	64.477	35.1562	64.472	35.1562	64.2797	35.1562	64.2711	35.1562	63.9578	35.1562	63.9492	35.1562	63.531	35.1562	63.529	35.1562	63.0407	35.1562	63.0561	35.1562	62.5638	35.1562	62.6125	35.1562	62.2216	35.1562	62.3206	35.1562	62.157	35.1562	62.3151	35.1562	62.4623	35.1562	62.6696	35.1562	63.1097	35.1562	63.3407	35.1562	63.9705	35.1562	64.1988	35.1562	64.8975	35.1562	65.1047	35.1562	65.7797	35.1562	65.9564	35.1562	66.5502	35.1562	66.6923	35.1562	67.173	35.1562	67.2795	35.1562	67.6304	35.1562	67.7012	35.1562	67.9142	35.1562	67.9495	35.1562	68.0209
36.6211	62.4422	36.6211	62.3676	36.6211	62.4805	36.6211	62.2729	36.6211	62.4895	36.6211	62.1987	36.6211	62.4979	36.6211	62.2085	36.6211	62.5546	36.6211	62.3764	36.6211	62.7206	36.6211	62.7601	36.6211	63.0516	36.6211	63.3716	36.6211	63.5745	36.6211	64.1687	36.6211	64.2733	36.6211	65.0763	36.6211	65.0956	36.6211	66.0163	36.6211	65.9744	36.6211	66.9255	36.6211	66.8475	36.6211	67.7602	36.6211	67.6667	36.6211	68.4921	36.6211	68.3981	36.6211	69.1036	36.6211	69.0196	36.6211	69.5842	36.6211	69.5167	36.6211	69.9274	36.6211	69.8805	36.6211	70.1297	36.6211	70.1057	36.6211	70.1892
38.0859	67.895	38.0859	67.8676	38.0859	67.856	38.0859	67.7783	38.0859	67.7525	38.0859	67.6383	38.0859	67.5936	38.0859	67.467	38.0859	67.3969	38.0859	67.294	38.0859	67.191	38.0859	67.1584	38.0859	67.0164	38.0859	67.1053	38.0859	66.9225	38.0859	67.1758	38.0859	66.9577	38.0859	67.3923	38.0859	67.1524	38.0859	67.7485	38.0859	67.5048	38.0859	68.2099	38.0859	67.9797	38.0859	68.7258	38.0859	68.5217	38.0859	69.2432	38.0859	69.0721	38.0859	69.7169	38.0859	69.5814	38.0859	70.1124	38.0859	70.0123	38.0859	70.4054	38.0859	70.3397	38.0859	70.5805	38.0859	70.548	38.0859	70.6291
39.5508	68.1408	39.5508	68.1072	39.5508	68.1123	39.5508	68.0158	39.5508	68.0252	39.5508	67.8794	39.5508	67.8916	39.5508	67.7205	39.5508	67.7333	39.5508	67.573	39.5508	67.5833	39.5508	67.4808	39.5508	67.4854	39.5508	67.4916	39.5508	67.4878	39.5508	67.6438	39.5508	67.6306	39.5508	67.9515	39.5508	67.93	39.5508	68.3966	39.5508	68.3698	39.5508	68.9352	39.5508	68.9065	39.5508	69.5122	39.5508	69.4847	39.5508	70.0753	39.5508	70.0511	39.5508	70.5822	39.5508	70.5625	39.5508	71.0021	39.5508	70.9873	39.5508	71.314	39.5508	71.3042	39.5508	71.505	39.5508	71.5001	39.5508	71.5678
41.0156	69.3511	41.0156	69.322	41.0156	69.3292	41.0156	69.2461	41.0156	69.2593	41.0156	69.1356	41.0156	69.1526	41.0156	69.0111	41.0156	69.0289	41.0156	68.9028	41.0156	68.9171	41.0156	68.848	41.0156	68.8545	41.0156	68.8859	41.0156	68.8811	41.0156	69.0468	41.0156	69.029	41.0156	69.3408	41.0156	69.3114	41.0156	69.7527	41.0156	69.7151	41.0156	70.246	41.0156	70.205	41.0156	70.774	41.0156	70.7339	41.0156	71.291	41.0156	71.255	41.0156	71.7585	41.0156	71.7286	41.0156	72.1473	41.0156	72.1245	41.0156	72.4368	41.0156	72.4215	41.0156	72.6139	41.0156	72.6063	41.0156	72.6712
42.4805	70.6071	42.4805	70.5857	42.4805	70.5897	42.4805	70.5295	42.4805	70.5365	42.4805	70.4493	42.4805	70.4573	42.4805	70.3633	42.4805	70.3694	42.4805	70.2967	42.4805	70.2977	42.4805	70.28	42.4805	70.2724	42.4805	70.3433	42.4805	70.325	42.4805	70.5093	42.4805	70.4801	42.4805	70.7853	42.4805	70.7469	42.4805	71.1588	42.4805	71.1149	42.4805	71.6011	42.4805	71.5559	42.4805	72.0741	42.4805	72.0314	42.4805	72.539	42.4805	72.5015	42.4805	72.9617	42.4805	72.931	42.4805	73.3151	42.4805	73.292	42.4805	73.5794	42.4805	73.564	42.4805	73.7415	42.4805	73.7338	42.4805	73.7938
43.9453	71.6424	43.9453	71.6271	43.9453	71.6236	43.9453	71.5808	43.9453	71.5737	43.9453	71.513	43.9453	71.502	43.9453	71.4397	43.9453	71.4247	43.9453	71.3828	43.9453	71.3639	43.9453	71.3689	43.9453	71.3468	43.9453	71.425	43.9453	71.4008	43.9453	71.5719	43.9453	71.5474	43.9453	71.8176	43.9453	71.7949	43.9453	72.1537	43.9453	72.1345	43.9453	72.5561	43.9453	72.5414	43.9453	72.9915	43.9453	72.9815	43.9453	73.4241	43.9453	73.4183	43.9453	73.8213	43.9453	73.8186	43.9453	74.1564	43.9453	74.1556	43.9453	74.4093	43.9453	74.4094	43.9453	74.5663	43.9453	74.5666	43.9453	74.6197
45.4102	72.7551	45.4102	72.7372	45.4102	72.7494	45.4102	72.6987	45.4102	72.7223	45.4102	72.648	45.4102	72.6819	45.4102	72.5993	45.4102	72.6413	45.4102	72.5711	45.4102	72.6187	45.4102	72.5853	45.4102	72.6353	45.4102	72.663	45.4102	72.7119	45.4102	72.8196	45.4102	72.8646	45.4102	73.0602	45.4102	73.099	45.4102	73.3763	45.4102	73.4083	45.4102	73.7477	45.4102	73.7729	45.4102	74.1463	45.4102	74.1655	45.4102	74.5413	45.4102	74.5556	45.4102	74.9042	45.4102	74.9146	45.4102	75.2109	45.4102	75.2182	45.4102	75.443	45.4102	75.4476	45.4102	75.5876	45.4102	75.5899	45.4102	75.6374
46.875	73.6982	46.875	73.6856	46.875	73.6927	46.875	73.6576	46.875	73.6711	46.875	73.622	46.875	73.6404	46.875	73.5908	46.875	73.612	46.875	73.5803	46.875	73.6019	46.875	73.6088	46.875	73.628	46.875	73.6939	46.875	73.7085	46.875	73.8482	46.875	73.8568	46.875	74.0757	46.875	74.0778	46.875	74.3692	46.875	74.3659	46.875	74.7114	46.875	74.7042	46.875	75.078	46.875	75.0687	46.875	75.4417	46.875	75.432	46.875	75.7766	46.875	75.7677	46.875	76.0601	46.875	76.0529	46.875	76.2746	46.875	76.2696	46.875	76.4077	46.875	76.4052	46.875	76.452
48.3398	74.7396	48.3398	74.7364	48.3398	74.731	48.3398	74.7235	48.3398	74.7123	48.3398	74.7071	48.3398	74.6892	48.3398	74.6968	48.3398	74.6712	48.3398	74.7053	48.3398	74.6711	48.3398	74.7466	48.3398	74.7034	48.3398	74.8339	48.3398	74.7825	48.3398	74.977	48.3398	74.919	48.3398	75.179	48.3398	75.1171	48.3398	75.4349	48.3398	75.3725	48.3398	75.7313	48.3398	75.6717	48.3398	76.0488	48.3398	75.995	48.3398	76.3651	48.3398	76.3191	48.3398	76.6576	48.3398	76.6204	48.3398	76.9062	48.3398	76.8783	48.3398	77.0944	48.3398	77.0759	48.3398	77.2103	48.3398	77.2011	48.3398	77.2467
51.2695	76.9049	51.2695	76.9009	51.2695	76.9044	51.2695	76.8937	51.2695	76.9012	51.2695	76.8879	51.2695	76.9003	51.2695	76.8911	51.2695	76.9096	51.2695	76.9135	51.2695	76.9395	51.2695	76.9665	51.2695	77.0015	51.2695	77.0617	51.2695	77.1065	51.2695	77.2077	51.2695	77.2627	51.2695	77.4084	51.2695	77.4727	51.2695	77.6605	51.2695	77.732	51.2695	77.9532	51.2695	78.0286	51.2695	78.2695	51.2695	78.3448	51.2695	78.5881	51.2695	78.659	51.2695	78.8871	51.2695	78.9494	51.2695	79.1455	51.2695	79.1956	51.2695	79.346	51.2695	79.3811	51.2695	79.4755	51.2695	79.4935	51.2695	79.5257
52.7344	77.6708	52.7344	77.6661	52.7344	77.6764	52.7344	77.6636	52.7344	77.684	52.7344	77.6671	52.7344	77.6974	52.7344	77.6829	52.7344	77.7227	52.7344	77.7189	52.7344	77.7675	52.7344	77.7841	52.7344	77.8407	52.7344	77.8871	52.7344	77.9504	52.7344	78.0343	52.7344	78.1027	52.7344	78.2279	52.7344	78.2995	52.7344	78.4646	52.7344	78.537	52.7344	78.735	52.7344	78.8059	52.7344	79.0245	52.7344	79.0913	52.7344	79.3149	52.7344	79.3751	52.7344	79.5869	52.7344	79.6381	52.7344	79.8218	52.7344	79.8621	52.7344	80.0039	52.7344	80.0317	52.7344	80.1211	52.7344	80.1353	52.7344	80.1658
54.1992	78.3579	54.1992	78.3532	54.1992	78.3658	54.1992	78.3528	54.1992	78.3779	54.1992	78.3598	54.1992	78.3971	54.1992	78.3792	54.1992	78.4284	54.1992	78.4176	54.1992	78.4779	54.1992	78.4823	54.1992	78.5527	54.1992	78.5804	54.1992	78.6594	54.1992	78.7172	54.1992	78.8027	54.1992	78.8948	54.1992	78.9843	54.1992	79.1106	54.1992	79.2011	54.1992	79.3568	54.1992	79.4452	54.1992	79.6209	54.1992	79.704	54.1992	79.8869	54.1992	79.9614	54.1992	80.1372	54.1992	80.2004	54.1992	80.3546	54.1992	80.4042	54.1992	80.5242	54.1992	80.5583	54.1992	80.6344	54.1992	80.6517	54.1992	80.6778
55.6641	78.9906	55.6641	78.984	55.6641	79.0015	55.6641	78.9826	55.6641	79.0172	55.6641	78.9893	55.6641	79.0402	55.6641	79.0083	55.6641	79.0742	55.6641	79.045	55.6641	79.1243	55.6641	79.1058	55.6641	79.1962	55.6641	79.1965	55.6641	79.2954	55.6641	79.3218	55.6641	79.4261	55.6641	79.4836	55.6641	79.5898	55.6641	79.6798	55.6641	79.7845	55.6641	79.9038	55.6641	80.0036	55.6641	80.1448	55.6641	80.2365	55.6641	80.3884	55.6641	80.4691	55.6641	80.6185	55.6641	80.6859	55.6641	80.8193	55.6641	80.8715	55.6641	80.9765	55.6641	81.0121	55.6641	81.0792	55.6641	81.0972	55.6641	81.1203
58.5938	80.0611	58.5938	80.0564	58.5938	80.0733	58.5938	80.06	58.5938	80.0933	58.5938	80.0737	58.5938	80.1225	58.5938	80.1003	58.5938	80.1631	58.5938	80.1433	58.5938	80.2183	58.5938	80.2067	58.5938	80.2915	58.5938	80.2944	58.5938	80.3862	58.5938	80.4092	58.5938	80.505	58.5938	80.5524	58.5938	80.6489	58.5938	80.7222	58.5938	80.8163	58.5938	80.9138	58.5938	81.0024	58.5938	81.1186	58.5938	81.1993	58.5938	81.3255	58.5938	81.3959	58.5938	81.5212	58.5938	81.5796	58.5938	81.6925	58.5938	81.7374	58.5938	81.827	58.5938	81.8575	58.5938	81.9151	58.5938	81.9305	58.5938	81.9503
60.0586	80.5162	60.0586	80.5136	60.0586	80.5279	60.0586	80.5207	60.0586	80.5488	60.0586	80.539	60.0586	80.5797	60.0586	80.5707	60.0586	80.6222	60.0586	80.6185	60.0586	80.6787	60.0586	80.6855	60.0586	80.7518	60.0586	80.7745	60.0586	80.8441	60.0586	80.8875	60.0586	80.9577	60.0586	81.0252	60.0586	81.0935	60.0586	81.1858	60.0586	81.25	60.0586	81.3648	60.0586	81.4233	60.0586	81.5547	60.0586	81.6062	60.0586	81.7455	60.0586	81.7892	60.0586	81.9253	60.0586	81.9608	60.0586	82.0821	60.0586	82.109	60.0586	82.2046	60.0586	82.2227	60.0586	82.2838	60.0586	82.2929	60.0586	82.3139
62.9883	81.4444	62.9883	81.4446	62.9883	81.4539	62.9883	81.4548	62.9883	81.4731	62.9883	81.4757	62.9883	81.5025	62.9883	81.5081	62.9883	81.5427	62.9883	81.5533	62.9883	81.5949	62.9883	81.6129	62.9883	81.6603	62.9883	81.6883	62.9883	81.7404	62.9883	81.7808	62.9883	81.8363	62.9883	81.8908	62.9883	81.9482	62.9883	82.0174	62.9883	82.0753	62.9883	82.1578	62.9883	82.2145	62.9883	82.3072	62.9883	82.3609	62.9883	82.4582	62.9883	82.5071	62.9883	82.602	62.9883	82.6441	62.9883	82.7289	62.9883	82.7623	62.9883	82.8294	62.9883	82.8526	62.9883	82.8956	62.9883	82.9076	62.9883	82.9224
64.4531	81.7021	64.4531	81.7031	64.4531	81.7112	64.4531	81.7142	64.4531	81.7302	64.4531	81.7359	64.4531	81.7594	64.4531	81.7687	64.4531	81.799	64.4531	81.8134	64.4531	81.8498	64.4531	81.871	64.4531	81.9124	64.4531	81.9424	64.4531	81.9878	64.4531	82.0286	64.4531	82.0767	64.4531	82.1299	64.4531	82.1794	64.4531	82.2455	64.4531	82.295	64.4531	82.3733	64.4531	82.4211	64.4531	82.5087	64.4531	82.5535	64.4531	82.6457	64.4531	82.6859	64.4531	82.7761	64.4531	82.8103	64.4531	82.8912	64.4531	82.9181	64.4531	82.9823	64.4531	83.0009	64.4531	83.0421	64.4531	83.0516	64.4531	83.0659
67.3828	82.2968	67.3828	82.3019	67.3828	82.3034	67.3828	82.3188	67.3828	82.3217	67.3828	82.347	67.3828	82.3514	67.3828	82.3865	67.3828	82.3923	67.3828	82.4369	67.3828	82.4441	67.3828	82.4981	67.3828	82.5066	67.3828	82.5701	67.3828	82.5798	67.3828	82.6528	67.3828	82.6634	67.3828	82.7459	67.3828	82.7573	67.3828	82.8487	67.3828	82.8605	67.3828	82.9593	67.3828	82.9712	67.3828	83.0745	67.3828	83.086	67.3828	83.1895	67.3828	83.2002	67.3828	83.298	67.3828	83.3075	67.3828	83.3932	67.3828	83.4008	67.3828	83.4678	67.3828	83.4732	67.3828	83.5159	67.3828	83.5187	67.3828	83.5333
68.8477	82.5878	68.8477	82.5915	68.8477	82.5966	68.8477	82.6074	68.8477	82.6176	68.8477	82.6353	68.8477	82.6504	68.8477	82.6746	68.8477	82.6942	68.8477	82.7246	68.8477	82.7483	68.8477	82.7847	68.8477	82.8119	68.8477	82.8544	68.8477	82.8845	68.8477	82.9333	68.8477	82.9655	68.8477	83.0209	68.8477	83.0544	68.8477	83.1164	68.8477	83.1501	68.8477	83.2183	68.8477	83.2512	68.8477	83.3238	68.8477	83.3549	68.8477	83.4288	68.8477	83.457	68.8477	83.5282	68.8477	83.5523	68.8477	83.6155	68.8477	83.6347	68.8477	83.6846	68.8477	83.6979	68.8477	83.73	68.8477	83.7368	68.8477	83.7479
71.7773	83.1342	71.7773	83.1372	71.7773	83.1444	71.7773	83.1532	71.7773	83.1674	71.7773	83.1814	71.7773	83.2023	71.7773	83.2209	71.7773	83.2479	71.7773	83.2702	71.7773	83.3026	71.7773	83.3279	71.7773	83.3649	71.7773	83.3927	71.7773	83.4333	71.7773	83.4636	71.7773	83.5068	71.7773	83.5397	71.7773	83.5842	71.7773	83.6202	71.7773	83.6648	71.7773	83.704	71.7773	83.7474	71.7773	83.7894	71.7773	83.8302	71.7773	83.8737	71.7773	83.9105	71.7773	83.9532	71.7773	83.9846	71.7773	84.0233	71.7773	84.0481	71.7773	84.0792	71.7773	84.0964	71.7773	84.1166	71.7773	84.1254	71.7773	84.1324
74.707	83.5501	74.707	83.5528	74.707	83.5611	74.707	83.5689	74.707	83.5853	74.707	83.5975	74.707	83.6215	74.707	83.6368	74.707	83.668	74.707	83.6851	74.707	83.7226	74.707	83.7402	74.707	83.7831	74.707	83.8001	74.707	83.8474	74.707	83.8634	74.707	83.9137	74.707	83.9289	74.707	83.9808	74.707	83.9956	74.707	84.0477	74.707	84.0629	74.707	84.1136	74.707	84.1299	74.707	84.1777	74.707	84.1951	74.707	84.2382	74.707	84.2561	74.707	84.293	74.707	84.3101	74.707	84.3392	74.707	84.3535	74.707	84.3737	74.707	84.3833	74.707	84.3936	74.707	84.397
77.6367	83.8055	77.6367	83.8077	77.6367	83.8174	77.6367	83.8236	77.6367	83.8429	77.6367	83.8521	77.6367	83.8804	77.6367	83.8911	77.6367	83.9279	77.6367	83.9383	77.6367	83.9825	77.6367	83.9909	77.6367	84.0416	77.6367	84.0466	77.6367	84.1024	77.6367	84.1033	77.6367	84.1628	77.6367	84.1595	77.6367	84.2211	77.6367	84.2144	77.6367	84.2763	77.6367	84.2674	77.6367	84.3278	77.6367	84.3185	77.6367	84.3754	77.6367	84.3669	77.6367	84.4184	77.6367	84.4119	77.6367	84.4559	77.6367	84.4516	77.6367	84.4865	77.6367	84.4842	77.6367	84.5084	77.6367	84.5073	77.6367	84.5197	77.6367	84.5195
79.1016	83.9219	79.1016	83.9235	79.1016	83.9346	79.1016	83.9391	79.1016	83.9609	79.1016	83.9672	79.1016	83.9992	79.1016	84.0057	79.1016	84.0473	79.1016	84.052	79.1016	84.1022	79.1016	84.1033	79.1016	84.1608	79.1016	84.1568	79.1016	84.2201	79.1016	84.2103	79.1016	84.2779	79.1016	84.2622	79.1016	84.3322	79.1016	84.3116	79.1016	84.382	79.1016	84.3581	79.1016	84.4269	79.1016	84.4019	79.1016	84.4668	79.1016	84.4429	79.1016	84.5015	79.1016	84.4806	79.1016	84.5308	79.1016	84.514	79.1016	84.5538	79.1016	84.5418	79.1016	84.5694	79.1016	84.5623	79.1016	84.5764	79.1016	84.5741
82.0312	84.1857	82.0312	84.186	82.0312	84.1999	82.0312	84.2005	82.0312	84.228	82.0312	84.2277	82.0312	84.2681	82.0312	84.265	82.0312	84.3175	82.0312	84.3095	82.0312	84.3729	82.0312	84.3579	82.0312	84.4308	82.0312	84.4072	82.0312	84.4876	82.0312	84.4546	82.0312	84.5407	82.0312	84.4984	82.0312	84.5878	82.0312	84.5377	82.0312	84.6278	82.0312	84.5723	82.0312	84.6605	82.0312	84.6028	82.0312	84.6862	82.0312	84.63	82.0312	84.7056	82.0312	84.6546	82.0312	84.7194	82.0312	84.6767	82.0312	84.7281	82.0312	84.6961	82.0312	84.7317	82.0312	84.7119	82.0312	84.7302	82.0312	84.7235
84.9609	84.3083	84.9609	84.3115	84.9609	84.3197	84.9609	84.3288	84.9609	84.3452	84.9609	84.3584	84.9609	84.3829	84.9609	84.3974	84.9609	84.4299	84.9609	84.4425	84.9609	84.4827	84.9609	84.4901	84.9609	84.5376	84.9609	84.5366	84.9609	84.5907	84.9609	84.5793	84.9609	84.639	84.9609	84.6161	84.9609	84.68	84.9609	84.6462	84.9609	84.7126	84.9609	84.6697	84.9609	84.7365	84.9609	84.6876	84.9609	84.7523	84.9609	84.7014	84.9609	84.7613	84.9609	84.7127	84.9609	84.765	84.9609	84.7227	84.9609	84.7648	84.9609	84.7321	84.9609	84.7616	84.9609	84.741	84.9609	84.7562	84.9609	84.7492
87.8906	84.5967	87.8906	84.6092	87.8906	84.6021	87.8906	84.6388	87.8906	84.6249	87.8906	84.6829	87.8906	84.6626	87.8906	84.7379	87.8906	84.712	87.8906	84.7991	87.8906	84.7684	87.8906	84.8617	87.8906	84.8272	87.8906	84.9208	87.8906	84.8835	87.8906	84.9722	87.8906	84.9331	87.8906	85.0128	87.8906	84.9732	87.8906	85.041	87.8906	85.0019	87.8906	85.0569	87.8906	85.0193	87.8906	85.0617	87.8906	85.0268	87.8906	85.0579	87.8906	85.0268	87.8906	85.0488	87.8906	85.0223	87.8906	85.0372	87.8906	85.0164	87.8906	85.0259	87.8906	85.0116	87.8906	85.0169	87.8906	85.0095	87.8906	85.0112
90.8203	84.9472	90.8203	84.9577	90.8203	84.9536	90.8203	84.9846	90.8203	84.9764	90.8203	85.0255	90.8203	85.013	90.8203	85.0767	90.8203	85.0598	90.8203	85.1337	90.8203	85.1123	90.8203	85.1913	90.8203	85.1654	90.8203	85.2446	90.8203	85.2143	90.8203	85.2891	90.8203	85.2547	90.8203	85.3215	90.8203	85.2837	90.8203	85.34	90.8203	85.2996	90.8203	85.3444	90.8203	85.3027	90.8203	85.3363	90.8203	85.2949	90.8203	85.3186	90.8203	85.2794	90.8203	85.2951	90.8203	85.2603	90.8203	85.2701	90.8203	85.2417	90.8203	85.2474	90.8203	85.2273	90.8203	85.2302	90.8203	85.2198	90.8203	85.2207
95.2148	85.2008	95.2148	85.2069	95.2148	85.2113	95.2148	85.2289	95.2148	85.2375	95.2148	85.2645	95.2148	85.2767	95.2148	85.3101	95.2148	85.3252	95.2148	85.3608	95.2148	85.3781	95.2148	85.4116	95.2148	85.43	95.2148	85.457	95.2148	85.4756	95.2148	85.4926	95.2148	85.5105	95.2148	85.5147	95.2148	85.5311	95.2148	85.5214	95.2148	85.5357	95.2148	85.5126	95.2148	85.5244	95.2148	85.4903	95.2148	85.4995	95.2148	85.4581	95.2148	85.4649	95.2148	85.421	95.2148	85.4256	95.2148	85.3845	95.2148	85.3875	95.2148	85.354	95.2148	85.3557	95.2148	85.3339	95.2148	85.3346	95.2148	85.3271
98.1445	85.2364	98.1445	85.2411	98.1445	85.2479	98.1445	85.2613	98.1445	85.2747	98.1445	85.2948	98.1445	85.3141	98.1445	85.3377	98.1445	85.3623	98.1445	85.3854	98.1445	85.4142	98.1445	85.4325	98.1445	85.4644	98.1445	85.4737	98.1445	85.5075	98.1445	85.5042	98.1445	85.5387	98.1445	85.5203	98.1445	85.5543	98.1445	85.52	98.1445	85.5524	98.1445	85.5033	98.1445	85.5332	98.1445	85.4724	98.1445	85.499	98.1445	85.4313	98.1445	85.454	98.1445	85.3855	98.1445	85.4041	98.1445	85.3415	98.1445	85.3556	98.1445	85.3054	98.1445	85.3149	98.1445	85.2825	98.1445	85.2872	98.1445	85.276
101.074	85.2774	101.074	85.2805	101.074	85.2898	101.074	85.2983	101.074	85.3167	101.074	85.3286	101.074	85.3554	101.074	85.3676	101.074	85.4021	101.074	85.4107	101.074	85.4518	101.074	85.4524	101.074	85.499	101.074	85.4874	101.074	85.538	101.074	85.5109	101.074	85.5639	101.074	85.5192	101.074	85.5731	101.074	85.5103	101.074	85.5635	101.074	85.4844	101.074	85.5352	101.074	85.4437	101.074	85.4906	101.074	85.3929	101.074	85.4345	101.074	85.338	101.074	85.3731	101.074	85.2863	101.074	85.3138	101.074	85.2447	101.074	85.2636	101.074	85.2191	101.074	85.2287	101.074	85.2134
105.469	85.3793	105.469	85.3854	105.469	85.3873	105.469	85.4047	105.469	85.4084	105.469	85.4348	105.469	85.4403	105.469	85.4721	105.469	85.4792	105.469	85.5118	105.469	85.5203	105.469	85.5485	105.469	85.5582	105.469	85.5767	105.469	85.5874	105.469	85.5916	105.469	85.603	105.469	85.5895	105.469	85.6012	105.469	85.5685	105.469	85.5802	105.469	85.5289	105.469	85.5402	105.469	85.4732	105.469	85.4839	105.469	85.4066	105.469	85.4162	105.469	85.3361	105.469	85.3443	105.469	85.2696	105.469	85.2762	105.469	85.2154	105.469	85.2199	105.469	85.1802	105.469	85.1825	105.469	85.1687
108.398	85.4423	108.398	85.4496	108.398	85.4489	108.398	85.47	108.398	85.4686	108.398	85.5012	108.398	85.4988	108.398	85.5397	108.398	85.5359	108.398	85.5806	108.398	85.5751	108.398	85.6185	108.398	85.6109	108.398	85.6479	108.398	85.6378	108.398	85.6637	108.398	85.6511	108.398	85.662	108.398	85.6469	108.398	85.6406	108.398	85.6232	108.398	85.5995	108.398	85.5804	108.398	85.5413	108.398	85.5214	108.398	85.4709	108.398	85.4512	108.398	85.3955	108.398	85.3774	108.398	85.3234	108.398	85.3082	108.398	85.2632	108.398	85.2522	108.398	85.2223	108.398	85.2166	108.398	85.2061
112.793	85.5076	112.793	85.5098	112.793	85.5194	112.793	85.5256	112.793	85.5442	112.793	85.5528	112.793	85.5795	112.793	85.588	112.793	85.6214	112.793	85.6268	112.793	85.6649	112.793	85.6637	112.793	85.7047	112.793	85.6932	112.793	85.7348	112.793	85.7102	112.793	85.7503	112.793	85.7104	112.793	85.747	112.793	85.6914	112.793	85.7229	112.793	85.6526	112.793	85.6782	112.793	85.5965	112.793	85.6156	112.793	85.5277	112.793	85.5408	112.793	85.4533	112.793	85.4613	112.793	85.382	112.793	85.3861	112.793	85.3226	112.793	85.3244	112.793	85.2833	112.793	85.2838	112.793	85.2696
117.188	85.3023	117.188	85.3046	117.188	85.3133	117.188	85.3193	117.188	85.3372	117.188	85.344	117.188	85.372	117.188	85.3753	117.188	85.4143	117.188	85.4087	117.188	85.4598	117.188	85.4391	117.188	85.5029	117.188	85.4615	117.188	85.5378	117.188	85.4711	117.188	85.5589	117.188	85.4642	117.188	85.5617	117.188	85.439	117.188	85.5432	117.188	85.3955	117.188	85.5028	117.188	85.3367	117.188	85.4425	117.188	85.2678	117.188	85.3671	117.188	85.1962	117.188	85.2838	117.188	85.1307	117.188	85.2016	117.188	85.08	117.188	85.13	117.188	85.0517	117.188	85.0776	117.188	85.0505
120.117	85.4105	120.117	85.4246	120.117	85.4066	120.117	85.4477	120.117	85.4126	120.117	85.4778	120.117	85.4268	120.117	85.5113	120.117	85.4466	120.117	85.5438	120.117	85.4682	120.117	85.5702	120.117	85.4871	120.117	85.5854	120.117	85.4985	120.117	85.5846	120.117	85.4977	120.117	85.5642	120.117	85.481	120.117	85.5223	120.117	85.4461	120.117	85.4595	120.117	85.3928	120.117	85.3791	120.117	85.3234	120.117	85.2869	120.117	85.2428	120.117	85.1912	120.117	85.1583	120.117	85.1017	120.117	85.079	120.117	85.0282	120.117	85.0142	120.117	84.9791	120.117	84.9725	120.117	84.96
124.512	85.689	124.512	85.693	124.512	85.6949	124.512	85.7067	124.512	85.7099	124.512	85.7287	124.512	85.7316	124.512	85.7561	124.512	85.757	124.512	85.785	124.512	85.7818	124.512	85.8107	124.512	85.8013	124.512	85.828	124.512	85.8106	124.512	85.8317	124.512	85.8053	124.512	85.8175	124.512	85.7818	124.512	85.7829	124.512	85.7385	124.512	85.7272	124.512	85.6759	124.512	85.6527	124.512	85.5972	124.512	85.5644	124.512	85.5084	124.512	85.47	124.512	85.4176	124.512	85.3789	124.512	85.3346	124.512	85.3015	124.512	85.2693	124.512	85.2469	124.512	85.2299	124.512	85.2221
128.906	85.6952	128.906	85.689	128.906	85.7094	128.906	85.6906	128.906	85.7306	128.906	85.6987	128.906	85.7569	128.906	85.711	128.906	85.7851	128.906	85.7242	128.906	85.8112	128.906	85.7341	128.906	85.8307	128.906	85.7362	128.906	85.8386	128.906	85.7261	128.906	85.8302	128.906	85.7	128.906	85.8019	128.906	85.6559	128.906	85.7519	128.906	85.5935	128.906	85.6806	128.906	85.5153	128.906	85.5912	128.906	85.4264	128.906	85.4896	128.906	85.3345	128.906	85.3844	128.906	85.2492	128.906	85.2858	128.906	85.1804	128.906	85.2043	128.906	85.1372	128.906	85.1489	128.906	85.1259
133.301	85.6486	133.301	85.6476	133.301	85.6572	133.301	85.6536	133.301	85.6728	133.301	85.6648	133.301	85.6937	133.301	85.6784	133.301	85.7168	133.301	85.6908	133.301	85.7383	133.301	85.6973	133.301	85.7532	133.301	85.6935	133.301	85.7563	133.301	85.6747	133.301	85.7427	133.301	85.6375	133.301	85.7085	133.301	85.58	133.301	85.6515	133.301	85.5026	133.301	85.5719	133.301	85.4086	133.301	85.473	133.301	85.3039	133.301	85.3612	133.301	85.1975	133.301	85.2455	133.301	85.0996	133.301	85.1368	133.301	85.0214	133.301	85.0468	133.301	84.9726	133.301	84.9855	133.301	84.9599
139.16	85.5525	139.16	85.5512	139.16	85.5612	139.16	85.5567	139.16	85.5768	139.16	85.5677	139.16	85.5976	139.16	85.5817	139.16	85.621	139.16	85.5953	139.16	85.6433	139.16	85.6044	139.16	85.6597	139.16	85.6043	139.16	85.6651	139.16	85.5905	139.16	85.6544	139.16	85.5593	139.16	85.6235	139.16	85.5085	139.16	85.57	139.16	85.438	139.16	85.494	139.16	85.3505	139.16	85.3989	139.16	85.2515	139.16	85.2909	139.16	85.1494	139.16	85.1792	139.16	85.0541	139.16	85.0749	139.16	84.9765	139.16	84.9894	139.16	84.9264	139.16	84.9325	139.16	84.9108
143.555	85.5046	143.555	85.5109	143.555	85.5049	143.555	85.5229	143.555	85.5119	143.555	85.5392	143.555	85.5252	143.555	85.5574	143.555	85.5433	143.555	85.5743	143.555	85.5634	143.555	85.5855	143.555	85.5813	143.555	85.5862	143.555	85.5917	143.555	85.5713	143.555	85.5885	143.555	85.5363	143.555	85.5663	143.555	85.4787	143.555	85.5206	143.555	85.3981	143.555	85.45	143.555	85.2978	143.555	85.3559	143.555	85.1843	143.555	85.2442	143.555	85.0676	143.555	85.124	143.555	84.9598	143.555	85.0076	143.555	84.8739	143.555	84.9085	143.555	84.821	143.555	84.8392	143.555	84.8087
147.949	85.6436	147.949	85.6563	147.949	85.6331	147.949	85.6711	147.949	85.6244	147.949	85.6873	147.949	85.6168	147.949	85.7033	147.949	85.609	147.949	85.7166	147.949	85.5992	147.949	85.7231	147.949	85.5848	147.949	85.718	147.949	85.5624	147.949	85.6964	147.949	85.5285	147.949	85.6538	147.949	85.4798	147.949	85.5873	147.949	85.4141	147.949	85.4969	147.949	85.3315	147.949	85.3856	147.949	85.2343	147.949	85.26	147.949	85.1282	147.949	85.1299	147.949	85.0215	147.949	85.0071	147.949	84.9247	147.949	84.9042	147.949	84.8489	147.949	84.8318	147.949	84.8042	147.949	84.7976
153.809	85.6517	153.809	85.643	153.809	85.6642	153.809	85.6383	153.809	85.6796	153.809	85.6368	153.809	85.6964	153.809	85.637	153.809	85.7119	153.809	85.6358	153.809	85.7223	153.809	85.6294	153.809	85.723	153.809	85.6129	153.809	85.7085	153.809	85.5811	153.809	85.6736	153.809	85.5296	153.809	85.614	153.809	85.4555	153.809	85.5276	153.809	85.3587	153.809	85.4154	153.809	85.2422	153.809	85.282	153.809	85.1124	153.809	85.1361	153.809	84.9794	153.809	84.9897	153.809	84.8552	153.809	84.8564	153.809	84.7532	153.809	84.7502	153.809	84.6852	153.809	84.6824	153.809	84.6603
159.668	85.4483	159.668	85.4438	159.668	85.4566	159.668	85.4438	159.668	85.4676	159.668	85.4485	159.668	85.4799	159.668	85.4571	159.668	85.4915	159.668	85.4671	159.668	85.4992	159.668	85.4743	159.668	85.4989	159.668	85.4727	159.668	85.4853	159.668	85.4558	159.668	85.453	159.668	85.417	159.668	85.3969	159.668	85.3518	159.668	85.3143	159.668	85.2583	159.668	85.2052	159.668	85.1387	159.668	85.0737	159.668	84.9998	159.668	84.9284	159.668	84.8524	159.668	84.7816	159.668	84.7107	159.668	84.6482	159.668	84.5902	159.668	84.5434	159.668	84.5054	159.668	84.4804	159.668	84.4671
165.527	85.1649	165.527	85.1457	165.527	85.1779	165.527	85.1201	165.527	85.1857	165.527	85.0889	165.527	85.1898	165.527	85.0533	165.527	85.1916	165.527	85.0142	165.527	85.1914	165.527	84.9719	165.527	85.1878	165.527	84.9254	165.527	85.1772	165.527	84.8725	165.527	85.1547	165.527	84.8107	165.527	85.1143	165.527	84.7375	165.527	85.051	165.527	84.6519	165.527	84.9623	165.527	84.5555	165.527	84.849	165.527	84.4528	165.527	84.7164	165.527	84.3516	165.527	84.5742	165.527	84.2621	165.527	84.4352	165.527	84.1958	165.527	84.3138	165.527	84.1631	165.527	84.2227	165.527	84.1713
171.387	85.27	171.387	85.2767	171.387	85.2551	171.387	85.2761	171.387	85.2316	171.387	85.2687	171.387	85.1986	171.387	85.2544	171.387	85.1556	171.387	85.2321	171.387	85.1015	171.387	85.1995	171.387	85.0351	171.387	85.1535	171.387	84.955	171.387	85.0902	171.387	84.8599	171.387	85.0063	171.387	84.7495	171.387	84.9001	171.387	84.6249	171.387	84.7722	171.387	84.4895	171.387	84.6263	171.387	84.3492	171.387	84.4697	171.387	84.212	171.387	84.3122	171.387	84.0875	171.387	84.1652	171.387	83.9855	171.387	84.0404	171.387	83.9152	171.387	83.9477	171.387	83.8835	171.387	83.8942
177.246	85.263	177.246	85.2442	177.246	85.2731	177.246	85.2173	177.246	85.274	177.246	85.1836	177.246	85.2661	177.246	85.1442	177.246	85.2496	177.246	85.0994	177.246	85.224	177.246	85.0483	177.246	85.1878	177.246	84.9888	177.246	85.1384	177.246	84.9179	177.246	85.0722	177.246	84.8328	177.246	84.9857	177.246	84.7315	177.246	84.877	177.246	84.6144	177.246	84.7464	177.246	84.4846	177.246	84.5981	177.246	84.3484	177.246	84.4401	177.246	84.2149	177.246	84.2835	177.246	84.0949	177.246	84.1419	177.246	83.9999	177.246	84.0283	177.246	83.9402	177.246	83.9533	177.246	83.9235
183.105	85.3584	183.105	85.3361	183.105	85.3698	183.105	85.3041	183.105	85.3696	183.105	85.2642	183.105	85.3576	183.105	85.2181	183.105	85.3341	183.105	85.167	183.105	85.2989	183.105	85.1106	183.105	85.2512	183.105	85.0475	183.105	85.1896	183.105	84.9753	183.105	85.1124	183.105	84.8914	183.105	85.0179	183.105	84.794	183.105	84.9061	183.105	84.6834	183.105	84.7787	183.105	84.5628	183.105	84.6403	183.105	84.4379	183.105	84.4981	183.105	84.3172	183.105	84.3615	183.105	84.2103	183.105	84.2407	183.105	84.1267	183.105	84.1455	183.105	84.0746	183.105	84.0835	183.105	84.0595
188.965	85.4	188.965	85.3775	188.965	85.4082	188.965	85.3416	188.965	85.4023	188.965	85.2937	188.965	85.3829	188.965	85.2356	188.965	85.3509	188.965	85.1686	188.965	85.3065	188.965	85.0934	188.965	85.2493	188.965	85.0095	188.965	85.1778	188.965	84.9157	188.965	85.0903	188.965	84.8106	188.965	84.9852	188.965	84.6939	188.965	84.8621	188.965	84.5671	188.965	84.7232	188.965	84.4342	188.965	84.5733	188.965	84.3018	188.965	84.4201	188.965	84.1782	188.965	84.2734	188.965	84.0726	188.965	84.1436	188.965	83.9934	188.965	84.0403	188.965	83.9476	188.965	83.9708	188.965	83.9394
196.289	85.1998	196.289	85.1817	196.289	85.2029	196.289	85.1493	196.289	85.192	196.289	85.1044	196.289	85.1686	196.289	85.0495	196.289	85.1346	196.289	84.9874	196.289	85.0914	196.289	84.9202	196.289	85.0389	196.289	84.849	196.289	84.9761	196.289	84.7734	196.289	84.901	196.289	84.6925	196.289	84.8117	196.289	84.6056	196.289	84.708	196.289	84.5127	196.289	84.592	196.289	84.4156	196.289	84.4688	196.289	84.3178	196.289	84.346	196.289	84.2247	196.289	84.2327	196.289	84.1421	196.289	84.1374	196.289	84.0761	196.289	84.067	196.289	84.0321	196.289	84.0255	196.289	84.0143
203.613	85.1515	203.613	85.1195	203.613	85.157	203.613	85.0611	203.613	85.1374	203.613	84.978	203.613	85.0956	203.613	84.8733	203.613	85.035	203.613	84.7513	203.613	84.9589	203.613	84.6165	203.613	84.87	203.613	84.4738	203.613	84.7697	203.613	84.3281	203.613	84.6587	203.613	84.1845	203.613	84.5374	203.613	84.0483	203.613	84.4071	203.613	83.9247	203.613	84.2709	203.613	83.8184	203.613	84.1338	203.613	83.733	203.613	84.0029	203.613	83.67	203.613	83.8853	203.613	83.6292	203.613	83.7868	203.613	83.6089	203.613	83.7105	203.613	83.6069	203.613	83.6563	203.613	83.6224
210.938	85.3114	210.938	85.3108	210.938	85.2838	210.938	85.2816	210.938	85.2299	210.938	85.2248	210.938	85.1526	210.938	85.1418	210.938	85.0556	210.938	85.0348	210.938	84.9428	210.938	84.9053	210.938	84.8172	210.938	84.7554	210.938	84.6803	210.938	84.5868	210.938	84.5329	210.938	84.4028	210.938	84.375	210.938	84.2083	210.938	84.2077	210.938	84.0105	210.938	84.0345	210.938	83.8192	210.938	83.8614	210.938	83.6451	210.938	83.6971	210.938	83.4981	210.938	83.551	210.938	83.3849	210.938	83.4309	210.938	83.3082	210.938	83.3417	210.938	83.2673	210.938	83.2848	210.938	83.26
218.262	85.3754	218.262	85.3661	218.262	85.3591	218.262	85.3324	218.262	85.3176	218.262	85.2764	218.262	85.2528	218.262	85.2007	218.262	85.1675	218.262	85.107	218.262	85.0644	218.262	84.9961	218.262	84.9458	218.262	84.8671	218.262	84.8128	218.262	84.7186	218.262	84.6659	218.262	84.5501	218.262	84.5058	218.262	84.3639	218.262	84.3347	218.262	84.1661	218.262	84.1567	218.262	83.967	218.262	83.9789	218.262	83.7797	218.262	83.81	218.262	83.6176	218.262	83.6593	218.262	83.4909	218.262	83.5343	218.262	83.4044	218.262	83.44	218.262	83.3586	218.262	83.3785	218.262	83.3508
225.586	85.1733	225.586	85.1571	225.586	85.1592	225.586	85.1133	225.586	85.1147	225.586	85.0458	225.586	85.0412	225.586	84.9599	225.586	84.942	225.586	84.8602	225.586	84.8207	225.586	84.7502	225.586	84.6809	225.586	84.6313	225.586	84.526	225.586	84.5035	225.586	84.3591	225.586	84.366	225.586	84.1841	225.586	84.2193	225.586	84.0064	225.586	84.0662	225.586	83.8339	225.586	83.9125	225.586	83.6759	225.586	83.7662	225.586	83.542	225.586	83.6356	225.586	83.4394	225.586	83.5269	225.586	83.3711	225.586	83.4428	225.586	83.3356	225.586	83.3827	225.586	83.3283	225.586	83.3447
232.91	85.2229	232.91	85.1875	232.91	85.2187	232.91	85.1137	232.91	85.1762	232.91	85.0048	232.91	85.099	232.91	84.866	232.91	84.9924	232.91	84.7032	232.91	84.8622	232.91	84.5232	232.91	84.7145	232.91	84.3324	232.91	84.5541	232.91	84.1378	232.91	84.3849	232.91	83.9465	232.91	84.2106	232.91	83.7666	232.91	84.0358	232.91	83.6069	232.91	83.8667	232.91	83.4754	232.91	83.7112	232.91	83.378	232.91	83.5779	232.91	83.3159	232.91	83.4727	232.91	83.2849	232.91	83.3973	232.91	83.2769	232.91	83.3478	232.91	83.2829	232.91	83.3168	232.91	83.2966
241.699	84.9867	241.699	84.9577	241.699	84.9704	241.699	84.8856	241.699	84.9084	241.699	84.7741	241.699	84.8017	241.699	84.6283	241.699	84.6527	241.699	84.4544	241.699	84.4643	241.699	84.2591	241.699	84.2401	241.699	84.0495	241.699	83.9844	241.699	83.8336	241.699	83.7036	241.699	83.6199	241.699	83.408	241.699	83.4175	241.699	83.1131	241.699	83.2355	241.699	82.8404	241.699	83.081	241.699	82.6145	241.699	82.9579	241.699	82.457	241.699	82.864	241.699	82.3786	241.699	82.7913	241.699	82.3739	241.699	82.7278	241.699	82.4234	241.699	82.6615	241.699	82.5015	241.699	82.5853
250.488	85.3689	250.488	85.3178	250.488	85.3734	250.488	85.2216	250.488	85.3323	250.488	85.0833	250.488	85.2483	250.488	84.9071	250.488	85.126	250.488	84.6977	250.488	84.9701	250.488	84.4599	250.488	84.7849	250.488	84.1992	250.488	84.5735	250.488	83.9227	250.488	84.3382	250.488	83.6407	250.488	84.0821	250.488	83.367	250.488	83.8113	250.488	83.1187	250.488	83.5374	250.488	82.9127	250.488	83.2771	250.488	82.7609	250.488	83.05	250.488	82.6662	250.488	82.8725	250.488	82.6204	250.488	82.7511	250.488	82.6083	250.488	82.6799	250.488	82.6132	250.488	82.6435	250.488	82.6249
259.277	85.6405	259.277	85.6199	259.277	85.6229	259.277	85.5627	259.277	85.5657	259.277	85.4703	259.277	85.4681	259.277	85.3426	259.277	85.3293	259.277	85.178	259.277	85.1491	259.277	84.9728	259.277	84.9273	259.277	84.7227	259.277	84.6645	259.277	84.4251	259.277	84.3633	259.277	84.0822	259.277	84.0293	259.277	83.7048	259.277	83.6728	259.277	83.3137	259.277	83.3102	259.277	82.9389	259.277	82.963	259.277	82.6129	259.277	82.6549	259.277	82.3604	259.277	82.4063	259.277	82.1895	259.277	82.2272	259.277	82.0906	259.277	82.1148	259.277	82.0445	259.277	82.0555	259.277	82.0346
268.066	85.3511	268.066	85.2816	268.066	85.3804	268.066	85.1766	268.066	85.3684	268.066	85.0443	268.066	85.3162	268.066	84.8956	268.066	85.226	268.066	84.7414	268.066	85.099	268.066	84.5894	268.066	84.9356	268.066	84.4424	268.066	84.7358	268.066	84.2977	268.066	84.5014	268.066	84.1499	268.066	84.2391	268.066	83.9949	268.066	83.9623	268.066	83.8338	268.066	83.6924	268.066	83.6743	268.066	83.4548	268.066	83.5287	268.066	83.2729	268.066	83.4088	268.066	83.1591	268.066	83.3199	268.066	83.1105	268.066	83.2582	268.066	83.1106	268.066	83.2132	268.066	83.1377	268.066	83.1744
276.855	85.1528	276.855	85.0691	276.855	85.1785	276.855	84.9262	276.855	85.1496	276.855	84.7248	276.855	85.0707	276.855	84.4681	276.855	84.9475	276.855	84.162	276.855	84.7847	276.855	83.816	276.855	84.5859	276.855	83.4441	276.855	84.3534	276.855	83.0667	276.855	84.0892	276.855	82.7104	276.855	83.798	276.855	82.4063	276.855	83.4906	276.855	82.1836	276.855	83.1859	276.855	82.0611	276.855	82.9104	276.855	82.0386	276.855	82.6919	276.855	82.0957	276.855	82.5484	276.855	82.1977	276.855	82.4785	276.855	82.3074	276.855	82.4602	276.855	82.3947	276.855	82.4596	276.855	82.4446
287.109	85.4363	287.109	85.4356	287.109	85.3881	287.109	85.38	287.109	85.3	287.109	85.2663	287.109	85.1823	287.109	85.0939	287.109	85.0447	287.109	84.8651	287.109	84.8937	287.109	84.584	287.109	84.7302	287.109	84.2577	287.109	84.5485	287.109	83.8963	287.109	84.3385	287.109	83.5155	287.109	84.0895	287.109	83.1371	287.109	83.797	287.109	82.7894	287.109	83.4685	287.109	82.5028	287.109	83.1275	287.109	82.3013	287.109	82.8103	287.109	82.1918	287.109	82.5548	287.109	82.16	287.109	82.3836	287.109	82.1757	287.109	82.2922	287.109	82.2064	287.109	82.253	287.109	82.2319
297.363	85.6938	297.363	85.6913	297.363	85.6439	297.363	85.6416	297.363	85.5367	297.363	85.5486	297.363	85.369	297.363	85.4128	297.363	85.1405	297.363	85.2308	297.363	84.8545	297.363	84.9952	297.363	84.519	297.363	84.6978	297.363	84.148	297.363	84.3338	297.363	83.762	297.363	83.9078	297.363	83.3867	297.363	83.4394	297.363	83.049	297.363	82.9665	297.363	82.7712	297.363	82.5423	297.363	82.5641	297.363	82.2197	297.363	82.4252	297.363	82.0301	297.363	82.3402	297.363	81.9677	297.363	82.2886	297.363	81.9953	297.363	82.249	297.363	82.0658	297.363	82.2034	297.363	82.1417
307.617	85.1611	307.617	85.1068	307.617	85.1687	307.617	85.0104	307.617	85.1277	307.617	84.879	307.617	85.0384	307.617	84.7212	307.617	84.9021	307.617	84.5446	307.617	84.7202	307.617	84.3535	307.617	84.4935	307.617	84.1483	307.617	84.2235	307.617	83.9263	307.617	83.9146	307.617	83.6853	307.617	83.5786	307.617	83.4285	307.617	83.2382	307.617	83.1692	307.617	82.9273	307.617	82.9315	307.617	82.6851	307.617	82.7449	307.617	82.5414	307.617	82.6321	307.617	82.5003	307.617	82.5963	307.617	82.5358	307.617	82.6164	307.617	82.6033	307.617	82.6557	307.617	82.6592	307.617	82.6772
319.336	84.868	319.336	84.8252	319.336	84.8593	319.336	84.7333	319.336	84.7994	319.336	84.5966	319.336	84.6897	319.336	84.4212	319.336	84.5313	319.336	84.2121	319.336	84.3229	319.336	83.9733	319.336	84.0611	319.336	83.7071	319.336	83.7415	319.336	83.4169	319.336	83.3633	319.336	83.1106	319.336	82.935	319.336	82.8046	319.336	82.4818	319.336	82.5247	319.336	82.0499	319.336	82.3011	319.336	81.7019	319.336	82.1571	319.336	81.4966	319.336	82.0962	319.336	81.458	319.336	82.0957	319.336	81.5587	319.336	82.1145	319.336	81.7336	319.336	82.108	319.336	81.9121	319.336	82.0436
329.59	84.9667	329.59	84.8503	329.59	85.0182	329.59	84.6719	329.59	85.0055	329.59	84.4382	329.59	84.9312	329.59	84.1588	329.59	84.7978	329.59	83.8445	329.59	84.6047	329.59	83.5056	329.59	84.3479	329.59	83.1519	329.59	84.0203	329.59	82.7938	329.59	83.6161	329.59	82.4467	329.59	83.1377	329.59	82.1332	329.59	82.605	329.59	81.8826	329.59	82.0652	329.59	81.7227	329.59	81.5946	329.59	81.6659	329.59	81.2791	329.59	81.6976	329.59	81.1712	329.59	81.7775	329.59	81.2527	329.59	81.8519	329.59	81.4447	329.59	81.8717	329.59	81.6528	329.59	81.8062
341.309	85.2785	341.309	85.2044	341.309	85.2834	341.309	85.0599	341.309	85.2243	341.309	84.8473	341.309	85.1096	341.309	84.5712	341.309	84.9482	341.309	84.2367	341.309	84.7464	341.309	83.8486	341.309	84.5057	341.309	83.4115	341.309	84.2214	341.309	82.9328	341.309	83.8857	341.309	82.429	341.309	83.4931	341.309	81.9321	341.309	83.0479	341.309	81.4923	341.309	82.5724	341.309	81.169	341.309	82.1111	341.309	81.0056	341.309	81.7242	341.309	81.0014	341.309	81.4652	341.309	81.1071	341.309	81.351	341.309	81.2486	341.309	81.3475	341.309	81.3599	341.309	81.3878	341.309	81.4054
353.027	85.4253	353.027	85.3513	353.027	85.4276	353.027	85.2022	353.027	85.3641	353.027	84.9758	353.027	85.2428	353.027	84.6695	353.027	85.0725	353.027	84.2789	353.027	84.8595	353.027	83.7965	353.027	84.6051	353.027	83.215	353.027	84.3041	353.027	82.5322	353.027	83.9461	353.027	81.7636	353.027	83.5208	353.027	80.9593	353.027	83.0265	353.027	80.2222	353.027	82.4799	353.027	79.6977	353.027	81.9249	353.027	79.5036	353.027	81.4312	353.027	79.6351	353.027	81.0709	353.027	79.9611	353.027	80.8779	353.027	80.3206	353.027	80.8192	353.027	80.6012	353.027	80.8104	353.027	80.7591
366.211	85.2947	366.211	85.3458	366.211	85.1787	366.211	85.3337	366.211	85.0024	366.211	85.2639	366.211	84.7768	366.211	85.1411	366.211	84.5178	366.211	84.9652	366.211	84.2418	366.211	84.7281	366.211	83.9607	366.211	84.4139	366.211	83.6781	366.211	84.0029	366.211	83.3895	366.211	83.479	366.211	83.0867	366.211	82.8399	366.211	82.7655	366.211	82.1128	366.211	82.4324	366.211	81.3695	366.211	82.1071	366.211	80.7313	366.211	81.8167	366.211	80.331	366.211	81.5829	366.211	80.2307	366.211	81.4055	366.211	80.3724	366.211	81.2576	366.211	80.6284	366.211	81.0967	366.211	80.8875
379.395	84.7498	379.395	84.7186	379.395	84.7109	379.395	84.6224	379.395	84.6039	379.395	84.4735	379.395	84.4358	379.395	84.2876	379.395	84.2143	379.395	84.0788	379.395	83.9425	379.395	83.8531	379.395	83.6151	379.395	83.6053	379.395	83.2184	379.395	83.3203	379.395	82.7344	379.395	82.9802	379.395	82.1509	379.395	82.5736	379.395	81.4761	379.395	82.1068	379.395	80.7565	379.395	81.6108	379.395	80.0913	379.395	81.1422	379.395	79.6159	379.395	80.7658	379.395	79.4308	379.395	80.5205	379.395	79.5197	379.395	80.3906	379.395	79.7598	379.395	80.31	379.395	80.0139	379.395	80.2006
392.578	84.9436	392.578	84.8394	392.578	84.94	392.578	84.641	392.578	84.8294	392.578	84.3736	392.578	84.6278	392.578	84.0701	392.578	84.3644	392.578	83.7621	392.578	84.0764	392.578	83.4704	392.578	83.7973	392.578	83.1977	392.578	83.5439	392.578	82.9294	392.578	83.308	392.578	82.6422	392.578	83.0611	392.578	82.3168	392.578	82.7686	392.578	81.9486	392.578	82.4077	392.578	81.5534	392.578	81.9797	392.578	81.1653	392.578	81.5155	392.578	80.8262	392.578	81.0703	392.578	80.568	392.578	80.7039	392.578	80.3991	392.578	80.4542	392.578	80.3078	392.578	80.3216	392.578	80.2807
405.762	85.5025	405.762	85.358	405.762	85.5295	405.762	85.0922	405.762	85.447	405.762	84.7086	405.762	85.2656	405.762	84.2212	405.762	84.9975	405.762	83.659	405.762	84.6547	405.762	83.0661	405.762	84.2491	405.762	82.4987	405.762	83.7923	405.762	82.012	405.762	83.2976	405.762	81.6456	405.762	82.785	405.762	81.4138	405.762	82.2875	405.762	81.309	405.762	81.8544	405.762	81.3121	405.762	81.5436	405.762	81.3995	405.762	81.3982	405.762	81.5429	405.762	81.4183	405.762	81.7079	405.762	81.555	405.762	81.8555	405.762	81.7334	405.762	81.9488	405.762	81.8838	405.762	81.9611
420.41	86.3259	420.41	86.2875	420.41	86.2436	420.41	86.1293	420.41	86.044	420.41	85.8564	420.41	85.7342	420.41	85.4775	420.41	85.3247	420.41	85.0024	420.41	84.8313	420.41	84.4393	420.41	84.2774	420.41	83.7938	420.41	83.697	420.41	83.0728	420.41	83.1341	420.41	82.2973	420.41	82.6352	420.41	81.5233	420.41	82.2351	420.41	80.8598	420.41	81.9461	420.41	80.4485	420.41	81.7594	420.41	80.3782	420.41	81.6576	420.41	80.6015	420.41	81.625	420.41	80.9667	420.41	81.6461	420.41	81.3224	420.41	81.6957	420.41	81.5784	420.41	81.7332	420.41	81.7089
435.059	85.8394	435.059	85.8023	435.059	85.7865	435.059	85.6811	435.059	85.6397	435.059	85.4816	435.059	85.4001	435.059	85.207	435.059	85.0754	435.059	84.8568	435.059	84.6809	435.059	84.4259	435.059	84.2375	435.059	83.9072	435.059	83.7688	435.059	83.2961	435.059	83.2964	435.059	82.6005	435.059	82.8394	435.059	81.8554	435.059	82.4182	435.059	81.142	435.059	82.061	435.059	80.5911	435.059	81.8045	435.059	80.3375	435.059	81.6787	435.059	80.4253	435.059	81.6831	435.059	80.7622	435.059	81.773	435.059	81.1866	435.059	81.8724	435.059	81.5606	435.059	81.9028	435.059	81.8065
451.172	85.5338	451.172	85.5269	451.172	85.4295	451.172	85.4081	451.172	85.2203	451.172	85.1805	451.172	84.9185	451.172	84.8489	451.172	84.5391	451.172	84.4168	451.172	84.095	451.172	83.887	451.172	83.5911	451.172	83.2626	451.172	83.0229	451.172	82.5526	451.172	82.3816	451.172	81.7804	451.172	81.669	451.172	80.9977	451.172	80.9211	451.172	80.2988	451.172	80.2342	451.172	79.8149	451.172	79.7648	451.172	79.6594	451.172	79.6524	451.172	79.8394	451.172	79.896	451.172	80.235	451.172	80.3377	451.172	80.6737	451.172	80.7788	451.172	81.011	451.172	81.0757	451.172	81.1574
465.82	85.5815	465.82	85.4825	465.82	85.5793	465.82	85.2952	465.82	85.467	465.82	85.0355	465.82	85.2401	465.82	84.7188	465.82	84.8973	465.82	84.3558	465.82	84.4402	465.82	83.9479	465.82	83.8726	465.82	83.4853	465.82	83.2019	465.82	82.9516	465.82	82.4431	465.82	82.336	465.82	81.6268	465.82	81.6511	465.82	80.812	465.82	80.956	465.82	80.0944	465.82	80.3664	465.82	79.5937	465.82	80.0194	465.82	79.4012	465.82	79.9785	465.82	79.5141	465.82	80.1683	465.82	79.8276	465.82	80.4291	465.82	80.1964	465.82	80.6159	465.82	80.4953	465.82	80.6452
483.398	85.8912	483.398	85.7524	483.398	85.9068	483.398	85.4887	483.398	85.8086	483.398	85.109	483.398	85.6089	483.398	84.6343	483.398	85.3186	483.398	84.0945	483.398	84.9435	483.398	83.5202	483.398	84.4821	483.398	82.9297	483.398	83.9268	483.398	82.3202	483.398	83.2704	483.398	81.672	483.398	82.5158	483.398	80.9722	483.398	81.693	483.398	80.2519	483.398	80.8791	483.398	79.6203	483.398	80.2062	483.398	79.2491	483.398	79.8203	483.398	79.2566	483.398	79.7816	483.398	79.5804	483.398	80.0012	483.398	80.0204	483.398	80.3023	483.398	80.3846	483.398	80.523	483.398	80.5623
499.512	85.5744	499.512	85.5212	499.512	85.5469	499.512	85.3802	499.512	85.443	499.512	85.1409	499.512	85.2642	499.512	84.7901	499.512	85.0102	499.512	84.3148	499.512	84.6781	499.512	83.7061	499.512	84.2629	499.512	82.9667	499.512	83.759	499.512	82.1196	499.512	83.1647	499.512	81.2203	499.512	82.4918	499.512	80.3683	499.512	81.7809	499.512	79.7012	499.512	81.1159	499.512	79.3489	499.512	80.6186	499.512	79.3567	499.512	80.393	499.512	79.6505	499.512	80.4454	499.512	80.0869	499.512	80.6686	499.512	80.5266	499.512	80.9143	499.512	80.869	499.512	81.0647	499.512	81.0554
517.09	86.0738	517.09	86.0204	517.09	86.0309	517.09	85.8765	517.09	85.8845	517.09	85.6449	517.09	85.6275	517.09	85.3221	517.09	85.2524	517.09	84.8968	517.09	84.7515	517.09	84.3502	517.09	84.1191	517.09	83.6609	517.09	83.3565	517.09	82.8163	517.09	82.4828	517.09	81.8355	517.09	81.5505	517.09	80.8099	517.09	80.6657	517.09	79.9473	517.09	79.9908	517.09	79.527	517.09	79.6893	517.09	79.6777	517.09	79.8129	517.09	80.2258	517.09	80.2498	517.09	80.876	517.09	80.809	517.09	81.4167	517.09	81.3236	517.09	81.7478	517.09	81.686	517.09	81.8366
536.133	86.0928	536.133	85.9966	536.133	86.0897	536.133	85.8041	536.133	85.9884	536.133	85.5217	536.133	85.7901	536.133	85.1549	536.133	85.4916	536.133	84.7016	536.133	85.081	536.133	84.1464	536.133	84.5385	536.133	83.4613	536.133	83.8412	536.133	82.6152	536.133	82.9771	536.133	81.5968	536.133	81.9693	536.133	80.4601	536.133	80.9172	536.133	79.3963	536.133	80.036	536.133	78.7559	536.133	79.6026	536.133	78.8113	536.133	79.7313	536.133	79.4289	536.133	80.2418	536.133	80.2311	536.133	80.8449	536.133	80.9371	536.133	81.3365	536.133	81.4228	536.133	81.6179	536.133	81.6509
555.176	85.6788	555.176	85.7044	555.176	85.5681	555.176	85.6368	555.176	85.3866	555.176	85.4687	555.176	85.1547	555.176	85.1869	555.176	84.8863	555.176	84.7719	555.176	84.5706	555.176	84.2014	555.176	84.1587	555.176	83.4578	555.176	83.5677	555.176	82.537	555.176	82.7005	555.176	81.4617	555.176	81.4764	555.176	80.3083	555.176	79.9035	555.176	79.258	555.176	78.2765	555.176	78.619	555.176	77.4225	555.176	78.6577	555.176	77.962	555.176	79.2986	555.176	79.2456	555.176	80.1873	555.176	80.4625	555.176	81.0067	555.176	81.3185	555.176	81.5867	555.176	81.7747	555.176	81.8545
574.219	86.4393	574.219	86.3226	574.219	86.4732	574.219	86.1348	574.219	86.4167	574.219	85.8895	574.219	86.2663	574.219	85.5924	574.219	86.0198	574.219	85.2263	574.219	85.6718	574.219	84.7389	574.219	85.2054	574.219	84.0424	574.219	84.5854	574.219	83.0235	574.219	83.756	574.219	81.5591	574.219	82.6472	574.219	79.5611	574.219	81.1974	574.219	77.2079	574.219	79.4266	574.219	75.6902	574.219	77.6656	574.219	76.5085	574.219	76.8422	574.219	78.4259	574.219	77.5645	574.219	80.052	574.219	79.007	574.219	81.102	574.219	80.3127	574.219	81.6106	574.219	81.2022	574.219	81.6354
594.727	85.596	594.727	85.5807	594.727	85.5484	594.727	85.5029	594.727	85.4559	594.727	85.3719	594.727	85.3535	594.727	85.1948	594.727	85.2732	594.727	84.9661	594.727	85.208	594.727	84.6614	594.727	85.0913	594.727	84.2328	594.727	84.8106	594.727	83.6087	594.727	84.2408	594.727	82.6995	594.727	83.272	594.727	81.4156	594.727	81.8396	594.727	79.7326	594.727	80.0165	594.727	77.916	594.727	78.2874	594.727	76.9015	594.727	77.6712	594.727	77.4931	594.727	78.4272	594.727	78.8839	594.727	79.606	594.727	80.1166	594.727	80.5508	594.727	80.898	594.727	81.0927	594.727	81.2131
615.234	85.8649	615.234	85.7606	615.234	85.8385	615.234	85.5517	615.234	85.6718	615.234	85.2729	615.234	85.3771	615.234	84.9517	615.234	84.9885	615.234	84.5898	615.234	84.5534	615.234	84.15	615.234	84.1037	615.234	83.5582	615.234	83.6177	615.234	82.7163	615.234	82.9992	615.234	81.5136	615.234	82.0977	615.234	79.8414	615.234	80.7614	615.234	77.6684	615.234	78.9495	615.234	75.4558	615.234	77.1005	615.234	74.9246	615.234	76.5946	615.234	76.6668	615.234	77.9147	615.234	78.8016	615.234	79.6396	615.234	80.4141	615.234	80.9327	615.234	81.3996	615.234	81.6482	615.234	81.8011
637.207	85.1773	637.207	85.1391	637.207	85.1549	637.207	85.0417	637.207	85.0868	637.207	84.9042	637.207	84.9955	637.207	84.752	637.207	84.8942	637.207	84.5922	637.207	84.7681	637.207	84.3877	637.207	84.5641	637.207	84.054	637.207	84.197	637.207	83.4782	637.207	83.5655	637.207	82.5439	637.207	82.5644	637.207	81.1522	637.207	81.0928	637.207	79.2717	637.207	79.0944	637.207	77.139	637.207	76.781	637.207	75.7026	637.207	75.264	637.207	75.9992	637.207	75.8286	637.207	77.301	637.207	77.4015	637.207	78.5287	637.207	78.7109	637.207	79.3282	637.207	79.4534	637.207	79.644
659.18	84.4102	659.18	84.2889	659.18	84.3841	659.18	84.0528	659.18	84.2261	659.18	83.7775	659.18	84.0033	659.18	83.5574	659.18	83.8198	659.18	83.4517	659.18	83.7584	659.18	83.4269	659.18	83.7947	659.18	83.3555	659.18	83.7771	659.18	83.0651	659.18	83.4941	659.18	82.3826	659.18	82.7433	659.18	81.1491	659.18	81.3533	659.18	79.2506	659.18	79.219	659.18	76.8587	659.18	76.6044	659.18	75.3272	659.18	75.155	659.18	76.3168	659.18	76.3267	659.18	78.2682	659.18	78.2299	659.18	79.7539	659.18	79.6539	659.18	80.5685	659.18	80.4872	659.18	80.7904
682.617	84.815	682.617	84.7132	682.617	84.6872	682.617	84.4022	682.617	84.3475	682.617	83.9467	682.617	83.8562	682.617	83.456	682.617	83.3304	682.617	83.0484	682.617	82.9318	682.617	82.7684	682.617	82.7691	682.617	82.5236	682.617	82.7632	682.617	82.1148	682.617	82.659	682.617	81.311	682.617	82.1586	682.617	79.882	682.617	80.9933	682.617	77.6103	682.617	78.9275	682.617	74.6094	682.617	75.9866	682.617	73.1891	682.617	74.135	682.617	75.4856	682.617	76.0568	682.617	78.1755	682.617	78.6541	682.617	80.011	682.617	80.3752	682.617	81.0626	682.617	81.2595	682.617	81.4657
707.52	84.9347	707.52	84.8361	707.52	84.8728	707.52	84.5912	707.52	84.6534	707.52	84.2466	707.52	84.2948	707.52	83.8937	707.52	83.8459	707.52	83.6368	707.52	83.3938	707.52	83.5051	707.52	83.0284	707.52	83.389	707.52	82.7528	707.52	83.0785	707.52	82.4244	707.52	82.3378	707.52	81.7961	707.52	80.9165	707.52	80.5738	707.52	78.4764	707.52	78.3875	707.52	74.4598	707.52	74.674	707.52	69.5133	707.52	69.8501	707.52	72.2504	707.52	72.2234	707.52	76.4585	707.52	76.5363	707.52	78.9265	707.52	79.0534	707.52	80.2231	707.52	80.3122	707.52	80.6616
732.422	84.4871	732.422	84.3462	732.422	84.3715	732.422	83.9636	732.422	84.016	732.422	83.3987	732.422	83.4902	732.422	82.7951	732.422	82.9606	732.422	82.388	732.422	82.6794	732.422	82.3597	732.422	82.7973	732.422	82.6158	732.422	83.1552	732.422	82.8244	732.422	83.3946	732.422	82.6398	732.422	83.1826	732.422	81.7811	732.422	82.2533	732.422	79.9596	732.422	80.3143	732.422	76.7442	732.422	76.868	732.422	71.8337	732.422	71.1652	732.422	71.0939	732.422	69.8747	732.422	75.4366	732.422	74.9884	732.422	78.2173	732.422	77.9829	732.422	79.592	732.422	79.4753	732.422	79.9679
757.324	85.6902	757.324	85.4787	757.324	85.6015	757.324	84.9589	757.324	85.2138	757.324	84.146	757.324	84.5209	757.324	83.1411	757.324	83.5532	757.324	82.2132	757.324	82.4929	757.324	81.7381	757.324	81.7868	757.324	81.8128	757.324	81.8291	757.324	82.0654	757.324	82.3391	757.324	82.0158	757.324	82.6542	757.324	81.3013	757.324	82.2808	757.324	79.5835	757.324	80.8563	757.324	76.3474	757.324	77.8638	757.324	71.1829	757.324	72.1864	757.324	71.4723	757.324	69.2018	757.324	76.3063	757.324	75.5129	757.324	79.2009	757.324	78.9948	757.324	80.6739	757.324	80.6434	757.324	81.1306
785.156	85.4949	785.156	85.4221	785.156	85.3531	785.156	85.1067	785.156	85.018	785.156	84.5287	785.156	84.5032	785.156	83.7234	785.156	83.8235	785.156	82.8635	785.156	83.0293	785.156	82.2832	785.156	82.2714	785.156	82.2097	785.156	81.8053	785.156	82.4181	785.156	81.7506	785.156	82.4283	785.156	81.8369	785.156	81.8313	785.156	81.5802	785.156	80.275	785.156	80.5197	785.156	77.2027	785.156	78.1242	785.156	70.8676	785.156	73.2329	785.156	56.8906	785.156	62.7846	785.156	72.2816	785.156	71.1678	785.156	76.762	785.156	76.2746	785.156	78.6819	785.156	78.4863	785.156	79.1845
811.523	85.5552	811.523	85.3518	811.523	85.4731	811.523	84.8476	811.523	85.1051	811.523	84.0269	811.523	84.4257	811.523	82.9019	811.523	83.4108	811.523	81.6022	811.523	82.1462	811.523	80.5393	811.523	81.0352	811.523	80.2719	811.523	80.7226	811.523	80.7174	811.523	81.2036	811.523	81.1481	811.523	81.7068	811.523	80.9647	811.523	81.5906	811.523	79.7889	811.523	80.4782	811.523	77.1779	811.523	77.948	811.523	72.2325	811.523	73.0357	811.523	67.2955	811.523	66.2139	811.523	73.0341	811.523	72.5502	811.523	76.9427	811.523	76.9038	811.523	78.8575	811.523	78.9002	811.523	79.4646
840.82	86.0222	840.82	85.8225	840.82	85.9705	840.82	85.3662	840.82	85.641	840.82	84.6085	840.82	84.9818	840.82	83.4779	840.82	83.9173	840.82	81.9533	840.82	82.3833	840.82	80.3114	840.82	80.5299	840.82	79.4588	840.82	79.2636	840.82	79.982	840.82	79.7134	840.82	80.9128	840.82	80.9673	840.82	81.2204	840.82	81.6616	840.82	80.4076	840.82	81.2293	840.82	78.0105	840.82	79.2722	840.82	72.8042	840.82	74.8583	840.82	61.4502	840.82	64.728	840.82	71.8723	840.82	70.871	840.82	76.7398	840.82	76.4125	840.82	78.8155	840.82	78.7049	840.82	79.3872
870.117	85.6873	870.117	85.5775	870.117	85.5628	870.117	85.2085	870.117	85.2105	870.117	84.5367	870.117	84.6119	870.117	83.5051	870.117	83.7212	870.117	82.0865	870.117	82.4936	870.117	80.4416	870.117	81.0003	870.117	79.2204	870.117	79.6816	870.117	79.2138	870.117	79.3128	870.117	79.9952	870.117	79.8814	870.117	80.5264	870.117	80.4442	870.117	80.1952	870.117	80.261	870.117	78.5768	870.117	78.8638	870.117	74.8766	870.117	75.558	870.117	65.642	870.117	67.8475	870.117	65.3729	870.117	63.7323	870.117	73.7369	870.117	73.2164	870.117	76.6539	870.117	76.4728	870.117	77.4175
900.879	85.8776	900.879	85.7416	900.879	85.7963	900.879	85.4066	900.879	85.4766	900.879	84.8613	900.879	84.9012	900.879	84.0382	900.879	84.047	900.879	82.833	900.879	82.8929	900.879	81.2377	900.879	81.5066	900.879	79.7201	900.879	80.2699	900.879	79.3719	900.879	79.8829	900.879	80.1984	900.879	80.3919	900.879	80.899	900.879	80.9284	900.879	80.6554	900.879	80.7431	900.879	79.0518	900.879	79.3585	900.879	75.4217	900.879	76.1247	900.879	66.9732	900.879	68.9394	900.879	63.3155	900.879	62.7175	900.879	72.8141	900.879	72.5455	900.879	75.9305	900.879	75.8605	900.879	76.7747
933.105	85.7225	933.105	85.6717	933.105	85.628	933.105	85.4461	933.105	85.3809	933.105	84.9778	933.105	84.9431	933.105	84.1702	933.105	84.2415	933.105	82.9181	933.105	83.1516	933.105	81.1611	933.105	81.5073	933.105	79.0915	933.105	79.2606	933.105	77.6354	933.105	77.2164	933.105	77.8027	933.105	77.2967	933.105	78.6716	933.105	78.6765	933.105	78.9259	933.105	79.3582	933.105	77.9068	933.105	78.6496	933.105	74.9092	933.105	76.0296	933.105	67.5359	933.105	69.7249	933.105	62.2544	933.105	60.0048	933.105	72.3733	933.105	71.9041	933.105	75.7032	933.105	75.6045	933.105	76.6044
965.332	85.3044	965.332	85.1791	965.332	85.2468	965.332	84.8991	965.332	85.0097	965.332	84.4956	965.332	84.608	965.332	83.9417	965.332	84.0223	965.332	83.1236	965.332	83.1729	965.332	81.8996	965.332	81.9545	965.332	80.2787	965.332	80.3633	965.332	78.7762	965.332	78.7847	965.332	78.334	965.332	78.0932	965.332	78.749	965.332	78.3839	965.332	78.8239	965.332	78.5462	965.332	77.7509	965.332	77.6538	965.332	74.8411	965.332	74.9903	965.332	68.2412	965.332	68.8985	965.332	61.7437	965.332	60.4769	965.332	71.2469	965.332	70.6841	965.332	74.6231	965.332	74.4011	965.332	75.4769
1000.49	85.2281	1000.49	85.1587	1000.49	85.1946	1000.49	84.9501	1000.49	85.038	1000.49	84.5187	1000.49	84.7087	1000.49	83.7666	1000.49	84.1498	1000.49	82.601	1000.49	83.2696	1000.49	80.9284	1000.49	81.8966	1000.49	78.7373	1000.49	79.8459	1000.49	76.6781	1000.49	77.4309	1000.49	76.5996	1000.49	76.5837	1000.49	78.1104	1000.49	77.9118	1000.49	79.0624	1000.49	79.0241	1000.49	78.5484	1000.49	78.8062	1000.49	75.9889	1000.49	76.7746	1000.49	69.646	1000.49	71.6976	1000.49	58.3886	1000.49	56.3539	1000.49	71.2371	1000.49	69.8167	1000.49	74.917	1000.49	74.4903	1000.49	75.7893
1035.64	85.3727	1035.64	85.2296	1035.64	85.3253	1035.64	84.9247	1035.64	85.113	1035.64	84.5104	1035.64	84.785	1035.64	83.9853	1035.64	84.3423	1035.64	83.2405	1035.64	83.6905	1035.64	82.0979	1035.64	82.6641	1035.64	80.4623	1035.64	81.115	1035.64	78.6569	1035.64	79.1322	1035.64	77.7179	1035.64	77.5827	1035.64	78.0059	1035.64	77.6111	1035.64	78.3168	1035.64	78.2684	1035.64	77.6322	1035.64	78.041	1035.64	75.2389	1035.64	76.0661	1035.64	69.4886	1035.64	70.917	1035.64	48.5037	1035.64	46.5394	1035.64	69.6278	1035.64	69.2064	1035.64	73.8938	1035.64	73.8429	1035.64	75.0084
1072.27	85.6286	1072.27	85.5591	1072.27	85.5603	1072.27	85.3186	1072.27	85.3391	1072.27	84.8492	1072.27	84.9171	1072.27	84.0976	1072.27	84.2331	1072.27	82.9914	1072.27	83.2049	1072.27	81.3957	1072.27	81.7318	1072.27	79.212	1072.27	79.7967	1072.27	77.0479	1072.27	77.8923	1072.27	76.9489	1072.27	77.4472	1072.27	78.536	1072.27	78.5944	1072.27	79.5578	1072.27	79.6166	1072.27	79.2075	1072.27	79.5174	1072.27	77.0608	1072.27	77.8043	1072.27	71.9207	1072.27	73.6619	1072.27	54.4821	1072.27	64.8098	1072.27	68.9336	1072.27	68.1572	1072.27	73.6132	1072.27	73.2184	1072.27	74.652
1108.89	85.5356	1108.89	85.3858	1108.89	85.4479	1108.89	85.0485	1108.89	85.1463	1108.89	84.6106	1108.89	84.7208	1108.89	84.1159	1108.89	84.2539	1108.89	83.4758	1108.89	83.6964	1108.89	82.4529	1108.89	82.8255	1108.89	80.7365	1108.89	81.3414	1108.89	78.1398	1108.89	79.0497	1108.89	75.531	1108.89	76.5013	1108.89	75.6244	1108.89	75.8913	1108.89	77.1559	1108.89	77.021	1108.89	77.5706	1108.89	77.436	1108.89	76.1178	1108.89	76.1457	1108.89	71.9045	1108.89	72.2152	1108.89	61.5722	1108.89	62.3023	1108.89	67.7812	1108.89	67.9416	1108.89	72.9449	1108.89	73.1296	1108.89	74.3641
1148.44	85.8608	1148.44	85.712	1148.44	85.7882	1148.44	85.3602	1148.44	85.5093	1148.44	84.8474	1148.44	85.0658	1148.44	84.2165	1148.44	84.4923	1148.44	83.4539	1148.44	83.7532	1148.44	82.41	1148.44	82.6988	1148.44	80.7979	1148.44	81.1068	1148.44	78.4307	1148.44	78.8931	1148.44	76.2731	1148.44	76.8707	1148.44	76.7395	1148.44	76.9357	1148.44	78.2356	1148.44	78.163	1148.44	78.481	1148.44	78.5106	1148.44	76.7495	1148.44	77.1178	1148.44	71.8536	1148.44	72.8423	1148.44	55.7754	1148.44	60.5356	1148.44	69.702	1148.44	69.8147	1148.44	74.511	1148.44	74.7065	1148.44	75.8332
1189.45	86.1765	1189.45	86.0165	1189.45	86.0118	1189.45	85.5515	1189.45	85.5783	1189.45	84.9186	1189.45	84.9814	1189.45	84.312	1189.45	84.3568	1189.45	83.7595	1189.45	83.7735	1189.45	83.0197	1189.45	83.0935	1189.45	81.7425	1189.45	81.9754	1189.45	79.6172	1189.45	80.0329	1189.45	76.6531	1189.45	77.1934	1189.45	74.8227	1189.45	75.2918	1189.45	76.2479	1189.45	76.5727	1189.45	77.5645	1189.45	77.8365	1189.45	76.8809	1189.45	77.1233	1189.45	73.0626	1189.45	73.3535	1189.45	59.5805	1189.45	60.574	1189.45	68.7754	1189.45	67.5729	1189.45	74.1025	1189.45	73.6019	1189.45	75.1884
1230.47	86.2927	1230.47	86.0877	1230.47	86.1759	1230.47	85.6109	1230.47	85.7115	1230.47	84.8964	1230.47	84.9496	1230.47	83.9983	1230.47	84.0281	1230.47	83.047	1230.47	83.1001	1230.47	82.1094	1230.47	82.1728	1230.47	80.9562	1230.47	81.0252	1230.47	79.2215	1230.47	79.3391	1230.47	77.0605	1230.47	77.0745	1230.47	76.0936	1230.47	75.5692	1230.47	76.9913	1230.47	76.4954	1230.47	77.6264	1230.47	77.658	1230.47	76.673	1230.47	77.194	1230.47	73.1167	1230.47	74.1628	1230.47	62.4861	1230.47	65.243	1230.47	65.3547	1230.47	63.7492	1230.47	72.2363	1230.47	71.9951	1230.47	73.7578
1274.41	86.3506	1274.41	86.1289	1274.41	86.2096	1274.41	85.5664	1274.41	85.7151	1274.41	84.7474	1274.41	84.8973	1274.41	83.8093	1274.41	83.8616	1274.41	82.8765	1274.41	82.8219	1274.41	81.9655	1274.41	81.9234	1274.41	80.9045	1274.41	80.9717	1274.41	79.3437	1274.41	79.5196	1274.41	76.9777	1274.41	77.3049	1274.41	74.5813	1274.41	75.2511	1274.41	74.673	1274.41	75.4236	1274.41	75.6596	1274.41	76.3422	1274.41	74.8815	1274.41	75.8675	1274.41	70.9789	1274.41	72.9199	1274.41	60.0669	1274.41	64.0664	1274.41	68.3873	1274.41	65.3128	1274.41	73.3499	1274.41	72.632	1274.41	74.4901
1319.82	86.5839	1319.82	86.3372	1319.82	86.4388	1319.82	85.7514	1319.82	85.8987	1319.82	84.8667	1319.82	85.0821	1319.82	83.7601	1319.82	84.1632	1319.82	82.5866	1319.82	83.2113	1319.82	81.4195	1319.82	82.1588	1319.82	80.0521	1319.82	80.8861	1319.82	78.1325	1319.82	79.2286	1319.82	75.7461	1319.82	77.1169	1319.82	74.7126	1319.82	75.4421	1319.82	76.0821	1319.82	75.8788	1319.82	77.2079	1319.82	77.0277	1319.82	76.5814	1319.82	76.8194	1319.82	73.2635	1319.82	74.072	1319.82	63.7485	1319.82	66.0266	1319.82	65.6202	1319.82	64.9946	1319.82	72.128	1319.82	72.0036	1319.82	73.6223
1366.7	86.6034	1366.7	86.393	1366.7	86.455	1366.7	85.7768	1366.7	85.9914	1366.7	84.7671	1366.7	85.2124	1366.7	83.5125	1366.7	84.1567	1366.7	82.3551	1366.7	83.0312	1366.7	81.5269	1366.7	82.0765	1366.7	80.7105	1366.7	81.1817	1366.7	79.388	1366.7	79.8878	1366.7	77.3999	1366.7	77.7773	1366.7	75.4002	1366.7	75.2823	1366.7	74.9284	1366.7	75.0568	1366.7	75.6394	1366.7	76.5101	1366.7	75.4675	1366.7	76.4826	1366.7	72.8194	1366.7	73.6068	1366.7	64.1726	1366.7	64.4268	1366.7	64.6465	1366.7	63.8768	1366.7	71.7	1366.7	71.5355	1366.7	73.2186
1413.57	87.0553	1413.57	86.784	1413.57	86.9195	1413.57	86.103	1413.57	86.3789	1413.57	85.0587	1413.57	85.4621	1413.57	83.8102	1413.57	84.2443	1413.57	82.5399	1413.57	82.8611	1413.57	81.2983	1413.57	81.4984	1413.57	79.9484	1413.57	80.1453	1413.57	78.0957	1413.57	78.3609	1413.57	75.1974	1413.57	75.7746	1413.57	72.4588	1413.57	73.9932	1413.57	74.2083	1413.57	75.37	1413.57	76.264	1413.57	76.8294	1413.57	75.9596	1413.57	76.5611	1413.57	72.5826	1413.57	73.8301	1413.57	61.4702	1413.57	65.5511	1413.57	65.8397	1413.57	63.3417	1413.57	72.6163	1413.57	72.2168	1413.57	74.1477
1463.38	86.4364	1463.38	86.2444	1463.38	86.2239	1463.38	85.6574	1463.38	85.629	1463.38	84.7093	1463.38	84.6873	1463.38	83.4726	1463.38	83.4427	1463.38	82.1459	1463.38	82.0281	1463.38	80.9874	1463.38	80.7753	1463.38	79.9129	1463.38	79.9024	1463.38	78.4326	1463.38	78.9193	1463.38	76.1377	1463.38	76.9411	1463.38	73.5084	1463.38	73.7376	1463.38	73.3946	1463.38	72.6865	1463.38	75.3372	1463.38	74.9134	1463.38	75.9617	1463.38	75.9291	1463.38	73.9502	1463.38	74.4411	1463.38	67.0468	1463.38	68.4692	1463.38	59.0467	1463.38	57.8356	1463.38	70.2443	1463.38	70.491	1463.38	72.5278
1516.11	85.5618	1516.11	85.4125	1516.11	85.3743	1516.11	84.851	1516.11	84.8892	1516.11	83.8608	1516.11	84.049	1516.11	82.5145	1516.11	82.7766	1516.11	81.0433	1516.11	81.1771	1516.11	79.8867	1516.11	79.7314	1516.11	79.2119	1516.11	78.833	1516.11	78.4007	1516.11	77.9213	1516.11	76.4968	1516.11	75.9254	1516.11	72.8173	1516.11	71.7261	1516.11	70.6229	1516.11	69.0904	1516.11	73.5135	1516.11	73.6272	1516.11	74.8322	1516.11	75.4462	1516.11	73.1665	1516.11	73.93	1516.11	66.7409	1516.11	67.735	1516.11	55.759	1516.11	55.1944	1516.11	68.9072	1516.11	69.1656	1516.11	71.2783
1568.85	85.4184	1568.85	85.162	1568.85	85.2898	1568.85	84.5016	1568.85	84.7863	1568.85	83.4242	1568.85	83.9063	1568.85	81.9755	1568.85	82.6254	1568.85	80.2539	1568.85	80.9639	1568.85	78.476	1568.85	79.1862	1568.85	77.1457	1568.85	77.8125	1568.85	76.2551	1568.85	76.8121	1568.85	74.7085	1568.85	75.3176	1568.85	71.6734	1568.85	72.7007	1568.85	70.4152	1568.85	70.968	1568.85	72.9143	1568.85	73.0115	1568.85	73.6834	1568.85	74.3626	1568.85	71.4832	1568.85	72.9826	1568.85	63.739	1568.85	66.9433	1568.85	60.3288	1568.85	57.1816	1568.85	69.8937	1568.85	69.5586	1568.85	71.8695
1624.51	85.8239	1624.51	85.5267	1624.51	85.7362	1624.51	84.8305	1624.51	85.2601	1624.51	83.781	1624.51	84.3579	1624.51	82.3932	1624.51	83.0452	1624.51	80.5709	1624.51	81.4439	1624.51	78.4891	1624.51	79.8086	1624.51	76.9367	1624.51	78.5481	1624.51	76.0006	1624.51	77.798	1624.51	74.6273	1624.51	76.7544	1624.51	72.1439	1624.51	74.1897	1624.51	69.7582	1624.51	69.8947	1624.51	71.7556	1624.51	70.7649	1624.51	73.9066	1624.51	73.6914	1624.51	73.0233	1624.51	73.1642	1624.51	66.8028	1624.51	67.5092	1624.51	59.2183	1624.51	56.591	1624.51	70.3703	1624.51	69.2655	1624.51	71.9707
1681.64	85.6543	1681.64	85.4146	1681.64	85.5316	1681.64	84.8797	1681.64	84.9894	1681.64	83.987	1681.64	84.1304	1681.64	82.6616	1681.64	83.0058	1681.64	80.9481	1681.64	81.4272	1681.64	79.0431	1681.64	79.4453	1681.64	77.4562	1681.64	77.869	1681.64	76.6059	1681.64	77.048	1681.64	75.5492	1681.64	75.9099	1681.64	72.8139	1681.64	73.4289	1681.64	68.591	1681.64	69.4346	1681.64	70.1404	1681.64	69.3149	1681.64	73.1172	1681.64	72.5613	1681.64	73.1271	1681.64	72.8226	1681.64	68.8761	1681.64	68.4278	1681.64	52.3446	1681.64	53.2247	1681.64	68.0049	1681.64	67.8384	1681.64	70.5627
1741.7	84.7168	1741.7	84.5953	1741.7	84.5049	1741.7	84.2039	1741.7	84.0174	1741.7	83.5557	1741.7	83.3679	1741.7	82.5616	1741.7	82.4289	1741.7	81.1441	1741.7	80.9791	1741.7	79.4011	1741.7	79.0456	1741.7	77.7189	1741.7	76.9981	1741.7	76.4995	1741.7	75.6378	1741.7	75.378	1741.7	75.0673	1741.7	73.3337	1741.7	73.591	1741.7	69.9558	1741.7	69.9936	1741.7	69.3479	1741.7	68.2868	1741.7	71.7808	1741.7	71.0352	1741.7	71.6972	1741.7	71.6752	1741.7	67.0417	1741.7	67.855	1741.7	53.2606	1741.7	55.8275	1741.7	68.0936	1741.7	68.8156	1741.7	70.9864
1803.22	84.432	1803.22	84.3023	1803.22	84.1772	1803.22	83.7051	1803.22	83.6945	1803.22	82.7451	1803.22	82.939	1803.22	81.6203	1803.22	81.8095	1803.22	80.3788	1803.22	80.411	1803.22	78.7809	1803.22	78.8567	1803.22	76.9701	1803.22	77.2467	1803.22	75.5795	1803.22	76.0499	1803.22	74.4243	1803.22	75.3503	1803.22	72.7667	1803.22	74.0047	1803.22	70.2963	1803.22	70.7535	1803.22	69.8626	1803.22	67.7508	1803.22	72.0344	1803.22	70.8212	1803.22	71.7744	1803.22	71.8072	1803.22	66.9953	1803.22	68.2545	1803.22	47.3465	1803.22	46.7932	1803.22	67.5442	1803.22	66.5426	1803.22	70.0335
1866.21	85.0809	1866.21	84.8959	1866.21	84.8548	1866.21	84.1723	1866.21	84.3899	1866.21	83.1033	1866.21	83.5883	1866.21	81.8282	1866.21	82.3771	1866.21	80.2674	1866.21	80.8701	1866.21	78.4546	1866.21	79.2218	1866.21	76.5774	1866.21	77.7248	1866.21	75.1618	1866.21	76.7461	1866.21	74.6624	1866.21	75.9167	1866.21	73.6992	1866.21	74.2572	1866.21	70.6271	1866.21	71.5066	1866.21	68.5855	1866.21	69.6742	1866.21	71.281	1866.21	71.3022	1866.21	71.4271	1866.21	72.5989	1866.21	67.593	1866.21	70.4797	1866.21	52.4002	1866.21	60.269	1866.21	63.5075	1866.21	63.4608	1866.21	67.4555
1932.13	85.2162	1932.13	85.0188	1932.13	85.0457	1932.13	84.4165	1932.13	84.465	1932.13	83.4518	1932.13	83.4528	1932.13	82.2095	1932.13	82.2116	1932.13	80.6789	1932.13	80.7971	1932.13	78.9648	1932.13	78.9574	1932.13	77.3583	1932.13	76.9892	1932.13	76.1726	1932.13	75.5694	1932.13	75.5195	1932.13	74.4331	1932.13	74.2461	1932.13	72.9526	1932.13	71.1958	1932.13	70.5193	1932.13	68.1887	1932.13	68.8943	1932.13	69.7039	1932.13	71.1759	1932.13	71.272	1932.13	72.1086	1932.13	69.3764	1932.13	69.3378	1932.13	58.0804	1932.13	59.2501	1932.13	64.2203	1932.13	64.3577	1932.13	67.9652
1999.51	84.2047	1999.51	84.0328	1999.51	83.9816	1999.51	83.471	1999.51	83.4399	1999.51	82.6338	1999.51	82.5352	1999.51	81.5655	1999.51	81.3297	1999.51	80.291	1999.51	79.9826	1999.51	78.7496	1999.51	78.2543	1999.51	77.0937	1999.51	75.9668	1999.51	76.0769	1999.51	73.9234	1999.51	75.4076	1999.51	72.7911	1999.51	74	1999.51	72.0972	1999.51	71.5448	1999.51	70.4229	1999.51	68.6902	1999.51	66.5831	1999.51	69.6484	1999.51	67.7243	1999.51	70.8689	1999.51	70.1899	1999.51	67.7405	1999.51	68.3493	1999.51	55.3693	1999.51	58.0688	1999.51	65.2764	1999.51	65.7718	1999.51	68.6271
2069.82	84.5541	2069.82	84.2448	2069.82	84.4393	2069.82	83.4578	2069.82	83.9497	2069.82	82.4493	2069.82	82.9583	2069.82	81.3019	2069.82	81.7571	2069.82	80.0762	2069.82	80.587	2069.82	78.6687	2069.82	79.1174	2069.82	76.8069	2069.82	77.0569	2069.82	75.2971	2069.82	74.4406	2069.82	74.4647	2069.82	72.8066	2069.82	73.124	2069.82	72.8771	2069.82	71.2396	2069.82	71.7293	2069.82	68.8506	2069.82	68.8339	2069.82	69.2122	2069.82	69.1702	2069.82	71.1917	2069.82	71.5452	2069.82	69.2582	2069.82	69.7966	2069.82	56.3134	2069.82	59.5807	2069.82	63.6476	2069.82	61.0333	2069.82	66.6412
2143.07	85.2011	2143.07	84.9589	2143.07	84.9878	2143.07	84.2245	2143.07	84.3857	2143.07	83.2054	2143.07	83.4657	2143.07	82.0291	2143.07	82.3294	2143.07	80.6859	2143.07	81.1249	2143.07	79.2157	2143.07	79.8479	2143.07	77.2653	2143.07	78.2036	2143.07	75.1297	2143.07	76.3811	2143.07	73.4948	2143.07	75.1904	2143.07	72.5247	2143.07	74.3326	2143.07	71.8617	2143.07	72.7002	2143.07	69.0682	2143.07	69.5966	2143.07	69.4204	2143.07	68.6277	2143.07	71.8925	2143.07	71.9675	2143.07	71.2302	2143.07	71.9147	2143.07	65.8043	2143.07	66.0911	2143.07	57.8739	2143.07	59.9075	2143.07	64.5218
2219.24	85.3054	2219.24	85.0915	2219.24	85.0915	2219.24	84.4456	2219.24	84.4456	2219.24	83.3401	2219.24	83.3401	2219.24	81.8866	2219.24	81.8866	2219.24	80.4842	2219.24	80.4842	2219.24	79.2034	2219.24	79.2034	2219.24	77.6132	2219.24	77.6132	2219.24	75.7829	2219.24	75.7829	2219.24	74.2546	2219.24	74.2546	2219.24	73.0557	2219.24	73.0557	2219.24	71.8682	2219.24	71.8682	2219.24	69.8457	2219.24	69.8457	2219.24	68.9249	2219.24	68.9249	2219.24	71.2265	2219.24	71.2265	2219.24	71.0355	2219.24	71.0355	2219.24	66.1595	2219.24	66.1595	2219.24	62.5827	2219.24	62.5827	2219.24	66.435
2296.88	84.4548	2296.88	84.2681	2296.88	84.2681	2296.88	83.7284	2296.88	83.7284	2296.88	82.8679	2296.88	82.8679	2296.88	81.7372	2296.88	81.7372	2296.88	80.4994	2296.88	80.4994	2296.88	79.1419	2296.88	79.1419	2296.88	77.3558	2296.88	77.3558	2296.88	75.5509	2296.88	75.5509	2296.88	74.5844	2296.88	74.5844	2296.88	73.4281	2296.88	73.4281	2296.88	71.552	2296.88	71.552	2296.88	69.7553	2296.88	69.7553	2296.88	67.5266	2296.88	67.5266	2296.88	69.9509	2296.88	69.9509	2296.88	70.6351	2296.88	70.6351	2296.88	66.7286	2296.88	66.7286	2296.88	64.1052	2296.88	64.1052	2296.88	66.5037
2378.91	85.0603	2378.91	84.916	2378.91	84.916	2378.91	84.4463	2378.91	84.4463	2378.91	83.6692	2378.91	83.6692	2378.91	82.6028	2378.91	82.6028	2378.91	81.3128	2378.91	81.3128	2378.91	80.0216	2378.91	80.0216	2378.91	78.4223	2378.91	78.4223	2378.91	76.2148	2378.91	76.2148	2378.91	74.6319	2378.91	74.6319	2378.91	73.8451	2378.91	73.8451	2378.91	72.3072	2378.91	72.3072	2378.91	70.783	2378.91	70.783	2378.91	68.6938	2378.91	68.6938	2378.91	69.035	2378.91	69.035	2378.91	69.8809	2378.91	69.8809	2378.91	66.138	2378.91	66.138	2378.91	66.6263	2378.91	66.6263	2378.91	69.2372
2462.4	84.841	2462.4	84.6926	2462.4	84.6926	2462.4	84.2689	2462.4	84.2689	2462.4	83.6219	2462.4	83.6219	2462.4	82.7507	2462.4	82.7507	2462.4	81.5264	2462.4	81.5264	2462.4	80.1692	2462.4	80.1692	2462.4	78.8352	2462.4	78.8352	2462.4	76.7935	2462.4	76.7935	2462.4	74.8837	2462.4	74.8837	2462.4	74.022	2462.4	74.022	2462.4	72.3608	2462.4	72.3608	2462.4	70.907	2462.4	70.907	2462.4	69.3773	2462.4	69.3773	2462.4	69.7771	2462.4	69.7771	2462.4	70.1793	2462.4	70.1793	2462.4	66.0636	2462.4	66.0636	2462.4	66.7226	2462.4	66.7226	2462.4	69.5694
2548.83	84.3391	2548.83	84.1918	2548.83	84.1918	2548.83	83.7403	2548.83	83.7403	2548.83	83.0606	2548.83	83.0606	2548.83	82.124	2548.83	82.124	2548.83	80.8981	2548.83	80.8981	2548.83	79.4928	2548.83	79.4928	2548.83	78.3181	2548.83	78.3181	2548.83	76.7139	2548.83	76.7139	2548.83	74.5079	2548.83	74.5079	2548.83	73.4183	2548.83	73.4183	2548.83	71.95	2548.83	71.95	2548.83	70.8878	2548.83	70.8878	2548.83	69.5124	2548.83	69.5124	2548.83	69.0763	2548.83	69.0763	2548.83	69.983	2548.83	69.983	2548.83	65.24	2548.83	65.24	2548.83	65.2731	2548.83	65.2731	2548.83	68.9774
2639.65	84.8955	2639.65	84.7558	2639.65	84.7558	2639.65	84.3931	2639.65	84.3931	2639.65	83.7696	2639.65	83.7696	2639.65	82.8683	2639.65	82.8683	2639.65	81.5506	2639.65	81.5506	2639.65	79.9276	2639.65	79.9276	2639.65	78.7229	2639.65	78.7229	2639.65	77.0774	2639.65	77.0774	2639.65	74.9768	2639.65	74.9768	2639.65	73.6286	2639.65	73.6286	2639.65	71.6731	2639.65	71.6731	2639.65	71.0546	2639.65	71.0546	2639.65	69.7322	2639.65	69.7322	2639.65	69.2383	2639.65	69.2383	2639.65	70.8158	2639.65	70.8158	2639.65	67.0905	2639.65	67.0905	2639.65	65.0997	2639.65	65.0997	2639.65	68.6339
2731.93	84.945	2731.93	84.8127	2731.93	84.8127	2731.93	84.4888	2731.93	84.4888	2731.93	83.9721	2731.93	83.9721	2731.93	83.2837	2731.93	83.2837	2731.93	82.2023	2731.93	82.2023	2731.93	80.5481	2731.93	80.5481	2731.93	79.0472	2731.93	79.0472	2731.93	77.4777	2731.93	77.4777	2731.93	75.2082	2731.93	75.2082	2731.93	74.2228	2731.93	74.2228	2731.93	72.0954	2731.93	72.0954	2731.93	70.8753	2731.93	70.8753	2731.93	70.8186	2731.93	70.8186	2731.93	68.792	2731.93	68.792	2731.93	70.7755	2731.93	70.7755	2731.93	68.3961	2731.93	68.3961	2731.93	66.093	2731.93	66.093	2731.93	69.5075
2828.61	84.6101	2828.61	84.5675	2828.61	84.5675	2828.61	84.3143	2828.61	84.3143	2828.61	83.82	2828.61	83.82	2828.61	83.1715	2828.61	83.1715	2828.61	82.3421	2828.61	82.3421	2828.61	80.9557	2828.61	80.9557	2828.61	79.186	2828.61	79.186	2828.61	77.7703	2828.61	77.7703	2828.61	75.4167	2828.61	75.4167	2828.61	73.9672	2828.61	73.9672	2828.61	72.4997	2828.61	72.4997	2828.61	70.229	2828.61	70.229	2828.61	70.9239	2828.61	70.9239	2828.61	69.475	2828.61	69.475	2828.61	70.8502	2828.61	70.8502	2828.61	68.2318	2828.61	68.2318	2828.61	66.5735	2828.61	66.5735	2828.61	70.1879
2928.22	84.6432	2928.22	84.5983	2928.22	84.5983	2928.22	84.5001	2928.22	84.5001	2928.22	84.0643	2928.22	84.0643	2928.22	83.2744	2928.22	83.2744	2928.22	82.2809	2928.22	82.2809	2928.22	80.8277	2928.22	80.8277	2928.22	79.0869	2928.22	79.0869	2928.22	77.5337	2928.22	77.5337	2928.22	75.3067	2928.22	75.3067	2928.22	73.5748	2928.22	73.5748	2928.22	72.8889	2928.22	72.8889	2928.22	70.2943	2928.22	70.2943	2928.22	70.8912	2928.22	70.8912	2928.22	69.5182	2928.22	69.5182	2928.22	70.9109	2928.22	70.9109	2928.22	68.1659	2928.22	68.1659	2928.22	64.9695	2928.22	64.9695	2928.22	69.0084
3030.76	85.8637	3030.76	85.7542	3030.76	85.7542	3030.76	85.634	3030.76	85.634	3030.76	85.2149	3030.76	85.2149	3030.76	84.454	3030.76	84.454	3030.76	83.2873	3030.76	83.2873	3030.76	81.6661	3030.76	81.6661	3030.76	79.8019	3030.76	79.8019	3030.76	78.014	3030.76	78.014	3030.76	75.9596	3030.76	75.9596	3030.76	73.4797	3030.76	73.4797	3030.76	72.5835	3030.76	72.5835	3030.76	70.0216	3030.76	70.0216	3030.76	71.1347	3030.76	71.1347	3030.76	69.2476	3030.76	69.2476	3030.76	71.1035	3030.76	71.1035	3030.76	68.9502	3030.76	68.9502	3030.76	66.7172	3030.76	66.7172	3030.76	69.8766
3137.7	85.509	3137.7	85.5164	3137.7	85.5164	3137.7	85.5142	3137.7	85.5142	3137.7	85.302	3137.7	85.302	3137.7	84.5779	3137.7	84.5779	3137.7	83.6168	3137.7	83.6168	3137.7	82.1512	3137.7	82.1512	3137.7	80.2726	3137.7	80.2726	3137.7	78.3187	3137.7	78.3187	3137.7	76.5984	3137.7	76.5984	3137.7	73.7411	3137.7	73.7411	3137.7	73.1209	3137.7	73.1209	3137.7	69.6675	3137.7	69.6675	3137.7	70.9679	3137.7	70.9679	3137.7	69.9746	3137.7	69.9746	3137.7	71.4233	3137.7	71.4233	3137.7	70.1658	3137.7	70.1658	3137.7	67.2236	3137.7	67.2236	3137.7	70.0752
3249.02	86.6108	3249.02	86.5535	3249.02	86.5535	3249.02	86.3963	3249.02	86.3963	3249.02	86.0122	3249.02	86.0122	3249.02	85.186	3249.02	85.186	3249.02	84.0096	3249.02	84.0096	3249.02	82.3802	3249.02	82.3802	3249.02	80.5668	3249.02	80.5668	3249.02	78.2045	3249.02	78.2045	3249.02	76.6376	3249.02	76.6376	3249.02	73.8322	3249.02	73.8322	3249.02	72.7098	3249.02	72.7098	3249.02	70.2378	3249.02	70.2378	3249.02	70.1686	3249.02	70.1686	3249.02	70.4806	3249.02	70.4806	3249.02	70.8884	3249.02	70.8884	3249.02	70.4309	3249.02	70.4309	3249.02	66.5342	3249.02	66.5342	3249.02	70.5633
3363.28	86.1637	3363.28	86.2035	3363.28	86.2035	3363.28	86.3496	3363.28	86.3496	3363.28	86.2501	3363.28	86.2501	3363.28	85.6316	3363.28	85.6316	3363.28	84.6073	3363.28	84.6073	3363.28	83.0838	3363.28	83.0838	3363.28	81.4422	3363.28	81.4422	3363.28	78.8953	3363.28	78.8953	3363.28	77.0314	3363.28	77.0314	3363.28	74.8915	3363.28	74.8915	3363.28	72.8885	3363.28	72.8885	3363.28	71.2305	3363.28	71.2305	3363.28	69.5584	3363.28	69.5584	3363.28	70.4658	3363.28	70.4658	3363.28	71.1328	3363.28	71.1328	3363.28	70.969	3363.28	70.969	3363.28	66.6865	3363.28	66.6865	3363.28	71.1931
3481.93	85.7369	3481.93	85.9075	3481.93	85.9075	3481.93	86.2415	3481.93	86.2415	3481.93	86.2814	3481.93	86.2814	3481.93	85.7985	3481.93	85.7985	3481.93	84.7523	3481.93	84.7523	3481.93	83.1111	3481.93	83.1111	3481.93	81.3322	3481.93	81.3322	3481.93	78.9777	3481.93	78.9777	3481.93	77.0693	3481.93	77.0693	3481.93	75.3049	3481.93	75.3049	3481.93	72.9142	3481.93	72.9142	3481.93	71.8204	3481.93	71.8204	3481.93	69.7555	3481.93	69.7555	3481.93	70.5749	3481.93	70.5749	3481.93	70.9379	3481.93	70.9379	3481.93	71.4482	3481.93	71.4482	3481.93	66.4095	3481.93	66.4095	3481.93	69.9878
3604.98	84.9018	3604.98	85.2581	3604.98	85.2581	3604.98	85.6811	3604.98	85.6811	3604.98	85.8462	3604.98	85.8462	3604.98	85.4896	3604.98	85.4896	3604.98	84.56	3604.98	84.56	3604.98	82.9447	3604.98	82.9447	3604.98	81.0863	3604.98	81.0863	3604.98	78.6924	3604.98	78.6924	3604.98	76.6316	3604.98	76.6316	3604.98	74.4722	3604.98	74.4722	3604.98	72.2812	3604.98	72.2812	3604.98	71.1175	3604.98	71.1175	3604.98	67.9931	3604.98	67.9931	3604.98	70.1469	3604.98	70.1469	3604.98	70.2243	3604.98	70.2243	3604.98	70.4845	3604.98	70.4845	3604.98	65.358	3604.98	65.358	3604.98	69.3358
3732.42	85.3209	3732.42	85.6438	3732.42	85.6438	3732.42	86.067	3732.42	86.067	3732.42	86.2224	3732.42	86.2224	3732.42	85.7962	3732.42	85.7962	3732.42	84.6714	3732.42	84.6714	3732.42	83.0327	3732.42	83.0327	3732.42	81.1093	3732.42	81.1093	3732.42	78.9467	3732.42	78.9467	3732.42	76.8695	3732.42	76.8695	3732.42	74.5665	3732.42	74.5665	3732.42	72.8727	3732.42	72.8727	3732.42	71.5569	3732.42	71.5569	3732.42	67.7271	3732.42	67.7271	3732.42	70.7996	3732.42	70.7996	3732.42	70.0786	3732.42	70.0786	3732.42	71.1635	3732.42	71.1635	3732.42	64.7709	3732.42	64.7709	3732.42	69.3208
3864.26	84.9253	3864.26	85.3233	3864.26	85.3233	3864.26	85.7565	3864.26	85.7565	3864.26	86.0039	3864.26	86.0039	3864.26	85.6367	3864.26	85.6367	3864.26	84.6472	3864.26	84.6472	3864.26	82.9845	3864.26	82.9845	3864.26	80.9916	3864.26	80.9916	3864.26	78.6502	3864.26	78.6502	3864.26	76.5501	3864.26	76.5501	3864.26	74.2028	3864.26	74.2028	3864.26	72.0074	3864.26	72.0074	3864.26	71.0245	3864.26	71.0245	3864.26	67.1821	3864.26	67.1821	3864.26	69.902	3864.26	69.902	3864.26	69.2754	3864.26	69.2754	3864.26	70.7267	3864.26	70.7267	3864.26	63.3036	3864.26	63.3036	3864.26	69.2435
4000.49	85.6941	4000.49	86.1208	4000.49	86.1208	4000.49	86.3571	4000.49	86.3571	4000.49	86.4223	4000.49	86.4223	4000.49	85.954	4000.49	85.954	4000.49	84.7773	4000.49	84.7773	4000.49	83.2623	4000.49	83.2623	4000.49	81.173	4000.49	81.173	4000.49	78.8279	4000.49	78.8279	4000.49	76.8923	4000.49	76.8923	4000.49	74.5215	4000.49	74.5215	4000.49	72.656	4000.49	72.656	4000.49	71.306	4000.49	71.306	4000.49	68.0397	4000.49	68.0397	4000.49	69.2144	4000.49	69.2144	4000.49	69.0664	4000.49	69.0664	4000.49	70.9676	4000.49	70.9676	4000.49	62.3746	4000.49	62.3746	4000.49	69.1588
4141.11	85.7101	4141.11	86.0807	4141.11	86.0807	4141.11	86.3903	4141.11	86.3903	4141.11	86.4025	4141.11	86.4025	4141.11	86.0022	4141.11	86.0022	4141.11	84.8512	4141.11	84.8512	4141.11	83.2391	4141.11	83.2391	4141.11	81.1094	4141.11	81.1094	4141.11	78.9567	4141.11	78.9567	4141.11	76.7715	4141.11	76.7715	4141.11	74.259	4141.11	74.259	4141.11	71.9905	4141.11	71.9905	4141.11	70.4813	4141.11	70.4813	4141.11	68.0986	4141.11	68.0986	4141.11	69.0888	4141.11	69.0888	4141.11	68.4097	4141.11	68.4097	4141.11	70.828	4141.11	70.828	4141.11	62.2695	4141.11	62.2695	4141.11	68.1467
4287.6	85.9918	4287.6	86.2491	4287.6	86.2491	4287.6	86.4945	4287.6	86.4945	4287.6	86.3554	4287.6	86.3554	4287.6	85.8104	4287.6	85.8104	4287.6	84.6119	4287.6	84.6119	4287.6	83.0244	4287.6	83.0244	4287.6	80.8406	4287.6	80.8406	4287.6	78.7539	4287.6	78.7539	4287.6	76.6556	4287.6	76.6556	4287.6	74.7282	4287.6	74.7282	4287.6	72.186	4287.6	72.186	4287.6	71.1354	4287.6	71.1354	4287.6	68.9691	4287.6	68.9691	4287.6	69.5266	4287.6	69.5266	4287.6	68.9433	4287.6	68.9433	4287.6	70.7418	4287.6	70.7418	4287.6	60.8907	4287.6	60.8907	4287.6	66.7949
4438.48	86.3751	4438.48	86.6358	4438.48	86.6358	4438.48	86.6391	4438.48	86.6391	4438.48	86.5771	4438.48	86.5771	4438.48	85.9664	4438.48	85.9664	4438.48	84.8318	4438.48	84.8318	4438.48	83.1081	4438.48	83.1081	4438.48	80.9245	4438.48	80.9245	4438.48	78.6617	4438.48	78.6617	4438.48	76.5237	4438.48	76.5237	4438.48	74.2585	4438.48	74.2585	4438.48	71.8411	4438.48	71.8411	4438.48	69.7112	4438.48	69.7112	4438.48	69.4474	4438.48	69.4474	4438.48	67.8626	4438.48	67.8626	4438.48	69.3482	4438.48	69.3482	4438.48	70.924	4438.48	70.924	4438.48	65.1773	4438.48	65.1773	4438.48	67.1997
4595.21	86.4523	4595.21	86.4878	4595.21	86.4878	4595.21	86.2893	4595.21	86.2893	4595.21	86.0149	4595.21	86.0149	4595.21	85.2735	4595.21	85.2735	4595.21	84.2231	4595.21	84.2231	4595.21	82.4714	4595.21	82.4714	4595.21	80.3421	4595.21	80.3421	4595.21	77.981	4595.21	77.981	4595.21	76.1049	4595.21	76.1049	4595.21	73.7304	4595.21	73.7304	4595.21	71.338	4595.21	71.338	4595.21	69.8143	4595.21	69.8143	4595.21	68.1429	4595.21	68.1429	4595.21	64.9486	4595.21	64.9486	4595.21	69.0893	4595.21	69.0893	4595.21	69.655	4595.21	69.655	4595.21	65.0188	4595.21	65.0188	4595.21	67.7739
4756.35	86.23	4756.35	86.2409	4756.35	86.2409	4756.35	86.002	4756.35	86.002	4756.35	85.7669	4756.35	85.7669	4756.35	85.1299	4756.35	85.1299	4756.35	84.0556	4756.35	84.0556	4756.35	82.5517	4756.35	82.5517	4756.35	80.2903	4756.35	80.2903	4756.35	78.2081	4756.35	78.2081	4756.35	76.256	4756.35	76.256	4756.35	73.4269	4756.35	73.4269	4756.35	71.2785	4756.35	71.2785	4756.35	68.8587	4756.35	68.8587	4756.35	67.4979	4756.35	67.4979	4756.35	65.5143	4756.35	65.5143	4756.35	68.7296	4756.35	68.7296	4756.35	69.2651	4756.35	69.2651	4756.35	65.6015	4756.35	65.6015	4756.35	66.9294
4924.8	85.7341	4924.8	85.6848	4924.8	85.6848	4924.8	85.4023	4924.8	85.4023	4924.8	84.8605	4924.8	84.8605	4924.8	84.3787	4924.8	84.3787	4924.8	83.1687	4924.8	83.1687	4924.8	81.6705	4924.8	81.6705	4924.8	79.5171	4924.8	79.5171	4924.8	77.3839	4924.8	77.3839	4924.8	75.1256	4924.8	75.1256	4924.8	72.0848	4924.8	72.0848	4924.8	71.0006	4924.8	71.0006	4924.8	68.2804	4924.8	68.2804	4924.8	67.7047	4924.8	67.7047	4924.8	64.7705	4924.8	64.7705	4924.8	68.807	4924.8	68.807	4924.8	69.1291	4924.8	69.1291	4924.8	65.0072	4924.8	65.0072	4924.8	63.5826
5097.66	85.4834	5097.66	85.3354	5097.66	85.3354	5097.66	84.877	5097.66	84.877	5097.66	84.3389	5097.66	84.3389	5097.66	83.9583	5097.66	83.9583	5097.66	83.0809	5097.66	83.0809	5097.66	81.8023	5097.66	81.8023	5097.66	79.6178	5097.66	79.6178	5097.66	77.5891	5097.66	77.5891	5097.66	75.9314	5097.66	75.9314	5097.66	72.3683	5097.66	72.3683	5097.66	70.8411	5097.66	70.8411	5097.66	67.8959	5097.66	67.8959	5097.66	66.0561	5097.66	66.0561	5097.66	64.4591	5097.66	64.4591	5097.66	68.4532	5097.66	68.4532	5097.66	68.2674	5097.66	68.2674	5097.66	64.1623	5097.66	64.1623	5097.66	66.5591
5277.83	85.6246	5277.83	85.3691	5277.83	85.3691	5277.83	84.7837	5277.83	84.7837	5277.83	84.1472	5277.83	84.1472	5277.83	83.8561	5277.83	83.8561	5277.83	83.0495	5277.83	83.0495	5277.83	81.8223	5277.83	81.8223	5277.83	79.5234	5277.83	79.5234	5277.83	77.3946	5277.83	77.3946	5277.83	75.0917	5277.83	75.0917	5277.83	72.512	5277.83	72.512	5277.83	70.567	5277.83	70.567	5277.83	66.9488	5277.83	66.9488	5277.83	65.6109	5277.83	65.6109	5277.83	64.504	5277.83	64.504	5277.83	67.7456	5277.83	67.7456	5277.83	66.9227	5277.83	66.9227	5277.83	63.9262	5277.83	63.9262	5277.83	63.9296
5463.87	86.113	5463.87	85.7692	5463.87	85.7692	5463.87	85.1594	5463.87	85.1594	5463.87	84.3417	5463.87	84.3417	5463.87	84.1786	5463.87	84.1786	5463.87	83.3326	5463.87	83.3326	5463.87	82.0933	5463.87	82.0933	5463.87	79.8342	5463.87	79.8342	5463.87	77.738	5463.87	77.738	5463.87	75.32	5463.87	75.32	5463.87	71.9883	5463.87	71.9883	5463.87	70.6095	5463.87	70.6095	5463.87	67.3391	5463.87	67.3391	5463.87	66.7971	5463.87	66.7971	5463.87	64.7394	5463.87	64.7394	5463.87	67.8905	5463.87	67.8905	5463.87	66.7547	5463.87	66.7547	5463.87	64.0415	5463.87	64.0415	5463.87	63.011
5657.23	86.3569	5657.23	85.871	5657.23	85.871	5657.23	85.0528	5657.23	85.0528	5657.23	84.1728	5657.23	84.1728	5657.23	83.9299	5657.23	83.9299	5657.23	83.0991	5657.23	83.0991	5657.23	81.6417	5657.23	81.6417	5657.23	79.5139	5657.23	79.5139	5657.23	77.1241	5657.23	77.1241	5657.23	74.9744	5657.23	74.9744	5657.23	72.2039	5657.23	72.2039	5657.23	69.1126	5657.23	69.1126	5657.23	67.6097	5657.23	67.6097	5657.23	65.2964	5657.23	65.2964	5657.23	63.405	5657.23	63.405	5657.23	66.6165	5657.23	66.6165	5657.23	66.3242	5657.23	66.3242	5657.23	63.8983	5657.23	63.8983	5657.23	66.2274
5856.45	86.3969	5856.45	85.7569	5856.45	85.7569	5856.45	84.9697	5856.45	84.9697	5856.45	84.0436	5856.45	84.0436	5856.45	83.8244	5856.45	83.8244	5856.45	83.1385	5856.45	83.1385	5856.45	81.6963	5856.45	81.6963	5856.45	79.5078	5856.45	79.5078	5856.45	77.3163	5856.45	77.3163	5856.45	74.9354	5856.45	74.9354	5856.45	71.5358	5856.45	71.5358	5856.45	68.6325	5856.45	68.6325	5856.45	66.9278	5856.45	66.9278	5856.45	65.215	5856.45	65.215	5856.45	63.3369	5856.45	63.3369	5856.45	65.2747	5856.45	65.2747	5856.45	65.9831	5856.45	65.9831	5856.45	63.3445	5856.45	63.3445	5856.45	64.4127
6062.99	86.7915	6062.99	86.1003	6062.99	86.1003	6062.99	85.1575	6062.99	85.1575	6062.99	84.1173	6062.99	84.1173	6062.99	83.7214	6062.99	83.7214	6062.99	82.8336	6062.99	82.8336	6062.99	81.2309	6062.99	81.2309	6062.99	79.0421	6062.99	79.0421	6062.99	76.3818	6062.99	76.3818	6062.99	74.1074	6062.99	74.1074	6062.99	70.1759	6062.99	70.1759	6062.99	67.714	6062.99	67.714	6062.99	67.2582	6062.99	67.2582	6062.99	63.7113	6062.99	63.7113	6062.99	61.2081	6062.99	61.2081	6062.99	63.6955	6062.99	63.6955	6062.99	65.343	6062.99	65.343	6062.99	63.1576	6062.99	63.1576	6062.99	64.1074
6276.86	86.712	6276.86	85.9606	6276.86	85.9606	6276.86	84.9667	6276.86	84.9667	6276.86	83.6551	6276.86	83.6551	6276.86	83.055	6276.86	83.055	6276.86	82.1903	6276.86	82.1903	6276.86	80.4674	6276.86	80.4674	6276.86	78.0388	6276.86	78.0388	6276.86	75.6089	6276.86	75.6089	6276.86	73.4022	6276.86	73.4022	6276.86	69.5002	6276.86	69.5002	6276.86	67.2516	6276.86	67.2516	6276.86	65.2376	6276.86	65.2376	6276.86	63.5627	6276.86	63.5627	6276.86	61.0872	6276.86	61.0872	6276.86	63.1901	6276.86	63.1901	6276.86	64.6733	6276.86	64.6733	6276.86	62.0106	6276.86	62.0106	6276.86	63.5742
6498.05	86.7256	6498.05	85.9573	6498.05	85.9573	6498.05	84.8613	6498.05	84.8613	6498.05	83.6518	6498.05	83.6518	6498.05	82.8168	6498.05	82.8168	6498.05	81.716	6498.05	81.716	6498.05	80.0172	6498.05	80.0172	6498.05	77.4482	6498.05	77.4482	6498.05	75.1077	6498.05	75.1077	6498.05	72.8202	6498.05	72.8202	6498.05	67.9274	6498.05	67.9274	6498.05	66.7072	6498.05	66.7072	6498.05	66.1712	6498.05	66.1712	6498.05	62.394	6498.05	62.394	6498.05	59.3075	6498.05	59.3075	6498.05	62.0015	6498.05	62.0015	6498.05	63.2451	6498.05	63.2451	6498.05	62.0282	6498.05	62.0282	6498.05	61.8261
6726.56	86.7034	6726.56	86.0168	6726.56	86.0168	6726.56	84.8272	6726.56	84.8272	6726.56	83.6564	6726.56	83.6564	6726.56	82.5974	6726.56	82.5974	6726.56	81.4043	6726.56	81.4043	6726.56	79.3504	6726.56	79.3504	6726.56	76.8739	6726.56	76.8739	6726.56	74.4274	6726.56	74.4274	6726.56	71.6369	6726.56	71.6369	6726.56	67.6252	6726.56	67.6252	6726.56	65.0726	6726.56	65.0726	6726.56	62.0964	6726.56	62.0964	6726.56	61.5239	6726.56	61.5239	6726.56	58.5206	6726.56	58.5206	6726.56	60.4568	6726.56	60.4568	6726.56	61.8753	6726.56	61.8753	6726.56	60.8503	6726.56	60.8503	6726.56	59.9481
6963.87	86.4145	6963.87	85.8744	6963.87	85.8744	6963.87	84.7224	6963.87	84.7224	6963.87	83.6467	6963.87	83.6467	6963.87	82.3328	6963.87	82.3328	6963.87	80.9342	6963.87	80.9342	6963.87	78.905	6963.87	78.905	6963.87	76.1133	6963.87	76.1133	6963.87	73.7249	6963.87	73.7249	6963.87	70.8854	6963.87	70.8854	6963.87	66.6552	6963.87	66.6552	6963.87	65.3081	6963.87	65.3081	6963.87	60.9828	6963.87	60.9828	6963.87	60.7457	6963.87	60.7457	6963.87	56.0928	6963.87	56.0928	6963.87	59.0313	6963.87	59.0313	6963.87	61.5073	6963.87	61.5073	6963.87	60.5469	6963.87	60.5469	6963.87	57.3231
7209.96	86.4771	7209.96	86.0046	7209.96	86.0046	7209.96	84.9502	7209.96	84.9502	7209.96	83.9272	7209.96	83.9272	7209.96	82.2321	7209.96	82.2321	7209.96	80.9777	7209.96	80.9777	7209.96	78.6893	7209.96	78.6893	7209.96	76.3473	7209.96	76.3473	7209.96	73.6842	7209.96	73.6842	7209.96	70.5072	7209.96	70.5072	7209.96	67.1614	7209.96	67.1614	7209.96	64.0721	7209.96	64.0721	7209.96	63.7132	7209.96	63.7132	7209.96	59.8751	7209.96	59.8751	7209.96	58.6072	7209.96	58.6072	7209.96	58.1783	7209.96	58.1783	7209.96	61.3341	7209.96	61.3341	7209.96	59.6873	7209.96	59.6873	7209.96	56.1212
7464.84	86.8441	7464.84	86.3566	7464.84	86.3566	7464.84	85.2748	7464.84	85.2748	7464.84	84.3194	7464.84	84.3194	7464.84	82.532	7464.84	82.532	7464.84	81.0725	7464.84	81.0725	7464.84	78.8289	7464.84	78.8289	7464.84	76.2901	7464.84	76.2901	7464.84	73.6119	7464.84	73.6119	7464.84	69.8703	7464.84	69.8703	7464.84	66.9627	7464.84	66.9627	7464.84	64.1923	7464.84	64.1923	7464.84	63.3425	7464.84	63.3425	7464.84	58.1157	7464.84	58.1157	7464.84	58.9614	7464.84	58.9614	7464.84	56.7541	7464.84	56.7541	7464.84	61.263	7464.84	61.263	7464.84	58.3369	7464.84	58.3369	7464.84	56.0789
7727.05	86.7179	7727.05	86.5436	7727.05	86.5436	7727.05	85.6204	7727.05	85.6204	7727.05	84.578	7727.05	84.578	7727.05	82.5332	7727.05	82.5332	7727.05	80.9551	7727.05	80.9551	7727.05	78.4304	7727.05	78.4304	7727.05	75.7392	7727.05	75.7392	7727.05	73.3423	7727.05	73.3423	7727.05	68.9319	7727.05	68.9319	7727.05	65.9737	7727.05	65.9737	7727.05	63.2331	7727.05	63.2331	7727.05	62.4108	7727.05	62.4108	7727.05	59.1858	7727.05	59.1858	7727.05	59.1869	7727.05	59.1869	7727.05	54.7048	7727.05	54.7048	7727.05	59.9582	7727.05	59.9582	7727.05	56.2281	7727.05	56.2281	7727.05	55.3773
7999.51	86.771	7999.51	86.6251	7999.51	86.6251	7999.51	85.5604	7999.51	85.5604	7999.51	84.4621	7999.51	84.4621	7999.51	82.2733	7999.51	82.2733	7999.51	80.5191	7999.51	80.5191	7999.51	77.6141	7999.51	77.6141	7999.51	74.886	7999.51	74.886	7999.51	72.3186	7999.51	72.3186	7999.51	67.8378	7999.51	67.8378	7999.51	64.6669	7999.51	64.6669	7999.51	61.6699	7999.51	61.6699	7999.51	60.9869	7999.51	60.9869	7999.51	59.6396	7999.51	59.6396	7999.51	57.9523	7999.51	57.9523	7999.51	54.9455	7999.51	54.9455	7999.51	58.7673	7999.51	58.7673	7999.51	54.2729	7999.51	54.2729	7999.51	54.7692
8282.23	86.4129	8282.23	86.4364	8282.23	86.4364	8282.23	85.314	8282.23	85.314	8282.23	84.0428	8282.23	84.0428	8282.23	81.6856	8282.23	81.6856	8282.23	79.865	8282.23	79.865	8282.23	76.7689	8282.23	76.7689	8282.23	73.7958	8282.23	73.7958	8282.23	71.2311	8282.23	71.2311	8282.23	66.9498	8282.23	66.9498	8282.23	62.6966	8282.23	62.6966	8282.23	60.7523	8282.23	60.7523	8282.23	59.7219	8282.23	59.7219	8282.23	60.1421	8282.23	60.1421	8282.23	58.0024	8282.23	58.0024	8282.23	53.9835	8282.23	53.9835	8282.23	57.2951	8282.23	57.2951	8282.23	51.6487	8282.23	51.6487	8282.23	54.3076
8573.73	86.2462	8573.73	86.2227	8573.73	86.2227	8573.73	84.9242	8573.73	84.9242	8573.73	83.5034	8573.73	83.5034	8573.73	80.9838	8573.73	80.9838	8573.73	78.9029	8573.73	78.9029	8573.73	75.6518	8573.73	75.6518	8573.73	72.2473	8573.73	72.2473	8573.73	69.9293	8573.73	69.9293	8573.73	65.1559	8573.73	65.1559	8573.73	60.4289	8573.73	60.4289	8573.73	59.486	8573.73	59.486	8573.73	58.1156	8573.73	58.1156	8573.73	59.8174	8573.73	59.8174	8573.73	55.8086	8573.73	55.8086	8573.73	49.9544	8573.73	49.9544	8573.73	55.8597	8573.73	55.8597	8573.73	51.2962	8573.73	51.2962	8573.73	49.9952
8876.95	86.0482	8876.95	86.0769	8876.95	86.0769	8876.95	84.8	8876.95	84.8	8876.95	83.2491	8876.95	83.2491	8876.95	80.5107	8876.95	80.5107	8876.95	78.0153	8876.95	78.0153	8876.95	74.2887	8876.95	74.2887	8876.95	70.1922	8876.95	70.1922	8876.95	67.9495	8876.95	67.9495	8876.95	63.8279	8876.95	63.8279	8876.95	58.9234	8876.95	58.9234	8876.95	54.948	8876.95	54.948	8876.95	54.9326	8876.95	54.9326	8876.95	56.9487	8876.95	56.9487	8876.95	48.8604	8876.95	48.8604	8876.95	44.472	8876.95	44.472	8876.95	56.5009	8876.95	56.5009	8876.95	54.4253	8876.95	54.4253	8876.95	53.6027
9188.96	86.1082	9188.96	86.1776	9188.96	86.1776	9188.96	84.8542	9188.96	84.8542	9188.96	83.207	9188.96	83.207	9188.96	80.3819	9188.96	80.3819	9188.96	77.4682	9188.96	77.4682	9188.96	73.2546	9188.96	73.2546	9188.96	67.8342	9188.96	67.8342	9188.96	65.4341	9188.96	65.4341	9188.96	61.6142	9188.96	61.6142	9188.96	55.3291	9188.96	55.3291	9188.96	54.5208	9188.96	54.5208	9188.96	52.9217	9188.96	52.9217	9188.96	55.6069	9188.96	55.6069	9188.96	48.4935	9188.96	48.4935	9188.96	45.2192	9188.96	45.2192	9188.96	53.3017	9188.96	53.3017	9188.96	52.8902	9188.96	52.8902	9188.96	51.7023
9514.16	86.4782	9514.16	86.4814	9514.16	86.4814	9514.16	85.0564	9514.16	85.0564	9514.16	83.2534	9514.16	83.2534	9514.16	80.253	9514.16	80.253	9514.16	77.0182	9514.16	77.0182	9514.16	72.3891	9514.16	72.3891	9514.16	65.9703	9514.16	65.9703	9514.16	62.5728	9514.16	62.5728	9514.16	59.0632	9514.16	59.0632	9514.16	51.3797	9514.16	51.3797	9514.16	54.2654	9514.16	54.2654	9514.16	53.2396	9514.16	53.2396	9514.16	54.4737	9514.16	54.4737	9514.16	48.4609	9514.16	48.4609	9514.16	44.0667	9514.16	44.0667	9514.16	48.2757	9514.16	48.2757	9514.16	51.0207	9514.16	51.0207	9514.16	45.8841
9849.61	86.8453	9849.61	86.8142	9849.61	86.8142	9849.61	85.3215	9849.61	85.3215	9849.61	83.2069	9849.61	83.2069	9849.61	79.8905	9849.61	79.8905	9849.61	76.3804	9849.61	76.3804	9849.61	71.1787	9849.61	71.1787	9849.61	64.0533	9849.61	64.0533	9849.61	58.5925	9849.61	58.5925	9849.61	55.8475	9849.61	55.8475	9849.61	52.1962	9849.61	52.1962	9849.61	54.0863	9849.61	54.0863	9849.61	53.529	9849.61	53.529	9849.61	53.3063	9849.61	53.3063	9849.61	48.9022	9849.61	48.9022	9849.61	43.9013	9849.61	43.9013	9849.61	44.278	9849.61	44.278	9849.61	46.3407	9849.61	46.3407	9849.61	42.405
10196.8	87.3193	10196.8	87.0829	10196.8	87.0829	10196.8	85.4993	10196.8	85.4993	10196.8	83.2099	10196.8	83.2099	10196.8	79.7088	10196.8	79.7088	10196.8	75.5966	10196.8	75.5966	10196.8	69.632	10196.8	69.632	10196.8	61.0594	10196.8	61.0594	10196.8	54.5786	10196.8	54.5786	10196.8	55.2965	10196.8	55.2965	10196.8	55.0799	10196.8	55.0799	10196.8	55.3746	10196.8	55.3746	10196.8	53.5241	10196.8	53.5241	10196.8	54.2612	10196.8	54.2612	10196.8	49.2873	10196.8	49.2873	10196.8	46.7504	10196.8	46.7504	10196.8	47.6523	10196.8	47.6523	10196.8	38.8695	10196.8	38.8695	10196.8	47.3559
10555.7	87.3783	10555.7	87.2435	10555.7	87.2435	10555.7	85.6248	10555.7	85.6248	10555.7	83.1292	10555.7	83.1292	10555.7	79.4082	10555.7	79.4082	10555.7	74.7317	10555.7	74.7317	10555.7	68.3105	10555.7	68.3105	10555.7	58.8404	10555.7	58.8404	10555.7	56.9826	10555.7	56.9826	10555.7	57.9645	10555.7	57.9645	10555.7	57.3266	10555.7	57.3266	10555.7	55.5936	10555.7	55.5936	10555.7	52.973	10555.7	52.973	10555.7	55.5784	10555.7	55.5784	10555.7	49.8408	10555.7	49.8408	10555.7	46.2111	10555.7	46.2111	10555.7	48.8885	10555.7	48.8885	10555.7	45.6011	10555.7	45.6011	10555.7	51.2172
10927.7	87.8044	10927.7	87.3493	10927.7	87.3493	10927.7	85.6182	10927.7	85.6182	10927.7	82.878	10927.7	82.878	10927.7	78.7785	10927.7	78.7785	10927.7	73.3064	10927.7	73.3064	10927.7	66.2588	10927.7	66.2588	10927.7	57.0846	10927.7	57.0846	10927.7	59.0755	10927.7	59.0755	10927.7	59.1536	10927.7	59.1536	10927.7	58.1658	10927.7	58.1658	10927.7	55.7868	10927.7	55.7868	10927.7	52.3133	10927.7	52.3133	10927.7	54.4017	10927.7	54.4017	10927.7	49.2693	10927.7	49.2693	10927.7	47.5381	10927.7	47.5381	10927.7	47.8918	10927.7	47.8918	10927.7	47.5925	10927.7	47.5925	10927.7	52.195
11313	87.7352	11313	87.3105	11313	87.3105	11313	85.5558	11313	85.5558	11313	82.4816	11313	82.4816	11313	77.8217	11313	77.8217	11313	70.9596	11313	70.9596	11313	60.3287	11313	60.3287	11313	62.0729	11313	62.0729	11313	63.3456	11313	63.3456	11313	61.7289	11313	61.7289	11313	59.6185	11313	59.6185	11313	57.2702	11313	57.2702	11313	53.3264	11313	53.3264	11313	54.2198	11313	54.2198	11313	50.6083	11313	50.6083	11313	50.5644	11313	50.5644	11313	47.0787	11313	47.0787	11313	48.8684	11313	48.8684	11313	53.0832
11712.9	88.0203	11712.9	87.3723	11712.9	87.3723	11712.9	85.4384	11712.9	85.4384	11712.9	81.9377	11712.9	81.9377	11712.9	76.7811	11712.9	76.7811	11712.9	68.9919	11712.9	68.9919	11712.9	62.8152	11712.9	62.8152	11712.9	66.4567	11712.9	66.4567	11712.9	65.761	11712.9	65.761	11712.9	63.6439	11712.9	63.6439	11712.9	61.888	11712.9	61.888	11712.9	59.4853	11712.9	59.4853	11712.9	55.8954	11712.9	55.8954	11712.9	54.9409	11712.9	54.9409	11712.9	51.8462	11712.9	51.8462	11712.9	53.2485	11712.9	53.2485	11712.9	49.2321	11712.9	49.2321	11712.9	50.0385	11712.9	50.0385	11712.9	53.2442
12126	88.1538	12126	87.3967	12126	87.3967	12126	85.4765	12126	85.4765	12126	81.6589	12126	81.6589	12126	75.8711	12126	75.8711	12126	67.3413	12126	67.3413	12126	66.2794	12126	66.2794	12126	68.4284	12126	68.4284	12126	67.4421	12126	67.4421	12126	64.5902	12126	64.5902	12126	63.5473	12126	63.5473	12126	61.0387	12126	61.0387	12126	56.199	12126	56.199	12126	54.4584	12126	54.4584	12126	52.8304	12126	52.8304	12126	54.25	12126	54.25	12126	50.4821	12126	50.4821	12126	48.4296	12126	48.4296	12126	52.1636
12553.7	88.3911	12553.7	87.5466	12553.7	87.5466	12553.7	85.5773	12553.7	85.5773	12553.7	81.3216	12553.7	81.3216	12553.7	74.9672	12553.7	74.9672	12553.7	67.1961	12553.7	67.1961	12553.7	68.4058	12553.7	68.4058	12553.7	69.9394	12553.7	69.9394	12553.7	68.8572	12553.7	68.8572	12553.7	65.3164	12553.7	65.3164	12553.7	64.0251	12553.7	64.0251	12553.7	61.3515	12553.7	61.3515	12553.7	56.9334	12553.7	56.9334	12553.7	54.7403	12553.7	54.7403	12553.7	53.604	12553.7	53.604	12553.7	55.4409	12553.7	55.4409	12553.7	50.6798	12553.7	50.6798	12553.7	46.7462	12553.7	46.7462	12553.7	52.2479
12996.1	88.5104	12996.1	87.5094	12996.1	87.5094	12996.1	85.5704	12996.1	85.5704	12996.1	81.1472	12996.1	81.1472	12996.1	74.3279	12996.1	74.3279	12996.1	67.8477	12996.1	67.8477	12996.1	70.3597	12996.1	70.3597	12996.1	71.3646	12996.1	71.3646	12996.1	69.335	12996.1	69.335	12996.1	65.7531	12996.1	65.7531	12996.1	63.9399	12996.1	63.9399	12996.1	61.9414	12996.1	61.9414	12996.1	57.5083	12996.1	57.5083	12996.1	55.0594	12996.1	55.0594	12996.1	55.0906	12996.1	55.0906	12996.1	55.8354	12996.1	55.8354	12996.1	51.0782	12996.1	51.0782	12996.1	50.2327	12996.1	50.2327	12996.1	53.2021
13454.6	88.2964	13454.6	87.3627	13454.6	87.3627	13454.6	85.1889	13454.6	85.1889	13454.6	80.4931	13454.6	80.4931	13454.6	73.4417	13454.6	73.4417	13454.6	67.3137	13454.6	67.3137	13454.6	70.7621	13454.6	70.7621	13454.6	71.6555	13454.6	71.6555	13454.6	69.2555	13454.6	69.2555	13454.6	65.7574	13454.6	65.7574	13454.6	63.481	13454.6	63.481	13454.6	62.2313	13454.6	62.2313	13454.6	57.0798	13454.6	57.0798	13454.6	56.601	13454.6	56.601	13454.6	55.0753	13454.6	55.0753	13454.6	55.5667	13454.6	55.5667	13454.6	52.5595	13454.6	52.5595	13454.6	47.5815	13454.6	47.5815	13454.6	51.485
13929.2	88.3292	13929.2	87.4828	13929.2	87.4828	13929.2	85.1067	13929.2	85.1067	13929.2	80.1865	13929.2	80.1865	13929.2	72.358	13929.2	72.358	13929.2	66.3612	13929.2	66.3612	13929.2	69.1822	13929.2	69.1822	13929.2	69.7605	13929.2	69.7605	13929.2	68.2937	13929.2	68.2937	13929.2	64.257	13929.2	64.257	13929.2	61.6633	13929.2	61.6633	13929.2	61.7034	13929.2	61.7034	13929.2	55.6583	13929.2	55.6583	13929.2	55.9775	13929.2	55.9775	13929.2	54.3686	13929.2	54.3686	13929.2	54.3401	13929.2	54.3401	13929.2	50.2871	13929.2	50.2871	13929.2	36.3161	13929.2	36.3161	13929.2	51.4871
14419.9	88.5055	14419.9	87.4334	14419.9	87.4334	14419.9	85.062	14419.9	85.062	14419.9	79.6127	14419.9	79.6127	14419.9	71.1647	14419.9	71.1647	14419.9	63.7342	14419.9	63.7342	14419.9	67.7171	14419.9	67.7171	14419.9	69.0948	14419.9	69.0948	14419.9	67.5365	14419.9	67.5365	14419.9	63.8671	14419.9	63.8671	14419.9	60.0832	14419.9	60.0832	14419.9	60.4071	14419.9	60.4071	14419.9	54.1534	14419.9	54.1534	14419.9	53.8091	14419.9	53.8091	14419.9	52.8428	14419.9	52.8428	14419.9	52.6518	14419.9	52.6518	14419.9	48.9997	14419.9	48.9997	14419.9	42.9396	14419.9	42.9396	14419.9	53.9869
14928.2	88.6143	14928.2	87.6989	14928.2	87.6989	14928.2	85.2016	14928.2	85.2016	14928.2	79.6244	14928.2	79.6244	14928.2	69.7705	14928.2	69.7705	14928.2	61.2166	14928.2	61.2166	14928.2	67.3946	14928.2	67.3946	14928.2	69.7413	14928.2	69.7413	14928.2	67.9815	14928.2	67.9815	14928.2	64.0979	14928.2	64.0979	14928.2	60.0017	14928.2	60.0017	14928.2	60.1225	14928.2	60.1225	14928.2	53.6918	14928.2	53.6918	14928.2	52.3902	14928.2	52.3902	14928.2	53.5363	14928.2	53.5363	14928.2	53.2955	14928.2	53.2955	14928.2	47.596	14928.2	47.596	14928.2	38.9782	14928.2	38.9782	14928.2	51.0859
15455.6	88.3596	15455.6	87.4568	15455.6	87.4568	15455.6	84.6627	15455.6	84.6627	15455.6	78.7792	15455.6	78.7792	15455.6	65.8201	15455.6	65.8201	15455.6	61.1374	15455.6	61.1374	15455.6	69.15	15455.6	69.15	15455.6	69.9466	15455.6	69.9466	15455.6	68.4552	15455.6	68.4552	15455.6	64.3308	15455.6	64.3308	15455.6	60.8504	15455.6	60.8504	15455.6	59.0869	15455.6	59.0869	15455.6	54.3001	15455.6	54.3001	15455.6	51.396	15455.6	51.396	15455.6	50.9436	15455.6	50.9436	15455.6	52.1027	15455.6	52.1027	15455.6	48.8677	15455.6	48.8677	15455.6	43.113	15455.6	43.113	15455.6	49.1643
16000.5	87.9835	16000.5	87.0462	16000.5	87.0462	16000.5	83.9708	16000.5	83.9708	16000.5	77.7866	16000.5	77.7866	16000.5	61.386	16000.5	61.386	16000.5	64.4409	16000.5	64.4409	16000.5	70.6058	16000.5	70.6058	16000.5	69.8389	16000.5	69.8389	16000.5	68.2668	16000.5	68.2668	16000.5	63.5827	16000.5	63.5827	16000.5	60.1424	16000.5	60.1424	16000.5	58.4525	16000.5	58.4525	16000.5	52.3661	16000.5	52.3661	16000.5	48.5443	16000.5	48.5443	16000.5	50.5144	16000.5	50.5144	16000.5	50.0673	16000.5	50.0673	16000.5	45.0119	16000.5	45.0119	16000.5	46.5326	16000.5	46.5326	16000.5	52.7933
16564.5	87.5946	16564.5	86.2697	16564.5	86.2697	16564.5	83.0615	16564.5	83.0615	16564.5	76.4595	16564.5	76.4595	16564.5	54.929	16564.5	54.929	16564.5	66.0563	16564.5	66.0563	16564.5	70.6155	16564.5	70.6155	16564.5	69.3573	16564.5	69.3573	16564.5	67.8199	16564.5	67.8199	16564.5	63.0529	16564.5	63.0529	16564.5	60.1999	16564.5	60.1999	16564.5	58.8525	16564.5	58.8525	16564.5	53.8123	16564.5	53.8123	16564.5	46.5175	16564.5	46.5175	16564.5	48.5135	16564.5	48.5135	16564.5	48.6671	16564.5	48.6671	16564.5	41.2622	16564.5	41.2622	16564.5	44.4647	16564.5	44.4647	16564.5	53.4601
17148.9	86.8464	17148.9	85.6409	17148.9	85.6409	17148.9	81.7666	17148.9	81.7666	17148.9	75.0875	17148.9	75.0875	17148.9	46.6876	17148.9	46.6876	17148.9	67.1099	17148.9	67.1099	17148.9	70.6234	17148.9	70.6234	17148.9	69.5768	17148.9	69.5768	17148.9	66.6954	17148.9	66.6954	17148.9	62.7444	17148.9	62.7444	17148.9	58.7804	17148.9	58.7804	17148.9	57.7108	17148.9	57.7108	17148.9	54.0999	17148.9	54.0999	17148.9	44.6267	17148.9	44.6267	17148.9	46.652	17148.9	46.652	17148.9	47.107	17148.9	47.107	17148.9	41.7348	17148.9	41.7348	17148.9	50.173	17148.9	50.173	17148.9	52.2045
17752.4	86.024	17752.4	84.8013	17752.4	84.8013	17752.4	80.149	17752.4	80.149	17752.4	72.8354	17752.4	72.8354	17752.4	53.7717	17752.4	53.7717	17752.4	68.359	17752.4	68.359	17752.4	70.0616	17752.4	70.0616	17752.4	69.1478	17752.4	69.1478	17752.4	66.421	17752.4	66.421	17752.4	60.7761	17752.4	60.7761	17752.4	58.4757	17752.4	58.4757	17752.4	56.4058	17752.4	56.4058	17752.4	54.561	17752.4	54.561	17752.4	24.8015	17752.4	24.8015	17752.4	42.7042	17752.4	42.7042	17752.4	47.9362	17752.4	47.9362	17752.4	48.4195	17752.4	48.4195	17752.4	49.2261	17752.4	49.2261	17752.4	43.5596
18379.4	85.6184	18379.4	83.7847	18379.4	83.7847	18379.4	79.2147	18379.4	79.2147	18379.4	71.1755	18379.4	71.1755	18379.4	62.8516	18379.4	62.8516	18379.4	68.1089	18379.4	68.1089	18379.4	69.7702	18379.4	69.7702	18379.4	68.8205	18379.4	68.8205	18379.4	66.3935	18379.4	66.3935	18379.4	60.9821	18379.4	60.9821	18379.4	58.6352	18379.4	58.6352	18379.4	56.9927	18379.4	56.9927	18379.4	41.7132	18379.4	41.7132	18379.4	48.6727	18379.4	48.6727	18379.4	49.2308	18379.4	49.2308	18379.4	46.8138	18379.4	46.8138	18379.4	49.0182	18379.4	49.0182	18379.4	42.236	18379.4	42.236	18379.4	53.8804
19026.9	84.889	19026.9	82.8968	19026.9	82.8968	19026.9	78.5242	19026.9	78.5242	19026.9	69.2674	19026.9	69.2674	19026.9	64.8042	19026.9	64.8042	19026.9	68.6202	19026.9	68.6202	19026.9	69.2212	19026.9	69.2212	19026.9	67.7279	19026.9	67.7279	19026.9	65.0981	19026.9	65.0981	19026.9	59.2893	19026.9	59.2893	19026.9	54.6132	19026.9	54.6132	19026.9	50.3073	19026.9	50.3073	19026.9	50.8658	19026.9	50.8658	19026.9	48.513	19026.9	48.513	19026.9	47.0136	19026.9	47.0136	19026.9	41.7004	19026.9	41.7004	19026.9	39.7558	19026.9	39.7558	19026.9	49.3777	19026.9	49.3777	19026.9	45.1404
19697.8	84.5418	19697.8	82.7944	19697.8	82.7944	19697.8	77.8282	19697.8	77.8282	19697.8	66.3253	19697.8	66.3253	19697.8	65.5599	19697.8	65.5599	19697.8	69.552	19697.8	69.552	19697.8	69.2023	19697.8	69.2023	19697.8	66.5515	19697.8	66.5515	19697.8	63.2386	19697.8	63.2386	19697.8	56.9174	19697.8	56.9174	19697.8	52.7266	19697.8	52.7266	19697.8	48.8152	19697.8	48.8152	19697.8	46.8192	19697.8	46.8192	19697.8	47.1363	19697.8	47.1363	19697.8	45.3673	19697.8	45.3673	19697.8	44.3961	19697.8	44.3961	19697.8	28.4385	19697.8	28.4385	19697.8	46.9428	19697.8	46.9428	19697.8	41.5573
19999.5	84.6417	19999.5	82.4114	19999.5	82.4114	19999.5	77.1175	19999.5	77.1175	19999.5	65.5465	19999.5	65.5465	19999.5	66.7113	19999.5	66.7113	19999.5	69.1917	19999.5	69.1917	19999.5	68.688	19999.5	68.688	19999.5	66.3494	19999.5	66.3494	19999.5	62.828	19999.5	62.828	19999.5	57.1551	19999.5	57.1551	19999.5	53.7176	19999.5	53.7176	19999.5	46.5764	19999.5	46.5764	19999.5	44.5026	19999.5	44.5026	19999.5	49.2892	19999.5	49.2892	19999.5	46.3256	19999.5	46.3256	19999.5	44.9478	19999.5	44.9478	19999.5	33.0676	19999.5	33.0676	19999.5	43.6393	19999.5	43.6393	19999.5	35.701
