"SPL Vertical"
"On-Axis"		"10°"		"-10°"		"20°"		"-20°"		"30°"		"-30°"		"40°"		"-40°"		"50°"		"-50°"		"60°"		"-60°"		"70°"		"-70°"		"80°"		"-80°"		"90°"		"-90°"		"100°"		"-100°"		"110°"		"-110°"		"120°"		"-120°"		"130°"		"-130°"		"140°"		"-140°"		"150°"		"-150°"		"160°"		"-160°"		"170°"		"-170°"		"180°"
"Frequency / Hz"	"Sound Pressure Level / dB (re 20 µPa/V)  [2.83V at 1m]"	"Frequency / Hz"	"Sound Pressure Level / dB (re 20 µPa/V)  [2.83V at 1m]"	"Frequency / Hz"	"Sound Pressure Level / dB (re 20 µPa/V)  [2.83V at 1m]"	"Frequency / Hz"	"Sound Pressure Level / dB (re 20 µPa/V)  [2.83V at 1m]"	"Frequency / Hz"	"Sound Pressure Level / dB (re 20 µPa/V)  [2.83V at 1m]"	"Frequency / Hz"	"Sound Pressure Level / dB (re 20 µPa/V)  [2.83V at 1m]"	"Frequency / Hz"	"Sound Pressure Level / dB (re 20 µPa/V)  [2.83V at 1m]"	"Frequency / Hz"	"Sound Pressure Level / dB (re 20 µPa/V)  [2.83V at 1m]"	"Frequency / Hz"	"Sound Pressure Level / dB (re 20 µPa/V)  [2.83V at 1m]"	"Frequency / Hz"	"Sound Pressure Level / dB (re 20 µPa/V)  [2.83V at 1m]"	"Frequency / Hz"	"Sound Pressure Level / dB (re 20 µPa/V)  [2.83V at 1m]"	"Frequency / Hz"	"Sound Pressure Level / dB (re 20 µPa/V)  [2.83V at 1m]"	"Frequency / Hz"	"Sound Pressure Level / dB (re 20 µPa/V)  [2.83V at 1m]"	"Frequency / Hz"	"Sound Pressure Level / dB (re 20 µPa/V)  [2.83V at 1m]"	"Frequency / Hz"	"Sound Pressure Level / dB (re 20 µPa/V)  [2.83V at 1m]"	"Frequency / Hz"	"Sound Pressure Level / dB (re 20 µPa/V)  [2.83V at 1m]"	"Frequency / Hz"	"Sound Pressure Level / dB (re 20 µPa/V)  [2.83V at 1m]"	"Frequency / Hz"	"Sound Pressure Level / dB (re 20 µPa/V)  [2.83V at 1m]"	"Frequency / Hz"	"Sound Pressure Level / dB (re 20 µPa/V)  [2.83V at 1m]"	"Frequency / Hz"	"Sound Pressure Level / dB (re 20 µPa/V)  [2.83V at 1m]"	"Frequency / Hz"	"Sound Pressure Level / dB (re 20 µPa/V)  [2.83V at 1m]"	"Frequency / Hz"	"Sound Pressure Level / dB (re 20 µPa/V)  [2.83V at 1m]"	"Frequency / Hz"	"Sound Pressure Level / dB (re 20 µPa/V)  [2.83V at 1m]"	"Frequency / Hz"	"Sound Pressure Level / dB (re 20 µPa/V)  [2.83V at 1m]"	"Frequency / Hz"	"Sound Pressure Level / dB (re 20 µPa/V)  [2.83V at 1m]"	"Frequency / Hz"	"Sound Pressure Level / dB (re 20 µPa/V)  [2.83V at 1m]"	"Frequency / Hz"	"Sound Pressure Level / dB (re 20 µPa/V)  [2.83V at 1m]"	"Frequency / Hz"	"Sound Pressure Level / dB (re 20 µPa/V)  [2.83V at 1m]"	"Frequency / Hz"	"Sound Pressure Level / dB (re 20 µPa/V)  [2.83V at 1m]"	"Frequency / Hz"	"Sound Pressure Level / dB (re 20 µPa/V)  [2.83V at 1m]"	"Frequency / Hz"	"Sound Pressure Level / dB (re 20 µPa/V)  [2.83V at 1m]"	"Frequency / Hz"	"Sound Pressure Level / dB (re 20 µPa/V)  [2.83V at 1m]"	"Frequency / Hz"	"Sound Pressure Level / dB (re 20 µPa/V)  [2.83V at 1m]"	"Frequency / Hz"	"Sound Pressure Level / dB (re 20 µPa/V)  [2.83V at 1m]"	"Frequency / Hz"	"Sound Pressure Level / dB (re 20 µPa/V)  [2.83V at 1m]"	"Frequency / Hz"	"Sound Pressure Level / dB (re 20 µPa/V)  [2.83V at 1m]"
20.5078	53.5584	20.5078	53.3953	20.5078	53.5548	20.5078	53.0666	20.5078	53.3765	20.5078	52.5657	20.5078	53.008	20.5078	51.8771	20.5078	52.4246	20.5078	50.9729	20.5078	51.5892	20.5078	49.807	20.5078	50.445	20.5078	48.3024	20.5078	48.9014	20.5078	46.3238	20.5078	46.8022	20.5078	43.6052	20.5078	43.8441	20.5078	39.5118	20.5078	39.3493	20.5078	31.8459	20.5078	32.5195	20.5078	28.5111	20.5078	35.1103	20.5078	37.5984	20.5078	40.507	20.5078	41.8224	20.5078	43.6392	20.5078	44.3213	20.5078	45.539	20.5078	45.8936	20.5078	46.6616	20.5078	46.8313	20.5078	47.2053	20.5078	47.2555
21.9727	53.6801	21.9727	53.5095	21.9727	53.6481	21.9727	53.1366	21.9727	53.402	21.9727	52.5495	21.9727	52.9178	21.9727	51.7214	21.9727	52.1548	21.9727	50.603	21.9727	51.0455	21.9727	49.1071	21.9727	49.4742	21.9727	47.0714	21.9727	47.221	21.9727	44.1548	21.9727	43.7838	21.9727	39.4463	21.9727	37.4935	21.9727	29.0973	21.9727	16.7413	21.9727	34.4633	21.9727	38.7768	21.9727	41.609	21.9727	44.2292	21.9727	45.3766	21.9727	47.2778	21.9727	47.8014	21.9727	49.2279	21.9727	49.4626	21.9727	50.4993	21.9727	50.5946	21.9727	51.2751	21.9727	51.3074	21.9727	51.6452	21.9727	51.6521
23.4375	55.3107	23.4375	54.9553	23.4375	55.4263	23.4375	54.3488	23.4375	55.2957	23.4375	53.4586	23.4375	54.8949	23.4375	52.2199	23.4375	54.1773	23.4375	50.5103	23.4375	53.0603	23.4375	48.0833	23.4375	51.3951	23.4375	44.3584	23.4375	48.884	23.4375	37.5902	23.4375	44.8151	23.4375	34.929	23.4375	37.4162	23.4375	43.3083	23.4375	39.6186	23.4375	47.8465	23.4375	46.3758	23.4375	50.7776	23.4375	50.2355	23.4375	52.8584	23.4375	52.7446	23.4375	54.3873	23.4375	54.4684	23.4375	55.5048	23.4375	55.6516	23.4375	56.283	23.4375	56.4179	23.4375	56.7576	23.4375	56.8356	23.4375	56.9427
24.9023	56.2836	24.9023	55.9216	24.9023	56.407	24.9023	55.3115	24.9023	56.2863	24.9023	54.4263	24.9023	55.9004	24.9023	53.2168	24.9023	55.2106	24.9023	51.6061	24.9023	54.1549	24.9023	49.5021	24.9023	52.6434	24.9023	46.9565	24.9023	50.5788	24.9023	45.0319	24.9023	48.082	24.9023	46.0517	24.9023	46.5563	24.9023	48.8888	24.9023	48.1243	24.9023	51.5626	24.9023	50.9932	24.9023	53.7098	24.9023	53.4898	24.9023	55.3912	24.9023	55.4056	24.9023	56.6921	24.9023	56.8259	24.9023	57.6721	24.9023	57.8396	24.9023	58.3675	24.9023	58.5098	24.9023	58.7975	24.9023	58.8776	24.9023	58.9688
26.3672	57.4411	26.3672	57.0927	26.3672	57.5558	26.3672	56.5033	26.3672	57.4309	26.3672	55.6513	26.3672	57.0466	26.3672	54.4999	26.3672	56.3686	26.3672	53.0014	26.3672	55.3458	26.3672	51.1367	26.3672	53.9168	26.3672	49.1128	26.3672	52.0636	26.3672	47.9235	26.3672	50.0857	26.3672	48.8729	26.3672	49.2669	26.3672	51.1484	26.3672	50.7224	26.3672	53.4517	26.3672	53.1289	26.3672	55.3976	26.3672	55.325	26.3672	56.9661	26.3672	57.071	26.3672	58.2006	26.3672	58.3919	26.3672	59.141	26.3672	59.345	26.3672	59.8138	26.3672	59.9778	26.3672	60.2335	26.3672	60.3238	26.3672	60.4049
27.832	58.9151	27.832	58.5817	27.832	59.0228	27.832	58.0166	27.832	58.8987	27.832	57.2007	27.832	58.5245	27.832	56.1017	27.832	57.8684	27.832	54.6784	27.832	56.8848	27.832	52.9137	27.832	55.5216	27.832	50.9709	27.832	53.7696	27.832	49.6493	27.832	51.893	27.832	50.215	27.832	50.9755	27.832	52.2573	27.832	52.1221	27.832	54.4991	27.832	54.3422	27.832	56.4437	27.832	56.472	27.832	58.0256	27.832	58.1972	27.832	59.2751	27.832	59.5118	27.832	60.2284	27.832	60.4631	27.832	60.9116	27.832	61.0947	27.832	61.3392	27.832	61.4386	27.832	61.5161
29.2969	58.9692	29.2969	58.5984	29.2969	59.1031	29.2969	57.9848	29.2969	58.9961	29.2969	57.1137	29.2969	58.6343	29.2969	55.9694	29.2969	57.9959	29.2969	54.5658	29.2969	57.0604	29.2969	53.0499	29.2969	55.8426	29.2969	51.9386	29.2969	54.5025	29.2969	52.0777	29.2969	53.5779	29.2969	53.5389	29.2969	53.8734	29.2969	55.4941	29.2969	55.3729	29.2969	57.3682	29.2969	57.2621	29.2969	58.985	29.2969	59.0088	29.2969	60.3226	29.2969	60.454	29.2969	61.3972	29.2969	61.5824	29.2969	62.2276	29.2969	62.4145	29.2969	62.8273	29.2969	62.975	29.2969	63.2035	29.2969	63.2843	29.2969	63.3573
30.7617	59.8067	30.7617	59.5032	30.7617	59.9174	30.7617	59.0171	30.7617	59.8274	30.7617	58.3681	30.7617	59.5306	30.7617	57.6022	30.7617	59.0293	30.7617	56.8243	30.7617	58.3523	30.7617	56.2378	30.7617	57.597	30.7617	56.1186	30.7617	56.9941	30.7617	56.6332	30.7617	56.9013	30.7617	57.6692	30.7617	57.5451	30.7617	58.9539	30.7617	58.7533	30.7617	60.2618	30.7617	60.1591	30.7617	61.4702	30.7617	61.4993	30.7617	62.5253	30.7617	62.6545	30.7617	63.4067	30.7617	63.5856	30.7617	64.107	30.7617	64.2872	30.7617	64.6231	30.7617	64.7655	30.7617	64.9521	30.7617	65.03	30.7617	65.0897
32.2266	61.5627	32.2266	61.2894	32.2266	61.6599	32.2266	60.8469	32.2266	61.5734	32.2266	60.2442	32.2266	61.2942	32.2266	59.5023	32.2266	60.8154	32.2266	58.672	32.2266	60.1419	32.2266	57.8674	32.2266	59.3146	32.2266	57.2962	32.2266	58.4614	32.2266	57.2126	32.2266	57.8577	32.2266	57.734	32.2266	57.8616	32.2266	58.7186	32.2266	58.5936	32.2266	59.9061	32.2266	59.785	32.2266	61.0927	32.2266	61.0785	32.2266	62.1676	32.2266	62.2568	32.2266	63.0808	32.2266	63.2299	32.2266	63.8116	32.2266	63.9717	32.2266	64.3509	32.2266	64.4813	32.2266	64.6933	32.2266	64.7657	32.2266	64.8337
33.6914	62.0921	33.6914	61.8682	33.6914	62.1605	33.6914	61.5016	33.6914	62.0671	33.6914	61.0163	33.6914	61.8131	33.6914	60.4581	33.6914	61.4141	33.6914	59.9111	33.6914	60.917	33.6914	59.5108	33.6914	60.426	33.6914	59.4223	33.6914	60.122	33.6914	59.7567	33.6914	60.2151	33.6914	60.486	33.6914	60.7989	33.6914	61.4661	33.6914	61.7585	33.6914	62.5352	33.6914	62.8755	33.6914	63.576	33.6914	63.9687	33.6914	64.5199	33.6914	64.9347	33.6914	65.331	33.6914	65.7261	33.6914	65.9905	33.6914	66.3257	33.6914	66.4882	33.6914	66.7307	33.6914	66.8169	33.6914	66.9439	33.6914	66.9708
35.1562	64.5417	35.1562	64.3355	35.1562	64.6107	35.1562	64.003	35.1562	64.5368	35.1562	63.5629	35.1562	64.3196	35.1562	63.0487	35.1562	63.9698	35.1562	62.5185	35.1562	63.5186	35.1562	62.0662	35.1562	63.0361	35.1562	61.8164	35.1562	62.6471	35.1562	61.884	35.1562	62.5188	35.1562	62.307	35.1562	62.7798	35.1562	63.0181	35.1562	63.4193	35.1562	63.8902	35.1562	64.2933	35.1562	64.8018	35.1562	65.2295	35.1562	65.666	35.1562	66.1017	35.1562	66.4297	35.1562	66.8388	35.1562	67.0623	35.1562	67.4073	35.1562	67.5455	35.1562	67.7945	35.1562	67.8678	35.1562	67.9981	35.1562	68.0209
36.6211	62.4422	36.6211	62.2919	36.6211	62.5615	36.6211	62.1403	36.6211	62.6427	36.6211	62.0394	36.6211	62.7027	36.6211	62.0558	36.6211	62.7827	36.6211	62.2544	36.6211	62.945	36.6211	62.6718	36.6211	63.2579	36.6211	63.2984	36.6211	63.7673	36.6211	64.0835	36.6211	64.4705	36.6211	64.958	36.6211	65.3149	36.6211	65.8572	36.6211	66.2226	36.6211	66.7307	36.6211	67.1187	36.6211	67.5432	36.6211	67.946	36.6211	68.2707	36.6211	68.6668	36.6211	68.8969	36.6211	69.2587	36.6211	69.4102	36.6211	69.7099	36.6211	69.8014	36.6211	70.0155	36.6211	70.0631	36.6211	70.1746	36.6211	70.1892
38.0859	67.895	38.0859	67.7784	38.0859	67.9455	38.0859	67.6067	38.0859	67.9248	38.0859	67.3974	38.0859	67.8351	38.0859	67.1752	38.0859	67.688	38.0859	66.9726	38.0859	67.508	38.0859	66.8286	38.0859	67.3359	38.0859	66.7839	38.0859	67.2273	38.0859	66.8707	38.0859	67.2422	38.0859	67.1027	38.0859	67.4233	38.0859	67.4685	38.0859	67.7739	38.0859	67.935	38.0859	68.2541	38.0859	68.4572	38.0859	68.7982	38.0859	68.9886	38.0859	69.3387	38.0859	69.4887	38.0859	69.8212	38.0859	69.9245	38.0859	70.2085	38.0859	70.2712	38.0859	70.4782	38.0859	70.5103	38.0859	70.6193	38.0859	70.6291
39.5508	68.1408	39.5508	68.0107	39.5508	68.209	39.5508	67.8305	39.5508	68.2111	39.5508	67.62	39.5508	68.1517	39.5508	67.408	39.5508	68.046	39.5508	67.2319	39.5508	67.9233	39.5508	67.1355	39.5508	67.8277	39.5508	67.1604	39.5508	67.8147	39.5508	67.3348	39.5508	67.9364	39.5508	67.6622	39.5508	68.2206	39.5508	68.1196	39.5508	68.6552	39.5508	68.6648	39.5508	69.1923	39.5508	69.249	39.5508	69.7672	39.5508	69.8266	39.5508	70.319	39.5508	70.3597	39.5508	70.8005	39.5508	70.8192	39.5508	71.1804	39.5508	71.1835	39.5508	71.4398	39.5508	71.4367	39.5508	71.5697	39.5508	71.5678
41.0156	69.3511	41.0156	69.2375	41.0156	69.4139	41.0156	69.0841	41.0156	69.4219	41.0156	68.9093	41.0156	69.3796	41.0156	68.7388	41.0156	69.3012	41.0156	68.605	41.0156	69.2132	41.0156	68.5442	41.0156	69.1545	41.0156	68.5898	41.0156	69.1718	41.0156	68.7638	41.0156	69.3077	41.0156	69.0687	41.0156	69.5838	41.0156	69.486	41.0156	69.9892	41.0156	69.9817	41.0156	70.4834	41.0156	70.5148	41.0156	71.0114	41.0156	71.0451	41.0156	71.5193	41.0156	71.5381	41.0156	71.9641	41.0156	71.966	41.0156	72.3158	41.0156	72.3074	41.0156	72.556	41.0156	72.5462	41.0156	72.6753	41.0156	72.6712
42.4805	70.6071	42.4805	70.5096	42.4805	70.666	42.4805	70.3837	42.4805	70.683	42.4805	70.2454	42.4805	70.6622	42.4805	70.1168	42.4805	70.6165	42.4805	70.0247	42.4805	70.5688	42.4805	69.9978	42.4805	70.5515	42.4805	70.062	42.4805	70.6018	42.4805	70.2334	42.4805	70.7525	42.4805	70.5139	42.4805	71.0189	42.4805	70.8893	42.4805	71.3913	42.4805	71.333	42.4805	71.837	42.4805	71.8115	42.4805	72.3106	42.4805	72.2908	42.4805	72.7665	42.4805	72.7401	42.4805	73.1665	42.4805	73.1334	42.4805	73.4829	42.4805	73.4499	42.4805	73.6981	42.4805	73.6738	42.4805	73.8027	42.4805	73.7938
43.9453	71.6424	43.9453	71.5526	43.9453	71.6981	43.9453	71.4378	43.9453	71.7167	43.9453	71.3128	43.9453	71.7018	43.9453	71.1971	43.9453	71.6652	43.9453	71.1144	43.9453	71.6274	43.9453	71.0902	43.9453	71.6175	43.9453	71.1472	43.9453	71.6684	43.9453	71.3005	43.9453	71.8092	43.9453	71.5529	43.9453	72.0541	43.9453	71.8935	43.9453	72.3957	43.9453	72.2997	43.9453	72.8057	43.9453	72.742	43.9453	73.2434	43.9453	73.1892	43.9453	73.6669	43.9453	73.6119	43.9453	74.0399	43.9453	73.9846	43.9453	74.3354	43.9453	74.2868	43.9453	74.5359	43.9453	74.5024	43.9453	74.6317	43.9453	74.6197
45.4102	72.7551	45.4102	72.6749	45.4102	72.8116	45.4102	72.5789	45.4102	72.8418	45.4102	72.4796	45.4102	72.8491	45.4102	72.3937	45.4102	72.8439	45.4102	72.3407	45.4102	72.8436	45.4102	72.3409	45.4102	72.8716	45.4102	72.4118	45.4102	72.9535	45.4102	72.5651	45.4102	73.1107	45.4102	72.8025	45.4102	73.3526	45.4102	73.1153	45.4102	73.6715	45.4102	73.4852	45.4102	74.0439	45.4102	73.8879	45.4102	74.4363	45.4102	74.2967	45.4102	74.8136	45.4102	74.6857	45.4102	75.1446	45.4102	75.0318	45.4102	75.4052	45.4102	75.3153	45.4102	75.5792	45.4102	75.521	45.4102	75.6576	45.4102	75.6374
46.875	73.6982	46.875	73.6251	46.875	73.7531	46.875	73.5409	46.875	73.7874	46.875	73.4568	46.875	73.8041	46.875	73.3873	46.875	73.8123	46.875	73.3493	46.875	73.8272	46.875	73.36	46.875	73.869	46.875	73.4343	46.875	73.9594	46.875	73.5816	46.875	74.1162	46.875	73.8037	46.875	74.3471	46.875	74.0933	46.875	74.6452	46.875	74.4349	46.875	74.9901	46.875	74.8074	46.875	75.3524	46.875	75.1871	46.875	75.7004	46.875	75.5503	46.875	76.0057	46.875	75.8752	46.875	76.2458	46.875	76.1432	46.875	76.405	46.875	76.3392	46.875	76.4747	46.875	76.452
48.3398	74.7396	48.3398	74.6707	48.3398	74.7969	48.3398	74.5961	48.3398	74.8401	48.3398	74.5253	48.3398	74.8715	48.3398	74.4701	48.3398	74.898	48.3398	74.4439	48.3398	74.9315	48.3398	74.4605	48.3398	74.9876	48.3398	74.5313	48.3398	75.083	48.3398	74.6641	48.3398	75.2314	48.3398	74.8604	48.3398	75.4387	48.3398	75.1149	48.3398	75.7	48.3398	75.4156	48.3398	75.9992	48.3398	75.7454	48.3398	76.3127	48.3398	76.0843	48.3398	76.614	48.3398	76.4115	48.3398	76.8782	48.3398	76.7073	48.3398	77.0851	48.3398	76.954	48.3398	77.2202	48.3398	77.1374	48.3398	77.275	48.3398	77.2467
51.2695	76.9049	51.2695	76.8392	51.2695	76.9671	51.2695	76.7764	51.2695	77.0222	51.2695	76.7254	51.2695	77.0704	51.2695	76.6966	51.2695	77.1154	51.2695	76.7015	51.2695	77.1651	51.2695	76.751	51.2695	77.2313	51.2695	76.8536	51.2695	77.3278	51.2695	77.0138	51.2695	77.4677	51.2695	77.2308	51.2695	77.6592	51.2695	77.4981	51.2695	77.9024	51.2695	77.8034	51.2695	78.1865	51.2695	78.1304	51.2695	78.4923	51.2695	78.4604	51.2695	78.7951	51.2695	78.774	51.2695	79.0697	51.2695	79.0525	51.2695	79.2938	51.2695	79.2792	51.2695	79.4506	51.2695	79.4403	51.2695	79.5295	51.2695	79.5257
52.7344	77.6708	52.7344	77.6126	52.7344	77.7307	52.7344	77.5615	52.7344	77.7889	52.7344	77.5249	52.7344	77.8451	52.7344	77.5115	52.7344	77.9018	52.7344	77.53	52.7344	77.9652	52.7344	77.5888	52.7344	78.0443	52.7344	77.6942	52.7344	78.1497	52.7344	77.8493	52.7344	78.2916	52.7344	78.053	52.7344	78.4763	52.7344	78.2997	52.7344	78.7033	52.7344	78.5792	52.7344	78.9638	52.7344	78.8778	52.7344	79.2414	52.7344	79.1794	52.7344	79.515	52.7344	79.4668	52.7344	79.7625	52.7344	79.7233	52.7344	79.9639	52.7344	79.9334	52.7344	80.104	52.7344	80.0841	52.7344	80.1728	52.7344	80.1658
54.1992	78.3579	54.1992	78.3057	54.1992	78.414	54.1992	78.2619	54.1992	78.471	54.1992	78.2327	54.1992	78.5283	54.1992	78.2253	54.1992	78.588	54.1992	78.2468	54.1992	78.6549	54.1992	78.304	54.1992	78.7361	54.1992	78.4022	54.1992	78.8404	54.1992	78.5441	54.1992	78.9762	54.1992	78.7291	54.1992	79.1487	54.1992	78.9527	54.1992	79.3575	54.1992	79.2065	54.1992	79.5951	54.1992	79.4788	54.1992	79.8473	54.1992	79.7554	54.1992	80.0956	54.1992	80.0207	54.1992	80.32	54.1992	80.2591	54.1992	80.5023	54.1992	80.4558	54.1992	80.6281	54.1992	80.5986	54.1992	80.688	54.1992	80.6778
55.6641	78.9906	55.6641	78.9395	55.6641	79.0463	55.6641	78.8971	55.6641	79.1039	55.6641	78.8688	55.6641	79.1626	55.6641	78.8607	55.6641	79.2239	55.6641	78.879	55.6641	79.2915	55.6641	78.9297	55.6641	79.3713	55.6641	79.0174	55.6641	79.4707	55.6641	79.1447	55.6641	79.5968	55.6641	79.3113	55.6641	79.7542	55.6641	79.5137	55.6641	79.9429	55.6641	79.7448	55.6641	80.1568	55.6641	79.9943	55.6641	80.3837	55.6641	80.2495	55.6641	80.6071	55.6641	80.4962	55.6641	80.8089	55.6641	80.7194	55.6641	80.9724	55.6641	80.9054	55.6641	81.084	55.6641	81.0421	55.6641	81.1346	55.6641	81.1203
58.5938	80.0611	58.5938	80.0105	58.5938	80.1195	58.5938	79.9712	58.5938	80.1833	58.5938	79.9471	58.5938	80.2514	58.5938	79.9426	58.5938	80.3238	58.5938	79.962	58.5938	80.4024	58.5938	80.0093	58.5938	80.4907	58.5938	80.0878	58.5938	80.5929	58.5938	80.1991	58.5938	80.7137	58.5938	80.3431	58.5938	80.856	58.5938	80.5171	58.5938	81.0194	58.5938	80.7161	58.5938	81.1995	58.5938	80.932	58.5938	81.3869	58.5938	81.1546	58.5938	81.569	58.5938	81.3722	58.5938	81.7313	58.5938	81.5721	58.5938	81.86	58.5938	81.742	58.5938	81.9438	58.5938	81.8709	58.5938	81.975	58.5938	81.9503
60.0586	80.5162	60.0586	80.4655	60.0586	80.5766	60.0586	80.4273	60.0586	80.644	60.0586	80.4051	60.0586	80.7171	60.0586	80.4026	60.0586	80.7955	60.0586	80.4233	60.0586	80.8801	60.0586	80.4703	60.0586	80.9732	60.0586	80.5462	60.0586	81.078	60.0586	80.6522	60.0586	81.1978	60.0586	80.7881	60.0586	81.3348	60.0586	80.9515	60.0586	81.4885	60.0586	81.1379	60.0586	81.6549	60.0586	81.3403	60.0586	81.826	60.0586	81.5497	60.0586	81.9906	60.0586	81.7552	60.0586	82.1359	60.0586	81.9452	60.0586	82.2494	60.0586	82.1082	60.0586	82.3209	60.0586	82.2339	60.0586	82.3434	60.0586	82.3139
62.9883	81.4444	62.9883	81.3876	62.9883	81.5113	62.9883	81.3438	62.9883	81.5858	62.9883	81.3156	62.9883	81.6657	62.9883	81.3059	62.9883	81.7494	62.9883	81.317	62.9883	81.8364	62.9883	81.3512	62.9883	81.9271	62.9883	81.41	62.9883	82.0229	62.9883	81.4944	62.9883	82.1256	62.9883	81.6041	62.9883	82.2367	62.9883	81.7375	62.9883	82.3564	62.9883	81.8913	62.9883	82.4825	62.9883	82.0603	62.9883	82.6097	62.9883	82.2374	62.9883	82.7302	62.9883	82.4139	62.9883	82.8346	62.9883	82.5801	62.9883	82.9129	62.9883	82.726	62.9883	82.957	62.9883	82.8425	62.9883	82.9609	62.9883	82.9224
64.4531	81.7021	64.4531	81.6495	64.4531	81.7651	64.4531	81.6098	64.4531	81.8357	64.4531	81.5854	64.4531	81.9118	64.4531	81.5787	64.4531	81.9915	64.4531	81.5916	64.4531	82.0739	64.4531	81.6259	64.4531	82.1589	64.4531	81.6826	64.4531	82.2474	64.4531	81.7623	64.4531	82.3412	64.4531	81.8644	64.4531	82.4416	64.4531	81.9875	64.4531	82.5492	64.4531	82.1286	64.4531	82.6625	64.4531	82.2829	64.4531	82.7771	64.4531	82.4443	64.4531	82.8863	64.4531	82.6049	64.4531	82.9815	64.4531	82.756	64.4531	83.0537	64.4531	82.8885	64.4531	83.095	64.4531	82.994	64.4531	83.0999	64.4531	83.0659
67.3828	82.2968	67.3828	82.2563	67.3828	82.3495	67.3828	82.2296	67.3828	82.4123	67.3828	82.2183	67.3828	82.483	67.3828	82.2234	67.3828	82.5596	67.3828	82.2454	67.3828	82.6404	67.3828	82.2848	67.3828	82.7245	67.3828	82.3416	67.3828	82.8118	67.3828	82.4157	67.3828	82.9027	67.3828	82.5065	67.3828	82.9978	67.3828	82.6126	67.3828	83.097	67.3828	82.7322	67.3828	83.1987	67.3828	82.862	67.3828	83.2994	67.3828	82.9977	67.3828	83.3935	67.3828	83.1332	67.3828	83.474	67.3828	83.2619	67.3828	83.5335	67.3828	83.3761	67.3828	83.5657	67.3828	83.4686	67.3828	83.5661	67.3828	83.5333
68.8477	82.5878	68.8477	82.5448	68.8477	82.6438	68.8477	82.5163	68.8477	82.7107	68.8477	82.5034	68.8477	82.786	68.8477	82.5068	68.8477	82.8673	68.8477	82.5268	68.8477	82.9525	68.8477	82.5633	68.8477	83.0401	68.8477	82.6161	68.8477	83.1291	68.8477	82.6847	68.8477	83.2193	68.8477	82.7686	68.8477	83.3108	68.8477	82.8667	68.8477	83.4032	68.8477	82.9773	68.8477	83.4951	68.8477	83.098	68.8477	83.5836	68.8477	83.2249	68.8477	83.6639	68.8477	83.353	68.8477	83.7301	68.8477	83.4761	68.8477	83.7761	68.8477	83.5873	68.8477	83.7963	68.8477	83.6799	68.8477	83.7873	68.8477	83.7479
71.7773	83.1342	71.7773	83.0883	71.7773	83.1938	71.7773	83.0575	71.7773	83.2651	71.7773	83.0427	71.7773	83.3454	71.7773	83.0438	71.7773	83.4315	71.7773	83.0604	71.7773	83.5204	71.7773	83.0919	71.7773	83.6097	71.7773	83.1374	71.7773	83.6973	71.7773	83.1962	71.7773	83.782	71.7773	83.2673	71.7773	83.8632	71.7773	83.3501	71.7773	83.9405	71.7773	83.4434	71.7773	84.0128	71.7773	83.5455	71.7773	84.0783	71.7773	83.6539	71.7773	84.134	71.7773	83.765	71.7773	84.1759	71.7773	83.8739	71.7773	84.1996	71.7773	83.9753	71.7773	84.2014	71.7773	84.0631	71.7773	84.1791	71.7773	84.1324
74.707	83.5501	74.707	83.5035	74.707	83.6109	74.707	83.4725	74.707	83.6839	74.707	83.4573	74.707	83.7662	74.707	83.4576	74.707	83.8541	74.707	83.4722	74.707	83.9442	74.707	83.5	74.707	84.033	74.707	83.5396	74.707	84.1177	74.707	83.5897	74.707	84.1964	74.707	83.6495	74.707	84.2679	74.707	83.7182	74.707	84.3316	74.707	83.7952	74.707	84.3868	74.707	83.8794	74.707	84.4327	74.707	83.9696	74.707	84.4674	74.707	84.0634	74.707	84.4887	74.707	84.1574	74.707	84.4939	74.707	84.2474	74.707	84.4809	74.707	84.3288	74.707	84.4484	74.707	84.397
77.6367	83.8055	77.6367	83.7572	77.6367	83.8686	77.6367	83.7247	77.6367	83.9443	77.6367	83.7082	77.6367	84.0294	77.6367	83.7068	77.6367	84.1199	77.6367	83.7189	77.6367	84.2118	77.6367	83.7429	77.6367	84.3009	77.6367	83.777	77.6367	84.3837	77.6367	83.8195	77.6367	84.4576	77.6367	83.8695	77.6367	84.5209	77.6367	83.9261	77.6367	84.5728	77.6367	83.9892	77.6367	84.6131	77.6367	84.0583	77.6367	84.6412	77.6367	84.133	77.6367	84.6569	77.6367	84.2122	77.6367	84.659	77.6367	84.2937	77.6367	84.6467	77.6367	84.3746	77.6367	84.6191	77.6367	84.4511	77.6367	84.5763	77.6367	84.5195
79.1016	83.9219	79.1016	83.8723	79.1016	83.9865	79.1016	83.8387	79.1016	84.0638	79.1016	83.8211	79.1016	84.1505	79.1016	83.8184	79.1016	84.2425	79.1016	83.829	79.1016	84.3353	79.1016	83.8509	79.1016	84.4247	79.1016	83.8822	79.1016	84.5066	79.1016	83.9211	79.1016	84.5783	79.1016	83.9665	79.1016	84.6379	79.1016	84.0177	79.1016	84.6844	79.1016	84.0745	79.1016	84.7176	79.1016	84.1368	79.1016	84.7376	79.1016	84.2047	79.1016	84.7442	79.1016	84.2774	79.1016	84.7373	79.1016	84.3535	79.1016	84.7165	79.1016	84.4305	79.1016	84.6818	79.1016	84.5052	79.1016	84.6338	79.1016	84.5741
82.0312	84.1857	82.0312	84.1316	82.0312	84.2549	82.0312	84.0939	82.0312	84.3369	82.0312	84.0721	82.0312	84.4281	82.0312	84.0653	82.0312	84.5241	82.0312	84.0714	82.0312	84.62	82.0312	84.0882	82.0312	84.7107	82.0312	84.1135	82.0312	84.7919	82.0312	84.1452	82.0312	84.86	82.0312	84.1822	82.0312	84.9129	82.0312	84.2236	82.0312	84.9493	82.0312	84.2696	82.0312	84.9693	82.0312	84.3205	82.0312	84.9733	82.0312	84.3771	82.0312	84.9624	82.0312	84.4394	82.0312	84.9374	82.0312	84.5072	82.0312	84.8995	82.0312	84.5788	82.0312	84.85	82.0312	84.6519	82.0312	84.7905	82.0312	84.7235
84.9609	84.3083	84.9609	84.2568	84.9609	84.375	84.9609	84.2215	84.9609	84.4546	84.9609	84.2019	84.9609	84.5437	84.9609	84.1966	84.9609	84.6375	84.9609	84.2033	84.9609	84.731	84.9609	84.2195	84.9609	84.8188	84.9609	84.2426	84.9609	84.8962	84.9609	84.2706	84.9609	84.9592	84.9609	84.3017	84.9609	85.0052	84.9609	84.3354	84.9609	85.0331	84.9609	84.3716	84.9609	85.0429	84.9609	84.4111	84.9609	85.0358	84.9609	84.4549	84.9609	85.0134	84.9609	84.504	84.9609	84.9778	84.9609	84.5588	84.9609	84.9312	84.9609	84.619	84.9609	84.8759	84.9609	84.6832	84.9609	84.8143	84.9609	84.7492
87.8906	84.5967	87.8906	84.5741	87.8906	84.6378	87.8906	84.5693	87.8906	84.6964	87.8906	84.5802	87.8906	84.7698	87.8906	84.6035	87.8906	84.8534	87.8906	84.6354	87.8906	84.9415	87.8906	84.6721	87.8906	85.0279	87.8906	84.7098	87.8906	85.1061	87.8906	84.7456	87.8906	85.1708	87.8906	84.7775	87.8906	85.2179	87.8906	84.8046	87.8906	85.2455	87.8906	84.8273	87.8906	85.2536	87.8906	84.8469	87.8906	85.244	87.8906	84.8655	87.8906	85.2201	87.8906	84.8856	87.8906	85.1855	87.8906	84.9092	87.8906	85.1442	87.8906	84.9379	87.8906	85.0995	87.8906	84.972	87.8906	85.0544	87.8906	85.0112
90.8203	84.9472	90.8203	84.9224	90.8203	84.9901	90.8203	84.9151	90.8203	85.0499	90.8203	84.9231	90.8203	85.1236	90.8203	84.943	90.8203	85.2066	90.8203	84.9709	90.8203	85.2929	90.8203	85.0024	90.8203	85.3758	90.8203	85.0335	90.8203	85.4488	90.8203	85.061	90.8203	85.5064	90.8203	85.0827	90.8203	85.5444	90.8203	85.0977	90.8203	85.5608	90.8203	85.1067	90.8203	85.5556	90.8203	85.1114	90.8203	85.531	90.8203	85.1148	90.8203	85.4908	90.8203	85.1205	90.8203	85.4397	90.8203	85.1318	90.8203	85.3826	90.8203	85.1514	90.8203	85.3244	90.8203	85.181	90.8203	85.2693	90.8203	85.2207
95.2148	85.2008	95.2148	85.1662	95.2148	85.2534	95.2148	85.1492	95.2148	85.3224	95.2148	85.1477	95.2148	85.4046	95.2148	85.1583	95.2148	85.4948	95.2148	85.1768	95.2148	85.5865	95.2148	85.1987	95.2148	85.6727	95.2148	85.2198	95.2148	85.7461	95.2148	85.2366	95.2148	85.8007	95.2148	85.2467	95.2148	85.8318	95.2148	85.2494	95.2148	85.837	95.2148	85.2454	95.2148	85.8161	95.2148	85.2371	95.2148	85.7718	95.2148	85.2283	95.2148	85.7083	95.2148	85.2237	95.2148	85.6318	95.2148	85.228	95.2148	85.549	95.2148	85.2452	95.2148	85.4667	95.2148	85.278	95.2148	85.3911	95.2148	85.3271
98.1445	85.2364	98.1445	85.1982	98.1445	85.2922	98.1445	85.1773	98.1445	85.3642	98.1445	85.1717	98.1445	85.4487	98.1445	85.1781	98.1445	85.5405	98.1445	85.192	98.1445	85.6331	98.1445	85.2091	98.1445	85.7191	98.1445	85.225	98.1445	85.7913	98.1445	85.236	98.1445	85.8432	98.1445	85.2398	98.1445	85.8698	98.1445	85.2355	98.1445	85.8685	98.1445	85.2239	98.1445	85.8393	98.1445	85.2077	98.1445	85.7845	98.1445	85.1912	98.1445	85.7092	98.1445	85.1796	98.1445	85.62	98.1445	85.1782	98.1445	85.5247	98.1445	85.1919	98.1445	85.431	98.1445	85.2242	98.1445	85.3462	98.1445	85.276
101.074	85.2774	101.074	85.2364	101.074	85.3354	101.074	85.2119	101.074	85.4085	101.074	85.2021	101.074	85.4934	101.074	85.2037	101.074	85.5846	101.074	85.2124	101.074	85.6757	101.074	85.2237	101.074	85.7592	101.074	85.2333	101.074	85.8276	101.074	85.2375	101.074	85.8744	101.074	85.2338	101.074	85.8946	101.074	85.2214	101.074	85.8852	101.074	85.2012	101.074	85.8463	101.074	85.1761	101.074	85.7805	101.074	85.1506	101.074	85.6931	101.074	85.1305	101.074	85.5915	101.074	85.1219	101.074	85.4843	101.074	85.1306	101.074	85.3805	101.074	85.1605	101.074	85.288	101.074	85.2134
105.469	85.3793	105.469	85.3443	105.469	85.4301	105.469	85.3245	105.469	85.495	105.469	85.3179	105.469	85.5709	105.469	85.321	105.469	85.6527	105.469	85.3295	105.469	85.7338	105.469	85.3387	105.469	85.807	105.469	85.3441	105.469	85.8649	105.469	85.3419	105.469	85.9008	105.469	85.3293	105.469	85.9097	105.469	85.3056	105.469	85.8886	105.469	85.2715	105.469	85.8376	105.469	85.2302	105.469	85.7599	105.469	85.1868	105.469	85.6613	105.469	85.1477	105.469	85.55	105.469	85.1202	105.469	85.4358	105.469	85.1114	105.469	85.3286	105.469	85.1266	105.469	85.2373	105.469	85.1687
108.398	85.4423	108.398	85.4087	108.398	85.492	108.398	85.3907	108.398	85.5561	108.398	85.3864	108.398	85.6313	108.398	85.3921	108.398	85.7123	108.398	85.4033	108.398	85.7925	108.398	85.4151	108.398	85.8646	108.398	85.4227	108.398	85.921	108.398	85.4217	108.398	85.955	108.398	85.4095	108.398	85.9616	108.398	85.3846	108.398	85.9379	108.398	85.348	108.398	85.884	108.398	85.3026	108.398	85.8031	108.398	85.2538	108.398	85.7013	108.398	85.2084	108.398	85.5872	108.398	85.1742	108.398	85.4709	108.398	85.1588	108.398	85.3628	108.398	85.1683	108.398	85.2722	108.398	85.2061
112.793	85.5076	112.793	85.461	112.793	85.5712	112.793	85.4317	112.793	85.6497	112.793	85.418	112.793	85.7389	112.793	85.4166	112.793	85.833	112.793	85.4229	112.793	85.9249	112.793	85.4319	112.793	86.0068	112.793	85.4383	112.793	86.0709	112.793	85.4375	112.793	86.11	112.793	85.4262	112.793	86.119	112.793	85.403	112.793	86.0946	112.793	85.3683	112.793	86.0368	112.793	85.3254	112.793	85.9488	112.793	85.2795	112.793	85.8368	112.793	85.238	112.793	85.71	112.793	85.2091	112.793	85.5791	112.793	85.2009	112.793	85.4555	112.793	85.2199	112.793	85.3497	112.793	85.2696
117.188	85.3023	117.188	85.2375	117.188	85.3825	117.188	85.1885	117.188	85.4761	117.188	85.1542	117.188	85.5794	117.188	85.132	117.188	85.6869	117.188	85.1182	117.188	85.7919	117.188	85.1088	117.188	85.8866	117.188	85.0995	117.188	85.963	117.188	85.0863	117.188	86.0132	117.188	85.0668	117.188	86.0311	117.188	85.0398	117.188	86.0124	117.188	85.0063	117.188	85.956	117.188	84.9698	117.188	85.8641	117.188	84.9356	117.188	85.7424	117.188	84.9109	117.188	85.5996	117.188	84.9038	117.188	85.4471	117.188	84.9215	117.188	85.2972	117.188	84.9698	117.188	85.1618	117.188	85.0505
120.117	85.4105	120.117	85.3812	120.117	85.451	120.117	85.3623	120.117	85.5018	120.117	85.3521	120.117	85.5608	120.117	85.3476	120.117	85.6244	120.117	85.3451	120.117	85.6873	120.117	85.3408	120.117	85.7435	120.117	85.3306	120.117	85.786	120.117	85.3109	120.117	85.8083	120.117	85.2795	120.117	85.8048	120.117	85.2356	120.117	85.7718	120.117	85.1802	120.117	85.7084	120.117	85.1168	120.117	85.6172	120.117	85.0509	120.117	85.5039	120.117	84.9902	120.117	85.3773	120.117	84.9432	120.117	85.2485	120.117	84.9184	120.117	85.1293	120.117	84.9227	120.117	85.0303	120.117	84.96
124.512	85.689	124.512	85.6507	124.512	85.7401	124.512	85.6257	124.512	85.8022	124.512	85.6124	124.512	85.8717	124.512	85.608	124.512	85.944	124.512	85.6086	124.512	86.0127	124.512	85.6094	124.512	86.0714	124.512	85.6054	124.512	86.1129	124.512	85.5923	124.512	86.1309	124.512	85.5667	124.512	86.1204	124.512	85.5269	124.512	86.0785	124.512	85.4738	124.512	86.0052	124.512	85.4102	124.512	85.9037	124.512	85.3419	124.512	85.7808	124.512	85.2765	124.512	85.6461	124.512	85.2233	124.512	85.5114	124.512	85.1917	124.512	85.389	124.512	85.1896	124.512	85.2898	124.512	85.2221
128.906	85.6952	128.906	85.6425	128.906	85.7591	128.906	85.6017	128.906	85.8316	128.906	85.5723	128.906	85.9091	128.906	85.5521	128.906	85.9864	128.906	85.5377	128.906	86.0576	128.906	85.5247	128.906	86.1159	128.906	85.5087	128.906	86.1547	128.906	85.4854	128.906	86.1676	128.906	85.4514	128.906	86.1498	128.906	85.4054	128.906	86.0985	128.906	85.3478	128.906	86.0137	128.906	85.2819	128.906	85.8989	128.906	85.2132	128.906	85.7612	128.906	85.1497	128.906	85.6107	128.906	85.1006	128.906	85.4596	128.906	85.0755	128.906	85.3211	128.906	85.0822	128.906	85.2069	128.906	85.1259
133.301	85.6486	133.301	85.5936	133.301	85.7141	133.301	85.5497	133.301	85.7876	133.301	85.5164	133.301	85.8653	133.301	85.4915	133.301	85.9423	133.301	85.4715	133.301	86.0124	133.301	85.4522	133.301	86.0687	133.301	85.4289	133.301	86.104	133.301	85.3974	133.301	86.1119	133.301	85.3545	133.301	86.0869	133.301	85.2988	133.301	86.0262	133.301	85.2309	133.301	85.9299	133.301	85.1542	133.301	85.8017	133.301	85.0749	133.301	85.6493	133.301	85.0014	133.301	85.4838	133.301	84.9436	133.301	85.3188	133.301	84.9121	133.301	85.1685	133.301	84.9156	133.301	85.0457	133.301	84.9599
139.16	85.5525	139.16	85.4868	139.16	85.6289	139.16	85.4334	139.16	85.7133	139.16	85.3922	139.16	85.8014	139.16	85.3614	139.16	85.8882	139.16	85.3381	139.16	85.9674	139.16	85.3179	139.16	86.0321	139.16	85.2961	139.16	86.0752	139.16	85.2681	139.16	86.0898	139.16	85.2303	139.16	86.0706	139.16	85.1807	139.16	86.0142	139.16	85.1198	139.16	85.9203	139.16	85.0507	139.16	85.7925	139.16	84.9794	139.16	85.6381	139.16	84.9143	139.16	85.4684	139.16	84.8655	139.16	85.2969	139.16	84.8433	139.16	85.1385	139.16	84.8566	139.16	85.0064	139.16	84.9108
143.555	85.5046	143.555	85.4572	143.555	85.5604	143.555	85.4181	143.555	85.6243	143.555	85.386	143.555	85.6949	143.555	85.359	143.555	85.7698	143.555	85.3337	143.555	85.8452	143.555	85.3064	143.555	85.9152	143.555	85.2726	143.555	85.9726	143.555	85.2286	143.555	86.0087	143.555	85.1715	143.555	86.0149	143.555	85.1008	143.555	85.9841	143.555	85.0183	143.555	85.9117	143.555	84.9292	143.555	85.7977	143.555	84.8415	143.555	85.6469	143.555	84.7661	143.555	85.4695	143.555	84.7151	143.555	85.28	143.555	84.7001	143.555	85.0956	143.555	84.73	143.555	84.9337	143.555	84.8087
147.949	85.6436	147.949	85.611	147.949	85.6809	147.949	85.5826	147.949	85.7224	147.949	85.5576	147.949	85.7672	147.949	85.5338	147.949	85.8138	147.949	85.5084	147.949	85.8592	147.949	85.4777	147.949	85.8993	147.949	85.4379	147.949	85.9283	147.949	85.3852	147.949	85.9395	147.949	85.3176	147.949	85.9256	147.949	85.2345	147.949	85.8805	147.949	85.1383	147.949	85.8006	147.949	85.0343	147.949	85.6858	147.949	84.9307	147.949	85.5408	147.949	84.8381	147.949	85.3751	147.949	84.7686	147.949	85.2024	147.949	84.7335	147.949	85.0385	147.949	84.7418	147.949	84.8992	147.949	84.7976
153.809	85.6517	153.809	85.6	153.809	85.7094	153.809	85.5547	153.809	85.7721	153.809	85.515	153.809	85.8377	153.809	85.4788	153.809	85.9031	153.809	85.4428	153.809	85.9641	153.809	85.4027	153.809	86.015	153.809	85.354	153.809	86.0488	153.809	85.2923	153.809	86.0575	153.809	85.2151	153.809	86.0336	153.809	85.122	153.809	85.9709	153.809	85.0153	153.809	85.8666	153.809	84.901	153.809	85.7219	153.809	84.7881	153.809	85.5435	153.809	84.6883	153.809	85.3432	153.809	84.6145	153.809	85.1372	153.809	84.5795	153.809	84.9435	153.809	84.593	153.809	84.7798	153.809	84.6603
159.668	85.4483	159.668	85.4072	159.668	85.4966	159.668	85.3737	159.668	85.5508	159.668	85.347	159.668	85.609	159.668	85.325	159.668	85.6683	159.668	85.3037	159.668	85.7246	159.668	85.2781	159.668	85.7726	159.668	85.2427	159.668	85.8052	159.668	85.1922	159.668	85.8143	159.668	85.1229	159.668	85.792	159.668	85.0334	159.668	85.7316	159.668	84.9259	159.668	85.6296	159.668	84.8057	159.668	85.4872	159.668	84.6822	159.668	85.3111	159.668	84.5676	159.668	85.1138	159.668	84.4763	159.668	84.9123	159.668	84.4222	159.668	84.7258	159.668	84.4169	159.668	84.5727	159.668	84.4671
165.527	85.1649	165.527	85.0939	165.527	85.2364	165.527	85.0243	165.527	85.3075	165.527	84.9572	165.527	85.3776	165.527	84.8928	165.527	85.4457	165.527	84.8301	165.527	85.5102	165.527	84.7668	165.527	85.5671	165.527	84.6998	165.527	85.6105	165.527	84.6258	165.527	85.6325	165.527	84.5423	165.527	85.6239	165.527	84.4489	165.527	85.5766	165.527	84.3479	165.527	85.4849	165.527	84.245	165.527	85.3476	165.527	84.1491	165.527	85.1693	165.527	84.0715	165.527	84.9607	165.527	84.0249	165.527	84.7376	165.527	84.0211	165.527	84.5192	165.527	84.0688	165.527	84.325	165.527	84.1713
171.387	85.27	171.387	85.2343	171.387	85.3031	171.387	85.1969	171.387	85.3325	171.387	85.1576	171.387	85.3568	171.387	85.1154	171.387	85.3745	171.387	85.0675	171.387	85.3834	171.387	85.0104	171.387	85.3807	171.387	84.94	171.387	85.3623	171.387	84.8526	171.387	85.3231	171.387	84.746	171.387	85.2578	171.387	84.6204	171.387	85.162	171.387	84.4794	171.387	85.0337	171.387	84.3296	171.387	84.8745	171.387	84.1813	171.387	84.6911	171.387	84.047	171.387	84.4949	171.387	83.9401	171.387	84.3009	171.387	83.8732	171.387	84.1261	171.387	83.8562	171.387	83.9864	171.387	83.8942
177.246	85.263	177.246	85.1993	177.246	85.3246	177.246	85.135	177.246	85.3824	177.246	85.0714	177.246	85.4349	177.246	85.0083	177.246	85.4806	177.246	84.9441	177.246	85.5172	177.246	84.8758	177.246	85.5415	177.246	84.7992	177.246	85.5482	177.246	84.7103	177.246	85.5308	177.246	84.6063	177.246	85.4819	177.246	84.4869	177.246	85.3953	177.246	84.3549	177.246	85.2675	177.246	84.2169	177.246	85.0992	177.246	84.0832	177.246	84.897	177.246	83.9664	177.246	84.6732	177.246	83.8806	177.246	84.4451	177.246	83.8389	177.246	84.2322	177.246	83.8515	177.246	84.0533	177.246	83.9235
183.105	85.3584	183.105	85.3018	183.105	85.4108	183.105	85.2428	183.105	85.4571	183.105	85.1829	183.105	85.4962	183.105	85.1225	183.105	85.5271	183.105	85.0602	183.105	85.5486	183.105	84.9933	183.105	85.5587	183.105	84.9179	183.105	85.5536	183.105	84.8302	183.105	85.5281	183.105	84.7279	183.105	85.4761	183.105	84.6109	183.105	85.3919	183.105	84.4823	183.105	85.2721	183.105	84.3489	183.105	85.1172	183.105	84.2204	183.105	84.9331	183.105	84.109	183.105	84.7307	183.105	84.0273	183.105	84.5254	183.105	83.9868	183.105	84.3346	183.105	83.9962	183.105	84.1749	183.105	84.0595
188.965	85.4	188.965	85.3372	188.965	85.455	188.965	85.2695	188.965	85.4999	188.965	85.199	188.965	85.5331	188.965	85.1268	188.965	85.5536	188.965	85.0522	188.965	85.5605	188.965	84.9729	188.965	85.5525	188.965	84.885	188.965	85.5269	188.965	84.7852	188.965	85.4798	188.965	84.6709	188.965	85.4064	188.965	84.5424	188.965	85.3025	188.965	84.4032	188.965	85.1658	188.965	84.2603	188.965	84.9979	188.965	84.124	188.965	84.805	188.965	84.0064	188.965	84.5985	188.965	83.9198	188.965	84.393	188.965	83.8753	188.965	84.205	188.965	83.8807	188.965	84.0499	188.965	83.9394
196.289	85.1998	196.289	85.1205	196.289	85.2735	196.289	85.0394	196.289	85.3385	196.289	84.9601	196.289	85.3932	196.289	84.885	196.289	85.4363	196.289	84.8146	196.289	85.4671	196.289	84.7468	196.289	85.4837	196.289	84.6779	196.289	85.4828	196.289	84.6034	196.289	85.4593	196.289	84.5197	196.289	85.4073	196.289	84.4255	196.289	85.3215	196.289	84.3226	196.289	85.1993	196.289	84.2161	196.289	85.0423	196.289	84.1141	196.289	84.8575	196.289	84.0267	196.289	84.6573	196.289	83.9645	196.289	84.4573	196.289	83.9371	196.289	84.2745	196.289	83.9522	196.289	84.1233	196.289	84.0143
203.613	85.1515	203.613	85.0733	203.613	85.2088	203.613	84.9774	203.613	85.2437	203.613	84.8681	203.613	85.2567	203.613	84.7495	203.613	85.2503	203.613	84.6246	203.613	85.2276	203.613	84.4952	203.613	85.1916	203.613	84.3618	203.613	85.1434	203.613	84.2245	203.613	85.0817	203.613	84.0844	203.613	85.0029	203.613	83.9443	203.613	84.9025	203.613	83.8096	203.613	84.777	203.613	83.6877	203.613	84.6259	203.613	83.5873	203.613	84.4531	203.613	83.5166	203.613	84.2669	203.613	83.4822	203.613	84.0789	203.613	83.488	203.613	83.9016	203.613	83.5351	203.613	83.7465	203.613	83.6224
210.938	85.3114	210.938	85.2462	210.938	85.3515	210.938	85.1593	210.938	85.3652	210.938	85.0545	210.938	85.3537	210.938	84.9354	210.938	85.3205	210.938	84.8036	210.938	85.2703	210.938	84.6591	210.938	85.2072	210.938	84.5004	210.938	85.1332	210.938	84.3261	210.938	85.0468	210.938	84.1365	210.938	84.9432	210.938	83.9355	210.938	84.8162	210.938	83.7312	210.938	84.6602	210.938	83.536	210.938	84.4739	210.938	83.3651	210.938	84.2614	210.938	83.2335	210.938	84.033	210.938	83.1529	210.938	83.8033	210.938	83.1302	210.938	83.5885	210.938	83.1669	210.938	83.4034	210.938	83.26
218.262	85.3754	218.262	85.319	218.262	85.4139	218.262	85.2494	218.262	85.4307	218.262	85.1711	218.262	85.424	218.262	85.0866	218.262	85.394	218.262	84.9957	218.262	85.3422	218.262	84.8955	218.262	85.2705	218.262	84.781	218.262	85.18	218.262	84.6471	218.262	85.0698	218.262	84.4908	218.262	84.9377	218.262	84.3126	218.262	84.7806	218.262	84.118	218.262	84.5977	218.262	83.9177	218.262	84.3919	218.262	83.7259	218.262	84.1716	218.262	83.5584	218.262	83.9501	218.262	83.4293	218.262	83.7435	218.262	83.3487	218.262	83.5675	218.262	83.322	218.262	83.434	218.262	83.3508
225.586	85.1733	225.586	85.0816	225.586	85.2465	225.586	84.9777	225.586	85.2969	225.586	84.8682	225.586	85.3226	225.586	84.7581	225.586	85.3243	225.586	84.6495	225.586	85.3039	225.586	84.5408	225.586	85.263	225.586	84.4276	225.586	85.2016	225.586	84.3048	225.586	85.1169	225.586	84.1686	225.586	85.0042	225.586	84.0189	225.586	84.8587	225.586	83.8602	225.586	84.6783	225.586	83.7016	225.586	84.4665	225.586	83.5552	225.586	84.2338	225.586	83.4331	225.586	83.9968	225.586	83.3456	225.586	83.7749	225.586	83.2994	225.586	83.5856	225.586	83.2983	225.586	83.4406	225.586	83.3447
232.91	85.2229	232.91	85.1016	232.91	85.3119	232.91	84.9545	232.91	85.3659	232.91	84.7899	232.91	85.3859	232.91	84.6161	232.91	85.3767	232.91	84.4394	232.91	85.3451	232.91	84.2629	232.91	85.2973	232.91	84.0873	232.91	85.2367	232.91	83.9115	232.91	85.162	232.91	83.7357	232.91	85.0673	232.91	83.5632	232.91	84.9445	232.91	83.4012	232.91	84.787	232.91	83.2603	232.91	84.5931	232.91	83.1524	232.91	84.3682	232.91	83.087	232.91	84.1254	232.91	83.0694	232.91	83.8817	232.91	83.1001	232.91	83.6546	232.91	83.1768	232.91	83.457	232.91	83.2966
241.699	84.9867	241.699	84.85	241.699	85.0818	241.699	84.6769	241.699	85.1336	241.699	84.4756	241.699	85.1439	241.699	84.2551	241.699	85.1175	241.699	84.0241	241.699	85.0601	241.699	83.7894	241.699	84.9764	241.699	83.556	241.699	84.8678	241.699	83.3278	241.699	84.7323	241.699	83.1096	241.699	84.5651	241.699	82.9079	241.699	84.3617	241.699	82.7319	241.699	84.1215	241.699	82.5913	241.699	83.8517	241.699	82.4936	241.699	83.568	241.699	82.4414	241.699	83.2925	241.699	82.4311	241.699	83.0475	241.699	82.4552	241.699	82.8475	241.699	82.507	241.699	82.6957	241.699	82.5853
250.488	85.3689	250.488	85.2595	250.488	85.4358	250.488	85.114	250.488	85.4576	250.488	84.9406	250.488	85.4358	250.488	84.7473	250.488	85.3767	250.488	84.5399	250.488	85.2893	250.488	84.3214	250.488	85.1832	250.488	84.0919	250.488	85.0652	250.488	83.8504	250.488	84.9365	250.488	83.5979	250.488	84.792	250.488	83.3396	250.488	84.6222	250.488	83.0866	250.488	84.4177	250.488	82.8552	250.488	84.1738	250.488	82.6636	250.488	83.8952	250.488	82.5275	250.488	83.5966	250.488	82.4558	250.488	83.2998	250.488	82.4501	250.488	83.0282	250.488	82.5076	250.488	82.7998	250.488	82.6249
259.277	85.6405	259.277	85.5969	259.277	85.6355	259.277	85.5053	259.277	85.5839	259.277	85.3679	259.277	85.491	259.277	85.1867	259.277	85.3654	259.277	84.9627	259.277	85.217	259.277	84.6957	259.277	85.0553	259.277	84.3852	259.277	84.8864	259.277	84.0321	259.277	84.7108	259.277	83.6419	259.277	84.5234	259.277	83.2274	259.277	84.3149	259.277	82.8108	259.277	84.0764	259.277	82.4233	259.277	83.8036	259.277	82.1008	259.277	83.4998	259.277	81.875	259.277	83.1767	259.277	81.7631	259.277	82.8517	259.277	81.7639	259.277	82.543	259.277	81.8612	259.277	82.2664	259.277	82.0346
268.066	85.3511	268.066	85.2687	268.066	85.4061	268.066	85.1684	268.066	85.4264	268.066	85.06	268.066	85.4083	268.066	84.9501	268.066	85.3522	268.066	84.8409	268.066	85.2621	268.066	84.7292	268.066	85.1432	268.066	84.608	268.066	85.0012	268.066	84.4692	268.066	84.8394	268.066	84.3076	268.066	84.6593	268.066	84.1232	268.066	84.4614	268.066	83.9234	268.066	84.2477	268.066	83.7215	268.066	84.0248	268.066	83.5348	268.066	83.8047	268.066	83.3791	268.066	83.6028	268.066	83.2646	268.066	83.4335	268.066	83.1944	268.066	83.3054	268.066	83.1655	268.066	83.2201	268.066	83.1744
276.855	85.1528	276.855	84.9768	276.855	85.2797	276.855	84.7601	276.855	85.3528	276.855	84.5131	276.855	85.3717	276.855	84.2462	276.855	85.3397	276.855	83.9682	276.855	85.2626	276.855	83.6849	276.855	85.1468	276.855	83.4001	276.855	84.997	276.855	83.1173	276.855	84.8147	276.855	82.8436	276.855	84.5992	276.855	82.591	276.855	84.349	276.855	82.3767	276.855	84.0667	276.855	82.2193	276.855	83.7621	276.855	82.1314	276.855	83.4538	276.855	82.1142	276.855	83.1657	276.855	82.1555	276.855	82.9186	276.855	82.2354	276.855	82.7216	276.855	82.3348	276.855	82.5687	276.855	82.4446
287.109	85.4363	287.109	85.3589	287.109	85.46	287.109	85.2327	287.109	85.4307	287.109	85.0658	287.109	85.355	287.109	84.8668	287.109	85.2448	287.109	84.6423	287.109	85.1145	287.109	84.3953	287.109	84.9766	287.109	84.1259	287.109	84.8368	287.109	83.8334	287.109	84.6912	287.109	83.5201	287.109	84.5273	287.109	83.1951	287.109	84.329	287.109	82.8757	287.109	84.0839	287.109	82.5866	287.109	83.7906	287.109	82.3535	287.109	83.4626	287.109	82.1945	287.109	83.1275	287.109	82.1138	287.109	82.8185	287.109	82.1018	287.109	82.5619	287.109	82.144	287.109	82.368	287.109	82.2319
297.363	85.6938	297.363	85.6148	297.363	85.7162	297.363	85.4859	297.363	85.6775	297.363	85.3143	297.363	85.5777	297.363	85.1052	297.363	85.4217	297.363	84.8605	297.363	85.2195	297.363	84.5792	297.363	84.9844	297.363	84.259	297.363	84.731	297.363	83.9	297.363	84.4718	297.363	83.5085	297.363	84.2143	297.363	83.1002	297.363	83.9599	297.363	82.7023	297.363	83.7063	297.363	82.3503	297.363	83.451	297.363	82.0804	297.363	83.1955	297.363	81.9167	297.363	82.9462	297.363	81.8623	297.363	82.7118	297.363	81.8995	297.363	82.4987	297.363	82.0007	297.363	82.3089	297.363	82.1417
307.617	85.1611	307.617	85.0445	307.617	85.2458	307.617	84.9083	307.617	85.2888	307.617	84.765	307.617	85.2849	307.617	84.6228	307.617	85.2333	307.617	84.4827	307.617	85.1368	307.617	84.3384	307.617	84.9991	307.617	84.1789	307.617	84.8239	307.617	83.9939	307.617	84.6132	307.617	83.7787	307.617	84.3683	307.617	83.5391	307.617	84.0923	307.617	83.2919	307.617	83.7943	307.617	83.0625	307.617	83.4925	307.617	82.8768	307.617	83.2139	307.617	82.7514	307.617	82.9863	307.617	82.6862	307.617	82.8278	307.617	82.6654	307.617	82.737	307.617	82.6674	307.617	82.695	307.617	82.6772
319.336	84.868	319.336	84.7409	319.336	84.9489	319.336	84.5771	319.336	84.9802	319.336	84.3888	319.336	84.9647	319.336	84.1873	319.336	84.9097	319.336	83.9783	319.336	84.8242	319.336	83.7602	319.336	84.7143	319.336	83.5261	319.336	84.58	319.336	83.2684	319.336	84.4142	319.336	82.9856	319.336	84.2052	319.336	82.6878	319.336	83.9422	319.336	82.3987	319.336	83.6242	319.336	82.1516	319.336	83.2667	319.336	81.9783	319.336	82.904	319.336	81.8942	319.336	82.5818	319.336	81.889	319.336	82.3383	319.336	81.9323	319.336	82.1843	319.336	81.9902	319.336	82.0985	319.336	82.0436
329.59	84.9667	329.59	84.8068	329.59	85.0633	329.59	84.5969	329.59	85.0904	329.59	84.3544	329.59	85.0494	329.59	84.096	329.59	84.948	329.59	83.8324	329.59	84.7981	329.59	83.5652	329.59	84.6113	329.59	83.288	329.59	84.3951	329.59	82.9921	329.59	84.1501	329.59	82.675	329.59	83.8714	329.59	82.3485	329.59	83.5533	329.59	82.0411	329.59	83.1975	329.59	81.7924	329.59	82.8217	329.59	81.6376	329.59	82.4622	329.59	81.5879	329.59	82.1654	329.59	81.6217	329.59	81.9657	329.59	81.6953	329.59	81.8644	329.59	81.7646	329.59	81.8274	329.59	81.8062
341.309	85.2785	341.309	85.117	341.309	85.3757	341.309	84.9055	341.309	85.4022	341.309	84.6623	341.309	85.3602	341.309	84.4053	341.309	85.2598	341.309	84.1456	341.309	85.1155	341.309	83.8842	341.309	84.9413	341.309	83.6127	341.309	84.7452	341.309	83.3185	341.309	84.5242	341.309	82.9926	341.309	84.265	341.309	82.6369	341.309	83.9499	341.309	82.2697	341.309	83.5672	341.309	81.9245	341.309	83.1238	341.309	81.6416	341.309	82.6523	341.309	81.4516	341.309	82.2085	341.309	81.3589	341.309	81.8511	341.309	81.3407	341.309	81.6111	341.309	81.3631	341.309	81.476	341.309	81.4054
353.027	85.4253	353.027	85.2482	353.027	85.5147	353.027	84.9928	353.027	85.5165	353.027	84.6749	353.027	85.4409	353.027	84.312	353.027	85.3074	353.027	83.9177	353.027	85.1397	353.027	83.4979	353.027	84.9581	353.027	83.0507	353.027	84.7709	353.027	82.5712	353.027	84.5691	353.027	82.0609	353.027	84.3276	353.027	81.5375	353.027	84.0147	353.027	81.0418	353.027	83.6061	353.027	80.6347	353.027	83.0993	353.027	80.3755	353.027	82.5263	353.027	80.289	353.027	81.9547	353.027	80.3457	353.027	81.4675	353.027	80.4792	353.027	81.1196	353.027	80.6258	353.027	80.9031	353.027	80.7591
366.211	85.2947	366.211	85.1671	366.211	85.3468	366.211	84.9804	366.211	85.3169	366.211	84.7564	366.211	85.2097	366.211	84.516	366.211	85.0411	366.211	84.2712	366.211	84.8348	366.211	84.0205	366.211	84.6166	366.211	83.7494	366.211	84.4054	366.211	83.4371	366.211	84.204	366.211	83.067	366.211	83.9958	366.211	82.637	366.211	83.75	366.211	82.1669	366.211	83.4352	366.211	81.7007	366.211	83.035	366.211	81.2976	366.211	82.5617	366.211	81.0085	366.211	82.0615	366.211	80.8503	366.211	81.6033	366.211	80.8002	366.211	81.2486	366.211	80.8196	366.211	81.0181	366.211	80.8875
379.395	84.7498	379.395	84.6111	379.395	84.8033	379.395	84.3969	379.395	84.7758	379.395	84.1283	379.395	84.6856	379.395	83.83	379.395	84.5613	379.395	83.5224	379.395	84.4333	379.395	83.2129	379.395	84.3214	379.395	82.8946	379.395	84.2235	379.395	82.5511	379.395	84.1125	379.395	82.1682	379.395	83.943	379.395	81.7443	379.395	83.6666	379.395	81.2998	379.395	83.2486	379.395	80.8771	379.395	82.6851	379.395	80.5305	379.395	82.0186	379.395	80.302	379.395	81.3433	379.395	80.1953	379.395	80.7819	379.395	80.1728	379.395	80.4207	379.395	80.1832	379.395	80.2533	379.395	80.2006
392.578	84.9436	392.578	84.8219	392.578	84.9364	392.578	84.5945	392.578	84.7931	392.578	84.2976	392.578	84.5262	392.578	83.9742	392.578	84.172	392.578	83.6637	392.578	83.7947	392.578	83.3897	392.578	83.4785	392.578	83.1517	392.578	83.2989	392.578	82.9269	392.578	83.2781	392.578	82.6824	392.578	83.363	392.578	82.3893	392.578	83.4513	392.578	82.0343	392.578	83.4397	392.578	81.626	392.578	83.2578	392.578	81.1958	392.578	82.8813	392.578	80.7909	392.578	82.3362	392.578	80.4614	392.578	81.6976	392.578	80.247	392.578	81.0764	392.578	80.1773	392.578	80.5825	392.578	80.2807
405.762	85.5025	405.762	85.2617	405.762	85.6175	405.762	84.9134	405.762	85.5992	405.762	84.4851	405.762	85.4527	405.762	84.0098	405.762	85.1972	405.762	83.5215	405.762	84.8662	405.762	83.0493	405.762	84.505	405.762	82.6145	405.762	84.161	405.762	82.2316	405.762	83.869	405.762	81.9121	405.762	83.6365	405.762	81.6691	405.762	83.4423	405.762	81.5152	405.762	83.2504	405.762	81.457	405.762	83.0321	405.762	81.4866	405.762	82.7825	405.762	81.579	405.762	82.5244	405.762	81.6987	405.762	82.2963	405.762	81.8115	405.762	82.1292	405.762	81.898	405.762	82.0261	405.762	81.9611
420.41	86.3259	420.41	86.1428	420.41	86.3818	420.41	85.8532	420.41	86.296	420.41	85.4812	420.41	86.0631	420.41	85.049	420.41	85.6892	420.41	84.5731	420.41	85.1963	420.41	84.0604	420.41	84.6285	420.41	83.5107	420.41	84.0542	420.41	82.9233	420.41	83.5557	420.41	82.309	420.41	83.198	420.41	81.7036	420.41	82.991	420.41	81.1743	420.41	82.883	420.41	80.8075	420.41	82.7957	420.41	80.6669	420.41	82.6705	420.41	80.7474	420.41	82.4915	420.41	80.9739	420.41	82.2813	420.41	81.2486	420.41	82.0751	420.41	81.5011	420.41	81.8895	420.41	81.7089
435.059	85.8394	435.059	85.658	435.059	85.8905	435.059	85.3763	435.059	85.7941	435.059	85.033	435.059	85.5485	435.059	84.6679	435.059	85.1697	435.059	84.3102	435.059	84.6946	435.059	83.9687	435.059	84.1828	435.059	83.6306	435.059	83.711	435.059	83.2718	435.059	83.3518	435.059	82.873	435.059	83.1391	435.059	82.436	435.059	83.0455	435.059	81.9942	435.059	82.9982	435.059	81.6112	435.059	82.921	435.059	81.3592	435.059	82.7716	435.059	81.2785	435.059	82.5561	435.059	81.3479	435.059	82.3179	435.059	81.499	435.059	82.1068	435.059	81.6627	435.059	81.9429	435.059	81.8065
451.172	85.5338	451.172	85.3337	451.172	85.5951	451.172	85.014	451.172	85.5136	451.172	84.6084	451.172	85.3005	451.172	84.1585	451.172	84.9803	451.172	83.7023	451.172	84.5886	451.172	83.2604	451.172	84.1669	451.172	82.8293	451.172	83.754	451.172	82.3881	451.172	83.3742	451.172	81.9164	451.172	83.0276	451.172	81.416	451.172	82.6931	451.172	80.9277	451.172	82.3453	451.172	80.533	451.172	81.9785	451.172	80.3244	451.172	81.6247	451.172	80.3444	451.172	81.3455	451.172	80.5442	451.172	81.1928	451.172	80.8112	451.172	81.1607	451.172	81.0358	451.172	81.179	451.172	81.1574
465.82	85.5815	465.82	85.3826	465.82	85.6476	465.82	85.0783	465.82	85.5666	465.82	84.7059	465.82	85.3383	465.82	84.304	465.82	84.9786	465.82	83.9012	465.82	84.5228	465.82	83.5047	465.82	84.0287	465.82	83.0983	465.82	83.5714	465.82	82.6524	465.82	83.2185	465.82	82.1419	465.82	82.9927	465.82	81.566	465.82	82.8503	465.82	80.9666	465.82	82.7047	465.82	80.4361	465.82	82.4742	465.82	80.0909	465.82	82.125	465.82	79.9991	465.82	81.6908	465.82	80.1191	465.82	81.2637	465.82	80.3293	465.82	80.9422	465.82	80.5177	465.82	80.7564	465.82	80.6452
483.398	85.8912	483.398	85.6386	483.398	85.9792	483.398	85.2499	483.398	85.8866	483.398	84.7676	483.398	85.6097	483.398	84.2454	483.398	85.1598	483.398	83.7384	483.398	84.57	483.398	83.284	483.398	83.9049	483.398	82.8856	483.398	83.2652	483.398	82.5119	483.398	82.7672	483.398	82.1173	483.398	82.4845	483.398	81.6691	483.398	82.3899	483.398	81.1709	483.398	82.3679	483.398	80.6756	483.398	82.2904	483.398	80.2776	483.398	82.0826	483.398	80.0674	483.398	81.7482	483.398	80.0651	483.398	81.3591	483.398	80.2031	483.398	81.0099	483.398	80.3858	483.398	80.7519	483.398	80.5623
499.512	85.5744	499.512	85.3006	499.512	85.7066	499.512	84.9144	499.512	85.6817	499.512	84.4611	499.512	85.4947	499.512	83.9981	499.512	85.1486	499.512	83.5812	499.512	84.6534	499.512	83.2416	499.512	84.0282	499.512	82.97	499.512	83.308	499.512	82.7224	499.512	82.5561	499.512	82.4463	499.512	81.8731	499.512	82.1079	499.512	81.3767	499.512	81.7107	499.512	81.1354	499.512	81.3012	499.512	81.1103	499.512	80.9576	499.512	81.1856	499.512	80.754	499.512	81.2547	499.512	80.7142	499.512	81.2694	499.512	80.7961	499.512	81.2312	499.512	80.9281	499.512	81.1573	499.512	81.0554
517.09	86.0738	517.09	85.8773	517.09	86.1008	517.09	85.5204	517.09	85.9603	517.09	85.0264	517.09	85.6626	517.09	84.436	517.09	85.2265	517.09	83.8085	517.09	84.6812	517.09	83.2139	517.09	84.0729	517.09	82.7142	517.09	83.4712	517.09	82.3383	517.09	82.9645	517.09	82.0728	517.09	82.6287	517.09	81.8789	517.09	82.4804	517.09	81.7226	517.09	82.4586	517.09	81.5954	517.09	82.4644	517.09	81.5138	517.09	82.4207	517.09	81.5001	517.09	82.3064	517.09	81.5562	517.09	82.1535	517.09	81.6544	517.09	82.0131	517.09	81.7549	517.09	81.9121	517.09	81.8366
536.133	86.0928	536.133	85.7313	536.133	86.2934	536.133	85.237	536.133	86.3166	536.133	84.6531	536.133	86.1531	536.133	84.0383	536.133	85.8007	536.133	83.458	536.133	85.2648	536.133	82.9634	536.133	84.5644	536.133	82.5681	536.133	83.7422	536.133	82.2449	536.133	82.8788	536.133	81.9472	536.133	82.0995	536.133	81.6419	536.133	81.5413	536.133	81.3337	536.133	81.2714	536.133	81.0714	536.133	81.2357	536.133	80.9277	536.133	81.3156	536.133	80.9511	536.133	81.4203	536.133	81.1205	536.133	81.5172	536.133	81.3508	536.133	81.6019	536.133	81.5467	536.133	81.6586	536.133	81.6509
555.176	85.6788	555.176	85.5323	555.176	85.6657	555.176	85.2176	555.176	85.5188	555.176	84.7469	555.176	85.2738	555.176	84.1553	555.176	84.9639	555.176	83.499	555.176	84.6052	555.176	82.8479	555.176	84.1866	555.176	82.2689	555.176	83.6698	555.176	81.8025	555.176	83.005	555.176	81.4511	555.176	82.1633	555.176	81.19	555.176	81.1945	555.176	80.9967	555.176	80.3032	555.176	80.8755	555.176	79.8325	555.176	80.8579	555.176	79.9718	555.176	80.9723	555.176	80.5137	555.176	81.204	555.176	81.1132	555.176	81.4862	555.176	81.5658	555.176	81.7288	555.176	81.8108	555.176	81.8545
574.219	86.4393	574.219	86.2665	574.219	86.4062	574.219	85.8948	574.219	86.1743	574.219	85.3439	574.219	85.7665	574.219	84.6428	574.219	85.2248	574.219	83.8271	574.219	84.6147	574.219	82.9364	574.219	84.0261	574.219	82.0156	574.219	83.5544	574.219	81.1202	574.219	83.2509	574.219	80.3255	574.219	83.0744	574.219	79.73	574.219	82.9041	574.219	79.4381	574.219	82.6088	574.219	79.5103	574.219	82.1208	574.219	79.9069	574.219	81.4946	574.219	80.4885	574.219	80.9381	574.219	81.0776	574.219	80.7211	574.219	81.5213	574.219	80.9173	574.219	81.7196	574.219	81.3138	574.219	81.6354
594.727	85.596	594.727	85.4528	594.727	85.5779	594.727	85.1519	594.727	85.4097	594.727	84.7174	594.727	85.1106	594.727	84.1934	594.727	84.6991	594.727	83.6378	594.727	84.186	594.727	83.106	594.727	83.5725	594.727	82.6303	594.727	82.8578	594.727	82.206	594.727	82.0603	594.727	81.7971	594.727	81.2539	594.727	81.3605	594.727	80.5948	594.727	80.8823	594.727	80.2672	594.727	80.4128	594.727	80.3217	594.727	80.0771	594.727	80.6099	594.727	80.011	594.727	80.93	594.727	80.2337	594.727	81.1664	594.727	80.6118	594.727	81.2934	594.727	80.9726	594.727	81.3133	594.727	81.2131
615.234	85.8649	615.234	85.6305	615.234	85.9014	615.234	85.2131	615.234	85.7381	615.234	84.6401	615.234	85.3856	615.234	83.9489	615.234	84.8654	615.234	83.1839	615.234	84.2089	615.234	82.3953	615.234	83.4562	615.234	81.6408	615.234	82.6523	615.234	80.9808	615.234	81.8417	615.234	80.4603	615.234	81.0653	615.234	80.0912	615.234	80.37	615.234	79.862	615.234	79.8322	615.234	79.7777	615.234	79.5683	615.234	79.881	615.234	79.6754	615.234	80.2068	615.234	80.1211	615.234	80.7051	615.234	80.7316	615.234	81.2343	615.234	81.3022	615.234	81.6363	615.234	81.6845	615.234	81.8011
637.207	85.1773	637.207	85.035	637.207	85.1424	637.207	84.703	637.207	84.9564	637.207	84.1853	637.207	84.6532	637.207	83.5036	637.207	84.2647	637.207	82.7004	637.207	83.8107	637.207	81.8445	637.207	83.2918	637.207	81.0339	637.207	82.6917	637.207	80.3752	637.207	81.9931	637.207	79.9321	637.207	81.2018	637.207	79.6796	637.207	80.3713	637.207	79.5278	637.207	79.6052	637.207	79.3983	637.207	79.0169	637.207	79.284	637.207	78.6732	637.207	79.2472	637.207	78.5877	637.207	79.3424	637.207	78.7431	637.207	79.5269	637.207	79.0677	637.207	79.6687	637.207	79.4184	637.207	79.644
659.18	84.4102	659.18	84.3165	659.18	84.2999	659.18	84.0586	659.18	83.9778	659.18	83.6915	659.18	83.4772	659.18	83.2586	659.18	82.8754	659.18	82.7663	659.18	82.2833	659.18	82.1841	659.18	81.8051	659.18	81.4779	659.18	81.4694	659.18	80.6599	659.18	81.1851	659.18	79.8301	659.18	80.7811	659.18	79.1698	659.18	80.1028	659.18	78.8457	659.18	79.1324	659.18	78.8836	659.18	78.1589	659.18	79.1756	659.18	77.8096	659.18	79.5925	659.18	78.3642	659.18	80.0389	659.18	79.3102	659.18	80.4372	659.18	80.1189	659.18	80.7114	659.18	80.6108	659.18	80.7904
682.617	84.815	682.617	84.561	682.617	84.8076	682.617	84.0628	682.617	84.5512	682.617	83.3722	682.617	84.0851	682.617	82.5709	682.617	83.4799	682.617	81.7411	682.617	82.8432	682.617	80.9193	682.617	82.2976	682.617	80.0843	682.617	81.9119	682.617	79.2137	682.617	81.6263	682.617	78.3766	682.617	81.2639	682.617	77.7767	682.617	80.6185	682.617	77.6401	682.617	79.5608	682.617	77.9937	682.617	78.2312	682.617	78.6534	682.617	77.3892	682.617	79.4221	682.617	77.9183	682.617	80.1787	682.617	79.2787	682.617	80.8366	682.617	80.4967	682.617	81.3008	682.617	81.2267	682.617	81.4657
707.52	84.9347	707.52	84.727	707.52	84.9054	707.52	84.3531	707.52	84.5947	707.52	83.904	707.52	83.9823	707.52	83.4608	707.52	83.0776	707.52	83.0378	707.52	81.9497	707.52	82.5553	707.52	80.8083	707.52	81.8822	707.52	80.0632	707.52	80.913	707.52	80.0248	707.52	79.6426	707.52	80.4125	707.52	78.2664	707.52	80.6124	707.52	77.2804	707.52	80.149	707.52	77.1991	707.52	78.7416	707.52	77.9046	707.52	76.4473	707.52	78.8693	707.52	74.8576	707.52	79.7499	707.52	76.2572	707.52	80.408	707.52	78.4836	707.52	80.7523	707.52	79.9683	707.52	80.6616
732.422	84.4871	732.422	84.3046	732.422	84.442	732.422	83.9026	732.422	84.1751	732.422	83.3425	732.422	83.6819	732.422	82.7598	732.422	82.9418	732.422	82.3061	732.422	81.9351	732.422	82.0073	732.422	80.7028	732.422	81.7111	732.422	79.4841	732.422	81.2066	732.422	78.8103	732.422	80.3524	732.422	79.0125	732.422	79.1444	732.422	79.6139	732.422	77.8197	732.422	79.9046	732.422	76.9714	732.422	79.4851	732.422	77.1411	732.422	78.2963	732.422	78.057	732.422	76.8758	732.422	79.0784	732.422	76.6272	732.422	79.8325	732.422	77.8345	732.422	80.1618	732.422	79.1713	732.422	79.9679
757.324	85.6902	757.324	85.4544	757.324	85.6325	757.324	84.8938	757.324	85.3162	757.324	84.0228	757.324	84.7549	757.324	82.9591	757.324	83.9324	757.324	81.955	757.324	82.8135	757.324	81.2654	757.324	81.3838	757.324	80.8752	757.324	79.7661	757.324	80.5044	757.324	78.4459	757.324	79.8992	757.324	78.099	757.324	79.0216	757.324	78.4966	757.324	78.1409	757.324	78.6483	757.324	77.8067	757.324	77.8558	757.324	78.3216	757.324	75.9484	757.324	79.321	757.324	74.3248	757.324	80.3055	757.324	75.8754	757.324	81.0142	757.324	78.4869	757.324	81.3272	757.324	80.2552	757.324	81.1306
785.156	85.4949	785.156	85.4847	785.156	85.2817	785.156	85.1884	785.156	84.9108	785.156	84.5831	785.156	84.4166	785.156	83.7167	785.156	83.7846	785.156	82.7222	785.156	82.9552	785.156	81.7758	785.156	81.8448	785.156	80.9786	785.156	80.4143	785.156	80.2668	785.156	78.8737	785.156	79.4697	785.156	77.9527	785.156	78.428	785.156	78.1755	785.156	77.0871	785.156	78.7295	785.156	75.681	785.156	78.557	785.156	75.0417	785.156	77.0271	785.156	75.9004	785.156	73.7959	785.156	77.5097	785.156	71.436	785.156	78.8533	785.156	74.6606	785.156	79.4842	785.156	77.693	785.156	79.1845
811.523	85.5552	811.523	85.5138	811.523	85.2623	811.523	85.0559	811.523	84.7408	811.523	84.1659	811.523	84.08	811.523	82.9717	811.523	83.3078	811.523	81.8307	811.523	82.3593	811.523	81.1687	811.523	81.1026	811.523	80.9683	811.523	79.4709	811.523	80.7663	811.523	77.8189	811.523	80.1597	811.523	77.2364	811.523	78.9881	811.523	78.0096	811.523	77.3802	811.523	78.8172	811.523	76.042	811.523	78.6891	811.523	76.0725	811.523	77.238	811.523	77.2629	811.523	74.6267	811.523	78.5535	811.523	73.5557	811.523	79.4468	811.523	75.9501	811.523	79.7943	811.523	78.2464	811.523	79.4646
840.82	86.0222	840.82	86.0324	840.82	85.658	840.82	85.5978	840.82	85.071	840.82	84.6952	840.82	84.3909	840.82	83.4189	840.82	83.68	840.82	82.0544	840.82	82.8804	840.82	81.0259	840.82	81.818	840.82	80.4983	840.82	80.2617	840.82	80.1528	840.82	78.1289	840.82	79.5892	840.82	76.3067	840.82	78.6553	840.82	76.7589	840.82	77.5213	840.82	78.3198	840.82	76.7044	840.82	78.912	840.82	76.7258	840.82	77.7826	840.82	77.4782	840.82	74.3942	840.82	78.4681	840.82	70.6146	840.82	79.3166	840.82	74.3573	840.82	79.7333	840.82	77.8191	840.82	79.3872
870.117	85.6873	870.117	85.9628	870.117	84.9892	870.117	85.714	870.117	84.0393	870.117	84.9018	870.117	83.0633	870.117	83.5757	870.117	82.2526	870.117	81.9707	870.117	81.6187	870.117	80.6014	870.117	80.9282	870.117	79.9148	870.117	79.7726	870.117	79.6588	870.117	77.6612	870.117	79.2346	870.117	74.3938	870.117	78.3061	870.117	73.1886	870.117	76.9282	870.117	76.2915	870.117	75.6973	870.117	78.4617	870.117	75.5292	870.117	78.5551	870.117	76.3509	870.117	76.2726	870.117	77.3433	870.117	70.8707	870.117	78.0471	870.117	69.7845	870.117	78.2041	870.117	74.9502	870.117	77.4175
900.879	85.8776	900.879	86.1227	900.879	85.2477	900.879	85.8966	900.879	84.374	900.879	85.138	900.879	83.4761	900.879	83.8093	900.879	82.8086	900.879	81.9666	900.879	82.4962	900.879	79.9778	900.879	82.3797	900.879	78.6789	900.879	82.0783	900.879	78.4567	900.879	81.1567	900.879	78.5665	900.879	79.2073	900.879	78.3143	900.879	76.1688	900.879	77.5103	900.879	74.4836	900.879	76.3666	900.879	76.1712	900.879	75.6081	900.879	77.1695	900.879	75.9427	900.879	75.9271	900.879	76.9221	900.879	72.0894	900.879	77.6965	900.879	69.9374	900.879	77.7784	900.879	74.0899	900.879	76.7747
933.105	85.7225	933.105	86.0695	933.105	84.969	933.105	85.9423	933.105	83.9307	933.105	85.306	933.105	82.7973	933.105	84.1711	933.105	81.7698	933.105	82.6634	933.105	80.9383	933.105	81.1403	933.105	80.2168	933.105	80.1163	933.105	79.3783	933.105	79.7064	933.105	78.151	933.105	79.4135	933.105	76.4709	933.105	78.6562	933.105	75.2243	933.105	77.0282	933.105	75.9208	933.105	74.4404	933.105	77.3274	933.105	72.4368	933.105	77.606	933.105	73.7837	933.105	75.9711	933.105	76.0407	933.105	71.913	933.105	77.3795	933.105	69.5689	933.105	77.6192	933.105	73.8388	933.105	76.6044
965.332	85.3044	965.332	85.6387	965.332	84.6323	965.332	85.5302	965.332	83.7691	965.332	84.9015	965.332	82.8951	965.332	83.6951	965.332	82.1728	965.332	81.9194	965.332	81.6658	965.332	79.8627	965.332	81.2707	965.332	78.4793	965.332	80.7207	965.332	78.5839	965.332	79.6586	965.332	79.3048	965.332	77.7637	965.332	79.5636	965.332	75.2891	965.332	78.915	965.332	74.5692	965.332	77.1797	965.332	76.1632	965.332	74.4963	965.332	77.055	965.332	72.7224	965.332	76.0963	965.332	74.0933	965.332	72.9352	965.332	75.896	965.332	69.6525	965.332	76.4731	965.332	72.5825	965.332	75.4769
1000.49	85.2281	1000.49	85.6983	1000.49	84.3751	1000.49	85.7117	1000.49	83.2587	1000.49	85.1936	1000.49	82.0797	1000.49	84.0482	1000.49	81.1095	1000.49	82.1986	1000.49	80.6105	1000.49	79.8094	1000.49	80.6192	1000.49	77.9112	1000.49	80.7442	1000.49	77.8496	1000.49	80.359	1000.49	78.6753	1000.49	78.8343	1000.49	79.0426	1000.49	75.5138	1000.49	78.568	1000.49	71.7839	1000.49	77.3195	1000.49	74.5909	1000.49	75.8789	1000.49	77.2034	1000.49	75.4375	1000.49	77.041	1000.49	76.2014	1000.49	73.8383	1000.49	77.042	1000.49	68.3758	1000.49	77.1139	1000.49	72.1032	1000.49	75.7893
1035.64	85.3727	1035.64	85.865	1035.64	84.525	1035.64	85.9092	1035.64	83.4635	1035.64	85.4375	1035.64	82.3684	1035.64	84.374	1035.64	81.4252	1035.64	82.613	1035.64	80.8336	1035.64	80.0111	1035.64	80.7669	1035.64	76.3792	1035.64	81.0845	1035.64	71.7471	1035.64	81.2637	1035.64	69.6001	1035.64	80.7512	1035.64	72.8778	1035.64	79.1525	1035.64	75.8263	1035.64	76.5349	1035.64	77.2856	1035.64	75.0594	1035.64	77.3473	1035.64	76.1645	1035.64	76.3129	1035.64	76.4726	1035.64	75.2325	1035.64	74.3731	1035.64	75.4338	1035.64	70.3934	1035.64	75.9195	1035.64	71.8961	1035.64	75.0084
1072.27	85.6286	1072.27	86.0682	1072.27	84.7988	1072.27	86.0486	1072.27	83.7474	1072.27	85.5594	1072.27	82.7002	1072.27	84.5949	1072.27	81.7899	1072.27	83.1333	1072.27	80.9855	1072.27	81.165	1072.27	80.2354	1072.27	78.8163	1072.27	79.5847	1072.27	76.7053	1072.27	79.0565	1072.27	75.9332	1072.27	78.4491	1072.27	76.273	1072.27	77.3953	1072.27	76.387	1072.27	75.8394	1072.27	75.7382	1072.27	74.9476	1072.27	74.9178	1072.27	75.6395	1072.27	75.1501	1072.27	76.05	1072.27	76.1736	1072.27	74.8036	1072.27	76.7839	1072.27	72.1812	1072.27	76.3728	1072.27	72.0267	1072.27	74.652
1108.89	85.5356	1108.89	85.8381	1108.89	84.7286	1108.89	85.6516	1108.89	83.5182	1108.89	85.073	1108.89	82.1075	1108.89	84.213	1108.89	80.7492	1108.89	83.1344	1108.89	79.712	1108.89	81.8406	1108.89	79.205	1108.89	80.3588	1108.89	79.1236	1108.89	78.8981	1108.89	79.0065	1108.89	77.8297	1108.89	78.4036	1108.89	77.2163	1108.89	77.1983	1108.89	76.6785	1108.89	75.9628	1108.89	75.9563	1108.89	75.8203	1108.89	75.1743	1108.89	76.3385	1108.89	74.711	1108.89	75.974	1108.89	74.8695	1108.89	73.8996	1108.89	75.3852	1108.89	70.9147	1108.89	75.4726	1108.89	71.8134	1108.89	74.3641
1148.44	85.8608	1148.44	86.1628	1148.44	85.1031	1148.44	85.9744	1148.44	84.0596	1148.44	85.3605	1148.44	82.9599	1148.44	84.4118	1148.44	81.9116	1148.44	83.1858	1148.44	80.8903	1148.44	81.7212	1148.44	79.9846	1148.44	80.1543	1148.44	79.4227	1148.44	78.8231	1148.44	79.1036	1148.44	78.0223	1148.44	78.4367	1148.44	77.5695	1148.44	76.866	1148.44	77.019	1148.44	74.7535	1148.44	76.0754	1148.44	74.8111	1148.44	74.7044	1148.44	76.6514	1148.44	73.5479	1148.44	77.1057	1148.44	74.0926	1148.44	75.2176	1148.44	75.7671	1148.44	71.7888	1148.44	76.6555	1148.44	73.0081	1148.44	75.8332
1189.45	86.1765	1189.45	86.4551	1189.45	85.4077	1189.45	86.2174	1189.45	84.353	1189.45	85.5666	1189.45	83.3109	1189.45	84.6351	1189.45	82.4031	1189.45	83.4656	1189.45	81.4667	1189.45	81.9843	1189.45	80.3333	1189.45	80.1808	1189.45	79.0809	1189.45	78.4564	1189.45	78.0075	1189.45	77.6078	1189.45	77.2607	1189.45	77.6895	1189.45	76.5534	1189.45	77.8668	1189.45	75.7122	1189.45	77.5333	1189.45	75.5419	1189.45	76.4531	1189.45	76.476	1189.45	74.7786	1189.45	76.836	1189.45	73.9129	1189.45	75.1249	1189.45	75.0516	1189.45	71.2431	1189.45	76.0478	1189.45	71.9524	1189.45	75.1884
1230.47	86.2927	1230.47	86.7193	1230.47	85.3558	1230.47	86.5432	1230.47	84.2199	1230.47	85.8169	1230.47	83.248	1230.47	84.6482	1230.47	82.4817	1230.47	83.1391	1230.47	81.7739	1230.47	81.37	1230.47	81.1508	1230.47	79.5076	1230.47	80.6622	1230.47	77.9838	1230.47	80.107	1230.47	77.2906	1230.47	79.1007	1230.47	77.3664	1230.47	77.2132	1230.47	77.7188	1230.47	74.1581	1230.47	77.8558	1230.47	72.4289	1230.47	77.2799	1230.47	75.2124	1230.47	75.5362	1230.47	77.0599	1230.47	73.0635	1230.47	76.167	1230.47	73.0401	1230.47	72.1799	1230.47	74.4768	1230.47	70.3609	1230.47	73.7578
1274.41	86.3506	1274.41	86.8951	1274.41	85.3493	1274.41	86.7995	1274.41	84.2517	1274.41	86.0499	1274.41	83.3874	1274.41	84.7183	1274.41	82.7853	1274.41	82.9031	1274.41	82.2043	1274.41	80.7842	1274.41	81.3356	1274.41	78.8421	1274.41	80.0258	1274.41	77.703	1274.41	78.6795	1274.41	77.1571	1274.41	78.1872	1274.41	76.5068	1274.41	78.1814	1274.41	75.9649	1274.41	77.2988	1274.41	76.413	1274.41	75.085	1274.41	77.1396	1274.41	74.361	1274.41	76.7905	1274.41	76.2628	1274.41	75.2906	1274.41	76.3671	1274.41	74.6237	1274.41	73.6376	1274.41	75.2752	1274.41	71.984	1274.41	74.4901
1319.82	86.5839	1319.82	86.8371	1319.82	85.7964	1319.82	86.4817	1319.82	84.7703	1319.82	85.6366	1319.82	83.8116	1319.82	84.4674	1319.82	82.958	1319.82	82.9686	1319.82	82.1658	1319.82	80.8466	1319.82	81.4577	1319.82	77.7555	1319.82	80.5625	1319.82	74.4238	1319.82	78.9605	1319.82	74.0466	1319.82	76.704	1319.82	75.5631	1319.82	75.7193	1319.82	76.5	1319.82	76.719	1319.82	76.9526	1319.82	77.0565	1319.82	77.2479	1319.82	76.1315	1319.82	76.9403	1319.82	76.073	1319.82	75.558	1319.82	76.5792	1319.82	74.1004	1319.82	75.1917	1319.82	74.0793	1319.82	73.0491	1319.82	73.6223
1366.7	86.6034	1366.7	86.9603	1366.7	85.682	1366.7	86.6524	1366.7	84.5621	1366.7	85.7428	1366.7	83.6429	1366.7	84.3395	1366.7	82.8479	1366.7	82.4471	1366.7	81.9395	1366.7	79.7761	1366.7	81.1841	1366.7	75.7644	1366.7	80.9632	1366.7	70.0375	1366.7	80.8239	1366.7	65.4501	1366.7	79.8866	1366.7	67.5964	1366.7	77.5853	1366.7	70.6709	1366.7	74.191	1366.7	73.7585	1366.7	73.0201	1366.7	76.2877	1366.7	74.7137	1366.7	76.9773	1366.7	75.8978	1366.7	75.3545	1366.7	75.9103	1366.7	72.6377	1366.7	74.4426	1366.7	72.797	1366.7	72.8627	1366.7	73.2186
1413.57	87.0553	1413.57	87.398	1413.57	85.9541	1413.57	86.9095	1413.57	84.4949	1413.57	85.7116	1413.57	83.2804	1413.57	84.0423	1413.57	82.4149	1413.57	82.1003	1413.57	81.5915	1413.57	79.8293	1413.57	80.7836	1413.57	77.1274	1413.57	80.031	1413.57	74.5066	1413.57	79.1564	1413.57	73.5521	1413.57	78.0743	1413.57	73.7441	1413.57	77.0307	1413.57	71.9109	1413.57	76.0074	1413.57	69.9514	1413.57	74.5366	1413.57	74.6512	1413.57	73.6443	1413.57	77.1334	1413.57	74.5531	1413.57	76.5821	1413.57	74.6712	1413.57	74.2396	1413.57	73.3453	1413.57	73.6274	1413.57	73.326	1413.57	74.1477
1463.38	86.4364	1463.38	87.0882	1463.38	85.1404	1463.38	86.7885	1463.38	83.871	1463.38	85.4936	1463.38	83.158	1463.38	83.4582	1463.38	82.5907	1463.38	81.3715	1463.38	81.5985	1463.38	79.8396	1463.38	80.2959	1463.38	78.4684	1463.38	79.4325	1463.38	76.3895	1463.38	79.3061	1463.38	74.2753	1463.38	78.9582	1463.38	75.0145	1463.38	77.5779	1463.38	75.1469	1463.38	75.4517	1463.38	71.6709	1463.38	74.4922	1463.38	69.6321	1463.38	74.9148	1463.38	74.4677	1463.38	74.7592	1463.38	76.0021	1463.38	74.0197	1463.38	74.4127	1463.38	73.0257	1463.38	72.1598	1463.38	72.6834	1463.38	72.5278
1516.11	85.5618	1516.11	86.4182	1516.11	84.1529	1516.11	86.3461	1516.11	83.0983	1516.11	85.3016	1516.11	82.8096	1516.11	83.3988	1516.11	82.5531	1516.11	81.059	1516.11	81.8521	1516.11	79.1169	1516.11	80.7328	1516.11	77.8408	1516.11	79.3951	1516.11	76.1836	1516.11	78.5468	1516.11	73.5214	1516.11	78.6295	1516.11	72.959	1516.11	78.6122	1516.11	74.5287	1516.11	77.4901	1516.11	73.815	1516.11	75.3949	1516.11	70.3078	1516.11	74.7434	1516.11	70.7819	1516.11	74.8516	1516.11	73.7626	1516.11	73.0225	1516.11	73.8856	1516.11	69.8172	1516.11	72.369	1516.11	69.8201	1516.11	71.2783
1568.85	85.4184	1568.85	86.1667	1568.85	84.1111	1568.85	86.0048	1568.85	83.0651	1568.85	84.9146	1568.85	82.6749	1568.85	82.9939	1568.85	82.3468	1568.85	80.4606	1568.85	81.6821	1568.85	77.9417	1568.85	80.7406	1568.85	76.3345	1568.85	79.5828	1568.85	75.076	1568.85	78.1424	1568.85	72.2339	1568.85	76.5307	1568.85	68.8092	1568.85	75.5036	1568.85	73.0588	1568.85	75.6178	1568.85	75.5873	1568.85	75.7952	1568.85	74.9087	1568.85	75.1768	1568.85	72.5839	1568.85	74.1045	1568.85	73.1676	1568.85	72.3698	1568.85	74.4618	1568.85	69.5245	1568.85	73.8567	1568.85	69.2519	1568.85	71.8695
1624.51	85.8239	1624.51	86.2713	1624.51	84.6242	1624.51	85.8242	1624.51	83.2588	1624.51	84.5665	1624.51	82.2624	1624.51	82.5786	1624.51	81.5633	1624.51	79.9867	1624.51	81.0664	1624.51	77.2726	1624.51	80.5603	1624.51	75.5467	1624.51	79.587	1624.51	75.8275	1624.51	78.4595	1624.51	76.3668	1624.51	78.3579	1624.51	74.7453	1624.51	78.5319	1624.51	70.7287	1624.51	77.1841	1624.51	71.092	1624.51	74.4883	1624.51	73.9258	1624.51	74.2388	1624.51	74.7748	1624.51	74.0704	1624.51	73.935	1624.51	72.0879	1624.51	72.7501	1624.51	70.4164	1624.51	72.4918	1624.51	70.6543	1624.51	71.9707
1681.64	85.6543	1681.64	86.0989	1681.64	84.4466	1681.64	85.544	1681.64	83.2318	1681.64	84.0713	1681.64	82.5621	1681.64	82.0561	1681.64	81.8433	1681.64	80.0481	1681.64	80.7369	1681.64	78.0031	1681.64	79.8623	1681.64	75.0966	1681.64	79.4266	1681.64	71.4853	1681.64	78.3898	1681.64	70.5156	1681.64	76.2977	1681.64	70.5337	1681.64	75.3616	1681.64	69.3218	1681.64	76.5971	1681.64	69.5324	1681.64	76.542	1681.64	72.437	1681.64	75.2222	1681.64	74.4216	1681.64	74.0737	1681.64	74.1149	1681.64	71.8076	1681.64	72.1347	1681.64	68.8095	1681.64	70.973	1681.64	69.0814	1681.64	70.5627
1741.7	84.7168	1741.7	85.3222	1741.7	83.6223	1741.7	84.995	1741.7	82.9318	1741.7	83.7112	1741.7	82.8307	1741.7	81.8234	1741.7	82.3881	1741.7	79.807	1741.7	81.1528	1741.7	77.7843	1741.7	79.5142	1741.7	75.1026	1741.7	78.476	1741.7	70.5896	1741.7	78.0635	1741.7	64.9258	1741.7	77.484	1741.7	65.0389	1741.7	77.1012	1741.7	65.796	1741.7	76.6284	1741.7	57.7864	1741.7	74.7653	1741.7	67.7175	1741.7	74.0601	1741.7	72.8677	1741.7	74.8918	1741.7	73.2449	1741.7	72.9637	1741.7	71.097	1741.7	69.3492	1741.7	70.5285	1741.7	69.8778	1741.7	70.9864
1803.22	84.432	1803.22	84.971	1803.22	83.5022	1803.22	84.615	1803.22	82.8717	1803.22	83.5788	1803.22	82.4514	1803.22	82.1188	1803.22	81.9753	1803.22	79.8061	1803.22	81.2086	1803.22	76.6627	1803.22	79.8192	1803.22	73.8992	1803.22	78.6541	1803.22	71.7371	1803.22	78.3894	1803.22	69.3132	1803.22	77.3195	1803.22	69.922	1803.22	74.82	1803.22	72.0827	1803.22	73.9291	1803.22	69.7451	1803.22	73.7365	1803.22	60.915	1803.22	73.2406	1803.22	70.7082	1803.22	74.3738	1803.22	73.0486	1803.22	72.8479	1803.22	70.6717	1803.22	68.2104	1803.22	68.2821	1803.22	69.5968	1803.22	70.0335
1866.21	85.0809	1866.21	84.9096	1866.21	84.3908	1866.21	84.1533	1866.21	83.0376	1866.21	83.1548	1866.21	81.9413	1866.21	81.6656	1866.21	81.682	1866.21	78.9516	1866.21	81.3337	1866.21	75.3336	1866.21	80.1373	1866.21	73.5543	1866.21	78.635	1866.21	74.1058	1866.21	77.6996	1866.21	73.6488	1866.21	76.9636	1866.21	73.3152	1866.21	76.4444	1866.21	74.5585	1866.21	76.1863	1866.21	73.2592	1866.21	74.641	1866.21	67.2442	1866.21	73.0133	1866.21	67.8843	1866.21	74.1113	1866.21	72.2226	1866.21	73.1668	1866.21	71.1633	1866.21	69.5204	1866.21	67.6655	1866.21	67.7782	1866.21	67.4555
1932.13	85.2162	1932.13	84.9242	1932.13	84.2688	1932.13	83.7432	1932.13	82.7943	1932.13	82.4305	1932.13	81.9377	1932.13	81.1032	1932.13	81.6636	1932.13	79.3031	1932.13	81.1293	1932.13	76.9077	1932.13	79.8859	1932.13	74.8838	1932.13	78.5519	1932.13	74.0333	1932.13	77.9993	1932.13	71.7425	1932.13	77.1395	1932.13	70.7375	1932.13	74.586	1932.13	74.2071	1932.13	72.9141	1932.13	74.5031	1932.13	73.6194	1932.13	71.6251	1932.13	73.6506	1932.13	68.6477	1932.13	73.9839	1932.13	71.0107	1932.13	71.8601	1932.13	70.1271	1932.13	68.4453	1932.13	67.0737	1932.13	69.4149	1932.13	67.9652
1999.51	84.2047	1999.51	84.1258	1999.51	83.566	1999.51	83.5996	1999.51	82.1353	1999.51	82.6464	1999.51	80.8351	1999.51	80.8477	1999.51	81.1056	1999.51	78.271	1999.51	81.3847	1999.51	75.6367	1999.51	80.3363	1999.51	73.9215	1999.51	78.8093	1999.51	73.8098	1999.51	78.1306	1999.51	72.2707	1999.51	77.0425	1999.51	68.6013	1999.51	74.9838	1999.51	71.9038	1999.51	74.7123	1999.51	73.668	1999.51	73.7726	1999.51	72.3835	1999.51	71.3638	1999.51	70.443	1999.51	74.1836	1999.51	70.0418	1999.51	73.0475	1999.51	68.3474	1999.51	67.7922	1999.51	66.3982	1999.51	69.9176	1999.51	68.6271
2069.82	84.5541	2069.82	83.9305	2069.82	83.8113	2069.82	82.9604	2069.82	81.5059	2069.82	81.939	2069.82	79.8433	2069.82	80.2657	2069.82	80.5568	2069.82	77.958	2069.82	81.2442	2069.82	75.9564	2069.82	80.5835	2069.82	73.7152	2069.82	78.7477	2069.82	70.2865	2069.82	78.2193	2069.82	67.9129	2069.82	78.7868	2069.82	61.6957	2069.82	76.9991	2069.82	62.5462	2069.82	73.7216	2069.82	69.2327	2069.82	72.5319	2069.82	69.1527	2069.82	71.7726	2069.82	68.0963	2069.82	73.6658	2069.82	70.4522	2069.82	72.2935	2069.82	70.7065	2069.82	69.1028	2069.82	67.2034	2069.82	69.1918	2069.82	66.6412
2143.07	85.2011	2143.07	84.3036	2143.07	84.5018	2143.07	82.9185	2143.07	81.7044	2143.07	81.3526	2143.07	79.7986	2143.07	79.4214	2143.07	80.5019	2143.07	77.2378	2143.07	80.8507	2143.07	76.2521	2143.07	80.2629	2143.07	75.5813	2143.07	78.6222	2143.07	73.3219	2143.07	77.5139	2143.07	73.0594	2143.07	77.6708	2143.07	70.7869	2143.07	75.5795	2143.07	62.2207	2143.07	73.1028	2143.07	60.4879	2143.07	73.5673	2143.07	66.1789	2143.07	69.8618	2143.07	67.3441	2143.07	72.365	2143.07	68.8252	2143.07	70.9326	2143.07	67.4284	2143.07	68.3057	2143.07	63.8876	2143.07	69.8036	2143.07	64.5218
2219.24	85.3054	2219.24	84.247	2219.24	84.2958	2219.24	81.97	2219.24	80.8933	2219.24	79.6834	2219.24	78.1482	2219.24	78.4495	2219.24	79.8333	2219.24	77.351	2219.24	80.3308	2219.24	76.0503	2219.24	79.2151	2219.24	75.4052	2219.24	78.066	2219.24	74.1193	2219.24	77.4942	2219.24	72.9033	2219.24	76.2643	2219.24	72.734	2219.24	74.3548	2219.24	70.841	2219.24	75.0236	2219.24	71.4612	2219.24	75.7977	2219.24	71.1502	2219.24	72.6124	2219.24	67.5512	2219.24	71.499	2219.24	66.1287	2219.24	68.9579	2219.24	65.8269	2219.24	66.8717	2219.24	67.2332	2219.24	69.6329	2219.24	66.435
2296.88	84.4548	2296.88	83.4821	2296.88	83.5633	2296.88	81.8157	2296.88	79.6797	2296.88	78.9064	2296.88	77.1251	2296.88	76.7182	2296.88	80.4566	2296.88	76.5399	2296.88	81.4007	2296.88	76.3094	2296.88	80.001	2296.88	77.1994	2296.88	78.2666	2296.88	76.5165	2296.88	78.5996	2296.88	74.1351	2296.88	78.4575	2296.88	73.1694	2296.88	73.711	2296.88	71.2061	2296.88	70.2212	2296.88	70.2097	2296.88	75.3404	2296.88	71.789	2296.88	74.1179	2296.88	68.852	2296.88	69.6882	2296.88	64.6925	2296.88	67.1729	2296.88	62.3747	2296.88	61.5199	2296.88	67.5506	2296.88	67.2735	2296.88	66.5037
2378.91	85.0603	2378.91	84.2619	2378.91	84.1825	2378.91	81.8727	2378.91	79.7454	2378.91	76.6206	2378.91	77.4001	2378.91	74.2125	2378.91	81.4417	2378.91	76.4644	2378.91	82.5387	2378.91	76.2853	2378.91	81.9288	2378.91	74.0916	2378.91	80.0085	2378.91	71.2053	2378.91	78.5499	2378.91	69.5859	2378.91	78.4217	2378.91	68.4241	2378.91	75.0445	2378.91	71.7645	2378.91	69.0846	2378.91	71.4292	2378.91	74.269	2378.91	71.0842	2378.91	74.4885	2378.91	69.3645	2378.91	70.4604	2378.91	63.7275	2378.91	67.7596	2378.91	55.1833	2378.91	53.8166	2378.91	67.5375	2378.91	67.3363	2378.91	69.2372
2462.4	84.841	2462.4	84.4493	2462.4	83.6984	2462.4	81.431	2462.4	78.9383	2462.4	73.1853	2462.4	76.5142	2462.4	73.176	2462.4	81.9939	2462.4	76.816	2462.4	83.2872	2462.4	77.602	2462.4	82.4773	2462.4	76.6971	2462.4	80.47	2462.4	75.7494	2462.4	77.4548	2462.4	75.6252	2462.4	75.5375	2462.4	74.8112	2462.4	73.3005	2462.4	73.1145	2462.4	70.0691	2462.4	71.4812	2462.4	74.3189	2462.4	71.7386	2462.4	74.9768	2462.4	70.7061	2462.4	70.751	2462.4	64.894	2462.4	68.1032	2462.4	54.1364	2462.4	52.9135	2462.4	67.2234	2462.4	68.8117	2462.4	69.5694
2548.83	84.3391	2548.83	84.2467	2548.83	82.16	2548.83	79.8601	2548.83	76.5805	2548.83	65.1324	2548.83	73.8792	2548.83	71.4292	2548.83	81.5826	2548.83	76.9853	2548.83	83.3563	2548.83	78.3797	2548.83	82.4313	2548.83	77.5231	2548.83	80.4217	2548.83	76.9605	2548.83	78.6855	2548.83	76.2427	2548.83	78.0574	2548.83	73.5106	2548.83	76.1792	2548.83	71.9821	2548.83	70.6232	2548.83	72.4742	2548.83	71.4372	2548.83	71.2365	2548.83	75.1151	2548.83	70.5429	2548.83	70.9293	2548.83	67.4428	2548.83	68.6682	2548.83	49.417	2548.83	47.9217	2548.83	67.5077	2548.83	67.2905	2548.83	68.9774
2639.65	84.8955	2639.65	84.0803	2639.65	82.57	2639.65	79.1213	2639.65	75.5391	2639.65	61.6717	2639.65	73.3951	2639.65	74.8839	2639.65	81.6704	2639.65	79.8093	2639.65	83.8402	2639.65	79.9698	2639.65	82.9954	2639.65	78.3989	2639.65	79.7123	2639.65	75.8629	2639.65	76.1809	2639.65	71.7313	2639.65	75.731	2639.65	70.519	2639.65	75.5389	2639.65	71.0729	2639.65	74.7372	2639.65	71.0645	2639.65	71.9654	2639.65	72.5103	2639.65	74.6906	2639.65	70.3005	2639.65	71.9331	2639.65	66.8663	2639.65	68.2766	2639.65	56.1873	2639.65	56.5602	2639.65	67.3519	2639.65	68.5616	2639.65	68.6339
2731.93	84.945	2731.93	84.1616	2731.93	82.6402	2731.93	79.4869	2731.93	75.4018	2731.93	63.1481	2731.93	70.6628	2731.93	78.3733	2731.93	80.95	2731.93	80.8498	2731.93	83.5285	2731.93	79.7362	2731.93	83.07	2731.93	78.4539	2731.93	80.0847	2731.93	76.8975	2731.93	74.8788	2731.93	75.6228	2731.93	72.201	2731.93	74.878	2731.93	72.4766	2731.93	73.2778	2731.93	73.4315	2731.93	71.7275	2731.93	74.1587	2731.93	71.9699	2731.93	74.343	2731.93	70.8361	2731.93	70.8743	2731.93	67.767	2731.93	64.1741	2731.93	58.2511	2731.93	58.904	2731.93	68.6019	2731.93	69.2125	2731.93	69.5075
2828.61	84.6101	2828.61	84.5949	2828.61	81.7122	2828.61	79.8889	2828.61	75.2795	2828.61	72.0583	2828.61	68.4633	2828.61	79.8253	2828.61	80.6359	2828.61	80.4136	2828.61	83.329	2828.61	80.5989	2828.61	82.9789	2828.61	78.8295	2828.61	81.0959	2828.61	76.0472	2828.61	76.0108	2828.61	75.7605	2828.61	74.8095	2828.61	73.553	2828.61	77.0973	2828.61	73.1507	2828.61	76.4211	2828.61	70.9761	2828.61	74.9513	2828.61	71.6701	2828.61	74.5774	2828.61	71.8149	2828.61	70.9299	2828.61	67.095	2828.61	59.0921	2828.61	59.4504	2828.61	61.7961	2828.61	68.6881	2828.61	69.2931	2828.61	70.1879
2928.22	84.6432	2928.22	84.7532	2928.22	81.0588	2928.22	79.3288	2928.22	75.1242	2928.22	75.8586	2928.22	70.3945	2928.22	80.1933	2928.22	80.3093	2928.22	81.6466	2928.22	83.5333	2928.22	81.0038	2928.22	83.1931	2928.22	79.0068	2928.22	80.6766	2928.22	77.3259	2928.22	75.0028	2928.22	74.3046	2928.22	69.7361	2928.22	70.8048	2928.22	75.5724	2928.22	70.6854	2928.22	77.9839	2928.22	69.7361	2928.22	75.984	2928.22	70.9271	2928.22	74.795	2928.22	70.2085	2928.22	68.8699	2928.22	68.8674	2928.22	57.7051	2928.22	61.435	2928.22	63.576	2928.22	67.7327	2928.22	69.9493	2928.22	69.0084
3030.76	85.8637	3030.76	85.6041	3030.76	81.0871	3030.76	80.4109	3030.76	75.7705	3030.76	78.3401	3030.76	74.4525	3030.76	81.0732	3030.76	79.2234	3030.76	81.4213	3030.76	82.9442	3030.76	80.9181	3030.76	83.0945	3030.76	79.3582	3030.76	80.0398	3030.76	75.1019	3030.76	73.7145	3030.76	72.7792	3030.76	72.4474	3030.76	73.1399	3030.76	75.3508	3030.76	72.434	3030.76	76.4483	3030.76	70.6525	3030.76	75.4745	3030.76	70.1929	3030.76	74.3776	3030.76	71.606	3030.76	70.2583	3030.76	68.2835	3030.76	54.7331	3030.76	64.5388	3030.76	64.5345	3030.76	67.91	3030.76	68.723	3030.76	69.8766
3137.7	85.509	3137.7	85.3957	3137.7	81.1377	3137.7	80.5478	3137.7	74.9947	3137.7	79.9626	3137.7	77.6611	3137.7	81.382	3137.7	80.3992	3137.7	81.5261	3137.7	82.5652	3137.7	80.6711	3137.7	82.7402	3137.7	78.8492	3137.7	80.6801	3137.7	77.4141	3137.7	76.5841	3137.7	77.125	3137.7	73.5882	3137.7	74.9589	3137.7	75.8661	3137.7	72.1853	3137.7	76.1407	3137.7	70.4957	3137.7	74.9919	3137.7	69.5755	3137.7	72.4645	3137.7	71.3642	3137.7	68.5171	3137.7	68.02	3137.7	53.7866	3137.7	64.8467	3137.7	65.47	3137.7	67.4739	3137.7	67.3187	3137.7	70.0752
3249.02	86.6108	3249.02	85.424	3249.02	82.0144	3249.02	81.4002	3249.02	77.0224	3249.02	80.298	3249.02	79.0258	3249.02	81.5996	3249.02	80.2337	3249.02	82.481	3249.02	82.5359	3249.02	81.785	3249.02	82.7447	3249.02	79.6705	3249.02	81.1191	3249.02	76.1309	3249.02	77.4978	3249.02	74.694	3249.02	74.1123	3249.02	73.3056	3249.02	75.9281	3249.02	70.7373	3249.02	76.2748	3249.02	71.0143	3249.02	75.0981	3249.02	69.8689	3249.02	71.9211	3249.02	70.8342	3249.02	67.616	3249.02	68.7748	3249.02	63.7628	3249.02	65.4832	3249.02	66.2041	3249.02	68.2559	3249.02	68.0712	3249.02	70.5633
3363.28	86.1637	3363.28	85.0869	3363.28	82.413	3363.28	82.4869	3363.28	76.3594	3363.28	80.1026	3363.28	81.3736	3363.28	82.8185	3363.28	80.7398	3363.28	83.1127	3363.28	81.6232	3363.28	81.1623	3363.28	81.5997	3363.28	79.1947	3363.28	79.7071	3363.28	77.3686	3363.28	77.5293	3363.28	76.3873	3363.28	73.6964	3363.28	75.1987	3363.28	76.6919	3363.28	72.2823	3363.28	75.6433	3363.28	71.9413	3363.28	72.8334	3363.28	70.6882	3363.28	70.5433	3363.28	72.1526	3363.28	68.1458	3363.28	69.4121	3363.28	64.0161	3363.28	65.1234	3363.28	65.5576	3363.28	67.7714	3363.28	67.8052	3363.28	71.1931
3481.93	85.7369	3481.93	85.3611	3481.93	83.1092	3481.93	82.1931	3481.93	77.8495	3481.93	80.2875	3481.93	82.2684	3481.93	83.6191	3481.93	82.1432	3481.93	83.9141	3481.93	81.0056	3481.93	82.5427	3481.93	81.6425	3481.93	80.3579	3481.93	79.1306	3481.93	78.0471	3481.93	76.14	3481.93	74.1649	3481.93	71.2686	3481.93	72.4467	3481.93	72.9354	3481.93	71.485	3481.93	75.0112	3481.93	70.8354	3481.93	71.4607	3481.93	71.0256	3481.93	69.075	3481.93	71.7717	3481.93	68.1765	3481.93	70.6483	3481.93	65.4128	3481.93	64.7019	3481.93	66.1453	3481.93	67.0105	3481.93	69.4355	3481.93	69.9878
3604.98	84.9018	3604.98	85.4592	3604.98	82.1594	3604.98	81.3535	3604.98	79.2255	3604.98	81.4876	3604.98	83.6629	3604.98	84.4175	3604.98	83.2663	3604.98	83.948	3604.98	80.6521	3604.98	82.3235	3604.98	80.4059	3604.98	79.2995	3604.98	77.8679	3604.98	77.0578	3604.98	74.6395	3604.98	75.2198	3604.98	69.6951	3604.98	72.8753	3604.98	65.8998	3604.98	70.5278	3604.98	70.6039	3604.98	70.9354	3604.98	69.6515	3604.98	70.7876	3604.98	67.6158	3604.98	71.0413	3604.98	65.3068	3604.98	70.9913	3604.98	65.321	3604.98	63.721	3604.98	67.5527	3604.98	66.5128	3604.98	66.8352	3604.98	69.3358
3732.42	85.3209	3732.42	85.494	3732.42	82.0831	3732.42	80.2493	3732.42	79.6556	3732.42	83.0846	3732.42	83.9665	3732.42	84.7148	3732.42	84.0429	3732.42	83.8312	3732.42	81.1013	3732.42	81.6666	3732.42	80.6699	3732.42	78.305	3732.42	78.4119	3732.42	77.2209	3732.42	74.3627	3732.42	74.9001	3732.42	70.3082	3732.42	72.6424	3732.42	64.387	3732.42	70.6766	3732.42	60.8592	3732.42	69.67	3732.42	70.6265	3732.42	70.3616	3732.42	70.091	3732.42	70.7999	3732.42	63.7455	3732.42	69.9227	3732.42	65.1222	3732.42	63.789	3732.42	66.8164	3732.42	67.1693	3732.42	66.5058	3732.42	69.3208
3864.26	84.9253	3864.26	85.054	3864.26	81.223	3864.26	80.2897	3864.26	80.5977	3864.26	84.0272	3864.26	84.3894	3864.26	84.6394	3864.26	84.1536	3864.26	83.1772	3864.26	81.0894	3864.26	80.7065	3864.26	80.5456	3864.26	78.0597	3864.26	79.358	3864.26	76.1555	3864.26	78.1566	3864.26	75.035	3864.26	72.3078	3864.26	72.5094	3864.26	70.5056	3864.26	71.7659	3864.26	71.88	3864.26	71.3045	3864.26	72.4988	3864.26	69.1593	3864.26	68.8018	3864.26	70.9676	3864.26	63.9272	3864.26	69.1846	3864.26	64.8176	3864.26	64.2229	3864.26	66.3447	3864.26	65.4289	3864.26	67.6397	3864.26	69.2435
4000.49	85.6941	4000.49	84.3699	4000.49	80.928	4000.49	80.7676	4000.49	81.0904	4000.49	84.1922	4000.49	84.6949	4000.49	84.7514	4000.49	84.2573	4000.49	82.7575	4000.49	81.1932	4000.49	80.4187	4000.49	81.4505	4000.49	77.4068	4000.49	80.5735	4000.49	77.1398	4000.49	78.829	4000.49	75.0984	4000.49	71.0734	4000.49	73.0347	4000.49	70.4712	4000.49	71.7571	4000.49	74.8395	4000.49	71.0651	4000.49	73.6258	4000.49	70.2958	4000.49	67.0524	4000.49	70.3088	4000.49	62.2453	4000.49	69.1353	4000.49	65.4394	4000.49	64.6054	4000.49	65.6717	4000.49	63.6757	4000.49	65.3566	4000.49	69.1588
4141.11	85.7101	4141.11	83.7419	4141.11	81.2588	4141.11	81.3549	4141.11	81.0256	4141.11	84.5006	4141.11	85.125	4141.11	84.1962	4141.11	84.4347	4141.11	82.5286	4141.11	80.7361	4141.11	80.6775	4141.11	82.248	4141.11	78.3467	4141.11	81.0722	4141.11	78.0284	4141.11	77.875	4141.11	74.5488	4141.11	71.2834	4141.11	71.4778	4141.11	72.2714	4141.11	71.809	4141.11	75.3945	4141.11	70.7723	4141.11	74.1293	4141.11	68.9091	4141.11	66.478	4141.11	69.6162	4141.11	64.1028	4141.11	68.1229	4141.11	65.0679	4141.11	65.0046	4141.11	65.0818	4141.11	62.7579	4141.11	65.4048	4141.11	68.1467
4287.6	85.9918	4287.6	83.033	4287.6	82.1222	4287.6	81.991	4287.6	81.3661	4287.6	84.766	4287.6	85.2017	4287.6	84.407	4287.6	84.5098	4287.6	82.2537	4287.6	80.0538	4287.6	80.3661	4287.6	82.5915	4287.6	77.7422	4287.6	82.1304	4287.6	75.9009	4287.6	79.2734	4287.6	75.455	4287.6	75.0067	4287.6	72.9918	4287.6	70.2125	4287.6	72.0758	4287.6	74.9427	4287.6	70.931	4287.6	73.047	4287.6	69.7773	4287.6	67.0498	4287.6	69.8142	4287.6	61.6962	4287.6	66.1668	4287.6	66.1189	4287.6	65.04	4287.6	64.9427	4287.6	63.1912	4287.6	64.397	4287.6	66.7949
4438.48	86.3751	4438.48	82.7629	4438.48	83.4862	4438.48	83.3976	4438.48	81.8197	4438.48	85.0799	4438.48	85.5641	4438.48	83.8252	4438.48	84.3951	4438.48	82.7106	4438.48	79.7533	4438.48	80.1903	4438.48	82.945	4438.48	77.8241	4438.48	81.906	4438.48	77.2786	4438.48	77.9087	4438.48	72.5421	4438.48	76.7088	4438.48	69.8699	4438.48	70.0621	4438.48	71.1554	4438.48	67.2395	4438.48	70.2224	4438.48	70.8751	4438.48	67.9004	4438.48	68.6624	4438.48	67.0142	4438.48	57.1526	4438.48	66.0506	4438.48	67.3712	4438.48	62.218	4438.48	63.5153	4438.48	62.7727	4438.48	66.5736	4438.48	67.1997
4595.21	86.4523	4595.21	82.7575	4595.21	84.4672	4595.21	83.905	4595.21	82.4824	4595.21	85.2414	4595.21	85.5729	4595.21	84.3023	4595.21	84.417	4595.21	82.2489	4595.21	79.5611	4595.21	81.1257	4595.21	82.532	4595.21	78.0647	4595.21	82.5522	4595.21	75.8721	4595.21	76.8008	4595.21	75.071	4595.21	73.8044	4595.21	73.0575	4595.21	64.7846	4595.21	71.2777	4595.21	66.0923	4595.21	70.8206	4595.21	64.791	4595.21	68.1764	4595.21	65.4654	4595.21	67.688	4595.21	62.2079	4595.21	65.1239	4595.21	66.496	4595.21	61.1725	4595.21	57.1356	4595.21	61.8624	4595.21	67.6767	4595.21	67.7739
4756.35	86.23	4756.35	83.0864	4756.35	85.218	4756.35	84.5997	4756.35	82.1577	4756.35	85.062	4756.35	85.9007	4756.35	83.8544	4756.35	83.8045	4756.35	82.3188	4756.35	78.8973	4756.35	79.6391	4756.35	81.6814	4756.35	78.0319	4756.35	82.0331	4756.35	75.8294	4756.35	73.0229	4756.35	72.1803	4756.35	67.3723	4756.35	71.9008	4756.35	66.8342	4756.35	71.0839	4756.35	68.4166	4756.35	70.2027	4756.35	61.9446	4756.35	67.7163	4756.35	64.3015	4756.35	66.1375	4756.35	61.4884	4756.35	64.3751	4756.35	67.1896	4756.35	61.0218	4756.35	57.5742	4756.35	62.1753	4756.35	67.9216	4756.35	66.9294
4924.8	85.7341	4924.8	83.9114	4924.8	85.3932	4924.8	84.6942	4924.8	82.8248	4924.8	84.8596	4924.8	85.655	4924.8	83.2102	4924.8	83.8861	4924.8	82.7009	4924.8	78.7603	4924.8	79.7267	4924.8	80.6091	4924.8	78.0336	4924.8	79.7932	4924.8	75.006	4924.8	73.2899	4924.8	74.3157	4924.8	70.5698	4924.8	73.2993	4924.8	69.6131	4924.8	69.4418	4924.8	68.9064	4924.8	68.3936	4924.8	67.7545	4924.8	66.0561	4924.8	68.4975	4924.8	65.8848	4924.8	61.4914	4924.8	64.2314	4924.8	66.9681	4924.8	61.8399	4924.8	56.8589	4924.8	61.726	4924.8	67.7179	4924.8	63.5826
5097.66	85.4834	5097.66	84.5795	5097.66	85.9502	5097.66	84.5377	5097.66	83.0294	5097.66	84.7319	5097.66	85.1839	5097.66	83.1178	5097.66	83.7065	5097.66	82.3916	5097.66	78.2838	5097.66	80.1098	5097.66	80.2048	5097.66	79.1371	5097.66	78.048	5097.66	76.2946	5097.66	74.4058	5097.66	72.3596	5097.66	71.442	5097.66	73.0994	5097.66	73.5322	5097.66	69.927	5097.66	71.0673	5097.66	68.1387	5097.66	72.0404	5097.66	66.5521	5097.66	70.1592	5097.66	65.2645	5097.66	63.4966	5097.66	64.6498	5097.66	65.35	5097.66	62.4191	5097.66	59.1637	5097.66	60.3276	5097.66	67.3733	5097.66	66.5591
5277.83	85.6246	5277.83	84.7869	5277.83	85.7413	5277.83	84.5444	5277.83	83.4046	5277.83	84.647	5277.83	85.1163	5277.83	83.1927	5277.83	82.7636	5277.83	81.7461	5277.83	79.0444	5277.83	80.4894	5277.83	80.1965	5277.83	78.7692	5277.83	78.115	5277.83	75.1905	5277.83	76.8178	5277.83	72.9836	5277.83	69.8232	5277.83	70.8991	5277.83	69.2308	5277.83	68.1587	5277.83	67.5448	5277.83	66.5317	5277.83	70.6781	5277.83	65.6779	5277.83	66.0885	5277.83	63.1282	5277.83	62.7465	5277.83	64.464	5277.83	66.4497	5277.83	62.0772	5277.83	61.2691	5277.83	59.8341	5277.83	67.2149	5277.83	63.9296
5463.87	86.113	5463.87	84.7083	5463.87	85.9995	5463.87	84.9735	5463.87	83.4977	5463.87	84.5822	5463.87	84.6506	5463.87	82.4415	5463.87	82.8948	5463.87	82.2313	5463.87	77.2179	5463.87	80.3615	5463.87	79.3548	5463.87	78.4465	5463.87	78.7728	5463.87	74.4545	5463.87	77.1161	5463.87	73.7458	5463.87	70.2927	5463.87	71.775	5463.87	64.7808	5463.87	67.0382	5463.87	65.8652	5463.87	65.2641	5463.87	68.275	5463.87	64.543	5463.87	66.928	5463.87	64.4342	5463.87	61.6866	5463.87	62.5744	5463.87	66.5999	5463.87	62.5911	5463.87	59.7672	5463.87	58.8032	5463.87	66.4102	5463.87	63.011
5657.23	86.3569	5657.23	84.5136	5657.23	85.3469	5657.23	85.2413	5657.23	84.3664	5657.23	84.4888	5657.23	83.7173	5657.23	81.8719	5657.23	83.086	5657.23	82.6983	5657.23	77.754	5657.23	79.9486	5657.23	78.4405	5657.23	78.1017	5657.23	79.6542	5657.23	75.1325	5657.23	77.3659	5657.23	72.779	5657.23	70.1242	5657.23	71.4406	5657.23	65.1498	5657.23	67.672	5657.23	68.6099	5657.23	62.9498	5657.23	67.5699	5657.23	63.2984	5657.23	68.7148	5657.23	66.9853	5657.23	58.3321	5657.23	63.0343	5657.23	62.7144	5657.23	57.5505	5657.23	57.0033	5657.23	54.0571	5657.23	63.1134	5657.23	66.2274
5856.45	86.3969	5856.45	84.5985	5856.45	85.4574	5856.45	85.357	5856.45	84.6461	5856.45	83.7248	5856.45	83.1794	5856.45	82.372	5856.45	82.9987	5856.45	82.4046	5856.45	79.073	5856.45	80.0555	5856.45	77.4277	5856.45	78.6123	5856.45	79.5752	5856.45	73.7682	5856.45	77.3495	5856.45	72.3295	5856.45	70.6636	5856.45	70.3016	5856.45	67.6828	5856.45	67.7034	5856.45	72.0889	5856.45	61.608	5856.45	66.3829	5856.45	64.4898	5856.45	66.5604	5856.45	66.3947	5856.45	47.8426	5856.45	60.9735	5856.45	64.5606	5856.45	61.1576	5856.45	59.6054	5856.45	54.268	5856.45	62.8125	5856.45	64.4127
6062.99	86.7915	6062.99	84.7324	6062.99	84.9121	6062.99	85.3968	6062.99	84.8485	6062.99	83.059	6062.99	82.5313	6062.99	82.7857	6062.99	82.5403	6062.99	81.8713	6062.99	79.3276	6062.99	79.9644	6062.99	77.7209	6062.99	77.4017	6062.99	79.187	6062.99	73.4897	6062.99	76.93	6062.99	73.011	6062.99	72.3122	6062.99	68.3553	6062.99	63.7822	6062.99	66.9849	6062.99	70.3776	6062.99	61.9492	6062.99	68.2014	6062.99	65.0075	6062.99	67.2846	6062.99	65.2695	6062.99	59.9862	6062.99	60.3133	6062.99	62.0607	6062.99	59.1027	6062.99	55.9171	6062.99	53.88	6062.99	61.314	6062.99	64.1074
6276.86	86.712	6276.86	84.7838	6276.86	84.8146	6276.86	85.155	6276.86	84.8099	6276.86	83.1083	6276.86	82.49	6276.86	82.5385	6276.86	82.3982	6276.86	81.923	6276.86	79.991	6276.86	79.0089	6276.86	77.0838	6276.86	76.8933	6276.86	79.1158	6276.86	72.9985	6276.86	75.6843	6276.86	72.716	6276.86	73.8876	6276.86	67.0738	6276.86	60.9926	6276.86	67.313	6276.86	69.5594	6276.86	63.6256	6276.86	68.4959	6276.86	66.0308	6276.86	64.9084	6276.86	63.6277	6276.86	58.859	6276.86	59.8239	6276.86	58.8446	6276.86	60.1981	6276.86	54.2236	6276.86	51.0582	6276.86	60.7086	6276.86	63.5742
6498.05	86.7256	6498.05	85.313	6498.05	84.9762	6498.05	84.7396	6498.05	84.4784	6498.05	83.3758	6498.05	82.647	6498.05	82.6616	6498.05	82.1275	6498.05	81.4456	6498.05	80.0637	6498.05	78.8079	6498.05	76.6339	6498.05	76.5711	6498.05	79.0233	6498.05	72.4723	6498.05	72.5208	6498.05	72.071	6498.05	73.0404	6498.05	64.6183	6498.05	60.3835	6498.05	66.6562	6498.05	68.5189	6498.05	64.6725	6498.05	66.9871	6498.05	64.3381	6498.05	48.5033	6498.05	60.3428	6498.05	60.6199	6498.05	60.3707	6498.05	58.998	6498.05	58.9835	6498.05	59.1089	6498.05	48.3628	6498.05	58.0296	6498.05	61.8261
6726.56	86.7034	6726.56	85.7065	6726.56	85.2003	6726.56	84.7142	6726.56	84.3438	6726.56	83.5881	6726.56	82.7458	6726.56	82.415	6726.56	81.8082	6726.56	80.8777	6726.56	80.0176	6726.56	78.69	6726.56	75.6512	6726.56	75.7315	6726.56	77.3342	6726.56	73.0353	6726.56	68.2681	6726.56	72.292	6726.56	69.6753	6726.56	65.7337	6726.56	54.2635	6726.56	66.1824	6726.56	64.2774	6726.56	65.0983	6726.56	65.9412	6726.56	64.1374	6726.56	57.3755	6726.56	60.1843	6726.56	56.254	6726.56	60.1076	6726.56	52.7118	6726.56	57.8502	6726.56	59.2678	6726.56	50.5459	6726.56	54.0465	6726.56	59.9481
6963.87	86.4145	6963.87	85.8658	6963.87	85.5127	6963.87	85.0572	6963.87	84.1251	6963.87	83.4633	6963.87	83.0737	6963.87	82.0575	6963.87	81.602	6963.87	81.061	6963.87	79.8526	6963.87	78.4107	6963.87	74.1387	6963.87	75.4995	6963.87	76.1731	6963.87	73.6626	6963.87	68.1	6963.87	70.3504	6963.87	68.8277	6963.87	66.4983	6963.87	41.3945	6963.87	66.0375	6963.87	64.305	6963.87	64.8376	6963.87	65.8566	6963.87	62.2051	6963.87	50.9962	6963.87	61.3505	6963.87	58.0489	6963.87	60.4736	6963.87	53.205	6963.87	55.8728	6963.87	58.0061	6963.87	49.4491	6963.87	47.3979	6963.87	57.3231
7209.96	86.4771	7209.96	86.0644	7209.96	85.905	7209.96	85.6842	7209.96	84.2013	7209.96	83.1755	7209.96	83.3955	7209.96	81.8914	7209.96	81.0271	7209.96	81.0639	7209.96	79.9942	7209.96	78.3077	7209.96	73.0192	7209.96	75.052	7209.96	74.0179	7209.96	73.499	7209.96	72.3148	7209.96	69.2148	7209.96	67.4505	7209.96	65.8665	7209.96	59.0817	7209.96	65.8966	7209.96	57.7654	7209.96	63.6045	7209.96	64.5172	7209.96	60.896	7209.96	57.5641	7209.96	58.0026	7209.96	56.3532	7209.96	60.4463	7209.96	61.5277	7209.96	57.1571	7209.96	50.9415	7209.96	56.8882	7209.96	60.1596	7209.96	56.1212
7464.84	86.8441	7464.84	86.5528	7464.84	86.3245	7464.84	85.8839	7464.84	84.3077	7464.84	82.9542	7464.84	83.844	7464.84	82.2039	7464.84	81.0538	7464.84	80.7363	7464.84	79.9725	7464.84	77.6488	7464.84	72.9426	7464.84	73.2592	7464.84	74.9096	7464.84	72.7242	7464.84	73.3675	7464.84	67.1407	7464.84	66.736	7464.84	66.9317	7464.84	58.6469	7464.84	64.0667	7464.84	59.1136	7464.84	63.3234	7464.84	61.4111	7464.84	59.0305	7464.84	54.1041	7464.84	54.9903	7464.84	56.3333	7464.84	59.0936	7464.84	61.4859	7464.84	57.9371	7464.84	50.8981	7464.84	56.8258	7464.84	60.2297	7464.84	56.0789
7727.05	86.7179	7727.05	86.771	7727.05	86.1416	7727.05	85.8328	7727.05	84.6261	7727.05	83.208	7727.05	83.7734	7727.05	82.1358	7727.05	80.7244	7727.05	80.4652	7727.05	79.8576	7727.05	76.3778	7727.05	71.9763	7727.05	72.2795	7727.05	74.7022	7727.05	72.9128	7727.05	72.7382	7727.05	64.3971	7727.05	68.7676	7727.05	66.9062	7727.05	57.8349	7727.05	62.0655	7727.05	63.5268	7727.05	63.0727	7727.05	55.569	7727.05	57.0923	7727.05	57.8788	7727.05	55.3326	7727.05	54.3456	7727.05	57.7479	7727.05	59.0757	7727.05	55.9872	7727.05	50.4683	7727.05	55.5163	7727.05	60.2205	7727.05	55.3773
7999.51	86.771	7999.51	86.9482	7999.51	86.1001	7999.51	85.6871	7999.51	84.8701	7999.51	83.6367	7999.51	84.0255	7999.51	81.6988	7999.51	79.9849	7999.51	79.8891	7999.51	80.2804	7999.51	75.9359	7999.51	72.9459	7999.51	71.448	7999.51	74.454	7999.51	72.0741	7999.51	70.3419	7999.51	60.3207	7999.51	68.1387	7999.51	65.6207	7999.51	60.5419	7999.51	59.6169	7999.51	63.737	7999.51	62.069	7999.51	47.7867	7999.51	55.7774	7999.51	57.4987	7999.51	55.1408	7999.51	52.0887	7999.51	55.0855	7999.51	55.4037	7999.51	57.0427	7999.51	36.6864	7999.51	52.8336	7999.51	60.8764	7999.51	54.7692
8282.23	86.4129	8282.23	86.8034	8282.23	85.9115	8282.23	85.5168	8282.23	85.0316	8282.23	83.4482	8282.23	83.7845	8282.23	81.5235	8282.23	79.9361	8282.23	79.2911	8282.23	79.4202	8282.23	75.1341	8282.23	73.2197	8282.23	70.0664	8282.23	73.5801	8282.23	70.1024	8282.23	69.1232	8282.23	53.7778	8282.23	65.0121	8282.23	63.9927	8282.23	54.1533	8282.23	56.8748	8282.23	65.2131	8282.23	60.3093	8282.23	51.9518	8282.23	54.9535	8282.23	57.6224	8282.23	52.8442	8282.23	53.4428	8282.23	52.7525	8282.23	49.9877	8282.23	57.6232	8282.23	45.6486	8282.23	50.3687	8282.23	58.8	8282.23	54.3076
8573.73	86.2462	8573.73	86.8385	8573.73	85.8194	8573.73	85.3971	8573.73	85.1013	8573.73	83.0408	8573.73	83.2967	8573.73	81.4581	8573.73	79.9546	8573.73	78.8713	8573.73	78.681	8573.73	73.3701	8573.73	72.991	8573.73	69.5735	8573.73	71.1501	8573.73	67.0175	8573.73	66.3027	8573.73	54.7073	8573.73	63.0562	8573.73	61.5481	8573.73	50.8846	8573.73	56.3448	8573.73	65.2838	8573.73	58.1934	8573.73	49.5352	8573.73	54.1674	8573.73	57.9547	8573.73	45.4266	8573.73	51.9905	8573.73	51.9592	8573.73	43.4593	8573.73	58.4888	8573.73	42.4545	8573.73	50.7651	8573.73	57.0006	8573.73	49.9952
8876.95	86.0482	8876.95	86.759	8876.95	85.8647	8876.95	85.3696	8876.95	85.0537	8876.95	82.7214	8876.95	82.6899	8876.95	80.911	8876.95	80.005	8876.95	78.1281	8876.95	77.7016	8876.95	72.5702	8876.95	71.6861	8876.95	69.6852	8876.95	68.8642	8876.95	64.6848	8876.95	68.7577	8876.95	57.8772	8876.95	60.5328	8876.95	59.6119	8876.95	50.7288	8876.95	51.289	8876.95	60.6351	8876.95	55.374	8876.95	46.5216	8876.95	53.6501	8876.95	52.1972	8876.95	44.6031	8876.95	44.7632	8876.95	53.322	8876.95	46.7961	8876.95	55.3348	8876.95	54.6637	8876.95	52.6845	8876.95	49.5825	8876.95	53.6027
9188.96	86.1082	9188.96	86.702	9188.96	85.9973	9188.96	85.3596	9188.96	84.8577	9188.96	82.6096	9188.96	82.2719	9188.96	80.3534	9188.96	79.6349	9188.96	77.2266	9188.96	76.4922	9188.96	71.6802	9188.96	70.9505	9188.96	69.796	9188.96	67.4244	9188.96	62.1508	9188.96	67.4146	9188.96	56.385	9188.96	58.2284	9188.96	55.5423	9188.96	52.36	9188.96	48.9427	9188.96	52.0153	9188.96	50.4347	9188.96	45.8083	9188.96	49.6608	9188.96	40.9535	9188.96	45.2439	9188.96	42.0247	9188.96	52.1542	9188.96	51.6891	9188.96	52.2865	9188.96	51.2298	9188.96	49.5506	9188.96	53.737	9188.96	51.7023
9514.16	86.4782	9514.16	86.8555	9514.16	86.2048	9514.16	85.449	9514.16	84.796	9514.16	82.2607	9514.16	82.0646	9514.16	80.145	9514.16	79.0583	9514.16	76.3393	9514.16	75.9565	9514.16	70.6105	9514.16	70.2623	9514.16	68.4024	9514.16	66.4609	9514.16	56.3292	9514.16	63.1905	9514.16	55.758	9514.16	53.4109	9514.16	49.0124	9514.16	50.2791	9514.16	48.185	9514.16	48.015	9514.16	45.135	9514.16	45.5845	9514.16	46.5942	9514.16	42.3085	9514.16	45.4491	9514.16	40.918	9514.16	49.7281	9514.16	49.9968	9514.16	48.2249	9514.16	48.9204	9514.16	44.6071	9514.16	53.796	9514.16	45.8841
9849.61	86.8453	9849.61	87.1311	9849.61	86.4818	9849.61	85.6139	9849.61	84.8523	9849.61	82.2077	9849.61	81.7236	9849.61	79.7886	9849.61	78.5414	9849.61	74.9682	9849.61	74.5128	9849.61	69.8621	9849.61	68.5709	9849.61	66.0304	9849.61	62.3198	9849.61	52.757	9849.61	56.1326	9849.61	53.0671	9849.61	55.0023	9849.61	49.2374	9849.61	42.5646	9849.61	42.1561	9849.61	48.004	9849.61	41.7546	9849.61	44.8988	9849.61	40.0942	9849.61	43.6524	9849.61	46.1949	9849.61	37.7496	9849.61	45.3257	9849.61	50.017	9849.61	47.2113	9849.61	46.2467	9849.61	47.4929	9849.61	52.0929	9849.61	42.405
10196.8	87.3193	10196.8	87.5226	10196.8	86.8453	10196.8	85.8518	10196.8	84.9054	10196.8	82.2722	10196.8	81.724	10196.8	79.0895	10196.8	77.8664	10196.8	73.6359	10196.8	72.9677	10196.8	67.9209	10196.8	65.1025	10196.8	62.9288	10196.8	59.8671	10196.8	56.711	10196.8	51.7333	10196.8	34.0787	10196.8	49.5634	10196.8	52.7361	10196.8	42.5709	10196.8	42.9899	10196.8	46.2086	10196.8	43.7852	10196.8	23.9644	10196.8	45.9577	10196.8	45.5215	10196.8	49.1643	10196.8	40.659	10196.8	41.9188	10196.8	50.9938	10196.8	50.4967	10196.8	43.9755	10196.8	49.0436	10196.8	49.7258	10196.8	47.3559
10555.7	87.3783	10555.7	87.5996	10555.7	86.8974	10555.7	85.9801	10555.7	84.8619	10555.7	82.0944	10555.7	81.5638	10555.7	78.4823	10555.7	77.1958	10555.7	71.6884	10555.7	71.4475	10555.7	65.842	10555.7	61.0907	10555.7	55.3348	10555.7	55.6653	10555.7	60.1112	10555.7	56.9363	10555.7	51.8291	10555.7	50.9194	10555.7	54.4233	10555.7	51.9231	10555.7	50.605	10555.7	40.8605	10555.7	45.6388	10555.7	44.1983	10555.7	52.168	10555.7	46.7108	10555.7	51.4199	10555.7	45.2459	10555.7	42.7056	10555.7	51.3211	10555.7	52.464	10555.7	40.3646	10555.7	50.938	10555.7	44.7751	10555.7	51.2172
10927.7	87.8044	10927.7	87.8058	10927.7	86.9782	10927.7	86.0639	10927.7	85.0161	10927.7	81.5943	10927.7	81.364	10927.7	78.1239	10927.7	76.8937	10927.7	69.0263	10927.7	69.9579	10927.7	62.4014	10927.7	50.1956	10927.7	51.3011	10927.7	51.8945	10927.7	62.1016	10927.7	58.6409	10927.7	57.3862	10927.7	53.0084	10927.7	55.4676	10927.7	52.2238	10927.7	53.5152	10927.7	45.9963	10927.7	46.6584	10927.7	50.0915	10927.7	53.8875	10927.7	45.1938	10927.7	50.7211	10927.7	46.317	10927.7	45.7439	10927.7	50.9247	10927.7	52.7411	10927.7	46.7265	10927.7	52.4484	10927.7	44.3258	10927.7	52.195
11313	87.7352	11313	87.7268	11313	87.0042	11313	86.0437	11313	84.8286	11313	80.9752	11313	80.7658	11313	77.3432	11313	75.9476	11313	66.9821	11313	67.922	11313	54.5189	11313	60.1215	11313	58.7609	11313	49.0772	11313	62.8826	11313	60.2792	11313	60.7939	11313	58.0718	11313	56.3576	11313	51.9186	11313	55.6423	11313	48.5148	11313	51.567	11313	53.2343	11313	54.3008	11313	47.2517	11313	50.9592	11313	48.8654	11313	49.2612	11313	49.3025	11313	54.4182	11313	44.8726	11313	52.9195	11313	48.249	11313	53.0832
11712.9	88.0203	11712.9	87.6914	11712.9	87.1204	11712.9	85.8581	11712.9	84.5309	11712.9	80.3501	11712.9	80.0949	11712.9	77.0551	11712.9	75.4129	11712.9	63.5367	11712.9	66.9561	11712.9	56.6815	11712.9	66.7158	11712.9	62.2771	11712.9	57.839	11712.9	64.3325	11712.9	64.8029	11712.9	61.7647	11712.9	61.6421	11712.9	59.37	11712.9	52.2574	11712.9	57.0666	11712.9	47.0039	11712.9	55.0222	11712.9	50.9682	11712.9	52.0389	11712.9	49.9531	11712.9	51.6145	11712.9	51.2603	11712.9	48.2429	11712.9	48.447	11712.9	55.746	11712.9	47.9046	11712.9	53.8089	11712.9	48.3858	11712.9	53.2442
12126	88.1538	12126	87.8901	12126	87.4464	12126	85.6302	12126	84.1098	12126	79.6699	12126	79.5253	12126	76.5982	12126	74.0174	12126	64.8764	12126	63.1914	12126	59.1508	12126	68.9992	12126	63.0157	12126	60.3814	12126	63.8646	12126	65.2374	12126	61.0552	12126	60.7838	12126	61.1087	12126	51.8704	12126	56.7316	12126	48.5043	12126	54.9762	12126	44.4106	12126	46.7952	12126	47.2261	12126	50.3104	12126	49.4712	12126	47.5816	12126	30.7492	12126	56.579	12126	48.4353	12126	55.7879	12126	52.7846	12126	52.1636
12553.7	88.3911	12553.7	88.1826	12553.7	87.7113	12553.7	85.5614	12553.7	84.1373	12553.7	78.9819	12553.7	79.3873	12553.7	75.8004	12553.7	72.7938	12553.7	63.2837	12553.7	62.1684	12553.7	60.844	12553.7	69.1136	12553.7	62.2948	12553.7	63.7161	12553.7	62.5886	12553.7	65.7432	12553.7	60.3826	12553.7	59.9092	12553.7	60.1371	12553.7	58.6527	12553.7	55.6535	12553.7	53.3368	12553.7	54.2253	12553.7	49.9553	12553.7	46.6746	12553.7	46.1745	12553.7	48.7589	12553.7	47.8176	12553.7	48.5587	12553.7	43.1326	12553.7	55.5013	12553.7	46.3332	12553.7	55.983	12553.7	51.6019	12553.7	52.2479
12996.1	88.5104	12996.1	88.3272	12996.1	87.7744	12996.1	85.6098	12996.1	84.1667	12996.1	78.8648	12996.1	79.2882	12996.1	75.5415	12996.1	71.7766	12996.1	64.0256	12996.1	64.7925	12996.1	59.7597	12996.1	71.5814	12996.1	61.5515	12996.1	62.8233	12996.1	59.6773	12996.1	65.3146	12996.1	60.8055	12996.1	60.1705	12996.1	60.5079	12996.1	52.4077	12996.1	53.9399	12996.1	43.8781	12996.1	55.1	12996.1	54.3115	12996.1	48.4955	12996.1	46.0115	12996.1	43.9801	12996.1	50.5279	12996.1	43.8579	12996.1	44.2508	12996.1	54.3651	12996.1	45.8243	12996.1	55.3465	12996.1	52.8214	12996.1	53.2021
13454.6	88.2964	13454.6	88.2359	13454.6	87.6723	13454.6	85.5088	13454.6	84.1201	13454.6	78.7546	13454.6	78.7026	13454.6	74.8949	13454.6	69.5343	13454.6	65.4821	13454.6	63.2433	13454.6	59.1857	13454.6	72.8746	13454.6	65.1566	13454.6	57.5599	13454.6	58.2098	13454.6	66.452	13454.6	61.224	13454.6	54.7856	13454.6	59.8543	13454.6	57.1388	13454.6	53.0568	13454.6	52.8546	13454.6	54.7557	13454.6	52.6491	13454.6	48.9547	13454.6	55.0173	13454.6	44.7876	13454.6	49.7859	13454.6	44.0058	13454.6	47.0354	13454.6	53.4884	13454.6	43.8974	13454.6	55.8399	13454.6	51.7159	13454.6	51.485
13929.2	88.3292	13929.2	87.9976	13929.2	87.4524	13929.2	85.1564	13929.2	84.0955	13929.2	77.9017	13929.2	78.3192	13929.2	74.1403	13929.2	68.8252	13929.2	63.4679	13929.2	63.436	13929.2	65.4032	13929.2	71.4195	13929.2	66.5956	13929.2	63.4402	13929.2	59.6373	13929.2	65.4799	13929.2	60.6884	13929.2	59.7028	13929.2	59.0041	13929.2	58.7849	13929.2	50.9016	13929.2	55.9458	13929.2	55.9694	13929.2	51.4491	13929.2	50.6	13929.2	54.4198	13929.2	48.2285	13929.2	42.5401	13929.2	45.9156	13929.2	36.4027	13929.2	52.7957	13929.2	40.4864	13929.2	56.1468	13929.2	46.5182	13929.2	51.4871
14419.9	88.5055	14419.9	87.7938	14419.9	87.2532	14419.9	85.0549	14419.9	84.0153	14419.9	76.8143	14419.9	77.4926	14419.9	73.4953	14419.9	68.5517	14419.9	60.1898	14419.9	59.8197	14419.9	68.4939	14419.9	68.816	14419.9	67.6101	14419.9	64.9641	14419.9	63.6333	14419.9	66.0779	14419.9	60.4862	14419.9	58.9277	14419.9	59.8034	14419.9	49.429	14419.9	55.6025	14419.9	54.9678	14419.9	56.1201	14419.9	49.4974	14419.9	52.1769	14419.9	45.7631	14419.9	48.0109	14419.9	34.3381	14419.9	48.7249	14419.9	40.3336	14419.9	53.6952	14419.9	46.3013	14419.9	56.0431	14419.9	42.6882	14419.9	53.9869
14928.2	88.6143	14928.2	87.825	14928.2	86.9911	14928.2	85.0448	14928.2	83.8088	14928.2	75.6433	14928.2	75.92	14928.2	72.2987	14928.2	68.1001	14928.2	59.3874	14928.2	63.0741	14928.2	70.3847	14928.2	69.9922	14928.2	67.8618	14928.2	63.8148	14928.2	64.9725	14928.2	65.0464	14928.2	61.7212	14928.2	54.1145	14928.2	61.1213	14928.2	51.2714	14928.2	55.4433	14928.2	45.0057	14928.2	54.9641	14928.2	47.9644	14928.2	55.1354	14928.2	45.6095	14928.2	49.2055	14928.2	42.4498	14928.2	49.9208	14928.2	28.6138	14928.2	50.0583	14928.2	46.9623	14928.2	56.1994	14928.2	40.0046	14928.2	51.0859
15455.6	88.3596	15455.6	87.5601	15455.6	86.631	15455.6	84.9751	15455.6	83.0092	15455.6	74.8508	15455.6	74.1504	15455.6	69.3292	15455.6	64.7033	15455.6	63.7353	15455.6	61.357	15455.6	70.8588	15455.6	68.7159	15455.6	69.3007	15455.6	63.7939	15455.6	65.6276	15455.6	59.2996	15455.6	61.8146	15455.6	53.278	15455.6	61.0253	15455.6	55.3941	15455.6	51.8686	15455.6	43.4233	15455.6	52.5213	15455.6	35.71	15455.6	56.1226	15455.6	40.0284	15455.6	48.9307	15455.6	41.3652	15455.6	50.3712	15455.6	45.6895	15455.6	47.4813	15455.6	49.1367	15455.6	51.8154	15455.6	52.0846	15455.6	49.1643
16000.5	87.9835	16000.5	87.2837	16000.5	85.919	16000.5	84.3055	16000.5	81.7227	16000.5	73.4659	16000.5	72.3026	16000.5	66.4989	16000.5	59.3823	16000.5	64.4976	16000.5	66.1996	16000.5	70.0649	16000.5	65.0294	16000.5	69.6361	16000.5	64.5894	16000.5	64.0493	16000.5	60.2059	16000.5	61.2444	16000.5	53.8029	16000.5	58.7604	16000.5	56.609	16000.5	42.623	16000.5	46.3706	16000.5	48.6423	16000.5	49.2726	16000.5	54.293	16000.5	39.298	16000.5	48.5204	16000.5	40.8386	16000.5	50.6374	16000.5	42.1098	16000.5	27.6774	16000.5	45.6967	16000.5	53.738	16000.5	51.259	16000.5	52.7933
16564.5	87.5946	16564.5	86.6954	16564.5	85.2737	16564.5	82.9191	16564.5	80.5522	16564.5	70.883	16564.5	70.2545	16564.5	60.8275	16564.5	44.5622	16564.5	63.4381	16564.5	66.9231	16564.5	69.1538	16564.5	63.4981	16564.5	68.6547	16564.5	64.6779	16564.5	62.4945	16564.5	58.8517	16564.5	60.0671	16564.5	48.5972	16564.5	54.9365	16564.5	55.3751	16564.5	44.0624	16564.5	42.9115	16564.5	41.6996	16564.5	48.0589	16564.5	51.4108	16564.5	44.8048	16564.5	46.4764	16564.5	39.6503	16564.5	51.6534	16564.5	47.0671	16564.5	45.6632	16564.5	41.7	16564.5	53.5812	16564.5	45.4038	16564.5	53.4601
17148.9	86.8464	17148.9	86.1531	17148.9	84.875	17148.9	81.8342	17148.9	79.6138	17148.9	70.0284	17148.9	69.1071	17148.9	55.7734	17148.9	53.3946	17148.9	63.4733	17148.9	66.0027	17148.9	68.6959	17148.9	65.2273	17148.9	66.5986	17148.9	65.2906	17148.9	60.3933	17148.9	57.5086	17148.9	58.8953	17148.9	49.7709	17148.9	48.072	17148.9	48.4176	17148.9	47.1777	17148.9	47.0442	17148.9	41.5345	17148.9	29.9981	17148.9	44.5337	17148.9	43.3066	17148.9	41.4633	17148.9	41.1291	17148.9	50.5602	17148.9	46.7791	17148.9	40.5663	17148.9	49.2328	17148.9	43.9296	17148.9	52.279	17148.9	52.2045
17752.4	86.024	17752.4	85.5133	17752.4	84.1968	17752.4	80.8971	17752.4	78.488	17752.4	69.1006	17752.4	67.6826	17752.4	58.4373	17752.4	58.1268	17752.4	65.6025	17752.4	67.237	17752.4	67.7612	17752.4	64.8996	17752.4	66.4566	17752.4	62.9621	17752.4	60.0854	17752.4	54.8085	17752.4	57.6298	17752.4	50.4893	17752.4	37.9772	17752.4	40.4567	17752.4	46.0501	17752.4	50.9137	17752.4	46.9528	17752.4	43.4551	17752.4	40.5848	17752.4	42.2493	17752.4	41.6314	17752.4	29.2397	17752.4	48.4368	17752.4	40.4954	17752.4	46.1844	17752.4	43.2284	17752.4	48.1908	17752.4	50.8081	17752.4	43.5596
18379.4	85.6184	18379.4	84.7243	18379.4	83.5595	18379.4	79.3499	18379.4	77.3486	18379.4	66.9642	18379.4	63.2568	18379.4	61.8292	18379.4	61.048	18379.4	66.756	18379.4	67.0128	18379.4	67.5014	18379.4	66.4163	18379.4	64.71	18379.4	63.3999	18379.4	59.7445	18379.4	51.5935	18379.4	57.2393	18379.4	36.4163	18379.4	40.2417	18379.4	47.5552	18379.4	35.3851	18379.4	53.772	18379.4	52.1464	18379.4	44.2673	18379.4	47.0538	18379.4	46.4212	18379.4	43.5839	18379.4	41.1303	18379.4	51.4552	18379.4	36.948	18379.4	49.2833	18379.4	48.701	18379.4	45.6745	18379.4	50.9731	18379.4	53.8804
19026.9	84.889	19026.9	83.9455	19026.9	82.7676	19026.9	78.3207	19026.9	76.6255	19026.9	62.414	19026.9	61.5102	19026.9	60.9034	19026.9	60.7098	19026.9	67.5032	19026.9	62.162	19026.9	65.8629	19026.9	65.307	19026.9	62.8711	19026.9	59.2546	19026.9	53.5379	19026.9	47.6284	19026.9	53.108	19026.9	42.8055	19026.9	39.4822	19026.9	47.4222	19026.9	46.2979	19026.9	49.0866	19026.9	50.5961	19026.9	47.9794	19026.9	41.6682	19026.9	40.4992	19026.9	42.4069	19026.9	35.2295	19026.9	50.8464	19026.9	36.5668	19026.9	42.9031	19026.9	44.7259	19026.9	41.1219	19026.9	49.9944	19026.9	45.1404
19697.8	84.5418	19697.8	83.1894	19697.8	81.7296	19697.8	77.0725	19697.8	75.211	19697.8	59.7071	19697.8	63.1398	19697.8	63.4052	19697.8	65.8995	19697.8	65.5117	19697.8	63.1834	19697.8	65.6246	19697.8	62.6556	19697.8	60.1134	19697.8	57.3916	19697.8	53.9135	19697.8	49.9611	19697.8	51.2774	19697.8	43.4129	19697.8	42.194	19697.8	44.9125	19697.8	43.2984	19697.8	52.5342	19697.8	35.3285	19697.8	41.4379	19697.8	28.6664	19697.8	31.6963	19697.8	40.1539	19697.8	44.854	19697.8	42.3885	19697.8	40.3859	19697.8	36.3008	19697.8	44.8119	19697.8	36.8037	19697.8	37.346	19697.8	41.5573
19999.5	84.6417	19999.5	82.9598	19999.5	81.303	19999.5	76.8529	19999.5	74.4584	19999.5	59.6729	19999.5	64.556	19999.5	64.8045	19999.5	67.8245	19999.5	64.9099	19999.5	64.2022	19999.5	64.4709	19999.5	62.189	19999.5	59.0453	19999.5	55.6454	19999.5	53.2503	19999.5	52.6283	19999.5	49.5024	19999.5	44.2911	19999.5	37.9137	19999.5	30.3357	19999.5	38.5864	19999.5	47.1953	19999.5	37.643	19999.5	51.4349	19999.5	37.3993	19999.5	39.5343	19999.5	43.7021	19999.5	41.7776	19999.5	40.303	19999.5	38.5491	19999.5	44.196	19999.5	44.93	19999.5	45.9435	19999.5	48.8872	19999.5	35.701
