"SPL Horizontal"
"On-Axis"		"10°"		"-10°"		"20°"		"-20°"		"30°"		"-30°"		"40°"		"-40°"		"50°"		"-50°"		"60°"		"-60°"		"70°"		"-70°"		"80°"		"-80°"		"90°"		"-90°"		"100°"		"-100°"		"110°"		"-110°"		"120°"		"-120°"		"130°"		"-130°"		"140°"		"-140°"		"150°"		"-150°"		"160°"		"-160°"		"170°"		"-170°"		"180°"
"Frequency [Hz]"	"Sound Pessure Level [dB]  / [2.83V 1m] "	"Frequency [Hz]"	"Sound Pessure Level [dB]  / [2.83V 1m] "	"Frequency [Hz]"	"Sound Pessure Level [dB]  / [2.83V 1m] "	"Frequency [Hz]"	"Sound Pessure Level [dB]  / [2.83V 1m] "	"Frequency [Hz]"	"Sound Pessure Level [dB]  / [2.83V 1m] "	"Frequency [Hz]"	"Sound Pessure Level [dB]  / [2.83V 1m] "	"Frequency [Hz]"	"Sound Pessure Level [dB]  / [2.83V 1m] "	"Frequency [Hz]"	"Sound Pessure Level [dB]  / [2.83V 1m] "	"Frequency [Hz]"	"Sound Pessure Level [dB]  / [2.83V 1m] "	"Frequency [Hz]"	"Sound Pessure Level [dB]  / [2.83V 1m] "	"Frequency [Hz]"	"Sound Pessure Level [dB]  / [2.83V 1m] "	"Frequency [Hz]"	"Sound Pessure Level [dB]  / [2.83V 1m] "	"Frequency [Hz]"	"Sound Pessure Level [dB]  / [2.83V 1m] "	"Frequency [Hz]"	"Sound Pessure Level [dB]  / [2.83V 1m] "	"Frequency [Hz]"	"Sound Pessure Level [dB]  / [2.83V 1m] "	"Frequency [Hz]"	"Sound Pessure Level [dB]  / [2.83V 1m] "	"Frequency [Hz]"	"Sound Pessure Level [dB]  / [2.83V 1m] "	"Frequency [Hz]"	"Sound Pessure Level [dB]  / [2.83V 1m] "	"Frequency [Hz]"	"Sound Pessure Level [dB]  / [2.83V 1m] "	"Frequency [Hz]"	"Sound Pessure Level [dB]  / [2.83V 1m] "	"Frequency [Hz]"	"Sound Pessure Level [dB]  / [2.83V 1m] "	"Frequency [Hz]"	"Sound Pessure Level [dB]  / [2.83V 1m] "	"Frequency [Hz]"	"Sound Pessure Level [dB]  / [2.83V 1m] "	"Frequency [Hz]"	"Sound Pessure Level [dB]  / [2.83V 1m] "	"Frequency [Hz]"	"Sound Pessure Level [dB]  / [2.83V 1m] "	"Frequency [Hz]"	"Sound Pessure Level [dB]  / [2.83V 1m] "	"Frequency [Hz]"	"Sound Pessure Level [dB]  / [2.83V 1m] "	"Frequency [Hz]"	"Sound Pessure Level [dB]  / [2.83V 1m] "	"Frequency [Hz]"	"Sound Pessure Level [dB]  / [2.83V 1m] "	"Frequency [Hz]"	"Sound Pessure Level [dB]  / [2.83V 1m] "	"Frequency [Hz]"	"Sound Pessure Level [dB]  / [2.83V 1m] "	"Frequency [Hz]"	"Sound Pessure Level [dB]  / [2.83V 1m] "	"Frequency [Hz]"	"Sound Pessure Level [dB]  / [2.83V 1m] "	"Frequency [Hz]"	"Sound Pessure Level [dB]  / [2.83V 1m] "	"Frequency [Hz]"	"Sound Pessure Level [dB]  / [2.83V 1m] "	"Frequency [Hz]"	"Sound Pessure Level [dB]  / [2.83V 1m] "
20.5078	45.7796	20.5078	45.5256	20.5078	45.6109	20.5078	44.8271	20.5078	44.9795	20.5078	43.5876	20.5078	43.7643	20.5078	41.5825	20.5078	41.6819	20.5078	38.3092	20.5078	37.9651	20.5078	33.0959	20.5078	28.9952	20.5078	33.9222	20.5078	29.735	20.5078	40.1571	20.5078	39.6446	20.5078	44.4456	20.5078	44.4285	20.5078	47.5132	20.5078	47.6234	20.5078	49.8539	20.5078	49.9967	20.5078	51.7006	20.5078	51.8415	20.5078	53.172	20.5078	53.2965	20.5078	54.332	20.5078	54.4338	20.5078	55.2155	20.5078	55.2923	20.5078	55.8413	20.5078	55.8923	20.5078	56.2189	20.5078	56.2443	20.5078	56.3528
21.9727	48.352	21.9727	48.2402	21.9727	48.3954	21.9727	48.0857	21.9727	48.3807	21.9727	47.9574	21.9727	48.3537	21.9727	47.9724	21.9727	48.398	21.9727	48.2715	21.9727	48.6248	21.9727	48.9485	21.9727	49.1341	21.9727	49.98	21.9727	49.9573	21.9727	51.242	21.9727	51.0353	21.9727	52.5898	21.9727	52.2574	21.9727	53.9136	21.9727	53.5149	21.9727	55.1458	21.9727	54.7282	21.9727	56.2483	21.9727	55.8457	21.9727	57.1996	21.9727	56.8357	21.9727	57.9858	21.9727	57.6775	21.9727	58.5974	21.9727	58.3566	21.9727	59.0271	21.9727	58.8621	21.9727	59.2699	21.9727	59.186	21.9727	59.3228
23.4375	52.1032	23.4375	51.9582	23.4375	52.0929	23.4375	51.674	23.4375	51.9227	23.4375	51.2852	23.4375	51.6009	23.4375	50.8614	23.4375	51.1595	23.4375	50.5288	23.4375	50.6765	23.4375	50.4709	23.4375	50.3065	23.4375	50.8566	23.4375	50.2768	23.4375	51.7137	23.4375	50.7748	23.4375	52.9015	23.4375	51.7837	23.4375	54.2237	23.4375	53.0982	23.4375	55.5281	23.4375	54.4942	23.4375	56.7244	23.4375	55.8242	23.4375	57.7647	23.4375	57.0117	23.4375	58.6236	23.4375	58.0208	23.4375	59.2865	23.4375	58.8341	23.4375	59.7443	23.4375	59.4424	23.4375	59.9909	23.4375	59.8398	23.4375	60.0231
24.9023	54.3125	24.9023	54.2139	24.9023	54.3006	24.9023	54.0159	24.9023	54.1802	24.9023	53.7473	24.9023	53.9679	24.9023	53.4631	24.9023	53.7013	24.9023	53.2543	24.9023	53.4493	24.9023	53.243	24.9023	53.3183	24.9023	53.543	24.9023	53.4349	24.9023	54.193	24.9023	53.8896	24.9023	55.1272	24.9023	54.6758	24.9023	56.2186	24.9023	55.6928	24.9023	57.3436	24.9023	56.8081	24.9023	58.4123	24.9023	57.9108	24.9023	59.3674	24.9023	58.9262	24.9023	60.1735	24.9023	59.8081	24.9023	60.8084	24.9023	60.528	24.9023	61.2574	24.9023	61.0677	24.9023	61.511	24.9023	61.4154	24.9023	61.5641
26.3672	55.8796	26.3672	55.7851	26.3672	55.8821	26.3672	55.6126	26.3672	55.7933	26.3672	55.3934	26.3672	55.6289	26.3672	55.1825	26.3672	55.4252	26.3672	55.0629	26.3672	55.2467	26.3672	55.136	26.3672	55.1875	26.3672	55.4867	26.3672	55.3535	26.3672	56.1358	26.3672	55.8157	26.3672	57.0244	26.3672	56.5656	26.3672	58.0478	26.3672	57.5192	26.3672	59.1021	26.3672	58.5642	26.3672	60.1074	26.3672	59.6024	26.3672	61.01	26.3672	60.5643	26.3672	61.7746	26.3672	61.4043	26.3672	62.3782	26.3672	62.0933	26.3672	62.8052	26.3672	62.612	26.3672	63.0454	26.3672	62.9479	26.3672	63.0934
27.832	57.9817	27.832	57.9326	27.832	57.9651	27.832	57.8295	27.832	57.883	27.832	57.698	27.832	57.7487	27.832	57.5795	27.832	57.5918	27.832	57.5319	27.832	57.4615	27.832	57.6225	27.832	57.4269	27.832	57.9094	27.832	57.5649	27.832	58.4157	27.832	57.9326	27.832	59.116	27.832	58.5369	27.832	59.9471	27.832	59.3286	27.832	60.8326	27.832	60.226	27.832	61.703	27.832	61.1451	27.832	62.5036	27.832	62.0178	27.832	63.1941	27.832	62.7946	27.832	63.7459	27.832	63.4408	27.832	64.1386	27.832	63.9328	27.832	64.3585	27.832	64.255	27.832	64.398
29.2969	59.5827	29.2969	59.5311	29.2969	59.5784	29.2969	59.4352	29.2969	59.5181	29.2969	59.3193	29.2969	59.4137	29.2969	59.2222	29.2969	59.2918	29.2969	59.1965	29.2969	59.1961	29.2969	59.3023	29.2969	59.1862	29.2969	59.5896	29.2969	59.3282	29.2969	60.0779	29.2969	59.6718	29.2969	60.7444	29.2969	60.2269	29.2969	61.5324	29.2969	60.9554	29.2969	62.3727	29.2969	61.7882	29.2969	63.2005	29.2969	62.65	29.2969	63.9636	29.2969	63.476	29.2969	64.6227	29.2969	64.2167	29.2969	65.1495	29.2969	64.8368	29.2969	65.5236	29.2969	65.3116	29.2969	65.7315	29.2969	65.6246	29.2969	65.7658
30.7617	61.4965	30.7617	61.4689	30.7617	61.482	30.7617	61.407	30.7617	61.4265	30.7617	61.3287	30.7617	61.341	30.7617	61.2624	30.7617	61.247	30.7617	61.247	30.7617	61.1784	30.7617	61.3276	30.7617	61.1801	30.7617	61.5458	30.7617	61.3014	30.7617	61.9249	30.7617	61.5818	30.7617	62.4589	30.7617	62.0349	30.7617	63.1128	30.7617	62.6397	30.7617	63.8333	30.7617	63.3477	30.7617	64.5633	30.7617	64.098	30.7617	65.2517	30.7617	64.8326	30.7617	65.8567	30.7617	65.5027	30.7617	66.3465	30.7617	66.071	30.7617	66.698	30.7617	66.5097	30.7617	66.8954	30.7617	66.7999	30.7617	66.93
32.2266	62.7761	32.2266	62.7443	32.2266	62.7717	32.2266	62.6845	32.2266	62.7315	32.2266	62.6144	32.2266	62.6652	32.2266	62.5614	32.2266	62.5925	32.2266	62.5619	32.2266	62.5442	32.2266	62.6568	32.2266	62.5606	32.2266	62.8828	32.2266	62.6862	32.2266	63.2592	32.2266	62.9569	32.2266	63.779	32.2266	63.3863	32.2266	64.4096	32.2266	63.9573	32.2266	65.1019	32.2266	64.6274	32.2266	65.8031	32.2266	65.3415	32.2266	66.4649	32.2266	66.0446	32.2266	67.0472	32.2266	66.6896	32.2266	67.5189	32.2266	67.2391	32.2266	67.8571	32.2266	67.6653	32.2266	68.0461	32.2266	67.9487	32.2266	68.0773
33.6914	64.2907	33.6914	64.2718	33.6914	64.2847	33.6914	64.2355	33.6914	64.2541	33.6914	64.1972	33.6914	64.2075	33.6914	64.1802	33.6914	64.1617	33.6914	64.2143	33.6914	64.1425	33.6914	64.3318	33.6914	64.183	33.6914	64.5607	33.6914	64.3184	33.6914	64.9155	33.6914	64.5771	33.6914	65.3904	33.6914	64.9704	33.6914	65.9597	33.6914	65.4861	33.6914	66.5838	33.6914	66.0908	33.6914	67.2179	33.6914	66.7389	33.6914	67.8192	33.6914	67.3826	33.6914	68.3507	33.6914	67.9784	33.6914	68.7823	33.6914	68.4906	33.6914	69.0914	33.6914	68.8912	33.6914	69.2622	33.6914	69.1604	33.6914	69.2858
35.1562	65.7931	35.1562	65.7815	35.1562	65.7895	35.1562	65.7611	35.1562	65.7709	35.1562	65.7445	35.1562	65.7443	35.1562	65.7505	35.1562	65.7236	35.1562	65.8027	35.1562	65.7295	35.1562	65.9264	35.1562	65.788	35.1562	66.1437	35.1562	65.9265	35.1562	66.4665	35.1562	66.1675	35.1562	66.8916	35.1562	66.521	35.1562	67.3999	35.1562	66.979	35.1562	67.9595	35.1562	67.5165	35.1562	68.5325	35.1562	68.0967	35.1562	69.0802	35.1562	68.6783	35.1562	69.568	35.1562	69.2219	35.1562	69.9664	35.1562	69.693	35.1562	70.2528	35.1562	70.0641	35.1562	70.4111	35.1562	70.3149	35.1562	70.4324
36.6211	67.1721	36.6211	67.1669	36.6211	67.1659	36.6211	67.1554	36.6211	67.1487	36.6211	67.1483	36.6211	67.1264	36.6211	67.161	36.6211	67.1107	36.6211	67.2131	36.6211	67.1191	36.6211	67.3256	36.6211	67.1731	36.6211	67.5172	36.6211	67.2959	36.6211	67.7992	36.6211	67.5072	36.6211	68.1711	36.6211	67.8168	36.6211	68.6188	36.6211	68.2205	36.6211	69.1166	36.6211	68.6989	36.6211	69.6319	36.6211	69.2209	36.6211	70.1297	36.6211	69.7499	36.6211	70.577	36.6211	70.249	36.6211	70.9448	36.6211	70.6851	36.6211	71.2104	36.6211	71.0308	36.6211	71.3574	36.6211	71.2656	36.6211	71.3764
38.0859	68.2675	38.0859	68.265	38.0859	68.2637	38.0859	68.2605	38.0859	68.2539	38.0859	68.263	38.0859	68.2436	38.0859	68.2861	38.0859	68.2429	38.0859	68.3462	38.0859	68.2667	38.0859	68.4615	38.0859	68.3331	38.0859	68.648	38.0859	68.4615	38.0859	68.9157	38.0859	68.6679	38.0859	69.2646	38.0859	68.9609	38.0859	69.6828	38.0859	69.3367	38.0859	70.1479	38.0859	69.7794	38.0859	70.6303	38.0859	70.2621	38.0859	71.0978	38.0859	70.7526	38.0859	71.5189	38.0859	71.2171	38.0859	71.8662	38.0859	71.6248	38.0859	72.1173	38.0859	71.9492	38.0859	72.2564	38.0859	72.1702	38.0859	72.2745
39.5508	69.2652	39.5508	69.2576	39.5508	69.2693	39.5508	69.2509	39.5508	69.2701	39.5508	69.2532	39.5508	69.2719	39.5508	69.2765	39.5508	69.2833	39.5508	69.3357	39.5508	69.317	39.5508	69.4466	39.5508	69.3885	39.5508	69.6234	39.5508	69.5145	39.5508	69.8749	39.5508	69.7092	39.5508	70.2014	39.5508	69.9804	39.5508	70.5926	39.5508	70.3256	39.5508	71.0282	39.5508	70.7316	39.5508	71.4815	39.5508	71.1752	39.5508	71.9221	39.5508	71.6274	39.5508	72.3204	39.5508	72.0574	39.5508	72.6498	39.5508	72.4362	39.5508	72.8888	39.5508	72.7384	39.5508	73.022	39.5508	72.9444	39.5508	73.041
41.0156	70.6342	41.0156	70.6534	41.0156	70.6205	41.0156	70.6808	41.0156	70.6126	41.0156	70.7222	41.0156	70.6142	41.0156	70.7852	41.0156	70.6321	41.0156	70.8793	41.0156	70.6754	41.0156	71.014	41.0156	70.7551	41.0156	71.1972	41.0156	70.8821	41.0156	71.4333	41.0156	71.0652	41.0156	71.7213	41.0156	71.3086	41.0156	72.0539	41.0156	71.6102	41.0156	72.417	41.0156	71.9605	41.0156	72.7913	41.0156	72.343	41.0156	73.1539	41.0156	72.7363	41.0156	73.4809	41.0156	73.116	41.0156	73.7497	41.0156	73.457	41.0156	73.9406	41.0156	73.7361	41.0156	74.0391	41.0156	73.934	41.0156	74.0372
42.4805	71.5473	42.4805	71.5492	42.4805	71.5465	42.4805	71.5549	42.4805	71.5466	42.4805	71.5701	42.4805	71.5506	42.4805	71.6023	42.4805	71.5643	42.4805	71.6609	42.4805	71.596	42.4805	71.7556	42.4805	71.6561	42.4805	71.8954	42.4805	71.7554	42.4805	72.0869	42.4805	71.9039	42.4805	72.3317	42.4805	72.1081	42.4805	72.6255	42.4805	72.3688	42.4805	72.9568	42.4805	72.6794	42.4805	73.3077	42.4805	73.0257	42.4805	73.6557	42.4805	73.3868	42.4805	73.9764	42.4805	73.7379	42.4805	74.2461	42.4805	74.0533	42.4805	74.4442	42.4805	74.3089	42.4805	74.5551	42.4805	74.4854	42.4805	74.5694
43.9453	72.2968	43.9453	72.3019	43.9453	72.2942	43.9453	72.3117	43.9453	72.2943	43.9453	72.3306	43.9453	72.2997	43.9453	72.3653	43.9453	72.3157	43.9453	72.4237	43.9453	72.3496	43.9453	72.5143	43.9453	72.4103	43.9453	72.6452	43.9453	72.5074	43.9453	72.8224	43.9453	72.6497	43.9453	73.0478	43.9453	72.8428	43.9453	73.318	43.9453	73.0876	43.9453	73.6233	43.9453	73.3782	43.9453	73.9479	43.9453	73.7014	43.9453	74.2716	43.9453	74.0383	43.9453	74.5719	43.9453	74.3659	43.9453	74.8261	43.9453	74.66	43.9453	75.0144	43.9453	74.898	43.9453	75.1213	43.9453	75.0614	43.9453	75.1377
45.4102	72.9462	45.4102	72.9526	45.4102	72.9441	45.4102	72.9652	45.4102	72.9465	45.4102	72.9878	45.4102	72.9558	45.4102	73.0259	45.4102	72.9763	45.4102	73.086	45.4102	73.0143	45.4102	73.1755	45.4102	73.0771	45.4102	73.3011	45.4102	73.1728	45.4102	73.4679	45.4102	73.3088	45.4102	73.6776	45.4102	73.4898	45.4102	73.9274	45.4102	73.7165	45.4102	74.2089	45.4102	73.984	45.4102	74.5083	45.4102	74.2812	45.4102	74.8074	45.4102	74.5912	45.4102	75.0855	45.4102	74.8934	45.4102	75.3215	45.4102	75.1657	45.4102	75.4965	45.4102	75.3868	45.4102	75.5958	45.4102	75.5392	45.4102	75.6107
46.875	73.6028	46.875	73.6096	46.875	73.6016	46.875	73.6233	46.875	73.6062	46.875	73.6472	46.875	73.6188	46.875	73.6857	46.875	73.643	46.875	73.7446	46.875	73.684	46.875	73.8301	46.875	73.748	46.875	73.948	46.875	73.8417	46.875	74.103	46.875	73.9708	46.875	74.2967	46.875	74.1395	46.875	74.5269	46.875	74.3483	46.875	74.7864	46.875	74.5932	46.875	75.0629	46.875	74.8648	46.875	75.3399	46.875	75.1484	46.875	75.5982	46.875	75.4257	46.875	75.8179	46.875	75.6764	46.875	75.9813	46.875	75.8808	46.875	76.0742	46.875	76.022	46.875	76.0883
48.3398	74.1655	48.3398	74.1694	48.3398	74.1688	48.3398	74.182	48.3398	74.1795	48.3398	74.206	48.3398	74.199	48.3398	74.2453	48.3398	74.2303	48.3398	74.3048	48.3398	74.2774	48.3398	74.3895	48.3398	74.3453	48.3398	74.5044	48.3398	74.4393	48.3398	74.653	48.3398	74.5642	48.3398	74.8363	48.3398	74.7233	48.3398	75.0522	48.3398	74.9171	48.3398	75.2941	48.3398	75.1423	48.3398	75.5512	48.3398	75.3909	48.3398	75.8085	48.3398	75.6503	48.3398	76.0488	48.3398	75.9039	48.3398	76.2539	48.3398	76.1335	48.3398	76.4069	48.3398	76.3207	48.3398	76.4947	48.3398	76.4498	48.3398	76.5095
51.2695	75.1169	51.2695	75.1251	51.2695	75.1185	51.2695	75.1439	51.2695	75.13	51.2695	75.1751	51.2695	75.1526	51.2695	75.2211	51.2695	75.1882	51.2695	75.2852	51.2695	75.2397	51.2695	75.3705	51.2695	75.3101	51.2695	75.4802	51.2695	75.403	51.2695	75.6163	51.2695	75.5211	51.2695	75.7794	51.2695	75.6665	51.2695	75.9675	51.2695	75.839	51.2695	76.1758	51.2695	76.0358	51.2695	76.3956	51.2695	76.2507	51.2695	76.6152	51.2695	76.4736	51.2695	76.8203	51.2695	76.6914	51.2695	76.9956	51.2695	76.8887	51.2695	77.1266	51.2695	77.0501	51.2695	77.2017	51.2695	77.1617	51.2695	77.2138
52.7344	75.5508	52.7344	75.5596	52.7344	75.553	52.7344	75.5799	52.7344	75.5661	52.7344	75.6129	52.7344	75.5911	52.7344	75.6604	52.7344	75.6293	52.7344	75.7246	52.7344	75.6826	52.7344	75.8078	52.7344	75.7533	52.7344	75.912	52.7344	75.8437	52.7344	76.0388	52.7344	75.9558	52.7344	76.1883	52.7344	76.0908	52.7344	76.359	52.7344	76.2486	52.7344	76.5468	52.7344	76.4268	52.7344	76.7446	52.7344	76.6202	52.7344	76.9422	52.7344	76.8203	52.7344	77.1271	52.7344	77.0157	52.7344	77.2855	52.7344	77.1929	52.7344	77.4044	52.7344	77.3379	52.7344	77.4729	52.7344	77.4382	52.7344	77.4846
54.1992	75.9439	54.1992	75.9541	54.1992	75.9456	54.1992	75.9763	54.1992	75.9593	54.1992	76.0115	54.1992	75.9854	54.1992	76.0607	54.1992	76.025	54.1992	76.1252	54.1992	76.0792	54.1992	76.2065	54.1992	76.1494	54.1992	76.3061	54.1992	76.2371	54.1992	76.4249	54.1992	76.3435	54.1992	76.5628	54.1992	76.4694	54.1992	76.7186	54.1992	76.6144	54.1992	76.8887	54.1992	76.7767	54.1992	77.0673	54.1992	76.9518	54.1992	77.2454	54.1992	77.1325	54.1992	77.4122	54.1992	77.309	54.1992	77.5553	54.1992	77.4693	54.1992	77.6626	54.1992	77.6008	54.1992	77.7244	54.1992	77.6921	54.1992	77.7346
55.6641	76.3264	55.6641	76.3363	55.6641	76.3285	55.6641	76.3584	55.6641	76.3427	55.6641	76.3934	55.6641	76.3691	55.6641	76.4418	55.6641	76.4085	55.6641	76.5047	55.6641	76.4615	55.6641	76.5829	55.6641	76.529	55.6641	76.6774	55.6641	76.612	55.6641	76.7885	55.6641	76.7114	55.6641	76.9163	55.6641	76.8278	55.6641	77.0594	55.6641	76.9609	55.6641	77.2149	55.6641	77.1089	55.6641	77.3774	55.6641	77.2683	55.6641	77.5395	55.6641	77.4328	55.6641	77.6913	55.6641	77.5937	55.6641	77.8215	55.6641	77.7402	55.6641	77.9193	55.6641	77.8607	55.6641	77.9754	55.6641	77.9447	55.6641	77.9842
58.5938	76.9438	58.5938	76.9554	58.5938	76.9453	58.5938	76.98	58.5938	76.9601	58.5938	77.0174	58.5938	76.9884	58.5938	77.0675	58.5938	77.0301	58.5938	77.13	58.5938	77.0853	58.5938	77.2049	58.5938	77.1539	58.5938	77.292	58.5938	77.2357	58.5938	77.3911	58.5938	77.3302	58.5938	77.5018	58.5938	77.4369	58.5938	77.6231	58.5938	77.5549	58.5938	77.7528	58.5938	77.6822	58.5938	77.8872	58.5938	77.816	58.5938	78.0209	58.5938	77.9516	58.5938	78.1462	58.5938	78.0825	58.5938	78.2543	58.5938	78.2008	58.5938	78.3363	58.5938	78.2974	58.5938	78.3844	58.5938	78.364	58.5938	78.394
60.0586	77.269	60.0586	77.2809	60.0586	77.2701	60.0586	77.3054	60.0586	77.2843	60.0586	77.3423	60.0586	77.3114	60.0586	77.3911	60.0586	77.3512	60.0586	77.451	60.0586	77.4032	60.0586	77.5217	60.0586	77.4669	60.0586	77.6026	60.0586	77.5418	60.0586	77.6933	60.0586	77.6272	60.0586	77.7931	60.0586	77.7225	60.0586	77.9012	60.0586	77.8271	60.0586	78.0158	60.0586	77.9395	60.0586	78.1341	60.0586	78.0577	60.0586	78.2515	60.0586	78.1779	60.0586	78.3614	60.0586	78.2945	60.0586	78.4562	60.0586	78.4005	60.0586	78.5279	60.0586	78.4877	60.0586	78.5695	60.0586	78.5484	60.0586	78.5767
62.9883	77.9809	62.9883	77.987	62.9883	77.9875	62.9883	78.0056	62.9883	78.0066	62.9883	78.0361	62.9883	78.0377	62.9883	78.0778	62.9883	78.08	62.9883	78.1298	62.9883	78.1323	62.9883	78.1909	62.9883	78.1935	62.9883	78.2602	62.9883	78.2622	62.9883	78.3366	62.9883	78.3373	62.9883	78.4193	62.9883	78.4177	62.9883	78.5073	62.9883	78.5024	62.9883	78.5994	62.9883	78.5906	62.9883	78.6937	62.9883	78.6808	62.9883	78.7869	62.9883	78.7707	62.9883	78.8747	62.9883	78.8567	62.9883	78.9511	62.9883	78.934	62.9883	79.0102	62.9883	78.9967	62.9883	79.0465	62.9883	79.0389	62.9883	79.0563
64.4531	78.2234	64.4531	78.2314	64.4531	78.2292	64.4531	78.2528	64.4531	78.2485	64.4531	78.2869	64.4531	78.2807	64.4531	78.3325	64.4531	78.3247	64.4531	78.3882	64.4531	78.3792	64.4531	78.4524	64.4531	78.4426	64.4531	78.5236	64.4531	78.5131	64.4531	78.6002	64.4531	78.589	64.4531	78.681	64.4531	78.669	64.4531	78.7651	64.4531	78.7518	64.4531	78.8511	64.4531	78.8363	64.4531	78.9377	64.4531	78.9212	64.4531	79.0222	64.4531	79.0045	64.4531	79.101	64.4531	79.0831	64.4531	79.1693	64.4531	79.1531	64.4531	79.222	64.4531	79.2096	64.4531	79.2543	64.4531	79.2475	64.4531	79.263
67.3828	78.6538	67.3828	78.6624	67.3828	78.6603	67.3828	78.6855	67.3828	78.6818	67.3828	78.7216	67.3828	78.7172	67.3828	78.769	67.3828	78.7652	67.3828	78.8254	67.3828	78.8234	67.3828	78.8884	67.3828	78.8895	67.3828	78.9557	67.3828	78.961	67.3828	79.0253	67.3828	79.0352	67.3828	79.0955	67.3828	79.1101	67.3828	79.1654	67.3828	79.1837	67.3828	79.234	67.3828	79.2546	67.3828	79.3006	67.3828	79.3216	67.3828	79.3641	67.3828	79.3835	67.3828	79.4227	67.3828	79.4389	67.3828	79.4737	67.3828	79.4858	67.3828	79.5139	67.3828	79.5218	67.3828	79.5402	67.3828	79.5441	67.3828	79.5505
68.8477	78.8622	68.8477	78.8704	68.8477	78.869	68.8477	78.893	68.8477	78.8908	68.8477	78.9284	68.8477	78.9267	68.8477	78.9746	68.8477	78.9747	68.8477	79.0291	68.8477	79.0327	68.8477	79.0891	68.8477	79.0978	68.8477	79.1522	68.8477	79.1672	68.8477	79.2162	68.8477	79.2381	68.8477	79.2794	68.8477	79.308	68.8477	79.3408	68.8477	79.3747	68.8477	79.3996	68.8477	79.4369	68.8477	79.4557	68.8477	79.4935	68.8477	79.5083	68.8477	79.5438	68.8477	79.5565	68.8477	79.5871	68.8477	79.5986	68.8477	79.6224	68.8477	79.6323	68.8477	79.6484	68.8477	79.6552	68.8477	79.6633	68.8477	79.6658
71.7773	79.41	71.7773	79.4133	71.7773	79.4215	71.7773	79.4306	71.7773	79.4473	71.7773	79.4604	71.7773	79.4862	71.7773	79.5005	71.7773	79.5361	71.7773	79.548	71.7773	79.5942	71.7773	79.5999	71.7773	79.6573	71.7773	79.6534	71.7773	79.7219	71.7773	79.7058	71.7773	79.7848	71.7773	79.7552	71.7773	79.843	71.7773	79.8004	71.7773	79.8942	71.7773	79.841	71.7773	79.937	71.7773	79.8774	71.7773	79.9709	71.7773	79.91	71.7773	79.9961	71.7773	79.9394	71.7773	80.0136	71.7773	79.9657	71.7773	80.0242	71.7773	79.9885	71.7773	80.0287	71.7773	80.0068	71.7773	80.0272	71.7773	80.0199
74.707	79.906	74.707	79.911	74.707	79.9161	74.707	79.9303	74.707	79.941	74.707	79.9623	74.707	79.9794	74.707	80.0042	74.707	80.0288	74.707	80.0529	74.707	80.0861	74.707	80.1049	74.707	80.1477	74.707	80.1565	74.707	80.2097	74.707	80.2048	74.707	80.2682	74.707	80.2473	74.707	80.32	74.707	80.2824	74.707	80.3623	74.707	80.3099	74.707	80.3938	74.707	80.3304	74.707	80.4141	74.707	80.3454	74.707	80.4241	74.707	80.3567	74.707	80.4258	74.707	80.3661	74.707	80.4216	74.707	80.3751	74.707	80.4138	74.707	80.3844	74.707	80.4042	74.707	80.3942
77.6367	80.2557	77.6367	80.263	77.6367	80.2633	77.6367	80.2843	77.6367	80.2854	77.6367	80.3176	77.6367	80.3206	77.6367	80.36	77.6367	80.3662	77.6367	80.408	77.6367	80.419	77.6367	80.4575	77.6367	80.4749	77.6367	80.5046	77.6367	80.5298	77.6367	80.5456	77.6367	80.5794	77.6367	80.5779	77.6367	80.6203	77.6367	80.5998	77.6367	80.6498	77.6367	80.611	77.6367	80.6664	77.6367	80.6127	77.6367	80.6703	77.6367	80.6073	77.6367	80.6633	77.6367	80.5979	77.6367	80.6482	77.6367	80.588	77.6367	80.629	77.6367	80.5808	77.6367	80.6096	77.6367	80.5785	77.6367	80.5934	77.6367	80.5827
79.1016	80.4247	79.1016	80.4345	79.1016	80.429	79.1016	80.4574	79.1016	80.4472	79.1016	80.4914	79.1016	80.478	79.1016	80.5333	79.1016	80.5189	79.1016	80.5795	79.1016	80.5666	79.1016	80.6259	79.1016	80.6172	79.1016	80.6684	79.1016	80.6665	79.1016	80.7035	79.1016	80.7102	79.1016	80.7282	79.1016	80.7448	79.1016	80.7412	79.1016	80.7676	79.1016	80.7425	79.1016	80.7772	79.1016	80.7334	79.1016	80.7737	79.1016	80.717	79.1016	80.7591	79.1016	80.697	79.1016	80.7368	79.1016	80.6775	79.1016	80.7112	79.1016	80.6625	79.1016	80.6867	79.1016	80.6549	79.1016	80.6675	79.1016	80.6565
82.0312	80.9256	82.0312	80.943	82.0312	80.9193	82.0312	80.9703	82.0312	80.9241	82.0312	81.0054	82.0312	80.939	82.0312	81.0448	82.0312	80.9615	82.0312	81.0847	82.0312	80.9888	82.0312	81.1209	82.0312	81.0171	82.0312	81.1489	82.0312	81.0425	82.0312	81.1651	82.0312	81.0613	82.0312	81.1665	82.0312	81.0699	82.0312	81.1518	82.0312	81.0662	82.0312	81.1214	82.0312	81.0491	82.0312	81.0775	82.0312	81.0195	82.0312	81.0244	82.0312	80.9802	82.0312	80.9677	82.0312	80.9359	82.0312	80.9139	82.0312	80.8925	82.0312	80.8693	82.0312	80.8564	82.0312	80.8391	82.0312	80.8331	82.0312	80.8268
84.9609	81.0824	84.9609	81.0972	84.9609	81.0788	84.9609	81.1213	84.9609	81.0871	84.9609	81.1519	84.9609	81.1068	84.9609	81.1855	84.9609	81.1363	84.9609	81.2183	84.9609	81.1729	84.9609	81.2463	84.9609	81.2129	84.9609	81.2661	84.9609	81.252	84.9609	81.2748	84.9609	81.2858	84.9609	81.2709	84.9609	81.3099	84.9609	81.254	84.9609	81.3209	84.9609	81.2256	84.9609	81.3165	84.9609	81.1886	84.9609	81.2966	84.9609	81.1474	84.9609	81.2628	84.9609	81.1073	84.9609	81.2187	84.9609	81.074	84.9609	81.1699	84.9609	81.0523	84.9609	81.1227	84.9609	81.046	84.9609	81.0832	84.9609	81.0565
87.8906	81.0108	87.8906	80.9941	87.8906	81.0491	87.8906	80.9983	87.8906	81.1077	87.8906	81.0217	87.8906	81.184	87.8906	81.0612	87.8906	81.2739	87.8906	81.1129	87.8906	81.3722	87.8906	81.1722	87.8906	81.4728	87.8906	81.2341	87.8906	81.569	87.8906	81.2938	87.8906	81.6546	87.8906	81.3473	87.8906	81.7239	87.8906	81.3913	87.8906	81.7725	87.8906	81.4245	87.8906	81.7979	87.8906	81.4468	87.8906	81.7995	87.8906	81.4604	87.8906	81.7794	87.8906	81.4689	87.8906	81.7418	87.8906	81.4772	87.8906	81.6927	87.8906	81.4902	87.8906	81.6393	87.8906	81.5119	87.8906	81.5882	87.8906	81.5447
90.8203	81.5377	90.8203	81.5415	90.8203	81.5481	90.8203	81.5587	90.8203	81.572	90.8203	81.5875	90.8203	81.6074	90.8203	81.6249	90.8203	81.6516	90.8203	81.6666	90.8203	81.7004	90.8203	81.7081	90.8203	81.7495	90.8203	81.7443	90.8203	81.7938	90.8203	81.7704	90.8203	81.8285	90.8203	81.7823	90.8203	81.8493	90.8203	81.7775	90.8203	81.8529	90.8203	81.7553	90.8203	81.8377	90.8203	81.7176	90.8203	81.8042	90.8203	81.6685	90.8203	81.755	90.8203	81.6148	90.8203	81.6956	90.8203	81.5645	90.8203	81.6331	90.8203	81.5257	90.8203	81.5757	90.8203	81.5052	90.8203	81.5316	90.8203	81.507
95.2148	81.8487	95.2148	81.8481	95.2148	81.8609	95.2148	81.8585	95.2148	81.8837	95.2148	81.8782	95.2148	81.9152	95.2148	81.9043	95.2148	81.9524	95.2148	81.9325	95.2148	81.9914	95.2148	81.9582	95.2148	82.0279	95.2148	81.9762	95.2148	82.0571	95.2148	81.9816	95.2148	82.0744	95.2148	81.9706	95.2148	82.0756	95.2148	81.9411	95.2148	82.0575	95.2148	81.8931	95.2148	82.0188	95.2148	81.8296	95.2148	81.9601	95.2148	81.7562	95.2148	81.8849	95.2148	81.6809	95.2148	81.7995	95.2148	81.6132	95.2148	81.7126	95.2148	81.5624	95.2148	81.6342	95.2148	81.5366	95.2148	81.5742	95.2148	81.5403
98.1445	81.8422	98.1445	81.8517	98.1445	81.8468	98.1445	81.8744	98.1445	81.8647	98.1445	81.9082	98.1445	81.8941	98.1445	81.9495	98.1445	81.9318	98.1445	81.9936	98.1445	81.9737	98.1445	82.0348	98.1445	82.015	98.1445	82.0673	98.1445	82.0504	98.1445	82.0856	98.1445	82.0746	98.1445	82.0853	98.1445	82.0829	98.1445	82.0634	98.1445	82.0715	98.1445	82.0195	98.1445	82.0385	98.1445	81.9559	98.1445	81.9845	98.1445	81.878	98.1445	81.913	98.1445	81.7938	98.1445	81.8308	98.1445	81.7136	98.1445	81.7475	98.1445	81.6483	98.1445	81.6742	98.1445	81.6077	98.1445	81.6217	98.1445	81.5983
101.074	82.1543	101.074	82.1705	101.074	82.1462	101.074	82.1939	101.074	82.1457	101.074	82.2224	101.074	82.1514	101.074	82.2525	101.074	82.1607	101.074	82.2797	101.074	82.1707	101.074	82.2987	101.074	82.1772	101.074	82.3041	101.074	82.1762	101.074	82.2907	101.074	82.1632	101.074	82.2546	101.074	82.1341	101.074	82.1936	101.074	82.0858	101.074	82.1081	101.074	82.0168	101.074	82.0012	101.074	81.9286	101.074	81.8795	101.074	81.8255	101.074	81.753	101.074	81.7158	101.074	81.634	101.074	81.6105	101.074	81.5358	101.074	81.5226	101.074	81.4704	101.074	81.4646	101.074	81.4459
105.469	82.0884	105.469	82.0982	105.469	82.0942	105.469	82.1219	105.469	82.1154	105.469	82.1566	105.469	82.1504	105.469	82.1982	105.469	82.1957	105.469	82.2413	105.469	82.2466	105.469	82.2802	105.469	82.2972	105.469	82.3084	105.469	82.3409	105.469	82.32	105.469	82.3709	105.469	82.31	105.469	82.3811	105.469	82.2752	105.469	82.3668	105.469	82.2152	105.469	82.3251	105.469	82.1329	105.469	82.2565	105.469	82.035	105.469	82.1646	105.469	81.9318	105.469	82.0572	105.469	81.8364	105.469	81.9457	105.469	81.7627	105.469	81.8438	105.469	81.7226	105.469	81.7659	105.469	81.7235
108.398	82.3373	108.398	82.3527	108.398	82.3326	108.398	82.3769	108.398	82.3397	108.398	82.4066	108.398	82.3579	108.398	82.4382	108.398	82.3853	108.398	82.4669	108.398	82.4183	108.398	82.4877	108.398	82.4515	108.398	82.4952	108.398	82.4785	108.398	82.4842	108.398	82.4926	108.398	82.4505	108.398	82.4868	108.398	82.3915	108.398	82.456	108.398	82.3072	108.398	82.3971	108.398	82.2009	108.398	82.3102	108.398	82.0799	108.398	82.1996	108.398	81.9554	108.398	82.074	108.398	81.8414	108.398	81.9462	108.398	81.753	108.398	81.8314	108.398	81.7033	108.398	81.7453	108.398	81.7004
112.793	82.473	112.793	82.4929	112.793	82.4604	112.793	82.5183	112.793	82.456	112.793	82.5465	112.793	82.4592	112.793	82.5742	112.793	82.4684	112.793	82.5971	112.793	82.4805	112.793	82.6107	112.793	82.4912	112.793	82.61	112.793	82.4952	112.793	82.5906	112.793	82.4868	112.793	82.5484	112.793	82.4604	112.793	82.4813	112.793	82.4121	112.793	82.3892	112.793	82.3398	112.793	82.2751	112.793	82.2446	112.793	82.1458	112.793	82.1314	112.793	82.0117	112.793	82.0093	112.793	81.8861	112.793	81.8906	112.793	81.7835	112.793	81.7899	112.793	81.7169	112.793	81.7212	112.793	81.6953
117.188	82.4744	117.188	82.4564	117.188	82.4997	117.188	82.4465	117.188	82.5307	117.188	82.4442	117.188	82.5649	117.188	82.4474	117.188	82.5994	117.188	82.4527	117.188	82.631	117.188	82.4553	117.188	82.6555	117.188	82.4495	117.188	82.6689	117.188	82.4298	117.188	82.6665	117.188	82.3917	117.188	82.644	117.188	82.3326	117.188	82.5979	117.188	82.2528	117.188	82.5264	117.188	82.156	117.188	82.4303	117.188	82.0495	117.188	82.3133	117.188	81.9438	117.188	82.1831	117.188	81.8518	117.188	82.0508	117.188	81.7865	117.188	81.9297	117.188	81.7587	117.188	81.8337	117.188	81.7745
120.117	82.3545	120.117	82.3422	120.117	82.3754	120.117	82.3386	120.117	82.404	120.117	82.3424	120.117	82.438	120.117	82.351	120.117	82.4745	120.117	82.3606	120.117	82.5098	120.117	82.3662	120.117	82.5396	120.117	82.3625	120.117	82.559	120.117	82.3439	120.117	82.5632	120.117	82.3061	120.117	82.5474	120.117	82.2469	120.117	82.5078	120.117	82.1669	120.117	82.4421	120.117	82.0701	120.117	82.3506	120.117	81.9641	120.117	82.2371	120.117	81.8597	120.117	82.1092	120.117	81.7696	120.117	81.9779	120.117	81.7066	120.117	81.8569	120.117	81.6813	120.117	81.7602	120.117	81.6993
124.512	82.3663	124.512	82.3697	124.512	82.37	124.512	82.3789	124.512	82.3815	124.512	82.392	124.512	82.4005	124.512	82.4062	124.512	82.426	124.512	82.418	124.512	82.4558	124.512	82.4234	124.512	82.4861	124.512	82.4178	124.512	82.5121	124.512	82.3969	124.512	82.528	124.512	82.3575	124.512	82.5276	124.512	82.2977	124.512	82.5055	124.512	82.2187	124.512	82.4579	124.512	82.1243	124.512	82.3838	124.512	82.022	124.512	82.2856	124.512	81.9222	124.512	82.1703	124.512	81.8371	124.512	82.0485	124.512	81.7791	124.512	81.9335	124.512	81.7579	124.512	81.8395	124.512	81.7785
128.906	82.6107	128.906	82.5958	128.906	82.6249	128.906	82.5808	128.906	82.638	128.906	82.566	128.906	82.6498	128.906	82.5512	128.906	82.6596	128.906	82.5351	128.906	82.6662	128.906	82.5152	128.906	82.6672	128.906	82.4872	128.906	82.6585	128.906	82.4462	128.906	82.6352	128.906	82.3868	128.906	82.5915	128.906	82.3051	128.906	82.5221	128.906	82.1995	128.906	82.4239	128.906	82.0725	128.906	82.2969	128.906	81.9312	128.906	82.1461	128.906	81.7876	128.906	81.9816	128.906	81.6575	128.906	81.818	128.906	81.5579	128.906	81.6731	128.906	81.5041	128.906	81.5644	128.906	81.5057
133.301	82.6085	133.301	82.622	133.301	82.5953	133.301	82.634	133.301	82.5834	133.301	82.6421	133.301	82.5728	133.301	82.6429	133.301	82.5625	133.301	82.6325	133.301	82.5502	133.301	82.6064	133.301	82.5327	133.301	82.5603	133.301	82.5056	133.301	82.4901	133.301	82.4637	133.301	82.393	133.301	82.4021	133.301	82.2683	133.301	82.3166	133.301	82.1185	133.301	82.2051	133.301	81.9497	133.301	82.0686	133.301	81.7723	133.301	81.9123	133.301	81.6005	133.301	81.7457	133.301	81.4506	133.301	81.5826	133.301	81.3389	133.301	81.4395	133.301	81.2785	133.301	81.3329	133.301	81.2767
139.16	82.2703	139.16	82.2801	139.16	82.2643	139.16	82.2925	139.16	82.2625	139.16	82.3064	139.16	82.2652	139.16	82.3198	139.16	82.272	139.16	82.3295	139.16	82.2814	139.16	82.3317	139.16	82.2902	139.16	82.3214	139.16	82.2938	139.16	82.2932	139.16	82.2863	139.16	82.2423	139.16	82.2613	139.16	82.1657	139.16	82.2131	139.16	82.063	139.16	82.1382	139.16	81.9377	139.16	82.0364	139.16	81.798	139.16	81.9118	139.16	81.6563	139.16	81.7736	139.16	81.5283	139.16	81.6348	139.16	81.4301	139.16	81.5114	139.16	81.3752	139.16	81.4193	139.16	81.3715
143.555	82.2854	143.555	82.2798	143.555	82.2893	143.555	82.273	143.555	82.2913	143.555	82.2654	143.555	82.2913	143.555	82.2569	143.555	82.2892	143.555	82.2462	143.555	82.2846	143.555	82.2308	143.555	82.2762	143.555	82.2065	143.555	82.2611	143.555	82.1682	143.555	82.235	143.555	82.1107	143.555	82.1928	143.555	82.0298	143.555	82.1293	143.555	81.924	143.555	82.0409	143.555	81.7955	143.555	81.927	143.555	81.6521	143.555	81.7915	143.555	81.5063	143.555	81.6431	143.555	81.3743	143.555	81.4953	143.555	81.2731	143.555	81.3642	143.555	81.2172	143.555	81.2662	143.555	81.2147
147.949	82.3133	147.949	82.3072	147.949	82.3146	147.949	82.2962	147.949	82.3115	147.949	82.2803	147.949	82.3041	147.949	82.259	147.949	82.2928	147.949	82.2316	147.949	82.2773	147.949	82.1964	147.949	82.2562	147.949	82.1507	147.949	82.2272	147.949	82.0909	147.949	82.1866	147.949	82.0133	147.949	82.13	147.949	81.9148	147.949	82.053	147.949	81.7949	147.949	81.9527	147.949	81.6568	147.949	81.8292	147.949	81.5082	147.949	81.6864	147.949	81.3615	147.949	81.5329	147.949	81.2322	147.949	81.3814	147.949	81.1361	147.949	81.247	147.949	81.0861	147.949	81.1454	147.949	81.0893
153.809	82.2327	153.809	82.2154	153.809	82.2466	153.809	82.1965	153.809	82.2547	153.809	82.1766	153.809	82.2544	153.809	82.155	153.809	82.2431	153.809	82.1297	153.809	82.2184	153.809	82.0968	153.809	82.178	153.809	82.0518	153.809	82.1202	153.809	81.99	153.809	82.0433	153.809	81.9075	153.809	81.9465	153.809	81.802	153.809	81.8298	153.809	81.6744	153.809	81.6948	153.809	81.5286	153.809	81.5454	153.809	81.3729	153.809	81.3884	153.809	81.2187	153.809	81.2336	153.809	81.0795	153.809	81.0929	153.809	80.969	153.809	80.9794	153.809	80.8988	153.809	80.9045	153.809	80.8766
159.668	82.1146	159.668	82.1095	159.668	82.1148	159.668	82.1	159.668	82.1095	159.668	82.0864	159.668	82.0984	159.668	82.0683	159.668	82.0808	159.668	82.0437	159.668	82.0559	159.668	82.0097	159.668	82.0218	159.668	81.9621	159.668	81.9758	159.668	81.8965	159.668	81.9144	159.668	81.8096	159.668	81.834	159.668	81.6998	159.668	81.7319	159.668	81.5686	159.668	81.608	159.668	81.421	159.668	81.4653	159.668	81.2656	159.668	81.311	159.668	81.114	159.668	81.156	159.668	80.9792	159.668	81.0139	159.668	80.8738	159.668	80.8984	159.668	80.8086	159.668	80.8213	159.668	80.7904
165.527	82.111	165.527	82.1003	165.527	82.114	165.527	82.0817	165.527	82.1098	165.527	82.0554	165.527	82.099	165.527	82.0213	165.527	82.0823	165.527	81.9789	165.527	82.0597	165.527	81.9266	165.527	82.03	165.527	81.8622	165.527	81.9908	165.527	81.7829	165.527	81.9381	165.527	81.6861	165.527	81.8675	165.527	81.5708	165.527	81.7748	165.527	81.4383	165.527	81.6578	165.527	81.2934	165.527	81.5178	165.527	81.1444	165.527	81.3606	165.527	81.0026	165.527	81.1967	165.527	80.8812	165.527	81.0397	165.527	80.7928	165.527	80.9049	165.527	80.7476	165.527	80.8055	165.527	80.7515
171.387	81.8653	171.387	81.8388	171.387	81.8843	171.387	81.8058	171.387	81.8955	171.387	81.7669	171.387	81.8989	171.387	81.7229	171.387	81.8945	171.387	81.6735	171.387	81.882	171.387	81.6178	171.387	81.8606	171.387	81.5538	171.387	81.8284	171.387	81.4789	171.387	81.7823	171.387	81.3909	171.387	81.7184	171.387	81.2889	171.387	81.6331	171.387	81.1744	171.387	81.5244	171.387	81.0517	171.387	81.3933	171.387	80.928	171.387	81.2449	171.387	80.8131	171.387	81.0888	171.387	80.7181	171.387	80.9379	171.387	80.6533	171.387	80.8058	171.387	80.627	171.387	80.705	171.387	80.644
177.246	81.7656	177.246	81.7386	177.246	81.782	177.246	81.7022	177.246	81.7872	177.246	81.6581	177.246	81.7813	177.246	81.6078	177.246	81.7651	177.246	81.5523	177.246	81.7395	177.246	81.4913	177.246	81.7048	177.246	81.4232	177.246	81.6606	177.246	81.346	177.246	81.605	177.246	81.2576	177.246	81.5356	177.246	81.1573	177.246	81.4497	177.246	81.0466	177.246	81.3458	177.246	80.9299	177.246	81.2248	177.246	80.8144	177.246	81.0913	177.246	80.7095	177.246	80.9534	177.246	80.6248	177.246	80.8216	177.246	80.569	177.246	80.7069	177.246	80.548	177.246	80.619	177.246	80.5648
183.105	81.7487	183.105	81.7349	183.105	81.7444	183.105	81.7033	183.105	81.7227	183.105	81.655	183.105	81.6857	183.105	81.5915	183.105	81.6358	183.105	81.5144	183.105	81.5762	183.105	81.4249	183.105	81.5095	183.105	81.3242	183.105	81.4372	183.105	81.2132	183.105	81.3595	183.105	81.0934	183.105	81.275	183.105	80.9674	183.105	81.182	183.105	80.839	183.105	81.0793	183.105	80.7138	183.105	80.9679	183.105	80.5989	183.105	80.8516	183.105	80.5024	183.105	80.736	183.105	80.4317	183.105	80.628	183.105	80.3917	183.105	80.5338	183.105	80.3842	183.105	80.4589	183.105	80.4077
188.965	81.7706	188.965	81.7672	188.965	81.7531	188.965	81.7437	188.965	81.7144	188.965	81.7011	188.965	81.6549	188.965	81.6404	188.965	81.5756	188.965	81.5624	188.965	81.4783	188.965	81.4677	188.965	81.3654	188.965	81.357	188.965	81.2398	188.965	81.2312	188.965	81.1042	188.965	81.0919	188.965	80.9616	188.965	80.9419	188.965	80.815	188.965	80.7854	188.965	80.668	188.965	80.6282	188.965	80.5254	188.965	80.4774	188.965	80.3931	188.965	80.3413	188.965	80.2776	188.965	80.2277	188.965	80.1844	188.965	80.1428	188.965	80.1172	188.965	80.0897	188.965	80.0782	188.965	80.0686
196.289	81.751	196.289	81.7143	196.289	81.7649	196.289	81.6575	196.289	81.7543	196.289	81.5834	196.289	81.7185	196.289	81.4941	196.289	81.6584	196.289	81.3905	196.289	81.5758	196.289	81.2724	196.289	81.4729	196.289	81.1393	196.289	81.3518	196.289	80.9924	196.289	81.2147	196.289	80.8351	196.289	81.0635	196.289	80.6742	196.289	80.9017	196.289	80.5187	196.289	80.7345	196.289	80.3781	196.289	80.57	196.289	80.2601	196.289	80.418	196.289	80.1692	196.289	80.2882	196.289	80.1059	196.289	80.1872	196.289	80.0676	196.289	80.1165	196.289	80.0506	196.289	80.0731	196.289	80.0523
203.613	81.6529	203.613	81.6106	203.613	81.668	203.613	81.543	203.613	81.6553	203.613	81.4535	203.613	81.6153	203.613	81.3462	203.613	81.5493	203.613	81.2255	203.613	81.4592	203.613	81.0953	203.613	81.3469	203.613	80.9581	203.613	81.2141	203.613	80.815	203.613	81.0625	203.613	80.667	203.613	80.8944	203.613	80.5159	203.613	80.7134	203.613	80.3654	203.613	80.5262	203.613	80.2217	203.613	80.3423	203.613	80.092	203.613	80.1739	203.613	79.9828	203.613	80.032	203.613	79.8985	203.613	79.9239	203.613	79.8402	203.613	79.8511	203.613	79.8068	203.613	79.8104	203.613	79.7967
210.938	81.5351	210.938	81.4768	210.938	81.5665	210.938	81.39	210.938	81.5721	210.938	81.2741	210.938	81.5528	210.938	81.129	210.938	81.5095	210.938	80.9571	210.938	81.4426	210.938	80.7628	210.938	81.352	210.938	80.5538	210.938	81.2378	210.938	80.3404	210.938	81.0996	210.938	80.1342	210.938	80.9377	210.938	79.9464	210.938	80.7541	210.938	79.7862	210.938	80.5544	210.938	79.659	210.938	80.3484	210.938	79.567	210.938	80.1496	210.938	79.5094	210.938	79.9715	210.938	79.4835	210.938	79.8235	210.938	79.4854	210.938	79.7076	210.938	79.5106	210.938	79.6203	210.938	79.5558
218.262	81.3976	218.262	81.3796	218.262	81.3926	218.262	81.3376	218.262	81.3657	218.262	81.2698	218.262	81.3181	218.262	81.1741	218.262	81.2509	218.262	81.0481	218.262	81.1655	218.262	80.8902	218.262	81.0625	218.262	80.7018	218.262	80.9425	218.262	80.4889	218.262	80.8058	218.262	80.2638	218.262	80.6532	218.262	80.0451	218.262	80.4874	218.262	79.8539	218.262	80.3148	218.262	79.7088	218.262	80.1461	218.262	79.6193	218.262	79.9949	218.262	79.583	218.262	79.8741	218.262	79.587	218.262	79.7896	218.262	79.6139	218.262	79.7372	218.262	79.6474	218.262	79.7047	218.262	79.6778
225.586	81.4918	225.586	81.506	225.586	81.4479	225.586	81.4899	225.586	81.3756	225.586	81.4419	225.586	81.2775	225.586	81.3596	225.586	81.1576	225.586	81.2389	225.586	81.0208	225.586	81.0753	225.586	80.8721	225.586	80.8668	225.586	80.7153	225.586	80.6164	225.586	80.5524	225.586	80.3362	225.586	80.3839	225.586	80.0489	225.586	80.2108	225.586	79.7857	225.586	80.0375	225.586	79.5784	225.586	79.8735	225.586	79.4485	225.586	79.7331	225.586	79.3976	225.586	79.6303	225.586	79.4077	225.586	79.5706	225.586	79.4497	225.586	79.5464	225.586	79.4949	225.586	79.5383	225.586	79.5253
232.91	81.3617	232.91	81.3491	232.91	81.3471	232.91	81.3137	232.91	81.3011	232.91	81.2592	232.91	81.2214	232.91	81.1869	232.91	81.1081	232.91	81.0942	232.91	80.9645	232.91	80.9747	232.91	80.7967	232.91	80.8199	232.91	80.612	232.91	80.6223	232.91	80.4181	232.91	80.3809	232.91	80.22	232.91	80.1058	232.91	80.021	232.91	79.8211	232.91	79.8237	232.91	79.5615	232.91	79.6338	232.91	79.3615	232.91	79.4628	232.91	79.2394	232.91	79.3259	232.91	79.1881	232.91	79.2357	232.91	79.1808	232.91	79.1929	232.91	79.1868	232.91	79.1841	232.91	79.1876
241.699	81.151	241.699	81.0937	241.699	81.1742	241.699	81.0061	241.699	81.1608	241.699	80.894	241.699	81.11	241.699	80.7637	241.699	81.0223	241.699	80.6206	241.699	80.8996	241.699	80.4671	241.699	80.7446	241.699	80.3019	241.699	80.5623	241.699	80.1206	241.699	80.3591	241.699	79.9191	241.699	80.144	241.699	79.6993	241.699	79.9265	241.699	79.4736	241.699	79.7165	241.699	79.2653	241.699	79.5229	241.699	79.1013	241.699	79.3545	241.699	78.9996	241.699	79.2194	241.699	78.9593	241.699	79.1226	241.699	78.9616	241.699	79.0621	241.699	78.9821	241.699	79.0277	241.699	79.0046
250.488	81.2178	250.488	81.1731	250.488	81.2139	250.488	81.0849	250.488	81.1588	250.488	80.9606	250.488	81.054	250.488	80.8081	250.488	80.9049	250.488	80.6343	250.488	80.7205	250.488	80.4442	250.488	80.512	250.488	80.2393	250.488	80.2905	250.488	80.0181	250.488	80.0652	250.488	79.7771	250.488	79.8435	250.488	79.5146	250.488	79.6322	250.488	79.2375	250.488	79.4385	250.488	78.9661	250.488	79.2689	250.488	78.7334	250.488	79.1272	250.488	78.5743	250.488	79.0125	250.488	78.5068	250.488	78.9191	250.488	78.5214	250.488	78.8377	250.488	78.5877	250.488	78.7579	250.488	78.6732
259.277	81.1813	259.277	81.1094	259.277	81.2038	259.277	80.9907	259.277	81.175	259.277	80.8296	259.277	81.094	259.277	80.6331	259.277	80.9607	259.277	80.4125	259.277	80.7764	259.277	80.1837	259.277	80.5447	259.277	79.9655	259.277	80.2732	259.277	79.7746	259.277	79.9759	259.277	79.6194	259.277	79.6751	259.277	79.4957	259.277	79.4002	259.277	79.3904	259.277	79.1821	259.277	79.2909	259.277	79.042	259.277	79.1933	259.277	78.9808	259.277	79.1062	259.277	78.9782	259.277	79.0434	259.277	79.0031	259.277	79.0138	259.277	79.0273	259.277	79.0133	259.277	79.0352	259.277	79.0265
268.066	81.1736	268.066	81.0386	268.066	81.2471	268.066	80.8478	268.066	81.2544	268.066	80.6067	268.066	81.1928	268.066	80.3208	268.066	81.0621	268.066	79.9981	268.066	80.8647	268.066	79.6538	268.066	80.6044	268.066	79.3167	268.066	80.2852	268.066	79.0286	268.066	79.9114	268.066	78.8327	268.066	79.4914	268.066	78.7513	268.066	79.0467	268.066	78.7705	268.066	78.6209	268.066	78.8461	268.066	78.2784	268.066	78.9279	268.066	78.0812	268.066	78.9799	268.066	78.0529	268.066	78.9863	268.066	78.163	268.066	78.9445	268.066	78.3483	268.066	78.8562	268.066	78.5478	268.066	78.7226
276.855	81.0486	276.855	81.0108	276.855	81.0564	276.855	80.9369	276.855	81.0356	276.855	80.8181	276.855	80.9836	276.855	80.6432	276.855	80.8961	276.855	80.3999	276.855	80.7707	276.855	80.0766	276.855	80.609	276.855	79.6673	276.855	80.416	276.855	79.1815	276.855	80.1955	276.855	78.6554	276.855	79.947	276.855	78.1585	276.855	79.6681	276.855	77.7805	276.855	79.3638	276.855	77.5916	276.855	79.0569	276.855	77.5989	276.855	78.7869	276.855	77.7456	276.855	78.593	276.855	77.9505	276.855	78.4885	276.855	78.1477	276.855	78.4504	276.855	78.2991	276.855	78.4328	276.855	78.3916
287.109	80.9949	287.109	80.977	287.109	80.9963	287.109	80.9386	287.109	80.9767	287.109	80.8692	287.109	80.9235	287.109	80.7537	287.109	80.8185	287.109	80.5759	287.109	80.6453	287.109	80.3211	287.109	80.3975	287.109	79.9808	287.109	80.0858	287.109	79.5589	287.109	79.7359	287.109	79.0822	287.109	79.3797	287.109	78.6083	287.109	79.0446	287.109	78.2209	287.109	78.751	287.109	77.9956	287.109	78.5184	287.109	77.954	287.109	78.3681	287.109	78.0509	287.109	78.3126	287.109	78.2088	287.109	78.3393	287.109	78.3598	287.109	78.41	287.109	78.463	287.109	78.4768	287.109	78.5013
297.363	81.0636	297.363	81.0503	297.363	81.0365	297.363	80.9948	297.363	80.9759	297.363	80.8981	297.363	80.8899	297.363	80.7597	297.363	80.7794	297.363	80.5741	297.363	80.6303	297.363	80.3335	297.363	80.414	297.363	80.0321	297.363	80.0997	297.363	79.6723	297.363	79.6721	297.363	79.2679	297.363	79.1473	297.363	78.8494	297.363	78.5802	297.363	78.467	297.363	78.0564	297.363	78.1837	297.363	77.6657	297.363	78.0496	297.363	77.4684	297.363	78.0649	297.363	77.4716	297.363	78.1717	297.363	77.63	297.363	78.2839	297.363	77.8668	297.363	78.3283	297.363	78.1008	297.363	78.2669
307.617	81.1381	307.617	81.1233	307.617	81.0793	307.617	81.0284	307.617	80.9621	307.617	80.8564	307.617	80.8076	307.617	80.6173	307.617	80.6374	307.617	80.3231	307.617	80.4672	307.617	79.9838	307.617	80.2997	307.617	79.6056	307.617	80.1211	307.617	79.1943	307.617	79.9057	307.617	78.7623	307.617	79.6279	307.617	78.3359	307.617	79.2775	307.617	77.9596	307.617	78.872	307.617	77.6904	307.617	78.4631	307.617	77.5763	307.617	78.1275	307.617	77.6262	307.617	77.9369	307.617	77.7943	307.617	77.913	307.617	77.9966	307.617	78.0083	307.617	78.1477	307.617	78.1312	307.617	78.1939
319.336	80.9955	319.336	80.8798	319.336	81.0416	319.336	80.7108	319.336	81.0031	319.336	80.5026	319.336	80.8701	319.336	80.2616	319.336	80.6408	319.336	79.984	319.336	80.3241	319.336	79.6581	319.336	79.9409	319.336	79.2745	319.336	79.5213	319.336	78.8402	319.336	79.1013	319.336	78.389	319.336	78.7189	319.336	77.98	319.336	78.4079	319.336	77.6777	319.336	78.1902	319.336	77.5227	319.336	78.0686	319.336	77.5133	319.336	78.0287	319.336	77.6138	319.336	78.048	319.336	77.7752	319.336	78.1022	319.336	77.9492	319.336	78.1636	319.336	78.0943	319.336	78.1997	319.336	78.181
329.59	80.6718	329.59	80.5381	329.59	80.7904	329.59	80.4011	329.59	80.8707	329.59	80.2596	329.59	80.8844	329.59	80.1017	329.59	80.8054	329.59	79.9088	329.59	80.6173	329.59	79.658	329.59	80.3169	329.59	79.3262	329.59	79.9144	329.59	78.8991	329.59	79.4298	329.59	78.3873	329.59	78.8915	329.59	77.8449	329.59	78.341	329.59	77.3729	329.59	77.8421	329.59	77.0866	329.59	77.4771	329.59	77.0456	329.59	77.3112	329.59	77.2094	329.59	77.3447	329.59	77.4702	329.59	77.5084	329.59	77.7193	329.59	77.7085	329.59	77.8846	329.59	77.867	329.59	77.9339
341.309	80.7893	341.309	80.7502	341.309	80.7661	341.309	80.6493	341.309	80.6796	341.309	80.486	341.309	80.5285	341.309	80.2584	341.309	80.3122	341.309	79.9632	341.309	80.0302	341.309	79.5991	341.309	79.683	341.309	79.1702	341.309	79.275	341.309	78.6903	341.309	78.8206	341.309	78.188	341.309	78.3524	341.309	77.7123	341.309	77.9239	341.309	77.3316	341.309	77.6012	341.309	77.1149	341.309	77.4397	341.309	77.0946	341.309	77.4537	341.309	77.2422	341.309	77.6019	341.309	77.4839	341.309	77.8047	341.309	77.7388	341.309	77.9812	341.309	77.9447	341.309	78.0756	341.309	78.0633
353.027	81.0545	353.027	80.9946	353.027	81.0405	353.027	80.8548	353.027	80.965	353.027	80.638	353.027	80.839	353.027	80.3526	353.027	80.6644	353.027	80.0054	353.027	80.4296	353.027	79.5977	353.027	80.1115	353.027	79.1289	353.027	79.681	353.027	78.6061	353.027	79.1127	353.027	78.0574	353.027	78.3998	353.027	77.5415	353.027	77.5777	353.027	77.1425	353.027	76.756	353.027	76.9396	353.027	76.1323	353.027	76.9601	353.027	75.9111	353.027	77.1539	353.027	76.1289	353.027	77.4196	353.027	76.609	353.027	77.6534	353.027	77.123	353.027	77.777	353.027	77.521	353.027	77.7411
366.211	80.9602	366.211	80.8062	366.211	81.0442	366.211	80.5798	366.211	81.0596	366.211	80.2803	366.211	81.0048	366.211	79.9086	366.211	80.8759	366.211	79.4653	366.211	80.6685	366.211	78.9486	366.211	80.38	366.211	78.3558	366.211	80.0075	366.211	77.6941	366.211	79.5452	366.211	77.0012	366.211	78.9833	366.211	76.37	366.211	78.3177	366.211	75.9492	366.211	77.5759	366.211	75.8712	366.211	76.8531	366.211	76.1357	366.211	76.3229	366.211	76.5951	366.211	76.1557	366.211	77.0654	366.211	76.3663	366.211	77.4128	366.211	76.7885	366.211	77.565	366.211	77.2128	366.211	77.4942
379.395	81.1014	379.395	81.0374	379.395	81.112	379.395	80.9261	379.395	81.063	379.395	80.767	379.395	80.9533	379.395	80.5486	379.395	80.7875	379.395	80.2486	379.395	80.5682	379.395	79.8372	379.395	80.2875	379.395	79.2857	379.395	79.9256	379.395	78.582	379.395	79.4629	379.395	77.7557	379.395	78.8982	379.395	76.9092	379.395	78.2635	379.395	76.2297	379.395	77.628	379.395	75.9196	379.395	77.0956	379.395	76.045	379.395	76.7847	379.395	76.4777	379.395	76.774	379.395	77.0125	379.395	77.0302	379.395	77.4831	379.395	77.406	379.395	77.7869	379.395	77.7271	379.395	77.8708
392.578	80.6231	392.578	80.5252	392.578	80.6953	392.578	80.4045	392.578	80.7272	392.578	80.2548	392.578	80.6919	392.578	80.0601	392.578	80.5564	392.578	79.7944	392.578	80.2958	392.578	79.4269	392.578	79.9045	392.578	78.9313	392.578	79.3977	392.578	78.2981	392.578	78.804	392.578	77.5491	392.578	78.1596	392.578	76.756	392.578	77.5126	392.578	76.0534	392.578	76.9306	392.578	75.6144	392.578	76.4902	392.578	75.5579	392.578	76.2515	392.578	75.853	392.578	76.2418	392.578	76.3366	392.578	76.4431	392.578	76.8158	392.578	76.7698	392.578	77.1402	392.578	77.0786	392.578	77.2286
405.762	80.9014	405.762	80.7484	405.762	80.9945	405.762	80.5646	405.762	81.01	405.762	80.3706	405.762	80.9454	405.762	80.1553	405.762	80.8002	405.762	79.8739	405.762	80.5623	405.762	79.4673	405.762	80.2029	405.762	78.8877	405.762	79.6842	405.762	78.1168	405.762	78.9722	405.762	77.1885	405.762	78.0587	405.762	76.2344	405.762	77.0132	405.762	75.5249	405.762	76.0744	405.762	75.3445	405.762	75.6354	405.762	75.6802	405.762	75.8621	405.762	76.2236	405.762	76.435	405.762	76.7026	405.762	76.9505	405.762	77.0215	405.762	77.2394	405.762	77.2019	405.762	77.3261	405.762	77.2971
420.41	81.2264	420.41	81.2391	420.41	81.1334	420.41	81.1371	420.41	81.0023	420.41	80.9162	420.41	80.8575	420.41	80.5993	420.41	80.6941	420.41	80.2066	420.41	80.4844	420.41	79.7203	420.41	80.1906	420.41	79.0787	420.41	79.7716	420.41	78.2068	420.41	79.1836	420.41	77.0676	420.41	78.3773	420.41	75.735	420.41	77.3012	420.41	74.5114	420.41	75.9474	420.41	73.9481	420.41	74.5081	420.41	74.3488	420.41	73.6136	420.41	75.3236	420.41	73.9072	420.41	76.3182	420.41	75.006	420.41	77.0396	420.41	76.1362	420.41	77.3941	420.41	76.946	420.41	77.3647
435.059	80.2001	435.059	80.0945	435.059	80.2782	435.059	79.9958	435.059	80.3059	435.059	79.9129	435.059	80.2877	435.059	79.8123	435.059	80.2391	435.059	79.6354	435.059	80.1553	435.059	79.3239	435.059	79.9969	435.059	78.8285	435.059	79.7036	435.059	78.1047	435.059	79.2166	435.059	77.1227	435.059	78.4983	435.059	75.9153	435.059	77.5501	435.059	74.6902	435.059	76.4463	435.059	73.9386	435.059	75.4011	435.059	74.1408	435.059	74.8055	435.059	75.1182	435.059	74.984	435.059	76.2751	435.059	75.7787	435.059	77.2015	435.059	76.7198	435.059	77.7287	435.059	77.4521	435.059	77.8091
451.172	81.017	451.172	80.9069	451.172	81.0384	451.172	80.709	451.172	80.9842	451.172	80.4576	451.172	80.8653	451.172	80.2087	451.172	80.6914	451.172	79.985	451.172	80.4717	451.172	79.7285	451.172	80.1999	451.172	79.31	451.172	79.8372	451.172	78.5787	451.172	79.3144	451.172	77.4081	451.172	78.551	451.172	75.7494	451.172	77.4806	451.172	73.8048	451.172	76.1058	451.172	72.4582	451.172	74.654	451.172	72.8005	451.172	73.7727	451.172	74.1902	451.172	74.0287	451.172	75.4973	451.172	74.9939	451.172	76.3646	451.172	75.9483	451.172	76.8	451.172	76.5866	451.172	76.8664
465.82	80.6042	465.82	80.5829	465.82	80.6042	465.82	80.5476	465.82	80.5704	465.82	80.4901	465.82	80.5017	465.82	80.389	465.82	80.4144	465.82	80.2154	465.82	80.3263	465.82	79.9332	465.82	80.2258	465.82	79.4924	465.82	80.0507	465.82	78.8299	465.82	79.6973	465.82	77.8806	465.82	79.0514	465.82	76.6092	465.82	78.0222	465.82	75.0947	465.82	76.5954	465.82	73.7137	465.82	74.9548	465.82	73.1656	465.82	73.6786	465.82	73.7066	465.82	73.4991	465.82	74.7537	465.82	74.3098	465.82	75.7219	465.82	75.3597	465.82	76.3382	465.82	76.1505	465.82	76.492
483.398	80.6209	483.398	80.5379	483.398	80.6718	483.398	80.4419	483.398	80.6913	483.398	80.367	483.398	80.6923	483.398	80.3418	483.398	80.6827	483.398	80.3575	483.398	80.6482	483.398	80.3447	483.398	80.5481	483.398	80.1812	483.398	80.3193	483.398	79.7221	483.398	79.8831	483.398	78.8252	483.398	79.1508	483.398	77.3738	483.398	78.0353	483.398	75.3503	483.398	76.4792	483.398	73.1786	483.398	74.5708	483.398	72.3594	483.398	72.9452	483.398	73.6205	483.398	72.8883	483.398	75.3614	483.398	74.2882	483.398	76.6166	483.398	75.8033	483.398	77.2508	483.398	76.8369	483.398	77.3146
499.512	81.4373	499.512	81.3363	499.512	81.4673	499.512	81.1679	499.512	81.434	499.512	80.9575	499.512	81.3516	499.512	80.747	499.512	81.2406	499.512	80.5607	499.512	81.1188	499.512	80.3646	499.512	80.9834	499.512	80.0638	499.512	80.7958	499.512	79.5369	499.512	80.485	499.512	78.6739	499.512	79.9581	499.512	77.4018	499.512	79.1075	499.512	75.7437	499.512	77.8288	499.512	74.0296	499.512	76.098	499.512	73.1831	499.512	74.247	499.512	73.8361	499.512	73.3721	499.512	75.187	499.512	74.1679	499.512	76.3664	499.512	75.5771	499.512	77.0573	499.512	76.665	499.512	77.1679
517.09	81.2422	517.09	81.2284	517.09	81.158	517.09	81.1251	517.09	81.0032	517.09	80.9747	517.09	80.8289	517.09	80.8293	517.09	80.6947	517.09	80.7136	517.09	80.6511	517.09	80.595	517.09	80.7076	517.09	80.3837	517.09	80.7986	517.09	79.9565	517.09	80.7872	517.09	79.1819	517.09	80.5086	517.09	77.9359	517.09	79.8116	517.09	76.1663	517.09	78.5869	517.09	74.203	517.09	76.8348	517.09	73.3409	517.09	74.9308	517.09	74.4158	517.09	74.0303	517.09	76.1087	517.09	74.8593	517.09	77.4152	517.09	76.3428	517.09	78.1002	517.09	77.5302	517.09	78.1357
536.133	82.0167	536.133	81.7988	536.133	82.0602	536.133	81.4548	536.133	81.9146	536.133	81.0729	536.133	81.6057	536.133	80.7753	536.133	81.2093	536.133	80.6651	536.133	80.83	536.133	80.7264	536.133	80.5292	536.133	80.7813	536.133	80.2656	536.133	80.563	536.133	79.9145	536.133	79.8061	536.133	79.321	536.133	78.2857	536.133	78.3184	536.133	75.8809	536.133	76.7308	536.133	73.0201	536.133	74.4906	536.133	71.8965	536.133	72.3881	536.133	73.5034	536.133	72.7364	536.133	75.4883	536.133	74.8894	536.133	76.9192	536.133	76.6967	536.133	77.7546	536.133	77.7123	536.133	78.0293
555.176	82.3397	555.176	82.2466	555.176	82.3451	555.176	82.0289	555.176	82.2864	555.176	81.6839	555.176	82.1622	555.176	81.2722	555.176	81.9806	555.176	80.8802	555.176	81.8012	555.176	80.5435	555.176	81.709	555.176	80.2196	555.176	81.7102	555.176	79.8097	555.176	81.6737	555.176	79.1619	555.176	81.3926	555.176	78.0551	555.176	80.6656	555.176	76.1942	555.176	79.317	555.176	73.3127	555.176	77.1582	555.176	70.3935	555.176	73.9697	555.176	71.4475	555.176	70.341	555.176	74.2723	555.176	70.6217	555.176	76.1137	555.176	73.6696	555.176	76.9077	555.176	75.7991	555.176	76.8122
574.219	82.2575	574.219	82.1154	574.219	82.2453	574.219	81.8649	574.219	82.0334	574.219	81.541	574.219	81.6236	574.219	81.2135	574.219	81.0998	574.219	81.0145	574.219	80.6195	574.219	81.0273	574.219	80.34	574.219	81.119	574.219	80.2878	574.219	80.991	574.219	80.2933	574.219	80.3725	574.219	80.0937	574.219	79.0841	574.219	79.4743	574.219	76.9385	574.219	78.3079	574.219	73.5699	574.219	76.541	574.219	68.8825	574.219	74.2733	574.219	68.8375	574.219	72.3085	574.219	73.0311	574.219	72.517	574.219	75.721	574.219	74.4814	574.219	76.991	574.219	76.2469	574.219	77.1286
594.727	82.1961	594.727	82.035	594.727	82.1256	594.727	81.6595	594.727	81.8833	594.727	81.1528	594.727	81.5629	594.727	80.6381	594.727	81.2156	594.727	80.2562	594.727	80.8394	594.727	80.1048	594.727	80.4789	594.727	80.13	594.727	80.2793	594.727	80.1132	594.727	80.3055	594.727	79.7933	594.727	80.346	594.727	78.9522	594.727	80.0265	594.727	77.4142	594.727	78.996	594.727	75.062	594.727	76.9365	594.727	72.2635	594.727	73.4891	594.727	71.3902	594.727	69.3585	594.727	73.4623	594.727	70.6262	594.727	75.6138	594.727	74.1437	594.727	76.8352	594.727	76.2357	594.727	77.0604
615.234	82.6812	615.234	82.4841	615.234	82.6932	615.234	82.1142	615.234	82.5093	615.234	81.5986	615.234	82.1261	615.234	81.002	615.234	81.5835	615.234	80.455	615.234	80.9922	615.234	80.1335	615.234	80.5082	615.234	80.0962	615.234	80.2442	615.234	80.1343	615.234	80.162	615.234	79.8843	615.234	80.0567	615.234	79.0012	615.234	79.65	615.234	77.1777	615.234	78.659	615.234	74.1304	615.234	76.7866	615.234	70.1744	615.234	73.7455	615.234	69.1066	615.234	70.0247	615.234	71.7285	615.234	69.7539	615.234	73.9882	615.234	72.572	615.234	75.2453	615.234	74.6335	615.234	75.4895
637.207	82.8213	637.207	82.5453	637.207	82.8828	637.207	82.0997	637.207	82.6799	637.207	81.5137	637.207	82.2115	637.207	80.8611	637.207	81.5478	637.207	80.3214	637.207	80.811	637.207	80.0916	637.207	80.1938	637.207	80.1431	637.207	79.9409	637.207	80.1921	637.207	80.065	637.207	79.9256	637.207	80.1899	637.207	79.0964	637.207	79.8855	637.207	77.4394	637.207	78.9017	637.207	74.5105	637.207	77.0993	637.207	69.5251	637.207	74.2628	637.207	66.4356	637.207	70.3411	637.207	71.487	637.207	69.1732	637.207	74.664	637.207	72.5138	637.207	75.9802	637.207	74.9764	637.207	76.047
659.18	82.7761	659.18	82.5464	659.18	82.7286	659.18	82.0471	659.18	82.4515	659.18	81.3279	659.18	82.0092	659.18	80.4479	659.18	81.433	659.18	79.5192	659.18	80.7136	659.18	78.8201	659.18	79.874	659.18	78.659	659.18	79.1193	659.18	78.8993	659.18	78.8458	659.18	78.9933	659.18	79.1103	659.18	78.4739	659.18	79.3376	659.18	77.076	659.18	78.8826	659.18	74.5477	659.18	77.3312	659.18	70.6229	659.18	74.4439	659.18	67.7926	659.18	70.3725	659.18	70.6244	659.18	67.7543	659.18	73.2481	659.18	69.66	659.18	74.2147	659.18	72.2084	659.18	73.7986
682.617	83.2116	682.617	83.0659	682.617	83.3037	682.617	82.7742	682.617	83.2709	682.617	82.1952	682.617	82.972	682.617	81.3291	682.617	82.3676	682.617	80.3644	682.617	81.5712	682.617	79.5298	682.617	80.7578	682.617	78.9377	682.617	80.0508	682.617	78.5727	682.617	79.4953	682.617	78.2461	682.617	79.0621	682.617	77.5421	682.617	78.5777	682.617	75.9338	682.617	77.6828	682.617	72.8804	682.617	75.9245	682.617	68.049	682.617	72.836	682.617	66.1487	682.617	68.4363	682.617	70.4891	682.617	67.7156	682.617	73.6914	682.617	71.33	682.617	75.2117	682.617	73.9616	682.617	75.2564
707.52	82.9165	707.52	82.6808	707.52	82.9314	707.52	82.277	707.52	82.7366	707.52	81.7458	707.52	82.3728	707.52	81.0548	707.52	81.8536	707.52	80.2237	707.52	81.1934	707.52	79.5215	707.52	80.492	707.52	79.2897	707.52	79.9364	707.52	79.4128	707.52	79.634	707.52	79.4408	707.52	79.4765	707.52	79.0156	707.52	79.2282	707.52	77.8508	707.52	78.617	707.52	75.5401	707.52	77.2614	707.52	71.2524	707.52	74.5109	707.52	63.64	707.52	69.2144	707.52	66.4368	707.52	65.3578	707.52	71.2656	707.52	70.7005	707.52	73.3775	707.52	73.4074	707.52	74.053
732.422	82.7055	732.422	82.5358	732.422	82.6539	732.422	82.1787	732.422	82.4255	732.422	81.6941	732.422	82.0948	732.422	81.0809	732.422	81.6733	732.422	80.3063	732.422	81.1146	732.422	79.4869	732.422	80.47	732.422	78.9713	732.422	80.0088	732.422	78.9331	732.422	79.9781	732.422	78.9919	732.422	80.186	732.422	78.6248	732.422	80.1817	732.422	77.4777	732.422	79.6203	732.422	75.1681	732.422	78.2238	732.422	70.832	732.422	75.5732	732.422	63.4166	732.422	70.787	732.422	67.3984	732.422	64.207	732.422	71.9366	732.422	68.8346	732.422	73.7599	732.422	72.616	732.422	73.9723
757.324	83.3397	757.324	83.1615	757.324	83.3748	757.324	82.8076	757.324	83.1684	757.324	82.1736	757.324	82.6418	757.324	81.2393	757.324	81.8855	757.324	80.1751	757.324	81.0662	757.324	79.4028	757.324	80.2307	757.324	79.3605	757.324	79.4913	757.324	79.8866	757.324	79.3675	757.324	80.327	757.324	80.0465	757.324	80.1287	757.324	80.7537	757.324	78.9243	757.324	80.6976	757.324	76.3325	757.324	79.4849	757.324	71.3977	757.324	76.8607	757.324	59.5257	757.324	72.1301	757.324	68.349	757.324	63.7491	757.324	74.1154	757.324	68.9291	757.324	76.2456	757.324	74.0692	757.324	76.1841
785.156	83.3251	785.156	83.1358	785.156	83.4178	785.156	82.8442	785.156	83.349	785.156	82.3534	785.156	83.0196	785.156	81.513	785.156	82.3187	785.156	80.2238	785.156	81.1805	785.156	78.6485	785.156	79.7337	785.156	77.6321	785.156	78.5161	785.156	78.1709	785.156	78.3338	785.156	79.452	785.156	79.1745	785.156	80.1507	785.156	80.0772	785.156	79.6627	785.156	80.3267	785.156	77.6514	785.156	79.6283	785.156	73.4807	785.156	77.6486	785.156	64.2221	785.156	73.534	785.156	62.821	785.156	65.1551	785.156	70.7117	785.156	66.4201	785.156	73.2364	785.156	71.6755	785.156	73.4765
811.523	83.1836	811.523	83.1269	811.523	83.2348	811.523	83.0123	811.523	83.1937	811.523	82.7065	811.523	82.9311	811.523	82.0588	811.523	82.4024	811.523	80.918	811.523	81.5947	811.523	79.2376	811.523	80.3909	811.523	77.5344	811.523	78.7328	811.523	77.2149	811.523	77.3459	811.523	78.3128	811.523	77.5028	811.523	79.3223	811.523	78.6128	811.523	79.4071	811.523	79.4398	811.523	78.1733	811.523	79.3796	811.523	75.112	811.523	77.997	811.523	68.2318	811.523	74.6	811.523	58.1455	811.523	66.499	811.523	70.4818	811.523	60.8082	811.523	73.446	811.523	70.9093	811.523	73.5057
840.82	82.6243	840.82	82.5837	840.82	82.5795	840.82	82.4685	840.82	82.5054	840.82	82.3021	840.82	82.4207	840.82	81.9776	840.82	82.2445	840.82	81.2709	840.82	81.8426	840.82	79.9711	840.82	81.0518	840.82	77.9971	840.82	79.6982	840.82	76.0096	840.82	77.834	840.82	76.317	840.82	76.5709	840.82	78.2749	840.82	77.4025	840.82	79.3998	840.82	78.7486	840.82	79.0669	840.82	79.1658	840.82	77.127	840.82	78.415	840.82	73.2078	840.82	76.3496	840.82	65.6831	840.82	72.4136	840.82	47.2818	840.82	64.4243	840.82	63.6779	840.82	55.6363	840.82	64.4141
870.117	82.2942	870.117	82.2598	870.117	82.3167	870.117	82.1029	870.117	82.327	870.117	81.7657	870.117	82.2056	870.117	81.3188	870.117	81.8264	870.117	80.7825	870.117	81.1972	870.117	80.0045	870.117	80.4358	870.117	78.8559	870.117	79.5394	870.117	77.6005	870.117	78.3043	870.117	76.869	870.117	76.8208	870.117	76.9406	870.117	76.1278	870.117	77.3392	870.117	76.7513	870.117	77.317	870.117	77.4637	870.117	76.3527	870.117	77.3611	870.117	74.1293	870.117	76.1998	870.117	71.0222	870.117	74.0015	870.117	70.2772	870.117	71.3719	870.117	71.419	870.117	70.3972	870.117	71.2675
900.879	82.5652	900.879	82.3401	900.879	82.4567	900.879	82.0497	900.879	82.0654	900.879	81.8372	900.879	81.7665	900.879	81.5887	900.879	81.6851	900.879	81.179	900.879	81.4926	900.879	80.4852	900.879	80.9158	900.879	79.322	900.879	79.957	900.879	77.7334	900.879	78.6707	900.879	76.4974	900.879	77.1971	900.879	76.4296	900.879	76.1227	900.879	76.5795	900.879	75.8932	900.879	75.9174	900.879	75.7522	900.879	74.2442	900.879	74.6921	900.879	72.0467	900.879	72.3182	900.879	70.6959	900.879	69.3516	900.879	71.0589	900.879	69.2498	900.879	72.2033	900.879	71.5709	900.879	72.6948
933.105	82.1499	933.105	82.1243	933.105	82.0711	933.105	81.8186	933.105	81.9868	933.105	81.3027	933.105	81.7278	933.105	80.7796	933.105	81.1347	933.105	80.2118	933.105	80.317	933.105	79.3835	933.105	79.4498	933.105	78.3598	933.105	78.4748	933.105	77.5449	933.105	77.3285	933.105	77.1672	933.105	76.4549	933.105	77.077	933.105	76.3626	933.105	76.8857	933.105	76.5647	933.105	75.9787	933.105	76.3372	933.105	73.722	933.105	75.308	933.105	69.7542	933.105	73.1582	933.105	67.3728	933.105	70.0825	933.105	70.258	933.105	69.7437	933.105	72.3688	933.105	71.9737	933.105	72.9403
965.332	82.1978	965.332	82.0912	965.332	82.1155	965.332	81.8607	965.332	81.834	965.332	81.4281	965.332	81.4593	965.332	80.7094	965.332	81.0082	965.332	79.8516	965.332	80.3809	965.332	79.0058	965.332	79.5566	965.332	78.0079	965.332	78.5663	965.332	76.8393	965.332	77.3636	965.332	76.1841	965.332	76.1973	965.332	76.3253	965.332	75.7623	965.332	76.288	965.332	75.8031	965.332	75.1485	965.332	75.3998	965.332	72.3269	965.332	73.9206	965.332	67.8355	965.332	71.0111	965.332	67.3303	965.332	67.7688	965.332	70.6686	965.332	68.5141	965.332	72.5308	965.332	71.1555	965.332	72.649
1,000.49	81.6985	1,000.49	81.6555	1,000.49	81.585	1,000.49	81.3001	1,000.49	81.3817	1,000.49	80.6163	1,000.49	81.0427	1,000.49	79.8769	1,000.49	80.4762	1,000.49	79.2647	1,000.49	79.6763	1,000.49	78.4465	1,000.49	78.7636	1,000.49	77.164	1,000.49	77.735	1,000.49	76.0563	1,000.49	76.4255	1,000.49	75.9734	1,000.49	75.0997	1,000.49	76.4097	1,000.49	74.6778	1,000.49	76.3491	1,000.49	75.0543	1,000.49	75.3778	1,000.49	74.9236	1,000.49	73.1497	1,000.49	73.7503	1,000.49	68.9033	1,000.49	71.4912	1,000.49	66.2145	1,000.49	68.0089	1,000.49	69.2071	1,000.49	67.2181	1,000.49	71.3923	1,000.49	70.5996	1,000.49	72.0596
1,035.64	81.5036	1,035.64	81.2497	1,035.64	81.4665	1,035.64	80.8076	1,035.64	81.2818	1,035.64	80.4304	1,035.64	80.9526	1,035.64	80.0236	1,035.64	80.4116	1,035.64	79.2736	1,035.64	79.7851	1,035.64	78.1194	1,035.64	79.0727	1,035.64	76.6984	1,035.64	77.9856	1,035.64	75.1436	1,035.64	76.4736	1,035.64	74.205	1,035.64	75.0808	1,035.64	74.4575	1,035.64	74.63	1,035.64	75.1065	1,035.64	74.9481	1,035.64	74.6709	1,035.64	74.9453	1,035.64	71.5319	1,035.64	73.5945	1,035.64	64.3004	1,035.64	69.868	1,035.64	65.3777	1,035.64	63.2973	1,035.64	70.461	1,035.64	66.1646	1,035.64	72.3926	1,035.64	70.4897	1,035.64	72.3012
1,072.27	81.6903	1,072.27	81.4797	1,072.27	81.6456	1,072.27	81.0308	1,072.27	81.4354	1,072.27	80.4519	1,072.27	81.0958	1,072.27	79.8945	1,072.27	80.556	1,072.27	79.3716	1,072.27	79.8635	1,072.27	78.4713	1,072.27	79.1712	1,072.27	76.7352	1,072.27	78.3758	1,072.27	74.6002	1,072.27	77.1641	1,072.27	73.7724	1,072.27	75.5962	1,072.27	74.529	1,072.27	74.5347	1,072.27	74.9234	1,072.27	74.494	1,072.27	74.1936	1,072.27	74.5556	1,072.27	71.8395	1,072.27	73.5948	1,072.27	66.4131	1,072.27	70.6506	1,072.27	65.7091	1,072.27	65.1974	1,072.27	70.0471	1,072.27	67.1904	1,072.27	71.9625	1,072.27	71.3761	1,072.27	72.5576
1,108.89	81.9104	1,108.89	81.4878	1,108.89	81.967	1,108.89	80.8274	1,108.89	81.673	1,108.89	80.2286	1,108.89	81.0823	1,108.89	79.6721	1,108.89	80.4222	1,108.89	78.8995	1,108.89	79.8478	1,108.89	78.0635	1,108.89	79.1261	1,108.89	77.262	1,108.89	78.0411	1,108.89	75.8964	1,108.89	76.7362	1,108.89	74.0137	1,108.89	75.4656	1,108.89	73.6619	1,108.89	74.6612	1,108.89	74.5947	1,108.89	74.7824	1,108.89	74.577	1,108.89	74.8852	1,108.89	72.4301	1,108.89	73.9871	1,108.89	66.2939	1,108.89	71.2165	1,108.89	60.6541	1,108.89	63.2136	1,108.89	69.0665	1,108.89	63.193	1,108.89	72.0325	1,108.89	70.3257	1,108.89	72.446
1,148.44	82.1717	1,148.44	82.0957	1,148.44	82.2074	1,148.44	81.5207	1,148.44	82.1493	1,148.44	80.6516	1,148.44	81.5892	1,148.44	80.0811	1,148.44	80.7041	1,148.44	79.5519	1,148.44	79.8579	1,148.44	78.5901	1,148.44	79.0995	1,148.44	77.2147	1,148.44	78.4324	1,148.44	75.457	1,148.44	77.4569	1,148.44	73.78	1,148.44	75.7228	1,148.44	74.0225	1,148.44	74.4499	1,148.44	75.2252	1,148.44	74.9574	1,148.44	74.9479	1,148.44	75.5755	1,148.44	72.7358	1,148.44	75.0584	1,148.44	67.775	1,148.44	72.5745	1,148.44	57.3795	1,148.44	66.5417	1,148.44	68.2154	1,148.44	63.7953	1,148.44	71.6248	1,148.44	68.8103	1,148.44	71.2147
1,189.45	82.8557	1,189.45	82.519	1,189.45	82.6996	1,189.45	82.0189	1,189.45	82.2724	1,189.45	81.4572	1,189.45	81.7859	1,189.45	80.5571	1,189.45	81.0374	1,189.45	79.6465	1,189.45	79.9891	1,189.45	78.9537	1,189.45	79.0183	1,189.45	77.8194	1,189.45	78.25	1,189.45	76.0321	1,189.45	77.0984	1,189.45	74.1481	1,189.45	75.309	1,189.45	73.7653	1,189.45	74.0849	1,189.45	74.896	1,189.45	74.4067	1,189.45	75.0408	1,189.45	74.9839	1,189.45	73.3188	1,189.45	74.5229	1,189.45	69.3397	1,189.45	72.2506	1,189.45	62.3596	1,189.45	66.9676	1,189.45	68.2776	1,189.45	63.1646	1,189.45	72.4452	1,189.45	69.8164	1,189.45	72.6953
1,230.47	82.7166	1,230.47	82.4529	1,230.47	82.6086	1,230.47	81.8274	1,230.47	82.2277	1,230.47	80.9809	1,230.47	81.5298	1,230.47	80.0894	1,230.47	80.5972	1,230.47	79.1963	1,230.47	79.6611	1,230.47	78.3818	1,230.47	78.6952	1,230.47	77.5097	1,230.47	77.7242	1,230.47	75.8582	1,230.47	76.6698	1,230.47	74.162	1,230.47	75.137	1,230.47	73.9816	1,230.47	73.3143	1,230.47	74.2291	1,230.47	73.1735	1,230.47	74.492	1,230.47	74.5807	1,230.47	73.6959	1,230.47	74.7442	1,230.47	69.6716	1,230.47	72.0947	1,230.47	61.7043	1,230.47	66.4991	1,230.47	66.5906	1,230.47	63.3266	1,230.47	71.2025	1,230.47	69.0757	1,230.47	71.9817
1,274.41	82.541	1,274.41	82.2895	1,274.41	82.4483	1,274.41	81.7584	1,274.41	82.0849	1,274.41	81.0945	1,274.41	81.4311	1,274.41	80.1052	1,274.41	80.3722	1,274.41	78.6285	1,274.41	79.1027	1,274.41	77.6283	1,274.41	78.1171	1,274.41	77.4195	1,274.41	77.4531	1,274.41	76.5565	1,274.41	76.3614	1,274.41	74.7484	1,274.41	74.5144	1,274.41	73.1217	1,274.41	72.4967	1,274.41	73.1175	1,274.41	71.9028	1,274.41	73.8743	1,274.41	72.9005	1,274.41	72.6826	1,274.41	72.9075	1,274.41	68.4379	1,274.41	71.209	1,274.41	60.7048	1,274.41	66.593	1,274.41	66.6651	1,274.41	61.9908	1,274.41	70.917	1,274.41	69.1234	1,274.41	71.3744
1,319.82	81.71	1,319.82	81.5938	1,319.82	81.8009	1,319.82	81.1191	1,319.82	81.6255	1,319.82	80.4141	1,319.82	81.1011	1,319.82	79.5589	1,319.82	80.2206	1,319.82	78.2688	1,319.82	78.7477	1,319.82	77.1958	1,319.82	77.1119	1,319.82	76.504	1,319.82	75.9193	1,319.82	75.2853	1,319.82	75.3229	1,319.82	73.0631	1,319.82	74.2802	1,319.82	71.2594	1,319.82	72.2204	1,319.82	72.2409	1,319.82	71.3389	1,319.82	73.3905	1,319.82	72.2114	1,319.82	72.4465	1,319.82	72.8671	1,319.82	68.7651	1,319.82	71.2828	1,319.82	62.5454	1,319.82	65.5717	1,319.82	67.4441	1,319.82	59.0908	1,319.82	70.4663	1,319.82	67.2749	1,319.82	70.3017
1,366.7	81.1603	1,366.7	80.9611	1,366.7	81.0889	1,366.7	80.4465	1,366.7	80.7334	1,366.7	79.5838	1,366.7	80.2349	1,366.7	78.5305	1,366.7	79.5649	1,366.7	77.4702	1,366.7	78.2751	1,366.7	76.3013	1,366.7	76.6317	1,366.7	75.0905	1,366.7	75.4872	1,366.7	73.1928	1,366.7	74.6223	1,366.7	70.4556	1,366.7	73.4397	1,366.7	69.8323	1,366.7	71.1035	1,366.7	70.9491	1,366.7	68.6669	1,366.7	71.6809	1,366.7	70.1269	1,366.7	71.1435	1,366.7	71.2768	1,366.7	66.4509	1,366.7	69.347	1,366.7	61.4952	1,366.7	63.0299	1,366.7	67.3066	1,366.7	56.0695	1,366.7	70.4527	1,366.7	67.5469	1,366.7	71.2092
1,413.57	81.2177	1,413.57	81.0644	1,413.57	81.1468	1,413.57	80.4752	1,413.57	80.8959	1,413.57	79.4623	1,413.57	80.2381	1,413.57	78.1683	1,413.57	79.1841	1,413.57	76.9456	1,413.57	77.7766	1,413.57	75.9706	1,413.57	75.9483	1,413.57	74.4029	1,413.57	74.6383	1,413.57	73.4174	1,413.57	74.2796	1,413.57	72.2786	1,413.57	73.2911	1,413.57	69.1713	1,413.57	70.5746	1,413.57	69.4067	1,413.57	69.916	1,413.57	71.3042	1,413.57	72.221	1,413.57	70.568	1,413.57	72.5606	1,413.57	65.2643	1,413.57	71.8141	1,413.57	54.2924	1,413.57	69.2793	1,413.57	66.0068	1,413.57	58.4018	1,413.57	68.7696	1,413.57	59.7791	1,413.57	66.8689
1,463.38	81.1837	1,463.38	80.749	1,463.38	81.3304	1,463.38	80.3608	1,463.38	81.0099	1,463.38	79.4482	1,463.38	80.6329	1,463.38	78.4687	1,463.38	79.9475	1,463.38	76.9613	1,463.38	78.9684	1,463.38	75.2135	1,463.38	77.3666	1,463.38	74.3428	1,463.38	75.826	1,463.38	73.1885	1,463.38	74.7688	1,463.38	70.958	1,463.38	73.5683	1,463.38	67.8014	1,463.38	72.1827	1,463.38	67.8844	1,463.38	69.5557	1,463.38	69.5899	1,463.38	70.2931	1,463.38	69.186	1,463.38	72.151	1,463.38	64.3938	1,463.38	71.4969	1,463.38	48.9702	1,463.38	67.9267	1,463.38	64.7921	1,463.38	60.7532	1,463.38	69.6049	1,463.38	63.7071	1,463.38	69.036
1,516.11	81.7713	1,516.11	81.3403	1,516.11	81.5942	1,516.11	80.7052	1,516.11	81.0627	1,516.11	80.1074	1,516.11	81.1198	1,516.11	79.3751	1,516.11	80.5883	1,516.11	78.0123	1,516.11	79.1446	1,516.11	76.4492	1,516.11	77.7625	1,516.11	75.3705	1,516.11	76.3981	1,516.11	73.9511	1,516.11	75.2437	1,516.11	72.2665	1,516.11	74.4971	1,516.11	70.0792	1,516.11	73.2459	1,516.11	70.0117	1,516.11	70.8203	1,516.11	71.8415	1,516.11	72.2678	1,516.11	71.2995	1,516.11	73.3655	1,516.11	70.1446	1,516.11	72.3475	1,516.11	62.4111	1,516.11	69.1286	1,516.11	62.7266	1,516.11	63.2045	1,516.11	68.3345	1,516.11	65.8515	1,516.11	68.0803
1,568.85	82.0507	1,568.85	81.6467	1,568.85	82.0855	1,568.85	81.4352	1,568.85	81.6912	1,568.85	80.7622	1,568.85	81.3354	1,568.85	79.5402	1,568.85	80.666	1,568.85	78.496	1,568.85	79.7088	1,568.85	77.2353	1,568.85	78.0333	1,568.85	75.6703	1,568.85	76.3656	1,568.85	74.6919	1,568.85	75.5001	1,568.85	73.2543	1,568.85	74.6034	1,568.85	70.7699	1,568.85	73.2742	1,568.85	68.2007	1,568.85	69.904	1,568.85	70.6856	1,568.85	69.0284	1,568.85	72.2433	1,568.85	71.5018	1,568.85	70.3468	1,568.85	70.9155	1,568.85	63.6631	1,568.85	66.7416	1,568.85	61.0749	1,568.85	61.6709	1,568.85	67.5733	1,568.85	67.1006	1,568.85	69.2581
1,624.51	81.7526	1,624.51	81.4794	1,624.51	81.7269	1,624.51	81.0676	1,624.51	81.4203	1,624.51	80.5562	1,624.51	80.6019	1,624.51	79.5321	1,624.51	79.8261	1,624.51	78.5009	1,624.51	79.2266	1,624.51	77.149	1,624.51	77.5724	1,624.51	75.6777	1,624.51	75.1557	1,624.51	74.933	1,624.51	74.0197	1,624.51	74.0071	1,624.51	73.1145	1,624.51	71.7688	1,624.51	70.7701	1,624.51	69.5331	1,624.51	68.5398	1,624.51	71.578	1,624.51	69.6562	1,624.51	72.8293	1,624.51	70.9301	1,624.51	71.2737	1,624.51	71.1041	1,624.51	66.1297	1,624.51	67.1781	1,624.51	61.1158	1,624.51	55.8871	1,624.51	67.4909	1,624.51	67.0789	1,624.51	69.3439
1,681.64	81.0182	1,681.64	81.0668	1,681.64	80.5191	1,681.64	80.9159	1,681.64	80.456	1,681.64	79.9928	1,681.64	79.96	1,681.64	78.7597	1,681.64	78.0743	1,681.64	77.6939	1,681.64	76.9597	1,681.64	75.8583	1,681.64	76.3019	1,681.64	73.6341	1,681.64	74.6247	1,681.64	72.1928	1,681.64	72.0528	1,681.64	71.4474	1,681.64	71.2461	1,681.64	70.7094	1,681.64	71.9049	1,681.64	69.0579	1,681.64	69.5016	1,681.64	70.3014	1,681.64	63.2579	1,681.64	71.7107	1,681.64	67.2278	1,681.64	71.3731	1,681.64	70.0954	1,681.64	66.1062	1,681.64	67.4783	1,681.64	64.6233	1,681.64	54.4461	1,681.64	67.1232	1,681.64	64.6681	1,681.64	68.6032
1,741.7	80.1467	1,741.7	79.8797	1,741.7	80.133	1,741.7	79.5965	1,741.7	79.5182	1,741.7	79.1694	1,741.7	78.4552	1,741.7	78.0043	1,741.7	77.8535	1,741.7	76.0735	1,741.7	77.4108	1,741.7	74.7357	1,741.7	75.9523	1,741.7	73.6915	1,741.7	74.5298	1,741.7	72.5391	1,741.7	73.0695	1,741.7	72.5532	1,741.7	72.2662	1,741.7	71.7043	1,741.7	71.4844	1,741.7	70.5567	1,741.7	69.2088	1,741.7	70.1313	1,741.7	65.3857	1,741.7	70.7358	1,741.7	65.87	1,741.7	69.6788	1,741.7	69.7911	1,741.7	64.7884	1,741.7	68.0842	1,741.7	62.9869	1,741.7	61.5187	1,741.7	68.2605	1,741.7	52.2608	1,741.7	64.8521
1,803.22	80.2452	1,803.22	79.8431	1,803.22	80.0234	1,803.22	79.0121	1,803.22	79.7652	1,803.22	78.2284	1,803.22	79.1716	1,803.22	76.9331	1,803.22	78.3258	1,803.22	76.3979	1,803.22	77.6571	1,803.22	75.1719	1,803.22	76.5659	1,803.22	73.5998	1,803.22	75.3015	1,803.22	70.855	1,803.22	73.844	1,803.22	67.5369	1,803.22	72.2004	1,803.22	67.7459	1,803.22	70.5454	1,803.22	66.618	1,803.22	68.6271	1,803.22	66.8168	1,803.22	67.4396	1,803.22	68.6208	1,803.22	66.1449	1,803.22	67.422	1,803.22	68.1818	1,803.22	60.1804	1,803.22	68.2886	1,803.22	61.3325	1,803.22	64.8838	1,803.22	67.135	1,803.22	62.3651	1,803.22	67.327
1,866.21	80.1764	1,866.21	79.9265	1,866.21	80.1032	1,866.21	79.2013	1,866.21	79.813	1,866.21	78.329	1,866.21	79.3238	1,866.21	77.2265	1,866.21	79.2055	1,866.21	75.5478	1,866.21	78.1386	1,866.21	74.3614	1,866.21	76.2734	1,866.21	73.4378	1,866.21	75.5554	1,866.21	73.0287	1,866.21	74.8408	1,866.21	70.1863	1,866.21	72.7865	1,866.21	64.6386	1,866.21	70.2811	1,866.21	65.1016	1,866.21	69.9535	1,866.21	62.7072	1,866.21	69.9796	1,866.21	66.7998	1,866.21	70.0693	1,866.21	67.9569	1,866.21	69.6497	1,866.21	60.9886	1,866.21	69.8839	1,866.21	61.9318	1,866.21	67.5711	1,866.21	65.8561	1,866.21	65.6771	1,866.21	66.013
1,932.13	80.3987	1,932.13	79.8257	1,932.13	80.3346	1,932.13	79.1584	1,932.13	79.6214	1,932.13	78.9194	1,932.13	79.1658	1,932.13	78.0171	1,932.13	78.2461	1,932.13	77.2488	1,932.13	77.7509	1,932.13	76.4533	1,932.13	77.0771	1,932.13	75.3912	1,932.13	75.9462	1,932.13	73.714	1,932.13	74.6439	1,932.13	71.8239	1,932.13	73.2879	1,932.13	69.7975	1,932.13	72.1342	1,932.13	68.8904	1,932.13	70.9968	1,932.13	68.6208	1,932.13	70.8347	1,932.13	68.8334	1,932.13	69.991	1,932.13	68.3318	1,932.13	69.9055	1,932.13	64.735	1,932.13	67.6917	1,932.13	61.8621	1,932.13	67.3661	1,932.13	68.5632	1,932.13	66.2894	1,932.13	68.4318
1,999.51	80.3688	1,999.51	79.5193	1,999.51	79.7332	1,999.51	78.2922	1,999.51	78.974	1,999.51	78.1585	1,999.51	78.9421	1,999.51	77.2952	1,999.51	77.9635	1,999.51	76.9996	1,999.51	76.6763	1,999.51	76.219	1,999.51	75.2964	1,999.51	74.1414	1,999.51	74.2303	1,999.51	73.986	1,999.51	74.1864	1,999.51	72.8652	1,999.51	71.9843	1,999.51	72.3828	1,999.51	70.6958	1,999.51	70.7198	1,999.51	68.2851	1,999.51	71.1356	1,999.51	67.9337	1,999.51	69.5979	1,999.51	69.0023	1,999.51	69.9973	1,999.51	67.8221	1,999.51	69.2542	1,999.51	65.1657	1,999.51	69.0972	1,999.51	64.3069	1,999.51	70.3526	1,999.51	66.2292	1,999.51	69.488
2,069.82	78.7394	2,069.82	79.0472	2,069.82	79.4443	2,069.82	79.5008	2,069.82	79.1997	2,069.82	78.3649	2,069.82	78.5454	2,069.82	76.9608	2,069.82	78.0123	2,069.82	76.1638	2,069.82	77.2286	2,069.82	74.6105	2,069.82	75.4751	2,069.82	73.6628	2,069.82	74.359	2,069.82	72.8629	2,069.82	70.8761	2,069.82	72.968	2,069.82	69.9215	2,069.82	71.6286	2,069.82	69.6537	2,069.82	69.3686	2,069.82	68.4764	2,069.82	67.5507	2,069.82	67.9162	2,069.82	70.2925	2,069.82	69.4805	2,069.82	68.4971	2,069.82	69.1603	2,069.82	63.5024	2,069.82	64.5583	2,069.82	66.6264	2,069.82	60.0903	2,069.82	71.5229	2,069.82	68.1954	2,069.82	72.1807
2,143.07	80.4217	2,143.07	80.6052	2,143.07	80.8232	2,143.07	80.691	2,143.07	80.705	2,143.07	78.7057	2,143.07	80.4263	2,143.07	76.8612	2,143.07	79.7516	2,143.07	75.0539	2,143.07	77.8403	2,143.07	73.9857	2,143.07	76.3067	2,143.07	74.5003	2,143.07	74.9441	2,143.07	72.7741	2,143.07	71.8856	2,143.07	69.7392	2,143.07	74.1063	2,143.07	69.9888	2,143.07	72.6365	2,143.07	67.3714	2,143.07	69.423	2,143.07	67.169	2,143.07	69.5514	2,143.07	65.6961	2,143.07	67.5424	2,143.07	65.4945	2,143.07	69.1434	2,143.07	64.6704	2,143.07	68.3329	2,143.07	58.5524	2,143.07	56.7039	2,143.07	69.497	2,143.07	68.8954	2,143.07	72.5536
2,219.24	81.9443	2,219.24	81.997	2,219.24	82.3006	2,219.24	81.2262	2,219.24	82.5112	2,219.24	80.8011	2,219.24	81.5861	2,219.24	78.8268	2,219.24	80.505	2,219.24	78.206	2,219.24	78.8772	2,219.24	77.5041	2,219.24	78.0555	2,219.24	75.1494	2,219.24	77.6181	2,219.24	74.236	2,219.24	76.0704	2,219.24	73.3876	2,219.24	73.7635	2,219.24	68.7919	2,219.24	74.8707	2,219.24	68.9481	2,219.24	72.6565	2,219.24	67.0991	2,219.24	68.9066	2,219.24	69.3515	2,219.24	68.4777	2,219.24	72.0638	2,219.24	71.0379	2,219.24	68.229	2,219.24	69.9282	2,219.24	60.2878	2,219.24	64.2501	2,219.24	69.6504	2,219.24	63.6322	2,219.24	69.2067
2,296.88	81.8381	2,296.88	81.7161	2,296.88	81.8712	2,296.88	82.0137	2,296.88	81.7818	2,296.88	81.0285	2,296.88	80.959	2,296.88	80.73	2,296.88	80.5243	2,296.88	78.6032	2,296.88	79.5671	2,296.88	78.1656	2,296.88	78.1432	2,296.88	78.104	2,296.88	76.9619	2,296.88	73.7593	2,296.88	74.6407	2,296.88	76.3637	2,296.88	72.7536	2,296.88	76.4669	2,296.88	73.4722	2,296.88	70.8559	2,296.88	69.3446	2,296.88	65.9	2,296.88	67.7942	2,296.88	71.5237	2,296.88	70.3205	2,296.88	72.6378	2,296.88	69.6674	2,296.88	69.6293	2,296.88	69.525	2,296.88	62.0988	2,296.88	67.7707	2,296.88	69.9215	2,296.88	60.544	2,296.88	70.1986
2,378.91	80.7022	2,378.91	81.3831	2,378.91	80.0806	2,378.91	80.5266	2,378.91	79.7087	2,378.91	80.1877	2,378.91	80.2112	2,378.91	79.8266	2,378.91	79.5413	2,378.91	79.4235	2,378.91	77.5009	2,378.91	78.4146	2,378.91	76.1911	2,378.91	76.261	2,378.91	76.184	2,378.91	72.8531	2,378.91	75.0481	2,378.91	73.5137	2,378.91	71.3704	2,378.91	74.1003	2,378.91	71.4704	2,378.91	71.5099	2,378.91	70.8959	2,378.91	69.0015	2,378.91	65.0958	2,378.91	67.325	2,378.91	67.1084	2,378.91	69.9348	2,378.91	69.2006	2,378.91	67.1691	2,378.91	68.8964	2,378.91	65.6752	2,378.91	63.3136	2,378.91	69.9501	2,378.91	65.8309	2,378.91	71.6315
2,462.4	80.5932	2,462.4	80.3774	2,462.4	80.3648	2,462.4	79.9613	2,462.4	80.5858	2,462.4	79.7175	2,462.4	80.294	2,462.4	79.2304	2,462.4	79.8392	2,462.4	77.3508	2,462.4	78.9612	2,462.4	76.3572	2,462.4	77.9943	2,462.4	75.5022	2,462.4	76.8999	2,462.4	72.9622	2,462.4	75.8551	2,462.4	72.3172	2,462.4	74.0874	2,462.4	72.1291	2,462.4	72.8963	2,462.4	69.2961	2,462.4	72.2232	2,462.4	67.1392	2,462.4	68.4137	2,462.4	68.8605	2,462.4	68.6528	2,462.4	69.8923	2,462.4	69.1968	2,462.4	66.8059	2,462.4	70.0477	2,462.4	62.2248	2,462.4	69.1473	2,462.4	70.0559	2,462.4	63.502	2,462.4	69.3428
2,548.83	82.2579	2,548.83	81.8023	2,548.83	82.6822	2,548.83	81.6951	2,548.83	81.8098	2,548.83	80.6702	2,548.83	81.6196	2,548.83	80.5745	2,548.83	81.4393	2,548.83	79.6859	2,548.83	81.1535	2,548.83	77.0382	2,548.83	80.1436	2,548.83	76.7499	2,548.83	78.3938	2,548.83	74.9505	2,548.83	77.4659	2,548.83	72.3384	2,548.83	75.4693	2,548.83	72.7292	2,548.83	73.6308	2,548.83	70.4612	2,548.83	73.4949	2,548.83	69.0044	2,548.83	70.69	2,548.83	68.3264	2,548.83	68.5968	2,548.83	69.0486	2,548.83	69.3668	2,548.83	68.5885	2,548.83	70.1822	2,548.83	61.9539	2,548.83	68.9147	2,548.83	68.5509	2,548.83	68.479	2,548.83	70.6441
2,639.65	82.2366	2,639.65	82.3451	2,639.65	82.5087	2,639.65	82.1433	2,639.65	81.7226	2,639.65	81.4066	2,639.65	81.6614	2,639.65	80.9718	2,639.65	81.3114	2,639.65	80.9063	2,639.65	81.0703	2,639.65	79.3429	2,639.65	80.0492	2,639.65	77.5892	2,639.65	78.1811	2,639.65	76.6522	2,639.65	76.6746	2,639.65	73.7409	2,639.65	75.1388	2,639.65	72.8286	2,639.65	72.4036	2,639.65	72.5475	2,639.65	72.4039	2,639.65	69.7338	2,639.65	70.9452	2,639.65	68.4566	2,639.65	68.3416	2,639.65	69.9874	2,639.65	68.5317	2,639.65	69.3344	2,639.65	68.933	2,639.65	65.8923	2,639.65	66.6715	2,639.65	71.1051	2,639.65	66.3864	2,639.65	70.4859
2,731.93	81.6103	2,731.93	81.7183	2,731.93	81.3496	2,731.93	81.5002	2,731.93	80.8462	2,731.93	80.8351	2,731.93	80.982	2,731.93	80.1054	2,731.93	80.3345	2,731.93	80.3844	2,731.93	79.8003	2,731.93	79.5369	2,731.93	79.1588	2,731.93	77.3299	2,731.93	77.7896	2,731.93	76.3871	2,731.93	75.8933	2,731.93	74.2972	2,731.93	74.2056	2,731.93	72.9674	2,731.93	71.2783	2,731.93	72.9228	2,731.93	70.7456	2,731.93	70.0338	2,731.93	70.8127	2,731.93	67.4422	2,731.93	68.1882	2,731.93	68.5747	2,731.93	66.8691	2,731.93	69.756	2,731.93	68.2605	2,731.93	66.726	2,731.93	68.2913	2,731.93	68.4807	2,731.93	63.3993	2,731.93	67.4838
2,828.61	81.0311	2,828.61	81.0279	2,828.61	80.2277	2,828.61	81.0022	2,828.61	81.0837	2,828.61	81.208	2,828.61	81.2313	2,828.61	80.1953	2,828.61	80.5055	2,828.61	79.4878	2,828.61	79.5493	2,828.61	79.0102	2,828.61	78.9831	2,828.61	76.8171	2,828.61	78.173	2,828.61	75.0207	2,828.61	76.8046	2,828.61	73.0719	2,828.61	75.6268	2,828.61	71.5484	2,828.61	72.5699	2,828.61	71.4257	2,828.61	72.0962	2,828.61	68.9904	2,828.61	70.5624	2,828.61	68.7707	2,828.61	69.108	2,828.61	67.5917	2,828.61	68.7304	2,828.61	67.5313	2,828.61	69.2486	2,828.61	65.9965	2,828.61	68.628	2,828.61	70.4558	2,828.61	64.1456	2,828.61	67.681
2,928.22	81.769	2,928.22	81.5612	2,928.22	81.2974	2,928.22	81.4086	2,928.22	81.86	2,928.22	81.6669	2,928.22	81.8281	2,928.22	80.9965	2,928.22	81.7548	2,928.22	80.2011	2,928.22	81.0902	2,928.22	79.1292	2,928.22	80.1489	2,928.22	77.1986	2,928.22	79.3515	2,928.22	75.9754	2,928.22	77.5617	2,928.22	73.5029	2,928.22	76.5434	2,928.22	71.4577	2,928.22	74.0707	2,928.22	70.463	2,928.22	72.5375	2,928.22	68.3207	2,928.22	71.3581	2,928.22	68.9597	2,928.22	67.79	2,928.22	66.7948	2,928.22	69.4084	2,928.22	70.2962	2,928.22	68.9685	2,928.22	63.59	2,928.22	68.9305	2,928.22	66.391	2,928.22	66.0756	2,928.22	68.4139
3,030.76	81.8693	3,030.76	82.1837	3,030.76	81.4917	3,030.76	82.2492	3,030.76	81.6892	3,030.76	82.5073	3,030.76	81.7829	3,030.76	82.4949	3,030.76	81.7036	3,030.76	81.1866	3,030.76	81.071	3,030.76	79.7699	3,030.76	80.2014	3,030.76	78.3768	3,030.76	79.4607	3,030.76	76.8617	3,030.76	77.6936	3,030.76	75.4759	3,030.76	76.1142	3,030.76	72.7056	3,030.76	74.2935	3,030.76	73.1185	3,030.76	72.6875	3,030.76	69.0937	3,030.76	71.9455	3,030.76	70.1977	3,030.76	68.2726	3,030.76	69.3111	3,030.76	69.5648	3,030.76	69.7271	3,030.76	69.0621	3,030.76	65.5492	3,030.76	69.1786	3,030.76	68.4242	3,030.76	65.4458	3,030.76	69.0443
3,137.7	82.1464	3,137.7	81.9048	3,137.7	82.31	3,137.7	82.5058	3,137.7	81.8743	3,137.7	82.2323	3,137.7	82.0825	3,137.7	82.1438	3,137.7	81.9882	3,137.7	81.3434	3,137.7	81.8072	3,137.7	79.9812	3,137.7	80.7375	3,137.7	78.8688	3,137.7	79.2913	3,137.7	77.2531	3,137.7	77.8543	3,137.7	75.9783	3,137.7	75.994	3,137.7	73.5763	3,137.7	74.5272	3,137.7	73.8494	3,137.7	72.3814	3,137.7	70.6556	3,137.7	72.2294	3,137.7	71.4411	3,137.7	69.3823	3,137.7	70.5311	3,137.7	70.3173	3,137.7	69.9694	3,137.7	68.9808	3,137.7	67.629	3,137.7	69.6535	3,137.7	70.1309	3,137.7	66.9375	3,137.7	69.6917
3,249.02	82.0119	3,249.02	82.0671	3,249.02	82.1979	3,249.02	82.4107	3,249.02	82.1356	3,249.02	82.0779	3,249.02	82.4945	3,249.02	81.7893	3,249.02	82.3027	3,249.02	81.0243	3,249.02	81.9334	3,249.02	79.7202	3,249.02	80.8704	3,249.02	78.5894	3,249.02	79.7718	3,249.02	77.017	3,249.02	78.2211	3,249.02	75.841	3,249.02	76.0818	3,249.02	72.8784	3,249.02	74.1832	3,249.02	73.2626	3,249.02	71.3269	3,249.02	70.6221	3,249.02	72.4267	3,249.02	71.49	3,249.02	68.9825	3,249.02	69.9908	3,249.02	70	3,249.02	70.4018	3,249.02	69.1323	3,249.02	68.5084	3,249.02	69.8043	3,249.02	70.6791	3,249.02	67.6686	3,249.02	69.6017
3,363.28	81.5061	3,363.28	81.4039	3,363.28	81.7775	3,363.28	82.4802	3,363.28	81.7024	3,363.28	82.0592	3,363.28	82.3173	3,363.28	81.5991	3,363.28	82.227	3,363.28	81.1076	3,363.28	82.3372	3,363.28	79.6662	3,363.28	81.1805	3,363.28	78.0379	3,363.28	79.658	3,363.28	76.7629	3,363.28	77.9507	3,363.28	75.0517	3,363.28	75.4935	3,363.28	71.6602	3,363.28	73.5475	3,363.28	71.4606	3,363.28	71.314	3,363.28	69.6717	3,363.28	70.8319	3,363.28	70.59	3,363.28	68.8243	3,363.28	70.1973	3,363.28	69.319	3,363.28	69.9237	3,363.28	68.2658	3,363.28	66.7497	3,363.28	69.7545	3,363.28	66.1596	3,363.28	66.4898	3,363.28	68.4158
3,481.93	80.4698	3,481.93	81.4912	3,481.93	79.9525	3,481.93	81.6741	3,481.93	81.2911	3,481.93	81.8323	3,481.93	81.8315	3,481.93	81.5173	3,481.93	82.0807	3,481.93	81.566	3,481.93	81.6478	3,481.93	80.3189	3,481.93	80.7693	3,481.93	79.0334	3,481.93	79.0287	3,481.93	77.3517	3,481.93	77.4617	3,481.93	75.6901	3,481.93	75.1767	3,481.93	72.1421	3,481.93	73.2155	3,481.93	71.8048	3,481.93	72.2678	3,481.93	70.5864	3,481.93	71.3876	3,481.93	68.3629	3,481.93	69.2518	3,481.93	70.2488	3,481.93	68.6275	3,481.93	70.6406	3,481.93	68.7778	3,481.93	67.8747	3,481.93	69.3291	3,481.93	66.8979	3,481.93	66.2014	3,481.93	68.1851
3,604.98	80.479	3,604.98	81.714	3,604.98	80.0044	3,604.98	82.0845	3,604.98	81.6236	3,604.98	82.7153	3,604.98	82.5742	3,604.98	82.2128	3,604.98	83.3462	3,604.98	81.4036	3,604.98	82.4615	3,604.98	80.3191	3,604.98	81.2474	3,604.98	78.1141	3,604.98	80.3731	3,604.98	77.057	3,604.98	78.5743	3,604.98	75.6654	3,604.98	76.1165	3,604.98	72.9441	3,604.98	74.5351	3,604.98	71.3487	3,604.98	72.8537	3,604.98	69.7373	3,604.98	71.9477	3,604.98	68.6171	3,604.98	71.4001	3,604.98	71.0915	3,604.98	70.0379	3,604.98	71.0384	3,604.98	70.1848	3,604.98	70.2067	3,604.98	70.1685	3,604.98	68.7347	3,604.98	66.6862	3,604.98	68.1827
3,732.42	80.3405	3,732.42	81.4862	3,732.42	80.3665	3,732.42	82.7534	3,732.42	80.6548	3,732.42	83.617	3,732.42	82.0392	3,732.42	83.6302	3,732.42	82.5648	3,732.42	82.1993	3,732.42	81.7984	3,732.42	80.9402	3,732.42	80.8853	3,732.42	79.1499	3,732.42	79.7803	3,732.42	76.6327	3,732.42	77.6025	3,732.42	74.0934	3,732.42	75.0505	3,732.42	72.4193	3,732.42	73.6594	3,732.42	70.6502	3,732.42	71.5228	3,732.42	68.2525	3,732.42	68.6209	3,732.42	68.9712	3,732.42	68.9883	3,732.42	70.345	3,732.42	68.3231	3,732.42	70.314	3,732.42	67.7271	3,732.42	69.8618	3,732.42	69.6964	3,732.42	68.8089	3,732.42	67.1936	3,732.42	69.6183
3,864.26	78.749	3,864.26	78.975	3,864.26	79.6686	3,864.26	81.6792	3,864.26	78.9894	3,864.26	82.2884	3,864.26	80.4042	3,864.26	82.6332	3,864.26	81.2268	3,864.26	81.5987	3,864.26	81.2358	3,864.26	80.1184	3,864.26	80.1877	3,864.26	79.1128	3,864.26	79.1184	3,864.26	77.354	3,864.26	76.8889	3,864.26	74.1383	3,864.26	75.3812	3,864.26	73.053	3,864.26	72.5238	3,864.26	69.3904	3,864.26	70.2642	3,864.26	69.053	3,864.26	68.1108	3,864.26	68.8878	3,864.26	68.8853	3,864.26	70.2513	3,864.26	66.9038	3,864.26	67.3619	3,864.26	67.6595	3,864.26	69.4322	3,864.26	68.0989	3,864.26	70.768	3,864.26	67.7401	3,864.26	68.7578
4,000.49	80.1652	4,000.49	80.3501	4,000.49	80.0373	4,000.49	82.3213	4,000.49	81.1965	4,000.49	82.0658	4,000.49	82.0998	4,000.49	81.566	4,000.49	82.768	4,000.49	80.8097	4,000.49	82.5374	4,000.49	78.8526	4,000.49	81.4987	4,000.49	76.4992	4,000.49	80.0222	4,000.49	76.0317	4,000.49	77.8611	4,000.49	72.9509	4,000.49	76.4491	4,000.49	71.8968	4,000.49	74.2703	4,000.49	69.334	4,000.49	72.6404	4,000.49	69.0163	4,000.49	69.6236	4,000.49	66.6746	4,000.49	69.2249	4,000.49	69.9439	4,000.49	68.1374	4,000.49	68.7071	4,000.49	70.26	4,000.49	70.0815	4,000.49	68.6	4,000.49	67.5952	4,000.49	68.7145	4,000.49	68.5063
4,141.11	79.7999	4,141.11	82.237	4,141.11	78.6743	4,141.11	81.6833	4,141.11	81.4122	4,141.11	81.1081	4,141.11	81.4473	4,141.11	81.089	4,141.11	82.418	4,141.11	82.0443	4,141.11	81.6971	4,141.11	79.4693	4,141.11	80.6184	4,141.11	76.5793	4,141.11	78.6779	4,141.11	75.8845	4,141.11	77.0084	4,141.11	74.4354	4,141.11	74.6333	4,141.11	72.7063	4,141.11	72.9493	4,141.11	71.4448	4,141.11	70.387	4,141.11	68.7743	4,141.11	68.7839	4,141.11	67.6374	4,141.11	66.9257	4,141.11	70.023	4,141.11	66.7971	4,141.11	68.6942	4,141.11	68.2655	4,141.11	70.0556	4,141.11	67.416	4,141.11	65.6375	4,141.11	66.7051	4,141.11	66.4341
4,287.6	79.641	4,287.6	79.6462	4,287.6	79.9595	4,287.6	80.6963	4,287.6	80.5106	4,287.6	81.7603	4,287.6	82.042	4,287.6	81.3057	4,287.6	80.9958	4,287.6	78.9164	4,287.6	80.8797	4,287.6	78.8302	4,287.6	80.396	4,287.6	78.1177	4,287.6	78.4058	4,287.6	74.1326	4,287.6	77.3624	4,287.6	72.4659	4,287.6	76.0542	4,287.6	72.3511	4,287.6	72.0468	4,287.6	69.373	4,287.6	70.4074	4,287.6	69.7916	4,287.6	68.3901	4,287.6	66.5141	4,287.6	68.2797	4,287.6	68.6995	4,287.6	68.3108	4,287.6	68.5131	4,287.6	68.0082	4,287.6	68.9002	4,287.6	68.7257	4,287.6	66.613	4,287.6	68.6511	4,287.6	67.0634
4,438.48	79.1939	4,438.48	79.0336	4,438.48	79.1762	4,438.48	82.7376	4,438.48	79.463	4,438.48	83.4059	4,438.48	81.6236	4,438.48	82.4789	4,438.48	81.2398	4,438.48	81.2788	4,438.48	80.6415	4,438.48	80.7645	4,438.48	79.8961	4,438.48	78.3011	4,438.48	77.9873	4,438.48	74.4765	4,438.48	76.832	4,438.48	72.6259	4,438.48	75.3813	4,438.48	69.7706	4,438.48	73.1277	4,438.48	67.9868	4,438.48	72.239	4,438.48	67.3691	4,438.48	69.2045	4,438.48	65.9847	4,438.48	68.6107	4,438.48	68.2764	4,438.48	64.8669	4,438.48	66.1685	4,438.48	68.7736	4,438.48	67.0325	4,438.48	67.3203	4,438.48	67.043	4,438.48	68.3547	4,438.48	68.1602
4,595.21	79.7417	4,595.21	81.4637	4,595.21	79.3018	4,595.21	82.1157	4,595.21	81.4872	4,595.21	80.8769	4,595.21	80.9755	4,595.21	81.2285	4,595.21	82.0113	4,595.21	81.4823	4,595.21	82.1116	4,595.21	79.1435	4,595.21	80.6712	4,595.21	76.8023	4,595.21	79.7401	4,595.21	75.4125	4,595.21	77.7526	4,595.21	73.7809	4,595.21	75.4205	4,595.21	72.2645	4,595.21	73.1124	4,595.21	68.8506	4,595.21	71.0051	4,595.21	66.4138	4,595.21	69.6898	4,595.21	63.9042	4,595.21	68.1248	4,595.21	67.0965	4,595.21	64.6483	4,595.21	67.5162	4,595.21	69.2076	4,595.21	68.6664	4,595.21	66.4745	4,595.21	63.7354	4,595.21	67.566	4,595.21	66.6414
4,756.35	81.4346	4,756.35	81.5432	4,756.35	81.7085	4,756.35	80.9292	4,756.35	81.2367	4,756.35	80.2132	4,756.35	81.2752	4,756.35	79.7573	4,756.35	81.497	4,756.35	79.5227	4,756.35	80.1624	4,756.35	78.366	4,756.35	79.9967	4,756.35	77.1082	4,756.35	79.4933	4,756.35	75.6234	4,756.35	76.902	4,756.35	73.8888	4,756.35	74.1156	4,756.35	71.8828	4,756.35	72.0981	4,756.35	71.0131	4,756.35	69.0491	4,756.35	66.1165	4,756.35	68.9145	4,756.35	64.194	4,756.35	66.5751	4,756.35	65.4676	4,756.35	63.4254	4,756.35	68.0128	4,756.35	67.0208	4,756.35	68.9892	4,756.35	64.8697	4,756.35	63.9744	4,756.35	67.6795	4,756.35	65.051
4,924.8	81.706	4,924.8	80.4102	4,924.8	81.8518	4,924.8	80.9735	4,924.8	80.2794	4,924.8	81.8414	4,924.8	81.4167	4,924.8	80.7303	4,924.8	80.4591	4,924.8	78.332	4,924.8	79.9786	4,924.8	77.7016	4,924.8	79.2512	4,924.8	76.366	4,924.8	77.0733	4,924.8	75.1664	4,924.8	76.0821	4,924.8	72.9849	4,924.8	74.0475	4,924.8	70.5829	4,924.8	72.6058	4,924.8	69.342	4,924.8	71.1231	4,924.8	63.3203	4,924.8	66.6455	4,924.8	64.2901	4,924.8	62.6984	4,924.8	66.7422	4,924.8	65.15	4,924.8	66.7416	4,924.8	65.7038	4,924.8	68.971	4,924.8	66.2118	4,924.8	62.8812	4,924.8	68.6255	4,924.8	60.5684
5,097.66	81.6358	5,097.66	82.1269	5,097.66	80.6168	5,097.66	82.1555	5,097.66	81.3231	5,097.66	81.1328	5,097.66	80.2375	5,097.66	81.1915	5,097.66	80.6213	5,097.66	80.7604	5,097.66	81.0716	5,097.66	78.6785	5,097.66	78.5516	5,097.66	77.0364	5,097.66	77.1301	5,097.66	73.9122	5,097.66	75.912	5,097.66	72.9352	5,097.66	74.3558	5,097.66	71.3231	5,097.66	72.4242	5,097.66	66.3584	5,097.66	70.5604	5,097.66	64.6117	5,097.66	68.9912	5,097.66	63.9155	5,097.66	65.6808	5,097.66	64.0998	5,097.66	60.0598	5,097.66	63.143	5,097.66	63.3748	5,097.66	68.4296	5,097.66	64.545	5,097.66	65.1759	5,097.66	65.2668	5,097.66	63.3538
5,277.83	80.9538	5,277.83	79.9311	5,277.83	81.5143	5,277.83	80.1821	5,277.83	80.9385	5,277.83	79.1364	5,277.83	80.0923	5,277.83	78.0508	5,277.83	79.7453	5,277.83	78.0338	5,277.83	78.8987	5,277.83	77.6773	5,277.83	79.012	5,277.83	77.5119	5,277.83	78.6773	5,277.83	75.085	5,277.83	76.8024	5,277.83	72.7982	5,277.83	74.0301	5,277.83	72.0556	5,277.83	70.3539	5,277.83	69.4741	5,277.83	68.2083	5,277.83	66.6433	5,277.83	68.3326	5,277.83	64.79	5,277.83	64.6603	5,277.83	64.5592	5,277.83	63.6387	5,277.83	64.8703	5,277.83	62.7208	5,277.83	68.2461	5,277.83	61.6234	5,277.83	64.2659	5,277.83	65.5096	5,277.83	64.3323
5,463.87	81.5986	5,463.87	80.645	5,463.87	81.9129	5,463.87	80.0676	5,463.87	79.5787	5,463.87	80.4588	5,463.87	79.5171	5,463.87	79.467	5,463.87	79.2536	5,463.87	78.4819	5,463.87	78.9017	5,463.87	78.136	5,463.87	78.8124	5,463.87	75.7754	5,463.87	76.3811	5,463.87	72.5806	5,463.87	75.1629	5,463.87	71.5079	5,463.87	73.7002	5,463.87	68.339	5,463.87	72.2796	5,463.87	69.3924	5,463.87	69.7279	5,463.87	62.6178	5,463.87	66.7931	5,463.87	60.7122	5,463.87	64.2807	5,463.87	61.8128	5,463.87	61.4133	5,463.87	64.5547	5,463.87	63.3483	5,463.87	63.9767	5,463.87	63.9216	5,463.87	58.011	5,463.87	66.364	5,463.87	60.7434
5,657.23	81.6331	5,657.23	80.0221	5,657.23	81.543	5,657.23	79.1521	5,657.23	80.6775	5,657.23	78.4293	5,657.23	78.7794	5,657.23	79.7268	5,657.23	78.8381	5,657.23	79.5999	5,657.23	80.0788	5,657.23	78.9853	5,657.23	78.3423	5,657.23	76.3047	5,657.23	78.0551	5,657.23	75.4469	5,657.23	76.0453	5,657.23	73.1197	5,657.23	74.5644	5,657.23	69.9666	5,657.23	72.3236	5,657.23	68.7234	5,657.23	70.1271	5,657.23	63.6468	5,657.23	68.744	5,657.23	64.7134	5,657.23	64.1839	5,657.23	66.5256	5,657.23	63.3703	5,657.23	64.4313	5,657.23	62.9211	5,657.23	67.5146	5,657.23	64.6193	5,657.23	61.5065	5,657.23	68.0611	5,657.23	63.329
5,856.45	81.8555	5,856.45	80.006	5,856.45	81.3827	5,856.45	79.3576	5,856.45	80.2451	5,856.45	79.6166	5,856.45	78.6795	5,856.45	79.8177	5,856.45	77.9049	5,856.45	79.8451	5,856.45	78.2486	5,856.45	78.4272	5,856.45	78.6887	5,856.45	77.5782	5,856.45	78.0883	5,856.45	75.2109	5,856.45	76.4361	5,856.45	72.2443	5,856.45	73.4649	5,856.45	72.0941	5,856.45	72.1658	5,856.45	67.9268	5,856.45	69.2285	5,856.45	63.7518	5,856.45	67.484	5,856.45	63.0841	5,856.45	64.6339	5,856.45	63.6868	5,856.45	61.4227	5,856.45	66.3457	5,856.45	62.3925	5,856.45	65.369	5,856.45	63.5988	5,856.45	59.6058	5,856.45	65.1702	5,856.45	62.6385
6,062.99	82.6073	6,062.99	80.6508	6,062.99	82.5352	6,062.99	79.3013	6,062.99	80.6633	6,062.99	79.6945	6,062.99	79.6638	6,062.99	79.4063	6,062.99	80.1424	6,062.99	79.6126	6,062.99	80.0327	6,062.99	78.1744	6,062.99	78.93	6,062.99	76.3112	6,062.99	77.2513	6,062.99	73.923	6,062.99	75.6377	6,062.99	72.0393	6,062.99	73.3675	6,062.99	70.944	6,062.99	70.3536	6,062.99	67.6427	6,062.99	68.0889	6,062.99	60.9451	6,062.99	65.596	6,062.99	64.7502	6,062.99	63.3572	6,062.99	61.6541	6,062.99	62.325	6,062.99	65.7994	6,062.99	59.6424	6,062.99	66.3663	6,062.99	64.2861	6,062.99	52.3472	6,062.99	65.1252	6,062.99	54.1024
6,276.86	82.6572	6,276.86	81.2135	6,276.86	82.1426	6,276.86	80.2457	6,276.86	80.7402	6,276.86	80.1532	6,276.86	79.069	6,276.86	80.3768	6,276.86	79.0998	6,276.86	79.3755	6,276.86	79.7293	6,276.86	78.5018	6,276.86	78.7798	6,276.86	76.3141	6,276.86	77.2962	6,276.86	74.1059	6,276.86	75.0067	6,276.86	72.7798	6,276.86	73.0392	6,276.86	70.636	6,276.86	70.8753	6,276.86	67.4737	6,276.86	68.516	6,276.86	61.9404	6,276.86	65.5316	6,276.86	61.6607	6,276.86	62.5334	6,276.86	61.8903	6,276.86	56.6955	6,276.86	62.4021	6,276.86	59.3162	6,276.86	65.9146	6,276.86	62.775	6,276.86	59.5629	6,276.86	65.8945	6,276.86	58.1219
6,498.05	82.772	6,498.05	81.5376	6,498.05	82.298	6,498.05	80.472	6,498.05	80.9281	6,498.05	79.8716	6,498.05	79.6901	6,498.05	79.7382	6,498.05	79.6761	6,498.05	79.2895	6,498.05	79.6586	6,498.05	77.4634	6,498.05	78.7185	6,498.05	76.1291	6,498.05	76.5797	6,498.05	74.3246	6,498.05	75.1272	6,498.05	72.3917	6,498.05	72.8429	6,498.05	69.5607	6,498.05	69.9944	6,498.05	66.6254	6,498.05	68.083	6,498.05	63.4977	6,498.05	65.6689	6,498.05	59.7405	6,498.05	62.4526	6,498.05	61.4004	6,498.05	61.4775	6,498.05	64.7879	6,498.05	54.5737	6,498.05	65.4873	6,498.05	60.7164	6,498.05	57.3703	6,498.05	65.2119	6,498.05	55.5739
6,726.56	83.0945	6,726.56	81.7747	6,726.56	82.9609	6,726.56	81.0818	6,726.56	81.593	6,726.56	80.8904	6,726.56	80.6003	6,726.56	80.4509	6,726.56	80.2545	6,726.56	79.7528	6,726.56	79.708	6,726.56	78.2527	6,726.56	78.134	6,726.56	75.9114	6,726.56	76.2081	6,726.56	73.8128	6,726.56	74.069	6,726.56	70.8634	6,726.56	71.7805	6,726.56	69.3317	6,726.56	70.0553	6,726.56	67.7824	6,726.56	68.5176	6,726.56	63.9783	6,726.56	66.1916	6,726.56	61.6098	6,726.56	61.608	6,726.56	57.3019	6,726.56	58.6609	6,726.56	62.5432	6,726.56	57.3347	6,726.56	64.586	6,726.56	61.3539	6,726.56	58.6723	6,726.56	64.8015	6,726.56	57.1127
6,963.87	82.4127	6,963.87	81.7886	6,963.87	82.8656	6,963.87	80.6151	6,963.87	81.9726	6,963.87	79.7269	6,963.87	80.3832	6,963.87	79.4435	6,963.87	79.6592	6,963.87	77.4957	6,963.87	79.2645	6,963.87	76.6323	6,963.87	78.0097	6,963.87	74.6122	6,963.87	76.5188	6,963.87	72.5197	6,963.87	74.5937	6,963.87	69.7761	6,963.87	72.0335	6,963.87	66.9611	6,963.87	69.8112	6,963.87	67.1874	6,963.87	68.3577	6,963.87	64.2127	6,963.87	64.3593	6,963.87	59.4172	6,963.87	61.7655	6,963.87	59.8679	6,963.87	63.3501	6,963.87	62.2433	6,963.87	46.7115	6,963.87	64.3367	6,963.87	59.0187	6,963.87	56.11	6,963.87	62.4849	6,963.87	53.0379
7,209.96	83.4501	7,209.96	82.2584	7,209.96	83.0412	7,209.96	81.5023	7,209.96	82.1794	7,209.96	80.5914	7,209.96	81.2846	7,209.96	79.8593	7,209.96	79.7517	7,209.96	78.0007	7,209.96	79.3546	7,209.96	76.6952	7,209.96	78.1785	7,209.96	75.1057	7,209.96	76.3262	7,209.96	71.5014	7,209.96	74.7307	7,209.96	69.31	7,209.96	72.1412	7,209.96	69.3401	7,209.96	70.3582	7,209.96	65.3898	7,209.96	67.7726	7,209.96	63.5463	7,209.96	66.4045	7,209.96	60.0421	7,209.96	61.6191	7,209.96	58.1955	7,209.96	58.1306	7,209.96	62.6935	7,209.96	57.6407	7,209.96	62.7701	7,209.96	59.6931	7,209.96	49.736	7,209.96	62.9776	7,209.96	55.0411
7,464.84	82.3861	7,464.84	81.8211	7,464.84	82.5408	7,464.84	80.9246	7,464.84	82.459	7,464.84	80.1902	7,464.84	80.2001	7,464.84	78.6717	7,464.84	79.1494	7,464.84	78.3309	7,464.84	78.09	7,464.84	77.194	7,464.84	76.4833	7,464.84	74.6074	7,464.84	75.8324	7,464.84	71.9156	7,464.84	73.6832	7,464.84	69.1984	7,464.84	71.143	7,464.84	68.539	7,464.84	68.9632	7,464.84	65.3973	7,464.84	66.0519	7,464.84	61.5174	7,464.84	64.6164	7,464.84	59.9912	7,464.84	60.0999	7,464.84	56.1965	7,464.84	58.6316	7,464.84	60.0933	7,464.84	53.9604	7,464.84	62.7647	7,464.84	58.3921	7,464.84	53.448	7,464.84	63.248	7,464.84	53.2057
7,727.05	83.1757	7,727.05	83.1015	7,727.05	83.0811	7,727.05	82.0121	7,727.05	82.6675	7,727.05	80.2575	7,727.05	80.8716	7,727.05	78.9461	7,727.05	79.0686	7,727.05	77.3694	7,727.05	78.4875	7,727.05	76.4943	7,727.05	77.3975	7,727.05	73.9747	7,727.05	75.5715	7,727.05	71.1923	7,727.05	73.4713	7,727.05	68.5759	7,727.05	71.0861	7,727.05	67.0685	7,727.05	67.672	7,727.05	63.3459	7,727.05	66.0428	7,727.05	61.6731	7,727.05	64.1087	7,727.05	57.7977	7,727.05	59.4529	7,727.05	54.3297	7,727.05	55.7738	7,727.05	56.9297	7,727.05	50.8371	7,727.05	60.3425	7,727.05	57.1476	7,727.05	55.0854	7,727.05	62.3138	7,727.05	52.7167
7,999.51	82.6436	7,999.51	82.4415	7,999.51	82.7025	7,999.51	81.6912	7,999.51	82.7252	7,999.51	79.1975	7,999.51	81.2647	7,999.51	78.3648	7,999.51	79.3277	7,999.51	77.9906	7,999.51	78.332	7,999.51	76.0147	7,999.51	76.7815	7,999.51	73.1062	7,999.51	74.6459	7,999.51	69.1497	7,999.51	72.9708	7,999.51	67.8349	7,999.51	69.2943	7,999.51	66.5521	7,999.51	67.1303	7,999.51	61.6908	7,999.51	64.016	7,999.51	60.7532	7,999.51	62.0118	7,999.51	56.7047	7,999.51	59.4512	7,999.51	52.0186	7,999.51	51.7347	7,999.51	57.8217	7,999.51	48.7216	7,999.51	60.6994	7,999.51	56.2605	7,999.51	50.654	7,999.51	60.9621	7,999.51	45.6805
8,282.23	83.0214	8,282.23	82.7368	8,282.23	83.2347	8,282.23	81.7756	8,282.23	82.8815	8,282.23	79.8291	8,282.23	81.1811	8,282.23	78.5213	8,282.23	79.1637	8,282.23	76.9625	8,282.23	78.4826	8,282.23	75.2182	8,282.23	76.6912	8,282.23	71.8163	8,282.23	74.8963	8,282.23	69.9008	8,282.23	71.6482	8,282.23	66.8867	8,282.23	67.8535	8,282.23	64.8453	8,282.23	66.0906	8,282.23	61.6249	8,282.23	63.3701	8,282.23	59.0067	8,282.23	59.947	8,282.23	51.5274	8,282.23	58.1989	8,282.23	51.8949	8,282.23	51.47	8,282.23	57.2124	8,282.23	39.7687	8,282.23	58.9557	8,282.23	54.503	8,282.23	54.0674	8,282.23	60.0878	8,282.23	52.9303
8,573.73	83.048	8,573.73	82.7053	8,573.73	83.0103	8,573.73	81.8939	8,573.73	83.082	8,573.73	79.5516	8,573.73	81.5888	8,573.73	78.1344	8,573.73	80.3388	8,573.73	76.8061	8,573.73	78.6573	8,573.73	74.5995	8,573.73	76.7958	8,573.73	71.5066	8,573.73	73.9712	8,573.73	69.1883	8,573.73	70.6031	8,573.73	65.1817	8,573.73	67.92	8,573.73	63.7962	8,573.73	66.1389	8,573.73	59.0177	8,573.73	63.2753	8,573.73	55.3481	8,573.73	61.2933	8,573.73	53.7569	8,573.73	56.1824	8,573.73	50.919	8,573.73	55.3809	8,573.73	55.5595	8,573.73	46.984	8,573.73	57.8968	8,573.73	54.0192	8,573.73	52.2922	8,573.73	59.7375	8,573.73	51.3541
8,876.95	83.0771	8,876.95	82.8909	8,876.95	83.0736	8,876.95	81.6554	8,876.95	82.6908	8,876.95	79.9973	8,876.95	80.8231	8,876.95	78.324	8,876.95	79.1285	8,876.95	76.2195	8,876.95	77.9077	8,876.95	73.4075	8,876.95	75.8893	8,876.95	70.1569	8,876.95	72.543	8,876.95	68.1052	8,876.95	70.3162	8,876.95	64.4891	8,876.95	66.5254	8,876.95	63.5648	8,876.95	64.8623	8,876.95	61.568	8,876.95	62.2178	8,876.95	58.6103	8,876.95	58.1691	8,876.95	56.5989	8,876.95	57.1546	8,876.95	52.9361	8,876.95	55.0876	8,876.95	54.5567	8,876.95	50.9589	8,876.95	56.0804	8,876.95	49.5498	8,876.95	52.8767	8,876.95	57.4977	8,876.95	50.7503
9,188.96	83.0073	9,188.96	82.8294	9,188.96	83.1973	9,188.96	81.7439	9,188.96	82.9715	9,188.96	79.8212	9,188.96	81.333	9,188.96	78.2264	9,188.96	79.82	9,188.96	75.7293	9,188.96	78.2359	9,188.96	73.5109	9,188.96	75.7254	9,188.96	70.3774	9,188.96	72.8911	9,188.96	65.7501	9,188.96	69.874	9,188.96	62.8551	9,188.96	66.5674	9,188.96	62.7034	9,188.96	63.8241	9,188.96	60.0471	9,188.96	61.356	9,188.96	57.3269	9,188.96	59.8262	9,188.96	55.702	9,188.96	56.4209	9,188.96	51.9492	9,188.96	54.9618	9,188.96	54.0149	9,188.96	50.3272	9,188.96	55.8243	9,188.96	51.0363	9,188.96	52.1389	9,188.96	56.0028	9,188.96	51.4154
9,514.16	82.819	9,514.16	82.4232	9,514.16	83.0609	9,514.16	81.2855	9,514.16	82.5774	9,514.16	79.5947	9,514.16	80.7861	9,514.16	77.7655	9,514.16	79.0247	9,514.16	75.1639	9,514.16	77.9895	9,514.16	72.5122	9,514.16	75.5326	9,514.16	69.4761	9,514.16	72.7583	9,514.16	65.7168	9,514.16	69.4688	9,514.16	63.6482	9,514.16	66.4765	9,514.16	63.0733	9,514.16	64.3226	9,514.16	59.9382	9,514.16	61.9503	9,514.16	59.3279	9,514.16	60.0391	9,514.16	55.1959	9,514.16	57.4718	9,514.16	52.6719	9,514.16	53.5934	9,514.16	52.2249	9,514.16	53.2946	9,514.16	55.0086	9,514.16	47.0376	9,514.16	52.3189	9,514.16	56.0443	9,514.16	52.3075
9,849.61	82.7313	9,849.61	82.1385	9,849.61	82.7928	9,849.61	81.3465	9,849.61	82.2922	9,849.61	79.511	9,849.61	81.0335	9,849.61	77.556	9,849.61	79.2815	9,849.61	74.9129	9,849.61	77.4373	9,849.61	72.765	9,849.61	75.3161	9,849.61	69.8893	9,849.61	72.8431	9,849.61	66.6716	9,849.61	70.3935	9,849.61	64.6228	9,849.61	67.0755	9,849.61	62.9926	9,849.61	64.983	9,849.61	59.6041	9,849.61	62.0589	9,849.61	58.7191	9,849.61	60.1966	9,849.61	54.8792	9,849.61	56.6353	9,849.61	51.2335	9,849.61	56.0063	9,849.61	53.6934	9,849.61	51.6824	9,849.61	55.4088	9,849.61	47.4212	9,849.61	52.0418	9,849.61	56.573	9,849.61	49.0407
10,196.8	82.4503	10,196.8	81.5377	10,196.8	82.4592	10,196.8	80.955	10,196.8	82.1486	10,196.8	79.0216	10,196.8	80.5698	10,196.8	76.6945	10,196.8	78.2894	10,196.8	74.6143	10,196.8	77.1733	10,196.8	72.6931	10,196.8	75.3979	10,196.8	69.3677	10,196.8	72.8919	10,196.8	66.4256	10,196.8	69.6584	10,196.8	63.4184	10,196.8	66.5176	10,196.8	62.6686	10,196.8	64.1738	10,196.8	59.2878	10,196.8	61.2156	10,196.8	58.0511	10,196.8	59.02	10,196.8	56.0594	10,196.8	57.4514	10,196.8	53.0793	10,196.8	55.7941	10,196.8	51.8902	10,196.8	53.5093	10,196.8	50.6544	10,196.8	47.7531	10,196.8	52.5836	10,196.8	55.7757	10,196.8	48.6446
10,555.7	82.0296	10,555.7	80.9152	10,555.7	81.9041	10,555.7	80.5393	10,555.7	81.4843	10,555.7	78.4177	10,555.7	80.5308	10,555.7	75.9939	10,555.7	78.1574	10,555.7	74.2819	10,555.7	76.332	10,555.7	72.4895	10,555.7	74.8083	10,555.7	68.7959	10,555.7	72.3558	10,555.7	64.9487	10,555.7	70.2127	10,555.7	62.1749	10,555.7	65.9698	10,555.7	61.9278	10,555.7	63.103	10,555.7	58.0568	10,555.7	61.1005	10,555.7	57.0187	10,555.7	58.3596	10,555.7	54.4453	10,555.7	55.9779	10,555.7	54.5852	10,555.7	55.1164	10,555.7	51.5964	10,555.7	53.1655	10,555.7	51.5839	10,555.7	50.21	10,555.7	53.1465	10,555.7	53.8563	10,555.7	48.9036
10,927.7	81.5778	10,927.7	80.6428	10,927.7	81.5934	10,927.7	80.248	10,927.7	81.3954	10,927.7	77.4708	10,927.7	80.1979	10,927.7	75.3103	10,927.7	77.7514	10,927.7	74.0727	10,927.7	76.1632	10,927.7	71.4751	10,927.7	74.642	10,927.7	68.4805	10,927.7	72.6233	10,927.7	64.3714	10,927.7	69.0333	10,927.7	61.656	10,927.7	66.0597	10,927.7	60.7718	10,927.7	62.6909	10,927.7	58.0275	10,927.7	60.5536	10,927.7	56.9175	10,927.7	56.8268	10,927.7	54.0336	10,927.7	55.5898	10,927.7	54.1686	10,927.7	52.7533	10,927.7	48.4622	10,927.7	53.5229	10,927.7	49.3917	10,927.7	51.5081	10,927.7	52.7541	10,927.7	55.5063	10,927.7	50.1973
11,313	81.6238	11,313	80.6721	11,313	81.5106	11,313	80.1183	11,313	81.2908	11,313	77.1991	11,313	80.0762	11,313	74.9338	11,313	77.3626	11,313	73.5347	11,313	75.7258	11,313	71.0801	11,313	74.6117	11,313	68.3932	11,313	72.2611	11,313	65.5501	11,313	68.403	11,313	61.6572	11,313	65.315	11,313	60.7411	11,313	62.6511	11,313	58.4293	11,313	59.2669	11,313	57.6552	11,313	56.4773	11,313	53.4769	11,313	54.8548	11,313	53.3337	11,313	53.6779	11,313	51.0647	11,313	52.2461	11,313	46.4375	11,313	50.0328	11,313	52.2026	11,313	55.1652	11,313	48.3909
11,712.9	81.7163	11,712.9	80.6421	11,712.9	81.6934	11,712.9	80.1778	11,712.9	81.2946	11,712.9	77.1777	11,712.9	80.0031	11,712.9	75.1012	11,712.9	77.2077	11,712.9	73.8048	11,712.9	75.7717	11,712.9	71.4353	11,712.9	74.3085	11,712.9	68.1028	11,712.9	71.9097	11,712.9	65.2229	11,712.9	68.5672	11,712.9	62.2384	11,712.9	65.8195	11,712.9	61.2498	11,712.9	61.983	11,712.9	55.789	11,712.9	60.036	11,712.9	56.7818	11,712.9	55.9318	11,712.9	52.811	11,712.9	54.1218	11,712.9	53.8102	11,712.9	55.2047	11,712.9	47.9671	11,712.9	49.8542	11,712.9	46.5687	11,712.9	48.857	11,712.9	48.879	11,712.9	53.0074	11,712.9	39.5132
12,126	81.916	12,126	80.7479	12,126	81.7774	12,126	80.1216	12,126	81.2649	12,126	77.1179	12,126	79.7138	12,126	74.9291	12,126	77.3987	12,126	73.3571	12,126	75.4791	12,126	71.3794	12,126	73.9352	12,126	67.7861	12,126	71.5596	12,126	63.6776	12,126	68.3085	12,126	62.2047	12,126	65.4537	12,126	61.0765	12,126	61.9737	12,126	57.1239	12,126	59.8633	12,126	55.8079	12,126	56.1098	12,126	54.23	12,126	54.3796	12,126	53.4328	12,126	54.2729	12,126	45.7067	12,126	48.1378	12,126	49.0796	12,126	49.2194	12,126	46.0192	12,126	52.1327	12,126	39.9501
12,553.7	82.201	12,553.7	81.0268	12,553.7	81.9939	12,553.7	80.1666	12,553.7	81.3169	12,553.7	77.5794	12,553.7	79.6303	12,553.7	75.1975	12,553.7	77.4666	12,553.7	73.6071	12,553.7	74.8134	12,553.7	71.245	12,553.7	73.3165	12,553.7	68.8347	12,553.7	71.5273	12,553.7	64.8851	12,553.7	67.7454	12,553.7	62.1488	12,553.7	64.6649	12,553.7	60.328	12,553.7	61.4018	12,553.7	58.4554	12,553.7	59.2193	12,553.7	55.166	12,553.7	55.2845	12,553.7	54.7273	12,553.7	52.06	12,553.7	52.3791	12,553.7	53.7468	12,553.7	48.2113	12,553.7	46.4114	12,553.7	50.0757	12,553.7	50.0085	12,553.7	44.9491	12,553.7	52.8764	12,553.7	41.0996
12,996.1	82.3542	12,996.1	80.986	12,996.1	82.0813	12,996.1	79.9355	12,996.1	81.1216	12,996.1	77.8411	12,996.1	79.1587	12,996.1	74.5736	12,996.1	77.1611	12,996.1	72.9755	12,996.1	74.0716	12,996.1	71.3053	12,996.1	72.2463	12,996.1	67.916	12,996.1	70.4464	12,996.1	64.7399	12,996.1	66.2985	12,996.1	61.6395	12,996.1	63.3378	12,996.1	60.4548	12,996.1	60.2475	12,996.1	56.3517	12,996.1	57.0196	12,996.1	55.8882	12,996.1	53.484	12,996.1	53.3955	12,996.1	52.1204	12,996.1	52.3062	12,996.1	52.377	12,996.1	46.7826	12,996.1	44.2245	12,996.1	51.5089	12,996.1	49.1683	12,996.1	45.7	12,996.1	52.1566	12,996.1	44.6853
13,454.6	82.2384	13,454.6	80.8106	13,454.6	81.8358	13,454.6	79.8703	13,454.6	80.6177	13,454.6	77.7417	13,454.6	78.5616	13,454.6	74.0358	13,454.6	76.5236	13,454.6	72.1155	13,454.6	73.0909	13,454.6	70.5725	13,454.6	71.0039	13,454.6	66.8332	13,454.6	68.6171	13,454.6	63.4319	13,454.6	64.7105	13,454.6	60.1184	13,454.6	61.6013	13,454.6	59.5702	13,454.6	58.1125	13,454.6	56.0825	13,454.6	55.0403	13,454.6	54.6075	13,454.6	51.0015	13,454.6	52.834	13,454.6	50.4372	13,454.6	51.5384	13,454.6	50.8051	13,454.6	43.3606	13,454.6	40.4943	13,454.6	51.3515	13,454.6	48.3533	13,454.6	44.0262	13,454.6	49.758	13,454.6	45.4303
13,929.2	82.2148	13,929.2	80.3812	13,929.2	81.9577	13,929.2	79.462	13,929.2	80.1802	13,929.2	77.4767	13,929.2	78.2852	13,929.2	73.461	13,929.2	75.8936	13,929.2	71.2429	13,929.2	71.9582	13,929.2	69.2934	13,929.2	69.4038	13,929.2	65.6198	13,929.2	67.2338	13,929.2	61.8718	13,929.2	63.6092	13,929.2	59.5091	13,929.2	59.709	13,929.2	58.846	13,929.2	57.0983	13,929.2	55.1834	13,929.2	53.5171	13,929.2	53.6142	13,929.2	47.7321	13,929.2	51.113	13,929.2	49.9479	13,929.2	50.9592	13,929.2	50.2936	13,929.2	44.055	13,929.2	36.2835	13,929.2	50.857	13,929.2	47.6183	13,929.2	38.7547	13,929.2	49.4491	13,929.2	46.4618
14,419.9	82.1192	14,419.9	79.9243	14,419.9	81.8916	14,419.9	79.1045	14,419.9	79.9051	14,419.9	76.7498	14,419.9	78.1918	14,419.9	72.2296	14,419.9	75.3923	14,419.9	70.0837	14,419.9	71.1993	14,419.9	67.8707	14,419.9	67.8862	14,419.9	64.6979	14,419.9	66.0241	14,419.9	60.992	14,419.9	61.9129	14,419.9	58.1578	14,419.9	58.7822	14,419.9	57.9633	14,419.9	55.0073	14,419.9	54.6619	14,419.9	51.4048	14,419.9	53.9943	14,419.9	47.63	14,419.9	48.5028	14,419.9	48.7888	14,419.9	49.6147	14,419.9	47.9082	14,419.9	43.395	14,419.9	29.0235	14,419.9	50.6988	14,419.9	46.7801	14,419.9	36.7503	14,419.9	49.521	14,419.9	46.8825
14,928.2	82.3096	14,928.2	79.8449	14,928.2	82.1313	14,928.2	78.8506	14,928.2	79.9593	14,928.2	75.9662	14,928.2	78.1799	14,928.2	71.0198	14,928.2	75.0974	14,928.2	68.3443	14,928.2	70.9135	14,928.2	66.9767	14,928.2	66.9539	14,928.2	63.3292	14,928.2	64.4468	14,928.2	59.1936	14,928.2	59.9294	14,928.2	56.8651	14,928.2	55.7706	14,928.2	56.3366	14,928.2	52.747	14,928.2	52.7557	14,928.2	47.5852	14,928.2	50.7024	14,928.2	47.1212	14,928.2	46.3706	14,928.2	47.3088	14,928.2	47.8801	14,928.2	45.5686	14,928.2	42.7077	14,928.2	23.454	14,928.2	49.4796	14,928.2	45.5734	14,928.2	34.3889	14,928.2	48.9009	14,928.2	46.9043
15,455.6	82.8937	15,455.6	80.5208	15,455.6	82.7024	15,455.6	79.1137	15,455.6	80.7743	15,455.6	75.6368	15,455.6	78.5923	15,455.6	70.7719	15,455.6	75.0802	15,455.6	67.4519	15,455.6	70.5043	15,455.6	64.9751	15,455.6	65.6416	15,455.6	61.5583	15,455.6	61.5043	15,455.6	57.3966	15,455.6	54.3111	15,455.6	55.3428	15,455.6	51.663	15,455.6	54.9321	15,455.6	50.2422	15,455.6	51.8969	15,455.6	45.1111	15,455.6	49.1017	15,455.6	44.2157	15,455.6	44.4236	15,455.6	46.0796	15,455.6	47.9978	15,455.6	43.5432	15,455.6	46.0923	15,455.6	26.0283	15,455.6	48.9695	15,455.6	43.9667	15,455.6	15.4016	15,455.6	46.8537	15,455.6	46.7703
16,000.5	82.9836	16,000.5	80.8802	16,000.5	82.7719	16,000.5	78.9537	16,000.5	81.1731	16,000.5	74.998	16,000.5	78.504	16,000.5	70.5408	16,000.5	74.5228	16,000.5	65.4061	16,000.5	69.3404	16,000.5	61.3681	16,000.5	62.6609	16,000.5	60.5654	16,000.5	55.1139	16,000.5	57.2038	16,000.5	55.6385	16,000.5	55.2038	16,000.5	53.2045	16,000.5	54.0193	16,000.5	52.5935	16,000.5	51.6193	16,000.5	47.6045	16,000.5	47.2462	16,000.5	46.286	16,000.5	44.3419	16,000.5	48.1312	16,000.5	46.2416	16,000.5	41.6579	16,000.5	44.4608	16,000.5	33.9963	16,000.5	49.0523	16,000.5	44.0847	16,000.5	25.2361	16,000.5	44.8622	16,000.5	47.6144
16,564.5	82.4306	16,564.5	80.901	16,564.5	82.2474	16,564.5	77.8717	16,564.5	81.0027	16,564.5	73.7533	16,564.5	77.2648	16,564.5	68.9939	16,564.5	73.3583	16,564.5	61.877	16,564.5	67.228	16,564.5	60.1034	16,564.5	55.2402	16,564.5	61.1288	16,564.5	57.1862	16,564.5	57.0524	16,564.5	58.0496	16,564.5	55.105	16,564.5	54.5323	16,564.5	53.8687	16,564.5	53.4891	16,564.5	49.6202	16,564.5	46.6418	16,564.5	45.9773	16,564.5	47.4019	16,564.5	43.1977	16,564.5	48.473	16,564.5	45.0387	16,564.5	41.1682	16,564.5	45.6829	16,564.5	39.7989	16,564.5	47.9829	16,564.5	41.8801	16,564.5	37.6695	16,564.5	40.8351	16,564.5	48.6975
17,148.9	81.4034	17,148.9	80.2485	17,148.9	81.525	17,148.9	76.4686	17,148.9	80.1936	17,148.9	71.8955	17,148.9	75.7711	17,148.9	65.7729	17,148.9	71.4108	17,148.9	59.1879	17,148.9	62.5768	17,148.9	61.0396	17,148.9	57.3478	17,148.9	60.1262	17,148.9	59.6881	17,148.9	55.8579	17,148.9	56.3191	17,148.9	51.9179	17,148.9	52.1168	17,148.9	50.4698	17,148.9	48.9245	17,148.9	49.0799	17,148.9	45.0429	17,148.9	44.2232	17,148.9	44.3007	17,148.9	40.4727	17,148.9	43.1789	17,148.9	44.9272	17,148.9	38.5097	17,148.9	43.9054	17,148.9	39.3811	17,148.9	44.9684	17,148.9	40.6626	17,148.9	35.1066	17,148.9	29.9925	17,148.9	47.5351
17,752.4	80.5139	17,752.4	79.005	17,752.4	80.5844	17,752.4	74.9583	17,752.4	78.863	17,752.4	69.4135	17,752.4	74.3698	17,752.4	61.4577	17,752.4	68.2689	17,752.4	59.9663	17,752.4	57.5581	17,752.4	60.2434	17,752.4	58.845	17,752.4	57.1224	17,752.4	59.9615	17,752.4	52.0058	17,752.4	56.2748	17,752.4	47.7572	17,752.4	53.2292	17,752.4	45.2884	17,752.4	48.7889	17,752.4	47.1064	17,752.4	44.4052	17,752.4	43.9442	17,752.4	42.8278	17,752.4	36.611	17,752.4	40.2218	17,752.4	40.3102	17,752.4	38.1479	17,752.4	40.8378	17,752.4	35.8417	17,752.4	42.8756	17,752.4	36.418	17,752.4	32.7242	17,752.4	37.4952	17,752.4	44.672
18,379.4	79.7436	18,379.4	77.492	18,379.4	79.7714	18,379.4	73.3392	18,379.4	77.5484	18,379.4	66.1302	18,379.4	72.7548	18,379.4	59.3027	18,379.4	64.9811	18,379.4	60.1358	18,379.4	56.1118	18,379.4	58.9382	18,379.4	59.2852	18,379.4	55.7419	18,379.4	60.9066	18,379.4	51.496	18,379.4	58.1636	18,379.4	44.6759	18,379.4	53.904	18,379.4	43.8806	18,379.4	48.9352	18,379.4	42.8133	18,379.4	44.9826	18,379.4	36.8164	18,379.4	42.9795	18,379.4	28.3287	18,379.4	41.3378	18,379.4	37.9693	18,379.4	38.6924	18,379.4	35.563	18,379.4	32.9558	18,379.4	40.7499	18,379.4	31.8212	18,379.4	32.2288	18,379.4	38.7609	18,379.4	39.9297
19,026.9	79.3	19,026.9	76.6475	19,026.9	79.1926	19,026.9	72.3446	19,026.9	76.5738	19,026.9	63.18	19,026.9	71.2239	19,026.9	59.7329	19,026.9	62.4211	19,026.9	59.5644	19,026.9	57.9288	19,026.9	58.2998	19,026.9	59.6314	19,026.9	55.4682	19,026.9	61.591	19,026.9	49.7733	19,026.9	58.8941	19,026.9	43.5118	19,026.9	53.4705	19,026.9	43.2138	19,026.9	49.0274	19,026.9	45.1218	19,026.9	44.3221	19,026.9	34.6194	19,026.9	43.5941	19,026.9	26.6669	19,026.9	40.9629	19,026.9	35.2436	19,026.9	39.8048	19,026.9	31.4948	19,026.9	33.5646	19,026.9	38.6761	19,026.9	25.1587	19,026.9	35.562	19,026.9	37.1008	19,026.9	40.8552
19,697.8	78.827	19,697.8	76.0243	19,697.8	78.7036	19,697.8	71.1388	19,697.8	75.8484	19,697.8	61.4712	19,697.8	69.7928	19,697.8	59.2102	19,697.8	60.7771	19,697.8	59.486	19,697.8	59.3003	19,697.8	57.7719	19,697.8	59.9729	19,697.8	53.6111	19,697.8	61.1111	19,697.8	46.9358	19,697.8	57.8749	19,697.8	41.385	19,697.8	50.993	19,697.8	42.685	19,697.8	48.0369	19,697.8	41.0979	19,697.8	41.8084	19,697.8	32.2441	19,697.8	43.583	19,697.8	28.9838	19,697.8	40.4238	19,697.8	30.145	19,697.8	39.0693	19,697.8	28.3937	19,697.8	32.7738	19,697.8	40.4069	19,697.8	33.0995	19,697.8	40.0023	19,697.8	41.1785	19,697.8	43.1941
19,999.5	78.3662	19,999.5	75.9262	19,999.5	78.2437	19,999.5	70.7215	19,999.5	75.5859	19,999.5	61.481	19,999.5	69.2024	19,999.5	59.1696	19,999.5	59.8983	19,999.5	59.2663	19,999.5	59.3676	19,999.5	58.0791	19,999.5	59.9643	19,999.5	52.2496	19,999.5	60.5881	19,999.5	46.8708	19,999.5	57.0964	19,999.5	39.9785	19,999.5	46.6559	19,999.5	46.6954	19,999.5	45.0912	19,999.5	38.6576	19,999.5	43.9961	19,999.5	37.4009	19,999.5	45.9514	19,999.5	40.1118	19,999.5	38.3212	19,999.5	28.4059	19,999.5	39.8199	19,999.5	21.4031	19,999.5	36.2111	19,999.5	41.0469	19,999.5	39.2159	19,999.5	39.7282	19,999.5	40.7126	19,999.5	42.0689
