"SPL Vertical"
"On-Axis"		"10°"		"-10°"		"20°"		"-20°"		"30°"		"-30°"		"40°"		"-40°"		"50°"		"-50°"		"60°"		"-60°"		"70°"		"-70°"		"80°"		"-80°"		"90°"		"-90°"		"100°"		"-100°"		"110°"		"-110°"		"120°"		"-120°"		"130°"		"-130°"		"140°"		"-140°"		"150°"		"-150°"		"160°"		"-160°"		"170°"		"-170°"		"180°"
"Frequency [Hz]"	"Sound Pessure Level [dB]  / [2.83V 1m] "	"Frequency [Hz]"	"Sound Pessure Level [dB]  / [2.83V 1m] "	"Frequency [Hz]"	"Sound Pessure Level [dB]  / [2.83V 1m] "	"Frequency [Hz]"	"Sound Pessure Level [dB]  / [2.83V 1m] "	"Frequency [Hz]"	"Sound Pessure Level [dB]  / [2.83V 1m] "	"Frequency [Hz]"	"Sound Pessure Level [dB]  / [2.83V 1m] "	"Frequency [Hz]"	"Sound Pessure Level [dB]  / [2.83V 1m] "	"Frequency [Hz]"	"Sound Pessure Level [dB]  / [2.83V 1m] "	"Frequency [Hz]"	"Sound Pessure Level [dB]  / [2.83V 1m] "	"Frequency [Hz]"	"Sound Pessure Level [dB]  / [2.83V 1m] "	"Frequency [Hz]"	"Sound Pessure Level [dB]  / [2.83V 1m] "	"Frequency [Hz]"	"Sound Pessure Level [dB]  / [2.83V 1m] "	"Frequency [Hz]"	"Sound Pessure Level [dB]  / [2.83V 1m] "	"Frequency [Hz]"	"Sound Pessure Level [dB]  / [2.83V 1m] "	"Frequency [Hz]"	"Sound Pessure Level [dB]  / [2.83V 1m] "	"Frequency [Hz]"	"Sound Pessure Level [dB]  / [2.83V 1m] "	"Frequency [Hz]"	"Sound Pessure Level [dB]  / [2.83V 1m] "	"Frequency [Hz]"	"Sound Pessure Level [dB]  / [2.83V 1m] "	"Frequency [Hz]"	"Sound Pessure Level [dB]  / [2.83V 1m] "	"Frequency [Hz]"	"Sound Pessure Level [dB]  / [2.83V 1m] "	"Frequency [Hz]"	"Sound Pessure Level [dB]  / [2.83V 1m] "	"Frequency [Hz]"	"Sound Pessure Level [dB]  / [2.83V 1m] "	"Frequency [Hz]"	"Sound Pessure Level [dB]  / [2.83V 1m] "	"Frequency [Hz]"	"Sound Pessure Level [dB]  / [2.83V 1m] "	"Frequency [Hz]"	"Sound Pessure Level [dB]  / [2.83V 1m] "	"Frequency [Hz]"	"Sound Pessure Level [dB]  / [2.83V 1m] "	"Frequency [Hz]"	"Sound Pessure Level [dB]  / [2.83V 1m] "	"Frequency [Hz]"	"Sound Pessure Level [dB]  / [2.83V 1m] "	"Frequency [Hz]"	"Sound Pessure Level [dB]  / [2.83V 1m] "	"Frequency [Hz]"	"Sound Pessure Level [dB]  / [2.83V 1m] "	"Frequency [Hz]"	"Sound Pessure Level [dB]  / [2.83V 1m] "	"Frequency [Hz]"	"Sound Pessure Level [dB]  / [2.83V 1m] "	"Frequency [Hz]"	"Sound Pessure Level [dB]  / [2.83V 1m] "	"Frequency [Hz]"	"Sound Pessure Level [dB]  / [2.83V 1m] "	"Frequency [Hz]"	"Sound Pessure Level [dB]  / [2.83V 1m] "	"Frequency [Hz]"	"Sound Pessure Level [dB]  / [2.83V 1m] "
20.5078	45.7796	20.5078	44.7499	20.5078	46.3564	20.5078	43.1418	20.5078	46.5278	20.5078	40.6914	20.5078	46.2853	20.5078	36.9307	20.5078	45.5603	20.5078	33.1058	20.5078	44.1898	20.5078	36.8467	20.5078	41.7941	20.5078	41.7456	20.5078	37.2763	20.5078	45.2802	20.5078	26.1939	20.5078	47.9313	20.5078	36.2396	20.5078	50.0147	20.5078	43.0813	20.5078	51.6966	20.5078	47.105	20.5078	53.068	20.5078	49.9073	20.5078	54.1794	20.5078	51.9851	20.5078	55.0578	20.5078	53.5528	20.5078	55.7155	20.5078	54.7205	20.5078	56.1547	20.5078	55.5517	20.5078	56.3705	20.5078	56.0866	20.5078	56.3528
21.9727	48.352	21.9727	48.0473	21.9727	48.6726	21.9727	47.8861	21.9727	48.9205	21.9727	48.0079	21.9727	49.0463	21.9727	48.4996	21.9727	49.0382	21.9727	49.3411	21.9727	48.9322	21.9727	50.4249	21.9727	48.8353	21.9727	51.6247	21.9727	48.9416	21.9727	52.8425	21.9727	49.4694	21.9727	54.0168	21.9727	50.4956	21.9727	55.1122	21.9727	51.8758	21.9727	56.1086	21.9727	53.3764	21.9727	56.9925	21.9727	54.8171	21.9727	57.7535	21.9727	56.099	21.9727	58.3811	21.9727	57.1777	21.9727	58.8642	21.9727	58.0378	21.9727	59.1907	21.9727	58.6779	21.9727	59.3479	21.9727	59.1032	21.9727	59.3228
23.4375	52.1032	23.4375	51.6484	23.4375	52.4107	23.4375	51.0883	23.4375	52.5517	23.4375	50.5097	23.4375	52.5177	23.4375	50.0692	23.4375	52.3085	23.4375	49.9809	23.4375	51.9384	23.4375	50.4071	23.4375	51.4575	23.4375	51.3226	23.4375	50.992	23.4375	52.5405	23.4375	50.7817	23.4375	53.8598	23.4375	51.1112	23.4375	55.1467	23.4375	52.0696	23.4375	56.3304	23.4375	53.4439	23.4375	57.3769	23.4375	54.9329	23.4375	58.2685	23.4375	56.3312	23.4375	58.994	23.4375	57.5392	23.4375	59.5432	23.4375	58.5176	23.4375	59.9055	23.4375	59.2558	23.4375	60.0694	23.4375	59.7553	23.4375	60.0231
24.9023	54.3125	24.9023	53.9917	24.9023	54.5379	24.9023	53.6154	24.9023	54.6465	24.9023	53.2527	24.9023	54.6297	24.9023	53.0069	24.9023	54.4905	24.9023	53.0013	24.9023	54.2494	24.9023	53.3296	24.9023	53.9586	24.9023	53.9979	24.9023	53.7217	24.9023	54.9213	24.9023	53.6988	24.9023	55.9778	24.9023	54.0516	24.9023	57.0612	24.9023	54.8294	24.9023	58.0979	24.9023	55.9192	24.9023	59.042	24.9023	57.1336	24.9023	59.8646	24.9023	58.3139	24.9023	60.5459	24.9023	59.362	24.9023	61.07	24.9023	60.227	24.9023	61.4228	24.9023	60.8858	24.9023	61.5914	24.9023	61.3311	24.9023	61.5641
26.3672	55.8796	26.3672	55.5905	26.3672	56.0933	26.3672	55.2668	26.3672	56.2096	26.3672	54.9743	26.3672	56.22	26.3672	54.8057	26.3672	56.1286	26.3672	54.8635	26.3672	55.9576	26.3672	55.2186	26.3672	55.7581	26.3672	55.8695	26.3672	55.6232	26.3672	56.7432	26.3672	55.6852	26.3672	57.7375	26.3672	56.0686	26.3672	58.7602	26.3672	56.8072	26.3672	59.7446	26.3672	57.8119	26.3672	60.6465	26.3672	58.9312	26.3672	61.4368	26.3672	60.0282	26.3672	62.0946	26.3672	61.011	26.3672	62.603	26.3672	61.8276	26.3672	62.9475	26.3672	62.4521	26.3672	63.1148	26.3672	62.8743	26.3672	63.0934
27.832	57.9817	27.832	57.7662	27.832	58.146	27.832	57.5332	27.832	58.239	27.832	57.3327	27.832	58.2522	27.832	57.2295	27.832	58.1886	27.832	57.2926	27.832	58.0667	27.832	57.5724	27.832	57.928	27.832	58.078	27.832	57.844	27.832	58.7725	27.832	57.9127	27.832	59.5899	27.832	58.2283	27.832	60.4597	27.832	58.8278	27.832	61.3217	27.832	59.6613	27.832	62.1301	27.832	60.6191	27.832	62.8513	27.832	61.5856	27.832	63.4595	27.832	62.4717	27.832	63.9343	27.832	63.2203	27.832	64.2584	27.832	63.7993	27.832	64.417	27.832	64.1932	27.832	64.398
29.2969	59.5827	29.2969	59.3989	29.2969	59.7229	29.2969	59.2014	29.2969	59.8021	29.2969	59.0347	29.2969	59.8138	29.2969	58.9556	29.2969	59.7633	29.2969	59.0243	29.2969	59.6701	29.2969	59.2857	29.2969	59.5739	29.2969	59.751	29.2969	59.5388	29.2969	60.3917	29.2969	59.6478	29.2969	61.1521	29.2969	59.9761	29.2969	61.9693	29.2969	60.5508	29.2969	62.7866	29.2969	61.3291	29.2969	63.5593	29.2969	62.2189	29.2969	64.253	29.2969	63.1197	29.2969	64.8414	29.2969	63.9503	29.2969	65.3031	29.2969	64.6556	29.2969	65.6204	29.2969	65.2026	29.2969	65.7785	29.2969	65.5745	29.2969	65.7658
30.7617	61.4965	30.7617	61.3469	30.7617	61.6145	30.7617	61.1893	30.7617	61.6864	30.7617	61.0576	30.7617	61.7068	30.7617	60.9941	30.7617	61.6793	30.7617	61.0438	30.7617	61.6193	30.7617	61.243	30.7617	61.5571	30.7617	61.607	30.7617	61.5412	30.7617	62.1233	30.7617	61.6342	30.7617	62.756	30.7617	61.8957	30.7617	63.4568	30.7617	62.3557	30.7617	64.1767	30.7617	62.9938	30.7617	64.8722	30.7617	63.7457	30.7617	65.5076	30.7617	64.5293	30.7617	66.0537	30.7617	65.2691	30.7617	66.4868	30.7617	65.9086	30.7617	66.7871	30.7617	66.4105	30.7617	66.9388	30.7617	66.754	30.7617	66.93
32.2266	62.7761	32.2266	62.6487	32.2266	62.8765	32.2266	62.516	32.2266	62.9373	32.2266	62.4088	32.2266	62.9542	32.2266	62.3654	32.2266	62.9318	32.2266	62.4262	32.2266	62.8857	32.2266	62.624	32.2266	62.845	32.2266	62.973	32.2266	62.8543	32.2266	63.4633	32.2266	62.9691	32.2266	64.0636	32.2266	63.2407	32.2266	64.7304	32.2266	63.6933	32.2266	65.4183	32.2266	64.3077	32.2266	66.0857	32.2266	65.0262	32.2266	66.6978	32.2266	65.7741	32.2266	67.2255	32.2266	66.4817	32.2266	67.6451	32.2266	67.095	32.2266	67.9368	32.2266	67.5775	32.2266	68.0847	32.2266	67.9081	32.2266	68.0773
33.6914	64.2907	33.6914	64.1815	33.6914	64.3834	33.6914	64.0748	33.6914	64.4485	33.6914	63.9967	33.6914	64.4819	33.6914	63.9786	33.6914	64.4877	33.6914	64.0527	33.6914	64.4793	33.6914	64.2448	33.6914	64.4811	33.6914	64.5664	33.6914	64.5291	33.6914	65.0103	33.6914	64.6667	33.6914	65.5523	33.6914	64.9335	33.6914	66.1571	33.6914	65.3483	33.6914	66.7858	33.6914	65.8974	33.6914	67.4013	33.6914	66.5363	33.6914	67.9706	33.6914	67.2042	33.6914	68.4656	33.6914	67.8408	33.6914	68.8623	33.6914	68.3961	33.6914	69.1411	33.6914	68.8349	33.6914	69.286	33.6914	69.1349	33.6914	69.2858
35.1562	65.7931	35.1562	65.7122	35.1562	65.8652	35.1562	65.6375	35.1562	65.9198	35.1562	65.5895	35.1562	65.9543	35.1562	65.5927	35.1562	65.9728	35.1562	65.6724	35.1562	65.987	35.1562	65.849	35.1562	66.0172	35.1562	66.1333	35.1562	66.0921	35.1562	66.5221	35.1562	66.2454	35.1562	66.9984	35.1562	66.5067	35.1562	67.5352	35.1562	66.8901	35.1562	68.1001	35.1562	67.3851	35.1562	68.6601	35.1562	67.9566	35.1562	69.1843	35.1562	68.555	35.1562	69.645	35.1562	69.128	35.1562	70.0182	35.1562	69.6304	35.1562	70.2837	35.1562	70.0282	35.1562	70.4255	35.1562	70.2993	35.1562	70.4324
36.6211	67.1721	36.6211	67.0901	36.6211	67.2483	36.6211	67.0151	36.6211	67.3109	36.6211	66.9645	36.6211	67.3575	36.6211	66.9593	36.6211	67.3909	36.6211	67.0214	36.6211	67.4203	36.6211	67.1691	36.6211	67.4618	36.6211	67.4131	36.6211	67.5382	36.6211	67.7529	36.6211	67.6769	36.6211	68.1759	36.6211	67.9032	36.6211	68.6596	36.6211	68.2315	36.6211	69.1754	36.6211	68.6571	36.6211	69.6929	36.6211	69.1543	36.6211	70.1823	36.6211	69.6822	36.6211	70.6163	36.6211	70.1946	36.6211	70.9708	36.6211	70.6487	36.6211	71.2254	36.6211	71.0107	36.6211	71.3642	36.6211	71.2574	36.6211	71.3764
38.0859	68.2675	38.0859	68.2037	38.0859	68.3297	38.0859	68.1486	38.0859	68.3838	38.0859	68.117	38.0859	68.4284	38.0859	68.1264	38.0859	68.4664	38.0859	68.1949	38.0859	68.5063	38.0859	68.3382	38.0859	68.5622	38.0859	68.566	38.0859	68.6537	38.0859	68.8787	38.0859	68.8034	38.0859	69.2668	38.0859	69.0318	38.0859	69.7117	38.0859	69.3499	38.0859	70.1889	38.0859	69.7526	38.0859	70.671	38.0859	70.2173	38.0859	71.13	38.0859	70.708	38.0859	71.54	38.0859	71.1835	38.0859	71.8774	38.0859	71.6048	38.0859	72.122	38.0859	71.9401	38.0859	72.2579	38.0859	72.1675	38.0859	72.2745
39.5508	69.2652	39.5508	69.2081	39.5508	69.3232	39.5508	69.161	39.5508	69.3769	39.5508	69.1365	39.5508	69.4248	39.5508	69.1496	39.5508	69.4699	39.5508	69.2161	39.5508	69.5195	39.5508	69.3497	39.5508	69.5857	39.5508	69.5591	39.5508	69.6852	39.5508	69.8456	39.5508	69.837	39.5508	70.2017	39.5508	70.058	39.5508	70.6119	39.5508	70.3571	39.5508	71.0547	39.5508	70.7301	39.5508	71.5052	39.5508	71.1575	39.5508	71.9373	39.5508	71.608	39.5508	72.326	39.5508	72.0447	39.5508	72.6483	39.5508	72.4319	39.5508	72.8845	39.5508	72.7396	39.5508	73.0189	39.5508	72.9467	39.5508	73.041
41.0156	70.6342	41.0156	70.5593	41.0156	70.7181	41.0156	70.5007	41.0156	70.8064	41.0156	70.4684	41.0156	70.8968	41.0156	70.474	41.0156	70.9899	41.0156	70.5296	41.0156	71.0889	41.0156	70.6457	41.0156	71.1998	41.0156	70.8293	41.0156	71.3315	41.0156	71.0814	41.0156	71.4945	41.0156	71.3962	41.0156	71.6988	41.0156	71.7612	41.0156	71.9507	41.0156	72.1585	41.0156	72.2492	41.0156	72.5666	41.0156	72.5838	41.0156	72.9625	41.0156	72.9349	41.0156	73.3231	41.0156	73.2764	41.0156	73.6273	41.0156	73.5802	41.0156	73.8564	41.0156	73.8205	41.0156	73.9961	41.0156	73.9771	41.0156	74.0372
42.4805	71.5473	42.4805	71.487	42.4805	71.6128	42.4805	71.4403	42.4805	71.6772	42.4805	71.4171	42.4805	71.7375	42.4805	71.4282	42.4805	71.7935	42.4805	71.4841	42.4805	71.8489	42.4805	71.5937	42.4805	71.911	42.4805	71.7622	42.4805	71.9907	42.4805	71.9907	42.4805	72.101	42.4805	72.2741	42.4805	72.2549	42.4805	72.602	42.4805	72.4621	42.4805	72.9587	42.4805	72.7249	42.4805	73.325	42.4805	73.0355	42.4805	73.6793	42.4805	73.3753	42.4805	73.9998	42.4805	73.7181	42.4805	74.2654	42.4805	74.034	42.4805	74.4575	42.4805	74.295	42.4805	74.5618	42.4805	74.4784	42.4805	74.5694
43.9453	72.2968	43.9453	72.2373	43.9453	72.362	43.9453	72.1911	43.9453	72.4272	43.9453	72.1673	43.9453	72.4893	43.9453	72.1756	43.9453	72.548	43.9453	72.2255	43.9453	72.6064	43.9453	72.3249	43.9453	72.6711	43.9453	72.479	43.9453	72.7515	43.9453	72.6889	43.9453	72.8594	43.9453	72.9506	43.9453	73.0064	43.9453	73.2551	43.9453	73.2012	43.9453	73.5883	43.9453	73.446	43.9453	73.9327	43.9453	73.7338	43.9453	74.2683	43.9453	74.0479	43.9453	74.574	43.9453	74.3641	43.9453	74.8298	43.9453	74.6548	43.9453	75.0175	43.9453	74.8936	43.9453	75.1231	43.9453	75.0593	43.9453	75.1377
45.4102	72.9462	45.4102	72.8905	45.4102	73.0089	45.4102	72.8487	45.4102	73.0738	45.4102	72.8284	45.4102	73.1377	45.4102	72.8382	45.4102	73.2004	45.4102	72.8859	45.4102	73.2641	45.4102	72.9786	45.4102	73.3341	45.4102	73.1207	45.4102	73.4183	45.4102	73.3135	45.4102	73.5264	45.4102	73.554	45.4102	73.6681	45.4102	73.8345	45.4102	73.8508	45.4102	74.1428	45.4102	74.0765	45.4102	74.4632	45.4102	74.3395	45.4102	74.7771	45.4102	74.6254	45.4102	75.0651	45.4102	74.913	45.4102	75.3078	45.4102	75.1772	45.4102	75.4879	45.4102	75.3939	45.4102	75.5917	45.4102	75.5428	45.4102	75.6107
46.875	73.6028	46.875	73.5518	46.875	73.6619	46.875	73.5143	46.875	73.7248	46.875	73.4971	46.875	73.7892	46.875	73.5071	46.875	73.8546	46.875	73.5513	46.875	73.9229	46.875	73.6357	46.875	73.9982	46.875	73.7646	46.875	74.0868	46.875	73.9393	46.875	74.1963	46.875	74.1579	46.875	74.3343	46.875	74.414	46.875	74.5068	46.875	74.6973	46.875	74.7151	46.875	74.9936	46.875	74.9546	46.875	75.2862	46.875	75.2129	46.875	75.5569	46.875	75.4716	46.875	75.7872	46.875	75.7086	46.875	75.9605	46.875	75.9018	46.875	76.0636	46.875	76.0325	46.875	76.0883
48.3398	74.1655	48.3398	74.1166	48.3398	74.2237	48.3398	74.0819	48.3398	74.2876	48.3398	74.067	48.3398	74.3548	48.3398	74.078	48.3398	74.4247	48.3398	74.1208	48.3398	74.4986	48.3398	74.2005	48.3398	74.5796	48.3398	74.3209	48.3398	74.6727	48.3398	74.4832	48.3398	74.7836	48.3398	74.6857	48.3398	74.9186	48.3398	74.9231	48.3398	75.0822	48.3398	75.1863	48.3398	75.2758	48.3398	75.4627	48.3398	75.495	48.3398	75.7371	48.3398	75.7296	48.3398	75.9924	48.3398	75.9633	48.3398	76.2113	48.3398	76.1766	48.3398	76.3782	48.3398	76.3492	48.3398	76.4803	48.3398	76.4641	48.3398	76.5095
51.2695	75.1169	51.2695	75.0701	51.2695	75.1752	51.2695	75.0386	51.2695	75.2419	51.2695	75.0266	51.2695	75.3149	51.2695	75.0384	51.2695	75.3933	51.2695	75.0782	51.2695	75.4773	51.2695	75.1498	51.2695	75.5684	51.2695	75.2557	51.2695	75.6692	51.2695	75.3968	51.2695	75.7831	51.2695	75.572	51.2695	75.9135	51.2695	75.7773	51.2695	76.063	51.2695	76.0058	51.2695	76.2318	51.2695	76.2474	51.2695	76.4167	51.2695	76.4896	51.2695	76.6101	51.2695	76.7179	51.2695	76.7995	51.2695	76.9172	51.2695	76.9696	51.2695	77.0734	51.2695	77.1041	51.2695	77.1747	51.2695	77.1889	51.2695	77.2138
52.7344	75.5508	52.7344	75.5059	52.7344	75.6079	52.7344	75.4763	52.7344	75.6744	52.7344	75.4655	52.7344	75.7483	52.7344	75.4769	52.7344	75.8284	52.7344	75.5141	52.7344	75.9146	52.7344	75.5798	52.7344	76.0074	52.7344	75.6762	52.7344	76.1084	52.7344	75.8041	52.7344	76.2197	52.7344	75.9626	52.7344	76.3436	52.7344	76.1486	52.7344	76.482	52.7344	76.3562	52.7344	76.6348	52.7344	76.5768	52.7344	76.7996	52.7344	76.7992	52.7344	76.9698	52.7344	77.0104	52.7344	77.1354	52.7344	77.1965	52.7344	77.283	52.7344	77.3442	52.7344	77.3983	52.7344	77.4425	52.7344	77.4686	52.7344	77.4846
54.1992	75.9439	54.1992	75.9021	54.1992	75.9984	54.1992	75.8756	54.1992	76.0632	54.1992	75.867	54.1992	76.1365	54.1992	75.8792	54.1992	76.2169	54.1992	75.9147	54.1992	76.3039	54.1992	75.9759	54.1992	76.3974	54.1992	76.0644	54.1992	76.4981	54.1992	76.1808	54.1992	76.607	54.1992	76.3247	54.1992	76.7255	54.1992	76.4934	54.1992	76.8546	54.1992	76.6821	54.1992	76.9943	54.1992	76.8835	54.1992	77.1423	54.1992	77.0876	54.1992	77.2935	54.1992	77.2828	54.1992	77.4393	54.1992	77.4563	54.1992	77.5681	54.1992	77.5957	54.1992	77.6675	54.1992	77.6907	54.1992	77.7257	54.1992	77.7346
55.6641	76.3264	55.6641	76.2859	55.6641	76.3796	55.6641	76.2601	55.6641	76.4435	55.6641	76.2514	55.6641	76.5164	55.6641	76.262	55.6641	76.597	55.6641	76.2938	55.6641	76.6844	55.6641	76.3489	55.6641	76.778	55.6641	76.4286	55.6641	76.8779	55.6641	76.5337	55.6641	76.9843	55.6641	76.6638	55.6641	77.0978	55.6641	76.8169	55.6641	77.2188	55.6641	76.9891	55.6641	77.347	55.6641	77.174	55.6641	77.4805	55.6641	77.363	55.6641	77.6147	55.6641	77.5452	55.6641	77.7425	55.6641	77.709	55.6641	77.8538	55.6641	77.8428	55.6641	77.9376	55.6641	77.9366	55.6641	77.9835	55.6641	77.9842
58.5938	76.9438	58.5938	76.9038	58.5938	76.9975	58.5938	76.8789	58.5938	77.0633	58.5938	76.8705	58.5938	77.1396	58.5938	76.8797	58.5938	77.2248	58.5938	76.9078	58.5938	77.3172	58.5938	76.9555	58.5938	77.4154	58.5938	77.0237	58.5938	77.5179	58.5938	77.1127	58.5938	77.6235	58.5938	77.2223	58.5938	77.7312	58.5938	77.3512	58.5938	77.8401	58.5938	77.4967	58.5938	77.9495	58.5938	77.6541	58.5938	78.0575	58.5938	77.8169	58.5938	78.1612	58.5938	77.9764	58.5938	78.2556	58.5938	78.123	58.5938	78.3337	58.5938	78.2468	58.5938	78.3875	58.5938	78.3391	58.5938	78.4095	58.5938	78.394
60.0586	77.269	60.0586	77.233	60.0586	77.3183	60.0586	77.2112	60.0586	77.3797	60.0586	77.2046	60.0586	77.4518	60.0586	77.2137	60.0586	77.5331	60.0586	77.2393	60.0586	77.6219	60.0586	77.282	60.0586	77.7163	60.0586	77.3423	60.0586	77.8145	60.0586	77.4205	60.0586	77.9147	60.0586	77.5167	60.0586	78.0154	60.0586	77.63	60.0586	78.1152	60.0586	77.7584	60.0586	78.2132	60.0586	77.8981	60.0586	78.3079	60.0586	78.0436	60.0586	78.3969	60.0586	78.1875	60.0586	78.4762	60.0586	78.3211	60.0586	78.5403	60.0586	78.4354	60.0586	78.5824	60.0586	78.5224	60.0586	78.5961	60.0586	78.5767
62.9883	77.9809	62.9883	77.941	62.9883	78.0334	62.9883	77.9143	62.9883	78.0974	62.9883	77.9013	62.9883	78.1714	62.9883	77.9025	62.9883	78.2538	62.9883	77.9179	62.9883	78.3426	62.9883	77.9479	62.9883	78.4353	62.9883	77.9926	62.9883	78.5295	62.9883	78.0523	62.9883	78.6225	62.9883	78.1273	62.9883	78.7119	62.9883	78.2171	62.9883	78.7959	62.9883	78.3208	62.9883	78.8731	62.9883	78.4358	62.9883	78.9424	62.9883	78.5583	62.9883	79.0024	62.9883	78.6825	62.9883	79.051	62.9883	78.8015	62.9883	79.0848	62.9883	78.9078	62.9883	79.0996	62.9883	78.9944	62.9883	79.0911	62.9883	79.0563
64.4531	78.2234	64.4531	78.1836	64.4531	78.2767	64.4531	78.1577	64.4531	78.3426	64.4531	78.1459	64.4531	78.4196	64.4531	78.1482	64.4531	78.506	64.4531	78.1645	64.4531	78.5995	64.4531	78.1945	64.4531	78.6973	64.4531	78.2382	64.4531	78.7961	64.4531	78.2956	64.4531	78.8928	64.4531	78.3668	64.4531	78.9842	64.4531	78.4514	64.4531	79.0681	64.4531	78.5487	64.4531	79.1424	64.4531	78.6567	64.4531	79.206	64.4531	78.7722	64.4531	79.2578	64.4531	78.8904	64.4531	79.2962	64.4531	79.005	64.4531	79.319	64.4531	79.1094	64.4531	79.3229	64.4531	79.197	64.4531	79.305	64.4531	79.263
67.3828	78.6538	67.3828	78.6169	67.3828	78.7055	67.3828	78.5942	67.3828	78.7716	67.3828	78.5852	67.3828	78.8509	67.3828	78.5887	67.3828	78.9414	67.3828	78.6039	67.3828	79.0401	67.3828	78.6298	67.3828	79.1432	67.3828	78.666	67.3828	79.2464	67.3828	78.7123	67.3828	79.3451	67.3828	78.7687	67.3828	79.4353	67.3828	78.8355	67.3828	79.5133	67.3828	78.9127	67.3828	79.5766	67.3828	78.9995	67.3828	79.6238	67.3828	79.0944	67.3828	79.6543	67.3828	79.1943	67.3828	79.6682	67.3828	79.2949	67.3828	79.6651	67.3828	79.3911	67.3828	79.6448	67.3828	79.4777	67.3828	79.6066	67.3828	79.5505
68.8477	78.8622	68.8477	78.8263	68.8477	78.9128	68.8477	78.8046	68.8477	78.978	68.8477	78.7961	68.8477	79.0566	68.8477	78.7994	68.8477	79.1464	68.8477	78.8133	68.8477	79.2445	68.8477	78.8365	68.8477	79.3466	68.8477	78.8682	68.8477	79.4482	68.8477	78.9082	68.8477	79.5446	68.8477	78.9565	68.8477	79.631	68.8477	79.0135	68.8477	79.7036	68.8477	79.0794	68.8477	79.7597	68.8477	79.1542	68.8477	79.7978	68.8477	79.2371	68.8477	79.8176	68.8477	79.3259	68.8477	79.8196	68.8477	79.4175	68.8477	79.8047	68.8477	79.5075	68.8477	79.7737	68.8477	79.5916	68.8477	79.727	68.8477	79.6658
71.7773	79.41	71.7773	79.3758	71.7773	79.4584	71.7773	79.3547	71.7773	79.5209	71.7773	79.3453	71.7773	79.5967	71.7773	79.3459	71.7773	79.6836	71.7773	79.3548	71.7773	79.7785	71.7773	79.3703	71.7773	79.877	71.7773	79.3915	71.7773	79.9741	71.7773	79.4178	71.7773	80.0643	71.7773	79.4492	71.7773	80.1424	71.7773	79.4864	71.7773	80.2039	71.7773	79.5304	71.7773	80.2454	71.7773	79.5821	71.7773	80.2655	71.7773	79.6422	71.7773	80.2643	71.7773	79.7102	71.7773	80.2435	71.7773	79.7848	71.7773	80.2058	71.7773	79.8634	71.7773	80.1541	71.7773	79.9429	71.7773	80.0913	71.7773	80.0199
74.707	79.906	74.707	79.8732	74.707	79.9533	74.707	79.8538	74.707	80.0154	74.707	79.8457	74.707	80.0916	74.707	79.8467	74.707	80.1796	74.707	79.8545	74.707	80.2759	74.707	79.867	74.707	80.3759	74.707	79.8827	74.707	80.4739	74.707	79.9008	74.707	80.5638	74.707	79.9211	74.707	80.6395	74.707	79.9445	74.707	80.6957	74.707	79.9725	74.707	80.7286	74.707	80.007	74.707	80.7365	74.707	80.0497	74.707	80.7197	74.707	80.1019	74.707	80.6809	74.707	80.164	74.707	80.6241	74.707	80.2349	74.707	80.5542	74.707	80.3126	74.707	80.476	74.707	80.3942
77.6367	80.2557	77.6367	80.2231	77.6367	80.3023	77.6367	80.203	77.6367	80.3633	77.6367	80.1932	77.6367	80.4379	77.6367	80.1912	77.6367	80.5239	77.6367	80.1943	77.6367	80.6178	77.6367	80.2002	77.6367	80.7145	77.6367	80.2069	77.6367	80.8082	77.6367	80.2136	77.6367	80.8922	77.6367	80.2202	77.6367	80.9602	77.6367	80.2275	77.6367	81.0065	77.6367	80.2376	77.6367	81.027	77.6367	80.2533	77.6367	81.0199	77.6367	80.2774	77.6367	80.986	77.6367	80.3128	77.6367	80.9285	77.6367	80.3612	77.6367	80.853	77.6367	80.4232	77.6367	80.7658	77.6367	80.4979	77.6367	80.6737	77.6367	80.5827
79.1016	80.4247	79.1016	80.3912	79.1016	80.4714	79.1016	80.3696	79.1016	80.532	79.1016	80.3575	79.1016	80.6055	79.1016	80.3524	79.1016	80.6899	79.1016	80.3515	79.1016	80.7814	79.1016	80.3525	79.1016	80.8752	79.1016	80.3533	79.1016	80.9652	79.1016	80.3529	79.1016	81.0447	79.1016	80.3514	79.1016	81.1073	79.1016	80.3497	79.1016	81.1472	79.1016	80.3502	79.1016	81.1602	79.1016	80.356	79.1016	81.1445	79.1016	80.3705	79.1016	81.1011	79.1016	80.3972	79.1016	81.0337	79.1016	80.4388	79.1016	80.9483	79.1016	80.4965	79.1016	80.852	79.1016	80.5698	79.1016	80.7524	79.1016	80.6565
82.0312	80.9256	82.0312	80.8874	82.0312	80.9743	82.0312	80.8585	82.0312	81.0339	82.0312	80.8365	82.0312	81.1035	82.0312	80.8191	82.0312	81.1807	82.0312	80.8033	82.0312	81.2617	82.0312	80.7867	82.0312	81.3414	82.0312	80.7674	82.0312	81.4138	82.0312	80.7441	82.0312	81.4722	82.0312	80.7171	82.0312	81.5104	82.0312	80.6876	82.0312	81.5228	82.0312	80.6584	82.0312	81.5059	82.0312	80.6337	82.0312	81.4585	82.0312	80.6182	82.0312	81.3827	82.0312	80.6173	82.0312	81.2837	82.0312	80.6354	82.0312	81.1693	82.0312	80.676	82.0312	81.0488	82.0312	80.7402	82.0312	80.9318	82.0312	80.8268
84.9609	81.0824	84.9609	81.0444	84.9609	81.1307	84.9609	81.0154	84.9609	81.1893	84.9609	80.9933	84.9609	81.2574	84.9609	80.976	84.9609	81.3327	84.9609	80.9607	84.9609	81.4119	84.9609	80.9453	84.9609	81.4909	84.9609	80.9279	84.9609	81.5643	84.9609	80.9077	84.9609	81.6263	84.9609	80.8848	84.9609	81.6709	84.9609	80.8607	84.9609	81.6925	84.9609	80.8381	84.9609	81.6867	84.9609	80.8209	84.9609	81.6515	84.9609	80.8137	84.9609	81.5877	84.9609	80.8212	84.9609	81.4992	84.9609	80.8477	84.9609	81.393	84.9609	80.8958	84.9609	81.2777	84.9609	80.9661	84.9609	81.1627	84.9609	81.0565
87.8906	81.0108	87.8906	80.9845	87.8906	81.0577	87.8906	80.9767	87.8906	81.1255	87.8906	80.9847	87.8906	81.2134	87.8906	81.0047	87.8906	81.3186	87.8906	81.0326	87.8906	81.4371	87.8906	81.0643	87.8906	81.5629	87.8906	81.0962	87.8906	81.6889	87.8906	81.1254	87.8906	81.8067	87.8906	81.1502	87.8906	81.9077	87.8906	81.1705	87.8906	81.9838	87.8906	81.1878	87.8906	82.0285	87.8906	81.2052	87.8906	82.0378	87.8906	81.2272	87.8906	82.0112	87.8906	81.2585	87.8906	81.9517	87.8906	81.304	87.8906	81.8659	87.8906	81.3668	87.8906	81.7627	87.8906	81.4477	87.8906	81.6524	87.8906	81.5447
90.8203	81.5377	90.8203	81.5148	90.8203	81.5737	90.8203	81.5028	90.8203	81.6236	90.8203	81.499	90.8203	81.6873	90.8203	81.4997	90.8203	81.763	90.8203	81.501	90.8203	81.8478	90.8203	81.4994	90.8203	81.9369	90.8203	81.4915	90.8203	82.0241	90.8203	81.4754	90.8203	82.1022	90.8203	81.4505	90.8203	82.1629	90.8203	81.4178	90.8203	82.1987	90.8203	81.3806	90.8203	82.203	90.8203	81.3441	90.8203	82.1723	90.8203	81.3149	90.8203	82.1064	90.8203	81.3007	90.8203	82.0092	90.8203	81.3089	90.8203	81.889	90.8203	81.345	90.8203	81.7568	90.8203	81.4115	90.8203	81.6254	90.8203	81.507
95.2148	81.8487	95.2148	81.8237	95.2148	81.8817	95.2148	81.8044	95.2148	81.924	95.2148	81.7883	95.2148	81.9763	95.2148	81.7725	95.2148	82.0382	95.2148	81.7542	95.2148	82.1078	95.2148	81.7307	95.2148	82.1812	95.2148	81.6995	95.2148	82.2529	95.2148	81.6595	95.2148	82.3155	95.2148	81.6105	95.2148	82.3607	95.2148	81.5541	95.2148	82.3803	95.2148	81.4937	95.2148	82.3673	95.2148	81.4351	95.2148	82.3176	95.2148	81.3855	95.2148	82.231	95.2148	81.3537	95.2148	82.1121	95.2148	81.3481	95.2148	81.97	95.2148	81.3757	95.2148	81.8178	95.2148	81.4402	95.2148	81.6699	95.2148	81.5403
98.1445	81.8422	98.1445	81.8164	98.1445	81.8788	98.1445	81.7993	98.1445	81.9277	98.1445	81.7878	98.1445	81.9891	98.1445	81.7788	98.1445	82.0621	98.1445	81.7685	98.1445	82.1437	98.1445	81.7535	98.1445	82.2294	98.1445	81.7309	98.1445	82.3127	98.1445	81.6985	98.1445	82.3855	98.1445	81.6556	98.1445	82.439	98.1445	81.6035	98.1445	82.4645	98.1445	81.5455	98.1445	82.455	98.1445	81.4875	98.1445	82.4063	98.1445	81.4373	98.1445	82.3182	98.1445	81.4043	98.1445	82.1955	98.1445	81.3981	98.1445	82.0479	98.1445	81.4264	98.1445	81.8889	98.1445	81.4935	98.1445	81.734	98.1445	81.5983
101.074	82.1543	101.074	82.1218	101.074	82.1923	101.074	82.0929	101.074	82.2365	101.074	82.0655	101.074	82.2869	101.074	82.0366	101.074	82.3424	101.074	82.003	101.074	82.4002	101.074	81.9617	101.074	82.4562	101.074	81.9098	101.074	82.5048	101.074	81.8455	101.074	82.5389	101.074	81.7684	101.074	82.5511	101.074	81.6802	101.074	82.534	101.074	81.5847	101.074	82.4818	101.074	81.4887	101.074	82.3918	101.074	81.4011	101.074	82.2651	101.074	81.3329	101.074	82.108	101.074	81.2955	101.074	81.9317	101.074	81.2987	101.074	81.7514	101.074	81.3487	101.074	81.5842	101.074	81.4459
105.469	82.0884	105.469	82.065	105.469	82.1258	105.469	82.053	105.469	82.1783	105.469	82.0489	105.469	82.2454	105.469	82.0483	105.469	82.3251	105.469	82.0463	105.469	82.4133	105.469	82.038	105.469	82.5041	105.469	82.019	105.469	82.59	105.469	81.9859	105.469	82.6618	105.469	81.9371	105.469	82.7102	105.469	81.8736	105.469	82.7262	105.469	81.7987	105.469	82.7027	105.469	81.7191	105.469	82.636	105.469	81.6443	105.469	82.5269	105.469	81.586	105.469	82.3817	105.469	81.5562	105.469	82.212	105.469	81.5658	105.469	82.0338	105.469	81.6214	105.469	81.8653	105.469	81.7235
108.398	82.3373	108.398	82.3196	108.398	82.3652	108.398	82.3097	108.398	82.4043	108.398	82.3041	108.398	82.4542	108.398	82.2984	108.398	82.5131	108.398	82.2877	108.398	82.5777	108.398	82.2672	108.398	82.6431	108.398	82.2326	108.398	82.7028	108.398	82.1809	108.398	82.7494	108.398	82.1107	108.398	82.7743	108.398	82.0235	108.398	82.7692	108.398	81.9232	108.398	82.7275	108.398	81.8172	108.398	82.6452	108.398	81.7158	108.398	82.5231	108.398	81.6317	108.398	82.3672	108.398	81.5785	108.398	82.1896	108.398	81.5681	108.398	82.0067	108.398	81.6083	108.398	81.8377	108.398	81.7004
112.793	82.473	112.793	82.4424	112.793	82.5083	112.793	82.415	112.793	82.549	112.793	82.3886	112.793	82.595	112.793	82.3602	112.793	82.6452	112.793	82.3265	112.793	82.6978	112.793	82.2838	112.793	82.7493	112.793	82.229	112.793	82.7948	112.793	82.16	112.793	82.8279	112.793	82.0761	112.793	82.8409	112.793	81.9791	112.793	82.8258	112.793	81.8731	112.793	82.7756	112.793	81.7654	112.793	82.6862	112.793	81.6661	112.793	82.5576	112.793	81.5875	112.793	82.3954	112.793	81.5423	112.793	82.211	112.793	81.5417	112.793	82.0204	112.793	81.5926	112.793	81.8426	112.793	81.6953
117.188	82.4744	117.188	82.4327	117.188	82.5208	117.188	82.3948	117.188	82.5723	117.188	82.3588	117.188	82.6287	117.188	82.3225	117.188	82.689	117.188	82.283	117.188	82.7513	117.188	82.2372	117.188	82.8123	117.188	82.1823	117.188	82.8668	117.188	82.1161	117.188	82.9081	117.188	82.0381	117.188	82.9283	117.188	81.9497	117.188	82.9189	117.188	81.8548	117.188	82.873	117.188	81.7602	117.188	82.7862	117.188	81.6755	117.188	82.6586	117.188	81.6123	117.188	82.4959	117.188	81.5826	117.188	82.3092	117.188	81.5968	117.188	82.1145	117.188	81.6608	117.188	81.9304	117.188	81.7745
120.117	82.3545	120.117	82.3114	120.117	82.4031	120.117	82.2729	120.117	82.4574	120.117	82.2375	120.117	82.5172	120.117	82.2029	120.117	82.5816	120.117	82.1663	120.117	82.6489	120.117	82.1243	120.117	82.7157	120.117	82.0736	120.117	82.7771	120.117	82.0119	120.117	82.826	120.117	81.938	120.117	82.854	120.117	81.8531	120.117	82.8521	120.117	81.7609	120.117	82.8124	120.117	81.6683	120.117	82.7298	120.117	81.5851	120.117	82.6041	120.117	81.5233	120.117	82.4406	120.117	81.4954	120.117	82.2508	120.117	81.5124	120.117	82.0512	120.117	81.5804	120.117	81.8612	120.117	81.6993
124.512	82.3663	124.512	82.3286	124.512	82.4095	124.512	82.2956	124.512	82.4585	124.512	82.2658	124.512	82.5134	124.512	82.2374	124.512	82.574	124.512	82.2072	124.512	82.6389	124.512	82.1719	124.512	82.7054	124.512	82.128	124.512	82.769	124.512	82.0727	124.512	82.8226	124.512	82.0046	124.512	82.8576	124.512	81.9247	124.512	82.8646	124.512	81.8366	124.512	82.8349	124.512	81.7472	124.512	82.7629	124.512	81.6664	124.512	82.6476	124.512	81.6062	124.512	82.4937	124.512	81.5792	124.512	82.3124	124.512	81.5959	124.512	82.1201	124.512	81.6625	124.512	81.9359	124.512	81.7785
128.906	82.6107	128.906	82.5681	128.906	82.6558	128.906	82.5272	128.906	82.7035	128.906	82.4861	128.906	82.7529	128.906	82.4416	128.906	82.8025	128.906	82.3898	128.906	82.8502	128.906	82.3265	128.906	82.8926	128.906	82.2478	128.906	82.9254	128.906	82.151	128.906	82.9425	128.906	82.0356	128.906	82.9364	128.906	81.904	128.906	82.899	128.906	81.7621	128.906	82.8232	128.906	81.6196	128.906	82.7043	128.906	81.4894	128.906	82.5426	128.906	81.3868	128.906	82.3442	128.906	81.3274	128.906	82.1218	128.906	81.3238	128.906	81.8937	128.906	81.3835	128.906	81.6814	128.906	81.5057
133.301	82.6085	133.301	82.559	133.301	82.6549	133.301	82.5062	133.301	82.6984	133.301	82.4488	133.301	82.7389	133.301	82.3851	133.301	82.7761	133.301	82.3124	133.301	82.8091	133.301	82.228	133.301	82.836	133.301	82.1289	133.301	82.8531	133.301	82.0135	133.301	82.8548	133.301	81.8816	133.301	82.8335	133.301	81.7357	133.301	82.7807	133.301	81.5813	133.301	82.689	133.301	81.4275	133.301	82.5537	133.301	81.287	133.301	82.375	133.301	81.1748	133.301	82.1597	133.301	81.1069	133.301	81.9216	133.301	81.097	133.301	81.6801	133.301	81.1534	133.301	81.4578	133.301	81.2767
139.16	82.2703	139.16	82.2156	139.16	82.3271	139.16	82.163	139.16	82.3852	139.16	82.1121	139.16	82.4441	139.16	82.0614	139.16	82.5032	139.16	82.0084	139.16	82.5612	139.16	81.9499	139.16	82.616	139.16	81.8825	139.16	82.6638	139.16	81.8034	139.16	82.6984	139.16	81.7111	139.16	82.7116	139.16	81.6068	139.16	82.6939	139.16	81.4946	139.16	82.6366	139.16	81.3821	139.16	82.5341	139.16	81.2805	139.16	82.3856	139.16	81.2032	139.16	82.1972	139.16	81.1642	139.16	81.9819	139.16	81.1755	139.16	81.7583	139.16	81.2446	139.16	81.548	139.16	81.3715
143.555	82.2854	143.555	82.2289	143.555	82.3404	143.555	82.1715	143.555	82.393	143.555	82.1133	143.555	82.4426	143.555	82.053	143.555	82.4886	143.555	81.9885	143.555	82.5306	143.555	81.9169	143.555	82.5676	143.555	81.8348	143.555	82.597	143.555	81.7397	143.555	82.6138	143.555	81.6308	143.555	82.6109	143.555	81.5096	143.555	82.5796	143.555	81.3811	143.555	82.5115	143.555	81.2541	143.555	82.4006	143.555	81.1403	143.555	82.2459	143.555	81.0538	143.555	82.0527	143.555	81.0089	143.555	81.8335	143.555	81.0176	143.555	81.6067	143.555	81.0864	143.555	81.3935	143.555	81.2147
147.949	82.3133	147.949	82.2544	147.949	82.3671	147.949	82.1913	147.949	82.415	147.949	82.1244	147.949	82.4562	147.949	82.053	147.949	82.4908	147.949	81.9753	147.949	82.519	147.949	81.8888	147.949	82.5407	147.949	81.791	147.949	82.5541	147.949	81.6799	147.949	82.5556	147.949	81.5555	147.949	82.5386	147.949	81.4201	147.949	82.495	147.949	81.2794	147.949	82.4166	147.949	81.1425	147.949	82.2972	147.949	81.0215	147.949	82.1357	147.949	80.9305	147.949	81.9372	147.949	80.8833	147.949	81.7141	147.949	80.8912	147.949	81.4844	147.949	80.9602	147.949	81.2694	147.949	81.0893
153.809	82.2327	153.809	82.1618	153.809	82.296	153.809	82.0846	153.809	82.3505	153.809	82.0019	153.809	82.3954	153.809	81.9135	153.809	82.4307	153.809	81.8183	153.809	82.4566	153.809	81.7143	153.809	82.4729	153.809	81.5996	153.809	82.4779	153.809	81.4729	153.809	82.4677	153.809	81.3347	153.809	82.4363	153.809	81.1882	153.809	82.3762	153.809	81.0397	153.809	82.2802	153.809	80.8989	153.809	82.1437	153.809	80.7779	153.809	81.9665	153.809	80.6904	153.809	81.755	153.809	80.6493	153.809	81.5216	153.809	80.6646	153.809	81.2842	153.809	80.7409	153.809	81.0627	153.809	80.8766
159.668	82.1146	159.668	82.0362	159.668	82.1828	159.668	81.9492	159.668	82.2401	159.668	81.8549	159.668	82.2866	159.668	81.7541	159.668	82.3238	159.668	81.6465	159.668	82.3537	159.668	81.5308	159.668	82.3772	159.668	81.4057	159.668	82.3935	159.668	81.2705	159.668	82.3981	159.668	81.1264	159.668	82.3835	159.668	80.9769	159.668	82.3398	159.668	80.8294	159.668	82.2573	159.668	80.694	159.668	82.1292	159.668	80.5836	159.668	81.9541	159.668	80.5118	159.668	81.738	159.668	80.4909	159.668	81.4939	159.668	80.5294	159.668	81.2406	159.668	80.6303	159.668	80.9993	159.668	80.7904
165.527	82.111	165.527	82.0448	165.527	82.1662	165.527	81.9686	165.527	82.2101	165.527	81.8832	165.527	82.2439	165.527	81.789	165.527	82.2696	165.527	81.6856	165.527	82.2899	165.527	81.5718	165.527	82.3065	165.527	81.446	165.527	82.3187	165.527	81.3077	165.527	82.3224	165.527	81.1581	165.527	82.3097	165.527	81.0011	165.527	82.2699	165.527	80.8443	165.527	82.1925	165.527	80.6986	165.527	82.0697	165.527	80.5777	165.527	81.8995	165.527	80.4961	165.527	81.6875	165.527	80.4669	165.527	81.4468	165.527	80.4989	165.527	81.1962	165.527	80.5951	165.527	80.9575	165.527	80.7515
171.387	81.8653	171.387	81.7981	171.387	81.9198	171.387	81.72	171.387	81.9612	171.387	81.633	171.387	81.9907	171.387	81.5388	171.387	82.0114	171.387	81.4379	171.387	82.0267	171.387	81.3298	171.387	82.0398	171.387	81.2133	171.387	82.0511	171.387	81.0879	171.387	82.0572	171.387	80.954	171.387	82.0509	171.387	80.815	171.387	82.0216	171.387	80.6772	171.387	81.9584	171.387	80.5505	171.387	81.8528	171.387	80.4473	171.387	81.702	171.387	80.3807	171.387	81.5105	171.387	80.3621	171.387	81.2904	171.387	80.3994	171.387	81.0592	171.387	80.4947	171.387	80.8374	171.387	80.644
177.246	81.7656	177.246	81.6856	177.246	81.8344	177.246	81.5969	177.246	81.8902	177.246	81.5021	177.246	81.9327	177.246	81.4031	177.246	81.9633	177.246	81.3002	177.246	81.9846	177.246	81.1928	177.246	81.9993	177.246	81.0792	177.246	82.0086	177.246	80.9581	177.246	82.0104	177.246	80.8296	177.246	81.9986	177.246	80.6968	177.246	81.9635	177.246	80.5658	177.246	81.8944	177.246	80.4466	177.246	81.7832	177.246	80.3512	177.246	81.6272	177.246	80.2919	177.246	81.4314	177.246	80.2794	177.246	81.2087	177.246	80.3203	177.246	80.977	177.246	80.4165	177.246	80.7563	177.246	80.5648
183.105	81.7487	183.105	81.6438	183.105	81.8358	183.105	81.5264	183.105	81.9008	183.105	81.4012	183.105	81.941	183.105	81.2719	183.105	81.9564	183.105	81.1401	183.105	81.9497	183.105	81.006	183.105	81.9255	183.105	80.8687	183.105	81.889	183.105	80.7276	183.105	81.844	183.105	80.5839	183.105	81.7906	183.105	80.4415	183.105	81.725	183.105	80.3077	183.105	81.6404	183.105	80.1931	183.105	81.5292	183.105	80.1096	183.105	81.3866	183.105	80.0682	183.105	81.213	183.105	80.0769	183.105	81.0148	183.105	80.1387	183.105	80.8044	183.105	80.2514	183.105	80.5967	183.105	80.4077
188.965	81.7706	188.965	81.6593	188.965	81.8534	188.965	81.525	188.965	81.9041	188.965	81.3731	188.965	81.9213	188.965	81.2088	188.965	81.9071	188.965	81.0362	188.965	81.866	188.965	80.8585	188.965	81.8046	188.965	80.6783	188.965	81.7291	188.965	80.4987	188.965	81.6435	188.965	80.3238	188.965	81.5484	188.965	80.1598	188.965	81.4406	188.965	80.0145	188.965	81.3151	188.965	79.8969	188.965	81.168	188.965	79.8158	188.965	80.9985	188.965	79.7778	188.965	80.8106	188.965	79.786	188.965	80.6127	188.965	79.8399	188.965	80.4159	188.965	79.9359	188.965	80.2313	188.965	80.0686
196.289	81.751	196.289	81.664	196.289	81.8125	196.289	81.5547	196.289	81.8468	196.289	81.4263	196.289	81.8542	196.289	81.2812	196.289	81.8373	196.289	81.1212	196.289	81.8009	196.289	80.9471	196.289	81.7501	196.289	80.7604	196.289	81.6892	196.289	80.5643	196.289	81.6193	196.289	80.3651	196.289	81.5383	196.289	80.1729	196.289	81.441	196.289	80.0005	196.289	81.3213	196.289	79.8621	196.289	81.1751	196.289	79.7696	196.289	81.0028	196.289	79.7302	196.289	80.8103	196.289	79.7445	196.289	80.6078	196.289	79.808	196.289	80.4072	196.289	79.913	196.289	80.2192	196.289	80.0523
203.613	81.6529	203.613	81.5515	203.613	81.7236	203.613	81.4241	203.613	81.7605	203.613	81.2763	203.613	81.764	203.613	81.1129	203.613	81.7375	203.613	80.9378	203.613	81.6877	203.613	80.7534	203.613	81.622	203.613	80.5617	203.613	81.5464	203.613	80.365	203.613	81.4632	203.613	80.1679	203.613	81.3698	203.613	79.9775	203.613	81.2599	203.613	79.8045	203.613	81.1266	203.613	79.6611	203.613	80.9654	203.613	79.5597	203.613	80.7779	203.613	79.5087	203.613	80.5717	203.613	79.5113	203.613	80.3587	203.613	79.5645	203.613	80.1519	203.613	79.6621	203.613	79.962	203.613	79.7967
210.938	81.5351	210.938	81.4384	210.938	81.595	210.938	81.3078	210.938	81.6173	210.938	81.148	210.938	81.6043	210.938	80.964	210.938	81.5614	210.938	80.7607	210.938	81.4963	210.938	80.543	210.938	81.4169	210.938	80.3164	210.938	81.3293	210.938	80.0875	210.938	81.2357	210.938	79.8653	210.938	81.1337	210.938	79.6608	210.938	81.0166	210.938	79.4867	210.938	80.8771	210.938	79.3546	210.938	80.7104	210.938	79.2729	210.938	80.5181	210.938	79.2441	210.938	80.3089	210.938	79.265	210.938	80.0962	210.938	79.3285	210.938	79.8938	210.938	79.4271	210.938	79.712	210.938	79.5558
218.262	81.3976	218.262	81.3039	218.262	81.4607	218.262	81.1826	218.262	81.4917	218.262	81.0371	218.262	81.4915	218.262	80.8704	218.262	81.4641	218.262	80.6843	218.262	81.4156	218.262	80.4806	218.262	81.3531	218.262	80.2623	218.262	81.2826	218.262	80.0351	218.262	81.2064	218.262	79.8092	218.262	81.1223	218.262	79.5995	218.262	81.0239	218.262	79.4242	218.262	80.9041	218.262	79.3005	218.262	80.7581	218.262	79.2396	218.262	80.5874	218.262	79.2426	218.262	80.3994	218.262	79.3014	218.262	80.2057	218.262	79.4018	218.262	80.0171	218.262	79.5303	218.262	79.8403	218.262	79.6778
225.586	81.4918	225.586	81.3983	225.586	81.5487	225.586	81.2728	225.586	81.5657	225.586	81.119	225.586	81.542	225.586	80.9393	225.586	81.4809	225.586	80.7342	225.586	81.3897	225.586	80.5042	225.586	81.2788	225.586	80.2513	225.586	81.1586	225.586	79.9818	225.586	81.0364	225.586	79.7085	225.586	80.9138	225.586	79.4516	225.586	80.7868	225.586	79.2361	225.586	80.649	225.586	79.0863	225.586	80.4959	225.586	79.0177	225.586	80.3292	225.586	79.0308	225.586	80.1563	225.586	79.1108	225.586	79.9866	225.586	79.2339	225.586	79.826	225.586	79.3772	225.586	79.6738	225.586	79.5253
232.91	81.3617	232.91	81.2679	232.91	81.4191	232.91	81.145	232.91	81.4342	232.91	80.9997	232.91	81.4052	232.91	80.8356	232.91	81.3349	232.91	80.6531	232.91	81.2316	232.91	80.4495	232.91	81.1066	232.91	80.2216	232.91	80.9723	232.91	79.9691	232.91	80.8383	232.91	79.6981	232.91	80.7079	232.91	79.4233	232.91	80.5773	232.91	79.1687	232.91	80.4375	232.91	78.963	232.91	80.2799	232.91	78.8313	232.91	80.1016	232.91	78.7854	232.91	79.9081	232.91	78.8188	232.91	79.7114	232.91	78.9115	232.91	79.5228	232.91	79.0399	232.91	79.3483	232.91	79.1876
241.699	81.151	241.699	81.0153	241.699	81.2479	241.699	80.8507	241.699	81.2987	241.699	80.6682	241.699	81.3007	241.699	80.4769	241.699	81.2563	241.699	80.2821	241.699	81.1716	241.699	80.0846	241.699	81.0558	241.699	79.882	241.699	80.918	241.699	79.6716	241.699	80.7655	241.699	79.4538	241.699	80.6018	241.699	79.236	241.699	80.4265	241.699	79.0334	241.699	80.2381	241.699	78.8666	241.699	80.0368	241.699	78.7557	241.699	79.8283	241.699	78.7114	241.699	79.6235	241.699	78.7305	241.699	79.4346	241.699	78.7975	241.699	79.2697	241.699	78.8933	241.699	79.1284	241.699	79.0046
250.488	81.2178	250.488	81.0244	250.488	81.3544	250.488	80.7861	250.488	81.4263	250.488	80.5171	250.488	81.4314	250.488	80.2313	250.488	81.3735	250.488	79.94	250.488	81.2627	250.488	79.6506	250.488	81.1133	250.488	79.367	250.488	80.941	250.488	79.0914	250.488	80.7595	250.488	78.8277	250.488	80.5762	250.488	78.5851	250.488	80.3909	250.488	78.3792	250.488	80.1972	250.488	78.2296	250.488	79.9878	250.488	78.1531	250.488	79.7604	250.488	78.1555	250.488	79.5213	250.488	78.2281	250.488	79.2835	250.488	78.3512	250.488	79.0601	250.488	78.5038	250.488	78.8572	250.488	78.6732
259.277	81.1813	259.277	80.9897	259.277	81.3202	259.277	80.7571	259.277	81.3981	259.277	80.4974	259.277	81.4112	259.277	80.2251	259.277	81.3604	259.277	79.9531	259.277	81.2506	259.277	79.6914	259.277	81.0905	259.277	79.446	259.277	80.8918	259.277	79.2203	259.277	80.6693	259.277	79.0165	259.277	80.4396	259.277	78.8386	259.277	80.2194	259.277	78.6942	259.277	80.0216	259.277	78.5938	259.277	79.8513	259.277	78.548	259.277	79.7048	259.277	78.562	259.277	79.5723	259.277	78.6314	259.277	79.4435	259.277	78.7432	259.277	79.311	259.277	78.8801	259.277	79.1718	259.277	79.0265
268.066	81.1736	268.066	80.9319	268.066	81.3405	268.066	80.6237	268.066	81.4289	268.066	80.2618	268.066	81.44	268.066	79.8637	268.066	81.3798	268.066	79.4512	268.066	81.2576	268.066	79.0492	268.066	81.0835	268.066	78.6836	268.066	80.8655	268.066	78.3778	268.066	80.6086	268.066	78.1484	268.066	80.3182	268.066	78.0038	268.066	80.0052	268.066	77.9434	268.066	79.6911	268.066	77.9597	268.066	79.4065	268.066	78.0398	268.066	79.1801	268.066	78.166	268.066	79.0242	268.066	78.3174	268.066	78.9282	268.066	78.4722	268.066	78.8647	268.066	78.6114	268.066	78.8037	268.066	78.7226
276.855	81.0486	276.855	80.8887	276.855	81.1454	276.855	80.6693	276.855	81.1783	276.855	80.3951	276.855	81.1517	276.855	80.0704	276.855	81.0761	276.855	79.6998	276.855	80.9665	276.855	79.2904	276.855	80.8383	276.855	78.8546	276.855	80.7012	276.855	78.4142	276.855	80.5546	276.855	78.0025	276.855	80.3866	276.855	77.662	276.855	80.1809	276.855	77.4348	276.855	79.9276	276.855	77.347	276.855	79.6343	276.855	77.3964	276.855	79.3297	276.855	77.553	276.855	79.0532	276.855	77.7709	276.855	78.8331	276.855	78.0037	276.855	78.6693	276.855	78.2163	276.855	78.5342	276.855	78.3916
287.109	80.9949	287.109	80.8713	287.109	81.0619	287.109	80.6933	287.109	81.0712	287.109	80.4628	287.109	81.0255	287.109	80.1794	287.109	80.9313	287.109	79.8414	287.109	80.7984	287.109	79.4488	287.109	80.6378	287.109	79.0087	287.109	80.46	287.109	78.5424	287.109	80.2719	287.109	78.0913	287.109	80.075	287.109	77.7152	287.109	79.8656	287.109	77.4766	287.109	79.6388	287.109	77.4114	287.109	79.3974	287.109	77.5074	287.109	79.1574	287.109	77.7112	287.109	78.9456	287.109	77.9559	287.109	78.7843	287.109	78.1864	287.109	78.6744	287.109	78.3708	287.109	78.5922	287.109	78.5013
297.363	81.0636	297.363	80.8977	297.363	81.162	297.363	80.6761	297.363	81.1862	297.363	80.4129	297.363	81.1354	297.363	80.1204	297.363	81.0142	297.363	79.8058	297.363	80.8316	297.363	79.4692	297.363	80.5983	297.363	79.1054	297.363	80.3259	297.363	78.71	297.363	80.0268	297.363	78.2887	297.363	79.7166	297.363	77.8679	297.363	79.4163	297.363	77.5003	297.363	79.149	297.363	77.255	297.363	78.933	297.363	77.1855	297.363	78.7737	297.363	77.2945	297.363	78.6626	297.363	77.5278	297.363	78.5811	297.363	77.8065	297.363	78.5051	297.363	78.0645	297.363	78.4086	297.363	78.2669
307.617	81.1381	307.617	80.982	307.617	81.2204	307.617	80.7653	307.617	81.2193	307.617	80.5009	307.617	81.1332	307.617	80.1986	307.617	80.9713	307.617	79.8639	307.617	80.7535	307.617	79.4986	307.617	80.5048	307.617	79.104	307.617	80.2463	307.617	78.6848	307.617	79.9869	307.617	78.2559	307.617	79.7205	307.617	77.8479	307.617	79.4357	307.617	77.5095	307.617	79.1309	307.617	77.2962	307.617	78.8272	307.617	77.2462	307.617	78.5667	307.617	77.3549	307.617	78.3905	307.617	77.5716	307.617	78.3081	307.617	77.8235	307.617	78.2859	307.617	78.0443	307.617	78.2655	307.617	78.1939
319.336	80.9955	319.336	80.8079	319.336	81.1056	319.336	80.5591	319.336	81.127	319.336	80.2678	319.336	81.0563	319.336	79.9516	319.336	80.8984	319.336	79.6235	319.336	80.665	319.336	79.2914	319.336	80.3722	319.336	78.9584	319.336	80.0381	319.336	78.6267	319.336	79.681	319.336	78.3026	319.336	79.32	319.336	78.0019	319.336	78.9745	319.336	77.7523	319.336	78.6645	319.336	77.588	319.336	78.4109	319.336	77.5365	319.336	78.2337	319.336	77.6003	319.336	78.1448	319.336	77.7496	319.336	78.1356	319.336	77.9306	319.336	78.1713	319.336	78.0874	319.336	78.2016	319.336	78.181
329.59	80.6718	329.59	80.4885	329.59	80.792	329.59	80.2536	329.59	80.8431	329.59	79.9802	329.59	80.8255	329.59	79.6788	329.59	80.7454	329.59	79.3551	329.59	80.6112	329.59	79.009	329.59	80.4295	329.59	78.6389	329.59	80.2008	329.59	78.2483	329.59	79.9196	329.59	77.855	329.59	79.578	329.59	77.4973	329.59	79.1754	329.59	77.2301	329.59	78.7309	329.59	77.1052	329.59	78.2937	329.59	77.1413	329.59	77.9386	329.59	77.3076	329.59	77.7336	329.59	77.536	329.59	77.6956	329.59	77.7508	329.59	77.7733	329.59	77.8932	329.59	77.879	329.59	77.9339
341.309	80.7893	341.309	80.5501	341.309	80.9397	341.309	80.2426	341.309	80.9892	341.309	79.8912	341.309	80.9358	341.309	79.5195	341.309	80.7884	341.309	79.1448	341.309	80.5646	341.309	78.7757	341.309	80.2862	341.309	78.4128	341.309	79.9741	341.309	78.0558	341.309	79.644	341.309	77.7132	341.309	79.3062	341.309	77.4104	341.309	78.9689	341.309	77.1891	341.309	78.6448	341.309	77.0928	341.309	78.3569	341.309	77.1413	341.309	78.1374	341.309	77.3132	341.309	78.0141	341.309	77.5519	341.309	77.9893	341.309	77.7893	341.309	78.0282	341.309	77.9697	341.309	78.0717	341.309	78.0633
353.027	81.0545	353.027	80.8311	353.027	81.1764	353.027	80.5175	353.027	81.1917	353.027	80.1281	353.027	81.1042	353.027	79.677	353.027	80.9275	353.027	79.1775	353.027	80.6814	353.027	78.6427	353.027	80.3858	353.027	78.0882	353.027	80.0525	353.027	77.5376	353.027	79.681	353.027	77.0282	353.027	79.2629	353.027	76.6143	353.027	78.7969	353.027	76.3593	353.027	78.3085	353.027	76.3093	353.027	77.8626	353.027	76.4613	353.027	77.5468	353.027	76.7563	353.027	77.4204	353.027	77.1047	353.027	77.4658	353.027	77.4209	353.027	77.5973	353.027	77.6436	353.027	77.7138	353.027	77.7411
366.211	80.9602	366.211	80.7595	366.211	81.0568	366.211	80.4634	366.211	81.0482	366.211	80.0857	366.211	80.9423	366.211	79.6417	366.211	80.7552	366.211	79.146	366.211	80.5068	366.211	78.6102	366.211	80.2138	366.211	78.0452	366.211	79.8826	366.211	77.4682	366.211	79.5063	366.211	76.9146	366.211	79.0698	366.211	76.4483	366.211	78.5653	366.211	76.1536	366.211	78.0145	366.211	76.0942	366.211	77.4888	366.211	76.2642	366.211	77.1018	366.211	76.5835	366.211	76.9472	366.211	76.9431	366.211	77.0204	366.211	77.2499	366.211	77.216	366.211	77.4433	366.211	77.4045	366.211	77.4942
379.395	81.1014	379.395	80.9093	379.395	81.2076	379.395	80.6429	379.395	81.2228	379.395	80.3157	379.395	81.1498	379.395	79.9373	379.395	80.9986	379.395	79.5096	379.395	80.7821	379.395	79.0262	379.395	80.5092	379.395	78.4785	379.395	80.1792	379.395	77.868	379.395	79.7788	379.395	77.2264	379.395	79.2888	379.395	76.6347	379.395	78.7	379.395	76.2226	379.395	78.0399	379.395	76.113	379.395	77.4016	379.395	76.3272	379.395	76.9438	379.395	76.7562	379.395	76.8092	379.395	77.2362	379.395	76.9967	379.395	77.6304	379.395	77.3505	379.395	77.8544	379.395	77.6841	379.395	77.8708
392.578	80.6231	392.578	80.3286	392.578	80.8274	392.578	79.9672	392.578	80.9237	392.578	79.5637	392.578	80.9031	392.578	79.1394	392.578	80.7686	392.578	78.7057	392.578	80.5358	392.578	78.2611	392.578	80.2294	392.578	77.792	392.578	79.8723	392.578	77.2823	392.578	79.4736	392.578	76.7301	392.578	79.0219	392.578	76.1723	392.578	78.4941	392.578	75.7056	392.578	77.8799	392.578	75.4726	392.578	77.2192	392.578	75.5736	392.578	76.6355	392.578	75.966	392.578	76.3111	392.578	76.4818	392.578	76.3512	392.578	76.9376	392.578	76.6597	392.578	77.2062	392.578	77.0151	392.578	77.2286
405.762	80.9014	405.762	80.7579	405.762	80.9171	405.762	80.4816	405.762	80.8171	405.762	80.0694	405.762	80.6275	405.762	79.5197	405.762	80.39	405.762	78.8375	405.762	80.1515	405.762	78.0431	405.762	79.9411	405.762	77.1824	405.762	79.746	405.762	76.3344	405.762	79.5079	405.762	75.6081	405.762	79.1498	405.762	75.119	405.762	78.621	405.762	74.9424	405.762	77.9457	405.762	75.0745	405.762	77.256	405.762	75.4381	405.762	76.7638	405.762	75.924	405.762	76.6189	405.762	76.4273	405.762	76.7724	405.762	76.8625	405.762	77.038	405.762	77.1659	405.762	77.2444	405.762	77.2971
420.41	81.2264	420.41	81.2028	420.41	81.1446	420.41	81.067	420.41	80.967	420.41	80.8114	420.41	80.7109	420.41	80.4261	420.41	80.4059	420.41	79.9004	420.41	80.092	420.41	79.2258	420.41	79.8097	420.41	78.3988	420.41	79.5749	420.41	77.4305	420.41	79.3534	420.41	76.3732	420.41	79.0557	420.41	75.3661	420.41	78.5681	420.41	74.6548	420.41	77.8124	420.41	74.4772	420.41	76.8328	420.41	74.8473	420.41	75.909	420.41	75.5399	420.41	75.5186	420.41	76.2907	420.41	75.8472	420.41	76.9131	420.41	76.5187	420.41	77.2941	420.41	77.0929	420.41	77.3647
435.059	80.2001	435.059	80.0561	435.059	80.254	435.059	79.8549	435.059	80.2013	435.059	79.6298	435.059	80.0504	435.059	79.3958	435.059	79.8345	435.059	79.134	435.059	79.6003	435.059	78.7915	435.059	79.3852	435.059	78.2971	435.059	79.1938	435.059	77.5929	435.059	78.9877	435.059	76.681	435.059	78.6985	435.059	75.6967	435.059	78.2562	435.059	74.9697	435.059	77.6255	435.059	74.8738	435.059	76.8585	435.059	75.4238	435.059	76.1645	435.059	76.2608	435.059	75.8845	435.059	77.0445	435.059	76.1844	435.059	77.602	435.059	76.824	435.059	77.8654	435.059	77.4377	435.059	77.8091
451.172	81.017	451.172	80.8606	451.172	81.0381	451.172	80.5833	451.172	80.9176	451.172	80.2021	451.172	80.6656	451.172	79.7307	451.172	80.3148	451.172	79.1741	451.172	79.9187	451.172	78.5226	451.172	79.5353	451.172	77.748	451.172	79.1985	451.172	76.8057	451.172	78.8929	451.172	75.6578	451.172	78.5455	451.172	74.3481	451.172	78.0435	451.172	73.1716	451.172	77.2739	451.172	72.7527	451.172	76.1936	451.172	73.4135	451.172	74.9722	451.172	74.6329	451.172	74.1724	451.172	75.7912	451.172	74.3852	451.172	76.6027	451.172	75.3282	451.172	76.9726	451.172	76.284	451.172	76.8664
465.82	80.6042	465.82	80.5256	465.82	80.5521	465.82	80.3315	465.82	80.3664	465.82	80.0362	465.82	80.071	465.82	79.6457	465.82	79.7221	465.82	79.1554	465.82	79.3973	465.82	78.5522	465.82	79.1634	465.82	77.815	465.82	79.0331	465.82	76.917	465.82	78.944	465.82	75.8429	465.82	78.779	465.82	74.6409	465.82	78.4131	465.82	73.5259	465.82	77.7583	465.82	72.9358	465.82	76.8119	465.82	73.2081	465.82	75.743	465.82	74.1159	465.82	74.9736	465.82	75.1541	465.82	74.9297	465.82	75.9824	465.82	75.4852	465.82	76.4475	465.82	76.1268	465.82	76.492
483.398	80.6209	483.398	80.5894	483.398	80.5472	483.398	80.4691	483.398	80.3645	483.398	80.2754	483.398	80.0919	483.398	80.0121	483.398	79.7766	483.398	79.6638	483.398	79.4898	483.398	79.1929	483.398	79.3032	483.398	78.5379	483.398	79.2484	483.398	77.6184	483.398	79.2751	483.398	76.3588	483.398	79.2461	483.398	74.7554	483.398	78.9841	483.398	73.0686	483.398	78.337	483.398	72.1131	483.398	77.247	483.398	72.6464	483.398	75.8905	483.398	74.0928	483.398	74.9116	483.398	75.5472	483.398	75.0491	483.398	76.6284	483.398	75.9794	483.398	77.2303	483.398	76.8691	483.398	77.3146
499.512	81.4373	499.512	81.3513	499.512	81.3929	499.512	81.1822	499.512	81.1896	499.512	80.9714	499.512	80.8375	499.512	80.731	499.512	80.3945	499.512	80.4358	499.512	79.9582	499.512	80.0301	499.512	79.6339	499.512	79.4394	499.512	79.4808	499.512	78.5792	499.512	79.4603	499.512	77.3668	499.512	79.4306	499.512	75.7593	499.512	79.1979	499.512	73.8819	499.512	78.5779	499.512	72.3608	499.512	77.4489	499.512	72.2795	499.512	75.8822	499.512	73.5724	499.512	74.5114	499.512	75.1392	499.512	74.4629	499.512	76.3651	499.512	75.558	499.512	77.0645	499.512	76.6384	499.512	77.1679
517.09	81.2422	517.09	81.1744	517.09	81.1656	517.09	81.039	517.09	80.9076	517.09	80.9156	517.09	80.4915	517.09	80.8425	517.09	80.0078	517.09	80.7965	517.09	79.603	517.09	80.7069	517.09	79.4312	517.09	80.4761	517.09	79.5533	517.09	79.9863	517.09	79.8596	517.09	79.1082	517.09	80.121	517.09	77.7276	517.09	80.1018	517.09	75.8318	517.09	79.6127	517.09	73.8312	517.09	78.5208	517.09	73.0639	517.09	76.8335	517.09	74.2326	517.09	75.1057	517.09	75.9891	517.09	74.7977	517.09	77.3633	517.09	76.073	517.09	78.1022	517.09	77.4261	517.09	78.1357
536.133	82.0167	536.133	81.6745	536.133	82.1002	536.133	81.1771	536.133	81.8729	536.133	80.6742	536.133	81.3254	536.133	80.312	536.133	80.4931	536.133	80.1437	536.133	79.4877	536.133	80.0836	536.133	78.5674	536.133	79.9542	536.133	78.1456	536.133	79.5658	536.133	78.452	536.133	78.7712	536.133	79.1687	536.133	77.5029	536.133	79.7525	536.133	75.8448	536.133	79.8215	536.133	74.245	536.133	79.17	536.133	73.6794	536.133	77.7366	536.133	74.5869	536.133	75.8601	536.133	76.0849	536.133	74.9195	536.133	77.3487	536.133	75.8595	536.133	78.0431	536.133	77.2437	536.133	78.0293
555.176	82.3397	555.176	82.0151	555.176	82.4379	555.176	81.5357	555.176	82.2787	555.176	81.0121	555.176	81.8653	555.176	80.5603	555.176	81.2282	555.176	80.2361	555.176	80.4191	555.176	79.9878	555.176	79.5226	555.176	79.6772	555.176	78.7125	555.176	79.1394	555.176	78.2678	555.176	78.2236	555.176	78.315	555.176	76.8042	555.176	78.5639	555.176	74.8107	555.176	78.5515	555.176	72.4775	555.176	77.9349	555.176	71.1692	555.176	76.5361	555.176	72.3254	555.176	74.5419	555.176	74.4	555.176	73.3257	555.176	76.0081	555.176	74.3024	555.176	76.8359	555.176	75.898	555.176	76.8122
574.219	82.2575	574.219	81.8253	574.219	82.4416	574.219	81.2446	574.219	82.3313	574.219	80.6624	574.219	81.9262	574.219	80.2268	574.219	81.2628	574.219	80.0016	574.219	80.4119	574.219	79.9196	574.219	79.4972	574.219	79.8218	574.219	78.7242	574.219	79.5231	574.219	78.3239	574.219	78.8486	574.219	78.3414	574.219	77.652	574.219	78.5157	574.219	75.8579	574.219	78.4485	574.219	73.6766	574.219	77.7882	574.219	72.2797	574.219	76.3014	574.219	73.0969	574.219	74.1515	574.219	74.9649	574.219	72.9569	574.219	76.4749	574.219	74.2753	574.219	77.2303	574.219	76.0997	574.219	77.1286
594.727	82.1961	594.727	81.7304	594.727	82.3598	594.727	81.0439	594.727	82.2025	594.727	80.297	594.727	81.7437	594.727	79.7003	594.727	81.0139	594.727	79.3975	594.727	80.0392	594.727	79.3376	594.727	78.8942	594.727	79.3086	594.727	77.8654	594.727	79.0731	594.727	77.5051	594.727	78.4344	594.727	78.0227	594.727	77.2193	594.727	78.8352	594.727	75.2602	594.727	79.2414	594.727	72.5842	594.727	78.8042	594.727	70.6542	594.727	77.2215	594.727	72.0763	594.727	74.3161	594.727	74.6555	594.727	71.5097	594.727	76.4774	594.727	72.9786	594.727	77.2953	594.727	75.6255	594.727	77.0604
615.234	82.6812	615.234	82.1487	615.234	82.9074	615.234	81.3865	615.234	82.8072	615.234	80.5491	615.234	82.3936	615.234	79.8466	615.234	81.6927	615.234	79.4253	615.234	80.7202	615.234	79.2409	615.234	79.481	615.234	79.0994	615.234	78.0611	615.234	78.7941	615.234	76.8714	615.234	78.172	615.234	76.6423	615.234	77.1281	615.234	77.3767	615.234	75.5831	615.234	78.1504	615.234	73.5183	615.234	78.2347	615.234	71.3527	615.234	77.2657	615.234	70.7899	615.234	75.0487	615.234	72.5151	615.234	72.155	615.234	74.485	615.234	71.9029	615.234	75.576	615.234	74.0923	615.234	75.4895
637.207	82.8213	637.207	82.2461	637.207	83.0836	637.207	81.4143	637.207	83.0329	637.207	80.4752	637.207	82.6942	637.207	79.6936	637.207	82.0887	637.207	79.3348	637.207	81.2164	637.207	79.3989	637.207	80.0807	637.207	79.5777	637.207	78.7604	637.207	79.5037	637.207	77.5202	637.207	78.8975	637.207	76.8489	637.207	77.547	637.207	77.004	637.207	75.2447	637.207	77.4728	637.207	71.8501	637.207	77.4683	637.207	68.8567	637.207	76.4144	637.207	70.6366	637.207	73.8894	637.207	73.7548	637.207	70.3733	637.207	75.7352	637.207	70.9378	637.207	76.5039	637.207	74.1662	637.207	76.047
659.18	82.7761	659.18	82.2705	659.18	82.9551	659.18	81.4807	659.18	82.7981	659.18	80.5262	659.18	82.319	659.18	79.6534	659.18	81.5608	659.18	79.1623	659.18	80.5877	659.18	79.1461	659.18	79.4635	659.18	79.3852	659.18	78.2894	659.18	79.5488	659.18	77.3653	659.18	79.3488	659.18	77.1707	659.18	78.5515	659.18	77.6971	659.18	76.9337	659.18	78.2675	659.18	74.1843	659.18	78.2461	659.18	69.7832	659.18	77.2392	659.18	65.3739	659.18	74.9419	659.18	68.8097	659.18	71.4271	659.18	72.3302	659.18	69.8555	659.18	73.8888	659.18	72.1245	659.18	73.7986
682.617	83.2116	682.617	82.6235	682.617	83.3658	682.617	81.5949	682.617	83.1318	682.617	80.2066	682.617	82.6041	682.617	78.7658	682.617	81.9072	682.617	77.8968	682.617	81.0846	682.617	78.0681	682.617	80.0282	682.617	78.9149	682.617	78.6604	682.617	79.7145	682.617	77.3393	682.617	80.0069	682.617	76.9707	682.617	79.5952	682.617	77.7392	682.617	78.386	682.617	78.673	682.617	76.262	682.617	78.9683	682.617	73.0966	682.617	78.1836	682.617	70.0425	682.617	75.9333	682.617	71.2793	682.617	72.0049	682.617	74.0642	682.617	70.0639	682.617	75.4921	682.617	73.1796	682.617	75.2564
707.52	82.9165	707.52	82.3303	707.52	83.1267	707.52	81.3573	707.52	83.0057	707.52	80.0603	707.52	82.61	707.52	78.6729	707.52	81.9739	707.52	77.7161	707.52	81.0697	707.52	77.7314	707.52	79.8278	707.52	78.5115	707.52	78.2517	707.52	79.3	707.52	76.6324	707.52	79.5657	707.52	75.7899	707.52	79.0985	707.52	76.3701	707.52	77.8404	707.52	77.5917	707.52	75.7518	707.52	78.3496	707.52	72.7822	707.52	78.0302	707.52	69.6477	707.52	76.1869	707.52	69.8644	707.52	72.3862	707.52	72.4989	707.52	69.151	707.52	74.1351	707.52	71.9262	707.52	74.053
732.422	82.7055	732.422	82.2136	732.422	82.71	732.422	81.2121	732.422	82.3284	732.422	79.7843	732.422	81.7181	732.422	78.1946	732.422	80.9902	732.422	76.9682	732.422	80.0826	732.422	76.6786	732.422	78.8156	732.422	77.2701	732.422	77.1119	732.422	78.0688	732.422	75.2327	732.422	78.5174	732.422	74.284	732.422	78.3795	732.422	75.6575	732.422	77.5922	732.422	77.9276	732.422	76.1251	732.422	79.287	732.422	73.9633	732.422	79.1817	732.422	71.6804	732.422	77.3986	732.422	71.4462	732.422	73.7634	732.422	73.1266	732.422	70.2402	732.422	74.2713	732.422	71.9593	732.422	73.9723
757.324	83.3397	757.324	82.7473	757.324	83.4872	757.324	81.6982	757.324	83.2398	757.324	80.2029	757.324	82.6773	757.324	78.2868	757.324	81.847	757.324	76.1221	757.324	80.6999	757.324	74.5849	757.324	79.1368	757.324	74.9165	757.324	77.1195	757.324	76.2162	757.324	74.8192	757.324	77.0912	757.324	73.4942	757.324	77.1814	757.324	75.0122	757.324	76.5283	757.324	77.3801	757.324	75.1739	757.324	78.7552	757.324	73.1478	757.324	78.7745	757.324	71.3143	757.324	77.3025	757.324	72.1702	757.324	74.4248	757.324	74.6036	757.324	72.6843	757.324	76.1513	757.324	74.5983	757.324	76.1841
785.156	83.3251	785.156	82.9044	785.156	83.4461	785.156	82.1876	785.156	83.2849	785.156	81.1786	785.156	82.894	785.156	79.8895	785.156	82.306	785.156	78.4497	785.156	81.4405	785.156	77.3393	785.156	80.1085	785.156	77.1195	785.156	78.0588	785.156	77.4557	785.156	74.904	785.156	77.5711	785.156	70.7369	785.156	77.1133	785.156	71.199	785.156	76.027	785.156	74.9839	785.156	74.2346	785.156	77.0245	785.156	71.5805	785.156	77.1122	785.156	68.9276	785.156	75.0225	785.156	69.8444	785.156	69.4748	785.156	72.51	785.156	61.9277	785.156	73.9243	785.156	70.2818	785.156	73.4765
811.523	83.1836	811.523	83.1188	811.523	82.9561	811.523	82.6814	811.523	82.5522	811.523	81.8018	811.523	82.1109	811.523	80.4089	811.523	81.6889	811.523	78.533	811.523	81.1575	811.523	76.773	811.523	80.3114	811.523	76.3832	811.523	79.0099	811.523	76.994	811.523	76.9299	811.523	77.2142	811.523	72.9053	811.523	76.672	811.523	66.4981	811.523	75.5811	811.523	72.8715	811.523	74.0567	811.523	77.27	811.523	71.7067	811.523	78.7129	811.523	68.0742	811.523	77.8886	811.523	67.9358	811.523	74.1791	811.523	72.0984	811.523	63.1764	811.523	74.2057	811.523	68.128	811.523	73.5057
840.82	82.6243	840.82	82.8461	840.82	82.1763	840.82	82.7948	840.82	81.6088	840.82	82.433	840.82	81.057	840.82	81.6473	840.82	80.5777	840.82	80.2232	840.82	80.1217	840.82	78.1025	840.82	79.6354	840.82	76.2292	840.82	79.0438	840.82	76.1718	840.82	78.035	840.82	76.9591	840.82	75.8929	840.82	77.252	840.82	71.2639	840.82	76.6761	840.82	65.7154	840.82	75.024	840.82	72.6301	840.82	72.0397	840.82	76.3899	840.82	67.3781	840.82	77.1817	840.82	63.0292	840.82	75.3995	840.82	65.4684	840.82	70.2264	840.82	67.1192	840.82	57.0926	840.82	64.4141
870.117	82.2942	870.117	82.4032	870.117	81.8043	870.117	82.1912	870.117	81.004	870.117	81.7001	870.117	80.1408	870.117	80.8197	870.117	79.455	870.117	79.3034	870.117	78.8999	870.117	77.0673	870.117	78.2465	870.117	75.0379	870.117	77.3884	870.117	75.1038	870.117	76.2751	870.117	76.4419	870.117	74.5807	870.117	77.3697	870.117	71.7782	870.117	77.3958	870.117	69.8324	870.117	76.4188	870.117	73.0635	870.117	74.331	870.117	76.0824	870.117	70.9753	870.117	77.0972	870.117	67.6489	870.117	76.2004	870.117	68.7804	870.117	73.7394	870.117	70.8336	870.117	71.47	870.117	71.2675
900.879	82.5652	900.879	82.6647	900.879	82.187	900.879	82.5122	900.879	81.5892	900.879	82.1231	900.879	80.8925	900.879	81.3882	900.879	80.1187	900.879	80.0465	900.879	79.1458	900.879	77.7903	900.879	77.9677	900.879	74.6019	900.879	76.9108	900.879	72.117	900.879	76.2346	900.879	73.081	900.879	75.4065	900.879	75.1615	900.879	73.2419	900.879	76.4024	900.879	68.7295	900.879	76.5278	900.879	68.9423	900.879	75.5544	900.879	73.9305	900.879	73.5487	900.879	76.1827	900.879	71.1192	900.879	76.007	900.879	70.5849	900.879	74.1518	900.879	71.9877	900.879	72.7364	900.879	72.6948
933.105	82.1499	933.105	82.1399	933.105	81.8044	933.105	81.9083	933.105	81.1061	933.105	81.5033	933.105	80.298	933.105	80.7881	933.105	79.5659	933.105	79.537	933.105	78.7061	933.105	77.63	933.105	77.5061	933.105	75.2858	933.105	76.221	933.105	73.4325	933.105	75.2518	933.105	73.2502	933.105	74.5306	933.105	74.0918	933.105	73.6088	933.105	74.7134	933.105	72.4579	933.105	74.639	933.105	72.6417	933.105	73.5936	933.105	74.5581	933.105	71.3022	933.105	75.8707	933.105	68.8812	933.105	75.461	933.105	70.1829	933.105	73.6297	933.105	72.4023	933.105	72.538	933.105	72.9403
965.332	82.1978	965.332	82.3985	965.332	81.6998	965.332	82.2583	965.332	81.0191	965.332	81.7449	965.332	80.3006	965.332	80.8113	965.332	79.524	965.332	79.4195	965.332	78.4999	965.332	77.5982	965.332	77.2081	965.332	75.5438	965.332	76.0071	965.332	73.8697	965.332	75.1343	965.332	73.4773	965.332	73.9548	965.332	74.0011	965.332	71.3	965.332	74.3121	965.332	66.7883	965.332	74.0735	965.332	67.4775	965.332	73.528	965.332	71.5726	965.332	72.845	965.332	73.4917	965.332	71.9903	965.332	73.2593	965.332	71.4699	965.332	72.1033	965.332	72.0356	965.332	72.2479	965.332	72.649
1,000.49	81.6985	1,000.49	82.0054	1,000.49	81.0012	1,000.49	81.8814	1,000.49	80.0872	1,000.49	81.3014	1,000.49	79.232	1,000.49	80.231	1,000.49	78.4719	1,000.49	78.7035	1,000.49	77.5663	1,000.49	76.9201	1,000.49	76.5248	1,000.49	75.2155	1,000.49	75.6976	1,000.49	73.9493	1,000.49	74.982	1,000.49	73.5615	1,000.49	73.841	1,000.49	73.8673	1,000.49	71.995	1,000.49	74.0263	1,000.49	70.0145	1,000.49	73.5695	1,000.49	70.5328	1,000.49	72.435	1,000.49	72.8735	1,000.49	71.0733	1,000.49	73.7862	1,000.49	70.7236	1,000.49	72.4316	1,000.49	71.6478	1,000.49	69.8774	1,000.49	72.442	1,000.49	70.3084	1,000.49	72.0596
1,035.64	81.5036	1,035.64	81.7555	1,035.64	80.8397	1,035.64	81.5546	1,035.64	79.875	1,035.64	80.8613	1,035.64	78.7815	1,035.64	79.6497	1,035.64	77.6063	1,035.64	78.0194	1,035.64	76.306	1,035.64	76.2237	1,035.64	75.1478	1,035.64	74.4102	1,035.64	74.4928	1,035.64	72.7088	1,035.64	74.0909	1,035.64	71.7874	1,035.64	73.3539	1,035.64	71.8651	1,035.64	71.6438	1,035.64	72.2436	1,035.64	68.4795	1,035.64	72.5389	1,035.64	65.4112	1,035.64	72.5466	1,035.64	68.2719	1,035.64	72.0743	1,035.64	70.9481	1,035.64	71.4705	1,035.64	70.8776	1,035.64	71.6919	1,035.64	69.7055	1,035.64	72.4329	1,035.64	70.7758	1,035.64	72.3012
1,072.27	81.6903	1,072.27	81.7604	1,072.27	81.0121	1,072.27	81.2689	1,072.27	79.8905	1,072.27	80.3577	1,072.27	78.756	1,072.27	79.2339	1,072.27	77.8836	1,072.27	78.089	1,072.27	77.0947	1,072.27	76.8555	1,072.27	76.3128	1,072.27	75.0215	1,072.27	75.5686	1,072.27	72.415	1,072.27	74.4401	1,072.27	70.9555	1,072.27	72.7681	1,072.27	71.5	1,072.27	70.7479	1,072.27	72.1115	1,072.27	68.6941	1,072.27	72.0711	1,072.27	69.4499	1,072.27	70.8236	1,072.27	71.9413	1,072.27	68.7877	1,072.27	72.367	1,072.27	69.1691	1,072.27	70.0483	1,072.27	71.4621	1,072.27	67.7446	1,072.27	72.8056	1,072.27	70.4199	1,072.27	72.5576
1,108.89	81.9104	1,108.89	81.7157	1,108.89	81.3918	1,108.89	81.0011	1,108.89	80.2641	1,108.89	80.0937	1,108.89	78.6971	1,108.89	79.1552	1,108.89	76.6646	1,108.89	78.1414	1,108.89	74.6945	1,108.89	77.0198	1,108.89	74.1466	1,108.89	75.7507	1,108.89	74.5945	1,108.89	74.0716	1,108.89	74.1138	1,108.89	72.1614	1,108.89	72.1525	1,108.89	71.7101	1,108.89	69.8575	1,108.89	72.3909	1,108.89	68.4614	1,108.89	72.2147	1,108.89	67.3158	1,108.89	70.8771	1,108.89	67.7227	1,108.89	69.5154	1,108.89	69.6909	1,108.89	69.6809	1,108.89	69.4439	1,108.89	70.9938	1,108.89	68.0141	1,108.89	72.2888	1,108.89	70.5007	1,108.89	72.446
1,148.44	82.1717	1,148.44	82.3058	1,148.44	81.3775	1,148.44	81.7883	1,148.44	80.1018	1,148.44	80.7304	1,148.44	78.5637	1,148.44	79.2737	1,148.44	76.7717	1,148.44	77.7044	1,148.44	75.049	1,148.44	76.487	1,148.44	74.3469	1,148.44	75.6728	1,148.44	74.2826	1,148.44	74.7542	1,148.44	73.4863	1,148.44	73.492	1,148.44	71.7853	1,148.44	72.2177	1,148.44	69.7088	1,148.44	71.6251	1,148.44	67.8862	1,148.44	71.7526	1,148.44	68.9618	1,148.44	71.4854	1,148.44	71.6263	1,148.44	69.8734	1,148.44	72.4218	1,148.44	68.0134	1,148.44	70.6044	1,148.44	69.176	1,148.44	68.1674	1,148.44	70.974	1,148.44	69.6464	1,148.44	71.2147
1,189.45	82.8557	1,189.45	82.8339	1,189.45	82.0897	1,189.45	82.1397	1,189.45	80.6418	1,189.45	80.8594	1,189.45	78.7928	1,189.45	79.0729	1,189.45	76.5351	1,189.45	77.2687	1,189.45	73.9962	1,189.45	76.111	1,189.45	72.3134	1,189.45	75.2575	1,189.45	72.2023	1,189.45	74.0656	1,189.45	72.3905	1,189.45	72.8927	1,189.45	71.4142	1,189.45	72.1943	1,189.45	69.8887	1,189.45	72.0613	1,189.45	69.1419	1,189.45	71.7554	1,189.45	68.4046	1,189.45	70.2873	1,189.45	68.507	1,189.45	67.339	1,189.45	70.7211	1,189.45	65.2153	1,189.45	69.7476	1,189.45	68.4867	1,189.45	65.3306	1,189.45	71.8684	1,189.45	69.982	1,189.45	72.6953
1,230.47	82.7166	1,230.47	82.6099	1,230.47	82.0757	1,230.47	81.9383	1,230.47	80.7783	1,230.47	80.7077	1,230.47	79.0623	1,230.47	79.0229	1,230.47	76.7186	1,230.47	77.6489	1,230.47	74.1531	1,230.47	76.9147	1,230.47	72.7165	1,230.47	75.3147	1,230.47	72.0529	1,230.47	72.1043	1,230.47	71.1118	1,230.47	69.5113	1,230.47	69.8944	1,230.47	70.0851	1,230.47	69.1711	1,230.47	72.1759	1,230.47	68.3926	1,230.47	73.0648	1,230.47	64.9344	1,230.47	71.9668	1,230.47	66.2492	1,230.47	69.4546	1,230.47	70.4351	1,230.47	68.4693	1,230.47	69.8077	1,230.47	70.58	1,230.47	65.7721	1,230.47	72.2173	1,230.47	69.037	1,230.47	71.9817
1,274.41	82.541	1,274.41	82.6057	1,274.41	81.7139	1,274.41	82.1039	1,274.41	80.1213	1,274.41	80.9043	1,274.41	78.2151	1,274.41	79.0222	1,274.41	76.2202	1,274.41	77.3767	1,274.41	74.5436	1,274.41	76.5236	1,274.41	73.4134	1,274.41	74.9338	1,274.41	71.2139	1,274.41	71.0015	1,274.41	68.7354	1,274.41	65.8682	1,274.41	68.6395	1,274.41	65.6991	1,274.41	68.7752	1,274.41	68.6597	1,274.41	67.5935	1,274.41	70.3428	1,274.41	67.4731	1,274.41	70.5623	1,274.41	68.8856	1,274.41	69.5316	1,274.41	70.0461	1,274.41	67.3996	1,274.41	69.3407	1,274.41	69.0614	1,274.41	65.0741	1,274.41	71.7951	1,274.41	66.9465	1,274.41	71.3744
1,319.82	81.71	1,319.82	82.116	1,319.82	80.8978	1,319.82	81.8543	1,319.82	79.5699	1,319.82	80.4729	1,319.82	77.6732	1,319.82	78.4236	1,319.82	75.5877	1,319.82	77.0279	1,319.82	74.516	1,319.82	75.9091	1,319.82	72.7872	1,319.82	73.4114	1,319.82	68.9683	1,319.82	68.314	1,319.82	67.7547	1,319.82	64.022	1,319.82	68.787	1,319.82	62.1537	1,319.82	67.2731	1,319.82	62.4957	1,319.82	66.8499	1,319.82	67.9302	1,319.82	67.0605	1,319.82	70.2309	1,319.82	65.6117	1,319.82	69.6301	1,319.82	69.0851	1,319.82	66.6475	1,319.82	70.1125	1,319.82	67.733	1,319.82	66.7277	1,319.82	70.4026	1,319.82	67.1071	1,319.82	70.3017
1,366.7	81.1603	1,366.7	81.6187	1,366.7	80.2632	1,366.7	81.2518	1,366.7	79.1878	1,366.7	79.8549	1,366.7	77.7162	1,366.7	78.0522	1,366.7	74.9048	1,366.7	76.6208	1,366.7	72.1612	1,366.7	74.8243	1,366.7	71.7737	1,366.7	71.2983	1,366.7	70.2186	1,366.7	66.2566	1,366.7	69.1964	1,366.7	65.1863	1,366.7	70.2068	1,366.7	66.4141	1,366.7	69.8445	1,366.7	64.2196	1,366.7	67.0911	1,366.7	62.9835	1,366.7	60.6858	1,366.7	66.4489	1,366.7	58.6586	1,366.7	68.4872	1,366.7	68.516	1,366.7	66.9131	1,366.7	69.2788	1,366.7	66.3939	1,366.7	64.1207	1,366.7	70.3519	1,366.7	67.6488	1,366.7	71.2092
1,413.57	81.2177	1,413.57	80.7894	1,413.57	80.2545	1,413.57	79.9578	1,413.57	77.4142	1,413.57	79.4875	1,413.57	74.4388	1,413.57	79.1865	1,413.57	74.1779	1,413.57	78.2822	1,413.57	73.8733	1,413.57	75.9408	1,413.57	71.5611	1,413.57	71.4088	1,413.57	65.2304	1,413.57	65.6156	1,413.57	62.2697	1,413.57	63.9994	1,413.57	61.2096	1,413.57	64.2037	1,413.57	62.0405	1,413.57	64.319	1,413.57	61.605	1,413.57	61.2441	1,413.57	64.8336	1,413.57	64.352	1,413.57	68.299	1,413.57	71.5166	1,413.57	63.2834	1,413.57	70.8472	1,413.57	59.4816	1,413.57	69.0369	1,413.57	67.0715	1,413.57	69.0169	1,413.57	67.007	1,413.57	66.8689
1,463.38	81.1837	1,463.38	81.0648	1,463.38	79.8235	1,463.38	80.0908	1,463.38	77.1044	1,463.38	78.7841	1,463.38	73.9417	1,463.38	77.3489	1,463.38	71.2354	1,463.38	75.9825	1,463.38	71.4876	1,463.38	73.7084	1,463.38	70.1225	1,463.38	69.0165	1,463.38	65.7643	1,463.38	66.3524	1,463.38	66.7452	1,463.38	67.2291	1,463.38	65.2249	1,463.38	63.2273	1,463.38	63.9266	1,463.38	60.135	1,463.38	64.3181	1,463.38	58.9211	1,463.38	59.9088	1,463.38	59.5928	1,463.38	62.2113	1,463.38	67.9924	1,463.38	60.9325	1,463.38	68.4403	1,463.38	59.7271	1,463.38	66.9662	1,463.38	62.45	1,463.38	69.2689	1,463.38	65.773	1,463.38	69.036
1,516.11	81.7713	1,516.11	81.3959	1,516.11	80.1152	1,516.11	79.8017	1,516.11	76.6213	1,516.11	77.7104	1,516.11	73.5451	1,516.11	75.9691	1,516.11	71.0706	1,516.11	75.0309	1,516.11	69.0751	1,516.11	73.1684	1,516.11	63.7863	1,516.11	68.724	1,516.11	61.527	1,516.11	63.9925	1,516.11	66.7102	1,516.11	61.6637	1,516.11	66.3111	1,516.11	62.3953	1,516.11	64.1531	1,516.11	66.0025	1,516.11	64.1491	1,516.11	68.2501	1,516.11	59.049	1,516.11	66.393	1,516.11	63.433	1,516.11	69.5803	1,516.11	66.0003	1,516.11	68.7732	1,516.11	52.0553	1,516.11	67.2107	1,516.11	62.4646	1,516.11	68.6149	1,516.11	66.6641	1,516.11	68.0803
1,568.85	82.0507	1,568.85	81.7542	1,568.85	80.2419	1,568.85	79.829	1,568.85	76.6953	1,568.85	77.3287	1,568.85	74.5059	1,568.85	76.2909	1,568.85	71.3032	1,568.85	75.7741	1,568.85	63.8401	1,568.85	73.5566	1,568.85	63.0967	1,568.85	69.3773	1,568.85	69.3576	1,568.85	65.1709	1,568.85	70.7147	1,568.85	64.2337	1,568.85	69.5934	1,568.85	63.058	1,568.85	68.8704	1,568.85	62.4285	1,568.85	68.7191	1,568.85	68.4203	1,568.85	60.0851	1,568.85	65.7742	1,568.85	61.8177	1,568.85	66.4207	1,568.85	64.9479	1,568.85	66.1476	1,568.85	61.6661	1,568.85	63.1649	1,568.85	55.3577	1,568.85	67.6142	1,568.85	65.2364	1,568.85	69.2581
1,624.51	81.7526	1,624.51	82.1189	1,624.51	79.9561	1,624.51	80.6844	1,624.51	77.5837	1,624.51	77.7389	1,624.51	75.0227	1,624.51	74.9303	1,624.51	69.7207	1,624.51	73.6396	1,624.51	53.6605	1,624.51	73.3565	1,624.51	67.4317	1,624.51	71.9101	1,624.51	73.2363	1,624.51	67.9503	1,624.51	73.1211	1,624.51	68.8329	1,624.51	71.7674	1,624.51	68.6339	1,624.51	71.4474	1,624.51	56.6823	1,624.51	70.5196	1,624.51	66.5	1,624.51	66.9769	1,624.51	65.8252	1,624.51	58.7333	1,624.51	64.3915	1,624.51	64.2516	1,624.51	63.2709	1,624.51	64.1053	1,624.51	56.2092	1,624.51	47.6056	1,624.51	64.6214	1,624.51	66.7673	1,624.51	69.3439
1,681.64	81.0182	1,681.64	81.0819	1,681.64	79.5025	1,681.64	79.6405	1,681.64	77.4339	1,681.64	77.32	1,681.64	73.4281	1,681.64	73.8021	1,681.64	59.7122	1,681.64	70.4067	1,681.64	67.5261	1,681.64	71.8496	1,681.64	70.2147	1,681.64	71.8551	1,681.64	71.3242	1,681.64	67.9767	1,681.64	69.632	1,681.64	68.9673	1,681.64	67.5152	1,681.64	68.8549	1,681.64	67.7635	1,681.64	56.33	1,681.64	69.2854	1,681.64	63.1794	1,681.64	70.5892	1,681.64	62.7498	1,681.64	68.1456	1,681.64	32.5476	1,681.64	59.5745	1,681.64	49.084	1,681.64	60.8537	1,681.64	55.7414	1,681.64	56.0724	1,681.64	65.721	1,681.64	61.5717	1,681.64	68.6032
1,741.7	80.1467	1,741.7	80.529	1,741.7	78.4321	1,741.7	79.2248	1,741.7	76.1687	1,741.7	76.6227	1,741.7	70.6861	1,741.7	73.0036	1,741.7	49.5922	1,741.7	69.8186	1,741.7	63.6108	1,741.7	67.0557	1,741.7	69.0875	1,741.7	62.6973	1,741.7	72.816	1,741.7	55.2656	1,741.7	71.3917	1,741.7	61.379	1,741.7	68.1909	1,741.7	51.0703	1,741.7	66.9617	1,741.7	60.2883	1,741.7	65.5564	1,741.7	61.5556	1,741.7	63.7815	1,741.7	56.1591	1,741.7	65.558	1,741.7	63.5374	1,741.7	62.2839	1,741.7	64.4433	1,741.7	54.8035	1,741.7	63.7702	1,741.7	57.6524	1,741.7	63.2237	1,741.7	61.5749	1,741.7	64.8521
1,803.22	80.2452	1,803.22	79.7059	1,803.22	78.1161	1,803.22	78.0142	1,803.22	74.0323	1,803.22	76.3222	1,803.22	70.4802	1,803.22	73.2306	1,803.22	66.5238	1,803.22	72.4749	1,803.22	67.4094	1,803.22	68.9754	1,803.22	68.7755	1,803.22	58.0841	1,803.22	69.5915	1,803.22	62.4318	1,803.22	70.2012	1,803.22	67.3462	1,803.22	69.7399	1,803.22	61.7556	1,803.22	68.1183	1,803.22	64.4997	1,803.22	64.6172	1,803.22	58.0902	1,803.22	62.9134	1,803.22	56.8408	1,803.22	64.7533	1,803.22	44.2042	1,803.22	64.4944	1,803.22	54.8743	1,803.22	60.0372	1,803.22	66.048	1,803.22	57.0187	1,803.22	64.9034	1,803.22	66.0267	1,803.22	67.327
1,866.21	80.1764	1,866.21	79.537	1,866.21	78.6312	1,866.21	78.416	1,866.21	74.1237	1,866.21	75.8947	1,866.21	69.4823	1,866.21	73.7054	1,866.21	70.3717	1,866.21	74.7884	1,866.21	72.4455	1,866.21	68.819	1,866.21	71.1009	1,866.21	60.7164	1,866.21	69.3621	1,866.21	66.0312	1,866.21	72.4285	1,866.21	71.2924	1,866.21	73.6783	1,866.21	66.5555	1,866.21	70.1158	1,866.21	63.8177	1,866.21	66.2115	1,866.21	60.8527	1,866.21	64.5833	1,866.21	52.4957	1,866.21	66.2732	1,866.21	60.9219	1,866.21	62.8901	1,866.21	56.9663	1,866.21	61.848	1,866.21	63.8169	1,866.21	53.8501	1,866.21	63.9197	1,866.21	65.8343	1,866.21	66.013
1,932.13	80.3987	1,932.13	80.2837	1,932.13	79.1841	1,932.13	79.0787	1,932.13	75.4241	1,932.13	75.0928	1,932.13	69.6186	1,932.13	71.6833	1,932.13	71.0236	1,932.13	71.828	1,932.13	72.382	1,932.13	62.5442	1,932.13	75.6703	1,932.13	64.7682	1,932.13	76.7316	1,932.13	59.4422	1,932.13	76.4886	1,932.13	71.8697	1,932.13	76.7181	1,932.13	70.0372	1,932.13	75.1191	1,932.13	63.4127	1,932.13	72.4102	1,932.13	61.7342	1,932.13	63.6267	1,932.13	63.925	1,932.13	65.2657	1,932.13	59.6977	1,932.13	69.213	1,932.13	64.2798	1,932.13	62.8846	1,932.13	65.8504	1,932.13	58.6159	1,932.13	65.4407	1,932.13	67.7198	1,932.13	68.4318
1,999.51	80.3688	1,999.51	81.0968	1,999.51	79.0662	1,999.51	79.5648	1,999.51	74.8588	1,999.51	74.3467	1,999.51	67.3847	1,999.51	74.2858	1,999.51	71.8166	1,999.51	72.6201	1,999.51	73.7968	1,999.51	66.0737	1,999.51	75.3368	1,999.51	68.4006	1,999.51	75.9504	1,999.51	64.1553	1,999.51	74.7682	1,999.51	61.7198	1,999.51	72.8368	1,999.51	60.3373	1,999.51	69.7843	1,999.51	56.7989	1,999.51	70.4534	1,999.51	65.272	1,999.51	71.3781	1,999.51	62.7294	1,999.51	63.5684	1,999.51	62.8943	1,999.51	64.6847	1,999.51	65.8465	1,999.51	67.3263	1,999.51	67.7184	1,999.51	56.2575	1,999.51	68.3814	1,999.51	66.2399	1,999.51	69.488
2,069.82	78.7394	2,069.82	80.5704	2,069.82	78.4365	2,069.82	79.3711	2,069.82	77.9929	2,069.82	76.6274	2,069.82	73.8007	2,069.82	75.5294	2,069.82	73.5884	2,069.82	72.6543	2,069.82	74.4216	2,069.82	71.4787	2,069.82	75.2681	2,069.82	63.5897	2,069.82	75.9731	2,069.82	65.3838	2,069.82	74.9923	2,069.82	62.5847	2,069.82	72.8132	2,069.82	57.1114	2,069.82	70.7787	2,069.82	63.2864	2,069.82	70.2978	2,069.82	62.3109	2,069.82	70.0996	2,069.82	67.5286	2,069.82	68.706	2,069.82	59.9376	2,069.82	45.8281	2,069.82	58.1563	2,069.82	63.4186	2,069.82	59.7669	2,069.82	53.2796	2,069.82	67.5711	2,069.82	68.4315	2,069.82	72.1807
2,143.07	80.4217	2,143.07	81.0521	2,143.07	78.3488	2,143.07	79.4396	2,143.07	76.6958	2,143.07	78.8603	2,143.07	74.9927	2,143.07	75.5687	2,143.07	77.3502	2,143.07	68.6766	2,143.07	76.8569	2,143.07	59.8242	2,143.07	75.9702	2,143.07	70.4372	2,143.07	75.785	2,143.07	75.1962	2,143.07	71.9853	2,143.07	66.9766	2,143.07	70.2926	2,143.07	64.8105	2,143.07	69.9162	2,143.07	71.5235	2,143.07	72.3132	2,143.07	59.7828	2,143.07	73.478	2,143.07	67.3026	2,143.07	68.59	2,143.07	66.5554	2,143.07	66.4717	2,143.07	55.6446	2,143.07	65.4701	2,143.07	63.5633	2,143.07	47.2903	2,143.07	65.6782	2,143.07	68.8083	2,143.07	72.5536
2,219.24	81.9443	2,219.24	81.4142	2,219.24	77.579	2,219.24	79.2686	2,219.24	75.1728	2,219.24	77.1436	2,219.24	74.1291	2,219.24	72.2281	2,219.24	75.4802	2,219.24	75.3112	2,219.24	77.5014	2,219.24	70.6301	2,219.24	76.3511	2,219.24	73.751	2,219.24	73.742	2,219.24	74.0341	2,219.24	74.3311	2,219.24	70.6303	2,219.24	72.4354	2,219.24	64.9787	2,219.24	66.9132	2,219.24	66.8023	2,219.24	72.699	2,219.24	68.3893	2,219.24	74.2368	2,219.24	66.2718	2,219.24	66.8009	2,219.24	68.3118	2,219.24	58.2356	2,219.24	58.6618	2,219.24	66.7495	2,219.24	67.5923	2,219.24	62.9418	2,219.24	61.2447	2,219.24	69.1876	2,219.24	69.2067
2,296.88	81.8381	2,296.88	82.1792	2,296.88	79.167	2,296.88	80.4476	2,296.88	74.8639	2,296.88	76.0501	2,296.88	74.6214	2,296.88	74.0917	2,296.88	76.1703	2,296.88	70.1417	2,296.88	77.9957	2,296.88	46.4907	2,296.88	78.2315	2,296.88	72.8413	2,296.88	76.2856	2,296.88	71.5024	2,296.88	73.3959	2,296.88	70.3564	2,296.88	71.2946	2,296.88	69.9186	2,296.88	71.0538	2,296.88	70.3937	2,296.88	71.3997	2,296.88	68.8281	2,296.88	70.7226	2,296.88	67.5872	2,296.88	61.0175	2,296.88	61.4805	2,296.88	61.5484	2,296.88	57.9469	2,296.88	54.5608	2,296.88	64.1703	2,296.88	61.9148	2,296.88	68.097	2,296.88	71.4024	2,296.88	70.1986
2,378.91	80.7022	2,378.91	80.9254	2,378.91	78.1399	2,378.91	79.2208	2,378.91	73.6847	2,378.91	75.0846	2,378.91	72.3508	2,378.91	74.5516	2,378.91	75.946	2,378.91	65.4227	2,378.91	78.5305	2,378.91	72.3834	2,378.91	76.6759	2,378.91	71.2146	2,378.91	77.0566	2,378.91	63.6677	2,378.91	73.8262	2,378.91	67.4175	2,378.91	67.7405	2,378.91	70.0477	2,378.91	72.8321	2,378.91	71.1334	2,378.91	57.9875	2,378.91	66.7002	2,378.91	68.5046	2,378.91	71.3915	2,378.91	68.9865	2,378.91	68.3366	2,378.91	66.6205	2,378.91	68.6063	2,378.91	64.113	2,378.91	57.5527	2,378.91	63.8555	2,378.91	64.1412	2,378.91	71.7885	2,378.91	71.6315
2,462.4	80.5932	2,462.4	80.4578	2,462.4	78.0888	2,462.4	78.9522	2,462.4	73.3832	2,462.4	77.1079	2,462.4	75.8333	2,462.4	73.2262	2,462.4	77.4985	2,462.4	70.3902	2,462.4	77.9272	2,462.4	72.6826	2,462.4	77.7442	2,462.4	71.7551	2,462.4	75.4841	2,462.4	73.3476	2,462.4	73.5374	2,462.4	72.4475	2,462.4	73.1472	2,462.4	70.3512	2,462.4	71.1092	2,462.4	70.4484	2,462.4	67.8241	2,462.4	66.3219	2,462.4	64.7033	2,462.4	66.8794	2,462.4	69.9406	2,462.4	67.5753	2,462.4	65.1644	2,462.4	63.0435	2,462.4	61.6452	2,462.4	57.534	2,462.4	61.6352	2,462.4	66.806	2,462.4	68.7697	2,462.4	69.3428
2,548.83	82.2579	2,548.83	81.8018	2,548.83	79.759	2,548.83	80.4209	2,548.83	73.7197	2,548.83	76.9027	2,548.83	75.4715	2,548.83	71.9201	2,548.83	78.8573	2,548.83	76.1052	2,548.83	78.5834	2,548.83	75.4877	2,548.83	77.7503	2,548.83	74.5193	2,548.83	75.1149	2,548.83	73.8401	2,548.83	74.9411	2,548.83	71.362	2,548.83	75.707	2,548.83	71.9955	2,548.83	71.4181	2,548.83	72.8543	2,548.83	65.1729	2,548.83	67.666	2,548.83	64.7343	2,548.83	67.5976	2,548.83	68.7107	2,548.83	69.6782	2,548.83	67.3584	2,548.83	65.1538	2,548.83	59.6031	2,548.83	52.4933	2,548.83	58.5189	2,548.83	66.0915	2,548.83	69.288	2,548.83	70.6441
2,639.65	82.2366	2,639.65	82.6374	2,639.65	80.4082	2,639.65	81.1574	2,639.65	76.3113	2,639.65	75.307	2,639.65	74.8187	2,639.65	76.1657	2,639.65	77.9081	2,639.65	77.0812	2,639.65	79.085	2,639.65	74.8705	2,639.65	78.2333	2,639.65	74.8516	2,639.65	76.104	2,639.65	75.4124	2,639.65	75.7611	2,639.65	74.7407	2,639.65	75.2659	2,639.65	72.6401	2,639.65	73.487	2,639.65	71.3732	2,639.65	69.0494	2,639.65	69.4463	2,639.65	67.2125	2,639.65	67.2859	2,639.65	67.6096	2,639.65	68.7047	2,639.65	66.196	2,639.65	67.7197	2,639.65	61.558	2,639.65	61.1092	2,639.65	56.9592	2,639.65	64.9737	2,639.65	71.3345	2,639.65	70.4859
2,731.93	81.6103	2,731.93	82.309	2,731.93	79.708	2,731.93	80.7182	2,731.93	77.7117	2,731.93	76.4747	2,731.93	76.7371	2,731.93	76.9133	2,731.93	77.7283	2,731.93	76.3912	2,731.93	79.8792	2,731.93	76.5928	2,731.93	79.2276	2,731.93	76.1438	2,731.93	76.6335	2,731.93	74.5687	2,731.93	74.9906	2,731.93	72.456	2,731.93	72.3485	2,731.93	69.946	2,731.93	68.8195	2,731.93	70.5373	2,731.93	68.1046	2,731.93	67.3021	2,731.93	68.7335	2,731.93	68.5586	2,731.93	70.2507	2,731.93	70.2849	2,731.93	66.4018	2,731.93	67.5696	2,731.93	60.2493	2,731.93	57.3106	2,731.93	58.5359	2,731.93	66.6899	2,731.93	70.5926	2,731.93	67.4838
2,828.61	81.0311	2,828.61	81.5507	2,828.61	79.31	2,828.61	79.7431	2,828.61	76.9174	2,828.61	76.8277	2,828.61	76.4021	2,828.61	77.8721	2,828.61	77.7583	2,828.61	77.996	2,828.61	80.0957	2,828.61	77.7433	2,828.61	78.7105	2,828.61	76.3804	2,828.61	78.5427	2,828.61	73.6642	2,828.61	76.1848	2,828.61	71.5809	2,828.61	68.355	2,828.61	71.5067	2,828.61	63.6411	2,828.61	71.3114	2,828.61	67.4888	2,828.61	68.6897	2,828.61	70.8283	2,828.61	66.5552	2,828.61	67.5562	2,828.61	68.8496	2,828.61	66.8542	2,828.61	68.9836	2,828.61	47.4832	2,828.61	62.2059	2,828.61	60.3968	2,828.61	66.7827	2,828.61	70.4295	2,828.61	67.681
2,928.22	81.769	2,928.22	82.1027	2,928.22	79.7523	2,928.22	79.7357	2,928.22	75.8881	2,928.22	76.7918	2,928.22	76.8835	2,928.22	78.8756	2,928.22	79.29	2,928.22	78.9107	2,928.22	79.8123	2,928.22	77.7829	2,928.22	79.2729	2,928.22	75.1172	2,928.22	79.6534	2,928.22	73.9398	2,928.22	75.6448	2,928.22	75.4799	2,928.22	62.1405	2,928.22	72.4286	2,928.22	67.557	2,928.22	70.8522	2,928.22	70.1976	2,928.22	69.1342	2,928.22	69.449	2,928.22	66.0986	2,928.22	67.9899	2,928.22	68.6858	2,928.22	64.9024	2,928.22	67.0725	2,928.22	58.6692	2,928.22	60.4918	2,928.22	60.2	2,928.22	68.5473	2,928.22	70.3423	2,928.22	68.4139
3,030.76	81.8693	3,030.76	83.0396	3,030.76	80.141	3,030.76	80.1324	3,030.76	77.4672	3,030.76	79.1075	3,030.76	76.5953	3,030.76	79.2755	3,030.76	80.0589	3,030.76	78.7782	3,030.76	79.9399	3,030.76	76.6088	3,030.76	78.8779	3,030.76	76.532	3,030.76	79.4715	3,030.76	76.5513	3,030.76	73.3529	3,030.76	73.7402	3,030.76	61.9197	3,030.76	69.9828	3,030.76	67.9266	3,030.76	69.4534	3,030.76	71.5714	3,030.76	68.5173	3,030.76	67.2927	3,030.76	64.206	3,030.76	70.0693	3,030.76	67.2012	3,030.76	64.2298	3,030.76	68.1845	3,030.76	55.9216	3,030.76	61.8869	3,030.76	58.8092	3,030.76	67.8219	3,030.76	69.296	3,030.76	69.0443
3,137.7	82.1464	3,137.7	82.6091	3,137.7	79.5315	3,137.7	80.517	3,137.7	78.816	3,137.7	79.6231	3,137.7	75.8013	3,137.7	79.6204	3,137.7	79.4837	3,137.7	79.2866	3,137.7	80.6516	3,137.7	77.8732	3,137.7	79.9436	3,137.7	78.7593	3,137.7	79.7019	3,137.7	74.3127	3,137.7	72.4261	3,137.7	72.2917	3,137.7	66.7845	3,137.7	72.7228	3,137.7	69.763	3,137.7	69.9578	3,137.7	70.0066	3,137.7	69.5378	3,137.7	63.0375	3,137.7	66.1879	3,137.7	69.2831	3,137.7	67.3358	3,137.7	66.8984	3,137.7	68.5025	3,137.7	61.4269	3,137.7	63.513	3,137.7	61.1508	3,137.7	66.9603	3,137.7	69.1707	3,137.7	69.6917
3,249.02	82.0119	3,249.02	81.438	3,249.02	79.0728	3,249.02	80.8706	3,249.02	78.4358	3,249.02	79.4564	3,249.02	77.7554	3,249.02	80.2805	3,249.02	78.3608	3,249.02	78.5374	3,249.02	80.6462	3,249.02	78.5368	3,249.02	82.1214	3,249.02	76.029	3,249.02	80.2881	3,249.02	73.8746	3,249.02	72.7507	3,249.02	75.9436	3,249.02	71.6266	3,249.02	72.8838	3,249.02	71.0625	3,249.02	70.3021	3,249.02	73.9769	3,249.02	68.7195	3,249.02	63.1888	3,249.02	66.3782	3,249.02	68.6235	3,249.02	68.6002	3,249.02	64.4873	3,249.02	67.2097	3,249.02	62.8562	3,249.02	65.0675	3,249.02	57.8501	3,249.02	66.7375	3,249.02	70.3635	3,249.02	69.6017
3,363.28	81.5061	3,363.28	81.5373	3,363.28	79.4401	3,363.28	80.8695	3,363.28	78.0592	3,363.28	79.2122	3,363.28	78.571	3,363.28	80.4656	3,363.28	79.1172	3,363.28	79.8295	3,363.28	80.4314	3,363.28	77.9073	3,363.28	82.1807	3,363.28	77.2616	3,363.28	80.5095	3,363.28	76.8529	3,363.28	77.5367	3,363.28	73.9558	3,363.28	77.1362	3,363.28	70.8087	3,363.28	73.1217	3,363.28	70.3281	3,363.28	71.5628	3,363.28	70.2049	3,363.28	64.8348	3,363.28	65.5503	3,363.28	67.4303	3,363.28	69.2305	3,363.28	64.9707	3,363.28	66.6702	3,363.28	48.7817	3,363.28	63.397	3,363.28	61.2764	3,363.28	67.7894	3,363.28	70.9536	3,363.28	68.4158
3,481.93	80.4698	3,481.93	81.8697	3,481.93	79.6953	3,481.93	81.5628	3,481.93	80.5425	3,481.93	80.2197	3,481.93	80.7848	3,481.93	81.3745	3,481.93	80.3594	3,481.93	79.6	3,481.93	80.3585	3,481.93	78.0556	3,481.93	82.1101	3,481.93	78.4237	3,481.93	79.701	3,481.93	74.0676	3,481.93	77.7707	3,481.93	72.6202	3,481.93	78.4097	3,481.93	73.3836	3,481.93	75.0246	3,481.93	68.8682	3,481.93	72.7444	3,481.93	70.7064	3,481.93	65.5961	3,481.93	66.6343	3,481.93	65.6153	3,481.93	69.195	3,481.93	64.4655	3,481.93	67.4269	3,481.93	58.112	3,481.93	65.0607	3,481.93	61.947	3,481.93	66.4314	3,481.93	69.2917	3,481.93	68.1851
3,604.98	80.479	3,604.98	81.6341	3,604.98	78.8804	3,604.98	81.9597	3,604.98	80.7126	3,604.98	80.8884	3,604.98	82.52	3,604.98	80.9487	3,604.98	79.847	3,604.98	79.2412	3,604.98	80.7618	3,604.98	79.8906	3,604.98	83.3126	3,604.98	77.1856	3,604.98	79.8007	3,604.98	77.1909	3,604.98	78.4075	3,604.98	75.9671	3,604.98	77.1897	3,604.98	73.2683	3,604.98	73.0797	3,604.98	68.9193	3,604.98	72.2307	3,604.98	69.4881	3,604.98	69.4907	3,604.98	66.3503	3,604.98	64.1505	3,604.98	69.4987	3,604.98	62.5336	3,604.98	68.5493	3,604.98	58.1577	3,604.98	66.2047	3,604.98	62.7574	3,604.98	66.3644	3,604.98	68.2562	3,604.98	68.1827
3,732.42	80.3405	3,732.42	81.8946	3,732.42	80.6356	3,732.42	81.3265	3,732.42	79.5979	3,732.42	80.5229	3,732.42	81.7593	3,732.42	81.1563	3,732.42	81.2844	3,732.42	80.9801	3,732.42	80.2343	3,732.42	79.5515	3,732.42	83.0246	3,732.42	78.5897	3,732.42	79.7253	3,732.42	77.2223	3,732.42	74.8473	3,732.42	74.0478	3,732.42	68.9193	3,732.42	72.5147	3,732.42	70.5835	3,732.42	70.7249	3,732.42	72	3,732.42	69.838	3,732.42	71.7405	3,732.42	66.7792	3,732.42	68.1051	3,732.42	68.3608	3,732.42	66.7153	3,732.42	67.7117	3,732.42	56.7168	3,732.42	64.8233	3,732.42	61.7169	3,732.42	66.8103	3,732.42	69.3528	3,732.42	69.6183
3,864.26	78.749	3,864.26	82.3772	3,864.26	78.6207	3,864.26	81.6883	3,864.26	80.4389	3,864.26	80.4248	3,864.26	80.4989	3,864.26	81.28	3,864.26	81.1423	3,864.26	81.2606	3,864.26	80.3237	3,864.26	80.272	3,864.26	81.0484	3,864.26	79.5282	3,864.26	78.4853	3,864.26	73.7116	3,864.26	76.0971	3,864.26	72.937	3,864.26	71.1606	3,864.26	71.2086	3,864.26	54.4907	3,864.26	68.2812	3,864.26	71.7597	3,864.26	69.9496	3,864.26	70.6114	3,864.26	68.6242	3,864.26	66.4838	3,864.26	67.7565	3,864.26	63.2684	3,864.26	67.3956	3,864.26	62.3723	3,864.26	64.2533	3,864.26	63.9322	3,864.26	66.9356	3,864.26	68.5382	3,864.26	68.7578
4,000.49	80.1652	4,000.49	81.7017	4,000.49	77.0543	4,000.49	81.2436	4,000.49	80.2052	4,000.49	79.6529	4,000.49	81.5083	4,000.49	81.5212	4,000.49	79.7262	4,000.49	81.373	4,000.49	81.6491	4,000.49	80.4426	4,000.49	78.8398	4,000.49	76.033	4,000.49	73.5539	4,000.49	74.8498	4,000.49	75.5521	4,000.49	74.421	4,000.49	74.6072	4,000.49	70.8304	4,000.49	67.1702	4,000.49	69.3384	4,000.49	68.0682	4,000.49	67.0122	4,000.49	67.1741	4,000.49	66.0864	4,000.49	65.3732	4,000.49	66.5528	4,000.49	52.4185	4,000.49	67.5744	4,000.49	64.817	4,000.49	59.1756	4,000.49	62.6674	4,000.49	61.1718	4,000.49	62.8381	4,000.49	68.5063
4,141.11	79.7999	4,141.11	81.3701	4,141.11	78.4402	4,141.11	80.8934	4,141.11	78.2441	4,141.11	79.1333	4,141.11	81.1114	4,141.11	81.9893	4,141.11	81.2829	4,141.11	81.8828	4,141.11	80.2026	4,141.11	77.8805	4,141.11	78.8697	4,141.11	77.7175	4,141.11	75.5981	4,141.11	74.6611	4,141.11	77.3076	4,141.11	69.06	4,141.11	70.6381	4,141.11	70.4431	4,141.11	57.3984	4,141.11	69.6841	4,141.11	66.3298	4,141.11	67.6139	4,141.11	69.983	4,141.11	65.3879	4,141.11	64.8233	4,141.11	66.6531	4,141.11	62.3059	4,141.11	68.3533	4,141.11	63.425	4,141.11	61.8103	4,141.11	61.1919	4,141.11	61.5309	4,141.11	64.8375	4,141.11	66.4341
4,287.6	79.641	4,287.6	82.0276	4,287.6	80.1508	4,287.6	81.3312	4,287.6	80.2393	4,287.6	79.9945	4,287.6	81.2272	4,287.6	83.2073	4,287.6	81.8524	4,287.6	79.5537	4,287.6	81.5458	4,287.6	78.9141	4,287.6	79.4486	4,287.6	76.5337	4,287.6	78.2401	4,287.6	74.4995	4,287.6	76.837	4,287.6	75.9613	4,287.6	66.0698	4,287.6	71.9223	4,287.6	51.5036	4,287.6	70.1764	4,287.6	63.2383	4,287.6	67.2146	4,287.6	70.7778	4,287.6	67.1742	4,287.6	63.7723	4,287.6	64.1314	4,287.6	65.7995	4,287.6	66.7429	4,287.6	64.5055	4,287.6	62.8863	4,287.6	61.072	4,287.6	65.9997	4,287.6	64.9667	4,287.6	67.0634
4,438.48	79.1939	4,438.48	82.0445	4,438.48	80.442	4,438.48	78.5546	4,438.48	82.0278	4,438.48	80.8065	4,438.48	82.4314	4,438.48	81.5318	4,438.48	82.0911	4,438.48	79.5373	4,438.48	81.5966	4,438.48	79.5212	4,438.48	79.9602	4,438.48	77.3494	4,438.48	80.9672	4,438.48	76.8754	4,438.48	74.8494	4,438.48	71.0255	4,438.48	67.6253	4,438.48	69.2576	4,438.48	64.4336	4,438.48	70.0976	4,438.48	62.7598	4,438.48	67.5871	4,438.48	67.6908	4,438.48	63.5138	4,438.48	66.5024	4,438.48	64.286	4,438.48	58.8618	4,438.48	67.1142	4,438.48	60.6652	4,438.48	58.1089	4,438.48	62.9172	4,438.48	63.4174	4,438.48	61.3449	4,438.48	68.1602
4,595.21	79.7417	4,595.21	81.8529	4,595.21	78.6623	4,595.21	79.8928	4,595.21	83.3866	4,595.21	82.1812	4,595.21	83.4333	4,595.21	81.2515	4,595.21	81.5789	4,595.21	79.1045	4,595.21	80.5078	4,595.21	79.764	4,595.21	79.3646	4,595.21	78.5333	4,595.21	80.5433	4,595.21	73.1274	4,595.21	73.8417	4,595.21	72.8607	4,595.21	69.8139	4,595.21	68.9475	4,595.21	66.9926	4,595.21	68.0367	4,595.21	64.3485	4,595.21	67.0486	4,595.21	62.4756	4,595.21	65.6834	4,595.21	64.6706	4,595.21	62.2149	4,595.21	55.2861	4,595.21	66.8959	4,595.21	62.6172	4,595.21	62.6285	4,595.21	61.6807	4,595.21	59.683	4,595.21	60.8466	4,595.21	66.6414
4,756.35	81.4346	4,756.35	81.3066	4,756.35	78.4617	4,756.35	80.4995	4,756.35	82.929	4,756.35	81.1066	4,756.35	82.6746	4,756.35	80.0072	4,756.35	80.4984	4,756.35	80.3549	4,756.35	79.487	4,756.35	79.8403	4,756.35	78.2456	4,756.35	75.296	4,756.35	79.1217	4,756.35	74.5351	4,756.35	75.2551	4,756.35	71.8281	4,756.35	75.0445	4,756.35	69.0894	4,756.35	70.3368	4,756.35	66.5114	4,756.35	60.1012	4,756.35	64.8162	4,756.35	64.5247	4,756.35	64.8526	4,756.35	61.051	4,756.35	59.7061	4,756.35	59.2578	4,756.35	63.2862	4,756.35	64.3324	4,756.35	59.9367	4,756.35	55.423	4,756.35	59.5764	4,756.35	61.6443	4,756.35	65.051
4,924.8	81.706	4,924.8	81.0461	4,924.8	78.5535	4,924.8	80.7433	4,924.8	81.1218	4,924.8	79.9423	4,924.8	82.717	4,924.8	81.2975	4,924.8	79.9851	4,924.8	80.5868	4,924.8	77.1983	4,924.8	78.2482	4,924.8	76.9119	4,924.8	76.8909	4,924.8	76.8979	4,924.8	73.1809	4,924.8	72.8282	4,924.8	72.0184	4,924.8	73.9626	4,924.8	69.5733	4,924.8	66.4939	4,924.8	69.0348	4,924.8	57.5719	4,924.8	66.4634	4,924.8	60.1045	4,924.8	66.43	4,924.8	62.4856	4,924.8	61.4679	4,924.8	55.4497	4,924.8	64.473	4,924.8	58.7408	4,924.8	55.4063	4,924.8	58.4262	4,924.8	60.9583	4,924.8	62.1824	4,924.8	60.5684
5,097.66	81.6358	5,097.66	80.7202	5,097.66	80.4452	5,097.66	82.0754	5,097.66	81.1936	5,097.66	79.648	5,097.66	82.6355	5,097.66	81.4376	5,097.66	78.4404	5,097.66	79.6818	5,097.66	74.4538	5,097.66	79.0779	5,097.66	78.4857	5,097.66	75.6088	5,097.66	79.8588	5,097.66	75.888	5,097.66	76.4081	5,097.66	71.5279	5,097.66	72.107	5,097.66	70.3644	5,097.66	47.0499	5,097.66	67.0854	5,097.66	60.993	5,097.66	65.9765	5,097.66	60.8932	5,097.66	64.2353	5,097.66	59.5584	5,097.66	61.2445	5,097.66	60.4834	5,097.66	63.5333	5,097.66	58.6226	5,097.66	55.5879	5,097.66	59.9917	5,097.66	60.5904	5,097.66	60.9129	5,097.66	63.3538
5,277.83	80.9538	5,277.83	81.4586	5,277.83	81.2294	5,277.83	80.6713	5,277.83	79.8086	5,277.83	78.8179	5,277.83	81.9876	5,277.83	81.3443	5,277.83	79.6766	5,277.83	79.09	5,277.83	75.6163	5,277.83	78.7446	5,277.83	79.4338	5,277.83	76.2738	5,277.83	81.2226	5,277.83	72.0112	5,277.83	77.822	5,277.83	69.4843	5,277.83	73.1472	5,277.83	69.2261	5,277.83	67.9252	5,277.83	65.9998	5,277.83	60.6138	5,277.83	66.4273	5,277.83	52.2376	5,277.83	62.7286	5,277.83	56.6548	5,277.83	60.0917	5,277.83	57.9997	5,277.83	62.7642	5,277.83	55.3518	5,277.83	58.3255	5,277.83	60.6628	5,277.83	55.5938	5,277.83	57.9596	5,277.83	64.3323
5,463.87	81.5986	5,463.87	81.0997	5,463.87	81.1595	5,463.87	80.4407	5,463.87	79.2977	5,463.87	80.5781	5,463.87	82.328	5,463.87	81.1603	5,463.87	80.0176	5,463.87	79.2428	5,463.87	77.6075	5,463.87	78.3786	5,463.87	80.5144	5,463.87	72.8575	5,463.87	79.5168	5,463.87	74.136	5,463.87	76.5828	5,463.87	70.6199	5,463.87	72.8985	5,463.87	68.5075	5,463.87	69.4744	5,463.87	67.8964	5,463.87	58.0702	5,463.87	64.6815	5,463.87	54.0727	5,463.87	62.9882	5,463.87	17.5547	5,463.87	59.6391	5,463.87	54.1945	5,463.87	60.2883	5,463.87	62.2719	5,463.87	57.0872	5,463.87	54.394	5,463.87	55.2899	5,463.87	57.6582	5,463.87	60.7434
5,657.23	81.6331	5,657.23	82.848	5,657.23	82.2906	5,657.23	81.6925	5,657.23	79.6531	5,657.23	79.9813	5,657.23	82.0664	5,657.23	80.5621	5,657.23	79.2874	5,657.23	79.723	5,657.23	76.8586	5,657.23	77.3168	5,657.23	80.808	5,657.23	74.8921	5,657.23	78.2695	5,657.23	71.1198	5,657.23	74.1913	5,657.23	70.9246	5,657.23	71.1163	5,657.23	69.2809	5,657.23	69.157	5,657.23	66.9028	5,657.23	61.7322	5,657.23	66.1922	5,657.23	54.0016	5,657.23	63.4167	5,657.23	52.0879	5,657.23	60.6028	5,657.23	57.0612	5,657.23	60.2226	5,657.23	65.9303	5,657.23	60.4015	5,657.23	59.9405	5,657.23	54.9065	5,657.23	52.1434	5,657.23	63.329
5,856.45	81.8555	5,856.45	82.979	5,856.45	83.1348	5,856.45	80.6113	5,856.45	80.6913	5,856.45	80.352	5,856.45	80.6329	5,856.45	81.0414	5,856.45	78.0156	5,856.45	78.9644	5,856.45	76.4927	5,856.45	77.6121	5,856.45	80.3833	5,856.45	76.0265	5,856.45	76.4335	5,856.45	74.1332	5,856.45	73.3089	5,856.45	70.7317	5,856.45	67.3541	5,856.45	68.1931	5,856.45	63.1734	5,856.45	67.4415	5,856.45	63.256	5,856.45	64.641	5,856.45	56.6313	5,856.45	64.3722	5,856.45	54.6191	5,856.45	63.1526	5,856.45	52.8426	5,856.45	60.1333	5,856.45	63.2622	5,856.45	61.2788	5,856.45	55.6783	5,856.45	50.8673	5,856.45	53.6196	5,856.45	62.6385
6,062.99	82.6073	6,062.99	83.6837	6,062.99	81.4701	6,062.99	81.6545	6,062.99	81.2723	6,062.99	80.3501	6,062.99	79.8568	6,062.99	80.6289	6,062.99	77.4295	6,062.99	78.5775	6,062.99	77.4887	6,062.99	78.657	6,062.99	77.7774	6,062.99	74.9323	6,062.99	74.0053	6,062.99	72.5484	6,062.99	71.1978	6,062.99	70.053	6,062.99	62.1764	6,062.99	67.4348	6,062.99	39.2898	6,062.99	66.1083	6,062.99	61.3664	6,062.99	63.7771	6,062.99	61.6271	6,062.99	63.44	6,062.99	60.9311	6,062.99	61.5311	6,062.99	57.6183	6,062.99	61.5023	6,062.99	57.2842	6,062.99	60.0036	6,062.99	50.3736	6,062.99	53.2298	6,062.99	53.064	6,062.99	54.1024
6,276.86	82.6572	6,276.86	83.4449	6,276.86	82.1451	6,276.86	81.1491	6,276.86	79.9892	6,276.86	80.667	6,276.86	78.4349	6,276.86	80.4015	6,276.86	78.2071	6,276.86	78.9441	6,276.86	77.3611	6,276.86	78.2891	6,276.86	76.178	6,276.86	74.1578	6,276.86	75.816	6,276.86	72.6171	6,276.86	72.6504	6,276.86	67.667	6,276.86	66.706	6,276.86	67.3764	6,276.86	61.3446	6,276.86	64.8864	6,276.86	51.855	6,276.86	62.2802	6,276.86	65.6049	6,276.86	62.9162	6,276.86	59.5871	6,276.86	60.6755	6,276.86	54.4774	6,276.86	60.1718	6,276.86	48.4556	6,276.86	59.8866	6,276.86	53.8312	6,276.86	40.7362	6,276.86	57.4172	6,276.86	58.1219
6,498.05	82.772	6,498.05	83.6729	6,498.05	82.3597	6,498.05	81.8692	6,498.05	80.5502	6,498.05	80.0895	6,498.05	79.0584	6,498.05	80.1916	6,498.05	79.6796	6,498.05	79.3836	6,498.05	76.7565	6,498.05	77.7421	6,498.05	72.6255	6,498.05	73.1465	6,498.05	77.2402	6,498.05	73.0911	6,498.05	72.6169	6,498.05	69.2771	6,498.05	68.866	6,498.05	67.6206	6,498.05	66.0742	6,498.05	65.8332	6,498.05	53.2923	6,498.05	62.8654	6,498.05	63.004	6,498.05	62.1144	6,498.05	58.1917	6,498.05	59.5677	6,498.05	53.6533	6,498.05	60.5905	6,498.05	54.0154	6,498.05	57.6941	6,498.05	48.2652	6,498.05	54.5693	6,498.05	58.8458	6,498.05	55.5739
6,726.56	83.0945	6,726.56	84.16	6,726.56	82.4051	6,726.56	81.8901	6,726.56	80.2491	6,726.56	79.7273	6,726.56	80.7842	6,726.56	79.9625	6,726.56	81.4257	6,726.56	78.7955	6,726.56	77.7162	6,726.56	76.8052	6,726.56	73.6568	6,726.56	73.868	6,726.56	76.8502	6,726.56	71.0569	6,726.56	73.0659	6,726.56	65.9822	6,726.56	67.6015	6,726.56	66.5007	6,726.56	64.7013	6,726.56	63.8994	6,726.56	57.9223	6,726.56	61.6474	6,726.56	54.5357	6,726.56	58.5153	6,726.56	59.2739	6,726.56	59.3227	6,726.56	41.2701	6,726.56	59.1841	6,726.56	60.0645	6,726.56	56.7329	6,726.56	55.5497	6,726.56	50.9173	6,726.56	59.5977	6,726.56	57.1127
6,963.87	82.4127	6,963.87	83.6587	6,963.87	81.9232	6,963.87	81.8734	6,963.87	81.0697	6,963.87	79.277	6,963.87	80.9154	6,963.87	80.0426	6,963.87	80.8871	6,963.87	77.4985	6,963.87	76.5052	6,963.87	77.1163	6,963.87	71.9113	6,963.87	72.1326	6,963.87	76.4588	6,963.87	70.0482	6,963.87	69.2032	6,963.87	65.1251	6,963.87	64.2946	6,963.87	63.9632	6,963.87	62.5122	6,963.87	61.7353	6,963.87	63.7768	6,963.87	61.0223	6,963.87	52.7857	6,963.87	60.6972	6,963.87	55.683	6,963.87	59.0632	6,963.87	56.3815	6,963.87	57.1656	6,963.87	56.8986	6,963.87	58.4937	6,963.87	52.0464	6,963.87	51.8153	6,963.87	44.5039	6,963.87	53.0379
7,209.96	83.4501	7,209.96	84.012	7,209.96	82.3164	7,209.96	81.3346	7,209.96	80.0308	7,209.96	79.8684	7,209.96	80.5559	7,209.96	80.1296	7,209.96	80.5889	7,209.96	77.8769	7,209.96	76.5153	7,209.96	76.2661	7,209.96	73.5614	7,209.96	71.2784	7,209.96	70.7187	7,209.96	70.4987	7,209.96	70.8159	7,209.96	66.9972	7,209.96	66.4472	7,209.96	64.4347	7,209.96	64.4375	7,209.96	62.6371	7,209.96	63.7812	7,209.96	60.6994	7,209.96	53.593	7,209.96	60.9199	7,209.96	47.2109	7,209.96	59.7268	7,209.96	56.9135	7,209.96	58.4972	7,209.96	51.4537	7,209.96	59.0877	7,209.96	46.4481	7,209.96	52.551	7,209.96	50.6216	7,209.96	55.0411
7,464.84	82.3861	7,464.84	83.5394	7,464.84	82.2212	7,464.84	80.8892	7,464.84	80.4253	7,464.84	80.1843	7,464.84	79.0007	7,464.84	80.1411	7,464.84	78.2868	7,464.84	78.1205	7,464.84	75.5746	7,464.84	75.9751	7,464.84	69.4893	7,464.84	72.5716	7,464.84	70.3814	7,464.84	70.1116	7,464.84	70.2476	7,464.84	68.0209	7,464.84	57.3227	7,464.84	64.6187	7,464.84	60.2763	7,464.84	62.0984	7,464.84	62.9801	7,464.84	60.5419	7,464.84	53.2877	7,464.84	61.63	7,464.84	45.8531	7,464.84	61.2118	7,464.84	59.6119	7,464.84	60.0059	7,464.84	55.6536	7,464.84	60.9921	7,464.84	39.8158	7,464.84	52.2954	7,464.84	47.2183	7,464.84	53.2057
7,727.05	83.1757	7,727.05	84.0572	7,727.05	82.397	7,727.05	81.607	7,727.05	80.6681	7,727.05	80.3447	7,727.05	79.4996	7,727.05	79.9564	7,727.05	77.0878	7,727.05	77.8689	7,727.05	75.6092	7,727.05	76.0422	7,727.05	68.4353	7,727.05	72.524	7,727.05	72.6561	7,727.05	69.3981	7,727.05	70.099	7,727.05	66.0368	7,727.05	58.6291	7,727.05	63.8068	7,727.05	62.1457	7,727.05	62.4905	7,727.05	59.0814	7,727.05	59.6849	7,727.05	52.9614	7,727.05	58.8459	7,727.05	41.4646	7,727.05	60.5001	7,727.05	56.1925	7,727.05	59.9925	7,727.05	57.4724	7,727.05	59.0796	7,727.05	41.2968	7,727.05	52.5642	7,727.05	50.916	7,727.05	52.7167
7,999.51	82.6436	7,999.51	84.0818	7,999.51	82.259	7,999.51	81.7245	7,999.51	80.6063	7,999.51	79.8417	7,999.51	79.8198	7,999.51	80.0137	7,999.51	77.7512	7,999.51	78.2287	7,999.51	75.2185	7,999.51	76.0659	7,999.51	68.4092	7,999.51	72.2767	7,999.51	73.863	7,999.51	70.5682	7,999.51	67.2969	7,999.51	67.0884	7,999.51	56.7008	7,999.51	63.0481	7,999.51	59.6601	7,999.51	62.6108	7,999.51	60.4625	7,999.51	59.3733	7,999.51	56.439	7,999.51	60.7411	7,999.51	52.1028	7,999.51	60.3998	7,999.51	53.2298	7,999.51	60.5733	7,999.51	54.6055	7,999.51	60.5342	7,999.51	46.5994	7,999.51	52.5858	7,999.51	51.5747	7,999.51	45.6805
8,282.23	83.0214	8,282.23	84.2803	8,282.23	82.3134	8,282.23	81.7364	8,282.23	80.6548	8,282.23	79.6249	8,282.23	80.7758	8,282.23	80.1598	8,282.23	77.8515	8,282.23	78.0208	8,282.23	74.8674	8,282.23	75.9962	8,282.23	71.0278	8,282.23	72.6896	8,282.23	72.3567	8,282.23	70.0173	8,282.23	62.0176	8,282.23	66.8505	8,282.23	58.7521	8,282.23	63.1167	8,282.23	60.5554	8,282.23	62.1938	8,282.23	59.0508	8,282.23	59.1185	8,282.23	54.0255	8,282.23	59.9113	8,282.23	49.9079	8,282.23	60.8098	8,282.23	49.6681	8,282.23	60.4618	8,282.23	51.5355	8,282.23	59.2108	8,282.23	48.5568	8,282.23	53.058	8,282.23	53.103	8,282.23	52.9303
8,573.73	83.048	8,573.73	84.2483	8,573.73	81.8066	8,573.73	81.541	8,573.73	80.5642	8,573.73	79.7448	8,573.73	79.6283	8,573.73	79.924	8,573.73	77.4171	8,573.73	77.8634	8,573.73	73.9398	8,573.73	76.0904	8,573.73	71.7476	8,573.73	72.7548	8,573.73	69.5382	8,573.73	69.6461	8,573.73	66.9163	8,573.73	67.095	8,573.73	62.2073	8,573.73	62.0141	8,573.73	56.1091	8,573.73	62.2881	8,573.73	59.8487	8,573.73	58.226	8,573.73	51.6525	8,573.73	60.1928	8,573.73	39.6599	8,573.73	60.4698	8,573.73	49.9189	8,573.73	59.0757	8,573.73	49.367	8,573.73	59.6736	8,573.73	41.2299	8,573.73	56.6014	8,573.73	52.3944	8,573.73	51.3541
8,876.95	83.0771	8,876.95	84.2984	8,876.95	82.3592	8,876.95	81.423	8,876.95	80.4135	8,876.95	79.7794	8,876.95	78.5386	8,876.95	79.3423	8,876.95	77.3546	8,876.95	77.9819	8,876.95	74.3751	8,876.95	75.4085	8,876.95	72.3013	8,876.95	72.5077	8,876.95	60.3695	8,876.95	68.8735	8,876.95	67.7044	8,876.95	65.8991	8,876.95	57.9859	8,876.95	60.9681	8,876.95	55.0864	8,876.95	61.447	8,876.95	53.6349	8,876.95	56.3304	8,876.95	50.6437	8,876.95	59.172	8,876.95	43.7718	8,876.95	59.4904	8,876.95	50.7823	8,876.95	57.4819	8,876.95	46.729	8,876.95	59.4563	8,876.95	37.676	8,876.95	53.6584	8,876.95	50.6029	8,876.95	50.7503
9,188.96	83.0073	9,188.96	84.439	9,188.96	82.6411	9,188.96	81.6281	9,188.96	80.3788	9,188.96	79.4012	9,188.96	78.5195	9,188.96	79.1724	9,188.96	76.8738	9,188.96	77.5924	9,188.96	74.8944	9,188.96	74.8684	9,188.96	69.275	9,188.96	71.5251	9,188.96	59.8421	9,188.96	67.6081	9,188.96	66.7507	9,188.96	64.3913	9,188.96	62.0526	9,188.96	58.7828	9,188.96	55.3805	9,188.96	59.1247	9,188.96	51.8639	9,188.96	54.4412	9,188.96	42.0185	9,188.96	57.1123	9,188.96	47.8917	9,188.96	58.5603	9,188.96	48.824	9,188.96	57.7616	9,188.96	42.4091	9,188.96	58.0853	9,188.96	35.2291	9,188.96	50.6061	9,188.96	49.868	9,188.96	51.4154
9,514.16	82.819	9,514.16	84.4384	9,514.16	82.628	9,514.16	81.244	9,514.16	80.4071	9,514.16	79.1626	9,514.16	79.427	9,514.16	78.8181	9,514.16	76.3136	9,514.16	77.0881	9,514.16	75.2274	9,514.16	74.3879	9,514.16	67.0101	9,514.16	70.8797	9,514.16	64.4218	9,514.16	66.7465	9,514.16	65.5548	9,514.16	63.9524	9,514.16	62.5032	9,514.16	57.9165	9,514.16	57.9584	9,514.16	58.8704	9,514.16	47.6576	9,514.16	56.1151	9,514.16	48.4848	9,514.16	56.969	9,514.16	46.0239	9,514.16	56.7547	9,514.16	34.0049	9,514.16	56.1385	9,514.16	35.2656	9,514.16	56.9438	9,514.16	39.8627	9,514.16	47.6047	9,514.16	48.2111	9,514.16	52.3075
9,849.61	82.7313	9,849.61	84.2626	9,849.61	83.0094	9,849.61	80.6893	9,849.61	80.4732	9,849.61	79.1955	9,849.61	79.5539	9,849.61	78.1043	9,849.61	75.9069	9,849.61	76.7012	9,849.61	74.2493	9,849.61	73.1857	9,849.61	62.2688	9,849.61	70.0337	9,849.61	65.7354	9,849.61	64.5883	9,849.61	64.3789	9,849.61	62.3721	9,849.61	61.3617	9,849.61	54.0648	9,849.61	58.989	9,849.61	56.8975	9,849.61	33.8851	9,849.61	53.9697	9,849.61	43.6132	9,849.61	56.7421	9,849.61	50.6786	9,849.61	55.7763	9,849.61	47.0362	9,849.61	53.887	9,849.61	43.7435	9,849.61	56.5868	9,849.61	45.425	9,849.61	47.1876	9,849.61	47.6104	9,849.61	49.0407
10,196.8	82.4503	10,196.8	84.0316	10,196.8	82.8937	10,196.8	80.2914	10,196.8	79.8621	10,196.8	78.6286	10,196.8	78.1242	10,196.8	77.6113	10,196.8	74.8495	10,196.8	76.2031	10,196.8	72.3402	10,196.8	72.1187	10,196.8	64.3052	10,196.8	68.5333	10,196.8	64.9213	10,196.8	63.743	10,196.8	63.1913	10,196.8	61.449	10,196.8	58.2314	10,196.8	55.2093	10,196.8	57.481	10,196.8	55.8311	10,196.8	43.8266	10,196.8	52.2506	10,196.8	45.405	10,196.8	56.1754	10,196.8	48.2871	10,196.8	55.5158	10,196.8	28.0706	10,196.8	54.1546	10,196.8	44.0331	10,196.8	56.26	10,196.8	44.6134	10,196.8	44.4772	10,196.8	50.2036	10,196.8	48.6446
10,555.7	82.0296	10,555.7	83.6549	10,555.7	82.6289	10,555.7	79.9456	10,555.7	79.9758	10,555.7	78.2084	10,555.7	77.6439	10,555.7	77.0214	10,555.7	73.3433	10,555.7	75.4107	10,555.7	68.5792	10,555.7	71.0907	10,555.7	66.3818	10,555.7	67.7251	10,555.7	61.4093	10,555.7	63.3612	10,555.7	61.4367	10,555.7	60.6698	10,555.7	58.6085	10,555.7	56.4814	10,555.7	53.6893	10,555.7	54.5414	10,555.7	39.0015	10,555.7	51.3272	10,555.7	47.2577	10,555.7	54.5	10,555.7	46.5536	10,555.7	55.6574	10,555.7	40.4084	10,555.7	54.7224	10,555.7	49.4072	10,555.7	56.768	10,555.7	42.4351	10,555.7	43.5045	10,555.7	51.5363	10,555.7	48.9036
10,927.7	81.5778	10,927.7	83.5089	10,927.7	82.2561	10,927.7	79.7838	10,927.7	80.4347	10,927.7	78.3067	10,927.7	78.3073	10,927.7	76.2969	10,927.7	73.4967	10,927.7	74.8959	10,927.7	66.4139	10,927.7	69.6709	10,927.7	66.6695	10,927.7	67.6517	10,927.7	60.7533	10,927.7	63.1889	10,927.7	64.3726	10,927.7	60.429	10,927.7	61.7998	10,927.7	57.073	10,927.7	54.9117	10,927.7	53.8866	10,927.7	45.7114	10,927.7	53.2852	10,927.7	34.0751	10,927.7	53.0457	10,927.7	37.4897	10,927.7	54.7406	10,927.7	42.1357	10,927.7	53.3792	10,927.7	43.8967	10,927.7	56.6627	10,927.7	40.3473	10,927.7	47.2935	10,927.7	49.5431	10,927.7	50.1973
11,313	81.6238	11,313	83.6717	11,313	81.8744	11,313	79.8616	11,313	79.8977	11,313	78.3882	11,313	78.8065	11,313	75.8616	11,313	74.2439	11,313	74.0781	11,313	68.773	11,313	68.5865	11,313	67.0153	11,313	67.0216	11,313	62.9873	11,313	63.1897	11,313	63.7758	11,313	59.3595	11,313	61.6442	11,313	56.5902	11,313	57.0987	11,313	52.0407	11,313	45.2082	11,313	53.9343	11,313	47.2819	11,313	51.707	11,313	42.3968	11,313	52.358	11,313	41.1815	11,313	50.8104	11,313	39.5477	11,313	57.5031	11,313	46.7011	11,313	49.6246	11,313	52.5245	11,313	48.3909
11,712.9	81.7163	11,712.9	83.98	11,712.9	82.005	11,712.9	79.7385	11,712.9	79.5247	11,712.9	78.5647	11,712.9	77.8609	11,712.9	75.3553	11,712.9	72.5733	11,712.9	73.0453	11,712.9	69.2021	11,712.9	67.7423	11,712.9	65.6944	11,712.9	66.2528	11,712.9	62.5856	11,712.9	62.3542	11,712.9	61.34	11,712.9	57.4601	11,712.9	62.3379	11,712.9	54.5867	11,712.9	57.9455	11,712.9	48.5976	11,712.9	45.6984	11,712.9	53.5742	11,712.9	46.7818	11,712.9	48.7307	11,712.9	46.0506	11,712.9	49.4696	11,712.9	35.5904	11,712.9	52.2629	11,712.9	44.4036	11,712.9	57.2044	11,712.9	45.3169	11,712.9	46.1295	11,712.9	50.7291	11,712.9	39.5132
12,126	81.916	12,126	84.0615	12,126	81.9908	12,126	79.554	12,126	79.057	12,126	78.6105	12,126	77.0175	12,126	74.6751	12,126	72.0036	12,126	72.6025	12,126	68.8939	12,126	66.9746	12,126	66.2204	12,126	65.6762	12,126	62.1236	12,126	61.3387	12,126	61.8803	12,126	56.0557	12,126	60.0671	12,126	53.575	12,126	56.2514	12,126	45.8353	12,126	51.3623	12,126	53.3539	12,126	50.1751	12,126	46.1464	12,126	48.4774	12,126	47.9158	12,126	42.9647	12,126	51.785	12,126	39.8768	12,126	56.983	12,126	42.8484	12,126	39.4398	12,126	49.3162	12,126	39.9501
12,553.7	82.201	12,553.7	83.9743	12,553.7	82.2226	12,553.7	79.2198	12,553.7	79.3728	12,553.7	78.3135	12,553.7	77.0885	12,553.7	73.893	12,553.7	73.3777	12,553.7	71.7491	12,553.7	68.8764	12,553.7	66.5084	12,553.7	67.2696	12,553.7	65.0969	12,553.7	60.9505	12,553.7	60.9351	12,553.7	58.1456	12,553.7	54.0609	12,553.7	59.4113	12,553.7	53.8982	12,553.7	50.1664	12,553.7	44.5363	12,553.7	54.1858	12,553.7	52.5203	12,553.7	46.779	12,553.7	44.1798	12,553.7	42.6503	12,553.7	45.651	12,553.7	43.2068	12,553.7	51.0989	12,553.7	45.8468	12,553.7	56.7021	12,553.7	44.0964	12,553.7	40.2884	12,553.7	49.6373	12,553.7	41.0996
12,996.1	82.3542	12,996.1	83.7577	12,996.1	82.2901	12,996.1	78.6357	12,996.1	79.0846	12,996.1	77.7253	12,996.1	76.6715	12,996.1	72.4896	12,996.1	73.7484	12,996.1	71.0098	12,996.1	68.0847	12,996.1	66.1718	12,996.1	67.4804	12,996.1	63.9257	12,996.1	58.519	12,996.1	59.5419	12,996.1	56.8887	12,996.1	53.9589	12,996.1	58.8135	12,996.1	52.3958	12,996.1	44.6945	12,996.1	44.3462	12,996.1	57.4212	12,996.1	51.4686	12,996.1	45.7396	12,996.1	42.8987	12,996.1	48.0167	12,996.1	44.5842	12,996.1	42.1458	12,996.1	51.2096	12,996.1	50.659	12,996.1	56.5868	12,996.1	47.5763	12,996.1	37.8167	12,996.1	49.0541	12,996.1	44.6853
13,454.6	82.2384	13,454.6	83.4246	13,454.6	82.4656	13,454.6	77.8179	13,454.6	79.3292	13,454.6	76.9595	13,454.6	76.2425	13,454.6	71.1358	13,454.6	72.6328	13,454.6	70.4635	13,454.6	67.9256	13,454.6	65.0329	13,454.6	66.1651	13,454.6	62.756	13,454.6	57.0329	13,454.6	58.8057	13,454.6	53.4373	13,454.6	53.4039	13,454.6	57.8067	13,454.6	50.6132	13,454.6	51.9692	13,454.6	46.6255	13,454.6	60.102	13,454.6	50.0879	13,454.6	47.1331	13,454.6	38.2977	13,454.6	48.0696	13,454.6	45.4526	13,454.6	42.4979	13,454.6	51.1517	13,454.6	45.891	13,454.6	56.1128	13,454.6	43.9183	13,454.6	33.9687	13,454.6	46.6746	13,454.6	45.4303
13,929.2	82.2148	13,929.2	83.1705	13,929.2	82.3241	13,929.2	77.351	13,929.2	79.9181	13,929.2	76.2021	13,929.2	77.0567	13,929.2	70.0064	13,929.2	72.8744	13,929.2	69.5777	13,929.2	66.7465	13,929.2	63.2556	13,929.2	66.5355	13,929.2	61.6737	13,929.2	55.458	13,929.2	58.1177	13,929.2	53.0114	13,929.2	52.9244	13,929.2	56.5121	13,929.2	50.86	13,929.2	54.6122	13,929.2	46.7021	13,929.2	59.8961	13,929.2	48.7651	13,929.2	46.4326	13,929.2	34.8074	13,929.2	45.2189	13,929.2	46.1135	13,929.2	38.8393	13,929.2	50.2728	13,929.2	44.7838	13,929.2	54.9601	13,929.2	42.3771	13,929.2	33.7641	13,929.2	45.8874	13,929.2	46.4618
14,419.9	82.1192	14,419.9	83.0816	14,419.9	82.013	14,419.9	76.7939	14,419.9	79.4638	14,419.9	75.8772	14,419.9	77.0192	14,419.9	69.2243	14,419.9	72.6926	14,419.9	69.0409	14,419.9	65.3519	14,419.9	62.1195	14,419.9	64.6606	14,419.9	61.4951	14,419.9	59.0186	14,419.9	58.3229	14,419.9	51.4936	14,419.9	52.6274	14,419.9	57.2483	14,419.9	49.4939	14,419.9	53.3116	14,419.9	47.2362	14,419.9	59.371	14,419.9	48.1218	14,419.9	45.807	14,419.9	37.0987	14,419.9	48.2428	14,419.9	46.9152	14,419.9	44.135	14,419.9	50.1702	14,419.9	43.9431	14,419.9	53.5955	14,419.9	42.467	14,419.9	35.3674	14,419.9	44.4523	14,419.9	46.8825
14,928.2	82.3096	14,928.2	83.1298	14,928.2	81.8573	14,928.2	76.4613	14,928.2	79.2467	14,928.2	75.5291	14,928.2	76.8439	14,928.2	68.7872	14,928.2	71.1234	14,928.2	67.7715	14,928.2	65.4062	14,928.2	61.6474	14,928.2	61.2244	14,928.2	60.6475	14,928.2	58.0373	14,928.2	57.2141	14,928.2	38.8277	14,928.2	51.8519	14,928.2	55.5296	14,928.2	47.5768	14,928.2	52.4879	14,928.2	46.6243	14,928.2	59.2807	14,928.2	46.5226	14,928.2	46.9797	14,928.2	42.9004	14,928.2	46.4622	14,928.2	45.3317	14,928.2	38.1513	14,928.2	49.0059	14,928.2	43.7115	14,928.2	53.5515	14,928.2	42.339	14,928.2	34.1074	14,928.2	45.439	14,928.2	46.9043
15,455.6	82.8937	15,455.6	83.5799	15,455.6	82.2145	15,455.6	76.3308	15,455.6	79.1443	15,455.6	75.4015	15,455.6	76.4941	15,455.6	67.93	15,455.6	69.5546	15,455.6	66.1771	15,455.6	63.8102	15,455.6	60.9247	15,455.6	60.6008	15,455.6	59.4141	15,455.6	51.9139	15,455.6	55.1711	15,455.6	45.3247	15,455.6	50.9585	15,455.6	52.1224	15,455.6	44.4799	15,455.6	52.2331	15,455.6	47.0711	15,455.6	60.1119	15,455.6	44.0831	15,455.6	47.0681	15,455.6	45.5967	15,455.6	45.9066	15,455.6	42.9748	15,455.6	33.5729	15,455.6	48.6508	15,455.6	47.2775	15,455.6	52.9676	15,455.6	36.3849	15,455.6	34.5731	15,455.6	44.5464	15,455.6	46.7703
16,000.5	82.9836	16,000.5	83.619	16,000.5	82.5132	16,000.5	75.642	16,000.5	79.1314	16,000.5	74.9284	16,000.5	75.5376	16,000.5	66.6437	16,000.5	68.144	16,000.5	63.8232	16,000.5	63.2022	16,000.5	60.8316	16,000.5	59.1813	16,000.5	59.2376	16,000.5	49.125	16,000.5	54.0863	16,000.5	49.767	16,000.5	51.3054	16,000.5	51.3731	16,000.5	42.4635	16,000.5	53.7303	16,000.5	47.6672	16,000.5	60.4282	16,000.5	40.2707	16,000.5	47.2669	16,000.5	48.0879	16,000.5	45.3177	16,000.5	43.0782	16,000.5	40.4396	16,000.5	49.6775	16,000.5	45.4182	16,000.5	52.707	16,000.5	40.1869	16,000.5	34.4688	16,000.5	44.8771	16,000.5	47.6144
16,564.5	82.4306	16,564.5	83.1248	16,564.5	82.1488	16,564.5	74.14	16,564.5	78.9442	16,564.5	74.0275	16,564.5	73.881	16,564.5	64.5623	16,564.5	65.5864	16,564.5	61.4831	16,564.5	59.8559	16,564.5	60.5894	16,564.5	50.1277	16,564.5	59.3829	16,564.5	56.026	16,564.5	53.0689	16,564.5	48.8942	16,564.5	50.6902	16,564.5	49.9012	16,564.5	40.5054	16,564.5	54.6727	16,564.5	45.9099	16,564.5	59.8478	16,564.5	33.4574	16,564.5	43.6606	16,564.5	48.0237	16,564.5	45.0566	16,564.5	43.6949	16,564.5	29.8742	16,564.5	48.9648	16,564.5	44.9485	16,564.5	51.7544	16,564.5	38.6983	16,564.5	29.4994	16,564.5	43.0782	16,564.5	48.6975
17,148.9	81.4034	17,148.9	82.2915	17,148.9	81.2774	17,148.9	72.1305	17,148.9	78.2322	17,148.9	73.205	17,148.9	71.7846	17,148.9	62.3764	17,148.9	62.3602	17,148.9	61.0614	17,148.9	52.5895	17,148.9	60.4847	17,148.9	52.1603	17,148.9	58.4232	17,148.9	56.3986	17,148.9	51.1223	17,148.9	48.6544	17,148.9	48.3883	17,148.9	41.4792	17,148.9	39.8318	17,148.9	55.9871	17,148.9	43.3893	17,148.9	60.1059	17,148.9	16.6827	17,148.9	43.2778	17,148.9	47.0117	17,148.9	40.0702	17,148.9	40.6304	17,148.9	33.7743	17,148.9	46.5117	17,148.9	39.2682	17,148.9	48.1351	17,148.9	39.2139	17,148.9	34.5099	17,148.9	41.6204	17,148.9	47.5351
17,752.4	80.5139	17,752.4	81.3387	17,752.4	80.0979	17,752.4	70.4746	17,752.4	76.2403	17,752.4	71.6594	17,752.4	69.827	17,752.4	61.2794	17,752.4	61.8318	17,752.4	60.8025	17,752.4	55.7777	17,752.4	59.6045	17,752.4	50.9174	17,752.4	56.9911	17,752.4	53.921	17,752.4	46.8425	17,752.4	47.1482	17,752.4	45.5089	17,752.4	45.0348	17,752.4	39.6045	17,752.4	53.9579	17,752.4	42.7242	17,752.4	59.0313	17,752.4	32.853	17,752.4	42.3168	17,752.4	46.903	17,752.4	39.6674	17,752.4	39.6764	17,752.4	37.9081	17,752.4	44.1097	17,752.4	42.4395	17,752.4	46.8237	17,752.4	36.4236	17,752.4	38.0136	17,752.4	43.0476	17,752.4	44.672
18,379.4	79.7436	18,379.4	80.2417	18,379.4	78.7828	18,379.4	68.7739	18,379.4	73.8819	18,379.4	69.9389	18,379.4	68.423	18,379.4	61.8764	18,379.4	57.346	18,379.4	60.8316	18,379.4	58.7971	18,379.4	58.3081	18,379.4	54.3645	18,379.4	55.7105	18,379.4	52.4298	18,379.4	47.8796	18,379.4	46.9398	18,379.4	44.375	18,379.4	43.7004	18,379.4	41.4617	18,379.4	53.1815	18,379.4	41.2235	18,379.4	57.7891	18,379.4	38.1983	18,379.4	42.2831	18,379.4	46.0378	18,379.4	39.1604	18,379.4	38.5768	18,379.4	36.3618	18,379.4	43.081	18,379.4	39.0378	18,379.4	46.4965	18,379.4	34.3606	18,379.4	39.8983	18,379.4	41.4718	18,379.4	39.9297
19,026.9	79.3	19,026.9	79.4517	19,026.9	78.1748	19,026.9	67.3619	19,026.9	72.6497	19,026.9	67.9529	19,026.9	65.943	19,026.9	62.2948	19,026.9	58.6262	19,026.9	60.5129	19,026.9	59.6516	19,026.9	57.1208	19,026.9	49.6051	19,026.9	55.4743	19,026.9	52.4613	19,026.9	47.291	19,026.9	42.5555	19,026.9	43.2959	19,026.9	41.3168	19,026.9	41.1281	19,026.9	52.724	19,026.9	41.2468	19,026.9	56.9995	19,026.9	39.9804	19,026.9	40.1361	19,026.9	43.998	19,026.9	39.3803	19,026.9	36.0808	19,026.9	37.7194	19,026.9	41.5624	19,026.9	42.0825	19,026.9	45.9649	19,026.9	34.7913	19,026.9	40.7437	19,026.9	42.9917	19,026.9	40.8552
19,697.8	78.827	19,697.8	78.8383	19,697.8	77.6664	19,697.8	65.6659	19,697.8	72.3401	19,697.8	66.6355	19,697.8	64.2873	19,697.8	62.3898	19,697.8	59.1349	19,697.8	60.1906	19,697.8	58.5086	19,697.8	55.6234	19,697.8	51.1209	19,697.8	54.3726	19,697.8	50.0098	19,697.8	44.3382	19,697.8	46.2878	19,697.8	40.5855	19,697.8	41.9674	19,697.8	36.4438	19,697.8	51.452	19,697.8	39.0448	19,697.8	55.4158	19,697.8	42.589	19,697.8	39.5889	19,697.8	41.5232	19,697.8	40.4059	19,697.8	37.0735	19,697.8	36.6243	19,697.8	41.0077	19,697.8	39.9762	19,697.8	44.3296	19,697.8	33.1791	19,697.8	39.4703	19,697.8	42.3409	19,697.8	43.1941
19,999.5	78.3662	19,999.5	78.4152	19,999.5	77.256	19,999.5	64.925	19,999.5	71.8714	19,999.5	66.4088	19,999.5	63.959	19,999.5	62.296	19,999.5	58.6178	19,999.5	59.4924	19,999.5	57.7259	19,999.5	55.9601	19,999.5	52.937	19,999.5	53.3158	19,999.5	50.5891	19,999.5	41.946	19,999.5	38.7849	19,999.5	41.0821	19,999.5	41.036	19,999.5	38.5146	19,999.5	50.18	19,999.5	37.7425	19,999.5	54.7188	19,999.5	41.3245	19,999.5	43.0533	19,999.5	41.2574	19,999.5	40.3318	19,999.5	37.6145	19,999.5	39.0911	19,999.5	42.213	19,999.5	34.8658	19,999.5	42.5705	19,999.5	33.3589	19,999.5	35.7351	19,999.5	41.8776	19,999.5	42.0689
