"SPL Horizontal"
"On-Axis"		"10°"		"-10°"		"20°"		"-20°"		"30°"		"-30°"		"40°"		"-40°"		"50°"		"-50°"		"60°"		"-60°"		"70°"		"-70°"		"80°"		"-80°"		"90°"		"-90°"		"100°"		"-100°"		"110°"		"-110°"		"120°"		"-120°"		"130°"		"-130°"		"140°"		"-140°"		"150°"		"-150°"		"160°"		"-160°"		"170°"		"-170°"		"180°"
"Frequency [Hz]"	"Sound Pessure Level [dB]  / [2.83V 1m] "	"Frequency [Hz]"	"Sound Pessure Level [dB]  / [2.83V 1m] "	"Frequency [Hz]"	"Sound Pessure Level [dB]  / [2.83V 1m] "	"Frequency [Hz]"	"Sound Pessure Level [dB]  / [2.83V 1m] "	"Frequency [Hz]"	"Sound Pessure Level [dB]  / [2.83V 1m] "	"Frequency [Hz]"	"Sound Pessure Level [dB]  / [2.83V 1m] "	"Frequency [Hz]"	"Sound Pessure Level [dB]  / [2.83V 1m] "	"Frequency [Hz]"	"Sound Pessure Level [dB]  / [2.83V 1m] "	"Frequency [Hz]"	"Sound Pessure Level [dB]  / [2.83V 1m] "	"Frequency [Hz]"	"Sound Pessure Level [dB]  / [2.83V 1m] "	"Frequency [Hz]"	"Sound Pessure Level [dB]  / [2.83V 1m] "	"Frequency [Hz]"	"Sound Pessure Level [dB]  / [2.83V 1m] "	"Frequency [Hz]"	"Sound Pessure Level [dB]  / [2.83V 1m] "	"Frequency [Hz]"	"Sound Pessure Level [dB]  / [2.83V 1m] "	"Frequency [Hz]"	"Sound Pessure Level [dB]  / [2.83V 1m] "	"Frequency [Hz]"	"Sound Pessure Level [dB]  / [2.83V 1m] "	"Frequency [Hz]"	"Sound Pessure Level [dB]  / [2.83V 1m] "	"Frequency [Hz]"	"Sound Pessure Level [dB]  / [2.83V 1m] "	"Frequency [Hz]"	"Sound Pessure Level [dB]  / [2.83V 1m] "	"Frequency [Hz]"	"Sound Pessure Level [dB]  / [2.83V 1m] "	"Frequency [Hz]"	"Sound Pessure Level [dB]  / [2.83V 1m] "	"Frequency [Hz]"	"Sound Pessure Level [dB]  / [2.83V 1m] "	"Frequency [Hz]"	"Sound Pessure Level [dB]  / [2.83V 1m] "	"Frequency [Hz]"	"Sound Pessure Level [dB]  / [2.83V 1m] "	"Frequency [Hz]"	"Sound Pessure Level [dB]  / [2.83V 1m] "	"Frequency [Hz]"	"Sound Pessure Level [dB]  / [2.83V 1m] "	"Frequency [Hz]"	"Sound Pessure Level [dB]  / [2.83V 1m] "	"Frequency [Hz]"	"Sound Pessure Level [dB]  / [2.83V 1m] "	"Frequency [Hz]"	"Sound Pessure Level [dB]  / [2.83V 1m] "	"Frequency [Hz]"	"Sound Pessure Level [dB]  / [2.83V 1m] "	"Frequency [Hz]"	"Sound Pessure Level [dB]  / [2.83V 1m] "	"Frequency [Hz]"	"Sound Pessure Level [dB]  / [2.83V 1m] "	"Frequency [Hz]"	"Sound Pessure Level [dB]  / [2.83V 1m] "	"Frequency [Hz]"	"Sound Pessure Level [dB]  / [2.83V 1m] "	"Frequency [Hz]"	"Sound Pessure Level [dB]  / [2.83V 1m] "	"Frequency [Hz]"	"Sound Pessure Level [dB]  / [2.83V 1m] "
20.5078	38.7071	20.5078	38.4792	20.5078	38.4664	20.5078	37.8412	20.5078	37.7217	20.5078	36.9814	20.5078	36.4639	20.5078	36.457	20.5078	34.9019	20.5078	37.1196	20.5078	34.1043	20.5078	39.0088	20.5078	35.5638	20.5078	41.3115	20.5078	38.369	20.5078	43.4867	20.5078	41.1222	20.5078	45.3781	20.5078	43.4632	20.5078	46.9763	20.5078	45.4025	20.5078	48.3073	20.5078	47.0049	20.5078	49.3997	20.5078	48.3267	20.5078	50.2781	20.5078	49.409	20.5078	50.9612	20.5078	50.2805	20.5078	51.4628	20.5078	50.9604	20.5078	51.7925	20.5078	51.4614	20.5078	51.9559	20.5078	51.7915	20.5078	51.9555
21.9727	44.7367	21.9727	44.7115	21.9727	44.6565	21.9727	44.6339	21.9727	44.4625	21.9727	44.6007	21.9727	44.1951	21.9727	44.7377	21.9727	43.9543	21.9727	45.1497	21.9727	43.8981	21.9727	45.8594	21.9727	44.1885	21.9727	46.7943	21.9727	44.8854	21.9727	47.8394	21.9727	45.899	21.9727	48.8927	21.9727	47.0667	21.9727	49.8863	21.9727	48.2484	21.9727	50.7817	21.9727	49.3585	21.9727	51.5593	21.9727	50.3547	21.9727	52.2096	21.9727	51.2191	21.9727	52.7282	21.9727	51.9454	21.9727	53.1131	21.9727	52.5319	21.9727	53.3625	21.9727	52.978	21.9727	53.475	21.9727	53.2837	21.9727	53.4491
23.4375	46.1104	23.4375	45.8763	23.4375	46.089	23.4375	45.3821	23.4375	45.8291	23.4375	44.6472	23.4375	45.3677	23.4375	43.7597	23.4375	44.7879	23.4375	42.9705	23.4375	44.264	23.4375	42.7482	23.4375	44.0778	23.4375	43.4621	23.4375	44.4881	23.4375	44.9119	23.4375	45.4902	23.4375	46.6101	23.4375	46.8272	23.4375	48.2393	23.4375	48.2338	23.4375	49.6781	23.4375	49.5545	23.4375	50.8975	23.4375	50.7223	23.4375	51.9005	23.4375	51.715	23.4375	52.6982	23.4375	52.5282	23.4375	53.3016	23.4375	53.1632	23.4375	53.7192	23.4375	53.6225	23.4375	53.9573	23.4375	53.9077	23.4375	54.0195
24.9023	50.3737	24.9023	50.2479	24.9023	50.3267	24.9023	49.9624	24.9023	50.1	24.9023	49.5418	24.9023	49.6923	24.9023	49.0327	24.9023	49.1136	24.9023	48.52	24.9023	48.3997	24.9023	48.1379	24.9023	47.6421	24.9023	48.0472	24.9023	47.0264	24.9023	48.355	24.9023	46.821	24.9023	49.0346	24.9023	47.2163	24.9023	49.9467	24.9023	48.1369	24.9023	50.9339	24.9023	49.3216	24.9023	51.8804	24.9023	50.5353	24.9023	52.7176	24.9023	51.6441	24.9023	53.4099	24.9023	52.5886	24.9023	53.9392	24.9023	53.3469	24.9023	54.2965	24.9023	53.9132	24.9023	54.4764	24.9023	54.2883	24.9023	54.4748
26.3672	48.9889	26.3672	48.8056	26.3672	48.9441	26.3672	48.3929	26.3672	48.6818	26.3672	47.7661	26.3672	48.2266	26.3672	46.9867	26.3672	47.6382	26.3672	46.225	26.3672	47.0487	26.3672	45.825	26.3672	46.6977	26.3672	46.1727	26.3672	46.8688	26.3672	47.2966	26.3672	47.6664	26.3672	48.8322	26.3672	48.9061	26.3672	50.4208	26.3672	50.3056	26.3672	51.8779	26.3672	51.6672	26.3672	53.1376	26.3672	52.8934	26.3672	54.1851	26.3672	53.946	26.3672	55.0233	26.3672	54.8128	26.3672	55.6592	26.3672	55.492	26.3672	56.0997	26.3672	55.9843	26.3672	56.35	26.3672	56.2912	26.3672	56.4132
27.832	50.308	27.832	50.1831	27.832	50.2547	27.832	49.9006	27.832	50.0246	27.832	49.5148	27.832	49.6435	27.832	49.1366	27.832	49.1779	27.832	48.9488	27.832	48.7637	27.832	49.1583	27.832	48.6172	27.832	49.8585	27.832	48.9528	27.832	50.945	27.832	49.8134	27.832	52.2125	27.832	51.0292	27.832	53.4877	27.832	52.3713	27.832	54.6687	27.832	53.6767	27.832	55.7066	27.832	54.8601	27.832	56.5814	27.832	55.8845	27.832	57.2863	27.832	56.7365	27.832	57.8198	27.832	57.4127	27.832	58.1818	27.832	57.9131	27.832	58.3726	27.832	58.2391	27.832	58.3919
29.2969	53.8771	29.2969	53.8035	29.2969	53.824	29.2969	53.6142	29.2969	53.647	29.2969	53.3378	29.2969	53.3643	29.2969	53.0278	29.2969	53.0174	29.2969	52.7708	29.2969	52.6813	29.2969	52.6809	29.2969	52.4704	29.2969	52.8638	29.2969	52.5148	29.2969	53.3587	29.2969	52.898	29.2969	54.111	29.2969	53.5983	29.2969	55.0091	29.2969	54.5043	29.2969	55.9415	29.2969	55.4843	29.2969	56.8265	29.2969	56.4357	29.2969	57.6131	29.2969	57.2943	29.2969	58.2728	29.2969	58.0247	29.2969	58.7898	29.2969	58.6088	29.2969	59.1556	29.2969	59.0376	29.2969	59.3654	29.2969	59.3072	29.2969	59.4164
30.7617	55.2822	30.7617	55.2483	30.7617	55.2027	30.7617	55.1135	30.7617	55.012	30.7617	54.9077	30.7617	54.7291	30.7617	54.6834	30.7617	54.3958	30.7617	54.5197	30.7617	54.086	30.7617	54.5125	30.7617	53.9067	30.7617	54.7432	30.7617	53.9739	30.7617	55.2361	30.7617	54.3571	30.7617	55.9431	30.7617	55.0329	30.7617	56.7718	30.7617	55.9006	30.7617	57.6285	30.7617	56.8413	30.7617	58.4412	30.7617	57.7604	30.7617	59.1629	30.7617	58.5966	30.7617	59.7653	30.7617	59.3151	30.7617	60.2323	30.7617	59.8969	30.7617	60.5549	30.7617	60.3325	30.7617	60.7281	30.7617	60.6173	30.7617	60.7493
32.2266	55.8127	32.2266	55.7423	32.2266	55.7939	32.2266	55.5944	32.2266	55.6912	32.2266	55.4004	32.2266	55.528	32.2266	55.2155	32.2266	55.3501	32.2266	55.119	32.2266	55.2279	32.2266	55.2001	32.2266	55.2493	32.2266	55.5241	32.2266	55.4926	32.2266	56.0968	32.2266	55.9873	32.2266	56.8605	32.2266	56.696	32.2266	57.7255	32.2266	57.5353	32.2266	58.6063	32.2266	58.4145	32.2266	59.4389	32.2266	59.2614	32.2266	60.1809	32.2266	60.0267	32.2266	60.8067	32.2266	60.6803	32.2266	61.3006	32.2266	61.2045	32.2266	61.6537	32.2266	61.5891	32.2266	61.8608	32.2266	61.8283	32.2266	61.9192
33.6914	58.1329	33.6914	58.1044	33.6914	58.095	33.6914	58.0181	33.6914	57.9963	33.6914	57.897	33.6914	57.8569	33.6914	57.7803	33.6914	57.7137	33.6914	57.7221	33.6914	57.6202	33.6914	57.7829	33.6914	57.6402	33.6914	58.0115	33.6914	57.8295	33.6914	58.4243	33.6914	58.2132	33.6914	58.9963	33.6914	58.7717	33.6914	59.6725	33.6914	59.4499	33.6914	60.3887	33.6914	60.1798	33.6914	61.0876	33.6914	60.9003	33.6914	61.7261	33.6914	61.5649	33.6914	62.2739	33.6914	62.1417	33.6914	62.7113	33.6914	62.6101	33.6914	63.0258	33.6914	62.9574	33.6914	63.2101	33.6914	63.1755	33.6914	63.2603
35.1562	59.6275	35.1562	59.5912	35.1562	59.6028	35.1562	59.501	35.1562	59.5218	35.1562	59.3774	35.1562	59.4017	35.1562	59.255	35.1562	59.2732	35.1562	59.182	35.1562	59.1806	35.1562	59.213	35.1562	59.1769	35.1562	59.3947	35.1562	59.3115	35.1562	59.7469	35.1562	59.6131	35.1562	60.253	35.1562	60.0757	35.1562	60.8665	35.1562	60.661	35.1562	61.5286	35.1562	61.3129	35.1562	62.184	35.1562	61.9745	35.1562	62.7887	35.1562	62.5985	35.1562	63.3111	35.1562	63.1496	35.1562	63.7296	35.1562	63.6036	35.1562	64.0304	35.1562	63.9441	35.1562	64.2049	35.1562	64.1611	35.1562	64.2488
36.6211	60.8103	36.6211	60.774	36.6211	60.8007	36.6211	60.6995	36.6211	60.749	36.6211	60.6065	36.6211	60.6702	36.6211	60.5268	36.6211	60.5913	36.6211	60.5028	36.6211	60.5499	36.6211	60.5799	36.6211	60.5895	36.6211	60.7939	36.6211	60.7498	36.6211	61.1569	36.6211	61.053	36.6211	61.6513	36.6211	61.4939	36.6211	62.2361	36.6211	62.041	36.6211	62.8605	36.6211	62.6474	36.6211	63.4765	36.6211	63.264	36.6211	64.0445	36.6211	63.8481	36.6211	64.5354	36.6211	64.3667	36.6211	64.9287	36.6211	64.7959	36.6211	65.2109	36.6211	65.1195	36.6211	65.3736	36.6211	65.3271	36.6211	65.4126
38.0859	62.0366	38.0859	62.0118	38.0859	62.0209	38.0859	61.953	38.0859	61.9683	38.0859	61.8769	38.0859	61.8923	38.0859	61.8104	38.0859	61.8167	38.0859	61.7891	38.0859	61.7745	38.0859	61.8521	38.0859	61.8041	38.0859	62.0316	38.0859	61.9408	38.0859	62.342	38.0859	62.2061	38.0859	62.7733	38.0859	62.5984	38.0859	63.2936	38.0859	63.0925	38.0859	63.8594	38.0859	63.6479	38.0859	64.4262	38.0859	64.2197	38.0859	64.9555	38.0859	64.7668	38.0859	65.4173	38.0859	65.2563	38.0859	65.7901	38.0859	65.6639	38.0859	66.059	38.0859	65.9725	38.0859	66.2147	38.0859	66.1707	38.0859	66.2523
39.5508	63.3512	39.5508	63.3197	39.5508	63.3486	39.5508	63.2604	39.5508	63.3146	39.5508	63.1882	39.5508	63.2601	39.5508	63.1269	39.5508	63.2048	39.5508	63.107	39.5508	63.1757	39.5508	63.1618	39.5508	63.2043	39.5508	63.3189	39.5508	63.3203	39.5508	63.5918	39.5508	63.5433	39.5508	63.9734	39.5508	63.8754	39.5508	64.4381	39.5508	64.2995	39.5508	64.9485	39.5508	64.784	39.5508	65.4647	39.5508	65.2909	39.5508	65.9507	39.5508	65.7831	39.5508	66.3775	39.5508	66.229	39.5508	66.7235	39.5508	66.604	39.5508	66.9736	39.5508	66.8902	39.5508	67.1182	39.5508	67.0755	39.5508	67.1525
41.0156	64.4503	41.0156	64.4211	41.0156	64.4507	41.0156	64.3689	41.0156	64.4248	41.0156	64.3072	41.0156	64.3826	41.0156	64.2574	41.0156	64.3417	41.0156	64.247	41.0156	64.3261	41.0156	64.3055	41.0156	64.3632	41.0156	64.4573	41.0156	64.4787	41.0156	64.7144	41.0156	64.6898	41.0156	65.0711	41.0156	64.9992	41.0156	65.5049	41.0156	65.393	41.0156	65.9825	41.0156	65.8439	41.0156	66.4676	41.0156	66.3179	41.0156	66.9264	41.0156	66.7806	41.0156	67.3314	41.0156	67.2017	41.0156	67.6613	41.0156	67.557	41.0156	67.901	41.0156	67.8284	41.0156	68.0408	41.0156	68.0036	41.0156	68.0754
42.4805	65.4735	42.4805	65.472	42.4805	65.4552	42.4805	65.4555	42.4805	65.4192	42.4805	65.4357	42.4805	65.375	42.4805	65.4301	42.4805	65.3387	42.4805	65.4607	42.4805	65.3319	42.4805	65.5498	42.4805	65.3791	42.4805	65.7155	42.4805	65.5026	42.4805	65.9659	42.4805	65.7169	42.4805	66.2962	42.4805	66.0229	42.4805	66.6889	42.4805	66.4069	42.4805	67.1178	42.4805	66.8433	42.4805	67.5534	42.4805	67.3004	42.4805	67.9668	42.4805	67.746	42.4805	68.3332	42.4805	68.1516	42.4805	68.6326	42.4805	68.4943	42.4805	68.85	42.4805	68.7571	42.4805	68.9751	42.4805	68.9285	42.4805	69.0019
43.9453	66.508	43.9453	66.5069	43.9453	66.4946	43.9453	66.4945	43.9453	66.4693	43.9453	66.48	43.9453	66.4408	43.9453	66.4778	43.9453	66.423	43.9453	66.5059	43.9453	66.4341	43.9453	66.5834	43.9453	66.4938	43.9453	66.7266	43.9453	66.6196	43.9453	66.9441	43.9453	66.8224	43.9453	67.2342	43.9453	67.1021	43.9453	67.5838	43.9453	67.4472	43.9453	67.9711	43.9453	67.8365	43.9453	68.3697	43.9453	68.2433	43.9453	68.7529	43.9453	68.6399	43.9453	69.0964	43.9453	69.0012	43.9453	69.3804	43.9453	69.3063	43.9453	69.5897	43.9453	69.5391	43.9453	69.7141	43.9453	69.6884	43.9453	69.7476
45.4102	67.4606	45.4102	67.4523	45.4102	67.459	45.4102	67.4374	45.4102	67.4496	45.4102	67.4241	45.4102	67.4396	45.4102	67.4253	45.4102	67.4407	45.4102	67.4571	45.4102	67.4681	45.4102	67.5361	45.4102	67.538	45.4102	67.6765	45.4102	67.6652	45.4102	67.8859	45.4102	67.8584	45.4102	68.1623	45.4102	68.1183	45.4102	68.494	45.4102	68.4353	45.4102	68.8612	45.4102	68.7919	45.4102	69.2396	45.4102	69.1651	45.4102	69.604	45.4102	69.5303	45.4102	69.9315	45.4102	69.8644	45.4102	70.203	45.4102	70.1476	45.4102	70.4037	45.4102	70.3643	45.4102	70.5237	45.4102	70.5032	45.4102	70.5573
46.875	68.4765	46.875	68.4679	46.875	68.4761	46.875	68.4531	46.875	68.4682	46.875	68.4393	46.875	68.4585	46.875	68.4374	46.875	68.4568	46.875	68.4611	46.875	68.4756	46.875	68.525	46.875	68.5291	46.875	68.6415	46.875	68.6303	46.875	68.8181	46.875	68.788	46.875	69.0542	46.875	69.0044	46.875	69.341	46.875	69.2734	46.875	69.6618	46.875	69.5811	46.875	69.9955	46.875	69.9081	46.875	70.3195	46.875	70.2327	46.875	70.6124	46.875	70.5332	46.875	70.8561	46.875	70.7908	46.875	71.0363	46.875	70.9899	46.875	71.1432	46.875	71.1191	46.875	71.1712
48.3398	69.0087	48.3398	69.0049	48.3398	69.0035	48.3398	68.9949	48.3398	68.9907	48.3398	68.9857	48.3398	68.9766	48.3398	68.9885	48.3398	68.9712	48.3398	69.0168	48.3398	68.9875	48.3398	69.0847	48.3398	69.04	48.3398	69.2042	48.3398	69.1417	48.3398	69.3821	48.3398	69.3012	48.3398	69.6174	48.3398	69.5202	48.3398	69.9012	48.3398	69.7919	48.3398	70.2171	48.3398	70.1017	48.3398	70.5447	48.3398	70.4299	48.3398	70.8621	48.3398	70.7548	48.3398	71.1488	48.3398	71.055	48.3398	71.3869	48.3398	71.312	48.3398	71.5627	48.3398	71.5105	48.3398	71.6664	48.3398	71.6396	48.3398	71.6925
51.2695	70.4352	51.2695	70.44	51.2695	70.4305	51.2695	70.4469	51.2695	70.4275	51.2695	70.4607	51.2695	70.4305	51.2695	70.4889	51.2695	70.447	51.2695	70.5405	51.2695	70.4858	51.2695	70.6243	51.2695	70.5564	51.2695	70.7476	51.2695	70.6666	51.2695	70.9139	51.2695	70.8213	51.2695	71.122	51.2695	71.0202	51.2695	71.3649	51.2695	71.2577	51.2695	71.631	51.2695	71.523	51.2695	71.9052	51.2695	71.8013	51.2695	72.1708	51.2695	72.0759	51.2695	72.4115	51.2695	72.3299	51.2695	72.6123	51.2695	72.5478	51.2695	72.7613	51.2695	72.7167	51.2695	72.8495	51.2695	72.8267	51.2695	72.8718
52.7344	71.1762	52.7344	71.1774	52.7344	71.1757	52.7344	71.1807	52.7344	71.177	52.7344	71.1904	52.7344	71.184	52.7344	71.2126	52.7344	71.2027	52.7344	71.2552	52.7344	71.2402	52.7344	71.3261	52.7344	71.3045	52.7344	71.4321	52.7344	71.4022	52.7344	71.5769	52.7344	71.5377	52.7344	71.76	52.7344	71.7114	52.7344	71.9762	52.7344	71.9192	52.7344	72.2154	52.7344	72.1525	52.7344	72.4642	52.7344	72.3989	52.7344	72.7072	52.7344	72.6437	52.7344	72.9288	52.7344	72.8715	52.7344	73.115	52.7344	73.0679	52.7344	73.254	52.7344	73.2206	52.7344	73.3371	52.7344	73.3198	52.7344	73.3595
54.1992	71.7314	54.1992	71.735	54.1992	71.7276	54.1992	71.7399	54.1992	71.7244	54.1992	71.7499	54.1992	71.7253	54.1992	71.7711	54.1992	71.7357	54.1992	71.8106	54.1992	71.7627	54.1992	71.8756	54.1992	71.8138	54.1992	71.9725	54.1992	71.896	54.1992	72.1049	54.1992	72.0144	54.1992	72.2725	54.1992	72.1702	54.1992	72.4708	54.1992	72.3603	54.1992	72.6909	54.1992	72.5771	54.1992	72.9204	54.1992	72.8089	54.1992	73.145	54.1992	73.0415	54.1992	73.35	54.1992	73.26	54.1992	73.5218	54.1992	73.4499	54.1992	73.6491	54.1992	73.5991	54.1992	73.7236	54.1992	73.6979	54.1992	73.7402
55.6641	72.1309	55.6641	72.1359	55.6641	72.1271	55.6641	72.1433	55.6641	72.1255	55.6641	72.1564	55.6641	72.1294	55.6641	72.1805	55.6641	72.1439	55.6641	72.222	55.6641	72.1756	55.6641	72.2875	55.6641	72.2315	55.6641	72.3827	55.6641	72.3178	55.6641	72.511	55.6641	72.4386	55.6641	72.6724	55.6641	72.5947	55.6641	72.8627	55.6641	72.7824	55.6641	73.0739	55.6641	72.994	55.6641	73.2943	55.6641	73.2183	55.6641	73.5107	55.6641	73.4416	55.6641	73.7091	55.6641	73.6499	55.6641	73.8765	55.6641	73.8297	55.6641	74.0019	55.6641	73.9695	55.6641	74.0771	55.6641	74.0605	55.6641	74.0971
58.5938	73.0385	58.5938	73.0427	58.5938	73.0394	58.5938	73.0529	58.5938	73.0462	58.5938	73.0716	58.5938	73.0615	58.5938	73.1029	58.5938	73.0892	58.5938	73.1515	58.5938	73.1339	58.5938	73.2223	58.5938	73.2005	58.5938	73.3193	58.5938	73.2929	58.5938	73.4443	58.5938	73.4131	58.5938	73.5966	58.5938	73.5608	58.5938	73.7723	58.5938	73.7325	58.5938	73.9642	58.5938	73.9218	58.5938	74.1625	58.5938	74.1194	58.5938	74.356	58.5938	74.3147	58.5938	74.5331	58.5938	74.4959	58.5938	74.6824	58.5938	74.652	58.5938	74.7947	58.5938	74.7731	58.5938	74.8626	58.5938	74.8514	58.5938	74.8819
60.0586	73.4508	60.0586	73.4569	60.0586	73.4503	60.0586	73.4694	60.0586	73.4562	60.0586	73.4905	60.0586	73.4706	60.0586	73.5236	60.0586	73.4969	60.0586	73.5728	60.0586	73.5392	60.0586	73.6423	60.0586	73.6017	60.0586	73.7352	60.0586	73.6877	60.0586	73.8531	60.0586	73.7991	60.0586	73.9954	60.0586	73.9357	60.0586	74.1582	60.0586	74.0943	60.0586	74.3352	60.0586	74.2692	60.0586	74.5177	60.0586	74.4523	60.0586	74.6954	60.0586	74.6338	60.0586	74.8575	60.0586	74.803	60.0586	74.9937	60.0586	74.9496	60.0586	75.0954	60.0586	75.0642	60.0586	75.1557	60.0586	75.1396	60.0586	75.1708
62.9883	74.19	62.9883	74.1932	62.9883	74.196	62.9883	74.206	62.9883	74.2113	62.9883	74.2299	62.9883	74.2375	62.9883	74.2674	62.9883	74.2764	62.9883	74.3211	62.9883	74.3306	62.9883	74.3935	62.9883	74.4024	62.9883	74.4865	62.9883	74.4936	62.9883	74.6008	62.9883	74.6048	62.9883	74.7353	62.9883	74.735	62.9883	74.8864	62.9883	74.8813	62.9883	75.0488	62.9883	75.0387	62.9883	75.2149	62.9883	75.2006	62.9883	75.3761	62.9883	75.359	62.9883	75.5231	62.9883	75.5053	62.9883	75.6472	62.9883	75.6309	62.9883	75.7405	62.9883	75.7282	62.9883	75.7974	62.9883	75.7908	62.9883	75.8144
64.4531	74.5866	64.4531	74.5888	64.4531	74.5934	64.4531	74.6006	64.4531	74.6094	64.4531	74.6233	64.4531	74.6355	64.4531	74.659	64.4531	74.6731	64.4531	74.7098	64.4531	74.7243	64.4531	74.7779	64.4531	74.7909	64.4531	74.8648	64.4531	74.8743	64.4531	74.9709	64.4531	74.975	64.4531	75.0949	64.4531	75.0923	64.4531	75.2337	64.4531	75.224	64.4531	75.3822	64.4531	75.3658	64.4531	75.5338	64.4531	75.5121	64.4531	75.6806	64.4531	75.6558	64.4531	75.8142	64.4531	75.7892	64.4531	75.9267	64.4531	75.9044	64.4531	76.0109	64.4531	75.9943	64.4531	76.0616	64.4531	76.0527	64.4531	76.0758
67.3828	75.2743	67.3828	75.2789	67.3828	75.2786	67.3828	75.2928	67.3828	75.292	67.3828	75.3169	67.3828	75.315	67.3828	75.3525	67.3828	75.3487	67.3828	75.4012	67.3828	75.3944	67.3828	75.4642	67.3828	75.4532	67.3828	75.5425	67.3828	75.5262	67.3828	75.636	67.3828	75.6136	67.3828	75.7433	67.3828	75.7146	67.3828	75.8619	67.3828	75.8275	67.3828	75.9875	67.3828	75.9488	67.3828	76.1149	67.3828	76.074	67.3828	76.2375	67.3828	76.1972	67.3828	76.3488	67.3828	76.312	67.3828	76.4421	67.3828	76.4116	67.3828	76.5115	67.3828	76.4897	67.3828	76.5527	67.3828	76.5413	67.3828	76.5628
68.8477	75.5861	68.8477	75.5937	68.8477	75.5871	68.8477	75.6103	68.8477	75.5972	68.8477	75.6364	68.8477	75.6168	68.8477	75.673	68.8477	75.647	68.8477	75.721	68.8477	75.6888	68.8477	75.7815	68.8477	75.7434	68.8477	75.8549	68.8477	75.8114	68.8477	75.9413	68.8477	75.8932	68.8477	76.0395	68.8477	75.9879	68.8477	76.1474	68.8477	76.0938	68.8477	76.2614	68.8477	76.2077	68.8477	76.377	68.8477	76.3253	68.8477	76.4884	68.8477	76.4411	68.8477	76.5897	68.8477	76.5489	68.8477	76.6748	68.8477	76.6425	68.8477	76.7383	68.8477	76.7159	68.8477	76.7759	68.8477	76.7644	68.8477	76.7848
71.7773	76.2135	71.7773	76.2194	71.7773	76.2175	71.7773	76.2352	71.7773	76.2313	71.7773	76.2612	71.7773	76.2553	71.7773	76.2979	71.7773	76.2896	71.7773	76.3455	71.7773	76.3347	71.7773	76.4045	71.7773	76.3906	71.7773	76.4748	71.7773	76.4573	71.7773	76.5557	71.7773	76.5343	71.7773	76.646	71.7773	76.6207	71.7773	76.7436	71.7773	76.7146	71.7773	76.8453	71.7773	76.8134	71.7773	76.9472	71.7773	76.9139	71.7773	77.0445	71.7773	77.0117	71.7773	77.1322	71.7773	77.1022	71.7773	77.2055	71.7773	77.1804	71.7773	77.2598	71.7773	77.2418	71.7773	77.2918	71.7773	77.2824	71.7773	77.2995
74.707	76.8357	74.707	76.838	74.707	76.8436	74.707	76.8505	74.707	76.8614	74.707	76.8734	74.707	76.8889	74.707	76.9066	74.707	76.9258	74.707	76.9501	74.707	76.9717	74.707	77.0036	74.707	77.0262	74.707	77.0665	74.707	77.0886	74.707	77.1379	74.707	77.158	74.707	77.2165	74.707	77.2333	74.707	77.3004	74.707	77.3129	74.707	77.3869	74.707	77.3947	74.707	77.473	74.707	77.4761	74.707	77.555	74.707	77.5542	74.707	77.6289	74.707	77.6255	74.707	77.6909	74.707	77.6863	74.707	77.7374	74.707	77.7333	74.707	77.7659	74.707	77.7635	74.707	77.7747
77.6367	77.3897	77.6367	77.3954	77.6367	77.3937	77.6367	77.4108	77.6367	77.4071	77.6367	77.4356	77.6367	77.4298	77.6367	77.4694	77.6367	77.4612	77.6367	77.5118	77.6367	77.5008	77.6367	77.5619	77.6367	77.5478	77.6367	77.6189	77.6367	77.6015	77.6367	77.6817	77.6367	77.661	77.6367	77.7488	77.6367	77.7252	77.6367	77.8186	77.6367	77.7927	77.6367	77.8892	77.6367	77.8619	77.6367	77.958	77.6367	77.9306	77.6367	78.0226	77.6367	77.9965	77.6367	78.08	77.6367	78.0567	77.6367	78.1275	77.6367	78.1085	77.6367	78.1625	77.6367	78.149	77.6367	78.1828	77.6367	78.1758	77.6367	78.1874
79.1016	77.6411	79.1016	77.6471	79.1016	77.6448	79.1016	77.6628	79.1016	77.6583	79.1016	77.6878	79.1016	77.681	79.1016	77.7217	79.1016	77.7124	79.1016	77.7635	79.1016	77.7517	79.1016	77.8124	79.1016	77.7982	79.1016	77.8674	79.1016	77.8509	79.1016	77.9272	79.1016	77.9086	79.1016	77.9903	79.1016	77.9701	79.1016	78.0554	79.1016	78.0341	79.1016	78.1205	79.1016	78.099	79.1016	78.1837	79.1016	78.1627	79.1016	78.2428	79.1016	78.2232	79.1016	78.2952	79.1016	78.2781	79.1016	78.3386	79.1016	78.3248	79.1016	78.3708	79.1016	78.3611	79.1016	78.3898	79.1016	78.3848	79.1016	78.3946
82.0312	78.1904	82.0312	78.1935	82.0312	78.1972	82.0312	78.2064	82.0312	78.2138	82.0312	78.2286	82.0312	78.2394	82.0312	78.2594	82.0312	78.2731	82.0312	78.2976	82.0312	78.3139	82.0312	78.342	82.0312	78.3603	82.0312	78.3912	82.0312	78.411	82.0312	78.4438	82.0312	78.4647	82.0312	78.4984	82.0312	78.5198	82.0312	78.5538	82.0312	78.5751	82.0312	78.6086	82.0312	78.6292	82.0312	78.6614	82.0312	78.6806	82.0312	78.7108	82.0312	78.7279	82.0312	78.755	82.0312	78.7694	82.0312	78.7923	82.0312	78.8035	82.0312	78.8209	82.0312	78.8286	82.0312	78.8396	82.0312	78.8435	82.0312	78.8472
84.9609	78.5597	84.9609	78.5563	84.9609	78.5759	84.9609	78.5657	84.9609	78.6042	84.9609	78.5873	84.9609	78.6433	84.9609	78.62	84.9609	78.6913	84.9609	78.6622	84.9609	78.746	84.9609	78.712	84.9609	78.805	84.9609	78.7677	84.9609	78.866	84.9609	78.8274	84.9609	78.9267	84.9609	78.8893	84.9609	78.9855	84.9609	78.9518	84.9609	79.041	84.9609	79.0131	84.9609	79.0923	84.9609	79.0715	84.9609	79.1386	84.9609	79.1253	84.9609	79.1794	84.9609	79.1728	84.9609	79.214	84.9609	79.2123	84.9609	79.2415	84.9609	79.2425	84.9609	79.261	84.9609	79.2627	84.9609	79.2716	84.9609	79.2723
87.8906	79.0956	87.8906	79.1162	87.8906	79.0875	87.8906	79.1484	87.8906	79.0921	87.8906	79.1907	87.8906	79.109	87.8906	79.2413	87.8906	79.1372	87.8906	79.298	87.8906	79.1751	87.8906	79.3586	87.8906	79.2206	87.8906	79.4206	87.8906	79.2714	87.8906	79.4817	87.8906	79.3253	87.8906	79.5397	87.8906	79.3803	87.8906	79.5927	87.8906	79.4348	87.8906	79.6393	87.8906	79.4873	87.8906	79.6782	87.8906	79.5368	87.8906	79.7087	87.8906	79.5825	87.8906	79.7304	87.8906	79.6237	87.8906	79.7435	87.8906	79.6598	87.8906	79.748	87.8906	79.6905	87.8906	79.7445	87.8906	79.7152	87.8906	79.7334
90.8203	79.8736	90.8203	79.8871	90.8203	79.8663	90.8203	79.9063	90.8203	79.8654	90.8203	79.93	90.8203	79.8702	90.8203	79.9566	90.8203	79.8801	90.8203	79.9843	90.8203	79.8937	90.8203	80.011	90.8203	79.9099	90.8203	80.035	90.8203	79.9274	90.8203	80.0545	90.8203	79.945	90.8203	80.0686	90.8203	79.9617	90.8203	80.0767	90.8203	79.9766	90.8203	80.079	90.8203	79.9893	90.8203	80.0762	90.8203	79.9994	90.8203	80.0695	90.8203	80.0069	90.8203	80.0604	90.8203	80.0122	90.8203	80.0505	90.8203	80.0159	90.8203	80.0411	90.8203	80.019	90.8203	80.0331	90.8203	80.0224	90.8203	80.0269
95.2148	80.3406	95.2148	80.3469	95.2148	80.3426	95.2148	80.3616	95.2148	80.3525	95.2148	80.3839	95.2148	80.3693	95.2148	80.4128	95.2148	80.3916	95.2148	80.4468	95.2148	80.4177	95.2148	80.4837	95.2148	80.4457	95.2148	80.5214	95.2148	80.4737	95.2148	80.5574	95.2148	80.5001	95.2148	80.5896	95.2148	80.5235	95.2148	80.6161	95.2148	80.5431	95.2148	80.6356	95.2148	80.5587	95.2148	80.6477	95.2148	80.5706	95.2148	80.6525	95.2148	80.5795	95.2148	80.6511	95.2148	80.5864	95.2148	80.6451	95.2148	80.5927	95.2148	80.6361	95.2148	80.5993	95.2148	80.6259	95.2148	80.6069	95.2148	80.6159
98.1445	80.7521	98.1445	80.7641	98.1445	80.7513	98.1445	80.7867	98.1445	80.7615	98.1445	80.8184	98.1445	80.7817	98.1445	80.8573	98.1445	80.8101	98.1445	80.901	98.1445	80.8444	98.1445	80.9465	98.1445	80.8818	98.1445	80.991	98.1445	80.9195	98.1445	81.0316	98.1445	80.9549	98.1445	81.0658	98.1445	80.9861	98.1445	81.092	98.1445	81.0116	98.1445	81.1093	98.1445	81.0311	98.1445	81.118	98.1445	81.0447	98.1445	81.1191	98.1445	81.0537	98.1445	81.1144	98.1445	81.0593	98.1445	81.1061	98.1445	81.0633	98.1445	81.0962	98.1445	81.067	98.1445	81.0865	98.1445	81.0717	98.1445	81.0782
101.074	81.1463	101.074	81.1557	101.074	81.1498	101.074	81.1773	101.074	81.1659	101.074	81.2092	101.074	81.1932	101.074	81.2489	101.074	81.2295	101.074	81.2932	101.074	81.2718	101.074	81.3388	101.074	81.3169	101.074	81.3824	101.074	81.3616	101.074	81.4211	101.074	81.4029	101.074	81.4526	101.074	81.4383	101.074	81.4756	101.074	81.4663	101.074	81.4899	101.074	81.4859	101.074	81.4962	101.074	81.4972	101.074	81.4962	101.074	81.5013	101.074	81.492	101.074	81.4996	101.074	81.4862	101.074	81.4943	101.074	81.4809	101.074	81.4877	101.074	81.478	101.074	81.4819	101.074	81.4783
105.469	81.9049	105.469	81.9171	105.469	81.9029	105.469	81.938	105.469	81.9115	105.469	81.9656	105.469	81.9303	105.469	81.9971	105.469	81.9577	105.469	82.0297	105.469	81.9911	105.469	82.0604	105.469	82.0274	105.469	82.0865	105.469	82.0628	105.469	82.1056	105.469	82.0938	105.469	82.1162	105.469	82.117	105.469	82.1176	105.469	82.1304	105.469	82.11	105.469	82.1329	105.469	82.0949	105.469	82.1249	105.469	82.0746	105.469	82.1081	105.469	82.0523	105.469	82.0853	105.469	82.0316	105.469	82.0603	105.469	82.0158	105.469	82.0369	105.469	82.0076	105.469	82.0188	105.469	82.0085
108.398	82.3032	108.398	82.3064	108.398	82.3089	108.398	82.3185	108.398	82.323	108.398	82.3386	108.398	82.344	108.398	82.3649	108.398	82.37	108.398	82.3953	108.398	82.3985	108.398	82.427	108.398	82.4266	108.398	82.457	108.398	82.4516	108.398	82.4825	108.398	82.4708	108.398	82.501	108.398	82.4824	108.398	82.5107	108.398	82.4854	108.398	82.5108	108.398	82.4798	108.398	82.5017	108.398	82.467	108.398	82.485	108.398	82.4491	108.398	82.4631	108.398	82.4293	108.398	82.4395	108.398	82.4107	108.398	82.4175	108.398	82.3966	108.398	82.4004	108.398	82.3894	108.398	82.3906
112.793	82.989	112.793	82.9925	112.793	82.994	112.793	83.0039	112.793	83.0071	112.793	83.0217	112.793	83.027	112.793	83.0436	112.793	83.0516	112.793	83.0667	112.793	83.078	112.793	83.0882	112.793	83.1029	112.793	83.105	112.793	83.1231	112.793	83.1144	112.793	83.1356	112.793	83.1144	112.793	83.1379	112.793	83.1041	112.793	83.1288	112.793	83.0836	112.793	83.1081	112.793	83.0541	112.793	83.0772	112.793	83.0184	112.793	83.0388	112.793	82.9803	112.793	82.997	112.793	82.9443	112.793	82.9568	112.793	82.9148	112.793	82.923	112.793	82.8961	112.793	82.9001	112.793	82.8908
117.188	83.6438	117.188	83.6599	117.188	83.6321	117.188	83.6796	117.188	83.6249	117.188	83.7011	117.188	83.6214	117.188	83.7222	117.188	83.6199	117.188	83.7398	117.188	83.6183	117.188	83.7508	117.188	83.6139	117.188	83.7522	117.188	83.6042	117.188	83.7414	117.188	83.5867	117.188	83.7164	117.188	83.5595	117.188	83.6766	117.188	83.5222	117.188	83.6229	117.188	83.4753	117.188	83.5576	117.188	83.4214	117.188	83.4849	117.188	83.3642	117.188	83.4102	117.188	83.3088	117.188	83.3399	117.188	83.261	117.188	83.28	117.188	83.2261	117.188	83.2361	117.188	83.2087	117.188	83.2118
120.117	83.9186	120.117	83.9251	120.117	83.917	120.117	83.9362	120.117	83.92	120.117	83.9505	120.117	83.9266	120.117	83.9661	120.117	83.9349	120.117	83.9805	120.117	83.9426	120.117	83.9907	120.117	83.947	120.117	83.9938	120.117	83.9453	120.117	83.9871	120.117	83.9348	120.117	83.9687	120.117	83.9139	120.117	83.9376	120.117	83.8818	120.117	83.8944	120.117	83.8393	120.117	83.841	120.117	83.7886	120.117	83.7812	120.117	83.7335	120.117	83.7199	120.117	83.6789	120.117	83.6626	120.117	83.6303	120.117	83.6151	120.117	83.5928	120.117	83.5821	120.117	83.5707	120.117	83.5669
124.512	84.2862	124.512	84.2955	124.512	84.2843	124.512	84.3115	124.512	84.2896	124.512	84.3328	124.512	84.3015	124.512	84.3574	124.512	84.3183	124.512	84.3829	124.512	84.3378	124.512	84.4062	124.512	84.3572	124.512	84.4245	124.512	84.3736	124.512	84.4349	124.512	84.3842	124.512	84.4354	124.512	84.3866	124.512	84.4246	124.512	84.3794	124.512	84.4026	124.512	84.3623	124.512	84.3708	124.512	84.3365	124.512	84.3322	124.512	84.3045	124.512	84.2908	124.512	84.2697	124.512	84.2515	124.512	84.2366	124.512	84.2188	124.512	84.2095	124.512	84.1967	124.512	84.1922	124.512	84.1875
128.906	84.8017	128.906	84.8078	128.906	84.8035	128.906	84.8215	128.906	84.8128	128.906	84.841	128.906	84.8284	128.906	84.8643	128.906	84.8479	128.906	84.8883	128.906	84.8685	128.906	84.9098	128.906	84.8869	128.906	84.9254	128.906	84.8995	128.906	84.932	128.906	84.9034	128.906	84.9273	128.906	84.8961	128.906	84.9098	128.906	84.8765	128.906	84.8796	128.906	84.8449	128.906	84.8382	128.906	84.8032	128.906	84.7886	128.906	84.755	128.906	84.7354	128.906	84.705	128.906	84.6842	128.906	84.659	128.906	84.6406	128.906	84.6227	128.906	84.61	128.906	84.6007	128.906	84.5962
133.301	85.2136	133.301	85.2214	133.301	85.2131	133.301	85.236	133.301	85.2198	133.301	85.2557	133.301	85.2327	133.301	85.2784	133.301	85.25	133.301	85.3012	133.301	85.2691	133.301	85.321	133.301	85.2868	133.301	85.3345	133.301	85.2997	133.301	85.3388	133.301	85.3044	133.301	85.3315	133.301	85.2983	133.301	85.3112	133.301	85.2795	133.301	85.2779	133.301	85.2481	133.301	85.2334	133.301	85.2056	133.301	85.1807	133.301	85.1556	133.301	85.1249	133.301	85.1031	133.301	85.0717	133.301	85.0541	133.301	85.0271	133.301	85.0146	133.301	84.9965	133.301	84.99	133.301	84.9836
139.16	85.7027	139.16	85.714	139.16	85.6983	139.16	85.7312	139.16	85.701	139.16	85.7525	139.16	85.7102	139.16	85.7756	139.16	85.7242	139.16	85.7975	139.16	85.7406	139.16	85.8156	139.16	85.7564	139.16	85.8268	139.16	85.7681	139.16	85.8287	139.16	85.7725	139.16	85.8192	139.16	85.7668	139.16	85.7974	139.16	85.7493	139.16	85.7632	139.16	85.7196	139.16	85.7183	139.16	85.6793	139.16	85.6659	139.16	85.6316	139.16	85.6105	139.16	85.5815	139.16	85.5576	139.16	85.5349	139.16	85.5133	139.16	85.4975	139.16	85.4825	139.16	85.4744	139.16	85.4691
143.555	86.0291	143.555	86.0341	143.555	86.03	143.555	86.0441	143.555	86.0369	143.555	86.0578	143.555	86.0492	143.555	86.0732	143.555	86.0655	143.555	86.088	143.555	86.0833	143.555	86.0997	143.555	86.0997	143.555	86.1057	143.555	86.1112	143.555	86.1037	143.555	86.1146	143.555	86.0917	143.555	86.1071	143.555	86.0688	143.555	86.0872	143.555	86.0351	143.555	86.0548	143.555	85.9922	143.555	86.0114	143.555	85.943	143.555	85.9603	143.555	85.892	143.555	85.9064	143.555	85.8444	143.555	85.8554	143.555	85.8058	143.555	85.8132	143.555	85.7811	143.555	85.7848	143.555	85.7737
147.949	86.3329	147.949	86.3386	147.949	86.3316	147.949	86.3481	147.949	86.3345	147.949	86.3602	147.949	86.3411	147.949	86.3733	147.949	86.35	147.949	86.385	147.949	86.3595	147.949	86.3924	147.949	86.3672	147.949	86.3927	147.949	86.3701	147.949	86.3834	147.949	86.3654	147.949	86.3622	147.949	86.3505	147.949	86.3284	147.949	86.3238	147.949	86.2825	147.949	86.2847	147.949	86.2267	147.949	86.2346	147.949	86.1649	147.949	86.1765	147.949	86.1023	147.949	86.1154	147.949	86.0451	147.949	86.0573	147.949	85.9995	147.949	86.0088	147.949	85.9708	147.949	85.9758	147.949	85.9626
153.809	86.6078	153.809	86.6161	153.809	86.6035	153.809	86.6276	153.809	86.6032	153.809	86.6413	153.809	86.6065	153.809	86.655	153.809	86.612	153.809	86.6667	153.809	86.6177	153.809	86.6733	153.809	86.6213	153.809	86.6721	153.809	86.6196	153.809	86.6603	153.809	86.6097	153.809	86.6357	153.809	86.5891	153.809	86.5974	153.809	86.5558	153.809	86.5457	153.809	86.5097	153.809	86.4829	153.809	86.4524	153.809	86.4128	153.809	86.3875	153.809	86.3411	153.809	86.3206	153.809	86.2743	153.809	86.2584	153.809	86.2192	153.809	86.2083	153.809	86.1821	153.809	86.1765	153.809	86.1673
159.668	86.7859	159.668	86.7921	159.668	86.7827	159.668	86.8008	159.668	86.7825	159.668	86.8112	159.668	86.785	159.668	86.8222	159.668	86.7897	159.668	86.832	159.668	86.7951	159.668	86.8382	159.668	86.7991	159.668	86.8382	159.668	86.7992	159.668	86.8291	159.668	86.7924	159.668	86.8085	159.668	86.7759	159.668	86.7748	159.668	86.7479	159.668	86.7281	159.668	86.7077	159.668	86.6701	159.668	86.6564	159.668	86.6046	159.668	86.5972	159.668	86.5374	159.668	86.535	159.668	86.4752	159.668	86.476	159.668	86.425	159.668	86.427	159.668	86.3927	159.668	86.3942	159.668	86.3821
165.527	87.0474	165.527	87.0453	165.527	87.0537	165.527	87.0475	165.527	87.0636	165.527	87.0537	165.527	87.0764	165.527	87.063	165.527	87.0907	165.527	87.0737	165.527	87.1046	165.527	87.0832	165.527	87.1155	165.527	87.0885	165.527	87.1204	165.527	87.0862	165.527	87.1161	165.527	87.0735	165.527	87.1	165.527	87.0487	165.527	87.0705	165.527	87.0115	165.527	87.0281	165.527	86.9635	165.527	86.9747	165.527	86.9082	165.527	86.9147	165.527	86.8507	165.527	86.8536	165.527	86.7968	165.527	86.7974	165.527	86.7527	165.527	86.7523	165.527	86.7237	165.527	86.7233	165.527	86.7134
171.387	87.1604	171.387	87.1577	171.387	87.1622	171.387	87.1545	171.387	87.163	171.387	87.151	171.387	87.1626	171.387	87.1471	171.387	87.161	171.387	87.1423	171.387	87.1575	171.387	87.1352	171.387	87.151	171.387	87.1236	171.387	87.1395	171.387	87.105	171.387	87.1206	171.387	87.077	171.387	87.0918	171.387	87.0379	171.387	87.0513	171.387	86.9874	171.387	86.999	171.387	86.9271	171.387	86.9365	171.387	86.8605	171.387	86.8676	171.387	86.793	171.387	86.798	171.387	86.7309	171.387	86.7341	171.387	86.6807	171.387	86.6826	171.387	86.6482	171.387	86.649	171.387	86.6372
177.246	87.1408	177.246	87.1413	177.246	87.1368	177.246	87.1379	177.246	87.13	177.246	87.1307	177.246	87.1215	177.246	87.1199	177.246	87.1119	177.246	87.1056	177.246	87.1012	177.246	87.0873	177.246	87.0883	177.246	87.0642	177.246	87.0711	177.246	87.0347	177.246	87.0469	177.246	86.9976	177.246	87.0129	177.246	86.9516	177.246	86.9676	177.246	86.897	177.246	86.9107	177.246	86.835	177.246	86.8444	177.246	86.7688	177.246	86.7731	177.246	86.7029	177.246	86.7027	177.246	86.6428	177.246	86.6397	177.246	86.5941	177.246	86.5903	177.246	86.5618	177.246	86.5594	177.246	86.5497
183.105	87.0559	183.105	87.0638	183.105	87.0447	183.105	87.0677	183.105	87.0309	183.105	87.0674	183.105	87.0158	183.105	87.0629	183.105	87.0001	183.105	87.0536	183.105	86.9841	183.105	87.0388	183.105	86.9667	183.105	87.0172	183.105	86.9461	183.105	86.9872	183.105	86.9195	183.105	86.9474	183.105	86.8844	183.105	86.8972	183.105	86.8392	183.105	86.8372	183.105	86.7838	183.105	86.7693	183.105	86.7203	183.105	86.6971	183.105	86.6527	183.105	86.6253	183.105	86.5866	183.105	86.5597	183.105	86.5283	183.105	86.5058	183.105	86.4836	183.105	86.4687	183.105	86.4572	183.105	86.452
188.965	86.9149	188.965	86.9245	188.965	86.9009	188.965	86.9297	188.965	86.883	188.965	86.931	188.965	86.862	188.965	86.9288	188.965	86.839	188.965	86.923	188.965	86.8148	188.965	86.9127	188.965	86.7892	188.965	86.8962	188.965	86.7611	188.965	86.8713	188.965	86.7287	188.965	86.8358	188.965	86.6895	188.965	86.7884	188.965	86.642	188.965	86.729	188.965	86.586	188.965	86.6595	188.965	86.5231	188.965	86.5832	188.965	86.4575	188.965	86.5052	188.965	86.3947	188.965	86.4313	188.965	86.3415	188.965	86.3676	188.965	86.3039	188.965	86.3197	188.965	86.2865	188.965	86.2918
196.289	86.8201	196.289	86.8196	196.289	86.813	196.289	86.8121	196.289	86.7982	196.289	86.7988	196.289	86.7764	196.289	86.7807	196.289	86.7487	196.289	86.7588	196.289	86.7162	196.289	86.733	196.289	86.6797	196.289	86.7026	196.289	86.6389	196.289	86.6658	196.289	86.5931	196.289	86.6205	196.289	86.541	196.289	86.5651	196.289	86.4814	196.289	86.4989	196.289	86.414	196.289	86.4233	196.289	86.3402	196.289	86.3416	196.289	86.2634	196.289	86.2587	196.289	86.1892	196.289	86.1812	196.289	86.1241	196.289	86.1159	196.289	86.0751	196.289	86.0692	196.289	86.0478	196.289	86.0457
203.613	86.6255	203.613	86.6212	203.613	86.6179	203.613	86.6059	203.613	86.5985	203.613	86.5817	203.613	86.5683	203.613	86.5512	203.613	86.5294	203.613	86.5167	203.613	86.4839	203.613	86.48	203.613	86.4342	203.613	86.4413	203.613	86.3819	203.613	86.3994	203.613	86.328	203.613	86.3519	203.613	86.2724	203.613	86.2966	203.613	86.2145	203.613	86.2328	203.613	86.1533	203.613	86.1614	203.613	86.0891	203.613	86.086	203.613	86.0233	203.613	86.0114	203.613	85.9597	203.613	85.9434	203.613	85.9033	203.613	85.8876	203.613	85.86	203.613	85.849	203.613	85.8348	203.613	85.8309
210.938	86.5021	210.938	86.4874	210.938	86.5026	210.938	86.4582	210.938	86.4902	210.938	86.4153	210.938	86.4666	210.938	86.3606	210.938	86.434	210.938	86.2971	210.938	86.3944	210.938	86.2282	210.938	86.3492	210.938	86.1572	210.938	86.2991	210.938	86.0862	210.938	86.244	210.938	86.0162	210.938	86.1827	210.938	85.9471	210.938	86.1145	210.938	85.8782	210.938	86.0393	210.938	85.8099	210.938	85.9584	210.938	85.7438	210.938	85.8749	210.938	85.6831	210.938	85.7932	210.938	85.6324	210.938	85.7183	210.938	85.5964	210.938	85.6555	210.938	85.5793	210.938	85.6094	210.938	85.5835
218.262	86.1654	218.262	86.1678	218.262	86.1523	218.262	86.1593	218.262	86.1298	218.262	86.1408	218.262	86.0999	218.262	86.1135	218.262	86.0653	218.262	86.0787	218.262	86.0281	218.262	86.0375	218.262	85.9895	218.262	85.9911	218.262	85.9495	218.262	85.9401	218.262	85.9068	218.262	85.8852	218.262	85.8598	218.262	85.8269	218.262	85.8072	218.262	85.7657	218.262	85.7486	218.262	85.7024	218.262	85.685	218.262	85.6385	218.262	85.6192	218.262	85.5763	218.262	85.5555	218.262	85.5195	218.262	85.4992	218.262	85.4723	218.262	85.4559	218.262	85.4394	218.262	85.4302	218.262	85.4246
225.586	85.9165	225.586	85.9203	225.586	85.8992	225.586	85.9108	225.586	85.8693	225.586	85.8897	225.586	85.8291	225.586	85.8589	225.586	85.7819	225.586	85.8205	225.586	85.731	225.586	85.776	225.586	85.6793	225.586	85.726	225.586	85.6285	225.586	85.6709	225.586	85.5789	225.586	85.6106	225.586	85.5305	225.586	85.5456	225.586	85.4823	225.586	85.4773	225.586	85.4341	225.586	85.4084	225.586	85.3858	225.586	85.3424	225.586	85.3381	225.586	85.2835	225.586	85.2925	225.586	85.2355	225.586	85.251	225.586	85.2014	225.586	85.2165	225.586	85.1828	225.586	85.1919	225.586	85.18
232.91	85.7201	232.91	85.7311	232.91	85.6906	232.91	85.7245	232.91	85.6437	232.91	85.7023	232.91	85.582	232.91	85.6676	232.91	85.5101	232.91	85.6232	232.91	85.4324	232.91	85.5712	232.91	85.3532	232.91	85.5126	232.91	85.275	232.91	85.4473	232.91	85.199	232.91	85.3743	232.91	85.1256	232.91	85.2938	232.91	85.0551	232.91	85.2072	232.91	84.9885	232.91	85.118	232.91	84.9276	232.91	85.0313	232.91	84.8743	232.91	84.9523	232.91	84.8305	232.91	84.8854	232.91	84.7976	232.91	84.8332	232.91	84.7769	232.91	84.7967	232.91	84.7693	232.91	84.7756
241.699	85.3699	241.699	85.3605	241.699	85.3575	241.699	85.3314	241.699	85.3236	241.699	85.2862	241.699	85.2703	241.699	85.2297	241.699	85.2009	241.699	85.1668	241.699	85.1198	241.699	85.1018	241.699	85.031	241.699	85.0371	241.699	84.9377	241.699	84.9729	241.699	84.8421	241.699	84.9073	241.699	84.7458	241.699	84.8376	241.699	84.6512	241.699	84.7615	241.699	84.5623	241.699	84.6797	241.699	84.4839	241.699	84.5957	241.699	84.4203	241.699	84.5156	241.699	84.3738	241.699	84.4461	241.699	84.3439	241.699	84.3919	241.699	84.3283	241.699	84.3546	241.699	84.3248	241.699	84.3331
250.488	85.0228	250.488	85.0166	250.488	85.0021	250.488	84.9851	250.488	84.9566	250.488	84.9332	250.488	84.8921	250.488	84.8668	250.488	84.8165	250.488	84.7925	250.488	84.7374	250.488	84.7155	250.488	84.6597	250.488	84.64	250.488	84.5845	250.488	84.5682	250.488	84.5099	250.488	84.4999	250.488	84.4323	250.488	84.4332	250.488	84.3495	250.488	84.365	250.488	84.2626	250.488	84.2935	250.488	84.1758	250.488	84.2194	250.488	84.0957	250.488	84.1461	250.488	84.0293	250.488	84.0789	250.488	83.9812	250.488	84.0227	250.488	83.9532	250.488	83.9806	250.488	83.9448	250.488	83.9544
259.277	85.0387	259.277	85.0152	259.277	85.0293	259.277	84.9613	259.277	84.9873	259.277	84.8814	259.277	84.9155	259.277	84.7815	259.277	84.8199	259.277	84.6688	259.277	84.7088	259.277	84.551	259.277	84.591	259.277	84.4362	259.277	84.4741	259.277	84.3311	259.277	84.3623	259.277	84.2398	259.277	84.2565	259.277	84.1627	259.277	84.1554	259.277	84.0965	259.277	84.0586	259.277	84.0359	259.277	83.9683	259.277	83.9768	259.277	83.8889	259.277	83.9184	259.277	83.8257	259.277	83.8632	259.277	83.7816	259.277	83.8157	259.277	83.7568	259.277	83.7798	259.277	83.7494	259.277	83.7574
268.066	84.6768	268.066	84.6532	268.066	84.6644	268.066	84.5992	268.066	84.6149	268.066	84.5232	268.066	84.5319	268.066	84.4342	268.066	84.4228	268.066	84.3397	268.066	84.297	268.066	84.2447	268.066	84.1641	268.066	84.1523	268.066	84.0323	268.066	84.0646	268.066	83.9067	268.066	83.9839	268.066	83.789	268.066	83.9115	268.066	83.679	268.066	83.8481	268.066	83.5768	268.066	83.7922	268.066	83.4855	268.066	83.7409	268.066	83.4116	268.066	83.6905	268.066	83.3635	268.066	83.638	268.066	83.347	268.066	83.5814	268.066	83.3622	268.066	83.5206	268.066	83.4028	268.066	83.4588
276.855	84.4713	276.855	84.4103	276.855	84.4975	276.855	84.3185	276.855	84.4868	276.855	84.2012	276.855	84.4393	276.855	84.0655	276.855	84.3579	276.855	83.9208	276.855	84.2488	276.855	83.7772	276.855	84.1203	276.855	83.6447	276.855	83.982	276.855	83.5311	276.855	83.8426	276.855	83.4404	276.855	83.7092	276.855	83.3723	276.855	83.586	276.855	83.3218	276.855	83.4737	276.855	83.2807	276.855	83.3709	276.855	83.2403	276.855	83.2768	276.855	83.1956	276.855	83.1929	276.855	83.147	276.855	83.1234	276.855	83.1005	276.855	83.0736	276.855	83.0639	276.855	83.047	276.855	83.0444
287.109	84.1888	287.109	84.2057	287.109	84.1421	287.109	84.1889	287.109	84.0707	287.109	84.1372	287.109	83.9783	287.109	84.053	287.109	83.8678	287.109	83.9418	287.109	83.7425	287.109	83.8104	287.109	83.6073	287.109	83.6664	287.109	83.4693	287.109	83.5175	287.109	83.3362	287.109	83.3719	287.109	83.215	287.109	83.2395	287.109	83.1121	287.109	83.1311	287.109	83.0316	287.109	83.0556	287.109	82.9748	287.109	83.015	287.109	82.9394	287.109	83.002	287.109	82.9215	287.109	83.002	287.109	82.9176	287.109	83.0002	287.109	82.9258	287.109	82.9883	287.109	82.9439	287.109	82.9673
297.363	83.9852	297.363	83.9813	297.363	83.9493	297.363	83.9376	297.363	83.8796	297.363	83.8607	297.363	83.7868	297.363	83.7608	297.363	83.6822	297.363	83.6486	297.363	83.5724	297.363	83.532	297.363	83.4579	297.363	83.4139	297.363	83.3353	297.363	83.2933	297.363	83.2023	297.363	83.1688	297.363	83.0621	297.363	83.0422	297.363	82.9244	297.363	82.9215	297.363	82.8021	297.363	82.8186	297.363	82.706	297.363	82.7447	297.363	82.6416	297.363	82.7028	297.363	82.608	297.363	82.6858	297.363	82.6004	297.363	82.68	297.363	82.6116	297.363	82.6722	297.363	82.6332	297.363	82.656
307.617	83.8838	307.617	83.838	307.617	83.8722	307.617	83.7407	307.617	83.8033	307.617	83.6025	307.617	83.6839	307.617	83.438	307.617	83.5276	307.617	83.2655	307.617	83.3525	307.617	83.1046	307.617	83.1764	307.617	82.9712	307.617	83.0113	307.617	82.8708	307.617	82.8614	307.617	82.7965	307.617	82.7263	307.617	82.7325	307.617	82.6067	307.617	82.6634	307.617	82.5067	307.617	82.5829	307.617	82.4324	307.617	82.4969	307.617	82.386	307.617	82.4191	307.617	82.363	307.617	82.3631	307.617	82.3538	307.617	82.3341	307.617	82.3488	307.617	82.3275	307.617	82.3421	307.617	82.3333
319.336	83.5629	319.336	83.5051	319.336	83.5632	319.336	83.3943	319.336	83.5044	319.336	83.2371	319.336	83.3899	319.336	83.0418	319.336	83.2297	319.336	82.8204	319.336	83.0396	319.336	82.5911	319.336	82.8392	319.336	82.3773	319.336	82.6467	319.336	82.2037	319.336	82.4734	319.336	82.0878	319.336	82.3224	319.336	82.0328	319.336	82.1935	319.336	82.0252	319.336	82.0898	319.336	82.0415	319.336	82.0203	319.336	82.0594	319.336	81.9925	319.336	82.0674	319.336	82.0031	319.336	82.067	319.336	82.0349	319.336	82.0666	319.336	82.0659	319.336	82.0719	319.336	82.0813	319.336	82.0802
329.59	83.2771	329.59	83.2239	329.59	83.2789	329.59	83.1297	329.59	83.223	329.59	83.0047	329.59	83.1099	329.59	82.8552	329.59	82.9479	329.59	82.6822	329.59	82.7506	329.59	82.4849	329.59	82.5351	329.59	82.2668	329.59	82.3179	329.59	82.0413	329.59	82.1113	329.59	81.8327	329.59	81.9211	329.59	81.6707	329.59	81.7481	329.59	81.5776	329.59	81.5939	329.59	81.557	329.59	81.4675	329.59	81.591	329.59	81.3859	329.59	81.649	329.59	81.3644	329.59	81.7009	329.59	81.404	329.59	81.7255	329.59	81.4859	329.59	81.7129	329.59	81.5808	329.59	81.6622
341.309	83.0945	341.309	83.0859	341.309	83.0394	341.309	83.014	341.309	82.9275	341.309	82.8867	341.309	82.7695	341.309	82.7173	341.309	82.5771	341.309	82.5209	341.309	82.3619	341.309	82.31	341.309	82.1365	341.309	82.0918	341.309	81.9178	341.309	81.8694	341.309	81.7265	341.309	81.647	341.309	81.5819	341.309	81.4362	341.309	81.4919	341.309	81.258	341.309	81.4486	341.309	81.1376	341.309	81.4327	341.309	81.092	341.309	81.4258	341.309	81.1184	341.309	81.4194	341.309	81.1926	341.309	81.4143	341.309	81.28	341.309	81.4127	341.309	81.3516	341.309	81.4099	341.309	81.3938
353.027	83.096	353.027	83.0477	353.027	83.0766	353.027	82.9363	353.027	82.9884	353.027	82.7707	353.027	82.8341	353.027	82.5655	353.027	82.6223	353.027	82.339	353.027	82.3676	353.027	82.1093	353.027	82.0873	353.027	81.8911	353.027	81.7951	353.027	81.6937	353.027	81.5011	353.027	81.5214	353.027	81.2167	353.027	81.3746	353.027	80.9597	353.027	81.2508	353.027	80.753	353.027	81.1462	353.027	80.6167	353.027	81.0593	353.027	80.5603	353.027	80.9939	353.027	80.5795	353.027	80.9561	353.027	80.6559	353.027	80.9436	353.027	80.7589	353.027	80.9388	353.027	80.8537	353.027	80.9149
366.211	82.7526	366.211	82.6707	366.211	82.7724	366.211	82.5314	366.211	82.7306	366.211	82.3456	366.211	82.6324	366.211	82.1314	366.211	82.4886	366.211	81.9138	366.211	82.3163	366.211	81.7201	366.211	82.1353	366.211	81.5672	366.211	81.9597	366.211	81.4514	366.211	81.7887	366.211	81.3494	366.211	81.6098	366.211	81.2371	366.211	81.4131	366.211	81.1092	366.211	81.2046	366.211	80.9833	366.211	81.0037	366.211	80.8825	366.211	80.8298	366.211	80.8121	366.211	80.691	366.211	80.7548	366.211	80.5879	366.211	80.6894	366.211	80.5242	366.211	80.6126	366.211	80.5087	366.211	80.5434
379.395	82.655	379.395	82.5799	379.395	82.6636	379.395	82.4445	379.395	82.6066	379.395	82.2584	379.395	82.4923	379.395	82.0325	379.395	82.3334	379.395	81.7798	379.395	82.1433	379.395	81.5213	379.395	81.9357	379.395	81.2886	379.395	81.7278	379.395	81.1178	379.395	81.5415	379.395	81.031	379.395	81.398	379.395	81.0218	379.395	81.3065	379.395	81.0587	379.395	81.2607	379.395	81.1052	379.395	81.2452	379.395	81.1387	379.395	81.2469	379.395	81.1571	379.395	81.2585	379.395	81.1721	379.395	81.2746	379.395	81.1955	379.395	81.2863	379.395	81.2288	379.395	81.2836	379.395	81.2623
392.578	82.6456	392.578	82.5822	392.578	82.6182	392.578	82.4377	392.578	82.4954	392.578	82.2239	392.578	82.2835	392.578	81.9542	392.578	82.0049	392.578	81.6463	392.578	81.6998	392.578	81.3262	392.578	81.4178	392.578	81.031	392.578	81.202	392.578	80.8053	392.578	81.0732	392.578	80.69	392.578	81.0296	392.578	80.7043	392.578	81.0559	392.578	80.8356	392.578	81.1335	392.578	81.0436	392.578	81.2445	392.578	81.2769	392.578	81.3716	392.578	81.4905	392.578	81.4997	392.578	81.6559	392.578	81.6165	392.578	81.7627	392.578	81.7127	392.578	81.8137	392.578	81.7815	392.578	81.8173
405.762	83.2321	405.762	83.1233	405.762	83.2308	405.762	82.9073	405.762	83.1182	405.762	82.5938	405.762	82.8931	405.762	82.2004	405.762	82.5581	405.762	81.754	405.762	82.1306	405.762	81.292	405.762	81.6541	405.762	80.8662	405.762	81.1981	405.762	80.5379	405.762	80.8399	405.762	80.3579	405.762	80.6345	405.762	80.3391	405.762	80.5939	405.762	80.4494	405.762	80.6939	405.762	80.6354	405.762	80.8926	405.762	80.8521	405.762	81.1416	405.762	81.0736	405.762	81.3903	405.762	81.2853	405.762	81.5938	405.762	81.4747	405.762	81.7223	405.762	81.6278	405.762	81.7658	405.762	81.7298
420.41	83.6498	420.41	83.6091	420.41	83.5641	420.41	83.435	420.41	83.3667	420.41	83.1306	420.41	83.0752	420.41	82.7095	420.41	82.7057	420.41	82.1928	420.41	82.272	420.41	81.6086	420.41	81.7869	420.41	80.9989	420.41	81.2687	420.41	80.4333	420.41	80.7513	420.41	80.0135	420.41	80.2936	420.41	79.8409	420.41	79.973	420.41	79.9439	420.41	79.8505	420.41	80.2451	420.41	79.9283	420.41	80.6153	420.41	80.1475	420.41	80.9499	420.41	80.4297	420.41	81.1955	420.41	80.7159	420.41	81.337	420.41	80.9726	420.41	81.3758	420.41	81.1797	420.41	81.3194
435.059	83.2564	435.059	83.1527	435.059	83.2458	435.059	82.9524	435.059	83.1173	435.059	82.6769	435.059	82.8844	435.059	82.3425	435.059	82.5722	435.059	81.9581	435.059	82.2074	435.059	81.5286	435.059	81.8106	435.059	81.059	435.059	81.3947	435.059	80.5572	435.059	80.9695	435.059	80.0437	435.059	80.5511	435.059	79.5716	435.059	80.172	435.059	79.2385	435.059	79.8862	435.059	79.1535	435.059	79.7583	435.059	79.3577	435.059	79.8311	435.059	79.7785	435.059	80.0902	435.059	80.2771	435.059	80.4557	435.059	80.7229	435.059	80.8153	435.059	81.0281	435.059	81.0674	435.059	81.1466
451.172	83.7315	451.172	83.6617	451.172	83.6754	451.172	83.4715	451.172	83.4928	451.172	83.1656	451.172	83.1919	451.172	82.7478	451.172	82.788	451.172	82.2278	451.172	82.3008	451.172	81.6305	451.172	81.7545	451.172	80.9984	451.172	81.1828	451.172	80.3888	451.172	80.6354	451.172	79.8686	451.172	80.1768	451.172	79.5074	451.172	79.8674	451.172	79.359	451.172	79.7336	451.172	79.4314	451.172	79.7514	451.172	79.6695	451.172	79.8669	451.172	79.9774	451.172	80.0304	451.172	80.2627	451.172	80.2103	451.172	80.4678	451.172	80.3809	451.172	80.5737	451.172	80.5142	451.172	80.5847
465.82	83.5253	465.82	83.4235	465.82	83.5085	465.82	83.1977	465.82	83.3789	465.82	82.8579	465.82	83.1321	465.82	82.4327	465.82	82.7615	465.82	81.9588	465.82	82.2773	465.82	81.4685	465.82	81.7176	465.82	80.9862	465.82	81.1407	465.82	80.5289	465.82	80.6032	465.82	80.1064	465.82	80.1451	465.82	79.731	465.82	79.7936	465.82	79.4362	465.82	79.5751	465.82	79.2777	465.82	79.5134	465.82	79.2999	465.82	79.6084	465.82	79.4938	465.82	79.8201	465.82	79.7915	465.82	80.0778	465.82	80.1004	465.82	80.3064	465.82	80.3401	465.82	80.4463	465.82	80.4611
483.398	83.7328	483.398	83.6917	483.398	83.6809	483.398	83.5579	483.398	83.5299	483.398	83.3264	483.398	83.2697	483.398	82.9868	483.398	82.8956	483.398	82.523	483.398	82.4147	483.398	81.9231	483.398	81.8448	483.398	81.201	483.398	81.2072	483.398	80.4202	483.398	80.5321	483.398	79.6974	483.398	79.8835	483.398	79.1705	483.398	79.3781	483.398	78.9389	483.398	79.141	483.398	79.0138	483.398	79.2072	483.398	79.3182	483.398	79.49	483.398	79.7324	483.398	79.8618	483.398	80.1466	483.398	80.2279	483.398	80.4871	483.398	80.531	483.398	80.7109	483.398	80.73	483.398	80.7943
499.512	83.455	499.512	83.3502	499.512	83.4402	499.512	83.1384	499.512	83.3074	499.512	82.8359	499.512	83.073	499.512	82.4544	499.512	82.7552	499.512	82.0006	499.512	82.3589	499.512	81.4804	499.512	81.8748	499.512	80.9065	499.512	81.2959	499.512	80.3089	499.512	80.6378	499.512	79.7444	499.512	79.9474	499.512	79.2903	499.512	79.3027	499.512	79.0229	499.512	78.8134	499.512	78.9856	499.512	78.6009	499.512	79.1646	499.512	78.7212	499.512	79.485	499.512	79.093	499.512	79.839	499.512	79.5477	499.512	80.1302	499.512	79.943	499.512	80.3008	499.512	80.2095	499.512	80.3288
517.09	83.7607	517.09	83.6388	517.09	83.7871	517.09	83.4369	517.09	83.686	517.09	83.1361	517.09	83.4404	517.09	82.7009	517.09	83.0622	517.09	82.118	517.09	82.5841	517.09	81.42	517.09	82.0409	517.09	80.6735	517.09	81.4554	517.09	79.944	517.09	80.8388	517.09	79.2717	517.09	80.2055	517.09	78.6928	517.09	79.5939	517.09	78.2814	517.09	79.0748	517.09	78.1384	517.09	78.7337	517.09	78.3082	517.09	78.6372	517.09	78.7235	517.09	78.8035	517.09	79.2477	517.09	79.1789	517.09	79.7374	517.09	79.6336	517.09	80.0725	517.09	80.0064	517.09	80.1702
536.133	82.9064	536.133	82.8976	536.133	82.7973	536.133	82.7599	536.133	82.6046	536.133	82.5134	536.133	82.3539	536.133	82.1878	536.133	82.0389	536.133	81.7954	536.133	81.6311	536.133	81.3187	536.133	81.1087	536.133	80.7222	536.133	80.4771	536.133	79.9851	536.133	79.7787	536.133	79.1438	536.133	79.1008	536.133	78.3298	536.133	78.5649	536.133	77.7604	536.133	78.2717	536.133	77.6152	536.133	78.2405	536.133	77.8629	536.133	78.423	536.133	78.2964	536.133	78.7496	536.133	78.7354	536.133	79.1298	536.133	79.1095	536.133	79.4498	536.133	79.4032	536.133	79.6135	536.133	79.588
555.176	83.1865	555.176	83.0741	555.176	83.1883	555.176	82.8687	555.176	83.0971	555.176	82.6125	555.176	82.9306	555.176	82.3211	555.176	82.6762	555.176	81.9513	555.176	82.3014	555.176	81.4407	555.176	81.7885	555.176	80.7846	555.176	81.1488	555.176	80.0703	555.176	80.4044	555.176	79.4181	555.176	79.5775	555.176	78.8812	555.176	78.7345	555.176	78.4473	555.176	78.0516	555.176	78.1567	555.176	77.7433	555.176	78.1493	555.176	77.8317	555.176	78.5073	555.176	78.1536	555.176	79.1038	555.176	78.6039	555.176	79.6866	555.176	79.1515	555.176	80.0336	555.176	79.6884	555.176	80.0289
574.219	83.1758	574.219	83.1635	574.219	83.1122	574.219	83.044	574.219	82.9799	574.219	82.7839	574.219	82.7862	574.219	82.3999	574.219	82.5423	574.219	81.9583	574.219	82.2344	574.219	81.4915	574.219	81.8376	574.219	80.9436	574.219	81.3601	574.219	80.2469	574.219	80.8351	574.219	79.4527	574.219	80.276	574.219	78.7484	574.219	79.6815	574.219	78.2982	574.219	79.1129	574.219	78.1437	574.219	78.7346	574.219	78.3266	574.219	78.7027	574.219	78.8745	574.219	79.016	574.219	79.6257	574.219	79.5359	574.219	80.3026	574.219	80.0961	574.219	80.7089	574.219	80.5505	574.219	80.7819
594.727	83.6687	594.727	83.528	594.727	83.6591	594.727	83.285	594.727	83.451	594.727	82.9492	594.727	83.049	594.727	82.4961	594.727	82.5236	594.727	81.9109	594.727	81.9531	594.727	81.2315	594.727	81.3572	594.727	80.5351	594.727	80.712	594.727	79.8546	594.727	80.0121	594.727	79.1368	594.727	79.2689	594.727	78.3445	594.727	78.4709	594.727	77.5772	594.727	77.6538	594.727	77.0373	594.727	77.0467	594.727	76.8908	594.727	76.9558	594.727	77.1806	594.727	77.337	594.727	77.7618	594.727	77.8684	594.727	78.3541	594.727	78.3421	594.727	78.7368	594.727	78.6843	594.727	78.8373
615.234	83.8713	615.234	83.8928	615.234	83.7224	615.234	83.7332	615.234	83.5077	615.234	83.4001	615.234	83.2228	615.234	82.9439	615.234	82.8091	615.234	82.4082	615.234	82.2373	615.234	81.7928	615.234	81.5406	615.234	81.0501	615.234	80.7626	615.234	80.1331	615.234	79.9186	615.234	79.0687	615.234	79.0338	615.234	77.9966	615.234	78.2097	615.234	77.1396	615.234	77.5987	615.234	76.6545	615.234	77.2586	615.234	76.483	615.234	77.1192	615.234	76.4802	615.234	77.1459	615.234	76.5949	615.234	77.3617	615.234	76.8332	615.234	77.6431	615.234	77.1828	615.234	77.7401	615.234	77.5468
637.207	84.0799	637.207	83.9521	637.207	84.0661	637.207	83.6921	637.207	83.9084	637.207	83.325	637.207	83.5911	637.207	82.8676	637.207	83.0875	637.207	82.3043	637.207	82.4047	637.207	81.6265	637.207	81.6264	637.207	80.9156	637.207	80.877	637.207	80.3181	637.207	80.2076	637.207	79.8364	637.207	79.542	637.207	79.2582	637.207	78.7974	637.207	78.4693	637.207	78.0494	637.207	77.7494	637.207	77.5003	637.207	77.5489	637.207	77.2633	637.207	77.8811	637.207	77.307	637.207	78.411	637.207	77.5833	637.207	78.874	637.207	78.0429	637.207	79.0936	637.207	78.5685	637.207	78.9752
659.18	83.6161	659.18	83.5103	659.18	83.5692	659.18	83.2469	659.18	83.3913	659.18	82.8607	659.18	83.0977	659.18	82.39	659.18	82.6974	659.18	81.8127	659.18	82.1886	659.18	81.079	659.18	81.5532	659.18	80.2339	659.18	80.7887	659.18	79.4426	659.18	79.9494	659.18	78.8097	659.18	79.1142	659.18	78.2753	659.18	78.3175	659.18	77.8387	659.18	77.5975	659.18	77.6851	659.18	77.1201	659.18	77.8841	659.18	77.0734	659.18	78.2188	659.18	77.4209	659.18	78.4876	659.18	77.9515	659.18	78.6789	659.18	78.4471	659.18	78.8185	659.18	78.7632	659.18	78.8694
682.617	83.7677	682.617	83.7054	682.617	83.6378	682.617	83.4697	682.617	83.3641	682.617	83.1036	682.617	82.988	682.617	82.5812	682.617	82.4922	682.617	81.8445	682.617	81.8528	682.617	80.9189	682.617	81.0751	682.617	79.8775	682.617	80.1511	682.617	78.7215	682.617	79.0857	682.617	77.4989	682.617	78.0578	682.617	76.5033	682.617	77.3995	682.617	76.04	682.617	77.1297	682.617	76.1217	682.617	76.9973	682.617	76.6058	682.617	77.001	682.617	77.2204	682.617	77.2743	682.617	77.7574	682.617	77.7873	682.617	78.2674	682.617	78.3935	682.617	78.7663	682.617	78.8855	682.617	79.0342
707.52	83.9907	707.52	83.9412	707.52	83.9109	707.52	83.6856	707.52	83.7141	707.52	83.2382	707.52	83.3668	707.52	82.7475	707.52	82.8751	707.52	82.2915	707.52	82.2368	707.52	81.7474	707.52	81.4193	707.52	80.9575	707.52	80.4741	707.52	79.9617	707.52	79.4876	707.52	78.8879	707.52	78.3154	707.52	77.6176	707.52	76.6811	707.52	76.0023	707.52	74.7968	707.52	74.6272	707.52	73.7478	707.52	74.6667	707.52	74.1188	707.52	75.7877	707.52	75.1676	707.52	76.9703	707.52	76.268	707.52	77.8595	707.52	77.2539	707.52	78.4008	707.52	78.0619	707.52	78.4931
732.422	84.9423	732.422	84.7696	732.422	84.9227	732.422	84.4518	732.422	84.74	732.422	84.0488	732.422	84.457	732.422	83.5374	732.422	84.0983	732.422	82.8534	732.422	83.614	732.422	82.0016	732.422	82.9146	732.422	81.0306	732.422	81.9615	732.422	79.9583	732.422	80.7974	732.422	78.7984	732.422	79.5387	732.422	77.5781	732.422	78.3908	732.422	76.4485	732.422	77.4718	732.422	75.8787	732.422	76.7445	732.422	76.2018	732.422	76.4552	732.422	77.0561	732.422	76.9475	732.422	78.0005	732.422	77.7876	732.422	78.8292	732.422	78.4531	732.422	79.3342	732.422	78.9704	732.422	79.3462
757.324	85.8899	757.324	85.7141	757.324	85.8681	757.324	85.4571	757.324	85.6366	757.324	85.159	757.324	85.2919	757.324	84.7205	757.324	84.8783	757.324	84.1051	757.324	84.3936	757.324	83.4187	757.324	83.9254	757.324	82.6521	757.324	83.4728	757.324	81.6332	757.324	82.7896	757.324	80.3255	757.324	81.7479	757.324	78.949	757.324	80.5939	757.324	77.6643	757.324	79.3678	757.324	76.673	757.324	77.7744	757.324	76.6727	757.324	76.6665	757.324	77.6537	757.324	77.3587	757.324	78.8521	757.324	78.7122	757.324	79.7917	757.324	79.7273	757.324	80.3349	757.324	80.3137	757.324	80.5083
785.156	84.9561	785.156	85.023	785.156	84.8109	785.156	84.846	785.156	84.6485	785.156	84.4702	785.156	84.4312	785.156	84.046	785.156	84.159	785.156	83.5351	785.156	83.7623	785.156	82.8936	785.156	83.2048	785.156	82.0074	785.156	82.6521	785.156	80.6791	785.156	82.0963	785.156	79.1972	785.156	81.1979	785.156	77.9453	785.156	79.9389	785.156	76.3303	785.156	78.9007	785.156	74.4614	785.156	78.1477	785.156	74.8256	785.156	77.0542	785.156	76.3751	785.156	76.2792	785.156	77.139	785.156	77.0022	785.156	77.438	785.156	78.0908	785.156	77.9476	785.156	78.6358	785.156	78.5295
811.523	84.5409	811.523	84.1973	811.523	84.7933	811.523	83.7198	811.523	84.8587	811.523	83.0775	811.523	84.5605	811.523	82.4216	811.523	83.8716	811.523	81.8772	811.523	83.0834	811.523	81.4235	811.523	82.4193	811.523	80.9139	811.523	81.7246	811.523	79.9857	811.523	80.8382	811.523	78.7413	811.523	79.7369	811.523	77.677	811.523	78.4532	811.523	76.4133	811.523	76.8617	811.523	75.1747	811.523	74.9145	811.523	75.3469	811.523	74.102	811.523	76.4628	811.523	75.0871	811.523	77.6261	811.523	75.7858	811.523	78.6087	811.523	76.4583	811.523	79.2245	811.523	77.9339	811.523	79.0797
840.82	84.8659	840.82	84.8342	840.82	84.6207	840.82	84.666	840.82	84.0573	840.82	84.5968	840.82	83.2165	840.82	84.5608	840.82	82.2426	840.82	84.3341	840.82	81.2527	840.82	83.8924	840.82	80.2403	840.82	83.1705	840.82	79.1316	840.82	81.9751	840.82	78.0162	840.82	80.4405	840.82	76.6434	840.82	78.7756	840.82	74.1347	840.82	76.1668	840.82	70.0674	840.82	72.3152	840.82	64.5304	840.82	73.1056	840.82	63.0781	840.82	75.987	840.82	69.5028	840.82	77.5204	840.82	73.2853	840.82	78.1733	840.82	75.239	840.82	78.0419	840.82	76.42	840.82	77.3489
870.117	84.4806	870.117	84.3968	870.117	84.4889	870.117	84.0767	870.117	84.4044	870.117	83.5558	870.117	84.0285	870.117	82.9359	870.117	83.2582	870.117	81.8967	870.117	82.319	870.117	80.7649	870.117	81.5274	870.117	80.6469	870.117	80.9336	870.117	80.7675	870.117	80.5725	870.117	79.7747	870.117	80.2339	870.117	78.4071	870.117	79.5029	870.117	78.0402	870.117	78.7109	870.117	77.6145	870.117	78.0027	870.117	77.5563	870.117	77.0751	870.117	78.2684	870.117	76.9944	870.117	78.5068	870.117	77.3517	870.117	78.5471	870.117	77.6198	870.117	79.1303	870.117	78.8353	870.117	79.5507
900.879	84.7833	900.879	84.5963	900.879	84.905	900.879	84.2972	900.879	84.9118	900.879	83.8472	900.879	84.741	900.879	83.5026	900.879	84.377	900.879	83.3355	900.879	83.94	900.879	82.8138	900.879	83.5812	900.879	81.7887	900.879	83.2377	900.879	80.5186	900.879	82.8765	900.879	78.7531	900.879	82.2884	900.879	76.529	900.879	80.97	900.879	73.7742	900.879	78.9618	900.879	68.578	900.879	76.2745	900.879	60.4605	900.879	71.6411	900.879	67.7331	900.879	69.424	900.879	72.4964	900.879	72.5585	900.879	76.0253	900.879	74.1602	900.879	77.789	900.879	75.9088	900.879	77.5159
933.105	84.9011	933.105	84.651	933.105	85.0723	933.105	84.1968	933.105	85.0083	933.105	83.8042	933.105	84.5256	933.105	83.6892	933.105	83.8972	933.105	83.3579	933.105	83.5253	933.105	82.9264	933.105	83.2815	933.105	82.7535	933.105	82.8551	933.105	82.5784	933.105	82.3643	933.105	82.1075	933.105	81.7563	933.105	81.2501	933.105	80.5221	933.105	79.9834	933.105	78.6427	933.105	78.4036	933.105	76.1271	933.105	76.9538	933.105	72.3832	933.105	76.9653	933.105	71.1216	933.105	77.7537	933.105	72.9205	933.105	77.9931	933.105	74.2634	933.105	78.2246	933.105	76.6074	933.105	78.1227
965.332	86.2319	965.332	86.0751	965.332	86.4635	965.332	85.877	965.332	86.4402	965.332	84.9801	965.332	86.1369	965.332	83.9404	965.332	85.5787	965.332	83.4367	965.332	85.0458	965.332	82.8363	965.332	84.7207	965.332	82.429	965.332	84.2864	965.332	82.3877	965.332	83.7472	965.332	81.9615	965.332	83.3189	965.332	81.1494	965.332	82.74	965.332	80.1821	965.332	81.8733	965.332	78.5546	965.332	80.7732	965.332	76.4306	965.332	78.4145	965.332	74.633	965.332	74.7861	965.332	72.9906	965.332	74.7932	965.332	74.0118	965.332	75.8678	965.332	76.5037	965.332	76.8217	965.332	77.476
1,000.49	86.1784	1,000.49	86.1742	1,000.49	86.1512	1,000.49	86.0151	1,000.49	86.0854	1,000.49	85.6866	1,000.49	85.9073	1,000.49	85.196	1,000.49	85.4201	1,000.49	84.3574	1,000.49	84.5863	1,000.49	83.9701	1,000.49	83.5008	1,000.49	84.4867	1,000.49	82.2325	1,000.49	84.4776	1,000.49	81.7751	1,000.49	83.8107	1,000.49	81.7147	1,000.49	83.3863	1,000.49	80.6285	1,000.49	82.3917	1,000.49	79.5499	1,000.49	80.96	1,000.49	78.3864	1,000.49	80.7685	1,000.49	75.4921	1,000.49	81.3702	1,000.49	74.4041	1,000.49	82.1192	1,000.49	75.9912	1,000.49	82.2333	1,000.49	77.7597	1,000.49	82.1524	1,000.49	80.8773	1,000.49	82.2823
1,035.64	84.6316	1,035.64	84.0269	1,035.64	85.4424	1,035.64	83.2715	1,035.64	85.9977	1,035.64	81.6709	1,035.64	85.9461	1,035.64	79.9585	1,035.64	85.3573	1,035.64	79.2628	1,035.64	84.736	1,035.64	78.066	1,035.64	84.5388	1,035.64	77.4314	1,035.64	83.9706	1,035.64	78.6648	1,035.64	83.0028	1,035.64	78.6283	1,035.64	83.0378	1,035.64	78.177	1,035.64	82.6888	1,035.64	77.5898	1,035.64	81.6371	1,035.64	74.0761	1,035.64	81.4827	1,035.64	72.7216	1,035.64	79.7831	1,035.64	76.2859	1,035.64	75.8486	1,035.64	78.354	1,035.64	75.5648	1,035.64	79.65	1,035.64	77.0875	1,035.64	80.7269	1,035.64	79.2581	1,035.64	80.927
1,072.27	85.1901	1,072.27	84.9681	1,072.27	85.3132	1,072.27	84.7959	1,072.27	84.9509	1,072.27	83.7245	1,072.27	84.533	1,072.27	82.0218	1,072.27	84.0904	1,072.27	81.0782	1,072.27	83.5151	1,072.27	80.8876	1,072.27	83.0606	1,072.27	80.9146	1,072.27	82.4685	1,072.27	81.2449	1,072.27	81.9891	1,072.27	81.3761	1,072.27	82.2676	1,072.27	81.032	1,072.27	82.1951	1,072.27	80.1886	1,072.27	81.4812	1,072.27	78.4291	1,072.27	80.7414	1,072.27	77.074	1,072.27	79.027	1,072.27	77.3086	1,072.27	77.6269	1,072.27	78.3887	1,072.27	78.5572	1,072.27	80.0702	1,072.27	79.7546	1,072.27	81.2266	1,072.27	81.292	1,072.27	81.8004
1,108.89	85.1145	1,108.89	84.9805	1,108.89	84.8769	1,108.89	84.1259	1,108.89	84.6951	1,108.89	82.9877	1,108.89	84.1347	1,108.89	81.5235	1,108.89	82.9436	1,108.89	79.4324	1,108.89	81.5541	1,108.89	76.5136	1,108.89	81.4112	1,108.89	72.5789	1,108.89	81.7477	1,108.89	71.0622	1,108.89	80.6475	1,108.89	71.7187	1,108.89	80.0407	1,108.89	72.083	1,108.89	80.0223	1,108.89	74.2119	1,108.89	79.4452	1,108.89	72.7106	1,108.89	79.399	1,108.89	69.6967	1,108.89	78.2827	1,108.89	74.0624	1,108.89	76.4225	1,108.89	76.5856	1,108.89	76.5049	1,108.89	78.9257	1,108.89	78.1398	1,108.89	80.7469	1,108.89	80.1963	1,108.89	81.3245
1,148.44	84.4729	1,148.44	84.4848	1,148.44	84.4359	1,148.44	84.0897	1,148.44	84.0983	1,148.44	83.082	1,148.44	83.2077	1,148.44	82.1257	1,148.44	82.3546	1,148.44	81.1406	1,148.44	81.8355	1,148.44	79.2637	1,148.44	81.3422	1,148.44	77.2569	1,148.44	81.114	1,148.44	76.0733	1,148.44	80.5889	1,148.44	77.1312	1,148.44	80.2012	1,148.44	77.7238	1,148.44	80.4378	1,148.44	77.2049	1,148.44	79.7486	1,148.44	75.0569	1,148.44	78.8806	1,148.44	71.973	1,148.44	77.0043	1,148.44	75.8688	1,148.44	75.0913	1,148.44	76.9272	1,148.44	76.6303	1,148.44	78.9763	1,148.44	78.5508	1,148.44	80.5735	1,148.44	80.3287	1,148.44	80.7169
1,189.45	86.2743	1,189.45	86.136	1,189.45	85.6417	1,189.45	85.5123	1,189.45	84.5885	1,189.45	84.9021	1,189.45	83.5146	1,189.45	84.0449	1,189.45	82.9147	1,189.45	82.8218	1,189.45	81.6558	1,189.45	81.5654	1,189.45	79.7319	1,189.45	80.6514	1,189.45	78.7854	1,189.45	79.2622	1,189.45	77.4017	1,189.45	77.3112	1,189.45	75.8132	1,189.45	75.69	1,189.45	72.4493	1,189.45	73.6103	1,189.45	69.5444	1,189.45	72.3803	1,189.45	71.7416	1,189.45	61.2609	1,189.45	71.7111	1,189.45	69.1889	1,189.45	73.3326	1,189.45	73.2701	1,189.45	74.7807	1,189.45	76.4503	1,189.45	77.2477	1,189.45	78.8032	1,189.45	79.557	1,189.45	79.9762
1,230.47	85.606	1,230.47	86.0941	1,230.47	84.9062	1,230.47	85.3967	1,230.47	84.4173	1,230.47	84.234	1,230.47	83.9151	1,230.47	82.8494	1,230.47	82.7015	1,230.47	80.9311	1,230.47	80.6195	1,230.47	79.1822	1,230.47	79.3564	1,230.47	77.5068	1,230.47	78.9158	1,230.47	78.1649	1,230.47	78.7564	1,230.47	78.7625	1,230.47	77.9451	1,230.47	78.6639	1,230.47	78.5014	1,230.47	77.9023	1,230.47	78.1425	1,230.47	75.395	1,230.47	75.1807	1,230.47	68.8563	1,230.47	71.6687	1,230.47	58.7157	1,230.47	70.9444	1,230.47	70.9931	1,230.47	73.9479	1,230.47	75.0897	1,230.47	76.6033	1,230.47	78.2217	1,230.47	78.7545	1,230.47	79.4335
1,274.41	87.0202	1,274.41	86.487	1,274.41	87.0002	1,274.41	85.9238	1,274.41	86.3555	1,274.41	85.1019	1,274.41	85.7733	1,274.41	83.7376	1,274.41	84.8909	1,274.41	81.7702	1,274.41	83.022	1,274.41	80.9537	1,274.41	80.5071	1,274.41	79.907	1,274.41	78.998	1,274.41	78.3547	1,274.41	78.1512	1,274.41	77.3722	1,274.41	76.9846	1,274.41	77.6398	1,274.41	76.691	1,274.41	77.5671	1,274.41	76.3428	1,274.41	75.6182	1,274.41	74.1127	1,274.41	73.4578	1,274.41	71.6852	1,274.41	67.2461	1,274.41	64.893	1,274.41	65.1734	1,274.41	70.5269	1,274.41	71.4178	1,274.41	74.6328	1,274.41	74.2625	1,274.41	76.4266	1,274.41	76.4058
1,319.82	87.0752	1,319.82	86.9001	1,319.82	86.5652	1,319.82	86.5032	1,319.82	85.8803	1,319.82	85.7731	1,319.82	85.2965	1,319.82	84.5584	1,319.82	83.8048	1,319.82	83.012	1,319.82	81.5477	1,319.82	81.644	1,319.82	79.4689	1,319.82	80.4106	1,319.82	77.7682	1,319.82	77.037	1,319.82	75.5659	1,319.82	75.3216	1,319.82	74.0067	1,319.82	76.0952	1,319.82	74.2671	1,319.82	76.9284	1,319.82	73.3075	1,319.82	76.3248	1,319.82	72.3538	1,319.82	72.8186	1,319.82	67.4592	1,319.82	65.1904	1,319.82	65.3938	1,319.82	68.6832	1,319.82	73.244	1,319.82	75.6498	1,319.82	78.0675	1,319.82	79.0253	1,319.82	79.7544	1,319.82	80.191
1,366.7	87.0544	1,366.7	86.6323	1,366.7	86.9883	1,366.7	85.7935	1,366.7	86.5988	1,366.7	85.0889	1,366.7	85.6433	1,366.7	83.9344	1,366.7	84.1915	1,366.7	82.1438	1,366.7	82.5583	1,366.7	81.2512	1,366.7	80.7989	1,366.7	80.5343	1,366.7	78.9426	1,366.7	79.7687	1,366.7	77.4037	1,366.7	79.6958	1,366.7	77.3439	1,366.7	79.4209	1,366.7	78.2859	1,366.7	78.6732	1,366.7	78.2936	1,366.7	77.2734	1,366.7	76.8345	1,366.7	75.4855	1,366.7	73.2458	1,366.7	69.7513	1,366.7	62.5273	1,366.7	68.2001	1,366.7	68.3755	1,366.7	75.1364	1,366.7	75.9268	1,366.7	77.3955	1,366.7	78.9093	1,366.7	79.2331
1,413.57	85.9941	1,413.57	85.5056	1,413.57	86.0633	1,413.57	84.9695	1,413.57	86.0557	1,413.57	84.6154	1,413.57	85.0802	1,413.57	83.6005	1,413.57	83.7737	1,413.57	82.0903	1,413.57	82.421	1,413.57	80.7718	1,413.57	80.8635	1,413.57	79.5929	1,413.57	78.85	1,413.57	79.0625	1,413.57	77.5	1,413.57	79.0859	1,413.57	77.9099	1,413.57	79.8524	1,413.57	78.847	1,413.57	80.3489	1,413.57	79.3962	1,413.57	79.2279	1,413.57	78.9885	1,413.57	76.4759	1,413.57	76.9873	1,413.57	71.6801	1,413.57	71.5774	1,413.57	63.9001	1,413.57	52.9663	1,413.57	71.5712	1,413.57	71.8866	1,413.57	74.1937	1,413.57	76.4974	1,413.57	75.8794
1,463.38	85.2462	1,463.38	85.1594	1,463.38	85.3136	1,463.38	85.2098	1,463.38	85.5228	1,463.38	84.935	1,463.38	85.0022	1,463.38	84.2432	1,463.38	84.2182	1,463.38	82.433	1,463.38	83.2524	1,463.38	80.435	1,463.38	81.4395	1,463.38	77.7847	1,463.38	80.1488	1,463.38	75.1705	1,463.38	78.5	1,463.38	74.8269	1,463.38	76.9169	1,463.38	76.6214	1,463.38	75.6193	1,463.38	77.3677	1,463.38	76.9621	1,463.38	75.5181	1,463.38	77.0434	1,463.38	73.4584	1,463.38	74.9349	1,463.38	66.9762	1,463.38	68.9151	1,463.38	57.4944	1,463.38	53.4807	1,463.38	69.1808	1,463.38	68.8373	1,463.38	72.0598	1,463.38	74.6983	1,463.38	75.1126
1,516.11	84.3698	1,516.11	84.1763	1,516.11	84.2894	1,516.11	83.7251	1,516.11	83.7903	1,516.11	83.2212	1,516.11	83.6109	1,516.11	82.445	1,516.11	82.8721	1,516.11	80.9953	1,516.11	82.0878	1,516.11	79.0625	1,516.11	81.0243	1,516.11	74.4173	1,516.11	80.235	1,516.11	69.6348	1,516.11	77.7259	1,516.11	70.3413	1,516.11	75.3906	1,516.11	72.9207	1,516.11	74.9814	1,516.11	73.5791	1,516.11	76.3978	1,516.11	72.4572	1,516.11	76.0951	1,516.11	72.9848	1,516.11	75.2182	1,516.11	69.51	1,516.11	71.9373	1,516.11	58.8594	1,516.11	62.7209	1,516.11	62.0675	1,516.11	43.251	1,516.11	69.067	1,516.11	68.1702	1,516.11	69.5809
1,568.85	83.8857	1,568.85	83.9315	1,568.85	84.3555	1,568.85	82.9507	1,568.85	83.6583	1,568.85	82.0203	1,568.85	83.0713	1,568.85	81.0707	1,568.85	82.295	1,568.85	80.0305	1,568.85	81.8494	1,568.85	78.6787	1,568.85	81.176	1,568.85	76.1685	1,568.85	79.9483	1,568.85	71.1928	1,568.85	76.5002	1,568.85	66.3074	1,568.85	73.9915	1,568.85	69.9034	1,568.85	73.7042	1,568.85	72.7778	1,568.85	74.3288	1,568.85	73.3453	1,568.85	75.4235	1,568.85	74.2772	1,568.85	75.3634	1,568.85	70.1859	1,568.85	74.1388	1,568.85	63.9009	1,568.85	68.8927	1,568.85	64.737	1,568.85	57.4857	1,568.85	68.3294	1,568.85	63.8721	1,568.85	69.8073
1,624.51	84.012	1,624.51	83.5958	1,624.51	83.9465	1,624.51	82.8451	1,624.51	83.6546	1,624.51	81.8208	1,624.51	82.475	1,624.51	80.8015	1,624.51	81.7732	1,624.51	79.1155	1,624.51	81.4965	1,624.51	77.8447	1,624.51	80.7027	1,624.51	75.2015	1,624.51	79.0908	1,624.51	71.9108	1,624.51	77.2411	1,624.51	65.9825	1,624.51	73.8634	1,624.51	68.5266	1,624.51	72.1781	1,624.51	70.2671	1,624.51	71.0039	1,624.51	71.3361	1,624.51	73.7128	1,624.51	72.5496	1,624.51	74.4006	1,624.51	71.1396	1,624.51	73.4951	1,624.51	65.6402	1,624.51	69.2575	1,624.51	62.1182	1,624.51	63.0914	1,624.51	67.3091	1,624.51	63.4751	1,624.51	68.687
1,681.64	85.3749	1,681.64	84.7146	1,681.64	84.9202	1,681.64	83.7761	1,681.64	84.2504	1,681.64	82.7153	1,681.64	83.3664	1,681.64	81.5629	1,681.64	81.849	1,681.64	80.6111	1,681.64	80.7135	1,681.64	78.9105	1,681.64	79.9987	1,681.64	76.3293	1,681.64	78.304	1,681.64	74.4473	1,681.64	76.8518	1,681.64	70.0052	1,681.64	74.464	1,681.64	69.0239	1,681.64	73.2982	1,681.64	70.0395	1,681.64	73.7764	1,681.64	72.3832	1,681.64	74.9768	1,681.64	72.7958	1,681.64	73.8614	1,681.64	73.1365	1,681.64	73.3693	1,681.64	67.6597	1,681.64	69.6807	1,681.64	63.9912	1,681.64	64.2937	1,681.64	66.2476	1,681.64	67.2857	1,681.64	68.0176
1,741.7	86.4273	1,741.7	86.3424	1,741.7	86.1321	1,741.7	85.8488	1,741.7	85.6589	1,741.7	84.6765	1,741.7	84.4518	1,741.7	83.3729	1,741.7	83.066	1,741.7	81.9446	1,741.7	81.9953	1,741.7	80.2372	1,741.7	80.4346	1,741.7	78.1047	1,741.7	78.6681	1,741.7	75.8989	1,741.7	75.9518	1,741.7	72.4521	1,741.7	73.6499	1,741.7	69.3787	1,741.7	71.6712	1,741.7	72.0167	1,741.7	75.161	1,741.7	72.0908	1,741.7	76.5631	1,741.7	72.5982	1,741.7	75.9568	1,741.7	72.5808	1,741.7	75.574	1,741.7	71.5023	1,741.7	71.6447	1,741.7	65.0086	1,741.7	67.7768	1,741.7	67.2063	1,741.7	65.8522	1,741.7	67.7468
1,803.22	86.4826	1,803.22	86.4839	1,803.22	86.7819	1,803.22	86.1569	1,803.22	85.6916	1,803.22	84.2123	1,803.22	84.5751	1,803.22	82.9467	1,803.22	82.8264	1,803.22	82.4285	1,803.22	82.0225	1,803.22	79.9959	1,803.22	80.6856	1,803.22	78.4826	1,803.22	78.4891	1,803.22	76.793	1,803.22	76.1562	1,803.22	74.9504	1,803.22	75.0914	1,803.22	72.9472	1,803.22	71.3695	1,803.22	72.524	1,803.22	74.6886	1,803.22	73.6933	1,803.22	74.0138	1,803.22	75.3114	1,803.22	76.2003	1,803.22	75.5773	1,803.22	75.5676	1,803.22	72.4171	1,803.22	74.0463	1,803.22	67.1627	1,803.22	66.1675	1,803.22	69.0484	1,803.22	62.8751	1,803.22	67.2106
1,866.21	86.6034	1,866.21	86.5578	1,866.21	86.1438	1,866.21	85.6686	1,866.21	85.5719	1,866.21	84.2894	1,866.21	83.9123	1,866.21	82.8578	1,866.21	82.5277	1,866.21	81.0322	1,866.21	80.7175	1,866.21	80.2466	1,866.21	78.7569	1,866.21	78.349	1,866.21	78.6429	1,866.21	77.9729	1,866.21	77.1074	1,866.21	76.8121	1,866.21	75.0815	1,866.21	74.8816	1,866.21	73.374	1,866.21	72.2437	1,866.21	70.148	1,866.21	73.0652	1,866.21	71.6364	1,866.21	75.3577	1,866.21	73.9465	1,866.21	75.0525	1,866.21	75.3044	1,866.21	73.401	1,866.21	74.4223	1,866.21	68.2818	1,866.21	70.2599	1,866.21	67.4373	1,866.21	68.5886	1,866.21	67.3206
1,932.13	86.0721	1,932.13	85.2753	1,932.13	85.8965	1,932.13	84.5583	1,932.13	85.0298	1,932.13	83.6365	1,932.13	83.6344	1,932.13	82.2373	1,932.13	82.7443	1,932.13	80.3638	1,932.13	80.3744	1,932.13	77.9988	1,932.13	78.8024	1,932.13	77.3284	1,932.13	77.2814	1,932.13	76.2208	1,932.13	76.5239	1,932.13	74.5773	1,932.13	76.3587	1,932.13	72.6781	1,932.13	75.1471	1,932.13	70.9791	1,932.13	73.4436	1,932.13	72.0894	1,932.13	72.7071	1,932.13	73.4891	1,932.13	75.4544	1,932.13	74.0198	1,932.13	75.5219	1,932.13	73.0737	1,932.13	74.0418	1,932.13	71.641	1,932.13	70.3698	1,932.13	69.7661	1,932.13	68.0248	1,932.13	68.5794
1,999.51	86.2382	1,999.51	85.761	1,999.51	86.1072	1,999.51	85.0312	1,999.51	85.5076	1,999.51	83.6509	1,999.51	84.5684	1,999.51	82.245	1,999.51	83.2369	1,999.51	80.7111	1,999.51	81.6862	1,999.51	78.4861	1,999.51	80.0394	1,999.51	77.0233	1,999.51	78.4316	1,999.51	76.2652	1,999.51	77.1093	1,999.51	75.095	1,999.51	76.1689	1,999.51	73.8658	1,999.51	75.195	1,999.51	71.3607	1,999.51	73.3092	1,999.51	69.7476	1,999.51	71.2992	1,999.51	71.391	1,999.51	71.7513	1,999.51	72.2831	1,999.51	72.5134	1,999.51	71.7101	1,999.51	72.2925	1,999.51	71.9865	1,999.51	71.9496	1,999.51	71.0155	1,999.51	71.751	1,999.51	71.4797
2,069.82	87.0155	2,069.82	86.679	2,069.82	86.7872	2,069.82	85.7182	2,069.82	86.1182	2,069.82	84.624	2,069.82	85.0912	2,069.82	83.2262	2,069.82	83.7828	2,069.82	81.3774	2,069.82	82.222	2,069.82	79.7375	2,069.82	80.6847	2,069.82	77.7421	2,069.82	79.0936	2,069.82	76.0241	2,069.82	77.9625	2,069.82	75.229	2,069.82	76.226	2,069.82	74.0891	2,069.82	75.3547	2,069.82	72.5559	2,069.82	73.3926	2,069.82	70.954	2,069.82	72.9866	2,069.82	70.9859	2,069.82	73.0161	2,069.82	70.9766	2,069.82	72.2456	2,069.82	69.2734	2,069.82	72.0503	2,069.82	69.6421	2,069.82	71.5217	2,069.82	71.4336	2,069.82	72.3464	2,069.82	73.077
2,143.07	87.2419	2,143.07	87.0121	2,143.07	87.0988	2,143.07	86.3038	2,143.07	86.34	2,143.07	85.087	2,143.07	85.2839	2,143.07	83.8928	2,143.07	83.729	2,143.07	82.1567	2,143.07	82.2572	2,143.07	80.553	2,143.07	80.3904	2,143.07	78.6559	2,143.07	79.1243	2,143.07	77.1734	2,143.07	77.674	2,143.07	75.7904	2,143.07	75.9674	2,143.07	74.8759	2,143.07	74.966	2,143.07	73.6929	2,143.07	73.4772	2,143.07	72.8385	2,143.07	72.9687	2,143.07	72.0172	2,143.07	72.6741	2,143.07	71.1873	2,143.07	71.6522	2,143.07	70.9662	2,143.07	70.7953	2,143.07	70.5077	2,143.07	70.5337	2,143.07	72.6935	2,143.07	72.7137	2,143.07	73.4065
2,219.24	86.728	2,219.24	86.468	2,219.24	86.4015	2,219.24	85.6106	2,219.24	85.7232	2,219.24	84.8165	2,219.24	84.2277	2,219.24	83.4437	2,219.24	83.0275	2,219.24	81.8794	2,219.24	81.126	2,219.24	79.893	2,219.24	79.3925	2,219.24	78.5975	2,219.24	77.7179	2,219.24	76.03	2,219.24	76.1756	2,219.24	75.639	2,219.24	74.9982	2,219.24	74.8108	2,219.24	73.7377	2,219.24	73.5245	2,219.24	71.7591	2,219.24	72.7683	2,219.24	71.1911	2,219.24	73.0685	2,219.24	70.7596	2,219.24	71.5109	2,219.24	70.6094	2,219.24	69.9417	2,219.24	68.4503	2,219.24	70.7005	2,219.24	68.6174	2,219.24	72.1848	2,219.24	72.2968	2,219.24	72.4124
2,296.88	85.8278	2,296.88	85.4786	2,296.88	85.8642	2,296.88	84.7622	2,296.88	84.7495	2,296.88	83.3041	2,296.88	83.835	2,296.88	82.4669	2,296.88	82.1198	2,296.88	81.2612	2,296.88	80.7705	2,296.88	80.1947	2,296.88	79.1973	2,296.88	78.0324	2,296.88	77.22	2,296.88	77.5578	2,296.88	75.5297	2,296.88	75.1066	2,296.88	74.4098	2,296.88	74.4503	2,296.88	73.1335	2,296.88	73.5362	2,296.88	72.1885	2,296.88	71.9883	2,296.88	70.5627	2,296.88	72.1451	2,296.88	71.0225	2,296.88	71.6277	2,296.88	69.7941	2,296.88	70.0881	2,296.88	67.7628	2,296.88	69.9684	2,296.88	66.5907	2,296.88	73.1097	2,296.88	69.6319	2,296.88	73.8261
2,378.91	86.3257	2,378.91	85.9453	2,378.91	86.205	2,378.91	84.8172	2,378.91	85.6181	2,378.91	83.7291	2,378.91	84.3937	2,378.91	81.9382	2,378.91	83.0711	2,378.91	80.1128	2,378.91	81.6574	2,378.91	78.9265	2,378.91	80.0985	2,378.91	77.2611	2,378.91	78.1178	2,378.91	74.9652	2,378.91	76.6939	2,378.91	73.4479	2,378.91	74.7851	2,378.91	72.5498	2,378.91	73.3006	2,378.91	71.4607	2,378.91	73.2971	2,378.91	71.6891	2,378.91	73.6964	2,378.91	70.7101	2,378.91	72.6619	2,378.91	69.8421	2,378.91	72.6547	2,378.91	67.7381	2,378.91	68.955	2,378.91	68.7192	2,378.91	66.5719	2,378.91	71.4771	2,378.91	69.9171	2,378.91	72.4072
2,462.4	88.0753	2,462.4	87.678	2,462.4	87.9933	2,462.4	86.826	2,462.4	87.1733	2,462.4	85.3364	2,462.4	85.9282	2,462.4	83.4409	2,462.4	84.2741	2,462.4	81.885	2,462.4	82.6834	2,462.4	80.4591	2,462.4	81.139	2,462.4	78.6743	2,462.4	79.6007	2,462.4	76.7119	2,462.4	77.5698	2,462.4	74.1279	2,462.4	76.2961	2,462.4	72.3335	2,462.4	74.057	2,462.4	71.8258	2,462.4	73.2806	2,462.4	71.8784	2,462.4	74.2204	2,462.4	73.0294	2,462.4	74.4412	2,462.4	71.1535	2,462.4	74.5199	2,462.4	64.4647	2,462.4	70.069	2,462.4	65.5994	2,462.4	68.2226	2,462.4	70.6635	2,462.4	71.9399	2,462.4	72.1499
2,548.83	88.4489	2,548.83	88.1993	2,548.83	88.2687	2,548.83	87.3911	2,548.83	87.2884	2,548.83	86.1333	2,548.83	85.9711	2,548.83	84.2653	2,548.83	84.3279	2,548.83	83.1799	2,548.83	82.8592	2,548.83	81.3135	2,548.83	80.9301	2,548.83	80.231	2,548.83	79.4754	2,548.83	78.9397	2,548.83	78.4476	2,548.83	76.688	2,548.83	76.6852	2,548.83	74.4446	2,548.83	73.7667	2,548.83	72.433	2,548.83	71.9801	2,548.83	73.0453	2,548.83	72.2493	2,548.83	74.7806	2,548.83	75.3709	2,548.83	74.5219	2,548.83	75.5608	2,548.83	70.9537	2,548.83	71.0991	2,548.83	54.2837	2,548.83	57.0115	2,548.83	70.7882	2,548.83	70.752	2,548.83	72.4188
2,639.65	87.5164	2,639.65	87.6114	2,639.65	87.0997	2,639.65	86.5377	2,639.65	86.7676	2,639.65	85.8189	2,639.65	85.1012	2,639.65	84.056	2,639.65	83.857	2,639.65	82.25	2,639.65	82.0131	2,639.65	80.2862	2,639.65	80.3143	2,639.65	79.4305	2,639.65	78.429	2,639.65	76.4459	2,639.65	77.1294	2,639.65	77.0312	2,639.65	75.8332	2,639.65	73.9733	2,639.65	75.232	2,639.65	71.6641	2,639.65	71.85	2,639.65	71.975	2,639.65	67.1017	2,639.65	75.0289	2,639.65	72.6259	2,639.65	75.5201	2,639.65	74.471	2,639.65	71.4171	2,639.65	72.8919	2,639.65	63.4561	2,639.65	65.5124	2,639.65	66.2801	2,639.65	63.6836	2,639.65	69.1761
2,731.93	86.8454	2,731.93	86.344	2,731.93	86.4576	2,731.93	85.7244	2,731.93	85.7735	2,731.93	84.3014	2,731.93	84.5726	2,731.93	83.0919	2,731.93	83.2406	2,731.93	81.2218	2,731.93	81.3615	2,731.93	79.2688	2,731.93	80.1248	2,731.93	77.9061	2,731.93	78.7282	2,731.93	75.8777	2,731.93	76.5153	2,731.93	74.8036	2,731.93	75.3528	2,731.93	72.5048	2,731.93	74.8844	2,731.93	72.6727	2,731.93	73.0046	2,731.93	70.1716	2,731.93	69.1785	2,731.93	71.6962	2,731.93	70.9363	2,731.93	73.1228	2,731.93	72.7402	2,731.93	69.825	2,731.93	72.0401	2,731.93	62.9352	2,731.93	65.0594	2,731.93	64.955	2,731.93	60.6033	2,731.93	67.4238
2,828.61	86.7673	2,828.61	86.0872	2,828.61	86.7771	2,828.61	85.7934	2,828.61	85.6642	2,828.61	84.5866	2,828.61	84.9857	2,828.61	83.3955	2,828.61	83.7529	2,828.61	81.5742	2,828.61	82.1907	2,828.61	79.7531	2,828.61	80.2756	2,828.61	76.7418	2,828.61	78.586	2,828.61	76.7622	2,828.61	76.6868	2,828.61	73.2836	2,828.61	76.0642	2,828.61	74.0429	2,828.61	75.1526	2,828.61	72.1935	2,828.61	72.2763	2,828.61	69.6998	2,828.61	71.3841	2,828.61	70.9727	2,828.61	71.3197	2,828.61	73.1303	2,828.61	73.6483	2,828.61	72.973	2,828.61	72.7162	2,828.61	63.4074	2,828.61	66.9088	2,828.61	62.0119	2,828.61	57.3391	2,828.61	67.7595
2,928.22	87.1134	2,928.22	86.6916	2,928.22	87.2584	2,928.22	85.9985	2,928.22	86.3228	2,928.22	84.9429	2,928.22	85.576	2,928.22	83.7915	2,928.22	84.2952	2,928.22	82.897	2,928.22	83.0975	2,928.22	80.8912	2,928.22	81.036	2,928.22	78.1428	2,928.22	79.0615	2,928.22	77.6317	2,928.22	77.2996	2,928.22	74.4255	2,928.22	75.2769	2,928.22	74.5995	2,928.22	74.9144	2,928.22	73.0259	2,928.22	73.7205	2,928.22	67.1535	2,928.22	71.2402	2,928.22	68.6941	2,928.22	69.6601	2,928.22	74.1847	2,928.22	75.2409	2,928.22	75.0126	2,928.22	75.1453	2,928.22	70.6351	2,928.22	71.7704	2,928.22	65.5179	2,928.22	64.3762	2,928.22	61.57
3,030.76	87.4298	3,030.76	87.1834	3,030.76	87.3696	3,030.76	86.5061	3,030.76	86.8195	3,030.76	85.6729	3,030.76	85.9849	3,030.76	84.362	3,030.76	84.7258	3,030.76	83.0081	3,030.76	83.2991	3,030.76	81.3871	3,030.76	81.4511	3,030.76	79.6854	3,030.76	79.7486	3,030.76	78.3318	3,030.76	77.6463	3,030.76	74.8214	3,030.76	75.2385	3,030.76	74.3234	3,030.76	73.8936	3,030.76	73.549	3,030.76	75.3008	3,030.76	72.1168	3,030.76	72.4172	3,030.76	68.3568	3,030.76	69.3291	3,030.76	74.0364	3,030.76	72.9261	3,030.76	74.6743	3,030.76	74.7748	3,030.76	71.829	3,030.76	71.3119	3,030.76	70.3347	3,030.76	67.2445	3,030.76	68.9544
3,137.7	87.4398	3,137.7	87.0681	3,137.7	87.3969	3,137.7	86.3488	3,137.7	86.7071	3,137.7	85.5386	3,137.7	85.8315	3,137.7	84.209	3,137.7	84.7784	3,137.7	83.2291	3,137.7	83.3771	3,137.7	80.8831	3,137.7	81.4293	3,137.7	79.5698	3,137.7	79.2301	3,137.7	76.9939	3,137.7	77.594	3,137.7	75.8127	3,137.7	76.1938	3,137.7	73.3532	3,137.7	73.224	3,137.7	73.5142	3,137.7	73.3241	3,137.7	72.1078	3,137.7	72.304	3,137.7	68.7534	3,137.7	68.7307	3,137.7	72.1463	3,137.7	71.5567	3,137.7	73.8712	3,137.7	74.282	3,137.7	71.009	3,137.7	71.531	3,137.7	67.7868	3,137.7	66.1762	3,137.7	67.5812
3,249.02	87.0299	3,249.02	86.9547	3,249.02	86.7053	3,249.02	86.0631	3,249.02	86.5272	3,249.02	85.189	3,249.02	85.3779	3,249.02	84.1939	3,249.02	84.4257	3,249.02	82.5491	3,249.02	82.8374	3,249.02	80.8764	3,249.02	81.331	3,249.02	79.2546	3,249.02	79.2165	3,249.02	76.1051	3,249.02	76.6279	3,249.02	74.8008	3,249.02	75.0213	3,249.02	72.3763	3,249.02	73.1059	3,249.02	71.8462	3,249.02	73.1012	3,249.02	72.8668	3,249.02	72.143	3,249.02	70.9177	3,249.02	69.446	3,249.02	71.5121	3,249.02	71.291	3,249.02	71.6257	3,249.02	72.7487	3,249.02	69.3621	3,249.02	70.8779	3,249.02	65.9906	3,249.02	64.6383	3,249.02	65.8334
3,363.28	87.1933	3,363.28	86.9474	3,363.28	86.9465	3,363.28	85.9574	3,363.28	86.6947	3,363.28	85.1685	3,363.28	85.5715	3,363.28	83.8006	3,363.28	84.5388	3,363.28	81.7662	3,363.28	82.8241	3,363.28	79.9525	3,363.28	80.8718	3,363.28	78.0874	3,363.28	78.6993	3,363.28	75.3053	3,363.28	76.7663	3,363.28	74.0515	3,363.28	75.1364	3,363.28	71.9638	3,363.28	72.0435	3,363.28	70.3214	3,363.28	72.1096	3,363.28	70.8933	3,363.28	71.0578	3,363.28	70.2785	3,363.28	71.2924	3,363.28	71.189	3,363.28	69.233	3,363.28	71.3189	3,363.28	72.2795	3,363.28	68.2389	3,363.28	70.2845	3,363.28	61.9264	3,363.28	58.7898	3,363.28	66.5799
3,481.93	87.1381	3,481.93	87.3844	3,481.93	86.5916	3,481.93	86.7195	3,481.93	86.7129	3,481.93	85.8865	3,481.93	85.8278	3,481.93	85.0415	3,481.93	84.489	3,481.93	82.3493	3,481.93	82.9427	3,481.93	80.9345	3,481.93	81.1855	3,481.93	78.6709	3,481.93	78.3351	3,481.93	75.8776	3,481.93	76.4798	3,481.93	75.2181	3,481.93	73.7662	3,481.93	72.0907	3,481.93	71.7254	3,481.93	69.8168	3,481.93	67.7172	3,481.93	71.1951	3,481.93	69.9443	3,481.93	70.0296	3,481.93	70.9228	3,481.93	71.0869	3,481.93	67.5428	3,481.93	71.4649	3,481.93	72.1291	3,481.93	69.0584	3,481.93	69.9082	3,481.93	65.1383	3,481.93	65.0254	3,481.93	66.0699
3,604.98	87.2256	3,604.98	87.0732	3,604.98	87.1359	3,604.98	86.9605	3,604.98	86.0002	3,604.98	86.1389	3,604.98	85.5627	3,604.98	84.2678	3,604.98	84.3296	3,604.98	82.0727	3,604.98	83.3147	3,604.98	80.388	3,604.98	81.8477	3,604.98	78.3042	3,604.98	79.4757	3,604.98	76.0647	3,604.98	77.1981	3,604.98	74.3375	3,604.98	75.7167	3,604.98	72.8939	3,604.98	74.4818	3,604.98	70.6622	3,604.98	70.9123	3,604.98	70.8194	3,604.98	70.5389	3,604.98	70.9675	3,604.98	71.2903	3,604.98	71.3515	3,604.98	71.8388	3,604.98	73.5282	3,604.98	72.5152	3,604.98	70.2969	3,604.98	72.482	3,604.98	67.9894	3,604.98	69.0172	3,604.98	66.9606
3,732.42	87.0695	3,732.42	86.7436	3,732.42	87.3765	3,732.42	86.3641	3,732.42	86.8141	3,732.42	86.0515	3,732.42	86.3462	3,732.42	84.5761	3,732.42	85.1276	3,732.42	83.4254	3,732.42	83.708	3,732.42	80.771	3,732.42	81.9445	3,732.42	78.4009	3,732.42	80.0418	3,732.42	76.5005	3,732.42	77.4225	3,732.42	73.8654	3,732.42	75.4711	3,732.42	74.1843	3,732.42	74.6347	3,732.42	70.2789	3,732.42	72.2218	3,732.42	69.8525	3,732.42	70.0648	3,732.42	70.8317	3,732.42	72.8223	3,732.42	70.7161	3,732.42	73.5641	3,732.42	73.8041	3,732.42	73.7247	3,732.42	71.2461	3,732.42	74.1472	3,732.42	66.4063	3,732.42	70.8268	3,732.42	66.0886
3,864.26	85.9264	3,864.26	85.7763	3,864.26	86.6354	3,864.26	86.1258	3,864.26	86.0096	3,864.26	85.9314	3,864.26	85.7998	3,864.26	84.0494	3,864.26	84.9039	3,864.26	83.2314	3,864.26	83.4644	3,864.26	81.2288	3,864.26	81.5228	3,864.26	79.2301	3,864.26	79.6727	3,864.26	77.3128	3,864.26	75.747	3,864.26	74.1571	3,864.26	73.3847	3,864.26	74.0863	3,864.26	73.322	3,864.26	71.1005	3,864.26	70.9443	3,864.26	70.2616	3,864.26	66.6113	3,864.26	71.1073	3,864.26	71.2494	3,864.26	71.1771	3,864.26	71.2355	3,864.26	73.9633	3,864.26	72.2081	3,864.26	72.6514	3,864.26	73.394	3,864.26	69.7807	3,864.26	69.2732	3,864.26	68.3458
4,000.49	84.871	4,000.49	84.9629	4,000.49	85.0674	4,000.49	85.5864	4,000.49	85.608	4,000.49	85.2527	4,000.49	85.4674	4,000.49	84.0712	4,000.49	84.561	4,000.49	82.4301	4,000.49	82.2215	4,000.49	79.6268	4,000.49	79.668	4,000.49	78.7265	4,000.49	77.8842	4,000.49	74.9617	4,000.49	75.9666	4,000.49	73.7746	4,000.49	74.3205	4,000.49	72.0126	4,000.49	72.2319	4,000.49	71.4472	4,000.49	70.5951	4,000.49	68.2858	4,000.49	67.296	4,000.49	70.0381	4,000.49	70.1567	4,000.49	71.6637	4,000.49	67.9103	4,000.49	72.1525	4,000.49	71.0537	4,000.49	69.8274	4,000.49	70.7203	4,000.49	65.3537	4,000.49	64.4987	4,000.49	67.4047
4,141.11	85.0265	4,141.11	85.6893	4,141.11	84.8459	4,141.11	85.9557	4,141.11	86.1992	4,141.11	85.4997	4,141.11	86.18	4,141.11	85.3011	4,141.11	85.6852	4,141.11	82.8581	4,141.11	83.4166	4,141.11	80.5271	4,141.11	80.853	4,141.11	78.3707	4,141.11	78.8964	4,141.11	75.4193	4,141.11	75.5478	4,141.11	74.1146	4,141.11	73.7194	4,141.11	72.0239	4,141.11	73.4363	4,141.11	71.7527	4,141.11	72.2333	4,141.11	68.9184	4,141.11	69.9111	4,141.11	67.2947	4,141.11	67.4904	4,141.11	69.3147	4,141.11	69.6592	4,141.11	72.9193	4,141.11	73.1708	4,141.11	71.3481	4,141.11	72.1671	4,141.11	67.8745	4,141.11	68.7407	4,141.11	68.8227
4,287.6	84.8436	4,287.6	86.23	4,287.6	85.0934	4,287.6	86.4048	4,287.6	86.1087	4,287.6	86.3719	4,287.6	86.4175	4,287.6	85.8533	4,287.6	85.0551	4,287.6	83.1308	4,287.6	83.2457	4,287.6	80.234	4,287.6	80.8157	4,287.6	78.0354	4,287.6	78.0073	4,287.6	76.8888	4,287.6	77.0489	4,287.6	74.2979	4,287.6	74.5451	4,287.6	72.5128	4,287.6	72.4629	4,287.6	71.6057	4,287.6	72.3566	4,287.6	69.7421	4,287.6	69.8093	4,287.6	68.9697	4,287.6	68.8332	4,287.6	69.6415	4,287.6	71.0844	4,287.6	73.483	4,287.6	71.761	4,287.6	72.0581	4,287.6	73.1452	4,287.6	69.2509	4,287.6	67.5114	4,287.6	69.2758
4,438.48	86.1185	4,438.48	85.9476	4,438.48	86.4062	4,438.48	87.193	4,438.48	86.2274	4,438.48	86.364	4,438.48	86.5041	4,438.48	84.7587	4,438.48	85.2455	4,438.48	83.0684	4,438.48	82.6299	4,438.48	80.7028	4,438.48	81.185	4,438.48	78.8382	4,438.48	78.6196	4,438.48	77.4094	4,438.48	76.3372	4,438.48	73.362	4,438.48	73.9868	4,438.48	70.4496	4,438.48	71.3227	4,438.48	71.1053	4,438.48	70.3677	4,438.48	69.5464	4,438.48	67.7354	4,438.48	69.8696	4,438.48	70.6034	4,438.48	71.2568	4,438.48	69.1455	4,438.48	72.5721	4,438.48	70.9308	4,438.48	70.5508	4,438.48	73.1947	4,438.48	66.9323	4,438.48	69.68	4,438.48	67.8845
4,595.21	86.1094	4,595.21	86.1278	4,595.21	86.0147	4,595.21	86.8432	4,595.21	86.559	4,595.21	85.7869	4,595.21	85.2963	4,595.21	83.6678	4,595.21	84.4887	4,595.21	82.0122	4,595.21	83.2714	4,595.21	80.3577	4,595.21	80.7495	4,595.21	79.5454	4,595.21	78.3267	4,595.21	76.3681	4,595.21	77.3447	4,595.21	74.4551	4,595.21	74.7307	4,595.21	71.7205	4,595.21	71.0845	4,595.21	73.0982	4,595.21	72.2511	4,595.21	69.8847	4,595.21	69.5767	4,595.21	69.3173	4,595.21	65.6691	4,595.21	70.1289	4,595.21	70.4225	4,595.21	70.4884	4,595.21	69.7369	4,595.21	72.0867	4,595.21	69.9325	4,595.21	65.3864	4,595.21	65.2131	4,595.21	68.6517
4,756.35	86.4424	4,756.35	87.3819	4,756.35	86.8684	4,756.35	86.4942	4,756.35	87.5899	4,756.35	86.0723	4,756.35	86.6238	4,756.35	84.7313	4,756.35	85.3844	4,756.35	82.4557	4,756.35	83.6744	4,756.35	80.0895	4,756.35	82.0666	4,756.35	77.2448	4,756.35	79.1147	4,756.35	75.5926	4,756.35	76.8293	4,756.35	74.1417	4,756.35	75.607	4,756.35	74.3151	4,756.35	73.1655	4,756.35	72.2864	4,756.35	72.7022	4,756.35	69.3034	4,756.35	71.8144	4,756.35	70.3895	4,756.35	67.2001	4,756.35	70.2214	4,756.35	70.9849	4,756.35	71.419	4,756.35	71.8198	4,756.35	70.9093	4,756.35	72.9804	4,756.35	63.7464	4,756.35	65.3088	4,756.35	67.2445
4,924.8	87.5762	4,924.8	87.7064	4,924.8	88.7485	4,924.8	87.9396	4,924.8	87.8105	4,924.8	87.0399	4,924.8	87.3018	4,924.8	86.3491	4,924.8	85.4353	4,924.8	84.7795	4,924.8	83.0486	4,924.8	82.9101	4,924.8	81.4858	4,924.8	79.3001	4,924.8	79.8841	4,924.8	77.3867	4,924.8	78.1792	4,924.8	75.1258	4,924.8	76.5147	4,924.8	75.6626	4,924.8	74.3385	4,924.8	72.0473	4,924.8	69.8314	4,924.8	70.5515	4,924.8	72.1031	4,924.8	69.5351	4,924.8	69.2426	4,924.8	71.1255	4,924.8	68.9047	4,924.8	72.8889	4,924.8	70.8056	4,924.8	70.9393	4,924.8	73.7715	4,924.8	66.3889	4,924.8	68.2851	4,924.8	63.6052
5,097.66	87.3627	5,097.66	86.8329	5,097.66	87.7171	5,097.66	88.0601	5,097.66	87.3012	5,097.66	86.3762	5,097.66	86.73	5,097.66	85.0343	5,097.66	84.773	5,097.66	83.1671	5,097.66	83.0217	5,097.66	81.6161	5,097.66	81.5541	5,097.66	78.8086	5,097.66	80.1795	5,097.66	77.715	5,097.66	78.3121	5,097.66	76.0473	5,097.66	76.4238	5,097.66	72.612	5,097.66	73.1378	5,097.66	72.0587	5,097.66	71.9158	5,097.66	72.8777	5,097.66	71.3167	5,097.66	72.9228	5,097.66	68.8611	5,097.66	71.8405	5,097.66	70.3547	5,097.66	73.2966	5,097.66	69.8535	5,097.66	73.0845	5,097.66	72.04	5,097.66	63.2117	5,097.66	67.6602	5,097.66	65.507
5,277.83	86.8052	5,277.83	87.2957	5,277.83	86.0945	5,277.83	86.7635	5,277.83	87.1625	5,277.83	86.0977	5,277.83	85.5453	5,277.83	84.1518	5,277.83	84.9608	5,277.83	82.8335	5,277.83	84.2087	5,277.83	81.2564	5,277.83	82.3411	5,277.83	80.89	5,277.83	79.6778	5,277.83	77.0388	5,277.83	78.446	5,277.83	75.6503	5,277.83	76.0846	5,277.83	71.7055	5,277.83	71.8074	5,277.83	70.8872	5,277.83	72.8628	5,277.83	70.394	5,277.83	69.9113	5,277.83	65.9619	5,277.83	70.8449	5,277.83	69.491	5,277.83	72.4042	5,277.83	70.401	5,277.83	71.8634	5,277.83	72.7265	5,277.83	73.1269	5,277.83	59.2906	5,277.83	68.6565	5,277.83	65.5781
5,463.87	86.4609	5,463.87	86.4569	5,463.87	86.4568	5,463.87	85.6238	5,463.87	86.2972	5,463.87	84.7232	5,463.87	85.857	5,463.87	84.0713	5,463.87	85.1064	5,463.87	83.5926	5,463.87	84.1148	5,463.87	82.4482	5,463.87	83.9422	5,463.87	81.5853	5,463.87	82.2787	5,463.87	77.8631	5,463.87	76.4867	5,463.87	76.1315	5,463.87	75.2298	5,463.87	74.9636	5,463.87	73.9377	5,463.87	72.6062	5,463.87	71.9064	5,463.87	70.9441	5,463.87	70.7703	5,463.87	67.1381	5,463.87	71.3599	5,463.87	70.3279	5,463.87	72.3053	5,463.87	71.3922	5,463.87	72.4898	5,463.87	72.8477	5,463.87	73.374	5,463.87	62.495	5,463.87	67.7748	5,463.87	65.7123
5,657.23	86.6691	5,657.23	86.4927	5,657.23	86.9352	5,657.23	85.778	5,657.23	85.4654	5,657.23	85.0924	5,657.23	85.6414	5,657.23	85.4057	5,657.23	85.1374	5,657.23	84.0756	5,657.23	84.124	5,657.23	82.2043	5,657.23	83.381	5,657.23	78.7755	5,657.23	80.8178	5,657.23	76.1339	5,657.23	77.8448	5,657.23	71.5701	5,657.23	74.5677	5,657.23	72.0191	5,657.23	73.7921	5,657.23	70.0113	5,657.23	70.0102	5,657.23	70.9344	5,657.23	69.5713	5,657.23	70.8052	5,657.23	69.6015	5,657.23	69.1336	5,657.23	70.5002	5,657.23	73.006	5,657.23	71.2238	5,657.23	72.1136	5,657.23	71.0469	5,657.23	63.7003	5,657.23	68.4349	5,657.23	64.0567
5,856.45	86.2011	5,856.45	85.6127	5,856.45	85.603	5,856.45	84.2333	5,856.45	85.1243	5,856.45	84.9379	5,856.45	84.0038	5,856.45	85.3752	5,856.45	84.7006	5,856.45	83.716	5,856.45	84.5915	5,856.45	82.1382	5,856.45	82.2985	5,856.45	79.3612	5,856.45	79.6314	5,856.45	76.2916	5,856.45	78.1516	5,856.45	73.8662	5,856.45	74.9784	5,856.45	68.1527	5,856.45	71.6464	5,856.45	69.5148	5,856.45	70.1759	5,856.45	68.2062	5,856.45	69.9902	5,856.45	70.2072	5,856.45	68.6661	5,856.45	70.4837	5,856.45	70.3372	5,856.45	67.778	5,856.45	70.7068	5,856.45	70.324	5,856.45	71.5388	5,856.45	64.9864	5,856.45	66.815	5,856.45	64.8659
6,062.99	86.92	6,062.99	86.0943	6,062.99	86.6004	6,062.99	85.0203	6,062.99	85.4943	6,062.99	85.9169	6,062.99	84.906	6,062.99	86.0237	6,062.99	85.5214	6,062.99	84.6853	6,062.99	84.8051	6,062.99	81.4668	6,062.99	82.7728	6,062.99	79.8	6,062.99	80.7664	6,062.99	75.4865	6,062.99	76.1536	6,062.99	73.5561	6,062.99	74.5446	6,062.99	69.6703	6,062.99	71.35	6,062.99	66.8686	6,062.99	67.9502	6,062.99	66.8862	6,062.99	69.147	6,062.99	71.7639	6,062.99	69.892	6,062.99	71.0683	6,062.99	69.8325	6,062.99	70.3198	6,062.99	73.0445	6,062.99	70.5938	6,062.99	71.814	6,062.99	55.1651	6,062.99	63.7939	6,062.99	64.2989
6,276.86	86.5799	6,276.86	85.3837	6,276.86	86.4621	6,276.86	84.921	6,276.86	84.8431	6,276.86	85.7049	6,276.86	85.4014	6,276.86	85.9739	6,276.86	85.4612	6,276.86	84.3717	6,276.86	84.1233	6,276.86	80.717	6,276.86	81.6536	6,276.86	77.7575	6,276.86	78.7344	6,276.86	75.1045	6,276.86	75.5628	6,276.86	72.2444	6,276.86	72.7493	6,276.86	72.8176	6,276.86	71.2452	6,276.86	69.2424	6,276.86	67.896	6,276.86	69.062	6,276.86	67.8885	6,276.86	72.1515	6,276.86	68.253	6,276.86	70.6797	6,276.86	65.1908	6,276.86	71.0824	6,276.86	70.6668	6,276.86	71.5998	6,276.86	70.0658	6,276.86	58.8335	6,276.86	67.1395	6,276.86	64.1611
6,498.05	86.9616	6,498.05	85.8367	6,498.05	86.1055	6,498.05	85.7892	6,498.05	85.1094	6,498.05	85.8955	6,498.05	85.4049	6,498.05	85.8275	6,498.05	86.0724	6,498.05	83.1366	6,498.05	84.0615	6,498.05	80.7797	6,498.05	80.9388	6,498.05	75.8044	6,498.05	76.4255	6,498.05	75.3648	6,498.05	74.887	6,498.05	71.6737	6,498.05	72.2032	6,498.05	70.6908	6,498.05	70.2547	6,498.05	68.1672	6,498.05	66.8069	6,498.05	68.4261	6,498.05	67.682	6,498.05	71.577	6,498.05	66.6074	6,498.05	68.2247	6,498.05	68.2047	6,498.05	69.6952	6,498.05	69.0721	6,498.05	71.1497	6,498.05	70.506	6,498.05	57.9971	6,498.05	66.8776	6,498.05	55.3
6,726.56	87.3948	6,726.56	86.6323	6,726.56	86.7789	6,726.56	86.4176	6,726.56	86.3418	6,726.56	86.7381	6,726.56	86.0499	6,726.56	86.0879	6,726.56	86.7548	6,726.56	83.4962	6,726.56	84.5067	6,726.56	81.4696	6,726.56	81.4266	6,726.56	77.8315	6,726.56	78.5586	6,726.56	76.603	6,726.56	75.7709	6,726.56	73.5938	6,726.56	73.9497	6,726.56	71.6195	6,726.56	70.8849	6,726.56	67.8508	6,726.56	68.8404	6,726.56	67.1737	6,726.56	66.9209	6,726.56	69.9283	6,726.56	66.148	6,726.56	70.9674	6,726.56	69.5351	6,726.56	71.092	6,726.56	71.8403	6,726.56	70.4043	6,726.56	69.5623	6,726.56	60.8967	6,726.56	67.5782	6,726.56	55.8607
6,963.87	86.6215	6,963.87	86.2428	6,963.87	86.765	6,963.87	86.5088	6,963.87	86.195	6,963.87	86.4144	6,963.87	86.6919	6,963.87	85.1196	6,963.87	85.5361	6,963.87	83.0818	6,963.87	83.2413	6,963.87	80.1762	6,963.87	80.8761	6,963.87	78.2525	6,963.87	78.3732	6,963.87	75.717	6,963.87	76.6339	6,963.87	73.1042	6,963.87	73.4745	6,963.87	70.8048	6,963.87	71.2226	6,963.87	67.6734	6,963.87	68.4085	6,963.87	65.8334	6,963.87	67.3245	6,963.87	67.5409	6,963.87	64.9725	6,963.87	68.7624	6,963.87	68.229	6,963.87	68.1429	6,963.87	69.0087	6,963.87	69.1355	6,963.87	67.5055	6,963.87	56.8836	6,963.87	66.5097	6,963.87	55.2083
7,209.96	87.1079	7,209.96	87.1483	7,209.96	86.7748	7,209.96	87.3281	7,209.96	87.1704	7,209.96	86.8544	7,209.96	87.3421	7,209.96	85.5117	7,209.96	86.012	7,209.96	82.6803	7,209.96	83.657	7,209.96	81.3764	7,209.96	81.8056	7,209.96	80.2975	7,209.96	79.3545	7,209.96	76.1218	7,209.96	76.4818	7,209.96	74.7091	7,209.96	73.8429	7,209.96	70.5642	7,209.96	70.7962	7,209.96	68.8157	7,209.96	70.2333	7,209.96	66.5589	7,209.96	64.5428	7,209.96	66.928	7,209.96	65.9376	7,209.96	66.7243	7,209.96	67.3559	7,209.96	69.2442	7,209.96	68.7485	7,209.96	67.8846	7,209.96	66.8859	7,209.96	59.6386	7,209.96	66.0275	7,209.96	57.611
7,464.84	87.3729	7,464.84	87.6632	7,464.84	87.0257	7,464.84	87.4777	7,464.84	87.4296	7,464.84	86.8344	7,464.84	86.5866	7,464.84	85.244	7,464.84	85.3062	7,464.84	83.0669	7,464.84	83.7773	7,464.84	81.7856	7,464.84	81.9823	7,464.84	79.1465	7,464.84	79.9983	7,464.84	74.5524	7,464.84	75.7906	7,464.84	71.8533	7,464.84	72.3442	7,464.84	66.9273	7,464.84	70.3667	7,464.84	66.0387	7,464.84	68.0553	7,464.84	62.5408	7,464.84	64.4745	7,464.84	66.446	7,464.84	65.0053	7,464.84	68.5687	7,464.84	66.9215	7,464.84	67.9384	7,464.84	70.5881	7,464.84	63.4112	7,464.84	64.5958	7,464.84	61.7537	7,464.84	66.2881	7,464.84	53.2019
7,727.05	87.4709	7,727.05	87.4504	7,727.05	87.5196	7,727.05	86.6839	7,727.05	87.0133	7,727.05	86.158	7,727.05	86.2703	7,727.05	85.1133	7,727.05	84.9057	7,727.05	83.926	7,727.05	83.6048	7,727.05	80.5694	7,727.05	81.9606	7,727.05	76.4557	7,727.05	79.2723	7,727.05	73.5794	7,727.05	74.8065	7,727.05	70.9506	7,727.05	71.0343	7,727.05	67.1254	7,727.05	68.5337	7,727.05	65.4204	7,727.05	65.1696	7,727.05	64.1507	7,727.05	62.4181	7,727.05	63.2038	7,727.05	64.3263	7,727.05	63.2214	7,727.05	64.145	7,727.05	67.3618	7,727.05	67.6896	7,727.05	62.9148	7,727.05	66.0189	7,727.05	60.7777	7,727.05	65.3255	7,727.05	51.602
7,999.51	87.7831	7,999.51	87.622	7,999.51	87.6324	7,999.51	86.9976	7,999.51	87.2833	7,999.51	86.2631	7,999.51	86.2517	7,999.51	85.9145	7,999.51	85.6263	7,999.51	84.0332	7,999.51	84.1971	7,999.51	80.5783	7,999.51	82.2969	7,999.51	77.2402	7,999.51	78.4821	7,999.51	74.1336	7,999.51	74.2133	7,999.51	69.6842	7,999.51	70.887	7,999.51	68.1068	7,999.51	68.0803	7,999.51	65.5308	7,999.51	65.6268	7,999.51	65.1517	7,999.51	63.7989	7,999.51	63.5316	7,999.51	63.3985	7,999.51	63.8965	7,999.51	64.2713	7,999.51	68.3699	7,999.51	69.8875	7,999.51	66.1382	7,999.51	66.5209	7,999.51	58.1428	7,999.51	62.1751	7,999.51	56.3559
8,282.23	87.3127	8,282.23	87.7134	8,282.23	87.6321	8,282.23	86.8591	8,282.23	86.7891	8,282.23	86.234	8,282.23	85.5715	8,282.23	85.3831	8,282.23	85.2283	8,282.23	83.3315	8,282.23	83.9675	8,282.23	80.8563	8,282.23	81.4665	8,282.23	76.8523	8,282.23	78.0186	8,282.23	73.5321	8,282.23	72.9735	8,282.23	69.6554	8,282.23	70.194	8,282.23	67.071	8,282.23	67.6327	8,282.23	64.7826	8,282.23	64.1981	8,282.23	63.579	8,282.23	62.4541	8,282.23	64.721	8,282.23	66.0182	8,282.23	64.0852	8,282.23	65.4487	8,282.23	66.8229	8,282.23	68.0432	8,282.23	63.5187	8,282.23	64.7401	8,282.23	53.1023	8,282.23	64.2463	8,282.23	58.869
8,573.73	87.8841	8,573.73	88.0692	8,573.73	88.0515	8,573.73	87.5788	8,573.73	87.8475	8,573.73	85.9555	8,573.73	86.3165	8,573.73	85.5651	8,573.73	85.4031	8,573.73	83.3807	8,573.73	83.9499	8,573.73	79.8858	8,573.73	81.2341	8,573.73	76.4476	8,573.73	76.7898	8,573.73	73.1144	8,573.73	73.9512	8,573.73	70.2729	8,573.73	70.6004	8,573.73	67.2341	8,573.73	68.3694	8,573.73	64.6133	8,573.73	65.4827	8,573.73	60.6886	8,573.73	65.0087	8,573.73	65.1192	8,573.73	64.7044	8,573.73	64.9496	8,573.73	64.2902	8,573.73	67.5679	8,573.73	67.7404	8,573.73	61.2919	8,573.73	66.3319	8,573.73	52.0261	8,573.73	61.4542	8,573.73	60.3295
8,876.95	87.1945	8,876.95	87.8658	8,876.95	87.8879	8,876.95	86.8366	8,876.95	87.1367	8,876.95	85.7783	8,876.95	85.6253	8,876.95	84.9706	8,876.95	84.9974	8,876.95	82.7017	8,876.95	83.5649	8,876.95	79.5955	8,876.95	80.2448	8,876.95	76.0959	8,876.95	76.7975	8,876.95	72.1246	8,876.95	72.1086	8,876.95	70.7119	8,876.95	70.1189	8,876.95	66.0417	8,876.95	67.5824	8,876.95	64.062	8,876.95	65.1919	8,876.95	61.2856	8,876.95	62.5421	8,876.95	63.1738	8,876.95	61.9488	8,876.95	64.2852	8,876.95	63.8051	8,876.95	66.645	8,876.95	66.1598	8,876.95	60.8186	8,876.95	62.2908	8,876.95	52.019	8,876.95	59.1618	8,876.95	60.4389
9,188.96	87.8287	9,188.96	88.4476	9,188.96	88.1002	9,188.96	87.3714	9,188.96	87.9891	9,188.96	86.0083	9,188.96	85.9509	9,188.96	85.3893	9,188.96	84.7547	9,188.96	82.6796	9,188.96	83.0691	9,188.96	79.4587	9,188.96	79.9786	9,188.96	76.0238	9,188.96	76.7141	9,188.96	73.137	9,188.96	73.0875	9,188.96	69.1024	9,188.96	69.7795	9,188.96	66.3351	9,188.96	66.8936	9,188.96	63.3861	9,188.96	65.1149	9,188.96	60.7252	9,188.96	63.0535	9,188.96	61.8328	9,188.96	62.9831	9,188.96	62.9769	9,188.96	63.7236	9,188.96	65.3019	9,188.96	64.3333	9,188.96	58.4868	9,188.96	61.5991	9,188.96	49.3163	9,188.96	59.5006	9,188.96	62.0295
9,514.16	88.064	9,514.16	88.3825	9,514.16	88.3713	9,514.16	87.1512	9,514.16	87.4004	9,514.16	85.8039	9,514.16	85.9523	9,514.16	84.5251	9,514.16	84.9612	9,514.16	81.4659	9,514.16	82.3896	9,514.16	78.7086	9,514.16	79.6873	9,514.16	74.8939	9,514.16	76.7574	9,514.16	71.9484	9,514.16	71.7712	9,514.16	69.4991	9,514.16	69.2711	9,514.16	66.3462	9,514.16	65.8766	9,514.16	62.6713	9,514.16	64.249	9,514.16	62.6564	9,514.16	61.0202	9,514.16	61.8157	9,514.16	58.6568	9,514.16	61.8783	9,514.16	62.735	9,514.16	63.9226	9,514.16	63.742	9,514.16	58.0192	9,514.16	60.9364	9,514.16	51.8963	9,514.16	52.2576	9,514.16	62.0488
9,849.61	88.509	9,849.61	88.4047	9,849.61	88.5063	9,849.61	87.2922	9,849.61	87.8282	9,849.61	86.0255	9,849.61	85.9954	9,849.61	84.2554	9,849.61	84.4193	9,849.61	81.1359	9,849.61	81.8269	9,849.61	78.599	9,849.61	78.9562	9,849.61	75.0286	9,849.61	75.9237	9,849.61	71.5588	9,849.61	71.5032	9,849.61	67.3709	9,849.61	68.1604	9,849.61	63.9231	9,849.61	64.2988	9,849.61	61.5611	9,849.61	62.8049	9,849.61	59.6968	9,849.61	60.9871	9,849.61	60.8091	9,849.61	59.6921	9,849.61	59.745	9,849.61	61.4015	9,849.61	62.118	9,849.61	62.6975	9,849.61	56.8694	9,849.61	58.4559	9,849.61	50.5164	9,849.61	49.9674	9,849.61	61.9292
10,196.8	89.0292	10,196.8	88.7706	10,196.8	88.9364	10,196.8	87.6378	10,196.8	87.9342	10,196.8	85.65	10,196.8	86.1894	10,196.8	83.5956	10,196.8	84.2176	10,196.8	80.6456	10,196.8	81.0591	10,196.8	77.3427	10,196.8	78.2462	10,196.8	73.6215	10,196.8	74.295	10,196.8	67.5173	10,196.8	69.0744	10,196.8	65.6363	10,196.8	65.6371	10,196.8	60.3822	10,196.8	62.4289	10,196.8	57.3348	10,196.8	60.1811	10,196.8	55.8447	10,196.8	56.1067	10,196.8	54.6685	10,196.8	53.9688	10,196.8	60.5581	10,196.8	59.8519	10,196.8	62.692	10,196.8	61.2278	10,196.8	53.3524	10,196.8	55.3504	10,196.8	51.8114	10,196.8	52.5938	10,196.8	61.1212
10,555.7	89.0479	10,555.7	88.6944	10,555.7	88.894	10,555.7	87.4754	10,555.7	87.9347	10,555.7	85.9082	10,555.7	85.9995	10,555.7	83.5193	10,555.7	83.4662	10,555.7	79.6004	10,555.7	80.3251	10,555.7	75.5324	10,555.7	76.1546	10,555.7	70.3668	10,555.7	70.6582	10,555.7	66.4249	10,555.7	65.4355	10,555.7	63.2823	10,555.7	62.9255	10,555.7	59.4195	10,555.7	61.0753	10,555.7	57.3918	10,555.7	57.0232	10,555.7	55.0841	10,555.7	55.4424	10,555.7	56.873	10,555.7	51.2856	10,555.7	57.1763	10,555.7	58.3108	10,555.7	60.9243	10,555.7	61.9919	10,555.7	56.6084	10,555.7	54.8996	10,555.7	50.5415	10,555.7	45.8327	10,555.7	60.9617
10,927.7	89.1141	10,927.7	88.8034	10,927.7	88.8683	10,927.7	87.6199	10,927.7	87.8439	10,927.7	85.3617	10,927.7	85.8965	10,927.7	82.5194	10,927.7	83.0846	10,927.7	78.4674	10,927.7	79.5222	10,927.7	73.8164	10,927.7	74.3488	10,927.7	64.594	10,927.7	67.3477	10,927.7	63.2236	10,927.7	63.6378	10,927.7	56.7337	10,927.7	57.3485	10,927.7	57.6323	10,927.7	60.177	10,927.7	54.2321	10,927.7	52.7334	10,927.7	49.2156	10,927.7	53.4782	10,927.7	50.8112	10,927.7	44.4894	10,927.7	57.3452	10,927.7	55.6533	10,927.7	61.4124	10,927.7	61.8403	10,927.7	58.8827	10,927.7	56.7022	10,927.7	53.3108	10,927.7	47.8381	10,927.7	60.7035
11,313	88.7179	11,313	88.2456	11,313	88.5709	11,313	86.994	11,313	87.3742	11,313	84.427	11,313	85.2909	11,313	81.1859	11,313	81.4446	11,313	77.1374	11,313	77.5857	11,313	71.2874	11,313	71.213	11,313	65.4968	11,313	64.9358	11,313	61.3129	11,313	56.2887	11,313	60.0402	11,313	58.2252	11,313	57.5987	11,313	47.5023	11,313	53.6168	11,313	53.6731	11,313	55.6287	11,313	43.5002	11,313	56.7085	11,313	40.4773	11,313	55.5845	11,313	55.2807	11,313	62.3492	11,313	61.4448	11,313	60.0832	11,313	58.3479	11,313	52.8855	11,313	32.6663	11,313	61.4945
11,712.9	88.1824	11,712.9	87.5636	11,712.9	87.9863	11,712.9	86.324	11,712.9	86.6753	11,712.9	83.8939	11,712.9	84.1761	11,712.9	80.7089	11,712.9	80.9408	11,712.9	74.6364	11,712.9	76.076	11,712.9	69.9122	11,712.9	67.7594	11,712.9	67.5842	11,712.9	65.0728	11,712.9	61.7659	11,712.9	62.7819	11,712.9	60.4221	11,712.9	59.6552	11,712.9	59.6516	11,712.9	56.0005	11,712.9	54.838	11,712.9	57.7164	11,712.9	55.909	11,712.9	51.6123	11,712.9	56.7836	11,712.9	49.5623	11,712.9	56.1538	11,712.9	49.804	11,712.9	64.5134	11,712.9	63.6208	11,712.9	60.24	11,712.9	59.4368	11,712.9	53.7725	11,712.9	50.0809	11,712.9	62.7555
12,126	87.5218	12,126	86.5048	12,126	87.0948	12,126	85.4669	12,126	85.8979	12,126	82.0428	12,126	82.8423	12,126	79.4584	12,126	79.5773	12,126	73.0822	12,126	74.4111	12,126	71.4373	12,126	68.7131	12,126	66.4428	12,126	64.6269	12,126	67.5023	12,126	64.4193	12,126	64.4813	12,126	61.8091	12,126	62.8695	12,126	62.5302	12,126	60.5441	12,126	57.6821	12,126	57.8803	12,126	53.3214	12,126	52.6798	12,126	57.0457	12,126	55.8802	12,126	54.3207	12,126	64.8069	12,126	63.0385	12,126	61.2453	12,126	62.0346	12,126	49.568	12,126	50.2531	12,126	64.4533
12,553.7	86.5859	12,553.7	85.8727	12,553.7	85.8026	12,553.7	84.3101	12,553.7	85.1988	12,553.7	81.3984	12,553.7	81.8099	12,553.7	79.0722	12,553.7	79.385	12,553.7	75.4156	12,553.7	75.1343	12,553.7	73.3391	12,553.7	73.999	12,553.7	71.7123	12,553.7	73.1332	12,553.7	68.7243	12,553.7	68.4759	12,553.7	67.2393	12,553.7	67.1378	12,553.7	62.9936	12,553.7	63.8525	12,553.7	62.9755	12,553.7	59.9556	12,553.7	57.866	12,553.7	57.5977	12,553.7	55.7336	12,553.7	62.533	12,553.7	59.3162	12,553.7	54.5362	12,553.7	65.3592	12,553.7	64.183	12,553.7	60.9823	12,553.7	64.34	12,553.7	46.8181	12,553.7	51.3164	12,553.7	65.1908
12,996.1	86.0481	12,996.1	84.5804	12,996.1	85.1784	12,996.1	84.0245	12,996.1	84.3078	12,996.1	81.5732	12,996.1	80.8295	12,996.1	79.3567	12,996.1	79.2779	12,996.1	77.7653	12,996.1	76.3441	12,996.1	76.8994	12,996.1	76.0191	12,996.1	75.1507	12,996.1	74.0195	12,996.1	70.8092	12,996.1	70.6198	12,996.1	68.4108	12,996.1	67.9617	12,996.1	66.1138	12,996.1	63.8468	12,996.1	60.8739	12,996.1	63.5705	12,996.1	58.9468	12,996.1	60.3061	12,996.1	59.7193	12,996.1	62.7221	12,996.1	59.4857	12,996.1	58.1127	12,996.1	65.9923	12,996.1	64.9281	12,996.1	62.3502	12,996.1	64.3684	12,996.1	48.3915	12,996.1	47.1354	12,996.1	63.995
13,454.6	85.4248	13,454.6	84.455	13,454.6	84.543	13,454.6	83.6058	13,454.6	83.8777	13,454.6	81.0515	13,454.6	81.0831	13,454.6	79.6975	13,454.6	79.3944	13,454.6	78.8974	13,454.6	78.0627	13,454.6	77.5767	13,454.6	76.2596	13,454.6	74.6635	13,454.6	73.5541	13,454.6	73.3768	13,454.6	72.2213	13,454.6	68.8749	13,454.6	69.1469	13,454.6	66.9277	13,454.6	66.4224	13,454.6	63.794	13,454.6	63.9976	13,454.6	62.5666	13,454.6	61.5533	13,454.6	62.3351	13,454.6	61.9031	13,454.6	60.8	13,454.6	60.2861	13,454.6	64.5066	13,454.6	65.5734	13,454.6	61.5306	13,454.6	65.767	13,454.6	43.3625	13,454.6	48.4869	13,454.6	64.8857
13,929.2	85.0476	13,929.2	84.7432	13,929.2	84.5535	13,929.2	82.7367	13,929.2	83.3687	13,929.2	81.3627	13,929.2	80.933	13,929.2	80.2382	13,929.2	78.9499	13,929.2	79.3354	13,929.2	79.5741	13,929.2	78.5024	13,929.2	77.216	13,929.2	74.6734	13,929.2	74.5342	13,929.2	72.3619	13,929.2	73.3293	13,929.2	70.0213	13,929.2	69.7746	13,929.2	67.2475	13,929.2	66.4402	13,929.2	66.4941	13,929.2	63.2966	13,929.2	63.9741	13,929.2	63.1345	13,929.2	61.7953	13,929.2	59.6987	13,929.2	61.7708	13,929.2	59.8565	13,929.2	63.4961	13,929.2	62.8921	13,929.2	59.5422	13,929.2	66.4201	13,929.2	52.8105	13,929.2	44.4738	13,929.2	63.1276
14,419.9	84.5373	14,419.9	84.1789	14,419.9	84.3733	14,419.9	82.5439	14,419.9	83.085	14,419.9	81.7378	14,419.9	81.0657	14,419.9	80.5265	14,419.9	79.16	14,419.9	79.9681	14,419.9	79.854	14,419.9	79.4439	14,419.9	78.5898	14,419.9	76.1672	14,419.9	76.9644	14,419.9	72.6727	14,419.9	73.3052	14,419.9	71.0357	14,419.9	69.5404	14,419.9	65.1773	14,419.9	66.002	14,419.9	64.2089	14,419.9	64.4494	14,419.9	62.8856	14,419.9	62.685	14,419.9	59.7495	14,419.9	62.0917	14,419.9	58.8207	14,419.9	59.3639	14,419.9	64.4504	14,419.9	63.355	14,419.9	59.3499	14,419.9	65.7048	14,419.9	51.1859	14,419.9	46.9317	14,419.9	61.6244
14,928.2	84.3182	14,928.2	83.7658	14,928.2	84.1482	14,928.2	82.7	14,928.2	82.3885	14,928.2	81.3378	14,928.2	81.0333	14,928.2	81.1119	14,928.2	79.3444	14,928.2	80.2704	14,928.2	79.1829	14,928.2	79.7325	14,928.2	79.1529	14,928.2	75.7033	14,928.2	75.4362	14,928.2	72.5275	14,928.2	72.6185	14,928.2	69.3575	14,928.2	69.3443	14,928.2	65.6617	14,928.2	66.8565	14,928.2	65.9831	14,928.2	64.0748	14,928.2	63.5672	14,928.2	62.1679	14,928.2	61.4021	14,928.2	61.8547	14,928.2	57.6333	14,928.2	59.309	14,928.2	61.7616	14,928.2	63.2938	14,928.2	56.3186	14,928.2	65.0108	14,928.2	55.3802	14,928.2	46.2244	14,928.2	62.0895
15,455.6	84.0554	15,455.6	83.6528	15,455.6	83.6907	15,455.6	82.6757	15,455.6	81.9718	15,455.6	82.1576	15,455.6	81.2411	15,455.6	81.7618	15,455.6	80.185	15,455.6	80.1953	15,455.6	79.6422	15,455.6	79.6039	15,455.6	79.6718	15,455.6	75.9087	15,455.6	75.6326	15,455.6	73.4124	15,455.6	73.9629	15,455.6	69.1365	15,455.6	70.3251	15,455.6	65.8694	15,455.6	66.9899	15,455.6	66.639	15,455.6	64.3665	15,455.6	62.6855	15,455.6	62.2733	15,455.6	59.9092	15,455.6	58.3812	15,455.6	56.6637	15,455.6	56.5355	15,455.6	60.4161	15,455.6	59.7356	15,455.6	54.4834	15,455.6	64.6659	15,455.6	58.2824	15,455.6	53.2168	15,455.6	60.3953
16,000.5	83.5254	16,000.5	83.3742	16,000.5	83.2046	16,000.5	82.6413	16,000.5	81.8837	16,000.5	81.99	16,000.5	81.3362	16,000.5	81.7632	16,000.5	80.8036	16,000.5	80.9273	16,000.5	80.7399	16,000.5	79.7128	16,000.5	79.6662	16,000.5	76.7191	16,000.5	76.9429	16,000.5	72.7997	16,000.5	74.2019	16,000.5	68.7278	16,000.5	69.7823	16,000.5	66.2025	16,000.5	66.1409	16,000.5	65.5717	16,000.5	64.9267	16,000.5	60.2006	16,000.5	62.497	16,000.5	58.2382	16,000.5	56.7469	16,000.5	56.5969	16,000.5	54.6985	16,000.5	57.6531	16,000.5	58.6863	16,000.5	54.1866	16,000.5	62.7279	16,000.5	59.4975	16,000.5	52.4308	16,000.5	57.1144
16,564.5	83.2039	16,564.5	82.875	16,564.5	82.5048	16,564.5	82.8048	16,564.5	81.9015	16,564.5	81.9198	16,564.5	80.8948	16,564.5	82.0389	16,564.5	80.9955	16,564.5	80.6087	16,564.5	80.652	16,564.5	79.2967	16,564.5	78.9955	16,564.5	75.7782	16,564.5	76.449	16,564.5	71.5668	16,564.5	71.6745	16,564.5	66.9097	16,564.5	67.1791	16,564.5	64.7811	16,564.5	65.2994	16,564.5	63.187	16,564.5	62.194	16,564.5	59.4256	16,564.5	57.3159	16,564.5	55.4809	16,564.5	50.4657	16,564.5	54.1789	16,564.5	49.9125	16,564.5	54.6503	16,564.5	52.931	16,564.5	52.8511	16,564.5	60.5456	16,564.5	59.4472	16,564.5	51.6181	16,564.5	56.9449
17,148.9	82.601	17,148.9	82.3718	17,148.9	82.0387	17,148.9	82.1312	17,148.9	81.2818	17,148.9	81.5796	17,148.9	80.6444	17,148.9	81.868	17,148.9	80.5733	17,148.9	79.6246	17,148.9	79.9121	17,148.9	78.7172	17,148.9	78.4023	17,148.9	73.559	17,148.9	73.9158	17,148.9	70.4314	17,148.9	69.9502	17,148.9	66.3539	17,148.9	66.1475	17,148.9	64.1053	17,148.9	63.4979	17,148.9	62.3936	17,148.9	59.2981	17,148.9	57.5674	17,148.9	55.7975	17,148.9	55.4239	17,148.9	39.8602	17,148.9	54.4178	17,148.9	49.2617	17,148.9	51.0549	17,148.9	51.3364	17,148.9	49.0027	17,148.9	58.0279	17,148.9	56.795	17,148.9	53.3879	17,148.9	55.1081
17,752.4	81.8973	17,752.4	81.9499	17,752.4	81.4567	17,752.4	81.0804	17,752.4	80.7259	17,752.4	81.465	17,752.4	80.808	17,752.4	81.4862	17,752.4	80.7833	17,752.4	79.4287	17,752.4	79.8022	17,752.4	77.6517	17,752.4	77.8712	17,752.4	73.6084	17,752.4	72.817	17,752.4	70.3739	17,752.4	70.3194	17,752.4	66.8407	17,752.4	66.7024	17,752.4	63.8904	17,752.4	62.5779	17,752.4	62.2437	17,752.4	60.4326	17,752.4	56.9627	17,752.4	55.928	17,752.4	52.3612	17,752.4	41.703	17,752.4	50.836	17,752.4	50.7922	17,752.4	50.3402	17,752.4	50.3767	17,752.4	48.9329	17,752.4	55.4504	17,752.4	56.4952	17,752.4	54.4822	17,752.4	51.9087
18,379.4	81.4267	18,379.4	81.5181	18,379.4	81.1079	18,379.4	80.5476	18,379.4	79.86	18,379.4	80.5063	18,379.4	79.5979	18,379.4	80.3164	18,379.4	79.6646	18,379.4	78.1208	18,379.4	78.4956	18,379.4	75.6783	18,379.4	75.4993	18,379.4	72.6989	18,379.4	72.3563	18,379.4	68.0801	18,379.4	68.2409	18,379.4	63.864	18,379.4	64.2219	18,379.4	60.8741	18,379.4	61.6061	18,379.4	60.1403	18,379.4	57.9471	18,379.4	55.4946	18,379.4	53.0738	18,379.4	47.4576	18,379.4	35.6754	18,379.4	48.681	18,379.4	49.636	18,379.4	44.5096	18,379.4	48.4518	18,379.4	47.882	18,379.4	52.9319	18,379.4	52.252	18,379.4	52.2972	18,379.4	45.1923
19,026.9	81.2156	19,026.9	80.8365	19,026.9	80.8331	19,026.9	79.4086	19,026.9	79.178	19,026.9	79.0609	19,026.9	78.2417	19,026.9	78.8789	19,026.9	77.7443	19,026.9	75.7201	19,026.9	76.3508	19,026.9	73.742	19,026.9	72.7468	19,026.9	69.4191	19,026.9	70.5359	19,026.9	64.698	19,026.9	64.2864	19,026.9	61.2728	19,026.9	60.4204	19,026.9	58.7181	19,026.9	58.9427	19,026.9	58.2253	19,026.9	54.8525	19,026.9	52.239	19,026.9	48.3074	19,026.9	41.6854	19,026.9	46.4698	19,026.9	43.3597	19,026.9	43.4082	19,026.9	39.6866	19,026.9	45.7349	19,026.9	53.3419	19,026.9	48.0082	19,026.9	44.1754	19,026.9	46.9597	19,026.9	43.2915
19,697.8	80.8479	19,697.8	80.0189	19,697.8	80.1839	19,697.8	77.9876	19,697.8	78.0367	19,697.8	77.0568	19,697.8	76.5306	19,697.8	76.6145	19,697.8	75.8096	19,697.8	73.1028	19,697.8	73.8867	19,697.8	72.0407	19,697.8	70.8658	19,697.8	66.6718	19,697.8	66.1614	19,697.8	64.6103	19,697.8	63.2508	19,697.8	60.8247	19,697.8	59.7923	19,697.8	58.6703	19,697.8	58.6144	19,697.8	56.4941	19,697.8	53.2956	19,697.8	50.8633	19,697.8	44.7992	19,697.8	37.7292	19,697.8	48.8015	19,697.8	38.002	19,697.8	46.2126	19,697.8	45.7925	19,697.8	47.2941	19,697.8	53.3284	19,697.8	40.0608	19,697.8	43.3736	19,697.8	43.0398	19,697.8	48.0468
19,999.5	80.167	19,999.5	79.2414	19,999.5	79.7611	19,999.5	77.192	19,999.5	77.6242	19,999.5	75.9186	19,999.5	75.816	19,999.5	75.257	19,999.5	74.8566	19,999.5	72.0168	19,999.5	72.1336	19,999.5	70.8162	19,999.5	69.1842	19,999.5	66.6802	19,999.5	62.503	19,999.5	63.6971	19,999.5	62.6135	19,999.5	60.0246	19,999.5	61.8028	19,999.5	57.8707	19,999.5	57.6747	19,999.5	54.5968	19,999.5	48.8617	19,999.5	55.0462	19,999.5	53.0534	19,999.5	52.1313	19,999.5	55.6783	19,999.5	51.1316	19,999.5	50.2581	19,999.5	55.1665	19,999.5	49.5688	19,999.5	51.1288	19,999.5	56.458	19,999.5	45.9136	19,999.5	33.9434	19,999.5	47.5242
