"SPL Vertical"
"On-Axis"		"10°"		"-10°"		"20°"		"-20°"		"30°"		"-30°"		"40°"		"-40°"		"50°"		"-50°"		"60°"		"-60°"		"70°"		"-70°"		"80°"		"-80°"		"90°"		"-90°"		"100°"		"-100°"		"110°"		"-110°"		"120°"		"-120°"		"130°"		"-130°"		"140°"		"-140°"		"150°"		"-150°"		"160°"		"-160°"		"170°"		"-170°"		"180°"
"Frequency [Hz]"	"Sound Pessure Level [dB]  / [2.83V 1m] "	"Frequency [Hz]"	"Sound Pessure Level [dB]  / [2.83V 1m] "	"Frequency [Hz]"	"Sound Pessure Level [dB]  / [2.83V 1m] "	"Frequency [Hz]"	"Sound Pessure Level [dB]  / [2.83V 1m] "	"Frequency [Hz]"	"Sound Pessure Level [dB]  / [2.83V 1m] "	"Frequency [Hz]"	"Sound Pessure Level [dB]  / [2.83V 1m] "	"Frequency [Hz]"	"Sound Pessure Level [dB]  / [2.83V 1m] "	"Frequency [Hz]"	"Sound Pessure Level [dB]  / [2.83V 1m] "	"Frequency [Hz]"	"Sound Pessure Level [dB]  / [2.83V 1m] "	"Frequency [Hz]"	"Sound Pessure Level [dB]  / [2.83V 1m] "	"Frequency [Hz]"	"Sound Pessure Level [dB]  / [2.83V 1m] "	"Frequency [Hz]"	"Sound Pessure Level [dB]  / [2.83V 1m] "	"Frequency [Hz]"	"Sound Pessure Level [dB]  / [2.83V 1m] "	"Frequency [Hz]"	"Sound Pessure Level [dB]  / [2.83V 1m] "	"Frequency [Hz]"	"Sound Pessure Level [dB]  / [2.83V 1m] "	"Frequency [Hz]"	"Sound Pessure Level [dB]  / [2.83V 1m] "	"Frequency [Hz]"	"Sound Pessure Level [dB]  / [2.83V 1m] "	"Frequency [Hz]"	"Sound Pessure Level [dB]  / [2.83V 1m] "	"Frequency [Hz]"	"Sound Pessure Level [dB]  / [2.83V 1m] "	"Frequency [Hz]"	"Sound Pessure Level [dB]  / [2.83V 1m] "	"Frequency [Hz]"	"Sound Pessure Level [dB]  / [2.83V 1m] "	"Frequency [Hz]"	"Sound Pessure Level [dB]  / [2.83V 1m] "	"Frequency [Hz]"	"Sound Pessure Level [dB]  / [2.83V 1m] "	"Frequency [Hz]"	"Sound Pessure Level [dB]  / [2.83V 1m] "	"Frequency [Hz]"	"Sound Pessure Level [dB]  / [2.83V 1m] "	"Frequency [Hz]"	"Sound Pessure Level [dB]  / [2.83V 1m] "	"Frequency [Hz]"	"Sound Pessure Level [dB]  / [2.83V 1m] "	"Frequency [Hz]"	"Sound Pessure Level [dB]  / [2.83V 1m] "	"Frequency [Hz]"	"Sound Pessure Level [dB]  / [2.83V 1m] "	"Frequency [Hz]"	"Sound Pessure Level [dB]  / [2.83V 1m] "	"Frequency [Hz]"	"Sound Pessure Level [dB]  / [2.83V 1m] "	"Frequency [Hz]"	"Sound Pessure Level [dB]  / [2.83V 1m] "	"Frequency [Hz]"	"Sound Pessure Level [dB]  / [2.83V 1m] "	"Frequency [Hz]"	"Sound Pessure Level [dB]  / [2.83V 1m] "	"Frequency [Hz]"	"Sound Pessure Level [dB]  / [2.83V 1m] "	"Frequency [Hz]"	"Sound Pessure Level [dB]  / [2.83V 1m] "
20.5078	38.7071	20.5078	37.2328	20.5078	39.6712	20.5078	35.4652	20.5078	40.1302	20.5078	34.5277	20.5078	40.0984	20.5078	35.9414	20.5078	39.5631	20.5078	38.6877	20.5078	38.4983	20.5078	41.3617	20.5078	36.9854	20.5078	43.6291	20.5078	35.7295	20.5078	45.5107	20.5078	36.4531	20.5078	47.0735	20.5078	39.0981	20.5078	48.373	20.5078	41.9687	20.5078	49.4486	20.5078	44.4255	20.5078	50.3263	20.5078	46.4255	20.5078	51.0226	20.5078	48.0335	20.5078	51.5469	20.5078	49.3136	20.5078	51.9035	20.5078	50.3148	20.5078	52.0929	20.5078	51.0728	20.5078	52.1122	20.5078	51.6135	20.5078	51.9555
21.9727	44.7367	21.9727	44.315	21.9727	45.1041	21.9727	43.9526	21.9727	45.3551	21.9727	43.8117	21.9727	45.4661	21.9727	44.0461	21.9727	45.4447	21.9727	44.7006	21.9727	45.3337	21.9727	45.6781	21.9727	45.2237	21.9727	46.8186	21.9727	45.2573	21.9727	47.987	21.9727	45.5882	21.9727	49.0998	21.9727	46.288	21.9727	50.1134	21.9727	47.2864	21.9727	51.007	21.9727	48.4281	21.9727	51.7716	21.9727	49.5675	21.9727	52.4025	21.9727	50.6106	21.9727	52.897	21.9727	51.5093	21.9727	53.2523	21.9727	52.244	21.9727	53.4653	21.9727	52.8102	21.9727	53.5325	21.9727	53.2102	21.9727	53.4491
23.4375	46.1104	23.4375	45.4191	23.4375	46.5935	23.4375	44.6012	23.4375	46.8349	23.4375	43.8455	23.4375	46.8176	23.4375	43.4861	23.4375	46.5289	23.4375	43.845	23.4375	45.9634	23.4375	44.9034	23.4375	45.1481	23.4375	46.3314	23.4375	44.2158	23.4375	47.82	23.4375	43.5439	23.4375	49.2082	23.4375	43.7227	23.4375	50.4355	23.4375	44.9346	23.4375	51.4863	23.4375	46.679	23.4375	52.361	23.4375	48.4431	23.4375	53.0635	23.4375	50.0002	23.4375	53.5972	23.4375	51.2922	23.4375	53.9629	23.4375	52.3212	23.4375	54.1587	23.4375	53.1058	23.4375	54.1801	23.4375	53.666	23.4375	54.0195
24.9023	50.3737	24.9023	49.8308	24.9023	50.7515	24.9023	49.1514	24.9023	50.9492	24.9023	48.3952	24.9023	50.9567	24.9023	47.6792	24.9023	50.7654	24.9023	47.1945	24.9023	50.3704	24.9023	47.1523	24.9023	49.7787	24.9023	47.6374	24.9023	49.0316	24.9023	48.5299	24.9023	48.2498	24.9023	49.6149	24.9023	47.6859	24.9023	50.7179	24.9023	47.6699	24.9023	51.7378	24.9023	48.3341	24.9023	52.6259	24.9023	49.456	24.9023	53.3607	24.9023	50.7042	24.9023	53.9325	24.9023	51.8623	24.9023	54.3355	24.9023	52.8355	24.9023	54.5647	24.9023	53.5948	24.9023	54.6137	24.9023	54.1386	24.9023	54.4748
26.3672	48.9889	26.3672	48.3118	26.3672	49.4627	26.3672	47.494	26.3672	49.7073	26.3672	46.6846	26.3672	49.7093	26.3672	46.1691	26.3672	49.4596	26.3672	46.288	26.3672	48.9576	26.3672	47.1355	26.3672	48.2339	26.3672	48.4523	26.3672	47.4105	26.3672	49.9102	26.3672	46.8031	26.3672	51.3093	26.3672	46.8962	26.3672	52.565	26.3672	47.895	26.3672	53.6505	26.3672	49.4428	26.3672	54.5611	26.3672	51.0797	26.3672	55.2992	26.3672	52.5609	26.3672	55.8673	26.3672	53.8047	26.3672	56.2661	26.3672	54.799	26.3672	56.4936	26.3672	55.5545	26.3672	56.5452	26.3672	56.0874	26.3672	56.4132
27.832	50.308	27.832	49.831	27.832	50.6623	27.832	49.3251	27.832	50.8451	27.832	48.9484	27.832	50.8329	27.832	48.9049	27.832	50.6207	27.832	49.3382	27.832	50.2293	27.832	50.2153	27.832	49.7321	27.832	51.3611	27.832	49.3019	27.832	52.5914	27.832	49.2268	27.832	53.7839	27.832	49.7606	27.832	54.8752	27.832	50.8699	27.832	55.8365	27.832	52.2707	27.832	56.6564	27.832	53.69	27.832	57.3303	27.832	54.9763	27.832	57.8554	27.832	56.0686	27.832	58.2291	27.832	56.9509	27.832	58.4471	27.832	57.6259	27.832	58.5038	27.832	58.1027	27.832	58.3919
29.2969	53.8771	29.2969	53.5072	29.2969	54.1478	29.2969	53.0881	29.2969	54.2909	29.2969	52.6991	29.2969	54.2915	29.2969	52.4504	29.2969	54.1474	29.2969	52.458	29.2969	53.8725	29.2969	52.7894	29.2969	53.5091	29.2969	53.4207	29.2969	53.1464	29.2969	54.2544	29.2969	52.9314	29.2969	55.1758	29.2969	53.0336	29.2969	56.0936	29.2969	53.5415	29.2969	56.9482	29.2969	54.3865	29.2969	57.7046	29.2969	55.3994	29.2969	58.3425	29.2969	56.4197	29.2969	58.8498	29.2969	57.3441	29.2969	59.2179	29.2969	58.1202	29.2969	59.4396	29.2969	58.7265	29.2969	59.5081	29.2969	59.1578	29.2969	59.4164
30.7617	55.2822	30.7617	54.9403	30.7617	55.5415	30.7617	54.5678	30.7617	55.6871	30.7617	54.243	30.7617	55.7038	30.7617	54.0662	30.7617	55.59	30.7617	54.1332	30.7617	55.3619	30.7617	54.4906	30.7617	55.0626	30.7617	55.108	30.7617	54.7762	30.7617	55.8986	30.7617	54.6311	30.7617	56.7643	30.7617	54.7657	30.7617	57.6258	30.7617	55.2486	30.7617	58.4297	30.7617	56.0241	30.7617	59.1432	30.7617	56.9539	30.7617	59.7462	30.7617	57.8999	30.7617	60.226	30.7617	58.7668	30.7617	60.5736	30.7617	59.502	30.7617	60.7812	30.7617	60.0815	30.7617	60.842	30.7617	60.4972	30.7617	60.7493
32.2266	55.8127	32.2266	55.5359	32.2266	56.0366	32.2266	55.2642	32.2266	56.1713	32.2266	55.0767	32.2266	56.198	32.2266	55.0621	32.2266	56.1154	32.2266	55.2876	32.2266	55.9426	32.2266	55.7667	32.2266	55.7283	32.2266	56.4516	32.2266	55.5603	32.2266	57.2612	32.2266	55.5598	32.2266	58.1139	32.2266	55.8385	32.2266	58.947	32.2266	56.4294	32.2266	59.7178	32.2266	57.2599	32.2266	60.3993	32.2266	58.2019	32.2266	60.9746	32.2266	59.1368	32.2266	61.4318	32.2266	59.9847	32.2266	61.7623	32.2266	60.7012	32.2266	61.9583	32.2266	61.2657	32.2266	62.0128	32.2266	61.6716	32.2266	61.9192
33.6914	58.1329	33.6914	57.9293	33.6914	58.2984	33.6914	57.7298	33.6914	58.398	33.6914	57.5894	33.6914	58.4174	33.6914	57.5681	33.6914	58.3564	33.6914	57.7153	33.6914	58.232	33.6914	58.0505	33.6914	58.0829	33.6914	58.5556	33.6914	57.9741	33.6914	59.1828	33.6914	57.99	33.6914	59.8737	33.6914	58.2079	33.6914	60.5746	33.6914	58.6584	33.6914	61.2429	33.6914	59.3044	33.6914	61.848	33.6914	60.0613	33.6914	62.3682	33.6914	60.8375	33.6914	62.788	33.6914	61.5607	33.6914	63.0956	33.6914	62.1843	33.6914	63.2818	33.6914	62.682	33.6914	63.3388	33.6914	63.0419	33.6914	63.2603
35.1562	59.6275	35.1562	59.4304	35.1562	59.7869	35.1562	59.2322	35.1562	59.8839	35.1562	59.0811	35.1562	59.9062	35.1562	59.0307	35.1562	59.8539	35.1562	59.1272	35.1562	59.742	35.1562	59.3942	35.1562	59.6046	35.1562	59.8231	35.1562	59.4978	35.1562	60.3767	35.1562	59.4945	35.1562	61.0039	35.1562	59.6642	35.1562	61.6535	35.1562	60.0406	35.1562	62.2832	35.1562	60.6005	35.1562	62.8605	35.1562	61.2752	35.1562	63.3618	35.1562	61.9825	35.1562	63.7699	35.1562	62.6522	35.1562	64.0719	35.1562	63.236	35.1562	64.2574	35.1562	63.705	35.1562	64.3185	35.1562	64.0444	35.1562	64.2488
36.6211	60.8103	36.6211	60.6493	36.6211	60.9476	36.6211	60.4986	36.6211	61.0379	36.6211	60.4003	36.6211	61.0695	36.6211	60.3992	36.6211	61.0423	36.6211	60.5313	36.6211	60.971	36.6211	60.8127	36.6211	60.887	36.6211	61.2331	36.6211	60.8396	36.6211	61.7603	36.6211	60.8897	36.6211	62.3507	36.6211	61.0922	36.6211	62.9605	36.6211	61.4709	36.6211	63.5521	36.6211	62.0042	36.6211	64.0958	36.6211	62.6343	36.6211	64.5694	36.6211	63.2918	36.6211	64.956	36.6211	63.9154	36.6211	65.2427	36.6211	64.4609	36.6211	65.4193	36.6211	64.9008	36.6211	65.478	36.6211	65.2201	36.6211	65.4126
38.0859	62.0366	38.0859	61.8871	38.0859	62.1642	38.0859	61.7455	38.0859	62.2496	38.0859	61.6484	38.0859	62.2822	38.0859	61.635	38.0859	62.2623	38.0859	61.7379	38.0859	62.2028	38.0859	61.9743	38.0859	62.1313	38.0859	62.3393	38.0859	62.0909	38.0859	62.808	38.0859	62.1344	38.0859	63.3434	38.0859	62.3101	38.0859	63.9056	38.0859	62.6417	38.0859	64.4586	38.0859	63.1147	38.0859	64.9727	38.0859	63.6816	38.0859	65.4246	38.0859	64.2812	38.0859	65.7966	38.0859	64.8564	38.0859	66.0749	38.0859	65.3638	38.0859	66.2487	38.0859	65.775	38.0859	66.3098	38.0859	66.0736	38.0859	66.2523
39.5508	63.3512	39.5508	63.2173	39.5508	63.4667	39.5508	63.0908	39.5508	63.5456	39.5508	63.0033	39.5508	63.5784	39.5508	62.9882	39.5508	63.5653	39.5508	63.0735	39.5508	63.5175	39.5508	63.2751	39.5508	63.4588	39.5508	63.591	39.5508	63.4256	39.5508	64.0022	39.5508	63.4627	39.5508	64.4784	39.5508	63.6116	39.5508	64.9849	39.5508	63.895	39.5508	65.4887	39.5508	64.3044	39.5508	65.9615	39.5508	64.803	39.5508	66.3803	39.5508	65.3387	39.5508	66.7269	39.5508	65.86	39.5508	66.9871	39.5508	66.3255	39.5508	67.1498	39.5508	66.7063	39.5508	67.2068	39.5508	66.9849	39.5508	67.1525
41.0156	64.4503	41.0156	64.3286	41.0156	64.5571	41.0156	64.2152	41.0156	64.6329	41.0156	64.1379	41.0156	64.6693	41.0156	64.1263	41.0156	64.6668	41.0156	64.2054	41.0156	64.6359	41.0156	64.3898	41.0156	64.5981	41.0156	64.6794	41.0156	64.5857	41.0156	65.0587	41.0156	64.6373	41.0156	65.5013	41.0156	64.7885	41.0156	65.9763	41.0156	65.0581	41.0156	66.4528	41.0156	65.4392	41.0156	66.9037	41.0156	65.9002	41.0156	67.3061	41.0156	66.3955	41.0156	67.6419	41.0156	66.8787	41.0156	67.8965	41.0156	67.3111	41.0156	68.0587	41.0156	67.6649	41.0156	68.1201	41.0156	67.9227	41.0156	68.0754
42.4805	65.4735	42.4805	65.3722	42.4805	65.568	42.4805	65.2846	42.4805	65.6408	42.4805	65.235	42.4805	65.6841	42.4805	65.248	42.4805	65.6983	42.4805	65.3438	42.4805	65.6925	42.4805	65.5332	42.4805	65.6854	42.4805	65.8146	42.4805	65.7044	42.4805	66.1742	42.4805	65.7813	42.4805	66.5892	42.4805	65.9445	42.4805	67.0327	42.4805	66.2085	42.4805	67.4774	42.4805	66.5669	42.4805	67.8988	42.4805	66.9932	42.4805	68.2758	42.4805	67.4489	42.4805	68.5912	42.4805	67.8937	42.4805	68.8309	42.4805	68.2929	42.4805	68.9842	42.4805	68.6207	42.4805	69.0428	42.4805	68.8601	42.4805	69.0019
43.9453	66.508	43.9453	66.4159	43.9453	66.596	43.9453	66.3371	43.9453	66.6669	43.9453	66.2924	43.9453	66.7141	43.9453	66.3027	43.9453	66.7377	43.9453	66.3857	43.9453	66.7451	43.9453	66.5513	43.9453	66.7522	43.9453	66.7995	43.9453	66.7816	43.9453	67.1198	43.9453	66.8596	43.9453	67.4933	43.9453	67.0101	43.9453	67.8967	43.9453	67.2459	43.9453	68.3053	43.9453	67.5631	43.9453	68.696	43.9453	67.9409	43.9453	69.0486	43.9453	68.347	43.9453	69.3457	43.9453	68.7462	43.9453	69.5736	43.9453	69.1066	43.9453	69.7213	43.9453	69.4037	43.9453	69.7809	43.9453	69.6206	43.9453	69.7476
45.4102	67.4606	45.4102	67.3841	45.4102	67.5374	45.4102	67.3233	45.4102	67.6032	45.4102	67.2955	45.4102	67.6518	45.4102	67.3181	45.4102	67.683	45.4102	67.4054	45.4102	67.703	45.4102	67.5654	45.4102	67.7252	45.4102	67.7981	45.4102	67.7691	45.4102	68.0947	45.4102	67.857	45.4102	68.4394	45.4102	68.0088	45.4102	68.8122	45.4102	68.2354	45.4102	69.1913	45.4102	68.5333	45.4102	69.5558	45.4102	68.8846	45.4102	69.8865	45.4102	69.2609	45.4102	70.1671	45.4102	69.6308	45.4102	70.3838	45.4102	69.9651	45.4102	70.5258	45.4102	70.2406	45.4102	70.5852	45.4102	70.4412	45.4102	70.5573
46.875	68.4765	46.875	68.4024	46.875	68.5499	46.875	68.3406	46.875	68.6131	46.875	68.3057	46.875	68.6606	46.875	68.3129	46.875	68.6918	46.875	68.3748	46.875	68.7119	46.875	68.4998	46.875	68.7318	46.875	68.6897	46.875	68.7678	46.875	68.9389	46.875	68.839	46.875	69.2353	46.875	68.9631	46.875	69.5622	46.875	69.151	46.875	69.9002	46.875	69.4016	46.875	70.2298	46.875	69.7017	46.875	70.5328	46.875	70.0276	46.875	70.7928	46.875	70.3518	46.875	70.9961	46.875	70.6473	46.875	71.1316	46.875	70.8921	46.875	71.1915	46.875	71.0699	46.875	71.1712
48.3398	69.0087	48.3398	68.9349	48.3398	69.081	48.3398	68.8722	48.3398	69.1424	48.3398	68.8358	48.3398	69.188	48.3398	68.841	48.3398	69.2182	48.3398	68.9011	48.3398	69.2388	48.3398	69.0245	48.3398	69.2613	48.3398	69.2131	48.3398	69.3019	48.3398	69.4613	48.3398	69.3791	48.3398	69.7567	48.3398	69.5093	48.3398	70.0824	48.3398	69.7018	48.3398	70.4192	48.3398	69.9545	48.3398	70.7476	48.3398	70.2536	48.3398	71.0494	48.3398	70.5759	48.3398	71.3086	48.3398	70.8947	48.3398	71.5118	48.3398	71.1841	48.3398	71.6481	48.3398	71.4229	48.3398	71.7098	48.3398	71.5955	48.3398	71.6925
51.2695	70.4352	51.2695	70.3838	51.2695	70.493	51.2695	70.3483	51.2695	70.5499	51.2695	70.3393	51.2695	70.6017	51.2695	70.3671	51.2695	70.6479	51.2695	70.44	51.2695	70.6919	51.2695	70.5627	51.2695	70.7413	51.2695	70.7355	51.2695	70.8066	51.2695	70.9536	51.2695	70.8999	51.2695	71.2079	51.2695	71.0318	51.2695	71.4855	51.2695	71.208	51.2695	71.7719	51.2695	71.4269	51.2695	72.0516	51.2695	71.6787	51.2695	72.3099	51.2695	71.9467	51.2695	72.5328	51.2695	72.2108	51.2695	72.7087	51.2695	72.4508	51.2695	72.828	51.2695	72.6491	51.2695	72.8836	51.2695	72.7923	51.2695	72.8718
52.7344	71.1762	52.7344	71.1281	52.7344	71.23	52.7344	71.0939	52.7344	71.2835	52.7344	71.0823	52.7344	71.3331	52.7344	71.1022	52.7344	71.378	52.7344	71.1609	52.7344	71.4212	52.7344	71.2632	52.7344	71.4688	52.7344	71.4102	52.7344	71.5298	52.7344	71.5987	52.7344	71.6144	52.7344	71.8217	52.7344	71.7319	52.7344	72.0686	52.7344	71.8876	52.7344	72.3265	52.7344	72.0806	52.7344	72.5815	52.7344	72.303	52.7344	72.8195	52.7344	72.5405	52.7344	73.0274	52.7344	72.7754	52.7344	73.1935	52.7344	72.9892	52.7344	73.3084	52.7344	73.1655	52.7344	73.365	52.7344	73.2917	52.7344	73.3595
54.1992	71.7314	54.1992	71.6823	54.1992	71.7846	54.1992	71.6445	54.1992	71.8363	54.1992	71.6265	54.1992	71.8834	54.1992	71.6366	54.1992	71.9256	54.1992	71.6822	54.1992	71.9656	54.1992	71.7685	54.1992	72.0092	54.1992	71.8974	54.1992	72.0647	54.1992	72.0667	54.1992	72.1415	54.1992	72.2705	54.1992	72.2483	54.1992	72.4992	54.1992	72.3902	54.1992	72.7408	54.1992	72.5666	54.1992	72.9819	54.1992	72.7705	54.1992	73.2089	54.1992	72.989	54.1992	73.4087	54.1992	73.2055	54.1992	73.5699	54.1992	73.4028	54.1992	73.683	54.1992	73.5651	54.1992	73.741	54.1992	73.6803	54.1992	73.7402
55.6641	72.1309	55.6641	72.0813	55.6641	72.1853	55.6641	72.0435	55.6641	72.2393	55.6641	72.0252	55.6641	72.2899	55.6641	72.0346	55.6641	72.3368	55.6641	72.0787	55.6641	72.3825	55.6641	72.1623	55.6641	72.4323	55.6641	72.2871	55.6641	72.4936	55.6641	72.4511	55.6641	72.575	55.6641	72.6487	55.6641	72.6839	55.6641	72.8707	55.6641	72.8245	55.6641	73.1056	55.6641	72.9959	55.6641	73.3406	55.6641	73.1915	55.6641	73.5625	55.6641	73.399	55.6641	73.7588	55.6641	73.6033	55.6641	73.9183	55.6641	73.7883	55.6641	74.0319	55.6641	73.9393	55.6641	74.0927	55.6641	74.0448	55.6641	74.0971
58.5938	73.0385	58.5938	72.9978	58.5938	73.0878	58.5938	72.9712	58.5938	73.1412	58.5938	72.9647	58.5938	73.1961	58.5938	72.9841	58.5938	73.252	58.5938	73.0345	58.5938	73.3101	58.5938	73.1189	58.5938	73.374	58.5938	73.238	58.5938	73.4487	58.5938	73.3896	58.5938	73.5397	58.5938	73.5688	58.5938	73.6517	58.5938	73.768	58.5938	73.787	58.5938	73.9779	58.5938	73.9444	58.5938	74.1876	58.5938	74.118	58.5938	74.3862	58.5938	74.2983	58.5938	74.5629	58.5938	74.4733	58.5938	74.7078	58.5938	74.6298	58.5938	74.8129	58.5938	74.756	58.5938	74.872	58.5938	74.8422	58.5938	74.8819
60.0586	73.4508	60.0586	73.4115	60.0586	73.4985	60.0586	73.3856	60.0586	73.5508	60.0586	73.3782	60.0586	73.6053	60.0586	73.3949	60.0586	73.6613	60.0586	73.4399	60.0586	73.7201	60.0586	73.5162	60.0586	73.7844	60.0586	73.6246	60.0586	73.8585	60.0586	73.7635	60.0586	73.9469	60.0586	73.9284	60.0586	74.0535	60.0586	74.1127	60.0586	74.1801	60.0586	74.3079	60.0586	74.3255	60.0586	74.5041	60.0586	74.4846	60.0586	74.6909	60.0586	74.6489	60.0586	74.8581	60.0586	74.8076	60.0586	74.9965	60.0586	74.949	60.0586	75.0982	60.0586	75.0621	60.0586	75.1574	60.0586	75.1381	60.0586	75.1708
62.9883	74.19	62.9883	74.1546	62.9883	74.2367	62.9883	74.134	62.9883	74.2915	62.9883	74.1322	62.9883	74.3523	62.9883	74.153	62.9883	74.4181	62.9883	74.1994	62.9883	74.4891	62.9883	74.2732	62.9883	74.5666	62.9883	74.3747	62.9883	74.6526	62.9883	74.5023	62.9883	74.7496	62.9883	74.6522	62.9883	74.8594	62.9883	74.8191	62.9883	74.9824	62.9883	74.9957	62.9883	75.1169	62.9883	75.1739	62.9883	75.2585	62.9883	75.3449	62.9883	75.4005	62.9883	75.4997	62.9883	75.5342	62.9883	75.6303	62.9883	75.6504	62.9883	75.7294	62.9883	75.7402	62.9883	75.7919	62.9883	75.7965	62.9883	75.8144
64.4531	74.5866	64.4531	74.5517	64.4531	74.6325	64.4531	74.5308	64.4531	74.6866	64.4531	74.5274	64.4531	74.7469	64.4531	74.5446	64.4531	74.8124	64.4531	74.585	64.4531	74.8828	64.4531	74.6502	64.4531	74.959	64.4531	74.7405	64.4531	75.0424	64.4531	74.8547	64.4531	75.1346	64.4531	74.9897	64.4531	75.237	64.4531	75.1409	64.4531	75.3498	64.4531	75.302	64.4531	75.4714	64.4531	75.4657	64.4531	75.5981	64.4531	75.624	64.4531	75.7239	64.4531	75.7687	64.4531	75.8414	64.4531	75.892	64.4531	75.9424	64.4531	75.9874	64.4531	76.019	64.4531	76.0497	64.4531	76.0649	64.4531	76.0758
67.3828	75.2743	67.3828	75.2395	67.3828	75.3194	67.3828	75.2175	67.3828	75.3726	67.3828	75.2109	67.3828	75.4322	67.3828	75.2222	67.3828	75.4971	67.3828	75.2534	67.3828	75.5667	67.3828	75.306	67.3828	75.6412	67.3828	75.3802	67.3828	75.721	67.3828	75.4751	67.3828	75.807	67.3828	75.5886	67.3828	75.8995	67.3828	75.717	67.3828	75.9982	67.3828	75.8553	67.3828	76.1015	67.3828	75.9974	67.3828	76.2064	67.3828	76.1367	67.3828	76.3081	67.3828	76.266	67.3828	76.4008	67.3828	76.3786	67.3828	76.4782	67.3828	76.4684	67.3828	76.5342	67.3828	76.5308	67.3828	76.5635	67.3828	76.5628
68.8477	75.5861	68.8477	75.5537	68.8477	75.6284	68.8477	75.5336	68.8477	75.6789	68.8477	75.5277	68.8477	75.736	68.8477	75.5384	68.8477	75.7988	68.8477	75.5672	68.8477	75.8665	68.8477	75.6155	68.8477	75.9391	68.8477	75.6833	68.8477	76.0166	68.8477	75.7702	68.8477	76.0995	68.8477	75.8741	68.8477	76.1876	68.8477	75.9919	68.8477	76.2804	68.8477	76.1191	68.8477	76.3763	68.8477	76.2505	68.8477	76.4724	68.8477	76.3797	68.8477	76.5647	68.8477	76.5005	68.8477	76.6479	68.8477	76.6064	68.8477	76.7165	68.8477	76.6918	68.8477	76.7649	68.8477	76.7522	68.8477	76.7887	68.8477	76.7848
71.7773	76.2135	71.7773	76.1826	71.7773	76.2553	71.7773	76.1638	71.7773	76.3065	71.7773	76.1585	71.7773	76.366	71.7773	76.1681	71.7773	76.4326	71.7773	76.1936	71.7773	76.5051	71.7773	76.2356	71.7773	76.5826	71.7773	76.2944	71.7773	76.6642	71.7773	76.3693	71.7773	76.7487	71.7773	76.459	71.7773	76.8352	71.7773	76.5611	71.7773	76.9222	71.7773	76.6723	71.7773	77.0079	71.7773	76.7882	71.7773	77.0898	71.7773	76.9039	71.7773	77.1645	71.7773	77.0141	71.7773	77.2284	71.7773	77.1132	71.7773	77.2772	71.7773	77.1964	71.7773	77.3072	71.7773	77.2594	71.7773	77.3153	71.7773	77.2995
74.707	76.8357	74.707	76.8042	74.707	76.8779	74.707	76.7844	74.707	76.9296	74.707	76.777	74.707	76.9899	74.707	76.7828	74.707	77.0571	74.707	76.8023	74.707	77.13	74.707	76.836	74.707	77.2069	74.707	76.8838	74.707	77.2862	74.707	76.9453	74.707	77.3662	74.707	77.0196	74.707	77.4453	74.707	77.1049	74.707	77.5218	74.707	77.1989	74.707	77.5939	74.707	77.2983	74.707	77.6594	74.707	77.3992	74.707	77.716	74.707	77.4972	74.707	77.7609	74.707	77.5877	74.707	77.7915	74.707	77.6664	74.707	77.8052	74.707	77.7297	74.707	77.7999	74.707	77.7747
77.6367	77.3897	77.6367	77.3582	77.6367	77.4312	77.6367	77.337	77.6367	77.4817	77.6367	77.3268	77.6367	77.5403	77.6367	77.328	77.6367	77.6057	77.6367	77.3408	77.6367	77.6764	77.6367	77.3655	77.6367	77.7506	77.6367	77.4021	77.6367	77.8263	77.6367	77.4505	77.6367	77.9014	77.6367	77.5101	77.6367	77.9737	77.6367	77.5798	77.6367	78.0412	77.6367	77.6579	77.6367	78.1019	77.6367	77.7421	77.6367	78.1539	77.6367	77.8294	77.6367	78.1953	77.6367	77.9164	77.6367	78.2243	77.6367	77.9992	77.6367	78.2391	77.6367	78.0741	77.6367	78.2384	77.6367	78.1377	77.6367	78.2212	77.6367	78.1874
79.1016	77.6411	79.1016	77.6103	79.1016	77.6817	79.1016	77.5899	79.1016	77.7315	79.1016	77.5799	79.1016	77.7897	79.1016	77.5806	79.1016	77.8551	79.1016	77.5922	79.1016	77.9259	79.1016	77.6147	79.1016	78.0003	79.1016	77.6481	79.1016	78.0759	79.1016	77.6922	79.1016	78.1505	79.1016	77.7467	79.1016	78.2215	79.1016	77.8106	79.1016	78.2868	79.1016	77.8828	79.1016	78.3442	79.1016	77.9611	79.1016	78.3918	79.1016	78.0431	79.1016	78.428	79.1016	78.1258	79.1016	78.4511	79.1016	78.2056	79.1016	78.4601	79.1016	78.2791	79.1016	78.4538	79.1016	78.343	79.1016	78.4319	79.1016	78.3946
82.0312	78.1904	82.0312	78.159	82.0312	78.2313	82.0312	78.1373	82.0312	78.2813	82.0312	78.1252	82.0312	78.3398	82.0312	78.1226	82.0312	78.4054	82.0312	78.1294	82.0312	78.4763	82.0312	78.1456	82.0312	78.5503	82.0312	78.171	82.0312	78.6248	82.0312	78.2058	82.0312	78.6969	82.0312	78.2499	82.0312	78.7638	82.0312	78.3027	82.0312	78.823	82.0312	78.3636	82.0312	78.8722	82.0312	78.4313	82.0312	78.9098	82.0312	78.504	82.0312	78.9344	82.0312	78.5792	82.0312	78.9451	82.0312	78.6542	82.0312	78.9416	82.0312	78.7259	82.0312	78.9238	82.0312	78.7911	82.0312	78.892	82.0312	78.8472
84.9609	78.5597	84.9609	78.5313	84.9609	78.5992	84.9609	78.5141	84.9609	78.6499	84.9609	78.5075	84.9609	78.7109	84.9609	78.511	84.9609	78.7811	84.9609	78.5241	84.9609	78.8586	84.9609	78.5463	84.9609	78.9407	84.9609	78.5772	84.9609	79.0244	84.9609	78.6164	84.9609	79.1061	84.9609	78.6636	84.9609	79.1823	84.9609	78.7185	84.9609	79.2496	84.9609	78.7805	84.9609	79.3053	84.9609	78.8485	84.9609	79.347	84.9609	78.9211	84.9609	79.3735	84.9609	78.9964	84.9609	79.3839	84.9609	79.072	84.9609	79.3781	84.9609	79.1451	84.9609	79.3568	84.9609	79.2129	84.9609	79.321	84.9609	79.2723
87.8906	79.0956	87.8906	79.0693	87.8906	79.1352	87.8906	79.0553	87.8906	79.1881	87.8906	79.0525	87.8906	79.2536	87.8906	79.0593	87.8906	79.3299	87.8906	79.0745	87.8906	79.4144	87.8906	79.0966	87.8906	79.5033	87.8906	79.1247	87.8906	79.5921	87.8906	79.1582	87.8906	79.6765	87.8906	79.1969	87.8906	79.752	87.8906	79.2407	87.8906	79.8147	87.8906	79.2897	87.8906	79.8619	87.8906	79.344	87.8906	79.8917	87.8906	79.4034	87.8906	79.9035	87.8906	79.4671	87.8906	79.8977	87.8906	79.5339	87.8906	79.8756	87.8906	79.6022	87.8906	79.8392	87.8906	79.6695	87.8906	79.7909	87.8906	79.7334
90.8203	79.8736	90.8203	79.8434	90.8203	79.9104	90.8203	79.8188	90.8203	79.954	90.8203	79.7985	90.8203	80.0041	90.8203	79.7813	90.8203	80.0592	90.8203	79.7662	90.8203	80.117	90.8203	79.7526	90.8203	80.1748	90.8203	79.7404	90.8203	80.2291	90.8203	79.7305	90.8203	80.2764	90.8203	79.7239	90.8203	80.3132	90.8203	79.7224	90.8203	80.3367	90.8203	79.7278	90.8203	80.3448	90.8203	79.7416	90.8203	80.3367	90.8203	79.7654	90.8203	80.3124	90.8203	79.7997	90.8203	80.2734	90.8203	79.8444	90.8203	80.2221	90.8203	79.8986	90.8203	80.1614	90.8203	79.9603	90.8203	80.0951	90.8203	80.0269
95.2148	80.3406	95.2148	80.3016	95.2148	80.3863	95.2148	80.2687	95.2148	80.439	95.2148	80.2415	95.2148	80.4987	95.2148	80.2196	95.2148	80.5646	95.2148	80.2031	95.2148	80.6349	95.2148	80.1919	95.2148	80.7069	95.2148	80.1862	95.2148	80.7768	95.2148	80.1865	95.2148	80.8401	95.2148	80.1932	95.2148	80.8923	95.2148	80.2071	95.2148	80.9293	95.2148	80.2288	95.2148	80.9481	95.2148	80.259	95.2148	80.9468	95.2148	80.2982	95.2148	80.9257	95.2148	80.3465	95.2148	80.8863	95.2148	80.4037	95.2148	80.8316	95.2148	80.4689	95.2148	80.7655	95.2148	80.5404	95.2148	80.6921	95.2148	80.6159
98.1445	80.7521	98.1445	80.7138	98.1445	80.8005	98.1445	80.6848	98.1445	80.859	98.1445	80.6644	98.1445	80.9268	98.1445	80.6513	98.1445	81.0022	98.1445	80.6444	98.1445	81.0825	98.1445	80.6427	98.1445	81.164	98.1445	80.6455	98.1445	81.242	98.1445	80.6525	98.1445	81.3119	98.1445	80.6637	98.1445	81.3686	98.1445	80.6798	98.1445	81.4082	98.1445	80.7015	98.1445	81.4277	98.1445	80.7301	98.1445	81.4258	98.1445	80.7667	98.1445	81.4026	98.1445	80.8121	98.1445	81.3604	98.1445	80.8669	98.1445	81.3023	98.1445	80.9305	98.1445	81.2328	98.1445	81.0017	98.1445	81.1566	98.1445	81.0782
101.074	81.1463	101.074	81.1118	101.074	81.1912	101.074	81.0871	101.074	81.2469	101.074	81.0707	101.074	81.3127	101.074	81.0612	101.074	81.387	101.074	81.0572	101.074	81.4671	101.074	81.0574	101.074	81.5493	101.074	81.0609	101.074	81.6292	101.074	81.0673	101.074	81.7016	101.074	81.0768	101.074	81.7617	101.074	81.0901	101.074	81.8049	101.074	81.1086	101.074	81.8279	101.074	81.1338	101.074	81.8289	101.074	81.1673	101.074	81.8078	101.074	81.2105	101.074	81.7665	101.074	81.264	101.074	81.7081	101.074	81.3277	101.074	81.6373	101.074	81.4	101.074	81.559	101.074	81.4783
105.469	81.9049	105.469	81.8692	105.469	81.9492	105.469	81.8411	105.469	82.0025	105.469	81.8188	105.469	82.0643	105.469	81.8006	105.469	82.1329	105.469	81.7849	105.469	82.2056	105.469	81.7702	105.469	82.2787	105.469	81.7558	105.469	82.3476	105.469	81.7417	105.469	82.4072	105.469	81.7288	105.469	82.4525	105.469	81.7186	105.469	82.4792	105.469	81.7133	105.469	82.4839	105.469	81.7159	105.469	82.4652	105.469	81.7291	105.469	82.4233	105.469	81.7554	105.469	82.3609	105.469	81.7967	105.469	82.2823	105.469	81.8536	105.469	82.1931	105.469	81.9251	105.469	82.0997	105.469	82.0085
108.398	82.3032	108.398	82.268	108.398	82.3457	108.398	82.2392	108.398	82.3959	108.398	82.2157	108.398	82.4535	108.398	82.196	108.398	82.5174	108.398	82.1789	108.398	82.5854	108.398	82.1633	108.398	82.6543	108.398	82.1485	108.398	82.72	108.398	82.1344	108.398	82.7777	108.398	82.1216	108.398	82.8223	108.398	82.1115	108.398	82.8493	108.398	82.1061	108.398	82.8552	108.398	82.108	108.398	82.838	108.398	82.12	108.398	82.7979	108.398	82.1448	108.398	82.7372	108.398	82.1843	108.398	82.6601	108.398	82.2392	108.398	82.5723	108.398	82.3089	108.398	82.4803	108.398	82.3906
112.793	82.989	112.793	82.958	112.793	83.0277	112.793	82.9333	112.793	83.0748	112.793	82.9127	112.793	83.1296	112.793	82.8937	112.793	83.1903	112.793	82.874	112.793	83.2538	112.793	82.8518	112.793	83.3163	112.793	82.8259	112.793	83.3732	112.793	82.7964	112.793	83.4195	112.793	82.7644	112.793	83.4505	112.793	82.7323	112.793	83.462	112.793	82.7032	112.793	83.451	112.793	82.6813	112.793	83.4162	112.793	82.6709	112.793	83.3584	112.793	82.6761	112.793	83.2807	112.793	82.7	112.793	83.1882	112.793	82.7443	112.793	83.0874	112.793	82.8088	112.793	82.9858	112.793	82.8908
117.188	83.6438	117.188	83.6022	117.188	83.6869	117.188	83.5612	117.188	83.7316	117.188	83.5199	117.188	83.7776	117.188	83.4767	117.188	83.8236	117.188	83.4306	117.188	83.868	117.188	83.3806	117.188	83.908	117.188	83.3267	117.188	83.9402	117.188	83.2696	117.188	83.9609	117.188	83.2108	117.188	83.9658	117.188	83.1532	117.188	83.9509	117.188	83.1004	117.188	83.9136	117.188	83.0568	117.188	83.8526	117.188	83.0272	117.188	83.7691	117.188	83.0162	117.188	83.6669	117.188	83.0277	117.188	83.5519	117.188	83.0643	117.188	83.4321	117.188	83.1264	117.188	83.316	117.188	83.2118
120.117	83.9186	120.117	83.8821	120.117	83.9564	120.117	83.8459	120.117	83.9965	120.117	83.8089	120.117	84.0389	120.117	83.7697	120.117	84.0835	120.117	83.7274	120.117	84.1289	120.117	83.6814	120.117	84.173	120.117	83.6316	120.117	84.2124	120.117	83.579	120.117	84.2428	120.117	83.5251	120.117	84.2594	120.117	83.4726	120.117	84.2572	120.117	83.4251	120.117	84.2325	120.117	83.3868	120.117	84.1832	120.117	83.3624	120.117	84.1096	120.117	83.3563	120.117	84.015	120.117	83.3725	120.117	83.9051	120.117	83.4133	120.117	83.788	120.117	83.4788	120.117	83.6723	120.117	83.5669
124.512	84.2862	124.512	84.2516	124.512	84.324	124.512	84.2191	124.512	84.3661	124.512	84.1876	124.512	84.4136	124.512	84.1566	124.512	84.4667	124.512	84.1255	124.512	84.5249	124.512	84.094	124.512	84.5859	124.512	84.0621	124.512	84.6458	124.512	84.0302	124.512	84.6994	124.512	83.9993	124.512	84.7406	124.512	83.9711	124.512	84.7633	124.512	83.9479	124.512	84.7626	124.512	83.9329	124.512	84.7355	124.512	83.9297	124.512	84.6817	124.512	83.9421	124.512	84.604	124.512	83.9732	124.512	84.5077	124.512	84.0249	124.512	84.4006	124.512	84.0972	124.512	84.291	124.512	84.1875
128.906	84.8017	128.906	84.7629	128.906	84.8457	128.906	84.728	128.906	84.8959	128.906	84.6953	128.906	84.9525	128.906	84.6633	128.906	85.0149	128.906	84.6305	128.906	85.0808	128.906	84.5958	128.906	85.1468	128.906	84.5586	128.906	85.2081	128.906	84.5189	128.906	85.2589	128.906	84.4777	128.906	85.2929	128.906	84.437	128.906	85.3044	128.906	84.4001	128.906	85.289	128.906	84.371	128.906	85.2446	128.906	84.3546	128.906	85.1717	128.906	84.3558	128.906	85.0742	128.906	84.379	128.906	84.9587	128.906	84.4268	128.906	84.8341	128.906	84.5	128.906	84.7101	128.906	84.5962
133.301	85.2136	133.301	85.1729	133.301	85.2591	133.301	85.1359	133.301	85.3101	133.301	85.1014	133.301	85.3665	133.301	85.0676	133.301	85.4274	133.301	85.0331	133.301	85.4908	133.301	84.9967	133.301	85.5537	133.301	84.9575	133.301	85.6118	133.301	84.9156	133.301	85.6599	133.301	84.8719	133.301	85.6921	133.301	84.8285	133.301	85.7027	133.301	84.7889	133.301	85.6871	133.301	84.7572	133.301	85.6427	133.301	84.7387	133.301	85.5697	133.301	84.7385	133.301	85.4715	133.301	84.7613	133.301	85.3544	133.301	84.8099	133.301	85.2275	133.301	84.8848	133.301	85.1006	133.301	84.9836
139.16	85.7027	139.16	85.6586	139.16	85.7508	139.16	85.6178	139.16	85.8033	139.16	85.5792	139.16	85.86	139.16	85.5417	139.16	85.9201	139.16	85.5039	139.16	85.9821	139.16	85.4649	139.16	86.0432	139.16	85.4239	139.16	86.0995	139.16	85.3809	139.16	86.1462	139.16	85.3371	139.16	86.1776	139.16	85.2943	139.16	86.188	139.16	85.2559	139.16	86.1727	139.16	85.2262	139.16	86.129	139.16	85.2102	139.16	86.0568	139.16	85.2129	139.16	85.9592	139.16	85.2387	139.16	85.8425	139.16	85.2903	139.16	85.7154	139.16	85.3681	139.16	85.5877	139.16	85.4691
143.555	86.0291	143.555	85.9823	143.555	86.0791	143.555	85.9383	143.555	86.1326	143.555	85.8962	143.555	86.1897	143.555	85.8551	143.555	86.2495	143.555	85.8138	143.555	86.3108	143.555	85.7714	143.555	86.371	143.555	85.7275	143.555	86.4265	143.555	85.6821	143.555	86.4724	143.555	85.6361	143.555	86.5029	143.555	85.5918	143.555	86.5124	143.555	85.5523	143.555	86.4959	143.555	85.522	143.555	86.4506	143.555	85.506	143.555	86.3763	143.555	85.5093	143.555	86.2762	143.555	85.5363	143.555	86.1566	143.555	85.5898	143.555	86.0263	143.555	85.6699	143.555	85.8954	143.555	85.7737
147.949	86.3329	147.949	86.2813	147.949	86.3854	147.949	86.2301	147.949	86.439	147.949	86.1788	147.949	86.4939	147.949	86.1269	147.949	86.5499	147.949	86.0739	147.949	86.6058	147.949	86.0192	147.949	86.6597	147.949	85.9629	147.949	86.7081	147.949	85.9054	147.949	86.7463	147.949	85.8483	147.949	86.7689	147.949	85.7939	147.949	86.7699	147.949	85.7459	147.949	86.7446	147.949	85.7089	147.949	86.6901	147.949	85.6881	147.949	86.6065	147.949	85.6887	147.949	86.4969	147.949	85.7152	147.949	86.3682	147.949	85.7702	147.949	86.2294	147.949	85.8537	147.949	86.0907	147.949	85.9626
153.809	86.6078	153.809	86.553	153.809	86.6631	153.809	86.4983	153.809	86.7189	153.809	86.4435	153.809	86.7753	153.809	86.3878	153.809	86.8317	153.809	86.3308	153.809	86.8871	153.809	86.2717	153.809	86.9397	153.809	86.2103	153.809	86.9861	153.809	86.1471	153.809	87.0217	153.809	86.0834	153.809	87.0409	153.809	86.0218	153.809	87.0378	153.809	85.9663	153.809	87.0073	153.809	85.9218	153.809	86.9464	153.809	85.8944	153.809	86.855	153.809	85.8898	153.809	86.7367	153.809	85.9132	153.809	86.5984	153.809	85.9677	153.809	86.45	153.809	86.0534	153.809	86.3026	153.809	86.1673
159.668	86.7859	159.668	86.7297	159.668	86.8427	159.668	86.6739	159.668	86.9	159.668	86.6186	159.668	86.9579	159.668	86.5634	159.668	87.0161	159.668	86.5078	159.668	87.0739	159.668	86.4511	159.668	87.1292	159.668	86.3928	159.668	87.179	159.668	86.333	159.668	87.2183	159.668	86.2727	159.668	87.2415	159.668	86.2142	159.668	87.2422	159.668	86.1614	159.668	87.2153	159.668	86.1194	159.668	87.1576	159.668	86.0943	159.668	87.0689	159.668	86.0924	159.668	86.9527	159.668	86.1188	159.668	86.8157	159.668	86.1765	159.668	86.6676	159.668	86.2655	159.668	86.5193	159.668	86.3821
165.527	87.0474	165.527	86.997	165.527	87.1013	165.527	86.9499	165.527	87.1583	165.527	86.9057	165.527	87.2181	165.527	86.8637	165.527	87.28	165.527	86.8226	165.527	87.3427	165.527	86.7807	165.527	87.4036	165.527	86.7364	165.527	87.4593	165.527	86.6888	165.527	87.5045	165.527	86.638	165.527	87.533	165.527	86.5859	165.527	87.5385	165.527	86.5359	165.527	87.5154	165.527	86.4933	165.527	87.4607	165.527	86.4648	165.527	87.3747	165.527	86.457	165.527	87.2613	165.527	86.4759	165.527	87.1281	165.527	86.5251	165.527	86.9849	165.527	86.6052	165.527	86.843	165.527	86.7134
171.387	87.1604	171.387	87.1026	171.387	87.2158	171.387	87.0432	171.387	87.2676	171.387	86.9832	171.387	87.3153	171.387	86.9228	171.387	87.3586	171.387	86.8617	171.387	87.3976	171.387	86.7994	171.387	87.4321	171.387	86.7354	171.387	87.4608	171.387	86.6696	171.387	87.4811	171.387	86.6029	171.387	87.4885	171.387	86.5377	171.387	87.4777	171.387	86.4776	171.387	87.4433	171.387	86.428	171.387	87.3819	171.387	86.395	171.387	87.2928	171.387	86.3847	171.387	87.1789	171.387	86.4023	171.387	87.0466	171.387	86.4507	171.387	86.9052	171.387	86.5301	171.387	86.7652	171.387	86.6372
177.246	87.1408	177.246	87.0748	177.246	87.1999	177.246	87.0038	177.246	87.2513	177.246	86.9296	177.246	87.2947	177.246	86.8541	177.246	87.3312	177.246	86.7786	177.246	87.3621	177.246	86.704	177.246	87.3881	177.246	86.6306	177.246	87.409	177.246	86.559	177.246	87.4222	177.246	86.49	177.246	87.4234	177.246	86.4253	177.246	87.4071	177.246	86.368	177.246	87.3679	177.246	86.3225	177.246	87.3024	177.246	86.294	177.246	87.21	177.246	86.2881	177.246	87.0937	177.246	86.3094	177.246	86.9601	177.246	86.3607	177.246	86.8182	177.246	86.4418	177.246	86.678	177.246	86.5497
183.105	87.0559	183.105	86.9888	183.105	87.1159	183.105	86.9157	183.105	87.1685	183.105	86.8385	183.105	87.2145	183.105	86.7589	183.105	87.2557	183.105	86.6786	183.105	87.2937	183.105	86.5985	183.105	87.3294	183.105	86.5193	183.105	87.3616	183.105	86.4417	183.105	87.3863	183.105	86.367	183.105	87.3974	183.105	86.2975	183.105	87.3876	183.105	86.2366	183.105	87.3503	183.105	86.1893	183.105	87.2812	183.105	86.1612	183.105	87.1804	183.105	86.158	183.105	87.052	183.105	86.1843	183.105	86.9042	183.105	86.2428	183.105	86.7474	183.105	86.3331	183.105	86.5931	183.105	86.452
188.965	86.9149	188.965	86.8511	188.965	86.9703	188.965	86.7796	188.965	87.0173	188.965	86.702	188.965	87.0575	188.965	86.6199	188.965	87.0929	188.965	86.5348	188.965	87.126	188.965	86.448	188.965	87.1583	188.965	86.3604	188.965	87.1892	188.965	86.2732	188.965	87.2154	188.965	86.1884	188.965	87.2307	188.965	86.1092	188.965	87.2274	188.965	86.0402	188.965	87.1978	188.965	85.9875	188.965	87.1363	188.965	85.9576	188.965	87.0415	188.965	85.9569	188.965	86.9163	188.965	85.9898	188.965	86.7679	188.965	86.0582	188.965	86.6065	188.965	86.1605	188.965	86.4439	188.965	86.2918
196.289	86.8201	196.289	86.7566	196.289	86.8722	196.289	86.6832	196.289	86.9122	196.289	86.6023	196.289	86.9414	196.289	86.5161	196.289	86.9621	196.289	86.4267	196.289	86.9776	196.289	86.3352	196.289	86.9909	196.289	86.2426	196.289	87.0029	196.289	86.1497	196.289	87.0116	196.289	86.0578	196.289	87.0118	196.289	85.9698	196.289	86.9959	196.289	85.8898	196.289	86.9562	196.289	85.824	196.289	86.8869	196.289	85.7793	196.289	86.7864	196.289	85.763	196.289	86.6577	196.289	85.7805	196.289	86.5083	196.289	85.8346	196.289	86.3486	196.289	85.9245	196.289	86.1905	196.289	86.0457
203.613	86.6255	203.613	86.5575	203.613	86.6764	203.613	86.4744	203.613	86.7098	203.613	86.3795	203.613	86.7277	203.613	86.2768	203.613	86.7338	203.613	86.17	203.613	86.7331	203.613	86.0624	203.613	86.7304	203.613	85.9567	203.613	86.7289	203.613	85.8553	203.613	86.7283	203.613	85.7602	203.613	86.7247	203.613	85.6742	203.613	86.7107	203.613	85.6012	203.613	86.678	203.613	85.5462	203.613	86.6196	203.613	85.5148	203.613	86.532	203.613	85.5125	203.613	86.4164	203.613	85.5433	203.613	86.2787	203.613	85.6084	203.613	86.1278	203.613	85.706	203.613	85.9749	203.613	85.8309
210.938	86.5021	210.938	86.4294	210.938	86.5565	210.938	86.3409	210.938	86.5919	210.938	86.2402	210.938	86.6094	210.938	86.1313	210.938	86.6124	210.938	86.0181	210.938	86.6055	210.938	85.904	210.938	86.5935	210.938	85.7916	210.938	86.5797	210.938	85.683	210.938	86.5643	210.938	85.5803	210.938	86.5441	210.938	85.4861	210.938	86.5127	210.938	85.4044	210.938	86.463	210.938	85.3405	210.938	86.3893	210.938	85.3004	210.938	86.2896	210.938	85.29	210.938	86.1658	210.938	85.3135	210.938	86.0242	210.938	85.3722	210.938	85.8732	210.938	85.464	210.938	85.723	210.938	85.5835
218.262	86.1654	218.262	86.0962	218.262	86.2195	218.262	86.0145	218.262	86.2575	218.262	85.924	218.262	86.2803	218.262	85.8286	218.262	86.2914	218.262	85.7317	218.262	86.2954	218.262	85.6358	218.262	86.2973	218.262	85.5427	218.262	86.3003	218.262	85.4534	218.262	86.304	218.262	85.3691	218.262	86.3037	218.262	85.2915	218.262	86.2916	218.262	85.2241	218.262	86.2589	218.262	85.1714	218.262	86.1989	218.262	85.1395	218.262	86.1092	218.262	85.134	218.262	85.9924	218.262	85.1596	218.262	85.8555	218.262	85.218	218.262	85.7081	218.262	85.3079	218.262	85.5611	218.262	85.4246
225.586	85.9165	225.586	85.842	225.586	85.972	225.586	85.7523	225.586	86.0066	225.586	85.6522	225.586	86.0212	225.586	85.5467	225.586	86.0195	225.586	85.4399	225.586	86.0078	225.586	85.335	225.586	85.993	225.586	85.2339	225.586	85.9806	225.586	85.1382	225.586	85.9723	225.586	85.0496	225.586	85.965	225.586	84.9706	225.586	85.9516	225.586	84.9054	225.586	85.9232	225.586	84.8594	225.586	85.8729	225.586	84.8385	225.586	85.7973	225.586	84.8474	225.586	85.6976	225.586	84.8886	225.586	85.5787	225.586	84.961	225.586	85.4474	225.586	85.0604	225.586	85.3117	225.586	85.18
232.91	85.7201	232.91	85.6446	232.91	85.7702	232.91	85.5485	232.91	85.7928	232.91	85.4376	232.91	85.789	232.91	85.318	232.91	85.764	232.91	85.195	232.91	85.726	232.91	85.0724	232.91	85.6846	232.91	84.9527	232.91	85.6479	232.91	84.8379	232.91	85.6194	232.91	84.7302	232.91	85.5965	232.91	84.6328	232.91	85.5715	232.91	84.5506	232.91	85.5343	232.91	84.49	232.91	85.4769	232.91	84.4575	232.91	85.3954	232.91	84.4581	232.91	85.2914	232.91	84.4938	232.91	85.1701	232.91	84.5625	232.91	85.0387	232.91	84.6589	232.91	84.9048	232.91	84.7756
241.699	85.3699	241.699	85.2904	241.699	85.4206	241.699	85.1879	241.699	85.44	241.699	85.0698	241.699	85.429	241.699	84.9439	241.699	85.393	241.699	84.8168	241.699	85.3407	241.699	84.6933	241.699	85.2825	241.699	84.5762	241.699	85.2275	241.699	84.4663	241.699	85.1807	241.699	84.3641	241.699	85.1408	241.699	84.2708	241.699	85.1013	241.699	84.1896	241.699	85.053	241.699	84.1259	241.699	84.9883	241.699	84.0862	241.699	84.904	241.699	84.0761	241.699	84.8018	241.699	84.0985	241.699	84.6871	241.699	84.1523	241.699	84.5665	241.699	84.2327	241.699	84.4465	241.699	84.3331
250.488	85.0228	250.488	84.9131	250.488	85.1002	250.488	84.778	250.488	85.142	250.488	84.6265	250.488	85.149	250.488	84.4681	250.488	85.1269	250.488	84.3115	250.488	85.0849	250.488	84.1631	250.488	85.034	250.488	84.0274	250.488	84.9835	250.488	83.9066	250.488	84.9379	250.488	83.8019	250.488	84.8954	250.488	83.715	250.488	84.8485	250.488	83.6486	250.488	84.7877	250.488	83.6069	250.488	84.706	250.488	83.594	250.488	84.602	250.488	83.6127	250.488	84.4798	250.488	83.6628	250.488	84.3473	250.488	83.7404	250.488	84.212	250.488	83.8396	250.488	84.0797	250.488	83.9544
259.277	85.0387	259.277	84.9383	259.277	85.1042	259.277	84.8102	259.277	85.1317	259.277	84.6645	259.277	85.1228	259.277	84.5117	259.277	85.0842	259.277	84.361	259.277	85.0263	259.277	84.2182	259.277	84.9608	259.277	84.0853	259.277	84.898	259.277	83.9615	259.277	84.8428	259.277	83.8448	259.277	84.7931	259.277	83.7347	259.277	84.7402	259.277	83.6344	259.277	84.673	259.277	83.5513	259.277	84.5829	259.277	83.4949	259.277	84.4676	259.277	83.4742	259.277	84.3317	259.277	83.4936	259.277	84.1841	259.277	83.5516	259.277	84.0342	259.277	83.6422	259.277	83.89	259.277	83.7574
268.066	84.6768	268.066	84.557	268.066	84.7614	268.066	84.4099	268.066	84.8066	268.066	84.2463	268.066	84.8128	268.066	84.0775	268.066	84.7856	268.066	83.914	268.066	84.7344	268.066	83.7632	268.066	84.6715	268.066	83.6286	268.066	84.6081	268.066	83.5104	268.066	84.5509	268.066	83.4065	268.066	84.4987	268.066	83.3155	268.066	84.4433	268.066	83.2389	268.066	84.3736	268.066	83.1813	268.066	84.2809	268.066	83.1497	268.066	84.163	268.066	83.15	268.066	84.0252	268.066	83.1848	268.066	83.8771	268.066	83.2517	268.066	83.7288	268.066	83.3452	268.066	83.5879	268.066	83.4588
276.855	84.4713	276.855	84.3559	276.855	84.548	276.855	84.2089	276.855	84.5826	276.855	84.0395	276.855	84.5757	276.855	83.8576	276.855	84.5331	276.855	83.6721	276.855	84.465	276.855	83.4901	276.855	84.3854	276.855	83.316	276.855	84.308	276.855	83.1516	276.855	84.2421	276.855	82.9984	276.855	84.1887	276.855	82.859	276.855	84.1395	276.855	82.7395	276.855	84.0807	276.855	82.6494	276.855	83.9989	276.855	82.5998	276.855	83.8866	276.855	82.5994	276.855	83.7443	276.855	82.6507	276.855	83.5789	276.855	82.749	276.855	83.4006	276.855	82.8841	276.855	83.2195	276.855	83.0444
287.109	84.1888	287.109	84.0757	287.109	84.2627	287.109	83.9322	287.109	84.2919	287.109	83.7692	287.109	84.2759	287.109	83.5983	287.109	84.2202	287.109	83.4299	287.109	84.1364	287.109	83.2719	287.109	84.0406	287.109	83.1289	287.109	83.9496	287.109	83.0015	287.109	83.8756	287.109	82.8884	287.109	83.8217	287.109	82.7885	287.109	83.7812	287.109	82.7032	287.109	83.7412	287.109	82.6381	287.109	83.6883	287.109	82.6014	287.109	83.6133	287.109	82.6013	287.109	83.5137	287.109	82.6421	287.109	83.3924	287.109	82.7222	287.109	83.2556	287.109	82.834	287.109	83.1111	287.109	82.9673
297.363	83.9852	297.363	83.8773	297.363	84.0458	297.363	83.7335	297.363	84.0524	297.363	83.5677	297.363	84.0049	297.363	83.3938	297.363	83.911	297.363	83.2227	297.363	83.7864	297.363	83.0609	297.363	83.653	297.363	82.9092	297.363	83.5333	297.363	82.7654	297.363	83.4427	297.363	82.6273	297.363	83.3846	297.363	82.4957	297.363	83.3495	297.363	82.3776	297.363	83.3209	297.363	82.2856	297.363	83.2829	297.363	82.2341	297.363	83.2259	297.363	82.2342	297.363	83.1467	297.363	82.2877	297.363	83.0467	297.363	82.3862	297.363	82.929	297.363	82.5145	297.363	82.797	297.363	82.656
307.617	83.8838	307.617	83.7537	307.617	83.9545	307.617	83.5755	307.617	83.9609	307.617	83.3652	307.617	83.9049	307.617	83.1412	307.617	83.7967	307.617	82.9212	307.617	83.6535	307.617	82.7192	307.617	83.4977	307.617	82.5423	307.617	83.3517	307.617	82.3904	307.617	83.2312	307.617	82.2589	307.617	83.14	307.617	82.1433	307.617	83.07	307.617	82.0438	307.617	83.0072	307.617	81.9673	307.617	82.9396	307.617	81.9257	307.617	82.8619	307.617	81.9302	307.617	82.7744	307.617	81.9841	307.617	82.6788	307.617	82.08	307.617	82.5746	307.617	82.2024	307.617	82.4594	307.617	82.3333
319.336	83.5629	319.336	83.4109	319.336	83.6557	319.336	83.2145	319.336	83.6805	319.336	82.9929	319.336	83.636	319.336	82.7673	319.336	83.5297	319.336	82.5573	319.336	83.3794	319.336	82.3769	319.336	83.2113	319.336	82.2311	319.336	83.0552	319.336	82.1157	319.336	82.9343	319.336	82.0208	319.336	82.8563	319.336	81.9362	319.336	82.8102	319.336	81.8578	319.336	82.774	319.336	81.79	319.336	82.7265	319.336	81.7446	319.336	82.6565	319.336	81.7351	319.336	82.5639	319.336	81.7698	319.336	82.4548	319.336	81.8468	319.336	82.3353	319.336	81.9552	319.336	82.2093	319.336	82.0802
329.59	83.2771	329.59	83.1193	329.59	83.3646	329.59	82.9038	329.59	83.3747	329.59	82.6481	329.59	83.3068	329.59	82.3738	329.59	83.1681	329.59	82.1036	329.59	82.9746	329.59	81.8582	329.59	82.7518	329.59	81.6519	329.59	82.5303	329.59	81.4898	329.59	82.3391	329.59	81.3687	329.59	82.1948	329.59	81.2817	329.59	82.0975	329.59	81.2241	329.59	82.0334	329.59	81.1966	329.59	81.9859	329.59	81.2043	329.59	81.9433	329.59	81.2513	329.59	81.9012	329.59	81.335	329.59	81.8577	329.59	81.4433	329.59	81.8085	329.59	81.5581	329.59	81.7457	329.59	81.6622
341.309	83.0945	341.309	82.9341	341.309	83.1846	341.309	82.716	341.309	83.1978	341.309	82.4572	341.309	83.1339	341.309	82.1781	341.309	83.0018	341.309	81.9002	341.309	82.8196	341.309	81.6433	341.309	82.6143	341.309	81.4214	341.309	82.4166	341.309	81.2405	341.309	82.2513	341.309	81.0993	341.309	82.129	341.309	80.9932	341.309	82.0435	341.309	80.92	341.309	81.9777	341.309	80.8826	341.309	81.9143	341.309	80.887	341.309	81.8438	341.309	80.9371	341.309	81.7651	341.309	81.0283	341.309	81.6814	341.309	81.1466	341.309	81.5942	341.309	81.2736	341.309	81.5001	341.309	81.3938
353.027	83.096	353.027	82.9256	353.027	83.1819	353.027	82.6857	353.027	83.1736	353.027	82.395	353.027	83.0684	353.027	82.0756	353.027	82.8742	353.027	81.7513	353.027	82.6126	353.027	81.4449	353.027	82.3191	353.027	81.1742	353.027	82.038	353.027	80.9479	353.027	81.8094	353.027	80.7649	353.027	81.6537	353.027	80.6188	353.027	81.5636	353.027	80.5056	353.027	81.5116	353.027	80.4285	353.027	81.4674	353.027	80.3979	353.027	81.4113	353.027	80.4237	353.027	81.3378	353.027	80.5059	353.027	81.2501	353.027	80.6304	353.027	81.1518	353.027	80.774	353.027	81.0412	353.027	80.9149
366.211	82.7526	366.211	82.5656	366.211	82.8617	366.211	82.3191	366.211	82.8832	366.211	82.0384	366.211	82.8163	366.211	81.7525	366.211	82.6705	366.211	81.4883	366.211	82.4658	366.211	81.2634	366.211	82.2332	366.211	81.0804	366.211	82.0095	366.211	80.9275	366.211	81.8265	366.211	80.785	366.211	81.6986	366.211	80.6362	366.211	81.6166	366.211	80.4773	366.211	81.5558	366.211	80.3208	366.211	81.4894	366.211	80.1929	366.211	81.3991	366.211	80.1225	366.211	81.2768	366.211	80.1286	366.211	81.1226	366.211	80.2123	366.211	80.942	366.211	80.3583	366.211	80.7443	366.211	80.5434
379.395	82.655	379.395	82.4571	379.395	82.766	379.395	82.1905	379.395	82.7793	379.395	81.8807	379.395	82.6917	379.395	81.5602	379.395	82.5097	379.395	81.2656	379.395	82.2528	379.395	81.0319	379.395	81.9569	379.395	80.8816	379.395	81.672	379.395	80.8153	379.395	81.4486	379.395	80.8099	379.395	81.3177	379.395	80.8306	379.395	81.2782	379.395	80.8485	379.395	81.3036	379.395	80.8533	379.395	81.3592	379.395	80.8547	379.395	81.4164	379.395	80.8731	379.395	81.456	379.395	80.9267	379.395	81.4655	379.395	81.0194	379.395	81.4367	379.395	81.1388	379.395	81.367	379.395	81.2623
392.578	82.6456	392.578	82.3786	392.578	82.8022	392.578	82.025	392.578	82.8332	392.578	81.6174	392.578	82.7325	392.578	81.197	392.578	82.5061	392.578	80.81	392.578	82.179	392.578	80.5013	392.578	81.8027	392.578	80.3041	392.578	81.452	392.578	80.2297	392.578	81.2039	392.578	80.2643	392.578	81.1006	392.578	80.3778	392.578	81.13	392.578	80.538	392.578	81.2428	392.578	80.7224	392.578	81.3885	392.578	80.9206	392.578	81.5358	392.578	81.1281	392.578	81.6698	392.578	81.338	392.578	81.7797	392.578	81.5363	392.578	81.8509	392.578	81.7028	392.578	81.8669	392.578	81.8173
405.762	83.2321	405.762	82.936	405.762	83.3993	405.762	82.5336	405.762	83.4188	405.762	82.0534	405.762	83.2768	405.762	81.5332	405.762	82.969	405.762	81.0221	405.762	82.5101	405.762	80.5771	405.762	81.9445	405.762	80.2513	405.762	81.3538	405.762	80.0748	405.762	80.8493	405.762	80.0432	405.762	80.5358	405.762	80.1247	405.762	80.4575	405.762	80.281	405.762	80.5768	405.762	80.4832	405.762	80.8099	405.762	80.7151	405.762	81.0779	405.762	80.9649	405.762	81.3298	405.762	81.2161	405.762	81.5374	405.762	81.4449	405.762	81.6823	405.762	81.6239	405.762	81.7495	405.762	81.7298
420.41	83.6498	420.41	83.3796	420.41	83.7838	420.41	82.9903	420.41	83.7695	420.41	82.5036	420.41	83.6	420.41	81.948	420.41	83.2761	420.41	81.3605	420.41	82.8095	420.41	80.7895	420.41	82.2301	420.41	80.2907	420.41	81.5952	420.41	79.9146	420.41	80.9928	420.41	79.6885	420.41	80.5263	420.41	79.6087	420.41	80.274	420.41	79.6524	420.41	80.2487	420.41	79.7951	420.41	80.3978	420.41	80.0182	420.41	80.6409	420.41	80.3019	420.41	80.9051	420.41	80.6159	420.41	81.1367	420.41	80.9183	420.41	81.2984	420.41	81.1646	420.41	81.3641	420.41	81.3194
435.059	83.2564	435.059	83.0126	435.059	83.3778	435.059	82.6574	435.059	83.3682	435.059	82.2064	435.059	83.2211	435.059	81.6825	435.059	82.934	435.059	81.1207	435.059	82.5152	435.059	80.5715	435.059	81.9922	435.059	80.0961	435.059	81.4183	435.059	79.7477	435.059	80.8688	435.059	79.5488	435.059	80.4235	435.059	79.4858	435.059	80.1408	435.059	79.53	435.059	80.0402	435.059	79.6604	435.059	80.1052	435.059	79.868	435.059	80.2955	435.059	80.1417	435.059	80.5566	435.059	80.4542	435.059	80.8262	435.059	80.7597	435.059	81.0431	435.059	81.0054	435.059	81.1589	435.059	81.1466
451.172	83.7315	451.172	83.476	451.172	83.8542	451.172	83.0948	451.172	83.8348	451.172	82.5919	451.172	83.6626	451.172	81.9711	451.172	83.3302	451.172	81.2442	451.172	82.8399	451.172	80.4457	451.172	82.2138	451.172	79.6471	451.172	81.5015	451.172	78.9567	451.172	80.7819	451.172	78.4861	451.172	80.1511	451.172	78.294	451.172	79.6962	451.172	78.3619	451.172	79.4649	451.172	78.6219	451.172	79.4511	451.172	78.9987	451.172	79.6066	451.172	79.4268	451.172	79.8636	451.172	79.8483	451.172	80.1505	451.172	80.2097	451.172	80.4006	451.172	80.4655	451.172	80.558	451.172	80.5847
465.82	83.5253	465.82	83.2508	465.82	83.6663	465.82	82.8531	465.82	83.6616	465.82	82.3435	465.82	83.4968	465.82	81.738	465.82	83.1595	465.82	81.0619	465.82	82.6485	465.82	80.3557	465.82	81.987	465.82	79.6795	465.82	81.2338	465.82	79.107	465.82	80.4872	465.82	78.7069	465.82	79.8688	465.82	78.5184	465.82	79.4801	465.82	78.5408	465.82	79.3501	465.82	78.7414	465.82	79.4266	465.82	79.0687	465.82	79.6209	465.82	79.4598	465.82	79.8573	465.82	79.847	465.82	80.0892	465.82	80.1683	465.82	80.2869	465.82	80.3793	465.82	80.4216	465.82	80.4611
483.398	83.7328	483.398	83.5176	483.398	83.8237	483.398	83.1818	483.398	83.7836	483.398	82.7263	483.398	83.6042	483.398	82.1511	483.398	83.2784	483.398	81.4607	483.398	82.8068	483.398	80.6754	483.398	82.2053	483.398	79.8436	483.398	81.5113	483.398	79.0475	483.398	80.7861	483.398	78.3904	483.398	80.1145	483.398	77.9664	483.398	79.5978	483.398	77.8311	483.398	79.3303	483.398	77.9901	483.398	79.3533	483.398	78.3992	483.398	79.618	483.398	78.9697	483.398	80.007	483.398	79.5879	483.398	80.395	483.398	80.1449	483.398	80.6891	483.398	80.5613	483.398	80.8328	483.398	80.7943
499.512	83.455	499.512	83.2538	499.512	83.5312	499.512	82.9356	499.512	83.4691	499.512	82.5047	499.512	83.2519	499.512	81.966	499.512	82.8679	499.512	81.3302	499.512	82.3237	499.512	80.6195	499.512	81.6556	499.512	79.8718	499.512	80.9321	499.512	79.1411	499.512	80.2429	499.512	78.4906	499.512	79.6778	499.512	77.9849	499.512	79.3065	499.512	77.6847	499.512	79.1662	499.512	77.6407	499.512	79.2527	499.512	77.8716	499.512	79.5123	499.512	78.3356	499.512	79.8524	499.512	78.9283	499.512	80.1725	499.512	79.5221	499.512	80.3912	499.512	80.0104	499.512	80.4535	499.512	80.3288
517.09	83.7607	517.09	83.5272	517.09	83.8654	517.09	83.1748	517.09	83.8254	517.09	82.7049	517.09	83.6221	517.09	82.1124	517.09	83.2408	517.09	81.3928	517.09	82.6802	517.09	80.5572	517.09	81.9633	517.09	79.6487	517.09	81.1426	517.09	78.7566	517.09	80.2938	517.09	78.0076	517.09	79.5021	517.09	77.5234	517.09	78.8542	517.09	77.3617	517.09	78.4394	517.09	77.4991	517.09	78.3329	517.09	77.8675	517.09	78.5437	517.09	78.3885	517.09	78.9782	517.09	78.9743	517.09	79.4817	517.09	79.5261	517.09	79.9076	517.09	79.9488	517.09	80.1544	517.09	80.1702
536.133	82.9064	536.133	82.6163	536.133	83.0298	536.133	82.188	536.133	82.9646	536.133	81.6556	536.133	82.7019	536.133	81.0559	536.133	82.2561	536.133	80.422	536.133	81.6746	536.133	79.7755	536.133	81.0351	536.133	79.1309	536.133	80.4245	536.133	78.5144	536.133	79.9047	536.133	77.9799	536.133	79.4914	536.133	77.6014	536.133	79.1747	536.133	77.4358	536.133	78.9624	536.133	77.4921	536.133	78.8916	536.133	77.7374	536.133	78.9797	536.133	78.1192	536.133	79.1795	536.133	78.5718	536.133	79.4041	536.133	79.0155	536.133	79.5778	536.133	79.3717	536.133	79.6507	536.133	79.588
555.176	83.1865	555.176	82.8647	555.176	83.3372	555.176	82.3962	555.176	83.2945	555.176	81.8013	555.176	83.0431	555.176	81.0908	555.176	82.5773	555.176	80.2628	555.176	81.907	555.176	79.3137	555.176	81.0707	555.176	78.2697	555.176	80.1608	555.176	77.2373	555.176	79.3316	555.176	76.4347	555.176	78.7395	555.176	76.1049	555.176	78.4384	555.176	76.3092	555.176	78.3764	555.176	76.8743	555.176	78.4951	555.176	77.5764	555.176	78.7681	555.176	78.2752	555.176	79.151	555.176	78.906	555.176	79.5539	555.176	79.4321	555.176	79.8767	555.176	79.8176	555.176	80.047	555.176	80.0289
574.219	83.1758	574.219	82.7595	574.219	83.4128	574.219	82.1911	574.219	83.4479	574.219	81.5071	574.219	83.2577	574.219	80.7494	574.219	82.8182	574.219	79.9448	574.219	82.1149	574.219	79.0772	574.219	81.1632	574.219	78.0842	574.219	80.0328	574.219	76.9072	574.219	78.8606	574.219	75.6029	574.219	77.8314	574.219	74.5133	574.219	77.1261	574.219	74.2567	574.219	76.8845	574.219	75.0652	574.219	77.1746	574.219	76.4408	574.219	77.9048	574.219	77.8528	574.219	78.8238	574.219	79.0547	574.219	79.6805	574.219	79.9593	574.219	80.3288	574.219	80.5367	574.219	80.7058	574.219	80.7819
594.727	83.6687	594.727	83.3539	594.727	83.8051	594.727	82.8768	594.727	83.7492	594.727	82.2618	594.727	83.4877	594.727	81.5448	594.727	83.0162	594.727	80.7619	594.727	82.3533	594.727	79.9273	594.727	81.5484	594.727	79.0207	594.727	80.6723	594.727	78.0078	594.727	79.7893	594.727	76.885	594.727	78.9228	594.727	75.7161	594.727	78.0566	594.727	74.6719	594.727	77.2202	594.727	74.0816	594.727	76.6128	594.727	74.3014	594.727	76.5298	594.727	75.2857	594.727	76.9965	594.727	76.5679	594.727	77.7057	594.727	77.7119	594.727	78.354	594.727	78.4921	594.727	78.7672	594.727	78.8373
615.234	83.8713	615.234	83.5353	615.234	83.9764	615.234	82.9814	615.234	83.8431	615.234	82.2395	615.234	83.4682	615.234	81.3787	615.234	82.8593	615.234	80.5253	615.234	82.049	615.234	79.8268	615.234	81.1075	615.234	79.3458	615.234	80.1368	615.234	78.9906	615.234	79.2407	615.234	78.5784	615.234	78.4894	615.234	77.9678	615.234	77.9161	615.234	77.1745	615.234	77.5393	615.234	76.4166	615.234	77.3496	615.234	76.0088	615.234	77.2676	615.234	76.1013	615.234	77.1972	615.234	76.5532	615.234	77.1466	615.234	77.0841	615.234	77.216	615.234	77.4539	615.234	77.407	615.234	77.5468
637.207	84.0799	637.207	83.7181	637.207	84.2614	637.207	83.2021	637.207	84.2288	637.207	82.5395	637.207	83.9499	637.207	81.7198	637.207	83.4045	637.207	80.7449	637.207	82.5998	637.207	79.6866	637.207	81.5821	637.207	78.7073	637.207	80.4338	637.207	77.9562	637.207	79.2694	637.207	77.4086	637.207	78.2547	637.207	76.8945	637.207	77.5936	637.207	76.3255	637.207	77.3833	637.207	75.8811	637.207	77.4961	637.207	75.9178	637.207	77.7311	637.207	76.5311	637.207	78.0002	637.207	77.4122	637.207	78.3104	637.207	78.2152	637.207	78.6439	637.207	78.7547	637.207	78.907	637.207	78.9752
659.18	83.6161	659.18	83.1557	659.18	83.8474	659.18	82.4826	659.18	83.8276	659.18	81.621	659.18	83.521	659.18	80.6091	659.18	82.8984	659.18	79.504	659.18	81.9757	659.18	78.4029	659.18	80.8324	659.18	77.4706	659.18	79.5875	659.18	76.8902	659.18	78.397	659.18	76.6772	659.18	77.4614	659.18	76.5949	659.18	76.8914	659.18	76.388	659.18	76.6515	659.18	76.0595	659.18	76.7571	659.18	75.9358	659.18	77.226	659.18	76.3586	659.18	77.8546	659.18	77.2041	659.18	78.379	659.18	78.0489	659.18	78.7081	659.18	78.6196	659.18	78.8726	659.18	78.8694
682.617	83.7677	682.617	83.5339	682.617	83.7193	682.617	83.0219	682.617	83.4163	682.617	82.2757	682.617	82.9211	682.617	81.3839	682.617	82.32	682.617	80.447	682.617	81.6664	682.617	79.5145	682.617	80.9202	682.617	78.5783	682.617	79.9885	682.617	77.6802	682.617	78.8499	682.617	76.9947	682.617	77.6505	682.617	76.6855	682.617	76.7103	682.617	76.6785	682.617	76.3686	682.617	76.7531	682.617	76.676	682.617	76.8341	682.617	77.3021	682.617	77.0887	682.617	77.8659	682.617	77.6574	682.617	78.2456	682.617	78.3618	682.617	78.5545	682.617	78.8798	682.617	78.8635	682.617	79.0342
707.52	83.9907	707.52	83.7299	707.52	83.9371	707.52	83.1378	707.52	83.6159	707.52	82.2298	707.52	83.1143	707.52	81.0747	707.52	82.5264	707.52	79.8031	707.52	81.8626	707.52	78.5723	707.52	81.0388	707.52	77.5039	707.52	80.0061	707.52	76.6288	707.52	78.8407	707.52	75.894	707.52	77.6674	707.52	75.3024	707.52	76.5807	707.52	75.0085	707.52	75.7903	707.52	75.1025	707.52	75.6825	707.52	75.4643	707.52	76.3335	707.52	75.9932	707.52	77.244	707.52	76.6903	707.52	77.9514	707.52	77.474	707.52	78.3617	707.52	78.1317	707.52	78.5446	707.52	78.4931
732.422	84.9423	732.422	84.5726	732.422	85.0375	732.422	83.9479	732.422	84.8568	732.422	83.0938	732.422	84.4331	732.422	82.0525	732.422	83.8157	732.422	80.9063	732.422	83.0393	732.422	79.7951	732.422	82.1426	732.422	78.9035	732.422	81.1917	732.422	78.3865	732.422	80.2205	732.422	78.2033	732.422	79.2164	732.422	78.0488	732.422	78.2736	732.422	77.6388	732.422	77.5841	732.422	77.0261	732.422	77.1498	732.422	76.6241	732.422	76.9638	732.422	76.8275	732.422	77.3123	732.422	77.5329	732.422	78.1597	732.422	78.3434	732.422	78.9596	732.422	78.9853	732.422	79.3624	732.422	79.3462
757.324	85.8899	757.324	85.3186	757.324	86.092	757.324	84.3839	757.324	85.9091	757.324	83.1435	757.324	85.3516	757.324	81.8514	757.324	84.5358	757.324	80.9552	757.324	83.6613	757.324	80.6345	757.324	82.7735	757.324	80.4847	757.324	81.6641	757.324	80.0835	757.324	80.1813	757.324	79.5344	757.324	78.5342	757.324	79.0909	757.324	77.1757	757.324	78.5752	757.324	76.2126	757.324	77.9374	757.324	75.8247	757.324	77.7729	757.324	76.7493	757.324	78.4925	757.324	78.1311	757.324	79.6148	757.324	78.8379	757.324	80.5095	757.324	79.1311	757.324	80.8386	757.324	79.7402	757.324	80.5083
785.156	84.9561	785.156	84.5202	785.156	85.2794	785.156	84.0367	785.156	85.3761	785.156	83.5307	785.156	85.1462	785.156	83.0644	785.156	84.5664	785.156	82.7215	785.156	83.6929	785.156	82.4377	785.156	82.5821	785.156	81.9281	785.156	81.2124	785.156	80.8934	785.156	79.4976	785.156	79.3606	785.156	77.4279	785.156	77.8074	785.156	75.5988	785.156	76.6963	785.156	75.0266	785.156	76.0048	785.156	74.948	785.156	75.8123	785.156	75.039	785.156	76.4918	785.156	76.3854	785.156	77.617	785.156	77.9466	785.156	78.4092	785.156	78.5868	785.156	78.6266	785.156	78.5535	785.156	78.5295
811.523	84.5409	811.523	84.6404	811.523	84.729	811.523	84.8452	811.523	85.1048	811.523	84.9371	811.523	85.3134	811.523	84.7288	811.523	85.0646	811.523	84.0139	811.523	84.2491	811.523	82.654	811.523	82.8081	811.523	80.859	811.523	80.6865	811.523	79.4023	811.523	78.1045	811.523	78.9046	811.523	75.7375	811.523	78.8699	811.523	74.1353	811.523	78.5948	811.523	73.7144	811.523	78.2315	811.523	75.054	811.523	78.5224	811.523	77.011	811.523	79.1739	811.523	78.294	811.523	79.3734	811.523	78.9285	811.523	79.0702	811.523	79.3092	811.523	78.8351	811.523	79.39	811.523	79.0797
840.82	84.8659	840.82	86.4447	840.82	82.8565	840.82	86.8991	840.82	83.1265	840.82	86.2622	840.82	85.3914	840.82	84.5759	840.82	86.9494	840.82	81.6911	840.82	87.239	840.82	77.2549	840.82	86.4105	840.82	71.0314	840.82	84.6657	840.82	63.875	840.82	82.1649	840.82	62.6722	840.82	79.3051	840.82	69.3182	840.82	77.3776	840.82	75.1597	840.82	77.7137	840.82	78.0644	840.82	79.3627	840.82	78.7608	840.82	80.9811	840.82	79.4811	840.82	81.7432	840.82	81.1425	840.82	80.8926	840.82	81.942	840.82	77.5005	840.82	80.9147	840.82	72.7672	840.82	77.3489
870.117	84.4806	870.117	83.6329	870.117	85.5476	870.117	83.6807	870.117	86.2082	870.117	84.4208	870.117	86.1177	870.117	84.9924	870.117	85.1402	870.117	84.7933	870.117	83.3982	870.117	83.6768	870.117	81.2004	870.117	81.9665	870.117	78.8839	870.117	80.1798	870.117	77.0933	870.117	78.5708	870.117	76.4001	870.117	77.8248	870.117	76.2103	870.117	78.5804	870.117	75.8418	870.117	79.1911	870.117	74.6375	870.117	78.6958	870.117	72.6936	870.117	77.8561	870.117	74.5192	870.117	76.9231	870.117	78.8405	870.117	75.481	870.117	81.2657	870.117	76.3988	870.117	81.4408	870.117	79.5507
900.879	84.7833	900.879	85.467	900.879	84.8651	900.879	85.9411	900.879	85.6558	900.879	85.6797	900.879	86.1287	900.879	84.7042	900.879	85.7101	900.879	83.2438	900.879	84.2843	900.879	81.5201	900.879	81.8811	900.879	79.7607	900.879	78.7953	900.879	78.3492	900.879	76.2429	900.879	77.6902	900.879	74.8274	900.879	77.7893	900.879	72.0074	900.879	78.3359	900.879	64.8181	900.879	79.2101	900.879	71.2263	900.879	79.8857	900.879	77.6893	900.879	80.4725	900.879	80.459	900.879	81.2444	900.879	80.6639	900.879	81.3062	900.879	78.8067	900.879	79.9884	900.879	76.4948	900.879	77.5159
933.105	84.9011	933.105	85.2405	933.105	84.8257	933.105	85.348	933.105	85.2578	933.105	85.0034	933.105	85.7469	933.105	84.0665	933.105	85.7036	933.105	82.1277	933.105	84.7438	933.105	78.6508	933.105	82.6751	933.105	74.3357	933.105	79.7184	933.105	73.042	933.105	77.0101	933.105	74.6998	933.105	76.0298	933.105	76.4049	933.105	75.9979	933.105	77.6188	933.105	75.2081	933.105	78.5677	933.105	73.1212	933.105	78.8476	933.105	71.5982	933.105	78.3151	933.105	75.0676	933.105	77.8718	933.105	79.2412	933.105	77.2891	933.105	81.2548	933.105	76.2293	933.105	80.7954	933.105	78.1227
965.332	86.2319	965.332	86.1046	965.332	86.2968	965.332	85.7381	965.332	86.0867	965.332	85.1467	965.332	85.0652	965.332	84.6671	965.332	83.002	965.332	84.4119	965.332	80.8574	965.332	84.1564	965.332	80.7496	965.332	84.056	965.332	82.1176	965.332	84.4811	965.332	83.3692	965.332	85.0721	965.332	83.8137	965.332	85.0202	965.332	83.0722	965.332	84.207	965.332	80.8084	965.332	83.7659	965.332	76.0986	965.332	83.8724	965.332	70.9854	965.332	83.2899	965.332	77.872	965.332	81.5265	965.332	81.6181	965.332	78.1774	965.332	82.5326	965.332	74.2938	965.332	81.177	965.332	77.476
1,000.49	86.1784	1,000.49	85.4111	1,000.49	86.3934	1,000.49	84.4799	1,000.49	85.7965	1,000.49	83.811	1,000.49	84.623	1,000.49	83.5477	1,000.49	83.7467	1,000.49	83.1464	1,000.49	83.0933	1,000.49	81.9387	1,000.49	81.8506	1,000.49	80.3085	1,000.49	80.204	1,000.49	80.1329	1,000.49	78.4624	1,000.49	81.4773	1,000.49	77.1821	1,000.49	82.3521	1,000.49	78.4725	1,000.49	81.9101	1,000.49	80.5344	1,000.49	80.2848	1,000.49	81.2012	1,000.49	78.2708	1,000.49	79.8895	1,000.49	75.7092	1,000.49	74.1639	1,000.49	71.2449	1,000.49	68.2272	1,000.49	72.3647	1,000.49	80.1395	1,000.49	78.6768	1,000.49	82.9977	1,000.49	82.2823
1,035.64	84.6316	1,035.64	87.1339	1,035.64	83.4905	1,035.64	88.2787	1,035.64	85.4297	1,035.64	87.6421	1,035.64	86.9791	1,035.64	84.7994	1,035.64	87.0403	1,035.64	78.9052	1,035.64	85.5173	1,035.64	74.4083	1,035.64	82.491	1,035.64	76.9145	1,035.64	79.1121	1,035.64	77.9878	1,035.64	77.9494	1,035.64	78.0706	1,035.64	78.1487	1,035.64	77.8895	1,035.64	77.6712	1,035.64	77.7192	1,035.64	76.7099	1,035.64	77.2126	1,035.64	75.2625	1,035.64	77.0915	1,035.64	73.2609	1,035.64	77.5936	1,035.64	70.0494	1,035.64	77.2833	1,035.64	71.9514	1,035.64	77.0473	1,035.64	78.677	1,035.64	78.8495	1,035.64	81.2624	1,035.64	80.927
1,072.27	85.1901	1,072.27	85.6647	1,072.27	85.4378	1,072.27	86.2629	1,072.27	85.891	1,072.27	86.0863	1,072.27	85.966	1,072.27	84.4984	1,072.27	85.472	1,072.27	80.7024	1,072.27	83.9155	1,072.27	75.8953	1,072.27	80.6147	1,072.27	79.456	1,072.27	76.5789	1,072.27	83.1813	1,072.27	75.5143	1,072.27	84.7154	1,072.27	77.0684	1,072.27	84.3711	1,072.27	79.3252	1,072.27	83.6447	1,072.27	81.4304	1,072.27	82.6225	1,072.27	82.4131	1,072.27	80.0314	1,072.27	81.6686	1,072.27	78.0185	1,072.27	77.6872	1,072.27	76.0987	1,072.27	69.5154	1,072.27	72.2785	1,072.27	79.0078	1,072.27	77.8424	1,072.27	82.3467	1,072.27	81.8004
1,108.89	85.1145	1,108.89	85.8792	1,108.89	85.8602	1,108.89	87.1908	1,108.89	86.4231	1,108.89	87.4273	1,108.89	85.7373	1,108.89	85.98	1,108.89	83.4505	1,108.89	82.2509	1,108.89	79.026	1,108.89	74.9217	1,108.89	75.4464	1,108.89	66.3193	1,108.89	78.2564	1,108.89	73.5411	1,108.89	79.4536	1,108.89	75.9186	1,108.89	78.0761	1,108.89	75.0155	1,108.89	73.318	1,108.89	73.2039	1,108.89	57.677	1,108.89	71.622	1,108.89	70.8746	1,108.89	66.0911	1,108.89	77.2841	1,108.89	50.8271	1,108.89	79.0875	1,108.89	66.357	1,108.89	75.1961	1,108.89	75.883	1,108.89	64.3661	1,108.89	80.2486	1,108.89	78.6716	1,108.89	81.3245
1,148.44	84.4729	1,148.44	85.7938	1,148.44	84.6644	1,148.44	86.5918	1,148.44	85.9774	1,148.44	85.8784	1,148.44	86.3307	1,148.44	82.9008	1,148.44	84.9587	1,148.44	76.3657	1,148.44	81.304	1,148.44	74.6777	1,148.44	73.4856	1,148.44	80.0807	1,148.44	57.8841	1,148.44	83.5161	1,148.44	64.7926	1,148.44	85.2584	1,148.44	69.5029	1,148.44	85.0044	1,148.44	73.6888	1,148.44	83.1831	1,148.44	76.3354	1,148.44	80.8649	1,148.44	79.2714	1,148.44	76.7415	1,148.44	80.6015	1,148.44	70.5771	1,148.44	78.9381	1,148.44	65.6058	1,148.44	71.5743	1,148.44	71.3108	1,148.44	69.5393	1,148.44	78.6855	1,148.44	78.8487	1,148.44	80.7169
1,189.45	86.2743	1,189.45	84.7139	1,189.45	87.3048	1,189.45	84.9337	1,189.45	86.601	1,189.45	86.1743	1,189.45	83.5442	1,189.45	86.1028	1,189.45	78.0677	1,189.45	83.9704	1,189.45	78.6904	1,189.45	80.137	1,189.45	82.9143	1,189.45	75.1389	1,189.45	84.7911	1,189.45	76.6763	1,189.45	84.7045	1,189.45	80.4289	1,189.45	83.9499	1,189.45	79.8834	1,189.45	83.0598	1,189.45	76.869	1,189.45	80.8514	1,189.45	73.6099	1,189.45	76.0797	1,189.45	68.5751	1,189.45	70.2275	1,189.45	73.3277	1,189.45	77.0907	1,189.45	74.442	1,189.45	79.437	1,189.45	78.3777	1,189.45	75.1514	1,189.45	81.115	1,189.45	72.8454	1,189.45	79.9762
1,230.47	85.606	1,230.47	84.8904	1,230.47	87.2314	1,230.47	85.8826	1,230.47	87.4782	1,230.47	86.4277	1,230.47	85.4528	1,230.47	85.2203	1,230.47	81.083	1,230.47	81.3859	1,230.47	77.9797	1,230.47	73.3759	1,230.47	79.9837	1,230.47	75.7002	1,230.47	81.1465	1,230.47	80.2055	1,230.47	80.1587	1,230.47	81.3386	1,230.47	78.3494	1,230.47	81.2523	1,230.47	76.3717	1,230.47	79.599	1,230.47	69.7009	1,230.47	75.5896	1,230.47	64.2034	1,230.47	70.6245	1,230.47	72.8661	1,230.47	69.0134	1,230.47	73.951	1,230.47	70.4332	1,230.47	72.1024	1,230.47	74.6619	1,230.47	74.6152	1,230.47	78.1605	1,230.47	78.4242	1,230.47	79.4335
1,274.41	87.0202	1,274.41	86.2099	1,274.41	86.9286	1,274.41	85.0881	1,274.41	85.5874	1,274.41	84.8364	1,274.41	83.2074	1,274.41	85.0903	1,274.41	82.6766	1,274.41	84.0519	1,274.41	83.7002	1,274.41	80.3835	1,274.41	83.7968	1,274.41	71.7497	1,274.41	83.2458	1,274.41	62.5427	1,274.41	82.0118	1,274.41	70.3863	1,274.41	80.5993	1,274.41	70.5355	1,274.41	80.3217	1,274.41	57.6123	1,274.41	80.0009	1,274.41	70.231	1,274.41	78.7419	1,274.41	75.3008	1,274.41	76.384	1,274.41	76.0533	1,274.41	66.9463	1,274.41	75.5447	1,274.41	71.2965	1,274.41	76.9067	1,274.41	76.7458	1,274.41	77.5005	1,274.41	76.5769	1,274.41	76.4058
1,319.82	87.0752	1,319.82	85.9353	1,319.82	87.0466	1,319.82	84.6748	1,319.82	85.4738	1,319.82	84.2678	1,319.82	83.3059	1,319.82	84.061	1,319.82	82.3499	1,319.82	82.5036	1,319.82	82.1504	1,319.82	79.0159	1,319.82	81.845	1,319.82	75.5917	1,319.82	80.7851	1,319.82	77.9361	1,319.82	79.1014	1,319.82	79.7651	1,319.82	77.7596	1,319.82	80.6927	1,319.82	76.3357	1,319.82	81.2985	1,319.82	73.043	1,319.82	80.2648	1,319.82	63.6741	1,319.82	77.0262	1,319.82	70.5391	1,319.82	72.3985	1,319.82	76.6994	1,319.82	67.3922	1,319.82	74.9989	1,319.82	71.0347	1,319.82	64.1494	1,319.82	77.5229	1,319.82	78.0478	1,319.82	80.191
1,366.7	87.0544	1,366.7	86.8276	1,366.7	85.8293	1,366.7	85.4999	1,366.7	84.2691	1,366.7	83.6834	1,366.7	84.7466	1,366.7	82.8445	1,366.7	84.8922	1,366.7	82.7285	1,366.7	82.9926	1,366.7	82.3374	1,366.7	79.5119	1,366.7	80.1649	1,366.7	76.4638	1,366.7	76.1515	1,366.7	74.9217	1,366.7	73.5203	1,366.7	73.6015	1,366.7	73.0946	1,366.7	72.3886	1,366.7	75.8663	1,366.7	72.0301	1,366.7	76.8517	1,366.7	69.189	1,366.7	74.5577	1,366.7	69.3749	1,366.7	70.7496	1,366.7	72.8041	1,366.7	70.9403	1,366.7	72.859	1,366.7	75.3926	1,366.7	67.4206	1,366.7	78.8792	1,366.7	74.9001	1,366.7	79.2331
1,413.57	85.9941	1,413.57	86.5811	1,413.57	85.2285	1,413.57	86.2011	1,413.57	84.9558	1,413.57	84.1421	1,413.57	84.3035	1,413.57	80.7482	1,413.57	82.6677	1,413.57	79.3423	1,413.57	81.556	1,413.57	79.2291	1,413.57	80.1237	1,413.57	73.8418	1,413.57	76.5449	1,413.57	59.3435	1,413.57	71.7392	1,413.57	64.1195	1,413.57	67.0809	1,413.57	62.3529	1,413.57	60.0995	1,413.57	61.4906	1,413.57	66.8312	1,413.57	67.934	1,413.57	73.9767	1,413.57	67.2944	1,413.57	75.6298	1,413.57	65.8206	1,413.57	73.0895	1,413.57	69.2749	1,413.57	70.2693	1,413.57	75.0679	1,413.57	69.9802	1,413.57	77.5852	1,413.57	69.6677	1,413.57	75.8794
1,463.38	85.2462	1,463.38	86.1603	1,463.38	84.2506	1,463.38	85.6656	1,463.38	84.0655	1,463.38	83.6996	1,463.38	83.4529	1,463.38	81.3984	1,463.38	82.2198	1,463.38	79.1782	1,463.38	80.6688	1,463.38	75.1253	1,463.38	78.67	1,463.38	66.0301	1,463.38	77.7518	1,463.38	59.0252	1,463.38	76.237	1,463.38	66.431	1,463.38	73.1729	1,463.38	70.585	1,463.38	72.1077	1,463.38	66.4905	1,463.38	72.418	1,463.38	72.0599	1,463.38	73.6464	1,463.38	70.1956	1,463.38	73.8473	1,463.38	58.3353	1,463.38	72.1559	1,463.38	64.8324	1,463.38	73.4507	1,463.38	73.0348	1,463.38	71.202	1,463.38	76.441	1,463.38	68.6538	1,463.38	75.1126
1,516.11	84.3698	1,516.11	84.7054	1,516.11	84.261	1,516.11	84.6143	1,516.11	84.138	1,516.11	83.7375	1,516.11	82.9553	1,516.11	81.8527	1,516.11	81.6177	1,516.11	77.2509	1,516.11	81.3155	1,516.11	71.9744	1,516.11	80.8155	1,516.11	72.9702	1,516.11	79.8732	1,516.11	75.8215	1,516.11	77.5189	1,516.11	76.1192	1,516.11	75.6164	1,516.11	74.7787	1,516.11	75.3569	1,516.11	67.3857	1,516.11	71.9636	1,516.11	54.6183	1,516.11	68.0437	1,516.11	55.4761	1,516.11	71.758	1,516.11	50.8972	1,516.11	74.3369	1,516.11	65.083	1,516.11	73.4939	1,516.11	72.5217	1,516.11	68.6549	1,516.11	73.1857	1,516.11	65.7855	1,516.11	69.5809
1,568.85	83.8857	1,568.85	83.2288	1,568.85	83.751	1,568.85	82.7316	1,568.85	83.3135	1,568.85	82.7864	1,568.85	83.6566	1,568.85	82.5301	1,568.85	82.7997	1,568.85	80.093	1,568.85	79.98	1,568.85	74.6039	1,568.85	77.4868	1,568.85	69.236	1,568.85	75.8396	1,568.85	70.149	1,568.85	75.5679	1,568.85	71.152	1,568.85	76.0463	1,568.85	73.0284	1,568.85	75.0887	1,568.85	75.133	1,568.85	70.7605	1,568.85	72.646	1,568.85	53.3419	1,568.85	64.4683	1,568.85	70.1351	1,568.85	59.4033	1,568.85	74.587	1,568.85	58.629	1,568.85	75.6191	1,568.85	66.1769	1,568.85	71.7535	1,568.85	70.5987	1,568.85	62.3697	1,568.85	69.8073
1,624.51	84.012	1,624.51	83.2026	1,624.51	84.2333	1,624.51	82.0466	1,624.51	83.8252	1,624.51	80.9288	1,624.51	82.9207	1,624.51	79.5471	1,624.51	82.2663	1,624.51	77.0854	1,624.51	80.7562	1,624.51	72.9505	1,624.51	76.7028	1,624.51	68.4793	1,624.51	74.3661	1,624.51	64.2734	1,624.51	75.9963	1,624.51	63.8371	1,624.51	77.389	1,624.51	62.6265	1,624.51	78.1176	1,624.51	74.085	1,624.51	77.3332	1,624.51	76.8536	1,624.51	72.6918	1,624.51	73.138	1,624.51	70.4192	1,624.51	63.3358	1,624.51	75.8588	1,624.51	61.7656	1,624.51	77.5464	1,624.51	65.4875	1,624.51	74.359	1,624.51	58.6613	1,624.51	66.5915	1,624.51	68.687
1,681.64	85.3749	1,681.64	84.2381	1,681.64	85.1215	1,681.64	82.2044	1,681.64	83.5033	1,681.64	80.3743	1,681.64	81.5359	1,681.64	78.6714	1,681.64	81.1847	1,681.64	75.3517	1,681.64	80.1306	1,681.64	71.5169	1,681.64	75.9464	1,681.64	72.9287	1,681.64	70.3143	1,681.64	73.4177	1,681.64	65.4536	1,681.64	68.2786	1,681.64	66.6044	1,681.64	65.0803	1,681.64	70.6441	1,681.64	68.4196	1,681.64	73.8565	1,681.64	71.295	1,681.64	72.3196	1,681.64	70.6024	1,681.64	59.2336	1,681.64	65.5643	1,681.64	71.1468	1,681.64	51.1312	1,681.64	75.3436	1,681.64	57.9669	1,681.64	71.6567	1,681.64	57.8794	1,681.64	66.606	1,681.64	68.0176
1,741.7	86.4273	1,741.7	86.007	1,741.7	85.7766	1,741.7	83.6827	1,741.7	84.9423	1,741.7	80.3012	1,741.7	83.113	1,741.7	79.2379	1,741.7	80.3456	1,741.7	78.7125	1,741.7	78.8149	1,741.7	77.0173	1,741.7	78.661	1,741.7	75.1765	1,741.7	76.8912	1,741.7	66.0311	1,741.7	73.4363	1,741.7	69.8095	1,741.7	74.1485	1,741.7	70.2269	1,741.7	75.9014	1,741.7	65.7564	1,741.7	76.0396	1,741.7	70.9135	1,741.7	72.3875	1,741.7	69.7807	1,741.7	50.5259	1,741.7	62.7393	1,741.7	63.4047	1,741.7	60.0397	1,741.7	71.3744	1,741.7	62.3593	1,741.7	72.6305	1,741.7	57.0758	1,741.7	68.2792	1,741.7	67.7468
1,803.22	86.4826	1,803.22	85.5501	1,803.22	86.4643	1,803.22	83.8771	1,803.22	85.2289	1,803.22	81.6544	1,803.22	83.1686	1,803.22	78.9426	1,803.22	80.3581	1,803.22	77.1664	1,803.22	77.9346	1,803.22	75.5056	1,803.22	78.6252	1,803.22	67.6067	1,803.22	76.5857	1,803.22	69.291	1,803.22	70.785	1,803.22	73.2835	1,803.22	71.6403	1,803.22	70.8786	1,803.22	72.681	1,803.22	61.0308	1,803.22	71.497	1,803.22	68.6772	1,803.22	65.815	1,803.22	64.7822	1,803.22	51.6912	1,803.22	50.5393	1,803.22	64.1226	1,803.22	54.9502	1,803.22	73.3488	1,803.22	63.0836	1,803.22	73.7934	1,803.22	56.3981	1,803.22	71.0418	1,803.22	67.2106
1,866.21	86.6034	1,866.21	85.3544	1,866.21	86.3756	1,866.21	83.9073	1,866.21	84.8107	1,866.21	82.2493	1,866.21	83.2914	1,866.21	78.5112	1,866.21	80.2179	1,866.21	71.3462	1,866.21	74.8064	1,866.21	68.4007	1,866.21	71.9773	1,866.21	61.3349	1,866.21	70.9602	1,866.21	62.543	1,866.21	71.4011	1,866.21	72.0839	1,866.21	73.8877	1,866.21	74.7918	1,866.21	69.7827	1,866.21	71.1361	1,866.21	60.3491	1,866.21	71.3673	1,866.21	59.788	1,866.21	66.0174	1,866.21	59.7583	1,866.21	57.3572	1,866.21	61.3538	1,866.21	55.2972	1,866.21	71.4953	1,866.21	66.403	1,866.21	74.2071	1,866.21	66.1202	1,866.21	71.1081	1,866.21	67.3206
1,932.13	86.0721	1,932.13	85.921	1,932.13	85.5345	1,932.13	84.8979	1,932.13	84.7119	1,932.13	82.5245	1,932.13	81.455	1,932.13	77.9187	1,932.13	76.046	1,932.13	72.2834	1,932.13	74.2573	1,932.13	69.8914	1,932.13	63.874	1,932.13	68.1133	1,932.13	70.2952	1,932.13	64.403	1,932.13	74.1619	1,932.13	62.8544	1,932.13	72.3832	1,932.13	70.4586	1,932.13	64.0131	1,932.13	69.073	1,932.13	68.7021	1,932.13	67.4798	1,932.13	70.0193	1,932.13	61.5589	1,932.13	69.3258	1,932.13	64.1971	1,932.13	68.3177	1,932.13	68.0077	1,932.13	70.2226	1,932.13	66.1768	1,932.13	73.0538	1,932.13	62.8013	1,932.13	73.7512	1,932.13	68.5794
1,999.51	86.2382	1,999.51	85.5842	1,999.51	85.7094	1,999.51	84.1838	1,999.51	83.6801	1,999.51	81.732	1,999.51	79.9725	1,999.51	77.2009	1,999.51	74.8587	1,999.51	68.8516	1,999.51	68.3651	1,999.51	46.4574	1,999.51	66.6997	1,999.51	47.9669	1,999.51	70.7617	1,999.51	56.6104	1,999.51	70.5515	1,999.51	64.6075	1,999.51	70.5914	1,999.51	60.8892	1,999.51	67.624	1,999.51	64.5445	1,999.51	56.5681	1,999.51	68.1744	1,999.51	67.8294	1,999.51	68.8161	1,999.51	70.9454	1,999.51	66.9239	1,999.51	68.2302	1,999.51	63.0567	1,999.51	69.5812	1,999.51	63.0009	1,999.51	74.042	1,999.51	67.5137	1,999.51	74.469	1,999.51	71.4797
2,069.82	87.0155	2,069.82	86.045	2,069.82	86.2709	2,069.82	83.201	2,069.82	84.1496	2,069.82	79.3833	2,069.82	79.9882	2,069.82	75.9422	2,069.82	71.9242	2,069.82	69.6962	2,069.82	63.0379	2,069.82	55.5429	2,069.82	71.2961	2,069.82	65.8771	2,069.82	72.5448	2,069.82	69.2666	2,069.82	69.9969	2,069.82	70.4049	2,069.82	70.7224	2,069.82	70.2461	2,069.82	67.8239	2,069.82	68.2235	2,069.82	64.1948	2,069.82	65.791	2,069.82	66.0228	2,069.82	69.8713	2,069.82	71.0257	2,069.82	67.9454	2,069.82	67.8193	2,069.82	56.535	2,069.82	65.861	2,069.82	59.7426	2,069.82	72.2742	2,069.82	67.8098	2,069.82	74.7591	2,069.82	73.077
2,143.07	87.2419	2,143.07	86.3652	2,143.07	86.6089	2,143.07	83.1714	2,143.07	84.4784	2,143.07	78.6284	2,143.07	79.5853	2,143.07	74.8034	2,143.07	70.8152	2,143.07	64.0034	2,143.07	65.17	2,143.07	66.3679	2,143.07	73.5125	2,143.07	66.979	2,143.07	75.9791	2,143.07	64.3705	2,143.07	75.7822	2,143.07	62.5645	2,143.07	74.1046	2,143.07	67.6887	2,143.07	70.0349	2,143.07	71.2574	2,143.07	56.5255	2,143.07	65.7582	2,143.07	64.6714	2,143.07	68.5802	2,143.07	69.8027	2,143.07	69.386	2,143.07	67.6061	2,143.07	58.0792	2,143.07	66.7928	2,143.07	61.7467	2,143.07	73.0417	2,143.07	65.9099	2,143.07	75.3056	2,143.07	73.4065
2,219.24	86.728	2,219.24	85.8655	2,219.24	86.158	2,219.24	83.3995	2,219.24	84.2494	2,219.24	79.6233	2,219.24	79.7664	2,219.24	72.9311	2,219.24	67.8619	2,219.24	53.9539	2,219.24	67.8476	2,219.24	69.5997	2,219.24	74.0261	2,219.24	72.046	2,219.24	77.853	2,219.24	72.0227	2,219.24	77.0513	2,219.24	69.6372	2,219.24	75.1983	2,219.24	69.2178	2,219.24	72.2349	2,219.24	71.4739	2,219.24	66.3751	2,219.24	70.6093	2,219.24	47.7685	2,219.24	68.1478	2,219.24	68.8133	2,219.24	68.6225	2,219.24	68.0935	2,219.24	51.7929	2,219.24	68.4598	2,219.24	63.3341	2,219.24	74.3681	2,219.24	64.9955	2,219.24	75.4975	2,219.24	72.4124
2,296.88	85.8278	2,296.88	85.0734	2,296.88	84.9194	2,296.88	83.2012	2,296.88	82.5541	2,296.88	79.3115	2,296.88	78.091	2,296.88	66.8743	2,296.88	66.7968	2,296.88	67.7703	2,296.88	68.3311	2,296.88	72.9517	2,296.88	75.0654	2,296.88	76.192	2,296.88	77.0385	2,296.88	74.7525	2,296.88	77.536	2,296.88	70.64	2,296.88	76.1794	2,296.88	66.9474	2,296.88	71.5457	2,296.88	72.5596	2,296.88	68.7439	2,296.88	73.1539	2,296.88	62.8623	2,296.88	70.158	2,296.88	65.6144	2,296.88	70.6259	2,296.88	68.5321	2,296.88	62.2477	2,296.88	69.4632	2,296.88	65.453	2,296.88	72.586	2,296.88	68.6764	2,296.88	74.7533	2,296.88	73.8261
2,378.91	86.3257	2,378.91	85.3732	2,378.91	84.9557	2,378.91	83.2133	2,378.91	81.2914	2,378.91	77.7407	2,378.91	77.3027	2,378.91	72.0095	2,378.91	70.7292	2,378.91	73.0826	2,378.91	71.7979	2,378.91	73.3704	2,378.91	74.8479	2,378.91	73.6379	2,378.91	76.2964	2,378.91	74.8574	2,378.91	78.4169	2,378.91	75.8932	2,378.91	76.7216	2,378.91	70.5316	2,378.91	70.5946	2,378.91	67.1905	2,378.91	67.7495	2,378.91	74.0998	2,378.91	63.7807	2,378.91	71.2827	2,378.91	60.7188	2,378.91	71.9168	2,378.91	69.5486	2,378.91	68.3092	2,378.91	71.3462	2,378.91	60.992	2,378.91	70.3843	2,378.91	65.159	2,378.91	72.9729	2,378.91	72.4072
2,462.4	88.0753	2,462.4	87.2762	2,462.4	86.4648	2,462.4	83.3754	2,462.4	80.911	2,462.4	77.3239	2,462.4	72.2725	2,462.4	75.476	2,462.4	73.3794	2,462.4	73.8795	2,462.4	74.6683	2,462.4	72.106	2,462.4	77.6644	2,462.4	75.2407	2,462.4	78.3886	2,462.4	75.9265	2,462.4	76.1948	2,462.4	70.5007	2,462.4	70.0168	2,462.4	71.0137	2,462.4	68.1363	2,462.4	67.4418	2,462.4	70.282	2,462.4	70.5314	2,462.4	65.9778	2,462.4	73.1458	2,462.4	63.5159	2,462.4	71.2597	2,462.4	71.0663	2,462.4	69.8724	2,462.4	70.0443	2,462.4	56.3148	2,462.4	68.2057	2,462.4	64.0379	2,462.4	73.098	2,462.4	72.1499
2,548.83	88.4489	2,548.83	87.3743	2,548.83	87.4473	2,548.83	83.4227	2,548.83	83.1142	2,548.83	79.2218	2,548.83	72.1544	2,548.83	75.6089	2,548.83	73.9228	2,548.83	73.1825	2,548.83	76.5533	2,548.83	75.5546	2,548.83	78.8256	2,548.83	74.8545	2,548.83	76.3962	2,548.83	74.6091	2,548.83	77.4393	2,548.83	75.8349	2,548.83	74.6667	2,548.83	73.0613	2,548.83	64.5823	2,548.83	68.532	2,548.83	68.3596	2,548.83	68.0425	2,548.83	70.3796	2,548.83	71.6224	2,548.83	66.002	2,548.83	73.2503	2,548.83	70.7886	2,548.83	72.9708	2,548.83	70.108	2,548.83	64.7598	2,548.83	66.5592	2,548.83	62.8266	2,548.83	73.6779	2,548.83	72.4188
2,639.65	87.5164	2,639.65	86.7672	2,639.65	86.5228	2,639.65	84.0768	2,639.65	83.4148	2,639.65	81.3112	2,639.65	74.643	2,639.65	75.4065	2,639.65	75.5079	2,639.65	76.4248	2,639.65	78.1071	2,639.65	78.4462	2,639.65	77.8881	2,639.65	78.4816	2,639.65	79.3946	2,639.65	74.6417	2,639.65	80.7622	2,639.65	72.4113	2,639.65	74.3459	2,639.65	74.8597	2,639.65	72.5455	2,639.65	74.444	2,639.65	62.8946	2,639.65	68.1555	2,639.65	71.087	2,639.65	71.8959	2,639.65	67.0663	2,639.65	71.9081	2,639.65	69.8161	2,639.65	72.7902	2,639.65	64.9763	2,639.65	66.0499	2,639.65	63.4094	2,639.65	59.1628	2,639.65	73.013	2,639.65	69.1761
2,731.93	86.8454	2,731.93	85.3241	2,731.93	85.5379	2,731.93	83.3029	2,731.93	82.5011	2,731.93	79.7842	2,731.93	76.0058	2,731.93	77.2566	2,731.93	77.2847	2,731.93	78.313	2,731.93	79.3447	2,731.93	78.5635	2,731.93	79.304	2,731.93	76.2261	2,731.93	79.4262	2,731.93	76.9893	2,731.93	78.3269	2,731.93	77.2623	2,731.93	73.9939	2,731.93	73.9425	2,731.93	73.7046	2,731.93	72.525	2,731.93	60.4028	2,731.93	72.2155	2,731.93	69.6666	2,731.93	70.6653	2,731.93	67.5437	2,731.93	72.6907	2,731.93	68.8099	2,731.93	69.9833	2,731.93	67.1225	2,731.93	64.3163	2,731.93	68.5364	2,731.93	63.0791	2,731.93	73.5678	2,731.93	67.4238
2,828.61	86.7673	2,828.61	85.2979	2,828.61	85.3359	2,828.61	82.338	2,828.61	80.1516	2,828.61	78.467	2,828.61	74.2883	2,828.61	79.5125	2,828.61	77.2665	2,828.61	79.6595	2,828.61	79.7222	2,828.61	78.9631	2,828.61	78.8938	2,828.61	77.3999	2,828.61	78.875	2,828.61	76.6938	2,828.61	78.7109	2,828.61	75.476	2,828.61	73.1894	2,828.61	71.1169	2,828.61	75.6653	2,828.61	71.563	2,828.61	60.9784	2,828.61	71.1261	2,828.61	72.1971	2,828.61	70.9452	2,828.61	65.3634	2,828.61	71.7961	2,828.61	69.1724	2,828.61	72.217	2,828.61	69.0869	2,828.61	66.1393	2,828.61	65.4824	2,828.61	57.2928	2,828.61	73.1543	2,828.61	67.7595
2,928.22	87.1134	2,928.22	86.4092	2,928.22	85.6988	2,928.22	83.0974	2,928.22	80.3849	2,928.22	80.2505	2,928.22	74.2882	2,928.22	79.6295	2,928.22	78.7161	2,928.22	80.4336	2,928.22	80.2628	2,928.22	80.3921	2,928.22	79.7016	2,928.22	80.1296	2,928.22	79.1924	2,928.22	77.4621	2,928.22	73.9532	2,928.22	72.0484	2,928.22	75.661	2,928.22	73.2966	2,928.22	74.1151	2,928.22	69.8318	2,928.22	65.8788	2,928.22	72.6242	2,928.22	70.2644	2,928.22	69.8725	2,928.22	68.0534	2,928.22	70.9592	2,928.22	69.6313	2,928.22	72.1803	2,928.22	65.8897	2,928.22	68.6277	2,928.22	65.3896	2,928.22	66.5113	2,928.22	70.8275	2,928.22	61.57
3,030.76	87.4298	3,030.76	86.4533	3,030.76	85.8029	3,030.76	83.9649	3,030.76	80.3594	3,030.76	80.9342	3,030.76	73.8137	3,030.76	80.2283	3,030.76	79.4327	3,030.76	81.0417	3,030.76	81.13	3,030.76	81.0803	3,030.76	79.1593	3,030.76	79.556	3,030.76	78.7875	3,030.76	73.6067	3,030.76	75.5664	3,030.76	75.6931	3,030.76	78.8688	3,030.76	73.5578	3,030.76	71.6476	3,030.76	72.3757	3,030.76	62.921	3,030.76	71.322	3,030.76	66.0591	3,030.76	73.1318	3,030.76	67.7768	3,030.76	68.3589	3,030.76	70.4269	3,030.76	70.0178	3,030.76	68.5037	3,030.76	66.8686	3,030.76	66.4275	3,030.76	66.8662	3,030.76	72.9463	3,030.76	68.9544
3,137.7	87.4398	3,137.7	86.4981	3,137.7	86.1964	3,137.7	84.3395	3,137.7	81.4558	3,137.7	81.6105	3,137.7	74.4727	3,137.7	82.7405	3,137.7	80.2453	3,137.7	81.7104	3,137.7	81.8051	3,137.7	81.2159	3,137.7	78.8217	3,137.7	76.0338	3,137.7	77.5293	3,137.7	77.3952	3,137.7	78.3679	3,137.7	75.8287	3,137.7	78.537	3,137.7	72.1572	3,137.7	60.2031	3,137.7	72.2886	3,137.7	46.4568	3,137.7	70.5449	3,137.7	64.7478	3,137.7	71.4278	3,137.7	68.6154	3,137.7	70.3321	3,137.7	68.3595	3,137.7	71.0152	3,137.7	68.5921	3,137.7	65.6885	3,137.7	69.8921	3,137.7	66.4261	3,137.7	73.9154	3,137.7	67.5812
3,249.02	87.0299	3,249.02	86.5234	3,249.02	85.6278	3,249.02	83.239	3,249.02	82.1025	3,249.02	82.7418	3,249.02	76.0123	3,249.02	83.1407	3,249.02	81.0799	3,249.02	82.4282	3,249.02	81.7367	3,249.02	79.1875	3,249.02	81.2668	3,249.02	78.8863	3,249.02	80.8428	3,249.02	78.8322	3,249.02	82.118	3,249.02	72.4401	3,249.02	78.0259	3,249.02	73.5338	3,249.02	70.5602	3,249.02	70.0661	3,249.02	40.6459	3,249.02	72.5046	3,249.02	61.3862	3,249.02	70.3361	3,249.02	68.8511	3,249.02	70.8406	3,249.02	66.8659	3,249.02	69.7668	3,249.02	69.6018	3,249.02	66.2781	3,249.02	71.0779	3,249.02	64.6907	3,249.02	73.5315	3,249.02	65.8334
3,363.28	87.1933	3,363.28	85.8974	3,363.28	85.2597	3,363.28	82.8962	3,363.28	81.1595	3,363.28	82.9666	3,363.28	77.7168	3,363.28	83.2266	3,363.28	81.059	3,363.28	81.5972	3,363.28	81.3382	3,363.28	80.1099	3,363.28	82.5596	3,363.28	80.1401	3,363.28	82.8614	3,363.28	74.4238	3,363.28	83.5191	3,363.28	74.9211	3,363.28	77.4221	3,363.28	73.6976	3,363.28	70.8939	3,363.28	73.3266	3,363.28	55.6558	3,363.28	70.504	3,363.28	66.7875	3,363.28	71.1696	3,363.28	66.9093	3,363.28	71.1175	3,363.28	66.9619	3,363.28	70.6944	3,363.28	68.8912	3,363.28	67.1139	3,363.28	71.2389	3,363.28	64.2305	3,363.28	73.6213	3,363.28	66.5799
3,481.93	87.1381	3,481.93	86.4031	3,481.93	85.2639	3,481.93	84.0023	3,481.93	81.8822	3,481.93	83.4456	3,481.93	75.7722	3,481.93	83.2267	3,481.93	80.7332	3,481.93	82.1894	3,481.93	80.8939	3,481.93	82.1518	3,481.93	82.1914	3,481.93	79.5401	3,481.93	81.9951	3,481.93	78.7248	3,481.93	82.9483	3,481.93	78.1436	3,481.93	76.3664	3,481.93	71.7195	3,481.93	70.1815	3,481.93	74.3604	3,481.93	59.6511	3,481.93	71.517	3,481.93	66.0087	3,481.93	70.5921	3,481.93	64.9083	3,481.93	71.6392	3,481.93	67.0583	3,481.93	70.5643	3,481.93	68.7329	3,481.93	69.3464	3,481.93	70.891	3,481.93	64.3517	3,481.93	72.3116	3,481.93	66.0699
3,604.98	87.2256	3,604.98	85.2365	3,604.98	84.8592	3,604.98	84.1227	3,604.98	81.2314	3,604.98	84.5093	3,604.98	78.4827	3,604.98	82.9057	3,604.98	80.5278	3,604.98	83.024	3,604.98	82.0732	3,604.98	82.5198	3,604.98	83.2611	3,604.98	80.5929	3,604.98	81.1003	3,604.98	80.0824	3,604.98	80.3838	3,604.98	76.6664	3,604.98	70.2644	3,604.98	72.9408	3,604.98	62.8855	3,604.98	73.1801	3,604.98	60.1384	3,604.98	72.9521	3,604.98	64.394	3,604.98	71.4571	3,604.98	64.5543	3,604.98	71.2439	3,604.98	67.3681	3,604.98	70.809	3,604.98	69.3938	3,604.98	69.7	3,604.98	70.5362	3,604.98	63.0396	3,604.98	71.9677	3,604.98	66.9606
3,732.42	87.0695	3,732.42	85.0862	3,732.42	85.6498	3,732.42	84.2966	3,732.42	79.8884	3,732.42	84.358	3,732.42	78.0004	3,732.42	83.6546	3,732.42	79.6528	3,732.42	83.4756	3,732.42	82.9723	3,732.42	82.6394	3,732.42	82.9607	3,732.42	80.9864	3,732.42	79.447	3,732.42	76.0976	3,732.42	72.7907	3,732.42	74.6274	3,732.42	72.7397	3,732.42	73.2937	3,732.42	66.3176	3,732.42	70.6834	3,732.42	49.8669	3,732.42	71.6211	3,732.42	67.8499	3,732.42	71.1715	3,732.42	69.648	3,732.42	70.1093	3,732.42	64.5446	3,732.42	68.998	3,732.42	68.5808	3,732.42	68.8206	3,732.42	70.6284	3,732.42	60.4353	3,732.42	70.8924	3,732.42	66.0886
3,864.26	85.9264	3,864.26	84.4515	3,864.26	85.7359	3,864.26	84.9889	3,864.26	81.7374	3,864.26	83.7648	3,864.26	76.4978	3,864.26	83.7924	3,864.26	80.2313	3,864.26	84.0573	3,864.26	83.0788	3,864.26	82.5084	3,864.26	81.6223	3,864.26	79.8291	3,864.26	79.4972	3,864.26	76.8607	3,864.26	75.0847	3,864.26	74.9029	3,864.26	74.4043	3,864.26	72.6625	3,864.26	72.0082	3,864.26	71.0634	3,864.26	58.3353	3,864.26	69.7477	3,864.26	68.8937	3,864.26	71.2305	3,864.26	67.6184	3,864.26	70.8385	3,864.26	68.3017	3,864.26	66.8137	3,864.26	68.3541	3,864.26	65.8743	3,864.26	72.1942	3,864.26	65.661	3,864.26	71.5535	3,864.26	68.3458
4,000.49	84.871	4,000.49	84.4146	4,000.49	84.1469	4,000.49	84.9142	4,000.49	81.3597	4,000.49	83.4801	4,000.49	78.1788	4,000.49	84.3973	4,000.49	80.1132	4,000.49	83.927	4,000.49	84.1316	4,000.49	81.5808	4,000.49	82.0818	4,000.49	78.8531	4,000.49	78.2147	4,000.49	78.5171	4,000.49	74.6634	4,000.49	72.7197	4,000.49	75.4959	4,000.49	71.8642	4,000.49	69.8987	4,000.49	71.8862	4,000.49	62.4253	4,000.49	69.9485	4,000.49	66.9154	4,000.49	69.9694	4,000.49	65.8512	4,000.49	69.7912	4,000.49	66.8065	4,000.49	68.8758	4,000.49	70.7421	4,000.49	64.4633	4,000.49	73.0625	4,000.49	60.6747	4,000.49	70.6455	4,000.49	67.4047
4,141.11	85.0265	4,141.11	87.0493	4,141.11	85.5415	4,141.11	84.705	4,141.11	81.779	4,141.11	84.448	4,141.11	79.1646	4,141.11	85.6853	4,141.11	80.0479	4,141.11	84.3507	4,141.11	83.9841	4,141.11	80.6525	4,141.11	82.4927	4,141.11	80.6924	4,141.11	76.0992	4,141.11	75.7113	4,141.11	76.7637	4,141.11	75.4648	4,141.11	78.1302	4,141.11	73.6207	4,141.11	63.5616	4,141.11	71.5238	4,141.11	66.4834	4,141.11	70.7418	4,141.11	65.8471	4,141.11	71.9118	4,141.11	61.1854	4,141.11	69.8461	4,141.11	63.9872	4,141.11	70.4853	4,141.11	69.5262	4,141.11	64.6681	4,141.11	71.525	4,141.11	62.5768	4,141.11	70.0015	4,141.11	68.8227
4,287.6	84.8436	4,287.6	86.4321	4,287.6	85.3147	4,287.6	83.5418	4,287.6	83.4144	4,287.6	85.4608	4,287.6	79.7752	4,287.6	85.6385	4,287.6	81.4635	4,287.6	82.4555	4,287.6	84.5407	4,287.6	82.5583	4,287.6	81.2186	4,287.6	78.5453	4,287.6	78.4232	4,287.6	79.8863	4,287.6	78.6609	4,287.6	75.2113	4,287.6	75.7314	4,287.6	72.7463	4,287.6	63.7815	4,287.6	72.3439	4,287.6	66.9644	4,287.6	71.3287	4,287.6	65.6033	4,287.6	71.0042	4,287.6	68.2978	4,287.6	69.437	4,287.6	61.4615	4,287.6	70.188	4,287.6	68.3072	4,287.6	65.6922	4,287.6	69.8217	4,287.6	62.715	4,287.6	70.4938	4,287.6	69.2758
4,438.48	86.1185	4,438.48	85.6041	4,438.48	85.0369	4,438.48	83.6577	4,438.48	84.3779	4,438.48	86.1567	4,438.48	81.7031	4,438.48	84.6743	4,438.48	81.6125	4,438.48	84.0701	4,438.48	82.8358	4,438.48	81.4876	4,438.48	77.85	4,438.48	80.6405	4,438.48	80.5138	4,438.48	77.1072	4,438.48	80.2048	4,438.48	73.5564	4,438.48	72.6354	4,438.48	73.1489	4,438.48	69.9071	4,438.48	68.6181	4,438.48	65.6976	4,438.48	71.5534	4,438.48	65.1384	4,438.48	69.5322	4,438.48	68.9024	4,438.48	69.9768	4,438.48	56.3264	4,438.48	68.2919	4,438.48	67.0454	4,438.48	64.7956	4,438.48	71.456	4,438.48	58.4591	4,438.48	70.8013	4,438.48	67.8845
4,595.21	86.1094	4,595.21	86.0603	4,595.21	84.0253	4,595.21	84.4282	4,595.21	84.913	4,595.21	85.1031	4,595.21	82.3515	4,595.21	84.9209	4,595.21	82.4067	4,595.21	83.2822	4,595.21	80.629	4,595.21	82.7077	4,595.21	79.4233	4,595.21	79.5945	4,595.21	81.3044	4,595.21	77.3947	4,595.21	78.6921	4,595.21	73.2815	4,595.21	72.6404	4,595.21	69.8454	4,595.21	71.2107	4,595.21	71.4109	4,595.21	51.1869	4,595.21	68.9276	4,595.21	62.3256	4,595.21	70.6403	4,595.21	67.2972	4,595.21	68.7838	4,595.21	61.4169	4,595.21	67.8386	4,595.21	68.3019	4,595.21	61.3726	4,595.21	71.6561	4,595.21	59.1995	4,595.21	71.7625	4,595.21	68.6517
4,756.35	86.4424	4,756.35	85.1552	4,756.35	82.9957	4,756.35	85.4837	4,756.35	84.819	4,756.35	85.749	4,756.35	83.5408	4,756.35	84.7451	4,756.35	82.2221	4,756.35	83.7358	4,756.35	76.7412	4,756.35	82.2785	4,756.35	82.9682	4,756.35	78.4448	4,756.35	82.3583	4,756.35	78.0327	4,756.35	75.5379	4,756.35	72.0546	4,756.35	75.3765	4,756.35	72.909	4,756.35	68.8617	4,756.35	67.3194	4,756.35	53.2941	4,756.35	69.136	4,756.35	52.9715	4,756.35	68.665	4,756.35	66.514	4,756.35	68.7405	4,756.35	58.1602	4,756.35	67.9619	4,756.35	67.2088	4,756.35	66.254	4,756.35	71.8001	4,756.35	60.7567	4,756.35	71.0419	4,756.35	67.2445
4,924.8	87.5762	4,924.8	84.1048	4,924.8	84.7197	4,924.8	85.1392	4,924.8	84.1459	4,924.8	85.2034	4,924.8	83.6756	4,924.8	85.0306	4,924.8	83.1818	4,924.8	84.2368	4,924.8	77.0436	4,924.8	80.2578	4,924.8	84.5763	4,924.8	79.474	4,924.8	80.4524	4,924.8	75.3411	4,924.8	77.0148	4,924.8	74.8316	4,924.8	74.596	4,924.8	70.5389	4,924.8	70.988	4,924.8	70.1709	4,924.8	62.1843	4,924.8	70.0741	4,924.8	60.2675	4,924.8	68.6716	4,924.8	66.2087	4,924.8	69.2429	4,924.8	57.2899	4,924.8	65.8549	4,924.8	66.6305	4,924.8	62.8034	4,924.8	71.5978	4,924.8	55.4579	4,924.8	71.7592	4,924.8	63.6052
5,097.66	87.3627	5,097.66	85.4169	5,097.66	85.1421	5,097.66	87.1416	5,097.66	84.1848	5,097.66	85.1966	5,097.66	84.5494	5,097.66	85.7326	5,097.66	81.9499	5,097.66	83.059	5,097.66	79.1406	5,097.66	81.3981	5,097.66	83.5534	5,097.66	79.0955	5,097.66	76.7894	5,097.66	78.9348	5,097.66	76.0353	5,097.66	74.8721	5,097.66	71.7774	5,097.66	72.7935	5,097.66	71.8367	5,097.66	69.7037	5,097.66	58.5141	5,097.66	69.6771	5,097.66	65.2747	5,097.66	70.7459	5,097.66	64.0479	5,097.66	68.5661	5,097.66	63.1903	5,097.66	67.7918	5,097.66	67.9607	5,097.66	68.4916	5,097.66	73.0153	5,097.66	55.7344	5,097.66	71.8598	5,097.66	65.507
5,277.83	86.8052	5,277.83	84.6708	5,277.83	85.6176	5,277.83	85.2428	5,277.83	83.2958	5,277.83	85.5259	5,277.83	85.6372	5,277.83	85.3764	5,277.83	78.5351	5,277.83	83.3067	5,277.83	81.4903	5,277.83	80.7094	5,277.83	81.1945	5,277.83	81.2888	5,277.83	76.5867	5,277.83	76.9697	5,277.83	73.6018	5,277.83	74.9607	5,277.83	72.122	5,277.83	71.6743	5,277.83	70.8078	5,277.83	69.4082	5,277.83	52.7662	5,277.83	68.8602	5,277.83	66.5772	5,277.83	70.1429	5,277.83	58.5776	5,277.83	69.2669	5,277.83	43.0391	5,277.83	67.2024	5,277.83	68.2791	5,277.83	63.4261	5,277.83	72.0776	5,277.83	63.1514	5,277.83	68.6313	5,277.83	65.5781
5,463.87	86.4609	5,463.87	86.018	5,463.87	86.4387	5,463.87	85.3723	5,463.87	82.8694	5,463.87	86.0578	5,463.87	85.5619	5,463.87	84.8214	5,463.87	78.7236	5,463.87	83.1906	5,463.87	81.024	5,463.87	82.0262	5,463.87	76.8109	5,463.87	79.7374	5,463.87	75.5168	5,463.87	78.1845	5,463.87	73.8493	5,463.87	73.8942	5,463.87	72.6912	5,463.87	71.0249	5,463.87	69.6951	5,463.87	69.6701	5,463.87	63.4278	5,463.87	68.3596	5,463.87	68.3037	5,463.87	67.9442	5,463.87	63.9835	5,463.87	69.0479	5,463.87	62.1198	5,463.87	68.357	5,463.87	69.8992	5,463.87	63.3795	5,463.87	72.7907	5,463.87	59.9464	5,463.87	70.3308	5,463.87	65.7123
5,657.23	86.6691	5,657.23	86.0739	5,657.23	87.1571	5,657.23	85.4449	5,657.23	82.8945	5,657.23	86.0538	5,657.23	84.0474	5,657.23	84.2151	5,657.23	79.401	5,657.23	83.8272	5,657.23	77.042	5,657.23	81.465	5,657.23	76.6142	5,657.23	80.0167	5,657.23	76.1426	5,657.23	74.5958	5,657.23	70.3426	5,657.23	71.6188	5,657.23	72.3853	5,657.23	70.16	5,657.23	71.2728	5,657.23	67.6948	5,657.23	60.7725	5,657.23	69.767	5,657.23	66.7261	5,657.23	65.5953	5,657.23	65.9284	5,657.23	67.8355	5,657.23	60.405	5,657.23	67.7859	5,657.23	70.0243	5,657.23	63.2647	5,657.23	72.6671	5,657.23	52.3413	5,657.23	69.8543	5,657.23	64.0567
5,856.45	86.2011	5,856.45	85.9137	5,856.45	87.2061	5,856.45	84.988	5,856.45	82.6665	5,856.45	85.8291	5,856.45	83.3773	5,856.45	84.22	5,856.45	79.3381	5,856.45	83.0978	5,856.45	73.6643	5,856.45	79.7746	5,856.45	75.8412	5,856.45	77.3166	5,856.45	76.7766	5,856.45	76.4573	5,856.45	73.9778	5,856.45	71.2494	5,856.45	74.704	5,856.45	68.1146	5,856.45	70.6139	5,856.45	66.9414	5,856.45	61.0157	5,856.45	67.9598	5,856.45	67.6559	5,856.45	68.5995	5,856.45	62.9713	5,856.45	64.0625	5,856.45	58.9363	5,856.45	66.4462	5,856.45	68.9383	5,856.45	65.9984	5,856.45	70.4749	5,856.45	57.3101	5,856.45	68.991	5,856.45	64.8659
6,062.99	86.92	6,062.99	86.5301	6,062.99	86.7267	6,062.99	86.364	6,062.99	80.304	6,062.99	86.1651	6,062.99	82.9797	6,062.99	84.5266	6,062.99	77.8601	6,062.99	83.2437	6,062.99	71.2058	6,062.99	79.1157	6,062.99	74.5338	6,062.99	77.9062	6,062.99	75.1399	6,062.99	74.8652	6,062.99	73.7927	6,062.99	73.142	6,062.99	73.3341	6,062.99	68.512	6,062.99	62.4436	6,062.99	65.8565	6,062.99	58.5991	6,062.99	69.0954	6,062.99	66.8071	6,062.99	67.5415	6,062.99	63.638	6,062.99	67.3526	6,062.99	48.3305	6,062.99	62.953	6,062.99	68.6756	6,062.99	66.3865	6,062.99	69.5903	6,062.99	57.5277	6,062.99	68.7816	6,062.99	64.2989
6,276.86	86.5799	6,276.86	86.7564	6,276.86	86.8226	6,276.86	86.7259	6,276.86	82.7861	6,276.86	85.8282	6,276.86	80.0432	6,276.86	85.4724	6,276.86	78.0878	6,276.86	82.0128	6,276.86	67.4654	6,276.86	80.4204	6,276.86	75.2586	6,276.86	77.7388	6,276.86	76.0713	6,276.86	77.0093	6,276.86	74.5547	6,276.86	72.5535	6,276.86	71.5965	6,276.86	68.1242	6,276.86	67.6652	6,276.86	66.9243	6,276.86	54.1813	6,276.86	68.0658	6,276.86	63.9085	6,276.86	66.9262	6,276.86	65.6027	6,276.86	66.7707	6,276.86	62.5881	6,276.86	62.7521	6,276.86	66.7347	6,276.86	66.2327	6,276.86	69.6437	6,276.86	62.7822	6,276.86	70.1375	6,276.86	64.1611
6,498.05	86.9616	6,498.05	87.0405	6,498.05	86.4317	6,498.05	86.6947	6,498.05	84.3896	6,498.05	85.8618	6,498.05	80.7484	6,498.05	85.4128	6,498.05	80.021	6,498.05	82.2458	6,498.05	70.7737	6,498.05	80.8508	6,498.05	76.715	6,498.05	78.1747	6,498.05	76.529	6,498.05	73.3635	6,498.05	73.1333	6,498.05	72.1145	6,498.05	69.0927	6,498.05	65.9632	6,498.05	70.6115	6,498.05	65.795	6,498.05	47.6629	6,498.05	66.6609	6,498.05	59.1094	6,498.05	66.488	6,498.05	66.2456	6,498.05	66.1604	6,498.05	66.6666	6,498.05	63.8542	6,498.05	61.7145	6,498.05	62.4252	6,498.05	71.2265	6,498.05	63.022	6,498.05	68.1833	6,498.05	55.3
6,726.56	87.3948	6,726.56	87.6172	6,726.56	87.2125	6,726.56	87.0587	6,726.56	85.3282	6,726.56	86.4426	6,726.56	80.6165	6,726.56	85.2474	6,726.56	81.9998	6,726.56	82.6765	6,726.56	72.2466	6,726.56	80.3785	6,726.56	77.5941	6,726.56	77.0509	6,726.56	75.0931	6,726.56	73.3102	6,726.56	69.3067	6,726.56	71.4437	6,726.56	70.6899	6,726.56	66.0968	6,726.56	66.6845	6,726.56	65.8272	6,726.56	58.6621	6,726.56	66.1276	6,726.56	56.5127	6,726.56	67.8187	6,726.56	64.2482	6,726.56	64.838	6,726.56	65.4878	6,726.56	65.5019	6,726.56	60.4895	6,726.56	62.8213	6,726.56	70.2355	6,726.56	63.2309	6,726.56	68.1753	6,726.56	55.8607
6,963.87	86.6215	6,963.87	87.2456	6,963.87	86.5267	6,963.87	86.824	6,963.87	85.032	6,963.87	86.7726	6,963.87	80.8753	6,963.87	85.384	6,963.87	82.1131	6,963.87	83.2494	6,963.87	70.1918	6,963.87	80.2835	6,963.87	77.5956	6,963.87	77.2974	6,963.87	66.7675	6,963.87	73.788	6,963.87	74.7124	6,963.87	71.0487	6,963.87	69.5806	6,963.87	65.8597	6,963.87	62.9464	6,963.87	65.1749	6,963.87	59.9614	6,963.87	65.0419	6,963.87	47.0943	6,963.87	67.2336	6,963.87	59.6043	6,963.87	65.5888	6,963.87	66.3936	6,963.87	66.6645	6,963.87	57.4634	6,963.87	66.2222	6,963.87	68.9991	6,963.87	64.5912	6,963.87	66.2663	6,963.87	55.2083
7,209.96	87.1079	7,209.96	87.3877	7,209.96	85.7796	7,209.96	87.2506	7,209.96	84.1766	7,209.96	86.5356	7,209.96	82.4236	7,209.96	85.1198	7,209.96	82.4169	7,209.96	83.3305	7,209.96	74.0372	7,209.96	79.2429	7,209.96	76.246	7,209.96	78.3598	7,209.96	73.4867	7,209.96	72.8242	7,209.96	73.9244	7,209.96	70.916	7,209.96	65.7594	7,209.96	63.2349	7,209.96	67.9234	7,209.96	64.8948	7,209.96	63.0373	7,209.96	64.2981	7,209.96	54.4998	7,209.96	65.3603	7,209.96	59.6734	7,209.96	65.0343	7,209.96	64.0796	7,209.96	66.5446	7,209.96	61.8801	7,209.96	66.5283	7,209.96	68.7429	7,209.96	63.1183	7,209.96	62.8732	7,209.96	57.611
7,464.84	87.3729	7,464.84	86.7264	7,464.84	86.6491	7,464.84	87.0142	7,464.84	84.3027	7,464.84	86.3642	7,464.84	83.168	7,464.84	85.0635	7,464.84	80.6428	7,464.84	82.1911	7,464.84	75.4892	7,464.84	79.9699	7,464.84	72.3089	7,464.84	77.4578	7,464.84	78.2152	7,464.84	73.3976	7,464.84	73.3853	7,464.84	70.0372	7,464.84	73.4118	7,464.84	63.1964	7,464.84	70.3077	7,464.84	63.3769	7,464.84	64.0755	7,464.84	64.8111	7,464.84	56.2379	7,464.84	65.2771	7,464.84	56.968	7,464.84	62.6591	7,464.84	64.2647	7,464.84	65.8677	7,464.84	58.0925	7,464.84	66.9438	7,464.84	66.4545	7,464.84	63.1767	7,464.84	58.3687	7,464.84	53.2019
7,727.05	87.4709	7,727.05	86.8883	7,727.05	86.2524	7,727.05	87.2395	7,727.05	85.1738	7,727.05	85.1794	7,727.05	81.9915	7,727.05	84.2996	7,727.05	78.8973	7,727.05	81.5921	7,727.05	76.5397	7,727.05	78.9154	7,727.05	68.0087	7,727.05	76.2115	7,727.05	77.5241	7,727.05	71.6151	7,727.05	69.2457	7,727.05	71.7725	7,727.05	71.1373	7,727.05	63.1586	7,727.05	66.934	7,727.05	63.8648	7,727.05	63.7565	7,727.05	64.8526	7,727.05	47.658	7,727.05	64.8915	7,727.05	52.8138	7,727.05	64.0553	7,727.05	64.1161	7,727.05	65.1667	7,727.05	57.0248	7,727.05	67.2651	7,727.05	65.3609	7,727.05	62.3662	7,727.05	59.7535	7,727.05	51.602
7,999.51	87.7831	7,999.51	87.89	7,999.51	85.8762	7,999.51	86.8512	7,999.51	84.2871	7,999.51	85.1689	7,999.51	80.759	7,999.51	83.4972	7,999.51	79.6462	7,999.51	81.2782	7,999.51	75.2529	7,999.51	77.674	7,999.51	71.1496	7,999.51	75.4133	7,999.51	74.7892	7,999.51	71.1192	7,999.51	59.0695	7,999.51	68.871	7,999.51	62.1212	7,999.51	63.1266	7,999.51	62.8528	7,999.51	63.2601	7,999.51	61.2737	7,999.51	61.3529	7,999.51	53.0206	7,999.51	66.4246	7,999.51	55.5245	7,999.51	62.3332	7,999.51	62.2755	7,999.51	63.3827	7,999.51	56.2818	7,999.51	65.8743	7,999.51	65.7525	7,999.51	65.0856	7,999.51	60.3973	7,999.51	56.3559
8,282.23	87.3127	8,282.23	87.9381	8,282.23	85.4598	8,282.23	86.8931	8,282.23	83.7869	8,282.23	85.2901	8,282.23	79.5769	8,282.23	82.8751	8,282.23	80.207	8,282.23	80.6927	8,282.23	73.7974	8,282.23	77.0098	8,282.23	69.0062	8,282.23	74.9968	8,282.23	69.6501	8,282.23	69.8726	8,282.23	67.1481	8,282.23	65.6979	8,282.23	60.8412	8,282.23	61.9148	8,282.23	63.289	8,282.23	57.4276	8,282.23	60.3699	8,282.23	60.5006	8,282.23	55.3643	8,282.23	63.4416	8,282.23	55.0122	8,282.23	59.4624	8,282.23	59.6693	8,282.23	63.4176	8,282.23	54.717	8,282.23	64.2796	8,282.23	66.0535	8,282.23	64.1853	8,282.23	63.0083	8,282.23	58.869
8,573.73	87.8841	8,573.73	87.7628	8,573.73	86.4361	8,573.73	86.9833	8,573.73	83.1599	8,573.73	84.9778	8,573.73	80.117	8,573.73	82.6568	8,573.73	78.9399	8,573.73	80.3711	8,573.73	75.6019	8,573.73	77.0003	8,573.73	64.8349	8,573.73	72.7656	8,573.73	73.4326	8,573.73	67.7974	8,573.73	65.9557	8,573.73	63.2694	8,573.73	65.0946	8,573.73	55.2768	8,573.73	62.9131	8,573.73	54.1525	8,573.73	59.0927	8,573.73	56.2188	8,573.73	55.407	8,573.73	58.5115	8,573.73	59.45	8,573.73	58.3696	8,573.73	59.4701	8,573.73	62.2991	8,573.73	53.2553	8,573.73	62.359	8,573.73	63.5449	8,573.73	63.8766	8,573.73	62.5867	8,573.73	60.3295
8,876.95	87.1945	8,876.95	87.8079	8,876.95	86.1987	8,876.95	86.7773	8,876.95	84.1935	8,876.95	85.0164	8,876.95	80.5988	8,876.95	82.7378	8,876.95	79.1992	8,876.95	79.8834	8,876.95	75.3386	8,876.95	75.3337	8,876.95	55.8012	8,876.95	70.88	8,876.95	73.4185	8,876.95	64.2493	8,876.95	60.5159	8,876.95	62.2829	8,876.95	59.5165	8,876.95	51.7733	8,876.95	57.5817	8,876.95	58.1479	8,876.95	61.3143	8,876.95	54.0712	8,876.95	54.1259	8,876.95	56.5238	8,876.95	53.8392	8,876.95	57.118	8,876.95	62.3449	8,876.95	60.699	8,876.95	55.6826	8,876.95	62.0943	8,876.95	61.6882	8,876.95	62.3658	8,876.95	61.5138	8,876.95	60.4389
9,188.96	87.8287	9,188.96	87.9417	9,188.96	86.3243	9,188.96	86.3468	9,188.96	84.3382	9,188.96	85.3199	9,188.96	81.0186	9,188.96	82.9482	9,188.96	77.3914	9,188.96	79.0769	9,188.96	74.9057	9,188.96	73.4555	9,188.96	58.1789	9,188.96	68.8625	9,188.96	72.5502	9,188.96	62.685	9,188.96	64.4488	9,188.96	57.8931	9,188.96	56.8322	9,188.96	54.8677	9,188.96	59.3102	9,188.96	52.9738	9,188.96	61.7696	9,188.96	53.2656	9,188.96	58.1604	9,188.96	56.5507	9,188.96	49.8419	9,188.96	56.0264	9,188.96	61.2326	9,188.96	59.8516	9,188.96	55.6612	9,188.96	62.1254	9,188.96	58.7791	9,188.96	61.5216	9,188.96	61.8485	9,188.96	62.0295
9,514.16	88.064	9,514.16	88.0655	9,514.16	86.2148	9,514.16	86.6021	9,514.16	83.4776	9,514.16	85.6261	9,514.16	80.2747	9,514.16	82.8936	9,514.16	75.8625	9,514.16	78.1009	9,514.16	73.7107	9,514.16	72.7182	9,514.16	64.6139	9,514.16	66.5447	9,514.16	67.7627	9,514.16	62.8077	9,514.16	68.0225	9,514.16	56.4259	9,514.16	52.0336	9,514.16	55.0823	9,514.16	58.9234	9,514.16	53.263	9,514.16	62.7951	9,514.16	52.0355	9,514.16	58.6218	9,514.16	58.5949	9,514.16	52.5188	9,514.16	56.1691	9,514.16	59.562	9,514.16	57.3886	9,514.16	50.6444	9,514.16	60.7143	9,514.16	58.8315	9,514.16	61.8968	9,514.16	59.4869	9,514.16	62.0488
9,849.61	88.509	9,849.61	88.3357	9,849.61	86.1491	9,849.61	86.9455	9,849.61	82.3717	9,849.61	85.5935	9,849.61	78.6322	9,849.61	82.4995	9,849.61	74.9645	9,849.61	77.5651	9,849.61	72.3787	9,849.61	71.4772	9,849.61	68.1908	9,849.61	63.5118	9,849.61	65.3552	9,849.61	65.1566	9,849.61	67.3118	9,849.61	60.4026	9,849.61	58.844	9,849.61	57.2785	9,849.61	63.0931	9,849.61	54.5318	9,849.61	63.2764	9,849.61	55.5679	9,849.61	58.4555	9,849.61	60.2027	9,849.61	59.1385	9,849.61	55.9219	9,849.61	57.9594	9,849.61	55.1336	9,849.61	52.1365	9,849.61	59.848	9,849.61	58.2827	9,849.61	60.7533	9,849.61	59.3902	9,849.61	61.9292
10,196.8	89.0292	10,196.8	88.8243	10,196.8	86.401	10,196.8	87.3575	10,196.8	83.2503	10,196.8	85.2721	10,196.8	76.768	10,196.8	82.3893	10,196.8	75.4461	10,196.8	77.053	10,196.8	71.1903	10,196.8	70.0729	10,196.8	69.3735	10,196.8	65.9315	10,196.8	60.8671	10,196.8	67.0647	10,196.8	71.3855	10,196.8	62.1922	10,196.8	61.9048	10,196.8	59.6934	10,196.8	62.7948	10,196.8	55.9997	10,196.8	63.7541	10,196.8	56.2842	10,196.8	56.9398	10,196.8	61.3518	10,196.8	55.5714	10,196.8	61.341	10,196.8	56.1453	10,196.8	57.6051	10,196.8	51.6328	10,196.8	60.6066	10,196.8	55.4284	10,196.8	59.5764	10,196.8	55.973	10,196.8	61.1212
10,555.7	89.0479	10,555.7	88.8956	10,555.7	86.699	10,555.7	87.2247	10,555.7	82.7806	10,555.7	85.286	10,555.7	77.6309	10,555.7	82.038	10,555.7	73.0263	10,555.7	76.12	10,555.7	73.4489	10,555.7	71.2766	10,555.7	68.0138	10,555.7	68.4495	10,555.7	54.8796	10,555.7	68.6736	10,555.7	73.7581	10,555.7	62.1845	10,555.7	63.0336	10,555.7	61.0152	10,555.7	62.9481	10,555.7	58.6827	10,555.7	65.3083	10,555.7	57.4373	10,555.7	60.9854	10,555.7	62.552	10,555.7	41.4116	10,555.7	62.0195	10,555.7	51.269	10,555.7	59.344	10,555.7	54.2112	10,555.7	61.0404	10,555.7	52.4173	10,555.7	62.2974	10,555.7	56.9989	10,555.7	60.9617
10,927.7	89.1141	10,927.7	89.0897	10,927.7	86.7146	10,927.7	87.2298	10,927.7	82.7244	10,927.7	85.1855	10,927.7	77.5096	10,927.7	81.1475	10,927.7	71.6604	10,927.7	75.0018	10,927.7	74.5849	10,927.7	72.2318	10,927.7	69.509	10,927.7	71.4829	10,927.7	54.1267	10,927.7	70.1778	10,927.7	70.4949	10,927.7	63.9111	10,927.7	64.5742	10,927.7	60.9532	10,927.7	64.9685	10,927.7	54.7824	10,927.7	66.5469	10,927.7	58.3322	10,927.7	58.9287	10,927.7	63.64	10,927.7	54.5866	10,927.7	61.7934	10,927.7	57.3026	10,927.7	60.2187	10,927.7	52.3884	10,927.7	60.0313	10,927.7	45.4822	10,927.7	59.5778	10,927.7	56.1848	10,927.7	60.7035
11,313	88.7179	11,313	88.8313	11,313	86.612	11,313	87.0559	11,313	82.5091	11,313	84.8901	11,313	76.8594	11,313	80.1013	11,313	74.1268	11,313	74.7436	11,313	74.8901	11,313	75.585	11,313	73.1638	11,313	72.3198	11,313	66.3786	11,313	71.0311	11,313	74.0522	11,313	66.3707	11,313	66.8735	11,313	62.6481	11,313	66.5514	11,313	55.8422	11,313	67.6981	11,313	58.2415	11,313	62.3199	11,313	63.7181	11,313	50.7629	11,313	64.4659	11,313	59.0712	11,313	62.0819	11,313	46.321	11,313	61.9722	11,313	44.6185	11,313	61.6871	11,313	55.2889	11,313	61.4945
11,712.9	88.1824	11,712.9	88.5029	11,712.9	86.3179	11,712.9	86.7724	11,712.9	82.1009	11,712.9	84.1389	11,712.9	78.2957	11,712.9	79.4638	11,712.9	73.4208	11,712.9	75.0729	11,712.9	74.8051	11,712.9	76.6207	11,712.9	70.2753	11,712.9	73.5725	11,712.9	72.0042	11,712.9	71.779	11,712.9	74.739	11,712.9	66.0075	11,712.9	66.5643	11,712.9	63.1319	11,712.9	68.554	11,712.9	55.4916	11,712.9	69.8282	11,712.9	59.5847	11,712.9	60.654	11,712.9	64.597	11,712.9	51.7297	11,712.9	64.456	11,712.9	39.3492	11,712.9	62.7746	11,712.9	55.8309	11,712.9	62.5079	11,712.9	51.2223	11,712.9	63.9691	11,712.9	56.4363	11,712.9	62.7555
12,126	87.5218	12,126	88.0356	12,126	85.2545	12,126	86.344	12,126	81.3152	12,126	83.6338	12,126	78.9329	12,126	77.3547	12,126	76.7119	12,126	78.0135	12,126	77.7707	12,126	77.1353	12,126	72.2332	12,126	74.4463	12,126	72.7886	12,126	71.3309	12,126	72.2755	12,126	66.257	12,126	68.5368	12,126	64.0527	12,126	70.9738	12,126	53.6757	12,126	70.7426	12,126	60.5206	12,126	62.6196	12,126	65.1157	12,126	47.9844	12,126	64.1687	12,126	54.9168	12,126	60.961	12,126	56.2153	12,126	63.2782	12,126	51.8404	12,126	65.2036	12,126	55.8371	12,126	64.4533
12,553.7	86.5859	12,553.7	87.3521	12,553.7	85.2242	12,553.7	86.1618	12,553.7	81.3712	12,553.7	82.6906	12,553.7	79.2424	12,553.7	78.8485	12,553.7	79.3725	12,553.7	77.8651	12,553.7	77.5726	12,553.7	78.0755	12,553.7	72.6707	12,553.7	73.8996	12,553.7	74.0372	12,553.7	72.6112	12,553.7	70.3567	12,553.7	67.6058	12,553.7	70.0189	12,553.7	63.398	12,553.7	70.9387	12,553.7	51.6436	12,553.7	71.6007	12,553.7	61.2833	12,553.7	61.5762	12,553.7	64.9175	12,553.7	56.6551	12,553.7	64.3811	12,553.7	50.303	12,553.7	59.4432	12,553.7	53.5307	12,553.7	62.5375	12,553.7	56.9564	12,553.7	65.6707	12,553.7	54.7155	12,553.7	65.1908
12,996.1	86.0481	12,996.1	87.0436	12,996.1	84.4592	12,996.1	85.9132	12,996.1	81.757	12,996.1	82.2767	12,996.1	79.5414	12,996.1	79.3095	12,996.1	79.2876	12,996.1	78.3949	12,996.1	78.2542	12,996.1	77.5288	12,996.1	73.8592	12,996.1	75.3228	12,996.1	74.6944	12,996.1	72.0784	12,996.1	68.8132	12,996.1	66.1499	12,996.1	71.4493	12,996.1	62.7609	12,996.1	72.83	12,996.1	50.1171	12,996.1	72.5283	12,996.1	59.8486	12,996.1	59.9485	12,996.1	64.3323	12,996.1	54.1495	12,996.1	63.4661	12,996.1	45.2114	12,996.1	57.7211	12,996.1	57.0529	12,996.1	62.264	12,996.1	55.629	12,996.1	62.5498	12,996.1	56.1696	12,996.1	63.995
13,454.6	85.4248	13,454.6	86.6434	13,454.6	84.3299	13,454.6	85.6221	13,454.6	81.7468	13,454.6	81.9236	13,454.6	81.3867	13,454.6	79.98	13,454.6	79.0856	13,454.6	78.2111	13,454.6	78.1348	13,454.6	77.7315	13,454.6	75.3294	13,454.6	74.6333	13,454.6	73.4789	13,454.6	72.4907	13,454.6	68.0077	13,454.6	66.3876	13,454.6	71.5172	13,454.6	63.4549	13,454.6	73.3665	13,454.6	50.3143	13,454.6	73.0771	13,454.6	58.985	13,454.6	60.0375	13,454.6	63.5708	13,454.6	52.6232	13,454.6	62.9604	13,454.6	53.3112	13,454.6	59.1082	13,454.6	53.6825	13,454.6	61.7086	13,454.6	52.3151	13,454.6	61.7281	13,454.6	58.8167	13,454.6	64.8857
13,929.2	85.0476	13,929.2	86.3255	13,929.2	83.5555	13,929.2	85.3391	13,929.2	82.3167	13,929.2	82.0474	13,929.2	81.364	13,929.2	80.224	13,929.2	78.8355	13,929.2	78.0311	13,929.2	77.7652	13,929.2	77.5091	13,929.2	75.2577	13,929.2	74.772	13,929.2	72.2018	13,929.2	72.2403	13,929.2	63.013	13,929.2	65.1031	13,929.2	71.3965	13,929.2	61.6889	13,929.2	73.5996	13,929.2	48.1747	13,929.2	73.0571	13,929.2	58.4501	13,929.2	60.5239	13,929.2	62.4619	13,929.2	51.017	13,929.2	62.2102	13,929.2	49.7718	13,929.2	59.2764	13,929.2	51.1964	13,929.2	60.5699	13,929.2	55.7354	13,929.2	60.3854	13,929.2	57.8146	13,929.2	63.1276
14,419.9	84.5373	14,419.9	85.9494	14,419.9	83.3751	14,419.9	84.5292	14,419.9	82.2243	14,419.9	82.4157	14,419.9	80.6535	14,419.9	79.6264	14,419.9	79.7961	14,419.9	78.1402	14,419.9	78.4189	14,419.9	77.512	14,419.9	75.1057	14,419.9	74.4987	14,419.9	71.1535	14,419.9	71.8818	14,419.9	58.7109	14,419.9	65.2312	14,419.9	71.8066	14,419.9	61.2316	14,419.9	73.6622	14,419.9	47.3421	14,419.9	73.2899	14,419.9	57.1348	14,419.9	61.7354	14,419.9	61.2162	14,419.9	50.8857	14,419.9	61.5714	14,419.9	50.9929	14,419.9	59.7781	14,419.9	48.2537	14,419.9	59.0985	14,419.9	57.1281	14,419.9	58.3989	14,419.9	60.2107	14,419.9	61.6244
14,928.2	84.3182	14,928.2	85.3457	14,928.2	82.2775	14,928.2	83.5934	14,928.2	81.0145	14,928.2	81.9133	14,928.2	79.7885	14,928.2	80.117	14,928.2	79.8382	14,928.2	77.6769	14,928.2	78.192	14,928.2	77.7155	14,928.2	75.1872	14,928.2	74.1727	14,928.2	68.1906	14,928.2	70.9334	14,928.2	59.3062	14,928.2	63.4034	14,928.2	71.1206	14,928.2	58.7307	14,928.2	73.5727	14,928.2	45.2724	14,928.2	73.1447	14,928.2	55.9665	14,928.2	61.831	14,928.2	59.8945	14,928.2	43.5497	14,928.2	58.8792	14,928.2	47.2854	14,928.2	59.6694	14,928.2	47.8813	14,928.2	56.1187	14,928.2	50.1056	14,928.2	59.8213	14,928.2	58.532	14,928.2	62.0895
15,455.6	84.0554	15,455.6	84.6303	15,455.6	81.7578	15,455.6	82.7299	15,455.6	82.5982	15,455.6	82.1427	15,455.6	80.5386	15,455.6	80.1799	15,455.6	80.2018	15,455.6	78.6811	15,455.6	77.014	15,455.6	77.7495	15,455.6	72.5994	15,455.6	73.3698	15,455.6	67.15	15,455.6	69.927	15,455.6	55.5948	15,455.6	63.5109	15,455.6	71.1826	15,455.6	57.0241	15,455.6	73.4636	15,455.6	49.1069	15,455.6	72.8189	15,455.6	56.0245	15,455.6	60.3685	15,455.6	59.134	15,455.6	47.3593	15,455.6	57.6031	15,455.6	45.3745	15,455.6	59.7229	15,455.6	44.64	15,455.6	57.1758	15,455.6	48.3317	15,455.6	59.6717	15,455.6	58.6471	15,455.6	60.3953
16,000.5	83.5254	16,000.5	83.8793	16,000.5	81.6201	16,000.5	82.3311	16,000.5	80.5147	16,000.5	82.5137	16,000.5	82.1977	16,000.5	80.6114	16,000.5	80.3685	16,000.5	79.1414	16,000.5	77.8916	16,000.5	77.6093	16,000.5	72.5256	16,000.5	72.1596	16,000.5	66.0605	16,000.5	68.7889	16,000.5	60.0791	16,000.5	62.4264	16,000.5	71.0488	16,000.5	55.4462	16,000.5	73.5055	16,000.5	42.7197	16,000.5	72.7291	16,000.5	54.1144	16,000.5	61.1351	16,000.5	56.8403	16,000.5	50.2594	16,000.5	58.0956	16,000.5	21.3135	16,000.5	58.4715	16,000.5	38.9941	16,000.5	56.8584	16,000.5	47.5534	16,000.5	57.4506	16,000.5	57.4071	16,000.5	57.1144
16,564.5	83.2039	16,564.5	83.3422	16,564.5	81.8041	16,564.5	82.2233	16,564.5	82.8018	16,564.5	82.7342	16,564.5	82.075	16,564.5	81.0931	16,564.5	79.8831	16,564.5	79.334	16,564.5	76.7613	16,564.5	76.6976	16,564.5	72.0518	16,564.5	71.042	16,564.5	64.0946	16,564.5	68.1276	16,564.5	60.1411	16,564.5	61.518	16,564.5	70.546	16,564.5	53.0162	16,564.5	73.4249	16,564.5	42.7064	16,564.5	72.136	16,564.5	52.4183	16,564.5	60.7708	16,564.5	55.5999	16,564.5	51.284	16,564.5	57.5448	16,564.5	36.3893	16,564.5	56.0499	16,564.5	39.0902	16,564.5	56.9365	16,564.5	43.6778	16,564.5	57.7242	16,564.5	53.7846	16,564.5	56.9449
17,148.9	82.601	17,148.9	83.0948	17,148.9	81.1358	17,148.9	82.0293	17,148.9	80.4452	17,148.9	82.3218	17,148.9	81.4402	17,148.9	80.7423	17,148.9	79.5975	17,148.9	78.2992	17,148.9	76.3792	17,148.9	75.6463	17,148.9	70.9602	17,148.9	69.3524	17,148.9	62.0589	17,148.9	65.4253	17,148.9	59.2662	17,148.9	58.7526	17,148.9	69.155	17,148.9	51.1074	17,148.9	72.4864	17,148.9	36.4583	17,148.9	70.9784	17,148.9	49.2243	17,148.9	60.6656	17,148.9	52.5058	17,148.9	50.1797	17,148.9	54.907	17,148.9	42.2435	17,148.9	52.3819	17,148.9	42.8278	17,148.9	56.0471	17,148.9	35.9916	17,148.9	56.9485	17,148.9	50.0795	17,148.9	55.1081
17,752.4	81.8973	17,752.4	82.52	17,752.4	81.6641	17,752.4	81.8003	17,752.4	82.4528	17,752.4	82.3294	17,752.4	81.2276	17,752.4	81.2088	17,752.4	78.8766	17,752.4	77.9109	17,752.4	75.4551	17,752.4	74.6153	17,752.4	68.869	17,752.4	68.0385	17,752.4	58.0256	17,752.4	63.6633	17,752.4	58.5228	17,752.4	55.2554	17,752.4	67.5977	17,752.4	47.8986	17,752.4	71.3287	17,752.4	17.6567	17,752.4	69.9742	17,752.4	45.6314	17,752.4	58.3502	17,752.4	46.6321	17,752.4	40.8748	17,752.4	54.3225	17,752.4	39.8885	17,752.4	49.194	17,752.4	35.8297	17,752.4	54.0589	17,752.4	47.3472	17,752.4	54.9271	17,752.4	44.6348	17,752.4	51.9087
18,379.4	81.4267	18,379.4	82.3922	18,379.4	81.6241	18,379.4	81.779	18,379.4	82.1679	18,379.4	82.3526	18,379.4	81.1533	18,379.4	80.9844	18,379.4	78.1332	18,379.4	77.2	18,379.4	73.6488	18,379.4	72.8695	18,379.4	66.7364	18,379.4	63.9723	18,379.4	53.3097	18,379.4	59.3252	18,379.4	52.1572	18,379.4	50.6394	18,379.4	65.3071	18,379.4	38.3671	18,379.4	69.9826	18,379.4	36.6977	18,379.4	68.903	18,379.4	37.2619	18,379.4	57.6436	18,379.4	38.3992	18,379.4	40.178	18,379.4	50.1592	18,379.4	39.1451	18,379.4	41.6926	18,379.4	30.0846	18,379.4	50.3659	18,379.4	46.6378	18,379.4	49.8935	18,379.4	45.236	18,379.4	45.1923
19,026.9	81.2156	19,026.9	81.9966	19,026.9	81.7491	19,026.9	81.491	19,026.9	82.2149	19,026.9	82.329	19,026.9	79.8591	19,026.9	80.5033	19,026.9	76.1555	19,026.9	75.8803	19,026.9	70.4926	19,026.9	70.0441	19,026.9	58.9161	19,026.9	58.3895	19,026.9	51.8507	19,026.9	53.1177	19,026.9	42.8913	19,026.9	32.907	19,026.9	61.9541	19,026.9	32.3342	19,026.9	68.0527	19,026.9	34.8971	19,026.9	67.2017	19,026.9	24.5874	19,026.9	55.4788	19,026.9	37.6843	19,026.9	38.1418	19,026.9	44.1659	19,026.9	45.33	19,026.9	26.1135	19,026.9	42.6985	19,026.9	39.8631	19,026.9	47.0086	19,026.9	49.8351	19,026.9	40.2449	19,026.9	43.2915
19,697.8	80.8479	19,697.8	81.211	19,697.8	82.0112	19,697.8	81.2672	19,697.8	82.0388	19,697.8	82.3269	19,697.8	78.7319	19,697.8	80.1016	19,697.8	73.4772	19,697.8	74.2738	19,697.8	66.5933	19,697.8	66.5887	19,697.8	49.5565	19,697.8	40.0195	19,697.8	56.9988	19,697.8	55.0104	19,697.8	39.0715	19,697.8	48.5555	19,697.8	55.3909	19,697.8	44.657	19,697.8	64.8106	19,697.8	34.4714	19,697.8	64.4976	19,697.8	36.0323	19,697.8	52.7862	19,697.8	46.5871	19,697.8	32.9495	19,697.8	47.3902	19,697.8	44.2955	19,697.8	45.548	19,697.8	37.3106	19,697.8	45.3883	19,697.8	46.0825	19,697.8	52.2416	19,697.8	42.3657	19,697.8	48.0468
19,999.5	80.167	19,999.5	80.4029	19,999.5	81.9374	19,999.5	81.0383	19,999.5	81.7984	19,999.5	82.2378	19,999.5	78.6902	19,999.5	79.7498	19,999.5	71.9274	19,999.5	73.5255	19,999.5	64.5915	19,999.5	64.7284	19,999.5	56.007	19,999.5	50.8657	19,999.5	60.8904	19,999.5	57.9339	19,999.5	21.343	19,999.5	50.9784	19,999.5	52.0265	19,999.5	49.0062	19,999.5	62.9202	19,999.5	44.5096	19,999.5	63.1558	19,999.5	47.2113	19,999.5	52.4913	19,999.5	48.1979	19,999.5	47.7523	19,999.5	51.559	19,999.5	41.6971	19,999.5	45.912	19,999.5	40.6851	19,999.5	44.5958	19,999.5	50.7455	19,999.5	52.0792	19,999.5	51.8448	19,999.5	47.5242
