"SPL Vertical"
"On-Axis"		"10°"		"-10°"		"20°"		"-20°"		"30°"		"-30°"		"40°"		"-40°"		"50°"		"-50°"		"60°"		"-60°"		"70°"		"-70°"		"80°"		"-80°"		"90°"		"-90°"		"100°"		"-100°"		"110°"		"-110°"		"120°"		"-120°"		"130°"		"-130°"		"140°"		"-140°"		"150°"		"-150°"		"160°"		"-160°"		"170°"		"-170°"		"180°"
"Frequency / Hz"	"Sound Pressure Level / dB (re 20 µPa/V)  [2.83  V @ 1. m]"	"Frequency / Hz"	"Sound Pressure Level / dB (re 20 µPa/V)  [2.83  V @ 1. m]"	"Frequency / Hz"	"Sound Pressure Level / dB (re 20 µPa/V)  [2.83  V @ 1. m]"	"Frequency / Hz"	"Sound Pressure Level / dB (re 20 µPa/V)  [2.83  V @ 1. m]"	"Frequency / Hz"	"Sound Pressure Level / dB (re 20 µPa/V)  [2.83  V @ 1. m]"	"Frequency / Hz"	"Sound Pressure Level / dB (re 20 µPa/V)  [2.83  V @ 1. m]"	"Frequency / Hz"	"Sound Pressure Level / dB (re 20 µPa/V)  [2.83  V @ 1. m]"	"Frequency / Hz"	"Sound Pressure Level / dB (re 20 µPa/V)  [2.83  V @ 1. m]"	"Frequency / Hz"	"Sound Pressure Level / dB (re 20 µPa/V)  [2.83  V @ 1. m]"	"Frequency / Hz"	"Sound Pressure Level / dB (re 20 µPa/V)  [2.83  V @ 1. m]"	"Frequency / Hz"	"Sound Pressure Level / dB (re 20 µPa/V)  [2.83  V @ 1. m]"	"Frequency / Hz"	"Sound Pressure Level / dB (re 20 µPa/V)  [2.83  V @ 1. m]"	"Frequency / Hz"	"Sound Pressure Level / dB (re 20 µPa/V)  [2.83  V @ 1. m]"	"Frequency / Hz"	"Sound Pressure Level / dB (re 20 µPa/V)  [2.83  V @ 1. m]"	"Frequency / Hz"	"Sound Pressure Level / dB (re 20 µPa/V)  [2.83  V @ 1. m]"	"Frequency / Hz"	"Sound Pressure Level / dB (re 20 µPa/V)  [2.83  V @ 1. m]"	"Frequency / Hz"	"Sound Pressure Level / dB (re 20 µPa/V)  [2.83  V @ 1. m]"	"Frequency / Hz"	"Sound Pressure Level / dB (re 20 µPa/V)  [2.83  V @ 1. m]"	"Frequency / Hz"	"Sound Pressure Level / dB (re 20 µPa/V)  [2.83  V @ 1. m]"	"Frequency / Hz"	"Sound Pressure Level / dB (re 20 µPa/V)  [2.83  V @ 1. m]"	"Frequency / Hz"	"Sound Pressure Level / dB (re 20 µPa/V)  [2.83  V @ 1. m]"	"Frequency / Hz"	"Sound Pressure Level / dB (re 20 µPa/V)  [2.83  V @ 1. m]"	"Frequency / Hz"	"Sound Pressure Level / dB (re 20 µPa/V)  [2.83  V @ 1. m]"	"Frequency / Hz"	"Sound Pressure Level / dB (re 20 µPa/V)  [2.83  V @ 1. m]"	"Frequency / Hz"	"Sound Pressure Level / dB (re 20 µPa/V)  [2.83  V @ 1. m]"	"Frequency / Hz"	"Sound Pressure Level / dB (re 20 µPa/V)  [2.83  V @ 1. m]"	"Frequency / Hz"	"Sound Pressure Level / dB (re 20 µPa/V)  [2.83  V @ 1. m]"	"Frequency / Hz"	"Sound Pressure Level / dB (re 20 µPa/V)  [2.83  V @ 1. m]"	"Frequency / Hz"	"Sound Pressure Level / dB (re 20 µPa/V)  [2.83  V @ 1. m]"	"Frequency / Hz"	"Sound Pressure Level / dB (re 20 µPa/V)  [2.83  V @ 1. m]"	"Frequency / Hz"	"Sound Pressure Level / dB (re 20 µPa/V)  [2.83  V @ 1. m]"	"Frequency / Hz"	"Sound Pressure Level / dB (re 20 µPa/V)  [2.83  V @ 1. m]"	"Frequency / Hz"	"Sound Pressure Level / dB (re 20 µPa/V)  [2.83  V @ 1. m]"	"Frequency / Hz"	"Sound Pressure Level / dB (re 20 µPa/V)  [2.83  V @ 1. m]"	"Frequency / Hz"	"Sound Pressure Level / dB (re 20 µPa/V)  [2.83  V @ 1. m]"	"Frequency / Hz"	"Sound Pressure Level / dB (re 20 µPa/V)  [2.83  V @ 1. m]"
20.5078	62.7269	20.5078	62.7092	20.5078	62.7324	20.5078	62.6798	20.5078	62.7253	20.5078	62.6392	20.5078	62.7053	20.5078	62.5877	20.5078	62.6723	20.5078	62.5262	20.5078	62.6263	20.5078	62.4553	20.5078	62.568	20.5078	62.3762	20.5078	62.4982	20.5078	62.2904	20.5078	62.4183	20.5078	62.1998	20.5078	62.3302	20.5078	62.1068	20.5078	62.2364	20.5078	62.0144	20.5078	62.1395	20.5078	61.9257	20.5078	62.0427	20.5078	61.8444	20.5078	61.9497	20.5078	61.7741	20.5078	61.864	20.5078	61.7183	20.5078	61.7893	20.5078	61.6799	20.5078	61.7291	20.5078	61.6612	20.5078	61.6864	20.5078	61.6634
21.9727	64.4696	21.9727	64.4574	21.9727	64.4709	21.9727	64.4345	21.9727	64.4608	21.9727	64.4017	21.9727	64.4394	21.9727	64.3595	21.9727	64.4067	21.9727	64.3087	21.9727	64.3632	21.9727	64.2503	21.9727	64.3097	21.9727	64.1855	21.9727	64.2476	21.9727	64.1157	21.9727	64.1783	21.9727	64.0428	21.9727	64.1038	21.9727	63.9685	21.9727	64.0263	21.9727	63.8952	21.9727	63.9484	21.9727	63.8252	21.9727	63.8727	21.9727	63.7609	21.9727	63.8018	21.9727	63.7048	21.9727	63.7384	21.9727	63.6593	21.9727	63.685	21.9727	63.6264	21.9727	63.6438	21.9727	63.6078	21.9727	63.6166	21.9727	63.6044
23.4375	65.406	23.4375	65.3913	23.4375	65.4095	23.4375	65.366	23.4375	65.4015	23.4375	65.3306	23.4375	65.3819	23.4375	65.2859	23.4375	65.3508	23.4375	65.2327	23.4375	65.3088	23.4375	65.1721	23.4375	65.2567	23.4375	65.1054	23.4375	65.1958	23.4375	65.0343	23.4375	65.1277	23.4375	64.9606	23.4375	65.0545	23.4375	64.8864	23.4375	64.9783	23.4375	64.8141	23.4375	64.9017	23.4375	64.7462	23.4375	64.8271	23.4375	64.6851	23.4375	64.757	23.4375	64.6331	23.4375	64.6939	23.4375	64.5924	23.4375	64.64	23.4375	64.5646	23.4375	64.5974	23.4375	64.5509	23.4375	64.5676	23.4375	64.5519
24.9023	66.1754	24.9023	66.1621	24.9023	66.1762	24.9023	66.1367	24.9023	66.1644	24.9023	66.0997	24.9023	66.1403	24.9023	66.052	24.9023	66.1043	24.9023	65.9949	24.9023	66.0571	24.9023	65.9296	24.9023	65.9999	24.9023	65.8579	24.9023	65.9341	24.9023	65.7819	24.9023	65.8614	24.9023	65.7037	24.9023	65.784	24.9023	65.6256	24.9023	65.7041	24.9023	65.5501	24.9023	65.6243	24.9023	65.4796	24.9023	65.5471	24.9023	65.4162	24.9023	65.4753	24.9023	65.3623	24.9023	65.4112	24.9023	65.3196	24.9023	65.3573	24.9023	65.2898	24.9023	65.3153	24.9023	65.2741	24.9023	65.2869	24.9023	65.273
26.3672	66.9187	26.3672	66.9016	26.3672	66.9241	26.3672	66.8735	26.3672	66.9177	26.3672	66.835	26.3672	66.8994	26.3672	66.787	26.3672	66.8694	26.3672	66.7306	26.3672	66.8284	26.3672	66.6673	26.3672	66.7772	26.3672	66.5985	26.3672	66.7173	26.3672	66.5263	26.3672	66.6502	26.3672	66.4525	26.3672	66.5779	26.3672	66.3796	26.3672	66.5027	26.3672	66.3098	26.3672	66.4269	26.3672	66.2454	26.3672	66.353	26.3672	66.1886	26.3672	66.2835	26.3672	66.1414	26.3672	66.2208	26.3672	66.1054	26.3672	66.167	26.3672	66.0819	26.3672	66.1239	26.3672	66.0718	26.3672	66.0931	26.3672	66.0755
27.832	67.7455	27.832	67.7283	27.832	67.7504	27.832	67.6994	27.832	67.743	27.832	67.6595	27.832	67.7232	27.832	67.6095	27.832	67.6916	27.832	67.5508	27.832	67.6488	27.832	67.4847	27.832	67.5958	27.832	67.4133	27.832	67.5342	27.832	67.3384	27.832	67.4655	27.832	67.2623	27.832	67.3917	27.832	67.1873	27.832	67.3151	27.832	67.1158	27.832	67.238	27.832	67.0501	27.832	67.1629	27.832	66.9923	27.832	67.0922	27.832	66.9444	27.832	67.0283	27.832	66.908	27.832	66.9733	27.832	66.8845	27.832	66.9292	27.832	66.8747	27.832	66.8974	27.832	66.8791
29.2969	68.4704	29.2969	68.4545	29.2969	68.4739	29.2969	68.4266	29.2969	68.465	29.2969	68.3875	29.2969	68.4436	29.2969	68.338	29.2969	68.4104	29.2969	68.2795	29.2969	68.3659	29.2969	68.2134	29.2969	68.3114	29.2969	68.1416	29.2969	68.2481	29.2969	68.0661	29.2969	68.1779	29.2969	67.989	29.2969	68.1027	29.2969	67.9127	29.2969	68.0249	29.2969	67.8397	29.2969	67.9467	29.2969	67.7723	29.2969	67.8708	29.2969	67.7126	29.2969	67.7997	29.2969	67.6628	29.2969	67.7358	29.2969	67.6245	29.2969	67.6812	29.2969	67.5991	29.2969	67.6379	29.2969	67.5875	29.2969	67.6072	29.2969	67.5902
30.7617	69.2711	30.7617	69.2526	30.7617	69.2765	30.7617	69.2215	30.7617	69.2686	30.7617	69.1788	30.7617	69.2479	30.7617	69.1256	30.7617	69.2151	30.7617	69.0638	30.7617	69.1713	30.7617	68.9953	30.7617	69.118	30.7617	68.9222	30.7617	69.0569	30.7617	68.8471	30.7617	68.99	30.7617	68.7723	30.7617	68.9195	30.7617	68.7003	30.7617	68.8474	30.7617	68.6334	30.7617	68.7759	30.7617	68.5737	30.7617	68.7071	30.7617	68.523	30.7617	68.6427	30.7617	68.4827	30.7617	68.5845	30.7617	68.4539	30.7617	68.5341	30.7617	68.4374	30.7617	68.4927	30.7617	68.4332	30.7617	68.4615	30.7617	68.4414
32.2266	69.7393	32.2266	69.72	32.2266	69.7448	32.2266	69.6876	32.2266	69.7367	32.2266	69.6427	32.2266	69.7153	32.2266	69.5867	32.2266	69.6814	32.2266	69.5213	32.2266	69.636	32.2266	69.4484	32.2266	69.5804	32.2266	69.3705	32.2266	69.5164	32.2266	69.2902	32.2266	69.4458	32.2266	69.21	32.2266	69.3707	32.2266	69.1326	32.2266	69.2933	32.2266	69.0606	32.2266	69.216	32.2266	68.9961	32.2266	69.1411	32.2266	68.9411	32.2266	69.0707	32.2266	68.8972	32.2266	69.0069	32.2266	68.8657	32.2266	68.9516	32.2266	68.8472	32.2266	68.9063	32.2266	68.8422	32.2266	68.8723	32.2266	68.8507
33.6914	70.1148	33.6914	70.1005	33.6914	70.1162	33.6914	70.0734	33.6914	70.1047	33.6914	70.0341	33.6914	70.0808	33.6914	69.9838	33.6914	70.0452	33.6914	69.9237	33.6914	69.9991	33.6914	69.8558	33.6914	69.9439	33.6914	69.782	33.6914	69.8812	33.6914	69.7048	33.6914	69.8129	33.6914	69.6269	33.6914	69.741	33.6914	69.5507	33.6914	69.6676	33.6914	69.479	33.6914	69.5949	33.6914	69.4142	33.6914	69.5249	33.6914	69.3584	33.6914	69.4595	33.6914	69.3134	33.6914	69.4007	33.6914	69.2804	33.6914	69.3499	33.6914	69.2603	33.6914	69.3087	33.6914	69.2533	33.6914	69.2782	33.6914	69.2595
35.1562	71.1975	35.1562	71.1857	35.1562	71.1952	35.1562	71.1603	35.1562	71.179	35.1562	71.1219	35.1562	71.1494	35.1562	71.0718	35.1562	71.1075	35.1562	71.0116	35.1562	71.0545	35.1562	70.9431	35.1562	70.992	35.1562	70.8685	35.1562	70.9221	35.1562	70.7902	35.1562	70.847	35.1562	70.7108	35.1562	70.7689	35.1562	70.6326	35.1562	70.6902	35.1562	70.5581	35.1562	70.6135	35.1562	70.4897	35.1562	70.541	35.1562	70.4292	35.1562	70.4747	35.1562	70.3785	35.1562	70.4168	35.1562	70.3389	35.1562	70.3687	35.1562	70.3114	35.1562	70.3318	35.1562	70.2968	35.1562	70.3072	35.1562	70.2954
36.6211	71.4499	36.6211	71.4392	36.6211	71.4468	36.6211	71.4148	36.6211	71.4299	36.6211	71.3777	36.6211	71.3997	36.6211	71.3288	36.6211	71.3573	36.6211	71.2697	36.6211	71.3039	36.6211	71.2024	36.6211	71.2413	36.6211	71.1288	36.6211	71.1713	36.6211	71.0515	36.6211	71.0963	36.6211	70.9728	36.6211	71.0185	36.6211	70.8952	36.6211	70.9405	36.6211	70.8213	36.6211	70.8646	36.6211	70.7532	36.6211	70.7932	36.6211	70.6929	36.6211	70.7284	36.6211	70.6421	36.6211	70.672	36.6211	70.6023	36.6211	70.6256	36.6211	70.5744	36.6211	70.5904	36.6211	70.5591	36.6211	70.5672	36.6211	70.5567
38.0859	71.9043	38.0859	71.8919	38.0859	71.9026	38.0859	71.8657	38.0859	71.8868	38.0859	71.8265	38.0859	71.8574	38.0859	71.7756	38.0859	71.8153	38.0859	71.7144	38.0859	71.7617	38.0859	71.6447	38.0859	71.6983	38.0859	71.5689	38.0859	71.6271	38.0859	71.4894	38.0859	71.5503	38.0859	71.4086	38.0859	71.4705	38.0859	71.3292	38.0859	71.39	38.0859	71.2538	38.0859	71.3116	38.0859	71.1846	38.0859	71.2377	38.0859	71.1237	38.0859	71.1704	38.0859	71.0728	38.0859	71.1117	38.0859	71.0332	38.0859	71.0633	38.0859	71.0058	38.0859	71.0263	38.0859	70.9912	38.0859	71.0016	38.0859	70.9898
39.5508	72.5184	39.5508	72.506	39.5508	72.5174	39.5508	72.4806	39.5508	72.5029	39.5508	72.443	39.5508	72.4756	39.5508	72.3943	39.5508	72.4362	39.5508	72.3363	39.5508	72.386	39.5508	72.2706	39.5508	72.3268	39.5508	72.1995	39.5508	72.2605	39.5508	72.1254	39.5508	72.1893	39.5508	72.0507	39.5508	72.1156	39.5508	71.9778	39.5508	72.0419	39.5508	71.9091	39.5508	71.9704	39.5508	71.8466	39.5508	71.9032	39.5508	71.7922	39.5508	71.8424	39.5508	71.7472	39.5508	71.7895	39.5508	71.7127	39.5508	71.7457	39.5508	71.6894	39.5508	71.712	39.5508	71.6777	39.5508	71.6892	39.5508	71.6777
41.0156	73.055	41.0156	73.0405	41.0156	73.0542	41.0156	73.0109	41.0156	73.038	41.0156	72.9673	41.0156	73.0071	41.0156	72.9109	41.0156	72.9625	41.0156	72.8436	41.0156	72.9057	41.0156	72.7676	41.0156	72.8386	41.0156	72.6854	41.0156	72.7634	41.0156	72.5998	41.0156	72.6827	41.0156	72.5138	41.0156	72.5991	41.0156	72.4302	41.0156	72.5154	41.0156	72.3518	41.0156	72.4341	41.0156	72.2811	41.0156	72.3578	41.0156	72.2201	41.0156	72.2884	41.0156	72.1702	41.0156	72.228	41.0156	72.1327	41.0156	72.1777	41.0156	72.1079	41.0156	72.1388	41.0156	72.0963	41.0156	72.112	41.0156	72.0977
42.4805	73.5399	42.4805	73.525	42.4805	73.5377	42.4805	73.4932	42.4805	73.5183	42.4805	73.4453	42.4805	73.4826	42.4805	73.3827	42.4805	73.4315	42.4805	73.307	42.4805	73.3666	42.4805	73.2205	42.4805	73.2899	42.4805	73.1255	42.4805	73.2037	42.4805	73.0251	42.4805	73.1105	42.4805	72.9223	42.4805	73.013	42.4805	72.8204	42.4805	72.9143	42.4805	72.7228	42.4805	72.817	42.4805	72.6329	42.4805	72.7241	42.4805	72.5535	42.4805	72.6382	42.4805	72.4875	42.4805	72.5617	42.4805	72.437	42.4805	72.4968	42.4805	72.4034	42.4805	72.4455	42.4805	72.3876	42.4805	72.4094	42.4805	72.3898
43.9453	74.1239	43.9453	74.1103	43.9453	74.1229	43.9453	74.0824	43.9453	74.1074	43.9453	74.0409	43.9453	74.0778	43.9453	73.9868	43.9453	74.0351	43.9453	73.9216	43.9453	73.9806	43.9453	73.8472	43.9453	73.9157	43.9453	73.7657	43.9453	73.8424	43.9453	73.6797	43.9453	73.7628	43.9453	73.5918	43.9453	73.6793	43.9453	73.5049	43.9453	73.5944	43.9453	73.4216	43.9453	73.5105	43.9453	73.3449	43.9453	73.43	43.9453	73.2773	43.9453	73.3553	43.9453	73.2209	43.9453	73.2886	43.9453	73.1777	43.9453	73.2318	43.9453	73.1489	43.9453	73.1867	43.9453	73.1355	43.9453	73.1549	43.9453	73.1376
45.4102	74.5988	45.4102	74.5853	45.4102	74.5989	45.4102	74.5589	45.4102	74.5857	45.4102	74.52	45.4102	74.5597	45.4102	74.4698	45.4102	74.5217	45.4102	74.4097	45.4102	74.4728	45.4102	74.3416	45.4102	74.4146	45.4102	74.2675	45.4102	74.3488	45.4102	74.19	45.4102	74.2775	45.4102	74.1116	45.4102	74.203	45.4102	74.0348	45.4102	74.1274	45.4102	73.9622	45.4102	74.0531	45.4102	73.896	45.4102	73.9822	45.4102	73.8385	45.4102	73.9168	45.4102	73.7912	45.4102	73.8585	45.4102	73.7556	45.4102	73.8089	45.4102	73.7325	45.4102	73.7695	45.4102	73.7225	45.4102	73.7414	45.4102	73.7255
46.875	75.0247	46.875	75.0094	46.875	75.0254	46.875	74.9801	46.875	75.0118	46.875	74.9375	46.875	74.9843	46.875	74.8833	46.875	74.9441	46.875	74.8192	46.875	74.8927	46.875	74.7476	46.875	74.832	46.875	74.6711	46.875	74.7641	46.875	74.5924	46.875	74.6914	46.875	74.5143	46.875	74.6164	46.875	74.4394	46.875	74.5415	46.875	74.3702	46.875	74.4688	46.875	74.3085	46.875	74.4006	46.875	74.2561	46.875	74.3384	46.875	74.2141	46.875	74.2837	46.875	74.1832	46.875	74.2377	46.875	74.1638	46.875	74.2013	46.875	74.1562	46.875	74.1753	46.875	74.1601
48.3398	75.3646	48.3398	75.3487	48.3398	75.3651	48.3398	75.3181	48.3398	75.3505	48.3398	75.2736	48.3398	75.3214	48.3398	75.2169	48.3398	75.2791	48.3398	75.15	48.3398	75.2253	48.3398	75.0755	48.3398	75.162	48.3398	74.996	48.3398	75.0916	48.3398	74.9145	48.3398	75.0168	48.3398	74.834	48.3398	74.94	48.3398	74.7573	48.3398	74.8639	48.3398	74.6869	48.3398	74.7908	48.3398	74.6248	48.3398	74.7225	48.3398	74.5728	48.3398	74.6608	48.3398	74.5318	48.3398	74.6068	48.3398	74.5024	48.3398	74.5615	48.3398	74.4847	48.3398	74.5256	48.3398	74.4786	48.3398	74.4994	48.3398	74.4836
51.2695	76.2288	51.2695	76.2156	51.2695	76.2271	51.2695	76.1879	51.2695	76.2107	51.2695	76.1466	51.2695	76.1802	51.2695	76.0931	51.2695	76.1369	51.2695	76.0292	51.2695	76.0823	51.2695	75.9573	51.2695	76.0185	51.2695	75.88	51.2695	75.9478	51.2695	75.8001	51.2695	75.8727	51.2695	75.7204	51.2695	75.796	51.2695	75.6439	51.2695	75.7202	51.2695	75.5731	51.2695	75.6476	51.2695	75.51	51.2695	75.5803	51.2695	75.4563	51.2695	75.52	51.2695	75.4133	51.2695	75.4678	51.2695	75.3815	51.2695	75.4246	51.2695	75.3611	51.2695	75.391	51.2695	75.3522	51.2695	75.3675	51.2695	75.3545
52.7344	76.7145	52.7344	76.7018	52.7344	76.7112	52.7344	76.6736	52.7344	76.6923	52.7344	76.6306	52.7344	76.6585	52.7344	76.5742	52.7344	76.6111	52.7344	76.5066	52.7344	76.552	52.7344	76.43	52.7344	76.4832	52.7344	76.3474	52.7344	76.4073	52.7344	76.2617	52.7344	76.327	52.7344	76.1761	52.7344	76.2449	52.7344	76.0936	52.7344	76.1639	52.7344	76.0169	52.7344	76.0864	52.7344	75.9483	52.7344	76.0146	52.7344	75.8897	52.7344	75.9501	52.7344	75.8423	52.7344	75.8944	52.7344	75.8069	52.7344	75.8484	52.7344	75.7839	52.7344	75.8127	52.7344	75.7733	52.7344	75.7881	52.7344	75.7748
54.1992	77.0937	54.1992	77.0778	54.1992	77.0933	54.1992	77.046	54.1992	77.0767	54.1992	76.9995	54.1992	77.0445	54.1992	76.9399	54.1992	76.9981	54.1992	76.8693	54.1992	76.9392	54.1992	76.7903	54.1992	76.8699	54.1992	76.7058	54.1992	76.7929	54.1992	76.6189	54.1992	76.7109	54.1992	76.5328	54.1992	76.6269	54.1992	76.4503	54.1992	76.5438	54.1992	76.3741	54.1992	76.464	54.1992	76.3065	54.1992	76.39	54.1992	76.2491	54.1992	76.3235	54.1992	76.2031	54.1992	76.266	54.1992	76.1692	54.1992	76.2184	54.1992	76.1476	54.1992	76.1814	54.1992	76.1383	54.1992	76.1555	54.1992	76.141
55.6641	77.4398	55.6641	77.4228	55.6641	77.4368	55.6641	77.3863	55.6641	77.4139	55.6641	77.3317	55.6641	77.372	55.6641	77.2614	55.6641	77.3129	55.6641	77.1779	55.6641	77.239	55.6641	77.0847	55.6641	77.1532	55.6641	76.9853	55.6641	77.0588	55.6641	76.8836	55.6641	76.9596	55.6641	76.7832	55.6641	76.8593	55.6641	76.6876	55.6641	76.7613	55.6641	76.5999	55.6641	76.6689	55.6641	76.5225	55.6641	76.5848	55.6641	76.457	55.6641	76.5111	55.6641	76.4045	55.6641	76.449	55.6641	76.3652	55.6641	76.3993	55.6641	76.3392	55.6641	76.3622	55.6641	76.3261	55.6641	76.3377	55.6641	76.3257
58.5938	78.2011	58.5938	78.1862	58.5938	78.2007	58.5938	78.1565	58.5938	78.1851	58.5938	78.1128	58.5938	78.1548	58.5938	78.0562	58.5938	78.1107	58.5938	77.9886	58.5938	78.0542	58.5938	77.9118	58.5938	77.9871	58.5938	77.8285	58.5938	77.9117	58.5938	77.7412	58.5938	77.8304	58.5938	77.6529	58.5938	77.746	58.5938	77.5665	58.5938	77.6611	58.5938	77.4851	58.5938	77.5783	58.5938	77.4111	58.5938	77.4999	58.5938	77.3471	58.5938	77.4282	58.5938	77.2947	58.5938	77.3648	58.5938	77.2554	58.5938	77.3114	58.5938	77.2301	58.5938	77.2691	58.5938	77.219	58.5938	77.239	58.5938	77.2221
60.0586	78.5766	60.0586	78.5631	60.0586	78.5736	60.0586	78.5336	60.0586	78.5544	60.0586	78.489	60.0586	78.5197	60.0586	78.4308	60.0586	78.4708	60.0586	78.3611	60.0586	78.4096	60.0586	78.2826	60.0586	78.3384	60.0586	78.1979	60.0586	78.2598	60.0586	78.1105	60.0586	78.1767	60.0586	78.0232	60.0586	78.092	60.0586	77.9393	60.0586	78.0087	60.0586	77.8615	60.0586	77.9292	60.0586	77.7919	60.0586	77.8558	60.0586	77.7324	60.0586	77.7903	60.0586	77.6843	60.0586	77.7338	60.0586	77.6482	60.0586	77.6874	60.0586	77.6246	60.0586	77.6517	60.0586	77.6133	60.0586	77.6272	60.0586	77.6143
62.9883	79.2031	62.9883	79.1879	62.9883	79.2002	62.9883	79.1549	62.9883	79.1794	62.9883	79.1053	62.9883	79.1416	62.9883	79.0408	62.9883	79.0882	62.9883	78.9636	62.9883	79.0212	62.9883	78.8766	62.9883	78.9432	62.9883	78.783	62.9883	78.857	62.9883	78.6862	62.9883	78.7657	62.9883	78.5897	62.9883	78.6725	62.9883	78.4968	62.9883	78.5806	62.9883	78.4107	62.9883	78.4926	62.9883	78.3338	62.9883	78.4111	62.9883	78.2681	62.9883	78.3381	62.9883	78.215	62.9883	78.2749	62.9883	78.1754	62.9883	78.2228	62.9883	78.1497	62.9883	78.1825	62.9883	78.1378	62.9883	78.1546	62.9883	78.1396
64.4531	79.5033	64.4531	79.4878	64.4531	79.5012	64.4531	79.4551	64.4531	79.4816	64.4531	79.4064	64.4531	79.4453	64.4531	79.3436	64.4531	79.3938	64.4531	79.269	64.4531	79.3292	64.4531	79.1853	64.4531	79.2539	64.4531	79.0957	64.4531	79.1709	64.4531	79.0036	64.4531	79.0831	64.4531	78.912	64.4531	78.9938	64.4531	78.8242	64.4531	78.9059	64.4531	78.7429	64.4531	78.822	64.4531	78.6703	64.4531	78.7444	64.4531	78.6082	64.4531	78.6748	64.4531	78.5579	64.4531	78.6147	64.4531	78.5203	64.4531	78.565	64.4531	78.4957	64.4531	78.5266	64.4531	78.4842	64.4531	78.5	64.4531	78.4858
67.3828	79.9531	67.3828	79.9331	67.3828	79.9558	67.3828	79.8965	67.3828	79.9412	67.3828	79.8448	67.3828	79.9103	67.3828	79.7805	67.3828	79.8647	67.3828	79.7064	67.3828	79.8068	67.3828	79.6258	67.3828	79.7395	67.3828	79.5425	67.3828	79.6658	67.3828	79.4598	67.3828	79.5891	67.3828	79.3812	67.3828	79.5124	67.3828	79.3093	67.3828	79.4385	67.3828	79.2465	67.3828	79.3696	67.3828	79.1941	67.3828	79.3074	67.3828	79.1527	67.3828	79.2528	67.3828	79.1224	67.3828	79.2063	67.3828	79.1026	67.3828	79.1678	67.3828	79.0927	67.3828	79.1372	67.3828	79.0918	67.3828	79.1144	67.3828	79.0992
68.8477	80.2267	68.8477	80.2031	68.8477	80.2336	68.8477	80.1635	68.8477	80.2237	68.8477	80.1097	68.8477	80.1978	68.8477	80.0439	68.8477	80.1574	68.8477	79.9691	68.8477	80.1048	68.8477	79.8886	68.8477	80.0426	68.8477	79.8062	68.8477	79.9741	68.8477	79.7254	68.8477	79.9024	68.8477	79.6496	68.8477	79.8306	68.8477	79.5817	68.8477	79.7613	68.8477	79.5241	68.8477	79.6967	68.8477	79.4779	68.8477	79.6381	68.8477	79.4437	68.8477	79.5864	68.8477	79.4212	68.8477	79.5416	68.8477	79.4095	68.8477	79.5036	68.8477	79.4074	68.8477	79.4719	68.8477	79.4135	68.8477	79.4463	68.8477	79.4267
71.7773	80.9071	71.7773	80.8906	71.7773	80.9056	71.7773	80.8566	71.7773	80.8864	71.7773	80.8067	71.7773	80.8502	71.7773	80.7428	71.7773	80.799	71.7773	80.6677	71.7773	80.7351	71.7773	80.5846	71.7773	80.6616	71.7773	80.4971	71.7773	80.582	71.7773	80.409	71.7773	80.4998	71.7773	80.324	71.7773	80.4186	71.7773	80.2456	71.7773	80.3414	71.7773	80.1764	71.7773	80.2706	71.7773	80.1184	71.7773	80.208	71.7773	80.0726	71.7773	80.1543	71.7773	80.0392	71.7773	80.1095	71.7773	80.0174	71.7773	80.0734	71.7773	80.0062	71.7773	80.0451	71.7773	80.0043	71.7773	80.0243	71.7773	80.0106
74.707	81.5317	74.707	81.5194	74.707	81.5254	74.707	81.4887	74.707	81.5006	74.707	81.4411	74.707	81.4585	74.707	81.3787	74.707	81.4012	74.707	81.3041	74.707	81.3313	74.707	81.2208	74.707	81.252	74.707	81.1326	74.707	81.167	74.707	81.0432	74.707	81.0801	74.707	80.9564	74.707	80.995	74.707	80.8756	74.707	80.915	74.707	80.8036	74.707	80.8426	74.707	80.7422	74.707	80.7794	74.707	80.6923	74.707	80.7265	74.707	80.6541	74.707	80.6838	74.707	80.627	74.707	80.6508	74.707	80.6101	74.707	80.6268	74.707	80.6023	74.707	80.6109	74.707	80.6027
77.6367	82.0629	77.6367	82.0478	77.6367	82.0583	77.6367	82.0139	77.6367	82.0346	77.6367	81.9627	77.6367	81.9927	77.6367	81.8964	77.6367	81.9349	77.6367	81.8182	77.6367	81.8639	77.6367	81.7318	77.6367	81.7832	77.6367	81.6411	77.6367	81.6967	77.6367	81.5501	77.6367	81.6082	77.6367	81.4628	77.6367	81.5218	77.6367	81.3825	77.6367	81.4407	77.6367	81.3118	77.6367	81.3675	77.6367	81.2523	77.6367	81.304	77.6367	81.2048	77.6367	81.2509	77.6367	81.1691	77.6367	81.2082	77.6367	81.1444	77.6367	81.1751	77.6367	81.1296	77.6367	81.1508	77.6367	81.1236	77.6367	81.1344	77.6367	81.1254
79.1016	82.2989	79.1016	82.2816	79.1016	82.2962	79.1016	82.245	79.1016	82.2736	79.1016	82.1907	79.1016	82.2323	79.1016	82.1214	79.1016	82.1745	79.1016	82.0402	79.1016	82.103	79.1016	81.9511	79.1016	82.0214	79.1016	81.8582	79.1016	81.9338	79.1016	81.7658	79.1016	81.8443	79.1016	81.6778	79.1016	81.757	79.1016	81.5975	79.1016	81.6751	79.1016	81.5277	79.1016	81.6015	79.1016	81.4698	79.1016	81.5377	79.1016	81.4243	79.1016	81.4845	79.1016	81.3911	79.1016	81.4417	79.1016	81.3689	79.1016	81.4084	79.1016	81.3565	79.1016	81.3836	79.1016	81.3526	79.1016	81.3664	79.1016	81.3561
82.0312	82.7312	82.0312	82.7127	82.0312	82.7293	82.0312	82.6747	82.0312	82.7074	82.0312	82.6189	82.0312	82.6666	82.0312	82.548	82.0312	82.6091	82.0312	82.4651	82.0312	82.5379	82.0312	82.3744	82.0312	82.4567	82.0312	82.2801	82.0312	82.3696	82.0312	82.1865	82.0312	82.2809	82.0312	82.0978	82.0312	82.1944	82.0312	82.0175	82.0312	82.1137	82.0312	81.9482	82.0312	82.0413	82.0312	81.8917	82.0312	81.9787	82.0312	81.8483	82.0312	81.9264	82.0312	81.8176	82.0312	81.884	82.0312	81.7984	82.0312	81.8507	82.0312	81.7891	82.0312	81.8252	82.0312	81.7882	82.0312	81.8066	82.0312	81.7942
84.9609	83.0717	84.9609	83.0542	84.9609	83.0705	84.9609	83.0187	84.9609	83.0507	84.9609	82.9669	84.9609	83.0136	84.9609	82.9015	84.9609	82.9614	84.9609	82.8258	84.9609	82.897	84.9609	82.744	84.9609	82.8242	84.9609	82.6603	84.9609	82.7471	84.9609	82.579	84.9609	82.6697	84.9609	82.5043	84.9609	82.5961	84.9609	82.4392	84.9609	82.5295	84.9609	82.3861	84.9609	82.4722	84.9609	82.3459	84.9609	82.4251	84.9609	82.3184	84.9609	82.3884	84.9609	82.302	84.9609	82.3606	84.9609	82.2947	84.9609	82.3403	84.9609	82.294	84.9609	82.3252	84.9609	82.2979	84.9609	82.3138	84.9609	82.3047
87.8906	83.8516	87.8906	83.8359	87.8906	83.8469	87.8906	83.8001	87.8906	83.8222	87.8906	83.7457	87.8906	83.779	87.8906	83.6748	87.8906	83.7195	87.8906	83.5907	87.8906	83.6469	87.8906	83.4974	87.8906	83.5648	87.8906	83.3995	87.8906	83.4775	87.8906	83.302	87.8906	83.3894	87.8906	83.2097	87.8906	83.3045	87.8906	83.127	87.8906	83.2264	87.8906	83.057	87.8906	83.1576	87.8906	83.0018	87.8906	83.0995	87.8906	82.9618	87.8906	83.0521	87.8906	82.936	87.8906	83.0145	87.8906	82.9225	87.8906	82.9853	87.8906	82.9189	87.8906	82.9627	87.8906	82.9226	87.8906	82.9451	87.8906	82.9317
90.8203	84.1687	90.8203	84.1514	90.8203	84.1595	90.8203	84.1084	90.8203	84.1246	90.8203	84.0415	90.8203	84.0663	90.8203	83.9542	90.8203	83.9877	90.8203	83.8507	90.8203	83.8934	90.8203	83.7366	90.8203	83.7886	90.8203	83.6176	90.8203	83.6788	90.8203	83.4998	90.8203	83.5696	90.8203	83.3889	90.8203	83.4662	90.8203	83.2896	90.8203	83.3726	90.8203	83.2057	90.8203	83.2916	90.8203	83.1391	90.8203	83.2244	90.8203	83.0902	90.8203	83.1708	90.8203	83.0578	90.8203	83.1293	90.8203	83.0396	90.8203	83.0978	90.8203	83.0329	90.8203	83.0739	90.8203	83.0347	90.8203	83.056	90.8203	83.0428
95.2148	84.7249	95.2148	84.7052	95.2148	84.722	95.2148	84.6638	95.2148	84.6967	95.2148	84.6026	95.2148	84.6506	95.2148	84.5245	95.2148	84.5859	95.2148	84.4335	95.2148	84.5064	95.2148	84.3339	95.2148	84.4163	95.2148	84.2309	95.2148	84.3207	95.2148	84.1294	95.2148	84.2246	95.2148	84.0345	95.2148	84.133	95.2148	83.9501	95.2148	84.0497	95.2148	83.8796	95.2148	83.9777	95.2148	83.8244	95.2148	83.9182	95.2148	83.785	95.2148	83.8712	95.2148	83.7601	95.2148	83.8351	95.2148	83.7477	95.2148	83.8078	95.2148	83.7449	95.2148	83.787	95.2148	83.7491	95.2148	83.7708	95.2148	83.7582
98.1445	85.1044	98.1445	85.088	98.1445	85.0972	98.1445	85.049	98.1445	85.067	98.1445	84.9894	98.1445	85.0153	98.1445	84.9123	98.1445	84.945	98.1445	84.8216	98.1445	84.8601	98.1445	84.7222	98.1445	84.7652	98.1445	84.6192	98.1445	84.6657	98.1445	84.5179	98.1445	84.5668	98.1445	84.4231	98.1445	84.4736	98.1445	84.3389	98.1445	84.3901	98.1445	84.2682	98.1445	84.3189	98.1445	84.2125	98.1445	84.2614	98.1445	84.1717	98.1445	84.2171	98.1445	84.1447	98.1445	84.1845	98.1445	84.1291	98.1445	84.1614	98.1445	84.1225	98.1445	84.1453	98.1445	84.1222	98.1445	84.134	98.1445	84.1264
101.074	85.331	101.074	85.3223	101.074	85.3177	101.074	85.2922	101.074	85.2828	101.074	85.2428	101.074	85.2282	101.074	85.1772	101.074	85.1572	101.074	85.0996	101.074	85.0742	101.074	85.0148	101.074	84.9844	101.074	84.9281	101.074	84.8935	101.074	84.8445	101.074	84.8073	101.074	84.7688	101.074	84.7309	101.074	84.7046	101.074	84.6681	101.074	84.6541	101.074	84.6208	101.074	84.618	101.074	84.5892	101.074	84.595	101.074	84.5716	101.074	84.583	101.074	84.565	101.074	84.5784	101.074	84.5657	101.074	84.5779	101.074	84.5699	101.074	84.5784	101.074	84.5745	101.074	84.5775
105.469	86.057	105.469	86.0471	105.469	86.039	105.469	86.0103	105.469	85.9935	105.469	85.9492	105.469	85.9224	105.469	85.8675	105.469	85.8293	105.469	85.7701	105.469	85.7189	105.469	85.6628	105.469	85.5976	105.469	85.5518	105.469	85.4724	105.469	85.4433	105.469	85.3507	105.469	85.343	105.469	85.2396	105.469	85.2552	105.469	85.1447	105.469	85.1826	105.469	85.07	105.469	85.126	105.469	85.0168	105.469	85.0845	105.469	84.9842	105.469	85.0553	105.469	84.969	105.469	85.0352	105.469	84.967	105.469	85.0205	105.469	84.9734	105.469	85.0081	105.469	84.9841	105.469	84.9961
108.398	86.4148	108.398	86.3986	108.398	86.4031	108.398	86.3558	108.398	86.3638	108.398	86.2887	108.398	86.2989	108.398	86.2011	108.398	86.2114	108.398	86.0981	108.398	86.1063	108.398	85.9856	108.398	85.9893	108.398	85.8701	108.398	85.8674	108.398	85.7582	108.398	85.7478	108.398	85.6559	108.398	85.6374	108.398	85.568	108.398	85.542	108.398	85.4974	108.398	85.4654	108.398	85.4448	108.398	85.4093	108.398	85.4089	108.398	85.3729	108.398	85.3867	108.398	85.3532	108.398	85.3742	108.398	85.3462	108.398	85.3672	108.398	85.3471	108.398	85.3624	108.398	85.3519	108.398	85.3574
112.793	86.9182	112.793	86.901	112.793	86.9051	112.793	86.8543	112.793	86.8619	112.793	86.781	112.793	86.7909	112.793	86.6849	112.793	86.6956	112.793	86.5716	112.793	86.5815	112.793	86.4475	112.793	86.4551	112.793	86.3201	112.793	86.3243	112.793	86.1969	112.793	86.1971	112.793	86.0851	112.793	86.0814	112.793	85.9904	112.793	85.9834	112.793	85.9166	112.793	85.9074	112.793	85.8646	112.793	85.8544	112.793	85.8329	112.793	85.823	112.793	85.8177	112.793	85.8089	112.793	85.8139	112.793	85.8069	112.793	85.8158	112.793	85.811	112.793	85.8187	112.793	85.8162	112.793	85.8192
117.188	87.3689	117.188	87.3529	117.188	87.3509	117.188	87.3039	117.188	87.2991	117.188	87.225	117.188	87.2157	117.188	87.1202	117.188	87.1044	117.188	86.9952	117.188	86.9707	117.188	86.8567	117.188	86.8217	117.188	86.712	117.188	86.6657	117.188	86.569	117.188	86.5117	117.188	86.4351	117.188	86.3683	117.188	86.3164	117.188	86.2431	117.188	86.2176	117.188	86.1415	117.188	86.1406	117.188	86.0661	117.188	86.0849	117.188	86.0162	117.188	86.0477	117.188	85.9884	117.188	86.0245	117.188	85.9777	117.188	86.0103	117.188	85.978	117.188	86.0005	117.188	85.9841	117.188	85.9921
120.117	87.5631	120.117	87.5457	120.117	87.547	120.117	87.4963	120.117	87.4976	120.117	87.418	120.117	87.4169	120.117	87.3152	120.117	87.3084	120.117	87.1937	120.117	87.1777	120.117	87.0602	120.117	87.0316	120.117	86.9218	120.117	86.8782	120.117	86.786	120.117	86.7262	120.117	86.6593	120.117	86.5842	120.117	86.5474	120.117	86.4597	120.117	86.4538	120.117	86.3582	120.117	86.3802	120.117	86.2824	120.117	86.3258	120.117	86.2321	120.117	86.2877	120.117	86.2043	120.117	86.262	120.117	86.1943	120.117	86.244	120.117	86.1964	120.117	86.2299	120.117	86.2054	120.117	86.2171
124.512	87.7905	124.512	87.7688	124.512	87.7786	124.512	87.7154	124.512	87.7333	124.512	87.6338	124.512	87.6568	124.512	87.5294	124.512	87.553	124.512	87.4089	124.512	87.428	124.512	87.2799	124.512	87.2892	124.512	87.1504	124.512	87.1451	124.512	87.0281	124.512	87.0047	124.512	86.9196	124.512	86.8767	124.512	86.8295	124.512	86.7683	124.512	86.7603	124.512	86.6842	124.512	86.7115	124.512	86.6265	124.512	86.6805	124.512	86.5939	124.512	86.6631	124.512	86.5824	124.512	86.6538	124.512	86.5862	124.512	86.6475	124.512	86.599	124.512	86.6401	124.512	86.6148	124.512	86.6292
128.906	88.0609	128.906	88.0344	128.906	88.0543	128.906	87.9764	128.906	88.0147	128.906	87.8905	128.906	87.9444	128.906	87.7818	128.906	87.8471	128.906	87.6571	128.906	87.7284	128.906	87.5243	128.906	87.5953	128.906	87.3918	128.906	87.4558	128.906	87.268	128.906	87.3188	128.906	87.1599	128.906	87.1927	128.906	87.0727	128.906	87.0848	128.906	87.0091	128.906	87.0004	128.906	86.9686	128.906	86.9419	128.906	86.9477	128.906	86.9086	128.906	86.9412	128.906	86.8968	128.906	86.9425	128.906	86.9005	128.906	86.9455	128.906	86.913	128.906	86.9454	128.906	86.9277	128.906	86.9394
133.301	88.2906	133.301	88.258	133.301	88.2907	133.301	88.1946	133.301	88.2583	133.301	88.1042	133.301	88.1952	133.301	87.9919	133.301	88.1052	133.301	87.8645	133.301	87.9938	133.301	87.7301	133.301	87.8681	133.301	87.5973	133.301	87.7363	133.301	87.4744	133.301	87.6071	133.301	87.3688	133.301	87.4889	133.301	87.2858	133.301	87.3885	133.301	87.2277	133.301	87.3104	133.301	87.1941	133.301	87.2563	133.301	87.1814	133.301	87.2246	133.301	87.1839	133.301	87.2112	133.301	87.195	133.301	87.2104	133.301	87.2083	133.301	87.2159	133.301	87.2187	133.301	87.2216	133.301	87.2233
139.16	88.5745	139.16	88.5354	139.16	88.5761	139.16	88.461	139.16	88.5403	139.16	88.3555	139.16	88.4692	139.16	88.2252	139.16	88.3672	139.16	88.0783	139.16	88.2409	139.16	87.9244	139.16	88.0986	139.16	87.7738	139.16	87.9499	139.16	87.6368	139.16	87.8054	139.16	87.5221	139.16	87.6749	139.16	87.4359	139.16	87.5667	139.16	87.3809	139.16	87.4861	139.16	87.3556	139.16	87.4349	139.16	87.3549	139.16	87.4105	139.16	87.3713	139.16	87.4072	139.16	87.396	139.16	87.4171	139.16	87.4207	139.16	87.4318	139.16	87.4389	139.16	87.4435	139.16	87.4468
143.555	88.7311	143.555	88.6875	143.555	88.7352	143.555	88.6065	143.555	88.7001	143.555	88.4923	143.555	88.6283	143.555	88.3515	143.555	88.5243	143.555	88.1926	143.555	88.395	143.555	88.0259	143.555	88.2487	143.555	87.863	143.555	88.0954	143.555	87.715	143.555	87.9455	143.555	87.5919	143.555	87.8092	143.555	87.5005	143.555	87.695	143.555	87.4438	143.555	87.6084	143.555	87.4199	143.555	87.5514	143.555	87.4231	143.555	87.5219	143.555	87.4448	143.555	87.5142	143.555	87.4753	143.555	87.5204	143.555	87.5056	143.555	87.5319	143.555	87.5286	143.555	87.5406	143.555	87.5405
147.949	88.8596	147.949	88.8096	147.949	88.8673	147.949	88.7191	147.949	88.8332	147.949	88.5924	147.949	88.7601	147.949	88.4362	147.949	88.6529	147.949	88.2594	147.949	88.5188	147.949	88.0732	147.949	88.3668	147.949	87.8901	147.949	88.2074	147.949	87.7226	147.949	88.0513	147.949	87.5825	147.949	87.9089	147.949	87.4781	147.949	87.7889	147.949	87.4135	147.949	87.6966	147.949	87.3874	147.949	87.6336	147.949	87.3939	147.949	87.5975	147.949	87.4232	147.949	87.5825	147.949	87.4645	147.949	87.5803	147.949	87.5072	147.949	87.5822	147.949	87.5433	147.949	87.58	147.949	87.5679
153.809	88.9915	153.809	88.9467	153.809	88.9926	153.809	88.8602	153.809	88.9505	153.809	88.7361	153.809	88.8681	153.809	88.5814	153.809	88.7509	153.809	88.4049	153.809	88.6064	153.809	88.2178	153.809	88.4442	153.809	88.0325	153.809	88.2754	153.809	87.8618	153.809	88.1118	153.809	87.7173	153.809	87.9643	153.809	87.6077	153.809	87.842	153.809	87.5373	153.809	87.7503	153.809	87.5053	153.809	87.6905	153.809	87.506	153.809	87.6595	153.809	87.53	153.809	87.6505	153.809	87.5665	153.809	87.6546	153.809	87.605	153.809	87.6622	153.809	87.6371	153.809	87.6652	153.809	87.6576
159.668	89.0958	159.668	89.0375	159.668	89.1081	159.668	88.9342	159.668	89.076	159.668	88.7895	159.668	89.0034	159.668	88.6098	159.668	88.8965	159.668	88.4044	159.668	88.7635	159.668	88.1856	159.668	88.6143	159.668	87.9678	159.668	88.4597	159.668	87.767	159.668	88.3106	159.668	87.5984	159.668	88.1769	159.668	87.4744	159.668	88.0659	159.668	87.402	159.668	87.9813	159.668	87.3813	159.668	87.9229	159.668	87.4057	159.668	87.8866	159.668	87.4633	159.668	87.8652	159.668	87.5399	159.668	87.8498	159.668	87.6214	159.668	87.8314	159.668	87.6965	159.668	87.8024	159.668	87.7579
165.527	89.1792	165.527	89.1496	165.527	89.163	165.527	89.0754	165.527	89.1023	165.527	88.9607	165.527	89.0015	165.527	88.8119	165.527	88.8676	165.527	88.6383	165.527	88.7103	165.527	88.4513	165.527	88.5419	165.527	88.2643	165.527	88.376	165.527	88.0918	165.527	88.2266	165.527	87.947	165.527	88.1054	165.527	87.8411	165.527	88.0204	165.527	87.7801	165.527	87.9744	165.527	87.7642	165.527	87.9638	165.527	87.7874	165.527	87.9803	165.527	87.8389	165.527	88.0121	165.527	87.9051	165.527	88.0467	165.527	87.9724	165.527	88.0725	165.527	88.0289	165.527	88.0807	165.527	88.0664
171.387	89.233	171.387	89.1989	171.387	89.2173	171.387	89.1169	171.387	89.1523	171.387	88.991	171.387	89.0413	171.387	88.828	171.387	88.8903	171.387	88.6373	171.387	88.7085	171.387	88.4309	171.387	88.5082	171.387	88.2236	171.387	88.3047	171.387	88.0314	171.387	88.1144	171.387	87.87	171.387	87.9535	171.387	87.752	171.387	87.8343	171.387	87.6843	171.387	87.7637	171.387	87.6667	171.387	87.7407	171.387	87.6912	171.387	87.7572	171.387	87.7444	171.387	87.8001	171.387	87.8101	171.387	87.8534	171.387	87.8724	171.387	87.902	171.387	87.9184	171.387	87.9334	171.387	87.9398
177.246	89.1613	177.246	89.1159	177.246	89.1515	177.246	89.0171	177.246	89.0873	177.246	88.8697	177.246	88.9723	177.246	88.6811	177.246	88.8131	177.246	88.4619	177.246	88.6194	177.246	88.2256	177.246	88.4039	177.246	87.9883	177.246	88.1821	177.246	87.7679	177.246	87.9707	177.246	87.5816	177.246	87.7861	177.246	87.4437	177.246	87.642	177.246	87.3622	177.246	87.5466	177.246	87.3372	177.246	87.501	177.246	87.3602	177.246	87.4987	177.246	87.4166	177.246	87.5272	177.246	87.4883	177.246	87.5704	177.246	87.5578	177.246	87.6118	177.246	87.6109	177.246	87.6376	177.246	87.6385
183.105	89.0048	183.105	88.9685	183.105	88.983	183.105	88.875	183.105	88.9052	183.105	88.7282	183.105	88.7767	183.105	88.5352	183.105	88.6061	183.105	88.3068	183.105	88.4049	183.105	88.0571	183.105	88.1876	183.105	87.8038	183.105	87.9703	183.105	87.5671	183.105	87.7699	183.105	87.3672	183.105	87.6015	183.105	87.2213	183.105	87.4766	183.105	87.1394	183.105	87.4007	183.105	87.122	183.105	87.3724	183.105	87.1593	183.105	87.3834	183.105	87.234	183.105	87.4205	183.105	87.3254	183.105	87.4676	183.105	87.4134	183.105	87.5085	183.105	87.4823	183.105	87.5298	183.105	87.5222
188.965	88.9946	188.965	88.9711	188.965	88.9589	188.965	88.8885	188.965	88.8661	188.965	88.7497	188.965	88.7216	188.965	88.5606	188.965	88.5335	188.965	88.3301	188.965	88.3136	188.965	88.0706	188.965	88.0765	188.965	87.7985	188.965	87.8397	188.965	87.5331	188.965	87.6216	188.965	87.2957	188.965	87.4393	188.965	87.1063	188.965	87.3052	188.965	86.9801	188.965	87.2248	188.965	86.9229	188.965	87.1951	188.965	86.9299	188.965	87.2053	188.965	86.9864	188.965	87.2398	188.965	87.0715	188.965	87.2808	188.965	87.1634	188.965	87.3117	188.965	87.2429	188.965	87.3196	188.965	87.297
196.289	88.9381	196.289	88.9059	196.289	88.9072	196.289	88.812	196.289	88.8148	196.289	88.6603	196.289	88.6654	196.289	88.4576	196.289	88.4671	196.289	88.214	196.289	88.2316	196.289	87.9431	196.289	87.9748	196.289	87.662	196.289	87.716	196.289	87.391	196.289	87.4761	196.289	87.1522	196.289	87.2753	196.289	86.9656	196.289	87.1291	196.289	86.8458	196.289	87.0448	196.289	86.7977	196.289	87.0197	196.289	86.8149	196.289	87.0417	196.289	86.8811	196.289	87.0923	196.289	86.9742	196.289	87.1507	196.289	87.0711	196.289	87.1975	196.289	87.1519	196.289	87.2178	196.289	87.203
203.613	88.8611	203.613	88.8567	203.613	88.798	203.613	88.7867	203.613	88.6683	203.613	88.6554	203.613	88.4759	203.613	88.4694	203.613	88.2287	203.613	88.2379	203.613	87.9386	203.613	87.9727	203.613	87.6227	203.613	87.6886	203.613	87.3026	203.613	87.4033	203.613	87.0032	203.613	87.1369	203.613	86.7496	203.613	86.9096	203.613	86.5628	203.613	86.7387	203.613	86.4542	203.613	86.634	203.613	86.4232	203.613	86.5952	203.613	86.4563	203.613	86.6104	203.613	86.5312	203.613	86.6593	203.613	86.6221	203.613	86.7181	203.613	86.7049	203.613	86.7644	203.613	86.7615	203.613	86.7816
210.938	88.6192	210.938	88.592	210.938	88.5813	210.938	88.5029	210.938	88.4781	210.938	88.3572	210.938	88.3123	210.938	88.1628	210.938	88.0906	210.938	87.9301	210.938	87.8234	210.938	87.6718	210.938	87.5256	210.938	87.4029	210.938	87.2166	210.938	87.1405	210.938	86.9187	210.938	86.9021	210.938	86.6554	210.938	86.7038	210.938	86.4471	210.938	86.5574	210.938	86.3075	210.938	86.468	210.938	86.24	210.938	86.4317	210.938	86.2367	210.938	86.4368	210.938	86.2808	210.938	86.4658	210.938	86.3505	210.938	86.4992	210.938	86.4239	210.938	86.52	210.938	86.4829	210.938	86.5161
218.262	88.3403	218.262	88.302	218.262	88.3126	218.262	88.2	218.262	88.2198	218.262	88.0399	218.262	88.0663	218.262	87.8305	218.262	87.8605	218.262	87.5836	218.262	87.6152	218.262	87.3147	218.262	87.3478	218.262	87.0423	218.262	87.0798	218.262	86.7868	218.262	86.8344	218.262	86.5689	218.262	86.6339	218.262	86.4065	218.262	86.4946	218.262	86.3104	218.262	86.4234	218.262	86.2825	218.262	86.4159	218.262	86.3143	218.262	86.4577	218.262	86.3889	218.262	86.5283	218.262	86.4848	218.262	86.6052	218.262	86.58	218.262	86.6683	218.262	86.6557	218.262	86.7023	218.262	86.6985
225.586	88.3614	225.586	88.3457	225.586	88.3035	225.586	88.2588	225.586	88.1724	225.586	88.1058	225.586	87.9719	225.586	87.8945	225.586	87.7104	225.586	87.6357	225.586	87.4018	225.586	87.3438	225.586	87.0666	225.586	87.0378	225.586	86.7318	225.586	86.741	225.586	86.4293	225.586	86.4796	225.586	86.1915	225.586	86.2794	225.586	86.0436	225.586	86.1594	225.586	85.9962	225.586	86.1267	225.586	86.0415	225.586	86.1726	225.586	86.1554	225.586	86.2752	225.586	86.3046	225.586	86.4045	225.586	86.4549	225.586	86.5293	225.586	86.5774	225.586	86.6232	225.586	86.6517	225.586	86.6671
232.91	88.2606	232.91	88.2609	232.91	88.1862	232.91	88.191	232.91	88.0367	232.91	88.0565	232.91	87.8137	232.91	87.8651	232.91	87.5229	232.91	87.6262	232.91	87.175	232.91	87.3517	232.91	86.7875	232.91	87.0559	232.91	86.3852	232.91	86.7566	232.91	86.0012	232.91	86.4743	232.91	85.6731	232.91	86.2311	232.91	85.437	232.91	86.0474	232.91	85.3167	232.91	85.9366	232.91	85.3152	232.91	85.8999	232.91	85.4126	232.91	85.9245	232.91	85.5721	232.91	85.9857	232.91	85.752	232.91	86.0528	232.91	85.9146	232.91	86.0965	232.91	86.0332	232.91	86.094
241.699	87.7996	241.699	87.7696	241.699	87.7567	241.699	87.673	241.699	87.6379	241.699	87.5188	241.699	87.4438	241.699	87.3186	241.699	87.1789	241.699	87.0859	241.699	86.8524	241.699	86.8352	241.699	86.4791	241.699	86.581	241.699	86.0798	241.699	86.3368	241.699	85.682	241.699	86.1144	241.699	85.3181	241.699	85.9237	241.699	85.0222	241.699	85.7724	241.699	84.823	241.699	85.6647	241.699	84.7359	241.699	85.5996	241.699	84.7567	241.699	85.5693	241.699	84.8624	241.699	85.5585	241.699	85.0177	241.699	85.5474	241.699	85.1854	241.699	85.5153	241.699	85.3347	241.699	85.4466
250.488	87.5923	250.488	87.5056	250.488	87.593	250.488	87.3391	250.488	87.5064	250.488	87.1037	250.488	87.3359	250.488	86.8159	250.488	87.0898	250.488	86.4969	250.488	86.7817	250.488	86.1721	250.488	86.4305	250.488	85.8677	250.488	86.0594	250.488	85.6071	250.488	85.6946	250.488	85.4059	250.488	85.3625	250.488	85.2694	250.488	85.0863	250.488	85.1926	250.488	84.883	250.488	85.1632	250.488	84.7611	250.488	85.1652	250.488	84.7191	250.488	85.1816	250.488	84.7456	250.488	85.1965	250.488	84.8213	250.488	85.1958	250.488	84.9224	250.488	85.1691	250.488	85.0254	250.488	85.1113
259.277	87.4623	259.277	87.3872	259.277	87.4446	259.277	87.2258	259.277	87.3323	259.277	86.9904	259.277	87.129	259.277	86.6992	259.277	86.8444	259.277	86.3769	259.277	86.4958	259.277	86.0543	259.277	86.1093	259.277	85.7648	259.277	85.7205	259.277	85.5394	259.277	85.3707	259.277	85.3986	259.277	85.1003	259.277	85.347	259.277	84.9375	259.277	85.3728	259.277	84.8896	259.277	85.4527	259.277	84.9422	259.277	85.559	259.277	85.0662	259.277	85.6659	259.277	85.2288	259.277	85.7525	259.277	85.4002	259.277	85.804	259.277	85.5577	259.277	85.8116	259.277	85.685	259.277	85.7715
268.066	87.3057	268.066	87.1549	268.066	87.3575	268.066	86.9095	268.066	87.3091	268.066	86.5787	268.066	87.1629	268.066	86.1778	268.066	86.9251	268.066	85.7311	268.066	86.6064	268.066	85.2737	268.066	86.2239	268.066	84.8504	268.066	85.8021	268.066	84.51	268.066	85.3738	268.066	84.2925	268.066	84.9786	268.066	84.2147	268.066	84.6577	268.066	84.2641	268.066	84.4448	268.066	84.405	268.066	84.3553	268.066	84.5921	268.066	84.3813	268.066	84.7826	268.066	84.4942	268.066	84.9427	268.066	84.6546	268.066	85.0492	268.066	84.8229	268.066	85.0893	268.066	84.9659	268.066	85.0596
276.855	87.114	276.855	86.9795	276.855	87.1478	276.855	86.7445	276.855	87.0849	276.855	86.4142	276.855	86.9339	276.855	86.0004	276.855	86.7087	276.855	85.5242	276.855	86.4292	276.855	85.0178	276.855	86.1208	276.855	84.5254	276.855	85.8116	276.855	84.0982	276.855	85.5279	276.855	83.7839	276.855	85.2891	276.855	83.6121	276.855	85.1042	276.855	83.584	276.855	84.972	276.855	83.6735	276.855	84.8846	276.855	83.8397	276.855	84.8312	276.855	84.0402	276.855	84.8002	276.855	84.2404	276.855	84.7798	276.855	84.4168	276.855	84.7576	276.855	84.5567	276.855	84.7206	276.855	84.6566
287.109	87.2726	287.109	87.1903	287.109	87.2087	287.109	86.9617	287.109	87.0033	287.109	86.5919	287.109	86.6675	287.109	86.0943	287.109	86.2246	287.109	85.4988	287.109	85.7169	287.109	84.8627	287.109	85.2138	287.109	84.2803	287.109	84.8111	287.109	83.8741	287.109	84.6085	287.109	83.7481	287.109	84.6616	287.109	83.9237	287.109	84.9473	287.109	84.3274	287.109	85.3786	287.109	84.8448	287.109	85.8537	287.109	85.3783	287.109	86.2932	287.109	85.8677	287.109	86.6494	287.109	86.2839	287.109	86.9008	287.109	86.6159	287.109	87.0427	287.109	86.8605	287.109	87.0789	287.109	87.0161
297.363	88.9323	297.363	88.9237	297.363	88.8037	297.363	88.777	297.363	88.5355	297.363	88.4881	297.363	88.1231	297.363	88.0518	297.363	87.5615	297.363	87.4646	297.363	86.8507	297.363	86.732	297.363	86.005	297.363	85.8805	297.363	85.0721	297.363	84.9779	297.363	84.1628	297.363	84.1562	297.363	83.471	297.363	83.6066	297.363	83.2175	297.363	83.4923	297.363	83.4843	297.363	83.8195	297.363	84.1286	297.363	84.4314	297.363	84.9127	297.363	85.1348	297.363	85.6526	297.363	85.7905	297.363	86.2481	297.363	86.3211	297.363	86.6566	297.363	86.6884	297.363	86.8649	297.363	86.8733
307.617	88.5627	307.617	88.4793	307.617	88.5285	307.617	88.2813	307.617	88.3722	307.617	87.9696	307.617	88.0878	307.617	87.545	307.617	87.6693	307.617	87.0101	307.617	87.1124	307.617	86.3738	307.617	86.4177	307.617	85.6584	307.617	85.5971	307.617	84.9086	307.617	84.6869	307.617	84.2012	307.617	83.7696	307.617	83.6444	307.617	82.9931	307.617	83.3471	307.617	82.548	307.617	83.3607	307.617	82.5562	307.617	83.6397	307.617	82.9606	307.617	84.0682	307.617	83.5701	307.617	84.52	307.617	84.1938	307.617	84.8963	307.617	84.707	307.617	85.1317	307.617	85.0464	307.617	85.1879
319.336	87.6816	319.336	87.6027	319.336	87.6487	319.336	87.4106	319.336	87.5039	319.336	87.103	319.336	87.2458	319.336	86.6779	319.336	86.8723	319.336	86.1365	319.336	86.3826	319.336	85.4884	319.336	85.7805	319.336	84.7599	319.336	85.081	319.336	84.0064	319.336	84.3212	319.336	83.323	319.336	83.5755	319.336	82.8362	319.336	82.9621	319.336	82.6544	319.336	82.6162	319.336	82.7956	319.336	82.6153	319.336	83.1712	319.336	82.9175	319.336	83.6456	319.336	83.3895	319.336	84.1005	319.336	83.8886	319.336	84.4576	319.336	84.3114	319.336	84.6719	319.336	84.5982	319.336	84.721
329.59	87.4466	329.59	87.374	329.59	87.4179	329.59	87.1999	329.59	87.2857	329.59	86.9209	329.59	87.0456	329.59	86.5312	329.59	86.6923	329.59	86.025	329.59	86.2217	329.59	85.4002	329.59	85.6338	329.59	84.6668	329.59	84.938	329.59	83.8594	329.59	84.1633	329.59	83.0552	329.59	83.3717	329.59	82.385	329.59	82.6708	329.59	82.0037	329.59	82.2008	329.59	82.0005	329.59	82.0708	329.59	82.3234	329.59	82.278	329.59	82.8175	329.59	82.7043	329.59	83.3239	329.59	83.1954	329.59	83.7327	329.59	83.628	329.59	83.9835	329.59	83.9259	329.59	84.0493
341.309	87.198	341.309	87.1369	341.309	87.1471	341.309	86.9636	341.309	86.984	341.309	86.6761	341.309	86.7078	341.309	86.2719	341.309	86.3181	341.309	85.749	341.309	85.8165	341.309	85.1088	341.309	85.2088	341.309	84.363	341.309	84.5102	341.309	83.5451	341.309	83.754	341.309	82.7291	341.309	83.0057	341.309	82.0444	341.309	82.3739	341.309	81.6543	341.309	81.9951	341.309	81.6661	341.309	81.9656	341.309	82.0381	341.309	82.2647	341.309	82.6079	341.309	82.7612	341.309	83.2003	341.309	83.2962	341.309	83.6914	341.309	83.7463	341.309	84.0119	341.309	84.0367	341.309	84.1295
353.027	87.3857	353.027	87.3269	353.027	87.3261	353.027	87.1494	353.027	87.1465	353.027	86.8497	353.027	86.8444	353.027	86.4215	353.027	86.4173	353.027	85.8565	353.027	85.8637	353.027	85.1472	353.027	85.185	353.027	84.2931	353.027	84.3898	353.027	83.3141	353.027	83.5047	353.027	82.2767	353.027	82.5947	353.027	81.3311	353.027	81.7872	353.027	80.7155	353.027	81.2662	353.027	80.6334	353.027	81.1791	353.027	81.058	353.027	81.5071	353.027	81.7508	353.027	82.0722	353.027	82.4637	353.027	82.6714	353.027	83.0433	353.027	83.1637	353.027	83.418	353.027	83.4725	353.027	83.5619
366.211	87.4513	366.211	87.4132	366.211	87.3768	366.211	87.2655	366.211	87.1848	366.211	87.0089	366.211	86.8701	366.211	86.6416	366.211	86.4268	366.211	86.1591	366.211	85.8493	366.211	85.5564	366.211	85.1338	366.211	84.831	366.211	84.2837	366.211	83.9898	366.211	83.3216	366.211	83.0617	366.211	82.3117	366.211	82.118	366.211	81.3877	366.211	81.2934	366.211	80.7515	366.211	80.7707	366.211	80.5748	366.211	80.6816	366.211	80.8482	366.211	80.9889	366.211	81.3797	366.211	81.5095	366.211	81.9469	366.211	82.0439	366.211	82.396	366.211	82.4541	366.211	82.6461	366.211	82.6654
379.395	87.3196	379.395	87.2367	379.395	87.3071	379.395	87.0627	379.395	87.1926	379.395	86.7985	379.395	86.9678	379.395	86.4409	379.395	86.6225	379.395	85.9834	379.395	86.1442	379.395	85.419	379.395	85.5187	379.395	84.7471	379.395	84.7329	379.395	83.9824	379.395	83.7828	379.395	83.169	379.395	82.6924	379.395	82.3941	379.395	81.5526	379.395	81.7883	379.395	80.574	379.395	81.4822	379.395	80.0668	379.395	81.524	379.395	80.2097	379.395	81.835	379.395	80.8359	379.395	82.2608	379.395	81.6099	379.395	82.6522	379.395	82.2835	379.395	82.9019	379.395	82.7396	379.395	82.9431
392.578	86.9496	392.578	86.8411	392.578	86.9635	392.578	86.637	392.578	86.8802	392.578	86.3333	392.578	86.6929	392.578	85.9235	392.578	86.3907	392.578	85.3997	392.578	85.96	392.578	84.7549	392.578	85.3869	392.578	83.988	392.578	84.6617	392.578	83.1147	392.578	83.7852	392.578	82.1865	392.578	82.7837	392.578	81.3161	392.578	81.734	392.578	80.6852	392.578	80.7991	392.578	80.4718	392.578	80.2208	392.578	80.7053	392.578	80.1803	392.578	81.2254	392.578	80.6152	392.578	81.8096	392.578	81.2719	392.578	82.2887	392.578	81.906	392.578	82.5662	392.578	82.3702	392.578	82.5971
405.762	86.6678	405.762	86.6114	405.762	86.6267	405.762	86.453	405.762	86.491	405.762	86.1856	405.762	86.2619	405.762	85.7989	405.762	85.9391	405.762	85.2802	405.762	85.5197	405.762	84.6155	405.762	84.998	405.762	83.7959	405.762	84.3666	405.762	82.8301	405.762	83.6224	405.762	81.7725	405.762	82.7811	405.762	80.7651	405.762	81.9043	405.762	80.0575	405.762	81.1316	405.762	79.894	405.762	80.6707	405.762	80.2844	405.762	80.6754	405.762	80.9856	405.762	81.0911	405.762	81.7234	405.762	81.6946	405.762	82.3225	405.762	82.2635	405.762	82.6964	405.762	82.6578	405.762	82.81
420.41	86.8865	420.41	86.9188	420.41	86.7661	420.41	86.8651	420.41	86.5547	420.41	86.7239	420.41	86.2498	420.41	86.4864	420.41	85.8472	420.41	86.1338	420.41	85.3383	420.41	85.638	420.41	84.7084	420.41	84.966	420.41	83.938	420.41	84.0901	420.41	83.0135	420.41	83.0057	420.41	81.9506	420.41	81.7682	420.41	80.8409	420.41	80.5586	420.41	79.9144	420.41	79.7276	420.41	79.508	420.41	79.6125	420.41	79.7876	420.41	80.1623	420.41	80.5324	420.41	80.9946	420.41	81.3736	420.41	81.7706	420.41	82.0576	420.41	82.3141	420.41	82.4655	420.41	82.5532
435.059	85.9995	435.059	85.9166	435.059	85.9982	435.059	85.7592	435.059	85.903	435.059	85.5345	435.059	85.7046	435.059	85.2446	435.059	85.3931	435.059	84.8831	435.059	84.9578	435.059	84.4347	435.059	84.3852	435.059	83.8777	435.059	83.6603	435.059	83.1919	435.059	82.7697	435.059	82.3747	435.059	81.7166	435.059	81.4706	435.059	80.5625	435.059	80.6175	435.059	79.509	435.059	80.0651	435.059	78.9395	435.059	80.0458	435.059	79.1557	435.059	80.5336	435.059	79.9808	435.059	81.2521	435.059	80.9646	435.059	81.9182	435.059	81.7878	435.059	82.3621	435.059	82.3143	435.059	82.5047
451.172	86.5642	451.172	86.4547	451.172	86.5496	451.172	86.2229	451.172	86.4098	451.172	85.8719	451.172	86.1439	451.172	85.4066	451.172	85.7505	451.172	84.8336	451.172	85.2267	451.172	84.1596	451.172	84.5657	451.172	83.39	451.172	83.7541	451.172	82.5288	451.172	82.7696	451.172	81.5868	451.172	81.5853	451.172	80.6052	451.172	80.193	451.172	79.6998	451.172	78.6783	451.172	79.0885	451.172	77.3855	451.172	78.9913	451.172	76.9512	451.172	79.4033	451.172	77.6183	451.172	80.0634	451.172	78.8105	451.172	80.6754	451.172	79.924	451.172	81.0446	451.172	80.6983	451.172	81.0686
465.82	86.5998	465.82	86.4879	465.82	86.5989	465.82	86.2616	465.82	86.4837	465.82	85.9155	465.82	86.2499	465.82	85.4408	465.82	85.8916	465.82	84.825	465.82	85.4018	465.82	84.0542	465.82	84.772	465.82	83.1187	465.82	83.9915	465.82	82.0236	465.82	83.0458	465.82	80.8108	465.82	81.9218	465.82	79.6007	465.82	80.63	465.82	78.6401	465.82	79.2674	465.82	78.2467	465.82	78.1284	465.82	78.5392	465.82	77.6918	465.82	79.2765	465.82	78.1511	465.82	80.098	465.82	79.1102	465.82	80.7537	465.82	80.0737	465.82	81.1169	465.82	80.7781	465.82	81.1313
483.398	86.3011	483.398	86.2881	483.398	86.2484	483.398	86.2007	483.398	86.1328	483.398	86.0216	483.398	85.9537	483.398	85.7243	483.398	85.7071	483.398	85.2751	483.398	85.3839	483.398	84.6374	483.398	84.9665	483.398	83.7771	483.398	84.4273	483.398	82.6663	483.398	83.7309	483.398	81.2942	483.398	82.8425	483.398	79.7076	483.398	81.7463	483.398	78.134	483.398	80.4925	483.398	77.1449	483.398	79.2882	483.398	77.3054	483.398	78.5568	483.398	78.3376	483.398	78.6498	483.398	79.5311	483.398	79.3747	483.398	80.4743	483.398	80.2323	483.398	81.0276	483.398	80.8766	483.398	81.1587
499.512	85.9551	499.512	85.9518	499.512	85.8898	499.512	85.8869	499.512	85.7493	499.512	85.7624	499.512	85.5311	499.512	85.5686	499.512	85.2343	499.512	85.2815	499.512	84.8554	499.512	84.8668	499.512	84.3823	499.512	84.2856	499.512	83.791	499.512	83.4963	499.512	83.0475	499.512	82.4548	499.512	82.118	499.512	81.1316	499.512	80.9994	499.512	79.5921	499.512	79.795	499.512	78.198	499.512	78.8412	499.512	77.707	499.512	78.6503	499.512	78.4424	499.512	79.3325	499.512	79.7269	499.512	80.3881	499.512	80.8914	499.512	81.3167	499.512	81.6736	499.512	81.8821	499.512	82.0069
517.09	85.0754	517.09	85.0194	517.09	85.0402	517.09	84.8878	517.09	84.9187	517.09	84.7109	517.09	84.7332	517.09	84.5194	517.09	84.5129	517.09	84.3223	517.09	84.2783	517.09	84.0895	517.09	84.0238	517.09	83.7522	517.09	83.7109	517.09	83.2164	517.09	83.2727	517.09	82.3798	517.09	82.6274	517.09	81.1525	517.09	81.6984	517.09	79.5172	517.09	80.4569	517.09	77.7464	517.09	79.0397	517.09	76.7943	517.09	77.9774	517.09	77.5081	517.09	78.0278	517.09	79.06	517.09	79.085	517.09	80.4296	517.09	80.3137	517.09	81.2694	517.09	81.184	517.09	81.5183
536.133	85.9494	536.133	85.8061	536.133	85.8768	536.133	85.4802	536.133	85.5673	536.133	85.0184	536.133	85.0203	536.133	84.4828	536.133	84.2677	536.133	83.9448	536.133	83.3846	536.133	83.4581	536.133	82.4854	536.133	83.0228	536.133	81.6881	536.133	82.5673	536.133	81.0466	536.133	81.9678	536.133	80.5018	536.133	81.0925	536.133	79.9204	536.133	79.867	536.133	79.2136	536.133	78.4108	536.133	78.483	536.133	77.3002	536.133	78.1082	536.133	77.39	536.133	78.4671	536.133	78.5436	536.133	79.3926	536.133	79.8463	536.133	80.3623	536.133	80.768	536.133	81.0046	536.133	81.158
555.176	86.0734	555.176	85.8821	555.176	86.1076	555.176	85.5512	555.176	85.976	555.176	85.1081	555.176	85.6779	555.176	84.5911	555.176	85.2185	555.176	84.0445	555.176	84.6012	555.176	83.502	555.176	83.8189	555.176	82.9642	555.176	82.8505	555.176	82.3852	555.176	81.665	555.176	81.6795	555.176	80.2331	555.176	80.7495	555.176	78.5584	555.176	79.5335	555.176	76.7938	555.176	78.1035	555.176	75.5153	555.176	76.8661	555.176	75.5815	555.176	76.5777	555.176	76.836	555.176	77.4206	555.176	78.3102	555.176	78.6489	555.176	79.4398	555.176	79.6273	555.176	80.0542	555.176	80.1156
574.219	85.3889	574.219	85.0614	574.219	85.571	574.219	84.6117	574.219	85.6053	574.219	84.0954	574.219	85.499	574.219	83.6007	574.219	85.2635	574.219	83.2186	574.219	84.9109	574.219	82.987	574.219	84.4469	574.219	82.851	574.219	83.8589	574.219	82.6768	574.219	83.0997	574.219	82.3053	574.219	82.0757	574.219	81.6088	574.219	80.643	574.219	80.5462	574.219	78.6287	574.219	79.2673	574.219	76.0132	574.219	78.287	574.219	73.9535	574.219	78.2857	574.219	74.9666	574.219	79.1807	574.219	77.4873	574.219	80.2392	574.219	79.484	574.219	80.9572	574.219	80.6726	574.219	81.1335
594.727	85.9322	594.727	85.6709	594.727	85.909	594.727	85.1262	594.727	85.6243	594.727	84.3223	594.727	85.1283	594.727	83.3128	594.727	84.4985	594.727	82.191	594.727	83.8281	594.727	81.0959	594.727	83.1997	594.727	80.1844	594.727	82.6525	594.727	79.5463	594.727	82.1538	594.727	79.1208	594.727	81.5865	594.727	78.7204	594.727	80.7597	594.727	78.1584	594.727	79.4348	594.727	77.4231	594.727	77.3785	594.727	76.8913	594.727	74.7545	594.727	77.2055	594.727	73.7847	594.727	78.3573	594.727	76.0363	594.727	79.6272	594.727	78.5079	594.727	80.4718	594.727	80.0423	594.727	80.6541
615.234	86.1786	615.234	85.9723	615.234	86.1842	615.234	85.5592	615.234	86.0036	615.234	84.9418	615.234	85.6536	615.234	84.1351	615.234	85.1479	615.234	83.1755	615.234	84.4946	615.234	82.1302	615.234	83.703	615.234	81.0871	615.234	82.7889	615.234	80.1006	615.234	81.7702	615.234	79.1195	615.234	80.6568	615.234	77.968	615.234	79.4446	615.234	76.4322	615.234	78.1182	615.234	74.4977	615.234	76.6877	615.234	72.9957	615.234	75.3475	615.234	73.5446	615.234	74.7072	615.234	75.4644	615.234	75.2934	615.234	77.1419	615.234	76.5705	615.234	78.0817	615.234	77.6934	615.234	78.2462
637.207	86.0454	637.207	85.8514	637.207	86.0975	637.207	85.5098	637.207	86.0209	637.207	85.0312	637.207	85.8251	637.207	84.4481	637.207	85.5132	637.207	83.8145	637.207	85.0886	637.207	83.1962	637.207	84.5583	637.207	82.6364	637.207	83.9202	637.207	82.1094	637.207	83.1404	637.207	81.5059	637.207	82.1484	637.207	80.666	637.207	80.8477	637.207	79.4324	637.207	79.1151	637.207	77.7113	637.207	76.807	637.207	75.6361	637.207	73.9889	637.207	74.0429	637.207	72.1423	637.207	74.2099	637.207	73.3675	637.207	75.5607	637.207	75.4849	637.207	76.7411	637.207	76.8261	637.207	77.216
659.18	85.5389	659.18	85.3466	659.18	85.4824	659.18	84.9009	659.18	85.2151	659.18	84.2459	659.18	84.804	659.18	83.4904	659.18	84.3431	659.18	82.7887	659.18	83.931	659.18	82.2609	659.18	83.6166	659.18	81.8981	659.18	83.3539	659.18	81.5562	659.18	83.0241	659.18	81.0459	659.18	82.5015	659.18	80.2148	659.18	81.6836	659.18	78.98	659.18	80.461	659.18	77.4192	659.18	78.6844	659.18	76.1411	659.18	76.3155	659.18	76.3431	659.18	74.3992	659.18	77.8736	659.18	75.3388	659.18	79.4099	659.18	77.7299	659.18	80.2949	659.18	79.5156	659.18	80.3548
682.617	86.1491	682.617	85.9619	682.617	85.9761	682.617	85.3989	682.617	85.5011	682.617	84.5001	682.617	84.8258	682.617	83.3969	682.617	84.0875	682.617	82.3326	682.617	83.4243	682.617	81.5785	682.617	82.934	682.617	81.2255	682.617	82.6359	682.617	81.088	682.617	82.4345	682.617	80.868	682.617	82.1518	682.617	80.3216	682.617	81.6274	682.617	79.2611	682.617	80.7626	682.617	77.5246	682.617	79.5022	682.617	75.3041	682.617	77.9071	682.617	74.5302	682.617	76.5877	682.617	76.6399	682.617	76.8877	682.617	79.0277	682.617	78.5796	682.617	80.4433	682.617	80.1107	682.617	80.7856
707.52	86.1445	707.52	85.874	707.52	86.1102	707.52	85.2907	707.52	85.7952	707.52	84.425	707.52	85.2462	707.52	83.3948	707.52	84.5304	707.52	82.4072	707.52	83.7084	707.52	81.637	707.52	82.8236	707.52	81.0816	707.52	81.9332	707.52	80.5991	707.52	81.1108	707.52	80.0719	707.52	80.3758	707.52	79.4542	707.52	79.6287	707.52	78.6335	707.52	78.6556	707.52	77.2931	707.52	77.1717	707.52	74.9328	707.52	74.9276	707.52	71.3156	707.52	72.4516	707.52	70.1595	707.52	72.6257	707.52	73.6393	707.52	75.0607	707.52	76.2302	707.52	76.8072	707.52	77.2273
732.422	86.1722	732.422	86.0911	732.422	85.9926	732.422	85.7131	732.422	85.6196	732.422	85.0502	732.422	85.1312	732.422	84.1817	732.422	84.5806	732.422	83.2445	732.422	83.9771	732.422	82.3624	732.422	83.3142	732.422	81.5992	732.422	82.611	732.422	80.9711	732.422	81.9042	732.422	80.3914	732.422	81.1887	732.422	79.6692	732.422	80.384	732.422	78.647	732.422	79.3474	732.422	77.2475	732.422	77.8713	732.422	75.4506	732.422	75.7447	732.422	73.6175	732.422	73.4456	732.422	73.2854	732.422	73.5147	732.422	75.0154	732.422	75.7293	732.422	76.8495	732.422	77.3489	732.422	77.7114
757.324	85.925	757.324	85.6562	757.324	85.9151	757.324	85.1013	757.324	85.6389	757.324	84.2848	757.324	85.1213	757.324	83.3152	757.324	84.4245	757.324	82.3998	757.324	83.6625	757.324	81.7574	757.324	82.9731	757.324	81.446	757.324	82.4292	757.324	81.2589	757.324	81.9547	757.324	80.8794	757.324	81.3609	757.324	80.1058	757.324	80.471	757.324	78.8446	757.324	79.1911	757.324	76.9577	757.324	77.5434	757.324	74.2766	757.324	75.812	757.324	71.6616	757.324	74.7583	757.324	72.3865	757.324	75.0163	757.324	74.9344	757.324	76.0544	757.324	76.6462	757.324	76.9769	757.324	77.2657
785.156	85.0892	785.156	85.1275	785.156	84.7899	785.156	84.8444	785.156	84.3656	785.156	84.2892	785.156	83.9496	785.156	83.5755	785.156	83.596	785.156	82.7832	785.156	83.2499	785.156	81.9423	785.156	82.8032	785.156	81.0888	785.156	82.1948	785.156	80.2573	785.156	81.444	785.156	79.5095	785.156	80.604	785.156	78.9502	785.156	79.7187	785.156	78.5656	785.156	78.7555	785.156	78.0989	785.156	77.4983	785.156	77.1373	785.156	75.5336	785.156	75.2043	785.156	72.7658	785.156	71.9883	785.156	71.6978	785.156	69.9974	785.156	73.7601	785.156	72.6567	785.156	75.2112	785.156	74.88
811.523	85.6183	811.523	85.5941	811.523	85.1807	811.523	85.1257	811.523	84.3589	811.523	84.2973	811.523	83.3469	811.523	83.2367	811.523	82.4007	811.523	82.0675	811.523	81.7219	811.523	80.8598	811.523	81.326	811.523	79.645	811.523	80.9704	811.523	78.4805	811.523	80.3349	811.523	77.4238	811.523	79.2664	811.523	76.3144	811.523	77.8615	811.523	74.7239	811.523	76.3096	811.523	72.472	811.523	74.47	811.523	71.4923	811.523	71.8294	811.523	73.4191	811.523	68.1741	811.523	75.2188	811.523	66.357	811.523	75.8613	811.523	69.2891	811.523	75.5341	811.523	72.3549	811.523	74.3874
840.82	85.7719	840.82	85.2833	840.82	85.8506	840.82	84.4684	840.82	85.5291	840.82	83.5434	840.82	84.8786	840.82	82.7901	840.82	84.0311	840.82	82.3941	840.82	83.1936	840.82	82.4496	840.82	82.6184	840.82	82.8229	840.82	82.4269	840.82	83.1644	840.82	82.4389	840.82	83.3053	840.82	82.3297	840.82	83.1757	840.82	81.9273	840.82	82.5341	840.82	81.1909	840.82	81.0536	840.82	79.8991	840.82	78.5761	840.82	77.7122	840.82	75.4291	840.82	75.5026	840.82	73.2355	840.82	75.8545	840.82	73.8878	840.82	77.209	840.82	75.7451	840.82	77.6778	840.82	77.1433
870.117	89.1233	870.117	88.8651	870.117	88.8403	870.117	88.0987	870.117	88.0709	870.117	86.8645	870.117	86.9389	870.117	85.1106	870.117	85.5319	870.117	82.7647	870.117	83.8858	870.117	80.2427	870.117	82.2761	870.117	79.118	870.117	81.4962	870.117	80.042	870.117	81.8732	870.117	81.3396	870.117	82.5461	870.117	81.9996	870.117	82.8787	870.117	81.8303	870.117	82.7609	870.117	80.7676	870.117	81.9856	870.117	78.8444	870.117	80.0027	870.117	77.132	870.117	76.5738	870.117	77.8263	870.117	75.6514	870.117	79.7597	870.117	78.7825	870.117	81.15	870.117	80.9052	870.117	81.5921
900.879	88.9639	900.879	88.4419	900.879	89.0675	900.879	87.4993	900.879	88.8068	900.879	86.3481	900.879	88.177	900.879	85.3519	900.879	87.12	900.879	84.5015	900.879	85.6178	900.879	83.4293	900.879	83.7896	900.879	82.1244	900.879	81.9139	900.879	80.9743	900.879	80.3251	900.879	80.3861	900.879	79.2972	900.879	80.472	900.879	78.9036	900.879	80.635	900.879	78.7692	900.879	79.9481	900.879	78.2726	900.879	77.8386	900.879	77.0174	900.879	74.8163	900.879	75.4495	900.879	74.4157	900.879	75.4076	900.879	76.722	900.879	77.0652	900.879	78.4465	900.879	78.5342	900.879	79.0376
933.105	88.5996	933.105	88.1545	933.105	88.7893	933.105	87.6586	933.105	88.6411	933.105	87.267	933.105	88.1339	933.105	86.7319	933.105	87.2003	933.105	85.4855	933.105	85.7254	933.105	83.1841	933.105	83.7765	933.105	80.3768	933.105	81.869	933.105	78.7848	933.105	80.7993	933.105	79.1516	933.105	80.6897	933.105	80.4707	933.105	81.0705	933.105	81.5937	933.105	81.6759	933.105	81.6542	933.105	81.8674	933.105	80.2333	933.105	80.6695	933.105	77.1638	933.105	78.0379	933.105	73.554	933.105	77.7938	933.105	75.2001	933.105	80.1711	933.105	78.8227	933.105	81.3567	933.105	80.9024
965.332	87.8562	965.332	87.9779	965.332	87.7496	965.332	88.0147	965.332	87.671	965.332	87.7949	965.332	87.5814	965.332	87.1068	965.332	87.3899	965.332	85.695	965.332	86.9064	965.332	83.308	965.332	85.9086	965.332	79.9619	965.332	84.3483	965.332	76.5903	965.332	82.5205	965.332	74.9757	965.332	80.8986	965.332	74.8545	965.332	79.5906	965.332	74.9395	965.332	78.2657	965.332	74.8868	965.332	76.4672	965.332	74.2517	965.332	73.3632	965.332	73.1363	965.332	67.2163	965.332	73.9224	965.332	64.9495	965.332	76.6686	965.332	72.9066	965.332	78.5524	965.332	77.0218	965.332	78.7416
1,000.49	88.4227	1,000.49	88.5437	1,000.49	87.9514	1,000.49	88.3099	1,000.49	87.2828	1,000.49	87.7677	1,000.49	86.5789	1,000.49	86.7941	1,000.49	85.8165	1,000.49	85.0814	1,000.49	84.8935	1,000.49	82.555	1,000.49	83.9294	1,000.49	79.9244	1,000.49	83.267	1,000.49	78.1667	1,000.49	83.0131	1,000.49	77.2678	1,000.49	82.8284	1,000.49	77.1681	1,000.49	82.4818	1,000.49	77.678	1,000.49	82.1	1,000.49	77.5807	1,000.49	81.3163	1,000.49	76.1007	1,000.49	78.9544	1,000.49	74.3535	1,000.49	73.497	1,000.49	74.9236	1,000.49	61.2938	1,000.49	76.4465	1,000.49	70.0384	1,000.49	77.2672	1,000.49	74.9519	1,000.49	76.9305
1,035.64	88.8545	1,035.64	88.931	1,035.64	88.3002	1,035.64	88.4707	1,035.64	87.488	1,035.64	87.5834	1,035.64	86.6416	1,035.64	86.4017	1,035.64	85.7781	1,035.64	84.9523	1,035.64	84.6282	1,035.64	83.1457	1,035.64	82.8089	1,035.64	80.6194	1,035.64	80.1065	1,035.64	77.3756	1,035.64	77.0746	1,035.64	76.2368	1,035.64	75.524	1,035.64	78.045	1,035.64	75.9545	1,035.64	79.8716	1,035.64	77.0455	1,035.64	80.3835	1,035.64	77.8161	1,035.64	78.7787	1,035.64	77.5809	1,035.64	74.0876	1,035.64	75.7205	1,035.64	70.6447	1,035.64	72.1755	1,035.64	76.8618	1,035.64	73.7221	1,035.64	79.9466	1,035.64	78.2723	1,035.64	80.3298
1,072.27	88.2581	1,072.27	88.0994	1,072.27	88.245	1,072.27	87.768	1,072.27	87.9369	1,072.27	87.2652	1,072.27	87.1359	1,072.27	86.6374	1,072.27	85.7623	1,072.27	85.875	1,072.27	83.9915	1,072.27	84.863	1,072.27	82.1037	1,072.27	83.3212	1,072.27	80.193	1,072.27	80.9525	1,072.27	78.4941	1,072.27	77.8219	1,072.27	77.5649	1,072.27	74.7368	1,072.27	77.1608	1,072.27	74.8822	1,072.27	77.4819	1,072.27	77.1952	1,072.27	78.3808	1,072.27	77.5214	1,072.27	78.5115	1,072.27	74.2675	1,072.27	76.7529	1,072.27	68.9532	1,072.27	72.3118	1,072.27	75.3091	1,072.27	71.2929	1,072.27	78.6663	1,072.27	76.3741	1,072.27	78.8652
1,108.89	88.1594	1,108.89	87.6149	1,108.89	88.3068	1,108.89	87.054	1,108.89	87.9551	1,108.89	86.8874	1,108.89	87.163	1,108.89	86.9552	1,108.89	86.0342	1,108.89	86.5854	1,108.89	84.6944	1,108.89	85.2357	1,108.89	83.1647	1,108.89	82.8646	1,108.89	81.248	1,108.89	80.1016	1,108.89	78.9601	1,108.89	77.5772	1,108.89	77.0678	1,108.89	74.93	1,108.89	76.1519	1,108.89	74.8113	1,108.89	75.9798	1,108.89	77.2981	1,108.89	76.8411	1,108.89	78.0481	1,108.89	77.4756	1,108.89	76.5339	1,108.89	76.3085	1,108.89	72.9337	1,108.89	73.4167	1,108.89	72.0629	1,108.89	72.6645	1,108.89	75.6321	1,108.89	75.6728	1,108.89	77.0393
1,148.44	88.7031	1,148.44	88.1341	1,148.44	88.7442	1,148.44	87.4966	1,148.44	88.2671	1,148.44	87.2794	1,148.44	87.5123	1,148.44	87.1677	1,148.44	86.5805	1,148.44	86.4096	1,148.44	85.4052	1,148.44	84.9048	1,148.44	83.9509	1,148.44	83.3665	1,148.44	82.0745	1,148.44	81.8753	1,148.44	79.4709	1,148.44	80.003	1,148.44	76.2804	1,148.44	77.8771	1,148.44	72.9698	1,148.44	75.8966	1,148.44	69.6207	1,148.44	77.1362	1,148.44	71.4491	1,148.44	78.6004	1,148.44	74.432	1,148.44	76.6521	1,148.44	74.5517	1,148.44	68.7986	1,148.44	72.5927	1,148.44	72.714	1,148.44	74.116	1,148.44	78.6396	1,148.44	78.3171	1,148.44	80.0251
1,189.45	88.5264	1,189.45	88.4443	1,189.45	88.3337	1,189.45	88.0478	1,189.45	88.0311	1,189.45	87.2037	1,189.45	87.6899	1,189.45	85.8324	1,189.45	86.9726	1,189.45	84.0468	1,189.45	85.6189	1,189.45	82.3899	1,189.45	84.0118	1,189.45	81.7762	1,189.45	82.7363	1,189.45	81.4253	1,189.45	81.9394	1,189.45	80.2687	1,189.45	81.6555	1,189.45	78.3937	1,189.45	81.6415	1,189.45	75.4028	1,189.45	81.2824	1,189.45	70.8081	1,189.45	80.5987	1,189.45	72.4612	1,189.45	79.3377	1,189.45	75.0197	1,189.45	76.5043	1,189.45	74.1573	1,189.45	73.7177	1,189.45	69.1121	1,189.45	74.3461	1,189.45	71.2594	1,189.45	75.6296	1,189.45	75.3047
1,230.47	89.8314	1,230.47	89.4924	1,230.47	89.4191	1,230.47	88.3655	1,230.47	88.341	1,230.47	86.513	1,230.47	86.7623	1,230.47	84.2512	1,230.47	85.4116	1,230.47	82.6009	1,230.47	85.0469	1,230.47	82.2909	1,230.47	85.1489	1,230.47	81.9266	1,230.47	84.6085	1,230.47	80.3258	1,230.47	82.9417	1,230.47	78.5991	1,230.47	80.9773	1,230.47	77.9918	1,230.47	79.1212	1,230.47	76.8336	1,230.47	76.7674	1,230.47	75.6146	1,230.47	74.5645	1,230.47	77.3141	1,230.47	73.9448	1,230.47	78.4897	1,230.47	74.3866	1,230.47	77.1629	1,230.47	74.1361	1,230.47	73.9059	1,230.47	75.8634	1,230.47	76.7527	1,230.47	79.0619	1,230.47	79.5988
1,274.41	89.5149	1,274.41	88.9259	1,274.41	89.342	1,274.41	87.6787	1,274.41	88.4711	1,274.41	86.2278	1,274.41	86.9146	1,274.41	84.9794	1,274.41	84.9405	1,274.41	83.9175	1,274.41	83.3938	1,274.41	82.8649	1,274.41	82.7066	1,274.41	81.655	1,274.41	82.09	1,274.41	80.0569	1,274.41	81.1068	1,274.41	78.0636	1,274.41	80.5244	1,274.41	77.0299	1,274.41	80.7059	1,274.41	76.7188	1,274.41	80.7994	1,274.41	74.3695	1,274.41	80.7053	1,274.41	70.9841	1,274.41	80.1409	1,274.41	73.765	1,274.41	77.3113	1,274.41	76.2005	1,274.41	72.4237	1,274.41	76.1416	1,274.41	73.2104	1,274.41	75.004	1,274.41	75.221	1,274.41	75.1187
1,319.82	89.234	1,319.82	88.2704	1,319.82	89.4624	1,319.82	87.2911	1,319.82	88.7139	1,319.82	86.7164	1,319.82	86.8918	1,319.82	85.8679	1,319.82	84.0502	1,319.82	84.5407	1,319.82	81.35	1,319.82	83.3325	1,319.82	80.7912	1,319.82	82.0309	1,319.82	80.9244	1,319.82	80.2723	1,319.82	80.6487	1,319.82	79.0607	1,319.82	80.4446	1,319.82	78.3978	1,319.82	79.8708	1,319.82	76.79	1,319.82	78.2704	1,319.82	74.0726	1,319.82	76.0973	1,319.82	70.7225	1,319.82	73.6828	1,319.82	67.9904	1,319.82	69.3483	1,319.82	70.852	1,319.82	69.1936	1,319.82	74.2115	1,319.82	70.6626	1,319.82	75.1783	1,319.82	72.1959	1,319.82	74.2156
1,366.7	88.7376	1,366.7	88.0165	1,366.7	89.0207	1,366.7	87.336	1,366.7	88.5265	1,366.7	86.6023	1,366.7	86.9113	1,366.7	85.5213	1,366.7	83.9879	1,366.7	84.4901	1,366.7	80.6099	1,366.7	83.4569	1,366.7	79.511	1,366.7	81.7494	1,366.7	80.6651	1,366.7	80.1076	1,366.7	81.3898	1,366.7	79.7462	1,366.7	81.7544	1,366.7	80.6292	1,366.7	81.6232	1,366.7	81.2474	1,366.7	79.5427	1,366.7	80.4017	1,366.7	75.3238	1,366.7	77.9267	1,366.7	71.3152	1,366.7	73.0498	1,366.7	66.2212	1,366.7	62.0646	1,366.7	59.0096	1,366.7	73.5577	1,366.7	63.7263	1,366.7	76.6549	1,366.7	71.8294	1,366.7	75.7313
1,413.57	87.8035	1,413.57	87.865	1,413.57	88.055	1,413.57	88.0896	1,413.57	87.9437	1,413.57	87.4676	1,413.57	86.9762	1,413.57	85.7524	1,413.57	85.0831	1,413.57	83.7745	1,413.57	82.1506	1,413.57	81.4461	1,413.57	77.4896	1,413.57	77.0427	1,413.57	71.547	1,413.57	70.7463	1,413.57	72.0955	1,413.57	67.5299	1,413.57	74.7248	1,413.57	73.0629	1,413.57	75.5921	1,413.57	77.8052	1,413.57	75.1189	1,413.57	79.2563	1,413.57	72.7068	1,413.57	78.9121	1,413.57	69.8449	1,413.57	76.9417	1,413.57	71.7293	1,413.57	71.0057	1,413.57	69.8718	1,413.57	68.8275	1,413.57	52.4731	1,413.57	75.5693	1,413.57	72.3906	1,413.57	76.2254
1,463.38	87.5679	1,463.38	88.4321	1,463.38	87.0557	1,463.38	88.4483	1,463.38	87.0899	1,463.38	86.6432	1,463.38	86.9142	1,463.38	83.4775	1,463.38	85.9995	1,463.38	81.4601	1,463.38	84.0807	1,463.38	79.8234	1,463.38	80.9098	1,463.38	76.2865	1,463.38	76.3829	1,463.38	73.5317	1,463.38	71.9353	1,463.38	72.9259	1,463.38	64.177	1,463.38	67.187	1,463.38	63.0678	1,463.38	64.4952	1,463.38	51.9398	1,463.38	71.15	1,463.38	71.4161	1,463.38	74.602	1,463.38	77.5638	1,463.38	76.8024	1,463.38	78.8427	1,463.38	74.8194	1,463.38	75.5857	1,463.38	57.0013	1,463.38	71.0012	1,463.38	72.4857	1,463.38	73.5844	1,463.38	75.4397
1,516.11	88.4147	1,516.11	88.2386	1,516.11	87.9725	1,516.11	87.207	1,516.11	87.2089	1,516.11	85.7242	1,516.11	86.0883	1,516.11	84.3059	1,516.11	84.73	1,516.11	82.0545	1,516.11	83.5716	1,516.11	79.4595	1,516.11	81.9465	1,516.11	79.5174	1,516.11	79.5014	1,516.11	79.921	1,516.11	77.8527	1,516.11	79.5369	1,516.11	77.3058	1,516.11	78.3263	1,516.11	76.9115	1,516.11	75.3047	1,516.11	77.3159	1,516.11	72.9636	1,516.11	78.9069	1,516.11	68.3545	1,516.11	78.5415	1,516.11	64.7921	1,516.11	77.2391	1,516.11	71.6379	1,516.11	73.6637	1,516.11	69.0905	1,516.11	66.5626	1,516.11	69.8384	1,516.11	73.0515	1,516.11	74.2421
1,568.85	88.0285	1,568.85	87.7004	1,568.85	87.6857	1,568.85	86.8284	1,568.85	87.1147	1,568.85	85.9495	1,568.85	86.3602	1,568.85	84.8586	1,568.85	85.07	1,568.85	83.0338	1,568.85	83.579	1,568.85	81.2357	1,568.85	82.3099	1,568.85	80.0959	1,568.85	81.1606	1,568.85	78.2162	1,568.85	80.0371	1,568.85	76.5472	1,568.85	78.7529	1,568.85	76.6229	1,568.85	76.0137	1,568.85	75.1195	1,568.85	73.2148	1,568.85	74.4902	1,568.85	74.2882	1,568.85	76.4904	1,568.85	73.7355	1,568.85	76.2368	1,568.85	72.9537	1,568.85	72.7846	1,568.85	71.7562	1,568.85	63.1068	1,568.85	62.3302	1,568.85	71.3218	1,568.85	69.75	1,568.85	74.0361
1,624.51	88.2303	1,624.51	87.7144	1,624.51	88.2367	1,624.51	86.857	1,624.51	87.2916	1,624.51	85.815	1,624.51	85.343	1,624.51	84.9481	1,624.51	84.0215	1,624.51	84.1561	1,624.51	83.9218	1,624.51	82.6931	1,624.51	83.1892	1,624.51	80.4618	1,624.51	81.6016	1,624.51	77.4631	1,624.51	78.9547	1,624.51	72.9474	1,624.51	76.67	1,624.51	69.948	1,624.51	75.5988	1,624.51	72.1494	1,624.51	73.8177	1,624.51	74.677	1,624.51	72.5039	1,624.51	74.0398	1,624.51	75.2044	1,624.51	69.7616	1,624.51	76.4528	1,624.51	71.2862	1,624.51	73.278	1,624.51	68.9436	1,624.51	66.9724	1,624.51	64.1663	1,624.51	70.487	1,624.51	70.8021
1,681.64	88.4699	1,681.64	87.8667	1,681.64	88.3971	1,681.64	87.0111	1,681.64	87.5053	1,681.64	86.2419	1,681.64	86.1916	1,681.64	85.0909	1,681.64	84.6189	1,681.64	82.7603	1,681.64	82.6218	1,681.64	79.9954	1,681.64	81.5914	1,681.64	78.691	1,681.64	81.2554	1,681.64	77.6758	1,681.64	79.8481	1,681.64	75.8612	1,681.64	76.8016	1,681.64	74.3274	1,681.64	70.8752	1,681.64	71.1128	1,681.64	69.8818	1,681.64	70.0857	1,681.64	73.946	1,681.64	75.4497	1,681.64	75.8572	1,681.64	73.7789	1,681.64	75.0401	1,681.64	62.8122	1,681.64	71.7046	1,681.64	69.2812	1,681.64	66.3571	1,681.64	72.5896	1,681.64	66.9975	1,681.64	71.7425
1,741.7	89.1731	1,741.7	88.4411	1,741.7	89.0791	1,741.7	87.5261	1,741.7	88.2131	1,741.7	86.5396	1,741.7	86.8856	1,741.7	84.5743	1,741.7	84.574	1,741.7	81.6633	1,741.7	81.8494	1,741.7	79.7801	1,741.7	81.0606	1,741.7	78.023	1,741.7	81.3278	1,741.7	75.2065	1,741.7	80.7269	1,741.7	74.698	1,741.7	78.7644	1,741.7	74.7298	1,741.7	75.659	1,741.7	74.5265	1,741.7	73.3058	1,741.7	76.2236	1,741.7	73.1774	1,741.7	77.955	1,741.7	77.2701	1,741.7	76.2558	1,741.7	77.284	1,741.7	70.7455	1,741.7	71.7537	1,741.7	71.9665	1,741.7	59.9403	1,741.7	73.0858	1,741.7	65.3817	1,741.7	71.3659
1,803.22	89.6112	1,803.22	89.3566	1,803.22	88.6862	1,803.22	87.888	1,803.22	87.6155	1,803.22	86.068	1,803.22	87.0857	1,803.22	84.3712	1,803.22	86.1195	1,803.22	82.8128	1,803.22	84.0899	1,803.22	81.9891	1,803.22	80.0723	1,803.22	81.0084	1,803.22	77.0131	1,803.22	78.7368	1,803.22	79.3201	1,803.22	76.1546	1,803.22	80.5061	1,803.22	70.1859	1,803.22	78.8952	1,803.22	68.7264	1,803.22	71.4519	1,803.22	70.0632	1,803.22	62.1915	1,803.22	71.9136	1,803.22	63.2907	1,803.22	75.503	1,803.22	64.6922	1,803.22	74.6233	1,803.22	66.1676	1,803.22	68.8977	1,803.22	64.5041	1,803.22	73.4669	1,803.22	71.2739	1,803.22	75.8065
1,866.21	88.7778	1,866.21	88.8954	1,866.21	88.6579	1,866.21	88.4326	1,866.21	88.2843	1,866.21	86.332	1,866.21	86.814	1,866.21	82.6219	1,866.21	84.792	1,866.21	81.2567	1,866.21	83.2521	1,866.21	81.7621	1,866.21	80.3691	1,866.21	79.238	1,866.21	78.9619	1,866.21	77.8376	1,866.21	79.1279	1,866.21	78.8647	1,866.21	78.4819	1,866.21	77.0961	1,866.21	73.9332	1,866.21	77.8372	1,866.21	57.0977	1,866.21	74.7355	1,866.21	68.803	1,866.21	61.6937	1,866.21	69.8643	1,866.21	73.804	1,866.21	70.9186	1,866.21	76.6411	1,866.21	76.0993	1,866.21	71.9726	1,866.21	73.3558	1,866.21	66.5078	1,866.21	72.9494	1,866.21	73.8468
1,932.13	88.8551	1,932.13	89.046	1,932.13	88.8437	1,932.13	88.6071	1,932.13	88.2663	1,932.13	86.6078	1,932.13	86.4162	1,932.13	83.9443	1,932.13	85.3261	1,932.13	83.3361	1,932.13	84.0027	1,932.13	82.0706	1,932.13	80.8378	1,932.13	80.0214	1,932.13	77.4758	1,932.13	79.1915	1,932.13	77.6988	1,932.13	76.3741	1,932.13	77.1713	1,932.13	75.7351	1,932.13	72.0706	1,932.13	77.5155	1,932.13	69.0059	1,932.13	76.3464	1,932.13	71.9595	1,932.13	71.7806	1,932.13	67.5184	1,932.13	75.8463	1,932.13	68.7719	1,932.13	76.2152	1,932.13	73.422	1,932.13	71.442	1,932.13	71.3592	1,932.13	75.1441	1,932.13	73.482	1,932.13	76.1836
1,999.51	89.3696	1,999.51	89.0984	1,999.51	88.8186	1,999.51	87.6774	1,999.51	88.1224	1,999.51	86.4684	1,999.51	87.0056	1,999.51	85.9189	1,999.51	85.5746	1,999.51	83.9151	1,999.51	84.2981	1,999.51	82.2743	1,999.51	82.9349	1,999.51	81.4201	1,999.51	80.7401	1,999.51	78.7866	1,999.51	78.5179	1,999.51	73.8839	1,999.51	74.1254	1,999.51	70.3867	1,999.51	69.8234	1,999.51	73.5169	1,999.51	75.3349	1,999.51	74.2506	1,999.51	73.9897	1,999.51	70.481	1,999.51	67.8063	1,999.51	75.7517	1,999.51	67.9422	1,999.51	74.5445	1,999.51	72.2476	1,999.51	70.6456	1,999.51	68.9015	1,999.51	73.3462	1,999.51	70.7309	1,999.51	73.8323
2,069.82	89.5485	2,069.82	88.7686	2,069.82	88.7546	2,069.82	86.8702	2,069.82	87.5196	2,069.82	85.9662	2,069.82	86.1588	2,069.82	85.3829	2,069.82	85.1065	2,069.82	84.7177	2,069.82	84.5575	2,069.82	82.868	2,069.82	83.6965	2,069.82	78.6019	2,069.82	81.8559	2,069.82	77.5836	2,069.82	80.359	2,069.82	79.2028	2,069.82	80.0721	2,069.82	77.3983	2,069.82	75.804	2,069.82	71.1289	2,069.82	72.049	2,069.82	75.7013	2,069.82	73.1602	2,069.82	73.1274	2,069.82	67.7013	2,069.82	75.1548	2,069.82	69.5627	2,069.82	76.0018	2,069.82	74.1453	2,069.82	69.0342	2,069.82	71.8855	2,069.82	74.4621	2,069.82	73.4414	2,069.82	76.5632
2,143.07	89.5722	2,143.07	88.7318	2,143.07	89.0906	2,143.07	87.5562	2,143.07	87.7928	2,143.07	86.9201	2,143.07	86.4798	2,143.07	85.4517	2,143.07	85.7749	2,143.07	83.7392	2,143.07	84.8635	2,143.07	82.4892	2,143.07	84.102	2,143.07	81.6939	2,143.07	83.5511	2,143.07	80.2362	2,143.07	82.6999	2,143.07	76.8196	2,143.07	80.7811	2,143.07	75.3684	2,143.07	76.1272	2,143.07	71.529	2,143.07	69.7339	2,143.07	74.4026	2,143.07	69.0527	2,143.07	75.5236	2,143.07	68.3115	2,143.07	73.8147	2,143.07	67.9769	2,143.07	76.3446	2,143.07	72.4721	2,143.07	71.946	2,143.07	67.9493	2,143.07	73.0627	2,143.07	73.3418	2,143.07	76.3376
2,219.24	89.3793	2,219.24	88.8128	2,219.24	89.1193	2,219.24	88.3698	2,219.24	87.919	2,219.24	87.1057	2,219.24	86.5615	2,219.24	84.8261	2,219.24	85.4925	2,219.24	83.8678	2,219.24	84.3448	2,219.24	83.4477	2,219.24	83.41	2,219.24	80.2636	2,219.24	82.238	2,219.24	78.9702	2,219.24	80.4923	2,219.24	80.0089	2,219.24	80.4398	2,219.24	76.1493	2,219.24	76.396	2,219.24	72.8789	2,219.24	70.4577	2,219.24	73.3586	2,219.24	67.4257	2,219.24	75.5693	2,219.24	67.559	2,219.24	73.4523	2,219.24	69.0615	2,219.24	75.6527	2,219.24	74.8018	2,219.24	72.1014	2,219.24	69.7662	2,219.24	71.4707	2,219.24	71.3106	2,219.24	75.1604
2,296.88	88.6889	2,296.88	88.3624	2,296.88	88.9337	2,296.88	88.7378	2,296.88	88.2502	2,296.88	87.9144	2,296.88	86.9253	2,296.88	85.7652	2,296.88	86.0964	2,296.88	85.255	2,296.88	85.8555	2,296.88	84.5201	2,296.88	84.951	2,296.88	84.0186	2,296.88	82.408	2,296.88	81.5549	2,296.88	81.2706	2,296.88	77.5868	2,296.88	82.2344	2,296.88	76.6648	2,296.88	78.3455	2,296.88	72.8931	2,296.88	56.6036	2,296.88	71.5179	2,296.88	68.0442	2,296.88	76.7486	2,296.88	70.4268	2,296.88	75.5931	2,296.88	69.0346	2,296.88	75.8624	2,296.88	74.165	2,296.88	73.7423	2,296.88	72.7542	2,296.88	71.7844	2,296.88	71.6679	2,296.88	74.9054
2,378.91	87.9875	2,378.91	88.2026	2,378.91	87.959	2,378.91	88.3235	2,378.91	87.5916	2,378.91	86.7787	2,378.91	86.7831	2,378.91	86.0917	2,378.91	86.635	2,378.91	86.0255	2,378.91	86.0917	2,378.91	85.3951	2,378.91	84.7844	2,378.91	82.9783	2,378.91	84.8268	2,378.91	77.8829	2,378.91	83.8481	2,378.91	77.6289	2,378.91	80.8341	2,378.91	75.02	2,378.91	79.5576	2,378.91	74.4711	2,378.91	72.463	2,378.91	70.5619	2,378.91	50.9186	2,378.91	73.9491	2,378.91	68.6801	2,378.91	73.6947	2,378.91	66.8428	2,378.91	74.1097	2,378.91	73.0103	2,378.91	74.0679	2,378.91	70.689	2,378.91	72.1588	2,378.91	74.7557	2,378.91	77.9083
2,462.4	88.3771	2,462.4	89.0831	2,462.4	87.8031	2,462.4	88.4048	2,462.4	87.4665	2,462.4	87.4686	2,462.4	86.8611	2,462.4	87.4205	2,462.4	86.473	2,462.4	85.9145	2,462.4	85.4936	2,462.4	83.7751	2,462.4	85.3133	2,462.4	82.4806	2,462.4	84.2649	2,462.4	81.8918	2,462.4	82.1257	2,462.4	79.0175	2,462.4	79.2463	2,462.4	78.1806	2,462.4	67.9604	2,462.4	73.9049	2,462.4	66.7353	2,462.4	73.2921	2,462.4	65.991	2,462.4	72.6265	2,462.4	71.0451	2,462.4	75.636	2,462.4	70.9308	2,462.4	71.936	2,462.4	70.9097	2,462.4	72.6017	2,462.4	70.6925	2,462.4	73.073	2,462.4	74.1605	2,462.4	78.0723
2,548.83	88.7058	2,548.83	88.6408	2,548.83	88.6248	2,548.83	87.7749	2,548.83	87.7163	2,548.83	88.0237	2,548.83	86.9575	2,548.83	87.8753	2,548.83	86.1533	2,548.83	85.1603	2,548.83	85.0474	2,548.83	83.5157	2,548.83	84.2208	2,548.83	80.748	2,548.83	81.29	2,548.83	79.4027	2,548.83	82.3275	2,548.83	79.6979	2,548.83	82.6725	2,548.83	77.2912	2,548.83	76.4691	2,548.83	75.2349	2,548.83	73.6206	2,548.83	71.4533	2,548.83	68.6202	2,548.83	71.3158	2,548.83	67.3103	2,548.83	71.7947	2,548.83	67.7733	2,548.83	68.8072	2,548.83	70.4173	2,548.83	69.9934	2,548.83	69.762	2,548.83	71.574	2,548.83	70.7829	2,548.83	76.6431
2,639.65	87.8352	2,639.65	87.3126	2,639.65	88.1861	2,639.65	88.0734	2,639.65	88.2096	2,639.65	88.7112	2,639.65	88.082	2,639.65	86.8836	2,639.65	87.0744	2,639.65	85.2823	2,639.65	85.9895	2,639.65	83.1077	2,639.65	83.3676	2,639.65	82.4997	2,639.65	82.3845	2,639.65	82.3008	2,639.65	82.3546	2,639.65	78.2314	2,639.65	78.458	2,639.65	76.2451	2,639.65	75.0936	2,639.65	73.6821	2,639.65	75.551	2,639.65	70.911	2,639.65	67.0234	2,639.65	71.587	2,639.65	71.6232	2,639.65	74.0248	2,639.65	68.3024	2,639.65	71.5333	2,639.65	71.226	2,639.65	67.8141	2,639.65	69.287	2,639.65	69.3183	2,639.65	71.9835	2,639.65	75.3862
2,731.93	87.2569	2,731.93	86.8864	2,731.93	87.7369	2,731.93	88.0846	2,731.93	87.9277	2,731.93	87.2029	2,731.93	88.0204	2,731.93	86.0042	2,731.93	87.233	2,731.93	85.3367	2,731.93	86.1765	2,731.93	83.7932	2,731.93	84.2122	2,731.93	82.1538	2,731.93	82.0575	2,731.93	75.8927	2,731.93	78.602	2,731.93	75.5645	2,731.93	75.709	2,731.93	72.2382	2,731.93	79.4277	2,731.93	73.2221	2,731.93	76.5156	2,731.93	72.2031	2,731.93	64.092	2,731.93	69.6822	2,731.93	70.1036	2,731.93	72.9369	2,731.93	64.8029	2,731.93	71.3002	2,731.93	70.165	2,731.93	69.2736	2,731.93	63.9956	2,731.93	64.2622	2,731.93	67.8369	2,731.93	73.4482
2,828.61	86.8004	2,828.61	88.0579	2,828.61	86.8425	2,828.61	88.3899	2,828.61	87.9197	2,828.61	87.7718	2,828.61	88.0407	2,828.61	87.0377	2,828.61	87.7206	2,828.61	85.8963	2,828.61	86.3281	2,828.61	84.3782	2,828.61	84.1862	2,828.61	80.8421	2,828.61	83.5882	2,828.61	78.2055	2,828.61	78.7939	2,828.61	76.1335	2,828.61	72.8512	2,828.61	76.7067	2,828.61	80.4506	2,828.61	75.7084	2,828.61	77.1234	2,828.61	73.4495	2,828.61	65.5582	2,828.61	71.1272	2,828.61	66.8788	2,828.61	73.0224	2,828.61	63.2106	2,828.61	70.5693	2,828.61	69.5143	2,828.61	73.047	2,828.61	71.5134	2,828.61	58.0172	2,828.61	66.8759	2,828.61	73.7289
2,928.22	87.7005	2,928.22	88.709	2,928.22	87.7395	2,928.22	88.4746	2,928.22	88.5633	2,928.22	88.2763	2,928.22	87.8055	2,928.22	87.0291	2,928.22	87.4316	2,928.22	85.8708	2,928.22	86.3039	2,928.22	83.9227	2,928.22	84.9306	2,928.22	80.063	2,928.22	83.085	2,928.22	81.8259	2,928.22	76.1617	2,928.22	80.281	2,928.22	81.3388	2,928.22	74.7428	2,928.22	81.6862	2,928.22	74.9051	2,928.22	75.0915	2,928.22	72.8702	2,928.22	68.4022	2,928.22	72.1922	2,928.22	65.2433	2,928.22	72.7293	2,928.22	67.6404	2,928.22	70.8477	2,928.22	66.5028	2,928.22	70.1955	2,928.22	69.2012	2,928.22	47.8502	2,928.22	70.5169	2,928.22	73.948
3,030.76	87.8874	3,030.76	88.5274	3,030.76	87.8855	3,030.76	89.0857	3,030.76	88.04	3,030.76	87.4171	3,030.76	87.3961	3,030.76	85.5195	3,030.76	87.3117	3,030.76	85.8561	3,030.76	86.12	3,030.76	82.5436	3,030.76	83.7388	3,030.76	82.5737	3,030.76	81.279	3,030.76	82.0576	3,030.76	79.2523	3,030.76	76.9746	3,030.76	82.8542	3,030.76	72.0305	3,030.76	80.0046	3,030.76	72.6446	3,030.76	69.4258	3,030.76	73.5704	3,030.76	68.7097	3,030.76	71.8287	3,030.76	62.398	3,030.76	74.0233	3,030.76	67.9799	3,030.76	70.4407	3,030.76	70.533	3,030.76	72.1945	3,030.76	66.8113	3,030.76	60.7079	3,030.76	69.8275	3,030.76	72.2783
3,137.7	87.4245	3,137.7	88.3201	3,137.7	87.8339	3,137.7	88.4271	3,137.7	87.9595	3,137.7	86.7981	3,137.7	87.7205	3,137.7	86.7102	3,137.7	87.1868	3,137.7	85.1108	3,137.7	85.3494	3,137.7	84.0037	3,137.7	82.7679	3,137.7	83.8468	3,137.7	79.2331	3,137.7	79.47	3,137.7	81.6386	3,137.7	72.7923	3,137.7	83.0323	3,137.7	76.1582	3,137.7	74.8844	3,137.7	72.9652	3,137.7	72.2014	3,137.7	73.4678	3,137.7	72.3453	3,137.7	73.5893	3,137.7	62.1068	3,137.7	73.0606	3,137.7	57.8876	3,137.7	72.0877	3,137.7	70.0301	3,137.7	71.1192	3,137.7	69.0727	3,137.7	64.3451	3,137.7	69.8493	3,137.7	71.6471
3,249.02	87.7147	3,249.02	87.1869	3,249.02	88.4348	3,249.02	86.954	3,249.02	88.1984	3,249.02	87.4676	3,249.02	88.1068	3,249.02	87.4219	3,249.02	86.897	3,249.02	86.2034	3,249.02	84.7135	3,249.02	85.439	3,249.02	83.5473	3,249.02	81.4015	3,249.02	83.0089	3,249.02	75.4814	3,249.02	84.3518	3,249.02	77.0769	3,249.02	82.6033	3,249.02	73.4659	3,249.02	77.4794	3,249.02	73.1661	3,249.02	71.6158	3,249.02	66.8174	3,249.02	72.9513	3,249.02	74.5383	3,249.02	64.7439	3,249.02	73.2278	3,249.02	61.9453	3,249.02	74.5626	3,249.02	67.0522	3,249.02	70.8004	3,249.02	70.9393	3,249.02	66.0674	3,249.02	68.3123	3,249.02	70.7759
3,363.28	87.6802	3,363.28	86.7093	3,363.28	88.5521	3,363.28	86.6841	3,363.28	88.4794	3,363.28	87.2019	3,363.28	88.0937	3,363.28	87.493	3,363.28	86.5639	3,363.28	86.4694	3,363.28	84.131	3,363.28	84.5563	3,363.28	85.1264	3,363.28	79.0476	3,363.28	84.7949	3,363.28	81.0993	3,363.28	84.1647	3,363.28	76.676	3,363.28	80.3402	3,363.28	70.6565	3,363.28	77.6658	3,363.28	71.4479	3,363.28	71.5572	3,363.28	69.8486	3,363.28	68.738	3,363.28	71.9371	3,363.28	66.8641	3,363.28	71.4945	3,363.28	69.3368	3,363.28	74.6819	3,363.28	62.8721	3,363.28	64.5146	3,363.28	67.5791	3,363.28	64.3591	3,363.28	67.5781	3,363.28	69.1061
3,481.93	87.9765	3,481.93	88.0021	3,481.93	88.5722	3,481.93	88.3693	3,481.93	89.1535	3,481.93	88.3982	3,481.93	88.5978	3,481.93	87.6291	3,481.93	86.5209	3,481.93	86.7969	3,481.93	85.0446	3,481.93	83.3399	3,481.93	85.1023	3,481.93	81.2592	3,481.93	83.3035	3,481.93	80.6782	3,481.93	82.6647	3,481.93	73.7999	3,481.93	77.6593	3,481.93	73.9244	3,481.93	77.9785	3,481.93	70.1621	3,481.93	71.149	3,481.93	70.7002	3,481.93	63.7993	3,481.93	70.6794	3,481.93	59.8694	3,481.93	71.8503	3,481.93	67.4071	3,481.93	71.706	3,481.93	66.5901	3,481.93	67.0189	3,481.93	68.4742	3,481.93	65.6348	3,481.93	63.8924	3,481.93	67.3284
3,604.98	88.3016	3,604.98	88.3855	3,604.98	87.9767	3,604.98	89.0666	3,604.98	88.8643	3,604.98	89.0718	3,604.98	89.0824	3,604.98	87.4448	3,604.98	87.3636	3,604.98	85.9969	3,604.98	87.0548	3,604.98	82.0676	3,604.98	84.7713	3,604.98	81.5617	3,604.98	83.6482	3,604.98	75.3501	3,604.98	75.9594	3,604.98	76.3057	3,604.98	57.5768	3,604.98	72.5002	3,604.98	71.9067	3,604.98	70.8478	3,604.98	68.8984	3,604.98	67.9078	3,604.98	57.2477	3,604.98	68.9957	3,604.98	59.5801	3,604.98	72.0338	3,604.98	67.4282	3,604.98	73.1606	3,604.98	64.3253	3,604.98	70.1955	3,604.98	68.4771	3,604.98	68.6408	3,604.98	60.9871	3,604.98	66.3078
3,732.42	89.0161	3,732.42	88.5827	3,732.42	89.7879	3,732.42	89.7835	3,732.42	89.1987	3,732.42	89.5051	3,732.42	88.6272	3,732.42	88.2322	3,732.42	86.6696	3,732.42	84.5251	3,732.42	86.6816	3,732.42	83.0622	3,732.42	84.736	3,732.42	79.3791	3,732.42	81.7123	3,732.42	77.6484	3,732.42	75.7016	3,732.42	75.8851	3,732.42	76.919	3,732.42	72.7194	3,732.42	72.361	3,732.42	71.3378	3,732.42	74.7372	3,732.42	69.8984	3,732.42	68.2853	3,732.42	71.2241	3,732.42	67.0778	3,732.42	71.6856	3,732.42	63.9373	3,732.42	74.203	3,732.42	58.2434	3,732.42	69.4828	3,732.42	66.1742	3,732.42	69.3615	3,732.42	54.5786	3,732.42	62.5296
3,864.26	88.5964	3,864.26	89.2296	3,864.26	90.3228	3,864.26	89.6211	3,864.26	90.4477	3,864.26	89.4297	3,864.26	89.3145	3,864.26	87.5717	3,864.26	87.4981	3,864.26	85.2934	3,864.26	87.0165	3,864.26	84.1506	3,864.26	86.55	3,864.26	80.6102	3,864.26	81.7328	3,864.26	81.0704	3,864.26	77.6591	3,864.26	76.4956	3,864.26	77.0037	3,864.26	73.8419	3,864.26	78.0779	3,864.26	72.1953	3,864.26	76.5228	3,864.26	71.2718	3,864.26	60.2225	3,864.26	71.885	3,864.26	63.4794	3,864.26	71.8443	3,864.26	63.3837	3,864.26	72.3577	3,864.26	63.6442	3,864.26	70.7562	3,864.26	66.2539	3,864.26	69.7246	3,864.26	39.4419	3,864.26	55.3523
4,000.49	88.3706	4,000.49	88.0997	4,000.49	89.5364	4,000.49	89.7608	4,000.49	89.7661	4,000.49	88.4263	4,000.49	89.5545	4,000.49	86.3535	4,000.49	87.3714	4,000.49	85.9698	4,000.49	87.5361	4,000.49	82.1701	4,000.49	86.1913	4,000.49	82.9414	4,000.49	79.6706	4,000.49	81.1117	4,000.49	76.6852	4,000.49	74.5182	4,000.49	76.456	4,000.49	74.3284	4,000.49	79.3907	4,000.49	70.6355	4,000.49	75.9716	4,000.49	71.8913	4,000.49	67.7985	4,000.49	68.2585	4,000.49	63.603	4,000.49	71.581	4,000.49	60.2204	4,000.49	72.7606	4,000.49	67.1227	4,000.49	65.1485	4,000.49	66.4886	4,000.49	69.3473	4,000.49	57.3182	4,000.49	62.734
4,141.11	88.3773	4,141.11	88.6132	4,141.11	90.2098	4,141.11	88.926	4,141.11	89.6511	4,141.11	88.648	4,141.11	88.1314	4,141.11	87.4847	4,141.11	87.0648	4,141.11	85.6132	4,141.11	87.5324	4,141.11	83.3361	4,141.11	84.7842	4,141.11	81.7363	4,141.11	76.6875	4,141.11	76.1097	4,141.11	78.7881	4,141.11	77.4335	4,141.11	79.8943	4,141.11	73.9415	4,141.11	76.4074	4,141.11	69.1918	4,141.11	65.4944	4,141.11	70.9974	4,141.11	63.5684	4,141.11	70.2559	4,141.11	64.2484	4,141.11	71.7175	4,141.11	49.4758	4,141.11	72.1347	4,141.11	67.9742	4,141.11	63.7222	4,141.11	65.6107	4,141.11	70.9406	4,141.11	54.7107	4,141.11	60.7804
4,287.6	89.6478	4,287.6	89.6253	4,287.6	89.7028	4,287.6	88.9081	4,287.6	89.2692	4,287.6	88.022	4,287.6	86.9413	4,287.6	86.0145	4,287.6	87.3907	4,287.6	84.0067	4,287.6	88.6909	4,287.6	84.4597	4,287.6	82.307	4,287.6	80.2769	4,287.6	80.5668	4,287.6	81.2528	4,287.6	83.0713	4,287.6	78.0937	4,287.6	75.3998	4,287.6	68.3726	4,287.6	63.2141	4,287.6	70.8661	4,287.6	76.516	4,287.6	72.0612	4,287.6	71.4907	4,287.6	71.7524	4,287.6	68.4596	4,287.6	72.9753	4,287.6	60.6604	4,287.6	72.0357	4,287.6	70.2345	4,287.6	62.3202	4,287.6	67.2059	4,287.6	70.6828	4,287.6	59.8131	4,287.6	55.7409
4,438.48	89.2482	4,438.48	89.1814	4,438.48	90.1071	4,438.48	89.202	4,438.48	89.7006	4,438.48	86.9526	4,438.48	86.5708	4,438.48	84.8596	4,438.48	88.354	4,438.48	86.3468	4,438.48	87.688	4,438.48	82.4203	4,438.48	78.4178	4,438.48	82.3408	4,438.48	83.8355	4,438.48	79.1058	4,438.48	80.7414	4,438.48	71.8233	4,438.48	66.9505	4,438.48	73.7193	4,438.48	74.4161	4,438.48	68.6359	4,438.48	77.8892	4,438.48	66.7566	4,438.48	71.9655	4,438.48	67.428	4,438.48	71.1106	4,438.48	71.1946	4,438.48	44.3285	4,438.48	70.9814	4,438.48	71.5626	4,438.48	64.6984	4,438.48	67.2666	4,438.48	71.4444	4,438.48	64.7772	4,438.48	64.6628
4,595.21	88.1594	4,595.21	90.1566	4,595.21	88.7076	4,595.21	87.5953	4,595.21	89.4905	4,595.21	82.6933	4,595.21	86.6864	4,595.21	85.0835	4,595.21	88.1908	4,595.21	85.6361	4,595.21	83.8473	4,595.21	82.9876	4,595.21	84.0014	4,595.21	82.2918	4,595.21	85.539	4,595.21	76.616	4,595.21	79.353	4,595.21	76.9347	4,595.21	76.2579	4,595.21	67.6789	4,595.21	77.2295	4,595.21	69.1286	4,595.21	69.8717	4,595.21	61.4549	4,595.21	72.7107	4,595.21	72.0264	4,595.21	71.6219	4,595.21	72.4801	4,595.21	66.68	4,595.21	69.1252	4,595.21	67.6762	4,595.21	62.6926	4,595.21	66.4833	4,595.21	70.7241	4,595.21	67.7794	4,595.21	60.5068
4,756.35	88.3341	4,756.35	88.4481	4,756.35	87.4795	4,756.35	86.2676	4,756.35	88.2931	4,756.35	86.6622	4,756.35	87.4209	4,756.35	87.0206	4,756.35	87.9036	4,756.35	84.8481	4,756.35	81.1294	4,756.35	84.1871	4,756.35	86.7468	4,756.35	78.1078	4,756.35	83.9212	4,756.35	76.9782	4,756.35	77.9262	4,756.35	71.6738	4,756.35	76.2167	4,756.35	71.207	4,756.35	72.1988	4,756.35	64.2911	4,756.35	73.6501	4,756.35	63.1919	4,756.35	73.666	4,756.35	69.607	4,756.35	71.8642	4,756.35	64.5414	4,756.35	68.8874	4,756.35	70.955	4,756.35	54.8923	4,756.35	59.9646	4,756.35	68.3183	4,756.35	67.9813	4,756.35	65.5424	4,756.35	63.2289
4,924.8	89.4214	4,924.8	86.9749	4,924.8	87.6078	4,924.8	85.3096	4,924.8	88.4494	4,924.8	87.6379	4,924.8	87.4649	4,924.8	85.1082	4,924.8	87.2547	4,924.8	85.3685	4,924.8	83.1097	4,924.8	79.7846	4,924.8	87.5233	4,924.8	79.7834	4,924.8	81.1299	4,924.8	75.5081	4,924.8	78.7442	4,924.8	73.2171	4,924.8	73.8605	4,924.8	68.759	4,924.8	72.3121	4,924.8	65.8552	4,924.8	74.2043	4,924.8	68.7224	4,924.8	65.9094	4,924.8	66.128	4,924.8	72.1094	4,924.8	66.0632	4,924.8	56.48	4,924.8	66.9654	4,924.8	62.5707	4,924.8	64.2791	4,924.8	65.186	4,924.8	68.85	4,924.8	64.0042	4,924.8	53.5831
5,097.66	89.6079	5,097.66	88.3632	5,097.66	87.59	5,097.66	87.1815	5,097.66	88.9199	5,097.66	86.534	5,097.66	88.1897	5,097.66	86.2148	5,097.66	87.2622	5,097.66	85.061	5,097.66	86.253	5,097.66	81.7051	5,097.66	85.9577	5,097.66	79.0111	5,097.66	77.9096	5,097.66	71.8748	5,097.66	74.5549	5,097.66	70.7276	5,097.66	71.4927	5,097.66	59.4841	5,097.66	76.7184	5,097.66	65.5509	5,097.66	75.4725	5,097.66	66.0083	5,097.66	70.4754	5,097.66	64.988	5,097.66	70.1988	5,097.66	64.5826	5,097.66	68.0049	5,097.66	61.0484	5,097.66	69.0732	5,097.66	69.3703	5,097.66	62.0103	5,097.66	70.3257	5,097.66	58.5591	5,097.66	53.5147
5,277.83	90.0332	5,277.83	88.347	5,277.83	88.0733	5,277.83	87.9432	5,277.83	86.7368	5,277.83	87.4535	5,277.83	88.9488	5,277.83	87.6305	5,277.83	85.8523	5,277.83	83.3624	5,277.83	88.2094	5,277.83	80.7028	5,277.83	83.2351	5,277.83	76.5787	5,277.83	79.914	5,277.83	76.8881	5,277.83	75.0478	5,277.83	73.8089	5,277.83	73.1651	5,277.83	68.7856	5,277.83	75.1677	5,277.83	68.7169	5,277.83	76.5099	5,277.83	67.9537	5,277.83	72.3167	5,277.83	67.4374	5,277.83	65.0292	5,277.83	59.2246	5,277.83	67.2125	5,277.83	65.4804	5,277.83	68.896	5,277.83	66.8938	5,277.83	60.09	5,277.83	66.165	5,277.83	64.7165	5,277.83	54.2454
5,463.87	89.3972	5,463.87	87.9484	5,463.87	88.954	5,463.87	87.5967	5,463.87	85.353	5,463.87	88.1092	5,463.87	89.2245	5,463.87	85.6372	5,463.87	85.1272	5,463.87	83.5801	5,463.87	87.695	5,463.87	79.4811	5,463.87	79.8813	5,463.87	80.6498	5,463.87	79.2297	5,463.87	73.5082	5,463.87	73.1264	5,463.87	72.3312	5,463.87	73.7795	5,463.87	68.7187	5,463.87	69.7373	5,463.87	67.7475	5,463.87	70.7695	5,463.87	64.1089	5,463.87	69.3383	5,463.87	66.1378	5,463.87	66.4941	5,463.87	59.882	5,463.87	65.4953	5,463.87	66.4786	5,463.87	65.8202	5,463.87	69.4366	5,463.87	59.5786	5,463.87	68.0188	5,463.87	62.6812	5,463.87	64.1093
5,657.23	89.349	5,657.23	86.5802	5,657.23	89.2618	5,657.23	86.9317	5,657.23	86.2288	5,657.23	86.9481	5,657.23	88.4432	5,657.23	85.4437	5,657.23	85.5568	5,657.23	84.4755	5,657.23	85.9088	5,657.23	82.1746	5,657.23	81.2431	5,657.23	77.8579	5,657.23	78.7948	5,657.23	77.1049	5,657.23	75.2624	5,657.23	72.5686	5,657.23	70.9288	5,657.23	69.236	5,657.23	63.7443	5,657.23	65.07	5,657.23	71.8539	5,657.23	62.6985	5,657.23	70.2047	5,657.23	66.5087	5,657.23	46.4342	5,657.23	64.1039	5,657.23	62.6443	5,657.23	66.5554	5,657.23	63.3783	5,657.23	66.7679	5,657.23	53.2266	5,657.23	65.1992	5,657.23	59.9988	5,657.23	64.8036
5,856.45	88.3264	5,856.45	87.7547	5,856.45	88.8099	5,856.45	87.3439	5,856.45	87.6421	5,856.45	85.8839	5,856.45	86.5749	5,856.45	85.1189	5,856.45	84.9272	5,856.45	82.9908	5,856.45	83.7188	5,856.45	79.8305	5,856.45	80.0063	5,856.45	78.9495	5,856.45	78.458	5,856.45	75.8548	5,856.45	78.4827	5,856.45	72.0981	5,856.45	72.7557	5,856.45	68.9028	5,856.45	65.019	5,856.45	65.6887	5,856.45	72.1883	5,856.45	65.3262	5,856.45	67.4421	5,856.45	65.9421	5,856.45	66.314	5,856.45	65.093	5,856.45	48.0259	5,856.45	65.4061	5,856.45	47.9864	5,856.45	66.8343	5,856.45	60.2191	5,856.45	61.7841	5,856.45	62.6661	5,856.45	57.5574
6,062.99	88.4052	6,062.99	87.8723	6,062.99	89.3624	6,062.99	86.7709	6,062.99	87.5119	6,062.99	84.8138	6,062.99	83.9985	6,062.99	83.4197	6,062.99	85.5311	6,062.99	81.798	6,062.99	82.2474	6,062.99	80.543	6,062.99	80.8483	6,062.99	78.243	6,062.99	79.2111	6,062.99	73.569	6,062.99	79.6394	6,062.99	72.8781	6,062.99	69.6484	6,062.99	66.9328	6,062.99	62.6891	6,062.99	65.7496	6,062.99	71.6802	6,062.99	61.3696	6,062.99	69.3845	6,062.99	66.6976	6,062.99	65.8191	6,062.99	65.22	6,062.99	64.7779	6,062.99	63.6169	6,062.99	56.4873	6,062.99	67.0678	6,062.99	57.6724	6,062.99	61.8439	6,062.99	62.8243	6,062.99	52.3728
6,276.86	87.4174	6,276.86	87.4786	6,276.86	88.8588	6,276.86	86.2565	6,276.86	86.3044	6,276.86	84.0611	6,276.86	81.6238	6,276.86	82.3496	6,276.86	85.9951	6,276.86	82.0565	6,276.86	81.5237	6,276.86	80.1849	6,276.86	80.9918	6,276.86	77.8694	6,276.86	80.4013	6,276.86	75.0729	6,276.86	77.649	6,276.86	69.9091	6,276.86	67.0148	6,276.86	65.2639	6,276.86	65.8643	6,276.86	64.6004	6,276.86	72.2565	6,276.86	61.857	6,276.86	64.8249	6,276.86	65.9578	6,276.86	60.4313	6,276.86	65.3145	6,276.86	63.8034	6,276.86	60.8233	6,276.86	65.3109	6,276.86	64.9095	6,276.86	53.6597	6,276.86	61.7664	6,276.86	56.1191	6,276.86	57.1497
6,498.05	87.0941	6,498.05	87.4569	6,498.05	86.914	6,498.05	86.184	6,498.05	84.4458	6,498.05	83.6235	6,498.05	82.4404	6,498.05	82.3707	6,498.05	83.8607	6,498.05	81.4154	6,498.05	82.1105	6,498.05	79.4865	6,498.05	79.7308	6,498.05	77.1259	6,498.05	80.1648	6,498.05	70.5707	6,498.05	72.0315	6,498.05	71.1141	6,498.05	71.8562	6,498.05	64.0301	6,498.05	71.4938	6,498.05	60.87	6,498.05	71.3674	6,498.05	63.472	6,498.05	62.932	6,498.05	60.1565	6,498.05	64.2565	6,498.05	63.4848	6,498.05	60.4879	6,498.05	64.713	6,498.05	61.432	6,498.05	64.7217	6,498.05	54.0878	6,498.05	61.1634	6,498.05	56.602	6,498.05	57.7048
6,726.56	87.0138	6,726.56	87.8312	6,726.56	85.8334	6,726.56	86.6277	6,726.56	84.7515	6,726.56	82.7672	6,726.56	83.6299	6,726.56	82.4278	6,726.56	83.5744	6,726.56	81.7975	6,726.56	81.1364	6,726.56	79.4464	6,726.56	81.2462	6,726.56	76.8599	6,726.56	74.3492	6,726.56	74.4652	6,726.56	67.9905	6,726.56	69.7942	6,726.56	68.896	6,726.56	64.7231	6,726.56	68.331	6,726.56	56.7604	6,726.56	67.4099	6,726.56	60.543	6,726.56	66.0931	6,726.56	63.4195	6,726.56	57.4175	6,726.56	63.8603	6,726.56	53.1431	6,726.56	65.8852	6,726.56	65.152	6,726.56	64.3343	6,726.56	58.8294	6,726.56	59.5874	6,726.56	49.4376	6,726.56	55.1164
6,963.87	87.4606	6,963.87	87.5314	6,963.87	86.9342	6,963.87	86.2437	6,963.87	88.0334	6,963.87	83.9451	6,963.87	84.0024	6,963.87	83.5234	6,963.87	83.9398	6,963.87	81.8252	6,963.87	80.4169	6,963.87	79.4372	6,963.87	81.0202	6,963.87	76.2491	6,963.87	71.0541	6,963.87	70.7278	6,963.87	73.539	6,963.87	68.9841	6,963.87	35.3756	6,963.87	64.965	6,963.87	56.5175	6,963.87	62.1113	6,963.87	68.7055	6,963.87	60.8636	6,963.87	59.2922	6,963.87	59.2157	6,963.87	57.5298	6,963.87	60.6628	6,963.87	57.4028	6,963.87	65.6745	6,963.87	63.6135	6,963.87	63.4553	6,963.87	55.6632	6,963.87	55.516	6,963.87	47.0149	6,963.87	51.8101
7,209.96	87.3216	7,209.96	87.7606	7,209.96	88.2459	7,209.96	86.5588	7,209.96	89.0316	7,209.96	83.5111	7,209.96	83.9342	7,209.96	83.0796	7,209.96	82.9188	7,209.96	81.6015	7,209.96	82.8394	7,209.96	78.6484	7,209.96	78.8847	7,209.96	76.4791	7,209.96	77.0301	7,209.96	73.8474	7,209.96	75.4936	7,209.96	70.3639	7,209.96	69.9902	7,209.96	64.5393	7,209.96	64.7784	7,209.96	59.8097	7,209.96	64.3659	7,209.96	57.5887	7,209.96	64.2116	7,209.96	64.1933	7,209.96	58.7777	7,209.96	61.5287	7,209.96	50.7672	7,209.96	65.0491	7,209.96	57.348	7,209.96	63.7916	7,209.96	46.816	7,209.96	55.5518	7,209.96	46.6745	7,209.96	59.601
7,464.84	87.0392	7,464.84	87.3492	7,464.84	88.4723	7,464.84	86.2057	7,464.84	89.4613	7,464.84	84.3542	7,464.84	84.8119	7,464.84	83.0811	7,464.84	82.2796	7,464.84	80.395	7,464.84	83.6947	7,464.84	78.5796	7,464.84	75.2977	7,464.84	75.8771	7,464.84	80.0915	7,464.84	68.3523	7,464.84	74.721	7,464.84	68.7478	7,464.84	72.7637	7,464.84	61.91	7,464.84	50.1054	7,464.84	61.0965	7,464.84	66.2842	7,464.84	57.8182	7,464.84	63.4431	7,464.84	59.9431	7,464.84	55.7372	7,464.84	63.6044	7,464.84	51.9385	7,464.84	64.4305	7,464.84	53.7628	7,464.84	63.833	7,464.84	57.7351	7,464.84	58.3507	7,464.84	45.8888	7,464.84	56.0281
7,727.05	87.6574	7,727.05	87.3923	7,727.05	86.0064	7,727.05	86.1411	7,727.05	87.5016	7,727.05	84.1132	7,727.05	84.7366	7,727.05	80.9962	7,727.05	81.9781	7,727.05	80.69	7,727.05	83.2294	7,727.05	77.5054	7,727.05	77.5102	7,727.05	74.7749	7,727.05	79.5451	7,727.05	71.9977	7,727.05	70.7676	7,727.05	65.5551	7,727.05	66.757	7,727.05	65.1865	7,727.05	59.4769	7,727.05	62.2384	7,727.05	69.0106	7,727.05	60.0403	7,727.05	64.8783	7,727.05	51.8547	7,727.05	57.2618	7,727.05	63.5254	7,727.05	53.0272	7,727.05	60.4121	7,727.05	54.5349	7,727.05	60.7031	7,727.05	57.396	7,727.05	58.9505	7,727.05	50.3258	7,727.05	56.4057
7,999.51	88.4217	7,999.51	87.7371	7,999.51	85.4308	7,999.51	86.2455	7,999.51	83.3357	7,999.51	83.6612	7,999.51	84.034	7,999.51	81.6732	7,999.51	81.8217	7,999.51	79.9549	7,999.51	80.3525	7,999.51	78.073	7,999.51	80.2078	7,999.51	73.9021	7,999.51	71.5584	7,999.51	71.0698	7,999.51	68.9837	7,999.51	65.4516	7,999.51	48.7494	7,999.51	64.0694	7,999.51	58.7573	7,999.51	51.8269	7,999.51	67.7461	7,999.51	60.4649	7,999.51	62.8852	7,999.51	53.8457	7,999.51	56.1672	7,999.51	61.3416	7,999.51	57.2237	7,999.51	56.4338	7,999.51	54.9218	7,999.51	57.7222	7,999.51	52.9716	7,999.51	57.2596	7,999.51	49.5241	7,999.51	57.0944
8,282.23	88.8451	8,282.23	87.3125	8,282.23	88.0758	8,282.23	86.6678	8,282.23	85.4403	8,282.23	84.4396	8,282.23	84.6629	8,282.23	81.0772	8,282.23	82.1759	8,282.23	79.7285	8,282.23	78.8748	8,282.23	76.9573	8,282.23	79.4208	8,282.23	73.3639	8,282.23	68.9254	8,282.23	69.5054	8,282.23	71.7284	8,282.23	63.5924	8,282.23	59.8391	8,282.23	64.5614	8,282.23	65.8494	8,282.23	49.7107	8,282.23	63.7603	8,282.23	51.1477	8,282.23	64.2114	8,282.23	56.8481	8,282.23	49.8929	8,282.23	57.7449	8,282.23	50.1063	8,282.23	57.821	8,282.23	57.0595	8,282.23	58.3629	8,282.23	54.9597	8,282.23	44.6835	8,282.23	47.6226	8,282.23	52.7708
8,573.73	89.1958	8,573.73	88.0613	8,573.73	90.0243	8,573.73	87.1782	8,573.73	87.6765	8,573.73	84.0989	8,573.73	85.4161	8,573.73	81.2621	8,573.73	82.5628	8,573.73	77.9481	8,573.73	80.2553	8,573.73	75.5439	8,573.73	76.171	8,573.73	69.2238	8,573.73	72.4828	8,573.73	65.49	8,573.73	67.994	8,573.73	59.76	8,573.73	59.7531	8,573.73	52.4821	8,573.73	67.7446	8,573.73	49.3692	8,573.73	65.2465	8,573.73	50.228	8,573.73	65.4293	8,573.73	57.5736	8,573.73	56.2971	8,573.73	54.334	8,573.73	47.2749	8,573.73	58.2825	8,573.73	52.7617	8,573.73	54.8629	8,573.73	55.0448	8,573.73	45.8013	8,573.73	48.1853	8,573.73	47.3124
8,876.95	89.5095	8,876.95	88.3802	8,876.95	89.6421	8,876.95	87.4667	8,876.95	89.2538	8,876.95	84.2196	8,876.95	85.4282	8,876.95	80.7848	8,876.95	82.9683	8,876.95	77.8053	8,876.95	79.4844	8,876.95	74.149	8,876.95	71.7363	8,876.95	68.2198	8,876.95	71.7943	8,876.95	63.1055	8,876.95	56.9429	8,876.95	62.9338	8,876.95	51.9828	8,876.95	54.9448	8,876.95	59.7244	8,876.95	46.9718	8,876.95	67.0302	8,876.95	41.1019	8,876.95	64.8363	8,876.95	58.3671	8,876.95	56.8776	8,876.95	56.1723	8,876.95	43.0439	8,876.95	58.2865	8,876.95	36.1463	8,876.95	60.7574	8,876.95	47.8632	8,876.95	52.2459	8,876.95	47.6072	8,876.95	52.9509
9,188.96	89.2253	9,188.96	88.6821	9,188.96	88.5814	9,188.96	87.0188	9,188.96	89.019	9,188.96	83.8845	9,188.96	85.2983	9,188.96	80.1815	9,188.96	81.7159	9,188.96	77.1053	9,188.96	79.0686	9,188.96	73.6004	9,188.96	72.0588	9,188.96	66.81	9,188.96	69.2725	9,188.96	64.1316	9,188.96	62.8483	9,188.96	57.7672	9,188.96	47.0075	9,188.96	59.5565	9,188.96	61.9977	9,188.96	51.7009	9,188.96	67.7036	9,188.96	46.3075	9,188.96	65.7973	9,188.96	57.6946	9,188.96	56.3432	9,188.96	54.8263	9,188.96	44.7254	9,188.96	57.6905	9,188.96	38.9966	9,188.96	57.9516	9,188.96	48.5878	9,188.96	49.1865	9,188.96	43.5646	9,188.96	51.8007
9,514.16	89.388	9,514.16	88.6892	9,514.16	88.8002	9,514.16	87.0816	9,514.16	87.9554	9,514.16	83.6359	9,514.16	84.8321	9,514.16	79.7747	9,514.16	79.8122	9,514.16	75.9093	9,514.16	75.3181	9,514.16	70.9425	9,514.16	70.902	9,514.16	66.7661	9,514.16	63.7435	9,514.16	63.8157	9,514.16	61.8239	9,514.16	59.3779	9,514.16	59.217	9,514.16	59.939	9,514.16	62.3932	9,514.16	47.5551	9,514.16	67.5462	9,514.16	45.2496	9,514.16	66.9115	9,514.16	52.7853	9,514.16	58.1122	9,514.16	55.6619	9,514.16	49.7972	9,514.16	57.7934	9,514.16	39.5792	9,514.16	58.7728	9,514.16	55.0009	9,514.16	52.2605	9,514.16	49.0861	9,514.16	55.9821
9,849.61	90.0697	9,849.61	88.8021	9,849.61	89.5071	9,849.61	87.0694	9,849.61	87.0186	9,849.61	83.1013	9,849.61	84.4528	9,849.61	79.0258	9,849.61	78.8084	9,849.61	74.3634	9,849.61	76.1717	9,849.61	70.19	9,849.61	69.8255	9,849.61	67.0359	9,849.61	64.4091	9,849.61	64.7429	9,849.61	65.7476	9,849.61	62.4517	9,849.61	61.1432	9,849.61	58.9587	9,849.61	63.9863	9,849.61	47.1435	9,849.61	68.7954	9,849.61	51.3311	9,849.61	69.1705	9,849.61	56.7014	9,849.61	62.3979	9,849.61	56.6547	9,849.61	45.4282	9,849.61	57.8302	9,849.61	39.2017	9,849.61	58.9959	9,849.61	53.2699	9,849.61	52.7761	9,849.61	44.2066	9,849.61	54.749
10,196.8	90.1773	10,196.8	88.9555	10,196.8	89.4698	10,196.8	86.9108	10,196.8	86.454	10,196.8	82.3641	10,196.8	83.9335	10,196.8	77.7375	10,196.8	77.1369	10,196.8	72.3743	10,196.8	73.7393	10,196.8	72.0611	10,196.8	67.5791	10,196.8	69.6908	10,196.8	69.2962	10,196.8	65.728	10,196.8	65.5378	10,196.8	63.0536	10,196.8	65.4714	10,196.8	58.296	10,196.8	65.4828	10,196.8	54.3113	10,196.8	70.5289	10,196.8	50.4465	10,196.8	70.3625	10,196.8	51.9895	10,196.8	61.5509	10,196.8	54.8874	10,196.8	52.2264	10,196.8	54.3067	10,196.8	44.3637	10,196.8	56.1066	10,196.8	52.4742	10,196.8	49.9457	10,196.8	49.846	10,196.8	54.5034
10,555.7	90.1694	10,555.7	88.8876	10,555.7	89.4182	10,555.7	86.5529	10,555.7	86.7054	10,555.7	81.3341	10,555.7	83.3633	10,555.7	76.8054	10,555.7	77.7655	10,555.7	70.7905	10,555.7	71.5627	10,555.7	73.5803	10,555.7	69.9039	10,555.7	71.5277	10,555.7	72.6173	10,555.7	68.1751	10,555.7	70.1121	10,555.7	63.527	10,555.7	67.0069	10,555.7	59.3247	10,555.7	66.8336	10,555.7	30.7837	10,555.7	71.2149	10,555.7	51.6647	10,555.7	70.9509	10,555.7	53.6757	10,555.7	61.702	10,555.7	56.1086	10,555.7	53.4765	10,555.7	56.6131	10,555.7	41.1967	10,555.7	59.7507	10,555.7	55.1558	10,555.7	50.1965	10,555.7	53.309	10,555.7	52.2123
10,927.7	90.2214	10,927.7	88.7215	10,927.7	89.3702	10,927.7	85.9729	10,927.7	86.8064	10,927.7	81.0007	10,927.7	81.9556	10,927.7	75.1977	10,927.7	77.6357	10,927.7	73.4318	10,927.7	72.2872	10,927.7	75.5473	10,927.7	74.2445	10,927.7	72.5129	10,927.7	73.7012	10,927.7	70.2057	10,927.7	69.7766	10,927.7	64.8044	10,927.7	69.5096	10,927.7	62.853	10,927.7	67.6109	10,927.7	46.0153	10,927.7	73.356	10,927.7	52.9296	10,927.7	72.3754	10,927.7	52.6689	10,927.7	63.4286	10,927.7	54.1036	10,927.7	51.8249	10,927.7	53.6777	10,927.7	52.1947	10,927.7	60.4376	10,927.7	57.0683	10,927.7	54.3406	10,927.7	58.907	10,927.7	54.7155
11,313	89.7033	11,313	88.3723	11,313	89.3602	11,313	85.3157	11,313	86.6906	11,313	80.4123	11,313	81.0341	11,313	74.923	11,313	75.3932	11,313	75.9179	11,313	71.1255	11,313	77.2331	11,313	76.4107	11,313	74.4117	11,313	71.9801	11,313	71.0133	11,313	74.6249	11,313	65.7673	11,313	72.9791	11,313	64.6465	11,313	68.4454	11,313	50.8246	11,313	74.8801	11,313	53.5975	11,313	73.701	11,313	54.7672	11,313	65.2026	11,313	52.4451	11,313	47.5564	11,313	57.1182	11,313	56.8546	11,313	59.3735	11,313	48.7636	11,313	52.1873	11,313	31.3722	11,313	54.4113
11,712.9	88.4407	11,712.9	87.7632	11,712.9	89.0731	11,712.9	84.5466	11,712.9	86.0165	11,712.9	79.7627	11,712.9	80.6608	11,712.9	77.1589	11,712.9	74.9471	11,712.9	76.8295	11,712.9	74.5133	11,712.9	78.7004	11,712.9	76.6275	11,712.9	76.0943	11,712.9	77.6313	11,712.9	71.9106	11,712.9	76.3292	11,712.9	67.7162	11,712.9	74.3147	11,712.9	64.291	11,712.9	70.6598	11,712.9	56.1033	11,712.9	75.3719	11,712.9	47.5643	11,712.9	74.8437	11,712.9	56.7281	11,712.9	64.571	11,712.9	52.838	11,712.9	61.4127	11,712.9	59.2653	11,712.9	40.4209	11,712.9	61.9356	11,712.9	61.4217	11,712.9	61.7257	11,712.9	58.5359	11,712.9	50.7262
12,126	87.9199	12,126	87.1373	12,126	87.8894	12,126	84.0068	12,126	84.3592	12,126	78.9169	12,126	81.241	12,126	78.9865	12,126	77.5338	12,126	77.8546	12,126	76.511	12,126	78.7737	12,126	74.9009	12,126	76.3801	12,126	78.8887	12,126	72.3209	12,126	73.0891	12,126	67.555	12,126	73.9265	12,126	64.8968	12,126	69.815	12,126	57.5045	12,126	75.2839	12,126	44.1438	12,126	74.3477	12,126	50.8857	12,126	65.3691	12,126	51.7273	12,126	56.5544	12,126	57.4894	12,126	51.7914	12,126	60.0517	12,126	57.4703	12,126	52.1092	12,126	51.7474	12,126	57.3174
12,553.7	87.3825	12,553.7	85.9189	12,553.7	87.0908	12,553.7	84.3853	12,553.7	83.4538	12,553.7	79.3963	12,553.7	82.1352	12,553.7	79.7371	12,553.7	78.4556	12,553.7	77.8801	12,553.7	77.9099	12,553.7	79.0053	12,553.7	77.2427	12,553.7	75.8491	12,553.7	77.1972	12,553.7	72.3617	12,553.7	75.9251	12,553.7	66.3575	12,553.7	73.5152	12,553.7	62.4417	12,553.7	72.7106	12,553.7	60.9816	12,553.7	76.3612	12,553.7	46.1407	12,553.7	75.0032	12,553.7	47.342	12,553.7	65.036	12,553.7	52.6509	12,553.7	53.0354	12,553.7	53.9424	12,553.7	56.4695	12,553.7	60.365	12,553.7	60.0798	12,553.7	62.4268	12,553.7	55.5272	12,553.7	55.2688
12,996.1	87.1407	12,996.1	86.5771	12,996.1	86.8193	12,996.1	84.47	12,996.1	85.384	12,996.1	81.3106	12,996.1	80.4563	12,996.1	80.1084	12,996.1	81.4573	12,996.1	78.4636	12,996.1	77.9724	12,996.1	80.0098	12,996.1	78.3921	12,996.1	76.3539	12,996.1	77.4152	12,996.1	71.8376	12,996.1	74.8348	12,996.1	65.0153	12,996.1	75.5997	12,996.1	61.013	12,996.1	75.2033	12,996.1	61.2994	12,996.1	77.7503	12,996.1	46.7546	12,996.1	76.4045	12,996.1	51.8403	12,996.1	67.6167	12,996.1	54.8307	12,996.1	60.3548	12,996.1	51.4083	12,996.1	54.053	12,996.1	58.9895	12,996.1	59.3697	12,996.1	56.5588	12,996.1	58.6638	12,996.1	57.6377
13,454.6	87.3175	13,454.6	85.559	13,454.6	86.3622	13,454.6	84.4511	13,454.6	84.11	13,454.6	83.0587	13,454.6	80.3545	13,454.6	81.4036	13,454.6	82.5172	13,454.6	80.4633	13,454.6	81.9024	13,454.6	80.2925	13,454.6	77.4234	13,454.6	76.0304	13,454.6	79.5761	13,454.6	72.2436	13,454.6	76.3581	13,454.6	67.78	13,454.6	75.9254	13,454.6	58.7933	13,454.6	75.8156	13,454.6	64.0587	13,454.6	77.4478	13,454.6	50.0809	13,454.6	76.4129	13,454.6	53.7456	13,454.6	67.9555	13,454.6	54.666	13,454.6	59.2654	13,454.6	53.6223	13,454.6	54.1353	13,454.6	51.4741	13,454.6	52.2477	13,454.6	56.936	13,454.6	54.974	13,454.6	49.9411
13,929.2	87.4843	13,929.2	87.1541	13,929.2	86.5364	13,929.2	86.6106	13,929.2	85.9125	13,929.2	84.6692	13,929.2	85.355	13,929.2	83.2567	13,929.2	82.877	13,929.2	81.7997	13,929.2	81.8369	13,929.2	81.7161	13,929.2	79.4511	13,929.2	77.0416	13,929.2	79.1503	13,929.2	73.2472	13,929.2	76.0645	13,929.2	66.6729	13,929.2	77.6635	13,929.2	59.2331	13,929.2	76.1915	13,929.2	62.6233	13,929.2	79.1	13,929.2	56.146	13,929.2	77.4617	13,929.2	59.8969	13,929.2	68.2522	13,929.2	56.2312	13,929.2	58.2441	13,929.2	57.3633	13,929.2	48.2058	13,929.2	61.0707	13,929.2	54.6331	13,929.2	63.2352	13,929.2	50.2487	13,929.2	47.646
14,419.9	88.4819	14,419.9	88.9928	14,419.9	89.1969	14,419.9	88.2403	14,419.9	90.6351	14,419.9	87.0084	14,419.9	85.3119	14,419.9	85.5328	14,419.9	86.5607	14,419.9	83.9398	14,419.9	84.1577	14,419.9	83.4584	14,419.9	82.7385	14,419.9	78.6416	14,419.9	78.6609	14,419.9	74.0765	14,419.9	79.2505	14,419.9	69.5121	14,419.9	79.6504	14,419.9	58.6416	14,419.9	77.8469	14,419.9	65.2616	14,419.9	80.5781	14,419.9	50.919	14,419.9	79.7735	14,419.9	55.1404	14,419.9	71.1883	14,419.9	55.4456	14,419.9	56.53	14,419.9	56.9316	14,419.9	46.959	14,419.9	60.2393	14,419.9	47.685	14,419.9	62.1552	14,419.9	52.4543	14,419.9	52.3864
14,928.2	90.3044	14,928.2	90.7812	14,928.2	90.6083	14,928.2	91.0153	14,928.2	91.2034	14,928.2	89.2271	14,928.2	89.721	14,928.2	88.2845	14,928.2	89.1875	14,928.2	85.7137	14,928.2	86.0428	14,928.2	84.3707	14,928.2	82.8403	14,928.2	79.6264	14,928.2	81.7783	14,928.2	74.8422	14,928.2	80.3203	14,928.2	69.3322	14,928.2	81.0937	14,928.2	60.8715	14,928.2	79.7385	14,928.2	67.581	14,928.2	82.7133	14,928.2	51.5448	14,928.2	81.7546	14,928.2	58.0387	14,928.2	72.6423	14,928.2	59.5854	14,928.2	65.1737	14,928.2	50.5828	14,928.2	50.5134	14,928.2	56.787	14,928.2	53.4306	14,928.2	59.4463	14,928.2	33.5093	14,928.2	47.4855
15,455.6	92.474	15,455.6	91.6085	15,455.6	91.9579	15,455.6	92.1957	15,455.6	91.8109	15,455.6	89.9023	15,455.6	89.5924	15,455.6	88.7619	15,455.6	86.8699	15,455.6	85.3872	15,455.6	86.8432	15,455.6	83.7527	15,455.6	82.1051	15,455.6	78.3273	15,455.6	79.59	15,455.6	74.2567	15,455.6	78.084	15,455.6	68.4326	15,455.6	81.5709	15,455.6	62.9421	15,455.6	79.8628	15,455.6	66.0664	15,455.6	82.9912	15,455.6	56.6007	15,455.6	82.3358	15,455.6	57.9559	15,455.6	73.3949	15,455.6	53.1546	15,455.6	62.3008	15,455.6	53.7336	15,455.6	49.6363	15,455.6	60.2595	15,455.6	52.0831	15,455.6	59.3521	15,455.6	53.6521	15,455.6	40.2936
16,000.5	91.046	16,000.5	90.6992	16,000.5	90.8508	16,000.5	90.0965	16,000.5	90.1695	16,000.5	88.136	16,000.5	89.3473	16,000.5	86.9587	16,000.5	86.9779	16,000.5	82.1819	16,000.5	85.405	16,000.5	81.2357	16,000.5	79.2359	16,000.5	75.1181	16,000.5	78.173	16,000.5	70.5753	16,000.5	75.702	16,000.5	64.7997	16,000.5	79.513	16,000.5	58.7584	16,000.5	77.4856	16,000.5	63.6266	16,000.5	80.8155	16,000.5	54.3118	16,000.5	80.4	16,000.5	48.136	16,000.5	71.3408	16,000.5	50.2618	16,000.5	60.4676	16,000.5	53.9238	16,000.5	52.8141	16,000.5	60.399	16,000.5	49.9178	16,000.5	58.2928	16,000.5	51.5729	16,000.5	45.7304
16,564.5	89.1324	16,564.5	88.3078	16,564.5	88.5016	16,564.5	87.641	16,564.5	88.4474	16,564.5	85.2245	16,564.5	86.3296	16,564.5	83.0371	16,564.5	82.451	16,564.5	78.3448	16,564.5	79.9317	16,564.5	76.4607	16,564.5	74.9109	16,564.5	71.9411	16,564.5	73.1663	16,564.5	66.8128	16,564.5	70.7578	16,564.5	61.999	16,564.5	75.881	16,564.5	56.6246	16,564.5	74.2947	16,564.5	55.4434	16,564.5	77.5544	16,564.5	55.5621	16,564.5	77.326	16,564.5	51.8024	16,564.5	68.7339	16,564.5	45.0997	16,564.5	58.7305	16,564.5	52.7372	16,564.5	50.0822	16,564.5	56.8773	16,564.5	51.6321	16,564.5	56.2253	16,564.5	56.2043	16,564.5	48.9348
17,148.9	87.6703	17,148.9	86.4942	17,148.9	87.115	17,148.9	85.0636	17,148.9	85.4169	17,148.9	82.4029	17,148.9	83.2547	17,148.9	79.0678	17,148.9	80.0924	17,148.9	74.1444	17,148.9	76.3149	17,148.9	72.5798	17,148.9	70.5269	17,148.9	68.2897	17,148.9	69.2651	17,148.9	61.139	17,148.9	67.2988	17,148.9	56.4198	17,148.9	72.5559	17,148.9	49.8388	17,148.9	71.0329	17,148.9	45.2859	17,148.9	73.7303	17,148.9	51.069	17,148.9	73.7045	17,148.9	48.1642	17,148.9	65.2558	17,148.9	40.0618	17,148.9	48.751	17,148.9	47.2876	17,148.9	29.9356	17,148.9	50.6409	17,148.9	53.855	17,148.9	54.7978	17,148.9	52.6423	17,148.9	51.5237
17,752.4	86.1029	17,752.4	85.1668	17,752.4	85.4382	17,752.4	82.9291	17,752.4	83.9512	17,752.4	80.0321	17,752.4	80.0023	17,752.4	75.4972	17,752.4	76.8723	17,752.4	69.3658	17,752.4	72.0717	17,752.4	69.1515	17,752.4	67.5118	17,752.4	63.5763	17,752.4	65.4078	17,752.4	55.5954	17,752.4	65.4431	17,752.4	54.1356	17,752.4	69.7859	17,752.4	43.7641	17,752.4	67.9806	17,752.4	42.1282	17,752.4	70.9805	17,752.4	48.7485	17,752.4	71.1898	17,752.4	38.7807	17,752.4	62.627	17,752.4	36.1114	17,752.4	43.4989	17,752.4	47.215	17,752.4	34.2026	17,752.4	44.3578	17,752.4	40.5558	17,752.4	47.0903	17,752.4	49.3672	17,752.4	42.2278
18,379.4	85.113	18,379.4	83.7725	18,379.4	84.5187	18,379.4	80.9458	18,379.4	82.015	18,379.4	77.3762	18,379.4	78.0565	18,379.4	72.1786	18,379.4	72.9723	18,379.4	66.1461	18,379.4	69.7109	18,379.4	65.7039	18,379.4	67.5753	18,379.4	61.3824	18,379.4	64.386	18,379.4	55.0746	18,379.4	64.4936	18,379.4	52.4145	18,379.4	68.4909	18,379.4	41.1102	18,379.4	66.1813	18,379.4	39.3393	18,379.4	69.1556	18,379.4	48.5675	18,379.4	69.0909	18,379.4	31.5051	18,379.4	60.4705	18,379.4	32.8806	18,379.4	46.0069	18,379.4	45.883	18,379.4	36.1114	18,379.4	27.8286	18,379.4	44.2255	18,379.4	41.1329	18,379.4	40.6506	18,379.4	37.6582
19,026.9	83.8692	19,026.9	82.2859	19,026.9	82.7443	19,026.9	79.2875	19,026.9	79.0461	19,026.9	74.0247	19,026.9	76.2198	19,026.9	69.9933	19,026.9	72.1576	19,026.9	64.5923	19,026.9	68.4749	19,026.9	64.367	19,026.9	68.4509	19,026.9	62.523	19,026.9	64.6733	19,026.9	57.2084	19,026.9	65.5389	19,026.9	52.5063	19,026.9	68.6649	19,026.9	41.4847	19,026.9	65.9166	19,026.9	42.6354	19,026.9	68.3739	19,026.9	44.8131	19,026.9	67.9508	19,026.9	37.2915	19,026.9	60.6216	19,026.9	45.1773	19,026.9	46.9356	19,026.9	48.0411	19,026.9	36.8491	19,026.9	42.703	19,026.9	46.2248	19,026.9	48.2948	19,026.9	46.7966	19,026.9	44.3572
19,697.8	81.6763	19,697.8	80.184	19,697.8	81.0679	19,697.8	76.0749	19,697.8	78.4616	19,697.8	68.665	19,697.8	72.5828	19,697.8	67.9655	19,697.8	71.2376	19,697.8	64.6565	19,697.8	71.3595	19,697.8	66.4563	19,697.8	68.5026	19,697.8	62.8144	19,697.8	65.707	19,697.8	57.3302	19,697.8	65.8951	19,697.8	51.7775	19,697.8	69.9705	19,697.8	47.1256	19,697.8	64.7953	19,697.8	44.5939	19,697.8	67.2685	19,697.8	41.5622	19,697.8	67.7386	19,697.8	41.6254	19,697.8	60.7156	19,697.8	43.567	19,697.8	48.6498	19,697.8	44.1285	19,697.8	35.0804	19,697.8	47.1777	19,697.8	41.7595	19,697.8	43.727	19,697.8	46.4047	19,697.8	40.9635
19,999.5	81.1818	19,999.5	79.1637	19,999.5	79.586	19,999.5	74.4872	19,999.5	77.3709	19,999.5	66.5438	19,999.5	70.1789	19,999.5	68.9158	19,999.5	71.0325	19,999.5	66.9217	19,999.5	70.9311	19,999.5	67.8553	19,999.5	69.1233	19,999.5	64.4491	19,999.5	65.843	19,999.5	56.7922	19,999.5	65.9957	19,999.5	48.3689	19,999.5	69.6195	19,999.5	49.9304	19,999.5	64.5064	19,999.5	40.0497	19,999.5	67.4414	19,999.5	46.3229	19,999.5	68.2285	19,999.5	43.9425	19,999.5	63.0223	19,999.5	48.9018	19,999.5	52.0538	19,999.5	49.7693	19,999.5	46.1876	19,999.5	53.6711	19,999.5	44.8373	19,999.5	43.6214	19,999.5	48.4251	19,999.5	38.5065
