"SPL Horizontal"
"On-Axis"		"10°"		"-10°"		"20°"		"-20°"		"30°"		"-30°"		"40°"		"-40°"		"50°"		"-50°"		"60°"		"-60°"		"70°"		"-70°"		"80°"		"-80°"		"90°"		"-90°"		"100°"		"-100°"		"110°"		"-110°"		"120°"		"-120°"		"130°"		"-130°"		"140°"		"-140°"		"150°"		"-150°"		"160°"		"-160°"		"170°"		"-170°"		"180°"
"Frequency [Hz]"	"Sound Pessure Level [dB]  / [2.83V 1m] "	"Frequency [Hz]"	"Sound Pessure Level [dB]  / [2.83V 1m] "	"Frequency [Hz]"	"Sound Pessure Level [dB]  / [2.83V 1m] "	"Frequency [Hz]"	"Sound Pessure Level [dB]  / [2.83V 1m] "	"Frequency [Hz]"	"Sound Pessure Level [dB]  / [2.83V 1m] "	"Frequency [Hz]"	"Sound Pessure Level [dB]  / [2.83V 1m] "	"Frequency [Hz]"	"Sound Pessure Level [dB]  / [2.83V 1m] "	"Frequency [Hz]"	"Sound Pessure Level [dB]  / [2.83V 1m] "	"Frequency [Hz]"	"Sound Pessure Level [dB]  / [2.83V 1m] "	"Frequency [Hz]"	"Sound Pessure Level [dB]  / [2.83V 1m] "	"Frequency [Hz]"	"Sound Pessure Level [dB]  / [2.83V 1m] "	"Frequency [Hz]"	"Sound Pessure Level [dB]  / [2.83V 1m] "	"Frequency [Hz]"	"Sound Pessure Level [dB]  / [2.83V 1m] "	"Frequency [Hz]"	"Sound Pessure Level [dB]  / [2.83V 1m] "	"Frequency [Hz]"	"Sound Pessure Level [dB]  / [2.83V 1m] "	"Frequency [Hz]"	"Sound Pessure Level [dB]  / [2.83V 1m] "	"Frequency [Hz]"	"Sound Pessure Level [dB]  / [2.83V 1m] "	"Frequency [Hz]"	"Sound Pessure Level [dB]  / [2.83V 1m] "	"Frequency [Hz]"	"Sound Pessure Level [dB]  / [2.83V 1m] "	"Frequency [Hz]"	"Sound Pessure Level [dB]  / [2.83V 1m] "	"Frequency [Hz]"	"Sound Pessure Level [dB]  / [2.83V 1m] "	"Frequency [Hz]"	"Sound Pessure Level [dB]  / [2.83V 1m] "	"Frequency [Hz]"	"Sound Pessure Level [dB]  / [2.83V 1m] "	"Frequency [Hz]"	"Sound Pessure Level [dB]  / [2.83V 1m] "	"Frequency [Hz]"	"Sound Pessure Level [dB]  / [2.83V 1m] "	"Frequency [Hz]"	"Sound Pessure Level [dB]  / [2.83V 1m] "	"Frequency [Hz]"	"Sound Pessure Level [dB]  / [2.83V 1m] "	"Frequency [Hz]"	"Sound Pessure Level [dB]  / [2.83V 1m] "	"Frequency [Hz]"	"Sound Pessure Level [dB]  / [2.83V 1m] "	"Frequency [Hz]"	"Sound Pessure Level [dB]  / [2.83V 1m] "	"Frequency [Hz]"	"Sound Pessure Level [dB]  / [2.83V 1m] "	"Frequency [Hz]"	"Sound Pessure Level [dB]  / [2.83V 1m] "	"Frequency [Hz]"	"Sound Pessure Level [dB]  / [2.83V 1m] "	"Frequency [Hz]"	"Sound Pessure Level [dB]  / [2.83V 1m] "	"Frequency [Hz]"	"Sound Pessure Level [dB]  / [2.83V 1m] "	"Frequency [Hz]"	"Sound Pessure Level [dB]  / [2.83V 1m] "
20.5078	61.8707	20.5078	61.7726	20.5078	61.9322	20.5078	61.6471	20.5078	61.9528	20.5078	61.5055	20.5078	61.9333	20.5078	61.3587	20.5078	61.8792	20.5078	61.2152	20.5078	61.7998	20.5078	61.0796	20.5078	61.7054	20.5078	60.9528	20.5078	61.6049	20.5078	60.8334	20.5078	61.5032	20.5078	60.718	20.5078	61.3991	20.5078	60.6024	20.5078	61.2845	20.5078	60.4829	20.5078	61.1475	20.5078	60.3585	20.5078	60.9781	20.5078	60.2329	20.5078	60.7754	20.5078	60.1149	20.5078	60.5522	20.5078	60.0159	20.5078	60.3335	20.5078	59.9471	20.5078	60.1471	20.5078	59.9182	20.5078	60.0128	20.5078	59.9376
21.9727	64.1987	21.9727	64.0946	21.9727	64.2879	21.9727	63.9814	21.9727	64.3564	21.9727	63.8646	21.9727	64.3997	21.9727	63.7481	21.9727	64.4152	21.9727	63.6345	21.9727	64.4025	21.9727	63.5247	21.9727	64.3631	21.9727	63.418	21.9727	64.2995	21.9727	63.3141	21.9727	64.2135	21.9727	63.2135	21.9727	64.1066	21.9727	63.1191	21.9727	63.9801	21.9727	63.0352	21.9727	63.8378	21.9727	62.9664	21.9727	63.687	21.9727	62.9168	21.9727	63.5383	21.9727	62.8895	21.9727	63.4015	21.9727	62.8866	21.9727	63.2823	21.9727	62.9086	21.9727	63.1803	21.9727	62.9533	21.9727	63.0923	21.9727	63.0161
23.4375	67.8518	23.4375	67.8739	23.4375	67.8161	23.4375	67.8854	23.4375	67.7638	23.4375	67.8887	23.4375	67.6925	23.4375	67.8846	23.4375	67.6012	23.4375	67.872	23.4375	67.4901	23.4375	67.8484	23.4375	67.3603	23.4375	67.8111	23.4375	67.2144	23.4375	67.7582	23.4375	67.0564	23.4375	67.6905	23.4375	66.8929	23.4375	67.6114	23.4375	66.7342	23.4375	67.5268	23.4375	66.5943	23.4375	67.4423	23.4375	66.489	23.4375	67.3605	23.4375	66.4325	23.4375	67.2792	23.4375	66.4325	23.4375	67.1923	23.4375	66.4875	23.4375	67.093	23.4375	66.5865	23.4375	66.9775	23.4375	66.7125	23.4375	66.8478
24.9023	68.431	24.9023	68.4183	24.9023	68.4322	24.9023	68.3951	24.9023	68.4207	24.9023	68.3623	24.9023	68.3957	24.9023	68.3211	24.9023	68.3562	24.9023	68.2724	24.9023	68.3018	24.9023	68.2179	24.9023	68.2321	24.9023	68.1593	24.9023	68.1475	24.9023	68.0986	24.9023	68.0495	24.9023	68.0377	24.9023	67.9408	24.9023	67.9779	24.9023	67.8264	24.9023	67.9199	24.9023	67.7129	24.9023	67.863	24.9023	67.6079	24.9023	67.8057	24.9023	67.519	24.9023	67.7454	24.9023	67.4527	24.9023	67.68	24.9023	67.4138	24.9023	67.6093	24.9023	67.4051	24.9023	67.5377	24.9023	67.4264	24.9023	67.4734
26.3672	72.2751	26.3672	72.2794	26.3672	72.2708	26.3672	72.283	26.3672	72.2666	26.3672	72.2855	26.3672	72.2624	26.3672	72.2863	26.3672	72.2573	26.3672	72.2846	26.3672	72.2499	26.3672	72.2798	26.3672	72.2379	26.3672	72.2713	26.3672	72.2191	26.3672	72.2586	26.3672	72.1916	26.3672	72.2415	26.3672	72.1551	26.3672	72.2199	26.3672	72.1115	26.3672	72.1943	26.3672	72.0648	26.3672	72.1653	26.3672	72.0206	26.3672	72.1341	26.3672	71.9844	26.3672	72.1017	26.3672	71.9602	26.3672	72.0692	26.3672	71.9493	26.3672	72.0376	26.3672	71.9508	26.3672	72.0082	26.3672	71.9627	26.3672	71.9826
27.832	74.1211	27.832	74.1376	27.832	74.0975	27.832	74.1466	27.832	74.0668	27.832	74.1472	27.832	74.0291	27.832	74.1384	27.832	73.9843	27.832	74.1194	27.832	73.9331	27.832	74.0899	27.832	73.8763	27.832	74.05	27.832	73.8153	27.832	74.0009	27.832	73.752	27.832	73.9438	27.832	73.6889	27.832	73.8811	27.832	73.6285	27.832	73.8157	27.832	73.574	27.832	73.751	27.832	73.528	27.832	73.6905	27.832	73.4926	27.832	73.6366	27.832	73.4691	27.832	73.59	27.832	73.4577	27.832	73.5502	27.832	73.4579	27.832	73.5163	27.832	73.4688	27.832	73.4888
29.2969	76.5384	29.2969	76.5368	29.2969	76.5349	29.2969	76.53	29.2969	76.5262	29.2969	76.5176	29.2969	76.5124	29.2969	76.4993	29.2969	76.4933	29.2969	76.4748	29.2969	76.469	29.2969	76.444	29.2969	76.4396	29.2969	76.4069	29.2969	76.4051	29.2969	76.364	29.2969	76.3661	29.2969	76.3163	29.2969	76.323	29.2969	76.2652	29.2969	76.2773	29.2969	76.2134	29.2969	76.2305	29.2969	76.1638	29.2969	76.185	29.2969	76.1199	29.2969	76.1431	29.2969	76.0846	29.2969	76.1069	29.2969	76.0592	29.2969	76.0778	29.2969	76.0435	29.2969	76.0565	29.2969	76.0361	29.2969	76.0428	29.2969	76.0361
30.7617	78.3809	30.7617	78.3824	30.7617	78.3721	30.7617	78.376	30.7617	78.3567	30.7617	78.3613	30.7617	78.3351	30.7617	78.3379	30.7617	78.308	30.7617	78.3058	30.7617	78.2761	30.7617	78.2653	30.7617	78.24	30.7617	78.2172	30.7617	78.2003	30.7617	78.1626	30.7617	78.1577	30.7617	78.1032	30.7617	78.1128	30.7617	78.0412	30.7617	78.0661	30.7617	77.9792	30.7617	78.0183	30.7617	77.9205	30.7617	77.9706	30.7617	77.8684	30.7617	77.9242	30.7617	77.8258	30.7617	77.8809	30.7617	77.7945	30.7617	77.8424	30.7617	77.7754	30.7617	77.8105	30.7617	77.7682	30.7617	77.7868	30.7617	77.7723
32.2266	80.4767	32.2266	80.476	32.2266	80.4688	32.2266	80.4667	32.2266	80.4521	32.2266	80.4487	32.2266	80.4268	32.2266	80.4221	32.2266	80.3928	32.2266	80.3875	32.2266	80.3504	32.2266	80.3455	32.2266	80.3003	32.2266	80.297	32.2266	80.2435	32.2266	80.2433	32.2266	80.1815	32.2266	80.1858	32.2266	80.1165	32.2266	80.1262	32.2266	80.051	32.2266	80.0666	32.2266	79.9881	32.2266	80.0089	32.2266	79.9304	32.2266	79.9552	32.2266	79.8804	32.2266	79.9069	32.2266	79.8395	32.2266	79.8652	32.2266	79.8092	32.2266	79.8309	32.2266	79.7904	32.2266	79.805	32.2266	79.7836	32.2266	79.7888
33.6914	82.5713	33.6914	82.5651	33.6914	82.5682	33.6914	82.5497	33.6914	82.5558	33.6914	82.5255	33.6914	82.534	33.6914	82.493	33.6914	82.5034	33.6914	82.4529	33.6914	82.4645	33.6914	82.4062	33.6914	82.4181	33.6914	82.3538	33.6914	82.3655	33.6914	82.2972	33.6914	82.3081	33.6914	82.238	33.6914	82.2477	33.6914	82.1781	33.6914	82.1867	33.6914	82.1196	33.6914	82.1271	33.6914	82.0649	33.6914	82.0714	33.6914	82.016	33.6914	82.0214	33.6914	81.9747	33.6914	81.9786	33.6914	81.9421	33.6914	81.9444	33.6914	81.9187	33.6914	81.9197	33.6914	81.9045	33.6914	81.9048	33.6914	81.8998
35.1562	84.4253	35.1562	84.4167	35.1562	84.4234	35.1562	84.3979	35.1562	84.4111	35.1562	84.3692	35.1562	84.3886	35.1562	84.3312	35.1562	84.3563	35.1562	84.2846	35.1562	84.3149	35.1562	84.2307	35.1562	84.2652	35.1562	84.1709	35.1562	84.2085	35.1562	84.1068	35.1562	84.1464	35.1562	84.0404	35.1562	84.0806	35.1562	83.9738	35.1562	84.0133	35.1562	83.9091	35.1562	83.9464	35.1562	83.8486	35.1562	83.8824	35.1562	83.7944	35.1562	83.8233	35.1562	83.7483	35.1562	83.7714	35.1562	83.7118	35.1562	83.7286	35.1562	83.686	35.1562	83.6966	35.1562	83.6712	35.1562	83.6763	35.1562	83.6679
36.6211	85.9735	36.6211	85.9634	36.6211	85.9729	36.6211	85.9426	36.6211	85.9613	36.6211	85.9115	36.6211	85.9392	36.6211	85.871	36.6211	85.9072	36.6211	85.8221	36.6211	85.8659	36.6211	85.766	36.6211	85.8167	36.6211	85.7043	36.6211	85.761	36.6211	85.639	36.6211	85.7004	36.6211	85.572	36.6211	85.6367	36.6211	85.5053	36.6211	85.5716	36.6211	85.4411	36.6211	85.5069	36.6211	85.3815	36.6211	85.4442	36.6211	85.3284	36.6211	85.3852	36.6211	85.2836	36.6211	85.3317	36.6211	85.2486	36.6211	85.2859	36.6211	85.2245	36.6211	85.2498	36.6211	85.2122	36.6211	85.2249	36.6211	85.2123
38.0859	87.4463	38.0859	87.4372	38.0859	87.4437	38.0859	87.4169	38.0859	87.4296	38.0859	87.3858	38.0859	87.4041	38.0859	87.3448	38.0859	87.3679	38.0859	87.295	38.0859	87.3218	38.0859	87.2378	38.0859	87.267	38.0859	87.1746	38.0859	87.2049	38.0859	87.1073	38.0859	87.1373	38.0859	87.0377	38.0859	87.066	38.0859	86.9679	38.0859	86.9931	38.0859	86.9	38.0859	86.9209	38.0859	86.8362	38.0859	86.8518	38.0859	86.7785	38.0859	86.7882	38.0859	86.7288	38.0859	86.7328	38.0859	86.6883	38.0859	86.6879	38.0859	86.658	38.0859	86.6555	38.0859	86.6387	38.0859	86.6366	38.0859	86.6312
39.5508	88.7138	39.5508	88.703	39.5508	88.7128	39.5508	88.6807	39.5508	88.6997	39.5508	88.6477	39.5508	88.6746	39.5508	88.6048	39.5508	88.6382	39.5508	88.5531	39.5508	88.5914	39.5508	88.494	39.5508	88.5354	39.5508	88.429	39.5508	88.4721	39.5508	88.3598	39.5508	88.4032	39.5508	88.2885	39.5508	88.331	39.5508	88.2173	39.5508	88.2573	39.5508	88.1483	39.5508	88.1843	39.5508	88.084	39.5508	88.1142	39.5508	88.0264	39.5508	88.0496	39.5508	87.9774	39.5508	87.9932	39.5508	87.9383	39.5508	87.9474	39.5508	87.9098	39.5508	87.9141	39.5508	87.8924	39.5508	87.8939	39.5508	87.8869
41.0156	89.6196	41.0156	89.6054	41.0156	89.6232	41.0156	89.581	41.0156	89.6159	41.0156	89.5471	41.0156	89.5978	41.0156	89.5046	41.0156	89.5694	41.0156	89.4547	41.0156	89.5312	41.0156	89.3989	41.0156	89.4842	41.0156	89.3387	41.0156	89.4295	41.0156	89.276	41.0156	89.3687	41.0156	89.2125	41.0156	89.3033	41.0156	89.15	41.0156	89.2353	41.0156	89.0898	41.0156	89.1661	41.0156	89.0328	41.0156	89.0969	41.0156	88.98	41.0156	89.0291	41.0156	88.9325	41.0156	88.9651	41.0156	88.8916	41.0156	88.9091	41.0156	88.8591	41.0156	88.8657	41.0156	88.8376	41.0156	88.8388	41.0156	88.8299
42.4805	90.48	42.4805	90.4656	42.4805	90.4823	42.4805	90.439	42.4805	90.4725	42.4805	90.4009	42.4805	90.4509	42.4805	90.3521	42.4805	90.4182	42.4805	90.2937	42.4805	90.3753	42.4805	90.2273	42.4805	90.3233	42.4805	90.1551	42.4805	90.2636	42.4805	90.0791	42.4805	90.1979	42.4805	90.002	42.4805	90.1278	42.4805	89.9264	42.4805	90.0553	42.4805	89.8547	42.4805	89.9823	42.4805	89.7892	42.4805	89.9107	42.4805	89.7321	42.4805	89.8425	42.4805	89.6851	42.4805	89.7797	42.4805	89.6499	42.4805	89.7244	42.4805	89.6276	42.4805	89.679	42.4805	89.6193	42.4805	89.6455	42.4805	89.6253
43.9453	91.1656	43.9453	91.1532	43.9453	91.1643	43.9453	91.1273	43.9453	91.1494	43.9453	91.0886	43.9453	91.1214	43.9453	91.0381	43.9453	91.0809	43.9453	90.9772	43.9453	91.029	43.9453	90.9077	43.9453	90.9672	43.9453	90.8316	43.9453	90.897	43.9453	90.7513	43.9453	90.8205	43.9453	90.6694	43.9453	90.7398	43.9453	90.5886	43.9453	90.6574	43.9453	90.5114	43.9453	90.576	43.9453	90.4402	43.9453	90.4983	43.9453	90.3769	43.9453	90.4267	43.9453	90.3234	43.9453	90.3635	43.9453	90.2809	43.9453	90.3108	43.9453	90.2506	43.9453	90.2704	43.9453	90.2339	43.9453	90.2437	43.9453	90.2314
45.4102	91.777	45.4102	91.7648	45.4102	91.7755	45.4102	91.7391	45.4102	91.76	45.4102	91.7009	45.4102	91.7312	45.4102	91.6512	45.4102	91.6898	45.4102	91.5914	45.4102	91.637	45.4102	91.5234	45.4102	91.5742	45.4102	91.4491	45.4102	91.5035	45.4102	91.3708	45.4102	91.4268	45.4102	91.2909	45.4102	91.3465	45.4102	91.212	45.4102	91.2651	45.4102	91.1366	45.4102	91.1854	45.4102	91.067	45.4102	91.1099	45.4102	91.0053	45.4102	91.0412	45.4102	90.9531	45.4102	90.9815	45.4102	90.9119	45.4102	90.9326	45.4102	90.8825	45.4102	90.896	45.4102	90.8659	45.4102	90.8725	45.4102	90.8624
46.875	92.1549	46.875	92.1404	46.875	92.156	46.875	92.1132	46.875	92.1438	46.875	92.074	46.875	92.1187	46.875	92.0242	46.875	92.0814	46.875	91.9654	46.875	92.0331	46.875	91.8995	46.875	91.9756	46.875	91.8287	46.875	91.9106	46.875	91.7554	46.875	91.8402	46.875	91.6819	46.875	91.7668	46.875	91.6106	46.875	91.6927	46.875	91.5436	46.875	91.6202	46.875	91.4829	46.875	91.5515	46.875	91.43	46.875	91.4888	46.875	91.3862	46.875	91.4339	46.875	91.3523	46.875	91.3883	46.875	91.3293	46.875	91.3533	46.875	91.3176	46.875	91.3296	46.875	91.3177
48.3398	92.5657	48.3398	92.5528	48.3398	92.5649	48.3398	92.5267	48.3398	92.5504	48.3398	92.4885	48.3398	92.5227	48.3398	92.4394	48.3398	92.4824	48.3398	92.3811	48.3398	92.4309	48.3398	92.3156	48.3398	92.37	48.3398	92.2451	48.3398	92.3018	48.3398	92.172	48.3398	92.2286	48.3398	92.0987	48.3398	92.1531	48.3398	92.0275	48.3398	92.0778	48.3398	91.9604	48.3398	92.0051	48.3398	91.8992	48.3398	91.9374	48.3398	91.8454	48.3398	91.8766	48.3398	91.8003	48.3398	91.8244	48.3398	91.7648	48.3398	91.7821	48.3398	91.7396	48.3398	91.7506	48.3398	91.7252	48.3398	91.7306	48.3398	91.7221
51.2695	93.0764	51.2695	93.0659	51.2695	93.0726	51.2695	93.0416	51.2695	93.0547	51.2695	93.0042	51.2695	93.0232	51.2695	92.955	51.2695	92.9792	51.2695	92.896	51.2695	92.9243	51.2695	92.8291	51.2695	92.8602	51.2695	92.757	51.2695	92.7894	51.2695	92.6822	51.2695	92.7142	51.2695	92.6075	51.2695	92.6374	51.2695	92.5355	51.2695	92.5619	51.2695	92.4686	51.2695	92.4902	51.2695	92.4085	51.2695	92.4247	51.2695	92.3566	51.2695	92.3675	51.2695	92.3136	51.2695	92.32	51.2695	92.2799	51.2695	92.283	51.2695	92.2557	51.2695	92.2568	51.2695	92.241	51.2695	92.2412	51.2695	92.2361
52.7344	93.2888	52.7344	93.2801	52.7344	93.2819	52.7344	93.2561	52.7344	93.2593	52.7344	93.2176	52.7344	93.2218	52.7344	93.1662	52.7344	93.1705	52.7344	93.1036	52.7344	93.1071	52.7344	93.0321	52.7344	93.0337	52.7344	92.9543	52.7344	92.9531	52.7344	92.8731	52.7344	92.8681	52.7344	92.7916	52.7344	92.7821	52.7344	92.7126	52.7344	92.6983	52.7344	92.6389	52.7344	92.6198	52.7344	92.5723	52.7344	92.5495	52.7344	92.5145	52.7344	92.4895	52.7344	92.4661	52.7344	92.4413	52.7344	92.4274	52.7344	92.4055	52.7344	92.3985	52.7344	92.3821	52.7344	92.3793	52.7344	92.3705	52.7344	92.3698
54.1992	93.559	54.1992	93.5459	54.1992	93.5548	54.1992	93.516	54.1992	93.5332	54.1992	93.4702	54.1992	93.4947	54.1992	93.4099	54.1992	93.44	54.1992	93.3369	54.1992	93.3706	54.1992	93.2536	54.1992	93.2885	54.1992	93.1626	54.1992	93.1961	54.1992	93.067	54.1992	93.0963	54.1992	92.9698	54.1992	92.9926	54.1992	92.8741	54.1992	92.8887	54.1992	92.7827	54.1992	92.7883	54.1992	92.698	54.1992	92.6951	54.1992	92.6222	54.1992	92.6125	54.1992	92.5569	54.1992	92.5433	54.1992	92.5036	54.1992	92.4894	54.1992	92.4635	54.1992	92.4519	54.1992	92.4376	54.1992	92.4311	54.1992	92.4265
55.6641	93.6184	55.6641	93.6001	55.6641	93.6198	55.6641	93.5659	55.6641	93.6042	55.6641	93.5171	55.6641	93.5718	55.6641	93.4555	55.6641	93.5235	55.6641	93.3834	55.6641	93.4608	55.6641	93.3033	55.6641	93.386	55.6641	93.2178	55.6641	93.3016	55.6641	93.1299	55.6641	93.2109	55.6641	93.0424	55.6641	93.1171	55.6641	92.958	55.6641	93.0238	55.6641	92.8791	55.6641	92.9344	55.6641	92.8077	55.6641	92.852	55.6641	92.7452	55.6641	92.7793	55.6641	92.693	55.6641	92.718	55.6641	92.6519	55.6641	92.6693	55.6641	92.6228	55.6641	92.6337	55.6641	92.6061	55.6641	92.6114	55.6641	92.6022
58.5938	93.8038	58.5938	93.7825	58.5938	93.8087	58.5938	93.7455	58.5938	93.7969	58.5938	93.6942	58.5938	93.7686	58.5938	93.6308	58.5938	93.725	58.5938	93.5575	58.5938	93.6674	58.5938	93.4774	58.5938	93.5981	58.5938	93.3935	58.5938	93.5195	58.5938	93.3091	58.5938	93.4346	58.5938	93.2272	58.5938	93.3465	58.5938	93.1507	58.5938	93.2586	58.5938	93.0817	58.5938	93.1741	58.5938	93.0215	58.5938	93.0963	58.5938	92.9709	58.5938	93.0276	58.5938	92.9301	58.5938	92.9701	58.5938	92.899	58.5938	92.9249	58.5938	92.8774	58.5938	92.8924	58.5938	92.8654	58.5938	92.8722	58.5938	92.8635
60.0586	93.942	60.0586	93.92	60.0586	93.9467	60.0586	93.8813	60.0586	93.9338	60.0586	93.8271	60.0586	93.904	60.0586	93.7595	60.0586	93.8584	60.0586	93.6809	60.0586	93.7985	60.0586	93.5943	60.0586	93.7267	60.0586	93.5032	60.0586	93.6454	60.0586	93.4111	60.0586	93.5577	60.0586	93.3217	60.0586	93.4668	60.0586	93.2381	60.0586	93.3759	60.0586	93.1629	60.0586	93.2882	60.0586	93.0979	60.0586	93.2066	60.0586	93.0441	60.0586	93.1334	60.0586	93.0015	60.0586	93.0707	60.0586	92.9701	60.0586	93.0198	60.0586	92.9497	60.0586	92.9814	60.0586	92.9403	60.0586	92.9556	60.0586	92.9421
62.9883	94.0733	62.9883	94.0569	62.9883	94.073	62.9883	94.0246	62.9883	94.056	62.9883	93.9775	62.9883	94.0228	62.9883	93.9175	62.9883	93.9745	62.9883	93.8469	62.9883	93.9129	62.9883	93.7683	62.9883	93.8404	62.9883	93.6848	62.9883	93.7598	62.9883	93.5997	62.9883	93.6743	62.9883	93.5162	62.9883	93.5876	62.9883	93.4376	62.9883	93.5031	62.9883	93.3663	62.9883	93.4241	62.9883	93.3045	62.9883	93.3533	62.9883	93.2533	62.9883	93.2926	62.9883	93.2132	62.9883	93.2431	62.9883	93.1838	62.9883	93.2051	62.9883	93.1644	62.9883	93.178	62.9883	93.1544	62.9883	93.1609	62.9883	93.1533
64.4531	94.1092	64.4531	94.0906	64.4531	94.1107	64.4531	94.0558	64.4531	94.0951	64.4531	94.0063	64.4531	94.0627	64.4531	93.944	64.4531	94.0148	64.4531	93.8715	64.4531	93.9532	64.4531	93.7918	64.4531	93.8802	64.4531	93.7083	64.4531	93.799	64.4531	93.6245	64.4531	93.7129	64.4531	93.5437	64.4531	93.6258	64.4531	93.4688	64.4531	93.5414	64.4531	93.4022	64.4531	93.463	64.4531	93.3453	64.4531	93.3935	64.4531	93.2989	64.4531	93.3346	64.4531	93.2627	64.4531	93.2875	64.4531	93.2361	64.4531	93.2519	64.4531	93.2183	64.4531	93.2273	64.4531	93.2085	64.4531	93.2126	64.4531	93.2066
67.3828	94.0873	67.3828	94.06	67.3828	94.097	67.3828	94.0161	67.3828	94.0886	67.3828	93.9572	67.3828	94.0625	67.3828	93.8859	67.3828	94.0199	67.3828	93.8053	67.3828	93.9626	67.3828	93.7188	67.3828	93.8931	67.3828	93.6303	67.3828	93.8144	67.3828	93.5439	67.3828	93.7303	67.3828	93.4632	67.3828	93.6443	67.3828	93.3917	67.3828	93.5606	67.3828	93.3316	67.3828	93.4824	67.3828	93.284	67.3828	93.4127	67.3828	93.249	67.3828	93.3534	67.3828	93.2253	67.3828	93.3052	67.3828	93.2113	67.3828	93.2681	67.3828	93.2051	67.3828	93.241	67.3828	93.2051	67.3828	93.2224	67.3828	93.2108
68.8477	94.1533	68.8477	94.1259	68.8477	94.1625	68.8477	94.0813	68.8477	94.1531	68.8477	94.0214	68.8477	94.1255	68.8477	93.9488	68.8477	94.0811	68.8477	93.8667	68.8477	94.0219	68.8477	93.779	68.8477	93.9504	68.8477	93.6898	68.8477	93.8701	68.8477	93.6032	68.8477	93.7846	68.8477	93.5231	68.8477	93.698	68.8477	93.4528	68.8477	93.6143	68.8477	93.3946	68.8477	93.5371	68.8477	93.3494	68.8477	93.4693	68.8477	93.317	68.8477	93.4129	68.8477	93.296	68.8477	93.3683	68.8477	93.2842	68.8477	93.335	68.8477	93.2797	68.8477	93.3114	68.8477	93.2804	68.8477	93.2956	68.8477	93.2857
71.7773	94.2995	71.7773	94.2684	71.7773	94.3102	71.7773	94.2178	71.7773	94.3005	71.7773	94.1494	71.7773	94.2714	71.7773	94.0659	71.7773	94.2248	71.7773	93.971	71.7773	94.1633	71.7773	93.8692	71.7773	94.0901	71.7773	93.7654	71.7773	94.009	71.7773	93.665	71.7773	93.9242	71.7773	93.5733	71.7773	93.8395	71.7773	93.4947	71.7773	93.7587	71.7773	93.4325	71.7773	93.6849	71.7773	93.3884	71.7773	93.6201	71.7773	93.3621	71.7773	93.5653	71.7773	93.3516	71.7773	93.5202	71.7773	93.3539	71.7773	93.4835	71.7773	93.3654	71.7773	93.4531	71.7773	93.3828	71.7773	93.427	71.7773	93.4037
74.707	94.411	74.707	94.3823	74.707	94.4192	74.707	94.3339	74.707	94.407	74.707	94.2673	74.707	94.3756	74.707	94.1852	74.707	94.3267	74.707	94.0911	74.707	94.2631	74.707	93.9893	74.707	94.1881	74.707	93.8847	74.707	94.1058	74.707	93.7825	74.707	94.0201	74.707	93.6882	74.707	93.9353	74.707	93.6063	74.707	93.8551	74.707	93.5406	74.707	93.7823	74.707	93.493	74.707	93.7188	74.707	93.4638	74.707	93.6652	74.707	93.4513	74.707	93.6209	74.707	93.4524	74.707	93.5846	74.707	93.4636	74.707	93.554	74.707	93.4814	74.707	93.5272	74.707	93.5031
77.6367	94.4388	77.6367	94.4099	77.6367	94.4468	77.6367	94.3608	77.6367	94.4338	77.6367	94.2934	77.6367	94.401	77.6367	94.2106	77.6367	94.3504	77.6367	94.1161	77.6367	94.2849	77.6367	94.0144	77.6367	94.2085	77.6367	93.9107	77.6367	94.1254	77.6367	93.8105	77.6367	94.0405	77.6367	93.7192	77.6367	93.9582	77.6367	93.6418	77.6367	93.8825	77.6367	93.5816	77.6367	93.8163	77.6367	93.5407	77.6367	93.7611	77.6367	93.5187	77.6367	93.7167	77.6367	93.5136	77.6367	93.6817	77.6367	93.5216	77.6367	93.6534	77.6367	93.5384	77.6367	93.629	77.6367	93.5599	77.6367	93.606	77.6367	93.583
79.1016	94.4766	79.1016	94.4479	79.1016	94.4832	79.1016	94.3979	79.1016	94.4679	79.1016	94.3284	79.1016	94.432	79.1016	94.2422	79.1016	94.3775	79.1016	94.1431	79.1016	94.3076	79.1016	94.0356	79.1016	94.2263	79.1016	93.9252	79.1016	94.1381	79.1016	93.8178	79.1016	94.048	79.1016	93.7192	79.1016	93.9608	79.1016	93.6348	79.1016	93.8808	79.1016	93.5689	79.1016	93.8111	79.1016	93.5236	79.1016	93.7532	79.1016	93.4991	79.1016	93.7071	79.1016	93.4932	79.1016	93.6709	79.1016	93.5018	79.1016	93.6419	79.1016	93.5201	79.1016	93.6168	79.1016	93.5434	79.1016	93.5928	79.1016	93.5683
82.0312	94.5012	82.0312	94.4785	82.0312	94.5002	82.0312	94.4328	82.0312	94.4759	82.0312	94.3657	82.0312	94.4297	82.0312	94.2796	82.0312	94.3637	82.0312	94.1782	82.0312	94.281	82.0312	94.066	82.0312	94.1859	82.0312	93.9483	82.0312	94.0832	82.0312	93.831	82.0312	93.9784	82.0312	93.7203	82.0312	93.8769	82.0312	93.622	82.0312	93.784	82.0312	93.5411	82.0312	93.7036	82.0312	93.4811	82.0312	93.6378	82.0312	93.4429	82.0312	93.5871	82.0312	93.4248	82.0312	93.5497	82.0312	93.4231	82.0312	93.5225	82.0312	93.4324	82.0312	93.5015	82.0312	93.4478	82.0312	93.4832	82.0312	93.4654
84.9609	94.5216	84.9609	94.5019	84.9609	94.5171	84.9609	94.4591	84.9609	94.488	84.9609	94.3954	84.9609	94.4351	84.9609	94.3134	84.9609	94.3602	84.9609	94.2169	84.9609	94.2663	84.9609	94.1101	84.9609	94.1573	84.9609	93.9977	84.9609	94.0386	84.9609	93.8848	84.9609	93.9161	84.9609	93.7765	84.9609	93.7963	84.9609	93.6773	84.9609	93.6857	84.9609	93.5914	84.9609	93.5895	84.9609	93.5213	84.9609	93.5115	84.9609	93.4679	84.9609	93.4532	84.9609	93.4303	84.9609	93.4138	84.9609	93.4058	84.9609	93.3905	84.9609	93.3908	84.9609	93.3791	84.9609	93.3821	84.9609	93.3758	84.9609	93.3772
87.8906	94.524	87.8906	94.503	87.8906	94.5201	87.8906	94.4579	87.8906	94.4916	87.8906	94.391	87.8906	94.4403	87.8906	94.3058	87.8906	94.3691	87.8906	94.2072	87.8906	94.2818	87.8906	94.1007	87.8906	94.183	87.8906	93.9926	87.8906	94.0782	87.8906	93.8888	87.8906	93.9729	87.8906	93.7949	87.8906	93.8726	87.8906	93.7152	87.8906	93.7824	87.8906	93.6524	87.8906	93.7063	87.8906	93.6071	87.8906	93.6468	87.8906	93.578	87.8906	93.6043	87.8906	93.5622	87.8906	93.5774	87.8906	93.5557	87.8906	93.5631	87.8906	93.5543	87.8906	93.5572	87.8906	93.5549	87.8906	93.5557	87.8906	93.5555
90.8203	94.444	90.8203	94.4397	90.8203	94.4206	90.8203	94.4087	90.8203	94.3702	90.8203	94.3533	90.8203	94.2953	90.8203	94.2773	90.8203	94.1994	90.8203	94.1862	90.8203	94.088	90.8203	94.0864	90.8203	93.9674	90.8203	93.9851	90.8203	93.8453	90.8203	93.8897	90.8203	93.7296	90.8203	93.8067	90.8203	93.628	90.8203	93.741	90.8203	93.547	90.8203	93.6947	90.8203	93.4911	90.8203	93.6672	90.8203	93.4621	90.8203	93.655	90.8203	93.4585	90.8203	93.6526	90.8203	93.4759	90.8203	93.6531	90.8203	93.5077	90.8203	93.6501	90.8203	93.5463	90.8203	93.6387	90.8203	93.5846	90.8203	93.6166
95.2148	94.6008	95.2148	94.5886	95.2148	94.5842	95.2148	94.5488	95.2148	94.5393	95.2148	94.4836	95.2148	94.4678	95.2148	94.3969	95.2148	94.3732	95.2148	94.2936	95.2148	94.2599	95.2148	94.1798	95.2148	94.1339	95.2148	94.0625	95.2148	94.0023	95.2148	93.9485	95.2148	93.8727	95.2148	93.8446	95.2148	93.7529	95.2148	93.7559	95.2148	93.6497	95.2148	93.6854	95.2148	93.5684	95.2148	93.6337	95.2148	93.5118	95.2148	93.5988	95.2148	93.4795	95.2148	93.577	95.2148	93.4687	95.2148	93.5635	95.2148	93.4741	95.2148	93.5531	95.2148	93.4894	95.2148	93.5418	95.2148	93.5086	95.2148	93.5269
98.1445	94.6057	98.1445	94.5842	98.1445	94.5961	98.1445	94.5331	98.1445	94.5551	98.1445	94.4557	98.1445	94.484	98.1445	94.3564	98.1445	94.3859	98.1445	94.2411	98.1445	94.2652	98.1445	94.1164	98.1445	94.1285	98.1445	93.99	98.1445	93.9837	98.1445	93.8695	98.1445	93.8398	98.1445	93.7621	98.1445	93.7061	98.1445	93.6734	98.1445	93.5914	98.1445	93.6066	98.1445	93.5022	98.1445	93.5617	98.1445	93.442	98.1445	93.536	98.1445	93.4107	98.1445	93.5239	98.1445	93.4044	98.1445	93.5188	98.1445	93.4167	98.1445	93.5141	98.1445	93.4396	98.1445	93.5049	98.1445	93.4656	98.1445	93.4885
101.074	94.4662	101.074	94.4424	101.074	94.4585	101.074	94.3886	101.074	94.4194	101.074	94.3076	101.074	94.3506	101.074	94.204	101.074	94.2551	101.074	94.0835	101.074	94.1377	101.074	93.9537	101.074	94.0046	101.074	93.8228	101.074	93.8638	101.074	93.6996	101.074	93.7241	101.074	93.5927	101.074	93.5952	101.074	93.5086	101.074	93.4859	101.074	93.4516	101.074	93.4035	101.074	93.4216	101.074	93.3517	101.074	93.415	101.074	93.3304	101.074	93.4242	101.074	93.3352	101.074	93.4399	101.074	93.3584	101.074	93.4529	101.074	93.3905	101.074	93.4559	101.074	93.4221	101.074	93.4454
105.469	94.6524	105.469	94.6291	105.469	94.6388	105.469	94.5699	105.469	94.5888	105.469	94.4777	105.469	94.5052	105.469	94.3569	105.469	94.3923	105.469	94.214	105.469	94.2567	105.469	94.0568	105.469	94.1065	105.469	93.8945	105.469	93.9517	105.469	93.7367	105.469	93.8029	105.469	93.5929	105.469	93.6702	105.469	93.4715	105.469	93.5617	105.469	93.3784	105.469	93.482	105.469	93.3165	105.469	93.4312	105.469	93.2853	105.469	93.4052	105.469	93.2806	105.469	93.3967	105.469	93.2956	105.469	93.397	105.469	93.322	105.469	93.3973	105.469	93.3511	105.469	93.3913	105.469	93.3756
108.398	94.9255	108.398	94.8857	108.398	94.9271	108.398	94.8099	108.398	94.8895	108.398	94.7015	108.398	94.8133	108.398	94.5656	108.398	94.7007	108.398	94.4086	108.398	94.5556	108.398	94.2386	108.398	94.3846	108.398	94.0652	108.398	94.1966	108.398	93.8987	108.398	94.0029	108.398	93.7492	108.398	93.8166	108.398	93.6248	108.398	93.6512	108.398	93.5307	108.398	93.5183	108.398	93.4674	108.398	93.4247	108.398	93.4315	108.398	93.3709	108.398	93.4162	108.398	93.3513	108.398	93.4131	108.398	93.3554	108.398	93.4143	108.398	93.3719	108.398	93.413	108.398	93.3908	108.398	93.4055
112.793	94.8994	112.793	94.8843	112.793	94.8771	112.793	94.833	112.793	94.8173	112.793	94.7484	112.793	94.7218	112.793	94.6345	112.793	94.5939	112.793	94.497	112.793	94.4385	112.793	94.3425	112.793	94.2618	112.793	94.1791	112.793	94.0718	112.793	94.0156	112.793	93.8772	112.793	93.8611	112.793	93.6878	112.793	93.7237	112.793	93.5135	112.793	93.6093	112.793	93.364	112.793	93.5201	112.793	93.2477	112.793	93.454	112.793	93.1697	112.793	93.4053	112.793	93.131	112.793	93.366	112.793	93.1276	112.793	93.3281	112.793	93.1515	112.793	93.2864	112.793	93.1924	112.793	93.24
117.188	94.7181	117.188	94.6665	117.188	94.7297	117.188	94.5774	117.188	94.7003	117.188	94.4553	117.188	94.6307	117.188	94.3062	117.188	94.5237	117.188	94.1381	117.188	94.3844	117.188	93.9608	117.188	94.2205	117.188	93.7854	117.188	94.0419	117.188	93.6236	117.188	93.8608	117.188	93.4863	117.188	93.6901	117.188	93.3819	117.188	93.542	117.188	93.3147	117.188	93.426	117.188	93.2839	117.188	93.3473	117.188	93.2835	117.188	93.3054	117.188	93.3035	117.188	93.2951	117.188	93.3319	117.188	93.3072	117.188	93.3574	117.188	93.3307	117.188	93.3714	117.188	93.3547	117.188	93.3701
120.117	94.7988	120.117	94.7417	120.117	94.8152	120.117	94.6461	120.117	94.7904	120.117	94.5154	120.117	94.7251	120.117	94.3548	120.117	94.6214	120.117	94.1711	120.117	94.4836	120.117	93.9737	120.117	94.3179	120.117	93.7738	120.117	94.1331	120.117	93.5843	120.117	93.9405	120.117	93.4183	120.117	93.7535	120.117	93.2871	120.117	93.5861	120.117	93.1982	120.117	93.4504	120.117	93.153	120.117	93.3545	120.117	93.1469	120.117	93.2996	120.117	93.1701	120.117	93.28	120.117	93.2095	120.117	93.2841	120.117	93.2521	120.117	93.298	120.117	93.2865	120.117	93.3084	120.117	93.3059
124.512	94.7455	124.512	94.7006	124.512	94.7539	124.512	94.6198	124.512	94.7261	124.512	94.5051	124.512	94.6634	124.512	94.3598	124.512	94.5682	124.512	94.189	124.512	94.4441	124.512	93.9996	124.512	94.2958	124.512	93.8008	124.512	94.1295	124.512	93.6039	124.512	93.9529	124.512	93.4215	124.512	93.7754	124.512	93.2659	124.512	93.6078	124.512	93.1473	124.512	93.4606	124.512	93.0707	124.512	93.3421	124.512	93.0349	124.512	93.2565	124.512	93.0325	124.512	93.2024	124.512	93.0523	124.512	93.1732	124.512	93.0821	124.512	93.1587	124.512	93.1114	124.512	93.1483	124.512	93.1339
128.906	94.4666	128.906	94.4426	128.906	94.4529	128.906	94.3813	128.906	94.4028	128.906	94.2853	128.906	94.3199	128.906	94.1592	128.906	94.2091	128.906	94.0101	128.906	94.0771	128.906	93.8467	128.906	93.9314	128.906	93.6798	128.906	93.7807	128.906	93.5208	128.906	93.6337	128.906	93.381	128.906	93.499	128.906	93.2699	128.906	93.3841	128.906	93.1935	128.906	93.2949	128.906	93.1529	128.906	93.2345	128.906	93.144	128.906	93.2026	128.906	93.1584	128.906	93.1952	128.906	93.1852	128.906	93.2049	128.906	93.2135	128.906	93.222	128.906	93.2344	128.906	93.2371	128.906	93.2425
133.301	94.4822	133.301	94.4768	133.301	94.4447	133.301	94.43	133.301	94.3649	133.301	94.3452	133.301	94.2454	133.301	94.2279	133.301	94.0916	133.301	94.0854	133.301	93.911	133.301	93.9271	133.301	93.7144	133.301	93.7639	133.301	93.5146	133.301	93.6081	133.301	93.3266	133.301	93.4714	133.301	93.1655	133.301	93.364	133.301	93.0446	133.301	93.2917	133.301	92.9723	133.301	93.2554	133.301	92.9505	133.301	93.2498	133.301	92.9736	133.301	93.2647	133.301	93.0297	133.301	93.2875	133.301	93.1035	133.301	93.3053	133.301	93.1793	133.301	93.3076	133.301	93.2436	133.301	93.2876
139.16	94.6169	139.16	94.5958	139.16	94.5895	139.16	94.5292	139.16	94.5126	139.16	94.422	139.16	94.3874	139.16	94.281	139.16	94.2178	139.16	94.1147	139.16	94.0103	139.16	93.9337	139.16	93.7748	139.16	93.7501	139.16	93.5247	139.16	93.5767	139.16	93.2766	139.16	93.4257	139.16	93.049	139.16	93.3068	139.16	92.8607	139.16	93.2251	139.16	92.7269	139.16	93.1793	139.16	92.6565	139.16	93.1621	139.16	92.6492	139.16	93.1612	139.16	92.6954	139.16	93.1623	139.16	92.7785	139.16	93.1518	139.16	92.879	139.16	93.1196	139.16	92.978	139.16	93.0611
143.555	94.5615	143.555	94.5224	143.555	94.5534	143.555	94.4391	143.555	94.4971	143.555	94.3163	143.555	94.3931	143.555	94.1606	143.555	94.2438	143.555	93.9809	143.555	94.0539	143.555	93.7886	143.555	93.8304	143.555	93.5971	143.555	93.5837	143.555	93.4209	143.555	93.3281	143.555	93.2733	143.555	93.0812	143.555	93.1637	143.555	92.863	143.555	93.095	143.555	92.6927	143.555	93.0629	143.555	92.5847	143.555	93.0563	143.555	92.5443	143.555	93.0604	143.555	92.5662	143.555	93.06	143.555	92.6357	143.555	93.0423	143.555	92.7327	143.555	92.9994	143.555	92.8364	143.555	92.9291
147.949	94.2997	147.949	94.225	147.949	94.327	147.949	94.1074	147.949	94.3046	147.949	93.9534	147.949	94.2323	147.949	93.771	147.949	94.1127	147.949	93.5701	147.949	93.951	147.949	93.3632	147.949	93.7551	147.949	93.1647	147.949	93.5357	147.949	92.991	147.949	93.3062	147.949	92.8573	147.949	93.0827	147.949	92.7745	147.949	92.8821	147.949	92.7445	147.949	92.7202	147.949	92.7585	147.949	92.608	147.949	92.7989	147.949	92.5502	147.949	92.8442	147.949	92.5436	147.949	92.8749	147.949	92.5788	147.949	92.8779	147.949	92.6424	147.949	92.849	147.949	92.7188	147.949	92.7925
153.809	94.2674	153.809	94.2046	153.809	94.2799	153.809	94.0951	153.809	94.2401	153.809	93.9447	153.809	94.1484	153.809	93.7604	153.809	94.0076	153.809	93.5512	153.809	93.8235	153.809	93.328	153.809	93.6056	153.809	93.1035	153.809	93.3676	153.809	92.8928	153.809	93.1271	153.809	92.7127	153.809	92.9045	153.809	92.5789	153.809	92.7205	153.809	92.5029	153.809	92.5921	153.809	92.4873	153.809	92.5278	153.809	92.5237	153.809	92.5251	153.809	92.5947	153.809	92.5706	153.809	92.6779	153.809	92.6434	153.809	92.7514	153.809	92.7201	153.809	92.7982	153.809	92.7801	153.809	92.8083
159.668	94.4555	159.668	94.3819	159.668	94.4691	159.668	94.2511	159.668	94.4232	159.668	94.0691	159.668	94.3208	159.668	93.8463	159.668	94.1672	159.668	93.5972	159.668	93.9703	159.668	93.3399	159.668	93.7407	159.668	93.0956	159.668	93.4918	159.668	92.8854	159.668	93.2405	159.668	92.7279	159.668	93.0067	159.668	92.6356	159.668	92.8119	159.668	92.6115	159.668	92.6751	159.668	92.6483	159.668	92.6081	159.668	92.729	159.668	92.6111	159.668	92.8304	159.668	92.6718	159.668	92.9282	159.668	92.768	159.668	93.0013	159.668	92.8738	159.668	93.0349	159.668	92.9648	159.668	93.022
165.527	94.5775	165.527	94.5154	165.527	94.5763	165.527	94.3911	165.527	94.5128	165.527	94.2084	165.527	94.3901	165.527	93.9745	165.527	94.2139	165.527	93.7008	165.527	93.9932	165.527	93.4044	165.527	93.7406	165.527	93.108	165.527	93.473	165.527	92.8389	165.527	93.211	165.527	92.6247	165.527	92.9778	165.527	92.4872	165.527	92.7954	165.527	92.4358	165.527	92.6805	165.527	92.4642	165.527	92.6392	165.527	92.5522	165.527	92.6643	165.527	92.6725	165.527	92.7365	165.527	92.7973	165.527	92.83	165.527	92.9034	165.527	92.9183	165.527	92.9742	165.527	92.9797	165.527	93.0003
171.387	94.4779	171.387	94.4009	171.387	94.4933	171.387	94.263	171.387	94.448	171.387	94.0664	171.387	94.3438	171.387	93.8167	171.387	94.1843	171.387	93.5232	171.387	93.9751	171.387	93.2015	171.387	93.7248	171.387	92.8741	171.387	93.4461	171.387	92.5702	171.387	93.1566	171.387	92.3221	171.387	92.8791	171.387	92.1588	171.387	92.6395	171.387	92.0965	171.387	92.4626	171.387	92.1322	171.387	92.3655	171.387	92.2427	171.387	92.3511	171.387	92.3923	171.387	92.4055	171.387	92.5431	171.387	92.5022	171.387	92.6633	171.387	92.6093	171.387	92.7326	171.387	92.6971	171.387	92.7427
177.246	94.3841	177.246	94.3424	177.246	94.3633	177.246	94.2382	177.246	94.2809	177.246	94.0724	177.246	94.1395	177.246	93.8474	177.246	93.9434	177.246	93.5681	177.246	93.6995	177.246	93.2441	177.246	93.4182	177.246	92.8922	177.246	93.1144	177.246	92.5386	177.246	92.8086	177.246	92.2178	177.246	92.5256	177.246	91.9676	177.246	92.2921	177.246	91.8181	177.246	92.1305	177.246	91.7795	177.246	92.0522	177.246	91.8369	177.246	92.0525	177.246	91.9566	177.246	92.1112	177.246	92.0983	177.246	92.1989	177.246	92.2265	177.246	92.2848	177.246	92.3167	177.246	92.343	177.246	92.3562
183.105	93.9572	183.105	93.931	183.105	93.9291	183.105	93.8533	183.105	93.8456	183.105	93.7279	183.105	93.7076	183.105	93.5597	183.105	93.5184	183.105	93.3542	183.105	93.2843	183.105	93.1188	183.105	93.0141	183.105	92.8643	183.105	92.7209	183.105	92.6056	183.105	92.4217	183.105	92.3631	183.105	92.1383	183.105	92.1598	183.105	91.8957	183.105	92.0169	183.105	91.7189	183.105	91.9465	183.105	91.6262	183.105	91.946	183.105	91.6225	183.105	91.9974	183.105	91.6953	183.105	92.0718	183.105	91.8174	183.105	92.1376	183.105	91.9539	183.105	92.1681	183.105	92.0719	183.105	92.1471
188.965	94.0578	188.965	93.988	188.965	94.0618	188.965	93.859	188.965	93.9957	188.965	93.6794	188.965	93.8585	188.965	93.4598	188.965	93.6524	188.965	93.2126	188.965	93.3846	188.965	92.9521	188.965	93.0677	188.965	92.6952	188.965	92.721	188.965	92.4616	188.965	92.3711	188.965	92.2724	188.965	92.0504	188.965	92.1467	188.965	91.7924	188.965	92.0947	188.965	91.6248	188.965	92.112	188.965	91.5608	188.965	92.1783	188.965	91.5949	188.965	92.2633	188.965	91.7052	188.965	92.3361	188.965	91.8599	188.965	92.3726	188.965	92.0267	188.965	92.3595	188.965	92.1778	188.965	92.2929
196.289	94.2145	196.289	94.1383	196.289	94.2171	196.289	93.9925	196.289	94.1458	196.289	93.7848	196.289	94.0033	196.289	93.5267	196.289	93.7949	196.289	93.2327	196.289	93.5285	196.289	92.9204	196.289	93.2146	196.289	92.6093	196.289	92.8687	196.289	92.3214	196.289	92.5117	196.289	92.0801	196.289	92.1717	196.289	91.9075	196.289	91.8814	196.289	91.8194	196.289	91.6724	196.289	91.818	196.289	91.5656	196.289	91.8877	196.289	91.563	196.289	91.9973	196.289	91.6463	196.289	92.1085	196.289	91.7831	196.289	92.1872	196.289	91.9371	196.289	92.211	196.289	92.0751	196.289	92.1719
203.613	94.1337	203.613	94.0192	203.613	94.1676	203.613	93.83	203.613	94.1195	203.613	93.5773	203.613	93.9924	203.613	93.2772	203.613	93.793	203.613	92.9507	203.613	93.5313	203.613	92.6215	203.613	93.2201	203.613	92.3138	203.613	92.875	203.613	92.049	203.613	92.515	203.613	91.8432	203.613	92.1637	203.613	91.7062	203.613	91.8496	203.613	91.6405	203.613	91.6031	203.613	91.6407	203.613	91.4484	203.613	91.6921	203.613	91.3945	203.613	91.7716	203.613	91.4296	203.613	91.851	203.613	91.5264	203.613	91.9032	203.613	91.651	203.613	91.9096	203.613	91.7719	203.613	91.8638
210.938	93.7549	210.938	93.6189	210.938	93.8011	210.938	93.3949	210.938	93.758	210.938	93.0889	210.938	93.6298	210.938	92.7141	210.938	93.4248	210.938	92.2949	210.938	93.1586	210.938	91.8694	210.938	92.8543	210.938	91.4873	210.938	92.5415	210.938	91.1994	210.938	92.2518	210.938	91.0405	210.938	92.0127	210.938	91.0149	210.938	91.8414	210.938	91.0967	210.938	91.7429	210.938	91.2431	210.938	91.7109	210.938	91.4121	210.938	91.7308	210.938	91.5727	210.938	91.7821	210.938	91.7071	210.938	91.8425	210.938	91.8087	210.938	91.8921	210.938	91.877	210.938	91.9177	210.938	91.9131
218.262	93.683	218.262	93.6202	218.262	93.6497	218.262	93.4587	218.262	93.5248	218.262	93.1977	218.262	93.3138	218.262	92.8416	218.262	93.0256	218.262	92.4044	218.262	92.6749	218.262	91.9159	218.262	92.2864	218.262	91.4289	218.262	91.8996	218.262	91.0182	218.262	91.5694	218.262	90.7652	218.262	91.3565	218.262	90.7238	218.262	91.3046	218.262	90.8909	218.262	91.4174	218.262	91.2088	218.262	91.6548	218.262	91.5968	218.262	91.9531	218.262	91.9823	218.262	92.2511	218.262	92.3156	218.262	92.5047	218.262	92.5698	218.262	92.6886	218.262	92.734	218.262	92.7909	218.262	92.807
225.586	94.3714	225.586	94.3361	225.586	94.299	225.586	94.1942	225.586	94.1172	225.586	93.9468	225.586	93.8246	225.586	93.5965	225.586	93.4219	225.586	93.1513	225.586	92.9145	225.586	92.6317	225.586	92.3172	225.586	92.0787	225.586	91.6636	225.586	91.5601	225.586	91.0175	225.586	91.1644	225.586	90.4803	225.586	90.9715	225.586	90.1729	225.586	91.0129	225.586	90.1764	225.586	91.2525	225.586	90.4734	225.586	91.6102	225.586	90.9573	225.586	91.9999	225.586	91.4996	225.586	92.3527	225.586	92.0002	225.586	92.6204	225.586	92.3991	225.586	92.7725	225.586	92.6663	225.586	92.7907
232.91	94.2572	232.91	94.1568	232.91	94.2526	232.91	93.9555	232.91	94.1386	232.91	93.6572	232.91	93.9107	232.91	93.2667	232.91	93.5657	232.91	92.7934	232.91	93.1021	232.91	92.2572	232.91	92.5241	232.91	91.6977	232.91	91.8468	232.91	91.1811	232.91	91.1078	232.91	90.7947	232.91	90.3833	232.91	90.6168	232.91	89.7954	232.91	90.6717	232.91	89.4826	232.91	90.9119	232.91	89.52	232.91	91.2476	232.91	89.8605	232.91	91.5901	232.91	90.3719	232.91	91.8735	232.91	90.9197	232.91	92.0556	232.91	91.4091	232.91	92.11	232.91	91.7853	232.91	92.0216
241.699	94.0296	241.699	93.9229	241.699	94.0416	241.699	93.7199	241.699	93.9596	241.699	93.418	241.699	93.7828	241.699	93.0152	241.699	93.5095	241.699	92.5127	241.699	93.1374	241.699	91.9213	241.699	92.6661	241.699	91.2731	241.699	92.1016	241.699	90.6365	241.699	91.4662	241.699	90.1222	241.699	90.8123	241.699	89.8545	241.699	90.2344	241.699	89.8987	241.699	89.857	241.699	90.2067	241.699	89.777	241.699	90.651	241.699	89.9922	241.699	91.1031	241.699	90.4001	241.699	91.4763	241.699	90.8674	241.699	91.7257	241.699	91.2906	241.699	91.8332	241.699	91.6088	241.699	91.7934
250.488	94.5111	250.488	94.3927	250.488	94.5226	250.488	94.1681	250.488	94.4243	250.488	93.8351	250.488	94.2123	250.488	93.3882	250.488	93.8828	250.488	92.8215	250.488	93.4332	250.488	92.1363	250.488	92.8649	250.488	91.3556	250.488	92.1879	250.488	90.5459	250.488	91.4306	250.488	89.8359	250.488	90.6556	250.488	89.396	250.488	89.9762	250.488	89.3424	250.488	89.5451	250.488	89.6402	250.488	89.4802	250.488	90.1356	250.488	89.7681	250.488	90.6703	250.488	90.2683	250.488	91.1413	250.488	90.8122	250.488	91.4941	250.488	91.2765	250.488	91.6986	250.488	91.5935	250.488	91.7354
259.277	94.5912	259.277	94.5185	259.277	94.5659	259.277	94.3473	259.277	94.4419	259.277	94.0748	259.277	94.2165	259.277	93.6962	259.277	93.8853	259.277	93.2045	259.277	93.4417	259.277	92.5948	259.277	92.8786	259.277	91.8729	259.277	92.1924	259.277	91.0749	259.277	91.3936	259.277	90.2937	259.277	90.5268	259.277	89.694	259.277	89.699	259.277	89.4563	259.277	89.0913	259.277	89.6378	259.277	88.8945	259.277	90.1099	259.277	89.1579	259.277	90.6691	259.277	89.7326	259.277	91.1607	259.277	90.3969	259.277	91.5042	259.277	90.984	259.277	91.6671	259.277	91.4077	259.277	91.6368
268.066	94.0707	268.066	93.9157	268.066	94.1351	268.066	93.6678	268.066	94.1099	268.066	93.3244	268.066	93.9929	268.066	92.8832	268.066	93.7763	268.066	92.3407	268.066	93.4464	268.066	91.6935	268.066	92.9861	268.066	90.948	268.066	92.3808	268.066	90.142	268.066	91.6291	268.066	89.3796	268.066	90.7584	268.066	88.845	268.066	89.8444	268.066	88.722	268.066	89.0256	268.066	89.0298	268.066	88.4841	268.066	89.5908	268.066	88.3601	268.066	90.1809	268.066	88.6481	268.066	90.6473	268.066	89.1999	268.066	90.9151	268.066	89.827	268.066	90.9579	268.066	90.3818	268.066	90.7741
276.855	93.9616	276.855	93.9063	276.855	93.9373	276.855	93.7634	276.855	93.8411	276.855	93.5244	276.855	93.6802	276.855	93.1792	276.855	93.4578	276.855	92.7154	276.855	93.1671	276.855	92.1175	276.855	92.7868	276.855	91.3697	276.855	92.2832	276.855	90.4679	276.855	91.6269	276.855	89.4523	276.855	90.825	276.855	88.4692	276.855	89.9696	276.855	87.8145	276.855	89.2704	276.855	87.7788	276.855	88.9712	276.855	88.3176	276.855	89.1271	276.855	89.0838	276.855	89.5427	276.855	89.7727	276.855	89.982	276.855	90.2527	276.855	90.318	276.855	90.5126	276.855	90.5203	276.855	90.5895
287.109	93.8511	287.109	93.7779	287.109	93.833	287.109	93.6121	287.109	93.7227	287.109	93.3497	287.109	93.5201	287.109	92.9847	287.109	93.229	287.109	92.5135	287.109	92.8567	287.109	91.9388	287.109	92.4112	287.109	91.2706	287.109	91.8937	287.109	90.5275	287.109	91.2926	287.109	89.7477	287.109	90.5882	287.109	89.0227	287.109	89.7807	287.109	88.5396	287.109	88.9533	287.109	88.5261	287.109	88.3386	287.109	89.0284	287.109	88.241	287.109	89.8093	287.109	88.7237	287.109	90.5598	287.109	89.5104	287.109	91.0848	287.109	90.2875	287.109	91.3118	287.109	90.8855	287.109	91.2378
297.363	94.3357	297.363	94.2868	297.363	94.2958	297.363	94.145	297.363	94.1666	297.363	93.8989	297.363	93.9454	297.363	93.5284	297.363	93.6255	297.363	93.008	297.363	93.1907	297.363	92.3166	297.363	92.6103	297.363	91.4565	297.363	91.8427	297.363	90.4828	297.363	90.8552	297.363	89.5369	297.363	89.6673	297.363	88.836	297.363	88.4161	297.363	88.5506	297.363	87.4045	297.363	88.6654	297.363	86.9836	297.363	89.0315	297.363	87.2552	297.363	89.5121	297.363	88.0045	297.363	90.0137	297.363	88.9285	297.363	90.4462	297.363	89.7816	297.363	90.7093	297.363	90.4021	297.363	90.7126
307.617	93.7323	307.617	93.6532	307.617	93.7473	307.617	93.5055	307.617	93.6971	307.617	93.2812	307.617	93.5756	307.617	92.968	307.617	93.3743	307.617	92.5452	307.617	93.0875	307.617	91.9812	307.617	92.711	307.617	91.237	307.617	92.2333	307.617	90.2834	307.617	91.6236	307.617	89.1443	307.617	90.8347	307.617	87.98	307.617	89.8368	307.617	87.1638	307.617	88.695	307.617	87.0908	307.617	87.6718	307.617	87.7061	307.617	87.1943	307.617	88.5717	307.617	87.4579	307.617	89.3319	307.617	88.1762	307.617	89.8332	307.617	88.9555	307.617	90.0363	307.617	89.5736	307.617	89.9445
319.336	94.1865	319.336	94.0362	319.336	94.2277	319.336	93.7806	319.336	94.1575	319.336	93.4222	319.336	93.977	319.336	92.9597	319.336	93.6876	319.336	92.3857	319.336	93.2861	319.336	91.6841	319.336	92.7595	319.336	90.8287	319.336	92.0865	319.336	89.793	319.336	91.2486	319.336	88.5911	319.336	90.2488	319.336	87.3843	319.336	89.1442	319.336	86.6104	319.336	88.1001	319.336	86.7442	319.336	87.4253	319.336	87.6449	319.336	87.4142	319.336	88.742	319.336	88.0163	319.336	89.6592	319.336	88.8754	319.336	90.2738	319.336	89.6741	319.336	90.5707	319.336	90.2548	319.336	90.5603
329.59	93.7655	329.59	93.6809	329.59	93.8099	329.59	93.5553	329.59	93.8049	329.59	93.378	329.59	93.7348	329.59	93.131	329.59	93.5821	329.59	92.79	329.59	93.3318	329.59	92.324	329.59	92.9693	329.59	91.6948	329.59	92.4744	329.59	90.86	329.59	91.8166	329.59	89.7885	329.59	90.9576	329.59	88.5058	329.59	89.8697	329.59	87.2115	329.59	88.5854	329.59	86.4151	329.59	87.3041	329.59	86.6032	329.59	86.483	329.59	87.5184	329.59	86.5422	329.59	88.5222	329.59	87.3075	329.59	89.2446	329.59	88.2573	329.59	89.5725	329.59	89.0371	329.59	89.4953
341.309	93.9369	341.309	93.9108	341.309	93.8838	341.309	93.8063	341.309	93.7501	341.309	93.6181	341.309	93.5362	341.309	93.3327	341.309	93.2417	341.309	92.9295	341.309	92.8625	341.309	92.3872	341.309	92.3881	341.309	91.6868	341.309	91.8055	341.309	90.8152	341.309	91.1106	341.309	89.7793	341.309	90.3277	341.309	88.65	341.309	89.5333	341.309	87.6404	341.309	88.8764	341.309	87.1202	341.309	88.555	341.309	87.3443	341.309	88.6881	341.309	88.1273	341.309	89.1792	341.309	89.0581	341.309	89.7828	341.309	89.8466	341.309	90.2854	341.309	90.3725	341.309	90.5759	341.309	90.6117
353.027	93.8539	353.027	93.7621	353.027	93.8887	353.027	93.6088	353.027	93.871	353.027	93.3935	353.027	93.8001	353.027	93.1164	353.027	93.6666	353.027	92.77	353.027	93.4492	353.027	92.3293	353.027	93.1103	353.027	91.7541	353.027	92.5879	353.027	91.0013	353.027	91.793	353.027	90.0523	353.027	90.6194	353.027	88.9692	353.027	88.9797	353.027	87.9982	353.027	86.9285	353.027	87.5885	353.027	85.0593	353.027	87.9988	353.027	84.7443	353.027	88.9165	353.027	86.1329	353.027	89.8532	353.027	87.8762	353.027	90.5259	353.027	89.2822	353.027	90.8309	353.027	90.2303	353.027	90.7379
366.211	94.4342	366.211	94.3128	366.211	94.4592	366.211	94.0876	366.211	94.3944	366.211	93.7505	366.211	94.2436	366.211	93.2887	366.211	94.0044	366.211	92.6804	366.211	93.6678	366.211	91.8954	366.211	93.2203	366.211	90.904	366.211	92.6461	366.211	89.6998	366.211	91.9237	366.211	88.3467	366.211	91.0129	366.211	87.0586	366.211	89.8501	366.211	86.2407	366.211	88.388	366.211	86.2368	366.211	86.7488	366.211	86.9153	366.211	85.5363	366.211	87.8361	366.211	85.6145	366.211	88.6653	366.211	86.7486	366.211	89.2463	366.211	88.0072	366.211	89.5128	366.211	88.9279	366.211	89.4214
379.395	94.481	379.395	94.4085	379.395	94.5035	379.395	94.2906	379.395	94.4733	379.395	94.123	379.395	94.393	379.395	93.8822	379.395	94.2633	379.395	93.5193	379.395	94.0712	379.395	92.9622	379.395	93.7828	379.395	92.1247	379.395	93.3454	379.395	90.9171	379.395	92.6926	379.395	89.2612	379.395	91.7524	379.395	87.1742	379.395	90.4632	379.395	85.1698	379.395	88.8285	379.395	84.7814	379.395	87.0985	379.395	86.3571	379.395	86.0646	379.395	88.2633	379.395	86.4861	379.395	89.6826	379.395	87.8064	379.395	90.5144	379.395	89.1313	379.395	90.8225	379.395	90.1086	379.395	90.6754
392.578	93.196	392.578	93.1495	392.578	93.1912	392.578	93.0795	392.578	93.1306	392.578	93.0217	392.578	93.0292	392.578	92.9883	392.578	92.9093	392.578	92.9417	392.578	92.7869	392.578	92.7929	392.578	92.6557	392.578	92.4192	392.578	92.4678	392.578	91.6792	392.578	92.1257	392.578	90.4211	392.578	91.5002	392.578	88.4972	392.578	90.4646	392.578	85.8907	392.578	88.9394	392.578	83.505	392.578	87.0188	392.578	83.8541	392.578	85.3808	392.578	86.1656	392.578	85.3735	392.578	88.2084	392.578	86.8827	392.578	89.5314	392.578	88.5304	392.578	90.185	392.578	89.6828	392.578	90.2316
405.762	93.7396	405.762	93.5908	405.762	93.7318	405.762	93.2979	405.762	93.5769	405.762	92.9093	405.762	93.2999	405.762	92.5125	405.762	92.9372	405.762	92.1964	405.762	92.5267	405.762	91.9742	405.762	92.0927	405.762	91.7385	405.762	91.6366	405.762	91.3058	405.762	91.1332	405.762	90.4912	405.762	90.5194	405.762	89.1548	405.762	89.6877	405.762	87.2568	405.762	88.5326	405.762	85.1397	405.762	87.0981	405.762	84.1641	405.762	85.8852	405.762	85.2897	405.762	85.8326	405.762	87.0977	405.762	86.9639	405.762	88.5239	405.762	88.3031	405.762	89.3597	405.762	89.2384	405.762	89.5979
420.41	93.5581	420.41	93.4385	420.41	93.5764	420.41	93.225	420.41	93.4988	420.41	92.9354	420.41	93.3431	420.41	92.5875	420.41	93.1401	420.41	92.1894	420.41	92.9259	420.41	91.7392	420.41	92.7138	420.41	91.2231	420.41	92.4601	420.41	90.5869	420.41	92.0572	420.41	89.7039	420.41	91.3554	420.41	88.3924	420.41	90.1823	420.41	86.5407	420.41	88.3344	420.41	84.5607	420.41	85.5659	420.41	84.0559	420.41	81.9356	420.41	85.5207	420.41	80.4533	420.41	87.2539	420.41	83.315	420.41	88.426	420.41	86.1228	420.41	88.9309	420.41	87.8834	420.41	88.769
435.059	93.5716	435.059	93.4599	435.059	93.5596	435.059	93.2578	435.059	93.4158	435.059	93.0077	435.059	93.1639	435.059	92.7347	435.059	92.8558	435.059	92.42	435.059	92.5563	435.059	91.995	435.059	92.309	435.059	91.3626	435.059	92.098	435.059	90.4178	435.059	91.8422	435.059	89.0543	435.059	91.4229	435.059	87.1853	435.059	90.7026	435.059	84.8674	435.059	89.5244	435.059	82.7748	435.059	87.7528	435.059	82.5499	435.059	85.5261	435.059	84.2534	435.059	83.9927	435.059	86.2197	435.059	84.6101	435.059	87.6526	435.059	86.2572	435.059	88.3644	435.059	87.6114	435.059	88.3381
451.172	93.5125	451.172	93.313	451.172	93.5307	451.172	92.955	451.172	93.3801	451.172	92.5035	451.172	93.0997	451.172	92.0633	451.172	92.7448	451.172	91.7451	451.172	92.3784	451.172	91.593	451.172	92.059	451.172	91.5313	451.172	91.8114	451.172	91.3848	451.172	91.5872	451.172	90.9322	451.172	91.2596	451.172	89.9345	451.172	90.6661	451.172	88.1429	451.172	89.6563	451.172	85.3965	451.172	88.1101	451.172	82.5378	451.172	85.987	451.172	82.7786	451.172	83.6945	451.172	85.0489	451.172	82.882	451.172	86.6666	451.172	84.2627	451.172	87.2966	451.172	85.9779	451.172	87.0443
465.82	93.2811	465.82	93.0047	465.82	93.3274	465.82	92.5349	465.82	93.1489	465.82	91.9615	465.82	92.7848	465.82	91.4224	465.82	92.3037	465.82	91.0475	465.82	91.7934	465.82	90.8566	465.82	91.3386	465.82	90.7152	465.82	90.9832	465.82	90.4127	465.82	90.6973	465.82	89.7631	465.82	90.3731	465.82	88.6255	465.82	89.8491	465.82	86.8785	465.82	88.9372	465.82	84.537	465.82	87.4692	465.82	82.6064	465.82	85.5096	465.82	83.3479	465.82	84.1147	465.82	85.6108	465.82	84.9042	465.82	87.4192	465.82	86.7277	465.82	88.4148	465.82	88.0751	465.82	88.6319
483.398	93.2533	483.398	92.9812	483.398	93.3695	483.398	92.5675	483.398	93.2783	483.398	91.9788	483.398	92.9237	483.398	91.1691	483.398	92.2847	483.398	90.1731	483.398	91.4173	483.398	89.2253	483.398	90.4836	483.398	88.6865	483.398	89.7155	483.398	88.6143	483.398	89.2592	483.398	88.6159	483.398	89.0284	483.398	88.24	483.398	88.7704	483.398	87.184	483.398	88.2242	483.398	85.3079	483.398	87.1997	483.398	82.9417	483.398	85.6348	483.398	81.7346	483.398	83.8143	483.398	82.7265	483.398	82.7464	483.398	84.1549	483.398	83.2255	483.398	84.9745	483.398	84.3221	483.398	85.016
499.512	93.5557	499.512	93.4435	499.512	93.4469	499.512	93.1123	499.512	93.165	499.512	92.617	499.512	92.7788	499.512	92.0235	499.512	92.3344	499.512	91.3454	499.512	91.8288	499.512	90.547	499.512	91.2296	499.512	89.6227	499.512	90.5299	499.512	88.6337	499.512	89.7867	499.512	87.6408	499.512	89.0803	499.512	86.6108	499.512	88.381	499.512	85.4469	499.512	87.4902	499.512	84.2171	499.512	86.2016	499.512	83.4944	499.512	84.6097	499.512	84.0332	499.512	83.5311	499.512	85.4636	499.512	84.0169	499.512	86.8097	499.512	85.4957	499.512	87.5558	499.512	86.8317	499.512	87.5597
517.09	93.7265	517.09	93.5978	517.09	93.6681	517.09	93.2539	517.09	93.4518	517.09	92.6951	517.09	93.0936	517.09	91.9854	517.09	92.6076	517.09	91.2668	517.09	92.0332	517.09	90.6918	517.09	91.4508	517.09	90.269	517.09	90.958	517.09	89.8154	517.09	90.5984	517.09	89.0994	517.09	90.2822	517.09	87.9581	517.09	89.7853	517.09	86.2685	517.09	88.8247	517.09	83.9479	517.09	87.1365	517.09	81.7003	517.09	84.6452	517.09	82.3185	517.09	82.2971	517.09	85.0546	517.09	82.6358	517.09	87.145	517.09	84.8552	517.09	88.0636	517.09	86.7867	517.09	87.8997
536.133	94.1392	536.133	93.7795	536.133	94.2716	536.133	93.2585	536.133	94.1316	536.133	92.6353	536.133	93.701	536.133	91.944	536.133	92.9882	536.133	91.2235	536.133	92.046	536.133	90.564	536.133	90.9902	536.133	90.0562	536.133	89.9746	536.133	89.62	536.133	89.1094	536.133	88.9655	536.133	88.3825	536.133	87.7756	536.133	87.6471	536.133	85.8686	536.133	86.6931	536.133	83.4445	536.133	85.3714	536.133	81.8729	536.133	83.8018	536.133	82.6629	536.133	82.8146	536.133	84.3949	536.133	83.5364	536.133	85.7982	536.133	85.2102	536.133	86.6636	536.133	86.4818	536.133	86.9394
555.176	93.3687	555.176	93.2431	555.176	93.3502	555.176	92.9439	555.176	93.1867	555.176	92.4551	555.176	92.8644	555.176	91.811	555.176	92.402	555.176	91.0546	555.176	91.8545	555.176	90.1726	555.176	91.2752	555.176	89.1398	555.176	90.6813	555.176	88.0341	555.176	90.0428	555.176	86.9965	555.176	89.2797	555.176	85.9386	555.176	88.2637	555.176	84.4123	555.176	86.8238	555.176	81.9514	555.176	84.7561	555.176	79.0148	555.176	81.9756	555.176	79.2603	555.176	79.6485	555.176	82.5014	555.176	80.7148	555.176	85.1279	555.176	83.4124	555.176	86.4783	555.176	85.4983	555.176	86.5665
574.219	93.3425	574.219	93.1123	574.219	93.3673	574.219	92.6822	574.219	93.1804	574.219	92.0832	574.219	92.78	574.219	91.4102	574.219	92.1797	574.219	90.8092	574.219	91.433	574.219	90.3786	574.219	90.6741	574.219	90.0623	574.219	90.0678	574.219	89.6616	574.219	89.6255	574.219	88.9649	574.219	89.182	574.219	87.807	574.219	88.5693	574.219	85.9347	574.219	87.5972	574.219	82.7876	574.219	85.8768	574.219	78.1632	574.219	82.7489	574.219	78.7919	574.219	77.8802	574.219	82.806	574.219	78.4935	574.219	85.151	574.219	83.0403	574.219	86.2988	574.219	85.5778	574.219	86.5083
594.727	92.3107	594.727	92.1029	594.727	92.2155	594.727	91.5582	594.727	91.8997	594.727	90.7024	594.727	91.4139	594.727	89.6022	594.727	90.7242	594.727	88.4102	594.727	89.7738	594.727	87.4228	594.727	88.6198	594.727	86.966	594.727	87.5789	594.727	87.0579	594.727	87.0978	594.727	87.2565	594.727	87.1265	594.727	86.9722	594.727	87.0689	594.727	85.7713	594.727	86.4028	594.727	83.4115	594.727	84.8209	594.727	80.1993	594.727	82.0127	594.727	79.3393	594.727	78.2389	594.727	82.1254	594.727	78.3772	594.727	84.4436	594.727	81.5794	594.727	85.3168	594.727	83.7408	594.727	84.9691
615.234	90.6861	615.234	90.4831	615.234	90.7216	615.234	90.091	615.234	90.5213	615.234	89.474	615.234	89.9824	615.234	88.647	615.234	89.0942	615.234	87.6419	615.234	88.0132	615.234	86.5085	615.234	87.0012	615.234	85.3963	615.234	86.1805	615.234	84.4741	615.234	85.4289	615.234	83.724	615.234	84.7054	615.234	82.981	615.234	84.1674	615.234	81.9788	615.234	83.6933	615.234	80.1894	615.234	82.6979	615.234	76.7653	615.234	80.5485	615.234	70.3269	615.234	76.7919	615.234	66.9061	615.234	72.2903	615.234	73.3712	615.234	73.7623	615.234	76.8081	615.234	77.0015	615.234	78.0048
637.207	95.2833	637.207	95.0188	637.207	95.2559	637.207	94.5056	637.207	94.9269	637.207	93.7597	637.207	94.3551	637.207	92.8018	637.207	93.5942	637.207	91.728	637.207	92.6296	637.207	90.699	637.207	91.4611	637.207	89.9095	637.207	90.2528	637.207	89.5128	637.207	89.3198	637.207	89.3086	637.207	88.8386	637.207	88.7541	637.207	88.6216	637.207	87.4082	637.207	88.244	637.207	85.0836	637.207	87.2704	637.207	81.9053	637.207	85.3598	637.207	80.0831	637.207	82.4224	637.207	82.7347	637.207	80.4329	637.207	85.5803	637.207	82.4447	637.207	86.8093	637.207	85.0143	637.207	86.5342
659.18	94.8321	659.18	94.6071	659.18	94.8861	659.18	94.1669	659.18	94.7555	659.18	93.4771	659.18	94.3696	659.18	92.562	659.18	93.6861	659.18	91.5184	659.18	92.7286	659.18	90.4729	659.18	91.5616	659.18	89.5344	659.18	90.3523	659.18	88.8493	659.18	89.443	659.18	88.5038	659.18	89.022	659.18	88.1989	659.18	88.7623	659.18	87.3178	659.18	88.1808	659.18	85.1888	659.18	86.896	659.18	81.2604	659.18	84.3951	659.18	79.2108	659.18	79.9334	659.18	82.896	659.18	77.9819	659.18	85.4361	659.18	82.6335	659.18	86.4199	659.18	85.3869	659.18	86.4071
682.617	94.9741	682.617	94.6393	682.617	95.0269	682.617	94.0898	682.617	94.7948	682.617	93.3896	682.617	94.2979	682.617	92.5017	682.617	93.5293	682.617	91.3458	682.617	92.503	682.617	90.0537	682.617	91.3357	682.617	89.0707	682.617	90.1863	682.617	88.5928	682.617	89.1228	682.617	88.2609	682.617	88.2275	682.617	87.7705	682.617	87.6531	682.617	86.8601	682.617	87.2699	682.617	85.0346	682.617	86.5652	682.617	81.9948	682.617	84.8974	682.617	79.5149	682.617	81.5068	682.617	80.865	682.617	77.0743	682.617	83.2551	682.617	79.8686	682.617	84.7594	682.617	83.4912	682.617	84.951
707.52	94.3382	707.52	94.1679	707.52	94.2587	707.52	93.7225	707.52	93.9205	707.52	92.9322	707.52	93.3661	707.52	91.8265	707.52	92.6639	707.52	90.594	707.52	91.7786	707.52	89.339	707.52	90.5932	707.52	88.0473	707.52	89.1524	707.52	87.2641	707.52	87.8506	707.52	87.4885	707.52	87.2475	707.52	87.6771	707.52	87.3098	707.52	86.8461	707.52	87.2661	707.52	84.68	707.52	86.4571	707.52	80.6849	707.52	84.5574	707.52	74.3303	707.52	81.2726	707.52	79.1135	707.52	76.9495	707.52	84.4748	707.52	79.4396	707.52	86.7645	707.52	84.3234	707.52	86.7069
732.422	92.1966	732.422	91.8816	732.422	92.3379	732.422	91.4297	732.422	92.2607	732.422	90.8503	732.422	91.8613	732.422	89.9533	732.422	91.1313	732.422	88.5673	732.422	90.1956	732.422	87.1427	732.422	89.1174	732.422	86.5179	732.422	87.9441	732.422	86.3052	732.422	87.0079	732.422	85.6775	732.422	86.5681	732.422	84.7661	732.422	86.3069	732.422	83.6315	732.422	85.884	732.422	81.0422	732.422	84.9871	732.422	74.3979	732.422	82.8207	732.422	67.6622	732.422	77.2609	732.422	78.0384	732.422	64.6659	732.422	82.0027	732.422	77.5983	732.422	83.4416	732.422	81.2911	732.422	83.0266
757.324	92.5467	757.324	92.2777	757.324	92.5162	757.324	91.686	757.324	92.2472	757.324	90.7596	757.324	91.7842	757.324	89.6296	757.324	90.9968	757.324	88.4292	757.324	89.7421	757.324	86.8281	757.324	88.191	757.324	84.6189	757.324	86.6391	757.324	83.9237	757.324	85.1029	757.324	85.5499	757.324	84.2966	757.324	86.3654	757.324	85.0546	757.324	85.5055	757.324	85.9994	757.324	83.2929	757.324	86.0107	757.324	79.188	757.324	84.7692	757.324	69.5328	757.324	81.8729	757.324	76.8267	757.324	75.7309	757.324	81.4248	757.324	70.78	757.324	82.5811	757.324	79.1408	757.324	82.001
785.156	93.8495	785.156	93.5685	785.156	93.9361	785.156	93.1039	785.156	93.6988	785.156	92.321	785.156	93.0535	785.156	91.0595	785.156	92.1298	785.156	89.3303	785.156	91.0723	785.156	87.4728	785.156	89.7379	785.156	85.9624	785.156	88.0835	785.156	84.8111	785.156	86.71	785.156	83.877	785.156	86.007	785.156	83.8179	785.156	85.4102	785.156	84.4851	785.156	84.813	785.156	84.0096	785.156	84.3016	785.156	80.4722	785.156	83.2771	785.156	70.4243	785.156	80.5187	785.156	77.8846	785.156	74.1617	785.156	82.6394	785.156	79.1693	785.156	84.5586	785.156	83.6891	785.156	84.9795
811.523	94.7439	811.523	94.2876	811.523	94.7734	811.523	93.5718	811.523	94.3406	811.523	92.7249	811.523	93.6162	811.523	91.7132	811.523	92.8079	811.523	90.2793	811.523	91.9196	811.523	88.1218	811.523	90.6479	811.523	85.6247	811.523	88.6009	811.523	84.7643	811.523	86.1115	811.523	85.7815	811.523	85.2064	811.523	86.8694	811.523	86.1507	811.523	87.2041	811.523	87.093	811.523	86.2239	811.523	87.4346	811.523	82.9791	811.523	86.3975	811.523	74.1451	811.523	82.5326	811.523	73.8584	811.523	71.3224	811.523	82.0502	811.523	75.1762	811.523	84.9109	811.523	82.1656	811.523	84.8919
840.82	95.5564	840.82	95.4203	840.82	95.4622	840.82	94.8914	840.82	95.2182	840.82	93.9252	840.82	94.7526	840.82	92.6013	840.82	93.9519	840.82	91.1217	840.82	92.7087	840.82	89.6546	840.82	91.0483	840.82	87.7476	840.82	89.1804	840.82	84.6682	840.82	86.9806	840.82	82.4075	840.82	84.2424	840.82	84.4419	840.82	83.3614	840.82	86.1392	840.82	85.2244	840.82	86.0472	840.82	86.1728	840.82	84.3551	840.82	85.1876	840.82	80.3504	840.82	82.3842	840.82	65.0766	840.82	77.0247	840.82	78.3762	840.82	64.2601	840.82	83.6116	840.82	80.9979	840.82	84.3315
870.117	96.2681	870.117	95.9181	870.117	96.1959	870.117	95.1682	870.117	95.8973	870.117	94.2605	870.117	95.4094	870.117	93.3607	870.117	94.5655	870.117	92.2189	870.117	93.4403	870.117	90.3649	870.117	92.1678	870.117	87.8217	870.117	90.4468	870.117	85.7746	870.117	88.0646	870.117	84.2952	870.117	85.4839	870.117	82.8033	870.117	83.156	870.117	83.5991	870.117	82.6727	870.117	85.2718	870.117	84.4461	870.117	84.8929	870.117	85.6243	870.117	80.745	870.117	84.8179	870.117	76.8622	870.117	80.8316	870.117	81.7685	870.117	78.472	870.117	83.4088	870.117	81.7034	870.117	83.192
900.879	96.5174	900.879	96.193	900.879	96.5939	900.879	95.6393	900.879	96.1482	900.879	94.7099	900.879	95.2193	900.879	93.4295	900.879	94.2072	900.879	91.9614	900.879	93.1207	900.879	90.5541	900.879	91.6631	900.879	89.026	900.879	89.9635	900.879	86.2716	900.879	88.0086	900.879	81.9457	900.879	85.2377	900.879	82.7637	900.879	83.2201	900.879	85.6612	900.879	84.6941	900.879	85.5303	900.879	86.3183	900.879	81.8355	900.879	85.7431	900.879	72.4412	900.879	81.2845	900.879	71.6707	900.879	57.5444	900.879	81.4251	900.879	77.8505	900.879	84.9945	900.879	82.9472	900.879	85.2566
933.105	96.0254	933.105	95.5944	933.105	96.1102	933.105	94.7602	933.105	95.9305	933.105	93.8829	933.105	95.3363	933.105	93.0351	933.105	94.3112	933.105	91.6373	933.105	93.0271	933.105	89.6761	933.105	91.656	933.105	87.7541	933.105	90.0585	933.105	85.785	933.105	87.8758	933.105	83.9778	933.105	85.3982	933.105	83.0475	933.105	83.6327	933.105	82.2815	933.105	83.69	933.105	83.0154	933.105	84.3436	933.105	84.0456	933.105	83.899	933.105	80.7414	933.105	82.2698	933.105	54.3446	933.105	79.2752	933.105	77.4878	933.105	65.1083	933.105	82.2426	933.105	79.761	933.105	83.7608
965.332	96.0876	965.332	95.739	965.332	95.8988	965.332	95.0797	965.332	95.5134	965.332	94.1173	965.332	95.0084	965.332	92.6616	965.332	94.0997	965.332	91.4352	965.332	92.9067	965.332	90.4363	965.332	91.559	965.332	88.2334	965.332	89.9161	965.332	85.0141	965.332	87.9506	965.332	82.8869	965.332	85.1677	965.332	82.3524	965.332	81.4611	965.332	84.1257	965.332	80.7572	965.332	84.8912	965.332	82.634	965.332	82.4961	965.332	84.4711	965.332	78.6183	965.332	84.7067	965.332	68.3061	965.332	78.8618	965.332	79.3109	965.332	71.7387	965.332	83.9553	965.332	79.0679	965.332	82.176
1,000.49	94.9441	1,000.49	94.6555	1,000.49	95.3007	1,000.49	94.1763	1,000.49	94.9801	1,000.49	93.103	1,000.49	94.0687	1,000.49	92.2785	1,000.49	93.3273	1,000.49	91.6035	1,000.49	92.5932	1,000.49	90.0029	1,000.49	91.5631	1,000.49	87.6088	1,000.49	90.1602	1,000.49	85.2769	1,000.49	87.8353	1,000.49	82.5106	1,000.49	84.6613	1,000.49	80.3699	1,000.49	81.8525	1,000.49	81.8297	1,000.49	80.9953	1,000.49	84.3221	1,000.49	83.1666	1,000.49	85.2749	1,000.49	83.938	1,000.49	82.3808	1,000.49	83.0607	1,000.49	69.7757	1,000.49	82.5008	1,000.49	73.6649	1,000.49	76.7104	1,000.49	77.8682	1,000.49	74.2071	1,000.49	79.7751
1,035.64	94.5808	1,035.64	94.3358	1,035.64	94.5543	1,035.64	93.8958	1,035.64	94.5004	1,035.64	93.0789	1,035.64	94.226	1,035.64	91.7304	1,035.64	93.2419	1,035.64	90.5383	1,035.64	91.9274	1,035.64	89.3985	1,035.64	90.7736	1,035.64	87.5008	1,035.64	89.3095	1,035.64	85.7237	1,035.64	87.3916	1,035.64	83.0579	1,035.64	85.725	1,035.64	77.8534	1,035.64	83.2427	1,035.64	80.1649	1,035.64	78.9257	1,035.64	82.912	1,035.64	80.4604	1,035.64	82.1985	1,035.64	82.9445	1,035.64	78.4765	1,035.64	83.0749	1,035.64	67.0036	1,035.64	76.6525	1,035.64	77.2018	1,035.64	72.7918	1,035.64	81.4823	1,035.64	78.5061	1,035.64	80.2486
1,072.27	93.2875	1,072.27	92.9063	1,072.27	93.4104	1,072.27	92.1017	1,072.27	93.1317	1,072.27	90.8401	1,072.27	92.3883	1,072.27	89.4307	1,072.27	91.3512	1,072.27	88.2065	1,072.27	90.089	1,072.27	87.4007	1,072.27	88.7738	1,072.27	86.5445	1,072.27	87.5549	1,072.27	84.9035	1,072.27	86.3129	1,072.27	82.4387	1,072.27	84.5492	1,072.27	80.2372	1,072.27	82.355	1,072.27	78.5886	1,072.27	80.5441	1,072.27	79.9153	1,072.27	80.7388	1,072.27	80.8169	1,072.27	81.7496	1,072.27	80.1323	1,072.27	79.9178	1,072.27	72.8304	1,072.27	80.4972	1,072.27	73.7297	1,072.27	77.6577	1,072.27	79.281	1,072.27	61.0374	1,072.27	77.892
1,108.89	93.3116	1,108.89	92.7987	1,108.89	93.24	1,108.89	91.6329	1,108.89	92.7124	1,108.89	89.895	1,108.89	91.8442	1,108.89	88.548	1,108.89	90.5803	1,108.89	87.8316	1,108.89	89.385	1,108.89	86.6334	1,108.89	88.2724	1,108.89	84.7367	1,108.89	86.5501	1,108.89	82.9473	1,108.89	85.2696	1,108.89	81.1346	1,108.89	85.2547	1,108.89	77.8271	1,108.89	83.6967	1,108.89	75.1337	1,108.89	77.1777	1,108.89	76.6756	1,108.89	71.1069	1,108.89	78.7924	1,108.89	78.1278	1,108.89	76.6516	1,108.89	81.731	1,108.89	66.9568	1,108.89	80.0782	1,108.89	71.221	1,108.89	72.9509	1,108.89	77.3203	1,108.89	72.8732	1,108.89	76.9732
1,148.44	92.8592	1,148.44	92.3701	1,148.44	93.0433	1,148.44	91.1706	1,148.44	92.5739	1,148.44	89.6054	1,148.44	91.5959	1,148.44	88.5306	1,148.44	90.3835	1,148.44	87.1205	1,148.44	88.3515	1,148.44	85.2201	1,148.44	86.3266	1,148.44	84.6111	1,148.44	85.3869	1,148.44	84.8053	1,148.44	84.9617	1,148.44	82.5655	1,148.44	84.3663	1,148.44	79.1057	1,148.44	82.1141	1,148.44	79.6351	1,148.44	79.8753	1,148.44	80.4461	1,148.44	79.71	1,148.44	79.8409	1,148.44	78.7193	1,148.44	77.8734	1,148.44	78.6971	1,148.44	72.6568	1,148.44	78.0073	1,148.44	72.4835	1,148.44	77.4791	1,148.44	78.811	1,148.44	67.8601	1,148.44	73.979
1,189.45	93.1101	1,189.45	92.4636	1,189.45	93.2505	1,189.45	91.5301	1,189.45	92.9127	1,189.45	90.3225	1,189.45	92.1194	1,189.45	88.707	1,189.45	91.0318	1,189.45	87.1505	1,189.45	89.5906	1,189.45	86.1221	1,189.45	87.7538	1,189.45	85.3874	1,189.45	86.2839	1,189.45	84.0486	1,189.45	84.8043	1,189.45	81.6156	1,189.45	83.1605	1,189.45	79.6228	1,189.45	82.3351	1,189.45	77.3783	1,189.45	80.1684	1,189.45	80.8805	1,189.45	78.6451	1,189.45	83.2023	1,189.45	81.932	1,189.45	80.2515	1,189.45	83.7317	1,189.45	73.8067	1,189.45	81.9368	1,189.45	69.6856	1,189.45	71.9883	1,189.45	69.1158	1,189.45	71.94	1,189.45	73.3993
1,230.47	93.4696	1,230.47	93.0157	1,230.47	93.4849	1,230.47	92.0675	1,230.47	93.2676	1,230.47	90.6853	1,230.47	92.3703	1,230.47	88.8469	1,230.47	91.0035	1,230.47	87.4108	1,230.47	89.2127	1,230.47	85.9965	1,230.47	87.1611	1,230.47	84.2545	1,230.47	86.0197	1,230.47	83.7496	1,230.47	84.7102	1,230.47	83.3624	1,230.47	83.9265	1,230.47	81.1929	1,230.47	83.3625	1,230.47	75.6219	1,230.47	80.0196	1,230.47	77.516	1,230.47	75.798	1,230.47	79.7253	1,230.47	78.2622	1,230.47	82.0638	1,230.47	81.5094	1,230.47	80.9367	1,230.47	81.2086	1,230.47	75.2084	1,230.47	80.2161	1,230.47	72.9013	1,230.47	73.6271	1,230.47	72.0998
1,274.41	93.5221	1,274.41	93.1773	1,274.41	93.4487	1,274.41	92.3231	1,274.41	92.9779	1,274.41	90.866	1,274.41	92.1694	1,274.41	89.3717	1,274.41	90.804	1,274.41	87.3962	1,274.41	89.1841	1,274.41	85.3547	1,274.41	87.588	1,274.41	84.9574	1,274.41	85.6505	1,274.41	83.9247	1,274.41	84.2887	1,274.41	82.6974	1,274.41	84.4134	1,274.41	81.938	1,274.41	83.1366	1,274.41	78.6063	1,274.41	79.548	1,274.41	75.4387	1,274.41	76.601	1,274.41	79.0707	1,274.41	76.7335	1,274.41	79.8603	1,274.41	81.3065	1,274.41	75.282	1,274.41	80.9755	1,274.41	64.6461	1,274.41	75.5975	1,274.41	68.998	1,274.41	64.8077	1,274.41	72.5568
1,319.82	94.2587	1,319.82	93.9347	1,319.82	94.2686	1,319.82	92.8718	1,319.82	93.7496	1,319.82	91.9122	1,319.82	92.5685	1,319.82	90.5239	1,319.82	91.3503	1,319.82	88.0472	1,319.82	89.8762	1,319.82	86.3011	1,319.82	87.9758	1,319.82	85.4511	1,319.82	85.5382	1,319.82	84.4527	1,319.82	84.9885	1,319.82	82.6194	1,319.82	84.6769	1,319.82	80.6854	1,319.82	82.7235	1,319.82	78.6215	1,319.82	82.2363	1,319.82	76.1842	1,319.82	79.7722	1,319.82	80.4007	1,319.82	76.9386	1,319.82	81.8062	1,319.82	79.4155	1,319.82	78.9135	1,319.82	82.8753	1,319.82	68.4291	1,319.82	79.9919	1,319.82	70.0411	1,319.82	63.6075	1,319.82	68.91
1,366.7	94.4873	1,366.7	93.5929	1,366.7	94.0987	1,366.7	92.6679	1,366.7	93.4395	1,366.7	91.3507	1,366.7	92.8101	1,366.7	89.6164	1,366.7	91.275	1,366.7	88.1826	1,366.7	89.3122	1,366.7	86.3147	1,366.7	87.5857	1,366.7	84.2289	1,366.7	86.5943	1,366.7	82.2274	1,366.7	84.5378	1,366.7	81.2002	1,366.7	82.6494	1,366.7	80.9621	1,366.7	82.4574	1,366.7	78.8417	1,366.7	81.8543	1,366.7	75.3879	1,366.7	77.1129	1,366.7	79.124	1,366.7	74.7394	1,366.7	81.2209	1,366.7	79.813	1,366.7	78.1244	1,366.7	79.3041	1,366.7	69.0785	1,366.7	77.1813	1,366.7	70.5124	1,366.7	69.5365	1,366.7	70.8083
1,413.57	93.5172	1,413.57	93.1278	1,413.57	93.8284	1,413.57	92.3515	1,413.57	93.0907	1,413.57	91.0855	1,413.57	91.7695	1,413.57	89.7076	1,413.57	90.8003	1,413.57	87.6798	1,413.57	89.5468	1,413.57	86.2326	1,413.57	86.8169	1,413.57	84.7209	1,413.57	85.4777	1,413.57	81.5234	1,413.57	84.6507	1,413.57	81.7207	1,413.57	81.4472	1,413.57	81.4868	1,413.57	80.9586	1,413.57	79.375	1,413.57	79.7096	1,413.57	76.8524	1,413.57	78.5048	1,413.57	77.0477	1,413.57	69.9561	1,413.57	80.5585	1,413.57	76.9392	1,413.57	78.5228	1,413.57	80.6731	1,413.57	76.8499	1,413.57	78.2617	1,413.57	70.7542	1,413.57	75.7761	1,413.57	67.6755
1,463.38	92.9598	1,463.38	92.5975	1,463.38	92.8687	1,463.38	91.7802	1,463.38	92.3517	1,463.38	90.3762	1,463.38	91.7771	1,463.38	88.772	1,463.38	90.3769	1,463.38	87.3597	1,463.38	88.0539	1,463.38	85.7395	1,463.38	86.9297	1,463.38	84.4531	1,463.38	84.9491	1,463.38	84.2787	1,463.38	82.7968	1,463.38	82.7298	1,463.38	83.3658	1,463.38	80.1648	1,463.38	81.3299	1,463.38	79.5963	1,463.38	79.7393	1,463.38	78.6565	1,463.38	79.7085	1,463.38	75.3995	1,463.38	77.0297	1,463.38	79.8451	1,463.38	73.7745	1,463.38	77.6579	1,463.38	77.5051	1,463.38	73.3431	1,463.38	77.7586	1,463.38	66.9019	1,463.38	73.1958	1,463.38	61.3341
1,516.11	92.7753	1,516.11	92.1776	1,516.11	92.5588	1,516.11	90.6352	1,516.11	92.278	1,516.11	89.0348	1,516.11	91.0015	1,516.11	88.2531	1,516.11	88.5603	1,516.11	86.1264	1,516.11	88.621	1,516.11	83.3365	1,516.11	86.7935	1,516.11	81.8865	1,516.11	82.9485	1,516.11	81.3104	1,516.11	82.0563	1,516.11	81.3169	1,516.11	79.7355	1,516.11	78.5498	1,516.11	80.5293	1,516.11	78.4474	1,516.11	77.5908	1,516.11	74.0428	1,516.11	75.1126	1,516.11	79.2446	1,516.11	72.5077	1,516.11	78.5429	1,516.11	73.4023	1,516.11	76.3924	1,516.11	74.8436	1,516.11	69.5952	1,516.11	75.6551	1,516.11	70.6174	1,516.11	71.246	1,516.11	68.0102
1,568.85	92.1564	1,568.85	91.4902	1,568.85	91.8764	1,568.85	90.2112	1,568.85	91.4908	1,568.85	88.995	1,568.85	90.4596	1,568.85	86.816	1,568.85	89.3028	1,568.85	85.2663	1,568.85	87.8549	1,568.85	83.3894	1,568.85	84.8513	1,568.85	81.4582	1,568.85	83.999	1,568.85	81.8581	1,568.85	81.242	1,568.85	80.6558	1,568.85	81.0546	1,568.85	80.6822	1,568.85	78.8913	1,568.85	78.9899	1,568.85	77.6922	1,568.85	76.301	1,568.85	78.5874	1,568.85	75.6182	1,568.85	76.6722	1,568.85	78.3315	1,568.85	74.7239	1,568.85	78.7489	1,568.85	77.4598	1,568.85	74.1297	1,568.85	77.7695	1,568.85	65.9386	1,568.85	74.0471	1,568.85	68.4089
1,624.51	92.8978	1,624.51	92.3954	1,624.51	92.9215	1,624.51	91.3244	1,624.51	92.4282	1,624.51	89.6424	1,624.51	91.5132	1,624.51	87.8235	1,624.51	89.8366	1,624.51	85.4564	1,624.51	88.1662	1,624.51	84.1578	1,624.51	86.4305	1,624.51	82.2377	1,624.51	84.9578	1,624.51	80.5691	1,624.51	82.3902	1,624.51	80.4823	1,624.51	81.481	1,624.51	77.8797	1,624.51	81.4175	1,624.51	76.7327	1,624.51	79.8592	1,624.51	74.778	1,624.51	78.1557	1,624.51	70.6185	1,624.51	77.126	1,624.51	74.6049	1,624.51	72.6664	1,624.51	75.9501	1,624.51	75.5342	1,624.51	73.6321	1,624.51	76.9236	1,624.51	71.4166	1,624.51	74.6951	1,624.51	70.0906
1,681.64	93.9127	1,681.64	93.3839	1,681.64	93.907	1,681.64	92.2253	1,681.64	93.2637	1,681.64	90.548	1,681.64	92.2973	1,681.64	88.8174	1,681.64	90.7191	1,681.64	87.3399	1,681.64	88.8973	1,681.64	85.2638	1,681.64	87.0217	1,681.64	82.0546	1,681.64	84.3793	1,681.64	80.5578	1,681.64	83.0405	1,681.64	79.2394	1,681.64	81.6665	1,681.64	78.0678	1,681.64	81.029	1,681.64	78.0975	1,681.64	79.7086	1,681.64	78.0451	1,681.64	78.2168	1,681.64	74.1485	1,681.64	77.5415	1,681.64	74.2163	1,681.64	73.6281	1,681.64	72.4017	1,681.64	77.1816	1,681.64	73.9444	1,681.64	75.2855	1,681.64	66.7978	1,681.64	73.3633	1,681.64	71.7368
1,741.7	94.8401	1,741.7	94.2609	1,741.7	94.8333	1,741.7	93.3095	1,741.7	94.0705	1,741.7	91.7767	1,741.7	92.9025	1,741.7	89.9676	1,741.7	91.4623	1,741.7	88.538	1,741.7	89.754	1,741.7	86.648	1,741.7	88.1186	1,741.7	84.9293	1,741.7	86.3691	1,741.7	81.9197	1,741.7	83.9505	1,741.7	80.8697	1,741.7	80.8751	1,741.7	80.0475	1,741.7	80.3901	1,741.7	78.1881	1,741.7	78.9055	1,741.7	76.9794	1,741.7	78.8155	1,741.7	76.9726	1,741.7	78.2837	1,741.7	77.3415	1,741.7	77.4192	1,741.7	77.6638	1,741.7	76.2956	1,741.7	71.9494	1,741.7	78.5183	1,741.7	73.1763	1,741.7	74.1221	1,741.7	73.8272
1,803.22	94.583	1,803.22	93.9639	1,803.22	94.2888	1,803.22	92.9688	1,803.22	93.8427	1,803.22	91.723	1,803.22	92.5798	1,803.22	90.103	1,803.22	91.141	1,803.22	88.1545	1,803.22	89.1203	1,803.22	86.1885	1,803.22	87.199	1,803.22	83.9803	1,803.22	85.3971	1,803.22	82.4863	1,803.22	83.1129	1,803.22	81.3471	1,803.22	81.0229	1,803.22	79.6693	1,803.22	79.3919	1,803.22	78.469	1,803.22	78.658	1,803.22	78.4534	1,803.22	76.9189	1,803.22	76.3086	1,803.22	76.9977	1,803.22	77.7962	1,803.22	73.1712	1,803.22	79.337	1,803.22	77.3249	1,803.22	77.4908	1,803.22	77.7397	1,803.22	76.4871	1,803.22	73.6376	1,803.22	76.0439
1,866.21	93.5386	1,866.21	93.1743	1,866.21	93.7144	1,866.21	92.1039	1,866.21	92.7919	1,866.21	90.4127	1,866.21	91.716	1,866.21	88.6519	1,866.21	89.9981	1,866.21	87.0298	1,866.21	88.5225	1,866.21	86.3534	1,866.21	86.3846	1,866.21	84.131	1,866.21	84.8201	1,866.21	81.194	1,866.21	83.1204	1,866.21	80.8093	1,866.21	79.7737	1,866.21	79.5235	1,866.21	79.3527	1,866.21	77.9714	1,866.21	78.3569	1,866.21	78.6617	1,866.21	76.0661	1,866.21	77.7235	1,866.21	78.1624	1,866.21	76.9862	1,866.21	74.2622	1,866.21	76.2866	1,866.21	73.5879	1,866.21	71.4263	1,866.21	77.5487	1,866.21	72.7374	1,866.21	75.6939	1,866.21	73.1417
1,932.13	93.0778	1,932.13	92.5479	1,932.13	93.0302	1,932.13	91.1095	1,932.13	92.3337	1,932.13	89.5632	1,932.13	91.4546	1,932.13	88.2744	1,932.13	90.1596	1,932.13	86.1831	1,932.13	88.1507	1,932.13	84.134	1,932.13	86.678	1,932.13	82.9109	1,932.13	84.684	1,932.13	80.8797	1,932.13	83.834	1,932.13	78.9404	1,932.13	80.9284	1,932.13	77.2557	1,932.13	78.558	1,932.13	75.709	1,932.13	78.0333	1,932.13	77.2965	1,932.13	75.9318	1,932.13	75.4356	1,932.13	75.5828	1,932.13	77.2706	1,932.13	76.7775	1,932.13	79.5281	1,932.13	75.9361	1,932.13	75.2486	1,932.13	76.8914	1,932.13	75.2708	1,932.13	73.0924	1,932.13	74.3744
1,999.51	93.7429	1,999.51	93.0473	1,999.51	93.8111	1,999.51	92.2234	1,999.51	93.3788	1,999.51	90.5216	1,999.51	92.1371	1,999.51	88.4354	1,999.51	90.9067	1,999.51	87.0139	1,999.51	89.4866	1,999.51	85.0027	1,999.51	87.9218	1,999.51	82.8427	1,999.51	86.0165	1,999.51	79.0027	1,999.51	83.9382	1,999.51	78.2962	1,999.51	80.7938	1,999.51	79.9811	1,999.51	79.0628	1,999.51	76.5957	1,999.51	80.4085	1,999.51	76.9977	1,999.51	74.5864	1,999.51	76.1047	1,999.51	77.4619	1,999.51	74.3017	1,999.51	77.3583	1,999.51	76.2139	1,999.51	76.081	1,999.51	73.9741	1,999.51	78.2006	1,999.51	74.8895	1,999.51	77.1249	1,999.51	73.9415
2,069.82	94.444	2,069.82	94.1246	2,069.82	94.5671	2,069.82	92.9341	2,069.82	93.7918	2,069.82	91.5891	2,069.82	92.792	2,069.82	89.8519	2,069.82	91.4191	2,069.82	87.8696	2,069.82	89.9578	2,069.82	85.8484	2,069.82	87.8418	2,069.82	83.7724	2,069.82	86.1732	2,069.82	82.7964	2,069.82	83.9384	2,069.82	78.4351	2,069.82	81.6603	2,069.82	77.3811	2,069.82	79.6626	2,069.82	75.243	2,069.82	76.8848	2,069.82	73.0893	2,069.82	77.2365	2,069.82	77.3211	2,069.82	75.8357	2,069.82	74.3675	2,069.82	76.7269	2,069.82	78.5937	2,069.82	74.5454	2,069.82	72.9664	2,069.82	76.9568	2,069.82	73.9509	2,069.82	73.5121	2,069.82	76.3004
2,143.07	94.2131	2,143.07	93.6475	2,143.07	93.9921	2,143.07	92.8884	2,143.07	93.4972	2,143.07	91.8102	2,143.07	92.491	2,143.07	90.3734	2,143.07	91.3309	2,143.07	88.1931	2,143.07	89.6815	2,143.07	85.523	2,143.07	87.6539	2,143.07	84.2655	2,143.07	85.2354	2,143.07	81.9338	2,143.07	84.0174	2,143.07	79.2604	2,143.07	81.5017	2,143.07	78.9468	2,143.07	76.734	2,143.07	78.1799	2,143.07	79.3742	2,143.07	75.7122	2,143.07	77.0767	2,143.07	75.8456	2,143.07	73.739	2,143.07	74.1827	2,143.07	76.576	2,143.07	74.9798	2,143.07	76.6818	2,143.07	75.2857	2,143.07	77.5879	2,143.07	74.4562	2,143.07	75.8396	2,143.07	73.6569
2,219.24	92.651	2,219.24	92.257	2,219.24	92.6212	2,219.24	91.6334	2,219.24	92.077	2,219.24	90.6334	2,219.24	91.1758	2,219.24	89.1493	2,219.24	90.0086	2,219.24	87.3966	2,219.24	88.5938	2,219.24	85.6364	2,219.24	85.7331	2,219.24	83.4037	2,219.24	84.2317	2,219.24	81.1649	2,219.24	81.6237	2,219.24	78.9081	2,219.24	79.3686	2,219.24	79.0615	2,219.24	77.8672	2,219.24	76.5021	2,219.24	75.518	2,219.24	73.1163	2,219.24	75.0198	2,219.24	75.9464	2,219.24	70.0785	2,219.24	75.9259	2,219.24	73.9156	2,219.24	77.9574	2,219.24	70.5045	2,219.24	74.5398	2,219.24	74.3373	2,219.24	73.9299	2,219.24	71.8779	2,219.24	74.7153
2,296.88	91.8053	2,296.88	91.3991	2,296.88	91.9092	2,296.88	90.482	2,296.88	91.3088	2,296.88	89.2505	2,296.88	90.9525	2,296.88	87.7763	2,296.88	89.7203	2,296.88	86.1252	2,296.88	88.7065	2,296.88	83.9046	2,296.88	86.9943	2,296.88	81.7775	2,296.88	84.6976	2,296.88	81.2518	2,296.88	81.271	2,296.88	78.3683	2,296.88	80.9398	2,296.88	76.7054	2,296.88	79.172	2,296.88	76.8971	2,296.88	75.0593	2,296.88	71.7237	2,296.88	77.7774	2,296.88	73.8401	2,296.88	70.4859	2,296.88	73.629	2,296.88	74.2606	2,296.88	75.7321	2,296.88	74.1834	2,296.88	73.139	2,296.88	75.6095	2,296.88	73.1839	2,296.88	72.8915	2,296.88	68.6438
2,378.91	92.8385	2,378.91	92.3222	2,378.91	92.9261	2,378.91	91.323	2,378.91	92.6722	2,378.91	90.1407	2,378.91	92.0325	2,378.91	88.3744	2,378.91	91.1029	2,378.91	86.0148	2,378.91	89.7521	2,378.91	83.2915	2,378.91	87.8407	2,378.91	80.5885	2,378.91	85.3489	2,378.91	79.5045	2,378.91	82.9577	2,378.91	77.081	2,378.91	81.5897	2,378.91	73.9423	2,378.91	79.0991	2,378.91	76.6338	2,378.91	77.9115	2,378.91	72.3646	2,378.91	77.1795	2,378.91	71.4856	2,378.91	74.5701	2,378.91	71.1565	2,378.91	74.7794	2,378.91	73.6356	2,378.91	74.2015	2,378.91	70.8445	2,378.91	75.6399	2,378.91	70.6911	2,378.91	75.0846	2,378.91	69.0403
2,462.4	94.6143	2,462.4	94.2644	2,462.4	94.6219	2,462.4	93.5255	2,462.4	94.3463	2,462.4	92.4338	2,462.4	93.5001	2,462.4	90.5686	2,462.4	92.4067	2,462.4	88.4403	2,462.4	90.4844	2,462.4	85.7441	2,462.4	88.3734	2,462.4	82.7196	2,462.4	85.8145	2,462.4	80.1696	2,462.4	83.2687	2,462.4	78.3303	2,462.4	80.6064	2,462.4	75.6276	2,462.4	78.8628	2,462.4	75.3056	2,462.4	77.0771	2,462.4	74.7669	2,462.4	77.6684	2,462.4	71.5231	2,462.4	75.61	2,462.4	71.4099	2,462.4	74.3357	2,462.4	75.0759	2,462.4	73.976	2,462.4	73.6737	2,462.4	75.8989	2,462.4	70.2299	2,462.4	74.4371	2,462.4	73.3065
2,548.83	95.2934	2,548.83	94.8316	2,548.83	95.1688	2,548.83	94.112	2,548.83	94.6821	2,548.83	92.9985	2,548.83	93.8708	2,548.83	91.3881	2,548.83	92.4388	2,548.83	89.1937	2,548.83	90.56	2,548.83	86.5297	2,548.83	88.3216	2,548.83	84.2417	2,548.83	85.9705	2,548.83	81.5714	2,548.83	83.0647	2,548.83	80.4216	2,548.83	80.738	2,548.83	77.5696	2,548.83	78.9782	2,548.83	77.3858	2,548.83	76.3368	2,548.83	76.2964	2,548.83	76.3838	2,548.83	74.8609	2,548.83	76.0504	2,548.83	75.2056	2,548.83	75.094	2,548.83	74.5204	2,548.83	74.48	2,548.83	73.7101	2,548.83	75.6329	2,548.83	70.4658	2,548.83	73.5577	2,548.83	71.0424
2,639.65	94.1085	2,639.65	93.7778	2,639.65	94.366	2,639.65	93.3947	2,639.65	93.987	2,639.65	92.0687	2,639.65	93.6949	2,639.65	90.7198	2,639.65	92.23	2,639.65	88.8418	2,639.65	90.5308	2,639.65	85.9925	2,639.65	87.9889	2,639.65	83.6848	2,639.65	85.6859	2,639.65	82.57	2,639.65	83.5507	2,639.65	80.1114	2,639.65	82.2565	2,639.65	78.7553	2,639.65	79.5643	2,639.65	78.009	2,639.65	76.4496	2,639.65	77.8109	2,639.65	76.1181	2,639.65	74.5801	2,639.65	76.0001	2,639.65	76.0276	2,639.65	74.8656	2,639.65	75.9379	2,639.65	75.2192	2,639.65	73.7804	2,639.65	74.4603	2,639.65	72.7034	2,639.65	73.5668	2,639.65	72.5743
2,731.93	93.1189	2,731.93	93.098	2,731.93	92.985	2,731.93	92.2733	2,731.93	93.2986	2,731.93	91.5325	2,731.93	92.7026	2,731.93	89.2546	2,731.93	91.8793	2,731.93	86.9531	2,731.93	89.8464	2,731.93	85.0866	2,731.93	87.5574	2,731.93	83.1826	2,731.93	85.11	2,731.93	80.435	2,731.93	82.9469	2,731.93	78.3811	2,731.93	80.6534	2,731.93	75.7621	2,731.93	78.2886	2,731.93	76.5084	2,731.93	77.6401	2,731.93	76.6436	2,731.93	76.3611	2,731.93	74.3605	2,731.93	76.6797	2,731.93	74.6544	2,731.93	74.7165	2,731.93	75.3887	2,731.93	76.0136	2,731.93	73.5317	2,731.93	74.7545	2,731.93	69.0231	2,731.93	74.1827	2,731.93	66.0821
2,828.61	93.6433	2,828.61	93.6788	2,828.61	93.4197	2,828.61	93.3089	2,828.61	93.6801	2,828.61	92.0536	2,828.61	93.0902	2,828.61	89.491	2,828.61	92.0331	2,828.61	86.2883	2,828.61	89.8967	2,828.61	84.8056	2,828.61	87.6495	2,828.61	82.189	2,828.61	85.1772	2,828.61	79.5672	2,828.61	82.923	2,828.61	78.8449	2,828.61	80.3234	2,828.61	76.9424	2,828.61	78.614	2,828.61	74.5876	2,828.61	77.0315	2,828.61	76.2589	2,828.61	76.0211	2,828.61	73.8978	2,828.61	76.3804	2,828.61	75.0928	2,828.61	72.7656	2,828.61	74.6437	2,828.61	75.2865	2,828.61	74.3093	2,828.61	74.4691	2,828.61	68.7114	2,828.61	74.0971	2,828.61	67.8895
2,928.22	94.2929	2,928.22	94.2051	2,928.22	94.3535	2,928.22	93.9967	2,928.22	93.9844	2,928.22	92.7063	2,928.22	93.7539	2,928.22	90.479	2,928.22	92.3632	2,928.22	88.0089	2,928.22	90.5191	2,928.22	85.222	2,928.22	88.0582	2,928.22	82.4345	2,928.22	86.0075	2,928.22	80.3225	2,928.22	83.3244	2,928.22	79.0881	2,928.22	80.5874	2,928.22	76.5122	2,928.22	79.5961	2,928.22	75.5145	2,928.22	76.3822	2,928.22	75.1513	2,928.22	75.4474	2,928.22	75.0192	2,928.22	75.9532	2,928.22	76.0359	2,928.22	74.7138	2,928.22	74.5485	2,928.22	75.2453	2,928.22	75.2296	2,928.22	74.8812	2,928.22	64.973	2,928.22	75.1797	2,928.22	67.2773
3,030.76	94.3247	3,030.76	94.3341	3,030.76	94.6069	3,030.76	93.7247	3,030.76	94.1235	3,030.76	92.6259	3,030.76	93.7216	3,030.76	90.6842	3,030.76	92.5149	3,030.76	89.2485	3,030.76	90.4143	3,030.76	85.8295	3,030.76	87.7919	3,030.76	83.7234	3,030.76	85.3662	3,030.76	81.1208	3,030.76	83.1387	3,030.76	79.0007	3,030.76	80.7216	3,030.76	76.3054	3,030.76	78.8714	3,030.76	75.4681	3,030.76	75.5643	3,030.76	75.6263	3,030.76	74.4683	3,030.76	73.6672	3,030.76	75.1719	3,030.76	75.6457	3,030.76	73.9682	3,030.76	74.7163	3,030.76	74.594	3,030.76	74.7887	3,030.76	75.0864	3,030.76	71.1258	3,030.76	75.9982	3,030.76	69.7747
3,137.7	93.9605	3,137.7	94.0804	3,137.7	93.7654	3,137.7	93.5017	3,137.7	94.1215	3,137.7	92.1928	3,137.7	93.2649	3,137.7	90.3608	3,137.7	91.7237	3,137.7	87.5462	3,137.7	89.4315	3,137.7	85.2497	3,137.7	87.3836	3,137.7	83.4939	3,137.7	85.2382	3,137.7	81.6808	3,137.7	82.717	3,137.7	78.5912	3,137.7	80.8591	3,137.7	76.5132	3,137.7	78.3357	3,137.7	76.1178	3,137.7	76.0586	3,137.7	75.9126	3,137.7	74.2783	3,137.7	74.3144	3,137.7	74.433	3,137.7	75.1924	3,137.7	73.8106	3,137.7	75.1802	3,137.7	75.5315	3,137.7	76.2721	3,137.7	73.4984	3,137.7	71.5524	3,137.7	76.0383	3,137.7	70.9235
3,249.02	93.3551	3,249.02	93.5629	3,249.02	93.188	3,249.02	92.7048	3,249.02	93.5226	3,249.02	91.035	3,249.02	92.867	3,249.02	89.1617	3,249.02	91.44	3,249.02	86.787	3,249.02	89.478	3,249.02	84.743	3,249.02	87.3198	3,249.02	82.7155	3,249.02	84.6427	3,249.02	81.0903	3,249.02	82.107	3,249.02	79.0816	3,249.02	80.3449	3,249.02	77.2612	3,249.02	78.313	3,249.02	75.9664	3,249.02	76.702	3,249.02	74.3288	3,249.02	73.8073	3,249.02	75.0989	3,249.02	72.9621	3,249.02	75.3992	3,249.02	73.4622	3,249.02	74.5923	3,249.02	75.2887	3,249.02	76.1897	3,249.02	74.1175	3,249.02	68.2909	3,249.02	75.4889	3,249.02	64.4956
3,363.28	93.8095	3,363.28	93.9369	3,363.28	93.7403	3,363.28	93.5123	3,363.28	93.7018	3,363.28	91.9563	3,363.28	93.1876	3,363.28	89.6392	3,363.28	91.2417	3,363.28	86.9495	3,363.28	89.4499	3,363.28	84.787	3,363.28	87.5994	3,363.28	82.3386	3,363.28	85.351	3,363.28	80.6593	3,363.28	82.7148	3,363.28	77.7933	3,363.28	80.7099	3,363.28	77.1362	3,363.28	78.0128	3,363.28	74.1462	3,363.28	77.1221	3,363.28	73.9603	3,363.28	74.3202	3,363.28	73.9721	3,363.28	72.3009	3,363.28	74.9432	3,363.28	72.4697	3,363.28	73.4311	3,363.28	72.9429	3,363.28	74.6036	3,363.28	73.3427	3,363.28	65.8437	3,363.28	74.8529	3,363.28	68.4723
3,481.93	94.4329	3,481.93	94.3569	3,481.93	94.4817	3,481.93	93.8852	3,481.93	94.2389	3,481.93	92.5003	3,481.93	93.8469	3,481.93	90.2613	3,481.93	92.3377	3,481.93	89.2124	3,481.93	90.4806	3,481.93	86.6419	3,481.93	88.219	3,481.93	83.8138	3,481.93	85.9109	3,481.93	81.7099	3,481.93	83.4809	3,481.93	79.0707	3,481.93	80.9392	3,481.93	77.6651	3,481.93	79.163	3,481.93	74.6458	3,481.93	77.992	3,481.93	74.4826	3,481.93	76.2915	3,481.93	73.6218	3,481.93	75.2972	3,481.93	75.1587	3,481.93	73.9291	3,481.93	75.0108	3,481.93	74.6663	3,481.93	75.362	3,481.93	75.338	3,481.93	67.993	3,481.93	76.4985	3,481.93	68.8936
3,604.98	95.0566	3,604.98	94.6878	3,604.98	94.8944	3,604.98	93.9676	3,604.98	94.922	3,604.98	92.612	3,604.98	94.3464	3,604.98	91.0477	3,604.98	93.4305	3,604.98	89.1569	3,604.98	91.5776	3,604.98	87.2053	3,604.98	89.2837	3,604.98	84.1162	3,604.98	87.4989	3,604.98	81.3903	3,604.98	84.6249	3,604.98	79.0679	3,604.98	82.2203	3,604.98	77.4204	3,604.98	80.5551	3,604.98	75.0778	3,604.98	78.5767	3,604.98	74.5559	3,604.98	76.8545	3,604.98	74.0197	3,604.98	74.9957	3,604.98	73.934	3,604.98	74.9991	3,604.98	75.8139	3,604.98	75.8713	3,604.98	76.2901	3,604.98	75.9966	3,604.98	63.9671	3,604.98	77.1583	3,604.98	67.5059
3,732.42	95.147	3,732.42	95.409	3,732.42	95.0366	3,732.42	94.682	3,732.42	95.2243	3,732.42	93.3139	3,732.42	94.5087	3,732.42	92.0974	3,732.42	92.9943	3,732.42	89.5615	3,732.42	91.3017	3,732.42	86.898	3,732.42	89.4697	3,732.42	84.3352	3,732.42	87.2604	3,732.42	81.7364	3,732.42	84.0588	3,732.42	79.1073	3,732.42	81.8	3,732.42	76.9691	3,732.42	79.4169	3,732.42	74.1113	3,732.42	77.7291	3,732.42	74.6436	3,732.42	74.6262	3,732.42	73.9405	3,732.42	75.0788	3,732.42	74.3006	3,732.42	74.7377	3,732.42	74.6009	3,732.42	73.0912	3,732.42	74.9774	3,732.42	74.1483	3,732.42	63.139	3,732.42	75.4981	3,732.42	64.2284
3,864.26	94.2602	3,864.26	93.9311	3,864.26	94.3438	3,864.26	93.2262	3,864.26	94.018	3,864.26	91.5945	3,864.26	93.1453	3,864.26	89.8826	3,864.26	91.646	3,864.26	87.8984	3,864.26	90.0058	3,864.26	85.5447	3,864.26	88.3591	3,864.26	82.7189	3,864.26	85.2514	3,864.26	80.5647	3,864.26	82.2061	3,864.26	77.2886	3,864.26	79.6413	3,864.26	76.4034	3,864.26	77.4068	3,864.26	73.8085	3,864.26	74.7101	3,864.26	74.0283	3,864.26	75.078	3,864.26	73.1817	3,864.26	71.8918	3,864.26	73.3262	3,864.26	70.6377	3,864.26	72.4373	3,864.26	72.7151	3,864.26	73.7339	3,864.26	73.5469	3,864.26	53.4774	3,864.26	72.7398	3,864.26	61.1282
4,000.49	94.1814	4,000.49	93.6695	4,000.49	94.3102	4,000.49	92.6534	4,000.49	93.9175	4,000.49	91.1518	4,000.49	92.8302	4,000.49	89.8627	4,000.49	92.0219	4,000.49	87.4614	4,000.49	90.7758	4,000.49	84.3998	4,000.49	87.6795	4,000.49	81.3515	4,000.49	84.0437	4,000.49	78.4849	4,000.49	82.9262	4,000.49	76.5558	4,000.49	79.7616	4,000.49	73.2921	4,000.49	77.461	4,000.49	72.056	4,000.49	76.3105	4,000.49	70.9492	4,000.49	73.3749	4,000.49	70.8678	4,000.49	74.2812	4,000.49	73.4198	4,000.49	72.7399	4,000.49	74.6612	4,000.49	73.055	4,000.49	73.9804	4,000.49	73.1023	4,000.49	62.9043	4,000.49	74.7247	4,000.49	60.577
4,141.11	94.1706	4,141.11	94.034	4,141.11	94.1343	4,141.11	92.7163	4,141.11	93.8213	4,141.11	91.9772	4,141.11	93.0649	4,141.11	90.6907	4,141.11	91.7626	4,141.11	88.1801	4,141.11	89.847	4,141.11	84.8733	4,141.11	87.6192	4,141.11	82.2716	4,141.11	84.7328	4,141.11	79.6228	4,141.11	81.902	4,141.11	77.1603	4,141.11	78.5461	4,141.11	75.6816	4,141.11	76.8813	4,141.11	73.6216	4,141.11	74.0367	4,141.11	70.6219	4,141.11	72.389	4,141.11	69.2422	4,141.11	72.8142	4,141.11	71.9083	4,141.11	71.9253	4,141.11	73.3851	4,141.11	72.5642	4,141.11	74.9677	4,141.11	74.1726	4,141.11	62.7989	4,141.11	74.0169	4,141.11	64.3897
4,287.6	93.975	4,287.6	93.3602	4,287.6	94.1615	4,287.6	92.5523	4,287.6	93.4355	4,287.6	91.6297	4,287.6	92.6393	4,287.6	89.4778	4,287.6	91.4809	4,287.6	86.8806	4,287.6	89.8933	4,287.6	84.0226	4,287.6	87.4973	4,287.6	81.1184	4,287.6	84.9638	4,287.6	79.0554	4,287.6	82.1988	4,287.6	76.8185	4,287.6	79.1791	4,287.6	73.6847	4,287.6	77.6229	4,287.6	74.0945	4,287.6	74.8769	4,287.6	72.897	4,287.6	73.0078	4,287.6	72.8702	4,287.6	70.1567	4,287.6	71.5504	4,287.6	71.1761	4,287.6	74.4029	4,287.6	72.6832	4,287.6	74.9049	4,287.6	73.4554	4,287.6	59.6565	4,287.6	72.5499	4,287.6	62.3643
4,438.48	94.0661	4,438.48	93.553	4,438.48	93.8937	4,438.48	91.9449	4,438.48	93.3672	4,438.48	91.9583	4,438.48	92.1315	4,438.48	90.0629	4,438.48	92.0192	4,438.48	87.45	4,438.48	90.3388	4,438.48	85.0919	4,438.48	87.4233	4,438.48	82.2102	4,438.48	84.56	4,438.48	79.3913	4,438.48	81.3531	4,438.48	77.9806	4,438.48	79.9916	4,438.48	75.6613	4,438.48	77.9624	4,438.48	74.0318	4,438.48	75.8307	4,438.48	70.5474	4,438.48	73.892	4,438.48	70.8927	4,438.48	69.9045	4,438.48	72.6843	4,438.48	71.6994	4,438.48	74.8626	4,438.48	71.1264	4,438.48	73.8393	4,438.48	74.1087	4,438.48	59.3753	4,438.48	74.4372	4,438.48	60.6459
4,595.21	93.6717	4,595.21	92.4205	4,595.21	93.8244	4,595.21	92.4054	4,595.21	92.715	4,595.21	91.2151	4,595.21	92.5975	4,595.21	89.95	4,595.21	91.3303	4,595.21	87.0756	4,595.21	89.2887	4,595.21	84.1711	4,595.21	87.225	4,595.21	82.5286	4,595.21	85.0848	4,595.21	80.5885	4,595.21	82.3847	4,595.21	77.1978	4,595.21	80.0105	4,595.21	76.5097	4,595.21	77.4641	4,595.21	75.0599	4,595.21	75.2981	4,595.21	72.4179	4,595.21	74.2382	4,595.21	72.2663	4,595.21	71.1423	4,595.21	72.7738	4,595.21	71.1893	4,595.21	73.7215	4,595.21	71.9259	4,595.21	74.0833	4,595.21	74.1404	4,595.21	63.8249	4,595.21	72.4763	4,595.21	63.2876
4,756.35	94.5216	4,756.35	93.7329	4,756.35	94.4022	4,756.35	93.1717	4,756.35	93.8055	4,756.35	92.7207	4,756.35	93.1189	4,756.35	90.2434	4,756.35	92.6091	4,756.35	87.723	4,756.35	90.8825	4,756.35	85.5379	4,756.35	88.1761	4,756.35	83.5913	4,756.35	85.9421	4,756.35	79.8295	4,756.35	83.4446	4,756.35	78.5461	4,756.35	81.2263	4,756.35	74.2846	4,756.35	77.9255	4,756.35	73.746	4,756.35	76.9222	4,756.35	72.6462	4,756.35	74.0699	4,756.35	74.629	4,756.35	73.3317	4,756.35	72.242	4,756.35	73.4623	4,756.35	75.5757	4,756.35	71.9822	4,756.35	74.1889	4,756.35	73.4073	4,756.35	58.8023	4,756.35	73.5183	4,756.35	64.6367
4,924.8	94.5859	4,924.8	93.5083	4,924.8	94.7786	4,924.8	93.3406	4,924.8	93.5111	4,924.8	92.6696	4,924.8	93.6489	4,924.8	91.3225	4,924.8	92.5735	4,924.8	89.0016	4,924.8	90.489	4,924.8	86.8906	4,924.8	88.6079	4,924.8	83.7408	4,924.8	86.2116	4,924.8	82.0506	4,924.8	83.8451	4,924.8	79.4221	4,924.8	81.5334	4,924.8	77.7614	4,924.8	79.415	4,924.8	74.7164	4,924.8	75.9954	4,924.8	71.0352	4,924.8	74.9852	4,924.8	72.3703	4,924.8	71.5771	4,924.8	71.6431	4,924.8	72.0771	4,924.8	74.1109	4,924.8	71.6664	4,924.8	73.5505	4,924.8	75.161	4,924.8	63.1048	4,924.8	73.7158	4,924.8	63.3514
5,097.66	94.6499	5,097.66	93.7723	5,097.66	94.6616	5,097.66	93.3495	5,097.66	94.1255	5,097.66	92.8149	5,097.66	93.3177	5,097.66	90.5049	5,097.66	92.94	5,097.66	88.6364	5,097.66	91.2123	5,097.66	86.0326	5,097.66	88.9186	5,097.66	83.1444	5,097.66	86.3177	5,097.66	80.7152	5,097.66	84.4153	5,097.66	77.6731	5,097.66	80.1097	5,097.66	75.4357	5,097.66	78.3942	5,097.66	74.3054	5,097.66	75.1612	5,097.66	74.0593	5,097.66	74.793	5,097.66	73.335	5,097.66	73.0407	5,097.66	74.3795	5,097.66	72.637	5,097.66	75.305	5,097.66	72.2138	5,097.66	73.6753	5,097.66	73.7653	5,097.66	51.6412	5,097.66	71.8549	5,097.66	63.9568
5,277.83	94.8644	5,277.83	93.9712	5,277.83	94.7352	5,277.83	94.1247	5,277.83	93.8436	5,277.83	92.7646	5,277.83	93.7926	5,277.83	91.483	5,277.83	92.8537	5,277.83	89.6053	5,277.83	91.1501	5,277.83	87.2013	5,277.83	89.3392	5,277.83	84.0938	5,277.83	86.9696	5,277.83	80.7342	5,277.83	83.1524	5,277.83	77.6482	5,277.83	80.7891	5,277.83	74.7269	5,277.83	77.6497	5,277.83	72.1184	5,277.83	76.8412	5,277.83	69.6892	5,277.83	74.3332	5,277.83	71.2816	5,277.83	71.1144	5,277.83	71.8073	5,277.83	72.4678	5,277.83	73.8114	5,277.83	73.5415	5,277.83	71.4159	5,277.83	75.184	5,277.83	63.333	5,277.83	72.4686	5,277.83	64.7229
5,463.87	94.9469	5,463.87	94.1057	5,463.87	94.9788	5,463.87	93.674	5,463.87	94.1339	5,463.87	92.3822	5,463.87	93.9545	5,463.87	91.2826	5,463.87	92.7362	5,463.87	89.3236	5,463.87	91.3363	5,463.87	86.0205	5,463.87	89.3166	5,463.87	83.1814	5,463.87	86.1461	5,463.87	81.3431	5,463.87	84.2425	5,463.87	77.9488	5,463.87	80.8143	5,463.87	77.0826	5,463.87	78.0649	5,463.87	74.7733	5,463.87	76.652	5,463.87	73.5044	5,463.87	74.0014	5,463.87	70.3998	5,463.87	73.7722	5,463.87	73.4294	5,463.87	72.1476	5,463.87	74.2138	5,463.87	71.8614	5,463.87	73.19	5,463.87	75.2912	5,463.87	45.1842	5,463.87	71.6802	5,463.87	65.5813
5,657.23	94.6926	5,657.23	93.9101	5,657.23	94.5726	5,657.23	93.7412	5,657.23	94.0887	5,657.23	92.6124	5,657.23	93.526	5,657.23	91.7894	5,657.23	92.345	5,657.23	89.8926	5,657.23	91.1621	5,657.23	86.8765	5,657.23	89.5884	5,657.23	84.5715	5,657.23	86.7505	5,657.23	80.2777	5,657.23	83.3272	5,657.23	78.1245	5,657.23	81.0726	5,657.23	75.5637	5,657.23	78.7565	5,657.23	72.9872	5,657.23	76.7778	5,657.23	71.9272	5,657.23	74.0792	5,657.23	72.4733	5,657.23	72.5846	5,657.23	72.6067	5,657.23	71.3072	5,657.23	74.122	5,657.23	71.5278	5,657.23	69.2866	5,657.23	74.4283	5,657.23	63.7131	5,657.23	71.7175	5,657.23	60.4116
5,856.45	94.3285	5,856.45	93.9802	5,856.45	94.5453	5,856.45	93.2546	5,856.45	94.1427	5,856.45	92.1037	5,856.45	93.5775	5,856.45	91.3339	5,856.45	92.6763	5,856.45	88.5766	5,856.45	91.6252	5,856.45	85.4183	5,856.45	88.9565	5,856.45	80.9731	5,856.45	85.2589	5,856.45	80.1621	5,856.45	83.3457	5,856.45	77.6924	5,856.45	80.7178	5,856.45	77.9519	5,856.45	78.4205	5,856.45	74.5799	5,856.45	75.542	5,856.45	72.849	5,856.45	73.2654	5,856.45	69.9004	5,856.45	73.0027	5,856.45	72.1662	5,856.45	70.9158	5,856.45	74.4314	5,856.45	71.8661	5,856.45	71.7713	5,856.45	74.5201	5,856.45	58.7354	5,856.45	72.4478	5,856.45	62.0694
6,062.99	94.8423	6,062.99	94.636	6,062.99	94.919	6,062.99	93.4487	6,062.99	94.5515	6,062.99	93.0048	6,062.99	93.3583	6,062.99	92.3792	6,062.99	92.6583	6,062.99	89.9388	6,062.99	92.2058	6,062.99	86.6704	6,062.99	89.5535	6,062.99	84.1735	6,062.99	86.9473	6,062.99	81.3222	6,062.99	83.9557	6,062.99	78.9601	6,062.99	81.214	6,062.99	76.1573	6,062.99	79.3096	6,062.99	74.5483	6,062.99	76.4712	6,062.99	73.1771	6,062.99	74.5896	6,062.99	69.9464	6,062.99	71.8841	6,062.99	69.9754	6,062.99	71.8561	6,062.99	74.2775	6,062.99	71.7641	6,062.99	71.5876	6,062.99	74.0806	6,062.99	64.9319	6,062.99	72.5666	6,062.99	61.3545
6,276.86	94.7305	6,276.86	94.4329	6,276.86	94.6579	6,276.86	93.1773	6,276.86	94.5748	6,276.86	92.8652	6,276.86	93.4039	6,276.86	91.5221	6,276.86	93.0183	6,276.86	88.4596	6,276.86	91.5873	6,276.86	86.4023	6,276.86	89.0321	6,276.86	84.5484	6,276.86	86.8307	6,276.86	81.1689	6,276.86	83.8217	6,276.86	79.0889	6,276.86	81.0022	6,276.86	76.641	6,276.86	77.5132	6,276.86	74.7031	6,276.86	75.9404	6,276.86	73.4811	6,276.86	74.4384	6,276.86	72.1865	6,276.86	72.423	6,276.86	71.8716	6,276.86	70.4739	6,276.86	74.0379	6,276.86	72.1553	6,276.86	71.6489	6,276.86	72.4788	6,276.86	59.4888	6,276.86	71.027	6,276.86	54.5521
6,498.05	94.8733	6,498.05	94.6973	6,498.05	94.8203	6,498.05	93.6751	6,498.05	94.9956	6,498.05	93.4994	6,498.05	93.651	6,498.05	91.979	6,498.05	93.4426	6,498.05	89.8225	6,498.05	92.0421	6,498.05	86.8439	6,498.05	89.7765	6,498.05	83.8985	6,498.05	87.2531	6,498.05	80.7444	6,498.05	83.6514	6,498.05	77.0861	6,498.05	80.3955	6,498.05	74.9889	6,498.05	78.3037	6,498.05	73.3432	6,498.05	76.0538	6,498.05	71.6408	6,498.05	74.0223	6,498.05	71.2304	6,498.05	72.2112	6,498.05	71.5039	6,498.05	70.8541	6,498.05	72.8647	6,498.05	72.6386	6,498.05	69.9325	6,498.05	71.9314	6,498.05	62.8701	6,498.05	69.6684	6,498.05	53.4999
6,726.56	94.8819	6,726.56	94.8181	6,726.56	94.8993	6,726.56	93.7095	6,726.56	94.8846	6,726.56	93.568	6,726.56	93.6932	6,726.56	91.7194	6,726.56	93.5363	6,726.56	89.5319	6,726.56	91.774	6,726.56	87.5843	6,726.56	89.8223	6,726.56	84.1611	6,726.56	86.9422	6,726.56	80.8038	6,726.56	83.7849	6,726.56	78.5266	6,726.56	80.6897	6,726.56	75.4571	6,726.56	78.0245	6,726.56	72.9827	6,726.56	75.0724	6,726.56	71.8851	6,726.56	75.0471	6,726.56	71.5217	6,726.56	72.0078	6,726.56	71.0892	6,726.56	70.3903	6,726.56	73.1691	6,726.56	70.4351	6,726.56	71.0175	6,726.56	71.9341	6,726.56	62.3169	6,726.56	71.1558	6,726.56	52.43
6,963.87	95.1374	6,963.87	94.9404	6,963.87	95.0741	6,963.87	94.024	6,963.87	94.8557	6,963.87	93.3869	6,963.87	94.1403	6,963.87	91.8664	6,963.87	93.5252	6,963.87	89.9706	6,963.87	92.0616	6,963.87	86.9388	6,963.87	90.3221	6,963.87	84.2032	6,963.87	87.6859	6,963.87	79.1558	6,963.87	83.7409	6,963.87	77.7641	6,963.87	80.6154	6,963.87	73.0099	6,963.87	76.8248	6,963.87	72.315	6,963.87	75.9148	6,963.87	71.7285	6,963.87	73.6753	6,963.87	70.7506	6,963.87	71.9211	6,963.87	70.606	6,963.87	68.8569	6,963.87	71.5315	6,963.87	70.5373	6,963.87	68.61	6,963.87	71.2141	6,963.87	63.4551	6,963.87	69.4315	6,963.87	53.1695
7,209.96	95.2754	7,209.96	95.0348	7,209.96	95.1804	7,209.96	94.3559	7,209.96	95.293	7,209.96	93.4662	7,209.96	94.6731	7,209.96	92.2914	7,209.96	94.1457	7,209.96	90.1023	7,209.96	92.706	7,209.96	86.7858	7,209.96	90.8701	7,209.96	84.0795	7,209.96	87.9045	7,209.96	80.0109	7,209.96	84.2128	7,209.96	77.9064	7,209.96	81.3191	7,209.96	74.9787	7,209.96	78.6615	7,209.96	73.0951	7,209.96	76.7443	7,209.96	70.6547	7,209.96	75.4173	7,209.96	67.2288	7,209.96	72.8163	7,209.96	70.958	7,209.96	69.5575	7,209.96	72.1438	7,209.96	71.4171	7,209.96	69.5622	7,209.96	72.7963	7,209.96	61.3753	7,209.96	70.3193	7,209.96	55.3956
7,464.84	94.4636	7,464.84	94.2663	7,464.84	94.2607	7,464.84	94.3084	7,464.84	94.5812	7,464.84	93.1773	7,464.84	94.027	7,464.84	91.9695	7,464.84	92.9717	7,464.84	89.9009	7,464.84	91.7325	7,464.84	86.5178	7,464.84	89.6074	7,464.84	82.8585	7,464.84	85.9684	7,464.84	80.4992	7,464.84	83.2442	7,464.84	76.8513	7,464.84	80.2102	7,464.84	74.5521	7,464.84	77.5862	7,464.84	71.0803	7,464.84	74.4171	7,464.84	69.8664	7,464.84	73.1	7,464.84	68.9789	7,464.84	71.5295	7,464.84	69.8429	7,464.84	69.6499	7,464.84	71.4608	7,464.84	67.4917	7,464.84	69.1546	7,464.84	70.9022	7,464.84	61.499	7,464.84	68.5934	7,464.84	56.4209
7,727.05	94.9274	7,727.05	94.9032	7,727.05	95.0214	7,727.05	94.667	7,727.05	94.9881	7,727.05	92.9508	7,727.05	94.8262	7,727.05	92.3209	7,727.05	93.3827	7,727.05	89.6659	7,727.05	92.5756	7,727.05	86.5442	7,727.05	90.0974	7,727.05	82.8773	7,727.05	87.416	7,727.05	79.5751	7,727.05	83.9481	7,727.05	76.9685	7,727.05	80.7787	7,727.05	74.2042	7,727.05	77.456	7,727.05	73.0265	7,727.05	75.0481	7,727.05	70.2124	7,727.05	73.4383	7,727.05	64.8083	7,727.05	69.6032	7,727.05	69.3896	7,727.05	68.5987	7,727.05	69.4395	7,727.05	67.0212	7,727.05	67.6374	7,727.05	69.4582	7,727.05	54.3106	7,727.05	69.7778	7,727.05	57.1939
7,999.51	94.5568	7,999.51	94.1767	7,999.51	94.5833	7,999.51	93.9547	7,999.51	94.3801	7,999.51	92.2426	7,999.51	94.2877	7,999.51	91.6844	7,999.51	92.9254	7,999.51	88.6644	7,999.51	92.0609	7,999.51	86.2328	7,999.51	89.16	7,999.51	82.8539	7,999.51	86.4786	7,999.51	79.528	7,999.51	83.1443	7,999.51	75.9132	7,999.51	79.1232	7,999.51	75.2376	7,999.51	76.6909	7,999.51	71.8919	7,999.51	74.5915	7,999.51	69.0838	7,999.51	72.1798	7,999.51	65.1269	7,999.51	70.1215	7,999.51	67.0746	7,999.51	66.8079	7,999.51	69.0493	7,999.51	65.0652	7,999.51	66.4866	7,999.51	68.1012	7,999.51	58.2477	7,999.51	68.0596	7,999.51	58.741
8,282.23	94.4355	8,282.23	94.2459	8,282.23	94.3067	8,282.23	93.746	8,282.23	94.5026	8,282.23	92.6659	8,282.23	94.0633	8,282.23	91.4139	8,282.23	92.9694	8,282.23	88.8597	8,282.23	91.3794	8,282.23	85.8091	8,282.23	89.1062	8,282.23	82.0298	8,282.23	85.451	8,282.23	79.019	8,282.23	82.039	8,282.23	74.983	8,282.23	78.8594	8,282.23	73.894	8,282.23	76.0353	8,282.23	71.0417	8,282.23	73.9403	8,282.23	68.6468	8,282.23	71.0777	8,282.23	64.5239	8,282.23	67.6775	8,282.23	67.6526	8,282.23	64.9779	8,282.23	67.9845	8,282.23	65.5145	8,282.23	66.0251	8,282.23	66.3416	8,282.23	52.3427	8,282.23	67.6679	8,282.23	50.5189
8,573.73	93.4186	8,573.73	93.5864	8,573.73	93.3639	8,573.73	93.0835	8,573.73	93.7323	8,573.73	92.4848	8,573.73	93.2485	8,573.73	90.7022	8,573.73	92.4278	8,573.73	88.6054	8,573.73	90.6631	8,573.73	85.1282	8,573.73	88.3395	8,573.73	81.548	8,573.73	84.834	8,573.73	78.4861	8,573.73	81.4824	8,573.73	75.7854	8,573.73	78.3718	8,573.73	72.3011	8,573.73	75.6585	8,573.73	70.3748	8,573.73	73.089	8,573.73	67.4671	8,573.73	69.3225	8,573.73	63.2166	8,573.73	67.0663	8,573.73	67.3787	8,573.73	64.3112	8,573.73	68.1507	8,573.73	65.42	8,573.73	65.3428	8,573.73	66.4681	8,573.73	42.2188	8,573.73	66.4681	8,573.73	51.7392
8,876.95	93	8,876.95	93.0605	8,876.95	93.1636	8,876.95	92.5419	8,876.95	93.2647	8,876.95	91.6264	8,876.95	92.7883	8,876.95	89.7743	8,876.95	92.0443	8,876.95	87.6648	8,876.95	90.227	8,876.95	84.2079	8,876.95	87.9565	8,876.95	81.3251	8,876.95	84.839	8,876.95	76.9352	8,876.95	81.5931	8,876.95	74.2567	8,876.95	78.0844	8,876.95	72.3402	8,876.95	74.5435	8,876.95	69.8856	8,876.95	73.1159	8,876.95	67.747	8,876.95	68.9629	8,876.95	62.6195	8,876.95	67.9545	8,876.95	66.8942	8,876.95	64.8521	8,876.95	66.6743	8,876.95	66.0339	8,876.95	62.5218	8,876.95	66.7598	8,876.95	51.1273	8,876.95	65.4266	8,876.95	42.2374
9,188.96	92.2477	9,188.96	92.3237	9,188.96	92.1459	9,188.96	91.7788	9,188.96	92.3349	9,188.96	90.7108	9,188.96	91.7658	9,188.96	89.3091	9,188.96	90.8705	9,188.96	86.7478	9,188.96	88.9794	9,188.96	83.6014	9,188.96	86.7119	9,188.96	80.6657	9,188.96	83.6964	9,188.96	76.7978	9,188.96	79.7428	9,188.96	72.955	9,188.96	76.4342	9,188.96	71.3083	9,188.96	73.7106	9,188.96	66.9452	9,188.96	70.9636	9,188.96	66.992	9,188.96	66.8761	9,188.96	63.1531	9,188.96	66.6598	9,188.96	63.6381	9,188.96	63.6804	9,188.96	64.3909	9,188.96	63.2516	9,188.96	60.175	9,188.96	64.8509	9,188.96	47.0424	9,188.96	61.6584	9,188.96	49.9359
9,514.16	92.4877	9,514.16	92.486	9,514.16	92.4317	9,514.16	92.2146	9,514.16	92.704	9,514.16	90.8809	9,514.16	92.2954	9,514.16	89.581	9,514.16	91.0677	9,514.16	86.7995	9,514.16	89.513	9,514.16	83.6056	9,514.16	86.7589	9,514.16	79.771	9,514.16	83.9301	9,514.16	75.7633	9,514.16	80.418	9,514.16	73.1768	9,514.16	76.5702	9,514.16	70.4252	9,514.16	73.4519	9,514.16	67.9496	9,514.16	71.1484	9,514.16	66.5583	9,514.16	67.2882	9,514.16	63.7294	9,514.16	68.0659	9,514.16	64.6775	9,514.16	64.456	9,514.16	63.3869	9,514.16	65.5743	9,514.16	59.9097	9,514.16	64.5973	9,514.16	47.0436	9,514.16	61.2511	9,514.16	47.6024
9,849.61	92.8296	9,849.61	92.5329	9,849.61	92.717	9,849.61	92.5633	9,849.61	92.9177	9,849.61	90.7384	9,849.61	92.4325	9,849.61	89.5637	9,849.61	90.9442	9,849.61	86.8126	9,849.61	89.5859	9,849.61	83.5229	9,849.61	87.2004	9,849.61	79.3728	9,849.61	84.0524	9,849.61	76.2286	9,849.61	79.2893	9,849.61	72.7985	9,849.61	76.4108	9,849.61	70.1884	9,849.61	73.9456	9,849.61	68.1661	9,849.61	71.1666	9,849.61	66.7445	9,849.61	69.1379	9,849.61	63.4263	9,849.61	69.6217	9,849.61	64.517	9,849.61	65.3972	9,849.61	64.3778	9,849.61	64.5618	9,849.61	55.3671	9,849.61	64.2245	9,849.61	48.0065	9,849.61	60.6582	9,849.61	51.5298
10,196.8	93.0941	10,196.8	92.688	10,196.8	92.994	10,196.8	92.3408	10,196.8	93.1183	10,196.8	90.9324	10,196.8	92.5189	10,196.8	89.1913	10,196.8	91.0903	10,196.8	86.7007	10,196.8	89.3042	10,196.8	82.8774	10,196.8	87.6209	10,196.8	79.1701	10,196.8	83.9037	10,196.8	75.835	10,196.8	79.4452	10,196.8	72.5963	10,196.8	76.5252	10,196.8	69.8281	10,196.8	74.0842	10,196.8	67.0554	10,196.8	69.7906	10,196.8	66.7746	10,196.8	68.3557	10,196.8	60.9428	10,196.8	69.7711	10,196.8	62.7924	10,196.8	64.0156	10,196.8	61.7582	10,196.8	59.9564	10,196.8	58.9287	10,196.8	62.9587	10,196.8	51.4731	10,196.8	60.2248	10,196.8	54.9369
10,555.7	92.666	10,555.7	92.2478	10,555.7	92.6425	10,555.7	91.7167	10,555.7	92.6314	10,555.7	90.2843	10,555.7	92.1866	10,555.7	88.1183	10,555.7	90.8146	10,555.7	86.0732	10,555.7	89.0184	10,555.7	82.1496	10,555.7	86.8521	10,555.7	78.2011	10,555.7	83.0876	10,555.7	75.1648	10,555.7	80.2087	10,555.7	72.0399	10,555.7	75.7713	10,555.7	68.7605	10,555.7	72.9187	10,555.7	67.7527	10,555.7	69.4565	10,555.7	65.6284	10,555.7	69.081	10,555.7	59.0442	10,555.7	68.4294	10,555.7	59.9613	10,555.7	61.9539	10,555.7	59.9769	10,555.7	59.5715	10,555.7	55.9227	10,555.7	62.3207	10,555.7	52.9437	10,555.7	58.3691	10,555.7	52.1949
10,927.7	92.5366	10,927.7	92.1048	10,927.7	92.6163	10,927.7	91.764	10,927.7	92.6525	10,927.7	90.0938	10,927.7	92.1237	10,927.7	88.0183	10,927.7	90.893	10,927.7	85.3965	10,927.7	89.0646	10,927.7	82.5814	10,927.7	86.3671	10,927.7	78.4913	10,927.7	83.7017	10,927.7	75.0694	10,927.7	78.9221	10,927.7	71.8362	10,927.7	75.5511	10,927.7	68.8038	10,927.7	73.6231	10,927.7	66.7743	10,927.7	69.003	10,927.7	65.3064	10,927.7	68.5744	10,927.7	56.9846	10,927.7	66.3096	10,927.7	59.5502	10,927.7	61.6633	10,927.7	56.4116	10,927.7	57.4165	10,927.7	58.3069	10,927.7	61.4418	10,927.7	50.4892	10,927.7	57.6494	10,927.7	52.686
11,313	93.5764	11,313	93.0899	11,313	93.6273	11,313	92.6139	11,313	93.7169	11,313	91.03	11,313	93.3679	11,313	89.0582	11,313	91.8756	11,313	86.1952	11,313	90.0503	11,313	83.4429	11,313	87.4396	11,313	79.1051	11,313	84.3673	11,313	75.9172	11,313	80.7854	11,313	72.7073	11,313	76.8797	11,313	70.2157	11,313	73.9759	11,313	68.4176	11,313	70.4009	11,313	65.2255	11,313	69.9372	11,313	59.6731	11,313	66.9205	11,313	58.3567	11,313	62.8745	11,313	58.1705	11,313	58.4565	11,313	59.6924	11,313	61.9022	11,313	51.9602	11,313	59.6796	11,313	55.5796
11,712.9	93.9482	11,712.9	93.6302	11,712.9	94.1883	11,712.9	93.0666	11,712.9	94.1295	11,712.9	91.299	11,712.9	93.8843	11,712.9	89.3364	11,712.9	92.3682	11,712.9	87.1765	11,712.9	90.5198	11,712.9	83.9716	11,712.9	87.8204	11,712.9	80.0682	11,712.9	84.6796	11,712.9	76.9839	11,712.9	81.4824	11,712.9	73.6034	11,712.9	77.4506	11,712.9	70.6606	11,712.9	74.4153	11,712.9	68.771	11,712.9	70.7463	11,712.9	64.7887	11,712.9	70.5951	11,712.9	57.6843	11,712.9	66.2866	11,712.9	57.2709	11,712.9	63.8162	11,712.9	53.8896	11,712.9	60.9307	11,712.9	59.4121	11,712.9	62.6259	11,712.9	53.026	11,712.9	56.3193	11,712.9	55.5301
12,126	94.0689	12,126	93.4926	12,126	94.3032	12,126	93.0253	12,126	94.2946	12,126	91.5481	12,126	93.9089	12,126	89.4397	12,126	92.3071	12,126	86.9048	12,126	90.2071	12,126	83.829	12,126	88.1	12,126	80.2877	12,126	84.7942	12,126	76.0368	12,126	81.4485	12,126	73.1135	12,126	77.0716	12,126	68.6405	12,126	73.5475	12,126	69.0567	12,126	70.4959	12,126	64.3319	12,126	70.5278	12,126	57.9972	12,126	66.1448	12,126	58.5019	12,126	63.7029	12,126	52.3569	12,126	61.868	12,126	58.1412	12,126	63.0038	12,126	52.2556	12,126	54.3006	12,126	54.7748
12,553.7	94.6336	12,553.7	94.0592	12,553.7	94.7807	12,553.7	93.2585	12,553.7	94.3962	12,553.7	91.849	12,553.7	94.0633	12,553.7	89.4411	12,553.7	92.4579	12,553.7	87.1219	12,553.7	90.251	12,553.7	84.3069	12,553.7	87.7355	12,553.7	80.0331	12,553.7	84.7362	12,553.7	75.7882	12,553.7	80.8139	12,553.7	72.2285	12,553.7	76.8956	12,553.7	70.2547	12,553.7	73.2207	12,553.7	68.8334	12,553.7	70.9223	12,553.7	65.1271	12,553.7	69.8638	12,553.7	56.885	12,553.7	64.1371	12,553.7	54.4581	12,553.7	62.7525	12,553.7	55.6046	12,553.7	60.9448	12,553.7	57.913	12,553.7	62.6162	12,553.7	44.5028	12,553.7	51.7916	12,553.7	55.0351
12,996.1	95.0704	12,996.1	94.2444	12,996.1	95.1616	12,996.1	93.5426	12,996.1	94.9712	12,996.1	91.8004	12,996.1	94.1795	12,996.1	89.7074	12,996.1	92.8319	12,996.1	86.9221	12,996.1	90.7481	12,996.1	84.0738	12,996.1	87.8858	12,996.1	80.0689	12,996.1	84.8071	12,996.1	75.4068	12,996.1	81.276	12,996.1	72.029	12,996.1	77.2654	12,996.1	70.195	12,996.1	72.8382	12,996.1	67.8976	12,996.1	71.0379	12,996.1	65.4514	12,996.1	70.0219	12,996.1	58.587	12,996.1	64.3577	12,996.1	53.7197	12,996.1	62.8304	12,996.1	57.7126	12,996.1	61.4255	12,996.1	59.3757	12,996.1	62.6402	12,996.1	37.0689	12,996.1	56.6494	12,996.1	55.0943
13,454.6	95.269	13,454.6	94.4101	13,454.6	95.4476	13,454.6	93.3651	13,454.6	95.4344	13,454.6	91.643	13,454.6	94.9829	13,454.6	89.445	13,454.6	93.6495	13,454.6	86.685	13,454.6	91.4594	13,454.6	83.2189	13,454.6	88.521	13,454.6	79.5032	13,454.6	85.1663	13,454.6	75.3559	13,454.6	81.1268	13,454.6	70.7929	13,454.6	77.561	13,454.6	68.8708	13,454.6	73.5698	13,454.6	66.0688	13,454.6	71.1795	13,454.6	63.7313	13,454.6	69.8605	13,454.6	55.2755	13,454.6	63.1183	13,454.6	50.4471	13,454.6	62.7308	13,454.6	56.1131	13,454.6	60.0512	13,454.6	60.109	13,454.6	62.8085	13,454.6	54.2162	13,454.6	60.369	13,454.6	57.5702
13,929.2	95.685	13,929.2	95.0014	13,929.2	95.8234	13,929.2	94.3847	13,929.2	95.7493	13,929.2	92.6591	13,929.2	95.0636	13,929.2	90.4882	13,929.2	93.8815	13,929.2	87.5387	13,929.2	91.5956	13,929.2	84.4742	13,929.2	88.5596	13,929.2	79.8261	13,929.2	85.2712	13,929.2	75.6348	13,929.2	80.7967	13,929.2	72.3407	13,929.2	77.2072	13,929.2	69.4397	13,929.2	73.2183	13,929.2	67.2771	13,929.2	70.6949	13,929.2	63.8449	13,929.2	69.2952	13,929.2	60.8165	13,929.2	61.9408	13,929.2	52.1551	13,929.2	61.8584	13,929.2	58.9303	13,929.2	61.3672	13,929.2	61.0763	13,929.2	62.5108	13,929.2	58.2545	13,929.2	59.7484	13,929.2	59.1098
14,419.9	95.8648	14,419.9	95.3289	14,419.9	95.7671	14,419.9	94.7603	14,419.9	95.6752	14,419.9	93.2772	14,419.9	94.9413	14,419.9	90.9279	14,419.9	93.8489	14,419.9	88.0066	14,419.9	91.2896	14,419.9	84.968	14,419.9	88.133	14,419.9	80.6082	14,419.9	85.0009	14,419.9	75.9564	14,419.9	80.5074	14,419.9	72.0239	14,419.9	77.0037	14,419.9	69.8636	14,419.9	72.9656	14,419.9	67.3644	14,419.9	70.394	14,419.9	64.8209	14,419.9	68.242	14,419.9	63.2835	14,419.9	61.0852	14,419.9	53.763	14,419.9	61.9958	14,419.9	57.0806	14,419.9	62.0243	14,419.9	58.4066	14,419.9	61.729	14,419.9	57.1439	14,419.9	60.0883	14,419.9	58.7546
14,928.2	95.0824	14,928.2	94.7573	14,928.2	94.8978	14,928.2	94.4546	14,928.2	94.5715	14,928.2	92.9916	14,928.2	93.6463	14,928.2	90.6277	14,928.2	92.4376	14,928.2	87.8663	14,928.2	89.7759	14,928.2	84.6124	14,928.2	86.6133	14,928.2	80.2499	14,928.2	83.2243	14,928.2	75.5568	14,928.2	79.3441	14,928.2	71.1689	14,928.2	75.4582	14,928.2	69.8466	14,928.2	70.5617	14,928.2	66.8798	14,928.2	69.1086	14,928.2	64.2844	14,928.2	66.4349	14,928.2	63.6869	14,928.2	59.3144	14,928.2	54.0312	14,928.2	59.9833	14,928.2	58.7885	14,928.2	59.2641	14,928.2	52.4077	14,928.2	59.9516	14,928.2	57.7493	14,928.2	59.2355	14,928.2	52.6938
15,455.6	94.3016	15,455.6	94.4248	15,455.6	93.3362	15,455.6	94.3215	15,455.6	92.3952	15,455.6	93.1995	15,455.6	90.8928	15,455.6	91.0005	15,455.6	89.0619	15,455.6	87.996	15,455.6	86.1284	15,455.6	84.6227	15,455.6	82.8834	15,455.6	80.2406	15,455.6	78.964	15,455.6	75.7474	15,455.6	74.6789	15,455.6	71.7837	15,455.6	71.3221	15,455.6	70.2029	15,455.6	66.5298	15,455.6	66.8388	15,455.6	64.5202	15,455.6	63.3129	15,455.6	60.9792	15,455.6	59.7767	15,455.6	58.9297	15,455.6	54.5449	15,455.6	52.1443	15,455.6	58.0953	15,455.6	51.4931	15,455.6	53.3269	15,455.6	56.7136	15,455.6	56.7341	15,455.6	58.8731	15,455.6	52.2206
16,000.5	93.9331	16,000.5	94.2092	16,000.5	92.5477	16,000.5	94.5777	16,000.5	91.317	16,000.5	93.2572	16,000.5	89.4105	16,000.5	91.2626	16,000.5	86.615	16,000.5	87.9727	16,000.5	82.9645	16,000.5	84.5697	16,000.5	79.4002	16,000.5	80.5102	16,000.5	76.8587	16,000.5	75.3589	16,000.5	72.9759	16,000.5	71.9864	16,000.5	68.2911	16,000.5	70.3284	16,000.5	64.2335	16,000.5	64.9186	16,000.5	61.4699	16,000.5	60.9482	16,000.5	59.0128	16,000.5	58.18	16,000.5	60.9269	16,000.5	48.7402	16,000.5	55.2632	16,000.5	57.8755	16,000.5	57.2518	16,000.5	44.3317	16,000.5	53.5303	16,000.5	58.4928	16,000.5	56.4562	16,000.5	54.9524
16,564.5	94.3863	16,564.5	94.3143	16,564.5	93.4849	16,564.5	94.5588	16,564.5	92.6638	16,564.5	92.9709	16,564.5	91.7358	16,564.5	90.9394	16,564.5	89.4872	16,564.5	87.4771	16,564.5	86.6958	16,564.5	84.0514	16,564.5	83.5647	16,564.5	80.088	16,564.5	80.9055	16,564.5	75.024	16,564.5	76.025	16,564.5	71.1812	16,564.5	71.8122	16,564.5	69.107	16,564.5	69.6118	16,564.5	63.8375	16,564.5	65.6767	16,564.5	60.9687	16,564.5	63.3964	16,564.5	60.8065	16,564.5	57.4686	16,564.5	46.7464	16,564.5	57.28	16,564.5	52.8812	16,564.5	58.6737	16,564.5	48.7796	16,564.5	55.0611	16,564.5	55.1794	16,564.5	58.7766	16,564.5	56.3567
17,148.9	94.6868	17,148.9	94.1056	17,148.9	94.5163	17,148.9	93.847	17,148.9	94.4045	17,148.9	91.827	17,148.9	94.0729	17,148.9	89.2229	17,148.9	92.083	17,148.9	85.7612	17,148.9	89.4521	17,148.9	82.5073	17,148.9	86.616	17,148.9	77.6784	17,148.9	83.9129	17,148.9	72.8147	17,148.9	79.3469	17,148.9	70.2931	17,148.9	74.4555	17,148.9	67.1398	17,148.9	72.8787	17,148.9	62.1012	17,148.9	68.3086	17,148.9	59.2955	17,148.9	65.7774	17,148.9	61.2019	17,148.9	60.7795	17,148.9	54.6141	17,148.9	59.0225	17,148.9	38.2514	17,148.9	59.5188	17,148.9	54.0302	17,148.9	59.517	17,148.9	57.3899	17,148.9	59.2465	17,148.9	56.4577
17,752.4	94.8194	17,752.4	94.0218	17,752.4	94.8284	17,752.4	93.4227	17,752.4	94.808	17,752.4	91.2357	17,752.4	94.6779	17,752.4	88.3338	17,752.4	92.6273	17,752.4	85.0661	17,752.4	89.754	17,752.4	81.59	17,752.4	87.1196	17,752.4	77.3485	17,752.4	84.6332	17,752.4	71.1802	17,752.4	80.3227	17,752.4	69.7477	17,752.4	74.2124	17,752.4	66.6631	17,752.4	73.086	17,752.4	64.1068	17,752.4	68.6799	17,752.4	60.6591	17,752.4	65.9	17,752.4	63.391	17,752.4	64.3728	17,752.4	56.0791	17,752.4	58.932	17,752.4	53.8567	17,752.4	61.0106	17,752.4	56.8714	17,752.4	61.2008	17,752.4	56.7825	17,752.4	56.9714	17,752.4	54.793
18,379.4	92.8081	18,379.4	92.068	18,379.4	92.6367	18,379.4	91.5466	18,379.4	92.6118	18,379.4	89.2796	18,379.4	92.5205	18,379.4	86.047	18,379.4	90.2823	18,379.4	83.0395	18,379.4	87.1844	18,379.4	79.7322	18,379.4	84.6541	18,379.4	75.1667	18,379.4	81.831	18,379.4	68.3592	18,379.4	77.8056	18,379.4	68.6762	18,379.4	70.9353	18,379.4	63.9843	18,379.4	70.6219	18,379.4	61.389	18,379.4	66.0692	18,379.4	59.8736	18,379.4	63.3035	18,379.4	62.2605	18,379.4	63.894	18,379.4	55.5035	18,379.4	55.5934	18,379.4	56.624	18,379.4	59.527	18,379.4	55.2419	18,379.4	57.0668	18,379.4	52.4991	18,379.4	49.8599	18,379.4	50.7809
19,026.9	90.7353	19,026.9	89.8458	19,026.9	90.6711	19,026.9	89.5395	19,026.9	90.752	19,026.9	86.8129	19,026.9	90.8211	19,026.9	83.4389	19,026.9	88.1517	19,026.9	80.192	19,026.9	85.0378	19,026.9	77.1075	19,026.9	82.5651	19,026.9	72.8404	19,026.9	79.9613	19,026.9	64.5978	19,026.9	76.7788	19,026.9	66.4287	19,026.9	68.0794	19,026.9	61.7336	19,026.9	69.1931	19,026.9	59.4008	19,026.9	63.9906	19,026.9	58.4888	19,026.9	60.9455	19,026.9	62.0344	19,026.9	62.2449	19,026.9	54.6444	19,026.9	56.2096	19,026.9	57.4247	19,026.9	57.3955	19,026.9	52.2914	19,026.9	54.0575	19,026.9	45.6453	19,026.9	51.8681	19,026.9	48.9699
19,697.8	88.9665	19,697.8	87.3193	19,697.8	88.9223	19,697.8	87.083	19,697.8	89.8741	19,697.8	83.9077	19,697.8	90.0923	19,697.8	80.0317	19,697.8	87.4615	19,697.8	76.5915	19,697.8	84.6675	19,697.8	73.1619	19,697.8	82.6402	19,697.8	69.7947	19,697.8	79.883	19,697.8	60.6459	19,697.8	76.8447	19,697.8	63.5022	19,697.8	67.1512	19,697.8	58.926	19,697.8	69.8329	19,697.8	57.1022	19,697.8	62.6502	19,697.8	58.3478	19,697.8	59.4726	19,697.8	63.2085	19,697.8	61.5307	19,697.8	55.216	19,697.8	55.5792	19,697.8	58.9959	19,697.8	55.7243	19,697.8	55.8712	19,697.8	47.6915	19,697.8	52.4682	19,697.8	53.0277	19,697.8	52.0381
19,999.5	86.9442	19,999.5	85.159	19,999.5	86.8903	19,999.5	84.2463	19,999.5	88.5631	19,999.5	80.7975	19,999.5	88.8139	19,999.5	76.4988	19,999.5	86.1587	19,999.5	73.7775	19,999.5	83.6526	19,999.5	69.6861	19,999.5	81.5618	19,999.5	66.7367	19,999.5	79.0748	19,999.5	60.4302	19,999.5	75.5675	19,999.5	59.593	19,999.5	63.6466	19,999.5	55.6024	19,999.5	70.2584	19,999.5	58.1088	19,999.5	59.3729	19,999.5	58.367	19,999.5	62.7406	19,999.5	62.2182	19,999.5	65.4521	19,999.5	54.5565	19,999.5	49.876	19,999.5	58.1723	19,999.5	57.2604	19,999.5	55.2978	19,999.5	49.8383	19,999.5	48.15	19,999.5	47.7374	19,999.5	51.7966
