"SPL Vertical"
"On-Axis"		"10°"		"-10°"		"20°"		"-20°"		"30°"		"-30°"		"40°"		"-40°"		"50°"		"-50°"		"60°"		"-60°"		"70°"		"-70°"		"80°"		"-80°"		"90°"		"-90°"		"100°"		"-100°"		"110°"		"-110°"		"120°"		"-120°"		"130°"		"-130°"		"140°"		"-140°"		"150°"		"-150°"		"160°"		"-160°"		"170°"		"-170°"		"180°"
"Frequency [Hz]"	"Sound Pessure Level [dB]  / [2.83V 1m] "	"Frequency [Hz]"	"Sound Pessure Level [dB]  / [2.83V 1m] "	"Frequency [Hz]"	"Sound Pessure Level [dB]  / [2.83V 1m] "	"Frequency [Hz]"	"Sound Pessure Level [dB]  / [2.83V 1m] "	"Frequency [Hz]"	"Sound Pessure Level [dB]  / [2.83V 1m] "	"Frequency [Hz]"	"Sound Pessure Level [dB]  / [2.83V 1m] "	"Frequency [Hz]"	"Sound Pessure Level [dB]  / [2.83V 1m] "	"Frequency [Hz]"	"Sound Pessure Level [dB]  / [2.83V 1m] "	"Frequency [Hz]"	"Sound Pessure Level [dB]  / [2.83V 1m] "	"Frequency [Hz]"	"Sound Pessure Level [dB]  / [2.83V 1m] "	"Frequency [Hz]"	"Sound Pessure Level [dB]  / [2.83V 1m] "	"Frequency [Hz]"	"Sound Pessure Level [dB]  / [2.83V 1m] "	"Frequency [Hz]"	"Sound Pessure Level [dB]  / [2.83V 1m] "	"Frequency [Hz]"	"Sound Pessure Level [dB]  / [2.83V 1m] "	"Frequency [Hz]"	"Sound Pessure Level [dB]  / [2.83V 1m] "	"Frequency [Hz]"	"Sound Pessure Level [dB]  / [2.83V 1m] "	"Frequency [Hz]"	"Sound Pessure Level [dB]  / [2.83V 1m] "	"Frequency [Hz]"	"Sound Pessure Level [dB]  / [2.83V 1m] "	"Frequency [Hz]"	"Sound Pessure Level [dB]  / [2.83V 1m] "	"Frequency [Hz]"	"Sound Pessure Level [dB]  / [2.83V 1m] "	"Frequency [Hz]"	"Sound Pessure Level [dB]  / [2.83V 1m] "	"Frequency [Hz]"	"Sound Pessure Level [dB]  / [2.83V 1m] "	"Frequency [Hz]"	"Sound Pessure Level [dB]  / [2.83V 1m] "	"Frequency [Hz]"	"Sound Pessure Level [dB]  / [2.83V 1m] "	"Frequency [Hz]"	"Sound Pessure Level [dB]  / [2.83V 1m] "	"Frequency [Hz]"	"Sound Pessure Level [dB]  / [2.83V 1m] "	"Frequency [Hz]"	"Sound Pessure Level [dB]  / [2.83V 1m] "	"Frequency [Hz]"	"Sound Pessure Level [dB]  / [2.83V 1m] "	"Frequency [Hz]"	"Sound Pessure Level [dB]  / [2.83V 1m] "	"Frequency [Hz]"	"Sound Pessure Level [dB]  / [2.83V 1m] "	"Frequency [Hz]"	"Sound Pessure Level [dB]  / [2.83V 1m] "	"Frequency [Hz]"	"Sound Pessure Level [dB]  / [2.83V 1m] "	"Frequency [Hz]"	"Sound Pessure Level [dB]  / [2.83V 1m] "	"Frequency [Hz]"	"Sound Pessure Level [dB]  / [2.83V 1m] "	"Frequency [Hz]"	"Sound Pessure Level [dB]  / [2.83V 1m] "	"Frequency [Hz]"	"Sound Pessure Level [dB]  / [2.83V 1m] "
20.5078	61.8707	20.5078	61.5585	20.5078	62.1713	20.5078	61.2323	20.5078	62.4626	20.5078	60.892	20.5078	62.7434	20.5078	60.5412	20.5078	63.0074	20.5078	60.1877	20.5078	63.2417	20.5078	59.8427	20.5078	63.428	20.5078	59.5187	20.5078	63.5457	20.5078	59.229	20.5078	63.5758	20.5078	58.986	20.5078	63.505	20.5078	58.8017	20.5078	63.3288	20.5078	58.6864	20.5078	63.0517	20.5078	58.6476	20.5078	62.6872	20.5078	58.689	20.5078	62.2555	20.5078	58.8089	20.5078	61.7811	20.5078	59.0012	20.5078	61.29	20.5078	59.2579	20.5078	60.8069	20.5078	59.5716	20.5078	60.3517	20.5078	59.9376
21.9727	64.1987	21.9727	63.7037	21.9727	64.6941	21.9727	63.2217	21.9727	65.1773	21.9727	62.765	21.9727	65.6351	21.9727	62.3454	21.9727	66.0532	21.9727	61.9737	21.9727	66.4157	21.9727	61.6589	21.9727	66.7052	21.9727	61.4075	21.9727	66.9034	21.9727	61.2236	21.9727	66.9938	21.9727	61.1091	21.9727	66.9644	21.9727	61.064	21.9727	66.8111	21.9727	61.0873	21.9727	66.5385	21.9727	61.1772	21.9727	66.1602	21.9727	61.3319	21.9727	65.6967	21.9727	61.5495	21.9727	65.1737	21.9727	61.8281	21.9727	64.6187	21.9727	62.1665	21.9727	64.0589	21.9727	62.5634	21.9727	63.5186	21.9727	63.0161
23.4375	67.8518	23.4375	67.4995	23.4375	68.21	23.4375	67.1598	23.4375	68.5662	23.4375	66.8387	23.4375	68.9107	23.4375	66.5415	23.4375	69.231	23.4375	66.273	23.4375	69.5126	23.4375	66.0371	23.4375	69.7388	23.4375	65.8369	23.4375	69.8931	23.4375	65.6755	23.4375	69.9616	23.4375	65.5559	23.4375	69.9353	23.4375	65.4813	23.4375	69.8122	23.4375	65.4555	23.4375	69.598	23.4375	65.4823	23.4375	69.3042	23.4375	65.5652	23.4375	68.947	23.4375	65.7067	23.4375	68.5444	23.4375	65.9081	23.4375	68.1153	23.4375	66.1683	23.4375	67.6781	23.4375	66.4837	23.4375	67.2503	23.4375	66.8478
24.9023	68.431	24.9023	67.9203	24.9023	68.945	24.9023	67.4255	24.9023	69.4481	24.9023	66.9586	24.9023	69.9246	24.9023	66.5305	24.9023	70.3569	24.9023	66.1508	24.9023	70.7261	24.9023	65.8276	24.9023	71.0138	24.9023	65.5669	24.9023	71.2032	24.9023	65.3735	24.9023	71.2823	24.9023	65.2507	24.9023	71.2451	24.9023	65.2013	24.9023	71.0936	24.9023	65.2271	24.9023	70.8373	24.9023	65.33	24.9023	70.491	24.9023	65.5107	24.9023	70.0724	24.9023	65.769	24.9023	69.5988	24.9023	66.1024	24.9023	69.0865	24.9023	66.5051	24.9023	68.5508	24.9023	66.9669	24.9023	68.0074	24.9023	67.4734
26.3672	72.2751	26.3672	71.8627	26.3672	72.7032	26.3672	71.4756	26.3672	73.1353	26.3672	71.1222	26.3672	73.5579	26.3672	70.8096	26.3672	73.9554	26.3672	70.5435	26.3672	74.3101	26.3672	70.3286	26.3672	74.6035	26.3672	70.1681	26.3672	74.818	26.3672	70.064	26.3672	74.9394	26.3672	70.0174	26.3672	74.9592	26.3672	70.0281	26.3672	74.876	26.3672	70.0952	26.3672	74.6958	26.3672	70.2172	26.3672	74.4307	26.3672	70.3924	26.3672	74.0965	26.3672	70.6187	26.3672	73.7102	26.3672	70.8943	26.3672	73.2892	26.3672	71.2166	26.3672	72.8503	26.3672	71.5816	26.3672	72.4098	26.3672	71.9826
27.832	74.1211	27.832	73.7523	27.832	74.5027	27.832	73.4061	27.832	74.8851	27.832	73.0902	27.832	75.2543	27.832	72.8102	27.832	75.5944	27.832	72.57	27.832	75.8884	27.832	72.3719	27.832	76.1195	27.832	72.2176	27.832	76.2722	27.832	72.1081	27.832	76.3353	27.832	72.0442	27.832	76.3033	27.832	72.026	27.832	76.1785	27.832	72.0535	27.832	75.9699	27.832	72.1265	27.832	75.6922	27.832	72.2445	27.832	75.3627	27.832	72.4073	27.832	74.9987	27.832	72.6147	27.832	74.6158	27.832	72.8659	27.832	74.2281	27.832	73.1588	27.832	73.8486	27.832	73.4888
29.2969	76.5384	29.2969	76.2022	29.2969	76.8913	29.2969	75.891	29.2969	77.2503	29.2969	75.6115	29.2969	77.6025	29.2969	75.3681	29.2969	77.9326	29.2969	75.1639	29.2969	78.2238	29.2969	75.0005	29.2969	78.4583	29.2969	74.8784	29.2969	78.6197	29.2969	74.7972	29.2969	78.695	29.2969	74.7559	29.2969	78.6771	29.2969	74.7533	29.2969	78.5665	29.2969	74.7879	29.2969	78.3713	29.2969	74.8586	29.2969	78.1058	29.2969	74.9645	29.2969	77.7879	29.2969	75.1056	29.2969	77.4367	29.2969	75.2824	29.2969	77.0708	29.2969	75.4962	29.2969	76.7066	29.2969	75.7476	29.2969	76.3581	29.2969	76.0361
30.7617	78.3809	30.7617	78.0493	30.7617	78.7294	30.7617	77.7431	30.7617	79.0838	30.7617	77.4684	30.7617	79.431	30.7617	77.2292	30.7617	79.7553	30.7617	77.0276	30.7617	80.0397	30.7617	76.8645	30.7617	80.2669	30.7617	76.7399	30.7617	80.4209	30.7617	76.6528	30.7617	80.4892	30.7617	76.6023	30.7617	80.4655	30.7617	76.5871	30.7617	80.3504	30.7617	76.6065	30.7617	80.1517	30.7617	76.6599	30.7617	79.8828	30.7617	76.7478	30.7617	79.5607	30.7617	76.8716	30.7617	79.2036	30.7617	77.0337	30.7617	78.8296	30.7617	77.237	30.7617	78.4564	30.7617	77.4833	30.7617	78.0996	30.7617	77.7723
32.2266	80.4767	32.2266	80.1348	32.2266	80.83	32.2266	79.8132	32.2266	81.1834	32.2266	79.5192	32.2266	81.5241	32.2266	79.2582	32.2266	81.8373	32.2266	79.0338	32.2266	82.1073	32.2266	78.8484	32.2266	82.318	32.2266	78.7033	32.2266	82.4548	32.2266	78.5993	32.2266	82.5069	32.2266	78.5362	32.2266	82.469	32.2266	78.5139	32.2266	82.343	32.2266	78.5323	32.2266	82.1377	32.2266	78.5909	32.2266	81.8672	32.2266	78.6897	32.2266	81.5485	32.2266	78.829	32.2266	81.1989	32.2266	79.0091	32.2266	80.8346	32.2266	79.2301	32.2266	80.4701	32.2266	79.491	32.2266	80.1179	32.2266	79.7888
33.6914	82.5713	33.6914	82.2672	33.6914	82.8855	33.6914	81.981	33.6914	83.2	33.6914	81.7187	33.6914	83.503	33.6914	81.4847	33.6914	83.781	33.6914	81.2823	33.6914	84.0192	33.6914	81.1138	33.6914	84.2025	33.6914	80.9805	33.6914	84.3174	33.6914	80.8834	33.6914	84.3539	33.6914	80.8231	33.6914	84.3077	33.6914	80.7998	33.6914	84.1815	33.6914	80.8134	33.6914	83.9844	33.6914	80.8639	33.6914	83.7311	33.6914	80.9506	33.6914	83.4384	33.6914	81.0732	33.6914	83.1233	33.6914	81.2306	33.6914	82.8008	33.6914	81.422	33.6914	82.4835	33.6914	81.6458	33.6914	82.1807	33.6914	81.8998
35.1562	84.4253	35.1562	84.123	35.1562	84.7356	35.1562	83.8368	35.1562	85.0442	35.1562	83.5728	35.1562	85.3396	35.1562	83.3358	35.1562	85.6087	35.1562	83.1293	35.1562	85.837	35.1562	82.9557	35.1562	86.0104	35.1562	82.8167	35.1562	86.1159	35.1562	82.7134	35.1562	86.1442	35.1562	82.6465	35.1562	86.0912	35.1562	82.6164	35.1562	85.9594	35.1562	82.6233	35.1562	85.7578	35.1562	82.6671	35.1562	85.5004	35.1562	82.7474	35.1562	85.2041	35.1562	82.8637	35.1562	84.8861	35.1562	83.0152	35.1562	84.5622	35.1562	83.2007	35.1562	84.2451	35.1562	83.4189	35.1562	83.9447	35.1562	83.6679
36.6211	85.9735	36.6211	85.6831	36.6211	86.2715	36.6211	85.4077	36.6211	86.5676	36.6211	85.1535	36.6211	86.8506	36.6211	84.925	36.6211	87.1078	36.6211	84.7257	36.6211	87.3254	36.6211	84.558	36.6211	87.4898	36.6211	84.4235	36.6211	87.5885	36.6211	84.3234	36.6211	87.6128	36.6211	84.2582	36.6211	87.559	36.6211	84.2282	36.6211	87.4294	36.6211	84.2331	36.6211	87.2328	36.6211	84.2729	36.6211	86.9825	36.6211	84.347	36.6211	86.6949	36.6211	84.455	36.6211	86.3864	36.6211	84.5962	36.6211	86.0725	36.6211	84.7701	36.6211	85.7661	36.6211	84.9758	36.6211	85.4771	36.6211	85.2123
38.0859	87.4463	38.0859	87.1639	38.0859	87.7338	38.0859	86.8942	38.0859	88.0176	38.0859	86.643	38.0859	88.2871	38.0859	86.4151	38.0859	88.5303	38.0859	86.2144	38.0859	88.7341	38.0859	86.0436	38.0859	88.8857	38.0859	85.9048	38.0859	88.9734	38.0859	85.7997	38.0859	88.989	38.0859	85.729	38.0859	88.9293	38.0859	85.6933	38.0859	88.7969	38.0859	85.6927	38.0859	88.6005	38.0859	85.727	38.0859	88.3533	38.0859	85.7959	38.0859	88.071	38.0859	85.8987	38.0859	87.77	38.0859	86.0346	38.0859	87.4648	38.0859	86.2027	38.0859	87.1676	38.0859	86.4021	38.0859	86.8877	38.0859	86.6312
39.5508	88.7138	39.5508	88.4437	39.5508	88.9885	39.5508	88.1855	39.5508	89.259	39.5508	87.9451	39.5508	89.515	39.5508	87.7273	39.5508	89.745	39.5508	87.5356	39.5508	89.9366	39.5508	87.3727	39.5508	90.0774	39.5508	87.2403	39.5508	90.1566	39.5508	87.1398	39.5508	90.1663	39.5508	87.0717	39.5508	90.1035	39.5508	87.0364	39.5508	89.9707	39.5508	87.0338	39.5508	89.7766	39.5508	87.0635	39.5508	89.5339	39.5508	87.125	39.5508	89.2585	39.5508	87.2175	39.5508	88.9665	39.5508	87.3405	39.5508	88.6728	39.5508	87.4934	39.5508	88.3897	39.5508	87.6757	39.5508	88.1259	39.5508	87.8869
41.0156	89.6196	41.0156	89.3572	41.0156	89.8862	41.0156	89.1059	41.0156	90.1488	41.0156	88.8713	41.0156	90.3976	41.0156	88.658	41.0156	90.6216	41.0156	88.4696	41.0156	90.8091	41.0156	88.309	41.0156	90.9484	41.0156	88.1781	41.0156	91.0293	41.0156	88.0781	41.0156	91.0446	41.0156	88.0099	41.0156	90.9915	41.0156	87.9736	41.0156	90.8724	41.0156	87.969	41.0156	90.6948	41.0156	87.996	41.0156	90.4695	41.0156	88.0544	41.0156	90.2094	41.0156	88.1443	41.0156	89.928	41.0156	88.2663	41.0156	89.6381	41.0156	88.4212	41.0156	89.3516	41.0156	88.6094	41.0156	89.0793	41.0156	88.8299
42.4805	90.48	42.4805	90.2168	42.4805	90.7447	42.4805	89.9623	42.4805	91.0023	42.4805	89.7227	42.4805	91.2434	42.4805	89.5031	42.4805	91.4571	42.4805	89.3075	42.4805	91.6324	42.4805	89.1394	42.4805	91.7582	42.4805	89.0011	42.4805	91.8248	42.4805	88.8944	42.4805	91.8258	42.4805	88.8204	42.4805	91.7589	42.4805	88.7799	42.4805	91.6276	42.4805	88.7728	42.4805	91.44	42.4805	88.7993	42.4805	91.2085	42.4805	88.8589	42.4805	90.9472	42.4805	88.9511	42.4805	90.6703	42.4805	89.075	42.4805	90.3906	42.4805	89.2298	42.4805	90.1184	42.4805	89.4138	42.4805	89.8614	42.4805	89.6253
43.9453	91.1656	43.9453	90.9079	43.9453	91.4228	43.9453	90.6566	43.9453	91.6714	43.9453	90.4179	43.9453	91.9022	43.9453	90.1968	43.9453	92.1049	43.9453	89.9975	43.9453	92.2689	43.9453	89.8236	43.9453	92.3837	43.9453	89.678	43.9453	92.4402	43.9453	89.5627	43.9453	92.4326	43.9453	89.4795	43.9453	92.3591	43.9453	89.4294	43.9453	92.2234	43.9453	89.4131	43.9453	92.0339	43.9453	89.431	43.9453	91.8026	43.9453	89.4831	43.9453	91.5432	43.9453	89.569	43.9453	91.2689	43.9453	89.6882	43.9453	90.9919	43.9453	89.8395	43.9453	90.7218	43.9453	90.0214	43.9453	90.4663	43.9453	90.2314
45.4102	91.777	45.4102	91.5277	45.4102	92.0257	45.4102	91.2845	45.4102	92.2658	45.4102	91.0532	45.4102	92.4884	45.4102	90.8386	45.4102	92.6836	45.4102	90.6449	45.4102	92.8411	45.4102	90.4755	45.4102	92.9507	45.4102	90.3334	45.4102	93.0038	45.4102	90.2207	45.4102	92.9949	45.4102	90.1392	45.4102	92.9226	45.4102	90.09	45.4102	92.7903	45.4102	90.0738	45.4102	92.6061	45.4102	90.091	45.4102	92.3816	45.4102	90.1414	45.4102	92.1299	45.4102	90.2246	45.4102	91.8641	45.4102	90.3397	45.4102	91.5958	45.4102	90.4855	45.4102	91.3348	45.4102	90.6605	45.4102	91.0885	45.4102	90.8624
46.875	92.1549	46.875	91.9056	46.875	92.4033	46.875	91.6626	46.875	92.6426	46.875	91.4323	46.875	92.8639	46.875	91.2199	46.875	93.0573	46.875	91.0301	46.875	93.2127	46.875	90.8664	46.875	93.3206	46.875	90.7316	46.875	93.373	46.875	90.6278	46.875	93.365	46.875	90.5562	46.875	93.2954	46.875	90.5174	46.875	93.1681	46.875	90.5116	46.875	92.9911	46.875	90.5383	46.875	92.7757	46.875	90.5966	46.875	92.5343	46.875	90.6855	46.875	92.2796	46.875	90.8036	46.875	92.0226	46.875	90.9495	46.875	91.7724	46.875	91.1214	46.875	91.5358	46.875	91.3177
48.3398	92.5657	48.3398	92.3231	48.3398	92.8064	48.3398	92.0857	48.3398	93.0372	48.3398	91.8597	48.3398	93.2494	48.3398	91.6508	48.3398	93.4335	48.3398	91.4634	48.3398	93.5799	48.3398	91.3016	48.3398	93.6795	48.3398	91.1683	48.3398	93.7247	48.3398	91.0656	48.3398	93.7112	48.3398	90.9951	48.3398	93.6383	48.3398	90.9572	48.3398	93.5101	48.3398	90.9517	48.3398	93.3346	48.3398	90.978	48.3398	93.1231	48.3398	91.0348	48.3398	92.8879	48.3398	91.1207	48.3398	92.6412	48.3398	91.2339	48.3398	92.3938	48.3398	91.3729	48.3398	92.1543	48.3398	91.5361	48.3398	91.9291	48.3398	91.7221
51.2695	93.0764	51.2695	92.8387	51.2695	93.3102	51.2695	92.6043	51.2695	93.5324	51.2695	92.3797	51.2695	93.7343	51.2695	92.1708	51.2695	93.9073	51.2695	91.9826	51.2695	94.0425	51.2695	91.8194	51.2695	94.1317	51.2695	91.6844	51.2695	94.1687	51.2695	91.5804	51.2695	94.1497	51.2695	91.5087	51.2695	94.0749	51.2695	91.4703	51.2695	93.9486	51.2695	91.465	51.2695	93.7789	51.2695	91.492	51.2695	93.5764	51.2695	91.55	51.2695	93.3525	51.2695	91.6372	51.2695	93.1182	51.2695	91.7516	51.2695	92.883	51.2695	91.891	51.2695	92.6542	51.2695	92.0533	51.2695	92.4374	51.2695	92.2361
52.7344	93.2888	52.7344	93.0555	52.7344	93.5162	52.7344	92.8231	52.7344	93.73	52.7344	92.5983	52.7344	93.9224	52.7344	92.3869	52.7344	94.085	52.7344	92.1943	52.7344	94.2095	52.7344	92.0251	52.7344	94.2884	52.7344	91.883	52.7344	94.3158	52.7344	91.7711	52.7344	94.2884	52.7344	91.6913	52.7344	94.207	52.7344	91.6448	52.7344	94.0759	52.7344	91.6317	52.7344	93.9035	52.7344	91.6516	52.7344	93.7	52.7344	91.7032	52.7344	93.4766	52.7344	91.7849	52.7344	93.2437	52.7344	91.8947	52.7344	93.0104	52.7344	92.0303	52.7344	92.7836	52.7344	92.1895	52.7344	92.5688	52.7344	92.3698
54.1992	93.559	54.1992	93.3364	54.1992	93.7736	54.1992	93.1123	54.1992	93.9733	54.1992	92.8924	54.1992	94.1506	54.1992	92.6822	54.1992	94.2978	54.1992	92.4869	54.1992	94.4072	54.1992	92.3108	54.1992	94.4716	54.1992	92.1578	54.1992	94.4854	54.1992	92.0311	54.1992	94.4455	54.1992	91.933	54.1992	94.3522	54.1992	91.8652	54.1992	94.2096	54.1992	91.8285	54.1992	94.0253	54.1992	91.8233	54.1992	93.8092	54.1992	91.8494	54.1992	93.5723	54.1992	91.9062	54.1992	93.3256	54.1992	91.9932	54.1992	93.0797	54.1992	92.1095	54.1992	92.8434	54.1992	92.2544	54.1992	92.6239	54.1992	92.4265
55.6641	93.6184	55.6641	93.3983	55.6641	93.8319	55.6641	93.1782	55.6641	94.0319	55.6641	92.9637	55.6641	94.2109	55.6641	92.7599	55.6641	94.3609	55.6641	92.5717	55.6641	94.4738	55.6641	92.4031	55.6641	94.5426	55.6641	92.2578	55.6641	94.5614	55.6641	92.1388	55.6641	94.5275	55.6641	92.0484	55.6641	94.4414	55.6641	91.9881	55.6641	94.3077	55.6641	91.959	55.6641	94.1344	55.6641	91.9613	55.6641	93.9312	55.6641	91.9949	55.6641	93.7086	55.6641	92.0592	55.6641	93.4762	55.6641	92.1535	55.6641	93.2425	55.6641	92.2766	55.6641	93.0148	55.6641	92.4269	55.6641	92.7996	55.6641	92.6022
58.5938	93.8038	58.5938	93.5782	58.5938	94.0226	58.5938	93.3528	58.5938	94.2268	58.5938	93.1341	58.5938	94.4083	58.5938	92.9282	58.5938	94.5591	58.5938	92.7401	58.5938	94.6712	58.5938	92.5742	58.5938	94.7376	58.5938	92.4343	58.5938	94.7532	58.5938	92.3229	58.5938	94.716	58.5938	92.2423	58.5938	94.6276	58.5938	92.1934	58.5938	94.4934	58.5938	92.1768	58.5938	94.322	58.5938	92.192	58.5938	94.1237	58.5938	92.2379	58.5938	93.9091	58.5938	92.3131	58.5938	93.6877	58.5938	92.4156	58.5938	93.4672	58.5938	92.5431	58.5938	93.2536	58.5938	92.6932	58.5938	93.0512	58.5938	92.8635
60.0586	93.942	60.0586	93.7199	60.0586	94.1563	60.0586	93.497	60.0586	94.3553	60.0586	93.2797	60.0586	94.5311	60.0586	93.0739	60.0586	94.6755	60.0586	92.8846	60.0586	94.781	60.0586	92.7163	60.0586	94.8406	60.0586	92.5726	60.0586	94.8498	60.0586	92.4563	60.0586	94.8066	60.0586	92.3696	60.0586	94.7131	60.0586	92.3138	60.0586	94.5748	60.0586	92.2897	60.0586	94.4005	60.0586	92.2973	60.0586	94.2006	60.0586	92.3359	60.0586	93.9854	60.0586	92.4046	60.0586	93.7641	60.0586	92.5017	60.0586	93.5442	60.0586	92.6254	60.0586	93.3311	60.0586	92.7731	60.0586	93.1292	60.0586	92.9421
62.9883	94.0733	62.9883	93.8557	62.9883	94.2832	62.9883	93.6378	62.9883	94.4779	62.9883	93.426	62.9883	94.6493	62.9883	93.2263	62.9883	94.7896	62.9883	93.0441	62.9883	94.8913	62.9883	92.8837	62.9883	94.948	62.9883	92.7487	62.9883	94.9555	62.9883	92.6419	62.9883	94.9125	62.9883	92.5651	62.9883	94.8211	62.9883	92.5193	62.9883	94.6873	62.9883	92.5045	62.9883	94.5196	62.9883	92.5201	62.9883	94.3282	62.9883	92.565	62.9883	94.1236	62.9883	92.6373	62.9883	93.9151	62.9883	92.7348	62.9883	93.7097	62.9883	92.8551	62.9883	93.5125	62.9883	92.9954	62.9883	93.3263	62.9883	93.1533
64.4531	94.1092	64.4531	93.8914	64.4531	94.3186	64.4531	93.6726	64.4531	94.512	64.4531	93.4597	64.4531	94.6815	64.4531	93.2586	64.4531	94.8193	64.4531	93.0751	64.4531	94.9182	64.4531	92.9137	64.4531	94.9724	64.4531	92.7783	64.4531	94.978	64.4531	92.6717	64.4531	94.9344	64.4531	92.5959	64.4531	94.8441	64.4531	92.5517	64.4531	94.713	64.4531	92.5393	64.4531	94.5495	64.4531	92.5578	64.4531	94.3634	64.4531	92.6058	64.4531	94.1643	64.4531	92.6813	64.4531	93.9608	64.4531	92.782	64.4531	93.7594	64.4531	92.905	64.4531	93.5647	64.4531	93.0475	64.4531	93.3797	64.4531	93.2066
67.3828	94.0873	67.3828	93.8666	67.3828	94.2986	67.3828	93.644	67.3828	94.4923	67.3828	93.427	67.3828	94.6605	67.3828	93.2222	67.3828	94.7956	67.3828	93.0355	67.3828	94.8909	67.3828	92.8721	67.3828	94.9411	67.3828	92.7362	67.3828	94.9433	67.3828	92.6307	67.3828	94.8976	67.3828	92.5577	67.3828	94.8072	67.3828	92.5179	67.3828	94.6784	67.3828	92.511	67.3828	94.5193	67.3828	92.536	67.3828	94.3393	67.3828	92.5907	67.3828	94.1472	67.3828	92.6726	67.3828	93.9507	67.3828	92.7787	67.3828	93.7553	67.3828	92.9058	67.3828	93.5652	67.3828	93.0509	67.3828	93.3829	67.3828	93.2108
68.8477	94.1533	68.8477	93.934	68.8477	94.3625	68.8477	93.7123	68.8477	94.5535	68.8477	93.4955	68.8477	94.7187	68.8477	93.2905	68.8477	94.8505	68.8477	93.1034	68.8477	94.9424	68.8477	92.9394	68.8477	94.9897	68.8477	92.803	68.8477	94.9898	68.8477	92.6972	68.8477	94.9429	68.8477	92.6242	68.8477	94.8527	68.8477	92.5847	68.8477	94.7254	68.8477	92.5786	68.8477	94.5694	68.8477	92.6046	68.8477	94.3934	68.8477	92.6607	68.8477	94.2059	68.8477	92.7441	68.8477	94.014	68.8477	92.8518	68.8477	93.823	68.8477	92.9802	68.8477	93.6364	68.8477	93.1259	68.8477	93.4566	68.8477	93.2857
71.7773	94.2995	71.7773	94.0826	71.7773	94.5039	71.7773	93.8609	71.7773	94.688	71.7773	93.6418	71.7773	94.8444	71.7773	93.4326	71.7773	94.9661	71.7773	93.2398	71.7773	95.0473	71.7773	93.0695	71.7773	95.0838	71.7773	92.9266	71.7773	95.0738	71.7773	92.815	71.7773	95.0186	71.7773	92.7375	71.7773	94.9226	71.7773	92.6952	71.7773	94.7928	71.7773	92.688	71.7773	94.6377	71.7773	92.7148	71.7773	94.466	71.7773	92.773	71.7773	94.2856	71.7773	92.8593	71.7773	94.1025	71.7773	92.9697	71.7773	93.9207	71.7773	93.1001	71.7773	93.7427	71.7773	93.246	71.7773	93.5699	71.7773	93.4037
74.707	94.411	74.707	94.2009	74.707	94.6084	74.707	93.9857	74.707	94.785	74.707	93.773	74.707	94.9335	74.707	93.5699	74.707	95.0469	74.707	93.3829	74.707	95.1195	74.707	93.2177	74.707	95.1476	74.707	93.0791	74.707	95.1298	74.707	92.9707	74.707	95.0677	74.707	92.8949	74.707	94.9662	74.707	92.853	74.707	94.8328	74.707	92.8448	74.707	94.6763	74.707	92.8687	74.707	94.5059	74.707	92.9223	74.707	94.3295	74.707	93.0023	74.707	94.1533	74.707	93.1044	74.707	93.9813	74.707	93.2246	74.707	93.8151	74.707	93.3586	74.707	93.6556	74.707	93.5031
77.6367	94.4388	77.6367	94.2261	77.6367	94.6381	77.6367	94.0083	77.6367	94.8158	77.6367	93.7935	77.6367	94.9642	77.6367	93.5893	77.6367	95.0762	77.6367	93.4026	77.6367	95.1464	77.6367	93.2394	77.6367	95.1712	77.6367	93.1046	77.6367	95.15	77.6367	93.0019	77.6367	95.0848	77.6367	92.9334	77.6367	94.9814	77.6367	92.8999	77.6367	94.8478	77.6367	92.9006	77.6367	94.6936	77.6367	92.9335	77.6367	94.5281	77.6367	92.9953	77.6367	94.3595	77.6367	93.0819	77.6367	94.1933	77.6367	93.1886	77.6367	94.0325	77.6367	93.3105	77.6367	93.8776	77.6367	93.4431	77.6367	93.7279	77.6367	93.583
79.1016	94.4766	79.1016	94.2624	79.1016	94.6758	79.1016	94.0417	79.1016	94.852	79.1016	93.8228	79.1016	94.9972	79.1016	93.6136	79.1016	95.1048	79.1016	93.4212	79.1016	95.1694	79.1016	93.252	79.1016	95.1878	79.1016	93.1113	79.1016	95.1596	79.1016	93.0029	79.1016	95.0875	79.1016	92.9294	79.1016	94.9774	79.1016	92.8919	79.1016	94.8379	79.1016	92.8896	79.1016	94.6789	79.1016	92.9206	79.1016	94.5101	79.1016	92.9815	79.1016	94.3396	79.1016	93.0679	79.1016	94.1729	79.1016	93.1748	79.1016	94.0129	79.1016	93.2969	79.1016	93.8596	79.1016	93.4293	79.1016	93.7118	79.1016	93.5683
82.0312	94.5012	82.0312	94.2869	82.0312	94.698	82.0312	94.0635	82.0312	94.8692	82.0312	93.8395	82.0312	95.0074	82.0312	93.6232	82.0312	95.1063	82.0312	93.4223	82.0312	95.1611	82.0312	93.2438	82.0312	95.1689	82.0312	93.0934	82.0312	95.1297	82.0312	92.9757	82.0312	95.0464	82.0312	92.8936	82.0312	94.9251	82.0312	92.8481	82.0312	94.7742	82.0312	92.8387	82.0312	94.6037	82.0312	92.8631	82.0312	94.4235	82.0312	92.9176	82.0312	94.2425	82.0312	92.9973	82.0312	94.0674	82.0312	93.0968	82.0312	93.9021	82.0312	93.2107	82.0312	93.7476	82.0312	93.3345	82.0312	93.6027	82.0312	93.4654
84.9609	94.5216	84.9609	94.3111	84.9609	94.7131	84.9609	94.0892	84.9609	94.8783	84.9609	93.8638	84.9609	95.0109	84.9609	93.6429	84.9609	95.1056	84.9609	93.4342	84.9609	95.1587	84.9609	93.245	84.9609	95.1682	84.9609	93.0816	84.9609	95.1342	84.9609	92.9491	84.9609	95.0592	84.9609	92.8514	84.9609	94.9476	84.9609	92.7905	84.9609	94.8056	84.9609	92.7666	84.9609	94.6401	84.9609	92.7783	84.9609	94.4581	84.9609	92.8224	84.9609	94.2668	84.9609	92.8946	84.9609	94.0732	84.9609	92.99	84.9609	93.8836	84.9609	93.1043	84.9609	93.7027	84.9609	93.2339	84.9609	93.5335	84.9609	93.3772
87.8906	94.524	87.8906	94.3312	87.8906	94.6979	87.8906	94.1265	87.8906	94.8463	87.8906	93.9176	87.8906	94.9639	87.8906	93.712	87.8906	95.0464	87.8906	93.5171	87.8906	95.0914	87.8906	93.3397	87.8906	95.0986	87.8906	93.1858	87.8906	95.0696	87.8906	93.0603	87.8906	95.0084	87.8906	92.9667	87.8906	94.9203	87.8906	92.9073	87.8906	94.8112	87.8906	92.8832	87.8906	94.6862	87.8906	92.8939	87.8906	94.5487	87.8906	92.9382	87.8906	94.4005	87.8906	93.0136	87.8906	94.2423	87.8906	93.1172	87.8906	94.0754	87.8906	93.245	87.8906	93.9023	87.8906	93.3928	87.8906	93.7272	87.8906	93.5555
90.8203	94.444	90.8203	94.241	90.8203	94.6275	90.8203	94.0267	90.8203	94.7842	90.8203	93.8092	90.8203	94.9073	90.8203	93.5971	90.8203	94.9915	90.8203	93.3984	90.8203	95.0334	90.8203	93.2208	90.8203	95.0323	90.8203	93.0711	90.8203	94.9905	90.8203	92.9549	90.8203	94.9135	90.8203	92.8759	90.8203	94.81	90.8203	92.8362	90.8203	94.6898	90.8203	92.8358	90.8203	94.5622	90.8203	92.8729	90.8203	94.4334	90.8203	92.9442	90.8203	94.3061	90.8203	93.045	90.8203	94.179	90.8203	93.1694	90.8203	94.0489	90.8203	93.3109	90.8203	93.9124	90.8203	93.4623	90.8203	93.768	90.8203	93.6166
95.2148	94.6008	95.2148	94.391	95.2148	94.7871	95.2148	94.1669	95.2148	94.9419	95.2148	93.9381	95.2148	95.0583	95.2148	93.7142	95.2148	95.1315	95.2148	93.5043	95.2148	95.1592	95.2148	93.3166	95.2148	95.1416	95.2148	93.1579	95.2148	95.0821	95.2148	93.0334	95.2148	94.9873	95.2148	92.9462	95.2148	94.8658	95.2148	92.8975	95.2148	94.7269	95.2148	92.8863	95.2148	94.5788	95.2148	92.9098	95.2148	94.4269	95.2148	92.9638	95.2148	94.2741	95.2148	93.0437	95.2148	94.1213	95.2148	93.1443	95.2148	93.9693	95.2148	93.2609	95.2148	93.8186	95.2148	93.3895	95.2148	93.6707	95.2148	93.5269
98.1445	94.6057	98.1445	94.405	98.1445	94.7819	98.1445	94.1882	98.1445	94.9258	98.1445	93.964	98.1445	95.0308	98.1445	93.7414	98.1445	95.0917	98.1445	93.5289	98.1445	95.1058	98.1445	93.3348	98.1445	95.0731	98.1445	93.1664	98.1445	94.9975	98.1445	93.0296	98.1445	94.8867	98.1445	92.9289	98.1445	94.7516	98.1445	92.8669	98.1445	94.6043	98.1445	92.844	98.1445	94.4553	98.1445	92.8588	98.1445	94.3113	98.1445	92.9081	98.1445	94.1738	98.1445	92.9872	98.1445	94.0406	98.1445	93.0907	98.1445	93.9076	98.1445	93.2128	98.1445	93.7715	98.1445	93.3473	98.1445	93.6312	98.1445	93.4885
101.074	94.4662	101.074	94.2553	101.074	94.6519	101.074	94.0285	101.074	94.8036	101.074	93.7956	101.074	94.914	101.074	93.5663	101.074	94.9771	101.074	93.3502	101.074	94.9899	101.074	93.1562	101.074	94.9524	101.074	92.9923	101.074	94.8689	101.074	92.8646	101.074	94.7481	101.074	92.7774	101.074	94.6023	101.074	92.7326	101.074	94.446	101.074	92.7296	101.074	94.2925	101.074	92.7653	101.074	94.1509	101.074	92.8349	101.074	94.0244	101.074	92.9317	101.074	93.9099	101.074	93.0486	101.074	93.8009	101.074	93.178	101.074	93.6899	101.074	93.3125	101.074	93.5719	101.074	93.4454
105.469	94.6524	105.469	94.4366	105.469	94.838	105.469	94.2003	105.469	94.9841	105.469	93.9541	105.469	95.0833	105.469	93.7082	105.469	95.1301	105.469	93.473	105.469	95.1221	105.469	93.2579	105.469	95.0602	105.469	93.0715	105.469	94.9494	105.469	92.9213	105.469	94.7991	105.469	92.8127	105.469	94.6221	105.469	92.7491	105.469	94.4335	105.469	92.7309	105.469	94.2478	105.469	92.7556	105.469	94.0766	105.469	92.8176	105.469	93.9264	105.469	92.9089	105.469	93.7979	105.469	93.0197	105.469	93.6864	105.469	93.14	105.469	93.5842	105.469	93.2607	105.469	93.4827	105.469	93.3756
108.398	94.9255	108.398	94.7247	108.398	95.0922	108.398	94.4993	108.398	95.2166	108.398	94.2595	108.398	95.2923	108.398	94.0155	108.398	95.315	108.398	93.7777	108.398	95.2834	108.398	93.5556	108.398	95.1993	108.398	93.3577	108.398	95.0685	108.398	93.1912	108.398	94.9009	108.398	93.0616	108.398	94.7098	108.398	92.9723	108.398	94.5106	108.398	92.9245	108.398	94.3176	108.398	92.9169	108.398	94.1416	108.398	92.9459	108.398	93.9872	108.398	93.0056	108.398	93.8534	108.398	93.0889	108.398	93.7345	108.398	93.1879	108.398	93.6236	108.398	93.2953	108.398	93.515	108.398	93.4055
112.793	94.8994	112.793	94.6913	112.793	95.0729	112.793	94.4578	112.793	95.2038	112.793	94.2091	112.793	95.2858	112.793	93.9558	112.793	95.3146	112.793	93.7085	112.793	95.2886	112.793	93.4771	112.793	95.2088	112.793	93.2705	112.793	95.08	112.793	93.0958	112.793	94.9102	112.793	92.9586	112.793	94.7111	112.793	92.8618	112.793	94.4965	112.793	92.8062	112.793	94.281	112.793	92.7902	112.793	94.0772	112.793	92.8101	112.793	93.8937	112.793	92.8607	112.793	93.7335	112.793	92.9355	112.793	93.594	112.793	93.0277	112.793	93.4691	112.793	93.1308	112.793	93.3525	112.793	93.24
117.188	94.7181	117.188	94.4999	117.188	94.8995	117.188	94.2541	117.188	95.0365	117.188	93.9908	117.188	95.1232	117.188	93.7216	117.188	95.1561	117.188	93.4589	117.188	95.1345	117.188	93.2152	117.188	95.0614	117.188	93.0027	117.188	94.9439	117.188	92.8316	117.188	94.793	117.188	92.7095	117.188	94.6227	117.188	92.64	117.188	94.448	117.188	92.6227	117.188	94.2812	117.188	92.6531	117.188	94.1299	117.188	92.7238	117.188	93.995	117.188	92.8259	117.188	93.8721	117.188	92.9499	117.188	93.7538	117.188	93.0869	117.188	93.6331	117.188	93.2291	117.188	93.5055	117.188	93.3701
120.117	94.7988	120.117	94.5777	120.117	94.9851	120.117	94.3313	120.117	95.1282	120.117	94.069	120.117	95.2207	120.117	93.8009	120.117	95.2572	120.117	93.5371	120.117	95.2348	120.117	93.2881	120.117	95.1543	120.117	93.0644	120.117	95.0206	120.117	92.8763	120.117	94.8439	120.117	92.7326	120.117	94.6389	120.117	92.64	120.117	94.4237	120.117	92.6015	120.117	94.2167	120.117	92.6156	120.117	94.0324	120.117	92.6765	120.117	93.8777	120.117	92.7746	120.117	93.7503	120.117	92.8982	120.117	93.6406	120.117	93.0349	120.117	93.5363	120.117	93.1737	120.117	93.4267	120.117	93.3059
124.512	94.7455	124.512	94.5317	124.512	94.9266	124.512	94.2951	124.512	95.066	124.512	94.0462	124.512	95.1567	124.512	93.7953	124.512	95.194	124.512	93.5523	124.512	95.1757	124.512	93.3257	124.512	95.1028	124.512	93.123	124.512	94.9794	124.512	92.9505	124.512	94.8137	124.512	92.8132	124.512	94.6166	124.512	92.7148	124.512	94.402	124.512	92.6574	124.512	94.1845	124.512	92.6413	124.512	93.9778	124.512	92.6641	124.512	93.7917	124.512	92.7209	124.512	93.6301	124.512	92.8046	124.512	93.4907	124.512	92.9066	124.512	93.3665	124.512	93.0186	124.512	93.2494	124.512	93.1339
128.906	94.4666	128.906	94.2423	128.906	94.6567	128.906	93.9947	128.906	94.8034	128.906	93.7365	128.906	94.8999	128.906	93.4811	128.906	94.9419	128.906	93.2419	128.906	94.9282	128.906	93.031	128.906	94.8614	128.906	92.8583	128.906	94.7477	128.906	92.7301	128.906	94.5976	128.906	92.6492	128.906	94.4245	128.906	92.6144	128.906	94.243	128.906	92.6212	128.906	94.0666	128.906	92.6632	128.906	93.9057	128.906	92.7327	128.906	93.7653	128.906	92.8218	128.906	93.6447	128.906	92.9229	128.906	93.539	128.906	93.0299	128.906	93.4406	128.906	93.1375	128.906	93.3431	128.906	93.2425
133.301	94.4822	133.301	94.2405	133.301	94.6863	133.301	93.9725	133.301	94.8429	133.301	93.6907	133.301	94.9445	133.301	93.4089	133.301	94.9862	133.301	93.141	133.301	94.9666	133.301	92.9011	133.301	94.8888	133.301	92.7019	133.301	94.7605	133.301	92.5533	133.301	94.5946	133.301	92.4617	133.301	94.4076	133.301	92.4287	133.301	94.2174	133.301	92.4506	133.301	94.0403	133.301	92.5197	133.301	93.8872	133.301	92.6247	133.301	93.7618	133.301	92.7534	133.301	93.6599	133.301	92.8934	133.301	93.5717	133.301	93.034	133.301	93.4861	133.301	93.1672	133.301	93.3933	133.301	93.2876
139.16	94.6169	139.16	94.3663	139.16	94.8239	139.16	94.0841	139.16	94.9773	139.16	93.7833	139.16	95.0695	139.16	93.4776	139.16	95.0962	139.16	93.1809	139.16	95.0572	139.16	92.907	139.16	94.9563	139.16	92.669	139.16	94.8017	139.16	92.4783	139.16	94.6057	139.16	92.3436	139.16	94.384	139.16	92.2695	139.16	94.1543	139.16	92.2559	139.16	93.9346	139.16	92.2978	139.16	93.7404	139.16	92.3856	139.16	93.5811	139.16	92.5066	139.16	93.4564	139.16	92.6469	139.16	93.3565	139.16	92.7932	139.16	93.2663	139.16	92.934	139.16	93.171	139.16	93.0611
143.555	94.5615	143.555	94.3179	143.555	94.7588	143.555	94.0401	143.555	94.9	143.555	93.7418	143.555	94.9789	143.555	93.4373	143.555	94.9929	143.555	93.1409	143.555	94.9437	143.555	92.8659	143.555	94.8373	143.555	92.6242	143.555	94.6834	143.555	92.4262	143.555	94.4949	143.555	92.2799	143.555	94.2862	143.555	92.1907	143.555	94.072	143.555	92.1604	143.555	93.8655	143.555	92.1863	143.555	93.6773	143.555	92.2613	143.555	93.514	143.555	92.374	143.555	93.3765	143.555	92.5103	143.555	93.2597	143.555	92.6558	143.555	93.1535	143.555	92.7982	143.555	93.0463	143.555	92.9291
147.949	94.2997	147.949	94.0442	147.949	94.5052	147.949	93.752	147.949	94.6509	147.949	93.4389	147.949	94.7308	147.949	93.1227	147.949	94.7433	147.949	92.8214	147.949	94.6913	147.949	92.552	147.949	94.5822	147.949	92.3287	147.949	94.4278	147.949	92.161	147.949	94.243	147.949	92.0532	147.949	94.0444	147.949	92.0041	147.949	93.8475	147.949	92.0084	147.949	93.6651	147.949	92.0578	147.949	93.505	147.949	92.1426	147.949	93.3685	147.949	92.2533	147.949	93.2509	147.949	92.3812	147.949	93.143	147.949	92.5183	147.949	93.0347	147.949	92.6575	147.949	92.9188	147.949	92.7925
153.809	94.2674	153.809	94.0175	153.809	94.4641	153.809	93.7253	153.809	94.5996	153.809	93.4039	153.809	94.6688	153.809	93.0689	153.809	94.6704	153.809	92.7381	153.809	94.6071	153.809	92.4301	153.809	94.4866	153.809	92.1635	153.809	94.3214	153.809	91.9545	153.809	94.1283	153.809	91.8147	153.809	93.9262	153.809	91.7494	153.809	93.7338	153.809	91.7568	153.809	93.5656	153.809	91.8282	153.809	93.429	153.809	91.9504	153.809	93.3225	153.809	92.1081	153.809	93.2358	153.809	92.2858	153.809	93.1537	153.809	92.4694	153.809	93.061	153.809	92.6469	153.809	92.9471	153.809	92.8083
159.668	94.4555	159.668	94.1812	159.668	94.6735	159.668	93.8624	159.668	94.826	159.668	93.5136	159.668	94.9067	159.668	93.1511	159.668	94.9134	159.668	92.7937	159.668	94.8488	159.668	92.4614	159.668	94.7206	159.668	92.1748	159.668	94.5427	159.668	91.9526	159.668	94.3338	159.668	91.8087	159.668	94.1161	159.668	91.7502	159.668	93.912	159.668	91.7748	159.668	93.7394	159.668	91.8723	159.668	93.607	159.668	92.0265	159.668	93.5117	159.668	92.2184	159.668	93.4393	159.668	92.4293	159.668	93.3698	159.668	92.6424	159.668	93.2841	159.668	92.8437	159.668	93.1697	159.668	93.022
165.527	94.5775	165.527	94.3478	165.527	94.7465	165.527	94.0684	165.527	94.8467	165.527	93.7527	165.527	94.8736	165.527	93.4158	165.527	94.8272	165.527	93.0751	165.527	94.712	165.527	92.7491	165.527	94.5378	165.527	92.4575	165.527	94.3195	165.527	92.2199	165.527	94.0763	165.527	92.0533	165.527	93.8304	165.527	91.9687	165.527	93.6048	165.527	91.9681	165.527	93.4204	165.527	92.0432	165.527	93.2905	165.527	92.1769	165.527	93.2159	165.527	92.3476	165.527	93.1827	165.527	92.533	165.527	93.1668	165.527	92.7132	165.527	93.1423	165.527	92.8727	165.527	93.09	165.527	93.0003
171.387	94.4779	171.387	94.2338	171.387	94.6615	171.387	93.94	171.387	94.776	171.387	93.6096	171.387	94.8162	171.387	93.2575	171.387	94.7801	171.387	92.9005	171.387	94.6707	171.387	92.5571	171.387	94.4958	171.387	92.2468	171.387	94.2682	171.387	91.989	171.387	94.0055	171.387	91.8014	171.387	93.7294	171.387	91.6966	171.387	93.4641	171.387	91.6795	171.387	93.234	171.387	91.745	171.387	93.0591	171.387	91.8783	171.387	92.9487	171.387	92.0571	171.387	92.8956	171.387	92.2556	171.387	92.8767	171.387	92.449	171.387	92.8617	171.387	92.6162	171.387	92.8228	171.387	92.7427
177.246	94.3841	177.246	94.1604	177.246	94.5484	177.246	93.8859	177.246	94.647	177.246	93.5704	177.246	94.6759	177.246	93.2258	177.246	94.6344	177.246	92.8654	177.246	94.5251	177.246	92.5056	177.246	94.3543	177.246	92.1664	177.246	94.1328	177.246	91.871	177.246	93.8755	177.246	91.6437	177.246	93.6015	177.246	91.504	177.246	93.3322	177.246	91.4604	177.246	93.089	177.246	91.5063	177.246	92.8888	177.246	91.6212	177.246	92.7389	177.246	91.7776	177.246	92.6351	177.246	91.9474	177.246	92.5628	177.246	92.1085	177.246	92.5033	177.246	92.2467	177.246	92.439	177.246	92.3562
183.105	93.9572	183.105	93.7186	183.105	94.1463	183.105	93.4443	183.105	94.2738	183.105	93.1488	183.105	94.3308	183.105	92.8454	183.105	94.3127	183.105	92.5442	183.105	94.2213	183.105	92.2519	183.105	94.0643	183.105	91.9727	183.105	93.8561	183.105	91.711	183.105	93.6155	183.105	91.4758	183.105	93.3643	183.105	91.2829	183.105	93.1262	183.105	91.1534	183.105	92.9232	183.105	91.1079	183.105	92.7699	183.105	91.1566	183.105	92.6654	183.105	91.2923	183.105	92.5921	183.105	91.4909	183.105	92.5233	183.105	91.7192	183.105	92.4348	183.105	91.9456	183.105	92.3112	183.105	92.1471
188.965	94.0578	188.965	93.7784	188.965	94.2616	188.965	93.4397	188.965	94.3784	188.965	93.0624	188.965	94.403	188.965	92.6708	188.965	94.3374	188.965	92.2908	188.965	94.1921	188.965	91.9477	188.965	93.9849	188.965	91.6621	188.965	93.7387	188.965	91.447	188.965	93.4777	188.965	91.307	188.965	93.2239	188.965	91.2398	188.965	92.9955	188.965	91.2398	188.965	92.808	188.965	91.3001	188.965	92.6736	188.965	91.4129	188.965	92.595	188.965	91.5679	188.965	92.5582	188.965	91.7512	188.965	92.5349	188.965	91.9453	188.965	92.4944	188.965	92.1316	188.965	92.4158	188.965	92.2929
196.289	94.2145	196.289	93.9487	196.289	94.4054	196.289	93.6238	196.289	94.5102	196.289	93.2588	196.289	94.5225	196.289	92.8758	196.289	94.4425	196.289	92.4985	196.289	94.2775	196.289	92.1512	196.289	94.0428	196.289	91.8556	196.289	93.7609	196.289	91.6277	196.289	93.4592	196.289	91.4756	196.289	93.1657	196.289	91.3983	196.289	92.905	196.289	91.3879	196.289	92.6945	196.289	91.4327	196.289	92.5429	196.289	91.52	196.289	92.4476	196.289	91.6378	196.289	92.3945	196.289	91.7743	196.289	92.3609	196.289	91.9172	196.289	92.3228	196.289	92.0538	196.289	92.2623	196.289	92.1719
203.613	94.1337	203.613	93.8447	203.613	94.3321	203.613	93.4862	203.613	94.4257	203.613	93.0843	203.613	94.4089	203.613	92.6674	203.613	94.2871	203.613	92.2636	203.613	94.0764	203.613	91.8989	203.613	93.8025	203.613	91.5945	203.613	93.4967	203.613	91.3645	203.613	93.1879	203.613	91.2153	203.613	92.896	203.613	91.1445	203.613	92.6297	203.613	91.143	203.613	92.393	203.613	91.1974	203.613	92.1937	203.613	91.2925	203.613	92.0459	203.613	91.4133	203.613	91.959	203.613	91.5454	203.613	91.9255	203.613	91.6742	203.613	91.9186	203.613	91.7846	203.613	91.9059	203.613	91.8638
210.938	93.7549	210.938	93.4872	210.938	93.919	210.938	93.1295	210.938	93.9743	210.938	92.7048	210.938	93.9232	210.938	92.2457	210.938	93.7758	210.938	91.7926	210.938	93.5512	210.938	91.39	210.938	93.2803	210.938	91.0786	210.938	93.0057	210.938	90.8857	210.938	92.7754	210.938	90.8184	210.938	92.6262	210.938	90.862	210.938	92.5645	210.938	90.9862	210.938	92.5601	210.938	91.1547	210.938	92.562	210.938	91.334	210.938	92.5251	210.938	91.4991	210.938	92.4311	210.938	91.636	210.938	92.2935	210.938	91.743	210.938	92.1448	210.938	91.8293	210.938	92.0147	210.938	91.9131
218.262	93.683	218.262	93.3877	218.262	93.8746	218.262	93.0059	218.262	93.9489	218.262	92.5574	218.262	93.8968	218.262	92.0659	218.262	93.7167	218.262	91.5614	218.262	93.4183	218.262	91.0824	218.262	93.0278	218.262	90.6769	218.262	92.5935	218.262	90.3961	218.262	92.1889	218.262	90.2807	218.262	91.9028	218.262	90.3433	218.262	91.8085	218.262	90.5609	218.262	91.9229	218.262	90.885	218.262	92.1901	218.262	91.2607	218.262	92.5108	218.262	91.6425	218.262	92.7893	218.262	92.0004	218.262	92.9646	218.262	92.3187	218.262	93.0169	218.262	92.5899	218.262	92.9566	218.262	92.807
225.586	94.3714	225.586	94.0533	225.586	94.5689	225.586	93.6298	225.586	94.6351	225.586	93.1213	225.586	94.5635	225.586	92.5543	225.586	94.3524	225.586	91.9613	225.586	94.0056	225.586	91.3814	225.586	93.5366	225.586	90.8599	225.586	92.9747	225.586	90.4465	225.586	92.3747	225.586	90.1898	225.586	91.8253	225.586	90.1254	225.586	91.4413	225.586	90.2612	225.586	91.3193	225.586	90.5684	225.586	91.473	225.586	90.9899	225.586	91.8137	225.586	91.4577	225.586	92.2083	225.586	91.9112	225.586	92.5467	225.586	92.3039	225.586	92.7673	225.586	92.6042	225.586	92.8485	225.586	92.7907
232.91	94.2572	232.91	93.9355	232.91	94.4565	232.91	93.5044	232.91	94.5246	232.91	92.9827	232.91	94.4564	232.91	92.3975	232.91	94.2503	232.91	91.7848	232.91	93.91	232.91	91.1888	232.91	93.4469	232.91	90.6579	232.91	92.884	232.91	90.2382	232.91	92.2618	232.91	89.9661	232.91	91.6468	232.91	89.8632	232.91	91.1377	232.91	89.9316	232.91	90.8469	232.91	90.1515	232.91	90.8404	232.91	90.4818	232.91	91.0763	232.91	90.8686	232.91	91.4245	232.91	91.2565	232.91	91.751	232.91	91.5987	232.91	91.9735	232.91	91.8613	232.91	92.0632	232.91	92.0216
241.699	94.0296	241.699	93.6959	241.699	94.2439	241.699	93.2521	241.699	94.332	241.699	92.7121	241.699	94.2886	241.699	92.0976	241.699	94.111	241.699	91.4415	241.699	93.8004	241.699	90.7908	241.699	93.3651	241.699	90.2056	241.699	92.8239	241.699	89.7514	241.699	92.2115	241.699	89.4837	241.699	91.5845	241.699	89.43	241.699	91.0267	241.699	89.579	241.699	90.6422	241.699	89.8854	241.699	90.5167	241.699	90.2851	241.699	90.6572	241.699	90.7129	241.699	90.972	241.699	91.1133	241.699	91.3267	241.699	91.4449	241.699	91.6129	241.699	91.6786	241.699	91.7737	241.699	91.7934
250.488	94.5111	250.488	94.1261	250.488	94.7686	250.488	93.6231	250.488	94.8891	250.488	93.0126	250.488	94.8639	250.488	92.3084	250.488	94.6868	250.488	91.5319	250.488	94.356	250.488	90.7181	250.488	93.8764	250.488	89.9225	250.488	93.2633	250.488	89.2257	250.488	92.5478	250.488	88.7267	250.488	91.7879	250.488	88.5147	250.488	91.0818	250.488	88.624	250.488	90.5663	250.488	89.0078	250.488	90.3657	250.488	89.5614	250.488	90.4988	250.488	90.1705	250.488	90.8496	250.488	90.7434	250.488	91.2504	250.488	91.2185	250.488	91.5703	250.488	91.557	250.488	91.74	250.488	91.7354
259.277	94.5912	259.277	94.2737	259.277	94.7943	259.277	93.8487	259.277	94.8774	259.277	93.3235	259.277	94.8369	259.277	92.7072	259.277	94.6722	259.277	92.0145	259.277	94.3849	259.277	91.2717	259.277	93.9787	259.277	90.525	259.277	93.4591	259.277	89.8455	259.277	92.8365	259.277	89.3247	259.277	92.135	259.277	89.0505	259.277	91.4088	259.277	89.068	259.277	90.7599	259.277	89.3512	259.277	90.3292	259.277	89.8147	259.277	90.2274	259.277	90.3516	259.277	90.442	259.277	90.8657	259.277	90.8353	259.277	91.283	259.277	91.2383	259.277	91.5513	259.277	91.5268	259.277	91.6368
268.066	94.0707	268.066	93.7666	268.066	94.2661	268.066	93.3583	268.066	94.3474	268.066	92.8474	268.066	94.3108	268.066	92.2326	268.066	94.1556	268.066	91.5142	268.066	93.8851	268.066	90.7033	268.066	93.5069	268.066	89.8347	268.066	93.0329	268.066	88.9819	268.066	92.4795	268.066	88.2634	268.066	91.869	268.066	87.8217	268.066	91.2405	268.066	87.7587	268.066	90.6658	268.066	88.0663	268.066	90.2482	268.066	88.6271	268.066	90.071	268.066	89.2822	268.066	90.1278	268.066	89.8938	268.066	90.3251	268.066	90.3699	268.066	90.5514	268.066	90.6652	268.066	90.7213	268.066	90.7741
276.855	93.9616	276.855	93.6629	276.855	94.156	276.855	93.2762	276.855	94.2368	276.855	92.8197	276.855	94.2021	276.855	92.3047	276.855	94.0542	276.855	91.729	276.855	93.7966	276.855	91.0791	276.855	93.4335	276.855	90.3425	276.855	92.9737	276.855	89.5314	276.855	92.4357	276.855	88.7137	276.855	91.8538	276.855	88.0332	276.855	91.282	276.855	87.6741	276.855	90.7936	276.855	87.7375	276.855	90.4671	276.855	88.1497	276.855	90.3507	276.855	88.7354	276.855	90.4199	276.855	89.3412	276.855	90.5779	276.855	89.8783	276.855	90.7075	276.855	90.3027	276.855	90.7237	276.855	90.5895
287.109	93.8511	287.109	93.6498	287.109	93.918	287.109	93.3147	287.109	93.8603	287.109	92.8599	287.109	93.6933	287.109	92.3116	287.109	93.4327	287.109	91.7019	287.109	93.0916	287.109	91.0565	287.109	92.6794	287.109	90.3851	287.109	92.2051	287.109	89.6865	287.109	91.6842	287.109	88.975	287.109	91.1533	287.109	88.3219	287.109	90.6876	287.109	87.8814	287.109	90.3945	287.109	87.8308	287.109	90.3568	287.109	88.2183	287.109	90.5564	287.109	88.8996	287.109	90.8764	287.109	89.6623	287.109	91.1803	287.109	90.3509	287.109	91.3712	287.109	90.8863	287.109	91.3976	287.109	91.2378
297.363	94.3357	297.363	94.1382	297.363	94.406	297.363	93.8157	297.363	94.3433	297.363	93.3672	297.363	94.1425	297.363	92.7917	297.363	93.8043	297.363	92.0958	297.363	93.3429	297.363	91.3038	297.363	92.7867	297.363	90.4618	297.363	92.1685	297.363	89.6298	297.363	91.5094	297.363	88.8637	297.363	90.8188	297.363	88.2068	297.363	90.1369	297.363	87.7149	297.363	89.5991	297.363	87.4876	297.363	89.41	297.363	87.6318	297.363	89.6427	297.363	88.1473	297.363	90.1173	297.363	88.8846	297.363	90.5767	297.363	89.6447	297.363	90.8604	297.363	90.2802	297.363	90.9092	297.363	90.7126
307.617	93.7323	307.617	93.4288	307.617	93.9437	307.617	93.0601	307.617	94.0377	307.617	92.6485	307.617	93.9915	307.617	92.2026	307.617	93.7853	307.617	91.7107	307.617	93.4071	307.617	91.1484	307.617	92.8594	307.617	90.4957	307.617	92.1666	307.617	89.7616	307.617	91.376	307.617	89.0032	307.617	90.5496	307.617	88.3285	307.617	89.7516	307.617	87.8638	307.617	89.0568	307.617	87.6906	307.617	88.587	307.617	87.807	307.617	88.4953	307.617	88.1492	307.617	88.8102	307.617	88.6315	307.617	89.3336	307.617	89.1598	307.617	89.7922	307.617	89.6319	307.617	90.0113	307.617	89.9445
319.336	94.1865	319.336	93.8605	319.336	94.3657	319.336	93.4039	319.336	94.3901	319.336	92.8427	319.336	94.2575	319.336	92.2131	319.336	93.9698	319.336	91.5555	319.336	93.53	319.336	90.9016	319.336	92.9372	319.336	90.2602	319.336	92.1805	319.336	89.6183	319.336	91.2382	319.336	88.9717	319.336	90.1002	319.336	88.3756	319.336	88.8342	319.336	87.9765	319.336	87.7062	319.336	87.9491	319.336	87.1838	319.336	88.3335	319.336	87.491	319.336	88.9728	319.336	88.2937	319.336	89.6444	319.336	89.1595	319.336	90.1839	319.336	89.8694	319.336	90.5025	319.336	90.3462	319.336	90.5603
329.59	93.7655	329.59	93.5435	329.59	93.8801	329.59	93.2206	329.59	93.8846	329.59	92.8062	329.59	93.7787	329.59	92.3121	329.59	93.5648	329.59	91.7514	329.59	93.2479	329.59	91.1385	329.59	92.833	329.59	90.4868	329.59	92.3188	329.59	89.806	329.59	91.6901	329.59	89.1058	329.59	90.9191	329.59	88.4166	329.59	89.9856	329.59	87.8215	329.59	88.929	329.59	87.4669	329.59	87.9292	329.59	87.4888	329.59	87.3271	329.59	87.8805	329.59	87.3855	329.59	88.4689	329.59	87.9684	329.59	89.0349	329.59	88.6899	329.59	89.4107	329.59	89.2459	329.59	89.4953
341.309	93.9369	341.309	93.7196	341.309	94.0154	341.309	93.3777	341.309	93.9499	341.309	92.9276	341.309	93.7505	341.309	92.3849	341.309	93.4443	341.309	91.7662	341.309	93.0673	341.309	91.0921	341.309	92.6501	341.309	90.3858	341.309	92.2002	341.309	89.6694	341.309	91.6891	341.309	88.9669	341.309	91.0576	341.309	88.3269	341.309	90.2567	341.309	87.8526	341.309	89.3367	341.309	87.6923	341.309	88.5571	341.309	87.9398	341.309	88.3143	341.309	88.5261	341.309	88.7125	341.309	89.256	341.309	89.4209	341.309	89.9307	341.309	90.0788	341.309	90.4101	341.309	90.4987	341.309	90.6117
353.027	93.8539	353.027	93.539	353.027	94.0246	353.027	93.1133	353.027	94.0327	353.027	92.61	353.027	93.8813	353.027	92.0481	353.027	93.5936	353.027	91.4297	353.027	93.2055	353.027	90.753	353.027	92.7578	353.027	90.0311	353.027	92.2836	353.027	89.3012	353.027	91.7882	353.027	88.6182	353.027	91.2346	353.027	88.0439	353.027	90.557	353.027	87.6559	353.027	89.7189	353.027	87.5627	353.027	88.8201	353.027	87.8603	353.027	88.1975	353.027	88.5178	353.027	88.2546	353.027	89.3447	353.027	88.9472	353.027	90.1016	353.027	89.8115	353.027	90.6026	353.027	90.4636	353.027	90.7379
366.211	94.4342	366.211	94.1035	366.211	94.5906	366.211	93.6029	366.211	94.5772	366.211	92.9521	366.211	94.3981	366.211	92.1852	366.211	94.0513	366.211	91.3431	366.211	93.5372	366.211	90.4624	366.211	92.8771	366.211	89.5706	366.211	92.1253	366.211	88.6967	366.211	91.3591	366.211	87.8965	366.211	90.647	366.211	87.2673	366.211	90.0347	366.211	86.9229	366.211	89.5676	366.211	86.928	366.211	89.2812	366.211	87.2515	366.211	89.1337	366.211	87.7876	366.211	89.036	366.211	88.4005	366.211	88.9926	366.211	88.9511	366.211	89.0896	366.211	89.316	366.211	89.2942	366.211	89.4214
379.395	94.481	379.395	94.2709	379.395	94.5871	379.395	93.951	379.395	94.5966	379.395	93.5157	379.395	94.5141	379.395	92.9565	379.395	94.3338	379.395	92.265	379.395	94.038	379.395	91.4405	379.395	93.601	379.395	90.495	379.395	92.9921	379.395	89.4532	379.395	92.1784	379.395	88.3572	379.395	91.1275	379.395	87.2995	379.395	89.8369	379.395	86.4883	379.395	88.4589	379.395	86.2377	379.395	87.5515	379.395	86.7029	379.395	87.8072	379.395	87.6488	379.395	88.9066	379.395	88.6932	379.395	89.9788	379.395	89.5921	379.395	90.6223	379.395	90.2579	379.395	90.8218	379.395	90.6754
392.578	93.196	392.578	92.877	392.578	93.422	392.578	92.5374	392.578	93.4964	392.578	92.2339	392.578	93.3907	392.578	91.9698	392.578	93.1193	392.578	91.6866	392.578	92.7459	392.578	91.2951	392.578	92.3599	392.578	90.7205	392.578	92.0152	392.578	89.9302	392.578	91.6722	392.578	88.9436	392.578	91.2008	392.578	87.8379	392.578	90.4414	392.578	86.7769	392.578	89.275	392.578	86.0701	392.578	87.7277	392.578	86.0891	392.578	86.2898	392.578	86.8724	392.578	86.1548	392.578	88.0194	392.578	87.506	392.578	89.1105	392.578	89.0283	392.578	89.8993	392.578	89.9728	392.578	90.2316
405.762	93.7396	405.762	93.31	405.762	93.9166	405.762	92.6731	405.762	93.8175	405.762	91.9058	405.762	93.4434	405.762	91.1184	405.762	92.8342	405.762	90.4218	405.762	92.0848	405.762	89.8577	405.762	91.3434	405.762	89.3537	405.762	90.7631	405.762	88.7663	405.762	90.3944	405.762	87.9723	405.762	90.1089	405.762	86.9465	405.762	89.6786	405.762	85.8459	405.762	88.9374	405.762	85.0948	405.762	87.899	405.762	85.1991	405.762	86.8438	405.762	86.1555	405.762	86.3628	405.762	87.4525	405.762	86.9225	405.762	88.6247	405.762	88.112	405.762	89.3963	405.762	89.1438	405.762	89.5979
420.41	93.5581	420.41	93.1765	420.41	93.7109	420.41	92.6123	420.41	93.6187	420.41	91.9246	420.41	93.3082	420.41	91.1728	420.41	92.8433	420.41	90.4102	420.41	92.3005	420.41	89.6751	420.41	91.7486	420.41	88.98	420.41	91.239	420.41	88.3057	420.41	90.788	420.41	87.6027	420.41	90.3405	420.41	86.8101	420.41	89.765	420.41	85.9082	420.41	88.9306	420.41	85.0362	420.41	87.8445	420.41	84.6298	420.41	86.7791	420.41	85.16	420.41	86.2188	420.41	86.4165	420.41	86.4862	420.41	87.7154	420.41	87.375	420.41	88.5694	420.41	88.3005	420.41	88.769
435.059	93.5716	435.059	93.2256	435.059	93.6552	435.059	92.6523	435.059	93.4833	435.059	91.9275	435.059	93.0928	435.059	91.1539	435.059	92.5407	435.059	90.431	435.059	91.9125	435.059	89.8056	435.059	91.3451	435.059	89.2333	435.059	90.9933	435.059	88.6002	435.059	90.8963	435.059	87.7972	435.059	90.8861	435.059	86.797	435.059	90.692	435.059	85.728	435.059	90.1173	435.059	84.9544	435.059	89.1552	435.059	84.9474	435.059	88.0502	435.059	85.7479	435.059	87.2234	435.059	86.865	435.059	86.9825	435.059	87.8137	435.059	87.3128	435.059	88.3338	435.059	87.9039	435.059	88.3381
451.172	93.5125	451.172	92.8082	451.172	93.9366	451.172	91.8584	451.172	94.0606	451.172	90.7408	451.172	93.863	451.172	89.5822	451.172	93.3304	451.172	88.5185	451.172	92.4802	451.172	87.6278	451.172	91.3825	451.172	86.9009	451.172	90.1884	451.172	86.2739	451.172	89.1683	451.172	85.6654	451.172	88.6337	451.172	84.9805	451.172	88.5929	451.172	84.112	451.172	88.6153	451.172	83.0205	451.172	88.2085	451.172	82.0135	451.172	87.1546	451.172	81.9927	451.172	85.8252	451.172	83.3305	451.172	85.3871	451.172	85.0665	451.172	86.1445	451.172	86.3974	451.172	86.9261	451.172	87.0443
465.82	93.2811	465.82	92.431	465.82	93.7852	465.82	91.3016	465.82	93.9272	465.82	90.016	465.82	93.7408	465.82	88.7535	465.82	93.298	465.82	87.6953	465.82	92.6834	465.82	86.8945	465.82	91.9765	465.82	86.2099	465.82	91.2576	465.82	85.4091	465.82	90.6038	465.82	84.3117	465.82	90.0373	465.82	82.8748	465.82	89.4866	465.82	81.3228	465.82	88.8438	465.82	80.3878	465.82	88.0689	465.82	80.9454	465.82	87.2579	465.82	82.7401	465.82	86.7099	465.82	84.8585	465.82	86.8639	465.82	86.723	465.82	87.6756	465.82	88.0378	465.82	88.4524	465.82	88.6319
483.398	93.2533	483.398	92.4377	483.398	93.7052	483.398	91.267	483.398	93.8409	483.398	89.814	483.398	93.7331	483.398	88.2427	483.398	93.425	483.398	86.8798	483.398	92.9181	483.398	86.1845	483.398	92.2339	483.398	86.3157	483.398	91.4946	483.398	86.8455	483.398	90.9366	483.398	87.2247	483.398	90.7658	483.398	87.1181	483.398	90.9139	483.398	86.3388	483.398	91.0388	483.398	84.7066	483.398	90.7878	483.398	81.9446	483.398	89.9633	483.398	78.0673	483.398	88.5584	483.398	77.3408	483.398	86.8757	483.398	81.0511	483.398	85.6733	483.398	83.7609	483.398	85.3369	483.398	85.016
499.512	93.5557	499.512	92.7893	499.512	94.0067	499.512	91.7188	499.512	94.1697	499.512	90.3926	499.512	94.0792	499.512	88.8612	499.512	93.7513	499.512	87.1711	499.512	93.2021	499.512	85.4949	499.512	92.4858	499.512	84.398	499.512	91.707	499.512	84.4766	499.512	91.0038	499.512	85.29	499.512	90.5269	499.512	85.9858	499.512	90.3874	499.512	86.1724	499.512	90.5362	499.512	85.7913	499.512	90.7129	499.512	84.9344	499.512	90.6055	499.512	83.9033	499.512	90.095	499.512	83.4762	499.512	89.3993	499.512	84.4203	499.512	88.8602	499.512	86.1239	499.512	88.3947	499.512	87.5597
517.09	93.7265	517.09	93.1803	517.09	93.9579	517.09	92.3131	517.09	93.9206	517.09	91.1738	517.09	93.6642	517.09	89.8489	517.09	93.2271	517.09	88.4393	517.09	92.6613	517.09	87.0753	517.09	92.0664	517.09	85.9737	517.09	91.5726	517.09	85.4095	517.09	91.232	517.09	85.4461	517.09	90.9128	517.09	85.7616	517.09	90.411	517.09	85.9035	517.09	89.748	517.09	85.5359	517.09	89.2671	517.09	84.5171	517.09	89.0926	517.09	83.1684	517.09	88.8338	517.09	82.911	517.09	88.3843	517.09	84.6104	517.09	88.1969	517.09	86.6449	517.09	88.2649	517.09	87.8997
536.133	94.1392	536.133	93.4955	536.133	94.4267	536.133	92.5493	536.133	94.337	536.133	91.3803	536.133	93.8708	536.133	90.0553	536.133	93.0428	536.133	88.5819	536.133	91.8977	536.133	86.94	536.133	90.5538	536.133	85.2969	536.133	89.285	536.133	84.2628	536.133	88.5591	536.133	84.2808	536.133	88.6593	536.133	84.762	536.133	89.1879	536.133	84.9854	536.133	89.4882	536.133	84.7075	536.133	89.2166	536.133	83.98	536.133	88.4947	536.133	83.1136	536.133	87.8617	536.133	82.9034	536.133	87.6824	536.133	84.009	536.133	87.7026	536.133	85.6783	536.133	87.5518	536.133	86.9394
555.176	93.3687	555.176	92.8433	555.176	93.6019	555.176	92.0377	555.176	93.5817	555.176	91.0238	555.176	93.3473	555.176	89.8929	555.176	92.8985	555.176	88.703	555.176	92.2011	555.176	87.4643	555.176	91.2197	555.176	86.1757	555.176	89.9613	555.176	84.9187	555.176	88.5631	555.176	83.9906	555.176	87.4515	555.176	83.8165	555.176	87.2733	555.176	84.378	555.176	88.0114	555.176	85.0708	555.176	88.7441	555.176	85.3035	555.176	88.7095	555.176	84.8117	555.176	87.8204	555.176	83.8688	555.176	86.9097	555.176	83.7336	555.176	86.928	555.176	85.1051	555.176	87.144	555.176	86.5665
574.219	93.3425	574.219	92.6733	574.219	93.7791	574.219	91.8168	574.219	93.9712	574.219	90.8416	574.219	93.9108	574.219	89.7886	574.219	93.5694	574.219	88.6385	574.219	92.9003	574.219	87.322	574.219	91.8747	574.219	85.7678	574.219	90.5508	574.219	84.0392	574.219	89.142	574.219	82.6076	574.219	87.9669	574.219	82.236	574.219	87.2513	574.219	82.814	574.219	87.1571	574.219	83.3869	574.219	87.668	574.219	83.2701	574.219	88.1162	574.219	82.293	574.219	87.8556	574.219	81.3215	574.219	87.1461	574.219	82.4402	574.219	86.9248	574.219	84.8302	574.219	87.0531	574.219	86.5083
594.727	92.3107	594.727	91.8749	594.727	92.6234	594.727	91.3375	594.727	92.7877	594.727	90.6758	594.727	92.7974	594.727	89.8405	594.727	92.6323	594.727	88.8223	594.727	92.2373	594.727	87.6834	594.727	91.563	594.727	86.5187	594.727	90.6039	594.727	85.4117	594.727	89.3791	594.727	84.4373	594.727	87.9368	594.727	83.7019	594.727	86.4874	594.727	83.3815	594.727	85.5	594.727	83.5644	594.727	85.4268	594.727	83.9017	594.727	86.2054	594.727	83.7894	594.727	87.1273	594.727	82.959	594.727	87.5054	594.727	82.1805	594.727	87.1995	594.727	83.1023	594.727	86.3696	594.727	84.9691
615.234	90.6861	615.234	91.4045	615.234	89.8189	615.234	91.82	615.234	88.9614	615.234	91.8321	615.234	88.2045	615.234	91.4286	615.234	87.5465	615.234	90.7099	615.234	86.9827	615.234	89.8495	615.234	86.5888	615.234	88.9587	615.234	86.426	615.234	88.0305	615.234	86.3763	615.234	87.0982	615.234	86.2177	615.234	86.344	615.234	85.9072	615.234	85.8999	615.234	85.5208	615.234	85.6193	615.234	84.6746	615.234	85.2522	615.234	82.5854	615.234	84.6286	615.234	79.3023	615.234	83.5191	615.234	78.0809	615.234	81.5991	615.234	78.9388	615.234	79.0927	615.234	78.7545	615.234	78.0048
637.207	95.2833	637.207	95.5598	637.207	94.5999	637.207	95.3971	637.207	93.5763	637.207	94.7938	637.207	92.3007	637.207	93.7717	637.207	90.8151	637.207	92.3935	637.207	89.0182	637.207	90.8522	637.207	86.6679	637.207	89.543	637.207	83.4919	637.207	88.7854	637.207	79.5421	637.207	88.4352	637.207	77.1862	637.207	88.1648	637.207	78.8958	637.207	87.8453	637.207	81.0165	637.207	87.5515	637.207	82.4549	637.207	87.3805	637.207	83.1804	637.207	87.2944	637.207	82.705	637.207	87.2249	637.207	81.3181	637.207	87.1923	637.207	82.1734	637.207	87.1074	637.207	84.8664	637.207	86.5342
659.18	94.8321	659.18	95.1143	659.18	94.3262	659.18	95.0385	659.18	93.6666	659.18	94.4989	659.18	92.7894	659.18	93.4523	659.18	91.596	659.18	91.9297	659.18	90.1129	659.18	90.0536	659.18	88.4993	659.18	88.0801	659.18	86.8854	659.18	86.4578	659.18	85.1874	659.18	85.6622	659.18	83.1522	659.18	85.7	659.18	80.8107	659.18	86.0837	659.18	78.9091	659.18	86.363	659.18	78.8818	659.18	86.3748	659.18	81.3116	659.18	86.2326	659.18	83.5891	659.18	86.2491	659.18	84.1334	659.18	86.6116	659.18	83.7577	659.18	86.9205	659.18	84.8298	659.18	86.4071
682.617	94.9741	682.617	95.1327	682.617	94.4682	682.617	94.9398	682.617	93.5948	682.617	94.3473	682.617	92.4302	682.617	93.3197	682.617	91.1671	682.617	91.8857	682.617	89.9049	682.617	90.138	682.617	88.6282	682.617	88.2213	682.617	87.5363	682.617	86.4456	682.617	87.006	682.617	85.3343	682.617	86.7066	682.617	85.0175	682.617	85.7274	682.617	84.968	682.617	84.4156	682.617	84.8364	682.617	84.4607	682.617	84.7597	682.617	84.5417	682.617	84.9362	682.617	83.174	682.617	85.3789	682.617	82.3735	682.617	85.9367	682.617	82.886	682.617	86.0132	682.617	83.4442	682.617	84.951
707.52	94.3382	707.52	94.1038	707.52	94.3873	707.52	93.6655	707.52	94.3005	707.52	92.9969	707.52	94.0517	707.52	92.0328	707.52	93.496	707.52	90.7216	707.52	92.5894	707.52	89.0973	707.52	91.4323	707.52	87.2897	707.52	90.0549	707.52	85.5401	707.52	88.5795	707.52	84.2326	707.52	87.3692	707.52	83.6641	707.52	86.3566	707.52	83.6816	707.52	85.4298	707.52	83.8042	707.52	85.7794	707.52	83.4963	707.52	86.989	707.52	82.2376	707.52	86.8842	707.52	80.4699	707.52	85.34	707.52	81.7432	707.52	85.4313	707.52	84.8533	707.52	86.8024	707.52	86.7069
732.422	92.1966	732.422	92.0852	732.422	92.2684	732.422	91.9283	732.422	92.2909	732.422	91.6314	732.422	92.1666	732.422	90.9643	732.422	91.8437	732.422	89.7469	732.422	91.5181	732.422	88.0397	732.422	91.1679	732.422	86.072	732.422	90.265	732.422	84.0654	732.422	88.5852	732.422	82.4991	732.422	86.861	732.422	82.2437	732.422	86.2817	732.422	83.2933	732.422	86.2266	732.422	84.6016	732.422	85.6457	732.422	85.3497	732.422	85.4308	732.422	85.0394	732.422	85.7456	732.422	83.2973	732.422	85.2968	732.422	80.5555	732.422	84.6915	732.422	80.5486	732.422	84.3833	732.422	83.0266
757.324	92.5467	757.324	92.9609	757.324	91.8777	757.324	93.0505	757.324	90.9855	757.324	92.7498	757.324	90.0476	757.324	91.9975	757.324	89.448	757.324	90.751	757.324	88.9341	757.324	89.091	757.324	87.8593	757.324	87.2577	757.324	86.4849	757.324	85.4281	757.324	85.6274	757.324	83.5341	757.324	84.8895	757.324	81.6728	757.324	83.5326	757.324	80.7791	757.324	83.5569	757.324	81.464	757.324	84.8523	757.324	82.7464	757.324	84.902	757.324	83.7305	757.324	84.1738	757.324	84.0378	757.324	83.2658	757.324	83.744	757.324	80.68	757.324	83.2403	757.324	79.4431	757.324	82.001
785.156	93.8495	785.156	94.1235	785.156	93.4138	785.156	94.1038	785.156	92.8895	785.156	93.5784	785.156	92.434	785.156	92.4311	785.156	92.0714	785.156	90.8032	785.156	91.49	785.156	89.0749	785.156	90.6682	785.156	87.6337	785.156	90.0911	785.156	86.6109	785.156	89.6184	785.156	85.7748	785.156	88.6034	785.156	84.7177	785.156	86.1937	785.156	83.4113	785.156	80.9719	785.156	83.1507	785.156	80.2254	785.156	84.3759	785.156	85.51	785.156	85.0343	785.156	86.7939	785.156	83.8579	785.156	85.3837	785.156	81.459	785.156	84.9074	785.156	82.449	785.156	85.7431	785.156	84.9795
811.523	94.7439	811.523	95.0481	811.523	94.0575	811.523	95.0181	811.523	93.1195	811.523	94.6241	811.523	92.3449	811.523	93.6021	811.523	92.0046	811.523	91.6167	811.523	91.9335	811.523	88.6732	811.523	91.8609	811.523	85.5703	811.523	91.3134	811.523	83.768	811.523	90.0192	811.523	83.8196	811.523	88.7636	811.523	84.7727	811.523	88.1283	811.523	85.4434	811.523	86.9177	811.523	85.461	811.523	83.3702	811.523	85.5695	811.523	79.943	811.523	86.304	811.523	84.9118	811.523	86.7166	811.523	86.1041	811.523	86.0814	811.523	84.3849	811.523	85.1203	811.523	84.2607	811.523	84.8919
840.82	95.5564	840.82	95.9011	840.82	94.8177	840.82	95.7961	840.82	94.0171	840.82	95.4154	840.82	93.2006	840.82	94.6782	840.82	92.4806	840.82	93.3151	840.82	92.0766	840.82	91.3329	840.82	91.573	840.82	89.1004	840.82	90.5377	840.82	87.0144	840.82	89.2298	840.82	85.7385	840.82	87.5494	840.82	85.8562	840.82	84.3716	840.82	85.9851	840.82	82.7956	840.82	85.1159	840.82	85.7057	840.82	83.9984	840.82	86.3212	840.82	83.6784	840.82	85.2805	840.82	83.5404	840.82	83.8167	840.82	83.3127	840.82	82.0005	840.82	83.771	840.82	83.3084	840.82	84.3315
870.117	96.2681	870.117	96.1129	870.117	96.0714	870.117	95.7473	870.117	95.1457	870.117	95.0881	870.117	93.7731	870.117	94.0171	870.117	92.7289	870.117	92.3863	870.117	91.9232	870.117	90.4625	870.117	91.178	870.117	88.8636	870.117	90.5112	870.117	87.2681	870.117	89.762	870.117	84.4739	870.117	89.2874	870.117	81.6114	870.117	88.5979	870.117	83.0054	870.117	86.0936	870.117	85.2436	870.117	80.2846	870.117	86.1575	870.117	75.9947	870.117	85.8148	870.117	81.6749	870.117	85.1723	870.117	84.3554	870.117	84.8701	870.117	83.5592	870.117	84.5886	870.117	81.2943	870.117	83.192
900.879	96.5174	900.879	96.7668	900.879	95.9194	900.879	96.5102	900.879	95.6575	900.879	95.8591	900.879	95.5306	900.879	94.7163	900.879	94.8224	900.879	92.9992	900.879	93.8917	900.879	90.9769	900.879	92.7544	900.879	89.0535	900.879	90.4763	900.879	87.0896	900.879	87.2815	900.879	84.951	900.879	86.1111	900.879	83.1423	900.879	87.1274	900.879	80.4036	900.879	86.8426	900.879	81.3174	900.879	86.7804	900.879	85.0462	900.879	87.429	900.879	86.1513	900.879	86.7814	900.879	84.9575	900.879	86.0041	900.879	84.2937	900.879	84.9374	900.879	85.9817	900.879	83.1986	900.879	85.2566
933.105	96.0254	933.105	96.1168	933.105	95.84	933.105	95.6686	933.105	95.6282	933.105	94.7584	933.105	94.99	933.105	93.8869	933.105	93.9366	933.105	92.9695	933.105	92.6532	933.105	91.3491	933.105	91.4563	933.105	88.7645	933.105	90.6305	933.105	86.3877	933.105	89.5706	933.105	86.4035	933.105	87.2016	933.105	87.1229	933.105	85.8205	933.105	86.2006	933.105	85.7932	933.105	83.5592	933.105	82.6665	933.105	82.4672	933.105	79.7755	933.105	84.1965	933.105	84.3295	933.105	84.5306	933.105	84.6704	933.105	81.74	933.105	82.4361	933.105	80.5809	933.105	83.1989	933.105	83.7608
965.332	96.0876	965.332	96.6969	965.332	95.7064	965.332	96.6776	965.332	95.491	965.332	95.5667	965.332	95.1118	965.332	93.8939	965.332	94.8626	965.332	92.4267	965.332	94.0905	965.332	90.9965	965.332	92.5365	965.332	89.0211	965.332	91.4809	965.332	86.8053	965.332	91.0179	965.332	85.6303	965.332	89.895	965.332	85.9521	965.332	87.48	965.332	86.2406	965.332	84.2315	965.332	84.7923	965.332	85.7101	965.332	83.8642	965.332	87.5217	965.332	86.3554	965.332	85.5481	965.332	87.4494	965.332	85.443	965.332	85.1428	965.332	83.3025	965.332	80.055	965.332	80.5664	965.332	82.176
1,000.49	94.9441	1,000.49	95.3108	1,000.49	95.3139	1,000.49	95.6973	1,000.49	95.4352	1,000.49	94.9375	1,000.49	94.9823	1,000.49	93.1386	1,000.49	93.8225	1,000.49	91.9301	1,000.49	91.7525	1,000.49	91.6255	1,000.49	90.3679	1,000.49	90.2551	1,000.49	89.8098	1,000.49	87.401	1,000.49	87.692	1,000.49	84.9157	1,000.49	84.2338	1,000.49	83.6086	1,000.49	83.6532	1,000.49	81.4893	1,000.49	84.2335	1,000.49	80.1429	1,000.49	80.5957	1,000.49	81.7746	1,000.49	83.4135	1,000.49	84.2483	1,000.49	86.8839	1,000.49	85.6428	1,000.49	85.7091	1,000.49	85.0634	1,000.49	82.4819	1,000.49	82.4063	1,000.49	79.7823	1,000.49	79.7751
1,035.64	94.5808	1,035.64	94.5308	1,035.64	94.9389	1,035.64	95.1116	1,035.64	95.2573	1,035.64	95.2303	1,035.64	95.3999	1,035.64	93.9366	1,035.64	94.6129	1,035.64	91.3602	1,035.64	93.0692	1,035.64	89.2777	1,035.64	91.4753	1,035.64	89.2738	1,035.64	89.7687	1,035.64	88.8001	1,035.64	87.6326	1,035.64	85.6316	1,035.64	84.6721	1,035.64	80.8643	1,035.64	85.6077	1,035.64	81.0543	1,035.64	86.6884	1,035.64	81.3091	1,035.64	85.298	1,035.64	80.9947	1,035.64	85.5716	1,035.64	83.7711	1,035.64	83.9557	1,035.64	85.0016	1,035.64	84.2797	1,035.64	82.8795	1,035.64	83.0153	1,035.64	79.6319	1,035.64	79.1082	1,035.64	80.2486
1,072.27	93.2875	1,072.27	93.9502	1,072.27	93.8517	1,072.27	94.4465	1,072.27	95.1355	1,072.27	93.8743	1,072.27	95.6122	1,072.27	92.4202	1,072.27	95.0809	1,072.27	90.6921	1,072.27	93.0727	1,072.27	88.8868	1,072.27	90.3697	1,072.27	87.3211	1,072.27	89.6286	1,072.27	87.911	1,072.27	88.3751	1,072.27	86.6628	1,072.27	83.9523	1,072.27	83.7956	1,072.27	81.234	1,072.27	84.1752	1,072.27	83.6198	1,072.27	85.1466	1,072.27	82.9584	1,072.27	82.0822	1,072.27	77.0602	1,072.27	79.4254	1,072.27	85.9674	1,072.27	83.8416	1,072.27	86.2903	1,072.27	84.2033	1,072.27	82.0811	1,072.27	80.9231	1,072.27	78.536	1,072.27	77.892
1,108.89	93.3116	1,108.89	93.4321	1,108.89	93.6669	1,108.89	93.4957	1,108.89	94.2037	1,108.89	92.3475	1,108.89	94.749	1,108.89	90.7392	1,108.89	93.8538	1,108.89	90.2423	1,108.89	91.9575	1,108.89	90.0642	1,108.89	91.0015	1,108.89	86.7301	1,108.89	88.8644	1,108.89	80.256	1,108.89	85.0994	1,108.89	82.2932	1,108.89	83.9496	1,108.89	85.6746	1,108.89	82.9589	1,108.89	85.2522	1,108.89	83.2677	1,108.89	85.0761	1,108.89	85.0959	1,108.89	86.0823	1,108.89	85.3112	1,108.89	85.8936	1,108.89	80.2899	1,108.89	83.5105	1,108.89	82.9386	1,108.89	79.3553	1,108.89	81.7288	1,108.89	75.7081	1,108.89	77.7139	1,108.89	76.9732
1,148.44	92.8592	1,148.44	92.6556	1,148.44	93.238	1,148.44	92.8313	1,148.44	93.8112	1,148.44	92.5193	1,148.44	94.1724	1,148.44	92.0635	1,148.44	93.6069	1,148.44	90.7413	1,148.44	92.3343	1,148.44	87.9782	1,148.44	89.5314	1,148.44	85.0597	1,148.44	86.6481	1,148.44	84.1245	1,148.44	85.5913	1,148.44	80.4934	1,148.44	84.4854	1,148.44	81.9914	1,148.44	80.1563	1,148.44	81.6371	1,148.44	77.1869	1,148.44	80.9791	1,148.44	80.6215	1,148.44	79.6062	1,148.44	73.8026	1,148.44	78.4958	1,148.44	80.0462	1,148.44	79.9228	1,148.44	81.7531	1,148.44	81.0671	1,148.44	79.2952	1,148.44	78.8314	1,148.44	75.36	1,148.44	73.979
1,189.45	93.1101	1,189.45	92.3036	1,189.45	93.3254	1,189.45	91.4057	1,189.45	93.6664	1,189.45	91.4082	1,189.45	93.7595	1,189.45	91.3169	1,189.45	92.5507	1,189.45	89.7467	1,189.45	89.7454	1,189.45	86.3064	1,189.45	87.9967	1,189.45	84.7936	1,189.45	85.9084	1,189.45	84.9477	1,189.45	81.9029	1,189.45	81.6727	1,189.45	80.2497	1,189.45	73.2332	1,189.45	78.5161	1,189.45	76.2559	1,189.45	73.1978	1,189.45	81.539	1,189.45	80.0842	1,189.45	81.5695	1,189.45	83.9395	1,189.45	80.669	1,189.45	80.1503	1,189.45	82.6179	1,189.45	82.8372	1,189.45	82.4437	1,189.45	83.9235	1,189.45	78.2469	1,189.45	76.1705	1,189.45	73.3993
1,230.47	93.4696	1,230.47	92.0139	1,230.47	94.2778	1,230.47	90.5019	1,230.47	94.1078	1,230.47	89.9418	1,230.47	93.5058	1,230.47	89.9326	1,230.47	92.2828	1,230.47	88.8305	1,230.47	90.1325	1,230.47	86.936	1,230.47	87.0875	1,230.47	85.3103	1,230.47	84.4958	1,230.47	83.5457	1,230.47	84.2468	1,230.47	81.5045	1,230.47	84.3676	1,230.47	78.152	1,230.47	80.8272	1,230.47	72.1118	1,230.47	70.4845	1,230.47	73.3452	1,230.47	76.3662	1,230.47	80.4572	1,230.47	80.1652	1,230.47	81.8242	1,230.47	74.0566	1,230.47	77.9031	1,230.47	79.8471	1,230.47	72.3262	1,230.47	78.1001	1,230.47	74.3914	1,230.47	76.7784	1,230.47	72.0998
1,274.41	93.5221	1,274.41	91.9038	1,274.41	94.6511	1,274.41	89.8381	1,274.41	94.7001	1,274.41	89.5312	1,274.41	93.2763	1,274.41	90.1624	1,274.41	91.0666	1,274.41	88.7384	1,274.41	87.2734	1,274.41	86.7575	1,274.41	85.5679	1,274.41	85.4016	1,274.41	84.5367	1,274.41	83.2384	1,274.41	80.8698	1,274.41	82.8242	1,274.41	79.2842	1,274.41	83.7876	1,274.41	77.8624	1,274.41	82.5095	1,274.41	73.4718	1,274.41	77.7146	1,274.41	70.7931	1,274.41	77.3694	1,274.41	77.7808	1,274.41	80.8057	1,274.41	82.971	1,274.41	78.0982	1,274.41	78.2892	1,274.41	72.1067	1,274.41	81.3147	1,274.41	74.9387	1,274.41	72.9723	1,274.41	72.5568
1,319.82	94.2587	1,319.82	92.6928	1,319.82	94.8399	1,319.82	90.9783	1,319.82	94.5244	1,319.82	89.8146	1,319.82	92.9873	1,319.82	89.1524	1,319.82	89.3865	1,319.82	88.1828	1,319.82	85.4904	1,319.82	86.7002	1,319.82	82.5985	1,319.82	85.7991	1,319.82	82.0879	1,319.82	84.3423	1,319.82	81.6355	1,319.82	81.1593	1,319.82	81.4682	1,319.82	76.9386	1,319.82	78.4308	1,319.82	80.5987	1,319.82	74.901	1,319.82	80.8955	1,319.82	73.3962	1,319.82	81.5498	1,319.82	82.3358	1,319.82	82.3707	1,319.82	79.3423	1,319.82	81.2972	1,319.82	79.5413	1,319.82	78.0914	1,319.82	80.2381	1,319.82	71.197	1,319.82	79.1155	1,319.82	68.91
1,366.7	94.4873	1,366.7	92.201	1,366.7	94.8684	1,366.7	89.4102	1,366.7	94.1853	1,366.7	88.9258	1,366.7	92.1075	1,366.7	88.3911	1,366.7	88.944	1,366.7	87.8179	1,366.7	84.1001	1,366.7	87.0711	1,366.7	83.8493	1,366.7	84.9386	1,366.7	81.3759	1,366.7	84.9984	1,366.7	82.3038	1,366.7	85.8814	1,366.7	82.9205	1,366.7	80.6295	1,366.7	80.1785	1,366.7	75.7564	1,366.7	78.8203	1,366.7	79.5656	1,366.7	75.7858	1,366.7	76.4723	1,366.7	70.3496	1,366.7	75.9879	1,366.7	80.5439	1,366.7	80.4966	1,366.7	81.2239	1,366.7	78.1851	1,366.7	80.9089	1,366.7	69.568	1,366.7	77.0388	1,366.7	70.8083
1,413.57	93.5172	1,413.57	91.0176	1,413.57	94.6583	1,413.57	90.1549	1,413.57	93.3659	1,413.57	89.1504	1,413.57	90.4795	1,413.57	88.9345	1,413.57	87.1185	1,413.57	86.2604	1,413.57	85.3187	1,413.57	82.7214	1,413.57	85.0241	1,413.57	86.4631	1,413.57	83.7945	1,413.57	84.2085	1,413.57	82.3495	1,413.57	84.3392	1,413.57	85.1621	1,413.57	84.3581	1,413.57	85.2342	1,413.57	78.778	1,413.57	81.5141	1,413.57	80.8393	1,413.57	79.327	1,413.57	79.7636	1,413.57	67.8411	1,413.57	79.4155	1,413.57	81.0479	1,413.57	82.2526	1,413.57	73.8902	1,413.57	73.3424	1,413.57	80.9951	1,413.57	73.2556	1,413.57	72.9731	1,413.57	67.6755
1,463.38	92.9598	1,463.38	91.4965	1,463.38	93.5923	1,463.38	89.634	1,463.38	92.9534	1,463.38	88.8237	1,463.38	89.7686	1,463.38	86.8468	1,463.38	84.6527	1,463.38	87.2358	1,463.38	82.9133	1,463.38	87.3862	1,463.38	83.24	1,463.38	83.2206	1,463.38	81.9724	1,463.38	82.3535	1,463.38	82.389	1,463.38	79.8514	1,463.38	82.4863	1,463.38	80.6486	1,463.38	79.9885	1,463.38	81.4327	1,463.38	82.0224	1,463.38	79.2758	1,463.38	78.7458	1,463.38	78.2812	1,463.38	76.6625	1,463.38	75.5266	1,463.38	73.5559	1,463.38	76.4589	1,463.38	71.2139	1,463.38	72.7102	1,463.38	77.3783	1,463.38	55.7165	1,463.38	74.2063	1,463.38	61.3341
1,516.11	92.7753	1,516.11	90.0401	1,516.11	93.3261	1,516.11	88.7027	1,516.11	91.1729	1,516.11	87.1472	1,516.11	87.4676	1,516.11	84.7024	1,516.11	82.5816	1,516.11	83.8574	1,516.11	85.6491	1,516.11	85.2039	1,516.11	82.5798	1,516.11	82.392	1,516.11	83.6493	1,516.11	80.1519	1,516.11	83.6508	1,516.11	74.6829	1,516.11	78.9265	1,516.11	70.6501	1,516.11	81.1134	1,516.11	74.0216	1,516.11	81.2935	1,516.11	80.6323	1,516.11	80.4777	1,516.11	80.0932	1,516.11	79.9916	1,516.11	74.9237	1,516.11	74.2544	1,516.11	76.7455	1,516.11	74.6514	1,516.11	77.1592	1,516.11	76.3944	1,516.11	69.6928	1,516.11	73.5561	1,516.11	68.0102
1,568.85	92.1564	1,568.85	89.3791	1,568.85	93.0049	1,568.85	86.182	1,568.85	90.9304	1,568.85	82.7645	1,568.85	85.7072	1,568.85	82.9822	1,568.85	81.6052	1,568.85	85.4947	1,568.85	82.7677	1,568.85	84.5419	1,568.85	84.8038	1,568.85	82.2353	1,568.85	86.0022	1,568.85	79.2815	1,568.85	84.5609	1,568.85	80.0712	1,568.85	80.9486	1,568.85	80.1732	1,568.85	78.3386	1,568.85	68.5547	1,568.85	77.0491	1,568.85	72.2192	1,568.85	80.6961	1,568.85	81.8173	1,568.85	74.8479	1,568.85	80.5383	1,568.85	75.4048	1,568.85	70.9664	1,568.85	75.0755	1,568.85	73.4692	1,568.85	74.2113	1,568.85	57.506	1,568.85	74.4932	1,568.85	68.4089
1,624.51	92.8978	1,624.51	89.4915	1,624.51	93.1986	1,624.51	81.951	1,624.51	91.095	1,624.51	80.7013	1,624.51	83.6473	1,624.51	85.1387	1,624.51	79.4602	1,624.51	85.8609	1,624.51	84.8398	1,624.51	84.8788	1,624.51	84.3056	1,624.51	82.5281	1,624.51	84.0711	1,624.51	81.7972	1,624.51	85.1313	1,624.51	83.3759	1,624.51	80.524	1,624.51	80.1722	1,624.51	81.341	1,624.51	74.0335	1,624.51	81.1501	1,624.51	77.7574	1,624.51	82.0343	1,624.51	73.0124	1,624.51	74.5492	1,624.51	78.6295	1,624.51	73.3076	1,624.51	75.8288	1,624.51	71.1993	1,624.51	75.6644	1,624.51	73.3173	1,624.51	62.5626	1,624.51	72.1481	1,624.51	70.0906
1,681.64	93.9127	1,681.64	90.5029	1,681.64	93.6924	1,681.64	81.7419	1,681.64	89.9923	1,681.64	76.9375	1,681.64	79.6363	1,681.64	84.8162	1,681.64	84.7882	1,681.64	85.1208	1,681.64	86.9908	1,681.64	83.8314	1,681.64	86.3719	1,681.64	84.7733	1,681.64	83.3126	1,681.64	83.0275	1,681.64	85.4911	1,681.64	71.6362	1,681.64	84.8777	1,681.64	73.3478	1,681.64	79.1928	1,681.64	76.6336	1,681.64	80.1073	1,681.64	77.0535	1,681.64	82.9636	1,681.64	76.2992	1,681.64	79.7033	1,681.64	75.6354	1,681.64	72.9677	1,681.64	76.2634	1,681.64	73.1727	1,681.64	70.1032	1,681.64	75.1253	1,681.64	61.4354	1,681.64	75.2692	1,681.64	71.7368
1,741.7	94.8401	1,741.7	92.0527	1,741.7	94.1047	1,741.7	85.2229	1,741.7	89.9173	1,741.7	74.9426	1,741.7	75.7578	1,741.7	84.3803	1,741.7	86.3178	1,741.7	83.6353	1,741.7	88.8211	1,741.7	83.2073	1,741.7	86.2394	1,741.7	76.7885	1,741.7	86.0061	1,741.7	79.5441	1,741.7	83.5638	1,741.7	82.1067	1,741.7	81.1196	1,741.7	80.882	1,741.7	80.2396	1,741.7	71.3664	1,741.7	79.998	1,741.7	76.6015	1,741.7	81.534	1,741.7	74.5019	1,741.7	80.4404	1,741.7	77.9774	1,741.7	70.2798	1,741.7	74.2551	1,741.7	67.7263	1,741.7	73.4091	1,741.7	76.3391	1,741.7	67.0609	1,741.7	77.3003	1,741.7	73.8272
1,803.22	94.583	1,803.22	92.7196	1,803.22	93.7159	1,803.22	86.6289	1,803.22	88.4894	1,803.22	78.3702	1,803.22	61.9742	1,803.22	82.7984	1,803.22	88.9663	1,803.22	81.4004	1,803.22	90.0409	1,803.22	82.3992	1,803.22	87.4268	1,803.22	82.6784	1,803.22	83.3233	1,803.22	79.8479	1,803.22	84.3478	1,803.22	80.9857	1,803.22	81.245	1,803.22	79.801	1,803.22	82.2546	1,803.22	82.0643	1,803.22	76.9041	1,803.22	72.815	1,803.22	80.631	1,803.22	79.9848	1,803.22	76.3649	1,803.22	76.9096	1,803.22	72.9257	1,803.22	77.4765	1,803.22	70.5981	1,803.22	73.4421	1,803.22	73.9696	1,803.22	65.0038	1,803.22	74.7668	1,803.22	76.0439
1,866.21	93.5386	1,866.21	92.0693	1,866.21	92.4428	1,866.21	87.6311	1,866.21	87.6988	1,866.21	82.0865	1,866.21	76.4197	1,866.21	82.1483	1,866.21	88.9722	1,866.21	84.3305	1,866.21	91.2542	1,866.21	84.4943	1,866.21	88.187	1,866.21	83.9553	1,866.21	83.2992	1,866.21	84.1222	1,866.21	77.6876	1,866.21	80.6948	1,866.21	81.5223	1,866.21	79.6512	1,866.21	76.6214	1,866.21	78.1885	1,866.21	80.158	1,866.21	75.7922	1,866.21	78.83	1,866.21	77.8136	1,866.21	76.4297	1,866.21	78.2716	1,866.21	71.2357	1,866.21	77.6092	1,866.21	67.3204	1,866.21	72.6702	1,866.21	74.4039	1,866.21	66.9898	1,866.21	73.8992	1,866.21	73.1417
1,932.13	93.0778	1,932.13	91.8662	1,932.13	91.1312	1,932.13	87.0944	1,932.13	83.2958	1,932.13	83.4835	1,932.13	87.0323	1,932.13	82.6294	1,932.13	90.1973	1,932.13	84.5691	1,932.13	90.5617	1,932.13	84.3108	1,932.13	86.9348	1,932.13	84.321	1,932.13	84.697	1,932.13	81.845	1,932.13	77.9417	1,932.13	81.979	1,932.13	71.6793	1,932.13	80.6715	1,932.13	78.5162	1,932.13	80.1989	1,932.13	77.7328	1,932.13	78.2645	1,932.13	78.2744	1,932.13	77.3296	1,932.13	76.1694	1,932.13	79.0676	1,932.13	71.8681	1,932.13	75.6184	1,932.13	66.5878	1,932.13	74.8017	1,932.13	72.7423	1,932.13	67.7709	1,932.13	75.8659	1,932.13	74.3744
1,999.51	93.7429	1,999.51	91.73	1,999.51	91.5349	1,999.51	87.4641	1,999.51	82.2349	1,999.51	83.3388	1,999.51	87.9702	1,999.51	85.1418	1,999.51	91.2576	1,999.51	86.061	1,999.51	90.5382	1,999.51	85.3994	1,999.51	86.5629	1,999.51	84.4884	1,999.51	82.7956	1,999.51	83.2916	1,999.51	80.9718	1,999.51	81.8622	1,999.51	70.6799	1,999.51	81.3371	1,999.51	72.4834	1,999.51	78.7641	1,999.51	77.7766	1,999.51	77.1847	1,999.51	76.6389	1,999.51	75.9879	1,999.51	75.5879	1,999.51	78.3822	1,999.51	70.1975	1,999.51	77.8433	1,999.51	68.7734	1,999.51	75.2332	1,999.51	73.6776	1,999.51	60.372	1,999.51	73.1959	1,999.51	73.9415
2,069.82	94.444	2,069.82	93.4063	2,069.82	91.6863	2,069.82	89.1025	2,069.82	85.9891	2,069.82	83.573	2,069.82	88.0508	2,069.82	85.9244	2,069.82	91.734	2,069.82	86.9099	2,069.82	90.3096	2,069.82	87.1402	2,069.82	87.1453	2,069.82	86.3052	2,069.82	82.2451	2,069.82	84.5381	2,069.82	78.3387	2,069.82	81.4568	2,069.82	77.1831	2,069.82	80.0282	2,069.82	65.2732	2,069.82	80.7257	2,069.82	74.4067	2,069.82	78.3106	2,069.82	73.9347	2,069.82	78.6992	2,069.82	75.7915	2,069.82	78.2018	2,069.82	67.3508	2,069.82	76.4645	2,069.82	60.6123	2,069.82	73.3323	2,069.82	74.3607	2,069.82	72.9805	2,069.82	74.5613	2,069.82	76.3004
2,143.07	94.2131	2,143.07	94.1772	2,143.07	91.3264	2,143.07	90.4184	2,143.07	87.8393	2,143.07	84.9843	2,143.07	89.0953	2,143.07	85.9538	2,143.07	91.7154	2,143.07	88.0965	2,143.07	90.6949	2,143.07	87.1317	2,143.07	86.381	2,143.07	85.0432	2,143.07	84.4653	2,143.07	84.1905	2,143.07	76.1475	2,143.07	81.6092	2,143.07	73.3907	2,143.07	79.6431	2,143.07	68.3469	2,143.07	79.2739	2,143.07	70.7295	2,143.07	77.1917	2,143.07	73.7773	2,143.07	74.8473	2,143.07	73.5528	2,143.07	77.7007	2,143.07	66.6325	2,143.07	78.5481	2,143.07	67.002	2,143.07	71.198	2,143.07	73.1858	2,143.07	70.3447	2,143.07	73.8581	2,143.07	73.6569
2,219.24	92.651	2,219.24	93.5077	2,219.24	89.4065	2,219.24	91.6099	2,219.24	88.4214	2,219.24	86.9276	2,219.24	90.2057	2,219.24	84.8663	2,219.24	90.1453	2,219.24	86.8768	2,219.24	89.4958	2,219.24	86.493	2,219.24	85.9652	2,219.24	84.5282	2,219.24	82.5739	2,219.24	81.9745	2,219.24	76.4284	2,219.24	81.9864	2,219.24	68.5142	2,219.24	78.7737	2,219.24	73.5654	2,219.24	78.0476	2,219.24	72.8694	2,219.24	76.8557	2,219.24	73.1549	2,219.24	76.429	2,219.24	73.1105	2,219.24	76.2305	2,219.24	69.2325	2,219.24	76.9042	2,219.24	67.6877	2,219.24	73.3214	2,219.24	74.9099	2,219.24	72.8011	2,219.24	74.3772	2,219.24	74.7153
2,296.88	91.8053	2,296.88	93.0511	2,296.88	87.2601	2,296.88	90.9828	2,296.88	88.2556	2,296.88	87.4018	2,296.88	91.4492	2,296.88	87.2368	2,296.88	89.5956	2,296.88	86.4363	2,296.88	87.1118	2,296.88	85.87	2,296.88	85.0252	2,296.88	84.2805	2,296.88	81.669	2,296.88	83.4963	2,296.88	79.4701	2,296.88	80.0485	2,296.88	75.4606	2,296.88	79.5649	2,296.88	75.3877	2,296.88	78.6877	2,296.88	75.144	2,296.88	77.2059	2,296.88	75.3018	2,296.88	74.287	2,296.88	71.4659	2,296.88	76.439	2,296.88	69.7701	2,296.88	76.0156	2,296.88	69.3652	2,296.88	73.1177	2,296.88	72.6722	2,296.88	67.1112	2,296.88	73.7782	2,296.88	68.6438
2,378.91	92.8385	2,378.91	93.389	2,378.91	86.5674	2,378.91	89.6089	2,378.91	86.7948	2,378.91	86.8159	2,378.91	90.6495	2,378.91	86.7277	2,378.91	89.5535	2,378.91	85.0081	2,378.91	85.4149	2,378.91	85.6821	2,378.91	84.9176	2,378.91	83.9535	2,378.91	82.7993	2,378.91	82.3384	2,378.91	80.5233	2,378.91	82.0177	2,378.91	74.8156	2,378.91	78.8487	2,378.91	77.3511	2,378.91	77.6339	2,378.91	72.378	2,378.91	76.6445	2,378.91	74.3898	2,378.91	74.5062	2,378.91	71.593	2,378.91	75.2366	2,378.91	67.8839	2,378.91	75.9065	2,378.91	64.4626	2,378.91	74.0124	2,378.91	69.3243	2,378.91	68.7659	2,378.91	69.2709	2,378.91	69.0403
2,462.4	94.6143	2,462.4	94.8597	2,462.4	87.7819	2,462.4	89.9093	2,462.4	88.4935	2,462.4	86.7561	2,462.4	89.6326	2,462.4	87.5539	2,462.4	89.1452	2,462.4	86.6151	2,462.4	85.8353	2,462.4	85.3744	2,462.4	83.1991	2,462.4	84.8649	2,462.4	82.6828	2,462.4	82.5119	2,462.4	79.2639	2,462.4	80.8642	2,462.4	70.9127	2,462.4	78.5461	2,462.4	77.0351	2,462.4	78.1405	2,462.4	75.5904	2,462.4	76.5365	2,462.4	70.1238	2,462.4	75.5491	2,462.4	73.3665	2,462.4	75.4899	2,462.4	70.646	2,462.4	76.3082	2,462.4	59.5899	2,462.4	74.8223	2,462.4	68.7727	2,462.4	68.7633	2,462.4	71.4657	2,462.4	73.3065
2,548.83	95.2934	2,548.83	94.9555	2,548.83	88.7676	2,548.83	90.666	2,548.83	89.2912	2,548.83	87.0768	2,548.83	90.0899	2,548.83	88.6522	2,548.83	87.7719	2,548.83	88.7406	2,548.83	85.8426	2,548.83	87.6952	2,548.83	83.5471	2,548.83	85.8562	2,548.83	82.9498	2,548.83	84.0787	2,548.83	78.2886	2,548.83	80.2	2,548.83	79.9099	2,548.83	79.6809	2,548.83	78.6373	2,548.83	77.5946	2,548.83	76.2097	2,548.83	76.5077	2,548.83	72.8554	2,548.83	74.2584	2,548.83	70.4413	2,548.83	75.921	2,548.83	67.7485	2,548.83	76.412	2,548.83	65.734	2,548.83	75.3491	2,548.83	68.8693	2,548.83	69.7664	2,548.83	73.9251	2,548.83	71.0424
2,639.65	94.1085	2,639.65	92.2993	2,639.65	90.4696	2,639.65	88.3247	2,639.65	89.3678	2,639.65	90.0898	2,639.65	91.0896	2,639.65	90.111	2,639.65	88.4656	2,639.65	90.2573	2,639.65	87.0851	2,639.65	87.4503	2,639.65	85.853	2,639.65	85.5247	2,639.65	84.6895	2,639.65	80.0988	2,639.65	79.5028	2,639.65	78.9849	2,639.65	80.7747	2,639.65	74.729	2,639.65	79.3068	2,639.65	73.2009	2,639.65	76.53	2,639.65	73.5489	2,639.65	75.3665	2,639.65	71.7093	2,639.65	66.7795	2,639.65	71.1882	2,639.65	68.9608	2,639.65	73.7285	2,639.65	65.5548	2,639.65	74.7086	2,639.65	66.4455	2,639.65	65.1064	2,639.65	73.7657	2,639.65	72.5743
2,731.93	93.1189	2,731.93	90.6637	2,731.93	90.9382	2,731.93	90.4906	2,731.93	89.666	2,731.93	91.2118	2,731.93	92.0909	2,731.93	89.7738	2,731.93	86.81	2,731.93	88.4126	2,731.93	86.6874	2,731.93	85.7265	2,731.93	87.2477	2,731.93	78.9404	2,731.93	84.9932	2,731.93	78.2522	2,731.93	81.6532	2,731.93	75.1852	2,731.93	81.8968	2,731.93	76.4835	2,731.93	80.8721	2,731.93	72.6474	2,731.93	77.3033	2,731.93	74.2087	2,731.93	74.5744	2,731.93	70.8802	2,731.93	73.1013	2,731.93	70.6245	2,731.93	67.815	2,731.93	70.9766	2,731.93	61.3465	2,731.93	71.1124	2,731.93	67.6962	2,731.93	64.5589	2,731.93	71.5457	2,731.93	66.0821
2,828.61	93.6433	2,828.61	92.7345	2,828.61	91.8431	2,828.61	92.411	2,828.61	90.2799	2,828.61	90.8391	2,828.61	92.1321	2,828.61	89.9089	2,828.61	88.0636	2,828.61	87.5278	2,828.61	86.0257	2,828.61	83.3319	2,828.61	87.8869	2,828.61	80.3922	2,828.61	85.4999	2,828.61	79.2537	2,828.61	84.5904	2,828.61	79.4587	2,828.61	82.883	2,828.61	76.0317	2,828.61	79.0192	2,828.61	76.1937	2,828.61	77.3192	2,828.61	74.2373	2,828.61	78.8055	2,828.61	74.6083	2,828.61	73.2472	2,828.61	72.4477	2,828.61	68.5626	2,828.61	72.6109	2,828.61	62.6574	2,828.61	70.957	2,828.61	67.0841	2,828.61	69.2536	2,828.61	72.3913	2,828.61	67.8895
2,928.22	94.2929	2,928.22	94.6933	2,928.22	93.1183	2,928.22	94.0053	2,928.22	91.7721	2,928.22	91.3689	2,928.22	92.4147	2,928.22	90.3046	2,928.22	89.4859	2,928.22	86.6554	2,928.22	86.1207	2,928.22	83.0717	2,928.22	88.2609	2,928.22	82.6445	2,928.22	86.3807	2,928.22	80.9214	2,928.22	84.6673	2,928.22	79.3285	2,928.22	77.552	2,928.22	79.9724	2,928.22	76.8102	2,928.22	77.9874	2,928.22	72.2186	2,928.22	77.3929	2,928.22	79.2645	2,928.22	76.7696	2,928.22	69.3583	2,928.22	74.4006	2,928.22	68.8643	2,928.22	75.2784	2,928.22	61.8654	2,928.22	72.0727	2,928.22	65.9806	2,928.22	70.0096	2,928.22	73.3561	2,928.22	67.2773
3,030.76	94.3247	3,030.76	94.8367	3,030.76	93.2037	3,030.76	94.5949	3,030.76	92.1644	3,030.76	91.392	3,030.76	91.9413	3,030.76	89.9201	3,030.76	90.618	3,030.76	86.0964	3,030.76	86.2498	3,030.76	84.4734	3,030.76	88.7707	3,030.76	83.4892	3,030.76	87.3231	3,030.76	82.8825	3,030.76	85.5688	3,030.76	82.5917	3,030.76	67.8338	3,030.76	80.2955	3,030.76	70.9598	3,030.76	78.1377	3,030.76	77.6702	3,030.76	77.3828	3,030.76	76.3163	3,030.76	76.7829	3,030.76	65.3732	3,030.76	74.6096	3,030.76	68.9935	3,030.76	75.3656	3,030.76	65.2034	3,030.76	73.8794	3,030.76	67.1544	3,030.76	69.5931	3,030.76	73.5419	3,030.76	69.7747
3,137.7	93.9605	3,137.7	94.9685	3,137.7	92.8118	3,137.7	93.8297	3,137.7	92.4975	3,137.7	91.5751	3,137.7	90.8916	3,137.7	89.8178	3,137.7	88.7783	3,137.7	86.5312	3,137.7	84.1808	3,137.7	85.0014	3,137.7	87.5084	3,137.7	85.6351	3,137.7	87.288	3,137.7	81.7244	3,137.7	84.629	3,137.7	79.1741	3,137.7	70.4185	3,137.7	78.2855	3,137.7	69.7166	3,137.7	76.1205	3,137.7	73.171	3,137.7	77.0324	3,137.7	74.0017	3,137.7	76.2796	3,137.7	63.2314	3,137.7	74.7776	3,137.7	72.1546	3,137.7	74.5328	3,137.7	66.9915	3,137.7	72.8706	3,137.7	67.6991	3,137.7	65.1439	3,137.7	73.1181	3,137.7	70.9235
3,249.02	93.3551	3,249.02	94.6504	3,249.02	92.6992	3,249.02	91.8351	3,249.02	92.042	3,249.02	92.1964	3,249.02	92.1049	3,249.02	88.5611	3,249.02	86.7728	3,249.02	87.8621	3,249.02	84.9528	3,249.02	86.239	3,249.02	87.2579	3,249.02	83.325	3,249.02	88.2098	3,249.02	79.5576	3,249.02	83.1556	3,249.02	80.756	3,249.02	74.2687	3,249.02	77.5857	3,249.02	73.2866	3,249.02	76.411	3,249.02	73.0119	3,249.02	74.9944	3,249.02	70.6445	3,249.02	75.0761	3,249.02	62.5033	3,249.02	72.7141	3,249.02	67.2575	3,249.02	74.0933	3,249.02	64.4059	3,249.02	70.4925	3,249.02	68.0452	3,249.02	67.3256	3,249.02	71.6835	3,249.02	64.4956
3,363.28	93.8095	3,363.28	94.8619	3,363.28	93.3482	3,363.28	91.6324	3,363.28	91.7867	3,363.28	91.1441	3,363.28	91.7155	3,363.28	88.9272	3,363.28	87.5344	3,363.28	87.3253	3,363.28	83.3312	3,363.28	84.5439	3,363.28	87.2408	3,363.28	81.8714	3,363.28	89.3191	3,363.28	82.2427	3,363.28	84.6278	3,363.28	76.3966	3,363.28	73.1636	3,363.28	77.2655	3,363.28	78.5006	3,363.28	77.0009	3,363.28	67.1884	3,363.28	75.42	3,363.28	71.4544	3,363.28	75.4273	3,363.28	69.0265	3,363.28	73.3484	3,363.28	64.4811	3,363.28	74.5227	3,363.28	64.9048	3,363.28	72.4785	3,363.28	68.0025	3,363.28	65.1764	3,363.28	71.0486	3,363.28	68.4723
3,481.93	94.4329	3,481.93	94.84	3,481.93	93.2167	3,481.93	93.698	3,481.93	92.4583	3,481.93	91.5736	3,481.93	90.936	3,481.93	89.4163	3,481.93	88.8346	3,481.93	87.8239	3,481.93	81.5669	3,481.93	84.7566	3,481.93	86.6504	3,481.93	82.5162	3,481.93	90.8599	3,481.93	80.6655	3,481.93	84.8088	3,481.93	81.1109	3,481.93	80.5839	3,481.93	77.7521	3,481.93	81.3181	3,481.93	78.5634	3,481.93	53.323	3,481.93	75.9473	3,481.93	69.0524	3,481.93	75.7581	3,481.93	66.8171	3,481.93	74.519	3,481.93	63.2349	3,481.93	75.2422	3,481.93	65.2378	3,481.93	73.3771	3,481.93	68.1263	3,481.93	67.4466	3,481.93	69.6143	3,481.93	68.8936
3,604.98	95.0566	3,604.98	94.8229	3,604.98	92.9344	3,604.98	93.6789	3,604.98	91.9549	3,604.98	91.7171	3,604.98	91.6456	3,604.98	89.598	3,604.98	90.7087	3,604.98	86.5928	3,604.98	84.5662	3,604.98	84.5478	3,604.98	88.0682	3,604.98	85.1251	3,604.98	90.2988	3,604.98	82.431	3,604.98	86.5706	3,604.98	79.8726	3,604.98	86.1509	3,604.98	79.2661	3,604.98	82.5833	3,604.98	77.5527	3,604.98	68.2576	3,604.98	76.0821	3,604.98	63.7756	3,604.98	76.2305	3,604.98	69.3174	3,604.98	74.7792	3,604.98	67.2464	3,604.98	75.1019	3,604.98	65.9745	3,604.98	72.4733	3,604.98	65.8695	3,604.98	69.454	3,604.98	70.1074	3,604.98	67.5059
3,732.42	95.147	3,732.42	94.6854	3,732.42	94.4891	3,732.42	92.4155	3,732.42	92.8776	3,732.42	90.9467	3,732.42	89.9012	3,732.42	90.1743	3,732.42	91.3995	3,732.42	86.2346	3,732.42	83.8276	3,732.42	85.6957	3,732.42	87.3481	3,732.42	83.992	3,732.42	88.2736	3,732.42	78.1466	3,732.42	85.471	3,732.42	80.021	3,732.42	84.1277	3,732.42	75.5857	3,732.42	81.5767	3,732.42	75.2896	3,732.42	70.5799	3,732.42	74.3843	3,732.42	73.6718	3,732.42	75.0123	3,732.42	67.3709	3,732.42	73.382	3,732.42	51.4948	3,732.42	73.3286	3,732.42	65.3589	3,732.42	71.4778	3,732.42	65.5897	3,732.42	69.959	3,732.42	67.5752	3,732.42	64.2284
3,864.26	94.2602	3,864.26	93.4291	3,864.26	93.2882	3,864.26	92.681	3,864.26	93.8302	3,864.26	91.5578	3,864.26	90.4465	3,864.26	89.1209	3,864.26	92.0618	3,864.26	87.6298	3,864.26	85.3154	3,864.26	85.1495	3,864.26	87.3841	3,864.26	81.5147	3,864.26	85.2663	3,864.26	81.1335	3,864.26	84.4636	3,864.26	75.1773	3,864.26	75.684	3,864.26	78.2744	3,864.26	75.9243	3,864.26	75.2045	3,864.26	74.1988	3,864.26	76.2914	3,864.26	70.6978	3,864.26	74.3436	3,864.26	66.8681	3,864.26	73.8166	3,864.26	63.7857	3,864.26	74.3568	3,864.26	67.1812	3,864.26	72.2257	3,864.26	64.4456	3,864.26	68.4003	3,864.26	67.5153	3,864.26	61.1282
4,000.49	94.1814	4,000.49	93.3518	4,000.49	92.0033	4,000.49	92.5948	4,000.49	91.7968	4,000.49	91.6052	4,000.49	90.0144	4,000.49	88.1959	4,000.49	90.0783	4,000.49	87.2438	4,000.49	86.3992	4,000.49	82.5131	4,000.49	85.7445	4,000.49	81.5295	4,000.49	84.8126	4,000.49	79.6092	4,000.49	83.3969	4,000.49	79.4033	4,000.49	77.9082	4,000.49	76.6901	4,000.49	75.4924	4,000.49	75.5837	4,000.49	66.7737	4,000.49	76.7096	4,000.49	65.0187	4,000.49	71.6917	4,000.49	64.2218	4,000.49	75.0095	4,000.49	60.643	4,000.49	74.2795	4,000.49	67.8517	4,000.49	72.6072	4,000.49	63.6537	4,000.49	65.2185	4,000.49	71.204	4,000.49	60.577
4,141.11	94.1706	4,141.11	93.6541	4,141.11	93.599	4,141.11	92.3729	4,141.11	91.3501	4,141.11	91.9992	4,141.11	89.5426	4,141.11	87.9122	4,141.11	89.9543	4,141.11	87.0191	4,141.11	86.8103	4,141.11	83.0114	4,141.11	84.4212	4,141.11	83.3563	4,141.11	84.6843	4,141.11	80.8943	4,141.11	80.753	4,141.11	79.3129	4,141.11	79.4817	4,141.11	76.8724	4,141.11	69.6432	4,141.11	75.1984	4,141.11	66.5234	4,141.11	74.8968	4,141.11	65.0754	4,141.11	75.671	4,141.11	66.7603	4,141.11	75.5147	4,141.11	63.1775	4,141.11	72.6451	4,141.11	66.775	4,141.11	71.6991	4,141.11	54.6401	4,141.11	68.4465	4,141.11	68.9055	4,141.11	64.3897
4,287.6	93.975	4,287.6	93.3415	4,287.6	92.9258	4,287.6	93.2557	4,287.6	91.3841	4,287.6	90.9388	4,287.6	89.581	4,287.6	88.7431	4,287.6	89.5123	4,287.6	84.802	4,287.6	86.2423	4,287.6	86.5059	4,287.6	85.3326	4,287.6	82.8682	4,287.6	84.6568	4,287.6	81.9459	4,287.6	83.2699	4,287.6	79.7635	4,287.6	78.8785	4,287.6	77.3314	4,287.6	74.2377	4,287.6	73.5212	4,287.6	70.8443	4,287.6	75.169	4,287.6	64.7029	4,287.6	75.4994	4,287.6	57.6521	4,287.6	73.1722	4,287.6	62.1199	4,287.6	73.2865	4,287.6	65.0304	4,287.6	74.4873	4,287.6	54.2616	4,287.6	66.3616	4,287.6	66.6077	4,287.6	62.3643
4,438.48	94.0661	4,438.48	92.8033	4,438.48	93.2461	4,438.48	92.7595	4,438.48	92.1511	4,438.48	90.7978	4,438.48	89.5643	4,438.48	88.67	4,438.48	89.2191	4,438.48	86.4384	4,438.48	86.859	4,438.48	84.0397	4,438.48	83.2277	4,438.48	82.9047	4,438.48	87.3621	4,438.48	79.5964	4,438.48	83.6556	4,438.48	75.5278	4,438.48	81.5753	4,438.48	75.2729	4,438.48	72.0989	4,438.48	75.4502	4,438.48	70.3899	4,438.48	74.8385	4,438.48	70.3492	4,438.48	69.581	4,438.48	45.3488	4,438.48	73.282	4,438.48	60.9883	4,438.48	74.0293	4,438.48	65.0146	4,438.48	71.2546	4,438.48	60.0542	4,438.48	62.0061	4,438.48	69.0335	4,438.48	60.6459
4,595.21	93.6717	4,595.21	94.088	4,595.21	93.2613	4,595.21	92.9299	4,595.21	92.7094	4,595.21	90.9755	4,595.21	90.4514	4,595.21	87.1217	4,595.21	88.3272	4,595.21	87.1845	4,595.21	86.8139	4,595.21	83.8615	4,595.21	82.4677	4,595.21	80.2538	4,595.21	87.6562	4,595.21	79.7928	4,595.21	82.0599	4,595.21	77.8218	4,595.21	81.7492	4,595.21	74.1487	4,595.21	68.7028	4,595.21	74.7121	4,595.21	69.9551	4,595.21	70.5704	4,595.21	72.3131	4,595.21	74.0427	4,595.21	56.1327	4,595.21	73.0272	4,595.21	57.1827	4,595.21	72.8084	4,595.21	62.383	4,595.21	73.3861	4,595.21	56.754	4,595.21	68.5172	4,595.21	69.3601	4,595.21	63.2876
4,756.35	94.5216	4,756.35	94.3584	4,756.35	93.9486	4,756.35	93.3112	4,756.35	92.8922	4,756.35	92.2912	4,756.35	91.5698	4,756.35	88.4682	4,756.35	88.1502	4,756.35	86.8704	4,756.35	86.9773	4,756.35	84.8355	4,756.35	81.3456	4,756.35	82.145	4,756.35	86.1968	4,756.35	79.8077	4,756.35	79.4403	4,756.35	79.4212	4,756.35	75.9271	4,756.35	76.5295	4,756.35	74.4558	4,756.35	74.4137	4,756.35	71.2887	4,756.35	75.3601	4,756.35	70.3116	4,756.35	73.0503	4,756.35	57.1585	4,756.35	73.0006	4,756.35	65.6232	4,756.35	72.8847	4,756.35	66.2112	4,756.35	73.4682	4,756.35	54.654	4,756.35	59.8852	4,756.35	67.9636	4,756.35	64.6367
4,924.8	94.5859	4,924.8	94.9582	4,924.8	95.2534	4,924.8	93.318	4,924.8	93.1612	4,924.8	91.3969	4,924.8	90.6145	4,924.8	88.2563	4,924.8	89.9722	4,924.8	86.2652	4,924.8	88.012	4,924.8	84.2381	4,924.8	76.4934	4,924.8	82.8268	4,924.8	84.6168	4,924.8	80.1972	4,924.8	78.3086	4,924.8	77.7173	4,924.8	74.1101	4,924.8	73.5276	4,924.8	75.9013	4,924.8	76.3771	4,924.8	72.4354	4,924.8	71.0053	4,924.8	64.4654	4,924.8	72.8193	4,924.8	57.898	4,924.8	72.7701	4,924.8	65.5664	4,924.8	73.673	4,924.8	66.661	4,924.8	73.2778	4,924.8	55.9391	4,924.8	69.4982	4,924.8	70.4021	4,924.8	63.3514
5,097.66	94.6499	5,097.66	94.5573	5,097.66	94.4628	5,097.66	93.6477	5,097.66	93.8756	5,097.66	91.7072	5,097.66	90.558	5,097.66	89.5844	5,097.66	89.7537	5,097.66	85.9206	5,097.66	88.2303	5,097.66	85.6872	5,097.66	77.285	5,097.66	82.0799	5,097.66	80.2361	5,097.66	77.9714	5,097.66	79.0446	5,097.66	74.643	5,097.66	76.3827	5,097.66	74.0586	5,097.66	77.9674	5,097.66	72.3647	5,097.66	68.0852	5,097.66	72.3987	5,097.66	63.247	5,097.66	73.3928	5,097.66	64.2847	5,097.66	70.3071	5,097.66	70.2772	5,097.66	72.5862	5,097.66	64.8916	5,097.66	73.0564	5,097.66	54.0444	5,097.66	63.2962	5,097.66	67.0217	5,097.66	63.9568
5,277.83	94.8644	5,277.83	95.3021	5,277.83	94.1687	5,277.83	93.8441	5,277.83	93.8083	5,277.83	91.8235	5,277.83	92.1148	5,277.83	89.4826	5,277.83	90.0948	5,277.83	86.0176	5,277.83	87.9147	5,277.83	84.8889	5,277.83	79.7814	5,277.83	79.478	5,277.83	76.2836	5,277.83	78.8792	5,277.83	82.3114	5,277.83	79.1069	5,277.83	75.923	5,277.83	75.3708	5,277.83	79.5367	5,277.83	74.5506	5,277.83	67.7744	5,277.83	73.5227	5,277.83	61.9858	5,277.83	71.2425	5,277.83	65.7078	5,277.83	73.4576	5,277.83	66.6517	5,277.83	73.7268	5,277.83	57.4743	5,277.83	73.1781	5,277.83	59.2393	5,277.83	69.5362	5,277.83	67.6479	5,277.83	64.7229
5,463.87	94.9469	5,463.87	94.4411	5,463.87	94.3968	5,463.87	93.6018	5,463.87	93.972	5,463.87	91.9867	5,463.87	92.5086	5,463.87	87.7153	5,463.87	90.6816	5,463.87	87.9295	5,463.87	86.8394	5,463.87	81.8281	5,463.87	78.3195	5,463.87	83.1523	5,463.87	78.6437	5,463.87	78.9661	5,463.87	83.2626	5,463.87	74.6071	5,463.87	75.8478	5,463.87	72.2594	5,463.87	77.0828	5,463.87	73.0551	5,463.87	69.3429	5,463.87	71.6295	5,463.87	66.5524	5,463.87	70.1136	5,463.87	55.7098	5,463.87	72.9383	5,463.87	44.4604	5,463.87	70.5179	5,463.87	63.2937	5,463.87	71.6205	5,463.87	50.1916	5,463.87	69.0943	5,463.87	64.899	5,463.87	65.5813
5,657.23	94.6926	5,657.23	94.8072	5,657.23	94.2682	5,657.23	93.2263	5,657.23	93.4877	5,657.23	91.9169	5,657.23	91.0468	5,657.23	89.2523	5,657.23	90.1894	5,657.23	86.474	5,657.23	86.4114	5,657.23	84.7241	5,657.23	76.6606	5,657.23	78.9436	5,657.23	79.2337	5,657.23	76.9497	5,657.23	81.3438	5,657.23	74.8739	5,657.23	77.8399	5,657.23	74.8393	5,657.23	75.8905	5,657.23	72.4993	5,657.23	62.6679	5,657.23	72.0844	5,657.23	62.9353	5,657.23	70.9622	5,657.23	42.4067	5,657.23	72.7318	5,657.23	63.249	5,657.23	70.7821	5,657.23	63.162	5,657.23	72.5011	5,657.23	53.9023	5,657.23	68.4144	5,657.23	65.1651	5,657.23	60.4116
5,856.45	94.3285	5,856.45	94.5852	5,856.45	93.2579	5,856.45	93.6823	5,856.45	93.9479	5,856.45	91.2479	5,856.45	91.2626	5,856.45	89.3132	5,856.45	88.2181	5,856.45	85.6807	5,856.45	87.0945	5,856.45	83.6385	5,856.45	79.7312	5,856.45	79.0354	5,856.45	82.3252	5,856.45	79.2652	5,856.45	81.5886	5,856.45	76.8773	5,856.45	76.1533	5,856.45	74.1869	5,856.45	74.3105	5,856.45	73.8895	5,856.45	61.9612	5,856.45	72.5633	5,856.45	61.0293	5,856.45	72.746	5,856.45	58.4058	5,856.45	72.4854	5,856.45	64.3127	5,856.45	71.5149	5,856.45	62.4115	5,856.45	72.8661	5,856.45	59.7657	5,856.45	68.5451	5,856.45	66.7667	5,856.45	62.0694
6,062.99	94.8423	6,062.99	94.3696	6,062.99	93.7411	6,062.99	93.1608	6,062.99	92.542	6,062.99	91.9794	6,062.99	91.8124	6,062.99	88.5271	6,062.99	87.3629	6,062.99	86.35	6,062.99	86.5703	6,062.99	82.6733	6,062.99	81.0083	6,062.99	81.6906	6,062.99	79.4989	6,062.99	76.6498	6,062.99	81.9013	6,062.99	75.0508	6,062.99	70.2735	6,062.99	71.9614	6,062.99	70.7853	6,062.99	72.6807	6,062.99	68.851	6,062.99	69.9581	6,062.99	56.1258	6,062.99	72.0057	6,062.99	66.8489	6,062.99	72.4455	6,062.99	64.0833	6,062.99	70.3522	6,062.99	62.0315	6,062.99	72.9918	6,062.99	56.0907	6,062.99	69.6834	6,062.99	63.3409	6,062.99	61.3545
6,276.86	94.7305	6,276.86	93.849	6,276.86	93.6508	6,276.86	92.9315	6,276.86	92.4129	6,276.86	92.2214	6,276.86	91.3103	6,276.86	89.1325	6,276.86	88.4692	6,276.86	85.6346	6,276.86	84.5232	6,276.86	83.6179	6,276.86	84.3258	6,276.86	78.8061	6,276.86	79.8061	6,276.86	78.5933	6,276.86	79.8578	6,276.86	74.2135	6,276.86	67.7039	6,276.86	76.1176	6,276.86	66.5295	6,276.86	71.773	6,276.86	64.1621	6,276.86	72.8569	6,276.86	61.2059	6,276.86	71.8025	6,276.86	61.7572	6,276.86	71.7673	6,276.86	58.3057	6,276.86	71.1835	6,276.86	58.5002	6,276.86	74.6097	6,276.86	56.0709	6,276.86	69.1197	6,276.86	64.0774	6,276.86	54.5521
6,498.05	94.8733	6,498.05	94.9727	6,498.05	94.075	6,498.05	93.4865	6,498.05	92.8609	6,498.05	92.0933	6,498.05	90.6087	6,498.05	88.7659	6,498.05	89.8341	6,498.05	85.271	6,498.05	84.0725	6,498.05	83.9594	6,498.05	83.9155	6,498.05	80.455	6,498.05	77.8667	6,498.05	78.2355	6,498.05	77.2558	6,498.05	76.0192	6,498.05	70.9171	6,498.05	71.9599	6,498.05	57.8987	6,498.05	73.0503	6,498.05	48.5984	6,498.05	71.7789	6,498.05	57.7573	6,498.05	70.0054	6,498.05	63.7511	6,498.05	71.7918	6,498.05	61.9982	6,498.05	71.8831	6,498.05	59.5443	6,498.05	73.2341	6,498.05	51.5235	6,498.05	67.5323	6,498.05	60.1032	6,498.05	53.4999
6,726.56	94.8819	6,726.56	94.3697	6,726.56	94.4745	6,726.56	93.055	6,726.56	92.0602	6,726.56	92.1738	6,726.56	90.4622	6,726.56	88.0705	6,726.56	87.9046	6,726.56	85.569	6,726.56	84.9154	6,726.56	83.7231	6,726.56	84.4635	6,726.56	79.8568	6,726.56	75.1137	6,726.56	77.2823	6,726.56	77.6345	6,726.56	74.8725	6,726.56	72.3422	6,726.56	73.1766	6,726.56	63.6196	6,726.56	72.24	6,726.56	56.6335	6,726.56	70.6497	6,726.56	41.3511	6,726.56	71.4388	6,726.56	65.3658	6,726.56	72.2516	6,726.56	62.7172	6,726.56	71.1262	6,726.56	60.7349	6,726.56	71.7467	6,726.56	54.4372	6,726.56	66.8347	6,726.56	63.0848	6,726.56	52.43
6,963.87	95.1374	6,963.87	93.7886	6,963.87	94.5219	6,963.87	92.7434	6,963.87	93.2354	6,963.87	92.2341	6,963.87	90.7878	6,963.87	88.3493	6,963.87	85.178	6,963.87	85.5017	6,963.87	85.913	6,963.87	84.1988	6,963.87	83.2914	6,963.87	80.5329	6,963.87	74.055	6,963.87	77.3725	6,963.87	80.4202	6,963.87	74.2291	6,963.87	76.8101	6,963.87	71.7249	6,963.87	63.6827	6,963.87	71.9371	6,963.87	57.4377	6,963.87	71.407	6,963.87	58.0374	6,963.87	71.0404	6,963.87	60.6618	6,963.87	71.7527	6,963.87	57.7284	6,963.87	71.4039	6,963.87	57.8628	6,963.87	72.1862	6,963.87	56.0093	6,963.87	67.6174	6,963.87	63.6061	6,963.87	53.1695
7,209.96	95.2754	7,209.96	94.0021	7,209.96	94.6961	7,209.96	93.4871	7,209.96	92.4298	7,209.96	91.5433	7,209.96	90.6094	7,209.96	87.9666	7,209.96	88.6681	7,209.96	85.532	7,209.96	87.2243	7,209.96	83.8809	7,209.96	81.4938	7,209.96	80.2423	7,209.96	78.4035	7,209.96	77.2328	7,209.96	79.8071	7,209.96	74.8262	7,209.96	75.0864	7,209.96	72.7914	7,209.96	59.9346	7,209.96	69.0988	7,209.96	62.5783	7,209.96	71.9282	7,209.96	62.7587	7,209.96	70.4608	7,209.96	62.4255	7,209.96	70.2965	7,209.96	61.3604	7,209.96	70.2051	7,209.96	53.6021	7,209.96	71.1129	7,209.96	55.6175	7,209.96	67.6326	7,209.96	62.6407	7,209.96	55.3956
7,464.84	94.4636	7,464.84	93.9468	7,464.84	94.7903	7,464.84	93.1575	7,464.84	92.6877	7,464.84	91.2884	7,464.84	91.3955	7,464.84	88.3881	7,464.84	89.6368	7,464.84	85.6135	7,464.84	87.0369	7,464.84	83.3763	7,464.84	82.2786	7,464.84	79.4622	7,464.84	78.5841	7,464.84	77.0831	7,464.84	78.9371	7,464.84	71.1958	7,464.84	70.2038	7,464.84	72.0037	7,464.84	62.8595	7,464.84	71.8102	7,464.84	61.4031	7,464.84	70.7964	7,464.84	59.6227	7,464.84	70.6444	7,464.84	64.2608	7,464.84	71.192	7,464.84	58.6746	7,464.84	68.8876	7,464.84	59.089	7,464.84	69.4845	7,464.84	52.588	7,464.84	67.3083	7,464.84	61.3295	7,464.84	56.4209
7,727.05	94.9274	7,727.05	93.8982	7,727.05	94.4116	7,727.05	93.514	7,727.05	92.2287	7,727.05	91.3731	7,727.05	91.0224	7,727.05	87.7992	7,727.05	89.275	7,727.05	85.2732	7,727.05	86.9068	7,727.05	83.3927	7,727.05	83.9225	7,727.05	79.2658	7,727.05	77.8804	7,727.05	75.7996	7,727.05	75.4273	7,727.05	74.6437	7,727.05	70.6864	7,727.05	71.0686	7,727.05	69.8901	7,727.05	68.7889	7,727.05	52.9351	7,727.05	71.4428	7,727.05	58.2516	7,727.05	69.5634	7,727.05	53.0015	7,727.05	69.3885	7,727.05	62.7104	7,727.05	68.2604	7,727.05	61.6994	7,727.05	69.3578	7,727.05	36.0133	7,727.05	68.2129	7,727.05	60.4316	7,727.05	57.1939
7,999.51	94.5568	7,999.51	93.5294	7,999.51	94.6207	7,999.51	93.1924	7,999.51	92.218	7,999.51	90.8096	7,999.51	89.289	7,999.51	87.6195	7,999.51	89.6029	7,999.51	85.5048	7,999.51	86.4061	7,999.51	82.176	7,999.51	84.2459	7,999.51	77.8743	7,999.51	78.747	7,999.51	77.4834	7,999.51	69.8908	7,999.51	72.6816	7,999.51	69.6372	7,999.51	71.3198	7,999.51	73.4007	7,999.51	70.1095	7,999.51	59.4831	7,999.51	70.4068	7,999.51	59.6593	7,999.51	69.8541	7,999.51	61.1937	7,999.51	68.235	7,999.51	57.6181	7,999.51	67.0115	7,999.51	57.9548	7,999.51	68.4444	7,999.51	57.9419	7,999.51	68.2725	7,999.51	59.6155	7,999.51	58.741
8,282.23	94.4355	8,282.23	94.3732	8,282.23	94.2689	8,282.23	93.1143	8,282.23	92.0905	8,282.23	90.81	8,282.23	90.7186	8,282.23	87.0065	8,282.23	88.5643	8,282.23	84.204	8,282.23	85.8613	8,282.23	82.6574	8,282.23	83.2518	8,282.23	77.8128	8,282.23	77.7118	8,282.23	74.7526	8,282.23	71.2509	8,282.23	72.2607	8,282.23	68.084	8,282.23	69.4325	8,282.23	67.1653	8,282.23	69.1862	8,282.23	65.9769	8,282.23	68.1307	8,282.23	52.7664	8,282.23	69.4306	8,282.23	53.8661	8,282.23	67.5471	8,282.23	56.942	8,282.23	67.3606	8,282.23	42.3832	8,282.23	68.7384	8,282.23	61.1596	8,282.23	67.8286	8,282.23	52.6594	8,282.23	50.5189
8,573.73	93.4186	8,573.73	93.4873	8,573.73	94.1959	8,573.73	91.9675	8,573.73	91.5972	8,573.73	90.1307	8,573.73	89.4382	8,573.73	86.7906	8,573.73	87.7962	8,573.73	83.3771	8,573.73	85.9265	8,573.73	81.9243	8,573.73	79.3352	8,573.73	77.9746	8,573.73	77.2323	8,573.73	74.6471	8,573.73	70.5519	8,573.73	71.003	8,573.73	67.8533	8,573.73	69.6201	8,573.73	64.1946	8,573.73	66.8607	8,573.73	60.0642	8,573.73	67.9786	8,573.73	47.5901	8,573.73	68.3372	8,573.73	51.9902	8,573.73	65.8053	8,573.73	54.0301	8,573.73	65.8255	8,573.73	49.6115	8,573.73	67.6102	8,573.73	51.9285	8,573.73	65.3751	8,573.73	50.5828	8,573.73	51.7392
8,876.95	93	8,876.95	92.8102	8,876.95	92.7764	8,876.95	91.2578	8,876.95	91.6077	8,876.95	89.6248	8,876.95	89.1523	8,876.95	86.1068	8,876.95	86.9045	8,876.95	83.0832	8,876.95	84.7537	8,876.95	81.7101	8,876.95	75.695	8,876.95	76.7639	8,876.95	77.4789	8,876.95	72.5587	8,876.95	74.5572	8,876.95	70.9281	8,876.95	67.6137	8,876.95	66.7178	8,876.95	56.3853	8,876.95	68.7218	8,876.95	57.4383	8,876.95	63.8164	8,876.95	41.4444	8,876.95	66.2854	8,876.95	41.5981	8,876.95	67.2386	8,876.95	45.6678	8,876.95	66.531	8,876.95	48.1568	8,876.95	66.2461	8,876.95	54.2592	8,876.95	64.6097	8,876.95	49.0458	8,876.95	42.2374
9,188.96	92.2477	9,188.96	92.2116	9,188.96	92.0426	9,188.96	90.5476	9,188.96	90.7885	9,188.96	88.6432	9,188.96	88.4643	9,188.96	85.5383	9,188.96	85.0564	9,188.96	83.3938	9,188.96	82.9255	9,188.96	79.5926	9,188.96	76.5433	9,188.96	75.0853	9,188.96	77.4608	9,188.96	72.0529	9,188.96	73.3048	9,188.96	68.9998	9,188.96	70.1992	9,188.96	67.714	9,188.96	62.8213	9,188.96	66.9144	9,188.96	58.0512	9,188.96	68.3172	9,188.96	53.2691	9,188.96	65.922	9,188.96	55.3346	9,188.96	64.8916	9,188.96	52.6352	9,188.96	66.1615	9,188.96	49.1268	9,188.96	66.1969	9,188.96	47.1196	9,188.96	63.7029	9,188.96	47.5726	9,188.96	49.9359
9,514.16	92.4877	9,514.16	92.1209	9,514.16	91.9035	9,514.16	90.1267	9,514.16	91.0641	9,514.16	88.7887	9,514.16	88.354	9,514.16	85.462	9,514.16	84.8181	9,514.16	82.8282	9,514.16	82.7027	9,514.16	79.4186	9,514.16	81.0232	9,514.16	75.3854	9,514.16	77.9047	9,514.16	72.1544	9,514.16	66.2052	9,514.16	68.5277	9,514.16	65.5981	9,514.16	67.009	9,514.16	68.1445	9,514.16	65.8576	9,514.16	63.1442	9,514.16	62.6761	9,514.16	54.9783	9,514.16	67.323	9,514.16	47.7494	9,514.16	65.233	9,514.16	48.8353	9,514.16	63.8298	9,514.16	49.7316	9,514.16	63.9004	9,514.16	55.4951	9,514.16	64.0268	9,514.16	46.53	9,514.16	47.6024
9,849.61	92.8296	9,849.61	92.3115	9,849.61	91.9354	9,849.61	90.5712	9,849.61	91.1803	9,849.61	88.4193	9,849.61	88.812	9,849.61	85.7734	9,849.61	86.0163	9,849.61	82.6139	9,849.61	81.5301	9,849.61	79.4459	9,849.61	82.6777	9,849.61	75.0921	9,849.61	77.0612	9,849.61	70.8082	9,849.61	68.7904	9,849.61	69.854	9,849.61	66.3433	9,849.61	63.89	9,849.61	69.6465	9,849.61	68.7705	9,849.61	58.4296	9,849.61	67.6563	9,849.61	56.2694	9,849.61	64.0353	9,849.61	52.0397	9,849.61	64.6057	9,849.61	56.9977	9,849.61	64.1167	9,849.61	44.1507	9,849.61	64.7247	9,849.61	43.023	9,849.61	62.7861	9,849.61	47.0404	9,849.61	51.5298
10,196.8	93.0941	10,196.8	92.3124	10,196.8	91.4941	10,196.8	90.827	10,196.8	90.8284	10,196.8	88.2376	10,196.8	88.5632	10,196.8	85.5461	10,196.8	86.2849	10,196.8	81.9379	10,196.8	78.774	10,196.8	79.3039	10,196.8	82.8116	10,196.8	74.3938	10,196.8	74.3938	10,196.8	70.0391	10,196.8	72.9247	10,196.8	66.9539	10,196.8	64.5058	10,196.8	66.6492	10,196.8	68.909	10,196.8	60.04	10,196.8	62.3398	10,196.8	64.896	10,196.8	52.5558	10,196.8	66.5312	10,196.8	54.2684	10,196.8	65.0529	10,196.8	53.8895	10,196.8	64.4305	10,196.8	51.1918	10,196.8	64.354	10,196.8	55.0061	10,196.8	63.9117	10,196.8	52.9414	10,196.8	54.9369
10,555.7	92.666	10,555.7	91.7753	10,555.7	91.3224	10,555.7	90.5797	10,555.7	90.6123	10,555.7	87.8077	10,555.7	87.9302	10,555.7	84.9617	10,555.7	84.0689	10,555.7	81.4361	10,555.7	80.215	10,555.7	78.9043	10,555.7	81.078	10,555.7	73.0042	10,555.7	68.2385	10,555.7	71.0653	10,555.7	72.8885	10,555.7	66.9797	10,555.7	51.5605	10,555.7	64.119	10,555.7	66.4755	10,555.7	66.5397	10,555.7	59.2658	10,555.7	65.3632	10,555.7	54.8333	10,555.7	65.0933	10,555.7	53.8685	10,555.7	63.9854	10,555.7	49.3208	10,555.7	63.7368	10,555.7	50.8219	10,555.7	62.7839	10,555.7	58.1914	10,555.7	63.1952	10,555.7	49.7581	10,555.7	52.1949
10,927.7	92.5366	10,927.7	91.9973	10,927.7	91.545	10,927.7	90.3659	10,927.7	90.2605	10,927.7	88.2204	10,927.7	87.9373	10,927.7	84.7819	10,927.7	85.3302	10,927.7	80.7453	10,927.7	81.4239	10,927.7	78.6209	10,927.7	77.3626	10,927.7	73.4385	10,927.7	74.7972	10,927.7	70.018	10,927.7	69.4998	10,927.7	68.3677	10,927.7	57.9057	10,927.7	63.459	10,927.7	67.1162	10,927.7	60.9488	10,927.7	60.0651	10,927.7	64.5584	10,927.7	56.4289	10,927.7	64.7057	10,927.7	45.3256	10,927.7	63.239	10,927.7	50.8301	10,927.7	63.3835	10,927.7	48.8813	10,927.7	61.997	10,927.7	57.1909	10,927.7	62.1095	10,927.7	45.3167	10,927.7	52.686
11,313	93.5764	11,313	93.2874	11,313	92.7713	11,313	91.3166	11,313	91.4833	11,313	89.2474	11,313	89.3023	11,313	85.5355	11,313	86.6228	11,313	81.8451	11,313	83.8429	11,313	79.4646	11,313	78.8286	11,313	74.6508	11,313	75.7066	11,313	70.0694	11,313	64.5853	11,313	67.9437	11,313	58.8076	11,313	65.004	11,313	68.8769	11,313	64.8747	11,313	64.0318	11,313	65.4068	11,313	60.151	11,313	64.7047	11,313	52.0071	11,313	63.5839	11,313	54.5679	11,313	64.0719	11,313	53.0061	11,313	61.8574	11,313	59.0989	11,313	63.0574	11,313	48.2585	11,313	55.5796
11,712.9	93.9482	11,712.9	93.9822	11,712.9	93.6744	11,712.9	91.4662	11,712.9	92.2511	11,712.9	89.5181	11,712.9	90.0023	11,712.9	86.055	11,712.9	87.345	11,712.9	82.1082	11,712.9	84.2491	11,712.9	78.7832	11,712.9	79.7861	11,712.9	75.7912	11,712.9	69.0242	11,712.9	70.5656	11,712.9	67.3261	11,712.9	68.2005	11,712.9	52.599	11,712.9	63.1205	11,712.9	70.3733	11,712.9	61.8758	11,712.9	62.7714	11,712.9	65.7706	11,712.9	58.3121	11,712.9	65.935	11,712.9	49.2736	11,712.9	63.3453	11,712.9	56.3378	11,712.9	63.2029	11,712.9	55.1953	11,712.9	61.7393	11,712.9	60.6655	11,712.9	63.1113	11,712.9	49.7142	11,712.9	55.5301
12,126	94.0689	12,126	93.7366	12,126	93.9689	12,126	90.8563	12,126	92.6071	12,126	89.0643	12,126	90.9644	12,126	85.7038	12,126	87.3184	12,126	81.7318	12,126	83.0376	12,126	78.3152	12,126	80.1064	12,126	74.5084	12,126	73.6112	12,126	70.4892	12,126	73.113	12,126	68.6401	12,126	58.3483	12,126	62.7355	12,126	71.5054	12,126	64.402	12,126	62.3422	12,126	64.2988	12,126	54.6417	12,126	64.808	12,126	48.2415	12,126	63.1611	12,126	50.457	12,126	62.65	12,126	54.9546	12,126	61.4717	12,126	60.3058	12,126	62.4033	12,126	39.1045	12,126	54.7748
12,553.7	94.6336	12,553.7	93.8247	12,553.7	94.2209	12,553.7	91.0297	12,553.7	92.6888	12,553.7	88.6108	12,553.7	91.0158	12,553.7	85.5263	12,553.7	87.754	12,553.7	81.5774	12,553.7	83.5131	12,553.7	78.1071	12,553.7	78.2257	12,553.7	74.5357	12,553.7	77.391	12,553.7	69.6607	12,553.7	74.3091	12,553.7	68.6964	12,553.7	61.3813	12,553.7	62.876	12,553.7	71.1891	12,553.7	65.3223	12,553.7	65.9187	12,553.7	63.3129	12,553.7	56.4978	12,553.7	64.1856	12,553.7	53.8043	12,553.7	61.1631	12,553.7	50.7732	12,553.7	61.0186	12,553.7	54.1506	12,553.7	60.0152	12,553.7	57.7413	12,553.7	60.5908	12,553.7	43.9113	12,553.7	55.0351
12,996.1	95.0704	12,996.1	94.0129	12,996.1	94.426	12,996.1	91.4873	12,996.1	92.6781	12,996.1	88.5041	12,996.1	91.2507	12,996.1	85.144	12,996.1	87.6627	12,996.1	81.7947	12,996.1	84.3232	12,996.1	78.478	12,996.1	76.9854	12,996.1	74.3407	12,996.1	77.2543	12,996.1	69.4167	12,996.1	72.6925	12,996.1	63.8077	12,996.1	51.9744	12,996.1	60.8162	12,996.1	73.951	12,996.1	62.5089	12,996.1	67.0288	12,996.1	61.5147	12,996.1	55.2198	12,996.1	63.2473	12,996.1	47.2568	12,996.1	60.1394	12,996.1	53.5283	12,996.1	59.2824	12,996.1	55.6426	12,996.1	59.3232	12,996.1	57.6039	12,996.1	59.4822	12,996.1	46.4043	12,996.1	55.0943
13,454.6	95.269	13,454.6	94.4442	13,454.6	94.4764	13,454.6	92.6328	13,454.6	92.4241	13,454.6	90.0921	13,454.6	90.7537	13,454.6	86.3725	13,454.6	87.8118	13,454.6	82.9585	13,454.6	82.312	13,454.6	80.1025	13,454.6	78.9234	13,454.6	75.2867	13,454.6	74.414	13,454.6	70.0528	13,454.6	71.032	13,454.6	65.3494	13,454.6	57.95	13,454.6	63.6117	13,454.6	74.5036	13,454.6	63.2845	13,454.6	66.514	13,454.6	63.141	13,454.6	53.0147	13,454.6	64.7966	13,454.6	40.5778	13,454.6	62.2876	13,454.6	57.5287	13,454.6	60.8472	13,454.6	55.5193	13,454.6	60.7173	13,454.6	58.465	13,454.6	61.1385	13,454.6	49.7242	13,454.6	57.5702
13,929.2	95.685	13,929.2	95.2731	13,929.2	94.3722	13,929.2	93.5558	13,929.2	92.226	13,929.2	91.0005	13,929.2	89.8495	13,929.2	87.3701	13,929.2	87.8587	13,929.2	83.8627	13,929.2	81.7021	13,929.2	79.9394	13,929.2	79.5004	13,929.2	75.3166	13,929.2	75.135	13,929.2	71.2145	13,929.2	71.9302	13,929.2	67.0285	13,929.2	60.0075	13,929.2	65.2165	13,929.2	75.6298	13,929.2	62.7823	13,929.2	65.8377	13,929.2	64.0483	13,929.2	47.8157	13,929.2	65.2328	13,929.2	45.622	13,929.2	60.4669	13,929.2	57.7602	13,929.2	60.0273	13,929.2	55.7114	13,929.2	62.1514	13,929.2	59.3689	13,929.2	60.0294	13,929.2	55.1816	13,929.2	59.1098
14,419.9	95.8648	14,419.9	95.0578	14,419.9	95.0729	14,419.9	93.1719	14,419.9	93.364	14,419.9	90.0873	14,419.9	91.0373	14,419.9	86.0021	14,419.9	88.2277	14,419.9	83.4133	14,419.9	83.4595	14,419.9	78.0063	14,419.9	80.0766	14,419.9	73.7498	14,419.9	72.8648	14,419.9	69.8315	14,419.9	74.9205	14,419.9	65.3301	14,419.9	59.9653	14,419.9	62.7591	14,419.9	75.973	14,419.9	61.8272	14,419.9	65.8451	14,419.9	61.5414	14,419.9	50.596	14,419.9	61.9171	14,419.9	39.552	14,419.9	57.9634	14,419.9	52.8674	14,419.9	57.7067	14,419.9	56.1208	14,419.9	60.5128	14,419.9	59.2418	14,419.9	57.7787	14,419.9	56.2646	14,419.9	58.7546
14,928.2	95.0824	14,928.2	93.5885	14,928.2	94.8789	14,928.2	91.2807	14,928.2	93.3323	14,928.2	87.6796	14,928.2	91.0968	14,928.2	82.9186	14,928.2	87.6618	14,928.2	80.9652	14,928.2	83.6515	14,928.2	76.2516	14,928.2	80.8957	14,928.2	69.9927	14,928.2	74.5316	14,928.2	66.1635	14,928.2	73.9599	14,928.2	60.7398	14,928.2	64.3781	14,928.2	61.5298	14,928.2	75.6934	14,928.2	56.7688	14,928.2	65.4508	14,928.2	58.9317	14,928.2	49.7531	14,928.2	59.8058	14,928.2	46.6439	14,928.2	52.1294	14,928.2	52.0024	14,928.2	51.2241	14,928.2	56.3731	14,928.2	56.201	14,928.2	57.3597	14,928.2	52.2185	14,928.2	53.808	14,928.2	52.6938
15,455.6	94.3016	15,455.6	92.4038	15,455.6	94.1088	15,455.6	90.2301	15,455.6	92.4469	15,455.6	86.7739	15,455.6	90.2934	15,455.6	83.4966	15,455.6	87.6464	15,455.6	79.2244	15,455.6	81.9729	15,455.6	75.3771	15,455.6	79.2786	15,455.6	71.594	15,455.6	75.0797	15,455.6	69.0528	15,455.6	70.7293	15,455.6	62.3508	15,455.6	67.3372	15,455.6	62.3973	15,455.6	75.6414	15,455.6	53.3994	15,455.6	65.111	15,455.6	58.9008	15,455.6	38.2351	15,455.6	60.4038	15,455.6	51.4568	15,455.6	52.7363	15,455.6	53.1109	15,455.6	54.125	15,455.6	54.7168	15,455.6	56.0805	15,455.6	56.5782	15,455.6	53.1892	15,455.6	57.588	15,455.6	52.2206
16,000.5	93.9331	16,000.5	92.8751	16,000.5	93.0038	16,000.5	91.6644	16,000.5	91.1245	16,000.5	88.1044	16,000.5	88.6439	16,000.5	85.4406	16,000.5	85.5174	16,000.5	81.7931	16,000.5	78.9562	16,000.5	77.2654	16,000.5	77.3562	16,000.5	74.2508	16,000.5	68.7078	16,000.5	69.459	16,000.5	68.9163	16,000.5	61.8937	16,000.5	66.487	16,000.5	62.3631	16,000.5	73.7815	16,000.5	45.8682	16,000.5	64.8723	16,000.5	60.0669	16,000.5	43.1308	16,000.5	61.4889	16,000.5	49.6407	16,000.5	52.3209	16,000.5	53.8713	16,000.5	56.8511	16,000.5	55.7391	16,000.5	55.1435	16,000.5	57.9868	16,000.5	55.0433	16,000.5	59.7499	16,000.5	54.9524
16,564.5	94.3863	16,564.5	93.4017	16,564.5	92.8725	16,564.5	92.6123	16,564.5	90.7788	16,564.5	88.9227	16,564.5	88.7349	16,564.5	85.9449	16,564.5	84.9011	16,564.5	82.1201	16,564.5	79.7762	16,564.5	78.6717	16,564.5	77.2675	16,564.5	74.1459	16,564.5	71.2634	16,564.5	68.059	16,564.5	67.0728	16,564.5	62.7919	16,564.5	67.3971	16,564.5	61.9579	16,564.5	73.5276	16,564.5	47.5338	16,564.5	63.6902	16,564.5	61.3645	16,564.5	50.0816	16,564.5	61.4661	16,564.5	50.6913	16,564.5	46.6862	16,564.5	57.5015	16,564.5	53.106	16,564.5	53.1162	16,564.5	55.4944	16,564.5	57.2938	16,564.5	57.2078	16,564.5	59.7001	16,564.5	56.3567
17,148.9	94.6868	17,148.9	93.5584	17,148.9	92.972	17,148.9	93.208	17,148.9	90.4605	17,148.9	89.4192	17,148.9	88.3739	17,148.9	86.3352	17,148.9	84.5401	17,148.9	81.4404	17,148.9	79.6726	17,148.9	79.3106	17,148.9	75.2773	17,148.9	73.3981	17,148.9	71.333	17,148.9	68.3756	17,148.9	58.9628	17,148.9	63.5158	17,148.9	67.0748	17,148.9	60.7383	17,148.9	73.729	17,148.9	54.2881	17,148.9	61.433	17,148.9	62.0722	17,148.9	46.1309	17,148.9	56.7498	17,148.9	51.018	17,148.9	43.3246	17,148.9	54.5254	17,148.9	47.4636	17,148.9	49.7256	17,148.9	56.6741	17,148.9	57.1074	17,148.9	60.4028	17,148.9	57.9544	17,148.9	56.4577
17,752.4	94.8194	17,752.4	93.4959	17,752.4	93.6442	17,752.4	93.1835	17,752.4	91.0734	17,752.4	89.1984	17,752.4	88.3253	17,752.4	86.0332	17,752.4	85.2151	17,752.4	80.6618	17,752.4	80.4913	17,752.4	77.8786	17,752.4	77.0331	17,752.4	71.078	17,752.4	69.9185	17,752.4	65.6266	17,752.4	64.8543	17,752.4	62.3951	17,752.4	67.1826	17,752.4	57.1677	17,752.4	75.036	17,752.4	55.9286	17,752.4	58.099	17,752.4	61.7938	17,752.4	50.3633	17,752.4	55.1345	17,752.4	55.0054	17,752.4	49.9142	17,752.4	52.246	17,752.4	30.333	17,752.4	50.9324	17,752.4	56.4394	17,752.4	55.9757	17,752.4	61.7911	17,752.4	54.523	17,752.4	54.793
18,379.4	92.8081	18,379.4	90.939	18,379.4	92.2039	18,379.4	90.3271	18,379.4	89.6876	18,379.4	86.4159	18,379.4	87.2008	18,379.4	82.5754	18,379.4	84.0075	18,379.4	79.372	18,379.4	78.946	18,379.4	74.4078	18,379.4	75.5019	18,379.4	64.4784	18,379.4	73.6049	18,379.4	63.1702	18,379.4	61.6614	18,379.4	63.0683	18,379.4	65.7924	18,379.4	54.1554	18,379.4	73.2266	18,379.4	57.0825	18,379.4	57.0576	18,379.4	58.8435	18,379.4	44.4004	18,379.4	51.7562	18,379.4	49.5614	18,379.4	51.687	18,379.4	50.0405	18,379.4	37.5872	18,379.4	45.4695	18,379.4	54.715	18,379.4	54.0516	18,379.4	59.4001	18,379.4	54.236	18,379.4	50.7809
19,026.9	90.7353	19,026.9	89.402	19,026.9	89.9975	19,026.9	88.1737	19,026.9	87.4318	19,026.9	84.9781	19,026.9	84.8986	19,026.9	80.102	19,026.9	80.7883	19,026.9	78.1814	19,026.9	73.7631	19,026.9	72.188	19,026.9	71.2347	19,026.9	68.0343	19,026.9	67.9471	19,026.9	64.7816	19,026.9	50.2634	19,026.9	63.0217	19,026.9	61.8374	19,026.9	53.1476	19,026.9	70.1197	19,026.9	55.9479	19,026.9	58.0095	19,026.9	57.6439	19,026.9	39.171	19,026.9	50.2261	19,026.9	30.0368	19,026.9	51.9502	19,026.9	45.0343	19,026.9	47.3672	19,026.9	44.2984	19,026.9	54.9651	19,026.9	54.3136	19,026.9	58.4255	19,026.9	57.1884	19,026.9	48.9699
19,697.8	88.9665	19,697.8	88.3711	19,697.8	88.3082	19,697.8	86.9276	19,697.8	85.5377	19,697.8	83.8361	19,697.8	82.2999	19,697.8	78.8022	19,697.8	77.3115	19,697.8	76.0313	19,697.8	70.5305	19,697.8	70.2279	19,697.8	68.5935	19,697.8	68.0791	19,697.8	64.1277	19,697.8	62.1969	19,697.8	55.8488	19,697.8	60.6823	19,697.8	59.0212	19,697.8	46.8823	19,697.8	67.7674	19,697.8	55.276	19,697.8	57.1804	19,697.8	55.9197	19,697.8	44.4316	19,697.8	48.6832	19,697.8	39.4258	19,697.8	53.6055	19,697.8	48.8169	19,697.8	50.3586	19,697.8	38.6117	19,697.8	53.866	19,697.8	55.6276	19,697.8	56.6308	19,697.8	60.6009	19,697.8	52.0381
19,999.5	86.9442	19,999.5	86.8002	19,999.5	86.3909	19,999.5	85.506	19,999.5	83.9716	19,999.5	82.153	19,999.5	79.6126	19,999.5	78.2149	19,999.5	73.94	19,999.5	74.3783	19,999.5	70.1163	19,999.5	67.4933	19,999.5	64.8438	19,999.5	66.1971	19,999.5	57.9571	19,999.5	57.9293	19,999.5	44.7051	19,999.5	58.8756	19,999.5	65.0654	19,999.5	48.0886	19,999.5	66.9111	19,999.5	54.4684	19,999.5	60.6063	19,999.5	52.8025	19,999.5	54.5939	19,999.5	58.6639	19,999.5	46.4339	19,999.5	52.5426	19,999.5	49.425	19,999.5	52.7016	19,999.5	47.9622	19,999.5	50.0226	19,999.5	56.1786	19,999.5	58.4038	19,999.5	60.6339	19,999.5	51.7966
