"SPL Horizontal"
"On-Axis"		"10°"		"-10°"		"20°"		"-20°"		"30°"		"-30°"		"40°"		"-40°"		"50°"		"-50°"		"60°"		"-60°"		"70°"		"-70°"		"80°"		"-80°"		"90°"		"-90°"		"100°"		"-100°"		"110°"		"-110°"		"120°"		"-120°"		"130°"		"-130°"		"140°"		"-140°"		"150°"		"-150°"		"160°"		"-160°"		"170°"		"-170°"		"180°"
"Frequency [Hz]"	"Sound Pessure Level [dB]   [2.83  V @ 1. m]"	"Frequency [Hz]"	"Sound Pessure Level [dB]   [2.83  V @ 1. m]"	"Frequency [Hz]"	"Sound Pessure Level [dB]   [2.83  V @ 1. m]"	"Frequency [Hz]"	"Sound Pessure Level [dB]   [2.83  V @ 1. m]"	"Frequency [Hz]"	"Sound Pessure Level [dB]   [2.83  V @ 1. m]"	"Frequency [Hz]"	"Sound Pessure Level [dB]   [2.83  V @ 1. m]"	"Frequency [Hz]"	"Sound Pessure Level [dB]   [2.83  V @ 1. m]"	"Frequency [Hz]"	"Sound Pessure Level [dB]   [2.83  V @ 1. m]"	"Frequency [Hz]"	"Sound Pessure Level [dB]   [2.83  V @ 1. m]"	"Frequency [Hz]"	"Sound Pessure Level [dB]   [2.83  V @ 1. m]"	"Frequency [Hz]"	"Sound Pessure Level [dB]   [2.83  V @ 1. m]"	"Frequency [Hz]"	"Sound Pessure Level [dB]   [2.83  V @ 1. m]"	"Frequency [Hz]"	"Sound Pessure Level [dB]   [2.83  V @ 1. m]"	"Frequency [Hz]"	"Sound Pessure Level [dB]   [2.83  V @ 1. m]"	"Frequency [Hz]"	"Sound Pessure Level [dB]   [2.83  V @ 1. m]"	"Frequency [Hz]"	"Sound Pessure Level [dB]   [2.83  V @ 1. m]"	"Frequency [Hz]"	"Sound Pessure Level [dB]   [2.83  V @ 1. m]"	"Frequency [Hz]"	"Sound Pessure Level [dB]   [2.83  V @ 1. m]"	"Frequency [Hz]"	"Sound Pessure Level [dB]   [2.83  V @ 1. m]"	"Frequency [Hz]"	"Sound Pessure Level [dB]   [2.83  V @ 1. m]"	"Frequency [Hz]"	"Sound Pessure Level [dB]   [2.83  V @ 1. m]"	"Frequency [Hz]"	"Sound Pessure Level [dB]   [2.83  V @ 1. m]"	"Frequency [Hz]"	"Sound Pessure Level [dB]   [2.83  V @ 1. m]"	"Frequency [Hz]"	"Sound Pessure Level [dB]   [2.83  V @ 1. m]"	"Frequency [Hz]"	"Sound Pessure Level [dB]   [2.83  V @ 1. m]"	"Frequency [Hz]"	"Sound Pessure Level [dB]   [2.83  V @ 1. m]"	"Frequency [Hz]"	"Sound Pessure Level [dB]   [2.83  V @ 1. m]"	"Frequency [Hz]"	"Sound Pessure Level [dB]   [2.83  V @ 1. m]"	"Frequency [Hz]"	"Sound Pessure Level [dB]   [2.83  V @ 1. m]"	"Frequency [Hz]"	"Sound Pessure Level [dB]   [2.83  V @ 1. m]"	"Frequency [Hz]"	"Sound Pessure Level [dB]   [2.83  V @ 1. m]"	"Frequency [Hz]"	"Sound Pessure Level [dB]   [2.83  V @ 1. m]"	"Frequency [Hz]"	"Sound Pessure Level [dB]   [2.83  V @ 1. m]"	"Frequency [Hz]"	"Sound Pessure Level [dB]   [2.83  V @ 1. m]"	"Frequency [Hz]"	"Sound Pessure Level [dB]   [2.83  V @ 1. m]"	"Frequency [Hz]"	"Sound Pessure Level [dB]   [2.83  V @ 1. m]"
20.5078	59.5401	20.5078	59.2539	20.5078	59.8592	20.5078	59.0098	20.5078	60.1984	20.5078	58.8133	20.5078	60.5418	20.5078	58.6649	20.5078	60.8715	20.5078	58.5615	20.5078	61.1684	20.5078	58.4974	20.5078	61.4142	20.5078	58.4663	20.5078	61.5933	20.5078	58.4625	20.5078	61.6943	20.5078	58.4821	20.5078	61.7117	20.5078	58.5231	20.5078	61.6467	20.5078	58.5843	20.5078	61.5063	20.5078	58.6657	20.5078	61.3025	20.5078	58.7676	20.5078	61.0508	20.5078	58.891	20.5078	60.7685	20.5078	59.0377	20.5078	60.4724	20.5078	59.21	20.5078	60.1779	20.5078	59.4104	20.5078	59.8975	20.5078	59.6401
21.9727	63.8364	21.9727	63.5469	21.9727	64.1479	21.9727	63.2879	21.9727	64.4701	21.9727	63.0653	21.9727	64.7895	21.9727	62.8822	21.9727	65.0908	21.9727	62.7393	21.9727	65.3582	21.9727	62.6357	21.9727	65.5764	21.9727	62.5693	21.9727	65.7325	21.9727	62.5379	21.9727	65.817	21.9727	62.5393	21.9727	65.8257	21.9727	62.5716	21.9727	65.7596	21.9727	62.6333	21.9727	65.6251	21.9727	62.7233	21.9727	65.4325	21.9727	62.8404	21.9727	65.1953	21.9727	62.9841	21.9727	64.928	21.9727	63.1538	21.9727	64.6446	21.9727	63.3494	21.9727	64.358	21.9727	63.57	21.9727	64.0786	21.9727	63.8141
23.4375	66.5758	23.4375	66.272	23.4375	66.8959	23.4375	65.9933	23.4375	67.2214	23.4375	65.7463	23.4375	67.5393	23.4375	65.535	23.4375	67.8351	23.4375	65.3614	23.4375	68.0938	23.4375	65.2261	23.4375	68.3009	23.4375	65.129	23.4375	68.4442	23.4375	65.0692	23.4375	68.5145	23.4375	65.0464	23.4375	68.5079	23.4375	65.0597	23.4375	68.4252	23.4375	65.1085	23.4375	68.2728	23.4375	65.1914	23.4375	68.0613	23.4375	65.3072	23.4375	67.8045	23.4375	65.4544	23.4375	67.5174	23.4375	65.6319	23.4375	67.2147	23.4375	65.8384	23.4375	66.9094	23.4375	66.0723	23.4375	66.6124	23.4375	66.3315
24.9023	69.2396	24.9023	68.9632	24.9023	69.5299	24.9023	68.7082	24.9023	69.8243	24.9023	68.4798	24.9023	70.1114	24.9023	68.2815	24.9023	70.3779	24.9023	68.1152	24.9023	70.6098	24.9023	67.9814	24.9023	70.7934	24.9023	67.8799	24.9023	70.9167	24.9023	67.8103	24.9023	70.9714	24.9023	67.7722	24.9023	70.9533	24.9023	67.7653	24.9023	70.8633	24.9023	67.7894	24.9023	70.7075	24.9023	67.8445	24.9023	70.496	24.9023	67.9306	24.9023	70.2421	24.9023	68.0477	24.9023	69.9603	24.9023	68.1959	24.9023	69.6652	24.9023	68.375	24.9023	69.3703	24.9023	68.5845	24.9023	69.0867	24.9023	68.8229
26.3672	71.5917	26.3672	71.3197	26.3672	71.8735	26.3672	71.065	26.3672	72.156	26.3672	70.8331	26.3672	72.4282	26.3672	70.6277	26.3672	72.6781	26.3672	70.4516	26.3672	72.8927	26.3672	70.3061	26.3672	73.0598	26.3672	70.1922	26.3672	73.1687	26.3672	70.1104	26.3672	73.2118	26.3672	70.0608	26.3672	73.1857	26.3672	70.0436	26.3672	73.0916	26.3672	70.0591	26.3672	72.9351	26.3672	70.1074	26.3672	72.7258	26.3672	70.1884	26.3672	72.4761	26.3672	70.3024	26.3672	72.1995	26.3672	70.4491	26.3672	71.9097	26.3672	70.628	26.3672	71.6191	26.3672	70.8377	26.3672	71.3384	26.3672	71.0759
27.832	73.4944	27.832	73.2369	27.832	73.7594	27.832	72.9939	27.832	74.0235	27.832	72.7702	27.832	74.2767	27.832	72.5698	27.832	74.5076	27.832	72.395	27.832	74.7042	27.832	72.2477	27.832	74.8549	27.832	72.1292	27.832	74.9498	27.832	72.0404	27.832	74.9819	27.832	71.9823	27.832	74.9479	27.832	71.9556	27.832	74.8491	27.832	71.9608	27.832	74.6912	27.832	71.9983	27.832	74.4837	27.832	72.0682	27.832	74.2386	27.832	72.1705	27.832	73.9692	27.832	72.3049	27.832	73.6888	27.832	72.4709	27.832	73.4095	27.832	72.6673	27.832	73.1412	27.832	72.892
29.2969	75.1747	29.2969	74.9266	29.2969	75.4282	29.2969	74.6906	29.2969	75.6789	29.2969	74.472	29.2969	75.9172	29.2969	74.2749	29.2969	76.1325	29.2969	74.102	29.2969	76.3138	29.2969	73.9556	29.2969	76.4504	29.2969	73.837	29.2969	76.5334	29.2969	73.7473	29.2969	76.5565	29.2969	73.6873	29.2969	76.517	29.2969	73.6578	29.2969	76.4165	29.2969	73.6591	29.2969	76.2607	29.2969	73.6918	29.2969	76.0589	29.2969	73.756	29.2969	75.8224	29.2969	73.8517	29.2969	75.564	29.2969	73.9788	29.2969	75.2961	29.2969	74.1364	29.2969	75.0297	29.2969	74.3232	29.2969	74.7743	29.2969	74.5371
30.7617	76.6463	30.7617	76.4113	30.7617	76.8843	30.7617	76.1856	30.7617	77.1178	30.7617	75.9745	30.7617	77.338	30.7617	75.7819	30.7617	77.5352	30.7617	75.6112	30.7617	77.6993	30.7617	75.465	30.7617	77.8206	30.7617	75.3451	30.7617	77.891	30.7617	75.2532	30.7617	77.9048	30.7617	75.1903	30.7617	77.8598	30.7617	75.1572	30.7617	77.7577	30.7617	75.1542	30.7617	77.6044	30.7617	75.1815	30.7617	77.4086	30.7617	75.2393	30.7617	77.1814	30.7617	75.3273	30.7617	76.9349	30.7617	75.4451	30.7617	76.6807	30.7617	75.5919	30.7617	76.4291	30.7617	75.7663	30.7617	76.1889	30.7617	75.9663
32.2266	77.8658	32.2266	77.6369	32.2266	78.096	32.2266	77.4158	32.2266	78.3202	32.2266	77.2076	32.2266	78.5298	32.2266	77.0166	32.2266	78.7155	32.2266	76.8462	32.2266	78.8676	32.2266	76.699	32.2266	78.977	32.2266	76.5772	32.2266	79.0358	32.2266	76.4821	32.2266	79.0388	32.2266	76.4147	32.2266	78.9843	32.2266	76.3757	32.2266	78.8743	32.2266	76.3654	32.2266	78.7149	32.2266	76.384	32.2266	78.5152	32.2266	76.4317	32.2266	78.2867	32.2266	76.5085	32.2266	78.0413	32.2266	76.6143	32.2266	77.7908	32.2266	76.7489	32.2266	77.5453	32.2266	76.9115	32.2266	77.3131	32.2266	77.1004
33.6914	78.828	33.6914	78.6061	33.6914	79.0495	33.6914	78.3902	33.6914	79.2635	33.6914	78.1855	33.6914	79.4618	33.6914	77.9964	33.6914	79.6356	33.6914	77.8267	33.6914	79.776	33.6914	77.6793	33.6914	79.8743	33.6914	77.5565	33.6914	79.9235	33.6914	77.4598	33.6914	79.9189	33.6914	77.3904	33.6914	79.8594	33.6914	77.349	33.6914	79.7472	33.6914	77.336	33.6914	79.5888	33.6914	77.3515	33.6914	79.3931	33.6914	77.3957	33.6914	79.1712	33.6914	77.4685	33.6914	78.9346	33.6914	77.5696	33.6914	78.6942	33.6914	77.6984	33.6914	78.4595	33.6914	77.854	33.6914	78.2378	33.6914	78.0346
35.1562	79.7291	35.1562	79.5143	35.1562	79.9418	35.1562	79.3037	35.1562	80.1457	35.1562	79.1023	35.1562	80.3329	35.1562	78.9145	35.1562	80.4951	35.1562	78.7438	35.1562	80.6237	35.1562	78.5933	35.1562	80.7107	35.1562	78.4654	35.1562	80.7497	35.1562	78.3619	35.1562	80.7366	35.1562	78.2843	35.1562	80.6703	35.1562	78.2339	35.1562	80.5537	35.1562	78.2114	35.1562	80.3928	35.1562	78.2175	35.1562	80.1965	35.1562	78.2525	35.1562	79.9756	35.1562	78.3166	35.1562	79.7411	35.1562	78.4098	35.1562	79.5035	35.1562	78.5315	35.1562	79.2722	35.1562	78.6808	35.1562	79.0545	35.1562	78.856
36.6211	80.4357	36.6211	80.2292	36.6211	80.6392	36.6211	80.0257	36.6211	80.8331	36.6211	79.8305	36.6211	81.0097	36.6211	79.6479	36.6211	81.1612	36.6211	79.4816	36.6211	81.2795	36.6211	79.3346	36.6211	81.3572	36.6211	79.2095	36.6211	81.3885	36.6211	79.1081	36.6211	81.3697	36.6211	79.0317	36.6211	81.3004	36.6211	78.9815	36.6211	81.1834	36.6211	78.9581	36.6211	81.025	36.6211	78.9621	36.6211	80.8341	36.6211	78.9937	36.6211	80.6209	36.6211	79.0529	36.6211	80.3962	36.6211	79.1397	36.6211	80.17	36.6211	79.2536	36.6211	79.9507	36.6211	79.3936	36.6211	79.745	36.6211	79.5582
38.0859	81.0159	38.0859	80.8102	38.0859	81.217	38.0859	80.6062	38.0859	81.407	38.0859	80.4092	38.0859	81.5784	38.0859	80.2239	38.0859	81.7235	38.0859	80.0543	38.0859	81.8349	38.0859	79.9037	38.0859	81.9054	38.0859	79.7749	38.0859	81.9298	38.0859	79.67	38.0859	81.9048	38.0859	79.5904	38.0859	81.8306	38.0859	79.5375	38.0859	81.7102	38.0859	79.5119	38.0859	81.5501	38.0859	79.5141	38.0859	81.3591	38.0859	79.5441	38.0859	81.1473	38.0859	79.602	38.0859	80.9251	38.0859	79.6874	38.0859	80.702	38.0859	79.7996	38.0859	80.486	38.0859	79.9375	38.0859	80.2836	38.0859	80.0996
39.5508	81.5763	39.5508	81.3758	39.5508	81.771	39.5508	81.1757	39.5508	81.9535	39.5508	80.9813	39.5508	82.1167	39.5508	80.7974	39.5508	82.2531	39.5508	80.628	39.5508	82.3558	39.5508	80.4766	39.5508	82.4183	39.5508	80.3463	39.5508	82.4358	39.5508	80.2392	39.5508	82.4058	39.5508	80.1574	39.5508	82.3285	39.5508	80.102	39.5508	82.2074	39.5508	80.074	39.5508	82.0489	39.5508	80.074	39.5508	81.8616	39.5508	80.1019	39.5508	81.6552	39.5508	80.1575	39.5508	81.4396	39.5508	80.2403	39.5508	81.2236	39.5508	80.3494	39.5508	81.0147	39.5508	80.4835	39.5508	80.819	39.5508	80.6408
41.0156	82.0292	41.0156	81.8318	41.0156	82.2188	41.0156	81.6326	41.0156	82.3942	41.0156	81.4369	41.0156	82.5483	41.0156	81.2497	41.0156	82.674	41.0156	81.0752	41.0156	82.7646	41.0156	80.917	41.0156	82.814	41.0156	80.7783	41.0156	82.8179	41.0156	80.6618	41.0156	82.7744	41.0156	80.5697	41.0156	82.6844	41.0156	80.5037	41.0156	82.5518	41.0156	80.4651	41.0156	82.3837	41.0156	80.4546	41.0156	82.1889	41.0156	80.4725	41.0156	81.9774	41.0156	80.5187	41.0156	81.7591	41.0156	80.5926	41.0156	81.5427	41.0156	80.6934	41.0156	81.3357	41.0156	80.8199	41.0156	81.1437	41.0156	80.9707
42.4805	82.6774	42.4805	82.4965	42.4805	82.8524	42.4805	82.3157	42.4805	83.0152	42.4805	82.1402	42.4805	83.1589	42.4805	81.9746	42.4805	83.2767	42.4805	81.8229	42.4805	83.3619	42.4805	81.6881	42.4805	83.4086	42.4805	81.5727	42.4805	83.4128	42.4805	81.4784	42.4805	83.3726	42.4805	81.4063	42.4805	83.2891	42.4805	81.357	42.4805	83.1662	42.4805	81.3307	42.4805	83.011	42.4805	81.3271	42.4805	82.8325	42.4805	81.3459	42.4805	82.6406	42.4805	81.3868	42.4805	82.4448	42.4805	81.4493	42.4805	82.2537	42.4805	81.5332	42.4805	82.0738	42.4805	81.6382	42.4805	81.9096	42.4805	81.7639
43.9453	82.9315	43.9453	82.7515	43.9453	83.1049	43.9453	82.5708	43.9453	83.2655	43.9453	82.3945	43.9453	83.4067	43.9453	82.227	43.9453	83.5216	43.9453	82.0724	43.9453	83.604	43.9453	81.934	43.9453	83.6483	43.9453	81.8143	43.9453	83.6506	43.9453	81.7154	43.9453	83.6092	43.9453	81.6388	43.9453	83.5255	43.9453	81.5855	43.9453	83.4035	43.9453	81.5558	43.9453	83.2498	43.9453	81.5498	43.9453	83.073	43.9453	81.5674	43.9453	82.8824	43.9453	81.6083	43.9453	82.6872	43.9453	81.6721	43.9453	82.4953	43.9453	81.7584	43.9453	82.3132	43.9453	81.8667	43.9453	82.1458	43.9453	81.9963
45.4102	83.1933	45.4102	83.0162	45.4102	83.3635	45.4102	82.838	45.4102	83.5206	45.4102	82.6638	45.4102	83.6579	45.4102	82.4982	45.4102	83.769	45.4102	82.345	45.4102	83.8476	45.4102	82.2075	45.4102	83.8884	45.4102	82.0885	45.4102	83.8879	45.4102	81.99	45.4102	83.8448	45.4102	81.9136	45.4102	83.7604	45.4102	81.8603	45.4102	83.639	45.4102	81.8306	45.4102	83.4873	45.4102	81.8246	45.4102	83.3137	45.4102	81.8421	45.4102	83.1273	45.4102	81.8826	45.4102	82.9368	45.4102	81.9457	45.4102	82.7499	45.4102	82.0307	45.4102	82.5727	45.4102	82.137	45.4102	82.4096	45.4102	82.2637
46.875	83.4272	46.875	83.2496	46.875	83.5974	46.875	83.0705	46.875	83.7539	46.875	82.8954	46.875	83.8901	46.875	82.7289	46.875	83.9995	46.875	82.5751	46.875	84.0759	46.875	82.4375	46.875	84.1145	46.875	82.3187	46.875	84.1119	46.875	82.2208	46.875	84.0671	46.875	82.1453	46.875	83.9816	46.875	82.093	46.875	83.8598	46.875	82.0644	46.875	83.7085	46.875	82.0595	46.875	83.5361	46.875	82.0778	46.875	83.3514	46.875	82.1188	46.875	83.1631	46.875	82.1821	46.875	82.9784	46.875	82.2668	46.875	82.8034	46.875	82.3724	46.875	82.6423	46.875	82.498
48.3398	83.68	48.3398	83.5011	48.3398	83.8506	48.3398	83.32	48.3398	84.0065	48.3398	83.1421	48.3398	84.1411	48.3398	82.9725	48.3398	84.2482	48.3398	82.8156	48.3398	84.3219	48.3398	82.6749	48.3398	84.3575	48.3398	82.5535	48.3398	84.352	48.3398	82.4536	48.3398	84.3047	48.3398	82.3767	48.3398	84.2174	48.3398	82.3238	48.3398	84.0947	48.3398	82.2953	48.3398	83.9434	48.3398	82.291	48.3398	83.7715	48.3398	82.3104	48.3398	83.5878	48.3398	82.353	48.3398	83.4007	48.3398	82.4178	48.3398	83.217	48.3398	82.504	48.3398	83.0427	48.3398	82.6108	48.3398	82.8817	48.3398	82.7371
51.2695	84.0628	51.2695	83.8832	51.2695	84.2325	51.2695	83.6997	51.2695	84.3856	51.2695	83.5184	51.2695	84.5159	51.2695	83.3447	51.2695	84.6172	51.2695	83.1834	51.2695	84.6843	51.2695	83.0387	51.2695	84.7129	51.2695	82.914	51.2695	84.7006	51.2695	82.8117	51.2695	84.6474	51.2695	82.7337	51.2695	84.5556	51.2695	82.6807	51.2695	84.4301	51.2695	82.653	51.2695	84.2778	51.2695	82.6501	51.2695	84.107	51.2695	82.6713	51.2695	83.9261	51.2695	82.7154	51.2695	83.743	51.2695	82.7812	51.2695	83.5641	51.2695	82.8675	51.2695	83.3947	51.2695	82.9732	51.2695	83.2382	51.2695	83.0972
52.7344	84.3046	52.7344	84.1309	52.7344	84.4673	52.7344	83.9526	52.7344	84.6129	52.7344	83.7753	52.7344	84.7352	52.7344	83.6047	52.7344	84.8284	52.7344	83.4455	52.7344	84.8875	52.7344	83.3021	52.7344	84.9087	52.7344	83.178	52.7344	84.89	52.7344	83.0758	52.7344	84.8316	52.7344	82.9975	52.7344	84.7363	52.7344	82.9439	52.7344	84.6094	52.7344	82.9153	52.7344	84.4581	52.7344	82.9111	52.7344	84.2906	52.7344	82.9304	52.7344	84.1152	52.7344	82.9718	52.7344	83.9395	52.7344	83.0338	52.7344	83.7695	52.7344	83.115	52.7344	83.6096	52.7344	83.2142	52.7344	83.4626	52.7344	83.3304
54.1992	84.473	54.1992	84.303	54.1992	84.6316	54.1992	84.1276	54.1992	84.7723	54.1992	83.9527	54.1992	84.8892	54.1992	83.7837	54.1992	84.9763	54.1992	83.6254	54.1992	85.0288	54.1992	83.4822	54.1992	85.0429	54.1992	83.3575	54.1992	85.017	54.1992	83.254	54.1992	84.9515	54.1992	83.1737	54.1992	84.8495	54.1992	83.1174	54.1992	84.7168	54.1992	83.0853	54.1992	84.5609	54.1992	83.0768	54.1992	84.3904	54.1992	83.0908	54.1992	84.214	54.1992	83.1259	54.1992	84.0393	54.1992	83.1808	54.1992	83.8725	54.1992	83.2541	54.1992	83.7176	54.1992	83.345	54.1992	83.5773	54.1992	83.4529
55.6641	84.623	55.6641	84.4555	55.6641	84.7792	55.6641	84.2825	55.6641	84.9178	55.6641	84.1098	55.6641	85.0328	55.6641	83.9425	55.6641	85.1183	55.6641	83.7852	55.6641	85.1695	55.6641	83.6418	55.6641	85.1827	55.6641	83.5158	55.6641	85.1561	55.6641	83.4098	55.6641	85.0901	55.6641	83.3256	55.6641	84.9878	55.6641	83.2645	55.6641	84.8546	55.6641	83.227	55.6641	84.698	55.6641	83.213	55.6641	84.5263	55.6641	83.2219	55.6641	84.3482	55.6641	83.2527	55.6641	84.1712	55.6641	83.3043	55.6641	84.0017	55.6641	83.3758	55.6641	83.844	55.6641	83.4662	55.6641	83.7012	55.6641	83.5749
58.5938	84.8317	58.5938	84.6541	58.5938	84.9967	58.5938	84.4703	58.5938	85.1427	58.5938	84.2866	58.5938	85.2634	58.5938	84.1086	58.5938	85.3531	58.5938	83.9418	58.5938	85.4071	58.5938	83.7906	58.5938	85.422	58.5938	83.6588	58.5938	85.3963	58.5938	83.5493	58.5938	85.3307	58.5938	83.4643	58.5938	85.2283	58.5938	83.4046	58.5938	85.0945	58.5938	83.3707	58.5938	84.9365	58.5938	83.3621	58.5938	84.7625	58.5938	83.3777	58.5938	84.581	58.5938	83.4164	58.5938	84.3994	58.5938	83.4766	58.5938	84.2241	58.5938	83.5571	58.5938	84.0596	58.5938	83.6566	58.5938	83.909	58.5938	83.7742
60.0586	85.0009	60.0586	84.8284	60.0586	85.1601	60.0586	84.649	60.0586	85.3	60.0586	84.4687	60.0586	85.4143	60.0586	84.293	60.0586	85.4978	60.0586	84.1269	60.0586	85.5458	60.0586	83.975	60.0586	85.5554	60.0586	83.841	60.0586	85.5253	60.0586	83.7276	60.0586	85.4563	60.0586	83.6373	60.0586	85.3517	60.0586	83.5715	60.0586	85.2169	60.0586	83.5309	60.0586	85.0589	60.0586	83.5156	60.0586	84.8858	60.0586	83.5252	60.0586	84.7055	60.0586	83.5586	60.0586	84.5252	60.0586	83.6146	60.0586	84.3511	60.0586	83.6918	60.0586	84.1877	60.0586	83.7889	60.0586	84.0382	60.0586	83.9048
62.9883	85.169	62.9883	85.0029	62.9883	85.3219	62.9883	84.8298	62.9883	85.4553	62.9883	84.6557	62.9883	85.5637	62.9883	84.4864	62.9883	85.642	62.9883	84.3272	62.9883	85.6861	62.9883	84.1828	62.9883	85.6936	62.9883	84.0572	62.9883	85.6638	62.9883	83.9533	62.9883	85.5982	62.9883	83.8733	62.9883	85.5004	62.9883	83.8184	62.9883	85.3759	62.9883	83.7888	62.9883	85.2316	62.9883	83.784	62.9883	85.0749	62.9883	83.8027	62.9883	84.9128	62.9883	83.8432	62.9883	84.7513	62.9883	83.9038	62.9883	84.5951	62.9883	83.9824	62.9883	84.4477	62.9883	84.0774	62.9883	84.3113	62.9883	84.1875
64.4531	85.2536	64.4531	85.0902	64.4531	85.4031	64.4531	84.9194	64.4531	85.5329	64.4531	84.7471	64.4531	85.637	64.4531	84.5793	64.4531	85.7107	64.4531	84.4212	64.4531	85.7499	64.4531	84.2777	64.4531	85.7525	64.4531	84.1526	64.4531	85.7181	64.4531	84.0491	64.4531	85.6485	64.4531	83.9692	64.4531	85.5476	64.4531	83.9142	64.4531	85.4213	64.4531	83.8842	64.4531	85.2767	64.4531	83.8785	64.4531	85.1212	64.4531	83.8958	64.4531	84.9619	64.4531	83.9342	64.4531	84.8045	64.4531	83.9919	64.4531	84.6534	64.4531	84.067	64.4531	84.5116	64.4531	84.1576	64.4531	84.381	64.4531	84.2626
67.3828	85.3136	67.3828	85.1432	67.3828	85.4701	67.3828	84.9654	67.3828	85.606	67.3828	84.787	67.3828	85.7154	67.3828	84.6143	67.3828	85.7932	67.3828	84.4529	67.3828	85.8355	67.3828	84.3079	67.3828	85.8401	67.3828	84.1835	67.3828	85.807	67.3828	84.0829	67.3828	85.7384	67.3828	84.008	67.3828	85.6387	67.3828	83.9599	67.3828	85.5141	67.3828	83.9383	67.3828	85.3719	67.3828	83.9421	67.3828	85.2197	67.3828	83.9695	67.3828	85.0641	67.3828	84.0179	67.3828	84.9106	67.3828	84.0849	67.3828	84.763	67.3828	84.1679	67.3828	84.6235	67.3828	84.2647	67.3828	84.4934	67.3828	84.3736
68.8477	85.3874	68.8477	85.2143	68.8477	85.5458	68.8477	85.0333	68.8477	85.6828	68.8477	84.8514	68.8477	85.7926	68.8477	84.675	68.8477	85.87	68.8477	84.5101	68.8477	85.9112	68.8477	84.3622	68.8477	85.9144	68.8477	84.2355	68.8477	85.8795	68.8477	84.1334	68.8477	85.8091	68.8477	84.0581	68.8477	85.7078	68.8477	84.0104	68.8477	85.5819	68.8477	83.9901	68.8477	85.4389	68.8477	83.9958	68.8477	85.2864	68.8477	84.0256	68.8477	85.131	68.8477	84.0766	68.8477	84.9779	68.8477	84.1462	68.8477	84.8307	68.8477	84.2315	68.8477	84.6915	68.8477	84.3302	68.8477	84.5612	68.8477	84.4405
71.7773	85.6492	71.7773	85.4711	71.7773	85.8096	71.7773	85.2821	71.7773	85.9457	71.7773	85.0895	71.7773	86.0519	71.7773	84.9002	71.7773	86.1236	71.7773	84.7211	71.7773	86.1576	71.7773	84.5581	71.7773	86.1525	71.7773	84.4167	71.7773	86.109	71.7773	84.3009	71.7773	86.03	71.7773	84.2137	71.7773	85.9204	71.7773	84.1565	71.7773	85.787	71.7773	84.1295	71.7773	85.6371	71.7773	84.1315	71.7773	85.4782	71.7773	84.1602	71.7773	85.3169	71.7773	84.2128	71.7773	85.1582	71.7773	84.2858	71.7773	85.0053	71.7773	84.376	71.7773	84.8602	71.7773	84.4805	71.7773	84.7238	71.7773	84.5969
74.707	85.7888	74.707	85.6127	74.707	85.946	74.707	85.4244	74.707	86.0779	74.707	85.2312	74.707	86.1789	74.707	85.04	74.707	86.2448	74.707	84.8575	74.707	86.2726	74.707	84.6897	74.707	86.2614	74.707	84.5421	74.707	86.2123	74.707	84.4189	74.707	86.1286	74.707	84.3235	74.707	86.0155	74.707	84.258	74.707	85.8797	74.707	84.2231	74.707	85.7286	74.707	84.2185	74.707	85.5693	74.707	84.2424	74.707	85.4078	74.707	84.2921	74.707	85.2486	74.707	84.3642	74.707	85.0948	74.707	84.455	74.707	84.9481	74.707	84.5612	74.707	84.8095	74.707	84.6801
77.6367	85.9247	77.6367	85.756	77.6367	86.0732	77.6367	85.5735	77.6367	86.1952	77.6367	85.3846	77.6367	86.2856	77.6367	85.1964	77.6367	86.3405	77.6367	85.0159	77.6367	86.3577	77.6367	84.8495	77.6367	86.3368	77.6367	84.7029	77.6367	86.2796	77.6367	84.5807	77.6367	86.19	77.6367	84.4861	77.6367	86.0738	77.6367	84.4213	77.6367	85.9382	77.6367	84.3867	77.6367	85.7906	77.6367	84.3816	77.6367	85.6379	77.6367	84.404	77.6367	85.4855	77.6367	84.4508	77.6367	85.3372	77.6367	84.5187	77.6367	85.195	77.6367	84.6038	77.6367	85.06	77.6367	84.7029	77.6367	84.9325	77.6367	84.8131
79.1016	85.9678	79.1016	85.8013	79.1016	86.1134	79.1016	85.6208	79.1016	86.2321	79.1016	85.4334	79.1016	86.3189	79.1016	85.2466	79.1016	86.3699	79.1016	85.0674	79.1016	86.383	79.1016	84.9025	79.1016	86.3581	79.1016	84.7578	79.1016	86.2974	79.1016	84.6379	79.1016	86.205	79.1016	84.5461	79.1016	86.0873	79.1016	84.4843	79.1016	85.9516	79.1016	84.4527	79.1016	85.8055	79.1016	84.4501	79.1016	85.6562	79.1016	84.4742	79.1016	85.5087	79.1016	84.5216	79.1016	85.3667	79.1016	84.5886	79.1016	85.2317	79.1016	84.6712	79.1016	85.1041	79.1016	84.7662	79.1016	84.9839	79.1016	84.871
82.0312	85.956	82.0312	85.7881	82.0312	86.1031	82.0312	85.6065	82.0312	86.223	82.0312	85.4188	82.0312	86.3103	82.0312	85.2324	82.0312	86.3612	82.0312	85.0546	82.0312	86.3737	82.0312	84.8921	82.0312	86.3478	82.0312	84.7504	82.0312	86.2861	82.0312	84.6341	82.0312	86.1933	82.0312	84.5464	82.0312	86.0763	82.0312	84.489	82.0312	85.9427	82.0312	84.4619	82.0312	85.8005	82.0312	84.4639	82.0312	85.6563	82.0312	84.4924	82.0312	85.5151	82.0312	84.5439	82.0312	85.3797	82.0312	84.6143	82.0312	85.251	82.0312	84.6996	82.0312	85.1285	82.0312	84.7961	82.0312	85.0119	82.0312	84.9008
84.9609	86.0135	84.9609	85.8404	84.9609	86.1622	84.9609	85.6503	84.9609	86.2801	84.9609	85.4517	84.9609	86.3622	84.9609	85.2532	84.9609	86.4053	84.9609	85.0635	84.9609	86.408	84.9609	84.8909	84.9609	86.3716	84.9609	84.7426	84.9609	86.2997	84.9609	84.6241	84.9609	86.1982	84.9609	84.5391	84.9609	86.0752	84.9609	84.4893	84.9609	85.9396	84.9609	84.4741	84.9609	85.7999	84.9609	84.4907	84.9609	85.6629	84.9609	84.535	84.9609	85.5331	84.9609	84.6015	84.9609	85.4118	84.9609	84.6845	84.9609	85.2983	84.9609	84.7784	84.9609	85.1902	84.9609	84.8784	84.9609	85.085	84.9609	84.9811
87.8906	86.116	87.8906	85.9439	87.8906	86.2624	87.8906	85.7534	87.8906	86.3767	87.8906	85.5525	87.8906	86.454	87.8906	85.3501	87.8906	86.4911	87.8906	85.1551	87.8906	86.4866	87.8906	84.9759	87.8906	86.4418	87.8906	84.8205	87.8906	86.3602	87.8906	84.6949	87.8906	86.2479	87.8906	84.6035	87.8906	86.1133	87.8906	84.5481	87.8906	85.9657	87.8906	84.5278	87.8906	85.8145	87.8906	84.5398	87.8906	85.6674	87.8906	84.579	87.8906	85.5298	87.8906	84.6397	87.8906	85.404	87.8906	84.7157	87.8906	85.2893	87.8906	84.8015	87.8906	85.1834	87.8906	84.8928	87.8906	85.0835	87.8906	84.987
90.8203	86.2354	90.8203	86.0812	90.8203	86.3617	90.8203	85.9055	90.8203	86.4547	90.8203	85.7154	90.8203	86.5102	90.8203	85.5187	90.8203	86.5254	90.8203	85.3234	90.8203	86.4996	90.8203	85.1379	90.8203	86.4342	90.8203	84.9699	90.8203	86.3333	90.8203	84.8266	90.8203	86.2036	90.8203	84.7136	90.8203	86.0537	90.8203	84.6343	90.8203	85.8935	90.8203	84.5896	90.8203	85.7326	90.8203	84.5777	90.8203	85.5791	90.8203	84.5946	90.8203	85.4383	90.8203	84.6349	90.8203	85.3124	90.8203	84.6926	90.8203	85.2006	90.8203	84.7623	90.8203	85.1003	90.8203	84.8395	90.8203	85.0082	90.8203	84.9217
95.2148	86.0955	95.2148	85.9292	95.2148	86.2386	95.2148	85.7471	95.2148	86.3516	95.2148	85.557	95.2148	86.4291	95.2148	85.3666	95.2148	86.4672	95.2148	85.1832	95.2148	86.4642	95.2148	85.0134	95.2148	86.4207	95.2148	84.863	95.2148	86.3401	95.2148	84.7367	95.2148	86.228	95.2148	84.638	95.2148	86.0923	95.2148	84.5692	95.2148	85.942	95.2148	84.5309	95.2148	85.786	95.2148	84.5223	95.2148	85.6323	95.2148	84.5409	95.2148	85.4862	95.2148	84.5832	95.2148	85.3507	95.2148	84.6447	95.2148	85.226	95.2148	84.7209	95.2148	85.1109	95.2148	84.8078	95.2148	85.0035	95.2148	84.9025
98.1445	86.1004	98.1445	85.923	98.1445	86.2514	98.1445	85.7275	98.1445	86.3691	98.1445	85.5231	98.1445	86.4481	98.1445	85.3191	98.1445	86.4853	98.1445	85.1249	98.1445	86.4798	98.1445	84.9487	98.1445	86.4336	98.1445	84.7978	98.1445	86.3512	98.1445	84.6775	98.1445	86.2398	98.1445	84.5911	98.1445	86.1082	98.1445	84.5399	98.1445	85.966	98.1445	84.5229	98.1445	85.8222	98.1445	84.5372	98.1445	85.6836	98.1445	84.5789	98.1445	85.554	98.1445	84.6426	98.1445	85.4344	98.1445	84.7228	98.1445	85.3232	98.1445	84.8142	98.1445	85.2175	98.1445	84.912	98.1445	85.1146	98.1445	85.0128
101.074	86.0589	101.074	85.8806	101.074	86.2086	101.074	85.6819	101.074	86.3228	101.074	85.4719	101.074	86.3961	101.074	85.2602	101.074	86.4252	101.074	85.0563	101.074	86.4092	101.074	84.8694	101.074	86.3504	101.074	84.7076	101.074	86.2538	101.074	84.5777	101.074	86.1275	101.074	84.4842	101.074	85.9818	101.074	84.4292	101.074	85.8278	101.074	84.4118	101.074	85.6758	101.074	84.4289	101.074	85.5339	101.074	84.4749	101.074	85.4061	101.074	84.5433	101.074	85.2927	101.074	84.6271	101.074	85.1909	101.074	84.7195	101.074	85.096	101.074	84.8151	101.074	85.0035	101.074	84.9102
105.469	86.1165	105.469	85.9269	105.469	86.2737	105.469	85.7139	105.469	86.3911	105.469	85.4874	105.469	86.463	105.469	85.2577	105.469	86.4864	105.469	85.0349	105.469	86.4607	105.469	84.8286	105.469	86.3885	105.469	84.6473	105.469	86.2756	105.469	84.4981	105.469	86.1306	105.469	84.3861	105.469	85.9645	105.469	84.3143	105.469	85.7893	105.469	84.2829	105.469	85.6163	105.469	84.2891	105.469	85.4545	105.469	84.328	105.469	85.309	105.469	84.3927	105.469	85.1808	105.469	84.4756	105.469	85.0672	105.469	84.5691	105.469	84.9633	105.469	84.6673	105.469	84.8643	105.469	84.7661
108.398	86.2703	108.398	86.0793	108.398	86.4252	108.398	85.8609	108.398	86.5368	108.398	85.6254	108.398	86.6004	108.398	85.3834	108.398	86.6134	108.398	85.1461	108.398	86.5762	108.398	84.9238	108.398	86.4919	108.398	84.7259	108.398	86.3669	108.398	84.5601	108.398	86.2104	108.398	84.4323	108.398	86.0336	108.398	84.3458	108.398	85.8486	108.398	84.3015	108.398	85.6668	108.398	84.2971	108.398	85.4967	108.398	84.3278	108.398	85.3432	108.398	84.3871	108.398	85.2069	108.398	84.4671	108.398	85.0853	108.398	84.5604	108.398	84.9738	108.398	84.6607	108.398	84.8677	108.398	84.7637
112.793	86.3743	112.793	86.1904	112.793	86.52	112.793	85.977	112.793	86.6208	112.793	85.7445	112.793	86.6724	112.793	85.5044	112.793	86.6729	112.793	85.2684	112.793	86.6237	112.793	85.0481	112.793	86.5291	112.793	84.8538	112.793	86.3969	112.793	84.6936	112.793	86.2375	112.793	84.5736	112.793	86.0637	112.793	84.4967	112.793	85.8884	112.793	84.463	112.793	85.7228	112.793	84.4694	112.793	85.5745	112.793	84.5104	112.793	85.4462	112.793	84.5783	112.793	85.3359	112.793	84.6648	112.793	85.2382	112.793	84.7618	112.793	85.1466	112.793	84.8621	112.793	85.0553	112.793	84.9607
117.188	86.3639	117.188	86.1873	117.188	86.4996	117.188	85.9779	117.188	86.5882	117.188	85.7454	117.188	86.6254	117.188	85.501	117.188	86.6096	117.188	85.2567	117.188	86.5416	117.188	85.0247	117.188	86.4257	117.188	84.8165	117.188	86.2695	117.188	84.642	117.188	86.0843	117.188	84.5085	117.188	85.8839	117.188	84.4203	117.188	85.6837	117.188	84.3781	117.188	85.4979	117.188	84.3785	117.188	85.3369	117.188	84.4151	117.188	85.2055	117.188	84.4787	117.188	85.102	117.188	84.5589	117.188	85.0199	117.188	84.6458	117.188	84.9496	117.188	84.7312	117.188	84.8821	117.188	84.8104
120.117	86.3983	120.117	86.2215	120.117	86.5343	120.117	86.0124	120.117	86.6231	120.117	85.7808	120.117	86.6602	120.117	85.5377	120.117	86.6433	120.117	85.2948	120.117	86.5732	120.117	85.064	120.117	86.4538	120.117	84.8563	120.117	86.2925	120.117	84.6812	120.117	86.1003	120.117	84.5457	120.117	85.8911	120.117	84.4537	120.117	85.6801	120.117	84.4054	120.117	85.482	120.117	84.3978	120.117	85.3083	120.117	84.4243	120.117	85.1649	120.117	84.4764	120.117	85.0518	120.117	84.5442	120.117	84.9636	120.117	84.6186	120.117	84.8917	120.117	84.6924	120.117	84.8269	120.117	84.7618
124.512	86.3673	124.512	86.1872	124.512	86.5067	124.512	85.9748	124.512	86.599	124.512	85.7395	124.512	86.6397	124.512	85.4922	124.512	86.6269	124.512	85.2442	124.512	86.5614	124.512	85.0074	124.512	86.4474	124.512	84.7933	124.512	86.2925	124.512	84.6118	124.512	86.1075	124.512	84.4709	124.512	85.9059	124.512	84.375	124.512	85.702	124.512	84.3249	124.512	85.5094	124.512	84.3174	124.512	85.3382	124.512	84.3463	124.512	85.1935	124.512	84.4029	124.512	85.0747	124.512	84.4778	124.512	84.9767	124.512	84.562	124.512	84.8918	124.512	84.6481	124.512	84.8121	124.512	84.7318
128.906	86.2191	128.906	86.0312	128.906	86.3659	128.906	85.8113	128.906	86.4647	128.906	85.5699	128.906	86.5107	128.906	85.3186	128.906	86.5022	128.906	85.0695	128.906	86.4406	128.906	84.8344	128.906	86.3308	128.906	84.6249	128.906	86.1816	128.906	84.4512	128.906	86.0049	128.906	84.3213	128.906	85.8152	128.906	84.2398	128.906	85.6273	128.906	84.2077	128.906	85.4543	128.906	84.2212	128.906	85.3049	128.906	84.2732	128.906	85.1819	128.906	84.3537	128.906	85.0821	128.906	84.4518	128.906	84.9981	128.906	84.5567	128.906	84.9209	128.906	84.6599	128.906	84.842	128.906	84.7556
133.301	86.2074	133.301	86.0198	133.301	86.3501	133.301	85.7964	133.301	86.4412	133.301	85.5481	133.301	86.4766	133.301	85.2873	133.301	86.4554	133.301	85.0273	133.301	86.3798	133.301	84.7816	133.301	86.256	133.301	84.5631	133.301	86.094	133.301	84.3835	133.301	85.9076	133.301	84.2518	133.301	85.7129	133.301	84.1732	133.301	85.5262	133.301	84.1483	133.301	85.3612	133.301	84.1726	133.301	85.2261	133.301	84.2374	133.301	85.1218	133.301	84.3314	133.301	85.0422	133.301	84.4418	133.301	84.9771	133.301	84.5567	133.301	84.9148	133.301	84.6661	133.301	84.8456	133.301	84.7633
139.16	86.1344	139.16	85.947	139.16	86.2709	139.16	85.7182	139.16	86.35	139.16	85.46	139.16	86.3683	139.16	85.1866	139.16	86.3254	139.16	84.913	139.16	86.2247	139.16	84.6546	139.16	86.0737	139.16	84.4258	139.16	85.8839	139.16	84.2389	139.16	85.6712	139.16	84.1032	139.16	85.4544	139.16	84.024	139.16	85.2527	139.16	84.0016	139.16	85.0824	139.16	84.0309	139.16	84.9528	139.16	84.1024	139.16	84.8644	139.16	84.2031	139.16	84.8086	139.16	84.3186	139.16	84.7712	139.16	84.4348	139.16	84.7366	139.16	84.5402	139.16	84.6912	139.16	84.6267
143.555	86.0339	143.555	85.8488	143.555	86.1654	143.555	85.619	143.555	86.2372	143.555	85.3563	143.555	86.246	143.555	85.0747	143.555	86.1917	143.555	84.7902	143.555	86.0775	143.555	84.5196	143.555	85.9111	143.555	84.2791	143.555	85.7044	143.555	84.0831	143.555	85.4741	143.555	83.9423	143.555	85.2403	143.555	83.8625	143.555	85.0242	143.555	83.8432	143.555	84.8439	143.555	83.878	143.555	84.7103	143.555	83.9551	143.555	84.6241	143.555	84.0593	143.555	84.5765	143.555	84.1746	143.555	84.552	143.555	84.2862	143.555	84.533	143.555	84.3822	143.555	84.5043	143.555	84.4555
147.949	85.9567	147.949	85.7625	147.949	86.0925	147.949	85.5187	147.949	86.1644	147.949	85.2373	147.949	86.1697	147.949	84.9329	147.949	86.1089	147.949	84.6228	147.949	85.9861	147.949	84.3258	147.949	85.8096	147.949	84.0602	147.949	85.5923	147.949	83.8427	147.949	85.3521	147.949	83.6855	147.949	85.1104	147.949	83.5955	147.949	84.8892	147.949	83.5723	147.949	84.7067	147.949	83.6087	147.949	84.5728	147.949	83.6921	147.949	84.4861	147.949	83.8062	147.949	84.4354	147.949	83.9342	147.949	84.4038	147.949	84.0607	147.949	84.3734	147.949	84.1733	147.949	84.3297	147.949	84.264
153.809	85.9616	153.809	85.7849	153.809	86.0749	153.809	85.5521	153.809	86.1201	153.809	85.2737	153.809	86.0947	153.809	84.9631	153.809	85.999	153.809	84.6373	153.809	85.8366	153.809	84.3162	153.809	85.6158	153.809	84.0208	153.809	85.3509	153.809	83.771	153.809	85.0623	153.809	83.5832	153.809	84.7765	153.809	83.4674	153.809	84.522	153.809	83.4254	153.809	84.3234	153.809	83.4512	153.809	84.1943	153.809	83.5312	153.809	84.1323	153.809	83.6474	153.809	84.1204	153.809	83.7795	153.809	84.1335	153.809	83.9082	153.809	84.1457	153.809	84.0172	153.809	84.1368	153.809	84.095
159.668	85.8345	159.668	85.6489	159.668	85.9595	159.668	85.4114	159.668	86.0168	159.668	85.1326	159.668	86.0017	159.668	84.8248	159.668	85.9124	159.668	84.5035	159.668	85.7511	159.668	84.187	159.668	85.525	159.668	83.8964	159.668	85.248	159.668	83.6536	159.668	84.9417	159.668	83.4772	159.668	84.6346	159.668	83.3786	159.668	84.3592	159.668	83.3587	159.668	84.145	159.668	83.4075	159.668	84.0096	159.668	83.507	159.668	83.9526	159.668	83.6351	159.668	83.9563	159.668	83.7694	159.668	83.9927	159.668	83.8905	159.668	84.0327	159.668	83.9831	159.668	84.0526	159.668	84.038
165.527	86.01	165.527	85.7913	165.527	86.1551	165.527	85.5077	165.527	86.2209	165.527	85.1714	165.527	86.2044	165.527	84.7979	165.527	86.105	165.527	84.4062	165.527	85.9254	165.527	84.0181	165.527	85.6724	165.527	83.6582	165.527	85.3594	165.527	83.3529	165.527	85.0083	165.527	83.127	165.527	84.6511	165.527	82.9988	165.527	84.3271	165.527	82.9748	165.527	84.0755	165.527	83.046	165.527	83.9223	165.527	83.1904	165.527	83.8686	165.527	83.3779	165.527	83.8907	165.527	83.577	165.527	83.9494	165.527	83.7595	165.527	84.0047	165.527	83.9031	165.527	84.0255	165.527	83.9936
171.387	86.0785	171.387	85.8752	171.387	86.2087	171.387	85.6039	171.387	86.2617	171.387	85.2719	171.387	86.2348	171.387	84.8896	171.387	86.1261	171.387	84.4715	171.387	85.9359	171.387	84.0374	171.387	85.6678	171.387	83.6128	171.387	85.3313	171.387	83.2288	171.387	84.9446	171.387	82.9193	171.387	84.5373	171.387	82.7152	171.387	84.1511	171.387	82.635	171.387	83.8332	171.387	82.6776	171.387	83.6226	171.387	82.8205	171.387	83.5325	171.387	83.026	171.387	83.5433	171.387	83.2513	171.387	83.6112	171.387	83.4574	171.387	83.686	171.387	83.6149	171.387	83.7263	171.387	83.706
177.246	86.1095	177.246	85.9502	177.246	86.1991	177.246	85.724	177.246	86.2164	177.246	85.435	177.246	86.1592	177.246	85.0886	177.246	86.0257	177.246	84.693	177.246	85.8149	177.246	84.2597	177.246	85.5278	177.246	83.8057	177.246	85.1697	177.246	83.3542	177.246	84.7529	177.246	82.9366	177.246	84.3005	177.246	82.5892	177.246	83.8495	177.246	82.3474	177.246	83.4489	177.246	82.2335	177.246	83.147	177.246	82.2462	177.246	82.9717	177.246	82.3593	177.246	82.9148	177.246	82.5295	177.246	82.9351	177.246	82.7102	177.246	82.978	177.246	82.8626	177.246	82.9965	177.246	82.9611
183.105	85.8504	183.105	85.7134	183.105	85.9295	183.105	85.5222	183.105	85.9468	183.105	85.2808	183.105	85.8988	183.105	84.9937	183.105	85.7826	183.105	84.6669	183.105	85.5964	183.105	84.3081	183.105	85.3403	183.105	83.9284	183.105	85.0172	183.105	83.5425	183.105	84.6359	183.105	83.1701	183.105	84.2137	183.105	82.8357	183.105	83.78	183.105	82.5655	183.105	83.3766	183.105	82.3824	183.105	83.0494	183.105	82.2979	183.105	82.8318	183.105	82.306	183.105	82.727	183.105	82.3833	183.105	82.7051	183.105	82.4952	183.105	82.718	183.105	82.6053	183.105	82.7206	183.105	82.685
188.965	85.5524	188.965	85.4067	188.965	85.6386	188.965	85.2076	188.965	85.6601	188.965	84.9616	188.965	85.6126	188.965	84.6766	188.965	85.4928	188.965	84.3613	188.965	85.2991	188.965	84.0254	188.965	85.0324	188.965	83.6804	188.965	84.6978	188.965	83.3396	188.965	84.3061	188.965	83.0194	188.965	83.8776	188.965	82.7388	188.965	83.4446	188.965	82.5175	188.965	83.0511	188.965	82.3718	188.965	82.7445	188.965	82.3088	188.965	82.5574	188.965	82.3213	188.965	82.4904	188.965	82.3884	188.965	82.5098	188.965	82.479	188.965	82.5641	188.965	82.5607	188.965	82.6062	188.965	82.6073
196.289	85.5443	196.289	85.3785	196.289	85.6501	196.289	85.1601	196.289	85.689	196.289	84.8972	196.289	85.6553	196.289	84.5984	196.289	85.5444	196.289	84.2732	196.289	85.3534	196.289	83.9317	196.289	85.0819	196.289	83.5846	196.289	84.7324	196.289	83.2436	196.289	84.3126	196.289	82.9219	196.289	83.8389	196.289	82.6352	196.289	83.3411	196.289	82.4005	196.289	82.8655	196.289	82.2327	196.289	82.47	196.289	82.1396	196.289	82.2043	196.289	82.1165	196.289	82.0854	196.289	82.1452	196.289	82.0855	196.289	82.1971	196.289	82.148	196.289	82.2406	196.289	82.2154	196.289	82.2502
203.613	85.2995	203.613	85.1369	203.613	85.4035	203.613	84.9208	203.613	85.4428	203.613	84.6559	203.613	85.4112	203.613	84.3481	203.613	85.3038	203.613	84.0063	203.613	85.1179	203.613	83.6436	203.613	84.8537	203.613	83.2761	203.613	84.5143	203.613	82.9226	203.613	84.1066	203.613	82.6021	203.613	83.6446	203.613	82.3334	203.613	83.1545	203.613	82.1328	203.613	82.679	203.613	82.011	203.613	82.2752	203.613	81.9681	203.613	81.9984	203.613	81.9901	203.613	81.8746	203.613	82.0501	203.613	81.8838	203.613	82.1143	203.613	81.9698	203.613	82.1505	203.613	82.0696	203.613	82.1367
210.938	85.4493	210.938	85.2498	210.938	85.5854	210.938	84.9966	210.938	85.6492	210.938	84.6988	210.938	85.6347	210.938	84.3643	210.938	85.5385	210.938	84.0001	210.938	85.3601	210.938	83.6135	210.938	85.1003	210.938	83.2133	210.938	84.7608	210.938	82.8112	210.938	84.345	210.938	82.4216	210.938	83.8609	210.938	82.062	210.938	83.3274	210.938	81.752	210.938	82.7803	210.938	81.5106	210.938	82.2734	210.938	81.3516	210.938	81.8668	210.938	81.2772	210.938	81.6005	210.938	81.2744	210.938	81.4709	210.938	81.3168	210.938	81.4328	210.938	81.3721	210.938	81.4279	210.938	81.4128
218.262	85.1535	218.262	84.9872	218.262	85.2572	218.262	84.768	218.262	85.2921	218.262	84.5064	218.262	85.2564	218.262	84.2118	218.262	85.1527	218.262	83.8912	218.262	84.986	218.262	83.5494	218.262	84.7616	218.262	83.1908	218.262	84.4831	218.262	82.8214	218.262	84.1517	218.262	82.4515	218.262	83.7691	218.262	82.0969	218.262	83.3431	218.262	81.7797	218.262	82.8946	218.262	81.5249	218.262	82.4618	218.262	81.3544	218.262	82.0935	218.262	81.2776	218.262	81.8292	218.262	81.2853	218.262	81.6761	218.262	81.3502	218.262	81.6033	218.262	81.4358	218.262	81.5616	218.262	81.5106
225.586	84.817	225.586	84.6926	225.586	84.8783	225.586	84.512	225.586	84.8741	225.586	84.2856	225.586	84.8058	225.586	84.0263	225.586	84.6791	225.586	83.7472	225.586	84.5021	225.586	83.4601	225.586	84.2836	225.586	83.1739	225.586	84.0309	225.586	82.8949	225.586	83.7476	225.586	82.6275	225.586	83.4349	225.586	82.3776	225.586	83.097	225.586	82.154	225.586	82.7481	225.586	81.9701	225.586	82.4175	225.586	81.8398	225.586	82.1453	225.586	81.772	225.586	81.9645	225.586	81.7634	225.586	81.8805	225.586	81.7954	225.586	81.8651	225.586	81.8396	225.586	81.8736	225.586	81.8694
232.91	84.5538	232.91	84.4143	232.91	84.6276	232.91	84.2195	232.91	84.6287	232.91	83.9818	232.91	84.5556	232.91	83.7162	232.91	84.4146	232.91	83.4399	232.91	84.2206	232.91	83.1705	232.91	83.9932	232.91	82.9224	232.91	83.7517	232.91	82.7049	232.91	83.5074	232.91	82.5212	232.91	83.2618	232.91	82.3708	232.91	83.0094	232.91	82.2523	232.91	82.7482	232.91	82.1653	232.91	82.4887	232.91	82.1093	232.91	82.2574	232.91	82.0817	232.91	82.0869	232.91	82.0747	232.91	81.9969	232.91	82.075	232.91	81.9802	232.91	82.0678	232.91	82.0072	232.91	82.0438
241.699	84.4206	241.699	84.2001	241.699	84.5336	241.699	83.8953	241.699	84.5229	241.699	83.5313	241.699	84.3833	241.699	83.1338	241.699	84.1245	241.699	82.7305	241.699	83.7716	241.699	82.3538	241.699	83.3647	241.699	82.0392	241.699	82.9544	241.699	81.8183	241.699	82.5944	241.699	81.7085	241.699	82.3275	241.699	81.7085	241.699	82.1735	241.699	81.7999	241.699	82.1259	241.699	81.9549	241.699	82.1602	241.699	82.1433	241.699	82.2479	241.699	82.3361	241.699	82.3642	241.699	82.508	241.699	82.4889	241.699	82.6386	241.699	82.6032	241.699	82.7143	241.699	82.689	241.699	82.7299
250.488	84.7447	250.488	84.5461	250.488	84.8188	250.488	84.2387	250.488	84.7593	250.488	83.8416	250.488	84.5662	250.488	83.3741	250.488	84.2475	250.488	82.8561	250.488	83.8178	250.488	82.3125	250.488	83.2988	250.488	81.7795	250.488	82.7223	250.488	81.3061	250.488	82.1359	250.488	80.9469	250.488	81.6043	250.488	80.7457	250.488	81.202	250.488	80.7195	250.488	80.9898	250.488	80.8527	250.488	80.9871	250.488	81.104	250.488	81.1614	250.488	81.4185	250.488	81.4431	250.488	81.7384	250.488	81.7528	250.488	82.0109	250.488	82.0217	250.488	82.194	250.488	82.2004	250.488	82.2606
259.277	85.344	259.277	85.1542	259.277	85.414	259.277	84.8561	259.277	85.3597	259.277	84.4668	259.277	85.1827	259.277	84.0056	259.277	84.8885	259.277	83.4904	259.277	84.4847	259.277	82.9385	259.277	83.9814	259.277	82.3713	259.277	83.3927	259.277	81.8217	259.277	82.7428	259.277	81.3355	259.277	82.0728	259.277	80.9635	259.277	81.4484	259.277	80.7437	259.277	80.9555	259.277	80.6848	259.277	80.6731	259.277	80.7622	259.277	80.6269	259.277	80.9285	259.277	80.7681	259.277	81.1283	259.277	81.0013	259.277	81.3101	259.277	81.2325	259.277	81.4322	259.277	81.3978	259.277	81.466
268.066	84.8375	268.066	84.6728	268.066	84.8861	268.066	84.4045	268.066	84.8115	268.066	84.048	268.066	84.6143	268.066	83.6195	268.066	84.3031	268.066	83.1359	268.066	83.8929	268.066	82.6173	268.066	83.4039	268.066	82.0903	268.066	82.8602	268.066	81.5907	268.066	82.2922	268.066	81.1656	268.066	81.7417	268.066	80.8669	268.066	81.2663	268.066	80.7364	268.066	80.9356	268.066	80.7853	268.066	80.8077	268.066	80.9853	268.066	80.8957	268.066	81.2775	268.066	81.1501	268.066	81.5923	268.066	81.4796	268.066	81.8649	268.066	81.7893	268.066	82.0443	268.066	82.0081	268.066	82.0966
276.855	85.1098	276.855	84.9284	276.855	85.1581	276.855	84.621	276.855	85.0723	276.855	84.1984	276.855	84.8567	276.855	83.6736	276.855	84.5187	276.855	83.0623	276.855	84.066	276.855	82.3877	276.855	83.5057	276.855	81.6872	276.855	82.847	276.855	81.0193	276.855	82.1084	276.855	80.4609	276.855	81.3324	276.855	80.0909	276.855	80.6034	276.855	79.9601	276.855	80.0516	276.855	80.0664	276.855	79.8069	276.855	80.3538	276.855	79.9083	276.855	80.7336	276.855	80.2633	276.855	81.1125	276.855	80.7164	276.855	81.413	276.855	81.1353	276.855	81.5824	276.855	81.4404	276.855	81.5936
287.109	85.0537	287.109	84.9115	287.109	85.0798	287.109	84.6662	287.109	84.9883	287.109	84.3388	287.109	84.7878	287.109	83.9477	287.109	84.49	287.109	83.4985	287.109	84.1035	287.109	82.9835	287.109	83.629	287.109	82.3918	287.109	83.0591	287.109	81.7258	287.109	82.3847	287.109	81.0184	287.109	81.6097	287.109	80.3443	287.109	80.7749	287.109	79.8146	287.109	79.9851	287.109	79.5354	287.109	79.4126	287.109	79.54	287.109	79.2172	287.109	79.7596	287.109	79.4057	287.109	80.0731	287.109	79.8113	287.109	80.3702	287.109	80.2281	287.109	80.5746	287.109	80.5204	287.109	80.6351
297.363	84.9703	297.363	84.9479	297.363	84.884	297.363	84.8104	297.363	84.7032	297.363	84.5624	297.363	84.445	297.363	84.2185	297.363	84.1246	297.363	83.7959	297.363	83.7527	297.363	83.307	297.363	83.3337	297.363	82.7562	297.363	82.8662	297.363	82.1473	297.363	82.3453	297.363	81.4989	297.363	81.7709	297.363	80.863	297.363	81.166	297.363	80.3346	297.363	80.6024	297.363	80.0291	297.363	80.208	297.363	80.0176	297.363	80.1108	297.363	80.2677	297.363	80.3276	297.363	80.6616	297.363	80.7298	297.363	81.0625	297.363	81.1362	297.363	81.3619	297.363	81.4112	297.363	81.4892
307.617	84.9611	307.617	84.8376	307.617	84.9636	307.617	84.6081	307.617	84.8399	307.617	84.2966	307.617	84.595	307.617	83.9321	307.617	84.2444	307.617	83.5425	307.617	83.8114	307.617	83.1454	307.617	83.3219	307.617	82.7421	307.617	82.7944	307.617	82.3172	307.617	82.2328	307.617	81.8486	307.617	81.6299	307.617	81.3276	307.617	80.9868	307.617	80.7821	307.617	80.3469	307.617	80.2937	307.617	79.826	307.617	79.9827	307.617	79.5861	307.617	79.9405	307.617	79.7125	307.617	80.1513	307.617	80.1057	307.617	80.4907	307.617	80.5508	307.617	80.7987	307.617	80.8617	307.617	80.9456
319.336	84.6405	319.336	84.5471	319.336	84.5856	319.336	84.3157	319.336	84.3798	319.336	83.9607	319.336	84.0331	319.336	83.5021	319.336	83.5705	319.336	82.9681	319.336	83.0288	319.336	82.3969	319.336	82.4482	319.336	81.8324	319.336	81.8634	319.336	81.3165	319.336	81.2988	319.336	80.8796	319.336	80.7736	319.336	80.5373	319.336	80.3136	319.336	80.2975	319.336	79.9646	319.336	80.1706	319.336	79.788	319.336	80.1721	319.336	79.8272	319.336	80.3077	319.336	80.0653	319.336	80.5498	319.336	80.4197	319.336	80.8278	319.336	80.7771	319.336	81.0482	319.336	81.0355	319.336	81.1304
329.59	84.6048	329.59	84.4527	329.59	84.5963	329.59	84.1661	329.59	84.4211	329.59	83.7795	329.59	84.0938	329.59	83.3204	329.59	83.6435	329.59	82.8015	329.59	83.1012	329.59	82.2228	329.59	82.491	329.59	81.5847	329.59	81.8256	329.59	80.9056	329.59	81.1081	329.59	80.2411	329.59	80.3465	329.59	79.6903	329.59	79.5832	329.59	79.3718	329.59	78.9345	329.59	79.3598	329.59	78.5904	329.59	79.6298	329.59	78.6976	329.59	80.0707	329.59	79.1989	329.59	80.545	329.59	79.8697	329.59	80.9352	329.59	80.4935	329.59	81.1593	329.59	80.9439	329.59	81.1688
341.309	84.5337	341.309	84.4396	341.309	84.4617	341.309	84.1758	341.309	84.2438	341.309	83.762	341.309	83.9064	341.309	83.2365	341.309	83.4737	341.309	82.6447	341.309	82.9661	341.309	82.0243	341.309	82.4022	341.309	81.3989	341.309	81.7979	341.309	80.7834	341.309	81.1652	341.309	80.1981	341.309	80.5159	341.309	79.6846	341.309	79.8771	341.309	79.3129	341.309	79.315	341.309	79.1658	341.309	78.9469	341.309	79.2868	341.309	78.8917	341.309	79.6257	341.309	79.1642	341.309	80.0522	341.309	79.6363	341.309	80.4272	341.309	80.127	341.309	80.6536	341.309	80.4991	341.309	80.6819
353.027	84.5476	353.027	84.4861	353.027	84.4864	353.027	84.3044	353.027	84.2864	353.027	83.9907	353.027	83.9333	353.027	83.5327	353.027	83.429	353.027	82.9354	353.027	82.794	353.027	82.2276	353.027	82.0563	353.027	81.4541	353.027	81.238	353.027	80.6599	353.027	80.3528	353.027	79.8844	353.027	79.4306	353.027	79.1792	353.027	78.5748	353.027	78.6394	353.027	78.0187	353.027	78.4038	353.027	78.0329	353.027	78.5726	353.027	78.6266	353.027	79.095	353.027	79.4892	353.027	79.7826	353.027	80.2927	353.027	80.4339	353.027	80.8642	353.027	80.916	353.027	81.1539	353.027	81.1653
366.211	84.893	366.211	84.7926	366.211	84.8126	366.211	84.5394	366.211	84.5533	366.211	84.1822	366.211	84.1402	366.211	83.7662	366.211	83.6093	366.211	83.3111	366.211	82.9982	366.211	82.8076	366.211	82.3409	366.211	82.2303	366.211	81.6571	366.211	81.5513	366.211	80.9383	366.211	80.7492	366.211	80.1432	366.211	79.8303	366.211	79.2271	366.211	78.8773	366.211	78.2267	366.211	78.1126	366.211	77.4035	366.211	77.8503	366.211	77.2485	366.211	78.2081	366.211	77.9407	366.211	78.9457	366.211	79.0109	366.211	79.7222	366.211	79.9339	366.211	80.3099	366.211	80.4727	366.211	80.5852
379.395	85.2419	379.395	85.1263	379.395	85.1635	379.395	84.8033	379.395	84.9225	379.395	84.3007	379.395	84.5446	379.395	83.6904	379.395	84.0438	379.395	83.0584	379.395	83.4323	379.395	82.4593	379.395	82.7269	379.395	81.8928	379.395	81.9407	379.395	81.3204	379.395	81.0699	379.395	80.6964	379.395	80.0894	379.395	79.984	379.395	78.9781	379.395	79.168	379.395	77.7885	379.395	78.2923	379.395	76.7677	379.395	77.5277	379.395	76.3741	379.395	77.1749	379.395	76.8354	379.395	77.4263	379.395	77.7707	379.395	78.0964	379.395	78.645	379.395	78.788	379.395	79.1526	379.395	79.1912
392.578	84.7537	392.578	84.58	392.578	84.7818	392.578	84.2865	392.578	84.6373	392.578	83.8911	392.578	84.3116	392.578	83.4105	392.578	83.8319	392.578	82.8715	392.578	83.2627	392.578	82.313	392.578	82.6819	392.578	81.7757	392.578	82.1391	392.578	81.2859	392.578	81.6218	392.578	80.843	392.578	81.0581	392.578	80.4185	392.578	80.3578	392.578	79.9737	392.578	79.4841	392.578	79.4974	392.578	78.5664	392.578	79.0536	392.578	77.993	392.578	78.7911	392.578	78.1401	392.578	78.8444	392.578	78.8226	392.578	79.1824	392.578	79.5182	392.578	79.6106	392.578	79.902	392.578	79.9061
405.762	84.8389	405.762	84.6348	405.762	84.8089	405.762	84.2179	405.762	84.5473	405.762	83.636	405.762	84.0791	405.762	82.9587	405.762	83.4504	405.762	82.2629	405.762	82.727	405.762	81.6068	405.762	81.9872	405.762	81.012	405.762	81.3031	405.762	80.4656	405.762	80.7138	405.762	79.9382	405.762	80.2074	405.762	79.404	405.762	79.7332	405.762	78.8652	405.762	79.2498	405.762	78.3805	405.762	78.7931	405.762	78.0766	405.762	78.5189	405.762	78.0903	405.762	78.6093	405.762	78.446	405.762	79.0421	405.762	79.0023	405.762	79.5548	405.762	79.5398	405.762	79.8747	405.762	79.8678
420.41	85.2122	420.41	85.1258	420.41	85.0776	420.41	84.8051	420.41	84.7304	420.41	84.2447	420.41	84.1821	420.41	83.4728	420.41	83.4649	420.41	82.5659	420.41	82.6391	420.41	81.6339	420.41	81.7796	420.41	80.774	420.41	80.9476	420.41	80.0282	420.41	80.1626	420.41	79.3897	420.41	79.402	420.41	78.8464	420.41	78.6521	420.41	78.4145	420.41	78.0029	420.41	78.138	420.41	77.702	420.41	78.0743	420.41	77.9727	420.41	78.2709	420.41	78.6981	420.41	78.7202	420.41	79.5131	420.41	79.3217	420.41	80.1237	420.41	79.9065	420.41	80.395	420.41	80.3045
435.059	85.0601	435.059	84.7715	435.059	85.0719	435.059	84.2643	435.059	84.7863	435.059	83.6117	435.059	84.2307	435.059	82.8845	435.059	83.4779	435.059	82.1513	435.059	82.6323	435.059	81.479	435.059	81.8038	435.059	80.9068	435.059	81.0633	435.059	80.4029	435.059	80.4041	435.059	79.8627	435.059	79.7536	435.059	79.1688	435.059	79.0417	435.059	78.2872	435.059	78.2991	435.059	77.3831	435.059	77.7497	435.059	76.8852	435.059	77.7555	435.059	77.1929	435.059	78.4308	435.059	78.167	435.059	79.4265	435.059	79.3118	435.059	80.2962	435.059	80.2411	435.059	80.7735	435.059	80.7557
451.172	85.8961	451.172	85.7268	451.172	85.8344	451.172	85.3318	451.172	85.5254	451.172	84.7095	451.172	84.9481	451.172	83.8597	451.172	84.0974	451.172	82.7946	451.172	83.0094	451.172	81.5556	451.172	81.7784	451.172	80.2313	451.172	80.5494	451.172	78.9614	451.172	79.4659	451.172	77.8953	451.172	78.5844	451.172	77.1018	451.172	77.8556	451.172	76.5254	451.172	77.2659	451.172	76.104	451.172	77.0622	451.172	75.9948	451.172	77.6441	451.172	76.5754	451.172	78.8962	451.172	77.8866	451.172	80.209	451.172	79.4096	451.172	81.143	451.172	80.6461	451.172	81.5428	451.172	81.3761
465.82	86.1222	465.82	85.7806	465.82	86.1723	465.82	85.1883	465.82	85.9135	465.82	84.407	465.82	85.3582	465.82	83.517	465.82	84.5529	465.82	82.608	465.82	83.578	465.82	81.7551	465.82	82.537	465.82	80.9878	465.82	81.5245	465.82	80.2728	465.82	80.5725	465.82	79.5237	465.82	79.6195	465.82	78.6326	465.82	78.5543	465.82	77.5125	465.82	77.3542	465.82	76.1604	465.82	76.332	465.82	74.8091	465.82	76.2094	465.82	74.1543	465.82	77.1719	465.82	74.8658	465.82	78.4191	465.82	76.4508	465.82	79.2746	465.82	77.9996	465.82	79.5016	465.82	79.0639
483.398	85.8741	483.398	85.5637	483.398	85.946	483.398	85.0564	483.398	85.7436	483.398	84.3864	483.398	85.2581	483.398	83.5857	483.398	84.5229	483.398	82.6995	483.398	83.6143	483.398	81.7916	483.398	82.6312	483.398	80.9288	483.398	81.6583	483.398	80.1537	483.398	80.7273	483.398	79.468	483.398	79.7995	483.398	78.8332	483.398	78.7905	483.398	78.1722	483.398	77.6626	483.398	77.3832	483.398	76.6431	483.398	76.4317	483.398	76.386	483.398	75.5963	483.398	77.1964	483.398	75.5555	483.398	78.3495	483.398	76.5109	483.398	79.1208	483.398	77.7817	483.398	79.2625	483.398	78.7805
499.512	85.8315	499.512	85.3926	499.512	85.933	499.512	84.6643	499.512	85.694	499.512	83.7274	499.512	85.156	499.512	82.6786	499.512	84.3955	499.512	81.6247	499.512	83.5165	499.512	80.6884	499.512	82.6443	499.512	79.9866	499.512	81.8931	499.512	79.5563	499.512	81.3006	499.512	79.3053	499.512	80.791	499.512	79.0544	499.512	80.2109	499.512	78.6195	499.512	79.4112	499.512	77.8874	499.512	78.3851	499.512	76.9065	499.512	77.5257	499.512	76.0172	499.512	77.5782	499.512	75.854	499.512	78.5081	499.512	76.7282	499.512	79.4147	499.512	78.0949	499.512	79.7014	499.512	79.2214
517.09	86.4241	517.09	86.0201	517.09	86.4864	517.09	85.3108	517.09	86.1754	517.09	84.3252	517.09	85.4833	517.09	83.0838	517.09	84.4521	517.09	81.615	517.09	83.2009	517.09	80	517.09	81.9429	517.09	78.446	517.09	80.938	517.09	77.304	517.09	80.3245	517.09	76.8299	517.09	79.9838	517.09	76.8464	517.09	79.676	517.09	76.9198	517.09	79.2861	517.09	76.7649	517.09	78.9409	517.09	76.3757	517.09	78.9255	517.09	76.0422	517.09	79.3711	517.09	76.3007	517.09	80.0418	517.09	77.4038	517.09	80.5451	517.09	78.8532	517.09	80.5836	517.09	80.0118
536.133	86.4661	536.133	86.0799	536.133	86.5765	536.133	85.4526	536.133	86.3586	536.133	84.6175	536.133	85.7627	536.133	83.6277	536.133	84.7755	536.133	82.5349	536.133	83.4403	536.133	81.3309	536.133	81.8753	536.133	79.9154	536.133	80.3069	536.133	78.1499	536.133	79.0485	536.133	76.0444	536.133	78.2982	536.133	74.1243	536.133	77.9866	536.133	73.3734	536.133	77.9947	536.133	73.8279	536.133	78.3518	536.133	74.6126	536.133	79.0539	536.133	75.2674	536.133	79.8632	536.133	75.9255	536.133	80.4615	536.133	76.9326	536.133	80.6408	536.133	78.2495	536.133	80.3134	536.133	79.4783
555.176	87.2553	555.176	86.745	555.176	87.4367	555.176	86.0068	555.176	87.26	555.176	85.1588	555.176	86.7608	555.176	84.2829	555.176	85.9908	555.176	83.4329	555.176	84.9877	555.176	82.6556	555.176	83.7948	555.176	81.943	555.176	82.4797	555.176	81.1846	555.176	81.0958	555.176	80.2208	555.176	79.6123	555.176	78.9258	555.176	77.9144	555.176	77.202	555.176	76.1042	555.176	74.9505	555.176	75.4803	555.176	72.3783	555.176	77.3133	555.176	71.5137	555.176	79.7716	555.176	74.1273	555.176	81.5301	555.176	77.4515	555.176	82.4176	555.176	80.045	555.176	82.4804	555.176	81.7104
574.219	87.0454	574.219	86.5507	574.219	87.202	574.219	85.7245	574.219	87.0913	574.219	84.6926	574.219	86.7457	574.219	83.611	574.219	86.1247	574.219	82.5454	574.219	85.2002	574.219	81.4879	574.219	84.0424	574.219	80.4841	574.219	82.8276	574.219	79.659	574.219	81.7557	574.219	79.0544	574.219	80.8814	574.219	78.5384	574.219	79.9929	574.219	77.9793	574.219	78.7684	574.219	77.3565	574.219	77.2984	574.219	76.5646	574.219	76.9755	574.219	75.2777	574.219	78.6316	574.219	73.8023	574.219	80.3798	574.219	74.6169	574.219	81.1143	574.219	77.3068	574.219	80.7595	574.219	79.4749
594.727	86.5641	594.727	85.9391	594.727	87.0029	594.727	85.1494	594.727	87.1217	594.727	84.1486	594.727	86.7824	594.727	82.967	594.727	85.9416	594.727	81.7371	594.727	84.6695	594.727	80.5508	594.727	83.1676	594.727	79.4106	594.727	81.7969	594.727	78.3738	594.727	80.9023	594.727	77.5858	594.727	80.4397	594.727	77.118	594.727	80.0462	594.727	76.9004	594.727	79.4735	594.727	76.7293	594.727	78.8588	594.727	76.2291	594.727	78.8195	594.727	75.1226	594.727	79.74	594.727	73.9829	594.727	80.9436	594.727	74.7246	594.727	81.5966	594.727	77.3778	594.727	81.2872	594.727	79.8546
615.234	86.9727	615.234	86.5204	615.234	87.2452	615.234	85.8619	615.234	87.3188	615.234	85.0117	615.234	87.1172	615.234	84.0608	615.234	86.5747	615.234	83.0964	615.234	85.6869	615.234	82.106	615.234	84.5146	615.234	81	615.234	83.1605	615.234	79.7593	615.234	81.7359	615.234	78.5647	615.234	80.2965	615.234	77.6207	615.234	78.799	615.234	76.7542	615.234	77.3049	615.234	75.6468	615.234	76.4574	615.234	74.3967	615.234	77.1722	615.234	73.2219	615.234	78.9105	615.234	72.3211	615.234	80.4487	615.234	73.5215	615.234	81.1775	615.234	76.6907	615.234	80.8551	615.234	79.3589
637.207	86.6363	637.207	86.0689	637.207	87.0202	637.207	85.3488	637.207	87.1359	637.207	84.4329	637.207	86.9129	637.207	83.3009	637.207	86.3348	637.207	82.098	637.207	85.4416	637.207	81.1092	637.207	84.334	637.207	80.4479	637.207	83.2037	637.207	79.918	637.207	82.2704	637.207	79.3093	637.207	81.4918	637.207	78.5641	637.207	80.4812	637.207	77.6581	637.207	78.8758	637.207	76.5547	637.207	76.9365	637.207	75.3912	637.207	76.5215	637.207	74.424	637.207	78.3707	637.207	73.7785	637.207	80.1621	637.207	74.1235	637.207	80.8718	637.207	76.2597	637.207	80.427	637.207	78.814
659.18	86.0387	659.18	85.3632	659.18	86.4344	659.18	84.4384	659.18	86.5207	659.18	83.3579	659.18	86.2934	659.18	82.2534	659.18	85.7982	659.18	81.1488	659.18	85.0548	659.18	79.9873	659.18	84.0722	659.18	78.8663	659.18	83.0512	659.18	77.9942	659.18	82.3279	659.18	77.3682	659.18	81.861	659.18	76.8915	659.18	81.2158	659.18	76.5371	659.18	80.0098	659.18	76.1879	659.18	78.1513	659.18	75.727	659.18	76.5803	659.18	75.0926	659.18	77.2468	659.18	73.7552	659.18	78.9066	659.18	71.688	659.18	79.6523	659.18	73.3298	659.18	79.0433	659.18	76.9316
682.617	85.6781	682.617	85.0462	682.617	86.0686	682.617	84.2635	682.617	86.1504	682.617	83.3412	682.617	85.9345	682.617	82.2917	682.617	85.4148	682.617	81.2313	682.617	84.5568	682.617	80.2759	682.617	83.4159	682.617	79.3528	682.617	82.1922	682.617	78.3018	682.617	81.1451	682.617	77.024	682.617	80.3913	682.617	75.4498	682.617	79.7546	682.617	73.7751	682.617	78.9414	682.617	72.9994	682.617	78.037	682.617	73.5474	682.617	77.9429	682.617	74.1099	682.617	79.0228	682.617	73.7782	682.617	80.141	682.617	73.1677	682.617	80.4118	682.617	74.3556	682.617	79.4354	682.617	77.1436
707.52	86.4785	707.52	85.8093	707.52	86.904	707.52	84.973	707.52	87.0178	707.52	84.017	707.52	86.8037	707.52	82.9544	707.52	86.2468	707.52	81.8097	707.52	85.3026	707.52	80.7788	707.52	83.983	707.52	80.1125	707.52	82.5421	707.52	79.715	707.52	81.5757	707.52	79.2056	707.52	81.2897	707.52	78.2635	707.52	80.9079	707.52	76.6049	707.52	79.6869	707.52	73.8301	707.52	77.8531	707.52	69.9962	707.52	77.3214	707.52	69.0346	707.52	78.8475	707.52	71.744	707.52	80.4021	707.52	73.8917	707.52	80.9442	707.52	76.1557	707.52	80.319	707.52	78.6159
732.422	85.6139	732.422	84.8153	732.422	86.008	732.422	83.9281	732.422	85.9689	732.422	83.0697	732.422	85.6858	732.422	82.0643	732.422	85.223	732.422	80.9121	732.422	84.4831	732.422	79.8845	732.422	83.3809	732.422	79.1901	732.422	82.0211	732.422	78.6956	732.422	80.8203	732.422	78.168	732.422	80.26	732.422	77.4908	732.422	80.0979	732.422	76.6602	732.422	79.4321	732.422	75.7385	732.422	77.8279	732.422	74.7486	732.422	76.8414	732.422	73.88	732.422	78.4097	732.422	72.3792	732.422	80.08	732.422	69.6696	732.422	80.288	732.422	70.1194	732.422	78.5767	732.422	74.7873
757.324	85.63	757.324	84.7642	757.324	85.9432	757.324	83.3855	757.324	85.9914	757.324	81.9421	757.324	85.8535	757.324	80.6231	757.324	85.3817	757.324	79.3013	757.324	84.4571	757.324	78.1827	757.324	83.0258	757.324	77.5887	757.324	81.1564	757.324	77.4636	757.324	79.586	757.324	77.6732	757.324	79.3451	757.324	78.0341	757.324	79.4797	757.324	78.0316	757.324	78.8448	757.324	76.9975	757.324	77.5671	757.324	74.685	757.324	76.8216	757.324	71.9265	757.324	78.1258	757.324	69.6145	757.324	80.0358	757.324	69.5172	757.324	80.7448	757.324	73.5686	757.324	79.9392	757.324	77.5635
785.156	85.7428	785.156	85.1433	785.156	86.1406	785.156	84.295	785.156	86.232	785.156	83.0161	785.156	85.9504	785.156	81.293	785.156	85.3403	785.156	79.3172	785.156	84.483	785.156	77.1345	785.156	83.3674	785.156	74.5423	785.156	81.9302	785.156	71.805	785.156	80.3227	785.156	71.5337	785.156	79.0793	785.156	73.65	785.156	78.68	785.156	75.0657	785.156	78.5661	785.156	74.8006	785.156	77.416	785.156	73.2677	785.156	75.5674	785.156	72.2468	785.156	77.289	785.156	72.0738	785.156	80.0024	785.156	72.0689	785.156	81.0503	785.156	75.3209	785.156	80.617	785.156	78.8328
811.523	85.7844	811.523	85.0311	811.523	86.1659	811.523	83.8191	811.523	86.2444	811.523	82.6123	811.523	85.8264	811.523	81.7289	811.523	85.0269	811.523	80.9861	811.523	84.1192	811.523	80.1534	811.523	83.0574	811.523	78.7689	811.523	81.6508	811.523	76.3164	811.523	80.1226	811.523	72.7907	811.523	79.0272	811.523	68.5052	811.523	78.5938	811.523	65.3747	811.523	78.7628	811.523	65.5095	811.523	79.0231	811.523	64.1595	811.523	78.5045	811.523	64.6087	811.523	77.4066	811.523	68.3812	811.523	77.4627	811.523	69.2614	811.523	78.2368	811.523	70.1456	811.523	77.2282	811.523	73.849
840.82	85.2629	840.82	84.04	840.82	86.0317	840.82	82.6511	840.82	86.2126	840.82	81.3799	840.82	85.9244	840.82	80.3885	840.82	85.3842	840.82	79.8293	840.82	84.6783	840.82	79.7658	840.82	83.6874	840.82	79.8615	840.82	82.3037	840.82	79.7903	840.82	80.7498	840.82	79.81	840.82	79.6312	840.82	80.0021	840.82	79.4454	840.82	79.491	840.82	79.3632	840.82	77.7437	840.82	78.5359	840.82	75.3382	840.82	78.0245	840.82	72.6556	840.82	78.7811	840.82	69.2136	840.82	78.9168	840.82	66.1683	840.82	77.9123	840.82	68.6858	840.82	76.7258	840.82	73.9941
870.117	85.2989	870.117	84.0563	870.117	86.4859	870.117	82.935	870.117	87.0937	870.117	81.8049	870.117	87.0413	870.117	81.0122	870.117	86.4408	870.117	80.7096	870.117	85.3459	870.117	80.6162	870.117	84.1443	870.117	80.6529	870.117	83.149	870.117	80.7728	870.117	82.0566	870.117	80.905	870.117	81.0747	870.117	80.9455	870.117	80.6636	870.117	80.3837	870.117	79.8529	870.117	78.9712	870.117	77.9402	870.117	76.9111	870.117	76.6732	870.117	74.8561	870.117	77.0023	870.117	74.4687	870.117	77.2129	870.117	74.0133	870.117	75.6442	870.117	70.5831	870.117	70.2363	870.117	58.0057
900.879	86.3668	900.879	84.6495	900.879	87.5567	900.879	82.7881	900.879	88.185	900.879	81.3306	900.879	88.2693	900.879	80.5592	900.879	87.7897	900.879	80.4187	900.879	86.8063	900.879	80.4454	900.879	85.3779	900.879	80.2633	900.879	83.7661	900.879	79.8438	900.879	82.3988	900.879	79.4643	900.879	81.2889	900.879	79.5617	900.879	80.551	900.879	79.7288	900.879	79.6365	900.879	79.0668	900.879	77.6201	900.879	76.9576	900.879	77.0318	900.879	73.8267	900.879	79.2604	900.879	72.3148	900.879	80.2193	900.879	71.6634	900.879	79.2861	900.879	69.9014	900.879	76.49	900.879	71.5752
933.105	85.3488	933.105	83.1641	933.105	86.9883	933.105	81.2895	933.105	87.8251	933.105	80.3721	933.105	87.8091	933.105	80.1093	933.105	87.0713	933.105	80.0933	933.105	86.0725	933.105	80.3788	933.105	85.0239	933.105	80.9789	933.105	83.7074	933.105	81.2444	933.105	82.0836	933.105	80.7252	933.105	80.8464	933.105	80.5035	933.105	80.5482	933.105	80.5869	933.105	80.3597	933.105	79.7293	933.105	79.0869	933.105	77.3561	933.105	77.575	933.105	73.4798	933.105	79.0821	933.105	72.5652	933.105	80.3548	933.105	74.6502	933.105	79.0714	933.105	73.1932	933.105	74.863	933.105	67.9491
965.332	85.7205	965.332	84.4205	965.332	87.1723	965.332	83.4128	965.332	88.1362	965.332	82.4587	965.332	88.1141	965.332	81.5598	965.332	87.2254	965.332	80.8547	965.332	86.1199	965.332	80.1014	965.332	85.2569	965.332	79.1703	965.332	84.4996	965.332	78.9887	965.332	83.654	965.332	78.852	965.332	82.6757	965.332	78.5999	965.332	82.288	965.332	79.4422	965.332	81.7905	965.332	79.7211	965.332	79.7846	965.332	78.3716	965.332	77.4147	965.332	74.5782	965.332	78.2605	965.332	70.4408	965.332	80.4987	965.332	74.1591	965.332	80.0115	965.332	74.1553	965.332	76.2906	965.332	71.7591
1,000.49	85.6945	1,000.49	83.6385	1,000.49	87.2407	1,000.49	82.1148	1,000.49	88.036	1,000.49	81.7471	1,000.49	88.1042	1,000.49	81.842	1,000.49	87.3712	1,000.49	81.6566	1,000.49	86.0698	1,000.49	81.3707	1,000.49	84.9434	1,000.49	81.3807	1,000.49	84.0554	1,000.49	80.8459	1,000.49	82.5661	1,000.49	79.5413	1,000.49	80.9426	1,000.49	78.2961	1,000.49	81.275	1,000.49	78.7744	1,000.49	82.5588	1,000.49	79.6536	1,000.49	82.085	1,000.49	79.125	1,000.49	79.8394	1,000.49	76.8454	1,000.49	79.8538	1,000.49	72.0526	1,000.49	80.9092	1,000.49	72.4916	1,000.49	80.0333	1,000.49	72.2584	1,000.49	75.7525	1,000.49	68.9101
1,035.64	84.2622	1,035.64	83.5657	1,035.64	85.7506	1,035.64	82.771	1,035.64	87.3328	1,035.64	81.8317	1,035.64	87.9889	1,035.64	81.6905	1,035.64	87.4936	1,035.64	81.7097	1,035.64	86.0842	1,035.64	80.7488	1,035.64	84.3697	1,035.64	79.7437	1,035.64	83.003	1,035.64	79.239	1,035.64	82.0764	1,035.64	77.9788	1,035.64	81.2005	1,035.64	77.4239	1,035.64	81.3402	1,035.64	78.7157	1,035.64	82.0524	1,035.64	80.2004	1,035.64	81.0013	1,035.64	80.6879	1,035.64	78.8601	1,035.64	78.7436	1,035.64	79.1383	1,035.64	72.3397	1,035.64	80.5383	1,035.64	71.4354	1,035.64	79.5907	1,035.64	74.6285	1,035.64	75.4674	1,035.64	72.4681
1,072.27	83.4425	1,072.27	82.4585	1,072.27	85.0985	1,072.27	82.317	1,072.27	86.6448	1,072.27	82.0396	1,072.27	87.5051	1,072.27	81.5901	1,072.27	87.3069	1,072.27	81.7595	1,072.27	86.1087	1,072.27	81.8748	1,072.27	84.3172	1,072.27	81.5921	1,072.27	82.9915	1,072.27	81.1756	1,072.27	82.5834	1,072.27	80.8159	1,072.27	80.5863	1,072.27	79.7277	1,072.27	78.8587	1,072.27	78.2239	1,072.27	80.2489	1,072.27	78.6073	1,072.27	79.893	1,072.27	78.8532	1,072.27	77.5267	1,072.27	78.4833	1,072.27	77.9708	1,072.27	76.59	1,072.27	79.0902	1,072.27	74.0438	1,072.27	76.3361	1,072.27	73.3646	1,072.27	69.5108	1,072.27	69.8085
1,108.89	83.2133	1,108.89	82.6187	1,108.89	83.932	1,108.89	82.1388	1,108.89	85.4938	1,108.89	82.0347	1,108.89	86.5825	1,108.89	81.5293	1,108.89	86.5056	1,108.89	81.1059	1,108.89	85.3984	1,108.89	80.275	1,108.89	83.2616	1,108.89	79.9543	1,108.89	80.8759	1,108.89	81.0613	1,108.89	79.8014	1,108.89	80.0461	1,108.89	79.9874	1,108.89	77.7658	1,108.89	80.0096	1,108.89	77.5894	1,108.89	79.1361	1,108.89	78.9212	1,108.89	77.7685	1,108.89	79.3783	1,108.89	76.6513	1,108.89	78.0542	1,108.89	76.4788	1,108.89	75.8232	1,108.89	79.6566	1,108.89	74.5283	1,108.89	77.9893	1,108.89	75.0167	1,108.89	73.8328	1,108.89	73.6166
1,148.44	83.1244	1,148.44	81.9005	1,148.44	84.3689	1,148.44	81.9124	1,148.44	85.1097	1,148.44	82.3491	1,148.44	85.9958	1,148.44	82.8456	1,148.44	86.2821	1,148.44	82.3944	1,148.44	85.3249	1,148.44	80.6	1,148.44	83.5711	1,148.44	78.6168	1,148.44	81.6008	1,148.44	79.1721	1,148.44	81.0518	1,148.44	79.8397	1,148.44	80.8878	1,148.44	78.9254	1,148.44	79.1922	1,148.44	77.535	1,148.44	79.4596	1,148.44	76.4429	1,148.44	79.605	1,148.44	76.2654	1,148.44	77.6512	1,148.44	76.0506	1,148.44	75.667	1,148.44	74.4615	1,148.44	77.8317	1,148.44	74.064	1,148.44	74.6199	1,148.44	77.6891	1,148.44	67.3397	1,148.44	74.5642
1,189.45	82.3267	1,189.45	81.6238	1,189.45	84.1309	1,189.45	82.8734	1,189.45	85.1055	1,189.45	83.8736	1,189.45	85.9239	1,189.45	84.1168	1,189.45	86.3307	1,189.45	83.4232	1,189.45	85.4893	1,189.45	81.5474	1,189.45	83.5449	1,189.45	80.0429	1,189.45	81.0626	1,189.45	79.7191	1,189.45	79.1779	1,189.45	79.6855	1,189.45	78.2059	1,189.45	78.6307	1,189.45	77.1278	1,189.45	77.5871	1,189.45	78.0302	1,189.45	76.5907	1,189.45	79.053	1,189.45	74.7443	1,189.45	78.7024	1,189.45	74.3092	1,189.45	78.1857	1,189.45	73.9703	1,189.45	79.6883	1,189.45	73.6029	1,189.45	78.2971	1,189.45	75.4894	1,189.45	73.3712	1,189.45	74.166
1,230.47	82.8118	1,230.47	83.5166	1,230.47	83.5764	1,230.47	84.3652	1,230.47	84.9985	1,230.47	84.6318	1,230.47	86.5247	1,230.47	84.0803	1,230.47	87.1336	1,230.47	83.1479	1,230.47	86.2196	1,230.47	82.2787	1,230.47	84.542	1,230.47	80.0231	1,230.47	81.7414	1,230.47	78.4212	1,230.47	79.1774	1,230.47	77.4466	1,230.47	77.461	1,230.47	75.3397	1,230.47	76.2201	1,230.47	75.983	1,230.47	77.364	1,230.47	76.2243	1,230.47	78.4355	1,230.47	74.9143	1,230.47	77.5237	1,230.47	74.7211	1,230.47	75.5764	1,230.47	73.7313	1,230.47	78.0403	1,230.47	70.9442	1,230.47	77.1594	1,230.47	75.5416	1,230.47	72.7204	1,230.47	76.0784
1,274.41	83.2505	1,274.41	84.3884	1,274.41	84.0153	1,274.41	85.1733	1,274.41	86.1849	1,274.41	85.4611	1,274.41	87.5291	1,274.41	85.3527	1,274.41	87.7278	1,274.41	84.6631	1,274.41	86.9346	1,274.41	83.453	1,274.41	85.3951	1,274.41	81.4061	1,274.41	83.019	1,274.41	79.6342	1,274.41	80.5357	1,274.41	78.5335	1,274.41	79.0901	1,274.41	77.6483	1,274.41	76.868	1,274.41	77.649	1,274.41	74.8523	1,274.41	77.9368	1,274.41	75.7772	1,274.41	75.4177	1,274.41	77.3146	1,274.41	70.6001	1,274.41	77.4203	1,274.41	70.3193	1,274.41	79.9504	1,274.41	66.5399	1,274.41	78.7677	1,274.41	72.9835	1,274.41	74.1919	1,274.41	74.4549
1,319.82	84.1981	1,319.82	85.3175	1,319.82	84.4714	1,319.82	85.7372	1,319.82	86.2873	1,319.82	85.4746	1,319.82	87.7486	1,319.82	85.0308	1,319.82	88.2446	1,319.82	84.2054	1,319.82	87.8545	1,319.82	83.4538	1,319.82	86.5098	1,319.82	82.4047	1,319.82	84.4028	1,319.82	80.9039	1,319.82	82.0134	1,319.82	79.774	1,319.82	79.727	1,319.82	78.6733	1,319.82	78.0016	1,319.82	78.1186	1,319.82	77.5846	1,319.82	78.1698	1,319.82	77.6075	1,319.82	77.456	1,319.82	74.2004	1,319.82	75.5278	1,319.82	71.4524	1,319.82	73.8937	1,319.82	76.0977	1,319.82	68.1388	1,319.82	74.758	1,319.82	69.9291	1,319.82	70.405	1,319.82	74.0615
1,366.7	85.2344	1,366.7	86.2175	1,366.7	84.5704	1,366.7	86.4604	1,366.7	85.9715	1,366.7	85.774	1,366.7	87.3336	1,366.7	85.2128	1,366.7	88.2217	1,366.7	84.7658	1,366.7	87.8423	1,366.7	83.9681	1,366.7	86.4334	1,366.7	82.4366	1,366.7	84.1823	1,366.7	80.4008	1,366.7	80.6764	1,366.7	80.5168	1,366.7	79.8402	1,366.7	79.069	1,366.7	79.9522	1,366.7	75.5114	1,366.7	77.925	1,366.7	75.317	1,366.7	78.7932	1,366.7	75.8337	1,366.7	78.0784	1,366.7	72.5518	1,366.7	75.9568	1,366.7	74.3196	1,366.7	75.1964	1,366.7	72.6197	1,366.7	73.2291	1,366.7	70.9807	1,366.7	72.6641	1,366.7	75.1302
1,413.57	84.7072	1,413.57	86.0218	1,413.57	83.9659	1,413.57	86.5447	1,413.57	84.6401	1,413.57	86.0904	1,413.57	86.856	1,413.57	85.6908	1,413.57	88.0934	1,413.57	84.9474	1,413.57	87.2716	1,413.57	83.598	1,413.57	85.3586	1,413.57	82.555	1,413.57	82.8426	1,413.57	80.4129	1,413.57	79.3108	1,413.57	78.6634	1,413.57	76.6813	1,413.57	76.092	1,413.57	75.7933	1,413.57	75.514	1,413.57	75.2111	1,413.57	75.1515	1,413.57	77.9138	1,413.57	74.5401	1,413.57	78.064	1,413.57	71.6964	1,413.57	77.2764	1,413.57	72.8839	1,413.57	77.5958	1,413.57	71.4809	1,413.57	73.6702	1,413.57	74.138	1,413.57	72.6507	1,413.57	76.0716
1,463.38	85.5976	1,463.38	86.031	1,463.38	84.3731	1,463.38	86.3983	1,463.38	84.599	1,463.38	85.6699	1,463.38	86.7181	1,463.38	84.6964	1,463.38	87.0742	1,463.38	82.9668	1,463.38	85.8264	1,463.38	81.7162	1,463.38	83.6105	1,463.38	80.1036	1,463.38	81.8098	1,463.38	77.8751	1,463.38	80.9322	1,463.38	77.0091	1,463.38	79.0372	1,463.38	75.8009	1,463.38	78.547	1,463.38	76.2824	1,463.38	74.6047	1,463.38	77.5343	1,463.38	73.3094	1,463.38	78.8355	1,463.38	75.113	1,463.38	76.1054	1,463.38	75.9847	1,463.38	70.1777	1,463.38	76.6262	1,463.38	64.2742	1,463.38	74.1579	1,463.38	72.2456	1,463.38	75.5563	1,463.38	76.5736
1,516.11	85.5727	1,516.11	86.2164	1,516.11	84.2263	1,516.11	85.8216	1,516.11	83.6336	1,516.11	85.1891	1,516.11	85.485	1,516.11	83.78	1,516.11	85.7181	1,516.11	82.3215	1,516.11	85.0986	1,516.11	79.7969	1,516.11	84.3674	1,516.11	77.9304	1,516.11	82.2231	1,516.11	74.653	1,516.11	79.4832	1,516.11	75.4783	1,516.11	78.7691	1,516.11	77.1212	1,516.11	78.3541	1,516.11	78.3135	1,516.11	75.1717	1,516.11	78.0381	1,516.11	68.2274	1,516.11	77.9584	1,516.11	70.7489	1,516.11	75.0686	1,516.11	72.132	1,516.11	69.208	1,516.11	74.4318	1,516.11	58.4946	1,516.11	73.6494	1,516.11	66.0789	1,516.11	72.4603	1,516.11	73.3913
1,568.85	84.6768	1,568.85	85.3856	1,568.85	84.017	1,568.85	85.0403	1,568.85	82.6126	1,568.85	83.5122	1,568.85	84.0293	1,568.85	82.9642	1,568.85	85.1751	1,568.85	81.6486	1,568.85	85.0749	1,568.85	79.9103	1,568.85	84.5812	1,568.85	78.1068	1,568.85	82.2423	1,568.85	77.1204	1,568.85	78.6843	1,568.85	74.9083	1,568.85	77.9378	1,568.85	74.0169	1,568.85	78.1729	1,568.85	76.4677	1,568.85	75.1521	1,568.85	74.9258	1,568.85	73.1082	1,568.85	74.7855	1,568.85	69.0827	1,568.85	73.7689	1,568.85	68.3442	1,568.85	65.5443	1,568.85	72.0643	1,568.85	64.081	1,568.85	70.8026	1,568.85	57.7054	1,568.85	71.9772	1,568.85	71.7595
1,624.51	85.5111	1,624.51	85.5211	1,624.51	84.0837	1,624.51	84.7065	1,624.51	82.589	1,624.51	83.6445	1,624.51	83.194	1,624.51	82.8108	1,624.51	84.6162	1,624.51	81.6711	1,624.51	84.9594	1,624.51	79.5767	1,624.51	84.1126	1,624.51	77.6551	1,624.51	80.838	1,624.51	75.6072	1,624.51	78.686	1,624.51	75.7554	1,624.51	76.6225	1,624.51	76.2025	1,624.51	76.6296	1,624.51	75.9722	1,624.51	76.9853	1,624.51	71.6179	1,624.51	71.262	1,624.51	69.8004	1,624.51	72.0808	1,624.51	67.0549	1,624.51	69.4689	1,624.51	49.8085	1,624.51	71.5522	1,624.51	64.4833	1,624.51	68.6406	1,624.51	68.1874	1,624.51	70.3823	1,624.51	71.7183
1,681.64	86.3155	1,681.64	86.5424	1,681.64	85.3203	1,681.64	84.8393	1,681.64	83.2333	1,681.64	83.4946	1,681.64	83.3875	1,681.64	82.2313	1,681.64	85.4441	1,681.64	80.9365	1,681.64	85.455	1,681.64	81.2937	1,681.64	84.1939	1,681.64	79.2859	1,681.64	82.0933	1,681.64	79.0291	1,681.64	79.6149	1,681.64	78.6811	1,681.64	76.2425	1,681.64	77.7472	1,681.64	77.2828	1,681.64	75.3068	1,681.64	76.9821	1,681.64	76.7643	1,681.64	77.2915	1,681.64	74.8054	1,681.64	76.0087	1,681.64	74.5268	1,681.64	71.1145	1,681.64	70.6777	1,681.64	72.7399	1,681.64	53.124	1,681.64	70.7306	1,681.64	58.1201	1,681.64	70.3741	1,681.64	71.4037
1,741.7	87.0125	1,741.7	86.9276	1,741.7	86.1512	1,741.7	85.9214	1,741.7	84.3289	1,741.7	83.9729	1,741.7	84.2412	1,741.7	82.6209	1,741.7	85.6139	1,741.7	80.5426	1,741.7	85.8759	1,741.7	80.2636	1,741.7	84.1341	1,741.7	79.9332	1,741.7	81.9817	1,741.7	79.2032	1,741.7	78.6301	1,741.7	77.724	1,741.7	77.6388	1,741.7	77.985	1,741.7	73.6233	1,741.7	74.8077	1,741.7	78.4315	1,741.7	74.4747	1,741.7	77.4652	1,741.7	75.5383	1,741.7	77.4679	1,741.7	75.6034	1,741.7	69.1842	1,741.7	73.7036	1,741.7	70.282	1,741.7	68.4889	1,741.7	66.8095	1,741.7	67.0987	1,741.7	70.6066	1,741.7	68.5236
1,803.22	86.3507	1,803.22	86.3885	1,803.22	85.4998	1,803.22	85.7021	1,803.22	83.6042	1,803.22	84.311	1,803.22	83.2812	1,803.22	83.0642	1,803.22	84.721	1,803.22	80.8543	1,803.22	85.4737	1,803.22	80.3728	1,803.22	84.3577	1,803.22	79.9713	1,803.22	82.7376	1,803.22	78.3662	1,803.22	79.7066	1,803.22	76.0948	1,803.22	76.8008	1,803.22	75.6252	1,803.22	73.9734	1,803.22	75.2969	1,803.22	75.2905	1,803.22	73.4443	1,803.22	73.2317	1,803.22	73.4111	1,803.22	73.8587	1,803.22	75.4079	1,803.22	70.5896	1,803.22	73.8179	1,803.22	74.3894	1,803.22	65.4366	1,803.22	70.1114	1,803.22	60.1639	1,803.22	73.3806	1,803.22	65.0558
1,866.21	85.7119	1,866.21	85.1618	1,866.21	84.4635	1,866.21	84.4489	1,866.21	82.8299	1,866.21	83.3189	1,866.21	82.2657	1,866.21	82.0495	1,866.21	83.6871	1,866.21	81.485	1,866.21	84.1691	1,866.21	79.8237	1,866.21	83.7835	1,866.21	79.7829	1,866.21	81.7297	1,866.21	78.8777	1,866.21	78.9699	1,866.21	76.3342	1,866.21	76.0236	1,866.21	74.6226	1,866.21	69.9711	1,866.21	74.5896	1,866.21	74.1822	1,866.21	74.2112	1,866.21	72.1108	1,866.21	75.3058	1,866.21	71.9163	1,866.21	75.6865	1,866.21	67.4293	1,866.21	75.6608	1,866.21	73.3449	1,866.21	67.7486	1,866.21	68.6659	1,866.21	64.348	1,866.21	72.8652	1,866.21	62.3665
1,932.13	84.1245	1,932.13	83.3088	1,932.13	83.569	1,932.13	81.3978	1,932.13	81.3784	1,932.13	79.8664	1,932.13	79.8763	1,932.13	79.1497	1,932.13	80.8405	1,932.13	79.0253	1,932.13	82.0311	1,932.13	78.572	1,932.13	81.6248	1,932.13	77.9954	1,932.13	80.2265	1,932.13	77.9524	1,932.13	77.9078	1,932.13	75.9247	1,932.13	75.3758	1,932.13	72.8071	1,932.13	69.1338	1,932.13	73.1672	1,932.13	70.6702	1,932.13	71.482	1,932.13	71.1022	1,932.13	71.4826	1,932.13	71.9596	1,932.13	73.4439	1,932.13	60.7131	1,932.13	74.6972	1,932.13	69.8448	1,932.13	69.3452	1,932.13	63.461	1,932.13	64.0145	1,932.13	69.2867	1,932.13	64.0121
1,999.51	83.1412	1,999.51	81.5941	1,999.51	82.7634	1,999.51	78.9229	1,999.51	80.084	1,999.51	78.1572	1,999.51	78.8921	1,999.51	77.6952	1,999.51	79.0403	1,999.51	77.8257	1,999.51	80.4694	1,999.51	76.3765	1,999.51	80.6163	1,999.51	75.6127	1,999.51	79.4658	1,999.51	77.3482	1,999.51	76.4515	1,999.51	77.2627	1,999.51	73.6716	1,999.51	72.7671	1,999.51	71.461	1,999.51	72.1508	1,999.51	70.3961	1,999.51	69.9769	1,999.51	71.5956	1,999.51	71.3078	1,999.51	71.2332	1,999.51	71.4594	1,999.51	66.6147	1,999.51	73.1061	1,999.51	67.9649	1,999.51	62.7872	1,999.51	66.4776	1,999.51	64.0326	1,999.51	70.722	1,999.51	56.9713
2,069.82	83.3458	2,069.82	82.0778	2,069.82	83.9647	2,069.82	80.7482	2,069.82	81.9117	2,069.82	80.1987	2,069.82	78.7346	2,069.82	78.6183	2,069.82	80.1489	2,069.82	77.4624	2,069.82	80.7182	2,069.82	77.7961	2,069.82	80.6137	2,069.82	76.956	2,069.82	78.9392	2,069.82	77.1169	2,069.82	77.4468	2,069.82	77.5878	2,069.82	75.1345	2,069.82	73.8916	2,069.82	72.586	2,069.82	71.7906	2,069.82	69.9911	2,069.82	72.4921	2,069.82	71.34	2,069.82	70.8354	2,069.82	70.9986	2,069.82	72.1884	2,069.82	66.6592	2,069.82	73.1701	2,069.82	69.3123	2,069.82	69.0191	2,069.82	64.5986	2,069.82	60.6871	2,069.82	71.0697	2,069.82	60.835
2,143.07	84.1735	2,143.07	82.9555	2,143.07	84.7421	2,143.07	82.6706	2,143.07	83.1334	2,143.07	82.2779	2,143.07	80.1788	2,143.07	81.1715	2,143.07	80.7179	2,143.07	80.5844	2,143.07	82.2473	2,143.07	80.4629	2,143.07	81.6404	2,143.07	79.2005	2,143.07	79.8536	2,143.07	78.0175	2,143.07	77.6513	2,143.07	77.9434	2,143.07	73.7723	2,143.07	77.3297	2,143.07	72.0961	2,143.07	75.0947	2,143.07	68.7111	2,143.07	73.2503	2,143.07	70.6838	2,143.07	70.1009	2,143.07	70.2305	2,143.07	73.2325	2,143.07	60.9133	2,143.07	74.6099	2,143.07	67.6973	2,143.07	71.7659	2,143.07	64.6159	2,143.07	64.5999	2,143.07	71.4535	2,143.07	62.5557
2,219.24	85.0353	2,219.24	84.2193	2,219.24	85.1413	2,219.24	83.5158	2,219.24	83.9981	2,219.24	83.599	2,219.24	80.0587	2,219.24	83.2546	2,219.24	81.4182	2,219.24	82.7094	2,219.24	82.6249	2,219.24	82.148	2,219.24	82.9556	2,219.24	81.1589	2,219.24	79.7841	2,219.24	77.8669	2,219.24	77.3407	2,219.24	79.3702	2,219.24	75.2112	2,219.24	77.5347	2,219.24	73.304	2,219.24	74.8131	2,219.24	69.3637	2,219.24	75.0955	2,219.24	71.2861	2,219.24	73.5279	2,219.24	70.4229	2,219.24	74.0415	2,219.24	62.6587	2,219.24	75.7417	2,219.24	67.1448	2,219.24	73.5229	2,219.24	69.5661	2,219.24	62.2329	2,219.24	70.1524	2,219.24	66.8053
2,296.88	84.6478	2,296.88	83.4081	2,296.88	85.646	2,296.88	84.0828	2,296.88	84.6082	2,296.88	83.6734	2,296.88	81.5884	2,296.88	84.713	2,296.88	80.0373	2,296.88	84.3835	2,296.88	83.0792	2,296.88	83.5807	2,296.88	83.557	2,296.88	80.977	2,296.88	80.8111	2,296.88	80.3793	2,296.88	76.9157	2,296.88	78.4164	2,296.88	75.1455	2,296.88	77.8161	2,296.88	73.7287	2,296.88	77.63	2,296.88	71.6088	2,296.88	75.526	2,296.88	69.9702	2,296.88	73.1096	2,296.88	70.0737	2,296.88	75.0183	2,296.88	67.6219	2,296.88	72.9943	2,296.88	68.4882	2,296.88	73.0533	2,296.88	70.0505	2,296.88	61.4525	2,296.88	72.7665	2,296.88	61.494
2,378.91	83.7768	2,378.91	84.5923	2,378.91	85.1305	2,378.91	83.6114	2,378.91	85.6619	2,378.91	83.7058	2,378.91	82.7298	2,378.91	84.1507	2,378.91	81.6989	2,378.91	84.1606	2,378.91	83.312	2,378.91	83.0822	2,378.91	83.7105	2,378.91	81.6224	2,378.91	81.7058	2,378.91	79.2665	2,378.91	78.5009	2,378.91	76.9945	2,378.91	77.9085	2,378.91	76.4569	2,378.91	75.2444	2,378.91	76.8007	2,378.91	72.7571	2,378.91	75.4282	2,378.91	70.4781	2,378.91	68.4795	2,378.91	70.8513	2,378.91	73.623	2,378.91	68.8982	2,378.91	74.325	2,378.91	67.6472	2,378.91	72.2613	2,378.91	67.6636	2,378.91	63.1549	2,378.91	71.3198	2,378.91	64.7179
2,462.4	85.4736	2,462.4	85.5589	2,462.4	86.2452	2,462.4	85.2019	2,462.4	86.8979	2,462.4	84.8306	2,462.4	84.929	2,462.4	84.9261	2,462.4	82.6968	2,462.4	84.3587	2,462.4	85.1662	2,462.4	82.7398	2,462.4	85.7432	2,462.4	79.9702	2,462.4	84.3537	2,462.4	79.8999	2,462.4	81.4947	2,462.4	76.8975	2,462.4	77.3286	2,462.4	77.2844	2,462.4	75.4613	2,462.4	75.2876	2,462.4	74.8491	2,462.4	75.3591	2,462.4	74.8717	2,462.4	71.2692	2,462.4	68.9481	2,462.4	72.4986	2,462.4	67.8393	2,462.4	73.5908	2,462.4	69.0619	2,462.4	72.4834	2,462.4	59.8383	2,462.4	57.3575	2,462.4	66.0807	2,462.4	64.7859
2,548.83	86.6171	2,548.83	86.8648	2,548.83	87.014	2,548.83	87.2248	2,548.83	87.7402	2,548.83	86.9286	2,548.83	85.7421	2,548.83	86.3148	2,548.83	83.3329	2,548.83	85.0768	2,548.83	85.6748	2,548.83	83.8879	2,548.83	86.4303	2,548.83	81.8767	2,548.83	85.4368	2,548.83	82.3852	2,548.83	82.1107	2,548.83	78.3181	2,548.83	78.9004	2,548.83	77.0408	2,548.83	73.6094	2,548.83	76.1884	2,548.83	74.3894	2,548.83	76.7469	2,548.83	75.91	2,548.83	72.0175	2,548.83	69.3484	2,548.83	72.8064	2,548.83	69.4093	2,548.83	75.6316	2,548.83	71.0029	2,548.83	72.1819	2,548.83	60.9953	2,548.83	70.316	2,548.83	68.2818	2,548.83	65.6359
2,639.65	87.1502	2,639.65	87.3423	2,639.65	86.4526	2,639.65	86.9706	2,639.65	88.1427	2,639.65	87.7642	2,639.65	86.2791	2,639.65	86.1109	2,639.65	82.5301	2,639.65	84.7332	2,639.65	84.0026	2,639.65	83.5351	2,639.65	85.3781	2,639.65	83.9353	2,639.65	84.7609	2,639.65	80.7613	2,639.65	81.5357	2,639.65	79.7841	2,639.65	79.4296	2,639.65	77.9298	2,639.65	75.6375	2,639.65	76.6847	2,639.65	70.373	2,639.65	76.2913	2,639.65	73.2552	2,639.65	71.6174	2,639.65	68.9061	2,639.65	76.0052	2,639.65	66.9025	2,639.65	77.2924	2,639.65	69.7504	2,639.65	73.3612	2,639.65	64.3772	2,639.65	72.4354	2,639.65	73.1689	2,639.65	68.5128
2,731.93	86.3716	2,731.93	85.6708	2,731.93	86.3036	2,731.93	86.4901	2,731.93	86.2393	2,731.93	86.1291	2,731.93	86.0486	2,731.93	84.2432	2,731.93	81.6995	2,731.93	83.3694	2,731.93	82.4118	2,731.93	82.0088	2,731.93	84.7725	2,731.93	82.1788	2,731.93	83.5754	2,731.93	79.7987	2,731.93	80.5962	2,731.93	79.8974	2,731.93	77.1972	2,731.93	78.1919	2,731.93	76.7497	2,731.93	75.4545	2,731.93	71.9402	2,731.93	75.3812	2,731.93	71.0644	2,731.93	71.2281	2,731.93	62.9649	2,731.93	73.7377	2,731.93	68.3671	2,731.93	76.1765	2,731.93	68.4087	2,731.93	74.6158	2,731.93	60.6956	2,731.93	58.1796	2,731.93	67.9913	2,731.93	66.0655
2,828.61	85.5699	2,828.61	85.6706	2,828.61	86.1221	2,828.61	86.8677	2,828.61	86.6946	2,828.61	85.8781	2,828.61	86.5444	2,828.61	84.8055	2,828.61	83.7302	2,828.61	82.6257	2,828.61	83.1474	2,828.61	82.024	2,828.61	85.0578	2,828.61	81.0639	2,828.61	83.6698	2,828.61	78.5316	2,828.61	81.5673	2,828.61	78.0002	2,828.61	77.2057	2,828.61	75.3152	2,828.61	76.9353	2,828.61	75.4294	2,828.61	74.8478	2,828.61	72.5349	2,828.61	68.6054	2,828.61	71	2,828.61	66.3281	2,828.61	71.2058	2,828.61	70.0618	2,828.61	72.0261	2,828.61	69.4333	2,828.61	71.0424	2,828.61	66.338	2,828.61	67.7118	2,828.61	69.224	2,828.61	63.5223
2,928.22	86.3629	2,928.22	87.17	2,928.22	87.4515	2,928.22	87.3326	2,928.22	86.9786	2,928.22	86.2539	2,928.22	87.618	2,928.22	85.1301	2,928.22	85.0516	2,928.22	84.7781	2,928.22	84.3137	2,928.22	84.1473	2,928.22	85.4726	2,928.22	81.9318	2,928.22	84.8328	2,928.22	81.7603	2,928.22	81.734	2,928.22	78.6392	2,928.22	78.9196	2,928.22	76.2569	2,928.22	75.8846	2,928.22	75.4852	2,928.22	74.0972	2,928.22	72.8066	2,928.22	69.7368	2,928.22	70.6129	2,928.22	67.795	2,928.22	68.2951	2,928.22	71.0965	2,928.22	74.1876	2,928.22	69.3743	2,928.22	72.6561	2,928.22	69.3336	2,928.22	62.9231	2,928.22	66.1738	2,928.22	68.6577
3,030.76	86.5101	3,030.76	87.9031	3,030.76	87.1701	3,030.76	87.7777	3,030.76	87.6112	3,030.76	87.4305	3,030.76	87.9915	3,030.76	86.2913	3,030.76	85.8305	3,030.76	86.6008	3,030.76	84.1508	3,030.76	84.9283	3,030.76	85.4792	3,030.76	82.8435	3,030.76	84.9557	3,030.76	81.904	3,030.76	82.1804	3,030.76	78.4627	3,030.76	79.3637	3,030.76	75.9117	3,030.76	74.867	3,030.76	75.1148	3,030.76	71.6169	3,030.76	72.927	3,030.76	69.3934	3,030.76	68.1747	3,030.76	66.6229	3,030.76	69.0303	3,030.76	66.031	3,030.76	72.7257	3,030.76	69.5665	3,030.76	70.1632	3,030.76	66.924	3,030.76	72.1254	3,030.76	65.8127	3,030.76	58.3385
3,137.7	86.2595	3,137.7	87.5984	3,137.7	87.0077	3,137.7	88.0067	3,137.7	87.4724	3,137.7	87.2858	3,137.7	87.7806	3,137.7	87.0561	3,137.7	85.3218	3,137.7	86.507	3,137.7	83.9716	3,137.7	84.5161	3,137.7	84.8822	3,137.7	81.847	3,137.7	84.6096	3,137.7	80.1627	3,137.7	81.427	3,137.7	76.8319	3,137.7	78.672	3,137.7	76.706	3,137.7	74.1373	3,137.7	74.3534	3,137.7	73.8341	3,137.7	72.0796	3,137.7	72.6702	3,137.7	68.7705	3,137.7	63.7506	3,137.7	69.0815	3,137.7	59.3971	3,137.7	73.4017	3,137.7	69.0529	3,137.7	73.1706	3,137.7	68.4316	3,137.7	71.4299	3,137.7	64.9981	3,137.7	59.9467
3,249.02	87.3408	3,249.02	87.8503	3,249.02	87.2982	3,249.02	87.3731	3,249.02	87.3278	3,249.02	86.8104	3,249.02	87.671	3,249.02	86.2476	3,249.02	86.4064	3,249.02	86.4192	3,249.02	83.4526	3,249.02	83.5982	3,249.02	84.3023	3,249.02	80.8538	3,249.02	83.9585	3,249.02	79.642	3,249.02	80.935	3,249.02	77.5644	3,249.02	78.1726	3,249.02	75.9137	3,249.02	73.8044	3,249.02	73.5386	3,249.02	74.0806	3,249.02	73.5893	3,249.02	72.1271	3,249.02	72.3999	3,249.02	67.8995	3,249.02	65.2479	3,249.02	59.0453	3,249.02	72.1212	3,249.02	72.1096	3,249.02	73.9369	3,249.02	65.5231	3,249.02	71.1419	3,249.02	60.1334	3,249.02	58.5264
3,363.28	88.0971	3,363.28	88.1282	3,363.28	86.3674	3,363.28	87.5652	3,363.28	87.6139	3,363.28	86.7485	3,363.28	88.114	3,363.28	86.5839	3,363.28	87.1987	3,363.28	84.58	3,363.28	83.6487	3,363.28	81.3742	3,363.28	84.453	3,363.28	80.6704	3,363.28	84.0256	3,363.28	78.7814	3,363.28	80.8618	3,363.28	76.7727	3,363.28	76.1446	3,363.28	73.2005	3,363.28	72.987	3,363.28	72.3615	3,363.28	73.1863	3,363.28	72.0267	3,363.28	71.8473	3,363.28	71.862	3,363.28	67.886	3,363.28	64.0568	3,363.28	67.3518	3,363.28	69.635	3,363.28	70.9596	3,363.28	72.6238	3,363.28	66.0531	3,363.28	68.0071	3,363.28	57.832	3,363.28	60.3391
3,481.93	87.7458	3,481.93	88.3589	3,481.93	86.0463	3,481.93	87.5476	3,481.93	87.0505	3,481.93	87.6824	3,481.93	88.3222	3,481.93	86.7833	3,481.93	87.5399	3,481.93	84.0462	3,481.93	84.8591	3,481.93	82.0026	3,481.93	84.6696	3,481.93	82.0393	3,481.93	83.5028	3,481.93	79.6546	3,481.93	81.6695	3,481.93	77.9012	3,481.93	76.9381	3,481.93	76.0192	3,481.93	73.0623	3,481.93	71.2113	3,481.93	73.0608	3,481.93	70.9964	3,481.93	69.2032	3,481.93	69.7271	3,481.93	64.4113	3,481.93	65.8045	3,481.93	67.079	3,481.93	71.9651	3,481.93	69.5522	3,481.93	72.987	3,481.93	62.1162	3,481.93	68.7119	3,481.93	63.2092	3,481.93	56.2489
3,604.98	86.6742	3,604.98	88.1605	3,604.98	85.2914	3,604.98	87.5007	3,604.98	86.5357	3,604.98	88.2321	3,604.98	87.9774	3,604.98	86.8818	3,604.98	87.0864	3,604.98	83.963	3,604.98	83.9376	3,604.98	83.0702	3,604.98	84.7001	3,604.98	82.8329	3,604.98	84.0903	3,604.98	79.4095	3,604.98	80.8348	3,604.98	78.0022	3,604.98	76.4238	3,604.98	75.6402	3,604.98	73.2407	3,604.98	72.6749	3,604.98	71.4379	3,604.98	69.7567	3,604.98	70.9715	3,604.98	71.8183	3,604.98	61.6063	3,604.98	65.6266	3,604.98	65.5814	3,604.98	69.3341	3,604.98	68.6944	3,604.98	71.8187	3,604.98	61.1254	3,604.98	66.7632	3,604.98	63.5586	3,604.98	56.9015
3,732.42	87.3372	3,732.42	86.9997	3,732.42	85.9288	3,732.42	87.6787	3,732.42	86.0467	3,732.42	87.6278	3,732.42	87.5607	3,732.42	85.2257	3,732.42	87.8459	3,732.42	83.5254	3,732.42	84.0045	3,732.42	82.3754	3,732.42	85.1881	3,732.42	80.9561	3,732.42	84.7039	3,732.42	78.2042	3,732.42	80.8612	3,732.42	76.0479	3,732.42	77.0544	3,732.42	74.5015	3,732.42	73.4223	3,732.42	72.4826	3,732.42	71.8314	3,732.42	68.2383	3,732.42	70.6611	3,732.42	69.9411	3,732.42	58.8863	3,732.42	62.6207	3,732.42	63.0971	3,732.42	66.9733	3,732.42	68.4789	3,732.42	70.4178	3,732.42	61.3391	3,732.42	66.3847	3,732.42	60.4767	3,732.42	63.2429
3,864.26	86.4632	3,864.26	86.1138	3,864.26	85.868	3,864.26	87.1755	3,864.26	85.0277	3,864.26	86.873	3,864.26	86.9393	3,864.26	85.6089	3,864.26	87.3905	3,864.26	84.0178	3,864.26	84.6728	3,864.26	81.8216	3,864.26	84.051	3,864.26	78.8956	3,864.26	83.1208	3,864.26	77.1443	3,864.26	80.5733	3,864.26	75.3987	3,864.26	76.5397	3,864.26	73.5978	3,864.26	71.585	3,864.26	72.0466	3,864.26	69.6175	3,864.26	68.8527	3,864.26	68.0837	3,864.26	66.4987	3,864.26	58.5418	3,864.26	62.5662	3,864.26	63.0179	3,864.26	66.9396	3,864.26	67.9941	3,864.26	68.3902	3,864.26	60.3947	3,864.26	66.8924	3,864.26	59.7736	3,864.26	64.7555
4,000.49	84.9957	4,000.49	84.9581	4,000.49	85.695	4,000.49	85.7317	4,000.49	83.688	4,000.49	85.1498	4,000.49	84.788	4,000.49	83.7189	4,000.49	86.2639	4,000.49	82.8925	4,000.49	84.1008	4,000.49	80.1009	4,000.49	83.2302	4,000.49	76.6445	4,000.49	81.9993	4,000.49	75.8181	4,000.49	78.5317	4,000.49	73.0206	4,000.49	74.6263	4,000.49	73.0042	4,000.49	71.5835	4,000.49	69.383	4,000.49	68.6404	4,000.49	69.3768	4,000.49	68.3185	4,000.49	64.0051	4,000.49	60.9447	4,000.49	62.7324	4,000.49	60.9882	4,000.49	65.0837	4,000.49	67.6321	4,000.49	64.2049	4,000.49	47.036	4,000.49	65.4541	4,000.49	60.2172	4,000.49	62.501
4,141.11	85.1036	4,141.11	84.3252	4,141.11	85.9153	4,141.11	84.9537	4,141.11	84.3656	4,141.11	84.3476	4,141.11	84.8554	4,141.11	83.7873	4,141.11	86.4525	4,141.11	82.0981	4,141.11	84.4303	4,141.11	79.8918	4,141.11	82.7978	4,141.11	77.3299	4,141.11	81.7869	4,141.11	75.9008	4,141.11	79.128	4,141.11	72.4947	4,141.11	75.1402	4,141.11	72.2943	4,141.11	71.5424	4,141.11	68.908	4,141.11	71.2035	4,141.11	69.1605	4,141.11	67.5511	4,141.11	65.7057	4,141.11	45.7691	4,141.11	65.0997	4,141.11	65.237	4,141.11	67.0463	4,141.11	66.2488	4,141.11	65.7966	4,141.11	52.8119	4,141.11	64.4644	4,141.11	58.2699	4,141.11	62.8281
4,287.6	84.8011	4,287.6	84.9034	4,287.6	85.4369	4,287.6	85.0495	4,287.6	84.9869	4,287.6	83.9859	4,287.6	84.4672	4,287.6	83.3863	4,287.6	85.9215	4,287.6	81.7018	4,287.6	83.8813	4,287.6	80.4104	4,287.6	82.0636	4,287.6	79.1863	4,287.6	80.8805	4,287.6	76.2572	4,287.6	77.7317	4,287.6	74.3905	4,287.6	73.0389	4,287.6	70.8819	4,287.6	70.0696	4,287.6	69.2675	4,287.6	69.1819	4,287.6	68.5659	4,287.6	62.7443	4,287.6	66.7984	4,287.6	59.5221	4,287.6	65.5076	4,287.6	64.2683	4,287.6	66.4561	4,287.6	61.0515	4,287.6	67.6256	4,287.6	59.2182	4,287.6	64.7174	4,287.6	54.7767	4,287.6	64.2095
4,438.48	84.3081	4,438.48	85.321	4,438.48	84.6215	4,438.48	83.867	4,438.48	84.7	4,438.48	83.5735	4,438.48	83.2627	4,438.48	83.5229	4,438.48	84.7769	4,438.48	81.7536	4,438.48	82.7744	4,438.48	79.4313	4,438.48	80.5043	4,438.48	78.3072	4,438.48	79.7998	4,438.48	74.5996	4,438.48	76.1387	4,438.48	73.875	4,438.48	71.18	4,438.48	69.7357	4,438.48	68.2676	4,438.48	69.722	4,438.48	67.6337	4,438.48	67.0873	4,438.48	64.8063	4,438.48	64.3562	4,438.48	54.7029	4,438.48	65.1708	4,438.48	61.1344	4,438.48	65.0583	4,438.48	56.7009	4,438.48	65.9839	4,438.48	57.9177	4,438.48	62.4584	4,438.48	58.7292	4,438.48	61.9081
4,595.21	84.7174	4,595.21	85.134	4,595.21	85.3697	4,595.21	83.5831	4,595.21	84.4184	4,595.21	83.573	4,595.21	83.2897	4,595.21	82.8646	4,595.21	83.0869	4,595.21	81.3473	4,595.21	80.5513	4,595.21	78.5282	4,595.21	79.0191	4,595.21	76.7596	4,595.21	78.3755	4,595.21	74.0259	4,595.21	73.8631	4,595.21	72.1349	4,595.21	70.2932	4,595.21	69.5465	4,595.21	67.0167	4,595.21	67.5608	4,595.21	66.0878	4,595.21	65.0305	4,595.21	62.0645	4,595.21	64.6251	4,595.21	56.3069	4,595.21	64.3049	4,595.21	56.0306	4,595.21	64.5296	4,595.21	42.6957	4,595.21	63.1475	4,595.21	49.1184	4,595.21	62.4435	4,595.21	49.8193	4,595.21	62.6696
4,756.35	85.2119	4,756.35	84.7926	4,756.35	85.6248	4,756.35	84.404	4,756.35	84.4935	4,756.35	83.4524	4,756.35	82.9165	4,756.35	82.0898	4,756.35	82.2813	4,756.35	80.0716	4,756.35	80.046	4,756.35	77.951	4,756.35	78.5879	4,756.35	75.7839	4,756.35	78.1055	4,756.35	74.9012	4,756.35	74.9234	4,756.35	71.0513	4,756.35	70.0802	4,756.35	68.2212	4,756.35	66.7293	4,756.35	66.7226	4,756.35	66.3504	4,756.35	65.4628	4,756.35	63.1543	4,756.35	65.4679	4,756.35	51.8736	4,756.35	64.3788	4,756.35	56.8605	4,756.35	64.0837	4,756.35	48.1136	4,756.35	65.6961	4,756.35	53.4151	4,756.35	62.4242	4,756.35	51.7254	4,756.35	60.5764
4,924.8	85.6618	4,924.8	84.8803	4,924.8	84.9642	4,924.8	84.3816	4,924.8	85.1818	4,924.8	83.1783	4,924.8	82.2361	4,924.8	81.5687	4,924.8	82.7307	4,924.8	79.6045	4,924.8	81.4568	4,924.8	78.5213	4,924.8	79.0557	4,924.8	75.8259	4,924.8	78.2075	4,924.8	73.5126	4,924.8	73.9439	4,924.8	69.7495	4,924.8	70.159	4,924.8	66.0591	4,924.8	66.714	4,924.8	65.6831	4,924.8	65.3068	4,924.8	65.8646	4,924.8	63.8999	4,924.8	62.5786	4,924.8	45.6247	4,924.8	63.2784	4,924.8	56.4152	4,924.8	59.9343	4,924.8	44.291	4,924.8	64.4294	4,924.8	48.7992	4,924.8	59.5649	4,924.8	52.9282	4,924.8	59.5095
5,097.66	84.7827	5,097.66	84.0427	5,097.66	84.2751	5,097.66	82.9664	5,097.66	84.7635	5,097.66	82.0804	5,097.66	81.9831	5,097.66	81.4177	5,097.66	82.0265	5,097.66	80.8188	5,097.66	81.6874	5,097.66	79.1138	5,097.66	79.0153	5,097.66	77.7091	5,097.66	78.143	5,097.66	75.0153	5,097.66	73.5781	5,097.66	72.1256	5,097.66	69.9986	5,097.66	70.3088	5,097.66	66.607	5,097.66	69.4703	5,097.66	65.8425	5,097.66	67.1093	5,097.66	62.7505	5,097.66	68.2132	5,097.66	50.5333	5,097.66	66.1532	5,097.66	55.9458	5,097.66	64.5364	5,097.66	35.3639	5,097.66	65.8253	5,097.66	55.716	5,097.66	61.7854	5,097.66	54.1909	5,097.66	60.685
5,277.83	83.9368	5,277.83	82.9837	5,277.83	84.2025	5,277.83	82.7072	5,277.83	83.6929	5,277.83	80.6533	5,277.83	82.5372	5,277.83	81.9588	5,277.83	80.9857	5,277.83	80.6898	5,277.83	79.9766	5,277.83	78.2228	5,277.83	77.9783	5,277.83	75.7376	5,277.83	77.5742	5,277.83	72.2705	5,277.83	73.5558	5,277.83	69.9161	5,277.83	68.2545	5,277.83	68.3325	5,277.83	67.2694	5,277.83	66.3746	5,277.83	64.0356	5,277.83	66.7798	5,277.83	61.7686	5,277.83	67.78	5,277.83	48.2861	5,277.83	65.3719	5,277.83	54.9579	5,277.83	64.6552	5,277.83	49.1955	5,277.83	65.246	5,277.83	56.4547	5,277.83	61.1908	5,277.83	47.9418	5,277.83	59.6188
5,463.87	84.5652	5,463.87	83.9132	5,463.87	84.1696	5,463.87	83.221	5,463.87	83.4778	5,463.87	83.4039	5,463.87	82.6167	5,463.87	83.6373	5,463.87	80.506	5,463.87	82.2558	5,463.87	79.7705	5,463.87	80.2905	5,463.87	77.1328	5,463.87	76.694	5,463.87	76.7268	5,463.87	73.9183	5,463.87	74.4796	5,463.87	70.5522	5,463.87	70.1925	5,463.87	70.0742	5,463.87	66.7515	5,463.87	67.7861	5,463.87	63.3751	5,463.87	68.3064	5,463.87	60.7638	5,463.87	63.6166	5,463.87	49.3243	5,463.87	64.827	5,463.87	51.5141	5,463.87	61.6813	5,463.87	48.0654	5,463.87	64.4945	5,463.87	57.0539	5,463.87	60.7053	5,463.87	47.6419	5,463.87	60.9536
5,657.23	84.7405	5,657.23	83.4772	5,657.23	83.9457	5,657.23	82.5122	5,657.23	83.299	5,657.23	83.0781	5,657.23	81.4277	5,657.23	82.6488	5,657.23	80.151	5,657.23	81.4856	5,657.23	80.3367	5,657.23	79.3265	5,657.23	77.2225	5,657.23	76.7423	5,657.23	77.1779	5,657.23	75.3003	5,657.23	74.2692	5,657.23	73.9262	5,657.23	69.1356	5,657.23	72.0384	5,657.23	63.4376	5,657.23	68.7341	5,657.23	64.3992	5,657.23	68.8479	5,657.23	51.002	5,657.23	67.7902	5,657.23	58.1708	5,657.23	62.8681	5,657.23	48.9054	5,657.23	62.8586	5,657.23	52.7135	5,657.23	65.1378	5,657.23	58.6322	5,657.23	60.5175	5,657.23	43.0862	5,657.23	56.1886
5,856.45	85.0593	5,856.45	84.2502	5,856.45	85.0168	5,856.45	83.3671	5,856.45	82.8466	5,856.45	83.549	5,856.45	82.1404	5,856.45	82.163	5,856.45	79.485	5,856.45	81.7337	5,856.45	79.6585	5,856.45	79.5229	5,856.45	77.8983	5,856.45	78.9831	5,856.45	78.2014	5,856.45	75.9353	5,856.45	72.6679	5,856.45	73.7049	5,856.45	68.5488	5,856.45	70.4864	5,856.45	65.7661	5,856.45	66.8401	5,856.45	62.4065	5,856.45	65.9762	5,856.45	61.5356	5,856.45	65.1196	5,856.45	53.2772	5,856.45	62.5143	5,856.45	52.7097	5,856.45	64.8432	5,856.45	51.1734	5,856.45	65.3688	5,856.45	61.0844	5,856.45	61.1868	5,856.45	52.9164	5,856.45	57.2154
6,062.99	85.7585	6,062.99	85.08	6,062.99	85.7238	6,062.99	84.283	6,062.99	83.4846	6,062.99	83.4248	6,062.99	82.3245	6,062.99	82.5111	6,062.99	79.5058	6,062.99	80.9178	6,062.99	78.7779	6,062.99	79.5723	6,062.99	77.0998	6,062.99	77.3287	6,062.99	76.7184	6,062.99	75.0555	6,062.99	72.3081	6,062.99	71.7507	6,062.99	66.6353	6,062.99	70.6054	6,062.99	63.9837	6,062.99	68.6249	6,062.99	59.9258	6,062.99	65.7712	6,062.99	62.7751	6,062.99	63.1116	6,062.99	54.8742	6,062.99	63.0219	6,062.99	48.5375	6,062.99	62.3988	6,062.99	52.847	6,062.99	64.8368	6,062.99	58.8552	6,062.99	61.583	6,062.99	57.0515	6,062.99	58.2948
6,276.86	86.3546	6,276.86	85.6745	6,276.86	85.637	6,276.86	84.7612	6,276.86	83.9944	6,276.86	83.8291	6,276.86	81.5545	6,276.86	83.5696	6,276.86	79.8868	6,276.86	81.2907	6,276.86	78.759	6,276.86	80.3481	6,276.86	76.6889	6,276.86	75.3944	6,276.86	74.2391	6,276.86	75.6045	6,276.86	72.2544	6,276.86	72.2318	6,276.86	66.0866	6,276.86	68.4658	6,276.86	61.1859	6,276.86	65.4338	6,276.86	62.3421	6,276.86	61.6158	6,276.86	59.3997	6,276.86	63.1989	6,276.86	50.464	6,276.86	48.6289	6,276.86	57.3445	6,276.86	54.8173	6,276.86	39.7465	6,276.86	62.463	6,276.86	55.7424	6,276.86	62.6741	6,276.86	54.4009	6,276.86	53.846
6,498.05	86.2984	6,498.05	85.689	6,498.05	85.7438	6,498.05	84.1857	6,498.05	84.0467	6,498.05	82.7786	6,498.05	81.128	6,498.05	82.1048	6,498.05	79.3426	6,498.05	80.2452	6,498.05	77.8656	6,498.05	79.3444	6,498.05	76.1725	6,498.05	77.1421	6,498.05	75.5176	6,498.05	74.196	6,498.05	70.9693	6,498.05	71.1295	6,498.05	64.1646	6,498.05	66.7911	6,498.05	63.1886	6,498.05	60.233	6,498.05	59.7057	6,498.05	60.8796	6,498.05	56.5921	6,498.05	55.5894	6,498.05	43.9511	6,498.05	59.4798	6,498.05	58.3102	6,498.05	62.4794	6,498.05	46.5043	6,498.05	61.8255	6,498.05	52.5334	6,498.05	63.319	6,498.05	57.9137	6,498.05	55.7363
6,726.56	86.9678	6,726.56	85.9888	6,726.56	86.93	6,726.56	85.2569	6,726.56	83.8208	6,726.56	84.2299	6,726.56	82.6445	6,726.56	82.6186	6,726.56	79.4961	6,726.56	81.6255	6,726.56	78.0327	6,726.56	77.4524	6,726.56	75.4797	6,726.56	78.0078	6,726.56	75.3989	6,726.56	73.5166	6,726.56	71.9706	6,726.56	71.7715	6,726.56	66.3071	6,726.56	69.0233	6,726.56	63.8233	6,726.56	64.6587	6,726.56	62.3749	6,726.56	61.7524	6,726.56	55.4682	6,726.56	63.4106	6,726.56	61.6209	6,726.56	54.7995	6,726.56	61.9789	6,726.56	59.5256	6,726.56	53.7788	6,726.56	60.5907	6,726.56	52.2969	6,726.56	62.0926	6,726.56	55.8755	6,726.56	49.6063
6,963.87	86.8075	6,963.87	85.7488	6,963.87	85.8807	6,963.87	85.5457	6,963.87	84.3026	6,963.87	82.9571	6,963.87	81.9289	6,963.87	81.6644	6,963.87	80.8345	6,963.87	78.1765	6,963.87	79.1788	6,963.87	76.5551	6,963.87	76.848	6,963.87	76.0708	6,963.87	75.8504	6,963.87	72.5507	6,963.87	70.928	6,963.87	71.4729	6,963.87	70.4118	6,963.87	68.175	6,963.87	65.2011	6,963.87	65.9554	6,963.87	56.7442	6,963.87	64.1768	6,963.87	51.9401	6,963.87	65.9959	6,963.87	63.5975	6,963.87	57.0237	6,963.87	61.6974	6,963.87	59.7617	6,963.87	57.2721	6,963.87	60.9389	6,963.87	50.0764	6,963.87	62.6278	6,963.87	42.0925	6,963.87	45.0069
7,209.96	86.2412	7,209.96	86.1516	7,209.96	85.9324	7,209.96	85.4039	7,209.96	85.0487	7,209.96	82.9456	7,209.96	83.1365	7,209.96	80.6388	7,209.96	80.8274	7,209.96	79.7443	7,209.96	81.0278	7,209.96	79.0184	7,209.96	79.0659	7,209.96	74.5928	7,209.96	78.4101	7,209.96	73.2624	7,209.96	74.6573	7,209.96	69.7459	7,209.96	71.4391	7,209.96	67.467	7,209.96	60.6825	7,209.96	65.3383	7,209.96	50.9488	7,209.96	63.7777	7,209.96	47.9267	7,209.96	57.8444	7,209.96	61.1874	7,209.96	57.3093	7,209.96	54.3736	7,209.96	55.7164	7,209.96	56.4239	7,209.96	61.9641	7,209.96	57.586	7,209.96	59.0902	7,209.96	53.9462	7,209.96	49.2625
7,464.84	85.3637	7,464.84	86.2486	7,464.84	86.0871	7,464.84	84.6917	7,464.84	84.9629	7,464.84	83.1724	7,464.84	84.712	7,464.84	80.7139	7,464.84	81.2042	7,464.84	81.8262	7,464.84	79.8559	7,464.84	78.6619	7,464.84	79.9431	7,464.84	75.3255	7,464.84	79.2502	7,464.84	74.5033	7,464.84	75.2807	7,464.84	71.1224	7,464.84	72.3108	7,464.84	70.2896	7,464.84	61.4218	7,464.84	63.8357	7,464.84	50.0293	7,464.84	61.7971	7,464.84	57.1338	7,464.84	54.691	7,464.84	49.4641	7,464.84	58.626	7,464.84	51.1544	7,464.84	55.9451	7,464.84	57.4768	7,464.84	63.5101	7,464.84	51.3914	7,464.84	59.6774	7,464.84	44.4675	7,464.84	50.5681
7,727.05	85.4363	7,727.05	85.6445	7,727.05	84.7318	7,727.05	84.6457	7,727.05	85.1156	7,727.05	82.8956	7,727.05	83.3379	7,727.05	82.1327	7,727.05	81.9726	7,727.05	81.8072	7,727.05	78.8026	7,727.05	78.6533	7,727.05	79.5645	7,727.05	77.844	7,727.05	76.9349	7,727.05	73.3792	7,727.05	75.5831	7,727.05	70.8087	7,727.05	70.5586	7,727.05	68.7744	7,727.05	60.8147	7,727.05	64.9789	7,727.05	50.2574	7,727.05	64.8031	7,727.05	55.8268	7,727.05	59.1562	7,727.05	59.5622	7,727.05	57.4436	7,727.05	44.3963	7,727.05	55.7489	7,727.05	54.2243	7,727.05	59.1337	7,727.05	50.1864	7,727.05	54.0199	7,727.05	33.2096	7,727.05	51.7964
7,999.51	86.155	7,999.51	85.7766	7,999.51	85.3369	7,999.51	85.0697	7,999.51	85.2196	7,999.51	83.2648	7,999.51	82.3101	7,999.51	83.0309	7,999.51	82.356	7,999.51	80.6071	7,999.51	80.0946	7,999.51	79.4408	7,999.51	79.8665	7,999.51	76.2914	7,999.51	78.3581	7,999.51	73.3237	7,999.51	74.7331	7,999.51	70.6419	7,999.51	68.239	7,999.51	67.9986	7,999.51	64.1495	7,999.51	66.9122	7,999.51	58.9144	7,999.51	65.3023	7,999.51	53.5776	7,999.51	61.4533	7,999.51	41.9601	7,999.51	55.6179	7,999.51	46.0662	7,999.51	56.8976	7,999.51	52.6416	7,999.51	58.3624	7,999.51	51.5451	7,999.51	51.542	7,999.51	51.6118	7,999.51	48.9531
8,282.23	85.2827	8,282.23	85.0696	8,282.23	84.6568	8,282.23	85.3533	8,282.23	84.7525	8,282.23	83.2394	8,282.23	81.7085	8,282.23	83.102	8,282.23	80.2661	8,282.23	81.8741	8,282.23	76.1557	8,282.23	79.5953	8,282.23	77.3058	8,282.23	76.7232	8,282.23	77.595	8,282.23	76.2518	8,282.23	72.6004	8,282.23	73.0004	8,282.23	68.6808	8,282.23	70.1652	8,282.23	60.7414	8,282.23	66.4356	8,282.23	56.8574	8,282.23	67.8765	8,282.23	55.2747	8,282.23	64.2372	8,282.23	55.3852	8,282.23	60.8687	8,282.23	54.1695	8,282.23	52.9461	8,282.23	36.0071	8,282.23	63.0107	8,282.23	55.0714	8,282.23	56.9842	8,282.23	44.9541	8,282.23	48.0539
8,573.73	85.2663	8,573.73	85.6719	8,573.73	84.8283	8,573.73	85.2383	8,573.73	84.9558	8,573.73	83.8846	8,573.73	82.1311	8,573.73	83.2285	8,573.73	80.9219	8,573.73	81.4959	8,573.73	77.0633	8,573.73	78.7791	8,573.73	77.7804	8,573.73	77.4501	8,573.73	76.1458	8,573.73	75.0508	8,573.73	73.3509	8,573.73	73.1802	8,573.73	68.2369	8,573.73	70.3876	8,573.73	60.3496	8,573.73	67.4666	8,573.73	45.8466	8,573.73	66.5986	8,573.73	52.7145	8,573.73	63.9207	8,573.73	55.3642	8,573.73	61.037	8,573.73	45.364	8,573.73	54.0365	8,573.73	47.8401	8,573.73	62.1458	8,573.73	51.8159	8,573.73	59.5482	8,573.73	52.8119	8,573.73	39.0949
8,876.95	84.7032	8,876.95	85.8953	8,876.95	84.4746	8,876.95	85.0821	8,876.95	84.2735	8,876.95	84.2081	8,876.95	82.1703	8,876.95	82.981	8,876.95	80.4913	8,876.95	81.3739	8,876.95	78.56	8,876.95	79.7443	8,876.95	77.7957	8,876.95	77.9876	8,876.95	76.8758	8,876.95	74.9684	8,876.95	73.8912	8,876.95	72.6714	8,876.95	67.6309	8,876.95	68.4157	8,876.95	62.6178	8,876.95	66.2592	8,876.95	44.743	8,876.95	62.7381	8,876.95	43.0646	8,876.95	62.3246	8,876.95	54.4563	8,876.95	57.9069	8,876.95	53.0868	8,876.95	53.8468	8,876.95	55.2617	8,876.95	60.9595	8,876.95	49.1997	8,876.95	59.4432	8,876.95	52.713	8,876.95	47.0314
9,188.96	85.4366	9,188.96	85.5758	9,188.96	84.668	9,188.96	84.7748	9,188.96	84.5161	9,188.96	83.5152	9,188.96	83.4411	9,188.96	81.7141	9,188.96	80.1061	9,188.96	79.887	9,188.96	78.5423	9,188.96	78.5012	9,188.96	77.0826	9,188.96	75.8863	9,188.96	76.3542	9,188.96	74.5083	9,188.96	75.4359	9,188.96	69.7144	9,188.96	68.1643	9,188.96	65.5753	9,188.96	63.067	9,188.96	64.8993	9,188.96	41.6882	9,188.96	60.3881	9,188.96	45.735	9,188.96	59.0067	9,188.96	53.2031	9,188.96	57.525	9,188.96	51.1468	9,188.96	55.7991	9,188.96	57.0584	9,188.96	61.8965	9,188.96	46.3402	9,188.96	55.6705	9,188.96	54.5156	9,188.96	46.5199
9,514.16	84.4106	9,514.16	83.7363	9,514.16	83.9524	9,514.16	83.3066	9,514.16	82.9568	9,514.16	82.8751	9,514.16	82.551	9,514.16	79.2553	9,514.16	79.5992	9,514.16	78.5518	9,514.16	79.1633	9,514.16	76.9602	9,514.16	76.9519	9,514.16	75.5275	9,514.16	77.8408	9,514.16	72.1731	9,514.16	73.5111	9,514.16	70.7347	9,514.16	68.6411	9,514.16	67.5833	9,514.16	59.0915	9,514.16	63.8942	9,514.16	48.6473	9,514.16	61.5425	9,514.16	44.9928	9,514.16	62.0326	9,514.16	55.5398	9,514.16	48.9442	9,514.16	48.6649	9,514.16	54.6709	9,514.16	57.7704	9,514.16	58.1775	9,514.16	50.9801	9,514.16	55.9746	9,514.16	53.9552	9,514.16	48.6793
9,849.61	84.5199	9,849.61	83.6192	9,849.61	83.8425	9,849.61	83.6457	9,849.61	84.0035	9,849.61	81.8223	9,849.61	83.267	9,849.61	79.7339	9,849.61	79.51	9,849.61	77.7776	9,849.61	79.9021	9,849.61	76.7064	9,849.61	76.2598	9,849.61	73.5456	9,849.61	77.0698	9,849.61	71.5948	9,849.61	76.3518	9,849.61	64.4736	9,849.61	69.1255	9,849.61	64.4327	9,849.61	60.5695	9,849.61	61.3317	9,849.61	42.9889	9,849.61	56.8284	9,849.61	54.5199	9,849.61	61.0415	9,849.61	60.3459	9,849.61	54.0153	9,849.61	47.9431	9,849.61	56.3259	9,849.61	52.4524	9,849.61	59.3753	9,849.61	56.7599	9,849.61	50.4816	9,849.61	51.8595	9,849.61	42.988
10,196.8	84.7374	10,196.8	83.4552	10,196.8	84.6879	10,196.8	83.1602	10,196.8	83.5407	10,196.8	80.4475	10,196.8	83.3053	10,196.8	79.1888	10,196.8	81.8335	10,196.8	78.04	10,196.8	80.326	10,196.8	73.588	10,196.8	77.2037	10,196.8	70.4022	10,196.8	77.4389	10,196.8	64.8619	10,196.8	76.0591	10,196.8	67.5746	10,196.8	68.8089	10,196.8	61.2221	10,196.8	63.6855	10,196.8	58.5469	10,196.8	44.4117	10,196.8	58.6858	10,196.8	47.5342	10,196.8	58.4896	10,196.8	57.3826	10,196.8	47.7833	10,196.8	51.5583	10,196.8	46.0993	10,196.8	45.9064	10,196.8	52.7821	10,196.8	46.1318	10,196.8	57.2865	10,196.8	54.3672	10,196.8	46.9663
10,555.7	85.0829	10,555.7	83.9288	10,555.7	84.7675	10,555.7	83.7517	10,555.7	83.4907	10,555.7	80.6902	10,555.7	83.518	10,555.7	79.7714	10,555.7	82.5809	10,555.7	76.5075	10,555.7	80.9748	10,555.7	72.6343	10,555.7	76.1585	10,555.7	69.0876	10,555.7	75.4404	10,555.7	69.3143	10,555.7	75.6205	10,555.7	67.3815	10,555.7	69.7681	10,555.7	60.5267	10,555.7	63.7242	10,555.7	62.0887	10,555.7	51.6928	10,555.7	57.2376	10,555.7	45.2617	10,555.7	57.3933	10,555.7	53.3881	10,555.7	56.2755	10,555.7	53.0714	10,555.7	52.4768	10,555.7	56.5478	10,555.7	59.0966	10,555.7	56.1425	10,555.7	56.6779	10,555.7	57.8297	10,555.7	30.9329
10,927.7	85.611	10,927.7	84.4196	10,927.7	85.5726	10,927.7	83.5195	10,927.7	83.5242	10,927.7	81.0048	10,927.7	83.6415	10,927.7	79.0341	10,927.7	82.5933	10,927.7	76.9887	10,927.7	80.1642	10,927.7	72.9002	10,927.7	76.9203	10,927.7	73.6381	10,927.7	75.5167	10,927.7	71.7165	10,927.7	75.1346	10,927.7	67.0975	10,927.7	68.4458	10,927.7	63.0923	10,927.7	63.8714	10,927.7	60.9361	10,927.7	48.0076	10,927.7	56.6308	10,927.7	54.5579	10,927.7	58.9353	10,927.7	50.7141	10,927.7	56.6699	10,927.7	56.9241	10,927.7	51.7747	10,927.7	55.2282	10,927.7	55.6973	10,927.7	55.723	10,927.7	56.0286	10,927.7	57.9572	10,927.7	48.9701
11,313	85.2688	11,313	84.4053	11,313	85.7753	11,313	82.9493	11,313	83.5016	11,313	81.2323	11,313	83.0369	11,313	79.0841	11,313	81.4845	11,313	75.7913	11,313	78.7997	11,313	74.5781	11,313	77.1201	11,313	73.9292	11,313	74.2544	11,313	70.4839	11,313	74.8271	11,313	68.4199	11,313	68.6534	11,313	64.2021	11,313	58.6911	11,313	59.9636	11,313	31.0882	11,313	54.2125	11,313	59.2668	11,313	61.5224	11,313	58.7596	11,313	54.1776	11,313	55.2829	11,313	51.2642	11,313	53.1405	11,313	53.9953	11,313	56.5563	11,313	50.91	11,313	53.454	11,313	48.7808
11,712.9	85.9394	11,712.9	84.8837	11,712.9	86.1209	11,712.9	83.0948	11,712.9	84.8392	11,712.9	81.1683	11,712.9	83.7926	11,712.9	78.0277	11,712.9	81.6454	11,712.9	76.1237	11,712.9	79.4145	11,712.9	73.5161	11,712.9	77.9626	11,712.9	71.9223	11,712.9	73.2248	11,712.9	67.388	11,712.9	74.0145	11,712.9	65.5755	11,712.9	67.6675	11,712.9	56.8652	11,712.9	61.5307	11,712.9	55.3756	11,712.9	49.7887	11,712.9	44.8925	11,712.9	58.6822	11,712.9	54.3124	11,712.9	56.726	11,712.9	51.4593	11,712.9	47.985	11,712.9	49.2975	11,712.9	56.0123	11,712.9	45.7306	11,712.9	53.2241	11,712.9	55.7222	11,712.9	55.8554	11,712.9	37.3569
12,126	86.0716	12,126	85.3596	12,126	86.3087	12,126	83.5577	12,126	84.8189	12,126	81.5309	12,126	83.0823	12,126	78.8795	12,126	81.0783	12,126	76.948	12,126	79.1167	12,126	73.3041	12,126	77.657	12,126	70.2611	12,126	71.067	12,126	67.1183	12,126	72.7686	12,126	62.9765	12,126	66.0905	12,126	55.9411	12,126	60.6677	12,126	57.5655	12,126	46.522	12,126	54.156	12,126	57.9188	12,126	55.8066	12,126	55.3775	12,126	42.9842	12,126	46.0416	12,126	49.9291	12,126	47.5543	12,126	48.0746	12,126	55.8316	12,126	51.0249	12,126	55.469	12,126	53.1578
12,553.7	86.102	12,553.7	85.9076	12,553.7	85.8962	12,553.7	84.5324	12,553.7	84.3356	12,553.7	81.7382	12,553.7	83.2856	12,553.7	79.1873	12,553.7	81.3453	12,553.7	77.1396	12,553.7	78.9228	12,553.7	72.5933	12,553.7	77.4704	12,553.7	70.9336	12,553.7	70.821	12,553.7	66.5087	12,553.7	72.0623	12,553.7	64.5795	12,553.7	65.2842	12,553.7	60.5104	12,553.7	60.1728	12,553.7	52.6394	12,553.7	39.2415	12,553.7	57.3685	12,553.7	59.3257	12,553.7	53.8153	12,553.7	53.7312	12,553.7	52.376	12,553.7	48.7382	12,553.7	50.0029	12,553.7	26.4187	12,553.7	48.8755	12,553.7	55.596	12,553.7	46.0032	12,553.7	50.1344	12,553.7	46.0547
12,996.1	85.9659	12,996.1	85.2498	12,996.1	86.0846	12,996.1	84.2632	12,996.1	84.896	12,996.1	82.234	12,996.1	82.2794	12,996.1	79.8953	12,996.1	81.1587	12,996.1	76.624	12,996.1	77.7564	12,996.1	72.9337	12,996.1	76.9708	12,996.1	70.1709	12,996.1	70.1807	12,996.1	67.93	12,996.1	70.6034	12,996.1	63.0832	12,996.1	63.3915	12,996.1	57.7938	12,996.1	58.4501	12,996.1	58.4984	12,996.1	37.1663	12,996.1	56.354	12,996.1	56.2572	12,996.1	48.4441	12,996.1	49.6183	12,996.1	54.5875	12,996.1	46.497	12,996.1	47.1315	12,996.1	45.4146	12,996.1	42.7956	12,996.1	54.8034	12,996.1	51.1132	12,996.1	50.3273	12,996.1	37.4016
13,454.6	85.9247	13,454.6	85.4298	13,454.6	85.7503	13,454.6	84.4696	13,454.6	84.6839	13,454.6	81.5385	13,454.6	82.9744	13,454.6	79.5524	13,454.6	80.5734	13,454.6	76.0889	13,454.6	76.5375	13,454.6	71.4402	13,454.6	74.5571	13,454.6	70.2218	13,454.6	67.5884	13,454.6	65.7	13,454.6	68.6287	13,454.6	63.4158	13,454.6	61.8451	13,454.6	58.7137	13,454.6	53.6711	13,454.6	56.9397	13,454.6	42.6273	13,454.6	52.743	13,454.6	49.3668	13,454.6	46.8224	13,454.6	53.8523	13,454.6	51.608	13,454.6	46.4789	13,454.6	43.204	13,454.6	44.2148	13,454.6	50.1144	13,454.6	56.2494	13,454.6	51.2092	13,454.6	53.3277	13,454.6	39.1263
13,929.2	85.7736	13,929.2	85.7112	13,929.2	85.6736	13,929.2	84.4351	13,929.2	84.7773	13,929.2	82.1013	13,929.2	83.1368	13,929.2	79.1823	13,929.2	80.4044	13,929.2	75.3942	13,929.2	76.577	13,929.2	71.9513	13,929.2	74.1876	13,929.2	70.0176	13,929.2	69.0345	13,929.2	66.0203	13,929.2	68.3683	13,929.2	63.76	13,929.2	60.2097	13,929.2	57.4581	13,929.2	52.224	13,929.2	52.9978	13,929.2	46.0338	13,929.2	55.25	13,929.2	49.839	13,929.2	53.7717	13,929.2	55.558	13,929.2	51.1511	13,929.2	47.8582	13,929.2	45.471	13,929.2	46.7549	13,929.2	51.8185	13,929.2	51.9938	13,929.2	43.2874	13,929.2	53.2899	13,929.2	49.9651
14,419.9	85.8978	14,419.9	85.6663	14,419.9	85.8366	14,419.9	84.2768	14,419.9	84.6996	14,419.9	81.9799	14,419.9	82.8359	14,419.9	78.3335	14,419.9	79.8685	14,419.9	74.1602	14,419.9	75.5284	14,419.9	70.0642	14,419.9	73.1365	14,419.9	67.2078	14,419.9	67.4698	14,419.9	64.3352	14,419.9	67.2911	14,419.9	60.845	14,419.9	57.6552	14,419.9	58.5401	14,419.9	53.1325	14,419.9	56.1982	14,419.9	45.629	14,419.9	52.0315	14,419.9	46.2924	14,419.9	48.2735	14,419.9	51.724	14,419.9	50.1923	14,419.9	44.8975	14,419.9	45.2007	14,419.9	40.0128	14,419.9	51.1529	14,419.9	51.9644	14,419.9	42.4095	14,419.9	50.4226	14,419.9	48.6706
14,928.2	85.8787	14,928.2	85.5295	14,928.2	85.7617	14,928.2	83.9202	14,928.2	84.1054	14,928.2	81.2672	14,928.2	82.4444	14,928.2	77.3339	14,928.2	78.6654	14,928.2	73.183	14,928.2	74.1428	14,928.2	68.7122	14,928.2	71.4382	14,928.2	67.19	14,928.2	66.8943	14,928.2	64.2473	14,928.2	64.2078	14,928.2	62.3002	14,928.2	55.9799	14,928.2	57.982	14,928.2	46.047	14,928.2	57.6157	14,928.2	43.1841	14,928.2	49.5252	14,928.2	41.9357	14,928.2	45.274	14,928.2	48.8707	14,928.2	45.8406	14,928.2	41.2362	14,928.2	49.459	14,928.2	40.5713	14,928.2	49.7721	14,928.2	50.1934	14,928.2	42.4926	14,928.2	50.5459	14,928.2	48.6151
15,455.6	85.4429	15,455.6	85.1133	15,455.6	85.2675	15,455.6	83.2879	15,455.6	83.54	15,455.6	80.558	15,455.6	81.6323	15,455.6	75.9859	15,455.6	77.4337	15,455.6	71.3605	15,455.6	71.8893	15,455.6	66.9792	15,455.6	69.4086	15,455.6	66.1075	15,455.6	65.4321	15,455.6	62.2874	15,455.6	62.9152	15,455.6	58.7508	15,455.6	54.358	15,455.6	55.0235	15,455.6	46.2091	15,455.6	58.9317	15,455.6	43.285	15,455.6	47.4601	15,455.6	37.1312	15,455.6	55.3262	15,455.6	49.9267	15,455.6	49.0724	15,455.6	41.9425	15,455.6	51.9574	15,455.6	41.3324	15,455.6	51.4715	15,455.6	48.4743	15,455.6	46.0701	15,455.6	51.0952	15,455.6	48.9643
16,000.5	85.2253	16,000.5	84.6673	16,000.5	84.7929	16,000.5	82.2411	16,000.5	82.7681	16,000.5	79.4849	16,000.5	80.7066	16,000.5	74.5445	16,000.5	75.721	16,000.5	69.4112	16,000.5	69.9295	16,000.5	63.733	16,000.5	66.8391	16,000.5	63.753	16,000.5	64.336	16,000.5	60.6993	16,000.5	61.3871	16,000.5	56.1489	16,000.5	54.8106	16,000.5	55.883	16,000.5	45.2257	16,000.5	52.0459	16,000.5	42.8372	16,000.5	43.83	16,000.5	41.1972	16,000.5	47.4497	16,000.5	51.0227	16,000.5	49.9616	16,000.5	42.8902	16,000.5	52.4291	16,000.5	41.5341	16,000.5	47.6905	16,000.5	51.4475	16,000.5	49.3633	16,000.5	50.8901	16,000.5	50.3086
16,564.5	84.7102	16,564.5	84.0543	16,564.5	83.9855	16,564.5	81.3085	16,564.5	81.7899	16,564.5	77.838	16,564.5	79.0789	16,564.5	72.3442	16,564.5	72.9929	16,564.5	66.1695	16,564.5	66.6406	16,564.5	60.4874	16,564.5	63.5943	16,564.5	63.5182	16,564.5	61.8719	16,564.5	59.9036	16,564.5	60.1929	16,564.5	54.9999	16,564.5	53.2725	16,564.5	55.3959	16,564.5	41.1114	16,564.5	52.8993	16,564.5	41.8628	16,564.5	40.2907	16,564.5	44.0801	16,564.5	50.8343	16,564.5	49.6349	16,564.5	48.6315	16,564.5	38.6766	16,564.5	50.294	16,564.5	44.1266	16,564.5	47.8717	16,564.5	52.7791	16,564.5	50.8945	16,564.5	51.3272	16,564.5	50.7633
17,148.9	84.0684	17,148.9	83.2353	17,148.9	83.0525	17,148.9	80.2111	17,148.9	80.4134	17,148.9	75.8385	17,148.9	77.3957	17,148.9	70.3312	17,148.9	69.8992	17,148.9	62.373	17,148.9	60.7259	17,148.9	59.7193	17,148.9	62.6631	17,148.9	59.8434	17,148.9	62.619	17,148.9	52.8087	17,148.9	59.9276	17,148.9	52.6934	17,148.9	51.3444	17,148.9	51.9007	17,148.9	44.2304	17,148.9	52.4234	17,148.9	41.9461	17,148.9	48.0082	17,148.9	41.6128	17,148.9	51.4754	17,148.9	46.779	17,148.9	46.0136	17,148.9	39.5849	17,148.9	48.8675	17,148.9	40.0129	17,148.9	49.7103	17,148.9	51.8869	17,148.9	51.3004	17,148.9	51.4226	17,148.9	52.601
17,752.4	83.2849	17,752.4	82.6225	17,752.4	82.092	17,752.4	79.1242	17,752.4	78.6654	17,752.4	74.5857	17,752.4	75.1454	17,752.4	67.93	17,752.4	67.2704	17,752.4	60.2077	17,752.4	63.3448	17,752.4	51.7967	17,752.4	64.4767	17,752.4	55.6916	17,752.4	65.0688	17,752.4	49.9297	17,752.4	60.3045	17,752.4	53.7066	17,752.4	52.9205	17,752.4	45.3629	17,752.4	39.3222	17,752.4	51.4653	17,752.4	43.3131	17,752.4	48.7085	17,752.4	43.5458	17,752.4	49.9546	17,752.4	45.0438	17,752.4	45.3296	17,752.4	42.5259	17,752.4	48.19	17,752.4	44.5103	17,752.4	50.699	17,752.4	53.315	17,752.4	51.6033	17,752.4	52.5863	17,752.4	53.6208
18,379.4	82.5659	18,379.4	81.4294	18,379.4	80.875	18,379.4	77.3066	18,379.4	76.329	18,379.4	72.3104	18,379.4	72.7594	18,379.4	62.7584	18,379.4	66.0676	18,379.4	57.3705	18,379.4	65.7966	18,379.4	52.1826	18,379.4	65.2121	18,379.4	56.4568	18,379.4	64.856	18,379.4	44.5769	18,379.4	59.2434	18,379.4	46.6575	18,379.4	51.7805	18,379.4	40.315	18,379.4	22.7665	18,379.4	49.1302	18,379.4	44.1498	18,379.4	49.7515	18,379.4	40.6306	18,379.4	25.1245	18,379.4	48.6002	18,379.4	43.6094	18,379.4	45.748	18,379.4	48.0801	18,379.4	47.7424	18,379.4	51.7365	18,379.4	51.6683	18,379.4	53.1819	18,379.4	52.6096	18,379.4	55.0651
19,026.9	81.6965	19,026.9	80.4092	19,026.9	79.5551	19,026.9	75.2058	19,026.9	73.8567	19,026.9	69.7963	19,026.9	71.3671	19,026.9	59.8878	19,026.9	62.607	19,026.9	56.2121	19,026.9	64.582	19,026.9	58.5804	19,026.9	64.3995	19,026.9	52.767	19,026.9	63.273	19,026.9	41.0799	19,026.9	56.4282	19,026.9	47.8266	19,026.9	48.9552	19,026.9	40.5925	19,026.9	26.2339	19,026.9	41.3017	19,026.9	43.5898	19,026.9	50.6256	19,026.9	37.6937	19,026.9	42.4308	19,026.9	46.2951	19,026.9	40.9336	19,026.9	44.2096	19,026.9	49.7006	19,026.9	46.4715	19,026.9	49.2674	19,026.9	52.389	19,026.9	53.5943	19,026.9	53.5461	19,026.9	55.6687
19,697.8	80.2476	19,697.8	78.6629	19,697.8	77.6978	19,697.8	72.2221	19,697.8	72.3665	19,697.8	67.6941	19,697.8	70.6936	19,697.8	60.4511	19,697.8	62.2954	19,697.8	58.5992	19,697.8	61.6016	19,697.8	57.2079	19,697.8	61.0274	19,697.8	49.6911	19,697.8	59.94	19,697.8	46.4936	19,697.8	53.5512	19,697.8	49.3816	19,697.8	47.6345	19,697.8	41.2414	19,697.8	39.3373	19,697.8	38.2699	19,697.8	40.667	19,697.8	53.1192	19,697.8	36.292	19,697.8	31.8958	19,697.8	43.7055	19,697.8	33.9857	19,697.8	41.679	19,697.8	49.6368	19,697.8	47.183	19,697.8	47.4294	19,697.8	49.168	19,697.8	52.3363	19,697.8	53.3658	19,697.8	54.9714
19,999.5	79.639	19,999.5	77.7714	19,999.5	76.9855	19,999.5	71.5304	19,999.5	71.4567	19,999.5	67.0869	19,999.5	69.9878	19,999.5	58.5347	19,999.5	63.0457	19,999.5	58.2623	19,999.5	61.3072	19,999.5	55.181	19,999.5	59.9847	19,999.5	50.6846	19,999.5	59.1389	19,999.5	49.7867	19,999.5	48.4029	19,999.5	50.1095	19,999.5	47.6896	19,999.5	40.5136	19,999.5	38.2922	19,999.5	40.1968	19,999.5	45.3851	19,999.5	52.3504	19,999.5	39.6616	19,999.5	47.81	19,999.5	41.0607	19,999.5	46.6331	19,999.5	35.7093	19,999.5	52.6719	19,999.5	41.8365	19,999.5	48.5246	19,999.5	48.4504	19,999.5	52.876	19,999.5	53.1885	19,999.5	53.8766
