"SPL Vertical"
"On-Axis"		"10°"		"-10°"		"20°"		"-20°"		"30°"		"-30°"		"40°"		"-40°"		"50°"		"-50°"		"60°"		"-60°"		"70°"		"-70°"		"80°"		"-80°"		"90°"		"-90°"		"100°"		"-100°"		"110°"		"-110°"		"120°"		"-120°"		"130°"		"-130°"		"140°"		"-140°"		"150°"		"-150°"		"160°"		"-160°"		"170°"		"-170°"		"180°"
"Frequency [Hz]"	"Sound Pessure Level [dB]   [2.83  V @ 1. m]"	"Frequency [Hz]"	"Sound Pessure Level [dB]   [2.83  V @ 1. m]"	"Frequency [Hz]"	"Sound Pessure Level [dB]   [2.83  V @ 1. m]"	"Frequency [Hz]"	"Sound Pessure Level [dB]   [2.83  V @ 1. m]"	"Frequency [Hz]"	"Sound Pessure Level [dB]   [2.83  V @ 1. m]"	"Frequency [Hz]"	"Sound Pessure Level [dB]   [2.83  V @ 1. m]"	"Frequency [Hz]"	"Sound Pessure Level [dB]   [2.83  V @ 1. m]"	"Frequency [Hz]"	"Sound Pessure Level [dB]   [2.83  V @ 1. m]"	"Frequency [Hz]"	"Sound Pessure Level [dB]   [2.83  V @ 1. m]"	"Frequency [Hz]"	"Sound Pessure Level [dB]   [2.83  V @ 1. m]"	"Frequency [Hz]"	"Sound Pessure Level [dB]   [2.83  V @ 1. m]"	"Frequency [Hz]"	"Sound Pessure Level [dB]   [2.83  V @ 1. m]"	"Frequency [Hz]"	"Sound Pessure Level [dB]   [2.83  V @ 1. m]"	"Frequency [Hz]"	"Sound Pessure Level [dB]   [2.83  V @ 1. m]"	"Frequency [Hz]"	"Sound Pessure Level [dB]   [2.83  V @ 1. m]"	"Frequency [Hz]"	"Sound Pessure Level [dB]   [2.83  V @ 1. m]"	"Frequency [Hz]"	"Sound Pessure Level [dB]   [2.83  V @ 1. m]"	"Frequency [Hz]"	"Sound Pessure Level [dB]   [2.83  V @ 1. m]"	"Frequency [Hz]"	"Sound Pessure Level [dB]   [2.83  V @ 1. m]"	"Frequency [Hz]"	"Sound Pessure Level [dB]   [2.83  V @ 1. m]"	"Frequency [Hz]"	"Sound Pessure Level [dB]   [2.83  V @ 1. m]"	"Frequency [Hz]"	"Sound Pessure Level [dB]   [2.83  V @ 1. m]"	"Frequency [Hz]"	"Sound Pessure Level [dB]   [2.83  V @ 1. m]"	"Frequency [Hz]"	"Sound Pessure Level [dB]   [2.83  V @ 1. m]"	"Frequency [Hz]"	"Sound Pessure Level [dB]   [2.83  V @ 1. m]"	"Frequency [Hz]"	"Sound Pessure Level [dB]   [2.83  V @ 1. m]"	"Frequency [Hz]"	"Sound Pessure Level [dB]   [2.83  V @ 1. m]"	"Frequency [Hz]"	"Sound Pessure Level [dB]   [2.83  V @ 1. m]"	"Frequency [Hz]"	"Sound Pessure Level [dB]   [2.83  V @ 1. m]"	"Frequency [Hz]"	"Sound Pessure Level [dB]   [2.83  V @ 1. m]"	"Frequency [Hz]"	"Sound Pessure Level [dB]   [2.83  V @ 1. m]"	"Frequency [Hz]"	"Sound Pessure Level [dB]   [2.83  V @ 1. m]"	"Frequency [Hz]"	"Sound Pessure Level [dB]   [2.83  V @ 1. m]"	"Frequency [Hz]"	"Sound Pessure Level [dB]   [2.83  V @ 1. m]"	"Frequency [Hz]"	"Sound Pessure Level [dB]   [2.83  V @ 1. m]"	"Frequency [Hz]"	"Sound Pessure Level [dB]   [2.83  V @ 1. m]"
20.5078	59.5401	20.5078	59.533	20.5078	59.5477	20.5078	59.5263	20.5078	59.5559	20.5078	59.5199	20.5078	59.5648	20.5078	59.5138	20.5078	59.5741	20.5078	59.5082	20.5078	59.5836	20.5078	59.5034	20.5078	59.5932	20.5078	59.4999	20.5078	59.6024	20.5078	59.4983	20.5078	59.6114	20.5078	59.4994	20.5078	59.62	20.5078	59.5038	20.5078	59.6284	20.5078	59.5121	20.5078	59.6366	20.5078	59.5246	20.5078	59.6444	20.5078	59.541	20.5078	59.6514	20.5078	59.5608	20.5078	59.6566	20.5078	59.5824	20.5078	59.6591	20.5078	59.604	20.5078	59.6577	20.5078	59.6238	20.5078	59.6515	20.5078	59.6401
21.9727	63.8364	21.9727	63.8338	21.9727	63.8384	21.9727	63.8306	21.9727	63.8398	21.9727	63.8266	21.9727	63.8408	21.9727	63.8219	21.9727	63.8413	21.9727	63.8165	21.9727	63.8413	21.9727	63.8106	21.9727	63.8409	21.9727	63.8045	21.9727	63.8399	21.9727	63.7984	21.9727	63.8385	21.9727	63.7931	21.9727	63.8367	21.9727	63.7888	21.9727	63.8348	21.9727	63.7862	21.9727	63.8328	21.9727	63.7857	21.9727	63.8309	21.9727	63.7872	21.9727	63.8292	21.9727	63.7908	21.9727	63.8274	21.9727	63.796	21.9727	63.8254	21.9727	63.8021	21.9727	63.8227	21.9727	63.8084	21.9727	63.819	21.9727	63.8141
23.4375	66.5758	23.4375	66.566	23.4375	66.582	23.4375	66.5526	23.4375	66.5847	23.4375	66.5358	23.4375	66.584	23.4375	66.5159	23.4375	66.5801	23.4375	66.4932	23.4375	66.5729	23.4375	66.4684	23.4375	66.5625	23.4375	66.4424	23.4375	66.5491	23.4375	66.4162	23.4375	66.5329	23.4375	66.3907	23.4375	66.5142	23.4375	66.3671	23.4375	66.4935	23.4375	66.3466	23.4375	66.4715	23.4375	66.33	23.4375	66.4487	23.4375	66.3181	23.4375	66.4258	23.4375	66.3112	23.4375	66.4036	23.4375	66.3095	23.4375	66.3825	23.4375	66.3127	23.4375	66.3632	23.4375	66.3202	23.4375	66.346	23.4375	66.3315
24.9023	69.2396	24.9023	69.2314	24.9023	69.2419	24.9023	69.2176	24.9023	69.2379	24.9023	69.1987	24.9023	69.2276	24.9023	69.1752	24.9023	69.2112	24.9023	69.1478	24.9023	69.1889	24.9023	69.1171	24.9023	69.1615	24.9023	69.0839	24.9023	69.1296	24.9023	69.0491	24.9023	69.0942	24.9023	69.0135	24.9023	69.0566	24.9023	68.9783	24.9023	69.0181	24.9023	68.9445	24.9023	68.98	24.9023	68.9132	24.9023	68.9438	24.9023	68.8854	24.9023	68.9107	24.9023	68.8618	24.9023	68.8819	24.9023	68.8434	24.9023	68.8582	24.9023	68.8305	24.9023	68.8403	24.9023	68.8236	24.9023	68.8284	24.9023	68.8229
26.3672	71.5917	26.3672	71.5847	26.3672	71.5923	26.3672	71.5714	26.3672	71.5863	26.3672	71.5522	26.3672	71.5736	26.3672	71.5274	26.3672	71.5542	26.3672	71.4973	26.3672	71.5285	26.3672	71.4625	26.3672	71.4968	26.3672	71.4237	26.3672	71.4599	26.3672	71.3817	26.3672	71.4186	26.3672	71.3377	26.3672	71.3741	26.3672	71.2928	26.3672	71.3278	26.3672	71.2485	26.3672	71.2813	26.3672	71.2063	26.3672	71.236	26.3672	71.1678	26.3672	71.1938	26.3672	71.1344	26.3672	71.156	26.3672	71.1075	26.3672	71.1243	26.3672	71.0882	26.3672	71.0997	26.3672	71.0776	26.3672	71.0834	26.3672	71.0759
27.832	73.4944	27.832	73.4876	27.832	73.4933	27.832	73.4733	27.832	73.4843	27.832	73.4516	27.832	73.4676	27.832	73.423	27.832	73.4433	27.832	73.388	27.832	73.4119	27.832	73.3472	27.832	73.3738	27.832	73.3017	27.832	73.33	27.832	73.2524	27.832	73.2816	27.832	73.2008	27.832	73.2299	27.832	73.1483	27.832	73.1764	27.832	73.0965	27.832	73.1228	27.832	73.0471	27.832	73.0711	27.832	73.002	27.832	73.0229	27.832	72.9628	27.832	72.9802	27.832	72.9311	27.832	72.9445	27.832	72.9081	27.832	72.9173	27.832	72.8949	27.832	72.8995	27.832	72.892
29.2969	75.1747	29.2969	75.1651	29.2969	75.1761	29.2969	75.1474	29.2969	75.1689	29.2969	75.1222	29.2969	75.1533	29.2969	75.0898	29.2969	75.1294	29.2969	75.051	29.2969	75.0975	29.2969	75.0066	29.2969	75.0583	29.2969	74.9574	29.2969	75.0126	29.2969	74.9048	29.2969	74.9617	29.2969	74.85	29.2969	74.907	29.2969	74.7947	29.2969	74.8501	29.2969	74.7406	29.2969	74.7928	29.2969	74.6895	29.2969	74.7372	29.2969	74.6433	29.2969	74.685	29.2969	74.6035	29.2969	74.6384	29.2969	74.5719	29.2969	74.5989	29.2969	74.5497	29.2969	74.5681	29.2969	74.5379	29.2969	74.5473	29.2969	74.5371
30.7617	76.6463	30.7617	76.6381	30.7617	76.6451	30.7617	76.6207	30.7617	76.6346	30.7617	76.5945	30.7617	76.615	30.7617	76.56	30.7617	76.5867	30.7617	76.518	30.7617	76.5503	30.7617	76.4696	30.7617	76.5067	30.7617	76.4159	30.7617	76.4569	30.7617	76.3586	30.7617	76.4023	30.7617	76.2991	30.7617	76.3445	30.7617	76.2394	30.7617	76.285	30.7617	76.1813	30.7617	76.2257	30.7617	76.1268	30.7617	76.1686	30.7617	76.0777	30.7617	76.1155	30.7617	76.0359	30.7617	76.0682	30.7617	76.0028	30.7617	76.0284	30.7617	75.9797	30.7617	75.9975	30.7617	75.9674	30.7617	75.9765	30.7617	75.9663
32.2266	77.8658	32.2266	77.8582	32.2266	77.863	32.2266	77.8404	32.2266	77.8499	32.2266	77.8128	32.2266	77.8266	32.2266	77.776	32.2266	77.7937	32.2266	77.7309	32.2266	77.7517	32.2266	77.6785	32.2266	77.7017	32.2266	77.6202	32.2266	77.6448	32.2266	77.5575	32.2266	77.5825	32.2266	77.492	32.2266	77.5166	32.2266	77.4257	32.2266	77.4489	32.2266	77.3606	32.2266	77.3817	32.2266	77.2987	32.2266	77.3172	32.2266	77.2421	32.2266	77.2577	32.2266	77.1928	32.2266	77.2053	32.2266	77.1525	32.2266	77.1619	32.2266	77.123	32.2266	77.1292	32.2266	77.1054	32.2266	77.1085	32.2266	77.1004
33.6914	78.828	33.6914	78.8177	33.6914	78.8272	33.6914	78.7966	33.6914	78.8153	33.6914	78.7653	33.6914	78.7924	33.6914	78.7244	33.6914	78.7591	33.6914	78.675	33.6914	78.716	33.6914	78.6182	33.6914	78.6643	33.6914	78.5557	33.6914	78.6052	33.6914	78.4891	33.6914	78.5403	33.6914	78.4202	33.6914	78.4717	33.6914	78.3513	33.6914	78.4014	33.6914	78.2844	33.6914	78.3317	33.6914	78.2217	33.6914	78.2649	33.6914	78.1653	33.6914	78.2032	33.6914	78.1171	33.6914	78.1487	33.6914	78.0788	33.6914	78.1033	33.6914	78.0517	33.6914	78.0684	33.6914	78.0368	33.6914	78.0453	33.6914	78.0346
35.1562	79.7291	35.1562	79.7193	35.1562	79.7268	35.1562	79.6978	35.1562	79.7124	35.1562	79.665	35.1562	79.6863	35.1562	79.6218	35.1562	79.6488	35.1562	79.5691	35.1562	79.6008	35.1562	79.5082	35.1562	79.5435	35.1562	79.4407	35.1562	79.4784	35.1562	79.3684	35.1562	79.4071	35.1562	79.2934	35.1562	79.3317	35.1562	79.2177	35.1562	79.2546	35.1562	79.1438	35.1562	79.1781	35.1562	79.0739	35.1562	79.1048	35.1562	79.0104	35.1562	79.0372	35.1562	78.9554	35.1562	78.9776	35.1562	78.9111	35.1562	78.9281	35.1562	78.879	35.1562	78.8905	35.1562	78.8604	35.1562	78.8662	35.1562	78.856
36.6211	80.4357	36.6211	80.4269	36.6211	80.432	36.6211	80.4059	36.6211	80.4158	36.6211	80.3732	36.6211	80.3875	36.6211	80.3297	36.6211	80.3478	36.6211	80.2764	36.6211	80.2975	36.6211	80.2148	36.6211	80.238	36.6211	80.1465	36.6211	80.171	36.6211	80.0734	36.6211	80.0982	36.6211	79.9977	36.6211	80.0219	36.6211	79.9215	36.6211	79.9445	36.6211	79.8473	36.6211	79.8685	36.6211	79.7773	36.6211	79.7962	36.6211	79.7139	36.6211	79.7301	36.6211	79.6591	36.6211	79.6724	36.6211	79.6148	36.6211	79.625	36.6211	79.5826	36.6211	79.5894	36.6211	79.5635	36.6211	79.5669	36.6211	79.5582
38.0859	81.0159	38.0859	81.0052	38.0859	81.0132	38.0859	80.9816	38.0859	80.9972	38.0859	80.9456	38.0859	80.9683	38.0859	80.8982	38.0859	80.9272	38.0859	80.8408	38.0859	80.8748	38.0859	80.7748	38.0859	80.8127	38.0859	80.7022	38.0859	80.7425	38.0859	80.6251	38.0859	80.6664	38.0859	80.5456	38.0859	80.5866	38.0859	80.4662	38.0859	80.5057	38.0859	80.3894	38.0859	80.4262	38.0859	80.3176	38.0859	80.3508	38.0859	80.253	38.0859	80.2818	38.0859	80.1977	38.0859	80.2215	38.0859	80.1535	38.0859	80.1718	38.0859	80.1218	38.0859	80.1342	38.0859	80.1036	38.0859	80.1099	38.0859	80.0996
39.5508	81.5763	39.5508	81.567	39.5508	81.5719	39.5508	81.5444	39.5508	81.554	39.5508	81.509	39.5508	81.5231	39.5508	81.4616	39.5508	81.4799	39.5508	81.4036	39.5508	81.4255	39.5508	81.3365	39.5508	81.3615	39.5508	81.2623	39.5508	81.2896	39.5508	81.1831	39.5508	81.212	39.5508	81.1014	39.5508	81.1309	39.5508	81.0196	39.5508	81.0489	39.5508	80.9404	39.5508	80.9686	39.5508	80.8663	39.5508	80.8926	39.5508	80.7996	39.5508	80.8232	39.5508	80.7425	39.5508	80.7626	39.5508	80.6969	39.5508	80.7127	39.5508	80.6641	39.5508	80.6751	39.5508	80.6452	39.5508	80.6508	39.5508	80.6408
41.0156	82.0292	41.0156	82.0196	41.0156	82.0239	41.0156	81.9953	41.0156	82.004	41.0156	81.9568	41.0156	81.9697	41.0156	81.905	41.0156	81.9218	41.0156	81.8412	41.0156	81.8616	41.0156	81.767	41.0156	81.7905	41.0156	81.6844	41.0156	81.7104	41.0156	81.5957	41.0156	81.6235	41.0156	81.5035	41.0156	81.5324	41.0156	81.4105	41.0156	81.4399	41.0156	81.3198	41.0156	81.3488	41.0156	81.2344	41.0156	81.2621	41.0156	81.1569	41.0156	81.1825	41.0156	81.0903	41.0156	81.1127	41.0156	81.0368	41.0156	81.0549	41.0156	80.9982	41.0156	81.011	41.0156	80.976	41.0156	80.9826	41.0156	80.9707
42.4805	82.6774	42.4805	82.6702	42.4805	82.6712	42.4805	82.6499	42.4805	82.6519	42.4805	82.617	42.4805	82.6198	42.4805	82.5725	42.4805	82.5756	42.4805	82.5174	42.4805	82.5205	42.4805	82.4534	42.4805	82.4559	42.4805	82.3821	42.4805	82.3838	42.4805	82.3058	42.4805	82.3062	42.4805	82.2268	42.4805	82.2257	42.4805	82.1474	42.4805	82.1447	42.4805	82.0703	42.4805	82.0661	42.4805	81.9977	42.4805	81.9923	42.4805	81.9319	42.4805	81.9257	42.4805	81.875	42.4805	81.8687	42.4805	81.8284	42.4805	81.8228	42.4805	81.7938	42.4805	81.7895	42.4805	81.772	42.4805	81.7697	42.4805	81.7639
43.9453	82.9315	43.9453	82.9209	43.9453	82.9279	43.9453	82.8965	43.9453	82.9102	43.9453	82.8589	43.9453	82.879	43.9453	82.8091	43.9453	82.835	43.9453	82.7485	43.9453	82.7795	43.9453	82.679	43.9453	82.7141	43.9453	82.6027	43.9453	82.6409	43.9453	82.5219	43.9453	82.5622	43.9453	82.4394	43.9453	82.4804	43.9453	82.3576	43.9453	82.3982	43.9453	82.2794	43.9453	82.3183	43.9453	82.2071	43.9453	82.2431	43.9453	82.1429	43.9453	82.175	43.9453	82.0888	43.9453	82.1159	43.9453	82.0462	43.9453	82.0673	43.9453	82.0161	43.9453	82.0307	43.9453	81.9994	43.9453	82.0068	43.9453	81.9963
45.4102	83.1933	45.4102	83.1812	45.4102	83.1909	45.4102	83.1549	45.4102	83.174	45.4102	83.1152	45.4102	83.1433	45.4102	83.0633	45.4102	83.0996	45.4102	83.0006	45.4102	83.0442	45.4102	82.9291	45.4102	82.9789	45.4102	82.8512	45.4102	82.9059	45.4102	82.7693	45.4102	82.8275	45.4102	82.6862	45.4102	82.7463	45.4102	82.6047	45.4102	82.6649	45.4102	82.5274	45.4102	82.586	45.4102	82.4569	45.4102	82.512	45.4102	82.3952	45.4102	82.4449	45.4102	82.344	45.4102	82.3865	45.4102	82.3047	45.4102	82.3382	45.4102	82.278	45.4102	82.3012	45.4102	82.2643	45.4102	82.2761	45.4102	82.2637
46.875	83.4272	46.875	83.4166	46.875	83.4231	46.875	83.3915	46.875	83.4043	46.875	83.3526	46.875	83.3716	46.875	83.3011	46.875	83.3259	46.875	83.2386	46.875	83.2686	46.875	83.1671	46.875	83.2016	46.875	83.0889	46.875	83.1272	46.875	83.0067	46.875	83.0479	46.875	82.9233	46.875	82.9663	46.875	82.8415	46.875	82.8851	46.875	82.7642	46.875	82.807	46.875	82.6936	46.875	82.7343	46.875	82.632	46.875	82.669	46.875	82.5808	46.875	82.6128	46.875	82.5413	46.875	82.5667	46.875	82.5142	46.875	82.5319	46.875	82.4997	46.875	82.5088	46.875	82.498
48.3398	83.68	48.3398	83.6675	48.3398	83.6771	48.3398	83.6401	48.3398	83.659	48.3398	83.5984	48.3398	83.6264	48.3398	83.5437	48.3398	83.5803	48.3398	83.4779	48.3398	83.5223	48.3398	83.4031	48.3398	83.4543	48.3398	83.3219	48.3398	83.3788	48.3398	83.2371	48.3398	83.2984	48.3398	83.1517	48.3398	83.2157	48.3398	83.0687	48.3398	83.1337	48.3398	82.9908	48.3398	83.0547	48.3398	82.9206	48.3398	82.9813	48.3398	82.86	48.3398	82.9152	48.3398	82.8106	48.3398	82.8581	48.3398	82.7732	48.3398	82.811	48.3398	82.7485	48.3398	82.7748	48.3398	82.7365	48.3398	82.75	48.3398	82.7371
51.2695	84.0628	51.2695	84.0477	51.2695	84.0616	51.2695	84.0167	51.2695	84.0442	51.2695	83.9707	51.2695	84.0112	51.2695	83.9114	51.2695	83.9638	51.2695	83.8406	51.2695	83.9039	51.2695	83.7608	51.2695	83.8335	51.2695	83.6749	51.2695	83.7554	51.2695	83.5858	51.2695	83.6723	51.2695	83.4969	51.2695	83.5874	51.2695	83.4114	51.2695	83.5035	51.2695	83.3323	51.2695	83.4232	51.2695	83.2621	51.2695	83.3489	51.2695	83.203	51.2695	83.2823	51.2695	83.1562	51.2695	83.2247	51.2695	83.1223	51.2695	83.1769	51.2695	83.1014	51.2695	83.1394	51.2695	83.0932	51.2695	83.1127	51.2695	83.0972
52.7344	84.3046	52.7344	84.2916	52.7344	84.3005	52.7344	84.262	52.7344	84.2796	52.7344	84.2168	52.7344	84.2427	52.7344	84.1574	52.7344	84.1913	52.7344	84.0861	52.7344	84.1274	52.7344	84.0053	52.7344	84.0534	52.7344	83.9182	52.7344	83.9721	52.7344	83.8278	52.7344	83.8867	52.7344	83.7377	52.7344	83.8002	52.7344	83.6512	52.7344	83.7158	52.7344	83.5714	52.7344	83.6362	52.7344	83.5008	52.7344	83.5634	52.7344	83.4414	52.7344	83.4993	52.7344	83.3943	52.7344	83.4448	52.7344	83.3599	52.7344	83.4005	52.7344	83.3382	52.7344	83.3666	52.7344	83.3286	52.7344	83.3432	52.7344	83.3304
54.1992	84.473	54.1992	84.4644	54.1992	84.4636	54.1992	84.4378	54.1992	84.4365	54.1992	84.3943	54.1992	84.3929	54.1992	84.3354	54.1992	84.3343	54.1992	84.2632	54.1992	84.263	54.1992	84.1805	54.1992	84.1818	54.1992	84.0905	54.1992	84.0937	54.1992	83.9966	54.1992	84.0021	54.1992	83.9024	54.1992	83.9105	54.1992	83.8115	54.1992	83.8221	54.1992	83.7271	54.1992	83.74	54.1992	83.6519	54.1992	83.6664	54.1992	83.5878	54.1992	83.6029	54.1992	83.536	54.1992	83.5505	54.1992	83.4969	54.1992	83.5094	54.1992	83.4704	54.1992	83.4796	54.1992	83.4559	54.1992	83.4608	54.1992	83.4529
55.6641	84.623	55.6641	84.6135	55.6641	84.6145	55.6641	84.5862	55.6641	84.5883	55.6641	84.5419	55.6641	84.5456	55.6641	84.4821	55.6641	84.4877	55.6641	84.4089	55.6641	84.4169	55.6641	84.3249	55.6641	84.3357	55.6641	84.2333	55.6641	84.2471	55.6641	84.1375	55.6641	84.1543	55.6641	84.0411	55.6641	84.0607	55.6641	83.9479	55.6641	83.9696	55.6641	83.8609	55.6641	83.884	55.6641	83.7831	55.6641	83.8065	55.6641	83.7165	55.6641	83.7389	55.6641	83.6623	55.6641	83.6824	55.6641	83.6212	55.6641	83.6376	55.6641	83.5932	55.6641	83.6048	55.6641	83.5779	55.6641	83.5839	55.6641	83.5749
58.5938	84.8317	58.5938	84.816	58.5938	84.8289	58.5938	84.7823	58.5938	84.8077	58.5938	84.7317	58.5938	84.7688	58.5938	84.6659	58.5938	84.7137	58.5938	84.5873	58.5938	84.6444	58.5938	84.4987	58.5938	84.5638	58.5938	84.4032	58.5938	84.4749	58.5938	84.3046	58.5938	84.3812	58.5938	84.2066	58.5938	84.2864	58.5938	84.1128	58.5938	84.194	58.5938	84.0266	58.5938	84.107	58.5938	83.9507	58.5938	84.0278	58.5938	83.8874	58.5938	83.9583	58.5938	83.8377	58.5938	83.8993	58.5938	83.802	58.5938	83.8514	58.5938	83.78	58.5938	83.8146	58.5938	83.771	58.5938	83.7889	58.5938	83.7742
60.0586	85.0009	60.0586	84.9872	60.0586	84.9957	60.0586	84.9551	60.0586	84.9717	60.0586	84.9056	60.0586	84.9298	60.0586	84.8404	60.0586	84.8714	60.0586	84.7619	60.0586	84.7989	60.0586	84.6728	60.0586	84.7149	60.0586	84.5765	60.0586	84.6227	60.0586	84.4764	60.0586	84.5258	60.0586	84.3763	60.0586	84.4279	60.0586	84.2797	60.0586	84.3325	60.0586	84.19	60.0586	84.2426	60.0586	84.11	60.0586	84.1607	60.0586	84.0418	60.0586	84.0888	60.0586	83.9868	60.0586	84.028	60.0586	83.9457	60.0586	83.979	60.0586	83.9185	60.0586	83.942	60.0586	83.9051	60.0586	83.9172	60.0586	83.9048
62.9883	85.169	62.9883	85.1535	62.9883	85.1654	62.9883	85.1195	62.9883	85.1428	62.9883	85.0684	62.9883	85.1023	62.9883	85.0023	62.9883	85.0458	62.9883	84.9241	62.9883	84.9757	62.9883	84.837	62.9883	84.8951	62.9883	84.7449	62.9883	84.8078	62.9883	84.6514	62.9883	84.7173	62.9883	84.5605	62.9883	84.6276	62.9883	84.4755	62.9883	84.5419	62.9883	84.3994	62.9883	84.4631	62.9883	84.3341	62.9883	84.3933	62.9883	84.2809	62.9883	84.3337	62.9883	84.24	62.9883	84.2848	62.9883	84.2112	62.9883	84.2462	62.9883	84.1934	62.9883	84.2175	62.9883	84.1858	62.9883	84.1981	62.9883	84.1875
64.4531	85.2536	64.4531	85.237	64.4531	85.2502	64.4531	85.2011	64.4531	85.2271	64.4531	85.1473	64.4531	85.1855	64.4531	85.078	64.4531	85.1273	64.4531	84.9961	64.4531	85.0553	64.4531	84.9052	64.4531	84.9728	64.4531	84.8094	64.4531	84.8837	64.4531	84.7127	64.4531	84.7918	64.4531	84.6194	64.4531	84.7012	64.4531	84.533	64.4531	84.6152	64.4531	84.4566	64.4531	84.5368	64.4531	84.3923	64.4531	84.4678	64.4531	84.3411	64.4531	84.4092	64.4531	84.3031	64.4531	84.3612	64.4531	84.2776	64.4531	84.3234	64.4531	84.2632	64.4531	84.2948	64.4531	84.2586	64.4531	84.2747	64.4531	84.2626
67.3828	85.3136	67.3828	85.2972	67.3828	85.31	67.3828	85.2614	67.3828	85.2868	67.3828	85.2077	67.3828	85.2451	67.3828	85.1383	67.3828	85.187	67.3828	85.0565	67.3828	85.1156	67.3828	84.9659	67.3828	85.0342	67.3828	84.8707	67.3828	84.9469	67.3828	84.7753	67.3828	84.8578	67.3828	84.6842	67.3828	84.771	67.3828	84.6011	67.3828	84.6899	67.3828	84.5293	67.3828	84.6172	67.3828	84.4707	67.3828	84.5546	67.3828	84.426	67.3828	84.5026	67.3828	84.3949	67.3828	84.461	67.3828	84.3761	67.3828	84.4285	67.3828	84.3675	67.3828	84.4039	67.3828	84.3672	67.3828	84.3858	67.3828	84.3736
68.8477	85.3874	68.8477	85.3689	68.8477	85.3854	68.8477	85.3304	68.8477	85.3633	68.8477	85.2734	68.8477	85.3224	68.8477	85.2003	68.8477	85.2649	68.8477	85.1142	68.8477	85.1938	68.8477	85.0191	68.8477	85.1125	68.8477	84.9195	68.8477	85.0252	68.8477	84.8201	68.8477	84.936	68.8477	84.7259	68.8477	84.849	68.8477	84.641	68.8477	84.7678	68.8477	84.5687	68.8477	84.695	68.8477	84.5113	68.8477	84.6323	68.8477	84.4694	68.8477	84.58	68.8477	84.4423	68.8477	84.5377	68.8477	84.4283	68.8477	84.504	68.8477	84.4248	68.8477	84.4774	68.8477	84.4296	68.8477	84.4565	68.8477	84.4405
71.7773	85.6492	71.7773	85.6304	71.7773	85.6458	71.7773	85.5898	71.7773	85.6208	71.7773	85.5287	71.7773	85.5755	71.7773	85.4494	71.7773	85.5125	71.7773	85.3553	71.7773	85.4349	71.7773	85.2504	71.7773	85.3467	71.7773	85.1394	71.7773	85.2522	71.7773	85.0276	71.7773	85.1559	71.7773	84.9203	71.7773	85.062	71.7773	84.8225	71.7773	84.9742	71.7773	84.7384	71.7773	84.8952	71.7773	84.671	71.7773	84.8265	71.7773	84.6216	71.7773	84.7683	71.7773	84.59	71.7773	84.7199	71.7773	84.5744	71.7773	84.6799	71.7773	84.5723	71.7773	84.6467	71.7773	84.5807	71.7773	84.6192	71.7773	84.5969
74.707	85.7888	74.707	85.7743	74.707	85.7796	74.707	85.7365	74.707	85.7474	74.707	85.6768	74.707	85.6939	74.707	85.5977	74.707	85.6217	74.707	85.5024	74.707	85.5345	74.707	85.3952	74.707	85.4366	74.707	85.281	74.707	85.3329	74.707	85.1652	74.707	85.2284	74.707	85.0532	74.707	85.1278	74.707	84.9502	74.707	85.0352	74.707	84.8606	74.707	84.9535	74.707	84.7875	74.707	84.8844	74.707	84.7323	74.707	84.8277	74.707	84.695	74.707	84.7825	74.707	84.6739	74.707	84.7469	74.707	84.6663	74.707	84.7189	74.707	84.6693	74.707	84.6968	74.707	84.6801
77.6367	85.9247	77.6367	85.9097	77.6367	85.9154	77.6367	85.8707	77.6367	85.8823	77.6367	85.8094	77.6367	85.8272	77.6367	85.7284	77.6367	85.7528	77.6367	85.6313	77.6367	85.6631	77.6367	85.5226	77.6367	85.5625	77.6367	85.4072	77.6367	85.4563	77.6367	85.2909	77.6367	85.3498	77.6367	85.179	77.6367	85.2479	77.6367	85.0768	77.6367	85.1549	77.6367	84.9884	77.6367	85.0738	77.6367	84.9168	77.6367	85.0058	77.6367	84.8633	77.6367	84.951	77.6367	84.8273	77.6367	84.908	77.6367	84.8073	77.6367	84.8747	77.6367	84.8002	77.6367	84.8488	77.6367	84.803	77.6367	84.8285	77.6367	84.8131
79.1016	85.9678	79.1016	85.9537	79.1016	85.9569	79.1016	85.9152	79.1016	85.9219	79.1016	85.8541	79.1016	85.8645	79.1016	85.7729	79.1016	85.7877	79.1016	85.6756	79.1016	85.6955	79.1016	85.5667	79.1016	85.5928	79.1016	85.4515	79.1016	85.4849	79.1016	85.3358	79.1016	85.3775	79.1016	85.225	79.1016	85.2758	79.1016	85.1245	79.1016	85.184	79.1016	85.0383	79.1016	85.1052	79.1016	84.9692	79.1016	85.0406	79.1016	84.9182	79.1016	84.9899	79.1016	84.8846	79.1016	84.9514	79.1016	84.8661	79.1016	84.9226	79.1016	84.8598	79.1016	84.9008	79.1016	84.8624	79.1016	84.8839	79.1016	84.871
82.0312	85.956	82.0312	85.9431	82.0312	85.9432	82.0312	85.9053	82.0312	85.9056	82.0312	85.8441	82.0312	85.845	82.0312	85.7627	82.0312	85.7647	82.0312	85.665	82.0312	85.6691	82.0312	85.5561	82.0312	85.5634	82.0312	85.4415	82.0312	85.4537	82.0312	85.3274	82.0312	85.3459	82.0312	85.2196	82.0312	85.2457	82.0312	85.1233	82.0312	85.1574	82.0312	85.0426	82.0312	85.0841	82.0312	84.9798	82.0312	85.0267	82.0312	84.9352	82.0312	84.9844	82.0312	84.9076	82.0312	84.9548	82.0312	84.8939	82.0312	84.9345	82.0312	84.8906	82.0312	84.9204	82.0312	84.8939	82.0312	84.9097	82.0312	84.9008
84.9609	86.0135	84.9609	86.0004	84.9609	85.9984	84.9609	85.9597	84.9609	85.9561	84.9609	85.8933	84.9609	85.8893	84.9609	85.8047	84.9609	85.8017	84.9609	85.6986	84.9609	85.6987	84.9609	85.5809	84.9609	85.5863	84.9609	85.4582	84.9609	85.4714	84.9609	85.3377	84.9609	85.3607	84.9609	85.2262	84.9609	85.2606	84.9609	85.1298	84.9609	85.1758	84.9609	85.053	84.9609	85.1093	84.9609	84.998	84.9609	85.0614	84.9609	84.9645	84.9609	85.0303	84.9609	84.9497	84.9609	85.0123	84.9609	84.9492	84.9609	85.0026	84.9609	84.9575	84.9609	84.9965	84.9609	84.9695	84.9609	84.9901	84.9609	84.9811
87.8906	86.116	87.8906	86.1011	87.8906	86.1021	87.8906	86.0577	87.8906	86.0604	87.8906	85.9876	87.8906	85.993	87.8906	85.8941	87.8906	85.9038	87.8906	85.7816	87.8906	85.7976	87.8906	85.6558	87.8906	85.6804	87.8906	85.5234	87.8906	85.5591	87.8906	85.3917	87.8906	85.4405	87.8906	85.2684	87.8906	85.3314	87.8906	85.1601	87.8906	85.2371	87.8906	85.0723	87.8906	85.1611	87.8906	85.008	87.8906	85.1042	87.8906	84.9677	87.8906	85.065	87.8906	84.949	87.8906	85.0399	87.8906	84.9473	87.8906	85.024	87.8906	84.9567	87.8906	85.0123	87.8906	84.9715	87.8906	85.0007	87.8906	84.987
90.8203	86.2354	90.8203	86.2194	90.8203	86.2193	90.8203	86.1718	90.8203	86.1723	90.8203	86.0942	90.8203	86.0971	90.8203	85.99	90.8203	85.9977	90.8203	85.864	90.8203	85.8794	90.8203	85.7223	90.8203	85.7486	90.8203	85.5722	90.8203	85.6126	90.8203	85.4219	90.8203	85.4788	90.8203	85.2795	90.8203	85.3544	90.8203	85.1529	90.8203	85.2452	90.8203	85.0481	90.8203	85.1551	90.8203	84.9692	90.8203	85.0854	90.8203	84.9171	90.8203	85.0348	90.8203	84.8896	90.8203	84.9997	90.8203	84.8823	90.8203	84.9753	90.8203	84.8892	90.8203	84.9566	90.8203	84.904	90.8203	84.9394	90.8203	84.9217
95.2148	86.0955	95.2148	86.0751	95.2148	86.0856	95.2148	86.0249	95.2148	86.0459	95.2148	85.9473	95.2148	85.979	95.2148	85.8459	95.2148	85.8887	95.2148	85.7256	95.2148	85.7801	95.2148	85.5925	95.2148	85.6598	95.2148	85.4534	95.2148	85.5348	95.2148	85.3158	95.2148	85.4124	95.2148	85.187	95.2148	85.2993	95.2148	85.0739	95.2148	85.2009	95.2148	84.9819	95.2148	85.1205	95.2148	84.9141	95.2148	85.0589	95.2148	84.8713	95.2148	85.0143	95.2148	84.8515	95.2148	84.9831	95.2148	84.8504	95.2148	84.9604	95.2148	84.8623	95.2148	84.9416	95.2148	84.8813	95.2148	84.9228	95.2148	84.9025
98.1445	86.1004	98.1445	86.0843	98.1445	86.0855	98.1445	86.0377	98.1445	86.0408	98.1445	85.9624	98.1445	85.969	98.1445	85.8622	98.1445	85.8746	98.1445	85.7419	98.1445	85.7634	98.1445	85.6081	98.1445	85.6425	98.1445	85.4684	98.1445	85.5199	98.1445	85.3313	98.1445	85.4033	98.1445	85.2051	98.1445	85.2998	98.1445	85.0975	98.1445	85.2146	98.1445	85.0143	98.1445	85.1502	98.1445	84.9584	98.1445	85.1062	98.1445	84.9297	98.1445	85.0792	98.1445	84.9246	98.1445	85.0642	98.1445	84.9373	98.1445	85.055	98.1445	84.9607	98.1445	85.0458	98.1445	84.9877	98.1445	85.0324	98.1445	85.0128
101.074	86.0589	101.074	86.0519	101.074	86.0315	101.074	86.0105	101.074	85.9712	101.074	85.9368	101.074	85.8815	101.074	85.8342	101.074	85.7676	101.074	85.7082	101.074	85.6367	101.074	85.5654	101.074	85.4972	101.074	85.4142	101.074	85.3586	101.074	85.2639	101.074	85.2302	101.074	85.1241	101.074	85.1204	101.074	85.0038	101.074	85.0348	101.074	84.9102	101.074	84.9759	101.074	84.8474	101.074	84.9421	101.074	84.8155	101.074	84.9286	101.074	84.811	101.074	84.928	101.074	84.8268	101.074	84.9321	101.074	84.8542	101.074	84.9335	101.074	84.8845	101.074	84.927	101.074	84.9102
105.469	86.1165	105.469	86.1199	105.469	86.0758	105.469	86.0865	105.469	85.9987	105.469	86.0186	105.469	85.8882	105.469	85.9197	105.469	85.7492	105.469	85.795	105.469	85.5889	105.469	85.6509	105.469	85.4163	105.469	85.4954	105.469	85.2425	105.469	85.3371	105.469	85.079	105.469	85.1854	105.469	84.937	105.469	85.0493	105.469	84.8252	105.469	84.9361	105.469	84.7485	105.469	84.8508	105.469	84.7065	105.469	84.7946	105.469	84.6942	105.469	84.7649	105.469	84.7031	105.469	84.7554	105.469	84.723	105.469	84.758	105.469	84.7442	105.469	84.764	105.469	84.7597	105.469	84.7661
108.398	86.2703	108.398	86.2684	108.398	86.2323	108.398	86.2276	108.398	86.1552	108.398	86.1504	108.398	86.0415	108.398	86.0412	108.398	85.8959	108.398	85.9054	108.398	85.7254	108.398	85.7503	108.398	85.539	108.398	85.5839	108.398	85.3478	108.398	85.4157	108.398	85.164	108.398	85.2551	108.398	84.9997	108.398	85.111	108.398	84.8653	108.398	84.9908	108.398	84.7674	108.398	84.8989	108.398	84.7077	108.398	84.836	108.398	84.6827	108.398	84.799	108.398	84.6844	108.398	84.7815	108.398	84.7024	108.398	84.775	108.398	84.7266	108.398	84.7713	108.398	84.7486	108.398	84.7637
112.793	86.3743	112.793	86.3668	112.793	86.3419	112.793	86.3203	112.793	86.2701	112.793	86.2379	112.793	86.1616	112.793	86.1241	112.793	86.021	112.793	85.9851	112.793	85.8555	112.793	85.8284	112.793	85.6742	112.793	85.6632	112.793	85.4885	112.793	85.4992	112.793	85.3108	112.793	85.3463	112.793	85.1532	112.793	85.2132	112.793	85.0261	112.793	85.1068	112.793	84.936	112.793	85.0305	112.793	84.8842	112.793	84.9835	112.793	84.8665	112.793	84.9614	112.793	84.8745	112.793	84.9567	112.793	84.8974	112.793	84.9604	112.793	84.9245	112.793	84.964	112.793	84.9473	112.793	84.9607
117.188	86.3639	117.188	86.3552	117.188	86.3288	117.188	86.3037	117.188	86.2506	117.188	86.2125	117.188	86.1319	117.188	86.0863	117.188	85.9777	117.188	85.9313	117.188	85.7954	117.188	85.7559	117.188	85.5949	117.188	85.5698	117.188	85.3885	117.188	85.3841	117.188	85.1898	117.188	85.2102	117.188	85.013	117.188	85.0591	117.188	84.87	117.188	84.9392	117.188	84.7689	117.188	84.8552	117.188	84.7118	117.188	84.8067	117.188	84.6942	117.188	84.7882	117.188	84.7065	117.188	84.7902	117.188	84.7357	117.188	84.8013	117.188	84.7691	117.188	84.8108	117.188	84.7961	117.188	84.8104
120.117	86.3983	120.117	86.3941	120.117	86.3581	120.117	86.347	120.117	86.274	120.117	86.2599	120.117	86.1485	120.117	86.1376	120.117	85.9861	120.117	85.9861	120.117	85.7941	120.117	85.8134	120.117	85.5825	120.117	85.6287	120.117	85.3636	120.117	85.4424	120.117	85.1519	120.117	85.2654	120.117	84.9623	120.117	85.1082	120.117	84.8082	120.117	84.9792	120.117	84.6985	120.117	84.8834	120.117	84.6361	120.117	84.8213	120.117	84.6169	120.117	84.7885	120.117	84.6308	120.117	84.7765	120.117	84.6643	120.117	84.7747	120.117	84.7039	120.117	84.7725	120.117	84.7386	120.117	84.7618
124.512	86.3673	124.512	86.3502	124.512	86.3382	124.512	86.289	124.512	86.263	124.512	86.1874	124.512	86.1442	124.512	86.0513	124.512	85.9864	124.512	85.8884	124.512	85.7967	124.512	85.7078	124.512	85.5848	124.512	85.5202	124.512	85.3631	124.512	85.3365	124.512	85.1458	124.512	85.1678	124.512	84.9483	124.512	85.0234	124.512	84.7844	124.512	84.91	124.512	84.6648	124.512	84.8303	124.512	84.5938	124.512	84.7824	124.512	84.5687	124.512	84.76	124.512	84.5805	124.512	84.7539	124.512	84.6158	124.512	84.7532	124.512	84.6603	124.512	84.7482	124.512	84.7016	124.512	84.7318
128.906	86.2191	128.906	86.1933	128.906	86.1991	128.906	86.1236	128.906	86.1333	128.906	86.0144	128.906	86.0241	128.906	85.8717	128.906	85.876	128.906	85.704	128.906	85.6962	128.906	85.5214	128.906	85.4943	128.906	85.3355	128.906	85.2829	128.906	85.1586	128.906	85.0763	128.906	85.0025	128.906	84.8899	128.906	84.877	128.906	84.738	128.906	84.7879	128.906	84.6309	128.906	84.7362	128.906	84.573	128.906	84.7175	128.906	84.5608	128.906	84.7228	128.906	84.5846	128.906	84.7404	128.906	84.63	128.906	84.7582	128.906	84.6816	128.906	84.7655	128.906	84.7265	128.906	84.7556
133.301	86.2074	133.301	86.17	133.301	86.1965	133.301	86.0863	133.301	86.1375	133.301	85.9605	133.301	86.0328	133.301	85.7992	133.301	85.8872	133.301	85.6113	133.301	85.708	133.301	85.4083	133.301	85.5052	133.301	85.2038	133.301	85.2917	133.301	85.0126	133.301	85.0825	133.301	84.8491	133.301	84.8937	133.301	84.7248	133.301	84.7403	133.301	84.6463	133.301	84.6332	133.301	84.6137	133.301	84.577	133.301	84.6198	133.301	84.568	133.301	84.6524	133.301	84.5957	133.301	84.6962	133.301	84.6444	133.301	84.7366	133.301	84.6975	133.301	84.7614	133.301	84.7405	133.301	84.7633
139.16	86.1344	139.16	86.0919	139.16	86.1243	139.16	85.9985	139.16	86.0627	139.16	85.8577	139.16	85.9526	139.16	85.676	139.16	85.7996	139.16	85.4626	139.16	85.6119	139.16	85.2299	139.16	85.4005	139.16	84.9933	139.16	85.179	139.16	84.7704	139.16	84.9635	139.16	84.5793	139.16	84.7707	139.16	84.4358	139.16	84.6161	139.16	84.3496	139.16	84.5107	139.16	84.3221	139.16	84.4583	139.16	84.3453	139.16	84.4542	139.16	84.4038	139.16	84.4859	139.16	84.4783	139.16	84.536	139.16	84.5496	139.16	84.5859	139.16	84.6023	139.16	84.6198	139.16	84.6267
143.555	86.0339	143.555	85.9871	143.555	86.0245	143.555	85.8851	143.555	85.9599	143.555	85.7315	143.555	85.8438	143.555	85.5329	143.555	85.6824	143.555	85.2989	143.555	85.4843	143.555	85.0429	143.555	85.2614	143.555	84.7817	143.555	85.0284	143.555	84.5353	143.555	84.8022	143.555	84.3248	143.555	84.601	143.555	84.1684	143.555	84.441	143.555	84.0783	143.555	84.3337	143.555	84.0559	143.555	84.2827	143.555	84.092	143.555	84.2823	143.555	84.1683	143.555	84.3185	143.555	84.2623	143.555	84.3722	143.555	84.352	143.555	84.4235	143.555	84.4201	143.555	84.4552	143.555	84.4555
147.949	85.9567	147.949	85.9106	147.949	85.9419	147.949	85.8044	147.949	85.8678	147.949	85.6417	147.949	85.7385	147.949	85.4287	147.949	85.5609	147.949	85.1753	147.949	85.3447	147.949	84.895	147.949	85.1031	147.949	84.6058	147.949	84.8524	147.949	84.3298	147.949	84.6115	147.949	84.0908	147.949	84.4	147.949	83.9111	147.949	84.2355	147.949	83.8059	147.949	84.1295	147.949	83.7788	147.949	84.0844	147.949	83.8201	147.949	84.0921	147.949	83.9094	147.949	84.1359	147.949	84.0208	147.949	84.1945	147.949	84.1292	147.949	84.2462	147.949	84.2145	147.949	84.2733	147.949	84.264
153.809	85.9616	153.809	85.9196	153.809	85.9391	153.809	85.8136	153.809	85.8541	153.809	85.6464	153.809	85.7106	153.809	85.4233	153.809	85.5151	153.809	85.1531	153.809	85.2776	153.809	84.849	153.809	85.0113	153.809	84.5289	153.809	84.7334	153.809	84.2166	153.809	84.4647	153.809	83.9392	153.809	84.2276	153.809	83.724	153.809	84.043	153.809	83.5918	153.809	83.9251	153.809	83.5499	153.809	83.8774	153.809	83.5894	153.809	83.8906	153.809	83.6872	153.809	83.945	153.809	83.8133	153.809	84.0151	153.809	83.9378	153.809	84.0758	153.809	84.0368	153.809	84.1067	153.809	84.095
159.668	85.8345	159.668	85.7814	159.668	85.8204	159.668	85.661	159.668	85.7411	159.668	85.4756	159.668	85.601	159.668	85.2306	159.668	85.4073	159.668	84.9352	159.668	85.1697	159.668	84.6036	159.668	84.902	159.668	84.2565	159.668	84.6217	159.668	83.9215	159.668	84.3502	159.668	83.6311	159.668	84.1113	159.668	83.4178	159.668	83.9269	159.668	83.3047	159.668	83.8126	159.668	83.2974	159.668	83.7725	159.668	83.381	159.668	83.7967	159.668	83.5247	159.668	83.8638	159.668	83.6918	159.668	83.9463	159.668	83.8482	159.668	84.0166	159.668	83.9686	159.668	84.0521	159.668	84.038
165.527	86.01	165.527	85.9825	165.527	85.9651	165.527	85.8813	165.527	85.8506	165.527	85.7069	165.527	85.6712	165.527	85.4614	165.527	85.434	165.527	85.15	165.527	85.1499	165.527	84.7826	165.527	84.8342	165.527	84.3761	165.527	84.508	165.527	83.9574	165.527	84.198	165.527	83.5645	165.527	83.9346	165.527	83.244	165.527	83.7458	165.527	83.0398	165.527	83.6493	165.527	82.9777	165.527	83.6454	165.527	83.0526	165.527	83.715	165.527	83.2292	165.527	83.8251	165.527	83.4563	165.527	83.9377	165.527	83.6831	165.527	84.0186	165.527	83.8705	165.527	84.0421	165.527	83.9936
171.387	86.0785	171.387	86.0586	171.387	86.026	171.387	85.9663	171.387	85.9018	171.387	85.8022	171.387	85.708	171.387	85.5678	171.387	85.4484	171.387	85.2663	171.387	85.1301	171.387	84.9042	171.387	84.765	171.387	84.4939	171.387	84.3721	171.387	84.0568	171.387	83.9797	171.387	83.6264	171.387	83.625	171.387	83.2486	171.387	83.3494	171.387	82.9735	171.387	83.1874	171.387	82.8398	171.387	83.152	171.387	82.8563	171.387	83.2269	171.387	82.995	171.387	83.3708	171.387	83.2027	171.387	83.5316	171.387	83.4205	171.387	83.6618	171.387	83.5991	171.387	83.7262	171.387	83.706
177.246	86.1095	177.246	86.0846	177.246	86.0629	177.246	85.9884	177.246	85.9449	177.246	85.8213	177.246	85.7558	177.246	85.5834	177.246	85.4969	177.246	85.276	177.246	85.1714	177.246	84.9022	177.246	84.7854	177.246	84.4695	177.246	84.3508	177.246	83.9934	177.246	83.8881	177.246	83.5015	177.246	83.4295	177.246	83.0362	177.246	83.0197	177.246	82.6522	177.246	82.7084	177.246	82.402	177.246	82.5344	177.246	82.3134	177.246	82.5057	177.246	82.3731	177.246	82.5918	177.246	82.5299	177.246	82.7355	177.246	82.717	177.246	82.8745	177.246	82.8744	177.246	82.9592	177.246	82.9611
183.105	85.8504	183.105	85.8173	183.105	85.8197	183.105	85.7201	183.105	85.726	183.105	85.5596	183.105	85.5713	183.105	85.337	183.105	85.3583	183.105	85.0545	183.105	85.0907	183.105	84.7158	183.105	84.7737	183.105	84.3274	183.105	84.4145	183.105	83.9019	183.105	84.0253	183.105	83.4602	183.105	83.6251	183.105	83.0352	183.105	83.2422	183.105	82.6694	183.105	82.913	183.105	82.4067	183.105	82.6732	183.105	82.2753	183.105	82.5443	183.105	82.2729	183.105	82.521	183.105	82.3643	183.105	82.5698	183.105	82.4959	183.105	82.6419	183.105	82.6152	183.105	82.6908	183.105	82.685
188.965	85.5524	188.965	85.5357	188.965	85.5037	188.965	85.4521	188.965	85.3928	188.965	85.3009	188.965	85.2239	188.965	85.0827	188.965	85.0028	188.965	84.799	188.965	84.736	188.965	84.453	188.965	84.4315	188.965	84.0518	188.965	84.0988	188.965	83.6087	188.965	83.7506	188.965	83.1479	188.965	83.4048	188.965	82.7067	188.965	83.0854	188.965	82.3345	188.965	82.8204	188.965	82.081	188.965	82.6357	188.965	81.9767	188.965	82.5435	188.965	82.0155	188.965	82.5344	188.965	82.1548	188.965	82.5771	188.965	82.3344	188.965	82.6288	188.965	82.4978	188.965	82.6482	188.965	82.6073
196.289	85.5443	196.289	85.5467	196.289	85.4774	196.289	85.4836	196.289	85.3486	196.289	85.3548	196.289	85.1618	196.289	85.1605	196.289	84.9224	196.289	84.9009	196.289	84.6376	196.289	84.5766	196.289	84.3156	196.289	84.19	196.289	83.9664	196.289	83.7481	196.289	83.6029	196.289	83.2668	196.289	83.2423	196.289	82.7761	196.289	82.9078	196.289	82.3225	196.289	82.6266	196.289	81.9636	196.289	82.4238	196.289	81.7499	196.289	82.3118	196.289	81.6995	196.289	82.2812	196.289	81.7853	196.289	82.3006	196.289	81.9469	196.289	82.3267	196.289	82.1185	196.289	82.3186	196.289	82.2502
203.613	85.2995	203.613	85.3141	203.613	85.2097	203.613	85.2547	203.613	85.0461	203.613	85.1238	203.613	84.8127	203.613	84.9249	203.613	84.5168	203.613	84.6614	203.613	84.1693	203.613	84.3368	203.613	83.7846	203.613	83.9555	203.613	83.3811	203.613	83.5251	203.613	82.9817	203.613	83.0607	203.613	82.6137	203.613	82.5896	203.613	82.3071	203.613	82.1546	203.613	82.0895	203.613	81.81	203.613	81.977	203.613	81.6051	203.613	81.9651	203.613	81.5601	203.613	82.0262	203.613	81.6513	203.613	82.1159	203.613	81.8204	203.613	82.1866	203.613	82.0003	203.613	82.2001	203.613	82.1367
210.938	85.4493	210.938	85.4323	210.938	85.3949	210.938	85.3459	210.938	85.2683	210.938	85.1932	210.938	85.0706	210.938	84.9774	210.938	84.8043	210.938	84.7013	210.938	84.4731	210.938	84.3672	210.938	84.0824	210.938	83.9769	210.938	83.6396	210.938	83.5346	210.938	83.1573	210.938	83.0505	210.938	82.6562	210.938	82.5456	210.938	82.1696	210.938	82.0568	210.938	81.7433	210.938	81.6351	210.938	81.4262	210.938	81.3332	210.938	81.2509	210.938	81.1819	210.938	81.2131	210.938	81.1701	210.938	81.2693	210.938	81.2473	210.938	81.3559	210.938	81.3469	210.938	81.415	210.938	81.4128
218.262	85.1535	218.262	85.1545	218.262	85.0957	218.262	85.1012	218.262	84.981	218.262	84.9969	218.262	84.8113	218.262	84.8449	218.262	84.5909	218.262	84.6469	218.262	84.3252	218.262	84.4019	218.262	84.0201	218.262	84.107	218.262	83.6814	218.262	83.7591	218.262	83.3157	218.262	83.3586	218.262	82.933	218.262	82.9159	218.262	82.55	218.262	82.4564	218.262	82.1928	218.262	82.0233	218.262	81.8942	218.262	81.6707	218.262	81.6835	218.262	81.4438	218.262	81.5707	218.262	81.3547	218.262	81.5376	218.262	81.3732	218.262	81.5434	218.262	81.4433	218.262	81.5439	218.262	81.5106
225.586	84.817	225.586	84.8073	225.586	84.7637	225.586	84.7394	225.586	84.647	225.586	84.622	225.586	84.4716	225.586	84.4652	225.586	84.2467	225.586	84.2784	225.586	83.9844	225.586	84.0679	225.586	83.6976	225.586	83.8354	225.586	83.3985	225.586	83.5785	225.586	83.0967	225.586	83.2944	225.586	82.8007	225.586	82.9849	225.586	82.5204	225.586	82.662	225.586	82.2698	225.586	82.351	225.586	82.0671	225.586	82.0873	225.586	81.9291	225.586	81.9039	225.586	81.8611	225.586	81.8144	225.586	81.85	225.586	81.8038	225.586	81.8672	225.586	81.8355	225.586	81.8805	225.586	81.8694
232.91	84.5538	232.91	84.5465	232.91	84.4842	232.91	84.4692	232.91	84.3379	232.91	84.3347	232.91	84.1222	232.91	84.1598	232.91	83.852	232.91	83.9624	232.91	83.5486	232.91	83.7574	232.91	83.2372	232.91	83.5534	232.91	82.943	232.91	83.3508	232.91	82.6854	232.91	83.144	232.91	82.4746	232.91	82.9267	232.91	82.3111	232.91	82.6986	232.91	82.1902	232.91	82.4709	232.91	82.1071	232.91	82.266	232.91	82.0591	232.91	82.1106	232.91	82.0422	232.91	82.0222	232.91	82.0474	232.91	81.9979	232.91	82.0592	232.91	82.0152	232.91	82.0608	232.91	82.0438
241.699	84.4206	241.699	84.3254	241.699	84.4127	241.699	84.1388	241.699	84.295	241.699	83.8788	241.699	84.0656	241.699	83.5706	241.699	83.7287	241.699	83.2472	241.699	83.2971	241.699	82.9461	241.699	82.7979	241.699	82.7027	241.699	82.2777	241.699	82.5405	241.699	81.804	241.699	82.4638	241.699	81.4544	241.699	82.4577	241.699	81.2885	241.699	82.4962	241.699	81.3184	241.699	82.5541	241.699	81.5028	241.699	82.6141	241.699	81.7722	241.699	82.668	241.699	82.0595	241.699	82.7128	241.699	82.317	241.699	82.7447	241.699	82.5184	241.699	82.7549	241.699	82.6549	241.699	82.7299
250.488	84.7447	250.488	84.5807	250.488	84.7959	250.488	84.3079	250.488	84.7314	250.488	83.9336	250.488	84.5492	250.488	83.4701	250.488	84.2475	250.488	82.9395	250.488	83.8253	250.488	82.3775	250.488	83.2854	250.488	81.8381	250.488	82.64	250.488	81.39	250.488	81.9204	250.488	81.101	250.488	81.1923	250.488	81.0094	250.488	80.565	250.488	81.1038	250.488	80.1733	250.488	81.3295	250.488	80.1101	250.488	81.6153	250.488	80.3571	250.488	81.8982	250.488	80.796	250.488	82.1316	250.488	81.2869	250.488	82.2839	250.488	81.7265	250.488	82.3324	250.488	82.0583	250.488	82.2606
259.277	85.344	259.277	85.2175	259.277	85.3746	259.277	84.9921	259.277	85.3129	259.277	84.666	259.277	85.1629	259.277	84.2394	259.277	84.9275	259.277	83.7145	259.277	84.6077	259.277	83.0991	259.277	84.2026	259.277	82.4119	259.277	83.7115	259.277	81.692	259.277	83.1384	259.277	81.0091	259.277	82.5009	259.277	80.4632	259.277	81.8417	259.277	80.1551	259.277	81.2367	259.277	80.1297	259.277	80.787	259.277	80.3403	259.277	80.5763	259.277	80.6771	259.277	80.6154	259.277	81.0257	259.277	80.8297	259.277	81.3015	259.277	81.1046	259.277	81.4551	259.277	81.3386	259.277	81.466
268.066	84.8375	268.066	84.7245	268.066	84.863	268.066	84.5225	268.066	84.804	268.066	84.2323	268.066	84.6648	268.066	83.8564	268.066	84.4502	268.066	83.4008	268.066	84.1649	268.066	82.8774	268.066	83.8137	268.066	82.3089	268.066	83.4028	268.066	81.7358	268.066	82.9437	268.066	81.2205	268.066	82.4592	268.066	80.8409	268.066	81.9901	268.066	80.6652	268.066	81.5965	268.066	80.7142	268.066	81.3444	268.066	80.9457	268.066	81.2754	268.066	81.2748	268.066	81.3784	268.066	81.6121	268.066	81.5903	268.066	81.8871	268.066	81.8265	268.066	82.0555	268.066	82.0121	268.066	82.0966
276.855	85.1098	276.855	85.0215	276.855	85.0943	276.855	84.8232	276.855	84.9807	276.855	84.5076	276.855	84.7751	276.855	84.0653	276.855	84.4846	276.855	83.4853	276.855	84.1164	276.855	82.7588	276.855	83.6784	276.855	81.887	276.855	83.1796	276.855	80.8997	276.855	82.6338	276.855	79.8882	276.855	82.0659	276.855	79.0391	276.855	81.5204	276.855	78.6017	276.855	81.0649	276.855	78.7128	276.855	80.7762	276.855	79.2518	276.855	80.7034	276.855	79.9599	276.855	80.831	276.855	80.6277	276.855	81.0804	276.855	81.1445	276.855	81.3474	276.855	81.4679	276.855	81.5402	276.855	81.5936
287.109	85.0537	287.109	85.0587	287.109	84.9771	287.109	84.9882	287.109	84.8324	287.109	84.8363	287.109	84.6231	287.109	84.5939	287.109	84.3525	287.109	84.2469	287.109	84.0229	287.109	83.7765	287.109	83.6353	287.109	83.1617	287.109	83.1903	287.109	82.3865	287.109	82.6918	287.109	81.4532	287.109	82.1536	287.109	80.4086	287.109	81.6088	287.109	79.3837	287.109	81.1155	287.109	78.6142	287.109	80.7474	287.109	78.3425	287.109	80.5606	287.109	78.6004	287.109	80.5527	287.109	79.1712	287.109	80.6537	287.109	79.7943	287.109	80.7599	287.109	80.3052	287.109	80.776	287.109	80.6351
297.363	84.9703	297.363	84.9761	297.363	84.8832	297.363	84.9005	297.363	84.7169	297.363	84.7433	297.363	84.4776	297.363	84.5014	297.363	84.1754	297.363	84.1674	297.363	83.8232	297.363	83.7294	297.363	83.4339	297.363	83.1729	297.363	83.0175	297.363	82.487	297.363	82.5824	297.363	81.6769	297.363	82.1415	297.363	80.7864	297.363	81.7221	297.363	79.9312	297.363	81.3734	297.363	79.3127	297.363	81.1567	297.363	79.1354	297.363	81.1123	297.363	79.4295	297.363	81.2227	297.363	80.0103	297.363	81.4103	297.363	80.6404	297.363	81.5724	297.363	81.1582	297.363	81.6187	297.363	81.4892
307.617	84.9611	307.617	84.9515	307.617	84.8813	307.617	84.8632	307.617	84.7062	307.617	84.7091	307.617	84.4359	307.617	84.4999	307.617	84.0763	307.617	84.2397	307.617	83.6378	307.617	83.9222	307.617	83.1339	307.617	83.5308	307.617	82.5805	307.617	83.042	307.617	81.9975	307.617	82.4353	307.617	81.4143	307.617	81.7088	307.617	80.8788	307.617	80.9036	307.617	80.4628	307.617	80.1334	307.617	80.2446	307.617	79.5867	307.617	80.2622	307.617	79.4357	307.617	80.471	307.617	79.6833	307.617	80.7562	307.617	80.1493	307.617	80.9884	307.617	80.6182	307.617	81.0688	307.617	80.9456
319.336	84.6405	319.336	84.5322	319.336	84.6542	319.336	84.3427	319.336	84.5642	319.336	84.0885	319.336	84.3663	319.336	83.7861	319.336	84.06	319.336	83.4486	319.336	83.6477	319.336	83.0815	319.336	83.1338	319.336	82.6827	319.336	82.5271	319.336	82.2451	319.336	81.8461	319.336	81.7655	319.336	81.131	319.336	81.2576	319.336	80.4589	319.336	80.7652	319.336	79.9478	319.336	80.3665	319.336	79.7184	319.336	80.1514	319.336	79.8119	319.336	80.1693	319.336	80.1437	319.336	80.3851	319.336	80.5575	319.336	80.6933	319.336	80.9104	319.336	80.9729	319.336	81.1131	319.336	81.1304
329.59	84.6048	329.59	84.5057	329.59	84.6139	329.59	84.3258	329.59	84.5294	329.59	84.078	329.59	84.3528	329.59	83.7748	329.59	84.0872	329.59	83.423	329.59	83.7343	329.59	83.0194	329.59	83.2896	329.59	82.5524	329.59	82.7425	329.59	82.0092	329.59	82.0817	329.59	81.3928	329.59	81.3106	329.59	80.7431	329.59	80.4772	329.59	80.1561	329.59	79.7108	329.59	79.7713	329.59	79.2229	329.59	79.7002	329.59	79.1879	329.59	79.9348	329.59	79.569	329.59	80.3445	329.59	80.1419	329.59	80.7644	329.59	80.6777	329.59	81.0653	329.59	81.0387	329.59	81.1688
341.309	84.5337	341.309	84.4289	341.309	84.5319	341.309	84.2221	341.309	84.4269	341.309	83.9241	341.309	84.2294	341.309	83.5494	341.309	83.9553	341.309	83.111	341.309	83.6205	341.309	82.6164	341.309	83.2349	341.309	82.0656	341.309	82.796	341.309	81.4553	341.309	82.2878	341.309	80.7923	341.309	81.69	341.309	80.1158	341.309	80.9984	341.309	79.5207	341.309	80.2587	341.309	79.1513	341.309	79.5993	341.309	79.1247	341.309	79.215	341.309	79.423	341.309	79.2397	341.309	79.8901	341.309	79.6043	341.309	80.3373	341.309	80.0896	341.309	80.6258	341.309	80.489	341.309	80.6819
353.027	84.5476	353.027	84.4411	353.027	84.5341	353.027	84.2228	353.027	84.3996	353.027	83.907	353.027	84.1514	353.027	83.5108	353.027	83.805	353.027	83.0496	353.027	83.3816	353.027	82.5316	353.027	82.9033	353.027	81.9543	353.027	82.3848	353.027	81.3088	353.027	81.8296	353.027	80.5949	353.027	81.2351	353.027	79.8495	353.027	80.6151	353.027	79.183	353.027	80.0325	353.027	78.7828	353.027	79.6181	353.027	78.8142	353.027	79.5201	353.027	79.2584	353.027	79.7758	353.027	79.9096	353.027	80.2517	353.027	80.5352	353.027	80.7401	353.027	80.9792	353.027	81.0752	353.027	81.1653
366.211	84.893	366.211	84.7761	366.211	84.8778	366.211	84.5381	366.211	84.7284	366.211	84.1971	366.211	84.452	366.211	83.774	366.211	84.0635	366.211	83.2866	366.211	83.5835	366.211	82.7407	366.211	83.0323	366.211	82.1248	366.211	82.4227	366.211	81.4119	366.211	81.7545	366.211	80.5761	366.211	81.0189	366.211	79.6282	366.211	80.2217	366.211	78.6759	366.211	79.4291	366.211	77.978	366.211	78.8126	366.211	77.8438	366.211	78.6019	366.211	78.3172	366.211	78.8803	366.211	79.0988	366.211	79.4628	366.211	79.8502	366.211	80.0621	366.211	80.373	366.211	80.4705	366.211	80.5852
379.395	85.2419	379.395	85.1423	379.395	85.238	379.395	84.9536	379.395	85.1241	379.395	84.695	379.395	84.9005	379.395	84.3834	379.395	84.5708	379.395	84.0232	379.395	84.1375	379.395	83.5994	379.395	83.5986	379.395	83.076	379.395	82.9446	379.395	82.403	379.395	82.1579	379.395	81.529	379.395	81.2182	379.395	80.4212	379.395	80.1232	379.395	79.1029	379.395	78.9386	379.395	77.7376	379.395	77.8802	379.395	76.7317	379.395	77.3193	379.395	76.5604	379.395	77.4752	379.395	77.1839	379.395	78.102	379.395	78.0772	379.395	78.7627	379.395	78.8101	379.395	79.1669	379.395	79.1912
392.578	84.7537	392.578	84.603	392.578	84.8026	392.578	84.3659	392.578	84.7479	392.578	84.0706	392.578	84.5992	392.578	83.7508	392.578	84.3725	392.578	83.4319	392.578	84.0834	392.578	83.1144	392.578	83.7383	392.578	82.7666	392.578	83.3239	392.578	82.3336	392.578	82.8028	392.578	81.7607	392.578	82.1209	392.578	81.0218	392.578	81.2286	392.578	80.1532	392.578	80.1241	392.578	79.2956	392.578	78.9338	392.578	78.7012	392.578	78.0094	392.578	78.5922	392.578	77.7916	392.578	78.9276	392.578	78.2904	392.578	79.428	392.578	79.044	392.578	79.8114	392.578	79.6419	392.578	79.9061
405.762	84.8389	405.762	84.6728	405.762	84.8789	405.762	84.3915	405.762	84.7942	405.762	84.0196	405.762	84.5985	405.762	83.5936	405.762	84.3173	405.762	83.155	405.762	83.9835	405.762	82.7334	405.762	83.6255	405.762	82.3269	405.762	83.2492	405.762	81.8958	405.762	82.825	405.762	81.3794	405.762	82.293	405.762	80.7323	405.762	81.5858	405.762	79.9701	405.762	80.666	405.762	79.2171	405.762	79.5894	405.762	78.7111	405.762	78.5965	405.762	78.6591	405.762	78.1029	405.762	79.012	405.762	78.3206	405.762	79.4942	405.762	78.9509	405.762	79.8326	405.762	79.5507	405.762	79.8678
420.41	85.2122	420.41	85.1349	420.41	85.139	420.41	84.9278	420.41	84.9089	420.41	84.6201	420.41	84.5336	420.41	84.2422	420.41	84.0463	420.41	83.813	420.41	83.5031	420.41	83.3284	420.41	82.9741	420.41	82.7566	420.41	82.5141	420.41	82.0474	420.41	82.1235	420.41	81.1553	420.41	81.7381	420.41	80.0758	420.41	81.2665	420.41	78.9057	420.41	80.6506	420.41	77.924	420.41	79.924	420.41	77.5488	420.41	79.2625	420.41	77.944	420.41	78.9485	420.41	78.7758	420.41	79.131	420.41	79.5961	420.41	79.6257	420.41	80.1391	420.41	80.0976	420.41	80.3045
435.059	85.0601	435.059	84.8424	435.059	85.1012	435.059	84.4817	435.059	84.9498	435.059	84.0348	435.059	84.6054	435.059	83.5829	435.059	84.0869	435.059	83.2119	435.059	83.4417	435.059	82.9626	435.059	82.7508	435.059	82.7856	435.059	82.1089	435.059	82.5562	435.059	81.5712	435.059	82.1396	435.059	81.1083	435.059	81.4466	435.059	80.6295	435.059	80.4719	435.059	80.0655	435.059	79.358	435.059	79.4631	435.059	78.4865	435.059	79.0388	435.059	78.3398	435.059	79.0605	435.059	78.9392	435.059	79.5376	435.059	79.7922	435.059	80.1701	435.059	80.4617	435.059	80.6372	435.059	80.7557
451.172	85.8961	451.172	85.7078	451.172	85.8705	451.172	85.3098	451.172	85.629	451.172	84.7116	451.172	85.1736	451.172	83.9395	451.172	84.5163	451.172	83.057	451.172	83.6897	451.172	82.1764	451.172	82.76	451.172	81.4231	451.172	81.8289	451.172	80.8484	451.172	80.9987	451.172	80.3825	451.172	80.2992	451.172	79.9035	451.172	79.6553	451.172	79.3462	451.172	78.9721	451.172	78.7879	451.172	78.3074	451.172	78.4894	451.172	78.0034	451.172	78.7409	451.172	78.4354	451.172	79.5044	451.172	79.4379	451.172	80.4087	451.172	80.4724	451.172	81.098	451.172	81.1647	451.172	81.3761
465.82	86.1222	465.82	85.938	465.82	86.1247	465.82	85.5685	465.82	85.949	465.82	85.0162	465.82	85.5972	465.82	84.2968	465.82	85.0721	465.82	83.4475	465.82	84.3843	465.82	82.5283	465.82	83.5592	465.82	81.6078	465.82	82.6395	465.82	80.7318	465.82	81.6688	465.82	79.8978	465.82	80.6556	465.82	79.0668	465.82	79.5424	465.82	78.2262	465.82	78.2197	465.82	77.4809	465.82	76.6264	465.82	77.0965	465.82	75.0367	465.82	77.3056	465.82	74.4462	465.82	77.9776	465.82	75.4811	465.82	78.7051	465.82	77.1082	465.82	79.1351	465.82	78.3899	465.82	79.0639
483.398	85.8741	483.398	85.7961	483.398	85.804	483.398	85.578	483.398	85.586	483.398	85.2311	483.398	85.2333	483.398	84.7649	483.398	84.775	483.398	84.1828	483.398	84.254	483.398	83.478	483.398	83.716	483.398	82.6308	483.398	83.1858	483.398	81.6092	483.398	82.6411	483.398	80.3747	483.398	82.006	483.398	78.9011	483.398	81.1689	483.398	77.2414	483.398	80.0134	483.398	75.7292	483.398	78.4641	483.398	75.1515	483.398	76.6348	483.398	75.9079	483.398	75.2272	483.398	77.2334	483.398	75.3646	483.398	78.3321	483.398	76.6993	483.398	78.8803	483.398	78.0175	483.398	78.7805
499.512	85.8315	499.512	85.707	499.512	85.7713	499.512	85.4188	499.512	85.5145	499.512	85.0073	499.512	85.0558	499.512	84.5396	499.512	84.4082	499.512	84.0935	499.512	83.629	499.512	83.7094	499.512	82.8432	499.512	83.3432	499.512	82.2157	499.512	82.8777	499.512	81.841	499.512	82.1751	499.512	81.6441	499.512	81.1205	499.512	81.4266	499.512	79.6521	499.512	80.9841	499.512	77.8595	499.512	80.183	499.512	76.2875	499.512	79.0375	499.512	75.9941	499.512	77.8838	499.512	77.034	499.512	77.4289	499.512	78.2896	499.512	77.9401	499.512	79.0786	499.512	78.7544	499.512	79.2214
517.09	86.4241	517.09	86.1927	517.09	86.4134	517.09	85.7356	517.09	86.1563	517.09	85.0926	517.09	85.6615	517.09	84.3503	517.09	84.962	517.09	83.6534	517.09	84.135	517.09	83.1488	517.09	83.316	517.09	82.862	517.09	82.6637	517.09	82.6478	517.09	82.2519	517.09	82.2886	517.09	81.9825	517.09	81.5956	517.09	81.6362	517.09	80.4462	517.09	80.9845	517.09	78.8465	517.09	79.8752	517.09	77.1943	517.09	78.3766	517.09	76.578	517.09	77.1402	517.09	77.4892	517.09	77.2444	517.09	78.8425	517.09	78.4226	517.09	79.771	517.09	79.5249	517.09	80.0118
536.133	86.4661	536.133	86.2237	536.133	86.4048	536.133	85.6774	536.133	86.0237	536.133	84.8332	536.133	85.2921	536.133	83.7549	536.133	84.1885	536.133	82.6522	536.133	82.7554	536.133	81.9154	536.133	81.2172	536.133	81.8321	536.133	80.1238	536.133	82.1931	536.133	80.0518	536.133	82.5169	536.133	80.781	536.133	82.4523	536.133	81.5637	536.133	81.8324	536.133	81.8907	536.133	80.6206	536.133	81.5527	536.133	78.9831	536.133	80.534	536.133	77.6041	536.133	79.1048	536.133	77.5106	536.133	78.0798	536.133	78.4393	536.133	78.2339	536.133	79.2749	536.133	79.0075	536.133	79.4783
555.176	87.2553	555.176	87.0383	555.176	87.2053	555.176	86.5528	555.176	86.8727	555.176	85.7742	555.176	86.2354	555.176	84.6581	555.176	85.2718	555.176	83.1655	555.176	83.9581	555.176	81.3476	555.176	82.2632	555.176	79.5488	555.176	80.2114	555.176	78.4926	555.176	78.1895	555.176	78.4782	555.176	77.273	555.176	78.8772	555.176	77.7976	555.176	79.1118	555.176	78.5795	555.176	79.0702	555.176	78.8786	555.176	78.9817	555.176	78.7485	555.176	79.2407	555.176	78.7254	555.176	79.9898	555.176	79.3348	555.176	80.9024	555.176	80.3831	555.176	81.5569	555.176	81.29	555.176	81.7104
574.219	87.0454	574.219	86.8338	574.219	87.038	574.219	86.4106	574.219	86.8092	574.219	85.7882	574.219	86.3588	574.219	84.9898	574.219	85.682	574.219	84.0565	574.219	84.7645	574.219	83.0533	574.219	83.5984	574.219	82.0538	574.219	82.2238	574.219	81.0913	574.219	80.7841	574.219	80.1099	574.219	79.5176	574.219	78.9812	574.219	78.5622	574.219	77.5776	574.219	77.7175	574.219	75.928	574.219	76.5705	574.219	74.6835	574.219	74.9261	574.219	75.132	574.219	73.6358	574.219	76.9035	574.219	74.5762	574.219	78.5458	574.219	76.817	574.219	79.4468	574.219	78.5935	574.219	79.4749
594.727	86.5641	594.727	86.438	594.727	86.4864	594.727	86.0709	594.727	86.2164	594.727	85.4059	594.727	85.7367	594.727	84.3832	594.727	85.0066	594.727	83.0028	594.727	83.9838	594.727	81.492	594.727	82.6681	594.727	80.4601	594.727	81.1841	594.727	80.3785	594.727	79.9047	594.727	80.8317	594.727	79.3519	594.727	81.12	594.727	79.531	594.727	80.8226	594.727	79.7684	594.727	79.7518	594.727	79.4034	594.727	78.0175	594.727	78.0711	594.727	76.5888	594.727	75.9511	594.727	77.0336	594.727	75.0731	594.727	78.5823	594.727	76.9259	594.727	79.6964	594.727	78.9143	594.727	79.8546
615.234	86.9727	615.234	86.9166	615.234	86.7953	615.234	86.6148	615.234	86.3781	615.234	86.0247	615.234	85.7011	615.234	85.0725	615.234	84.7325	615.234	83.6907	615.234	83.4396	615.234	81.9073	615.234	81.809	615.234	80.0194	615.234	79.8749	615.234	78.7516	615.234	77.8562	615.234	78.6391	615.234	76.5442	615.234	79.0729	615.234	76.7925	615.234	79.1839	615.234	77.7571	615.234	78.6534	615.234	78.148	615.234	77.7195	615.234	77.3479	615.234	77.24	615.234	75.1306	615.234	77.9193	615.234	72.8738	615.234	79.0707	615.234	74.7333	615.234	79.7163	615.234	77.7078	615.234	79.3589
637.207	86.6363	637.207	86.5259	637.207	86.5867	637.207	86.2675	637.207	86.3432	637.207	85.8307	637.207	85.8785	637.207	85.1425	637.207	85.195	637.207	84.1158	637.207	84.3086	637.207	82.688	637.207	83.1835	637.207	80.8594	637.207	81.6961	637.207	78.8587	637.207	79.7226	637.207	77.3845	637.207	77.3542	637.207	76.8309	637.207	75.2353	637.207	76.5027	637.207	74.3232	637.207	75.9319	637.207	74.3676	637.207	75.5358	637.207	74.4059	637.207	76.0493	637.207	74.2678	637.207	77.3125	637.207	74.675	637.207	78.4957	637.207	76.0897	637.207	79.0638	637.207	77.7341	637.207	78.814
659.18	86.0387	659.18	85.8425	659.18	86.0348	659.18	85.4537	659.18	85.8019	659.18	84.8696	659.18	85.3197	659.18	84.1137	659.18	84.6138	659.18	83.2473	659.18	83.7441	659.18	82.3261	659.18	82.7422	659.18	81.3621	659.18	81.6128	659.18	80.3947	659.18	80.4493	659.18	79.5517	659.18	79.4961	659.18	78.84	659.18	78.949	659.18	77.9049	659.18	78.6413	659.18	76.1293	659.18	78.0677	659.18	73.0721	659.18	76.6144	659.18	71.2511	659.18	73.5501	659.18	74.1023	659.18	68.5193	659.18	76.6452	659.18	69.8694	659.18	77.5655	659.18	74.5353	659.18	76.9316
682.617	85.6781	682.617	85.6875	682.617	85.4392	682.617	85.4664	682.617	84.9719	682.617	85.0174	682.617	84.3176	682.617	84.3676	682.617	83.5839	682.617	83.5626	682.617	82.8397	682.617	82.6376	682.617	81.967	682.617	81.6608	682.617	80.7904	682.617	80.869	682.617	79.45	682.617	80.538	682.617	78.6077	682.617	80.5084	682.617	78.7773	682.617	80.2581	682.617	79.4219	682.617	79.2713	682.617	79.6545	682.617	77.1486	682.617	78.8829	682.617	74.2346	682.617	76.6548	682.617	73.8204	682.617	72.7926	682.617	76.0677	682.617	71.5274	682.617	77.4323	682.617	74.991	682.617	77.1436
707.52	86.4785	707.52	86.3983	707.52	86.3904	707.52	86.1394	707.52	86.1069	707.52	85.6094	707.52	85.6283	707.52	84.6475	707.52	84.9849	707.52	83.0858	707.52	84.138	707.52	80.8233	707.52	82.8902	707.52	77.9585	707.52	80.9262	707.52	75.4715	707.52	77.8682	707.52	75.7098	707.52	73.5111	707.52	77.791	707.52	72.2528	707.52	79.3419	707.52	76.086	707.52	79.6857	707.52	78.3488	707.52	78.812	707.52	78.5316	707.52	77.3142	707.52	77.0397	707.52	76.8336	707.52	75.1664	707.52	77.8241	707.52	75.6065	707.52	78.6963	707.52	77.4485	707.52	78.6159
732.422	85.6139	732.422	85.4887	732.422	85.5716	732.422	85.2159	732.422	85.313	732.422	84.7473	732.422	84.8516	732.422	84.0137	732.422	84.2828	732.422	83.0062	732.422	83.6441	732.422	81.7992	732.422	82.7788	732.422	80.5081	732.422	81.4436	732.422	79.3471	732.422	79.5208	732.422	78.616	732.422	77.2197	732.422	78.3083	732.422	75.5125	732.422	78.0947	732.422	75.6212	732.422	77.6333	732.422	76.5297	732.422	76.6974	732.422	76.5466	732.422	75.4843	732.422	74.7225	732.422	74.9066	732.422	70.0231	732.422	75.3471	732.422	66.071	732.422	75.6773	732.422	71.7282	732.422	74.7873
757.324	85.63	757.324	85.4723	757.324	85.7439	757.324	85.2676	757.324	85.7383	757.324	84.9719	757.324	85.5414	757.324	84.5862	757.324	85.1646	757.324	84.1141	757.324	84.6132	757.324	83.3736	757.324	83.7239	757.324	81.9683	757.324	82.2362	757.324	79.6832	757.324	79.9883	757.324	77.5756	757.324	76.9085	757.324	77.6392	757.324	73.405	757.324	78.3878	757.324	73.3494	757.324	78.1198	757.324	76.4205	757.324	76.9858	757.324	78.0816	757.324	76.4924	757.324	77.4761	757.324	77.5673	757.324	73.8632	757.324	78.8103	757.324	67.187	757.324	79.0332	757.324	73.2913	757.324	77.5635
785.156	85.7428	785.156	85.6649	785.156	85.6563	785.156	85.6092	785.156	85.2863	785.156	85.6227	785.156	84.7831	785.156	85.5994	785.156	84.469	785.156	85.374	785.156	84.3371	785.156	84.6942	785.156	83.9531	785.156	83.1837	785.156	82.9594	785.156	80.289	785.156	81.2788	785.156	74.987	785.156	78.8459	785.156	68.4265	785.156	75.3196	785.156	72.471	785.156	71.6007	785.156	75.0504	785.156	73.1586	785.156	74.9143	785.156	75.8443	785.156	73.2491	785.156	76.2586	785.156	75.0133	785.156	74.0089	785.156	78.3469	785.156	71.4978	785.156	79.6988	785.156	75.5576	785.156	78.8328
811.523	85.7844	811.523	86.1283	811.523	85.2952	811.523	86.2632	811.523	84.7828	811.523	86.2286	811.523	84.364	811.523	86.1227	811.523	84.0786	811.523	85.9448	811.523	83.8005	811.523	85.484	811.523	83.2911	811.523	84.4216	811.523	82.456	811.523	82.5484	811.523	81.4743	811.523	79.906	811.523	80.462	811.523	76.6479	811.523	79.1336	811.523	72.4406	811.523	77.3831	811.523	67.4012	811.523	76.3286	811.523	70.105	811.523	76.439	811.523	74.0679	811.523	75.8276	811.523	76.0006	811.523	72.8931	811.523	76.6438	811.523	66.2795	811.523	76.1007	811.523	68.567	811.523	73.849
840.82	85.2629	840.82	84.8626	840.82	85.2936	840.82	84.2103	840.82	84.9597	840.82	83.5496	840.82	84.3542	840.82	83.2217	840.82	83.6352	840.82	83.4596	840.82	82.9537	840.82	83.9375	840.82	82.2776	840.82	83.8954	840.82	81.3665	840.82	82.7898	840.82	80.0299	840.82	80.703	840.82	78.3284	840.82	78.4177	840.82	76.4809	840.82	76.7057	840.82	74.863	840.82	74.8068	840.82	74.6812	840.82	70.1706	840.82	76.1831	840.82	55.7854	840.82	76.955	840.82	69.542	840.82	75.055	840.82	74.3029	840.82	67.0606	840.82	75.636	840.82	66.0515	840.82	73.9941
870.117	85.2989	870.117	85.5033	870.117	84.8144	870.117	85.3913	870.117	84.0047	870.117	84.8586	870.117	82.952	870.117	83.8754	870.117	82.0136	870.117	82.7144	870.117	81.2907	870.117	82.0448	870.117	80.2387	870.117	82.1554	870.117	78.553	870.117	82.5111	870.117	77.1095	870.117	82.5804	870.117	77.0506	870.117	82.0042	870.117	77.6885	870.117	80.6852	870.117	78.0608	870.117	78.7733	870.117	78.2129	870.117	76.1404	870.117	78.0256	870.117	72.224	870.117	77.075	870.117	65.7985	870.117	75.2049	870.117	55.1437	870.117	72.1828	870.117	52.9823	870.117	66.9875	870.117	58.0057
900.879	86.3668	900.879	86.5679	900.879	85.6593	900.879	86.2037	900.879	84.5142	900.879	85.2728	900.879	83.1358	900.879	83.9314	900.879	81.7907	900.879	82.3897	900.879	80.3727	900.879	80.5558	900.879	78.6795	900.879	78.3171	900.879	77.1256	900.879	77.405	900.879	76.082	900.879	78.779	900.879	74.5883	900.879	80.2292	900.879	71.5231	900.879	81.0818	900.879	69.8623	900.879	81.1422	900.879	74.5967	900.879	80.0998	900.879	78.4532	900.879	77.4259	900.879	79.7638	900.879	71.8	900.879	78.597	900.879	65.4167	900.879	75.0103	900.879	70.6618	900.879	71.0539	900.879	71.5752
933.105	85.3488	933.105	85.4301	933.105	85.0267	933.105	85.2952	933.105	84.1956	933.105	84.7907	933.105	82.741	933.105	83.8841	933.105	80.9035	933.105	82.6576	933.105	78.778	933.105	81.0761	933.105	76.3746	933.105	79.1093	933.105	74.3193	933.105	77.2719	933.105	73.384	933.105	76.4232	933.105	73.9443	933.105	76.547	933.105	74.7956	933.105	77.3802	933.105	74.1003	933.105	78.167	933.105	72.1525	933.105	77.7257	933.105	73.0717	933.105	75.4259	933.105	75.0426	933.105	70.8222	933.105	75.2599	933.105	67.6194	933.105	73.6716	933.105	68.2516	933.105	70.4882	933.105	67.9491
965.332	85.7205	965.332	85.8126	965.332	84.9559	965.332	85.5588	965.332	83.5984	965.332	85.2091	965.332	82.4849	965.332	84.6991	965.332	82.0208	965.332	83.7664	965.332	81.1989	965.332	82.2608	965.332	79.3884	965.332	80.3371	965.332	77.1992	965.332	77.9704	965.332	75.6454	965.332	75.8041	965.332	74.4881	965.332	77.1384	965.332	71.956	965.332	79.4787	965.332	70.2766	965.332	80.2864	965.332	74.5889	965.332	79.7245	965.332	77.629	965.332	77.8479	965.332	78.508	965.332	74.1747	965.332	77.7493	965.332	70.1419	965.332	75.6703	965.332	70.8704	965.332	72.9479	965.332	71.7591
1,000.49	85.6945	1,000.49	85.7906	1,000.49	84.879	1,000.49	85.3307	1,000.49	83.5317	1,000.49	84.6019	1,000.49	82.2789	1,000.49	83.9044	1,000.49	81.2638	1,000.49	83.2736	1,000.49	80.0278	1,000.49	82.3541	1,000.49	78.6983	1,000.49	80.8794	1,000.49	77.6428	1,000.49	79.0289	1,000.49	75.9918	1,000.49	77.1514	1,000.49	73.5633	1,000.49	75.7648	1,000.49	72.6507	1,000.49	75.9224	1,000.49	71.7706	1,000.49	76.7214	1,000.49	69.4406	1,000.49	76.9632	1,000.49	72.1776	1,000.49	76.3681	1,000.49	75.317	1,000.49	74.6292	1,000.49	75.0353	1,000.49	71.8075	1,000.49	72.1888	1,000.49	69.9177	1,000.49	68.5836	1,000.49	68.9101
1,035.64	84.2622	1,035.64	84.9485	1,035.64	83.5772	1,035.64	85.1467	1,035.64	83.1774	1,035.64	84.6449	1,035.64	82.709	1,035.64	83.6074	1,035.64	81.6957	1,035.64	82.6487	1,035.64	80.0359	1,035.64	82.2704	1,035.64	78.0277	1,035.64	81.6746	1,035.64	75.4513	1,035.64	79.6022	1,035.64	72.1115	1,035.64	76.6931	1,035.64	71.7359	1,035.64	76.5962	1,035.64	73.5627	1,035.64	78.9009	1,035.64	74.5121	1,035.64	80.7485	1,035.64	74.632	1,035.64	81.1249	1,035.64	77.9323	1,035.64	79.627	1,035.64	80.0628	1,035.64	75.9507	1,035.64	79.5198	1,035.64	71.6463	1,035.64	77.04	1,035.64	72.0172	1,035.64	73.7125	1,035.64	72.4681
1,072.27	83.4425	1,072.27	83.6423	1,072.27	83.3406	1,072.27	84.0153	1,072.27	83.0992	1,072.27	84.2431	1,072.27	82.7547	1,072.27	84.0416	1,072.27	81.877	1,072.27	83.3183	1,072.27	79.8535	1,072.27	82.1128	1,072.27	77.8595	1,072.27	80.6428	1,072.27	77.366	1,072.27	79.3821	1,072.27	76.0104	1,072.27	78.0612	1,072.27	70.4357	1,072.27	74.6687	1,072.27	63.5383	1,072.27	73.6771	1,072.27	70.661	1,072.27	77.0568	1,072.27	72.3585	1,072.27	77.9423	1,072.27	74.0875	1,072.27	77.351	1,072.27	75.8274	1,072.27	76.7755	1,072.27	75.7813	1,072.27	76.023	1,072.27	74.1748	1,072.27	73.6297	1,072.27	70.7775	1,072.27	69.8085
1,108.89	83.2133	1,108.89	83.7771	1,108.89	82.5615	1,108.89	84.2291	1,108.89	81.8949	1,108.89	84.4261	1,108.89	81.5868	1,108.89	84.281	1,108.89	80.9214	1,108.89	83.6164	1,108.89	79.4892	1,108.89	82.4744	1,108.89	78.9604	1,108.89	81.4274	1,108.89	78.7034	1,108.89	79.5988	1,108.89	75.9859	1,108.89	75.7834	1,108.89	71.3531	1,108.89	73.7929	1,108.89	66.6458	1,108.89	76.2782	1,108.89	71.0895	1,108.89	79.187	1,108.89	70.1416	1,108.89	81.0821	1,108.89	74.9114	1,108.89	80.1058	1,108.89	79.7029	1,108.89	75.9415	1,108.89	80.225	1,108.89	73.7198	1,108.89	78.1448	1,108.89	74.4455	1,108.89	74.8686	1,108.89	73.6166
1,148.44	83.1244	1,148.44	84.1006	1,148.44	82.1378	1,148.44	84.8083	1,148.44	81.8151	1,148.44	85.251	1,148.44	82.4179	1,148.44	85.4138	1,148.44	82.6507	1,148.44	84.657	1,148.44	81.8084	1,148.44	82.5392	1,148.44	79.7952	1,148.44	80.6832	1,148.44	76.9021	1,148.44	80.594	1,148.44	75.65	1,148.44	79.5902	1,148.44	74.3418	1,148.44	75.3753	1,148.44	63.9813	1,148.44	70.7137	1,148.44	70.6665	1,148.44	73.7766	1,148.44	73.383	1,148.44	76.1249	1,148.44	72.4437	1,148.44	76.3883	1,148.44	74.6736	1,148.44	76.3377	1,148.44	76.9871	1,148.44	76.8497	1,148.44	77.6856	1,148.44	76.0859	1,148.44	76.2198	1,148.44	74.5642
1,189.45	82.3267	1,189.45	83.7882	1,189.45	81.2415	1,189.45	84.4351	1,189.45	81.6098	1,189.45	84.0619	1,189.45	82.373	1,189.45	83.2809	1,189.45	82.2973	1,189.45	82.5918	1,189.45	81.9008	1,189.45	81.7904	1,189.45	81.5217	1,189.45	80.9812	1,189.45	80.7619	1,189.45	79.7443	1,189.45	80.5491	1,189.45	76.4421	1,189.45	80.4207	1,189.45	69.3509	1,189.45	78.1122	1,189.45	68.5693	1,189.45	72.7003	1,189.45	76.5368	1,189.45	67.7262	1,189.45	79.3487	1,189.45	69.9297	1,189.45	78.3478	1,189.45	76.8582	1,189.45	73.9194	1,189.45	79.1617	1,189.45	69.843	1,189.45	78.6816	1,189.45	72.5901	1,189.45	76.4581	1,189.45	74.166
1,230.47	82.8118	1,230.47	83.305	1,230.47	82.3096	1,230.47	83.7299	1,230.47	81.932	1,230.47	83.9308	1,230.47	82.2082	1,230.47	83.9085	1,230.47	83.2121	1,230.47	83.2173	1,230.47	84.1545	1,230.47	81.1935	1,230.47	83.7645	1,230.47	79.056	1,230.47	81.6311	1,230.47	79.7854	1,230.47	79.7749	1,230.47	80.2162	1,230.47	79.9386	1,230.47	78.7318	1,230.47	77.715	1,230.47	74.343	1,230.47	67.9151	1,230.47	63.9805	1,230.47	67.8145	1,230.47	73.9887	1,230.47	70.3023	1,230.47	76.2851	1,230.47	72.9449	1,230.47	73.1299	1,230.47	77.1958	1,230.47	71.6434	1,230.47	79.5612	1,230.47	74.6737	1,230.47	78.764	1,230.47	76.0784
1,274.41	83.2505	1,274.41	83.6958	1,274.41	82.8615	1,274.41	83.64	1,274.41	82.669	1,274.41	82.7979	1,274.41	82.3258	1,274.41	81.9147	1,274.41	82.1556	1,274.41	81.9946	1,274.41	82.6436	1,274.41	81.4923	1,274.41	82.5231	1,274.41	78.3472	1,274.41	80.4299	1,274.41	75.2716	1,274.41	77.3673	1,274.41	76.7104	1,274.41	76.8882	1,274.41	77.5503	1,274.41	77.4661	1,274.41	77.2598	1,274.41	76.9932	1,274.41	76.2207	1,274.41	75.2397	1,274.41	76.673	1,274.41	71.8773	1,274.41	77.1999	1,274.41	70.6519	1,274.41	74.7491	1,274.41	75.4365	1,274.41	71.4532	1,274.41	77.0904	1,274.41	74.0804	1,274.41	75.819	1,274.41	74.4549
1,319.82	84.1981	1,319.82	83.8685	1,319.82	84.2634	1,319.82	83.5771	1,319.82	83.8429	1,319.82	83.268	1,319.82	83.1535	1,319.82	82.4013	1,319.82	82.4594	1,319.82	81.5208	1,319.82	82.3951	1,319.82	81.1111	1,319.82	82.7837	1,319.82	79.869	1,319.82	82.0997	1,319.82	77.6633	1,319.82	80.8151	1,319.82	75.4095	1,319.82	79.01	1,319.82	68.4781	1,319.82	74.6063	1,319.82	68.7924	1,319.82	68.3506	1,319.82	73.9498	1,319.82	69.6887	1,319.82	75.7576	1,319.82	70.8442	1,319.82	77.2982	1,319.82	75.0361	1,319.82	76.6022	1,319.82	77.3943	1,319.82	72.146	1,319.82	77.2071	1,319.82	70.7848	1,319.82	76.4321	1,319.82	74.0615
1,366.7	85.2344	1,366.7	85.0371	1,366.7	85.0638	1,366.7	85.1773	1,366.7	84.718	1,366.7	85.2467	1,366.7	84.828	1,366.7	84.0645	1,366.7	84.6828	1,366.7	81.8535	1,366.7	83.9473	1,366.7	80.82	1,366.7	82.7612	1,366.7	80.5868	1,366.7	81.8066	1,366.7	79.0301	1,366.7	82.1439	1,366.7	78.2523	1,366.7	82.5176	1,366.7	78.2156	1,366.7	80.6617	1,366.7	74.2122	1,366.7	74.8988	1,366.7	60.2072	1,366.7	52.6908	1,366.7	75.647	1,366.7	72.2483	1,366.7	78.1914	1,366.7	75.4363	1,366.7	76.3286	1,366.7	76.3664	1,366.7	73.1811	1,366.7	78.1052	1,366.7	73.9711	1,366.7	77.1482	1,366.7	75.1302
1,413.57	84.7072	1,413.57	85.6083	1,413.57	84.4448	1,413.57	86.4072	1,413.57	85.3175	1,413.57	86.0316	1,413.57	86.1148	1,413.57	83.814	1,413.57	85.6719	1,413.57	81.8864	1,413.57	84.8502	1,413.57	81.8657	1,413.57	83.5254	1,413.57	79.6	1,413.57	81.086	1,413.57	71.2879	1,413.57	79.2707	1,413.57	65.5402	1,413.57	80.5992	1,413.57	73.7256	1,413.57	80.1148	1,413.57	77.3043	1,413.57	78.3014	1,413.57	71.6262	1,413.57	75.273	1,413.57	75.9474	1,413.57	62.8182	1,413.57	79.2153	1,413.57	71.2333	1,413.57	75.5639	1,413.57	76.8431	1,413.57	71.6806	1,413.57	78.0465	1,413.57	75.7465	1,413.57	76.7342	1,413.57	76.0716
1,463.38	85.5976	1,463.38	87.0375	1,463.38	84.2442	1,463.38	87.0195	1,463.38	84.8333	1,463.38	85.075	1,463.38	86.1886	1,463.38	82.0643	1,463.38	87.0713	1,463.38	80.9937	1,463.38	86.8036	1,463.38	79.6392	1,463.38	85.0226	1,463.38	74.9036	1,463.38	82.8874	1,463.38	72.5999	1,463.38	78.1002	1,463.38	64.2977	1,463.38	72.6515	1,463.38	70.01	1,463.38	78.2546	1,463.38	73.3617	1,463.38	79.6906	1,463.38	71.6099	1,463.38	78.7705	1,463.38	73.5707	1,463.38	75.4448	1,463.38	79.2463	1,463.38	67.2767	1,463.38	78.3946	1,463.38	76.6894	1,463.38	65.0515	1,463.38	77.8939	1,463.38	73.1582	1,463.38	77.8619	1,463.38	76.5736
1,516.11	85.5727	1,516.11	86.4598	1,516.11	84.6944	1,516.11	85.7301	1,516.11	84.7492	1,516.11	83.9257	1,516.11	85.3715	1,516.11	84.2607	1,516.11	86.5709	1,516.11	84.3601	1,516.11	86.9242	1,516.11	81.0676	1,516.11	85.1833	1,516.11	79.7432	1,516.11	83.504	1,516.11	81.4339	1,516.11	81.4518	1,516.11	79.2449	1,516.11	75.436	1,516.11	75.5545	1,516.11	74.9409	1,516.11	70.672	1,516.11	77.2663	1,516.11	58.7361	1,516.11	76.3139	1,516.11	69.6664	1,516.11	75.0972	1,516.11	77.2269	1,516.11	73.9398	1,516.11	78.4081	1,516.11	74.4828	1,516.11	71.2831	1,516.11	74.9902	1,516.11	68.7519	1,516.11	75.2444	1,516.11	73.3913
1,568.85	84.6768	1,568.85	85.169	1,568.85	84.6212	1,568.85	84.6888	1,568.85	85.2492	1,568.85	84.1273	1,568.85	85.6045	1,568.85	84.3773	1,568.85	86.2629	1,568.85	83.7832	1,568.85	86.3	1,568.85	81.261	1,568.85	84.9594	1,568.85	79.968	1,568.85	83.082	1,568.85	81.6591	1,568.85	80.9572	1,568.85	81.2513	1,568.85	77.9673	1,568.85	80.3283	1,568.85	75.5062	1,568.85	79.3687	1,568.85	77.503	1,568.85	73.427	1,568.85	79.3381	1,568.85	65.4483	1,568.85	79.4955	1,568.85	76.0022	1,568.85	74.7491	1,568.85	78.7539	1,568.85	75.5374	1,568.85	75.5954	1,568.85	74.0686	1,568.85	70.0301	1,568.85	73.0266	1,568.85	71.7595
1,624.51	85.5111	1,624.51	85.4684	1,624.51	84.9854	1,624.51	84.4285	1,624.51	83.9443	1,624.51	83.0993	1,624.51	84.6505	1,624.51	83.9778	1,624.51	86.7857	1,624.51	84.3978	1,624.51	87.4459	1,624.51	83.5902	1,624.51	86.3922	1,624.51	81.9599	1,624.51	83.4782	1,624.51	79.6587	1,624.51	79.9715	1,624.51	77.9197	1,624.51	76.0812	1,624.51	78.1861	1,624.51	76.3049	1,624.51	80.4462	1,624.51	77.3771	1,624.51	77.3675	1,624.51	73.95	1,624.51	65.8818	1,624.51	73.0469	1,624.51	73.3794	1,624.51	68.5	1,624.51	76.0722	1,624.51	73.7265	1,624.51	67.611	1,624.51	73.4351	1,624.51	69.974	1,624.51	71.9536	1,624.51	71.7183
1,681.64	86.3155	1,681.64	85.177	1,681.64	86.2136	1,681.64	83.6212	1,681.64	84.9964	1,681.64	84.5364	1,681.64	84.1829	1,681.64	86.1497	1,681.64	85.3218	1,681.64	85.6247	1,681.64	86.0681	1,681.64	83.5064	1,681.64	85.4669	1,681.64	82.0051	1,681.64	83.426	1,681.64	81.1243	1,681.64	80.2087	1,681.64	79.8695	1,681.64	77.5583	1,681.64	78.059	1,681.64	76.1291	1,681.64	79.7151	1,681.64	77.3504	1,681.64	78.0708	1,681.64	78.1678	1,681.64	66.8487	1,681.64	77.2392	1,681.64	70.3051	1,681.64	74.4155	1,681.64	75.2492	1,681.64	76.2817	1,681.64	68.9186	1,681.64	74.3572	1,681.64	69.0559	1,681.64	70.4478	1,681.64	71.4037
1,741.7	87.0125	1,741.7	85.7651	1,741.7	86.5914	1,741.7	84.3974	1,741.7	86.063	1,741.7	85.5878	1,741.7	85.1909	1,741.7	85.6711	1,741.7	84.9817	1,741.7	84.2852	1,741.7	86.0238	1,741.7	84.5569	1,741.7	85.7309	1,741.7	83.1018	1,741.7	82.9055	1,741.7	79.6119	1,741.7	79.0981	1,741.7	79.2604	1,741.7	79.7136	1,741.7	78.555	1,741.7	78.723	1,741.7	78.6219	1,741.7	73.5953	1,741.7	75.4452	1,741.7	75.6285	1,741.7	72.0826	1,741.7	72.6328	1,741.7	68.0617	1,741.7	76.5155	1,741.7	72.1301	1,741.7	75.7313	1,741.7	63.1715	1,741.7	72.4268	1,741.7	46.5698	1,741.7	64.9364	1,741.7	68.5236
1,803.22	86.3507	1,803.22	86.4617	1,803.22	86.6406	1,803.22	87.1563	1,803.22	86.6302	1,803.22	86.4476	1,803.22	86.0512	1,803.22	84.9948	1,803.22	85.2417	1,803.22	84.4657	1,803.22	84.7104	1,803.22	81.8803	1,803.22	83.5702	1,803.22	77.8807	1,803.22	82.4693	1,803.22	78.9384	1,803.22	80.8952	1,803.22	77.9181	1,803.22	77.1582	1,803.22	77.0619	1,803.22	72.2868	1,803.22	73.3554	1,803.22	73.532	1,803.22	74.4825	1,803.22	71.646	1,803.22	71.2562	1,803.22	73.9395	1,803.22	67.3655	1,803.22	76.0522	1,803.22	74.4709	1,803.22	74.5832	1,803.22	71.3279	1,803.22	74.9814	1,803.22	62.0641	1,803.22	68.2871	1,803.22	65.0558
1,866.21	85.7119	1,866.21	86.5401	1,866.21	85.8719	1,866.21	87.3682	1,866.21	86.338	1,866.21	86.3816	1,866.21	85.8981	1,866.21	84.8296	1,866.21	84.8165	1,866.21	83.9974	1,866.21	83.1702	1,866.21	81.6665	1,866.21	81.8343	1,866.21	80.4302	1,866.21	79.4999	1,866.21	79.9812	1,866.21	76.7825	1,866.21	76.0572	1,866.21	74.0657	1,866.21	75.3636	1,866.21	70.0506	1,866.21	75.5905	1,866.21	72.9153	1,866.21	71.9128	1,866.21	74.4568	1,866.21	73.0354	1,866.21	68.7604	1,866.21	66.5106	1,866.21	74.7826	1,866.21	73.1778	1,866.21	74.3408	1,866.21	71.8198	1,866.21	75.1605	1,866.21	61.0836	1,866.21	70.6496	1,866.21	62.3665
1,932.13	84.1245	1,932.13	85.6237	1,932.13	84.4473	1,932.13	86.7471	1,932.13	85.1647	1,932.13	85.6731	1,932.13	84.921	1,932.13	83.9792	1,932.13	84.2012	1,932.13	82.782	1,932.13	82.7577	1,932.13	80.1592	1,932.13	81.2139	1,932.13	78.7661	1,932.13	79.2022	1,932.13	76.0066	1,932.13	76.4122	1,932.13	72.6749	1,932.13	73.3364	1,932.13	67.5019	1,932.13	74.3331	1,932.13	71.9005	1,932.13	73.6576	1,932.13	73.1143	1,932.13	73.2982	1,932.13	68.6719	1,932.13	68.8151	1,932.13	70.0144	1,932.13	70.335	1,932.13	70.8835	1,932.13	73.2008	1,932.13	71.3433	1,932.13	73.9163	1,932.13	65.0974	1,932.13	68.8104	1,932.13	64.0121
1,999.51	83.1412	1,999.51	85.3633	1,999.51	82.2128	1,999.51	86.0451	1,999.51	82.6666	1,999.51	85.4188	1,999.51	83.3083	1,999.51	85.3775	1,999.51	82.9688	1,999.51	82.9452	1,999.51	81.4425	1,999.51	80.128	1,999.51	80.668	1,999.51	79.8415	1,999.51	79.4831	1,999.51	76.6359	1,999.51	77.2723	1,999.51	75.6917	1,999.51	73.563	1,999.51	74.8813	1,999.51	73.8191	1,999.51	69.3761	1,999.51	73.9123	1,999.51	74.3474	1,999.51	69.4302	1,999.51	71.3251	1,999.51	64.6387	1,999.51	68.0546	1,999.51	69.5759	1,999.51	70.9098	1,999.51	71.344	1,999.51	70.3395	1,999.51	73.8201	1,999.51	64.6545	1,999.51	70.3861	1,999.51	56.9713
2,069.82	83.3458	2,069.82	84.3097	2,069.82	81.8585	2,069.82	84.0319	2,069.82	81.4708	2,069.82	84.4576	2,069.82	82.0847	2,069.82	85.5314	2,069.82	81.1501	2,069.82	84.3549	2,069.82	80.4307	2,069.82	83.1066	2,069.82	79.0268	2,069.82	79.6818	2,069.82	78.0599	2,069.82	74.8503	2,069.82	74.5057	2,069.82	74.1002	2,069.82	72.955	2,069.82	70.5829	2,069.82	74.9874	2,069.82	70.5229	2,069.82	75.2466	2,069.82	74.4152	2,069.82	74.3686	2,069.82	72.0589	2,069.82	58.6764	2,069.82	70.5119	2,069.82	67.3705	2,069.82	71.1943	2,069.82	71.2152	2,069.82	69.5198	2,069.82	73.2488	2,069.82	61.6482	2,069.82	70.7916	2,069.82	60.835
2,143.07	84.1735	2,143.07	84.6364	2,143.07	83.0221	2,143.07	83.9629	2,143.07	82.1831	2,143.07	85.083	2,143.07	81.9142	2,143.07	86.7154	2,143.07	81.6876	2,143.07	85.9782	2,143.07	81.1663	2,143.07	83.7908	2,143.07	79.5347	2,143.07	79.6859	2,143.07	79.6438	2,143.07	79.1231	2,143.07	79.5958	2,143.07	77.1243	2,143.07	77.5864	2,143.07	75.7603	2,143.07	77.6802	2,143.07	72.4245	2,143.07	73.4435	2,143.07	75.1675	2,143.07	73.6933	2,143.07	73.951	2,143.07	69.4302	2,143.07	71.0439	2,143.07	62.7711	2,143.07	73.2004	2,143.07	70.7411	2,143.07	69.773	2,143.07	73.9058	2,143.07	64.2836	2,143.07	71.9491	2,143.07	62.5557
2,219.24	85.0353	2,219.24	85.0654	2,219.24	83.9943	2,219.24	85.0349	2,219.24	83.3884	2,219.24	85.8131	2,219.24	83.2569	2,219.24	87.101	2,219.24	82.4436	2,219.24	85.9509	2,219.24	82.1125	2,219.24	84.3498	2,219.24	80.8437	2,219.24	81.8755	2,219.24	80.4278	2,219.24	77.0111	2,219.24	80.1024	2,219.24	74.0277	2,219.24	77.0446	2,219.24	74.9002	2,219.24	76.9062	2,219.24	74.5041	2,219.24	76.3696	2,219.24	71.6292	2,219.24	68.6066	2,219.24	75.6507	2,219.24	71.898	2,219.24	69.9296	2,219.24	60.058	2,219.24	73.3057	2,219.24	69.5253	2,219.24	68.734	2,219.24	74.4419	2,219.24	65.0763	2,219.24	72.0072	2,219.24	66.8053
2,296.88	84.6478	2,296.88	85.6717	2,296.88	84.0181	2,296.88	86.8777	2,296.88	83.7769	2,296.88	87.3931	2,296.88	83.8678	2,296.88	86.0837	2,296.88	84.5478	2,296.88	84.887	2,296.88	83.3494	2,296.88	84.0458	2,296.88	83.16	2,296.88	79.5811	2,296.88	80.9934	2,296.88	78.5094	2,296.88	76.0493	2,296.88	78.3349	2,296.88	78.747	2,296.88	70.8806	2,296.88	76.1138	2,296.88	73.1461	2,296.88	75.5281	2,296.88	70.9979	2,296.88	74.5057	2,296.88	74.0606	2,296.88	73.2798	2,296.88	71.6919	2,296.88	65.1806	2,296.88	74.1899	2,296.88	64.5714	2,296.88	70.7909	2,296.88	73.2074	2,296.88	40.6479	2,296.88	74.9283	2,296.88	61.494
2,378.91	83.7768	2,378.91	84.5551	2,378.91	83.1061	2,378.91	86.7954	2,378.91	82.8537	2,378.91	87.4228	2,378.91	83.8476	2,378.91	85.1214	2,378.91	84.6878	2,378.91	85.8644	2,378.91	85.6283	2,378.91	84.7192	2,378.91	85.2804	2,378.91	83.5105	2,378.91	83.5291	2,378.91	81.2264	2,378.91	82.9057	2,378.91	74.5907	2,378.91	81.8986	2,378.91	72.054	2,378.91	77.0863	2,378.91	72.3088	2,378.91	65.0654	2,378.91	71.725	2,378.91	74.0345	2,378.91	75.4735	2,378.91	75.8001	2,378.91	72.6572	2,378.91	66.1898	2,378.91	74.3843	2,378.91	65.743	2,378.91	72.9004	2,378.91	71.1255	2,378.91	61.6981	2,378.91	74.508	2,378.91	64.7179
2,462.4	85.4736	2,462.4	85.839	2,462.4	85.3852	2,462.4	86.3509	2,462.4	83.8994	2,462.4	86.9245	2,462.4	83.0572	2,462.4	86.333	2,462.4	84.1596	2,462.4	86.7335	2,462.4	85.2547	2,462.4	85.8023	2,462.4	84.7819	2,462.4	81.5555	2,462.4	84.7294	2,462.4	77.3269	2,462.4	83.7886	2,462.4	77.2203	2,462.4	81.2618	2,462.4	74.4262	2,462.4	76.5182	2,462.4	70.5764	2,462.4	75.5268	2,462.4	72.9062	2,462.4	58.1019	2,462.4	74.0225	2,462.4	73.301	2,462.4	72.8894	2,462.4	70.1654	2,462.4	73.1874	2,462.4	69.9058	2,462.4	72.7958	2,462.4	68.8446	2,462.4	51.0046	2,462.4	71.3945	2,462.4	64.7859
2,548.83	86.6171	2,548.83	86.803	2,548.83	86.1372	2,548.83	86.0444	2,548.83	84.6918	2,548.83	86.5809	2,548.83	83.6685	2,548.83	88.671	2,548.83	83.8178	2,548.83	88.3357	2,548.83	84.5561	2,548.83	84.9426	2,548.83	83.4437	2,548.83	83.4215	2,548.83	82.4082	2,548.83	80.8936	2,548.83	80.6216	2,548.83	72.7489	2,548.83	80.9255	2,548.83	76.8288	2,548.83	73.4782	2,548.83	73.9554	2,548.83	69.4898	2,548.83	73.5163	2,548.83	76.0076	2,548.83	75.7663	2,548.83	68.5079	2,548.83	74.1453	2,548.83	73.635	2,548.83	72.917	2,548.83	74.0627	2,548.83	73.0613	2,548.83	69.8662	2,548.83	58.6771	2,548.83	73.5492	2,548.83	65.6359
2,639.65	87.1502	2,639.65	87.243	2,639.65	86.1449	2,639.65	87.1539	2,639.65	85.3957	2,639.65	87.5159	2,639.65	84.4936	2,639.65	88.7643	2,639.65	83.8538	2,639.65	87.3682	2,639.65	83.472	2,639.65	84.2508	2,639.65	81.2621	2,639.65	80.8739	2,639.65	80.501	2,639.65	79.4931	2,639.65	82.5541	2,639.65	79.2209	2,639.65	78.1605	2,639.65	74.4896	2,639.65	57.1965	2,639.65	72.6881	2,639.65	69.4057	2,639.65	72.2213	2,639.65	75.9262	2,639.65	74.9044	2,639.65	65.996	2,639.65	75.0269	2,639.65	74.2925	2,639.65	67.974	2,639.65	74.5037	2,639.65	72.2304	2,639.65	72.0628	2,639.65	60.8595	2,639.65	76.269	2,639.65	68.5128
2,731.93	86.3716	2,731.93	86.4343	2,731.93	85.3476	2,731.93	87.563	2,731.93	84.5352	2,731.93	87.0904	2,731.93	84.5948	2,731.93	85.7758	2,731.93	86.1709	2,731.93	85.1179	2,731.93	84.8028	2,731.93	82.9921	2,731.93	84.0168	2,731.93	82.1513	2,731.93	83.2895	2,731.93	82.2631	2,731.93	79.1206	2,731.93	77.0195	2,731.93	63.0926	2,731.93	72.0328	2,731.93	72.7938	2,731.93	71.2027	2,731.93	74.0782	2,731.93	72.2609	2,731.93	72.582	2,731.93	74.3007	2,731.93	72.162	2,731.93	75.9395	2,731.93	71.3782	2,731.93	69.9619	2,731.93	73.7142	2,731.93	71.3913	2,731.93	74.134	2,731.93	55.1588	2,731.93	74.8551	2,731.93	66.0655
2,828.61	85.5699	2,828.61	86.6793	2,828.61	83.9665	2,828.61	86.9659	2,828.61	83.3241	2,828.61	86.1894	2,828.61	83.9483	2,828.61	85.1002	2,828.61	86.8298	2,828.61	84.3418	2,828.61	86.0654	2,828.61	84.2562	2,828.61	84.5424	2,828.61	80.7663	2,828.61	83.0609	2,828.61	76.831	2,828.61	80.4325	2,828.61	74.7798	2,828.61	73.4824	2,828.61	70.4742	2,828.61	79.9791	2,828.61	68.7428	2,828.61	75.4533	2,828.61	71.9389	2,828.61	72.9036	2,828.61	72.1538	2,828.61	70.3102	2,828.61	76.5367	2,828.61	68.6531	2,828.61	68.4869	2,828.61	71.712	2,828.61	71.5271	2,828.61	72.4048	2,828.61	58.8509	2,828.61	74.3175	2,828.61	63.5223
2,928.22	86.3629	2,928.22	87.6189	2,928.22	84.6068	2,928.22	86.3055	2,928.22	84.1058	2,928.22	85.0511	2,928.22	84.9704	2,928.22	85.385	2,928.22	87.2113	2,928.22	84.0551	2,928.22	85.9263	2,928.22	83.7656	2,928.22	83.1395	2,928.22	80.138	2,928.22	82.7009	2,928.22	72.3392	2,928.22	78.1782	2,928.22	74.6077	2,928.22	77.7711	2,928.22	72.2551	2,928.22	80.9827	2,928.22	72.7119	2,928.22	76.5805	2,928.22	72.6797	2,928.22	71.4361	2,928.22	71.0888	2,928.22	68.1348	2,928.22	74.9683	2,928.22	65.5598	2,928.22	70.0695	2,928.22	71.6525	2,928.22	71.0564	2,928.22	68.6524	2,928.22	56.5245	2,928.22	74.3725	2,928.22	68.6577
3,030.76	86.5101	3,030.76	88.0012	3,030.76	84.4114	3,030.76	87.0621	3,030.76	84.8721	3,030.76	85.064	3,030.76	86.0996	3,030.76	84.2155	3,030.76	86.0087	3,030.76	82.4609	3,030.76	84.3278	3,030.76	81.3055	3,030.76	83.7814	3,030.76	77.9264	3,030.76	80.9777	3,030.76	78.0633	3,030.76	75.3228	3,030.76	77.5073	3,030.76	80.8348	3,030.76	71.8485	3,030.76	79.2802	3,030.76	71.543	3,030.76	73.535	3,030.76	70.7025	3,030.76	61.8121	3,030.76	73.0509	3,030.76	72.2027	3,030.76	74.2728	3,030.76	68.5365	3,030.76	67.7825	3,030.76	70.0624	3,030.76	68.504	3,030.76	72.9008	3,030.76	65.9705	3,030.76	74.977	3,030.76	58.3385
3,137.7	86.2595	3,137.7	88.3394	3,137.7	84.7999	3,137.7	87.2067	3,137.7	84.6118	3,137.7	83.276	3,137.7	86.28	3,137.7	81.5061	3,137.7	85.1368	3,137.7	81.9924	3,137.7	83.8791	3,137.7	79.5446	3,137.7	81.9577	3,137.7	79.3826	3,137.7	77.841	3,137.7	79.8022	3,137.7	76.3334	3,137.7	73.485	3,137.7	80.9684	3,137.7	67.8847	3,137.7	77.6441	3,137.7	69.0501	3,137.7	71.7034	3,137.7	67.4302	3,137.7	63.6833	3,137.7	72.943	3,137.7	71.8162	3,137.7	72.4818	3,137.7	65.8784	3,137.7	66.9752	3,137.7	67.9034	3,137.7	67.3574	3,137.7	71.4447	3,137.7	66.8967	3,137.7	73.8113	3,137.7	59.9467
3,249.02	87.3408	3,249.02	88.0976	3,249.02	85.045	3,249.02	85.9826	3,249.02	84.3911	3,249.02	82.7714	3,249.02	86.0127	3,249.02	81.4986	3,249.02	85.4145	3,249.02	82.1778	3,249.02	84.1638	3,249.02	81.3127	3,249.02	81.9126	3,249.02	82.6594	3,249.02	80.1991	3,249.02	78.846	3,249.02	81.4294	3,249.02	71.335	3,249.02	81.2585	3,249.02	73.6509	3,249.02	74.4579	3,249.02	71.0322	3,249.02	75.2595	3,249.02	70.4542	3,249.02	71.5934	3,249.02	71.8896	3,249.02	71.5809	3,249.02	74.238	3,249.02	54.219	3,249.02	67.4012	3,249.02	62.9006	3,249.02	68.007	3,249.02	69.8183	3,249.02	61.4737	3,249.02	69.3356	3,249.02	58.5264
3,363.28	88.0971	3,363.28	87.3959	3,363.28	85.6393	3,363.28	83.8533	3,363.28	85.0116	3,363.28	80.1452	3,363.28	85.5692	3,363.28	78.4676	3,363.28	85.5748	3,363.28	81.8202	3,363.28	84.6692	3,363.28	82.6806	3,363.28	84.2507	3,363.28	80.8092	3,363.28	82.9642	3,363.28	75.9074	3,363.28	82.5076	3,363.28	76.655	3,363.28	80.0038	3,363.28	74.6466	3,363.28	74.8588	3,363.28	71.4142	3,363.28	68.8691	3,363.28	71.4042	3,363.28	75.5633	3,363.28	71.9735	3,363.28	65.7773	3,363.28	75.0368	3,363.28	58.0418	3,363.28	70.0723	3,363.28	66.5455	3,363.28	70.1704	3,363.28	70.6965	3,363.28	60.2136	3,363.28	67.4166	3,363.28	60.3391
3,481.93	87.7458	3,481.93	87.5735	3,481.93	85.134	3,481.93	84.0809	3,481.93	85.1303	3,481.93	77.0952	3,481.93	85.8438	3,481.93	78.0601	3,481.93	85.8573	3,481.93	82.5502	3,481.93	83.2232	3,481.93	83.6886	3,481.93	84.3983	3,481.93	80.9183	3,481.93	83.8584	3,481.93	81.0098	3,481.93	82.1505	3,481.93	77.2356	3,481.93	76.6547	3,481.93	72.0092	3,481.93	76.0162	3,481.93	71.2335	3,481.93	73.1175	3,481.93	71.7871	3,481.93	67.0394	3,481.93	72.4717	3,481.93	61.6566	3,481.93	74.5995	3,481.93	63.004	3,481.93	69.6503	3,481.93	63.4347	3,481.93	68.9947	3,481.93	66.8618	3,481.93	65.3428	3,481.93	65.0824	3,481.93	56.2489
3,604.98	86.6742	3,604.98	87.706	3,604.98	85.007	3,604.98	84.843	3,604.98	84.5757	3,604.98	78.3454	3,604.98	85.4547	3,604.98	78.1447	3,604.98	86.3373	3,604.98	83.7653	3,604.98	83.6731	3,604.98	84.101	3,604.98	83.8619	3,604.98	82.6235	3,604.98	82.9659	3,604.98	82.1766	3,604.98	79.3666	3,604.98	74.6553	3,604.98	70.6427	3,604.98	73.4502	3,604.98	76.5077	3,604.98	71.4951	3,604.98	71.2461	3,604.98	70.9893	3,604.98	67.6224	3,604.98	73.7448	3,604.98	64.424	3,604.98	72.1538	3,604.98	63.1805	3,604.98	71.1667	3,604.98	63.8597	3,604.98	68.9061	3,604.98	67.7308	3,604.98	66.6977	3,604.98	65.59	3,604.98	56.9015
3,732.42	87.3372	3,732.42	86.5921	3,732.42	85.4664	3,732.42	84.1823	3,732.42	83.4692	3,732.42	80.0151	3,732.42	82.8262	3,732.42	78.6492	3,732.42	84.9268	3,732.42	83.6066	3,732.42	84.6859	3,732.42	83.4725	3,732.42	84.0128	3,732.42	82.9073	3,732.42	80.4206	3,732.42	78.4003	3,732.42	71.3206	3,732.42	76.2192	3,732.42	57.7351	3,732.42	71.18	3,732.42	71.5329	3,732.42	70.5758	3,732.42	67.4793	3,732.42	69.5888	3,732.42	68.311	3,732.42	72.5971	3,732.42	64.9302	3,732.42	72.1384	3,732.42	61.5012	3,732.42	69.0099	3,732.42	61.2668	3,732.42	68.0087	3,732.42	66.5979	3,732.42	63.5026	3,732.42	64.7321	3,732.42	63.2429
3,864.26	86.4632	3,864.26	86.0736	3,864.26	85.2759	3,864.26	83.3611	3,864.26	82.4251	3,864.26	77.9007	3,864.26	83.3984	3,864.26	79.765	3,864.26	82.7452	3,864.26	84.1955	3,864.26	83.7322	3,864.26	84.2257	3,864.26	83.3786	3,864.26	82.1097	3,864.26	78.9879	3,864.26	77.3819	3,864.26	63.2398	3,864.26	75.7505	3,864.26	60.4413	3,864.26	71.2832	3,864.26	58.759	3,864.26	70.4552	3,864.26	71.8239	3,864.26	68.7524	3,864.26	69.6553	3,864.26	71.3308	3,864.26	65.2276	3,864.26	71.6728	3,864.26	58.0067	3,864.26	69.6125	3,864.26	38.8109	3,864.26	68.4505	3,864.26	66.0487	3,864.26	64.5946	3,864.26	63.6197	3,864.26	64.7555
4,000.49	84.9957	4,000.49	84.6088	4,000.49	82.7459	4,000.49	83.4623	4,000.49	79.5761	4,000.49	75.9461	4,000.49	83.3837	4,000.49	79.9341	4,000.49	83.8228	4,000.49	84.0457	4,000.49	84.2008	4,000.49	84.1332	4,000.49	82.57	4,000.49	80.522	4,000.49	77.3726	4,000.49	78.6972	4,000.49	63.9097	4,000.49	73.6479	4,000.49	59.1616	4,000.49	70.3272	4,000.49	69.8348	4,000.49	68.3137	4,000.49	71.7019	4,000.49	67.6112	4,000.49	63.0267	4,000.49	69.7008	4,000.49	55.0896	4,000.49	69.7986	4,000.49	60.8244	4,000.49	69.7307	4,000.49	59.324	4,000.49	67.9147	4,000.49	64.0827	4,000.49	62.684	4,000.49	58.1619	4,000.49	62.501
4,141.11	85.1036	4,141.11	83.9951	4,141.11	81.8427	4,141.11	83.2539	4,141.11	77.8008	4,141.11	75.0809	4,141.11	82.669	4,141.11	80.6536	4,141.11	83.0336	4,141.11	83.9453	4,141.11	84.1781	4,141.11	82.5908	4,141.11	80.8322	4,141.11	81.0107	4,141.11	74.155	4,141.11	76.3301	4,141.11	69.4496	4,141.11	70.1795	4,141.11	65.8902	4,141.11	65.7998	4,141.11	75.0625	4,141.11	66.8828	4,141.11	67.9824	4,141.11	66.4363	4,141.11	57.7385	4,141.11	67.6026	4,141.11	61.1841	4,141.11	69.7162	4,141.11	58.2917	4,141.11	67.2048	4,141.11	60.5843	4,141.11	66.776	4,141.11	59.6759	4,141.11	63.431	4,141.11	50.8029	4,141.11	62.8281
4,287.6	84.8011	4,287.6	85.442	4,287.6	81.0474	4,287.6	80.889	4,287.6	76.947	4,287.6	76.0888	4,287.6	82.0387	4,287.6	81.7806	4,287.6	83.0679	4,287.6	83.3431	4,287.6	84.4335	4,287.6	81.3546	4,287.6	78.9174	4,287.6	78.0543	4,287.6	70.1065	4,287.6	73.115	4,287.6	68.8154	4,287.6	71.6614	4,287.6	70.6644	4,287.6	65.6061	4,287.6	71.6958	4,287.6	63.7749	4,287.6	51.3748	4,287.6	64.5404	4,287.6	62.8293	4,287.6	64.8306	4,287.6	62.2492	4,287.6	68.1355	4,287.6	54.0208	4,287.6	65.0351	4,287.6	49.0053	4,287.6	65.2006	4,287.6	57.2493	4,287.6	61.8853	4,287.6	52.7091	4,287.6	64.2095
4,438.48	84.3081	4,438.48	84.9155	4,438.48	80.6172	4,438.48	79.9116	4,438.48	75.8747	4,438.48	73.5499	4,438.48	80.7256	4,438.48	81.0961	4,438.48	83.2005	4,438.48	82.1118	4,438.48	82.7405	4,438.48	79.5384	4,438.48	73.3872	4,438.48	75.6901	4,438.48	70.094	4,438.48	71.5679	4,438.48	63.2957	4,438.48	64.0294	4,438.48	71.5838	4,438.48	62.633	4,438.48	65.0441	4,438.48	57.468	4,438.48	69.1918	4,438.48	59.87	4,438.48	61.1634	4,438.48	61.5983	4,438.48	55.7791	4,438.48	63.4621	4,438.48	50.993	4,438.48	63.4599	4,438.48	48.6334	4,438.48	61.1341	4,438.48	56.6619	4,438.48	60.5438	4,438.48	47.3476	4,438.48	61.9081
4,595.21	84.7174	4,595.21	82.7983	4,595.21	79.7268	4,595.21	73.6752	4,595.21	73.7285	4,595.21	68.9001	4,595.21	80.0763	4,595.21	80.5745	4,595.21	83.2081	4,595.21	81.344	4,595.21	79.6257	4,595.21	78.0737	4,595.21	70.443	4,595.21	74.6488	4,595.21	71.1758	4,595.21	69.1415	4,595.21	63.9198	4,595.21	67.7908	4,595.21	70.8068	4,595.21	60.7824	4,595.21	69.5955	4,595.21	59.9731	4,595.21	67.1268	4,595.21	58.2358	4,595.21	64.5648	4,595.21	63.6346	4,595.21	48.9632	4,595.21	62.98	4,595.21	50.4153	4,595.21	61.9292	4,595.21	46.7448	4,595.21	59.0271	4,595.21	53.6707	4,595.21	56.1041	4,595.21	50.1256	4,595.21	62.6696
4,756.35	85.2119	4,756.35	83.4348	4,756.35	80.2214	4,756.35	75.1515	4,756.35	74.4337	4,756.35	74.7836	4,756.35	81.2286	4,756.35	81.1647	4,756.35	82.6858	4,756.35	80.9234	4,756.35	76.1805	4,756.35	76.8064	4,756.35	72.6716	4,756.35	73.6411	4,756.35	70.8858	4,756.35	70.1426	4,756.35	68.957	4,756.35	65.6945	4,756.35	70.9118	4,756.35	64.7795	4,756.35	71.2421	4,756.35	56.4456	4,756.35	69.6922	4,756.35	58.8564	4,756.35	65.9272	4,756.35	63.4993	4,756.35	53.2321	4,756.35	59.6298	4,756.35	55.8327	4,756.35	62.4237	4,756.35	50.7616	4,756.35	58.7297	4,756.35	52.2174	4,756.35	57.5852	4,756.35	49.7333	4,756.35	60.5764
4,924.8	85.6618	4,924.8	83.0769	4,924.8	81.1994	4,924.8	73.9474	4,924.8	74.9954	4,924.8	76.0485	4,924.8	80.8111	4,924.8	81.3327	4,924.8	82.0908	4,924.8	80.6058	4,924.8	74.5531	4,924.8	76.4399	4,924.8	71.7616	4,924.8	73.2833	4,924.8	70.8387	4,924.8	67.2809	4,924.8	69.981	4,924.8	67.8165	4,924.8	73.3698	4,924.8	59.5837	4,924.8	73.1164	4,924.8	60.2818	4,924.8	71.0343	4,924.8	60.8155	4,924.8	64.0674	4,924.8	59.6564	4,924.8	58.3879	4,924.8	61.1238	4,924.8	56.8149	4,924.8	61.8621	4,924.8	52.0265	4,924.8	58.6982	4,924.8	57.0858	4,924.8	60.7188	4,924.8	49.5657	4,924.8	59.5095
5,097.66	84.7827	5,097.66	83.1457	5,097.66	80.4794	5,097.66	70.2318	5,097.66	75.2255	5,097.66	77.1004	5,097.66	81.2212	5,097.66	81.8941	5,097.66	80.4419	5,097.66	80.4079	5,097.66	74.154	5,097.66	75.926	5,097.66	70.6848	5,097.66	71.7732	5,097.66	69.2905	5,097.66	69.1951	5,097.66	70.6801	5,097.66	64.0749	5,097.66	72.6576	5,097.66	61.505	5,097.66	73.559	5,097.66	60.4941	5,097.66	71.3031	5,097.66	61.1735	5,097.66	67.9803	5,097.66	56.212	5,097.66	54.2386	5,097.66	61.2471	5,097.66	49.5414	5,097.66	60.6	5,097.66	52.7622	5,097.66	56.3254	5,097.66	56.2429	5,097.66	60.9516	5,097.66	53.4275	5,097.66	60.685
5,277.83	83.9368	5,277.83	82.3467	5,277.83	79.8272	5,277.83	66.3397	5,277.83	74.3609	5,277.83	79.3814	5,277.83	82.4766	5,277.83	81.6995	5,277.83	79.0328	5,277.83	78.5543	5,277.83	74.0492	5,277.83	72.7469	5,277.83	71.1438	5,277.83	72.0716	5,277.83	70.204	5,277.83	65.3226	5,277.83	70.5342	5,277.83	65.2998	5,277.83	70.6785	5,277.83	60.0769	5,277.83	72.1399	5,277.83	59.563	5,277.83	72.5467	5,277.83	59.9589	5,277.83	69.2777	5,277.83	51.2697	5,277.83	56.1345	5,277.83	60.8267	5,277.83	55.6974	5,277.83	58.7008	5,277.83	57.5387	5,277.83	56.7386	5,277.83	57.8275	5,277.83	57.2379	5,277.83	49.8139	5,277.83	59.6188
5,463.87	84.5652	5,463.87	82.7043	5,463.87	79.7712	5,463.87	67.1833	5,463.87	75.025	5,463.87	79.9103	5,463.87	83.4106	5,463.87	81.175	5,463.87	78.7248	5,463.87	77.8038	5,463.87	72.0189	5,463.87	72.4992	5,463.87	69.466	5,463.87	69.637	5,463.87	70.7443	5,463.87	69.4205	5,463.87	71.223	5,463.87	63.4241	5,463.87	70.4741	5,463.87	62.9257	5,463.87	72.6936	5,463.87	58.3557	5,463.87	74.3877	5,463.87	57.6803	5,463.87	70.0605	5,463.87	58.8342	5,463.87	60.0103	5,463.87	62.0194	5,463.87	50.6695	5,463.87	56.8778	5,463.87	57.763	5,463.87	56.1054	5,463.87	55.4295	5,463.87	56.2234	5,463.87	53.3628	5,463.87	60.9536
5,657.23	84.7405	5,657.23	82.1678	5,657.23	79.2775	5,657.23	71.3555	5,657.23	77.2397	5,657.23	80.6666	5,657.23	83.2937	5,657.23	81.1922	5,657.23	79.1976	5,657.23	76.3369	5,657.23	67.7235	5,657.23	72.9184	5,657.23	70.632	5,657.23	72.5639	5,657.23	71.656	5,657.23	67.5405	5,657.23	69.9567	5,657.23	67.152	5,657.23	70.5318	5,657.23	62.5948	5,657.23	72.0738	5,657.23	61.5032	5,657.23	75.7033	5,657.23	51.9368	5,657.23	70.5655	5,657.23	61.0833	5,657.23	58.7175	5,657.23	58.6715	5,657.23	55.2655	5,657.23	58.7208	5,657.23	59.6135	5,657.23	57.3908	5,657.23	44.8089	5,657.23	51.7392	5,657.23	53.3083	5,657.23	56.1886
5,856.45	85.0593	5,856.45	81.5347	5,856.45	78.9373	5,856.45	75.0876	5,856.45	78.0811	5,856.45	80.95	5,856.45	83.6123	5,856.45	80.1794	5,856.45	79.4484	5,856.45	75.947	5,856.45	72.148	5,856.45	74.0509	5,856.45	70.2448	5,856.45	71.6388	5,856.45	73.4516	5,856.45	69.6001	5,856.45	71.4366	5,856.45	64.7456	5,856.45	71.3892	5,856.45	60.3627	5,856.45	71.4139	5,856.45	59.1428	5,856.45	76.4267	5,856.45	61.2677	5,856.45	70.9279	5,856.45	62.792	5,856.45	60.6398	5,856.45	55.9328	5,856.45	54.3954	5,856.45	58.2484	5,856.45	54.7625	5,856.45	55.802	5,856.45	51.3753	5,856.45	57.3612	5,856.45	56.7524	5,856.45	57.2154
6,062.99	85.7585	6,062.99	82.2362	6,062.99	77.2971	6,062.99	78.0346	6,062.99	76.9993	6,062.99	81.6195	6,062.99	83.7825	6,062.99	80.084	6,062.99	78.4979	6,062.99	76.8996	6,062.99	72.2228	6,062.99	75.2801	6,062.99	71.7034	6,062.99	72.9334	6,062.99	73.549	6,062.99	69.1842	6,062.99	72.7233	6,062.99	67.0994	6,062.99	68.6951	6,062.99	61.5072	6,062.99	71.7066	6,062.99	55.1264	6,062.99	77.2022	6,062.99	61.9676	6,062.99	70.2289	6,062.99	61.5793	6,062.99	50.1565	6,062.99	57.8722	6,062.99	53.6329	6,062.99	60.4938	6,062.99	51.7134	6,062.99	50.8972	6,062.99	57.4437	6,062.99	57.5799	6,062.99	56.1127	6,062.99	58.2948
6,276.86	86.3546	6,276.86	82.7184	6,276.86	79.4895	6,276.86	78.7251	6,276.86	78.5253	6,276.86	81.8984	6,276.86	83.6973	6,276.86	80.5554	6,276.86	77.2925	6,276.86	77.5467	6,276.86	74.1636	6,276.86	76.0173	6,276.86	74.3981	6,276.86	73.2996	6,276.86	76.2953	6,276.86	70.7573	6,276.86	73.6676	6,276.86	66.6293	6,276.86	64.4484	6,276.86	64.3237	6,276.86	74.0939	6,276.86	56.4966	6,276.86	77.5349	6,276.86	62.4588	6,276.86	69.6759	6,276.86	61.8923	6,276.86	59.4649	6,276.86	60.089	6,276.86	51.1345	6,276.86	61.4829	6,276.86	42.2168	6,276.86	53.6729	6,276.86	50.6229	6,276.86	50.869	6,276.86	56.9891	6,276.86	53.846
6,498.05	86.2984	6,498.05	82.3147	6,498.05	79.2556	6,498.05	79.6304	6,498.05	82.3841	6,498.05	81.8183	6,498.05	82.7181	6,498.05	81.2982	6,498.05	79.6271	6,498.05	78.5593	6,498.05	75.9964	6,498.05	76.2512	6,498.05	76.3265	6,498.05	73.2539	6,498.05	77.9297	6,498.05	70.9085	6,498.05	72.9733	6,498.05	68.4695	6,498.05	64.0707	6,498.05	64.1772	6,498.05	72.4969	6,498.05	61.5699	6,498.05	78.1384	6,498.05	62.1932	6,498.05	69.7231	6,498.05	62.9874	6,498.05	59.2338	6,498.05	63.4059	6,498.05	53.4471	6,498.05	53.8836	6,498.05	56.3298	6,498.05	54.9727	6,498.05	40.4169	6,498.05	48.9999	6,498.05	57.2145	6,498.05	55.7363
6,726.56	86.9678	6,726.56	82.8081	6,726.56	77.9033	6,726.56	80.0122	6,726.56	83.8245	6,726.56	82.6223	6,726.56	81.8886	6,726.56	81.7373	6,726.56	81.3128	6,726.56	78.7159	6,726.56	76.4228	6,726.56	76.2967	6,726.56	77.4294	6,726.56	74.9682	6,726.56	77.6546	6,726.56	71.9269	6,726.56	64.6349	6,726.56	67.5988	6,726.56	57.7318	6,726.56	63.5007	6,726.56	72.8171	6,726.56	63.1924	6,726.56	78.6791	6,726.56	61.1689	6,726.56	70.7796	6,726.56	64.6958	6,726.56	61.2366	6,726.56	63.5774	6,726.56	49.4134	6,726.56	53.3877	6,726.56	60.5131	6,726.56	57.234	6,726.56	49.1187	6,726.56	32.2007	6,726.56	52.6457	6,726.56	49.6063
6,963.87	86.8075	6,963.87	82.3967	6,963.87	78.5453	6,963.87	80.8149	6,963.87	82.4344	6,963.87	83.0795	6,963.87	81.1771	6,963.87	81.8922	6,963.87	81.534	6,963.87	78.6123	6,963.87	77.1504	6,963.87	77.7641	6,963.87	76.9448	6,963.87	74.3892	6,963.87	73.5963	6,963.87	73.6699	6,963.87	62.6341	6,963.87	67.7143	6,963.87	56.409	6,963.87	65.0689	6,963.87	75.3424	6,963.87	60.4515	6,963.87	79.2902	6,963.87	61.704	6,963.87	69.8305	6,963.87	64.2328	6,963.87	58.9154	6,963.87	62.7317	6,963.87	57.743	6,963.87	57.0662	6,963.87	58.1657	6,963.87	58.2621	6,963.87	58.8473	6,963.87	44.943	6,963.87	57.5747	6,963.87	45.0069
7,209.96	86.2412	7,209.96	81.6152	7,209.96	82.0239	7,209.96	82.0534	7,209.96	81.162	7,209.96	83.2357	7,209.96	82.507	7,209.96	81.6226	7,209.96	82.0599	7,209.96	78.7305	7,209.96	75.4584	7,209.96	77.8101	7,209.96	77.9682	7,209.96	74.4523	7,209.96	65.0478	7,209.96	70.8907	7,209.96	71.0488	7,209.96	67.675	7,209.96	64.9182	7,209.96	64.56	7,209.96	75.9526	7,209.96	51.4255	7,209.96	79.4251	7,209.96	61.5578	7,209.96	68.8303	7,209.96	60.8887	7,209.96	63.6189	7,209.96	61.8159	7,209.96	61.0254	7,209.96	61.259	7,209.96	55.8193	7,209.96	61.4054	7,209.96	54.455	7,209.96	55.3066	7,209.96	57.7534	7,209.96	49.2625
7,464.84	85.3637	7,464.84	81.5193	7,464.84	83.3841	7,464.84	83.3686	7,464.84	80.9879	7,464.84	82.9833	7,464.84	83.8408	7,464.84	81.061	7,464.84	80.6056	7,464.84	79.0793	7,464.84	78.7424	7,464.84	77.9807	7,464.84	76.8496	7,464.84	74.9196	7,464.84	74.7148	7,464.84	72.2262	7,464.84	71.2843	7,464.84	67.7135	7,464.84	62.7988	7,464.84	60.7667	7,464.84	74.6297	7,464.84	61.0096	7,464.84	78.7598	7,464.84	61.0803	7,464.84	68.9702	7,464.84	62.8282	7,464.84	63.6981	7,464.84	62.0934	7,464.84	61.2139	7,464.84	61.1689	7,464.84	55.0572	7,464.84	59.663	7,464.84	51.8908	7,464.84	56.5237	7,464.84	58.4544	7,464.84	50.5681
7,727.05	85.4363	7,727.05	81.5014	7,727.05	82.4128	7,727.05	83.1339	7,727.05	83.319	7,727.05	82.8995	7,727.05	82.7079	7,727.05	80.57	7,727.05	80.6193	7,727.05	78.9581	7,727.05	79.3383	7,727.05	78.2909	7,727.05	74.1347	7,727.05	74.6291	7,727.05	76.7353	7,727.05	71.8611	7,727.05	71.5198	7,727.05	67.7485	7,727.05	68.8284	7,727.05	60.7163	7,727.05	76.6168	7,727.05	62.0736	7,727.05	77.4876	7,727.05	60.825	7,727.05	68.9894	7,727.05	61.2329	7,727.05	63.4511	7,727.05	61.906	7,727.05	59.5033	7,727.05	60.5163	7,727.05	48.1137	7,727.05	60.0615	7,727.05	52.0994	7,727.05	56.078	7,727.05	55.4393	7,727.05	51.7964
7,999.51	86.155	7,999.51	81.9776	7,999.51	80.8432	7,999.51	83.3128	7,999.51	83.8639	7,999.51	82.8862	7,999.51	81.1615	7,999.51	81.0904	7,999.51	80.2263	7,999.51	78.1388	7,999.51	77.8626	7,999.51	77.5652	7,999.51	73.6307	7,999.51	73.5417	7,999.51	73.921	7,999.51	69.0916	7,999.51	68.4095	7,999.51	64.7028	7,999.51	72.3876	7,999.51	65.0096	7,999.51	74.9163	7,999.51	55.5753	7,999.51	76.578	7,999.51	59.2575	7,999.51	66.8837	7,999.51	55.0415	7,999.51	60.6558	7,999.51	60.0915	7,999.51	60.1934	7,999.51	53.0241	7,999.51	48.9507	7,999.51	48.0469	7,999.51	49.2817	7,999.51	49.187	7,999.51	47.6697	7,999.51	48.9531
8,282.23	85.2827	8,282.23	81.7813	8,282.23	81.8677	8,282.23	83.506	8,282.23	83.2982	8,282.23	81.9429	8,282.23	78.1027	8,282.23	81.0608	8,282.23	80.0949	8,282.23	79.1007	8,282.23	76.784	8,282.23	76.851	8,282.23	73.9304	8,282.23	73.8241	8,282.23	69.4649	8,282.23	68.8074	8,282.23	62.6026	8,282.23	65.7078	8,282.23	70.4951	8,282.23	61.1046	8,282.23	75.3833	8,282.23	55.7521	8,282.23	75.8415	8,282.23	59.7175	8,282.23	66.9292	8,282.23	59.4656	8,282.23	55.8114	8,282.23	60.907	8,282.23	53.2494	8,282.23	57.5167	8,282.23	53.3037	8,282.23	55.6817	8,282.23	46.9589	8,282.23	39.3343	8,282.23	50.2988	8,282.23	48.0539
8,573.73	85.2663	8,573.73	81.8635	8,573.73	83.0729	8,573.73	83.956	8,573.73	81.382	8,573.73	82.4338	8,573.73	79.1176	8,573.73	80.6781	8,573.73	80.8069	8,573.73	78.6641	8,573.73	77.9519	8,573.73	77.0875	8,573.73	74.7961	8,573.73	71.9832	8,573.73	65.2738	8,573.73	67.6989	8,573.73	69.3967	8,573.73	63.8693	8,573.73	71.1972	8,573.73	54.6305	8,573.73	74.8521	8,573.73	58.156	8,573.73	74.7228	8,573.73	56.5676	8,573.73	66.1491	8,573.73	60.1708	8,573.73	58.6871	8,573.73	59.5904	8,573.73	49.5634	8,573.73	60.5849	8,573.73	42.0688	8,573.73	59.3871	8,573.73	54.002	8,573.73	53.0881	8,573.73	51.7618	8,573.73	39.0949
8,876.95	84.7032	8,876.95	82.6124	8,876.95	82.4224	8,876.95	83.9284	8,876.95	82.3503	8,876.95	82.3221	8,876.95	80.4936	8,876.95	80.7793	8,876.95	81.8289	8,876.95	78.3248	8,876.95	78.9992	8,876.95	76.1737	8,876.95	72.564	8,876.95	69.9815	8,876.95	70.5472	8,876.95	68.0487	8,876.95	71.4653	8,876.95	63.5202	8,876.95	70.2857	8,876.95	56.5595	8,876.95	73.979	8,876.95	58.0473	8,876.95	73.2276	8,876.95	60.5235	8,876.95	66.1198	8,876.95	60.2158	8,876.95	57.3948	8,876.95	58.4371	8,876.95	54.584	8,876.95	61.4735	8,876.95	53.0302	8,876.95	62.4574	8,876.95	55.5551	8,876.95	54.0578	8,876.95	52.6416	8,876.95	47.0314
9,188.96	85.4366	9,188.96	83.2837	9,188.96	81.8341	9,188.96	83.9534	9,188.96	84.483	9,188.96	82.2107	9,188.96	80.8745	9,188.96	79.8821	9,188.96	80.9609	9,188.96	78.1605	9,188.96	79.3535	9,188.96	75.255	9,188.96	70.8544	9,188.96	72.1424	9,188.96	73.3028	9,188.96	68.3164	9,188.96	68.9345	9,188.96	63.6758	9,188.96	69.4656	9,188.96	59.1006	9,188.96	71.6755	9,188.96	55.7769	9,188.96	70.8717	9,188.96	59.9333	9,188.96	63.7873	9,188.96	55.0706	9,188.96	56.8311	9,188.96	58.1977	9,188.96	52.1344	9,188.96	58.5332	9,188.96	38.2259	9,188.96	58.3456	9,188.96	41.0745	9,188.96	49.8358	9,188.96	52.565	9,188.96	46.5199
9,514.16	84.4106	9,514.16	83.9423	9,514.16	82.6342	9,514.16	83.8456	9,514.16	84.7924	9,514.16	81.3957	9,514.16	81.0566	9,514.16	78.7953	9,514.16	79.2629	9,514.16	76.7266	9,514.16	79.1073	9,514.16	75.9606	9,514.16	74.0452	9,514.16	71.5848	9,514.16	72.4816	9,514.16	66.4798	9,514.16	67.2027	9,514.16	62.2855	9,514.16	69.4319	9,514.16	55.7603	9,514.16	71.7483	9,514.16	57.7433	9,514.16	71.0812	9,514.16	59.8917	9,514.16	65.5913	9,514.16	58.9922	9,514.16	47.6855	9,514.16	57.5513	9,514.16	51.0935	9,514.16	58.9175	9,514.16	48.4941	9,514.16	58.3522	9,514.16	33.8632	9,514.16	44.6487	9,514.16	51.0847	9,514.16	48.6793
9,849.61	84.5199	9,849.61	83.9051	9,849.61	82.6766	9,849.61	84.0565	9,849.61	83.3995	9,849.61	80.2825	9,849.61	79.6812	9,849.61	78.6449	9,849.61	79.7851	9,849.61	75.8773	9,849.61	79.4032	9,849.61	76.4254	9,849.61	75.9607	9,849.61	71.4987	9,849.61	72.7912	9,849.61	68.3418	9,849.61	68.7216	9,849.61	62.8522	9,849.61	67.9302	9,849.61	61.43	9,849.61	70.5974	9,849.61	56.0731	9,849.61	70.7464	9,849.61	58.205	9,849.61	64.7164	9,849.61	57.2258	9,849.61	59.5513	9,849.61	55.4904	9,849.61	53.7337	9,849.61	59.4648	9,849.61	55.8573	9,849.61	59.2913	9,849.61	47.9051	9,849.61	51.0052	9,849.61	51.8739	9,849.61	42.988
10,196.8	84.7374	10,196.8	83.4886	10,196.8	83.8733	10,196.8	83.9917	10,196.8	82.8276	10,196.8	79.7397	10,196.8	80.3038	10,196.8	78.7788	10,196.8	79.912	10,196.8	76.8614	10,196.8	80.9315	10,196.8	76.091	10,196.8	73.7755	10,196.8	72.0526	10,196.8	72.8672	10,196.8	68.2518	10,196.8	62.9974	10,196.8	61.3212	10,196.8	62.4259	10,196.8	61.1753	10,196.8	69.5608	10,196.8	52.8204	10,196.8	70.6008	10,196.8	58.221	10,196.8	65.2624	10,196.8	55.2687	10,196.8	60.4362	10,196.8	55.7781	10,196.8	41.2262	10,196.8	57.8262	10,196.8	38.9752	10,196.8	60.0205	10,196.8	50.4245	10,196.8	50.1118	10,196.8	42.0699	10,196.8	46.9663
10,555.7	85.0829	10,555.7	83.8476	10,555.7	84.6211	10,555.7	82.8574	10,555.7	83.7709	10,555.7	80.8762	10,555.7	81.0408	10,555.7	78.8797	10,555.7	79.4934	10,555.7	76.7031	10,555.7	79.8109	10,555.7	76.4542	10,555.7	73.2906	10,555.7	71.3884	10,555.7	75.2161	10,555.7	68.5877	10,555.7	68.985	10,555.7	59.3418	10,555.7	67.5006	10,555.7	61.3516	10,555.7	70.5288	10,555.7	52.8682	10,555.7	70.5155	10,555.7	56.7659	10,555.7	62.7958	10,555.7	56.9623	10,555.7	60.3491	10,555.7	57.0733	10,555.7	55.0361	10,555.7	57.6427	10,555.7	48.8348	10,555.7	58.772	10,555.7	55.0397	10,555.7	51.6819	10,555.7	44.2308	10,555.7	30.9329
10,927.7	85.611	10,927.7	84.1107	10,927.7	83.472	10,927.7	82.1841	10,927.7	84.1151	10,927.7	81.2121	10,927.7	80.2585	10,927.7	79.224	10,927.7	79.4937	10,927.7	77.3217	10,927.7	79.336	10,927.7	75.4088	10,927.7	73.1252	10,927.7	70.6268	10,927.7	75.073	10,927.7	67.8678	10,927.7	68.7994	10,927.7	60.6352	10,927.7	69.1617	10,927.7	58.8347	10,927.7	71.9307	10,927.7	45.9831	10,927.7	70.2769	10,927.7	53.3556	10,927.7	64.9519	10,927.7	52.0473	10,927.7	58.403	10,927.7	50.942	10,927.7	53.6909	10,927.7	53.7995	10,927.7	51.984	10,927.7	53.2397	10,927.7	57.6233	10,927.7	50.9044	10,927.7	52.3721	10,927.7	48.9701
11,313	85.2688	11,313	84.5913	11,313	84.0606	11,313	82.4346	11,313	82.9139	11,313	81.6163	11,313	80.6104	11,313	79.9417	11,313	78.2326	11,313	76.8296	11,313	78.8678	11,313	74.4779	11,313	74.8784	11,313	70.2847	11,313	74.3948	11,313	68.2206	11,313	59.5262	11,313	61.0474	11,313	68.385	11,313	59.0533	11,313	72.088	11,313	53.8952	11,313	71.022	11,313	55.4087	11,313	64.7766	11,313	52.0747	11,313	58.6937	11,313	54.2948	11,313	51.8149	11,313	55.4635	11,313	48.9735	11,313	54.6496	11,313	52.9833	11,313	50.2367	11,313	53.4701	11,313	48.7808
11,712.9	85.9394	11,712.9	84.9165	11,712.9	84.4432	11,712.9	83.0758	11,712.9	84.0169	11,712.9	82.1069	11,712.9	82.308	11,712.9	79.7732	11,712.9	79.0512	11,712.9	75.207	11,712.9	77.9239	11,712.9	74.4125	11,712.9	74.1537	11,712.9	69.8326	11,712.9	70.3408	11,712.9	65.0303	11,712.9	63.6258	11,712.9	58.082	11,712.9	68.417	11,712.9	56.2692	11,712.9	72.5877	11,712.9	50.9294	11,712.9	71.348	11,712.9	53.7642	11,712.9	64.7806	11,712.9	52.1698	11,712.9	59.8692	11,712.9	54.2222	11,712.9	53.9499	11,712.9	51.4233	11,712.9	50.8387	11,712.9	52.7257	11,712.9	57.8244	11,712.9	54.2362	11,712.9	51.4903	11,712.9	37.3569
12,126	86.0716	12,126	85.5012	12,126	84.7241	12,126	84.0795	12,126	83.248	12,126	83.0668	12,126	81.7943	12,126	78.7364	12,126	78.9167	12,126	74.5585	12,126	76.4738	12,126	73.1979	12,126	71.8282	12,126	68.9532	12,126	70.0077	12,126	64.1547	12,126	66.8424	12,126	54.6883	12,126	69.8891	12,126	56.0154	12,126	71.7852	12,126	50.5934	12,126	69.6928	12,126	52.7822	12,126	64.7608	12,126	52.0039	12,126	58.4826	12,126	32.9932	12,126	44.4483	12,126	43.4917	12,126	49.9949	12,126	51.5702	12,126	56.9018	12,126	42.3558	12,126	53.9958	12,126	53.1578
12,553.7	86.102	12,553.7	85.3915	12,553.7	84.8887	12,553.7	84.1501	12,553.7	82.9317	12,553.7	82.8991	12,553.7	80.5991	12,553.7	78.0178	12,553.7	78.3671	12,553.7	73.1879	12,553.7	76.3164	12,553.7	72.2749	12,553.7	72.0436	12,553.7	67.4594	12,553.7	67.6859	12,553.7	60.41	12,553.7	65.3422	12,553.7	55.1415	12,553.7	68.1227	12,553.7	51.6359	12,553.7	70.2031	12,553.7	28.3415	12,553.7	68.6237	12,553.7	44.2716	12,553.7	61.5999	12,553.7	50.4865	12,553.7	54.4683	12,553.7	48.3064	12,553.7	44.2481	12,553.7	42.09	12,553.7	48.2133	12,553.7	50.2462	12,553.7	56.6878	12,553.7	41.2835	12,553.7	50.2352	12,553.7	46.0547
12,996.1	85.9659	12,996.1	84.5868	12,996.1	84.1946	12,996.1	83.8833	12,996.1	83.0179	12,996.1	82.1715	12,996.1	80.2328	12,996.1	77.8034	12,996.1	78.5958	12,996.1	71.9088	12,996.1	76.3529	12,996.1	72.0533	12,996.1	71.6656	12,996.1	65.4271	12,996.1	65.8057	12,996.1	59.1571	12,996.1	67.6691	12,996.1	57.2787	12,996.1	65.182	12,996.1	52.8307	12,996.1	69.5085	12,996.1	47.8133	12,996.1	67.6708	12,996.1	46.2923	12,996.1	60.674	12,996.1	55.9346	12,996.1	55.5462	12,996.1	50.1331	12,996.1	31.7055	12,996.1	37.897	12,996.1	49.0971	12,996.1	49.8165	12,996.1	52.6709	12,996.1	37.4187	12,996.1	38.4364	12,996.1	37.4016
13,454.6	85.9247	13,454.6	84.8052	13,454.6	84.7166	13,454.6	83.9765	13,454.6	83.2895	13,454.6	82.4955	13,454.6	81.2526	13,454.6	77.804	13,454.6	79.1691	13,454.6	72.7871	13,454.6	76.4005	13,454.6	70.8817	13,454.6	72.0351	13,454.6	65.5911	13,454.6	67.1613	13,454.6	60.309	13,454.6	66.8904	13,454.6	59.3467	13,454.6	65.253	13,454.6	54.0313	13,454.6	67.7135	13,454.6	38.3428	13,454.6	65.0928	13,454.6	50.5416	13,454.6	60.5539	13,454.6	54.6012	13,454.6	42.0225	13,454.6	54.7981	13,454.6	40.193	13,454.6	44.1087	13,454.6	45.6838	13,454.6	47.7527	13,454.6	49.8015	13,454.6	33.7805	13,454.6	45.7294	13,454.6	39.1263
13,929.2	85.7736	13,929.2	85.4328	13,929.2	85.0759	13,929.2	83.7377	13,929.2	83.2403	13,929.2	82.3433	13,929.2	80.7869	13,929.2	77.3089	13,929.2	79.7475	13,929.2	69.2871	13,929.2	74.7342	13,929.2	68.2869	13,929.2	69.5838	13,929.2	63.0378	13,929.2	65.5063	13,929.2	58.432	13,929.2	66.5621	13,929.2	57.6538	13,929.2	62.292	13,929.2	52.7172	13,929.2	64.6295	13,929.2	48.2059	13,929.2	61.8566	13,929.2	51.8519	13,929.2	54.9756	13,929.2	53.8157	13,929.2	41.8059	13,929.2	50.945	13,929.2	44.5243	13,929.2	46.9104	13,929.2	51.5428	13,929.2	43.5494	13,929.2	50.9481	13,929.2	46.2677	13,929.2	51.4457	13,929.2	49.9651
14,419.9	85.8978	14,419.9	85.3928	14,419.9	85.2141	14,419.9	83.8876	14,419.9	82.5431	14,419.9	81.8115	14,419.9	79.8974	14,419.9	76.4503	14,419.9	77.9609	14,419.9	65.8446	14,419.9	72.4588	14,419.9	62.183	14,419.9	68.1039	14,419.9	63.3156	14,419.9	62.2872	14,419.9	54.3261	14,419.9	59.3015	14,419.9	57.3209	14,419.9	56.4198	14,419.9	48.5112	14,419.9	60.3256	14,419.9	53.3854	14,419.9	57.3188	14,419.9	51.8101	14,419.9	52.2328	14,419.9	51.7814	14,419.9	32.3044	14,419.9	52.7463	14,419.9	46.6737	14,419.9	50.2242	14,419.9	49.9396	14,419.9	49.253	14,419.9	46.638	14,419.9	44.3352	14,419.9	47.7306	14,419.9	48.6706
14,928.2	85.8787	14,928.2	85.2092	14,928.2	85.0971	14,928.2	83.386	14,928.2	83.2193	14,928.2	81.3187	14,928.2	77.8926	14,928.2	74.9708	14,928.2	75.8273	14,928.2	61.6499	14,928.2	70.5354	14,928.2	58.3384	14,928.2	64.9587	14,928.2	62.5463	14,928.2	59.9508	14,928.2	58.355	14,928.2	59.0671	14,928.2	55.4723	14,928.2	54.1671	14,928.2	46.8465	14,928.2	59.5476	14,928.2	56.6486	14,928.2	52.9198	14,928.2	51.3311	14,928.2	50.695	14,928.2	52.9881	14,928.2	41.9458	14,928.2	53.1354	14,928.2	51.4948	14,928.2	49.3527	14,928.2	48.4707	14,928.2	43.5042	14,928.2	53.1094	14,928.2	45.0028	14,928.2	50.3849	14,928.2	48.6151
15,455.6	85.4429	15,455.6	84.8797	15,455.6	84.5935	15,455.6	82.7409	15,455.6	82.7537	15,455.6	80.7002	15,455.6	76.5806	15,455.6	74.0905	15,455.6	73.2975	15,455.6	60.5788	15,455.6	67.2445	15,455.6	47.62	15,455.6	60.5421	15,455.6	60.4025	15,455.6	57.1119	15,455.6	60.5806	15,455.6	53.8594	15,455.6	50.6626	15,455.6	50.0327	15,455.6	51.5263	15,455.6	58.4802	15,455.6	58.8117	15,455.6	50.734	15,455.6	53.9376	15,455.6	50.9586	15,455.6	52.7337	15,455.6	41.6634	15,455.6	53.3886	15,455.6	49.9576	15,455.6	51.6849	15,455.6	48.1714	15,455.6	45.7458	15,455.6	51.8687	15,455.6	50.1426	15,455.6	51.6889	15,455.6	48.9643
16,000.5	85.2253	16,000.5	84.6415	16,000.5	84.3456	16,000.5	81.7546	16,000.5	81.9179	16,000.5	79.8171	16,000.5	75.8021	16,000.5	72.2807	16,000.5	72.5056	16,000.5	62.5493	16,000.5	66.0811	16,000.5	56.2853	16,000.5	56.0744	16,000.5	58.6629	16,000.5	52.7824	16,000.5	62.3756	16,000.5	55.6504	16,000.5	43.6281	16,000.5	47.1464	16,000.5	54.1373	16,000.5	59.2571	16,000.5	59.81	16,000.5	49.4476	16,000.5	53.5451	16,000.5	52.8938	16,000.5	55.6048	16,000.5	46.8053	16,000.5	54.5963	16,000.5	49.9904	16,000.5	55.2874	16,000.5	49.5749	16,000.5	51.9258	16,000.5	54.4827	16,000.5	53.515	16,000.5	53.6413	16,000.5	50.3086
16,564.5	84.7102	16,564.5	83.8954	16,564.5	83.8906	16,564.5	80.5861	16,564.5	82.2646	16,564.5	78.629	16,564.5	74.7515	16,564.5	69.9608	16,564.5	70.2891	16,564.5	62.9732	16,564.5	65.1353	16,564.5	60.613	16,564.5	55.3859	16,564.5	55.5216	16,564.5	52.2083	16,564.5	63.8766	16,564.5	55.5184	16,564.5	43.3737	16,564.5	44.987	16,564.5	56.9116	16,564.5	58.6285	16,564.5	61.0327	16,564.5	46.8904	16,564.5	51.0075	16,564.5	54.151	16,564.5	58.312	16,564.5	48.8592	16,564.5	56.0731	16,564.5	49.7605	16,564.5	55.3108	16,564.5	50.3101	16,564.5	52.1357	16,564.5	55.915	16,564.5	53.7894	16,564.5	53.6525	16,564.5	50.7633
17,148.9	84.0684	17,148.9	83.1889	17,148.9	83.1018	17,148.9	79.0303	17,148.9	81.7321	17,148.9	77.2953	17,148.9	73.6495	17,148.9	68.1531	17,148.9	65.75	17,148.9	65.1516	17,148.9	62.7783	17,148.9	63.2679	17,148.9	50.8893	17,148.9	52.7696	17,148.9	52.6249	17,148.9	63.4291	17,148.9	52.0275	17,148.9	53.8432	17,148.9	39.3927	17,148.9	57.6956	17,148.9	57.1985	17,148.9	61.7732	17,148.9	38.7401	17,148.9	52.333	17,148.9	54.3885	17,148.9	58.6089	17,148.9	50.2575	17,148.9	56.2271	17,148.9	50.5037	17,148.9	56.3716	17,148.9	51.8866	17,148.9	54.2522	17,148.9	56.5214	17,148.9	56.004	17,148.9	54.6336	17,148.9	52.601
17,752.4	83.2849	17,752.4	82.2523	17,752.4	82.1872	17,752.4	77.9932	17,752.4	80.9234	17,752.4	75.756	17,752.4	71.2141	17,752.4	66.7506	17,752.4	56.8989	17,752.4	66.3811	17,752.4	60.9124	17,752.4	65.695	17,752.4	50.7877	17,752.4	51.8866	17,752.4	50.4814	17,752.4	61.9263	17,752.4	50.9463	17,752.4	57.7952	17,752.4	43.2439	17,752.4	57.7495	17,752.4	56.4394	17,752.4	62.811	17,752.4	42.9451	17,752.4	55.3946	17,752.4	55.0829	17,752.4	57.1713	17,752.4	51.4927	17,752.4	55.9795	17,752.4	49.3802	17,752.4	57.2407	17,752.4	53.3353	17,752.4	56.2792	17,752.4	57.1116	17,752.4	56.1514	17,752.4	55.5064	17,752.4	53.6208
18,379.4	82.5659	18,379.4	81.3982	18,379.4	81.7488	18,379.4	77.14	18,379.4	80.0726	18,379.4	74.453	18,379.4	70.4102	18,379.4	64.9584	18,379.4	55.4948	18,379.4	66.2218	18,379.4	59.5564	18,379.4	66.8428	18,379.4	53.2933	18,379.4	52.1711	18,379.4	53.5692	18,379.4	59.4117	18,379.4	53.373	18,379.4	60.4994	18,379.4	48.8364	18,379.4	57.0189	18,379.4	53.515	18,379.4	63.7933	18,379.4	51.4071	18,379.4	56.2963	18,379.4	54.1353	18,379.4	56.0688	18,379.4	51.3889	18,379.4	55.6365	18,379.4	47.5967	18,379.4	58.0076	18,379.4	55.0417	18,379.4	57.8058	18,379.4	58.8141	18,379.4	57.3236	18,379.4	57.5586	18,379.4	55.0651
19,026.9	81.6965	19,026.9	80.3823	19,026.9	81.051	19,026.9	75.2645	19,026.9	78.9161	19,026.9	72.3159	19,026.9	69.5523	19,026.9	61.5583	19,026.9	56.724	19,026.9	65.8345	19,026.9	60.6701	19,026.9	66.6694	19,026.9	50.1107	19,026.9	57.1881	19,026.9	55.5466	19,026.9	55.2879	19,026.9	52.4878	19,026.9	61.1203	19,026.9	52.855	19,026.9	56.2809	19,026.9	49.2162	19,026.9	62.553	19,026.9	54.4989	19,026.9	56.9121	19,026.9	52.248	19,026.9	59.0272	19,026.9	51.893	19,026.9	57.0136	19,026.9	48.7075	19,026.9	58.1632	19,026.9	54.4123	19,026.9	58.2886	19,026.9	59.3525	19,026.9	58.1218	19,026.9	57.5662	19,026.9	55.6687
19,697.8	80.2476	19,697.8	78.8668	19,697.8	79.021	19,697.8	72.0463	19,697.8	77.6743	19,697.8	66.8954	19,697.8	68.2518	19,697.8	58.4776	19,697.8	60.0603	19,697.8	62.3164	19,697.8	63.0097	19,697.8	64.9022	19,697.8	40.1718	19,697.8	58.201	19,697.8	56.0228	19,697.8	53.2416	19,697.8	49.8145	19,697.8	60.3929	19,697.8	54.4566	19,697.8	55.8483	19,697.8	45.2158	19,697.8	61.5909	19,697.8	54.1059	19,697.8	56.9863	19,697.8	49.5424	19,697.8	58.1231	19,697.8	50.9477	19,697.8	56.0951	19,697.8	48.3586	19,697.8	57.7211	19,697.8	53.7242	19,697.8	58.0783	19,697.8	58.2342	19,697.8	58.0424	19,697.8	56.8837	19,697.8	54.9714
19,999.5	79.639	19,999.5	78.5266	19,999.5	78.1565	19,999.5	69.6331	19,999.5	76.7768	19,999.5	65.0753	19,999.5	68.0064	19,999.5	53.8105	19,999.5	57.404	19,999.5	59.7989	19,999.5	63.4116	19,999.5	63.4843	19,999.5	44.8718	19,999.5	57.9343	19,999.5	55.7245	19,999.5	51.4563	19,999.5	49.6128	19,999.5	60.1338	19,999.5	52.8343	19,999.5	55.2705	19,999.5	45.8383	19,999.5	61.4889	19,999.5	53.7695	19,999.5	58.1492	19,999.5	49.3586	19,999.5	58.8245	19,999.5	50.7857	19,999.5	56.3893	19,999.5	50.2568	19,999.5	53.7961	19,999.5	55.1238	19,999.5	56.035	19,999.5	57.7244	19,999.5	57.0248	19,999.5	55.5037	19,999.5	53.8766
