"SPL Horizontal"
"On-Axis"		"10°"		"-10°"		"20°"		"-20°"		"30°"		"-30°"		"40°"		"-40°"		"50°"		"-50°"		"60°"		"-60°"		"70°"		"-70°"		"80°"		"-80°"		"90°"		"-90°"		"100°"		"-100°"		"110°"		"-110°"		"120°"		"-120°"		"130°"		"-130°"		"140°"		"-140°"		"150°"		"-150°"		"160°"		"-160°"		"170°"		"-170°"		"180°"
"Frequency / Hz"	"Sound Pressure Level / dB (re 20 µPa/V)  [2.83  V @ 1. m]"	"Frequency / Hz"	"Sound Pressure Level / dB (re 20 µPa/V)  [2.83  V @ 1. m]"	"Frequency / Hz"	"Sound Pressure Level / dB (re 20 µPa/V)  [2.83  V @ 1. m]"	"Frequency / Hz"	"Sound Pressure Level / dB (re 20 µPa/V)  [2.83  V @ 1. m]"	"Frequency / Hz"	"Sound Pressure Level / dB (re 20 µPa/V)  [2.83  V @ 1. m]"	"Frequency / Hz"	"Sound Pressure Level / dB (re 20 µPa/V)  [2.83  V @ 1. m]"	"Frequency / Hz"	"Sound Pressure Level / dB (re 20 µPa/V)  [2.83  V @ 1. m]"	"Frequency / Hz"	"Sound Pressure Level / dB (re 20 µPa/V)  [2.83  V @ 1. m]"	"Frequency / Hz"	"Sound Pressure Level / dB (re 20 µPa/V)  [2.83  V @ 1. m]"	"Frequency / Hz"	"Sound Pressure Level / dB (re 20 µPa/V)  [2.83  V @ 1. m]"	"Frequency / Hz"	"Sound Pressure Level / dB (re 20 µPa/V)  [2.83  V @ 1. m]"	"Frequency / Hz"	"Sound Pressure Level / dB (re 20 µPa/V)  [2.83  V @ 1. m]"	"Frequency / Hz"	"Sound Pressure Level / dB (re 20 µPa/V)  [2.83  V @ 1. m]"	"Frequency / Hz"	"Sound Pressure Level / dB (re 20 µPa/V)  [2.83  V @ 1. m]"	"Frequency / Hz"	"Sound Pressure Level / dB (re 20 µPa/V)  [2.83  V @ 1. m]"	"Frequency / Hz"	"Sound Pressure Level / dB (re 20 µPa/V)  [2.83  V @ 1. m]"	"Frequency / Hz"	"Sound Pressure Level / dB (re 20 µPa/V)  [2.83  V @ 1. m]"	"Frequency / Hz"	"Sound Pressure Level / dB (re 20 µPa/V)  [2.83  V @ 1. m]"	"Frequency / Hz"	"Sound Pressure Level / dB (re 20 µPa/V)  [2.83  V @ 1. m]"	"Frequency / Hz"	"Sound Pressure Level / dB (re 20 µPa/V)  [2.83  V @ 1. m]"	"Frequency / Hz"	"Sound Pressure Level / dB (re 20 µPa/V)  [2.83  V @ 1. m]"	"Frequency / Hz"	"Sound Pressure Level / dB (re 20 µPa/V)  [2.83  V @ 1. m]"	"Frequency / Hz"	"Sound Pressure Level / dB (re 20 µPa/V)  [2.83  V @ 1. m]"	"Frequency / Hz"	"Sound Pressure Level / dB (re 20 µPa/V)  [2.83  V @ 1. m]"	"Frequency / Hz"	"Sound Pressure Level / dB (re 20 µPa/V)  [2.83  V @ 1. m]"	"Frequency / Hz"	"Sound Pressure Level / dB (re 20 µPa/V)  [2.83  V @ 1. m]"	"Frequency / Hz"	"Sound Pressure Level / dB (re 20 µPa/V)  [2.83  V @ 1. m]"	"Frequency / Hz"	"Sound Pressure Level / dB (re 20 µPa/V)  [2.83  V @ 1. m]"	"Frequency / Hz"	"Sound Pressure Level / dB (re 20 µPa/V)  [2.83  V @ 1. m]"	"Frequency / Hz"	"Sound Pressure Level / dB (re 20 µPa/V)  [2.83  V @ 1. m]"	"Frequency / Hz"	"Sound Pressure Level / dB (re 20 µPa/V)  [2.83  V @ 1. m]"	"Frequency / Hz"	"Sound Pressure Level / dB (re 20 µPa/V)  [2.83  V @ 1. m]"	"Frequency / Hz"	"Sound Pressure Level / dB (re 20 µPa/V)  [2.83  V @ 1. m]"	"Frequency / Hz"	"Sound Pressure Level / dB (re 20 µPa/V)  [2.83  V @ 1. m]"	"Frequency / Hz"	"Sound Pressure Level / dB (re 20 µPa/V)  [2.83  V @ 1. m]"	"Frequency / Hz"	"Sound Pressure Level / dB (re 20 µPa/V)  [2.83  V @ 1. m]"
20.5078	45.9281	20.5078	45.832	20.5078	46.2048	20.5078	45.9182	20.5078	46.6395	20.5078	46.1684	20.5078	47.191	20.5078	46.5475	20.5078	47.8058	20.5078	47.0087	20.5078	48.4269	20.5078	47.5005	20.5078	49.0021	20.5078	47.9745	20.5078	49.4889	20.5078	48.3921	20.5078	49.8572	20.5078	48.727	20.5078	50.0892	20.5078	48.9657	20.5078	50.18	20.5078	49.1053	20.5078	50.137	20.5078	49.1515	20.5078	49.9797	20.5078	49.1174	20.5078	49.7385	20.5078	49.0234	20.5078	49.4529	20.5078	48.8975	20.5078	49.1665	20.5078	48.7739	20.5078	48.9219	20.5078	48.6892	20.5078	48.7523	20.5078	48.6753
21.9727	57.2548	21.9727	57.1893	21.9727	57.356	21.9727	57.1617	21.9727	57.4877	21.9727	57.171	21.9727	57.642	21.9727	57.2118	21.9727	57.809	21.9727	57.275	21.9727	57.9766	21.9727	57.3484	21.9727	58.1315	21.9727	57.4191	21.9727	58.2602	21.9727	57.4752	21.9727	58.3501	21.9727	57.5086	21.9727	58.3916	21.9727	57.5156	21.9727	58.3796	21.9727	57.4974	21.9727	58.3146	21.9727	57.4592	21.9727	58.2031	21.9727	57.4094	21.9727	58.0569	21.9727	57.3587	21.9727	57.8917	21.9727	57.3181	21.9727	57.7247	21.9727	57.2989	21.9727	57.5723	21.9727	57.3105	21.9727	57.4477	21.9727	57.3594
23.4375	57.9282	23.4375	57.9862	23.4375	57.9127	23.4375	58.0862	23.4375	57.9369	23.4375	58.224	23.4375	57.9958	23.4375	58.391	23.4375	58.0821	23.4375	58.5749	23.4375	58.1862	23.4375	58.7605	23.4375	58.2972	23.4375	58.9325	23.4375	58.4033	23.4375	59.0777	23.4375	58.494	23.4375	59.1861	23.4375	58.5618	23.4375	59.2525	23.4375	58.6038	23.4375	59.2762	23.4375	58.6222	23.4375	59.2604	23.4375	58.6235	23.4375	59.2111	23.4375	58.6174	23.4375	59.1364	23.4375	58.6141	23.4375	59.0452	23.4375	58.6226	23.4375	58.9472	23.4375	58.6494	23.4375	58.8514	23.4375	58.6974	23.4375	58.766
24.9023	59.8288	24.9023	59.9115	24.9023	59.7723	24.9023	60.0176	24.9023	59.7438	24.9023	60.1419	24.9023	59.7432	24.9023	60.2776	24.9023	59.7682	24.9023	60.4154	24.9023	59.8143	24.9023	60.5447	24.9023	59.8742	24.9023	60.6544	24.9023	59.9386	24.9023	60.7351	24.9023	59.998	24.9023	60.78	24.9023	60.0442	24.9023	60.7863	24.9023	60.0722	24.9023	60.7555	24.9023	60.0813	24.9023	60.6925	24.9023	60.0748	24.9023	60.6049	24.9023	60.0593	24.9023	60.5022	24.9023	60.0434	24.9023	60.3939	24.9023	60.0357	24.9023	60.2897	24.9023	60.0436	24.9023	60.1975	24.9023	60.0722	24.9023	60.1238
26.3672	62.0835	26.3672	62.1474	26.3672	62.0427	26.3672	62.2312	26.3672	62.0265	26.3672	62.33	26.3672	62.0345	26.3672	62.4373	26.3672	62.064	26.3672	62.5447	26.3672	62.11	26.3672	62.6433	26.3672	62.1652	26.3672	62.7239	26.3672	62.2208	26.3672	62.7791	26.3672	62.2683	26.3672	62.8038	26.3672	62.3008	26.3672	62.7967	26.3672	62.3149	26.3672	62.7597	26.3672	62.3104	26.3672	62.698	26.3672	62.2912	26.3672	62.619	26.3672	62.2635	26.3672	62.5309	26.3672	62.2349	26.3672	62.4424	26.3672	62.213	26.3672	62.361	26.3672	62.2044	26.3672	62.2931	26.3672	62.2137	26.3672	62.2432
27.832	64.1475	27.832	64.1839	27.832	64.127	27.832	64.2337	27.832	64.1232	27.832	64.2933	27.832	64.1353	27.832	64.3577	27.832	64.1608	27.832	64.4208	27.832	64.1951	27.832	64.4758	27.832	64.2318	27.832	64.516	27.832	64.2639	27.832	64.5357	27.832	64.2845	27.832	64.5315	27.832	64.2888	27.832	64.5028	27.832	64.2745	27.832	64.4518	27.832	64.2428	27.832	64.3836	27.832	64.1976	27.832	64.3051	27.832	64.1453	27.832	64.2239	27.832	64.093	27.832	64.1478	27.832	64.0477	27.832	64.0832	27.832	64.0157	27.832	64.0355	27.832	64.0015	27.832	64.0078
29.2969	66.1792	29.2969	66.1939	29.2969	66.1776	29.2969	66.2208	29.2969	66.1886	29.2969	66.2581	29.2969	66.2107	29.2969	66.3021	29.2969	66.241	29.2969	66.3483	29.2969	66.2756	29.2969	66.3909	29.2969	66.3095	29.2969	66.424	29.2969	66.3372	29.2969	66.4426	29.2969	66.354	29.2969	66.4432	29.2969	66.3564	29.2969	66.4249	29.2969	66.3431	29.2969	66.3896	29.2969	66.3152	29.2969	66.3413	29.2969	66.276	29.2969	66.2854	29.2969	66.2305	29.2969	66.2282	29.2969	66.1843	29.2969	66.1756	29.2969	66.1428	29.2969	66.1327	29.2969	66.1109	29.2969	66.1032	29.2969	66.0924	29.2969	66.0895
30.7617	67.9657	30.7617	67.9932	30.7617	67.946	30.7617	68.0274	30.7617	67.9344	30.7617	68.066	30.7617	67.9304	30.7617	68.1059	30.7617	67.9324	30.7617	68.1431	30.7617	67.9377	30.7617	68.173	30.7617	67.9429	30.7617	68.1908	30.7617	67.9443	30.7617	68.1927	30.7617	67.9384	30.7617	68.1764	30.7617	67.923	30.7617	68.1419	30.7617	67.8976	30.7617	68.0915	30.7617	67.8636	30.7617	68.0293	30.7617	67.8242	30.7617	67.9607	30.7617	67.7837	30.7617	67.8918	30.7617	67.7467	30.7617	67.8279	30.7617	67.7173	30.7617	67.7736	30.7617	67.6992	30.7617	67.7322	30.7617	67.6948	30.7617	67.7057
32.2266	69.6576	32.2266	69.6795	32.2266	69.6408	32.2266	69.7054	32.2266	69.6293	32.2266	69.7338	32.2266	69.6225	32.2266	69.7618	32.2266	69.6191	32.2266	69.7861	32.2266	69.6169	32.2266	69.8026	32.2266	69.613	32.2266	69.8075	32.2266	69.6044	32.2266	69.7976	32.2266	69.5884	32.2266	69.7712	32.2266	69.563	32.2266	69.7287	32.2266	69.5282	32.2266	69.6724	32.2266	69.4857	32.2266	69.6065	32.2266	69.4385	32.2266	69.536	32.2266	69.3909	32.2266	69.4666	32.2266	69.3475	32.2266	69.4033	32.2266	69.3124	32.2266	69.3505	32.2266	69.2892	32.2266	69.3113	32.2266	69.2805	32.2266	69.2877
33.6914	71.423	33.6914	71.4367	33.6914	71.4119	33.6914	71.4523	33.6914	71.4035	33.6914	71.4685	33.6914	71.3975	33.6914	71.483	33.6914	71.3926	33.6914	71.4934	33.6914	71.387	33.6914	71.4967	33.6914	71.3783	33.6914	71.49	33.6914	71.3642	33.6914	71.4711	33.6914	71.3423	33.6914	71.4393	33.6914	71.3117	33.6914	71.3953	33.6914	71.2727	33.6914	71.3413	33.6914	71.227	33.6914	71.2812	33.6914	71.1778	33.6914	71.2193	33.6914	71.1291	33.6914	71.1601	33.6914	71.085	33.6914	71.1074	33.6914	71.0493	33.6914	71.0644	33.6914	71.0247	33.6914	71.0335	33.6914	71.0134	33.6914	71.0163
35.1562	72.9408	35.1562	72.9504	35.1562	72.9312	35.1562	72.9595	35.1562	72.9215	35.1562	72.9669	35.1562	72.9114	35.1562	72.9713	35.1562	72.8999	35.1562	72.9707	35.1562	72.8856	35.1562	72.9628	35.1562	72.8669	35.1562	72.9458	35.1562	72.8423	35.1562	72.9181	35.1562	72.8106	35.1562	72.8794	35.1562	72.7716	35.1562	72.8306	35.1562	72.7262	35.1562	72.7743	35.1562	72.6766	35.1562	72.7138	35.1562	72.6256	35.1562	72.6532	35.1562	72.5768	35.1562	72.5963	35.1562	72.5335	35.1562	72.5467	35.1562	72.4987	35.1562	72.5071	35.1562	72.4747	35.1562	72.4793	35.1562	72.463	35.1562	72.4644
36.6211	74.5191	36.6211	74.525	36.6211	74.511	36.6211	74.5283	36.6211	74.5008	36.6211	74.5281	36.6211	74.4883	36.6211	74.5236	36.6211	74.473	36.6211	74.5133	36.6211	74.4541	36.6211	74.4958	36.6211	74.4305	36.6211	74.4699	36.6211	74.4013	36.6211	74.4348	36.6211	74.3656	36.6211	74.3908	36.6211	74.3236	36.6211	74.3393	36.6211	74.276	36.6211	74.283	36.6211	74.2251	36.6211	74.2251	36.6211	74.1736	36.6211	74.1691	36.6211	74.1246	36.6211	74.1182	36.6211	74.0815	36.6211	74.075	36.6211	74.0467	36.6211	74.0415	36.6211	74.0221	36.6211	74.0189	36.6211	74.009	36.6211	74.0079
38.0859	75.8931	38.0859	75.9	38.0859	75.8834	38.0859	75.9039	38.0859	75.8712	38.0859	75.904	38.0859	75.8566	38.0859	75.8993	38.0859	75.8391	38.0859	75.8888	38.0859	75.8183	38.0859	75.8714	38.0859	75.7934	38.0859	75.8463	38.0859	75.7636	38.0859	75.8129	38.0859	75.7286	38.0859	75.7717	38.0859	75.6885	38.0859	75.7242	38.0859	75.6444	38.0859	75.6725	38.0859	75.598	38.0859	75.6196	38.0859	75.5519	38.0859	75.5683	38.0859	75.5087	38.0859	75.5213	38.0859	75.4713	38.0859	75.4809	38.0859	75.4418	38.0859	75.4487	38.0859	75.4218	38.0859	75.4261	38.0859	75.4124	38.0859	75.4138
39.5508	77.2633	39.5508	77.2692	39.5508	77.2521	39.5508	77.2694	39.5508	77.2358	39.5508	77.2637	39.5508	77.2145	39.5508	77.2518	39.5508	77.1883	39.5508	77.2331	39.5508	77.1574	39.5508	77.2073	39.5508	77.1216	39.5508	77.1744	39.5508	77.0812	39.5508	77.1346	39.5508	77.0365	39.5508	77.0889	39.5508	76.9887	39.5508	77.039	39.5508	76.9395	39.5508	76.9871	39.5508	76.891	39.5508	76.9356	39.5508	76.8457	39.5508	76.887	39.5508	76.8061	39.5508	76.8432	39.5508	76.774	39.5508	76.8056	39.5508	76.7508	39.5508	76.7752	39.5508	76.7372	39.5508	76.7526	39.5508	76.7332	39.5508	76.7385
41.0156	78.2459	41.0156	78.2595	41.0156	78.2256	41.0156	78.2659	41.0156	78.1989	41.0156	78.265	41.0156	78.1667	41.0156	78.2566	41.0156	78.1298	41.0156	78.2407	41.0156	78.0892	41.0156	78.2174	41.0156	78.0458	41.0156	78.1869	41.0156	78.0011	41.0156	78.15	41.0156	77.9563	41.0156	78.1078	41.0156	77.9133	41.0156	78.0623	41.0156	77.874	41.0156	78.0159	41.0156	77.8402	41.0156	77.9712	41.0156	77.8136	41.0156	77.9302	41.0156	77.7947	41.0156	77.8944	41.0156	77.7837	41.0156	77.8641	41.0156	77.7799	41.0156	77.8392	41.0156	77.7825	41.0156	77.8188	41.0156	77.7904	41.0156	77.8026
42.4805	79.3774	42.4805	79.3838	42.4805	79.363	42.4805	79.3817	42.4805	79.3405	42.4805	79.3711	42.4805	79.3103	42.4805	79.3516	42.4805	79.2725	42.4805	79.3229	42.4805	79.2276	42.4805	79.2847	42.4805	79.1761	42.4805	79.2373	42.4805	79.119	42.4805	79.1814	42.4805	79.0579	42.4805	79.1186	42.4805	78.9948	42.4805	79.0517	42.4805	78.9323	42.4805	78.9838	42.4805	78.8733	42.4805	78.9185	42.4805	78.8205	42.4805	78.859	42.4805	78.776	42.4805	78.8074	42.4805	78.741	42.4805	78.7653	42.4805	78.716	42.4805	78.7332	42.4805	78.7007	42.4805	78.711	42.4805	78.6949	42.4805	78.6983
43.9453	80.2528	43.9453	80.2588	43.9453	80.2377	43.9453	80.2556	43.9453	80.214	43.9453	80.243	43.9453	80.182	43.9453	80.221	43.9453	80.1426	43.9453	80.1899	43.9453	80.0964	43.9453	80.1499	43.9453	80.0444	43.9453	80.1017	43.9453	79.9879	43.9453	80.0467	43.9453	79.9285	43.9453	79.9868	43.9453	79.8682	43.9453	79.9245	43.9453	79.8095	43.9453	79.8628	43.9453	79.7551	43.9453	79.8046	43.9453	79.7073	43.9453	79.7522	43.9453	79.668	43.9453	79.7074	43.9453	79.6382	43.9453	79.6709	43.9453	79.618	43.9453	79.6427	43.9453	79.607	43.9453	79.6224	43.9453	79.6045	43.9453	79.6098
45.4102	81.0343	45.4102	81.0358	45.4102	81.0222	45.4102	81.0268	45.4102	80.9998	45.4102	81.0074	45.4102	80.9676	45.4102	80.9781	45.4102	80.9263	45.4102	80.9394	45.4102	80.877	45.4102	80.8921	45.4102	80.8209	45.4102	80.8374	45.4102	80.7597	45.4102	80.777	45.4102	80.6952	45.4102	80.7129	45.4102	80.63	45.4102	80.6479	45.4102	80.5668	45.4102	80.5849	45.4102	80.5083	45.4102	80.5269	45.4102	80.4572	45.4102	80.4759	45.4102	80.4152	45.4102	80.4334	45.4102	80.3832	45.4102	80.3997	45.4102	80.3612	45.4102	80.3745	45.4102	80.3485	45.4102	80.3572	45.4102	80.3441	45.4102	80.3471
46.875	81.7467	46.875	81.746	46.875	81.7358	46.875	81.7338	46.875	81.7136	46.875	81.7104	46.875	81.6807	46.875	81.6766	46.875	81.6379	46.875	81.6333	46.875	81.5866	46.875	81.5815	46.875	81.5281	46.875	81.523	46.875	81.4643	46.875	81.4595	46.875	81.3973	46.875	81.3934	46.875	81.3298	46.875	81.3277	46.875	81.2645	46.875	81.2649	46.875	81.2042	46.875	81.2078	46.875	81.1515	46.875	81.1582	46.875	81.1081	46.875	81.1171	46.875	81.0748	46.875	81.0847	46.875	81.0517	46.875	81.0606	46.875	81.038	46.875	81.0442	46.875	81.0326	46.875	81.0349
48.3398	82.3144	48.3398	82.3122	48.3398	82.3042	48.3398	82.2976	48.3398	82.2818	48.3398	82.2711	48.3398	82.2478	48.3398	82.2336	48.3398	82.2034	48.3398	82.1865	48.3398	82.1499	48.3398	82.1311	48.3398	82.0891	48.3398	82.0694	48.3398	82.0231	48.3398	82.0037	48.3398	81.9542	48.3398	81.9366	48.3398	81.8852	48.3398	81.8708	48.3398	81.8189	48.3398	81.8092	48.3398	81.7583	48.3398	81.754	48.3398	81.7057	48.3398	81.7066	48.3398	81.6627	48.3398	81.6678	48.3398	81.63	48.3398	81.6374	48.3398	81.6074	48.3398	81.6149	48.3398	81.594	48.3398	81.5996	48.3398	81.5889	48.3398	81.5909
51.2695	83.2897	51.2695	83.287	51.2695	83.2784	51.2695	83.2704	51.2695	83.2532	51.2695	83.2406	51.2695	83.2152	51.2695	83.199	51.2695	83.1656	51.2695	83.1472	51.2695	83.1065	51.2695	83.0873	51.2695	83.0401	51.2695	83.0216	51.2695	82.969	51.2695	82.953	51.2695	82.8963	51.2695	82.8842	51.2695	82.8251	51.2695	82.8184	51.2695	82.7586	51.2695	82.758	51.2695	82.6993	51.2695	82.705	51.2695	82.6496	51.2695	82.6607	51.2695	82.6105	51.2695	82.6251	51.2695	82.5822	51.2695	82.5977	51.2695	82.5638	51.2695	82.5774	51.2695	82.554	51.2695	82.5633	51.2695	82.5514	51.2695	82.5547
52.7344	83.6507	52.7344	83.6477	52.7344	83.639	52.7344	83.6303	52.7344	83.613	52.7344	83.5995	52.7344	83.5737	52.7344	83.5565	52.7344	83.5227	52.7344	83.5035	52.7344	83.4621	52.7344	83.4429	52.7344	83.3944	52.7344	83.3772	52.7344	83.3225	52.7344	83.3097	52.7344	83.2498	52.7344	83.2433	52.7344	83.1796	52.7344	83.181	52.7344	83.1152	52.7344	83.1253	52.7344	83.0593	52.7344	83.0776	52.7344	83.014	52.7344	83.0388	52.7344	82.9801	52.7344	83.0083	52.7344	82.9573	52.7344	82.985	52.7344	82.9443	52.7344	82.9677	52.7344	82.9393	52.7344	82.9549	52.7344	82.9403	52.7344	82.9457
54.1992	83.9379	54.1992	83.9334	54.1992	83.9268	54.1992	83.9138	54.1992	83.9006	54.1992	83.8801	54.1992	83.8603	54.1992	83.834	54.1992	83.8077	54.1992	83.7778	54.1992	83.7453	54.1992	83.7144	54.1992	83.6758	54.1992	83.647	54.1992	83.6026	54.1992	83.579	54.1992	83.5294	54.1992	83.5138	54.1992	83.4597	54.1992	83.4544	54.1992	83.3971	54.1992	83.4032	54.1992	83.3442	54.1992	83.3612	54.1992	83.3031	54.1992	83.3288	54.1992	83.274	54.1992	83.3047	54.1992	83.2563	54.1992	83.2873	54.1992	83.2481	54.1992	83.2746	54.1992	83.247	54.1992	83.2647	54.1992	83.2505	54.1992	83.2567
55.6641	84.1694	55.6641	84.1601	55.6641	84.1611	55.6641	84.1339	55.6641	84.1356	55.6641	84.0919	55.6641	84.094	55.6641	84.0362	55.6641	84.038	55.6641	83.9696	55.6641	83.9704	55.6641	83.8953	55.6641	83.8941	55.6641	83.8172	55.6641	83.8128	55.6641	83.7392	55.6641	83.7305	55.6641	83.6651	55.6641	83.6513	55.6641	83.5985	55.6641	83.5793	55.6641	83.542	55.6641	83.5177	55.6641	83.4967	55.6641	83.4687	55.6641	83.4627	55.6641	83.433	55.6641	83.4387	55.6641	83.41	55.6641	83.4224	55.6641	83.3977	55.6641	83.4115	55.6641	83.3933	55.6641	83.4038	55.6641	83.3942	55.6641	83.398
58.5938	84.6519	58.5938	84.6371	58.5938	84.6479	58.5938	84.6041	58.5938	84.6254	58.5938	84.5543	58.5938	84.5855	58.5938	84.4898	58.5938	84.5301	58.5938	84.4133	58.5938	84.4616	58.5938	84.3283	58.5938	84.383	58.5938	84.2387	58.5938	84.2977	58.5938	84.1484	58.5938	84.2095	58.5938	84.0618	58.5938	84.1223	58.5938	83.9827	58.5938	84.04	58.5938	83.9142	58.5938	83.9659	58.5938	83.8583	58.5938	83.9025	58.5938	83.8154	58.5938	83.8512	58.5938	83.7849	58.5938	83.8122	58.5938	83.765	58.5938	83.7842	58.5938	83.7536	58.5938	83.7657	58.5938	83.7488	58.5938	83.7545	58.5938	83.7492
60.0586	84.8256	60.0586	84.8109	60.0586	84.8199	60.0586	84.7763	60.0586	84.7941	60.0586	84.7235	60.0586	84.7496	60.0586	84.6548	60.0586	84.6887	60.0586	84.5736	60.0586	84.6143	60.0586	84.4837	60.0586	84.5304	60.0586	84.3896	60.0586	84.4411	60.0586	84.2959	60.0586	84.3508	60.0586	84.2072	60.0586	84.2638	60.0586	84.1276	60.0586	84.1838	60.0586	84.06	60.0586	84.1137	60.0586	84.0061	60.0586	84.0552	60.0586	83.9661	60.0586	84.0088	60.0586	83.9389	60.0586	83.9738	60.0586	83.9223	60.0586	83.9488	60.0586	83.914	60.0586	83.9316	60.0586	83.9117	60.0586	83.9205	60.0586	83.9141
62.9883	85.1646	62.9883	85.1497	62.9883	85.1587	62.9883	85.1149	62.9883	85.1323	62.9883	85.0619	62.9883	85.0871	62.9883	84.9937	62.9883	85.0255	62.9883	84.9141	62.9883	84.9511	62.9883	84.8276	62.9883	84.8679	62.9883	84.7391	62.9883	84.7807	62.9883	84.6535	62.9883	84.6943	62.9883	84.5754	62.9883	84.6134	62.9883	84.5084	62.9883	84.5419	62.9883	84.4547	62.9883	84.4825	62.9883	84.4151	62.9883	84.4366	62.9883	84.3887	62.9883	84.4041	62.9883	84.3732	62.9883	84.3833	62.9883	84.3657	62.9883	84.3716	62.9883	84.3631	62.9883	84.366	62.9883	84.3627	62.9883	84.3639	62.9883	84.3631
64.4531	85.3262	64.4531	85.3115	64.4531	85.3196	64.4531	85.2761	64.4531	85.2922	64.4531	85.2222	64.4531	85.2455	64.4531	85.1526	64.4531	85.1822	64.4531	85.0713	64.4531	85.106	64.4531	84.9831	64.4531	85.0213	64.4531	84.893	64.4531	84.9331	64.4531	84.8062	64.4531	84.8463	64.4531	84.7274	64.4531	84.7656	64.4531	84.6604	64.4531	84.695	64.4531	84.6075	64.4531	84.6372	64.4531	84.5693	64.4531	84.5933	64.4531	84.5447	64.4531	84.563	64.4531	84.5313	64.4531	84.5443	64.4531	84.5259	64.4531	84.5344	64.4531	84.5252	64.4531	84.5302	64.4531	84.5263	64.4531	84.5286	64.4531	84.5276
67.3828	85.6692	67.3828	85.652	67.3828	85.6635	67.3828	85.6129	67.3828	85.6354	67.3828	85.5539	67.3828	85.5868	67.3828	85.4783	67.3828	85.5206	67.3828	85.3907	67.3828	85.441	67.3828	85.2962	67.3828	85.3528	67.3828	85.2007	67.3828	85.2614	67.3828	85.11	67.3828	85.1724	67.3828	85.0292	67.3828	85.0909	67.3828	84.9624	67.3828	85.021	67.3828	84.9121	67.3828	84.9655	67.3828	84.8785	67.3828	84.9251	67.3828	84.8602	67.3828	84.8989	67.3828	84.8538	67.3828	84.8843	67.3828	84.8555	67.3828	84.878	67.3828	84.8612	67.3828	84.8759	67.3828	84.8676	67.3828	84.8748	67.3828	84.8723
68.8477	85.8165	68.8477	85.798	68.8477	85.811	68.8477	85.7565	68.8477	85.7819	68.8477	85.6942	68.8477	85.7312	68.8477	85.6148	68.8477	85.6621	68.8477	85.5229	68.8477	85.5787	68.8477	85.4243	68.8477	85.4864	68.8477	85.325	68.8477	85.391	68.8477	85.2311	68.8477	85.2984	68.8477	85.1482	68.8477	85.2141	68.8477	85.0806	68.8477	85.1427	68.8477	85.0307	68.8477	85.0869	68.8477	84.9986	68.8477	85.0474	68.8477	84.9826	68.8477	85.0232	68.8477	84.9791	68.8477	85.0112	68.8477	84.9838	68.8477	85.0074	68.8477	84.992	68.8477	85.0075	68.8477	85.0001	68.8477	85.0078	68.8477	85.0057
71.7773	86.0766	71.7773	86.0549	71.7773	86.0722	71.7773	86.0082	71.7773	86.0422	71.7773	85.9389	71.7773	85.9886	71.7773	85.8509	71.7773	85.9149	71.7773	85.7494	71.7773	85.8258	71.7773	85.6407	71.7773	85.7268	71.7773	85.5315	71.7773	85.6244	71.7773	85.4286	71.7773	85.5251	71.7773	85.3382	71.7773	85.4347	71.7773	85.265	71.7773	85.3581	71.7773	85.2117	71.7773	85.2984	71.7773	85.1787	71.7773	85.2564	71.7773	85.1637	71.7773	85.2306	71.7773	85.163	71.7773	85.2176	71.7773	85.1716	71.7773	85.2131	71.7773	85.1842	71.7773	85.2122	71.7773	85.1966	71.7773	85.2107	71.7773	85.2058
74.707	86.3896	74.707	86.3711	74.707	86.3806	74.707	86.3262	74.707	86.345	74.707	86.2574	74.707	86.2848	74.707	86.1689	74.707	86.2039	74.707	86.0661	74.707	86.1074	74.707	85.9553	74.707	86.0015	74.707	85.8437	74.707	85.8931	74.707	85.7381	74.707	85.789	74.707	85.645	74.707	85.6954	74.707	85.5691	74.707	85.6175	74.707	85.5133	74.707	85.558	74.707	85.4777	74.707	85.5175	74.707	85.4603	74.707	85.4944	74.707	85.457	74.707	85.4848	74.707	85.4628	74.707	85.4839	74.707	85.4725	74.707	85.4867	74.707	85.4817	74.707	85.4889	74.707	85.4875
77.6367	86.6623	77.6367	86.6443	77.6367	86.6514	77.6367	86.5986	77.6367	86.6123	77.6367	86.5278	77.6367	86.5477	77.6367	86.4366	77.6367	86.4616	77.6367	86.3307	77.6367	86.3598	77.6367	86.2172	77.6367	86.249	77.6367	86.1037	77.6367	86.1368	77.6367	85.9976	77.6367	86.0305	77.6367	85.9055	77.6367	85.9369	77.6367	85.8324	77.6367	85.8612	77.6367	85.7806	77.6367	85.806	77.6367	85.7499	77.6367	85.7716	77.6367	85.7377	77.6367	85.7555	77.6367	85.7392	77.6367	85.7533	77.6367	85.7489	77.6367	85.7593	77.6367	85.7611	77.6367	85.768	77.6367	85.7712	77.6367	85.7746	77.6367	85.7761
79.1016	86.7721	79.1016	86.7541	79.1016	86.7601	79.1016	86.7074	79.1016	86.7189	79.1016	86.6348	79.1016	86.6512	79.1016	86.541	79.1016	86.5611	79.1016	86.4321	79.1016	86.4547	79.1016	86.3155	79.1016	86.3391	79.1016	86.199	79.1016	86.222	79.1016	86.0904	79.1016	86.1115	79.1016	85.9964	79.1016	86.0146	79.1016	85.9221	79.1016	85.9367	79.1016	85.87	79.1016	85.8809	79.1016	85.8397	79.1016	85.8472	79.1016	85.8282	79.1016	85.8329	79.1016	85.8306	79.1016	85.8333	79.1016	85.8409	79.1016	85.8423	79.1016	85.8533	79.1016	85.8539	79.1016	85.8629	79.1016	85.8631	79.1016	85.8665
82.0312	87.0819	82.0312	87.0631	82.0312	87.0685	82.0312	87.0136	82.0312	87.0237	82.0312	86.9365	82.0312	86.9501	82.0312	86.837	82.0312	86.8522	82.0312	86.7215	82.0312	86.7362	82.0312	86.5978	82.0312	86.6097	82.0312	86.4743	82.0312	86.4811	82.0312	86.3589	82.0312	86.3588	82.0312	86.2589	82.0312	86.2507	82.0312	86.1793	82.0312	86.1628	82.0312	86.1226	82.0312	86.0988	82.0312	86.0882	82.0312	86.0591	82.0312	86.0728	82.0312	86.0414	82.0312	86.0712	82.0312	86.0408	82.0312	86.0772	82.0312	86.051	82.0312	86.0849	82.0312	86.0657	82.0312	86.0893	82.0312	86.0792	82.0312	86.0877
84.9609	87.3379	84.9609	87.3164	84.9609	87.3265	84.9609	87.2633	84.9609	87.2829	84.9609	87.1823	84.9609	87.2098	84.9609	87.0789	84.9609	87.1121	84.9609	86.96	84.9609	86.9964	84.9609	86.8341	84.9609	86.8705	84.9609	86.7098	84.9609	86.7433	84.9609	86.5956	84.9609	86.6234	84.9609	86.4987	84.9609	86.5184	84.9609	86.4239	84.9609	86.4341	84.9609	86.3733	84.9609	86.3738	84.9609	86.3456	84.9609	86.3376	84.9609	86.3369	84.9609	86.3226	84.9609	86.3413	84.9609	86.3238	84.9609	86.3523	84.9609	86.3352	84.9609	86.3638	84.9609	86.3502	84.9609	86.371	84.9609	86.3635	84.9609	86.371
87.8906	87.5306	87.8906	87.5078	87.8906	87.5181	87.8906	87.4514	87.8906	87.4713	87.8906	87.365	87.8906	87.3934	87.8906	87.2547	87.8906	87.29	87.8906	87.1284	87.8906	87.1685	87.8906	86.9952	87.8906	87.0379	87.8906	86.8651	87.8906	86.9081	87.8906	86.7478	87.8906	86.7889	87.8906	86.6514	87.8906	86.6889	87.8906	86.5816	87.8906	86.6142	87.8906	86.5405	87.8906	86.5675	87.8906	86.5265	87.8906	86.5479	87.8906	86.5346	87.8906	86.5509	87.8906	86.5575	87.8906	86.5693	87.8906	86.5869	87.8906	86.5949	87.8906	86.6147	87.8906	86.6197	87.8906	86.6346	87.8906	86.637	87.8906	86.6425
90.8203	87.7606	90.8203	87.7389	90.8203	87.7452	90.8203	87.6815	90.8203	87.6936	90.8203	87.5926	90.8203	87.6091	90.8203	87.4784	90.8203	87.4976	90.8203	87.3469	90.8203	87.3666	90.8203	87.2077	90.8203	87.2257	90.8203	87.0712	90.8203	87.0849	90.8203	86.9473	90.8203	86.9546	90.8203	86.8444	90.8203	86.8438	90.8203	86.7683	90.8203	86.7591	90.8203	86.7211	90.8203	86.704	90.8203	86.7011	90.8203	86.678	90.8203	86.7034	90.8203	86.677	90.8203	86.7205	90.8203	86.6941	90.8203	86.744	90.8203	86.7208	90.8203	86.7658	90.8203	86.7487	90.8203	86.7797	90.8203	86.7706	90.8203	86.7816
95.2148	88.0975	95.2148	88.0756	95.2148	88.0797	95.2148	88.0154	95.2148	88.0231	95.2148	87.9212	95.2148	87.9318	95.2148	87.7998	95.2148	87.812	95.2148	87.6602	95.2148	87.6725	95.2148	87.5129	95.2148	87.5238	95.2148	87.3694	95.2148	87.3771	95.2148	87.2406	95.2148	87.2439	95.2148	87.1358	95.2148	87.1336	95.2148	87.0612	95.2148	87.0533	95.2148	87.019	95.2148	87.0057	95.2148	87.0068	95.2148	86.9895	95.2148	87.0186	95.2148	86.9991	95.2148	87.0457	95.2148	87.0263	95.2148	87.0786	95.2148	87.0616	95.2148	87.1082	95.2148	87.0957	95.2148	87.1276	95.2148	87.1209	95.2148	87.1322
98.1445	88.3041	98.1445	88.2851	98.1445	88.2804	98.1445	88.2252	98.1445	88.2151	98.1445	88.1291	98.1445	88.1124	98.1445	88.0041	98.1445	87.9791	98.1445	87.8598	98.1445	87.8249	98.1445	87.7078	98.1445	87.661	98.1445	87.56	98.1445	87.5001	98.1445	87.4281	98.1445	87.3549	98.1445	87.3218	98.1445	87.2361	98.1445	87.2474	98.1445	87.1516	98.1445	87.2067	98.1445	87.1046	98.1445	87.1969	98.1445	87.0934	98.1445	87.2108	98.1445	87.1119	98.1445	87.239	98.1445	87.1507	98.1445	87.2709	98.1445	87.199	98.1445	87.2972	98.1445	87.2463	98.1445	87.3104	98.1445	87.284	98.1445	87.3063
101.074	88.499	101.074	88.4765	101.074	88.4758	101.074	88.4104	101.074	88.4079	101.074	88.3056	101.074	88.2992	101.074	88.17	101.074	88.1569	101.074	88.0136	101.074	87.9907	101.074	87.8484	101.074	87.8124	101.074	87.6872	101.074	87.6357	101.074	87.5424	101.074	87.4742	101.074	87.4245	101.074	87.3402	101.074	87.3406	101.074	87.2428	101.074	87.293	101.074	87.1864	101.074	87.2792	101.074	87.1699	101.074	87.292	101.074	87.1867	101.074	87.3213	101.074	87.227	101.074	87.3557	101.074	87.2786	101.074	87.3845	101.074	87.33	101.074	87.3994	101.074	87.3711	101.074	87.3952
105.469	88.7949	105.469	88.7576	105.469	88.785	105.469	88.6753	105.469	88.7289	105.469	88.5535	105.469	88.6306	105.469	88.4006	105.469	88.4974	105.469	88.2278	105.469	88.3388	105.469	88.0481	105.469	88.167	105.469	87.8756	105.469	87.9951	105.469	87.7235	105.469	87.8366	105.469	87.6026	105.469	87.7035	105.469	87.5195	105.469	87.6046	105.469	87.4758	105.469	87.544	105.469	87.4681	105.469	87.5204	105.469	87.4885	105.469	87.5274	105.469	87.5269	105.469	87.5551	105.469	87.572	105.469	87.5918	105.469	87.6136	105.469	87.6264	105.469	87.6434	105.469	87.6497	105.469	87.656
108.398	89.0185	108.398	88.9828	108.398	89.0038	108.398	88.899	108.398	88.9397	108.398	88.7729	108.398	88.8306	108.398	88.6136	108.398	88.6842	108.398	88.433	108.398	88.5109	108.398	88.2451	108.398	88.3239	108.398	88.065	108.398	88.1374	108.398	87.9072	108.398	87.9661	108.398	87.7834	108.398	87.8231	108.398	87.7007	108.398	87.7182	108.398	87.6605	108.398	87.6559	108.398	87.6581	108.398	87.635	108.398	87.6842	108.398	87.6489	108.398	87.7268	108.398	87.6868	108.398	87.7733	108.398	87.736	108.398	87.8126	108.398	87.7842	108.398	87.8363	108.398	87.821	108.398	87.8394
112.793	89.359	112.793	89.3114	112.793	89.3536	112.793	89.2134	112.793	89.2958	112.793	89.0716	112.793	89.1902	112.793	88.8957	112.793	89.0444	112.793	88.6985	112.793	88.8695	112.793	88.4951	112.793	88.679	112.793	88.3018	112.793	88.4881	112.793	88.1341	112.793	88.3124	112.793	88.005	112.793	88.1655	112.793	87.9224	112.793	88.0575	112.793	87.8877	112.793	87.9934	112.793	87.896	112.793	87.9719	112.793	87.9365	112.793	87.9857	112.793	87.9956	112.793	88.0237	112.793	88.0588	112.793	88.0724	112.793	88.1135	112.793	88.1186	112.793	88.1501	112.793	88.1514	112.793	88.163
117.188	89.4983	117.188	89.4542	117.188	89.4871	117.188	89.3574	117.188	89.4218	117.188	89.2143	117.188	89.3076	117.188	89.0352	117.188	89.1534	117.188	88.8335	117.188	88.9712	117.188	88.6253	117.188	88.7761	117.188	88.4278	117.188	88.5844	117.188	88.2579	117.188	88.4127	117.188	88.1293	117.188	88.2752	117.188	88.0508	117.188	88.182	117.188	88.0241	117.188	88.1366	117.188	88.0441	117.188	88.1359	117.188	88.0992	117.188	88.1707	117.188	88.1745	117.188	88.2274	117.188	88.2541	117.188	88.2908	117.188	88.3237	117.188	88.3465	117.188	88.3721	117.188	88.383	117.188	88.3925
120.117	89.6632	120.117	89.6219	120.117	89.6472	120.117	89.5257	120.117	89.5757	120.117	89.3811	120.117	89.4543	120.117	89.1986	120.117	89.2923	120.117	88.9923	120.117	89.1022	120.117	88.7793	120.117	88.8995	120.117	88.5781	120.117	88.7013	120.117	88.4066	120.117	88.5247	120.117	88.2792	120.117	88.3848	120.117	88.2047	120.117	88.2923	120.117	88.184	120.117	88.2513	120.117	88.2105	120.117	88.2585	120.117	88.272	120.117	88.304	120.117	88.3527	120.117	88.373	120.117	88.4364	120.117	88.4487	120.117	88.5083	120.117	88.5154	120.117	88.5569	120.117	88.5603	120.117	88.5751
124.512	89.9817	124.512	89.9464	124.512	89.9552	124.512	89.8512	124.512	89.8692	124.512	89.7022	124.512	89.73	124.512	89.5097	124.512	89.548	124.512	89.2879	124.512	89.3366	124.512	89.0547	124.512	89.1123	124.512	88.83	124.512	88.8931	124.512	88.6339	124.512	88.6972	124.512	88.4839	124.512	88.5405	124.512	88.3916	124.512	88.4346	124.512	88.3599	124.512	88.3842	124.512	88.3826	124.512	88.3868	124.512	88.4458	124.512	88.4326	124.512	88.531	124.512	88.5064	124.512	88.6188	124.512	88.5907	124.512	88.6921	124.512	88.6682	124.512	88.738	124.512	88.7244	124.512	88.7492
128.906	90.2299	128.906	90.1983	128.906	90.1948	128.906	90.1024	128.906	90.0949	128.906	89.9489	128.906	89.9364	128.906	89.7489	128.906	89.7299	128.906	89.5171	128.906	89.4899	128.906	89.2718	128.906	89.2346	128.906	89.0333	128.906	88.9844	128.906	88.8218	128.906	88.7603	128.906	88.6553	128.906	88.5811	128.906	88.5458	128.906	88.4605	128.906	88.4975	128.906	88.4044	128.906	88.5053	128.906	88.4094	128.906	88.5564	128.906	88.464	128.906	88.6328	128.906	88.5502	128.906	88.715	128.906	88.6479	128.906	88.7846	128.906	88.7376	128.906	88.8275	128.906	88.8033	128.906	88.8346
133.301	90.3445	133.301	90.3103	133.301	90.3105	133.301	90.2106	133.301	90.2099	133.301	90.0528	133.301	90.0493	133.301	89.8487	133.301	89.8393	133.301	89.614	133.301	89.595	133.301	89.3678	133.301	89.3347	133.301	89.131	133.301	89.0793	133.301	88.9242	133.301	88.8496	133.301	88.7646	133.301	88.6644	133.301	88.663	133.301	88.5374	133.301	88.6216	133.301	88.4747	133.301	88.6338	133.301	88.4737	133.301	88.6854	133.301	88.5237	133.301	88.758	133.301	88.608	133.301	88.8323	133.301	88.707	133.301	88.8913	133.301	88.8015	133.301	88.9221	133.301	88.8752	133.301	88.9172
139.16	90.4429	139.16	90.3867	139.16	90.4265	139.16	90.2619	139.16	90.3387	139.16	90.0775	139.16	90.1857	139.16	89.8476	139.16	89.9786	139.16	89.5905	139.16	89.7331	139.16	89.328	139.16	89.4689	139.16	89.0838	139.16	89.2083	139.16	88.8802	139.16	88.9741	139.16	88.735	139.16	88.787	139.16	88.6579	139.16	88.6618	139.16	88.6482	139.16	88.6049	139.16	88.6955	139.16	88.6131	139.16	88.7816	139.16	88.6741	139.16	88.8848	139.16	88.7696	139.16	88.9837	139.16	88.8786	139.16	89.0603	139.16	88.9809	139.16	89.1019	139.16	89.0592	139.16	89.1016
143.555	90.4361	143.555	90.3706	143.555	90.4256	143.555	90.2331	143.555	90.3407	143.555	90.0329	143.555	90.1884	143.555	89.7848	143.555	89.9809	143.555	89.5084	143.555	89.7351	143.555	89.2277	143.555	89.4721	143.555	88.9685	143.555	89.2154	143.555	88.7563	143.555	88.9892	143.555	88.6118	143.555	88.8146	143.555	88.5465	143.555	88.7063	143.555	88.5599	143.555	88.67	143.555	88.6393	143.555	88.7004	143.555	88.7632	143.555	88.7828	143.555	88.9057	143.555	88.8966	143.555	89.0418	143.555	89.0185	143.555	89.1508	143.555	89.1268	143.555	89.218	143.555	89.2034	143.555	89.2358
147.949	90.6021	147.949	90.5424	147.949	90.5813	147.949	90.4056	147.949	90.4819	147.949	90.2005	147.949	90.3114	147.949	89.9416	147.949	90.0825	147.949	89.6485	147.949	89.8129	147.949	89.3458	147.949	89.5251	147.949	89.0609	147.949	89.2446	147.949	88.8219	147.949	88.9982	147.949	88.6528	147.949	88.8097	147.949	88.5688	147.949	88.6962	147.949	88.5721	147.949	88.6639	147.949	88.6508	147.949	88.7067	147.949	88.7823	147.949	88.807	147.949	88.9382	147.949	88.9406	147.949	89.0903	147.949	89.0806	147.949	89.2147	147.949	89.2023	147.949	89.294	147.949	89.2859	147.949	89.3184
153.809	90.8445	153.809	90.7835	153.809	90.8168	153.809	90.6375	153.809	90.7021	153.809	90.416	153.809	90.5078	153.809	90.134	153.809	90.2471	153.809	89.812	153.809	89.9389	153.809	89.4754	153.809	89.6072	153.809	89.153	153.809	89.2798	153.809	88.8746	153.809	88.9861	153.809	88.6665	153.809	88.7532	153.809	88.5464	153.809	88.6008	153.809	88.5185	153.809	88.5373	153.809	88.5723	153.809	88.5575	153.809	88.6849	153.809	88.6438	153.809	88.8267	153.809	88.7706	153.809	88.9676	153.809	88.9099	153.809	89.0821	153.809	89.0353	153.809	89.1518	153.809	89.1258	153.809	89.1669
159.668	91.092	159.668	91.0224	159.668	91.0696	159.668	90.8651	159.668	90.9571	159.668	90.63	159.668	90.7622	159.668	90.3333	159.668	90.4985	159.668	89.9969	159.668	90.1852	159.668	89.6476	159.668	89.8466	159.668	89.3156	159.668	89.511	159.668	89.0316	159.668	89.2086	159.668	88.8223	159.668	88.9675	159.668	88.705	159.668	88.8092	159.668	88.6836	159.668	88.7431	159.668	88.7467	159.668	88.7646	159.668	88.8706	159.668	88.8556	159.668	89.0246	159.668	88.9892	159.668	89.1776	159.668	89.1354	159.668	89.3026	159.668	89.2663	159.668	89.3803	159.668	89.3596	159.668	89.3999
165.527	91.1564	165.527	91.0869	165.527	91.1293	165.527	90.925	165.527	91.0082	165.527	90.6807	165.527	90.8012	165.527	90.3706	165.527	90.523	165.527	90.0177	165.527	90.1944	165.527	89.651	165.527	89.8417	165.527	89.3038	165.527	89.4956	165.527	89.0106	165.527	89.1889	165.527	88.802	165.527	88.952	165.527	88.6975	165.527	88.8073	165.527	88.7004	165.527	88.7639	165.527	88.7964	165.527	88.8148	165.527	88.9568	165.527	88.9387	165.527	89.1463	165.527	89.1052	165.527	89.3296	165.527	89.281	165.527	89.4773	165.527	89.4356	165.527	89.5684	165.527	89.5446	165.527	89.5914
171.387	91.1194	171.387	91.0404	171.387	91.0962	171.387	90.863	171.387	90.9736	171.387	90.5976	171.387	90.7604	171.387	90.2613	171.387	90.472	171.387	89.8785	171.387	90.1296	171.387	89.48	171.387	89.7603	171.387	89.102	171.387	89.3954	171.387	88.7822	171.387	89.0685	171.387	88.5539	171.387	88.8114	171.387	88.4384	171.387	88.6491	171.387	88.439	171.387	88.5933	171.387	88.5402	171.387	88.639	171.387	88.7117	171.387	88.7644	171.387	88.9161	171.387	88.9366	171.387	89.1164	171.387	89.1186	171.387	89.2814	171.387	89.2765	171.387	89.3881	171.387	89.3838	171.387	89.4233
177.246	91.0172	177.246	90.9406	177.246	90.9856	177.246	90.7591	177.246	90.8495	177.246	90.4829	177.246	90.6192	177.246	90.1292	177.246	90.3118	177.246	89.7227	177.246	89.9509	177.246	89.2954	177.246	89.566	177.246	88.886	177.246	89.1908	177.246	88.5367	177.246	88.8609	177.246	88.2872	177.246	88.6094	177.246	88.1655	177.246	88.4608	177.246	88.1786	177.246	88.4257	177.246	88.3095	177.246	88.4965	177.246	88.5221	177.246	88.6491	177.246	88.7712	177.246	88.8481	177.246	89.0132	177.246	89.0541	177.246	89.2117	177.246	89.2304	177.246	89.3413	177.246	89.3481	177.246	89.3878
183.105	91.1324	183.105	91.0611	183.105	91.0886	183.105	90.8785	183.105	90.9326	183.105	90.5955	183.105	90.6744	183.105	90.2297	183.105	90.3315	183.105	89.806	183.105	89.9286	183.105	89.3562	183.105	89.4978	183.105	88.9188	183.105	89.0766	183.105	88.5366	183.105	88.7054	183.105	88.2509	183.105	88.4212	183.105	88.0931	183.105	88.251	183.105	88.075	183.105	88.2054	183.105	88.1833	183.105	88.2759	183.105	88.3834	183.105	88.4368	183.105	88.6291	183.105	88.6504	183.105	88.8733	183.105	88.8745	183.105	89.0758	183.105	89.069	183.105	89.2073	183.105	89.2016	183.105	89.2506
188.965	91.2209	188.965	91.1545	188.965	91.165	188.965	90.9702	188.965	90.9888	188.965	90.6791	188.965	90.7012	188.965	90.2999	188.965	90.3183	188.965	89.8587	188.965	89.8639	188.965	89.3893	188.965	89.3707	188.965	88.9322	188.965	88.8797	188.965	88.532	188.965	88.4384	188.965	88.2308	188.965	88.0936	188.965	88.0597	188.965	87.8817	188.965	88.0284	188.965	87.8169	188.965	88.1206	188.965	87.8865	188.965	88.2986	188.965	88.0568	188.965	88.5142	188.965	88.2835	188.965	88.7208	188.965	88.5224	188.965	88.8809	188.965	88.7353	188.965	88.9695	188.965	88.8924	188.965	88.9737
196.289	91.2717	196.289	91.1741	196.289	91.2454	196.289	90.9569	196.289	91.0976	196.289	90.6318	196.289	90.8376	196.289	90.2178	196.289	90.4812	196.289	89.7417	196.289	90.0511	196.289	89.2382	196.289	89.577	196.289	88.7489	196.289	89.0959	196.289	88.321	196.289	88.6505	196.289	88.0018	196.289	88.2863	196.289	87.8294	196.289	88.0434	196.289	87.8198	196.289	87.9466	196.289	87.9587	196.289	87.996	196.289	88.2034	196.289	88.1656	196.289	88.4958	196.289	88.4099	196.289	88.7779	196.289	88.6765	196.289	89.0023	196.289	88.9156	196.289	89.137	196.289	89.0877	196.289	89.1659
203.613	91.3422	203.613	91.2347	203.613	91.3149	203.613	90.9978	203.613	91.1554	203.613	90.6446	203.613	90.8739	203.613	90.1968	203.613	90.4879	203.613	89.6846	203.613	90.0224	203.613	89.1463	203.613	89.5094	203.613	88.6271	203.613	88.9873	203.613	88.1757	203.613	88.4997	203.613	87.8378	203.613	88.0923	203.613	87.6467	203.613	87.807	203.613	87.6146	203.613	87.6721	203.613	87.7266	203.613	87.6926	203.613	87.9445	203.613	87.8455	203.613	88.2152	203.613	88.0848	203.613	88.4837	203.613	88.3544	203.613	88.7016	203.613	88.6001	203.613	88.8338	203.613	88.7784	203.613	88.8606
210.938	91.2496	210.938	91.1463	210.938	91.2174	210.938	90.9119	210.938	91.0524	210.938	90.5582	210.938	90.7652	210.938	90.1043	210.938	90.3743	210.938	89.5771	210.938	89.9065	210.938	89.0124	210.938	89.3959	210.938	88.4553	210.938	88.8837	210.938	87.959	210.938	88.4157	210.938	87.5786	210.938	88.0379	210.938	87.3598	210.938	87.7886	210.938	87.3227	210.938	87.6887	210.938	87.4523	210.938	87.7342	210.938	87.7024	210.938	87.8964	210.938	88.0108	210.938	88.129	210.938	88.3164	210.938	88.3792	210.938	88.5692	210.938	88.5977	210.938	88.7349	210.938	88.7449	210.938	88.7946
218.262	91.067	218.262	90.9673	218.262	91.022	218.262	90.7285	218.262	90.8351	218.262	90.3647	218.262	90.518	218.262	89.899	218.262	90.0923	218.262	89.3631	218.262	89.5901	218.262	88.7987	218.262	89.0542	218.262	88.2561	218.262	88.5366	218.262	87.792	218.262	88.0937	218.262	87.4619	218.262	87.7767	218.262	87.307	218.262	87.6191	218.262	87.3406	218.262	87.6269	218.262	87.54	218.262	87.7772	218.262	87.8527	218.262	88.0265	218.262	88.2124	218.262	88.3227	218.262	88.556	218.262	88.615	218.262	88.8337	218.262	88.8591	218.262	89.0123	218.262	89.0203	218.262	89.0752
225.586	91.2554	225.586	91.1501	225.586	91.2017	225.586	90.8916	225.586	90.9911	225.586	90.4945	225.586	90.6342	225.586	89.9823	225.586	90.1509	225.586	89.389	225.586	89.5714	225.586	88.7599	225.586	88.9384	225.586	88.1523	225.586	88.3089	225.586	87.6327	225.586	87.7529	225.586	87.2678	225.586	87.345	225.586	87.1077	225.586	87.144	225.586	87.1674	225.586	87.1694	225.586	87.4176	225.586	87.3909	225.586	87.7936	225.586	87.7429	225.586	88.2166	225.586	88.1487	225.586	88.613	225.586	88.5401	225.586	88.9258	225.586	88.864	225.586	89.1179	225.586	89.0824	225.586	89.1708
232.91	90.8513	232.91	90.7318	232.91	90.8009	232.91	90.4482	232.91	90.5826	232.91	90.0145	232.91	90.2063	232.91	89.453	232.91	89.6905	232.91	88.7957	232.91	89.063	232.91	88.0858	232.91	88.3635	232.91	87.3809	232.91	87.646	232.91	86.754	232.91	86.9816	232.91	86.2883	232.91	86.4553	232.91	86.0578	232.91	86.1481	232.91	86.096	232.91	86.1065	232.91	86.375	232.91	86.3162	232.91	86.8145	232.91	86.7072	232.91	87.3144	232.91	87.1844	232.91	87.7834	232.91	87.6575	232.91	88.1532	232.91	88.0547	232.91	88.3791	232.91	88.3253	232.91	88.4379
241.699	90.7096	241.699	90.571	241.699	90.6729	241.699	90.2621	241.699	90.4648	241.699	89.7965	241.699	90.0978	241.699	89.1975	241.699	89.5932	241.699	88.498	241.699	88.9805	241.699	87.7426	241.699	88.2981	241.699	86.9893	241.699	87.5936	241.699	86.3106	241.699	86.9252	241.699	85.7895	241.699	86.3613	241.699	85.5007	241.699	85.9728	241.699	85.4812	241.699	85.8138	241.699	85.7086	241.699	85.8952	241.699	86.1076	241.699	86.1731	241.699	86.5794	241.699	86.5644	241.699	87.0316	241.699	86.9779	241.699	87.3929	241.699	87.3357	241.699	87.6172	241.699	87.5819	241.699	87.681
250.488	91.2369	250.488	91.0928	250.488	91.1896	250.488	90.7635	250.488	90.9533	250.488	90.2636	250.488	90.5396	250.488	89.6169	250.488	89.9692	250.488	88.8562	250.488	89.2728	250.488	88.0246	250.488	88.4919	250.488	87.1767	250.488	87.6801	250.488	86.382	250.488	86.9063	250.488	85.7251	250.488	86.2553	250.488	85.2973	250.488	85.8187	250.488	85.1673	250.488	85.6641	250.488	85.3411	250.488	85.7957	250.488	85.7478	250.488	86.1431	250.488	86.2714	250.488	86.5938	250.488	86.7964	250.488	87.0388	250.488	87.2356	250.488	87.396	250.488	87.5337	250.488	87.6132	250.488	87.6623
259.277	91.0756	259.277	90.9427	259.277	91.0166	259.277	90.6229	259.277	90.769	259.277	90.1296	259.277	90.3441	259.277	89.4856	259.277	89.7631	259.277	88.725	259.277	89.0574	259.277	87.8955	259.277	88.2698	259.277	87.0601	259.277	87.4547	259.277	86.2976	259.277	86.6795	259.277	85.6977	259.277	86.0238	259.277	85.3446	259.277	85.5734	259.277	85.2882	259.277	85.3983	259.277	85.5164	259.277	85.5185	259.277	85.954	259.277	85.8836	259.277	86.4912	259.277	86.3899	259.277	87.0185	259.277	86.9196	259.277	87.4481	259.277	87.373	259.277	87.72	259.277	87.68	259.277	87.8004
268.066	91.059	268.066	90.8993	268.066	91.015	268.066	90.5425	268.066	90.7706	268.066	90.0053	268.066	90.339	268.066	89.3134	268.066	89.7418	268.066	88.5014	268.066	89.0076	268.066	87.6123	268.066	88.1715	268.066	86.6991	268.066	87.2797	268.066	85.8273	268.066	86.3961	268.066	85.0799	268.066	85.6094	268.066	84.5571	268.066	85.0304	268.066	84.3556	268.066	84.7627	268.066	84.5171	268.066	84.8513	268.066	84.9856	268.066	85.2448	268.066	85.6247	268.066	85.814	268.066	86.2805	268.066	86.4104	268.066	86.8302	268.066	86.911	268.066	87.1948	268.066	87.2336	268.066	87.3332
276.855	91.3028	276.855	91.1519	276.855	91.2727	276.855	90.8169	276.855	91.0652	276.855	90.2977	276.855	90.6843	276.855	89.6011	276.855	90.1364	276.855	88.7473	276.855	89.4328	276.855	87.7797	276.855	88.5955	276.855	86.7754	276.855	87.6639	276.855	85.8496	276.855	86.702	276.855	85.1411	276.855	85.8052	276.855	84.7644	276.855	85.094	276.855	84.7494	276.855	84.6825	276.855	85.0265	276.855	84.6243	276.855	85.4767	276.855	84.8811	276.855	85.9865	276.855	85.3466	276.855	86.4632	276.855	85.8948	276.855	86.8307	276.855	86.412	276.855	87.0294	276.855	86.8085	276.855	87.0238
287.109	91.2686	287.109	91.1292	287.109	91.1973	287.109	90.7917	287.109	90.9159	287.109	90.2793	287.109	90.4399	287.109	89.622	287.109	89.8001	287.109	88.8523	287.109	89.0421	287.109	88.0018	287.109	88.223	287.109	87.1021	287.109	87.4056	287.109	86.1986	287.109	86.6513	287.109	85.376	287.109	86.0156	287.109	84.7775	287.109	85.5515	287.109	84.5618	287.109	85.3147	287.109	84.7835	287.109	85.3495	287.109	85.3296	287.109	85.6525	287.109	86.0088	287.109	86.1462	287.109	86.6607	287.109	86.7028	287.109	87.1848	287.109	87.1938	287.109	87.5221	287.109	87.5238	287.109	87.6389
297.363	91.5023	297.363	91.36	297.363	91.428	297.363	91.0098	297.363	91.1414	297.363	90.4732	297.363	90.6569	297.363	89.7822	297.363	89.9955	297.363	88.9738	297.363	89.1813	297.363	88.0854	297.363	88.2429	297.363	87.1519	297.363	87.2206	297.363	86.2093	297.363	86.1811	297.363	85.312	297.363	85.2354	297.363	84.5655	297.363	84.5417	297.363	84.1469	297.363	84.257	297.363	84.2288	297.363	84.4389	297.363	84.8018	297.363	84.9922	297.363	85.6383	297.363	85.7317	297.363	86.471	297.363	86.4753	297.363	87.1257	297.363	87.09	297.363	87.5247	297.363	87.4948	297.363	87.6464
307.617	90.8383	307.617	90.6566	307.617	90.7976	307.617	90.2606	307.617	90.5387	307.617	89.6703	307.617	90.0782	307.617	88.9171	307.617	89.4451	307.617	88.0439	307.617	88.6781	307.617	87.1071	307.617	87.8234	307.617	86.1763	307.617	86.9311	307.617	85.3302	307.617	86.0557	307.617	84.6458	307.617	85.2632	307.617	84.1834	307.617	84.6386	307.617	83.9807	307.617	84.2789	307.617	84.0583	307.617	84.251	307.617	84.4123	307.617	84.5416	307.617	84.9839	307.617	85.0539	307.617	85.6447	307.617	85.6521	307.617	86.2366	307.617	86.2034	307.617	86.6296	307.617	86.5973	307.617	86.7531
319.336	90.7946	319.336	90.5958	319.336	90.7452	319.336	90.158	319.336	90.4482	319.336	89.499	319.336	89.9151	319.336	88.6471	319.336	89.1705	319.336	87.6432	319.336	88.253	319.336	86.5425	319.336	87.2133	319.336	85.4169	319.336	86.1147	319.336	84.3592	319.336	85.0382	319.336	83.4936	319.336	84.0988	319.336	82.9745	319.336	83.4551	319.336	82.9316	319.336	83.2624	319.336	83.3648	319.336	83.5567	319.336	84.1159	319.336	84.2022	319.336	84.9681	319.336	84.9863	319.336	85.7484	319.336	85.7314	319.336	86.3518	319.336	86.3257	319.336	86.7247	319.336	86.7073	319.336	86.8444
329.59	90.808	329.59	90.6377	329.59	90.7365	329.59	90.2353	329.59	90.4245	329.59	89.6187	329.59	89.8872	329.59	88.8112	329.59	89.1553	329.59	87.8413	329.59	88.2722	329.59	86.7451	329.59	87.2878	329.59	85.5725	329.59	86.2505	329.59	84.4003	329.59	85.2047	329.59	83.3506	329.59	84.2022	329.59	82.6024	329.59	83.335	329.59	82.3505	329.59	82.7721	329.59	82.6751	329.59	82.7203	329.59	83.4454	329.59	83.2444	329.59	84.4076	329.59	84.1493	329.59	85.3329	329.59	85.1295	329.59	86.0718	329.59	85.9503	329.59	86.538	329.59	86.4851	329.59	86.6831
341.309	90.7582	341.309	90.5594	341.309	90.6772	341.309	90.0851	341.309	90.3247	341.309	89.3558	341.309	89.7184	341.309	88.4118	341.309	88.8852	341.309	87.3131	341.309	87.8619	341.309	86.1321	341.309	86.6985	341.309	84.9392	341.309	85.4617	341.309	83.7914	341.309	84.2431	341.309	82.7445	341.309	83.1717	341.309	81.9077	341.309	82.4208	341.309	81.5022	341.309	82.1665	341.309	81.774	341.309	82.4805	341.309	82.7077	341.309	83.2551	341.309	83.9654	341.309	84.2634	341.309	85.1781	341.309	85.2741	341.309	86.1211	341.309	86.1134	341.309	86.6961	341.309	86.6692	341.309	86.8754
353.027	90.9742	353.027	90.8006	353.027	90.8994	353.027	90.384	353.027	90.5785	353.027	89.7364	353.027	90.0232	353.027	88.8761	353.027	89.2556	353.027	87.829	353.027	88.3084	353.027	86.6316	353.027	87.2231	353.027	85.3385	353.027	86.0451	353.027	84.0276	353.027	84.818	353.027	82.8037	353.027	83.585	353.027	81.8038	353.027	82.4192	353.027	81.2132	353.027	81.4906	353.027	81.239	353.027	81.1116	353.027	81.9412	353.027	81.5439	353.027	83.0896	353.027	82.6407	353.027	84.3171	353.027	83.9497	353.027	85.3341	353.027	85.0895	353.027	85.9741	353.027	85.8543	353.027	86.1563
366.211	91.7162	366.211	91.4676	366.211	91.6648	366.211	90.9323	366.211	91.3175	366.211	90.14	366.211	90.6955	366.211	89.1343	366.211	89.8352	366.211	87.9683	366.211	88.7841	366.211	86.6993	366.211	87.5949	366.211	85.3853	366.211	86.3177	366.211	84.0817	366.211	84.9977	366.211	82.8479	366.211	83.6896	366.211	81.7725	366.211	82.499	366.211	81.0147	366.211	81.6286	366.211	80.8094	366.211	81.3283	366.211	81.3039	366.211	81.6834	366.211	82.3233	366.211	82.496	366.211	83.4726	366.211	83.4566	366.211	84.4242	366.211	84.3179	366.211	85.0086	366.211	84.922	366.211	85.1707
379.395	90.6749	379.395	90.4872	379.395	90.6038	379.395	90.0479	379.395	90.2781	379.395	89.3742	379.395	89.715	379.395	88.4941	379.395	88.9473	379.395	87.4489	379.395	88.0221	379.395	86.2956	379.395	86.9961	379.395	85.1059	379.395	85.9259	379.395	83.9571	379.395	84.8591	379.395	82.9238	379.395	83.8381	379.395	82.0837	379.395	82.925	379.395	81.5444	379.395	82.2405	379.395	81.454	379.395	81.9755	379.395	81.9176	379.395	82.2882	379.395	82.8479	379.395	83.118	379.395	83.9686	379.395	84.1742	379.395	84.983	379.395	85.1309	379.395	85.6832	379.395	85.7626	379.395	85.9562
392.578	90.3943	392.578	90.1677	392.578	90.3253	392.578	89.661	392.578	89.9617	392.578	88.9039	392.578	89.3212	392.578	87.937	392.578	88.438	392.578	86.8075	392.578	87.3621	392.578	85.5667	392.578	86.1617	392.578	84.2738	392.578	84.9243	392.578	83.0093	392.578	83.7483	392.578	81.8934	392.578	82.7215	392.578	81.087	392.578	81.9115	392.578	80.7477	392.578	81.402	392.578	80.9607	392.578	81.3406	392.578	81.6976	392.578	81.8526	392.578	82.7949	392.578	82.8379	392.578	83.9858	392.578	83.9851	392.578	85.0056	392.578	84.9895	392.578	85.6731	392.578	85.6593	392.578	85.8981
405.762	90.341	405.762	90.0928	405.762	90.2496	405.762	89.5175	405.762	89.8273	405.762	88.647	405.762	89.1049	405.762	87.5312	405.762	88.1332	405.762	86.2357	405.762	86.9767	405.762	84.8345	405.762	85.7079	405.762	83.4001	405.762	84.4024	405.762	82.0021	405.762	83.1356	405.762	80.7378	405.762	81.9852	405.762	79.8055	405.762	81.0467	405.762	79.5194	405.762	80.4636	405.762	80.0645	405.762	80.44	405.762	81.2424	405.762	81.1202	405.762	82.6731	405.762	82.3589	405.762	84.0501	405.762	83.7637	405.762	85.1641	405.762	84.9742	405.762	85.872	405.762	85.7805	405.762	86.0877
420.41	90.2916	420.41	90.0635	420.41	90.1749	420.41	89.5163	420.41	89.7166	420.41	88.6994	420.41	88.9493	420.41	87.6758	420.41	87.9377	420.41	86.507	420.41	86.7761	420.41	85.2452	420.41	85.5708	420.41	83.935	420.41	84.3994	420.41	82.6206	420.41	83.2745	420.41	81.3483	420.41	82.1523	420.41	80.1705	420.41	81.0104	420.41	79.19	420.41	79.9737	420.41	78.6982	420.41	79.4168	420.41	79.1706	420.41	79.7635	420.41	80.6217	420.41	80.9549	420.41	82.3786	420.41	82.4684	420.41	83.8434	420.41	83.8171	420.41	84.7593	420.41	84.7221	420.41	85.0526
435.059	89.6175	435.059	89.3724	435.059	89.5087	435.059	88.7839	435.059	89.0664	435.059	87.8952	435.059	88.335	435.059	86.7746	435.059	87.3715	435.059	85.5046	435.059	86.2377	435.059	84.1707	435.059	84.997	435.059	82.8507	435.059	83.7157	435.059	81.5974	435.059	82.4631	435.059	80.4304	435.059	81.3031	435.059	79.4	435.059	80.2848	435.059	78.7513	435.059	79.4776	435.059	78.9305	435.059	79.1024	435.059	80.0465	435.059	79.5909	435.059	81.6409	435.059	81.0703	435.059	83.2473	435.059	82.9527	435.059	84.6046	435.059	84.5695	435.059	85.5365	435.059	85.5832	435.059	85.8964
451.172	90.0831	451.172	89.6928	451.172	90.0874	451.172	88.9409	451.172	89.7064	451.172	87.88	451.172	88.9665	451.172	86.5979	451.172	87.9219	451.172	85.2151	451.172	86.654	451.172	83.8575	451.172	85.2655	451.172	82.6071	451.172	83.8712	451.172	81.4718	451.172	82.5781	451.172	80.4021	451.172	81.4534	451.172	79.3425	451.172	80.4951	451.172	78.3083	451.172	79.6428	451.172	77.514	451.172	78.8597	451.172	77.4659	451.172	78.2895	451.172	78.4773	451.172	78.3059	451.172	80.0136	451.172	79.1035	451.172	81.3195	451.172	80.3148	451.172	82.0187	451.172	81.4033	451.172	82.0272
465.82	89.4019	465.82	89.1559	465.82	89.3334	465.82	88.5777	465.82	88.9557	465.82	87.6548	465.82	88.2662	465.82	86.41	465.82	87.2786	465.82	84.9283	465.82	86.051	465.82	83.3575	465.82	84.6956	465.82	81.8618	465.82	83.3575	465.82	80.5414	465.82	82.1567	465.82	79.399	465.82	81.1317	465.82	78.41	465.82	80.2541	465.82	77.6679	465.82	79.5387	465.82	77.492	465.82	79.1687	465.82	78.2106	465.82	79.4461	465.82	79.6843	465.82	80.4465	465.82	81.3997	465.82	81.8269	465.82	82.8997	465.82	83.121	465.82	83.9057	465.82	83.9982	465.82	84.2815
483.398	88.5574	483.398	88.3077	483.398	88.4217	483.398	87.7287	483.398	87.8915	483.398	86.8981	483.398	87.0162	483.398	85.8906	483.398	85.8945	483.398	84.7714	483.398	84.6446	483.398	83.6136	483.398	83.3695	483.398	82.5201	483.398	82.1345	483.398	81.5897	483.398	80.9816	483.398	80.8158	483.398	79.9708	483.398	80.0378	483.398	79.1696	483.398	79.0831	483.398	78.5588	483.398	78.1198	483.398	78.0681	483.398	77.9941	483.398	77.9491	483.398	79.2779	483.398	78.8678	483.398	81.1457	483.398	80.7031	483.398	82.7435	483.398	82.4942	483.398	83.7565	483.398	83.6667	483.398	84.0825
499.512	87.9675	499.512	87.8576	499.512	87.6587	499.512	87.374	499.512	86.9486	499.512	86.6045	499.512	85.919	499.512	85.6534	499.512	84.6981	499.512	84.614	499.512	83.4225	499.512	83.5515	499.512	82.2012	499.512	82.5045	499.512	81.0963	499.512	81.5092	499.512	80.1214	499.512	80.6348	499.512	79.2654	499.512	79.9532	499.512	78.5491	499.512	79.4248	499.512	78.0635	499.512	78.9693	499.512	77.8958	499.512	78.8655	499.512	78.0833	499.512	79.7381	499.512	78.7823	499.512	81.4039	499.512	80.1465	499.512	82.9605	499.512	81.832	499.512	83.8643	499.512	83.2291	499.512	83.9534
517.09	85.443	517.09	85.4235	517.09	85.2414	517.09	85.1382	517.09	84.8628	517.09	84.5848	517.09	84.3275	517.09	83.8331	517.09	83.6487	517.09	83.0174	517.09	82.8707	517.09	82.2791	517.09	82.0777	517.09	81.6804	517.09	81.3458	517.09	81.1546	517.09	80.6764	517.09	80.5496	517.09	79.992	517.09	79.7647	517.09	79.2253	517.09	78.9268	517.09	78.4226	517.09	78.4276	517.09	77.738	517.09	78.591	517.09	77.3929	517.09	79.4539	517.09	77.8549	517.09	80.8491	517.09	79.4314	517.09	82.3154	517.09	81.4044	517.09	83.3245	517.09	82.9011	517.09	83.5586
536.133	84.6821	536.133	84.5242	536.133	84.6748	536.133	84.2267	536.133	84.4743	536.133	83.7971	536.133	84.0832	536.133	83.2415	536.133	83.5458	536.133	82.5887	536.133	82.9238	536.133	81.8916	536.133	82.2752	536.133	81.2167	536.133	81.6699	536.133	80.6376	536.133	81.1822	536.133	80.1785	536.133	80.8035	536.133	79.7065	536.133	80.3905	536.133	78.9626	536.133	79.761	536.133	77.8441	536.133	78.8242	536.133	76.8941	536.133	77.696	536.133	77.3063	536.133	77.0073	536.133	79.0295	536.133	77.7822	536.133	80.8022	536.133	79.6195	536.133	81.8823	536.133	81.2344	536.133	82.0351
555.176	84.469	555.176	84.3797	555.176	84.4538	555.176	84.177	555.176	84.3302	555.176	83.8301	555.176	84.0711	555.176	83.2904	555.176	83.6236	555.176	82.5317	555.176	82.9557	555.176	81.598	555.176	82.1216	555.176	80.611	555.176	81.2652	555.176	79.7298	555.176	80.5262	555.176	79.0893	555.176	79.9435	555.176	78.7277	555.176	79.4793	555.176	78.5254	555.176	79.1088	555.176	78.2594	555.176	78.8049	555.176	77.8096	555.176	78.4447	555.176	77.367	555.176	77.9067	555.176	77.3791	555.176	77.443	555.176	77.9707	555.176	77.6553	555.176	78.6476	555.176	78.3972	555.176	78.8531
574.219	85.8375	574.219	85.4198	574.219	85.8366	574.219	84.6191	574.219	85.4257	574.219	83.5292	574.219	84.6653	574.219	82.2981	574.219	83.6736	574.219	81.08	574.219	82.5712	574.219	79.982	574.219	81.3999	574.219	79.0386	574.219	80.1567	574.219	78.2105	574.219	78.9296	574.219	77.4391	574.219	77.9423	574.219	76.7458	574.219	77.3875	574.219	76.2775	574.219	77.263	574.219	76.1791	574.219	77.4037	574.219	76.3597	574.219	77.5373	574.219	76.5369	574.219	77.3932	574.219	76.5855	574.219	76.9616	574.219	76.6523	574.219	76.6347	574.219	76.81	574.219	76.7011	574.219	76.86
594.727	87.7664	594.727	87.2528	594.727	87.7175	594.727	86.2224	594.727	87.0925	594.727	84.736	594.727	85.9392	594.727	82.9011	594.727	84.3839	594.727	80.9292	594.727	82.6124	594.727	79.072	594.727	80.7868	594.727	77.416	594.727	78.9587	594.727	75.9183	594.727	77.1366	594.727	74.6786	594.727	75.4586	594.727	73.99	594.727	74.2045	594.727	74.0396	594.727	73.637	594.727	74.5998	594.727	73.9058	594.727	75.3491	594.727	74.868	594.727	76.2577	594.727	76.0739	594.727	77.2966	594.727	77.1647	594.727	78.2093	594.727	78.0218	594.727	78.7646	594.727	78.6172	594.727	78.8905
615.234	88.4113	615.234	87.9208	615.234	88.2724	615.234	86.8297	615.234	87.5443	615.234	85.2416	615.234	86.306	615.234	83.294	615.234	84.647	615.234	81.0761	615.234	82.6795	615.234	78.5921	615.234	80.5713	615.234	75.8956	615.234	78.4486	615.234	73.3977	615.234	76.2929	615.234	71.6836	615.234	74.2428	615.234	70.5747	615.234	72.8596	615.234	69.8251	615.234	72.4473	615.234	70.2275	615.234	72.6397	615.234	71.9831	615.234	73.2782	615.234	73.8564	615.234	74.3694	615.234	75.325	615.234	75.5851	615.234	76.4789	615.234	76.6156	615.234	77.2858	615.234	77.3257	615.234	77.5841
637.207	88.0208	637.207	87.4633	637.207	87.8636	637.207	86.1815	637.207	87.0145	637.207	84.1802	637.207	85.5304	637.207	81.5824	637.207	83.4918	637.207	78.7665	637.207	81.0147	637.207	76.1515	637.207	78.3676	637.207	73.6896	637.207	75.9723	637.207	71.2202	637.207	73.8553	637.207	69.2296	637.207	71.4567	637.207	68.2599	637.207	68.7474	637.207	67.8797	637.207	67.4861	637.207	67.7402	637.207	68.3572	637.207	68.2611	637.207	69.7185	637.207	69.8897	637.207	71.3987	637.207	72.1369	637.207	73.4446	637.207	74.0472	637.207	75.1446	637.207	75.2759	637.207	75.9624	637.207	75.9259
659.18	88.431	659.18	87.7767	659.18	88.2076	659.18	86.233	659.18	87.1111	659.18	83.7791	659.18	85.1547	659.18	80.3837	659.18	82.4089	659.18	76.046	659.18	79.0962	659.18	71.1565	659.18	75.606	659.18	67.2285	659.18	72.1249	659.18	64.9474	659.18	68.6393	659.18	63.2416	659.18	66.0583	659.18	62.5937	659.18	65.0033	659.18	63.8787	659.18	64.5372	659.18	66.2732	659.18	65.0879	659.18	68.7977	659.18	68.3742	659.18	71.3448	659.18	72.2959	659.18	74.0302	659.18	75.0884	659.18	76.5451	659.18	76.9053	659.18	78.2051	659.18	78.1254	659.18	78.6769
682.617	90.9127	682.617	90.3606	682.617	90.7036	682.617	89.0415	682.617	89.7265	682.617	86.9081	682.617	87.9696	682.617	83.8719	682.617	85.4126	682.617	79.8792	682.617	82.0554	682.617	74.9977	682.617	77.9946	682.617	69.203	682.617	73.3451	682.617	62.9536	682.617	67.8919	682.617	62.4517	682.617	62.871	682.617	64.984	682.617	63.2665	682.617	67.4138	682.617	65.4766	682.617	70.227	682.617	68.2962	682.617	73.1833	682.617	71.84	682.617	75.833	682.617	74.928	682.617	77.9223	682.617	77.1891	682.617	79.3603	682.617	78.8299	682.617	80.1779	682.617	79.9256	682.617	80.3853
707.52	90.3248	707.52	89.5592	707.52	90.2387	707.52	87.966	707.52	89.3102	707.52	85.5887	707.52	87.5748	707.52	82.4071	707.52	85.1089	707.52	78.089	707.52	82.035	707.52	71.0657	707.52	78.4122	707.52	48.6316	707.52	74.0658	707.52	67.7255	707.52	68.7675	707.52	70.6331	707.52	62.4528	707.52	71.0693	707.52	51.537	707.52	70.7193	707.52	47.2502	707.52	69.6032	707.52	55.8782	707.52	68.8655	707.52	64.8642	707.52	70.4323	707.52	71.1053	707.52	73.1282	707.52	75.2167	707.52	75.2809	707.52	77.5576	707.52	76.806	707.52	78.3298	707.52	77.912
732.422	90.0867	732.422	89.697	732.422	89.6745	732.422	88.4327	732.422	88.5565	732.422	86.2778	732.422	86.8096	732.422	83.3247	732.422	84.3792	732.422	79.776	732.422	80.9395	732.422	75.7044	732.422	75.8472	732.422	70.5363	732.422	67.9087	732.422	62.8526	732.422	56.5786	732.422	58.3981	732.422	62.4665	732.422	64.0816	732.422	64.6443	732.422	66.9321	732.422	64.6196	732.422	66.5064	732.422	64.4219	732.422	62.7817	732.422	64.346	732.422	64.1451	732.422	64.7152	732.422	70.3853	732.422	67.6089	732.422	74.2622	732.422	71.8552	732.422	76.1691	732.422	74.9822	732.422	76.4006
757.324	90.0912	757.324	89.3121	757.324	89.8809	757.324	87.6219	757.324	88.6324	757.324	85.083	757.324	86.3502	757.324	81.7069	757.324	83.1966	757.324	77.867	757.324	79.6772	757.324	74.9288	757.324	76.1708	757.324	72.736	757.324	71.6436	757.324	70.1106	757.324	63.1366	757.324	67.9257	757.324	59.2215	757.324	66.0851	757.324	65.965	757.324	64.4753	757.324	68.4848	757.324	65.2436	757.324	68.6139	757.324	66.9701	757.324	65.8538	757.324	66.1294	757.324	62.6006	757.324	66.4234	757.324	68.6064	757.324	73.5655	757.324	74.3869	757.324	77.6736	757.324	77.8678	757.324	78.9772
785.156	89.5254	785.156	88.5429	785.156	89.3834	785.156	86.318	785.156	88.0908	785.156	82.7173	785.156	85.5451	785.156	77.4896	785.156	81.8036	785.156	69.0823	785.156	77.3089	785.156	69.2027	785.156	73.0962	785.156	74.2121	785.156	70.4626	785.156	75.6974	785.156	68.2707	785.156	75.8971	785.156	64.7277	785.156	75.3037	785.156	60.0569	785.156	73.8421	785.156	58.1181	785.156	71.9754	785.156	56.6505	785.156	70.0901	785.156	44.0007	785.156	68.5879	785.156	62.2692	785.156	69.0375	785.156	68.3928	785.156	71.9292	785.156	72.6068	785.156	75.1334	785.156	75.5558	785.156	76.5283
811.523	89.9653	811.523	89.0906	811.523	89.6602	811.523	86.9607	811.523	88.284	811.523	83.4905	811.523	85.8682	811.523	78.5867	811.523	82.1346	811.523	73.2165	811.523	76.4395	811.523	71.9676	811.523	70.2128	811.523	73.3969	811.523	69.9683	811.523	73.9593	811.523	69.7671	811.523	73.3009	811.523	67.7249	811.523	72.4672	811.523	63.8976	811.523	72.7651	811.523	60.4719	811.523	73.2036	811.523	58.2094	811.523	72.8692	811.523	52.7603	811.523	71.5777	811.523	56.658	811.523	70.1002	811.523	67.8348	811.523	71.6969	811.523	73.3951	811.523	74.7407	811.523	75.9423	811.523	76.312
840.82	89.0456	840.82	88.0425	840.82	88.729	840.82	85.4514	840.82	87.1457	840.82	80.8422	840.82	84.1404	840.82	73.8568	840.82	79.3569	840.82	69.8776	840.82	72.6952	840.82	73.2516	840.82	68.3888	840.82	75.6461	840.82	69.0442	840.82	76.6656	840.82	69.7173	840.82	76.4691	840.82	70.3518	840.82	75.6033	840.82	72.1563	840.82	74.5977	840.82	73.406	840.82	73.067	840.82	74.518	840.82	70.0018	840.82	75.3094	840.82	62.7566	840.82	73.8375	840.82	57.4233	840.82	69.6958	840.82	69.8384	840.82	71.1638	840.82	75.3316	840.82	76.1416	840.82	77.5779
870.117	90.3686	870.117	89.4448	870.117	90.0745	870.117	87.0258	870.117	88.5882	870.117	82.3599	870.117	85.8259	870.117	72.5077	870.117	81.572	870.117	68.5929	870.117	75.3989	870.117	76.7004	870.117	71.4693	870.117	78.6043	870.117	72.7358	870.117	77.9831	870.117	72.8318	870.117	76.2202	870.117	72.3871	870.117	74.4421	870.117	70.5447	870.117	72.0802	870.117	66.7057	870.117	69.728	870.117	63.8956	870.117	69.6514	870.117	63.9551	870.117	68.9443	870.117	63.2112	870.117	68.5642	870.117	56.9939	870.117	73.2852	870.117	63.1031	870.117	76.1574	870.117	72.5575	870.117	76.0008
900.879	89.0036	900.879	87.8824	900.879	88.8346	900.879	85.2989	900.879	87.2405	900.879	80.6256	900.879	83.9164	900.879	72.4159	900.879	78.3648	900.879	60.1192	900.879	70.2269	900.879	68.3305	900.879	70.5492	900.879	73.1723	900.879	74.0288	900.879	75.2824	900.879	74.8495	900.879	75.6377	900.879	75.3487	900.879	74.9118	900.879	76.1015	900.879	74.3487	900.879	74.8292	900.879	73.7768	900.879	72.9368	900.879	71.8446	900.879	73.1763	900.879	67.354	900.879	71.2548	900.879	58.0549	900.879	63.6469	900.879	69.5775	900.879	63.288	900.879	75.0515	900.879	72.9151	900.879	76.106
933.105	89.2363	933.105	87.9371	933.105	88.918	933.105	84.8178	933.105	86.9099	933.105	78.5953	933.105	83.2055	933.105	59.424	933.105	77.9307	933.105	75.2452	933.105	71.3499	933.105	78.8486	933.105	70.6182	933.105	79.8707	933.105	73.1092	933.105	79.6045	933.105	74.22	933.105	78.3895	933.105	73.9439	933.105	76.8465	933.105	71.788	933.105	74.5182	933.105	70.461	933.105	69.8203	933.105	69.629	933.105	61.9834	933.105	65.6609	933.105	58.8612	933.105	65.3073	933.105	55.1843	933.105	63.6709	933.105	70.5192	933.105	70.3567	933.105	75.8788	933.105	75.5396	933.105	77.2773
965.332	88.6502	965.332	87.6424	965.332	88.1556	965.332	84.9566	965.332	86.1031	965.332	80.074	965.332	82.143	965.332	70.8056	965.332	75.3604	965.332	65.4296	965.332	68.7385	965.332	73.0404	965.332	74.2036	965.332	75.5939	965.332	76.5824	965.332	77.4676	965.332	76.5006	965.332	77.9971	965.332	76.1034	965.332	77.4241	965.332	75.936	965.332	76.9589	965.332	73.0528	965.332	75.5474	965.332	67.3262	965.332	74.5268	965.332	68.2482	965.332	74.2157	965.332	66.9647	965.332	69.9408	965.332	59.7014	965.332	59.4098	965.332	62.4437	965.332	73.2773	965.332	71.9484	965.332	75.1234
1,000.49	88.1323	1,000.49	86.928	1,000.49	87.6629	1,000.49	83.9474	1,000.49	85.4404	1,000.49	78.2417	1,000.49	80.9068	1,000.49	63.3848	1,000.49	71.5024	1,000.49	71.3063	1,000.49	70.4277	1,000.49	76.0222	1,000.49	75.9259	1,000.49	77.1679	1,000.49	77.5496	1,000.49	76.7373	1,000.49	77.9446	1,000.49	76.9786	1,000.49	77.3108	1,000.49	77.3953	1,000.49	75.7372	1,000.49	75.9224	1,000.49	73.9857	1,000.49	73.2217	1,000.49	70.2411	1,000.49	72.6933	1,000.49	60.9364	1,000.49	71.7223	1,000.49	69.5885	1,000.49	67.2045	1,000.49	69.5103	1,000.49	55.9648	1,000.49	52.5369	1,000.49	70.4814	1,000.49	70.4233	1,000.49	73.6782
1,035.64	87.5557	1,035.64	86.3788	1,035.64	87.1992	1,035.64	83.5276	1,035.64	85.0079	1,035.64	78.2072	1,035.64	80.4929	1,035.64	70.1113	1,035.64	72.6202	1,035.64	73.883	1,035.64	53.1475	1,035.64	77.3191	1,035.64	72.4371	1,035.64	78.4042	1,035.64	76.0813	1,035.64	78.2054	1,035.64	76.3654	1,035.64	77.3972	1,035.64	75.2646	1,035.64	76.0977	1,035.64	73.9563	1,035.64	74.2822	1,035.64	72.7054	1,035.64	70.8503	1,035.64	69.8905	1,035.64	67.3906	1,035.64	65.6444	1,035.64	69.7622	1,035.64	66.0677	1,035.64	68.2687	1,035.64	60.919	1,035.64	60.5195	1,035.64	63.8127	1,035.64	74.585	1,035.64	73.9748	1,035.64	77.291
1,072.27	84.3174	1,072.27	83.0145	1,072.27	83.8941	1,072.27	80.2921	1,072.27	82.0679	1,072.27	76.4181	1,072.27	78.8075	1,072.27	70.6707	1,072.27	72.6584	1,072.27	66.6371	1,072.27	58.3991	1,072.27	69.4841	1,072.27	69.1222	1,072.27	72.7108	1,072.27	73.5887	1,072.27	74.509	1,072.27	76.0763	1,072.27	75.342	1,072.27	76.7314	1,072.27	76.5178	1,072.27	76.0994	1,072.27	76.8736	1,072.27	75.3959	1,072.27	74.3334	1,072.27	73.234	1,072.27	68.9527	1,072.27	64.0438	1,072.27	69.2532	1,072.27	65.1417	1,072.27	68.4608	1,072.27	68.9181	1,072.27	63.2506	1,072.27	64.4561	1,072.27	68.5351	1,072.27	66.0696	1,072.27	69.7207
1,108.89	83.9215	1,108.89	83.9815	1,108.89	83.2197	1,108.89	83.1853	1,108.89	81.7676	1,108.89	80.9539	1,108.89	79.1238	1,108.89	75.8625	1,108.89	76.4509	1,108.89	67.2733	1,108.89	74.1171	1,108.89	59.272	1,108.89	68.5909	1,108.89	70.0799	1,108.89	68.7035	1,108.89	73.1444	1,108.89	72.1766	1,108.89	74.6502	1,108.89	73.1307	1,108.89	75.2799	1,108.89	72.8759	1,108.89	73.9036	1,108.89	72.4763	1,108.89	71.2474	1,108.89	71.0287	1,108.89	66.6732	1,108.89	66.8798	1,108.89	62.1651	1,108.89	62.4887	1,108.89	57.6944	1,108.89	67.8816	1,108.89	63.0019	1,108.89	71.3124	1,108.89	72.972	1,108.89	73.7437	1,108.89	75.6606
1,148.44	84.5202	1,148.44	83.7585	1,148.44	83.4889	1,148.44	81.489	1,148.44	80.8133	1,148.44	78.1047	1,148.44	77.1553	1,148.44	73.5903	1,148.44	74.2518	1,148.44	71.4996	1,148.44	74.6983	1,148.44	72.6332	1,148.44	75.0936	1,148.44	70.233	1,148.44	73.9867	1,148.44	68.6598	1,148.44	73.2313	1,148.44	70.1881	1,148.44	74.5413	1,148.44	71.5009	1,148.44	75.3851	1,148.44	72.9991	1,148.44	75.696	1,148.44	71.6003	1,148.44	76.1523	1,148.44	65.4387	1,148.44	75.1279	1,148.44	47.5552	1,148.44	71.4546	1,148.44	57.4587	1,148.44	69.9931	1,148.44	63.6683	1,148.44	71.8399	1,148.44	71.9615	1,148.44	71.9004	1,148.44	72.3362
1,189.45	86.2938	1,189.45	85.2621	1,189.45	85.274	1,189.45	82.1538	1,189.45	82.579	1,189.45	78.3694	1,189.45	77.7879	1,189.45	76.0093	1,189.45	75.5442	1,189.45	76.2033	1,189.45	78.4224	1,189.45	76.0475	1,189.45	78.7109	1,189.45	73.6604	1,189.45	77.8951	1,189.45	72.1473	1,189.45	76.714	1,189.45	71.3717	1,189.45	75.1077	1,189.45	72.6318	1,189.45	74.4297	1,189.45	73.7793	1,189.45	75.3014	1,189.45	73.6065	1,189.45	76.5817	1,189.45	70.7619	1,189.45	76.0498	1,189.45	67.178	1,189.45	72.8907	1,189.45	65.2284	1,189.45	70.3272	1,189.45	60.8125	1,189.45	69.1507	1,189.45	65.0161	1,189.45	67.2975	1,189.45	66.7889
1,230.47	86.4793	1,230.47	85.1686	1,230.47	85.7053	1,230.47	81.3354	1,230.47	82.5337	1,230.47	75.4096	1,230.47	76.7541	1,230.47	74.8488	1,230.47	74.1343	1,230.47	76.882	1,230.47	77.4939	1,230.47	77.7883	1,230.47	78.2633	1,230.47	76.0659	1,230.47	77.1126	1,230.47	73.0277	1,230.47	74.4309	1,230.47	69.0262	1,230.47	71.5479	1,230.47	69.5703	1,230.47	71.0067	1,230.47	72.012	1,230.47	72.9345	1,230.47	73.2526	1,230.47	75.2322	1,230.47	71.03	1,230.47	76.4767	1,230.47	64.5071	1,230.47	73.6471	1,230.47	60.9416	1,230.47	71.3946	1,230.47	62.9255	1,230.47	65.8779	1,230.47	71.5698	1,230.47	68.3742	1,230.47	72.4226
1,274.41	85.6063	1,274.41	84.6451	1,274.41	84.4792	1,274.41	80.5949	1,274.41	81.1058	1,274.41	73.6659	1,274.41	74.9358	1,274.41	74.9119	1,274.41	72.3536	1,274.41	77.1799	1,274.41	75.5038	1,274.41	77.4965	1,274.41	76.4319	1,274.41	76.1355	1,274.41	75.8402	1,274.41	74.5182	1,274.41	74.4669	1,274.41	73.8861	1,274.41	73.0471	1,274.41	73.4241	1,274.41	73.8638	1,274.41	74.2038	1,274.41	74.6809	1,274.41	74.3492	1,274.41	74.9619	1,274.41	71.5535	1,274.41	74.2556	1,274.41	65.4052	1,274.41	71.0071	1,274.41	56.8916	1,274.41	66.6273	1,274.41	54.8834	1,274.41	58.4191	1,274.41	68.9439	1,274.41	67.0948	1,274.41	71.5802
1,319.82	84.8442	1,319.82	83.1095	1,319.82	84.2478	1,319.82	79.0275	1,319.82	80.9652	1,319.82	75.4836	1,319.82	73.6247	1,319.82	77.4829	1,319.82	71.9908	1,319.82	78.0173	1,319.82	75.7954	1,319.82	78.4443	1,319.82	76.7838	1,319.82	76.8026	1,319.82	75.1822	1,319.82	73.4219	1,319.82	71.2202	1,319.82	70.7897	1,319.82	67.9738	1,319.82	63.801	1,319.82	69.7792	1,319.82	68.9162	1,319.82	71.9696	1,319.82	71.8173	1,319.82	74.8547	1,319.82	69.8644	1,319.82	74.7878	1,319.82	66.3855	1,319.82	73.0107	1,319.82	64.9217	1,319.82	71.9334	1,319.82	66.7535	1,319.82	66.3166	1,319.82	64.8826	1,319.82	65.491	1,319.82	70.4833
1,366.7	85.4472	1,366.7	83.3916	1,366.7	84.7384	1,366.7	77.7664	1,366.7	81.3351	1,366.7	70.3999	1,366.7	75.9541	1,366.7	76.9653	1,366.7	75.3374	1,366.7	78.6513	1,366.7	76.8611	1,366.7	78.5085	1,366.7	76.5186	1,366.7	76.5861	1,366.7	75.31	1,366.7	75.774	1,366.7	74.1119	1,366.7	73.8509	1,366.7	71.875	1,366.7	70.126	1,366.7	63.4267	1,366.7	64.9925	1,366.7	69.5427	1,366.7	68.6236	1,366.7	73.7817	1,366.7	71.6619	1,366.7	75.2618	1,366.7	68.8654	1,366.7	72.5674	1,366.7	54.0528	1,366.7	71.1138	1,366.7	62.3142	1,366.7	66.243	1,366.7	69.5655	1,366.7	65.67	1,366.7	71.8236
1,413.57	86.521	1,413.57	84.0626	1,413.57	85.1411	1,413.57	77.9889	1,413.57	81.0887	1,413.57	71.3001	1,413.57	76.985	1,413.57	77.1462	1,413.57	78.2901	1,413.57	77.988	1,413.57	79.3175	1,413.57	76.553	1,413.57	78.0281	1,413.57	76.7271	1,413.57	76.254	1,413.57	75.1511	1,413.57	75.1635	1,413.57	74.1891	1,413.57	74.3977	1,413.57	72.1517	1,413.57	71.539	1,413.57	68.7969	1,413.57	62.8837	1,413.57	70.1633	1,413.57	67.1241	1,413.57	71.0972	1,413.57	70.3142	1,413.57	68.7405	1,413.57	69.3598	1,413.57	64.3174	1,413.57	66.0154	1,413.57	67.3054	1,413.57	61.1823	1,413.57	72.3966	1,413.57	67.5283	1,413.57	71.8225
1,463.38	86.716	1,463.38	84.8619	1,463.38	84.9814	1,463.38	78.4967	1,463.38	78.9609	1,463.38	65.1148	1,463.38	72.3584	1,463.38	74.8478	1,463.38	78.2633	1,463.38	76.7893	1,463.38	78.6449	1,463.38	75.6688	1,463.38	76.7082	1,463.38	74.8394	1,463.38	75.311	1,463.38	70.8192	1,463.38	73.2153	1,463.38	68.2365	1,463.38	72.7453	1,463.38	69.0901	1,463.38	72.4455	1,463.38	66.1043	1,463.38	71.9003	1,463.38	69.0352	1,463.38	70.8453	1,463.38	70.3494	1,463.38	67.4344	1,463.38	69.552	1,463.38	66.691	1,463.38	67.4236	1,463.38	61.9604	1,463.38	65.9572	1,463.38	65.2115	1,463.38	69.6442	1,463.38	61.4121	1,463.38	67.4912
1,516.11	86.4557	1,516.11	84.8079	1,516.11	85.2288	1,516.11	78.8572	1,516.11	79.2166	1,516.11	63.0078	1,516.11	69.0365	1,516.11	75.614	1,516.11	75.1054	1,516.11	78.126	1,516.11	77.3211	1,516.11	77.1064	1,516.11	77.8177	1,516.11	75.5583	1,516.11	77.3699	1,516.11	74.3882	1,516.11	76.0639	1,516.11	74.0658	1,516.11	73.8172	1,516.11	75.0222	1,516.11	73.4241	1,516.11	73.4827	1,516.11	73.1989	1,516.11	71.7279	1,516.11	72.5628	1,516.11	72.3257	1,516.11	71.0598	1,516.11	70.8438	1,516.11	71.5152	1,516.11	67.0915	1,516.11	69.114	1,516.11	61.7836	1,516.11	68.4525	1,516.11	71.5848	1,516.11	66.7138	1,516.11	72.7871
1,568.85	86.3874	1,568.85	84.855	1,568.85	85.405	1,568.85	80.2385	1,568.85	79.8903	1,568.85	71.8148	1,568.85	70.7645	1,568.85	76.8582	1,568.85	73.8919	1,568.85	78.5617	1,568.85	76.7447	1,568.85	77.0474	1,568.85	77.3462	1,568.85	73.344	1,568.85	76.5267	1,568.85	72.4852	1,568.85	73.3951	1,568.85	70.9542	1,568.85	71.844	1,568.85	72.3738	1,568.85	72.4839	1,568.85	73.6474	1,568.85	72.1134	1,568.85	71.4471	1,568.85	69.6338	1,568.85	71.7212	1,568.85	68.3663	1,568.85	72.5453	1,568.85	68.8708	1,568.85	70.2426	1,568.85	64.1282	1,568.85	55.8041	1,568.85	64.6938	1,568.85	72.8467	1,568.85	62.8608	1,568.85	72.7299
1,624.51	84.9146	1,624.51	83.637	1,624.51	83.9633	1,624.51	79.0903	1,624.51	79.7773	1,624.51	71.7241	1,624.51	68.3625	1,624.51	72.8501	1,624.51	74.5879	1,624.51	74.9608	1,624.51	78.1551	1,624.51	75.3257	1,624.51	77.4067	1,624.51	73.8935	1,624.51	72.7601	1,624.51	67.9222	1,624.51	69.75	1,624.51	66.1661	1,624.51	68.2576	1,624.51	69.4678	1,624.51	71.5212	1,624.51	71.5933	1,624.51	72.0284	1,624.51	70.2088	1,624.51	71.6071	1,624.51	72.7642	1,624.51	70.1566	1,624.51	71.4775	1,624.51	67.901	1,624.51	70.2177	1,624.51	64.65	1,624.51	65.2938	1,624.51	57.8616	1,624.51	70.5114	1,624.51	62.2691	1,624.51	72.1197
1,681.64	84.9283	1,681.64	82.4778	1,681.64	83.8789	1,681.64	77.6295	1,681.64	80.4002	1,681.64	70.9683	1,681.64	72.6581	1,681.64	76.5247	1,681.64	71.1372	1,681.64	79.5519	1,681.64	76.5525	1,681.64	79.1141	1,681.64	76.0245	1,681.64	77.2198	1,681.64	75.2286	1,681.64	70.4528	1,681.64	74.1145	1,681.64	69.2622	1,681.64	69.6983	1,681.64	48.4286	1,681.64	64.7471	1,681.64	66.8374	1,681.64	71.2021	1,681.64	70.8523	1,681.64	75.4725	1,681.64	69.7179	1,681.64	72.7432	1,681.64	73.4943	1,681.64	71.7962	1,681.64	69.3677	1,681.64	68.4638	1,681.64	65.4873	1,681.64	61.6625	1,681.64	65.3728	1,681.64	56.9236	1,681.64	69.2634
1,741.7	86.0872	1,741.7	84.1673	1,741.7	85.6445	1,741.7	81.5875	1,741.7	82.6819	1,741.7	78.7467	1,741.7	79.8054	1,741.7	79.8097	1,741.7	77.3339	1,741.7	80.9038	1,741.7	77.8843	1,741.7	80.6843	1,741.7	77.0943	1,741.7	78.343	1,741.7	75.6165	1,741.7	75.6651	1,741.7	75.6283	1,741.7	70.9188	1,741.7	73.8063	1,741.7	63.6757	1,741.7	66.7431	1,741.7	70.3622	1,741.7	69.4717	1,741.7	71.1159	1,741.7	74.7664	1,741.7	70.7238	1,741.7	72.9128	1,741.7	73.5238	1,741.7	70.3357	1,741.7	70.4525	1,741.7	72.3276	1,741.7	71.5863	1,741.7	57.7523	1,741.7	72.4703	1,741.7	62.1343	1,741.7	71.7139
1,803.22	86.1267	1,803.22	84.8579	1,803.22	84.888	1,803.22	82.0509	1,803.22	82.147	1,803.22	80.5582	1,803.22	81.2455	1,803.22	79.9912	1,803.22	78.9102	1,803.22	78.3524	1,803.22	77.907	1,803.22	75.7729	1,803.22	74.3289	1,803.22	73.5131	1,803.22	73.1257	1,803.22	72.7882	1,803.22	72.3819	1,803.22	70.2011	1,803.22	71.6854	1,803.22	66.7692	1,803.22	67.7822	1,803.22	65.5015	1,803.22	61.9312	1,803.22	72.396	1,803.22	72.4617	1,803.22	68.3165	1,803.22	70.3551	1,803.22	68.7472	1,803.22	73.1336	1,803.22	70.849	1,803.22	69.4044	1,803.22	68.0995	1,803.22	68.6196	1,803.22	67.7462	1,803.22	66.5201	1,803.22	71.8184
1,866.21	86.3399	1,866.21	84.3432	1,866.21	85.2649	1,866.21	78.4016	1,866.21	79.4183	1,866.21	80.7984	1,866.21	80.4293	1,866.21	80.883	1,866.21	79.7325	1,866.21	77.7593	1,866.21	80.3943	1,866.21	75.678	1,866.21	77.4699	1,866.21	74.7965	1,866.21	77.1139	1,866.21	73.8754	1,866.21	73.2583	1,866.21	74.263	1,866.21	71.5029	1,866.21	71.8642	1,866.21	70.6966	1,866.21	66.2116	1,866.21	64.4323	1,866.21	64.5183	1,866.21	67.9344	1,866.21	68.6822	1,866.21	66.0208	1,866.21	72.9376	1,866.21	63.2387	1,866.21	73.6013	1,866.21	70.946	1,866.21	69.3862	1,866.21	65.1485	1,866.21	63.8464	1,866.21	66.1761	1,866.21	66.6778
1,932.13	84.6862	1,932.13	83.0096	1,932.13	83.2937	1,932.13	76.5071	1,932.13	75.0224	1,932.13	79.0886	1,932.13	77.1476	1,932.13	78.8435	1,932.13	80.6566	1,932.13	78.7798	1,932.13	80.9436	1,932.13	76.8079	1,932.13	77.0695	1,932.13	75.439	1,932.13	74.6392	1,932.13	76.7442	1,932.13	72.6858	1,932.13	78.5591	1,932.13	75.6719	1,932.13	75.1586	1,932.13	76.2471	1,932.13	70.3397	1,932.13	68.1377	1,932.13	70.0832	1,932.13	63.5636	1,932.13	60.1794	1,932.13	69.6921	1,932.13	74.0269	1,932.13	63.0444	1,932.13	74.9617	1,932.13	75.3364	1,932.13	72.7608	1,932.13	66.8947	1,932.13	66.5603	1,932.13	63.9226	1,932.13	60.2518
1,999.51	87.0414	1,999.51	85.0662	1,999.51	85.9554	1,999.51	77.5341	1,999.51	80.2732	1,999.51	75.7908	1,999.51	74.7326	1,999.51	80.897	1,999.51	80.8561	1,999.51	81.4057	1,999.51	82.2651	1,999.51	80.3372	1,999.51	80.5968	1,999.51	78.3459	1,999.51	77.9855	1,999.51	75.9461	1,999.51	76.6455	1,999.51	74.1141	1,999.51	74.7264	1,999.51	72.2229	1,999.51	74.2172	1,999.51	65.4105	1,999.51	70.6115	1,999.51	71.5223	1,999.51	68.0714	1,999.51	71.4357	1,999.51	73.5555	1,999.51	69.3717	1,999.51	67.849	1,999.51	70.2015	1,999.51	70.8623	1,999.51	67.8514	1,999.51	65.5764	1,999.51	67.2922	1,999.51	62.6397	1,999.51	69.6306
2,069.82	87.2959	2,069.82	86.7916	2,069.82	86.2598	2,069.82	83.1322	2,069.82	84.1012	2,069.82	80.5262	2,069.82	79.0175	2,069.82	81.9207	2,069.82	80.6787	2,069.82	80.1348	2,069.82	82.0513	2,069.82	78.1629	2,069.82	80.1581	2,069.82	78.6591	2,069.82	77.9635	2,069.82	77.6361	2,069.82	76.0802	2,069.82	75.7569	2,069.82	75.3748	2,069.82	75.8737	2,069.82	74.8706	2,069.82	73.4625	2,069.82	73.7065	2,069.82	68.9729	2,069.82	72.6522	2,069.82	74.9401	2,069.82	75.9036	2,069.82	69.0836	2,069.82	73.1496	2,069.82	68.3366	2,069.82	72.8837	2,069.82	69.8957	2,069.82	69.1455	2,069.82	67.3234	2,069.82	60.3832	2,069.82	72.7726
2,143.07	87.3599	2,143.07	85.4597	2,143.07	85.9643	2,143.07	82.6717	2,143.07	82.5946	2,143.07	80.9907	2,143.07	80.7741	2,143.07	81.1419	2,143.07	79.3545	2,143.07	81.3762	2,143.07	77.3926	2,143.07	80.0493	2,143.07	79.8796	2,143.07	78.8254	2,143.07	79.4014	2,143.07	77.3203	2,143.07	76.9838	2,143.07	75.7005	2,143.07	76.7395	2,143.07	74.5108	2,143.07	74.1779	2,143.07	75.592	2,143.07	72.8764	2,143.07	71.8177	2,143.07	71.4265	2,143.07	75.2325	2,143.07	74.2548	2,143.07	73.3348	2,143.07	74.8066	2,143.07	69.6003	2,143.07	72.2656	2,143.07	64.0934	2,143.07	67.0658	2,143.07	67.5192	2,143.07	53.7693	2,143.07	69.0232
2,219.24	87.8249	2,219.24	84.4717	2,219.24	86.6437	2,219.24	77.9091	2,219.24	80.0385	2,219.24	81.2948	2,219.24	79.364	2,219.24	83.2281	2,219.24	82.654	2,219.24	83.296	2,219.24	82.6558	2,219.24	82.7335	2,219.24	80.7129	2,219.24	78.931	2,219.24	79.7051	2,219.24	78.0197	2,219.24	76.313	2,219.24	74.4021	2,219.24	74.1071	2,219.24	69.2506	2,219.24	71.8593	2,219.24	72.3017	2,219.24	70.7988	2,219.24	72.1326	2,219.24	68.4317	2,219.24	74.2112	2,219.24	71.5933	2,219.24	73.2746	2,219.24	70.0204	2,219.24	72.9811	2,219.24	70.2116	2,219.24	66.1116	2,219.24	56.5231	2,219.24	62.631	2,219.24	64.2813	2,219.24	65.6522
2,296.88	86.9843	2,296.88	85.486	2,296.88	86.1085	2,296.88	80.1038	2,296.88	82.0866	2,296.88	80.4242	2,296.88	79.7711	2,296.88	83.6418	2,296.88	83.4229	2,296.88	82.4682	2,296.88	82.2818	2,296.88	82.5338	2,296.88	81.4099	2,296.88	81.8358	2,296.88	80.9822	2,296.88	78.3264	2,296.88	79.8538	2,296.88	76.0748	2,296.88	77.0679	2,296.88	74.549	2,296.88	73.6597	2,296.88	72.1362	2,296.88	72.6764	2,296.88	70.4268	2,296.88	70.748	2,296.88	73.0758	2,296.88	72.6385	2,296.88	72.931	2,296.88	73.371	2,296.88	70.6464	2,296.88	72.6954	2,296.88	64.1304	2,296.88	64.2864	2,296.88	55.8035	2,296.88	65.9112	2,296.88	69.8486
2,378.91	86.0866	2,378.91	84.969	2,378.91	85.8887	2,378.91	80.7988	2,378.91	81.766	2,378.91	80.3883	2,378.91	75.8116	2,378.91	82.162	2,378.91	80.6839	2,378.91	81.8689	2,378.91	82.3996	2,378.91	82.8051	2,378.91	83.0538	2,378.91	82.5768	2,378.91	82.7774	2,378.91	80.2943	2,378.91	80.6613	2,378.91	78.0008	2,378.91	77.0322	2,378.91	75.6547	2,378.91	73.8858	2,378.91	73.2648	2,378.91	71.0677	2,378.91	73.1731	2,378.91	74.5344	2,378.91	71.814	2,378.91	70.6533	2,378.91	74.0823	2,378.91	73.9723	2,378.91	72.537	2,378.91	72.6939	2,378.91	60.3318	2,378.91	66.7901	2,378.91	61.0567	2,378.91	59.7702	2,378.91	70.3379
2,462.4	87.0767	2,462.4	85.6302	2,462.4	85.9265	2,462.4	79.9272	2,462.4	82.3342	2,462.4	75.8299	2,462.4	76.6891	2,462.4	79.2436	2,462.4	77.5975	2,462.4	83.9071	2,462.4	81.7744	2,462.4	83.539	2,462.4	83.1588	2,462.4	82.6279	2,462.4	82.8614	2,462.4	80.271	2,462.4	80.7774	2,462.4	77.5593	2,462.4	79.169	2,462.4	75.5425	2,462.4	77.082	2,462.4	73.8161	2,462.4	73.4479	2,462.4	75.7217	2,462.4	74.3039	2,462.4	74.4464	2,462.4	73.1252	2,462.4	73.91	2,462.4	74.5959	2,462.4	72.891	2,462.4	71.2156	2,462.4	63.6336	2,462.4	67.1868	2,462.4	58.4492	2,462.4	57.5908	2,462.4	70.4439
2,548.83	88.7056	2,548.83	85.4811	2,548.83	86.417	2,548.83	77.8382	2,548.83	80.8288	2,548.83	77.7909	2,548.83	77.7635	2,548.83	81.7715	2,548.83	81.3688	2,548.83	84.0433	2,548.83	83.2355	2,548.83	82.7692	2,548.83	83.7576	2,548.83	81.6779	2,548.83	82.2132	2,548.83	77.1882	2,548.83	79.6956	2,548.83	76.0494	2,548.83	77.2156	2,548.83	73.5302	2,548.83	76.7625	2,548.83	71.7472	2,548.83	74.7854	2,548.83	72.8014	2,548.83	73.0418	2,548.83	72.3238	2,548.83	73.8262	2,548.83	73.0492	2,548.83	76.2525	2,548.83	72.6766	2,548.83	72.5109	2,548.83	67.1121	2,548.83	68.5198	2,548.83	63.8289	2,548.83	53.5336	2,548.83	68.5172
2,639.65	86.9989	2,639.65	83.5586	2,639.65	86.7085	2,639.65	80.104	2,639.65	80.1037	2,639.65	78.3484	2,639.65	73.8898	2,639.65	81.0033	2,639.65	79.7943	2,639.65	83.9529	2,639.65	84.3914	2,639.65	84.0161	2,639.65	84.3318	2,639.65	82.6511	2,639.65	82.7287	2,639.65	81.2902	2,639.65	79.6373	2,639.65	76.9157	2,639.65	75.2773	2,639.65	75.2592	2,639.65	72.8176	2,639.65	73.9511	2,639.65	73.5484	2,639.65	74.561	2,639.65	72.4235	2,639.65	73.2237	2,639.65	70.39	2,639.65	74.2412	2,639.65	74.7419	2,639.65	73.5129	2,639.65	70.1134	2,639.65	65.9476	2,639.65	70.189	2,639.65	63.2845	2,639.65	58.9358	2,639.65	70.4686
2,731.93	85.7276	2,731.93	84.2966	2,731.93	85.2787	2,731.93	79.0207	2,731.93	81.6525	2,731.93	77.3692	2,731.93	75.5992	2,731.93	80.8659	2,731.93	78.2445	2,731.93	84.628	2,731.93	83.2025	2,731.93	85.4284	2,731.93	85.0892	2,731.93	82.7041	2,731.93	83.7813	2,731.93	80.9884	2,731.93	82.452	2,731.93	76.5585	2,731.93	78.5469	2,731.93	75.5445	2,731.93	74.435	2,731.93	73.4763	2,731.93	71.6608	2,731.93	74.655	2,731.93	73.4264	2,731.93	73.5114	2,731.93	74.3115	2,731.93	74.4428	2,731.93	74.8351	2,731.93	72.6126	2,731.93	71.7819	2,731.93	59.0241	2,731.93	69.6105	2,731.93	50.7155	2,731.93	64.8975	2,731.93	70.2306
2,828.61	85.8837	2,828.61	84.9994	2,828.61	85.5149	2,828.61	80.1448	2,828.61	82.2706	2,828.61	74.0786	2,828.61	77.6617	2,828.61	81.4767	2,828.61	78.8369	2,828.61	85.7727	2,828.61	83.9682	2,828.61	86.1809	2,828.61	85.6074	2,828.61	83.2872	2,828.61	84.9077	2,828.61	82.2232	2,828.61	82.3752	2,828.61	78.0097	2,828.61	79.7928	2,828.61	73.9004	2,828.61	75.4605	2,828.61	74.7474	2,828.61	72.0267	2,828.61	72.4698	2,828.61	73.2898	2,828.61	74.6338	2,828.61	76.1078	2,828.61	76.4119	2,828.61	75.217	2,828.61	70.416	2,828.61	73.1106	2,828.61	56.2613	2,828.61	67.7536	2,828.61	60.5393	2,828.61	67.4951	2,828.61	72.995
2,928.22	85.5183	2,928.22	84.0062	2,928.22	84.8002	2,928.22	80.4699	2,928.22	82.1942	2,928.22	78.2344	2,928.22	78.8465	2,928.22	81.4021	2,928.22	80.1649	2,928.22	84.9533	2,928.22	83.3027	2,928.22	85.8516	2,928.22	84.3053	2,928.22	84.1002	2,928.22	83.128	2,928.22	82.271	2,928.22	80.5946	2,928.22	78.036	2,928.22	77.1272	2,928.22	77.1189	2,928.22	74.4757	2,928.22	74.8804	2,928.22	73.7617	2,928.22	73.063	2,928.22	71.7192	2,928.22	74.6697	2,928.22	74.8707	2,928.22	76.3255	2,928.22	74.6721	2,928.22	69.5677	2,928.22	71.9452	2,928.22	59.8958	2,928.22	66.7256	2,928.22	61.1078	2,928.22	68.044	2,928.22	71.8463
3,030.76	85.6149	3,030.76	84.2448	3,030.76	85.8075	3,030.76	82.6235	3,030.76	83.8472	3,030.76	79.6893	3,030.76	80.2929	3,030.76	81.589	3,030.76	80.755	3,030.76	85.7228	3,030.76	85.0552	3,030.76	85.9696	3,030.76	85.8403	3,030.76	84.6533	3,030.76	84.1215	3,030.76	81.462	3,030.76	82.3378	3,030.76	77.2078	3,030.76	77.6439	3,030.76	74.5254	3,030.76	74.8616	3,030.76	72.1921	3,030.76	72.7577	3,030.76	71.8235	3,030.76	71.1908	3,030.76	73.8821	3,030.76	73.4926	3,030.76	75.2508	3,030.76	75.3457	3,030.76	68.6681	3,030.76	73.5196	3,030.76	61.3857	3,030.76	66.8146	3,030.76	62.2366	3,030.76	62.9587	3,030.76	68.0731
3,137.7	87.0301	3,137.7	84.4981	3,137.7	84.6314	3,137.7	83.7733	3,137.7	83.8376	3,137.7	83.4646	3,137.7	82.8764	3,137.7	82.7311	3,137.7	81.6928	3,137.7	85.9154	3,137.7	84.8494	3,137.7	86.4104	3,137.7	86.6226	3,137.7	85.8903	3,137.7	85.2772	3,137.7	81.2683	3,137.7	82.3706	3,137.7	79.2496	3,137.7	78.7228	3,137.7	72.9997	3,137.7	74.7353	3,137.7	71.2217	3,137.7	74.835	3,137.7	73.3401	3,137.7	73.6396	3,137.7	73.2699	3,137.7	73.7277	3,137.7	73.7816	3,137.7	74.8592	3,137.7	70.6369	3,137.7	75.3282	3,137.7	63.5597	3,137.7	65.968	3,137.7	64.483	3,137.7	67.1504	3,137.7	69.3324
3,249.02	85.3727	3,249.02	84.0119	3,249.02	83.3783	3,249.02	84.1395	3,249.02	83.4891	3,249.02	83.5017	3,249.02	83.2221	3,249.02	83.2459	3,249.02	82.1688	3,249.02	85.0876	3,249.02	84.3681	3,249.02	86.0579	3,249.02	86	3,249.02	84.8058	3,249.02	84.8075	3,249.02	80.3589	3,249.02	81.9148	3,249.02	78.7119	3,249.02	79.0106	3,249.02	70.6111	3,249.02	73.7747	3,249.02	73.5953	3,249.02	75.2766	3,249.02	74.9473	3,249.02	73.9496	3,249.02	73.9056	3,249.02	72.734	3,249.02	74.9621	3,249.02	73.1054	3,249.02	71.8313	3,249.02	73.9824	3,249.02	66.1657	3,249.02	66.9755	3,249.02	67.6222	3,249.02	67.6237	3,249.02	66.0959
3,363.28	83.5716	3,363.28	85.2031	3,363.28	84.0343	3,363.28	83.2922	3,363.28	84.9762	3,363.28	82.6674	3,363.28	82.3593	3,363.28	84.3039	3,363.28	83.1673	3,363.28	85.6123	3,363.28	85.8964	3,363.28	84.8717	3,363.28	85.9117	3,363.28	82.9557	3,363.28	83.0584	3,363.28	79.6163	3,363.28	80.8333	3,363.28	77.5006	3,363.28	76.3408	3,363.28	74.5534	3,363.28	74.3595	3,363.28	70.6262	3,363.28	73.0874	3,363.28	75.1066	3,363.28	71.5463	3,363.28	73.0328	3,363.28	74.8892	3,363.28	73.9086	3,363.28	76.1711	3,363.28	71.4469	3,363.28	74.0595	3,363.28	64.2659	3,363.28	62.6953	3,363.28	63.5976	3,363.28	67.6089	3,363.28	60.8645
3,481.93	85.2027	3,481.93	85.133	3,481.93	85.3244	3,481.93	85.1866	3,481.93	84.5827	3,481.93	84.4664	3,481.93	84.7877	3,481.93	84.0463	3,481.93	82.7345	3,481.93	84.7565	3,481.93	84.2444	3,481.93	85.8617	3,481.93	86.0332	3,481.93	84.1815	3,481.93	85.4823	3,481.93	81.6938	3,481.93	82.6505	3,481.93	77.8962	3,481.93	78.4757	3,481.93	75.1719	3,481.93	75.8125	3,481.93	73.0359	3,481.93	71.4786	3,481.93	73.1336	3,481.93	70.73	3,481.93	71.6696	3,481.93	76.7351	3,481.93	72.7178	3,481.93	76.9404	3,481.93	69.6351	3,481.93	74.0208	3,481.93	64.9026	3,481.93	55.7368	3,481.93	65.1493	3,481.93	66.1519	3,481.93	60.1923
3,604.98	83.8523	3,604.98	83.4259	3,604.98	84.2118	3,604.98	83.9313	3,604.98	83.0941	3,604.98	84.1875	3,604.98	84.6401	3,604.98	81.659	3,604.98	82.4804	3,604.98	83.8847	3,604.98	83.3542	3,604.98	85.3898	3,604.98	86.0544	3,604.98	83.4952	3,604.98	86.2001	3,604.98	81.5317	3,604.98	83.2559	3,604.98	76.9087	3,604.98	80.0892	3,604.98	75.062	3,604.98	76.2056	3,604.98	74.8655	3,604.98	72.5381	3,604.98	73.6799	3,604.98	73.1566	3,604.98	74.1681	3,604.98	76.9558	3,604.98	73.0966	3,604.98	75.6857	3,604.98	69.3128	3,604.98	73.7238	3,604.98	66.4642	3,604.98	57.4683	3,604.98	65.33	3,604.98	58.9859	3,604.98	58.983
3,732.42	83.4601	3,732.42	82.4886	3,732.42	83.6802	3,732.42	83.6771	3,732.42	83.1811	3,732.42	84.4001	3,732.42	85.0217	3,732.42	81.2484	3,732.42	81.2753	3,732.42	84.8906	3,732.42	83.1902	3,732.42	87.0147	3,732.42	87.1801	3,732.42	84.5503	3,732.42	86.062	3,732.42	82.4277	3,732.42	82.6152	3,732.42	76.9702	3,732.42	78.3396	3,732.42	74.484	3,732.42	73.1487	3,732.42	74.9761	3,732.42	72.1851	3,732.42	71.04	3,732.42	71.5834	3,732.42	74.4681	3,732.42	74.4596	3,732.42	71.7291	3,732.42	73.971	3,732.42	67.4843	3,732.42	71.7076	3,732.42	66.0164	3,732.42	56.1669	3,732.42	61.4422	3,732.42	59.113	3,732.42	54.9088
3,864.26	83.8078	3,864.26	83.257	3,864.26	84.5233	3,864.26	82.7611	3,864.26	83.1144	3,864.26	84.2058	3,864.26	84.7135	3,864.26	81.3897	3,864.26	84.0654	3,864.26	84.133	3,864.26	82.3095	3,864.26	86.7268	3,864.26	85.9813	3,864.26	84.8937	3,864.26	85.9451	3,864.26	82.5259	3,864.26	81.751	3,864.26	76.5552	3,864.26	77.9821	3,864.26	73.7791	3,864.26	73.6505	3,864.26	72.5007	3,864.26	71.4495	3,864.26	68.8254	3,864.26	69.9164	3,864.26	74.269	3,864.26	73.0941	3,864.26	75.2218	3,864.26	74.9372	3,864.26	69.2794	3,864.26	71.5816	3,864.26	63.3323	3,864.26	57.5556	3,864.26	56.0616	3,864.26	63.3665	3,864.26	59.4981
4,000.49	85.2081	4,000.49	83.8307	4,000.49	84.7627	4,000.49	84.0638	4,000.49	84.8207	4,000.49	85.2987	4,000.49	85.9098	4,000.49	83.7831	4,000.49	85.1817	4,000.49	84.247	4,000.49	83.1487	4,000.49	87.042	4,000.49	85.6845	4,000.49	85.7871	4,000.49	84.7918	4,000.49	82.3345	4,000.49	82.0032	4,000.49	78.6447	4,000.49	77.5387	4,000.49	73.5357	4,000.49	73.3333	4,000.49	69.6784	4,000.49	69.7115	4,000.49	69.0953	4,000.49	70.1216	4,000.49	72.9801	4,000.49	74.3206	4,000.49	75.1568	4,000.49	75.1629	4,000.49	68.1807	4,000.49	72.2582	4,000.49	60.0928	4,000.49	65.6588	4,000.49	63.9339	4,000.49	62.1441	4,000.49	59.4044
4,141.11	87.2583	4,141.11	84.5188	4,141.11	83.4009	4,141.11	86.5067	4,141.11	86.1429	4,141.11	85.6285	4,141.11	86.7214	4,141.11	85.9485	4,141.11	86.0045	4,141.11	83.9437	4,141.11	84.4476	4,141.11	85.8268	4,141.11	84.6502	4,141.11	84.3791	4,141.11	84.7077	4,141.11	80.4312	4,141.11	81.6614	4,141.11	79.2393	4,141.11	79.4272	4,141.11	72.9333	4,141.11	73.9119	4,141.11	69.0718	4,141.11	70.8466	4,141.11	72.2645	4,141.11	72.9796	4,141.11	74.5529	4,141.11	74.9527	4,141.11	72.7352	4,141.11	75.954	4,141.11	55.7561	4,141.11	74.3029	4,141.11	63.9811	4,141.11	68.2894	4,141.11	64.3162	4,141.11	67.5463	4,141.11	59.6719
4,287.6	87.701	4,287.6	87.4367	4,287.6	86.4076	4,287.6	86.0019	4,287.6	86.6842	4,287.6	87.8249	4,287.6	87.7795	4,287.6	87.2591	4,287.6	86.853	4,287.6	84.5059	4,287.6	82.992	4,287.6	84.0193	4,287.6	83.0311	4,287.6	84.5378	4,287.6	84.1601	4,287.6	81.726	4,287.6	83.8529	4,287.6	79.4122	4,287.6	80.6515	4,287.6	71.9085	4,287.6	76.2519	4,287.6	68.7133	4,287.6	71.9473	4,287.6	69.1487	4,287.6	75.1417	4,287.6	74.6515	4,287.6	73.5867	4,287.6	73.494	4,287.6	76.4944	4,287.6	65.6152	4,287.6	73.536	4,287.6	67.4788	4,287.6	66.467	4,287.6	65.7511	4,287.6	65.5564	4,287.6	65.4381
4,438.48	89.8625	4,438.48	87.6519	4,438.48	89.5058	4,438.48	86.2344	4,438.48	86.2088	4,438.48	89.3563	4,438.48	89.0289	4,438.48	86.0768	4,438.48	87.6456	4,438.48	81.9032	4,438.48	77.474	4,438.48	84.1385	4,438.48	85.9056	4,438.48	84.4678	4,438.48	87.6057	4,438.48	82.752	4,438.48	85.7331	4,438.48	78.0205	4,438.48	80.675	4,438.48	74.4032	4,438.48	76.9212	4,438.48	70.7197	4,438.48	73.5953	4,438.48	71.9214	4,438.48	73.6274	4,438.48	76.5126	4,438.48	73.0699	4,438.48	74.0381	4,438.48	74.9194	4,438.48	68.4125	4,438.48	72.4334	4,438.48	70.4946	4,438.48	64.1977	4,438.48	66.6652	4,438.48	64.4076	4,438.48	66.7496
4,595.21	90.6839	4,595.21	87.7334	4,595.21	89.54	4,595.21	88.7987	4,595.21	86.2328	4,595.21	89.9436	4,595.21	88.693	4,595.21	84.1887	4,595.21	88.1982	4,595.21	80.9856	4,595.21	81.9075	4,595.21	86.9894	4,595.21	86.9465	4,595.21	86.722	4,595.21	87.8491	4,595.21	84.4499	4,595.21	86.2871	4,595.21	77.673	4,595.21	80.5831	4,595.21	75.0248	4,595.21	76.9927	4,595.21	69.4743	4,595.21	73.8663	4,595.21	71.2626	4,595.21	73.2248	4,595.21	73.8224	4,595.21	66.7388	4,595.21	71.5129	4,595.21	70.8698	4,595.21	68.8552	4,595.21	70.8004	4,595.21	66.767	4,595.21	64.0481	4,595.21	62.1733	4,595.21	65.7164	4,595.21	62.9614
4,756.35	89.6684	4,756.35	87.4363	4,756.35	87.7813	4,756.35	86.7661	4,756.35	87.1832	4,756.35	88.7529	4,756.35	88.3656	4,756.35	84.5992	4,756.35	88.8941	4,756.35	77.7605	4,756.35	85.8203	4,756.35	86.1579	4,756.35	86.6562	4,756.35	85.7264	4,756.35	86.6581	4,756.35	79.5406	4,756.35	84.6884	4,756.35	76.0402	4,756.35	80.443	4,756.35	65.8671	4,756.35	77.4195	4,756.35	66.9242	4,756.35	71.8167	4,756.35	68.3249	4,756.35	72.9093	4,756.35	72.4055	4,756.35	71.1817	4,756.35	72.9545	4,756.35	74.547	4,756.35	68.892	4,756.35	72.818	4,756.35	67.8785	4,756.35	64.9528	4,756.35	66.0829	4,756.35	64.5983	4,756.35	66.0877
4,924.8	88.2487	4,924.8	86.3262	4,924.8	86.8787	4,924.8	83.2596	4,924.8	85.1478	4,924.8	87.3004	4,924.8	88.408	4,924.8	86.0347	4,924.8	86.4922	4,924.8	83.3157	4,924.8	85.1369	4,924.8	85.1407	4,924.8	84.501	4,924.8	83.7719	4,924.8	84.0478	4,924.8	80.0496	4,924.8	82.4059	4,924.8	77.174	4,924.8	79.4029	4,924.8	77.2607	4,924.8	74.8271	4,924.8	67.3167	4,924.8	73.5483	4,924.8	66.8632	4,924.8	69.6491	4,924.8	69.5962	4,924.8	72.1318	4,924.8	70.4486	4,924.8	74.8465	4,924.8	53.9762	4,924.8	68.4691	4,924.8	66.9797	4,924.8	69.7555	4,924.8	61.1642	4,924.8	60.5236	4,924.8	64.6674
5,097.66	87.6003	5,097.66	83.5585	5,097.66	86.9246	5,097.66	85.8663	5,097.66	84.6867	5,097.66	86.1337	5,097.66	87.8056	5,097.66	86.2188	5,097.66	85.3613	5,097.66	82.8592	5,097.66	80.6771	5,097.66	82.9825	5,097.66	81.3458	5,097.66	82.1387	5,097.66	83.2704	5,097.66	81.9251	5,097.66	80.6428	5,097.66	76.9194	5,097.66	78.2495	5,097.66	78.3507	5,097.66	74.5664	5,097.66	69.2684	5,097.66	63.5678	5,097.66	70.3192	5,097.66	60.1662	5,097.66	68.4287	5,097.66	67.8334	5,097.66	65.2322	5,097.66	69.0613	5,097.66	55.0798	5,097.66	66.4801	5,097.66	63.9484	5,097.66	65.3079	5,097.66	49.1404	5,097.66	56.8666	5,097.66	66.2106
5,277.83	85.2408	5,277.83	80.6867	5,277.83	82.6775	5,277.83	84.669	5,277.83	82.84	5,277.83	84.2361	5,277.83	82.9061	5,277.83	84.8237	5,277.83	84.5193	5,277.83	78.1168	5,277.83	77.6938	5,277.83	81.6903	5,277.83	78.1007	5,277.83	81.7887	5,277.83	81.9543	5,277.83	80.8191	5,277.83	80.5785	5,277.83	75.0845	5,277.83	75.9256	5,277.83	76.5594	5,277.83	73.0811	5,277.83	69.9421	5,277.83	68.0037	5,277.83	63.616	5,277.83	68.1509	5,277.83	69.975	5,277.83	64.4771	5,277.83	58.8692	5,277.83	66.6092	5,277.83	55.0909	5,277.83	65.4191	5,277.83	62.8662	5,277.83	63.7506	5,277.83	56.9556	5,277.83	58.6242	5,277.83	62.9072
5,463.87	84.5551	5,463.87	82.135	5,463.87	80.9936	5,463.87	83.4222	5,463.87	82.2264	5,463.87	84.4541	5,463.87	79.8765	5,463.87	84.0287	5,463.87	83.2867	5,463.87	76.6856	5,463.87	79.4928	5,463.87	82.7797	5,463.87	79.1787	5,463.87	82.948	5,463.87	81.4734	5,463.87	79.2427	5,463.87	77.2749	5,463.87	75.3366	5,463.87	72.4424	5,463.87	62.1532	5,463.87	68.1647	5,463.87	61.7826	5,463.87	62.6385	5,463.87	56.1055	5,463.87	61.2745	5,463.87	60.8857	5,463.87	57.8633	5,463.87	66.556	5,463.87	62.6682	5,463.87	58.7983	5,463.87	57.5166	5,463.87	56.243	5,463.87	60.7842	5,463.87	36.9132	5,463.87	59.9939	5,463.87	60.2886
5,657.23	83.2778	5,657.23	82.3048	5,657.23	82.1997	5,657.23	80.655	5,657.23	80.3807	5,657.23	82.6276	5,657.23	82.2508	5,657.23	81.5302	5,657.23	81.8758	5,657.23	77.8699	5,657.23	78.4998	5,657.23	79.9741	5,657.23	78.8712	5,657.23	82.3823	5,657.23	80.868	5,657.23	76.6491	5,657.23	75.994	5,657.23	74.1768	5,657.23	72.515	5,657.23	64.8389	5,657.23	68.8436	5,657.23	64.8541	5,657.23	64.9912	5,657.23	64.8371	5,657.23	56.5885	5,657.23	68.7448	5,657.23	65.3816	5,657.23	64.8405	5,657.23	58.2738	5,657.23	53.6084	5,657.23	56.4857	5,657.23	60.1391	5,657.23	61.8225	5,657.23	56.8298	5,657.23	49.1858	5,657.23	58.5951
5,856.45	82.557	5,856.45	82.7993	5,856.45	84.5402	5,856.45	80.3138	5,856.45	78.9447	5,856.45	83.2368	5,856.45	83.4393	5,856.45	81.4019	5,856.45	81.7509	5,856.45	80.0208	5,856.45	79.0609	5,856.45	77.6366	5,856.45	78.9222	5,856.45	81.2891	5,856.45	81.0082	5,856.45	77.2888	5,856.45	76.2686	5,856.45	73.6977	5,856.45	72.9812	5,856.45	70.1239	5,856.45	70.0727	5,856.45	67.5839	5,856.45	62.3111	5,856.45	66.0904	5,856.45	49.3419	5,856.45	67.8149	5,856.45	62.5117	5,856.45	60.0103	5,856.45	56.4747	5,856.45	50.1227	5,856.45	57.7696	5,856.45	58.0028	5,856.45	57.6879	5,856.45	38.9815	5,856.45	58.4163	5,856.45	52.9499
6,062.99	83.4143	6,062.99	82.9978	6,062.99	83.859	6,062.99	81.8499	6,062.99	80.841	6,062.99	83.1001	6,062.99	82.2803	6,062.99	83.39	6,062.99	82.5612	6,062.99	79.8801	6,062.99	79.599	6,062.99	79.731	6,062.99	74.9754	6,062.99	80.7035	6,062.99	79.1212	6,062.99	77.6774	6,062.99	78.2065	6,062.99	69.2547	6,062.99	73.6915	6,062.99	71.1354	6,062.99	68.1003	6,062.99	66.0287	6,062.99	63.3496	6,062.99	64.4893	6,062.99	55.9496	6,062.99	69.8471	6,062.99	60.2378	6,062.99	61.9623	6,062.99	60.5688	6,062.99	64.1056	6,062.99	60.4101	6,062.99	61.9837	6,062.99	56.2135	6,062.99	56.737	6,062.99	63.27	6,062.99	53.0731
6,276.86	85.5257	6,276.86	83.7643	6,276.86	82.829	6,276.86	83.4623	6,276.86	83.3554	6,276.86	82.6202	6,276.86	80.7956	6,276.86	83.853	6,276.86	82.854	6,276.86	80.4741	6,276.86	81.4097	6,276.86	81.2583	6,276.86	75.995	6,276.86	79.3055	6,276.86	78.6256	6,276.86	77.9596	6,276.86	79.0978	6,276.86	72.9099	6,276.86	74.456	6,276.86	69.8236	6,276.86	64.2244	6,276.86	63.3893	6,276.86	61.6599	6,276.86	62.2941	6,276.86	52.0785	6,276.86	65.7994	6,276.86	63.5929	6,276.86	55.7564	6,276.86	58.5159	6,276.86	63.0683	6,276.86	59.607	6,276.86	55.4749	6,276.86	61.9617	6,276.86	49.3991	6,276.86	63.6567	6,276.86	55.5312
6,498.05	85.3224	6,498.05	84.2492	6,498.05	83.3251	6,498.05	83.6189	6,498.05	84.5417	6,498.05	82.7472	6,498.05	81.9589	6,498.05	83.5558	6,498.05	82.7929	6,498.05	81.813	6,498.05	82.5067	6,498.05	80.1473	6,498.05	78.3195	6,498.05	81.3679	6,498.05	81.3193	6,498.05	78.835	6,498.05	77.4641	6,498.05	75.0894	6,498.05	75.7351	6,498.05	67.2237	6,498.05	65.3341	6,498.05	63.5869	6,498.05	64.8702	6,498.05	57.7892	6,498.05	60.6646	6,498.05	65.9127	6,498.05	67.9587	6,498.05	59.7612	6,498.05	54.627	6,498.05	60.3634	6,498.05	57.5203	6,498.05	42.9504	6,498.05	61.308	6,498.05	47.0091	6,498.05	59.8433	6,498.05	58.7973
6,726.56	84.9615	6,726.56	84.1625	6,726.56	84.2961	6,726.56	83.6351	6,726.56	83.0676	6,726.56	82.9311	6,726.56	83.0795	6,726.56	83.3561	6,726.56	83.2479	6,726.56	82.7653	6,726.56	82.2783	6,726.56	77.281	6,726.56	77.5201	6,726.56	81.7401	6,726.56	79.3795	6,726.56	77.4746	6,726.56	78.476	6,726.56	73.7207	6,726.56	72.0889	6,726.56	66.3239	6,726.56	68.6646	6,726.56	62.0709	6,726.56	62.7355	6,726.56	61.7251	6,726.56	53.7351	6,726.56	65.9423	6,726.56	66.9567	6,726.56	67.6924	6,726.56	57.54	6,726.56	49.9913	6,726.56	56.5711	6,726.56	55.5549	6,726.56	60.4453	6,726.56	52.8299	6,726.56	57.4884	6,726.56	53.0592
6,963.87	84.5359	6,963.87	84.7703	6,963.87	83.1308	6,963.87	84.2306	6,963.87	83.3898	6,963.87	82.1397	6,963.87	81.8732	6,963.87	84.2824	6,963.87	84.5835	6,963.87	82.0889	6,963.87	83.2593	6,963.87	75.5855	6,963.87	76.1811	6,963.87	80.9836	6,963.87	77.3774	6,963.87	75.5155	6,963.87	76.1852	6,963.87	70.8869	6,963.87	70.2582	6,963.87	66.5429	6,963.87	66.8771	6,963.87	61.1087	6,963.87	65.2079	6,963.87	63.7126	6,963.87	58.0692	6,963.87	61.6245	6,963.87	62.5944	6,963.87	65.7647	6,963.87	59.2036	6,963.87	53.2218	6,963.87	59.0508	6,963.87	58.7194	6,963.87	25.2251	6,963.87	54.0865	6,963.87	60.3242	6,963.87	44.9081
7,209.96	84.878	7,209.96	85.874	7,209.96	84.8696	7,209.96	83.8425	7,209.96	83.776	7,209.96	83.5518	7,209.96	82.8976	7,209.96	84.9562	7,209.96	84.2924	7,209.96	82.1723	7,209.96	84.0955	7,209.96	77.7806	7,209.96	77.4117	7,209.96	77.8965	7,209.96	79.4668	7,209.96	76.925	7,209.96	79.1014	7,209.96	71.5989	7,209.96	74.9018	7,209.96	69.2818	7,209.96	69.6865	7,209.96	66.1379	7,209.96	67.7508	7,209.96	59.1603	7,209.96	56.5042	7,209.96	62.8703	7,209.96	62.2607	7,209.96	57.1445	7,209.96	55.3233	7,209.96	41.6872	7,209.96	62.0561	7,209.96	56.9588	7,209.96	56.0144	7,209.96	42.8579	7,209.96	58.3438	7,209.96	49.9656
7,464.84	84.4275	7,464.84	85.2839	7,464.84	86.9425	7,464.84	82.8123	7,464.84	83.498	7,464.84	84.0917	7,464.84	85.1953	7,464.84	83.5341	7,464.84	81.7843	7,464.84	84.0654	7,464.84	82.6205	7,464.84	77.6572	7,464.84	76.728	7,464.84	76.7279	7,464.84	80.5487	7,464.84	79.3726	7,464.84	79.0269	7,464.84	73.2881	7,464.84	75.4568	7,464.84	68.7027	7,464.84	71.5354	7,464.84	67.3354	7,464.84	66.2948	7,464.84	60.2871	7,464.84	49.7329	7,464.84	64.2771	7,464.84	65.2083	7,464.84	62.9606	7,464.84	44.5187	7,464.84	56.8657	7,464.84	59.7396	7,464.84	44.1884	7,464.84	42.6819	7,464.84	57.2085	7,464.84	46.5075	7,464.84	51.0849
7,727.05	84.5854	7,727.05	84.784	7,727.05	86.0281	7,727.05	84.889	7,727.05	84.9911	7,727.05	83.4688	7,727.05	84.8432	7,727.05	82.3443	7,727.05	80.9128	7,727.05	83.7806	7,727.05	82.9541	7,727.05	76.7344	7,727.05	78.0232	7,727.05	78.5892	7,727.05	80.5841	7,727.05	78.1172	7,727.05	78.3845	7,727.05	74.3218	7,727.05	74.8425	7,727.05	69.307	7,727.05	67.3114	7,727.05	68.1232	7,727.05	61.697	7,727.05	58.4692	7,727.05	54.6102	7,727.05	59.5422	7,727.05	58.058	7,727.05	61.5852	7,727.05	39.4085	7,727.05	57.1807	7,727.05	57.7796	7,727.05	47.9191	7,727.05	52.9139	7,727.05	59.7081	7,727.05	53.3741	7,727.05	48.2913
7,999.51	84.4709	7,999.51	85.2068	7,999.51	84.6436	7,999.51	84.911	7,999.51	85.9076	7,999.51	83.8313	7,999.51	83.4322	7,999.51	83.0229	7,999.51	81.3554	7,999.51	81.639	7,999.51	83.8969	7,999.51	77.6103	7,999.51	78.4695	7,999.51	79.6449	7,999.51	75.8384	7,999.51	75.2645	7,999.51	78.7877	7,999.51	72.0943	7,999.51	74.4583	7,999.51	69.6897	7,999.51	71.3104	7,999.51	65.6839	7,999.51	62.5274	7,999.51	59.4748	7,999.51	56.8191	7,999.51	62.1867	7,999.51	62.2951	7,999.51	58.6579	7,999.51	58.2405	7,999.51	55.8266	7,999.51	59.1399	7,999.51	30.137	7,999.51	53.6773	7,999.51	58.2783	7,999.51	57.7663	7,999.51	25.0983
8,282.23	84.2082	8,282.23	85.9962	8,282.23	86.3245	8,282.23	85.3233	8,282.23	85.9733	8,282.23	85.2454	8,282.23	84.6439	8,282.23	81.8291	8,282.23	81.0414	8,282.23	81.9273	8,282.23	83.404	8,282.23	79.0203	8,282.23	77.8827	8,282.23	78.8672	8,282.23	76.5038	8,282.23	75.8833	8,282.23	79.6821	8,282.23	73.0319	8,282.23	75.5308	8,282.23	67.7804	8,282.23	69.1728	8,282.23	59.6043	8,282.23	65.697	8,282.23	51.833	8,282.23	57.9015	8,282.23	62.1238	8,282.23	67.3606	8,282.23	60.7715	8,282.23	61.3529	8,282.23	53.3729	8,282.23	63.7403	8,282.23	53.1588	8,282.23	59.2487	8,282.23	49.5266	8,282.23	48.7026	8,282.23	50.0443
8,573.73	85.4182	8,573.73	85.3882	8,573.73	86.237	8,573.73	86.7183	8,573.73	86.6943	8,573.73	83.9586	8,573.73	85.4685	8,573.73	81.0576	8,573.73	82.1142	8,573.73	83.2827	8,573.73	82.3749	8,573.73	78.643	8,573.73	80.9724	8,573.73	79.1233	8,573.73	78.5768	8,573.73	75.2141	8,573.73	78.4742	8,573.73	71.3975	8,573.73	72.7756	8,573.73	61.0978	8,573.73	61.1106	8,573.73	62.7878	8,573.73	61.7074	8,573.73	53.3481	8,573.73	60.1404	8,573.73	56.2136	8,573.73	60.8609	8,573.73	48.6432	8,573.73	61.4916	8,573.73	50.3363	8,573.73	54.9413	8,573.73	54.9555	8,573.73	52.6533	8,573.73	53.974	8,573.73	53.8706	8,573.73	51.5855
8,876.95	85.2382	8,876.95	86.4006	8,876.95	86.9368	8,876.95	85.5615	8,876.95	85.2799	8,876.95	84.6922	8,876.95	85.233	8,876.95	82.7081	8,876.95	83.1817	8,876.95	83.0657	8,876.95	83.6483	8,876.95	79.3749	8,876.95	81.4244	8,876.95	76.9998	8,876.95	77.1048	8,876.95	75.6094	8,876.95	76.3173	8,876.95	71.8762	8,876.95	71.1691	8,876.95	65.2789	8,876.95	68.0745	8,876.95	59.4589	8,876.95	64.9219	8,876.95	53.9093	8,876.95	60.5317	8,876.95	57.2874	8,876.95	59.9049	8,876.95	61.783	8,876.95	58.9996	8,876.95	56.8847	8,876.95	61.1993	8,876.95	57.3064	8,876.95	53.6018	8,876.95	39.7959	8,876.95	56.265	8,876.95	55.2683
9,188.96	85.1081	9,188.96	86.8862	9,188.96	86.0509	9,188.96	86.0935	9,188.96	86.0774	9,188.96	84.3734	9,188.96	85.4034	9,188.96	83.6494	9,188.96	82.5489	9,188.96	82.8359	9,188.96	82.6912	9,188.96	80.023	9,188.96	79.3122	9,188.96	77.947	9,188.96	76.5117	9,188.96	76.6185	9,188.96	76.2601	9,188.96	74.6588	9,188.96	72.517	9,188.96	68.1878	9,188.96	68.3454	9,188.96	58.4022	9,188.96	61.1842	9,188.96	55.2682	9,188.96	61.0341	9,188.96	57.8566	9,188.96	65.854	9,188.96	59.7961	9,188.96	60.5585	9,188.96	53.432	9,188.96	57.7466	9,188.96	41.4439	9,188.96	60.0711	9,188.96	55.3946	9,188.96	52.1807	9,188.96	43.201
9,514.16	86.0678	9,514.16	86.3716	9,514.16	86.5339	9,514.16	85.0064	9,514.16	85.0974	9,514.16	83.8371	9,514.16	85.605	9,514.16	82.6448	9,514.16	83.3923	9,514.16	82.8488	9,514.16	82.4313	9,514.16	78.7701	9,514.16	79.979	9,514.16	78.0035	9,514.16	74.1789	9,514.16	76.6757	9,514.16	78.2149	9,514.16	71.2447	9,514.16	69.7296	9,514.16	60.4059	9,514.16	65.3459	9,514.16	56.9945	9,514.16	60.7852	9,514.16	56.8648	9,514.16	53.5105	9,514.16	59.3928	9,514.16	64.1017	9,514.16	49.2866	9,514.16	54.2427	9,514.16	51.7595	9,514.16	49.7334	9,514.16	42.2815	9,514.16	58.8551	9,514.16	50.6823	9,514.16	48.1579	9,514.16	50.1401
9,849.61	86.0436	9,849.61	86.1518	9,849.61	85.6487	9,849.61	84.5462	9,849.61	85.1156	9,849.61	84.3278	9,849.61	84.8597	9,849.61	82.3897	9,849.61	82.5282	9,849.61	82.0763	9,849.61	82.6409	9,849.61	78.9431	9,849.61	79.2212	9,849.61	75.9222	9,849.61	73.6444	9,849.61	75.2883	9,849.61	76.9826	9,849.61	69.5819	9,849.61	70.3174	9,849.61	64.4407	9,849.61	64.8269	9,849.61	57.3487	9,849.61	62.2815	9,849.61	49.4998	9,849.61	54.1092	9,849.61	61.4974	9,849.61	59.4077	9,849.61	43.3989	9,849.61	55.7606	9,849.61	54.4467	9,849.61	48.0782	9,849.61	51.7395	9,849.61	53.7201	9,849.61	47.7195	9,849.61	49.9672	9,849.61	41.949
10,196.8	87.2519	10,196.8	85.3655	10,196.8	85.5532	10,196.8	85.2892	10,196.8	85.852	10,196.8	83.873	10,196.8	83.8394	10,196.8	82.719	10,196.8	83.16	10,196.8	81.8401	10,196.8	81.662	10,196.8	78.8211	10,196.8	79.4763	10,196.8	74.237	10,196.8	70.546	10,196.8	76.7985	10,196.8	76.6248	10,196.8	67.227	10,196.8	67.833	10,196.8	61.4854	10,196.8	66.9099	10,196.8	58.1399	10,196.8	62.0773	10,196.8	46.3423	10,196.8	52.0391	10,196.8	54.1815	10,196.8	63.5203	10,196.8	53.4763	10,196.8	58.0679	10,196.8	54.2267	10,196.8	45.8937	10,196.8	54.7313	10,196.8	49.642	10,196.8	52.6584	10,196.8	52.3632	10,196.8	44.9246
10,555.7	85.9331	10,555.7	85.187	10,555.7	85.3217	10,555.7	84.6549	10,555.7	83.6247	10,555.7	84.3737	10,555.7	82.3761	10,555.7	81.7228	10,555.7	82.6549	10,555.7	82.3538	10,555.7	79.5096	10,555.7	77.7845	10,555.7	79.6514	10,555.7	75.3779	10,555.7	74.2331	10,555.7	74.8359	10,555.7	74.9059	10,555.7	70.1189	10,555.7	69.36	10,555.7	66.0575	10,555.7	66.434	10,555.7	59.3291	10,555.7	59.0579	10,555.7	55.2318	10,555.7	45.8929	10,555.7	44.7693	10,555.7	60.7398	10,555.7	54.753	10,555.7	52.5009	10,555.7	55.2619	10,555.7	54.2467	10,555.7	52.3933	10,555.7	52.0975	10,555.7	55.5141	10,555.7	50.9237	10,555.7	42.9063
10,927.7	85.7039	10,927.7	84.8507	10,927.7	84.6277	10,927.7	84.7096	10,927.7	84.0361	10,927.7	84.2934	10,927.7	82.4661	10,927.7	81.7703	10,927.7	81.2141	10,927.7	81.1127	10,927.7	78.6064	10,927.7	78.8483	10,927.7	77.7028	10,927.7	75.3601	10,927.7	72.076	10,927.7	74.9016	10,927.7	72.4646	10,927.7	69.42	10,927.7	66.0648	10,927.7	60.8219	10,927.7	59.5358	10,927.7	57.9447	10,927.7	55.8447	10,927.7	56.354	10,927.7	49.0113	10,927.7	53.708	10,927.7	52.6277	10,927.7	56.5465	10,927.7	50.882	10,927.7	50.0687	10,927.7	50.7781	10,927.7	28.5768	10,927.7	52.3051	10,927.7	47.513	10,927.7	51.5726	10,927.7	49.5709
11,313	86.1893	11,313	85.2184	11,313	84.7875	11,313	85.0705	11,313	84.2792	11,313	83.5494	11,313	83.0054	11,313	81.7448	11,313	81.049	11,313	80.0232	11,313	78.1693	11,313	78.1924	11,313	76.8576	11,313	71.3328	11,313	68.5583	11,313	73.3822	11,313	71.222	11,313	66.6234	11,313	64.5662	11,313	59.547	11,313	61.0286	11,313	45.4183	11,313	55.6054	11,313	53.8337	11,313	48.5653	11,313	44.5005	11,313	49.0965	11,313	49.9504	11,313	36.8876	11,313	51.6163	11,313	55.1389	11,313	48.0267	11,313	49.9499	11,313	42.8883	11,313	51.7136	11,313	46.4546
11,712.9	86.3246	11,712.9	85.4341	11,712.9	85.698	11,712.9	84.758	11,712.9	84.38	11,712.9	82.8161	11,712.9	83.0039	11,712.9	80.7671	11,712.9	80.1763	11,712.9	78.4205	11,712.9	78.5064	11,712.9	76.2522	11,712.9	75.9094	11,712.9	70.9815	11,712.9	69.5235	11,712.9	69.8114	11,712.9	67.1872	11,712.9	63.4042	11,712.9	61.0819	11,712.9	54.6814	11,712.9	60.2515	11,712.9	47.6309	11,712.9	54.6241	11,712.9	45.1321	11,712.9	44.5787	11,712.9	47.5988	11,712.9	42.244	11,712.9	44.5521	11,712.9	45.831	11,712.9	42.9669	11,712.9	49.9426	11,712.9	52.774	11,712.9	50.4081	11,712.9	47.0073	11,712.9	42.67	11,712.9	47.7234
12,126	86.3475	12,126	85.6371	12,126	85.9727	12,126	84.6011	12,126	85.3353	12,126	82.966	12,126	83.7674	12,126	80.33	12,126	81.1814	12,126	75.9626	12,126	79.04	12,126	74.1088	12,126	77.0887	12,126	67.1467	12,126	69.5904	12,126	64.7442	12,126	68.8877	12,126	54.9132	12,126	62.4364	12,126	47.9207	12,126	60.4032	12,126	40.064	12,126	53.7274	12,126	39.0649	12,126	52.9528	12,126	41.3328	12,126	36.604	12,126	42.137	12,126	44.3569	12,126	40.2241	12,126	53.3134	12,126	42.6936	12,126	53.0414	12,126	35.7564	12,126	47.1718	12,126	42.2207
12,553.7	86.6654	12,553.7	85.6693	12,553.7	86.2368	12,553.7	84.9367	12,553.7	85.4179	12,553.7	82.162	12,553.7	83.337	12,553.7	79.363	12,553.7	80.3771	12,553.7	76.4194	12,553.7	78.2044	12,553.7	71.4454	12,553.7	75.4505	12,553.7	65.1206	12,553.7	68.8086	12,553.7	61.2693	12,553.7	65.9331	12,553.7	55.2296	12,553.7	61.2748	12,553.7	49.8086	12,553.7	57.2553	12,553.7	45.77	12,553.7	47.9699	12,553.7	41.3686	12,553.7	44.2107	12,553.7	45.6865	12,553.7	48.5483	12,553.7	43.8211	12,553.7	30.1088	12,553.7	42.5098	12,553.7	44.3469	12,553.7	42.9612	12,553.7	46.6036	12,553.7	28.9689	12,553.7	46.4028	12,553.7	40.3101
12,996.1	86.1513	12,996.1	85.6955	12,996.1	85.9856	12,996.1	84.4294	12,996.1	84.9045	12,996.1	82.5466	12,996.1	82.9087	12,996.1	79.4421	12,996.1	79.6962	12,996.1	75.4606	12,996.1	77.2217	12,996.1	70.7876	12,996.1	73.5029	12,996.1	62.3153	12,996.1	65.6516	12,996.1	57.9713	12,996.1	64.0929	12,996.1	50.241	12,996.1	58.8206	12,996.1	38.3656	12,996.1	56.1807	12,996.1	44.2675	12,996.1	48.8719	12,996.1	46.7451	12,996.1	49.1649	12,996.1	43.864	12,996.1	49.5463	12,996.1	34.8541	12,996.1	37.4883	12,996.1	39.094	12,996.1	26.0995	12,996.1	40.9168	12,996.1	39.8924	12,996.1	35.3365	12,996.1	41.2541	12,996.1	38.4365
13,454.6	86.1176	13,454.6	85.4044	13,454.6	85.6833	13,454.6	84.5297	13,454.6	84.4797	13,454.6	81.6181	13,454.6	82.3266	13,454.6	78.6376	13,454.6	78.7781	13,454.6	74.7166	13,454.6	75.5762	13,454.6	68.2495	13,454.6	71.8342	13,454.6	58.1538	13,454.6	64.2352	13,454.6	58.5789	13,454.6	62.3418	13,454.6	46.2938	13,454.6	58.441	13,454.6	43.8643	13,454.6	55.116	13,454.6	43.1183	13,454.6	48.577	13,454.6	43.2406	13,454.6	47.7816	13,454.6	37.3933	13,454.6	49.7455	13,454.6	37.7046	13,454.6	24.2911	13,454.6	38.6175	13,454.6	39.8487	13,454.6	37.0568	13,454.6	44.9788	13,454.6	31.4033	13,454.6	44.9183	13,454.6	35.835
13,929.2	85.8193	13,929.2	85.4294	13,929.2	85.4619	13,929.2	84.1286	13,929.2	84.0271	13,929.2	81.4893	13,929.2	81.3082	13,929.2	78.1483	13,929.2	77.5293	13,929.2	72.5262	13,929.2	73.6546	13,929.2	65.0428	13,929.2	70.4675	13,929.2	55.3816	13,929.2	64.2374	13,929.2	55.2326	13,929.2	59.2968	13,929.2	49.7013	13,929.2	59.8492	13,929.2	46.607	13,929.2	56.0431	13,929.2	32.1083	13,929.2	49.5988	13,929.2	37.1324	13,929.2	47.6085	13,929.2	35.9815	13,929.2	51.4357	13,929.2	40.7154	13,929.2	36.1942	13,929.2	40.5143	13,929.2	42.6326	13,929.2	42.7225	13,929.2	35.1065	13,929.2	40.299	13,929.2	39.6487	13,929.2	34.6623
14,419.9	85.7002	14,419.9	85.2755	14,419.9	85.4817	14,419.9	83.6128	14,419.9	83.5417	14,419.9	80.8359	14,419.9	80.804	14,419.9	77.0918	14,419.9	77.0417	14,419.9	70.7861	14,419.9	73.139	14,419.9	63.9067	14,419.9	70.7905	14,419.9	52.9477	14,419.9	65.4695	14,419.9	57.3722	14,419.9	61.7313	14,419.9	48.6835	14,419.9	62.2743	14,419.9	40.9832	14,419.9	55.5848	14,419.9	45.062	14,419.9	46.1985	14,419.9	36.7578	14,419.9	44.6143	14,419.9	42.0912	14,419.9	51.0456	14,419.9	38.0406	14,419.9	34.3059	14,419.9	41.847	14,419.9	47.2525	14,419.9	42.0094	14,419.9	37.2016	14,419.9	28.0182	14,419.9	42.0511	14,419.9	32.4999
14,928.2	85.6845	14,928.2	85.2795	14,928.2	85.5332	14,928.2	83.3576	14,928.2	83.6032	14,928.2	80.4517	14,928.2	81.0259	14,928.2	75.2207	14,928.2	77.4819	14,928.2	68.2783	14,928.2	72.6529	14,928.2	61.8488	14,928.2	71.0877	14,928.2	46.4895	14,928.2	66.5539	14,928.2	52.1561	14,928.2	62.0041	14,928.2	47.1861	14,928.2	62.9074	14,928.2	38.9028	14,928.2	53.714	14,928.2	38.9718	14,928.2	44.4083	14,928.2	40.3647	14,928.2	46.4702	14,928.2	39.4837	14,928.2	52.4857	14,928.2	43.4332	14,928.2	42.2275	14,928.2	41.8355	14,928.2	42.6889	14,928.2	41.6929	14,928.2	44.0537	14,928.2	37.865	14,928.2	35.8728	14,928.2	30.7354
15,455.6	85.8358	15,455.6	85.354	15,455.6	85.7319	15,455.6	83.0951	15,455.6	83.9997	15,455.6	80.1911	15,455.6	81.5452	15,455.6	73.9407	15,455.6	76.9012	15,455.6	67.6013	15,455.6	71.6215	15,455.6	61.5607	15,455.6	70.7115	15,455.6	53.1641	15,455.6	64.8432	15,455.6	49.8036	15,455.6	60.9794	15,455.6	49.0299	15,455.6	61.8252	15,455.6	44.4903	15,455.6	54.9975	15,455.6	47.722	15,455.6	46.9082	15,455.6	41.3929	15,455.6	51.0201	15,455.6	46.7138	15,455.6	51.0772	15,455.6	42.8076	15,455.6	43.3993	15,455.6	39.6989	15,455.6	40.2569	15,455.6	41.1406	15,455.6	41.5012	15,455.6	39.9539	15,455.6	39.5307	15,455.6	37.0924
16,000.5	85.5986	16,000.5	85.059	16,000.5	85.2747	16,000.5	82.7346	16,000.5	83.2936	16,000.5	79.7029	16,000.5	80.8995	16,000.5	72.6849	16,000.5	76.0405	16,000.5	67.8671	16,000.5	72.1413	16,000.5	59.5026	16,000.5	69.6581	16,000.5	60.6446	16,000.5	65.6884	16,000.5	56.2253	16,000.5	62.8564	16,000.5	55.3191	16,000.5	61.787	16,000.5	47.227	16,000.5	53.398	16,000.5	30.6616	16,000.5	42.1448	16,000.5	43.4082	16,000.5	50.5301	16,000.5	49.0874	16,000.5	52.9926	16,000.5	34.0915	16,000.5	43.7727	16,000.5	32.7845	16,000.5	42.8133	16,000.5	38.4053	16,000.5	30.8672	16,000.5	36.6708	16,000.5	44.3208	16,000.5	29.713
16,564.5	85.2499	16,564.5	84.4808	16,564.5	84.7079	16,564.5	82.5817	16,564.5	82.3556	16,564.5	78.7219	16,564.5	79.2079	16,564.5	72.1889	16,564.5	75.0994	16,564.5	66.6767	16,564.5	70.3981	16,564.5	55.2802	16,564.5	67.1433	16,564.5	62.0646	16,564.5	65.6138	16,564.5	55.1099	16,564.5	64.6512	16,564.5	54.4917	16,564.5	61.1015	16,564.5	49.2111	16,564.5	51.9706	16,564.5	18.2155	16,564.5	40.7494	16,564.5	44.5575	16,564.5	49.8492	16,564.5	51.284	16,564.5	52.6403	16,564.5	40.7922	16,564.5	43.4484	16,564.5	39.5463	16,564.5	48.1119	16,564.5	42.1651	16,564.5	46.4775	16,564.5	42.1689	16,564.5	43.5861	16,564.5	37.3189
17,148.9	84.6762	17,148.9	83.6441	17,148.9	83.8655	17,148.9	81.5538	17,148.9	81.483	17,148.9	77.0859	17,148.9	77.6393	17,148.9	70.6067	17,148.9	74.3343	17,148.9	62.6566	17,148.9	68.9222	17,148.9	61.0125	17,148.9	68.9614	17,148.9	64.9852	17,148.9	68.287	17,148.9	56.7452	17,148.9	63.5936	17,148.9	56.4184	17,148.9	58.7735	17,148.9	49.914	17,148.9	52.2904	17,148.9	43.5154	17,148.9	33.199	17,148.9	47.063	17,148.9	44.8596	17,148.9	47.2294	17,148.9	47.6984	17,148.9	44.595	17,148.9	32.6141	17,148.9	39.7709	17,148.9	46.7902	17,148.9	43.1512	17,148.9	46.9031	17,148.9	35.1018	17,148.9	44.5279	17,148.9	40.0761
17,752.4	84.4468	17,752.4	83.0321	17,752.4	83.3058	17,752.4	80.5157	17,752.4	81.346	17,752.4	75.9565	17,752.4	77.2359	17,752.4	70.0421	17,752.4	74.3231	17,752.4	61.0309	17,752.4	69.4217	17,752.4	63.8245	17,752.4	69.5281	17,752.4	63.2387	17,752.4	68.3021	17,752.4	59.2572	17,752.4	63.5567	17,752.4	53.4887	17,752.4	57.688	17,752.4	38.5829	17,752.4	51.263	17,752.4	39.0198	17,752.4	41.2034	17,752.4	45.8368	17,752.4	45.4774	17,752.4	45.9282	17,752.4	40.0054	17,752.4	43.8829	17,752.4	41.2455	17,752.4	38.3503	17,752.4	45.8511	17,752.4	33.0735	17,752.4	43.1831	17,752.4	36.604	17,752.4	45.7829	17,752.4	16.3912
18,379.4	84.1628	18,379.4	82.521	18,379.4	82.8972	18,379.4	79.927	18,379.4	81.2566	18,379.4	75.6983	18,379.4	77.6364	18,379.4	68.9612	18,379.4	74.6306	18,379.4	59.8389	18,379.4	69.9862	18,379.4	63.5874	18,379.4	69.0626	18,379.4	61.8158	18,379.4	68.1466	18,379.4	59.8906	18,379.4	60.461	18,379.4	54.0588	18,379.4	56.7329	18,379.4	45.7413	18,379.4	51.8877	18,379.4	47.6111	18,379.4	40.9823	18,379.4	41.7233	18,379.4	42.5541	18,379.4	44.9519	18,379.4	37.9166	18,379.4	44.0495	18,379.4	39.8596	18,379.4	37.5711	18,379.4	38.8863	18,379.4	43.9838	18,379.4	36.3124	18,379.4	41.8122	18,379.4	40.8638	18,379.4	36.9811
19,026.9	83.7418	19,026.9	82.4976	19,026.9	82.7439	19,026.9	79.4959	19,026.9	80.7795	19,026.9	75.3386	19,026.9	77.4892	19,026.9	67.2403	19,026.9	73.829	19,026.9	56.3008	19,026.9	69.9578	19,026.9	65.4798	19,026.9	66.8634	19,026.9	61.8989	19,026.9	64.7251	19,026.9	58.9393	19,026.9	55.1465	19,026.9	49.9489	19,026.9	51.3301	19,026.9	44.5166	19,026.9	51.5645	19,026.9	45.1257	19,026.9	36.7607	19,026.9	42.2622	19,026.9	39.1182	19,026.9	41.2655	19,026.9	41.1721	19,026.9	42.7878	19,026.9	40.5536	19,026.9	38.0779	19,026.9	31.6987	19,026.9	43.0995	19,026.9	41.5638	19,026.9	41.9705	19,026.9	41.6149	19,026.9	36.8727
19,697.8	83.4036	19,697.8	82.3516	19,697.8	82.8867	19,697.8	79.622	19,697.8	80.7741	19,697.8	74.801	19,697.8	77.6518	19,697.8	65.8331	19,697.8	73.2339	19,697.8	59.0609	19,697.8	67.5487	19,697.8	64.3114	19,697.8	61.8353	19,697.8	59.2821	19,697.8	46.0159	19,697.8	56.9475	19,697.8	35.5765	19,697.8	50.5979	19,697.8	47.9833	19,697.8	44.2925	19,697.8	50.1529	19,697.8	40.3285	19,697.8	40.581	19,697.8	45.0334	19,697.8	40.8256	19,697.8	41.3086	19,697.8	36.0954	19,697.8	35.8197	19,697.8	39.5005	19,697.8	31.8702	19,697.8	31.6764	19,697.8	40.8494	19,697.8	40.4508	19,697.8	36.1796	19,697.8	39.6382	19,697.8	28.6372
19,999.5	83.295	19,999.5	82.2194	19,999.5	82.9363	19,999.5	79.4598	19,999.5	80.9775	19,999.5	75.5463	19,999.5	77.4133	19,999.5	66.9449	19,999.5	72.9191	19,999.5	61.4652	19,999.5	65.3381	19,999.5	63.7394	19,999.5	59.2817	19,999.5	55.1648	19,999.5	59.2863	19,999.5	54.348	19,999.5	56.0748	19,999.5	46.2111	19,999.5	52.9132	19,999.5	49.335	19,999.5	52.4061	19,999.5	54.6272	19,999.5	35.6616	19,999.5	36.3408	19,999.5	45.6468	19,999.5	41.7361	19,999.5	32.7686	19,999.5	43.7409	19,999.5	52.8261	19,999.5	38.9173	19,999.5	45.2915	19,999.5	43.669	19,999.5	45.6873	19,999.5	42.4391	19,999.5	45.0667	19,999.5	21.4009
