"SPL Vertical"
"On-Axis"		"10°"		"-10°"		"20°"		"-20°"		"30°"		"-30°"		"40°"		"-40°"		"50°"		"-50°"		"60°"		"-60°"		"70°"		"-70°"		"80°"		"-80°"		"90°"		"-90°"		"100°"		"-100°"		"110°"		"-110°"		"120°"		"-120°"		"130°"		"-130°"		"140°"		"-140°"		"150°"		"-150°"		"160°"		"-160°"		"170°"		"-170°"		"180°"
"Frequency / Hz"	"Sound Pressure Level / dB (re 20 µPa/V)  [2.83  V @ 1. m]"	"Frequency / Hz"	"Sound Pressure Level / dB (re 20 µPa/V)  [2.83  V @ 1. m]"	"Frequency / Hz"	"Sound Pressure Level / dB (re 20 µPa/V)  [2.83  V @ 1. m]"	"Frequency / Hz"	"Sound Pressure Level / dB (re 20 µPa/V)  [2.83  V @ 1. m]"	"Frequency / Hz"	"Sound Pressure Level / dB (re 20 µPa/V)  [2.83  V @ 1. m]"	"Frequency / Hz"	"Sound Pressure Level / dB (re 20 µPa/V)  [2.83  V @ 1. m]"	"Frequency / Hz"	"Sound Pressure Level / dB (re 20 µPa/V)  [2.83  V @ 1. m]"	"Frequency / Hz"	"Sound Pressure Level / dB (re 20 µPa/V)  [2.83  V @ 1. m]"	"Frequency / Hz"	"Sound Pressure Level / dB (re 20 µPa/V)  [2.83  V @ 1. m]"	"Frequency / Hz"	"Sound Pressure Level / dB (re 20 µPa/V)  [2.83  V @ 1. m]"	"Frequency / Hz"	"Sound Pressure Level / dB (re 20 µPa/V)  [2.83  V @ 1. m]"	"Frequency / Hz"	"Sound Pressure Level / dB (re 20 µPa/V)  [2.83  V @ 1. m]"	"Frequency / Hz"	"Sound Pressure Level / dB (re 20 µPa/V)  [2.83  V @ 1. m]"	"Frequency / Hz"	"Sound Pressure Level / dB (re 20 µPa/V)  [2.83  V @ 1. m]"	"Frequency / Hz"	"Sound Pressure Level / dB (re 20 µPa/V)  [2.83  V @ 1. m]"	"Frequency / Hz"	"Sound Pressure Level / dB (re 20 µPa/V)  [2.83  V @ 1. m]"	"Frequency / Hz"	"Sound Pressure Level / dB (re 20 µPa/V)  [2.83  V @ 1. m]"	"Frequency / Hz"	"Sound Pressure Level / dB (re 20 µPa/V)  [2.83  V @ 1. m]"	"Frequency / Hz"	"Sound Pressure Level / dB (re 20 µPa/V)  [2.83  V @ 1. m]"	"Frequency / Hz"	"Sound Pressure Level / dB (re 20 µPa/V)  [2.83  V @ 1. m]"	"Frequency / Hz"	"Sound Pressure Level / dB (re 20 µPa/V)  [2.83  V @ 1. m]"	"Frequency / Hz"	"Sound Pressure Level / dB (re 20 µPa/V)  [2.83  V @ 1. m]"	"Frequency / Hz"	"Sound Pressure Level / dB (re 20 µPa/V)  [2.83  V @ 1. m]"	"Frequency / Hz"	"Sound Pressure Level / dB (re 20 µPa/V)  [2.83  V @ 1. m]"	"Frequency / Hz"	"Sound Pressure Level / dB (re 20 µPa/V)  [2.83  V @ 1. m]"	"Frequency / Hz"	"Sound Pressure Level / dB (re 20 µPa/V)  [2.83  V @ 1. m]"	"Frequency / Hz"	"Sound Pressure Level / dB (re 20 µPa/V)  [2.83  V @ 1. m]"	"Frequency / Hz"	"Sound Pressure Level / dB (re 20 µPa/V)  [2.83  V @ 1. m]"	"Frequency / Hz"	"Sound Pressure Level / dB (re 20 µPa/V)  [2.83  V @ 1. m]"	"Frequency / Hz"	"Sound Pressure Level / dB (re 20 µPa/V)  [2.83  V @ 1. m]"	"Frequency / Hz"	"Sound Pressure Level / dB (re 20 µPa/V)  [2.83  V @ 1. m]"	"Frequency / Hz"	"Sound Pressure Level / dB (re 20 µPa/V)  [2.83  V @ 1. m]"	"Frequency / Hz"	"Sound Pressure Level / dB (re 20 µPa/V)  [2.83  V @ 1. m]"	"Frequency / Hz"	"Sound Pressure Level / dB (re 20 µPa/V)  [2.83  V @ 1. m]"	"Frequency / Hz"	"Sound Pressure Level / dB (re 20 µPa/V)  [2.83  V @ 1. m]"	"Frequency / Hz"	"Sound Pressure Level / dB (re 20 µPa/V)  [2.83  V @ 1. m]"
20.5078	45.9281	20.5078	45.7429	20.5078	46.1733	20.5078	45.6281	20.5078	46.4656	20.5078	45.5897	20.5078	46.7902	20.5078	45.6286	20.5078	47.1321	20.5078	45.7391	20.5078	47.4763	20.5078	45.9101	20.5078	47.8096	20.5078	46.1261	20.5078	48.1204	20.5078	46.3703	20.5078	48.399	20.5078	46.6276	20.5078	48.638	20.5078	46.8864	20.5078	48.8319	20.5078	47.1396	20.5078	48.9769	20.5078	47.3846	20.5078	49.0714	20.5078	47.6213	20.5078	49.1152	20.5078	47.8508	20.5078	49.11	20.5078	48.0737	20.5078	49.0587	20.5078	48.2882	20.5078	48.9656	20.5078	48.4907	20.5078	48.8358	20.5078	48.6753
21.9727	57.2548	21.9727	57.2187	21.9727	57.289	21.9727	57.1821	21.9727	57.3208	21.9727	57.1471	21.9727	57.3502	21.9727	57.116	21.9727	57.3778	21.9727	57.0908	21.9727	57.404	21.9727	57.0729	21.9727	57.4288	21.9727	57.0627	21.9727	57.452	21.9727	57.0597	21.9727	57.4728	21.9727	57.0633	21.9727	57.4902	21.9727	57.073	21.9727	57.5033	21.9727	57.0887	21.9727	57.5108	21.9727	57.1107	21.9727	57.512	21.9727	57.1395	21.9727	57.5059	21.9727	57.1753	21.9727	57.4921	21.9727	57.2173	21.9727	57.4701	21.9727	57.2638	21.9727	57.4401	21.9727	57.3121	21.9727	57.4028	21.9727	57.3594
23.4375	57.9282	23.4375	57.9492	23.4375	57.9224	23.4375	57.9847	23.4375	57.9319	23.4375	58.0332	23.4375	57.956	23.4375	58.0929	23.4375	57.9934	23.4375	58.1615	23.4375	58.0421	23.4375	58.2365	23.4375	58.0999	23.4375	58.315	23.4375	58.1645	23.4375	58.3942	23.4375	58.2333	23.4375	58.4711	23.4375	58.3041	23.4375	58.5433	23.4375	58.3748	23.4375	58.6085	23.4375	58.4435	23.4375	58.6648	23.4375	58.5087	23.4375	58.7108	23.4375	58.5691	23.4375	58.7455	23.4375	58.6237	23.4375	58.7683	23.4375	58.6715	23.4375	58.7791	23.4375	58.7117	23.4375	58.7781	23.4375	58.7435	23.4375	58.766
24.9023	59.8288	24.9023	59.8245	24.9023	59.8385	24.9023	59.8256	24.9023	59.8536	24.9023	59.8322	24.9023	59.8736	24.9023	59.844	24.9023	59.8979	24.9023	59.8605	24.9023	59.9257	24.9023	59.8811	24.9023	59.956	24.9023	59.9049	24.9023	59.9874	24.9023	59.9307	24.9023	60.0186	24.9023	59.9573	24.9023	60.0483	24.9023	59.9836	24.9023	60.0751	24.9023	60.0086	24.9023	60.0979	24.9023	60.0315	24.9023	60.1159	24.9023	60.0522	24.9023	60.1288	24.9023	60.0706	24.9023	60.1364	24.9023	60.0868	24.9023	60.139	24.9023	60.101	24.9023	60.1373	24.9023	60.1134	24.9023	60.132	24.9023	60.1238
26.3672	62.0835	26.3672	62.0872	26.3672	62.0844	26.3672	62.0951	26.3672	62.09	26.3672	62.1068	26.3672	62.0998	26.3672	62.1215	26.3672	62.1131	26.3672	62.1383	26.3672	62.1291	26.3672	62.1563	26.3672	62.1468	26.3672	62.1745	26.3672	62.165	26.3672	62.1918	26.3672	62.1826	26.3672	62.2073	26.3672	62.1988	26.3672	62.2205	26.3672	62.2128	26.3672	62.2307	26.3672	62.2242	26.3672	62.238	26.3672	62.2326	26.3672	62.2424	26.3672	62.2382	26.3672	62.2445	26.3672	62.2415	26.3672	62.2449	26.3672	62.2429	26.3672	62.2444	26.3672	62.2432	26.3672	62.2437	26.3672	62.2432	26.3672	62.2432
27.832	64.1475	27.832	64.1454	27.832	64.1493	27.832	64.1427	27.832	64.1507	27.832	64.1394	27.832	64.1517	27.832	64.1351	27.832	64.1519	27.832	64.1296	27.832	64.1511	27.832	64.1227	27.832	64.149	27.832	64.1143	27.832	64.1452	27.832	64.1041	27.832	64.1393	27.832	64.0922	27.832	64.1311	27.832	64.0788	27.832	64.1205	27.832	64.0643	27.832	64.1076	27.832	64.0494	27.832	64.0927	27.832	64.0351	27.832	64.0763	27.832	64.0223	27.832	64.0592	27.832	64.0123	27.832	64.0426	27.832	64.0061	27.832	64.0277	27.832	64.0045	27.832	64.0158	27.832	64.0078
29.2969	66.1792	29.2969	66.1859	29.2969	66.1729	29.2969	66.1926	29.2969	66.1671	29.2969	66.1989	29.2969	66.1621	29.2969	66.2041	29.2969	66.1575	29.2969	66.2078	29.2969	66.1532	29.2969	66.2095	29.2969	66.1489	29.2969	66.2088	29.2969	66.1443	29.2969	66.2054	29.2969	66.1391	29.2969	66.1992	29.2969	66.1331	29.2969	66.1901	29.2969	66.1264	29.2969	66.1785	29.2969	66.1189	29.2969	66.1648	29.2969	66.111	29.2969	66.1497	29.2969	66.1031	29.2969	66.1342	29.2969	66.0959	29.2969	66.1194	29.2969	66.0902	29.2969	66.1065	29.2969	66.0868	29.2969	66.0963	29.2969	66.0864	29.2969	66.0895
30.7617	67.9657	30.7617	67.9703	30.7617	67.9583	30.7617	67.9718	30.7617	67.9484	30.7617	67.9697	30.7617	67.9364	30.7617	67.9638	30.7617	67.9225	30.7617	67.9542	30.7617	67.9069	30.7617	67.9408	30.7617	67.8896	30.7617	67.9241	30.7617	67.8709	30.7617	67.9043	30.7617	67.851	30.7617	67.882	30.7617	67.8302	30.7617	67.858	30.7617	67.8088	30.7617	67.8329	30.7617	67.7876	30.7617	67.8076	30.7617	67.767	30.7617	67.783	30.7617	67.748	30.7617	67.7602	30.7617	67.7313	30.7617	67.7401	30.7617	67.718	30.7617	67.7239	30.7617	67.7089	30.7617	67.7122	30.7617	67.7046	30.7617	67.7057
32.2266	69.6576	32.2266	69.6595	32.2266	69.6516	32.2266	69.6571	32.2266	69.6418	32.2266	69.6503	32.2266	69.6282	32.2266	69.6389	32.2266	69.6112	32.2266	69.6229	32.2266	69.5908	32.2266	69.6027	32.2266	69.5673	32.2266	69.5784	32.2266	69.5409	32.2266	69.5507	32.2266	69.5122	32.2266	69.5201	32.2266	69.4816	32.2266	69.4875	32.2266	69.45	32.2266	69.4537	32.2266	69.4181	32.2266	69.4198	32.2266	69.387	32.2266	69.387	32.2266	69.358	32.2266	69.3567	32.2266	69.3324	32.2266	69.3304	32.2266	69.3114	32.2266	69.3094	32.2266	69.2964	32.2266	69.2949	32.2266	69.2883	32.2266	69.2877
33.6914	71.423	33.6914	71.4257	33.6914	71.4155	33.6914	71.4233	33.6914	71.4034	33.6914	71.4158	33.6914	71.3871	33.6914	71.403	33.6914	71.3667	33.6914	71.3851	33.6914	71.3427	33.6914	71.3623	33.6914	71.3153	33.6914	71.3352	33.6914	71.285	33.6914	71.3044	33.6914	71.2523	33.6914	71.2705	33.6914	71.2182	33.6914	71.2346	33.6914	71.1833	33.6914	71.1976	33.6914	71.1487	33.6914	71.1607	33.6914	71.1155	33.6914	71.1252	33.6914	71.0851	33.6914	71.0925	33.6914	71.0587	33.6914	71.064	33.6914	71.0376	33.6914	71.0411	33.6914	71.0229	33.6914	71.0249	33.6914	71.0157	33.6914	71.0163
35.1562	72.9408	35.1562	72.9413	35.1562	72.9344	35.1562	72.9358	35.1562	72.9224	35.1562	72.9242	35.1562	72.9049	35.1562	72.9064	35.1562	72.8823	35.1562	72.8828	35.1562	72.855	35.1562	72.8536	35.1562	72.8235	35.1562	72.8196	35.1562	72.7886	35.1562	72.7814	35.1562	72.7509	35.1562	72.7403	35.1562	72.7114	35.1562	72.6973	35.1562	72.6712	35.1562	72.6538	35.1562	72.6312	35.1562	72.6115	35.1562	72.5927	35.1562	72.5717	35.1562	72.557	35.1562	72.5363	35.1562	72.5255	35.1562	72.5067	35.1562	72.4993	35.1562	72.4842	35.1562	72.4797	35.1562	72.4699	35.1562	72.4678	35.1562	72.4644
36.6211	74.5191	36.6211	74.519	36.6211	74.5121	36.6211	74.5116	36.6211	74.4982	36.6211	74.4971	36.6211	74.4778	36.6211	74.4758	36.6211	74.4515	36.6211	74.4482	36.6211	74.4199	36.6211	74.415	36.6211	74.3838	36.6211	74.3771	36.6211	74.3442	36.6211	74.3356	36.6211	74.3021	36.6211	74.2917	36.6211	74.2586	36.6211	74.2466	36.6211	74.2149	36.6211	74.2018	36.6211	74.1722	36.6211	74.1585	36.6211	74.132	36.6211	74.1184	36.6211	74.0955	36.6211	74.0827	36.6211	74.0639	36.6211	74.0528	36.6211	74.0385	36.6211	74.0298	36.6211	74.0202	36.6211	74.0146	36.6211	74.0098	36.6211	74.0079
38.0859	75.8931	38.0859	75.8883	38.0859	75.8914	38.0859	75.8773	38.0859	75.8834	38.0859	75.8603	38.0859	75.8691	38.0859	75.8375	38.0859	75.8488	38.0859	75.8094	38.0859	75.823	38.0859	75.7767	38.0859	75.7922	38.0859	75.74	38.0859	75.7573	38.0859	75.7004	38.0859	75.7191	38.0859	75.659	38.0859	75.6787	38.0859	75.6169	38.0859	75.6371	38.0859	75.5754	38.0859	75.5957	38.0859	75.5359	38.0859	75.5557	38.0859	75.4999	38.0859	75.5184	38.0859	75.4687	38.0859	75.4851	38.0859	75.4436	38.0859	75.4569	38.0859	75.4256	38.0859	75.4351	38.0859	75.4155	38.0859	75.4204	38.0859	75.4138
39.5508	77.2633	39.5508	77.2593	39.5508	77.2596	39.5508	77.2477	39.5508	77.2484	39.5508	77.2288	39.5508	77.2299	39.5508	77.2031	39.5508	77.2046	39.5508	77.1712	39.5508	77.1732	39.5508	77.1342	39.5508	77.1366	39.5508	77.093	39.5508	77.0958	39.5508	77.0489	39.5508	77.0521	39.5508	77.0032	39.5508	77.0068	39.5508	76.9574	39.5508	76.9611	39.5508	76.9127	39.5508	76.9166	39.5508	76.8707	39.5508	76.8745	39.5508	76.8327	39.5508	76.8363	39.5508	76.7999	39.5508	76.8031	39.5508	76.7732	39.5508	76.776	39.5508	76.7538	39.5508	76.7557	39.5508	76.7421	39.5508	76.7431	39.5508	76.7385
41.0156	78.2459	41.0156	78.2383	41.0156	78.2457	41.0156	78.2228	41.0156	78.2378	41.0156	78.2002	41.0156	78.2225	41.0156	78.1711	41.0156	78.2007	41.0156	78.1365	41.0156	78.1731	41.0156	78.0978	41.0156	78.141	41.0156	78.0565	41.0156	78.1056	41.0156	78.014	41.0156	78.0681	41.0156	77.972	41.0156	78.0299	41.0156	77.9321	41.0156	77.9922	41.0156	77.8959	41.0156	77.9562	41.0156	77.8644	41.0156	77.9227	41.0156	77.8386	41.0156	77.8926	41.0156	77.8192	41.0156	77.8662	41.0156	77.8061	41.0156	77.8438	41.0156	77.7992	41.0156	77.8257	41.0156	77.7982	41.0156	77.8118	41.0156	77.8026
42.4805	79.3774	42.4805	79.3762	42.4805	79.3686	42.4805	79.3649	42.4805	79.3499	42.4805	79.3437	42.4805	79.3218	42.4805	79.3133	42.4805	79.2853	42.4805	79.2743	42.4805	79.2411	42.4805	79.2279	42.4805	79.1907	42.4805	79.1753	42.4805	79.1355	42.4805	79.1183	42.4805	79.077	42.4805	79.0587	42.4805	79.0173	42.4805	78.9984	42.4805	78.958	42.4805	78.9395	42.4805	78.9012	42.4805	78.8839	42.4805	78.8487	42.4805	78.8333	42.4805	78.8022	42.4805	78.7892	42.4805	78.763	42.4805	78.7529	42.4805	78.7324	42.4805	78.7253	42.4805	78.7111	42.4805	78.7069	42.4805	78.6997	42.4805	78.6983
43.9453	80.2528	43.9453	80.2484	43.9453	80.247	43.9453	80.234	43.9453	80.2312	43.9453	80.2099	43.9453	80.206	43.9453	80.177	43.9453	80.1721	43.9453	80.1362	43.9453	80.1306	43.9453	80.0888	43.9453	80.0827	43.9453	80.0364	43.9453	80.03	43.9453	79.9808	43.9453	79.9742	43.9453	79.9238	43.9453	79.9171	43.9453	79.8674	43.9453	79.8605	43.9453	79.8135	43.9453	79.8065	43.9453	79.7636	43.9453	79.7566	43.9453	79.7193	43.9453	79.7125	43.9453	79.6816	43.9453	79.6754	43.9453	79.6513	43.9453	79.6461	43.9453	79.6291	43.9453	79.6252	43.9453	79.6151	43.9453	79.6131	43.9453	79.6098
45.4102	81.0343	45.4102	81.0266	45.4102	81.0311	45.4102	81.0082	45.4102	81.0171	45.4102	80.9795	45.4102	80.9928	45.4102	80.9414	45.4102	80.959	45.4102	80.8951	45.4102	80.9167	45.4102	80.8421	45.4102	80.8674	45.4102	80.7841	45.4102	80.8125	45.4102	80.7233	45.4102	80.7539	45.4102	80.6616	45.4102	80.6935	45.4102	80.6012	45.4102	80.6332	45.4102	80.5441	45.4102	80.575	45.4102	80.4922	45.4102	80.5207	45.4102	80.4469	45.4102	80.472	45.4102	80.4094	45.4102	80.4302	45.4102	80.3803	45.4102	80.3963	45.4102	80.3601	45.4102	80.3709	45.4102	80.349	45.4102	80.3544	45.4102	80.3471
46.875	81.7467	46.875	81.7365	46.875	81.7456	46.875	81.7153	46.875	81.7332	46.875	81.6837	46.875	81.71	46.875	81.6427	46.875	81.6767	46.875	81.5936	46.875	81.6344	46.875	81.5379	46.875	81.5844	46.875	81.4776	46.875	81.5284	46.875	81.4145	46.875	81.4682	46.875	81.3509	46.875	81.4058	46.875	81.2888	46.875	81.3432	46.875	81.2304	46.875	81.2824	46.875	81.1773	46.875	81.2254	46.875	81.1312	46.875	81.1738	46.875	81.0933	46.875	81.1289	46.875	81.0643	46.875	81.0919	46.875	81.0448	46.875	81.0636	46.875	81.035	46.875	81.0445	46.875	81.0349
48.3398	82.3144	48.3398	82.3018	48.3398	82.3154	48.3398	82.2779	48.3398	82.3047	48.3398	82.2434	48.3398	82.2827	48.3398	82.1994	48.3398	82.2501	48.3398	82.1474	48.3398	82.2082	48.3398	82.089	48.3398	82.1582	48.3398	82.0262	48.3398	82.102	48.3398	81.9612	48.3398	82.0413	48.3398	81.896	48.3398	81.9782	48.3398	81.833	48.3398	81.9148	48.3398	81.7742	48.3398	81.853	48.3398	81.7214	48.3398	81.7947	48.3398	81.6761	48.3398	81.7416	48.3398	81.6396	48.3398	81.6949	48.3398	81.6126	48.3398	81.6558	48.3398	81.5954	48.3398	81.6251	48.3398	81.5882	48.3398	81.6033	48.3398	81.5909
51.2695	83.2897	51.2695	83.2765	51.2695	83.2908	51.2695	83.2515	51.2695	83.2799	51.2695	83.2154	51.2695	83.2574	51.2695	83.1694	51.2695	83.2241	51.2695	83.1149	51.2695	83.1814	51.2695	83.0538	51.2695	83.1306	51.2695	82.9882	51.2695	83.0736	51.2695	82.9203	51.2695	83.0124	51.2695	82.8526	51.2695	82.949	51.2695	82.7875	51.2695	82.8854	51.2695	82.7273	51.2695	82.8236	51.2695	82.674	51.2695	82.7653	51.2695	82.6291	51.2695	82.7121	51.2695	82.5938	51.2695	82.665	51.2695	82.5686	51.2695	82.6251	51.2695	82.5539	51.2695	82.5931	51.2695	82.5494	51.2695	82.5694	51.2695	82.5547
52.7344	83.6507	52.7344	83.6404	52.7344	83.6488	52.7344	83.6183	52.7344	83.635	52.7344	83.585	52.7344	83.6097	52.7344	83.5418	52.7344	83.5741	52.7344	83.4901	52.7344	83.5293	52.7344	83.4318	52.7344	83.4772	52.7344	83.369	52.7344	83.4196	52.7344	83.304	52.7344	83.3587	52.7344	83.2392	52.7344	83.2967	52.7344	83.177	52.7344	83.2356	52.7344	83.1195	52.7344	83.1774	52.7344	83.0685	52.7344	83.1237	52.7344	83.0254	52.7344	83.0757	52.7344	82.9912	52.7344	83.0345	52.7344	82.9662	52.7344	83.0006	52.7344	82.9505	52.7344	82.9744	52.7344	82.9438	52.7344	82.956	52.7344	82.9457
54.1992	83.9379	54.1992	83.9281	54.1992	83.9351	54.1992	83.9061	54.1992	83.9198	54.1992	83.8728	54.1992	83.8928	54.1992	83.8295	54.1992	83.855	54.1992	83.7781	54.1992	83.8081	54.1992	83.7204	54.1992	83.7541	54.1992	83.6589	54.1992	83.6951	54.1992	83.5958	54.1992	83.6336	54.1992	83.5337	54.1992	83.5719	54.1992	83.4746	54.1992	83.5122	54.1992	83.4207	54.1992	83.4566	54.1992	83.3734	54.1992	83.4066	54.1992	83.3338	54.1992	83.3632	54.1992	83.3024	54.1992	83.3272	54.1992	83.2793	54.1992	83.2986	54.1992	83.2643	54.1992	83.2775	54.1992	83.2569	54.1992	83.2636	54.1992	83.2567
55.6641	84.1694	55.6641	84.1592	55.6641	84.1653	55.6641	84.1351	55.6641	84.1471	55.6641	84.0982	55.6641	84.1156	55.6641	84.0498	55.6641	84.0721	55.6641	83.9919	55.6641	84.0183	55.6641	83.9267	55.6641	83.9564	55.6641	83.8568	55.6641	83.8891	55.6641	83.785	55.6641	83.8189	55.6641	83.714	55.6641	83.7486	55.6641	83.6465	55.6641	83.6809	55.6641	83.5849	55.6641	83.618	55.6641	83.531	55.6641	83.5617	55.6641	83.486	55.6641	83.5132	55.6641	83.4505	55.6641	83.4734	55.6641	83.4245	55.6641	83.4422	55.6641	83.4074	55.6641	83.4195	55.6641	83.3988	55.6641	83.4049	55.6641	83.398
58.5938	84.6519	58.5938	84.6404	58.5938	84.6486	58.5938	84.6145	58.5938	84.6308	58.5938	84.5752	58.5938	84.599	58.5938	84.5236	58.5938	84.5542	58.5938	84.4616	58.5938	84.498	58.5938	84.3911	58.5938	84.4324	58.5938	84.3146	58.5938	84.3596	58.5938	84.2347	58.5938	84.2821	58.5938	84.1542	58.5938	84.2025	58.5938	84.0756	58.5938	84.1236	58.5938	84.0016	58.5938	84.0478	58.5938	83.9344	58.5938	83.9773	58.5938	83.8759	58.5938	83.9141	58.5938	83.8274	58.5938	83.8597	58.5938	83.79	58.5938	83.8153	58.5938	83.7644	58.5938	83.7818	58.5938	83.7507	58.5938	83.7596	58.5938	83.7492
60.0586	84.8256	60.0586	84.8095	60.0586	84.8261	60.0586	84.7782	60.0586	84.8112	60.0586	84.7326	60.0586	84.7816	60.0586	84.6744	60.0586	84.7385	60.0586	84.6056	60.0586	84.6836	60.0586	84.5286	60.0586	84.619	60.0586	84.4463	60.0586	84.5472	60.0586	84.3616	60.0586	84.4706	60.0586	84.2778	60.0586	84.3918	60.0586	84.1978	60.0586	84.3135	60.0586	84.1242	60.0586	84.2378	60.0586	84.0594	60.0586	84.167	60.0586	84.0051	60.0586	84.1025	60.0586	83.9624	60.0586	84.0459	60.0586	83.9319	60.0586	83.9979	60.0586	83.9139	60.0586	83.9596	60.0586	83.9081	60.0586	83.9314	60.0586	83.9141
62.9883	85.1646	62.9883	85.1498	62.9883	85.1643	62.9883	85.1205	62.9883	85.1493	62.9883	85.0776	62.9883	85.1203	62.9883	85.0228	62.9883	85.0787	62.9883	84.9582	62.9883	85.0263	62.9883	84.8864	62.9883	84.9655	62.9883	84.8103	62.9883	84.8988	62.9883	84.733	62.9883	84.8288	62.9883	84.6575	62.9883	84.7582	62.9883	84.5867	62.9883	84.6895	62.9883	84.5232	62.9883	84.6247	62.9883	84.4688	62.9883	84.5655	62.9883	84.425	62.9883	84.5131	62.9883	84.3921	62.9883	84.4679	62.9883	84.3701	62.9883	84.4303	62.9883	84.3585	62.9883	84.4003	62.9883	84.3565	62.9883	84.3779	62.9883	84.3631
64.4531	85.3262	64.4531	85.311	64.4531	85.3262	64.4531	85.2811	64.4531	85.3112	64.4531	85.2373	64.4531	85.2822	64.4531	85.1814	64.4531	85.2405	64.4531	85.1156	64.4531	85.1881	64.4531	85.0424	64.4531	85.1274	64.4531	84.9649	64.4531	85.061	64.4531	84.8863	64.4531	84.9915	64.4531	84.8097	64.4531	84.9217	64.4531	84.7382	64.4531	84.8541	64.4531	84.6745	64.4531	84.7905	64.4531	84.6206	64.4531	84.7325	64.4531	84.5778	64.4531	84.681	64.4531	84.5467	64.4531	84.6365	64.4531	84.527	64.4531	84.5989	64.4531	84.5179	64.4531	84.5682	64.4531	84.5185	64.4531	84.5443	64.4531	84.5276
67.3828	85.6692	67.3828	85.6569	67.3828	85.6657	67.3828	85.6291	67.3828	85.6469	67.3828	85.5869	67.3828	85.6138	67.3828	85.5317	67.3828	85.5681	67.3828	85.4658	67.3828	85.5119	67.3828	85.3919	67.3828	85.448	67.3828	85.3131	67.3828	85.3792	67.3828	85.2328	67.3828	85.3086	67.3828	85.1546	67.3828	85.239	67.3828	85.0816	67.3828	85.1728	67.3828	85.0169	67.3828	85.1119	67.3828	84.9626	67.3828	85.0575	67.3828	84.92	67.3828	85.0103	67.3828	84.8895	67.3828	84.9701	67.3828	84.8707	67.3828	84.9366	67.3828	84.8625	67.3828	84.9092	67.3828	84.8635	67.3828	84.8878	67.3828	84.8723
68.8477	85.8165	68.8477	85.8065	68.8477	85.8101	68.8477	85.7802	68.8477	85.7878	68.8477	85.7387	68.8477	85.7507	68.8477	85.6836	68.8477	85.7006	68.8477	85.6171	68.8477	85.6401	68.8477	85.5421	68.8477	85.572	68.8477	85.4618	68.8477	85.4994	68.8477	85.3799	68.8477	85.4257	68.8477	85.2999	68.8477	85.3538	68.8477	85.2255	68.8477	85.2865	68.8477	85.1595	68.8477	85.2256	68.8477	85.1041	68.8477	85.1724	68.8477	85.0606	68.8477	85.1274	68.8477	85.0293	68.8477	85.0901	68.8477	85.0096	68.8477	85.06	68.8477	85.0001	68.8477	85.0362	68.8477	84.9993	68.8477	85.0181	68.8477	85.0057
71.7773	86.0766	71.7773	86.0716	71.7773	86.0637	71.7773	86.0489	71.7773	86.0335	71.7773	86.0093	71.7773	85.9874	71.7773	85.9545	71.7773	85.9276	71.7773	85.8869	71.7773	85.8569	71.7773	85.8094	71.7773	85.7786	71.7773	85.7256	71.7773	85.6963	71.7773	85.6392	71.7773	85.6138	71.7773	85.5541	71.7773	85.5347	71.7773	85.4741	71.7773	85.4619	71.7773	85.4023	71.7773	85.3977	71.7773	85.3411	71.7773	85.3436	71.7773	85.2918	71.7773	85.2998	71.7773	85.2547	71.7773	85.2657	71.7773	85.2291	71.7773	85.2405	71.7773	85.2134	71.7773	85.2227	71.7773	85.2062	71.7773	85.2113	71.7773	85.2058
74.707	86.3896	74.707	86.3856	74.707	86.3751	74.707	86.3634	74.707	86.3428	74.707	86.3239	74.707	86.2941	74.707	86.2688	74.707	86.2313	74.707	86.2005	74.707	86.1573	74.707	86.1219	74.707	86.0754	74.707	86.0366	74.707	85.9895	74.707	85.9484	74.707	85.9035	74.707	85.8613	74.707	85.8211	74.707	85.7788	74.707	85.7454	74.707	85.7044	74.707	85.679	74.707	85.6403	74.707	85.623	74.707	85.5879	74.707	85.578	74.707	85.5476	74.707	85.5435	74.707	85.5189	74.707	85.5184	74.707	85.5002	74.707	85.5014	74.707	85.4902	74.707	85.4913	74.707	85.4875
77.6367	86.6623	77.6367	86.6588	77.6367	86.6467	77.6367	86.6366	77.6367	86.6127	77.6367	86.5966	77.6367	86.5618	77.6367	86.5408	77.6367	86.4965	77.6367	86.4717	77.6367	86.4199	77.6367	86.3925	77.6367	86.3357	77.6367	86.3069	77.6367	86.2481	77.6367	86.2189	77.6367	86.1614	77.6367	86.1325	77.6367	86.0794	77.6367	86.0515	77.6367	86.0054	77.6367	85.979	77.6367	85.9419	77.6367	85.9174	77.6367	85.8899	77.6367	85.8679	77.6367	85.8495	77.6367	85.8305	77.6367	85.8198	77.6367	85.8044	77.6367	85.7991	77.6367	85.7878	77.6367	85.7858	77.6367	85.7789	77.6367	85.7784	77.6367	85.7761
79.1016	86.7721	79.1016	86.7693	79.1016	86.7552	79.1016	86.7472	79.1016	86.7195	79.1016	86.7067	79.1016	86.6665	79.1016	86.6497	79.1016	86.5987	79.1016	86.5789	79.1016	86.5193	79.1016	86.4975	79.1016	86.4324	79.1016	86.4094	79.1016	86.3421	79.1016	86.3188	79.1016	86.2529	79.1016	86.2298	79.1016	86.1688	79.1016	86.1464	79.1016	86.0933	79.1016	86.0721	79.1016	86.0289	79.1016	86.0091	79.1016	85.9766	79.1016	85.9588	79.1016	85.9365	79.1016	85.9211	79.1016	85.9074	79.1016	85.8949	79.1016	85.8876	79.1016	85.8784	79.1016	85.8752	79.1016	85.8695	79.1016	85.8684	79.1016	85.8665
82.0312	87.0819	82.0312	87.0813	82.0312	87.0616	82.0312	87.06	82.0312	87.0215	82.0312	87.0187	82.0312	86.9632	82.0312	86.9592	82.0312	86.8895	82.0312	86.8841	82.0312	86.8037	82.0312	86.7969	82.0312	86.7099	82.0312	86.7015	82.0312	86.6126	82.0312	86.6023	82.0312	86.5163	82.0312	86.504	82.0312	86.4252	82.0312	86.411	82.0312	86.343	82.0312	86.3271	82.0312	86.2724	82.0312	86.2552	82.0312	86.2146	82.0312	86.197	82.0312	86.1697	82.0312	86.1528	82.0312	86.1366	82.0312	86.1216	82.0312	86.1135	82.0312	86.1018	82.0312	86.0986	82.0312	86.0911	82.0312	86.0903	82.0312	86.0877
84.9609	87.3379	84.9609	87.3379	84.9609	87.3172	84.9609	87.3171	84.9609	87.2767	84.9609	87.2764	84.9609	87.2184	84.9609	87.2176	84.9609	87.1451	84.9609	87.1435	84.9609	87.0604	84.9609	87.0575	84.9609	86.9684	84.9609	86.9638	84.9609	86.8736	84.9609	86.8669	84.9609	86.7806	84.9609	86.7711	84.9609	86.6934	84.9609	86.6809	84.9609	86.6153	84.9609	86.5998	84.9609	86.5486	84.9609	86.5305	84.9609	86.4942	84.9609	86.4745	84.9609	86.4519	84.9609	86.4321	84.9609	86.4205	84.9609	86.4022	84.9609	86.3982	84.9609	86.3834	84.9609	86.3832	84.9609	86.3736	84.9609	86.3744	84.9609	86.371
87.8906	87.5306	87.8906	87.5327	87.8906	87.5063	87.8906	87.5126	87.8906	87.4609	87.8906	87.4713	87.8906	87.3968	87.8906	87.411	87.8906	87.3172	87.8906	87.3349	87.8906	87.2267	87.8906	87.2471	87.8906	87.13	87.8906	87.1524	87.8906	87.0328	87.8906	87.0559	87.8906	86.9402	87.8906	86.9629	87.8906	86.8572	87.8906	86.8781	87.8906	86.7871	87.8906	86.8052	87.8906	86.7322	87.8906	86.7467	87.8906	86.6925	87.8906	86.7032	87.8906	86.6667	87.8906	86.6738	87.8906	86.652	87.8906	86.6562	87.8906	86.6451	87.8906	86.6473	87.8906	86.6427	87.8906	86.6436	87.8906	86.6422	87.8906	86.6425
90.8203	87.7606	90.8203	87.7665	90.8203	87.7312	90.8203	87.7486	90.8203	87.6796	90.8203	87.7079	90.8203	87.6085	90.8203	87.6464	90.8203	87.5213	90.8203	87.5672	90.8203	87.4226	90.8203	87.4742	90.8203	87.3176	90.8203	87.3724	90.8203	87.2122	90.8203	87.2671	90.8203	87.1119	90.8203	87.1639	90.8203	87.0217	90.8203	87.068	90.8203	86.9454	90.8203	86.984	90.8203	86.8853	90.8203	86.9149	90.8203	86.8414	90.8203	86.8621	90.8203	86.8123	90.8203	86.8251	90.8203	86.7952	90.8203	86.8019	90.8203	86.7865	90.8203	86.7892	90.8203	86.7828	90.8203	86.7835	90.8203	86.7816	90.8203	86.7816
95.2148	88.0975	95.2148	88.1097	95.2148	88.0606	95.2148	88.0969	95.2148	88.0004	95.2148	88.06	95.2148	87.9197	95.2148	88.0012	95.2148	87.8225	95.2148	87.9238	95.2148	87.7138	95.2148	87.832	95.2148	87.5997	95.2148	87.7308	95.2148	87.4868	95.2148	87.6259	95.2148	87.3815	95.2148	87.523	95.2148	87.2895	95.2148	87.4276	95.2148	87.2151	95.2148	87.3442	95.2148	87.1606	95.2148	87.2758	95.2148	87.1257	95.2148	87.2236	95.2148	87.108	95.2148	87.1869	95.2148	87.1035	95.2148	87.1632	95.2148	87.1076	95.2148	87.1488	95.2148	87.1156	95.2148	87.1396	95.2148	87.1244	95.2148	87.1322
98.1445	88.3041	98.1445	88.321	98.1445	88.2603	98.1445	88.311	98.1445	88.1913	98.1445	88.2751	98.1445	88.0999	98.1445	88.2158	98.1445	87.9908	98.1445	88.1369	98.1445	87.8694	98.1445	88.043	98.1445	87.7428	98.1445	87.9395	98.1445	87.6182	98.1445	87.8324	98.1445	87.5031	98.1445	87.7278	98.1445	87.4041	98.1445	87.6312	98.1445	87.3261	98.1445	87.547	98.1445	87.2716	98.1445	87.4778	98.1445	87.2403	98.1445	87.4245	98.1445	87.2294	98.1445	87.3857	98.1445	87.2341	98.1445	87.3584	98.1445	87.2489	98.1445	87.3387	98.1445	87.2683	98.1445	87.3225	98.1445	87.2882	98.1445	87.3063
101.074	88.499	101.074	88.5261	101.074	88.443	101.074	88.5235	101.074	88.36	101.074	88.4922	101.074	88.2533	101.074	88.4343	101.074	88.1279	101.074	88.3531	101.074	87.9901	101.074	88.2531	101.074	87.8471	101.074	88.1402	101.074	87.7073	101.074	88.0207	101.074	87.5787	101.074	87.9016	101.074	87.4688	101.074	87.7897	101.074	87.3831	101.074	87.6907	101.074	87.3246	101.074	87.6083	101.074	87.2929	101.074	87.5441	101.074	87.2849	101.074	87.4969	101.074	87.2951	101.074	87.4632	101.074	87.3167	101.074	87.4383	101.074	87.3436	101.074	87.417	101.074	87.3707	101.074	87.3952
105.469	88.7949	105.469	88.8316	105.469	88.729	105.469	88.839	105.469	88.6356	105.469	88.8183	105.469	88.5174	105.469	88.7719	105.469	88.3792	105.469	88.7031	105.469	88.227	105.469	88.6161	105.469	88.0688	105.469	88.5159	105.469	87.9132	105.469	88.4076	105.469	87.7697	105.469	88.2968	105.469	87.647	105.469	88.1887	105.469	87.5522	105.469	88.0877	105.469	87.4892	105.469	87.9972	105.469	87.4586	105.469	87.9189	105.469	87.457	105.469	87.8527	105.469	87.4785	105.469	87.7966	105.469	87.5156	105.469	87.7475	105.469	87.561	105.469	87.7017	105.469	87.6089	105.469	87.656
108.398	89.0185	108.398	89.0418	108.398	88.9638	108.398	89.0342	108.398	88.8786	108.398	88.9976	108.398	88.7657	108.398	88.9352	108.398	88.6293	108.398	88.8515	108.398	88.4755	108.398	88.752	108.398	88.3121	108.398	88.6425	108.398	88.1482	108.398	88.5293	108.398	87.9937	108.398	88.4184	108.398	87.8585	108.398	88.315	108.398	87.7508	108.398	88.2227	108.398	87.6763	108.398	88.1434	108.398	87.6367	108.398	88.0772	108.398	87.6296	108.398	88.0221	108.398	87.6492	108.398	87.9746	108.398	87.6876	108.398	87.9307	108.398	87.7365	108.398	87.8865	108.398	87.7887	108.398	87.8394
112.793	89.359	112.793	89.3769	112.793	89.3085	112.793	89.3626	112.793	89.2268	112.793	89.3181	112.793	89.1167	112.793	89.2468	112.793	88.983	112.793	89.1538	112.793	88.832	112.793	89.0449	112.793	88.6716	112.793	88.9269	112.793	88.5107	112.793	88.8069	112.793	88.3591	112.793	88.6915	112.793	88.226	112.793	88.5864	112.793	88.1191	112.793	88.4954	112.793	88.0437	112.793	88.4203	112.793	88.0012	112.793	88.3604	112.793	87.9894	112.793	88.3129	112.793	88.0029	112.793	88.2737	112.793	88.0343	112.793	88.2383	112.793	88.0756	112.793	88.2022	112.793	88.1201	112.793	88.163
117.188	89.4983	117.188	89.5178	117.188	89.4448	117.188	89.5035	117.188	89.3587	117.188	89.4576	117.188	89.2434	117.188	89.3838	117.188	89.104	117.188	89.2876	117.188	88.9475	117.188	89.1754	117.188	88.7825	117.188	89.0549	117.188	88.619	117.188	88.9338	117.188	88.4677	117.188	88.8197	117.188	88.3389	117.188	88.7189	117.188	88.2411	117.188	88.6359	117.188	88.1794	117.188	88.5724	117.188	88.1544	117.188	88.527	117.188	88.1622	117.188	88.4958	117.188	88.1951	117.188	88.4729	117.188	88.2434	117.188	88.4517	117.188	88.2974	117.188	88.4263	117.188	88.3489	117.188	88.3925
120.117	89.6632	120.117	89.6786	120.117	89.6149	120.117	89.6623	120.117	89.5344	120.117	89.6169	120.117	89.4237	120.117	89.5464	120.117	89.2869	120.117	89.4561	120.117	89.1297	120.117	89.3523	120.117	88.9601	120.117	89.242	120.117	88.788	120.117	89.1322	120.117	88.6246	120.117	89.0295	120.117	88.4819	120.117	88.9391	120.117	88.3704	120.117	88.8642	120.117	88.2977	120.117	88.8056	120.117	88.2665	120.117	88.7614	120.117	88.2743	120.117	88.7273	120.117	88.3137	120.117	88.6974	120.117	88.374	120.117	88.6653	120.117	88.4439	120.117	88.6257	120.117	88.5133	120.117	88.5751
124.512	89.9817	124.512	89.9771	124.512	89.9503	124.512	89.9381	124.512	89.8833	124.512	89.8674	124.512	89.7825	124.512	89.7695	124.512	89.6515	124.512	89.6504	124.512	89.4962	124.512	89.518	124.512	89.3244	124.512	89.3808	124.512	89.1459	124.512	89.2484	124.512	88.9722	124.512	89.1291	124.512	88.8153	124.512	89.0299	124.512	88.6864	124.512	88.9541	124.512	88.5937	124.512	88.9017	124.512	88.5412	124.512	88.8686	124.512	88.5277	124.512	88.8484	124.512	88.547	124.512	88.8329	124.512	88.5894	124.512	88.8147	124.512	88.6438	124.512	88.7878	124.512	88.6997	124.512	88.7492
128.906	90.2299	128.906	90.2209	128.906	90.1995	128.906	90.1734	128.906	90.1302	128.906	90.09	128.906	90.0246	128.906	89.9751	128.906	89.8866	128.906	89.8349	128.906	89.7226	128.906	89.6776	128.906	89.5406	128.906	89.5132	128.906	89.3507	128.906	89.3527	128.906	89.1647	128.906	89.2069	128.906	88.9947	128.906	89.085	128.906	88.8522	128.906	88.993	128.906	88.7462	128.906	88.9319	128.906	88.6813	128.906	88.8982	128.906	88.657	128.906	88.8841	128.906	88.667	128.906	88.8796	128.906	88.7014	128.906	88.8745	128.906	88.7479	128.906	88.861	128.906	88.7953	128.906	88.8346
133.301	90.3445	133.301	90.3359	133.301	90.3123	133.301	90.2869	133.301	90.2406	133.301	90.2001	133.301	90.1327	133.301	90.0799	133.301	89.9937	133.301	89.9329	133.301	89.8306	133.301	89.7678	133.301	89.6523	133.301	89.595	133.301	89.4689	133.301	89.4257	133.301	89.2915	133.301	89.2713	133.301	89.1313	133.301	89.1415	133.301	88.9981	133.301	89.0426	133.301	88.8987	133.301	88.9767	133.301	88.8361	133.301	88.9408	133.301	88.8087	133.301	88.9278	133.301	88.8104	133.301	88.928	133.301	88.832	133.301	88.9313	133.301	88.8631	133.301	88.9294	133.301	88.8939	133.301	88.9172
139.16	90.4429	139.16	90.4367	139.16	90.4063	139.16	90.388	139.16	90.3288	139.16	90.2995	139.16	90.2144	139.16	90.1765	139.16	90.0692	139.16	90.0264	139.16	89.9014	139.16	89.8594	139.16	89.7207	139.16	89.687	139.16	89.5386	139.16	89.5214	139.16	89.3671	139.16	89.3741	139.16	89.2177	139.16	89.2543	139.16	89.0997	139.16	89.1674	139.16	89.0187	139.16	89.1137	139.16	88.9756	139.16	89.0892	139.16	88.9661	139.16	89.0862	139.16	88.9823	139.16	89.0947	139.16	89.0136	139.16	89.1052	139.16	89.0495	139.16	89.1092	139.16	89.0809	139.16	89.1016
143.555	90.4361	143.555	90.4196	143.555	90.407	143.555	90.3581	143.555	90.3343	143.555	90.2549	143.555	90.2221	143.555	90.1161	143.555	90.0772	143.555	89.9509	143.555	89.9081	143.555	89.7711	143.555	89.7258	143.555	89.5905	143.555	89.5429	143.555	89.4237	143.555	89.3731	143.555	89.2842	143.555	89.2293	143.555	89.1819	143.555	89.1219	143.555	89.121	143.555	89.0567	143.555	89.0997	143.555	89.0335	143.555	89.1101	143.555	89.0458	143.555	89.1408	143.555	89.083	143.555	89.1791	143.555	89.132	143.555	89.2133	143.555	89.1801	143.555	89.2341	143.555	89.2169	143.555	89.2358
147.949	90.6021	147.949	90.5794	147.949	90.5787	147.949	90.5109	147.949	90.5105	147.949	90.3989	147.949	90.4008	147.949	90.2485	147.949	90.255	147.949	90.0675	147.949	90.0806	147.949	89.8671	147.949	89.8881	147.949	89.662	147.949	89.6905	147.949	89.4687	147.949	89.5026	147.949	89.3044	147.949	89.3399	147.949	89.1829	147.949	89.2156	147.949	89.112	147.949	89.138	147.949	89.0911	147.949	89.1082	147.949	89.1116	147.949	89.1199	147.949	89.1591	147.949	89.1605	147.949	89.2172	147.949	89.2146	147.949	89.2702	147.949	89.2667	147.949	89.3064	147.949	89.3041	147.949	89.3184
153.809	90.8445	153.809	90.8174	153.809	90.8175	153.809	90.7365	153.809	90.7382	153.809	90.6041	153.809	90.6106	153.809	90.4254	153.809	90.4408	153.809	90.2086	153.809	90.2378	153.809	89.9656	153.809	90.0132	153.809	89.7125	153.809	89.7811	153.809	89.4684	153.809	89.5576	153.809	89.2536	153.809	89.3593	153.809	89.0863	153.809	89.2007	153.809	88.978	153.809	89.0918	153.809	88.9308	153.809	89.0349	153.809	88.9366	153.809	89.0247	153.809	88.9794	153.809	89.0486	153.809	89.0403	153.809	89.0901	153.809	89.1005	153.809	89.1324	153.809	89.1457	153.809	89.1612	153.809	89.1669
159.668	91.092	159.668	91.0748	159.668	91.0559	159.668	91.0032	159.668	90.9693	159.668	90.8782	159.668	90.837	159.668	90.7034	159.668	90.6658	159.668	90.4851	159.668	90.465	159.668	90.2339	159.668	90.2463	159.668	89.9644	159.668	90.0239	159.668	89.6959	159.668	89.8135	159.668	89.4505	159.668	89.6309	159.668	89.2505	159.668	89.489	159.668	89.1132	159.668	89.3954	159.668	89.0466	159.668	89.3501	159.668	89.0463	159.668	89.3452	159.668	89.0975	159.668	89.3667	159.668	89.1786	159.668	89.3976	159.668	89.2676	159.668	89.4213	159.668	89.3456	159.668	89.4246	159.668	89.3999
165.527	91.1564	165.527	91.1451	165.527	91.1123	165.527	91.0786	165.527	91.0148	165.527	90.9591	165.527	90.8679	165.527	90.7914	165.527	90.6786	165.527	90.5832	165.527	90.4568	165.527	90.3457	165.527	90.2159	165.527	90.0942	165.527	89.9727	165.527	89.8475	165.527	89.7462	165.527	89.6266	165.527	89.5557	165.527	89.4513	165.527	89.417	165.527	89.3361	165.527	89.3389	165.527	89.2862	165.527	89.3204	165.527	89.2956	165.527	89.3511	165.527	89.3487	165.527	89.4129	165.527	89.4245	165.527	89.485	165.527	89.5014	165.527	89.5479	165.527	89.5612	165.527	89.5863	165.527	89.5914
171.387	91.1194	171.387	91.0977	171.387	91.0823	171.387	91.0181	171.387	90.9879	171.387	90.8832	171.387	90.8402	171.387	90.6983	171.387	90.6455	171.387	90.4717	171.387	90.4134	171.387	90.2148	171.387	90.157	171.387	89.9432	171.387	89.8929	171.387	89.6763	171.387	89.6412	171.387	89.4361	171.387	89.4231	171.387	89.2447	171.387	89.2579	171.387	89.1188	171.387	89.1584	171.387	89.0654	171.387	89.1269	171.387	89.0788	171.387	89.1536	171.387	89.1419	171.387	89.2194	171.387	89.2306	171.387	89.3	171.387	89.32	171.387	89.3719	171.387	89.389	171.387	89.4167	171.387	89.4233
177.246	91.0172	177.246	90.9921	177.246	90.9808	177.246	90.9055	177.246	90.8853	177.246	90.7602	177.246	90.7353	177.246	90.5619	177.246	90.5383	177.246	90.3199	177.246	90.3045	177.246	90.0479	177.246	90.0474	177.246	89.7644	177.246	89.7839	177.246	89.4923	177.246	89.5338	177.246	89.2568	177.246	89.3183	177.246	89.0812	177.246	89.1564	177.246	88.9806	177.246	89.061	177.246	88.9578	177.246	89.0345	177.246	89.0013	177.246	89.0677	177.246	89.0889	177.246	89.1417	177.246	89.1939	177.246	89.2322	177.246	89.2908	177.246	89.3154	177.246	89.3596	177.246	89.3715	177.246	89.3878
183.105	91.1324	183.105	91.1038	183.105	91.0955	183.105	91.0086	183.105	90.9962	183.105	90.8479	183.105	90.8396	183.105	90.6257	183.105	90.633	183.105	90.3494	183.105	90.3868	183.105	90.0318	183.105	90.115	183.105	89.6921	183.105	89.835	183.105	89.3564	183.105	89.5672	183.105	89.0565	183.105	89.3337	183.105	88.8248	183.105	89.1539	183.105	88.6858	183.105	89.0412	183.105	88.6483	183.105	88.9983	183.105	88.7007	183.105	89.016	183.105	88.815	183.105	89.0751	183.105	88.9562	183.105	89.1512	183.105	89.091	183.105	89.2189	183.105	89.194	183.105	89.2569	183.105	89.2506
188.965	91.2209	188.965	91.207	188.965	91.1632	188.965	91.1198	188.965	91.0377	188.965	90.9597	188.965	90.8507	188.965	90.7298	188.965	90.6111	188.965	90.4366	188.965	90.3313	188.965	90.0914	188.965	90.0277	188.965	89.7118	188.965	89.7209	188.965	89.3231	188.965	89.4348	188.965	88.9581	188.965	89.1935	188.965	88.6531	188.965	89.0166	188.965	88.4406	188.965	88.9139	188.965	88.339	188.965	88.8816	188.965	88.3454	188.965	88.9029	188.965	88.4368	188.965	88.9531	188.965	88.5783	188.965	89.0052	188.965	88.7335	188.965	89.036	188.965	88.872	188.965	89.0284	188.965	88.9737
196.289	91.2717	196.289	91.2792	196.289	91.1975	196.289	91.2193	196.289	91.0589	196.289	91.0923	196.289	90.8602	196.289	90.9005	196.289	90.6084	196.289	90.6487	196.289	90.3148	196.289	90.3457	196.289	89.996	196.289	90.0059	196.289	89.6743	196.289	89.651	196.289	89.3763	196.289	89.3097	196.289	89.1303	196.289	89.0154	196.289	88.9592	196.289	88.7993	196.289	88.8744	196.289	88.6814	196.289	88.871	196.289	88.663	196.289	88.929	196.289	88.7263	196.289	89.0188	196.289	88.8403	196.289	89.1095	196.289	88.9706	196.289	89.1745	196.289	89.0866	196.289	89.196	196.289	89.1659
203.613	91.3422	203.613	91.3474	203.613	91.2624	203.613	91.2791	203.613	91.1085	203.613	91.1395	203.613	90.8835	203.613	90.932	203.613	90.5937	203.613	90.6616	203.613	90.2496	203.613	90.3366	203.613	89.8673	203.613	89.9704	203.613	89.4694	203.613	89.5841	203.613	89.0853	203.613	89.2077	203.613	88.7492	203.613	88.8778	203.613	88.4948	203.613	88.631	203.613	88.3462	203.613	88.4913	203.613	88.309	203.613	88.4608	203.613	88.3668	203.613	88.5174	203.613	88.4865	203.613	88.6232	203.613	88.6278	203.613	88.737	203.613	88.7536	203.613	88.824	203.613	88.8363	203.613	88.8606
210.938	91.2496	210.938	91.2415	210.938	91.1856	210.938	91.1614	210.938	91.0507	210.938	91.0109	210.938	90.8478	210.938	90.7933	210.938	90.5824	210.938	90.5146	210.938	90.2636	210.938	90.1845	210.938	89.9053	210.938	89.8181	210.938	89.5282	210.938	89.4369	210.938	89.16	210.938	89.0695	210.938	88.8338	210.938	88.7493	210.938	88.583	210.938	88.509	210.938	88.4314	210.938	88.3708	210.938	88.3849	210.938	88.3384	210.938	88.4275	210.938	88.394	210.938	88.5266	210.938	88.504	210.938	88.6433	210.938	88.6292	210.938	88.742	210.938	88.7344	210.938	88.797	210.938	88.7946
218.262	91.067	218.262	91.064	218.262	90.9939	218.262	90.9863	218.262	90.8453	218.262	90.8376	218.262	90.6246	218.262	90.6236	218.262	90.3394	218.262	90.353	218.262	90.0026	218.262	90.0384	218.262	89.6342	218.262	89.6979	218.262	89.2625	218.262	89.3557	218.262	88.9226	218.262	89.0412	218.262	88.6523	218.262	88.7857	218.262	88.4823	218.262	88.6154	218.262	88.4258	218.262	88.5431	218.262	88.4729	218.262	88.5633	218.262	88.5933	218.262	88.6534	218.262	88.7475	218.262	88.781	218.262	88.8971	218.262	88.912	218.262	89.0123	218.262	89.0171	218.262	89.0743	218.262	89.0752
225.586	91.2554	225.586	91.2424	225.586	91.1803	225.586	91.1436	225.586	91.0161	225.586	90.9632	225.586	90.7643	225.586	90.7074	225.586	90.4307	225.586	90.3859	225.586	90.0271	225.586	90.0139	225.586	89.5749	225.586	89.6146	225.586	89.1076	225.586	89.2195	225.586	88.6721	225.586	88.8679	225.586	88.3241	225.586	88.5995	225.586	88.1142	225.586	88.4445	225.586	88.0678	225.586	88.4123	225.586	88.1716	225.586	88.4877	225.586	88.3786	225.586	88.636	225.586	88.6278	225.586	88.815	225.586	88.8634	225.586	88.9842	225.586	89.0452	225.586	89.1107	225.586	89.1504	225.586	89.1708
232.91	90.8513	232.91	90.8283	232.91	90.78	232.91	90.7141	232.91	90.6114	232.91	90.5122	232.91	90.3439	232.91	90.2267	232.91	89.9783	232.91	89.8645	232.91	89.5208	232.91	89.4378	232.91	88.9872	232.91	88.9682	232.91	88.4079	232.91	88.4902	232.91	87.835	232.91	88.0523	232.91	87.3427	232.91	87.7108	232.91	87.0133	232.91	87.514	232.91	86.9042	232.91	87.4815	232.91	87.0143	232.91	87.5931	232.91	87.2829	232.91	87.7974	232.91	87.6219	232.91	88.0325	232.91	87.9513	232.91	88.2429	232.91	88.215	232.91	88.387	232.91	88.3813	232.91	88.4379
241.699	90.7096	241.699	90.6314	241.699	90.6967	241.699	90.4655	241.699	90.5898	241.699	90.2163	241.699	90.3867	241.699	89.8903	241.699	90.0859	241.699	89.4975	241.699	89.6877	241.699	89.054	241.699	89.1969	241.699	88.584	241.699	88.6261	241.699	88.1217	241.699	88.0033	241.699	87.7095	241.699	87.3792	241.699	87.3919	241.699	86.8309	241.699	87.2027	241.699	86.4493	241.699	87.1515	241.699	86.3018	241.699	87.2178	241.699	86.3914	241.699	87.3579	241.699	86.6511	241.699	87.5188	241.699	86.9829	241.699	87.6505	241.699	87.2988	241.699	87.7134	241.699	87.5411	241.699	87.681
250.488	91.2369	250.488	91.1068	250.488	91.269	250.488	90.8781	250.488	91.2023	250.488	90.5499	250.488	91.0361	250.488	90.1217	250.488	90.7696	250.488	89.5956	250.488	90.4038	250.488	88.9803	250.488	89.9436	250.488	88.2983	250.488	89.4015	250.488	87.5951	250.488	88.8022	250.488	86.9466	250.488	88.1893	250.488	86.4532	250.488	87.6273	250.488	86.2033	250.488	87.1936	250.488	86.2221	250.488	86.9515	250.488	86.4516	250.488	86.9162	250.488	86.7879	250.488	87.0435	250.488	87.1319	250.488	87.2529	250.488	87.4145	250.488	87.4629	250.488	87.5967	250.488	87.6119	250.488	87.6623
259.277	91.0756	259.277	90.9931	259.277	91.0676	259.277	90.8202	259.277	90.9688	259.277	90.5566	259.277	90.7786	259.277	90.2013	259.277	90.4974	259.277	89.7553	259.277	90.1276	259.277	89.2234	259.277	89.6753	259.277	88.6206	259.277	89.1537	259.277	87.9788	259.277	88.5881	259.277	87.3551	259.277	88.0215	259.277	86.8329	259.277	87.517	259.277	86.5027	259.277	87.1478	259.277	86.4196	259.277	86.9701	259.277	86.5657	259.277	86.9911	259.277	86.8593	259.277	87.1609	259.277	87.199	259.277	87.3972	259.277	87.5007	259.277	87.6188	259.277	87.7104	259.277	87.7652	259.277	87.8004
268.066	91.059	268.066	90.9558	268.066	91.0632	268.066	90.7496	268.066	90.9718	268.066	90.4358	268.066	90.7883	268.066	90.0099	268.066	90.5163	268.066	89.4688	268.066	90.1599	268.066	88.8142	268.066	89.7249	268.066	88.0583	268.066	89.2208	268.066	87.2356	268.066	88.6645	268.066	86.4187	268.066	88.0864	268.066	85.7298	268.066	87.5363	268.066	85.3168	268.066	87.0818	268.066	85.272	268.066	86.791	268.066	85.5549	268.066	86.6994	268.066	86.0203	268.066	86.7842	268.066	86.5136	268.066	86.9725	268.066	86.9279	268.066	87.1744	268.066	87.2073	268.066	87.3124	268.066	87.3332
276.855	91.3028	276.855	91.2348	276.855	91.2742	276.855	91.0686	276.855	91.1492	276.855	90.8001	276.855	90.9278	276.855	90.4233	276.855	90.6122	276.855	89.9301	276.855	90.2085	276.855	89.3135	276.855	89.7307	276.855	88.5719	276.855	89.2032	276.855	87.7178	276.855	88.6628	276.855	86.7938	276.855	88.1569	276.855	85.894	276.855	87.7346	276.855	85.1744	276.855	87.4328	276.855	84.8072	276.855	87.2621	276.855	84.8634	276.855	87.2035	276.855	85.2476	276.855	87.2162	276.855	85.7778	276.855	87.2507	276.855	86.2999	276.855	87.2577	276.855	86.7263	276.855	87.1936	276.855	87.0238
287.109	91.2686	287.109	91.2834	287.109	91.1607	287.109	91.2006	287.109	90.965	287.109	91.0166	287.109	90.6872	287.109	90.7284	287.109	90.3332	287.109	90.3327	287.109	89.9087	287.109	89.8262	287.109	89.4215	287.109	89.2062	287.109	88.8869	287.109	88.4768	287.109	88.3358	287.109	87.662	287.109	87.8223	287.109	86.8275	287.109	87.4201	287.109	86.1008	287.109	87.1974	287.109	85.651	287.109	87.1761	287.109	85.5927	287.109	87.313	287.109	85.8868	287.109	87.5215	287.109	86.374	287.109	87.7124	287.109	86.8905	287.109	87.8192	287.109	87.3295	287.109	87.8012	287.109	87.6389
297.363	91.5023	297.363	91.5461	297.363	91.3681	297.363	91.5027	297.363	91.137	297.363	91.3707	297.363	90.8016	297.363	91.1434	297.363	90.3555	297.363	90.8088	297.363	89.795	297.363	90.3516	297.363	89.1234	297.363	89.7576	297.363	88.3568	297.363	89.0206	297.363	87.5384	297.363	88.1554	297.363	86.7581	297.363	87.2186	297.363	86.162	297.363	86.3363	297.363	85.9062	297.363	85.7039	297.363	86.0437	297.363	85.4991	297.363	86.4646	297.363	85.7347	297.363	86.978	297.363	86.2438	297.363	87.4225	297.363	86.8189	297.363	87.7039	297.363	87.313	297.363	87.7812	297.363	87.6464
307.617	90.8383	307.617	90.8023	307.617	90.7966	307.617	90.6975	307.617	90.6682	307.617	90.5305	307.617	90.4455	307.617	90.3026	307.617	90.1226	307.617	90.0087	307.617	89.6947	307.617	89.6375	307.617	89.1586	307.617	89.1752	307.617	88.5148	307.617	88.6118	307.617	87.7751	307.617	87.9496	307.617	86.9769	307.617	87.2181	307.617	86.2029	307.617	86.4902	307.617	85.591	307.617	85.8898	307.617	85.2935	307.617	85.5568	307.617	85.3705	307.617	85.5586	307.617	85.725	307.617	85.8284	307.617	86.172	307.617	86.2113	307.617	86.5477	307.617	86.5543	307.617	86.754	307.617	86.7531
319.336	90.7946	319.336	90.7416	319.336	90.7563	319.336	90.605	319.336	90.619	319.336	90.3904	319.336	90.3755	319.336	90.099	319.336	90.0198	319.336	89.7268	319.336	89.5462	319.336	89.266	319.336	88.9502	319.336	88.7097	319.336	88.2328	319.336	88.0609	319.336	87.4115	319.336	87.3457	319.336	86.5411	319.336	86.6287	319.336	85.7377	319.336	86.0191	319.336	85.1754	319.336	85.6425	319.336	85.0038	319.336	85.5704	319.336	85.2215	319.336	85.7641	319.336	85.6708	319.336	86.1023	319.336	86.1605	319.336	86.454	319.336	86.5567	319.336	86.7214	319.336	86.7919	319.336	86.8444
329.59	90.808	329.59	90.7395	329.59	90.7898	329.59	90.5905	329.59	90.6792	329.59	90.3666	329.59	90.4699	329.59	90.0706	329.59	90.1548	329.59	89.7	329.59	89.7249	329.59	89.2452	329.59	89.1695	329.59	88.6908	329.59	88.4795	329.59	88.0235	329.59	87.656	329.59	87.2473	329.59	86.7288	329.59	86.4099	329.59	85.7876	329.59	85.6325	329.59	85.0105	329.59	85.105	329.59	84.6227	329.59	84.9844	329.59	84.729	329.59	85.2523	329.59	85.197	329.59	85.7254	329.59	85.7794	329.59	86.2007	329.59	86.2799	329.59	86.5429	329.59	86.5945	329.59	86.6831
341.309	90.7582	341.309	90.6534	341.309	90.7627	341.309	90.4537	341.309	90.6655	341.309	90.1668	341.309	90.469	341.309	89.8002	341.309	90.1767	341.309	89.3573	341.309	89.7908	341.309	88.8344	341.309	89.3086	341.309	88.2217	341.309	88.7226	341.309	87.5102	341.309	88.0257	341.309	86.7074	341.309	87.226	341.309	85.8641	341.309	86.3751	341.309	85.107	341.309	85.6032	341.309	84.6359	341.309	85.117	341.309	84.6142	341.309	85.0812	341.309	85.0129	341.309	85.4521	341.309	85.6251	341.309	86.0038	341.309	86.2267	341.309	86.5064	341.309	86.669	341.309	86.8176	341.309	86.8754
353.027	90.9742	353.027	90.9025	353.027	90.9455	353.027	90.7327	353.027	90.8142	353.027	90.4665	353.027	90.5785	353.027	90.104	353.027	90.2367	353.027	89.6418	353.027	89.7868	353.027	89.0703	353.027	89.2264	353.027	88.3739	353.027	88.554	353.027	87.5351	353.027	87.7742	353.027	86.5479	353.027	86.9104	353.027	85.4496	353.027	86.0277	353.027	84.3765	353.027	85.2579	353.027	83.6074	353.027	84.7834	353.027	83.4392	353.027	84.7278	353.027	83.8793	353.027	85.0328	353.027	84.621	353.027	85.4968	353.027	85.3475	353.027	85.9167	353.027	85.8821	353.027	86.1593	353.027	86.1563
366.211	91.7162	366.211	91.7096	366.211	91.6305	366.211	91.6148	366.211	91.4432	366.211	91.4291	366.211	91.143	366.211	91.142	366.211	90.7179	366.211	90.7368	366.211	90.1578	366.211	90.1925	366.211	89.4551	366.211	89.487	366.211	88.6071	366.211	88.6002	366.211	87.6238	366.211	87.5193	366.211	86.5448	366.211	86.2525	366.211	85.4699	366.211	84.8662	366.211	84.5824	366.211	83.5569	366.211	84.098	366.211	82.6951	366.211	84.1015	366.211	82.6047	366.211	84.45	366.211	83.1743	366.211	84.8947	366.211	83.9844	366.211	85.2327	366.211	84.7018	366.211	85.344	366.211	85.1707
379.395	90.6749	379.395	90.5992	379.395	90.6874	379.395	90.4761	379.395	90.6204	379.395	90.3166	379.395	90.4588	379.395	90.1225	379.395	90.1893	379.395	89.8834	379.395	89.7979	379.395	89.5773	379.395	89.2678	379.395	89.1751	379.395	88.5781	379.395	88.6474	379.395	87.7079	379.395	87.9742	379.395	86.6524	379.395	87.1618	379.395	85.4634	379.395	86.2697	379.395	84.3229	379.395	85.4405	379.395	83.5848	379.395	84.8842	379.395	83.5568	379.395	84.7523	379.395	84.1243	379.395	84.9953	379.395	84.8807	379.395	85.4055	379.395	85.5113	379.395	85.7726	379.395	85.879	379.395	85.9562
392.578	90.3943	392.578	90.2772	392.578	90.4285	392.578	90.0883	392.578	90.3707	392.578	89.8396	392.578	90.2146	392.578	89.5404	392.578	89.9563	392.578	89.1929	392.578	89.5928	392.578	88.7863	392.578	89.1185	392.578	88.2947	392.578	88.5221	392.578	87.6827	392.578	87.7867	392.578	86.9205	392.578	86.8995	392.578	86.0134	392.578	85.8784	392.578	85.0487	392.578	84.8265	392.578	84.2425	392.578	83.9889	392.578	83.8848	392.578	83.6806	392.578	84.0934	392.578	83.987	392.578	84.666	392.578	84.6401	392.578	85.2865	392.578	85.2975	392.578	85.7331	392.578	85.7468	392.578	85.8981
405.762	90.341	405.762	90.2984	405.762	90.2655	405.762	90.1508	405.762	90.0672	405.762	89.9136	405.762	89.7534	405.762	89.5996	405.762	89.3426	405.762	89.214	405.762	88.8559	405.762	88.7502	405.762	88.3046	405.762	88.1872	405.762	87.6809	405.762	87.4906	405.762	86.9633	405.762	86.6226	405.762	86.1439	405.762	85.5673	405.762	85.2745	405.762	84.39	405.762	84.515	405.762	83.3374	405.762	84.1108	405.762	82.8519	405.762	84.2134	405.762	83.1915	405.762	84.7109	405.762	84.0642	405.762	85.3342	405.762	84.9963	405.762	85.852	405.762	85.7056	405.762	86.1269	405.762	86.0877
420.41	90.2916	420.41	90.2384	420.41	90.2647	420.41	90.1186	420.41	90.158	420.41	89.9537	420.41	89.9841	420.41	89.7627	420.41	89.7597	420.41	89.549	420.41	89.4916	420.41	89.2908	420.41	89.1609	420.41	88.9424	420.41	88.7162	420.41	88.4444	420.41	88.0789	420.41	87.7409	420.41	87.16	420.41	86.8014	420.41	85.8895	420.41	85.6572	420.41	84.2865	420.41	84.4624	420.41	82.6483	420.41	83.546	420.41	81.7584	420.41	83.2664	420.41	82.1746	420.41	83.6297	420.41	83.2767	420.41	84.2673	420.41	84.2827	420.41	84.8114	420.41	84.89	420.41	85.0526
435.059	89.6175	435.059	89.6121	435.059	89.507	435.059	89.4903	435.059	89.3004	435.059	89.2701	435.059	89.0334	435.059	88.9833	435.059	88.7483	435.059	88.6633	435.059	88.4777	435.059	88.3278	435.059	88.225	435.059	87.9605	435.059	87.9521	435.059	87.5088	435.059	87.5848	435.059	86.8997	435.059	87.0388	435.059	86.0733	435.059	86.2602	435.059	85.0344	435.059	85.2865	435.059	83.9417	435.059	84.3388	435.059	83.192	435.059	83.84	435.059	83.2067	435.059	84.0658	435.059	83.9059	435.059	84.7595	435.059	84.8046	435.059	85.456	435.059	85.5239	435.059	85.8698	435.059	85.8964
451.172	90.0831	451.172	89.8875	451.172	90.1159	451.172	89.5417	451.172	89.9787	451.172	89.0636	451.172	89.6704	451.172	88.4781	451.172	89.1966	451.172	87.8173	451.172	88.5722	451.172	87.118	451.172	87.8221	451.172	86.4138	451.172	86.98	451.172	85.7213	451.172	86.0797	451.172	85.0274	451.172	85.1401	451.172	84.2906	451.172	84.1531	451.172	83.4651	451.172	83.098	451.172	82.5523	451.172	82.0005	451.172	81.6755	451.172	81.0337	451.172	81.1066	451.172	80.5382	451.172	81.071	451.172	80.7115	451.172	81.4468	451.172	81.2857	451.172	81.8649	451.172	81.8145	451.172	82.0272
465.82	89.4019	465.82	89.2512	465.82	89.4286	465.82	88.9894	465.82	89.3224	465.82	88.6331	465.82	89.0768	465.82	88.1983	465.82	88.6893	465.82	87.6935	465.82	88.1622	465.82	87.1107	465.82	87.505	465.82	86.4223	465.82	86.7327	465.82	85.5873	465.82	85.8632	465.82	84.5749	465.82	84.9187	465.82	83.4144	465.82	83.942	465.82	82.2815	465.82	83.0326	465.82	81.55	465.82	82.3761	465.82	81.5543	465.82	82.1764	465.82	82.1795	465.82	82.4686	465.82	83.0058	465.82	83.0526	465.82	83.7118	465.82	83.661	465.82	84.152	465.82	84.1038	465.82	84.2815
483.398	88.5574	483.398	88.5485	483.398	88.4574	483.398	88.4341	483.398	88.2568	483.398	88.2263	483.398	87.9753	483.398	87.9404	483.398	87.636	483.398	87.587	483.398	87.2494	483.398	87.1611	483.398	86.7968	483.398	86.6306	483.398	86.2254	483.398	85.9321	483.398	85.4659	483.398	84.9784	483.398	84.4729	483.398	83.6846	483.398	83.2974	483.398	82.0422	483.398	82.2	483.398	80.3199	483.398	81.6648	483.398	79.3486	483.398	81.9621	483.398	79.8431	483.398	82.7579	483.398	81.186	483.398	83.5587	483.398	82.5129	483.398	84.0954	483.398	83.4969	483.398	84.2778	483.398	84.0825
499.512	87.9675	499.512	87.9244	499.512	87.9134	499.512	87.7913	499.512	87.7756	499.512	87.5948	499.512	87.5788	499.512	87.3694	499.512	87.3424	499.512	87.1385	499.512	87.0642	499.512	86.8938	499.512	86.7115	499.512	86.5821	499.512	86.2231	499.512	86.1078	499.512	85.5169	499.512	85.3496	499.512	84.4968	499.512	84.1905	499.512	83.0695	499.512	82.5743	499.512	81.2326	499.512	80.6739	499.512	79.4335	499.512	79.2843	499.512	79.0039	499.512	79.5004	499.512	80.355	499.512	80.8985	499.512	82.0715	499.512	82.3608	499.512	83.3154	499.512	83.4159	499.512	83.9341	499.512	83.9534
517.09	85.443	517.09	85.3543	517.09	85.4057	517.09	85.175	517.09	85.2517	517.09	84.9727	517.09	85.0382	517.09	84.822	517.09	84.8566	517.09	84.7661	517.09	84.7853	517.09	84.7853	517.09	84.8257	517.09	84.7949	517.09	84.8796	517.09	84.6693	517.09	84.7895	517.09	84.27	517.09	84.3938	517.09	83.4632	517.09	83.5649	517.09	82.1467	517.09	82.2559	517.09	80.3707	517.09	80.6669	517.09	78.7785	517.09	79.607	517.09	78.7854	517.09	80.0321	517.09	80.3239	517.09	81.4028	517.09	81.9652	517.09	82.6709	517.09	83.0768	517.09	83.4178	517.09	83.5586
536.133	84.6821	536.133	84.4559	536.133	84.6159	536.133	83.9676	536.133	84.2418	536.133	83.2763	536.133	83.5534	536.133	82.4899	536.133	82.5604	536.133	81.7658	536.133	81.3195	536.133	81.2489	536.133	80.0097	536.133	80.9619	536.133	79.0036	536.133	80.7717	536.133	78.6555	536.133	80.461	536.133	78.8201	536.133	79.8002	536.133	78.9645	536.133	78.5926	536.133	78.6803	536.133	76.8245	536.133	77.9258	536.133	75.3117	536.133	77.3005	536.133	75.926	536.133	77.8867	536.133	78.1272	536.133	79.4983	536.133	80.1407	536.133	81.0101	536.133	81.4547	536.133	81.888	536.133	82.0351
555.176	84.469	555.176	84.2171	555.176	84.5755	555.176	83.8193	555.176	84.5284	555.176	83.2755	555.176	84.3091	555.176	82.6048	555.176	83.895	555.176	81.8666	555.176	83.267	555.176	81.1632	555.176	82.4057	555.176	80.5871	555.176	81.2671	555.176	80.123	555.176	79.7416	555.176	79.5917	555.176	77.6036	555.176	78.6953	555.176	74.4605	555.176	77.0859	555.176	69.9834	555.176	74.3846	555.176	68.0266	555.176	70.5713	555.176	71.8963	555.176	69.6231	555.176	75.1154	555.176	73.2531	555.176	77.1514	555.176	76.2341	555.176	78.3767	555.176	78.0099	555.176	78.9446	555.176	78.8531
574.219	85.8375	574.219	85.4705	574.219	86.0149	574.219	84.9304	574.219	85.9965	574.219	84.2487	574.219	85.7966	574.219	83.496	574.219	85.4573	574.219	82.8011	574.219	85.0356	574.219	82.3146	574.219	84.5678	574.219	82.094	574.219	84.0304	574.219	82.0063	574.219	83.3272	574.219	81.7797	574.219	82.3066	574.219	81.1338	574.219	80.7795	574.219	79.833	574.219	78.4882	574.219	77.6272	574.219	74.9516	574.219	74.1265	574.219	69.0337	574.219	69.2918	574.219	64.7964	574.219	69.2459	574.219	71.2772	574.219	73.3181	574.219	74.9426	574.219	75.8365	574.219	76.5986	574.219	76.86
594.727	87.7664	594.727	87.4513	594.727	87.7927	594.727	86.855	594.727	87.5457	594.727	86.0067	594.727	87.0692	594.727	84.966	594.727	86.4306	594.727	83.8348	594.727	85.7095	594.727	82.7519	594.727	84.9933	594.727	81.8541	594.727	84.3714	594.727	81.2159	594.727	83.8791	594.727	80.8007	594.727	83.4155	594.727	80.4359	594.727	82.7326	594.727	79.8214	594.727	81.4855	594.727	78.5772	594.727	79.2165	594.727	76.3265	594.727	75.1954	594.727	73.2544	594.727	69.647	594.727	72.6952	594.727	72.623	594.727	75.5552	594.727	76.7242	594.727	77.8722	594.727	78.5919	594.727	78.8905
615.234	88.4113	615.234	88.1941	615.234	88.4243	615.234	87.7782	615.234	88.2425	615.234	87.1902	615.234	87.879	615.234	86.4783	615.234	87.3394	615.234	85.702	615.234	86.6289	615.234	84.9084	615.234	85.7769	615.234	84.1066	615.234	84.8363	615.234	83.2532	615.234	83.8319	615.234	82.2517	615.234	82.7096	615.234	80.9606	615.234	81.3781	615.234	79.1902	615.234	79.8345	615.234	76.6552	615.234	78.2334	615.234	72.9359	615.234	76.7429	615.234	68.9739	615.234	75.5096	615.234	71.0968	615.234	75.1197	615.234	74.7989	615.234	75.985	615.234	76.8943	615.234	77.1397	615.234	77.5841
637.207	88.0208	637.207	87.7308	637.207	88.0824	637.207	87.2075	637.207	87.9748	637.207	86.5179	637.207	87.7611	637.207	85.7883	637.207	87.4447	637.207	85.1537	637.207	86.9633	637.207	84.6793	637.207	86.2581	637.207	84.3375	637.207	85.3509	637.207	84.0709	637.207	84.3533	637.207	83.8181	637.207	83.3654	637.207	83.4346	637.207	82.3048	637.207	82.6345	637.207	80.8385	637.207	81.0324	637.207	78.4624	637.207	78.1401	637.207	74.6234	637.207	73.034	637.207	70.5864	637.207	64.5969	637.207	72.4521	637.207	69.5045	637.207	75.1953	637.207	74.021	637.207	76.279	637.207	75.9259
659.18	88.431	659.18	88.2244	659.18	88.4431	659.18	87.7839	659.18	88.3012	659.18	87.1102	659.18	88.0089	659.18	86.2743	659.18	87.5474	659.18	85.4575	659.18	86.9417	659.18	84.9401	659.18	86.3004	659.18	84.8764	659.18	85.7618	659.18	85.0365	659.18	85.3458	659.18	84.9971	659.18	84.8888	659.18	84.4895	659.18	84.2151	659.18	83.4503	659.18	83.252	659.18	81.8603	659.18	81.8232	659.18	79.5589	659.18	79.4273	659.18	76.2343	659.18	75.4777	659.18	72.7749	659.18	72.9586	659.18	74.0712	659.18	76.1771	659.18	77.1346	659.18	78.4299	659.18	78.6769
682.617	90.9127	682.617	90.6932	682.617	90.7773	682.617	90.124	682.617	90.3062	682.617	89.2508	682.617	89.5526	682.617	88.1748	682.617	88.6302	682.617	87.0334	682.617	87.7195	682.617	85.9758	682.617	87.0439	682.617	85.1882	682.617	86.795	682.617	84.8576	682.617	86.9075	682.617	84.9298	682.617	86.9557	682.617	85.02	682.617	86.4818	682.617	84.6735	682.617	85.2838	682.617	83.5262	682.617	83.474	682.617	81.1957	682.617	81.4979	682.617	76.9854	682.617	79.9789	682.617	71.2732	682.617	79.3714	682.617	74.8217	682.617	79.7667	682.617	78.7875	682.617	80.453	682.617	80.3853
707.52	90.3248	707.52	90.0365	707.52	90.3438	707.52	89.4756	707.52	90.1586	707.52	88.72	707.52	89.8314	707.52	87.8781	707.52	89.3439	707.52	86.984	707.52	88.6049	707.52	86.0309	707.52	87.5655	707.52	85.2073	707.52	86.356	707.52	84.8343	707.52	85.3535	707.52	84.8371	707.52	84.8884	707.52	84.7586	707.52	84.6397	707.52	84.2458	707.52	83.8891	707.52	83.1875	707.52	82.0735	707.52	81.4748	707.52	78.7582	707.52	78.709	707.52	74.4377	707.52	74.2514	707.52	74.5691	707.52	71.2905	707.52	77.3297	707.52	75.2037	707.52	78.5404	707.52	77.912
732.422	90.0867	732.422	89.8159	732.422	90.0356	732.422	89.2568	732.422	89.6861	732.422	88.4682	732.422	89.0941	732.422	87.4848	732.422	88.3036	732.422	86.3353	732.422	87.3657	732.422	85.1516	732.422	86.3819	732.422	84.1915	732.422	85.4519	732.422	83.664	732.422	84.6094	732.422	83.5503	732.422	83.9251	732.422	83.5696	732.422	83.5654	732.422	83.3311	732.422	83.4311	732.422	82.5648	732.422	82.8978	732.422	81.099	732.422	81.1528	732.422	78.6966	732.422	77.4634	732.422	75.1994	732.422	72.9323	732.422	72.6164	732.422	74.4547	732.422	74.4178	732.422	76.5325	732.422	76.4006
757.324	90.0912	757.324	90.0234	757.324	90.0695	757.324	89.8098	757.324	89.9976	757.324	89.4168	757.324	89.8259	757.324	88.812	757.324	89.4265	757.324	87.9459	757.324	88.7026	757.324	86.8021	757.324	87.6628	757.324	85.4933	757.324	86.4208	757.324	84.2601	757.324	85.197	757.324	83.2489	757.324	84.0574	757.324	82.4492	757.324	82.4757	757.324	81.8197	757.324	79.8757	757.324	80.9783	757.324	77.0478	757.324	79.15	757.324	75.9749	757.324	75.6609	757.324	75.6555	757.324	72.6595	757.324	75.7408	757.324	75.3162	757.324	77.1553	757.324	77.9571	757.324	78.6075	757.324	78.9772
785.156	89.5254	785.156	89.3681	785.156	89.67	785.156	89.0947	785.156	89.7954	785.156	88.5987	785.156	89.7803	785.156	87.873	785.156	89.4933	785.156	87.0215	785.156	88.8916	785.156	86.1871	785.156	87.9897	785.156	85.507	785.156	86.7707	785.156	85.0705	785.156	85.3165	785.156	84.7885	785.156	84.1018	785.156	84.4705	785.156	83.582	785.156	83.9902	785.156	83.3471	785.156	83.3018	785.156	82.5605	785.156	82.3666	785.156	80.4627	785.156	80.892	785.156	76.6407	785.156	78.1785	785.156	74.3045	785.156	73.7197	785.156	76.5424	785.156	73.1324	785.156	77.6996	785.156	76.5283
811.523	89.9653	811.523	89.7225	811.523	89.8209	811.523	89.0862	811.523	89.4549	811.523	88.2713	811.523	89.0363	811.523	87.5356	811.523	88.6102	811.523	86.8662	811.523	88.0923	811.523	86.1151	811.523	87.3731	811.523	85.3469	811.523	86.4197	811.523	84.7584	811.523	85.2635	811.523	84.45	811.523	83.9428	811.523	84.296	811.523	82.5956	811.523	83.96	811.523	81.5242	811.523	83.1079	811.523	80.7946	811.523	81.4733	811.523	79.7829	811.523	78.729	811.523	77.607	811.523	74.7001	811.523	74.69	811.523	72.3168	811.523	74.7408	811.523	74.5666	811.523	76.2703	811.523	76.312
840.82	89.0456	840.82	88.5893	840.82	89.3561	840.82	88.148	840.82	89.4299	840.82	87.7973	840.82	89.22	840.82	87.3824	840.82	88.7104	840.82	86.7185	840.82	88.0355	840.82	85.9506	840.82	87.5139	840.82	85.566	840.82	87.3841	840.82	85.7883	840.82	87.5369	840.82	86.2797	840.82	87.6378	840.82	86.6003	840.82	87.3531	840.82	86.4664	840.82	86.4911	840.82	85.7314	840.82	84.9475	840.82	84.2649	840.82	82.3615	840.82	81.7419	840.82	78.1872	840.82	77.2517	840.82	75.4693	840.82	69.0124	840.82	77.6795	840.82	73.0032	840.82	78.7902	840.82	77.5779
870.117	90.3686	870.117	90.0942	870.117	90.0747	870.117	89.3198	870.117	89.2617	870.117	88.2372	870.117	88.0522	870.117	86.9466	870.117	86.6538	870.117	85.2	870.117	85.2609	870.117	82.6472	870.117	83.8003	870.117	79.2277	870.117	82.2673	870.117	76.2813	870.117	81.7638	870.117	78.2933	870.117	82.8931	870.117	81.6987	870.117	84.3447	870.117	83.5332	870.117	85.4597	870.117	83.8235	870.117	85.9273	870.117	82.9455	870.117	85.0446	870.117	81.4037	870.117	81.7233	870.117	79.4293	870.117	75.9778	870.117	76.4996	870.117	76.7271	870.117	73.8312	870.117	77.9289	870.117	76.0008
900.879	89.0036	900.879	88.0219	900.879	89.753	900.879	87.4772	900.879	89.9775	900.879	87.6197	900.879	89.7216	900.879	87.9045	900.879	89.029	900.879	87.6943	900.879	87.8671	900.879	86.4266	900.879	86.4467	900.879	83.627	900.879	85.2113	900.879	79.1046	900.879	84.2775	900.879	73.7416	900.879	83.6315	900.879	73.6341	900.879	83.6688	900.879	77.4555	900.879	83.6256	900.879	80.2919	900.879	82.1399	900.879	81.4783	900.879	79.6084	900.879	80.8199	900.879	77.8094	900.879	78.33	900.879	76.3814	900.879	75.1283	900.879	75.5909	900.879	74.8618	900.879	76.1079	900.879	76.106
933.105	89.2363	933.105	89.4409	933.105	88.5033	933.105	88.9929	933.105	87.7541	933.105	88.0955	933.105	87.4335	933.105	86.9714	933.105	87.3015	933.105	85.5997	933.105	86.8346	933.105	83.9529	933.105	85.8193	933.105	82.4304	933.105	84.0996	933.105	81.402	933.105	81.8871	933.105	80.69	933.105	80.1126	933.105	80.5755	933.105	79.2578	933.105	81.3484	933.105	79.9043	933.105	81.8162	933.105	81.5216	933.105	80.943	933.105	82.0262	933.105	78.3548	933.105	80.0905	933.105	73.3176	933.105	77.0078	933.105	68.3098	933.105	77.5795	933.105	73.9066	933.105	78.3689	933.105	77.2773
965.332	88.6502	965.332	88.3267	965.332	88.6316	965.332	87.6911	965.332	88.3749	965.332	86.796	965.332	87.9357	965.332	85.5107	965.332	87.3891	965.332	83.7147	965.332	86.9791	965.332	81.4554	965.332	86.7102	965.332	79.223	965.332	86.068	965.332	77.5971	965.332	84.6883	965.332	76.1916	965.332	83.11	965.332	74.4996	965.332	82.261	965.332	73.5473	965.332	81.2129	965.332	75.4913	965.332	78.8182	965.332	77.7531	965.332	76.4675	965.332	78.354	965.332	75.0143	965.332	77.1084	965.332	73.3526	965.332	75.2121	965.332	73.0808	965.332	74.825	965.332	74.4012	965.332	75.1234
1,000.49	88.1323	1,000.49	87.555	1,000.49	88.2026	1,000.49	86.7354	1,000.49	87.7707	1,000.49	86.2288	1,000.49	86.7726	1,000.49	85.84	1,000.49	85.3203	1,000.49	84.7709	1,000.49	83.7774	1,000.49	82.9283	1,000.49	82.3803	1,000.49	81.1185	1,000.49	81.4547	1,000.49	79.8378	1,000.49	81.1672	1,000.49	78.7779	1,000.49	80.6545	1,000.49	78.1063	1,000.49	79.5549	1,000.49	78.479	1,000.49	80.0251	1,000.49	79.1464	1,000.49	81.8479	1,000.49	78.9276	1,000.49	81.8457	1,000.49	77.7206	1,000.49	78.6139	1,000.49	75.9853	1,000.49	73.963	1,000.49	73.5702	1,000.49	74.7404	1,000.49	71.8877	1,000.49	75.1853	1,000.49	73.6782
1,035.64	87.5557	1,035.64	87.1984	1,035.64	87.5591	1,035.64	86.6557	1,035.64	87.1311	1,035.64	85.9939	1,035.64	86.3496	1,035.64	84.9109	1,035.64	85.4688	1,035.64	83.0916	1,035.64	84.8057	1,035.64	81.3842	1,035.64	84.3876	1,035.64	81.0204	1,035.64	83.696	1,035.64	80.6165	1,035.64	82.2661	1,035.64	78.159	1,035.64	81.1688	1,035.64	72.4353	1,035.64	81.4935	1,035.64	65.545	1,035.64	81.5698	1,035.64	73.1968	1,035.64	80.4425	1,035.64	77.8119	1,035.64	78.915	1,035.64	79.1756	1,035.64	77.2787	1,035.64	77.4909	1,035.64	75.5334	1,035.64	72.847	1,035.64	76.4707	1,035.64	73.4844	1,035.64	78.0226	1,035.64	77.291
1,072.27	84.3174	1,072.27	83.3719	1,072.27	85.4908	1,072.27	83.7883	1,072.27	86.0473	1,072.27	84.829	1,072.27	85.6879	1,072.27	85.1482	1,072.27	84.4408	1,072.27	84.5509	1,072.27	82.4238	1,072.27	83.5989	1,072.27	79.4468	1,072.27	82.4556	1,072.27	75.514	1,072.27	80.5754	1,072.27	71.7546	1,072.27	78.4438	1,072.27	71.0667	1,072.27	77.0962	1,072.27	74.6737	1,072.27	75.8471	1,072.27	78.666	1,072.27	73.2411	1,072.27	80.9726	1,072.27	70.988	1,072.27	80.7977	1,072.27	73.4422	1,072.27	77.5558	1,072.27	75.2722	1,072.27	73.1962	1,072.27	74.3903	1,072.27	73.1589	1,072.27	71.1931	1,072.27	72.1116	1,072.27	69.7207
1,108.89	83.9215	1,108.89	83.3549	1,108.89	84.2518	1,108.89	82.7933	1,108.89	84.1133	1,108.89	82.1641	1,108.89	83.4527	1,108.89	81.2356	1,108.89	82.5384	1,108.89	80.19	1,108.89	82.0883	1,108.89	79.8083	1,108.89	82.2576	1,108.89	80.3655	1,108.89	82.3678	1,108.89	81.1301	1,108.89	81.8917	1,108.89	80.6981	1,108.89	80.4603	1,108.89	78.0923	1,108.89	78.0011	1,108.89	73.0069	1,108.89	74.5659	1,108.89	64.891	1,108.89	71.0861	1,108.89	69.5746	1,108.89	70.6503	1,108.89	72.4247	1,108.89	71.3552	1,108.89	68.4799	1,108.89	70.9612	1,108.89	64.2532	1,108.89	71.7044	1,108.89	73.1986	1,108.89	74.5964	1,108.89	75.6606
1,148.44	84.5202	1,148.44	85.4605	1,148.44	84.0402	1,148.44	85.7732	1,148.44	84.6934	1,148.44	85.0022	1,148.44	85.519	1,148.44	82.9506	1,148.44	85.6643	1,148.44	80.2876	1,148.44	84.9602	1,148.44	79.3806	1,148.44	83.2191	1,148.44	79.7671	1,148.44	80.6779	1,148.44	79.8943	1,148.44	77.7173	1,148.44	80.2294	1,148.44	73.3623	1,148.44	80.3593	1,148.44	72.5521	1,148.44	79.9257	1,148.44	74.9647	1,148.44	78.7829	1,148.44	75.1082	1,148.44	76.4316	1,148.44	74.5125	1,148.44	72.9182	1,148.44	72.8053	1,148.44	67.858	1,148.44	69.8763	1,148.44	61.4021	1,148.44	72.5324	1,148.44	67.4017	1,148.44	74.2859	1,148.44	72.3362
1,189.45	86.2938	1,189.45	85.8857	1,189.45	85.8588	1,189.45	84.6574	1,189.45	84.9623	1,189.45	83.3261	1,189.45	83.903	1,189.45	82.4491	1,189.45	82.824	1,189.45	81.9887	1,189.45	81.5889	1,189.45	81.7722	1,189.45	80.1191	1,189.45	81.2192	1,189.45	79.2479	1,189.45	80.2807	1,189.45	79.1437	1,189.45	79.7325	1,189.45	78.0178	1,189.45	79.6168	1,189.45	76.0471	1,189.45	78.6017	1,189.45	76.4993	1,189.45	74.9644	1,189.45	78.751	1,189.45	63.3019	1,189.45	78.4938	1,189.45	69.6911	1,189.45	76.9291	1,189.45	74.5965	1,189.45	76.5505	1,189.45	74.2227	1,189.45	75.9892	1,189.45	66.8259	1,189.45	74.4251	1,189.45	66.7889
1,230.47	86.4793	1,230.47	86.0565	1,230.47	86.1097	1,230.47	84.9901	1,230.47	85.1911	1,230.47	83.745	1,230.47	84.2789	1,230.47	82.8469	1,230.47	83.8104	1,230.47	82.6741	1,230.47	83.507	1,230.47	82.2581	1,230.47	83.0816	1,230.47	80.1436	1,230.47	81.9968	1,230.47	76.2476	1,230.47	79.5483	1,230.47	73.3479	1,230.47	76.4186	1,230.47	75.165	1,230.47	73.5183	1,230.47	77.8778	1,230.47	72.0299	1,230.47	78.4809	1,230.47	71.2604	1,230.47	76.3288	1,230.47	71.3395	1,230.47	72.3972	1,230.47	70.6814	1,230.47	70.6624	1,230.47	67.7861	1,230.47	70.5211	1,230.47	70.0123	1,230.47	71.6182	1,230.47	71.934	1,230.47	72.4226
1,274.41	85.6063	1,274.41	85.3281	1,274.41	85.6445	1,274.41	84.9134	1,274.41	85.2535	1,274.41	84.1001	1,274.41	84.47	1,274.41	82.538	1,274.41	83.8135	1,274.41	80.8541	1,274.41	83.0648	1,274.41	79.812	1,274.41	81.3902	1,274.41	78.3269	1,274.41	79.1198	1,274.41	76.2459	1,274.41	77.1704	1,274.41	74.7257	1,274.41	75.5654	1,274.41	72.2286	1,274.41	73.1246	1,274.41	72.6111	1,274.41	72.15	1,274.41	75.5896	1,274.41	75.5079	1,274.41	75.637	1,274.41	75.7212	1,274.41	73.2082	1,274.41	70.9052	1,274.41	70.3651	1,274.41	63.1716	1,274.41	69.6749	1,274.41	67.1299	1,274.41	71.2528	1,274.41	70.0312	1,274.41	71.5802
1,319.82	84.8442	1,319.82	84.8139	1,319.82	85.2351	1,319.82	85.0526	1,319.82	85.4044	1,319.82	84.7862	1,319.82	84.8111	1,319.82	83.5003	1,319.82	83.1176	1,319.82	81.2815	1,319.82	80.8416	1,319.82	78.3938	1,319.82	79.564	1,319.82	75.0802	1,319.82	78.4781	1,319.82	73.6898	1,319.82	76.2671	1,319.82	75.9079	1,319.82	74.9765	1,319.82	76.8231	1,319.82	72.9272	1,319.82	75.7133	1,319.82	69.8184	1,319.82	75.5326	1,319.82	70.1235	1,319.82	74.592	1,319.82	69.3912	1,319.82	71.3029	1,319.82	70.953	1,319.82	69.0861	1,319.82	70.7673	1,319.82	68.7327	1,319.82	71.5649	1,319.82	69.3942	1,319.82	71.8694	1,319.82	70.4833
1,366.7	85.4472	1,366.7	85.6388	1,366.7	85.1859	1,366.7	85.2517	1,366.7	84.944	1,366.7	83.8181	1,366.7	84.6852	1,366.7	82.2173	1,366.7	84.3613	1,366.7	82.2723	1,366.7	83.5357	1,366.7	82.4807	1,366.7	82.107	1,366.7	81.3674	1,366.7	79.948	1,366.7	78.8785	1,366.7	78.0666	1,366.7	72.5988	1,366.7	79.2898	1,366.7	66.8654	1,366.7	79.4414	1,366.7	72.076	1,366.7	76.8396	1,366.7	72.5185	1,366.7	71.6015	1,366.7	72.843	1,366.7	56.2851	1,366.7	74.2149	1,366.7	66.0478	1,366.7	74.7865	1,366.7	62.0021	1,366.7	71.1645	1,366.7	66.6328	1,366.7	67.5098	1,366.7	72.4729	1,366.7	71.8236
1,413.57	86.521	1,413.57	85.8413	1,413.57	86.4751	1,413.57	85.0664	1,413.57	85.6469	1,413.57	84.774	1,413.57	84.268	1,413.57	84.6457	1,413.57	83.0723	1,413.57	84.3253	1,413.57	82.6387	1,413.57	83.3308	1,413.57	82.6369	1,413.57	81.9303	1,413.57	82.2193	1,413.57	81.5019	1,413.57	80.412	1,413.57	80.6695	1,413.57	77.5662	1,413.57	78.137	1,413.57	77.008	1,413.57	73.8419	1,413.57	76.3808	1,413.57	71.7981	1,413.57	74.7016	1,413.57	73.9915	1,413.57	72.2588	1,413.57	72.8444	1,413.57	61.9353	1,413.57	70.9872	1,413.57	61.2716	1,413.57	65.8906	1,413.57	60.1777	1,413.57	67.178	1,413.57	68.7769	1,413.57	71.8225
1,463.38	86.716	1,463.38	86.2101	1,463.38	86.9718	1,463.38	86.0038	1,463.38	86.4265	1,463.38	85.7703	1,463.38	84.8536	1,463.38	84.6694	1,463.38	82.6257	1,463.38	82.9521	1,463.38	81.3305	1,463.38	81.2527	1,463.38	81.8767	1,463.38	80.374	1,463.38	82.0219	1,463.38	81.447	1,463.38	80.3423	1,463.38	81.6046	1,463.38	78.0482	1,463.38	79.4685	1,463.38	78.8397	1,463.38	76.2994	1,463.38	78.0571	1,463.38	74.2426	1,463.38	77.5303	1,463.38	75.7213	1,463.38	76.2777	1,463.38	73.5163	1,463.38	69.6829	1,463.38	66.5035	1,463.38	66.2723	1,463.38	68.5206	1,463.38	54.1016	1,463.38	67.5699	1,463.38	68.0522	1,463.38	67.4912
1,516.11	86.4557	1,516.11	86.6951	1,516.11	86.3524	1,516.11	86.2668	1,516.11	86.0937	1,516.11	84.5284	1,516.11	85.2509	1,516.11	82.972	1,516.11	83.7402	1,516.11	82.5027	1,516.11	82.1256	1,516.11	81.2438	1,516.11	80.8008	1,516.11	80.2414	1,516.11	79.7604	1,516.11	79.8791	1,516.11	79.6988	1,516.11	78.386	1,516.11	78.592	1,516.11	77.5245	1,516.11	72.4522	1,516.11	77.1541	1,516.11	47.7274	1,516.11	71.7605	1,516.11	55.5497	1,516.11	59.6988	1,516.11	66.172	1,516.11	70.9675	1,516.11	70.2513	1,516.11	74.2964	1,516.11	70.5343	1,516.11	70.0913	1,516.11	68.1024	1,516.11	64.454	1,516.11	73.1363	1,516.11	72.7871
1,568.85	86.3874	1,568.85	86.1788	1,568.85	86.347	1,568.85	85.5005	1,568.85	85.7469	1,568.85	85.7824	1,568.85	84.4126	1,568.85	85.942	1,568.85	83.5673	1,568.85	83.8587	1,568.85	83.8661	1,568.85	80.9021	1,568.85	84.4213	1,568.85	79.7683	1,568.85	84.1071	1,568.85	77.7453	1,568.85	82.4287	1,568.85	75.5123	1,568.85	78.697	1,568.85	75.8975	1,568.85	73.4176	1,568.85	76.8867	1,568.85	70.4229	1,568.85	75.3505	1,568.85	64.7756	1,568.85	71.0736	1,568.85	65.1811	1,568.85	72.773	1,568.85	72.4976	1,568.85	74.4436	1,568.85	71.344	1,568.85	71.6275	1,568.85	64.268	1,568.85	68.6879	1,568.85	69.3712	1,568.85	72.7299
1,624.51	84.9146	1,624.51	84.532	1,624.51	85.7251	1,624.51	85.9167	1,624.51	85.7371	1,624.51	87.2163	1,624.51	84.5921	1,624.51	85.5992	1,624.51	81.9818	1,624.51	80.0713	1,624.51	81.8443	1,624.51	78.1298	1,624.51	83.6342	1,624.51	79.1611	1,624.51	83.358	1,624.51	76.7979	1,624.51	82.713	1,624.51	77.27	1,624.51	80.2261	1,624.51	78.0008	1,624.51	76.3825	1,624.51	77.4452	1,624.51	76.2473	1,624.51	76.0403	1,624.51	72.0479	1,624.51	72.7344	1,624.51	67.5251	1,624.51	66.4445	1,624.51	74.0939	1,624.51	72.0458	1,624.51	71.54	1,624.51	73.5184	1,624.51	68.0349	1,624.51	60.7199	1,624.51	72.6914	1,624.51	72.1197
1,681.64	84.9283	1,681.64	84.9487	1,681.64	85.5689	1,681.64	85.9492	1,681.64	85.5302	1,681.64	85.2051	1,681.64	84.9945	1,681.64	81.0601	1,681.64	83.5953	1,681.64	80.6957	1,681.64	80.9203	1,681.64	83.7351	1,681.64	80.1422	1,681.64	83.6935	1,681.64	81.7732	1,681.64	80.1796	1,681.64	82.2168	1,681.64	76.9782	1,681.64	81.0959	1,681.64	75.1724	1,681.64	79.0152	1,681.64	76.9475	1,681.64	77.2851	1,681.64	79.5412	1,681.64	75.0601	1,681.64	79.412	1,681.64	77.7785	1,681.64	74.3452	1,681.64	76.4159	1,681.64	60.7571	1,681.64	75.9311	1,681.64	72.3172	1,681.64	69.503	1,681.64	71.0835	1,681.64	73.0437	1,681.64	69.2634
1,741.7	86.0872	1,741.7	85.2674	1,741.7	85.3079	1,741.7	84.7003	1,741.7	83.7262	1,741.7	85.1385	1,741.7	84.2455	1,741.7	84.9921	1,741.7	85.3039	1,741.7	84.5684	1,741.7	84.191	1,741.7	85.301	1,741.7	79.7414	1,741.7	84.4798	1,741.7	75.6955	1,741.7	80.8524	1,741.7	79.5153	1,741.7	78.0622	1,741.7	79.6741	1,741.7	70.4132	1,741.7	79.711	1,741.7	74.3095	1,741.7	78.374	1,741.7	78.9019	1,741.7	73.0906	1,741.7	76.869	1,741.7	73.2198	1,741.7	70.0698	1,741.7	67.1038	1,741.7	70.4327	1,741.7	71.6636	1,741.7	74.648	1,741.7	70.2622	1,741.7	63.9986	1,741.7	75.0651	1,741.7	71.7139
1,803.22	86.1267	1,803.22	85.9854	1,803.22	85.4075	1,803.22	85.6756	1,803.22	84.652	1,803.22	85.2956	1,803.22	84.4724	1,803.22	84.9402	1,803.22	84.422	1,803.22	85.6456	1,803.22	84.2598	1,803.22	83.7547	1,803.22	81.1448	1,803.22	79.4243	1,803.22	77.2507	1,803.22	77.951	1,803.22	79.1752	1,803.22	78.6575	1,803.22	80.7987	1,803.22	74.0847	1,803.22	80.7456	1,803.22	70.2649	1,803.22	78.5249	1,803.22	80.1565	1,803.22	77.2191	1,803.22	80.613	1,803.22	77.1867	1,803.22	74.5588	1,803.22	70.5811	1,803.22	70.9033	1,803.22	75.1441	1,803.22	76.5568	1,803.22	73.3037	1,803.22	70.6259	1,803.22	75.7891	1,803.22	71.8184
1,866.21	86.3399	1,866.21	86.0966	1,866.21	86.9374	1,866.21	87.1075	1,866.21	86.7074	1,866.21	86.6538	1,866.21	86.2779	1,866.21	85.0574	1,866.21	85.582	1,866.21	85.4534	1,866.21	84.6244	1,866.21	84.4521	1,866.21	82.3734	1,866.21	80.7532	1,866.21	77.232	1,866.21	80.3536	1,866.21	77.2672	1,866.21	79.9239	1,866.21	79.3406	1,866.21	76.5683	1,866.21	78.2746	1,866.21	52.4412	1,866.21	78.4465	1,866.21	75.6691	1,866.21	79.3362	1,866.21	78.9088	1,866.21	76.7263	1,866.21	77.4621	1,866.21	71.5142	1,866.21	56.7571	1,866.21	70.2357	1,866.21	73.4967	1,866.21	72.3497	1,866.21	71.8085	1,866.21	72.7862	1,866.21	66.6778
1,932.13	84.6862	1,932.13	85.972	1,932.13	86.13	1,932.13	87.424	1,932.13	86.88	1,932.13	87.1141	1,932.13	84.0825	1,932.13	84.6708	1,932.13	82.824	1,932.13	82.2616	1,932.13	86.6803	1,932.13	79.823	1,932.13	86.5388	1,932.13	76.3653	1,932.13	80.5476	1,932.13	75.7751	1,932.13	67.1924	1,932.13	77.8678	1,932.13	72.1694	1,932.13	79.3365	1,932.13	78.1299	1,932.13	71.8354	1,932.13	79.3897	1,932.13	71.9751	1,932.13	77.3223	1,932.13	77.5979	1,932.13	77.5148	1,932.13	78.9992	1,932.13	65.9484	1,932.13	73.5669	1,932.13	79.044	1,932.13	70.8501	1,932.13	70.236	1,932.13	74.3511	1,932.13	73.6441	1,932.13	60.2518
1,999.51	87.0414	1,999.51	86.1801	1,999.51	86.06	1,999.51	85.5141	1,999.51	85.0518	1,999.51	86.9795	1,999.51	85.6132	1,999.51	86.4306	1,999.51	85.6924	1,999.51	84.8931	1,999.51	84.9784	1,999.51	83.8833	1,999.51	84.2486	1,999.51	80.7212	1,999.51	82.2625	1,999.51	79.017	1,999.51	79.9472	1,999.51	78.8391	1,999.51	76.9216	1,999.51	78.7916	1,999.51	76.4846	1,999.51	72.6479	1,999.51	77.5795	1,999.51	74.0212	1,999.51	75.0937	1,999.51	75.7135	1,999.51	68.1492	1,999.51	73.7278	1,999.51	68.2959	1,999.51	74.2729	1,999.51	70.5006	1,999.51	71.4298	1,999.51	68.5686	1,999.51	66.6119	1,999.51	72.8426	1,999.51	69.6306
2,069.82	87.2959	2,069.82	86.3228	2,069.82	86.815	2,069.82	86.917	2,069.82	85.6972	2,069.82	86.7613	2,069.82	85.7669	2,069.82	84.3076	2,069.82	85.1464	2,069.82	83.3118	2,069.82	84.2746	2,069.82	82.7256	2,069.82	84.4209	2,069.82	82.6019	2,069.82	83.8028	2,069.82	81.5567	2,069.82	81.8331	2,069.82	78.1336	2,069.82	80.6137	2,069.82	77.1976	2,069.82	79.121	2,069.82	74.2414	2,069.82	74.9136	2,069.82	71.6661	2,069.82	73.9283	2,069.82	77.5233	2,069.82	70.544	2,069.82	73.0759	2,069.82	70.3946	2,069.82	75.2409	2,069.82	72.8382	2,069.82	75.272	2,069.82	66.0498	2,069.82	69.0077	2,069.82	73.3355	2,069.82	72.7726
2,143.07	87.3599	2,143.07	87.6797	2,143.07	87.7135	2,143.07	88.7935	2,143.07	87.1933	2,143.07	87.447	2,143.07	86.5813	2,143.07	85.3861	2,143.07	86.1244	2,143.07	84.1105	2,143.07	85.299	2,143.07	83.176	2,143.07	83.1691	2,143.07	81.8943	2,143.07	83.4358	2,143.07	78.2242	2,143.07	82.5788	2,143.07	78.7058	2,143.07	79.5158	2,143.07	76.232	2,143.07	79.0845	2,143.07	74.8009	2,143.07	74.7867	2,143.07	64.2207	2,143.07	71.64	2,143.07	74.7505	2,143.07	73.0376	2,143.07	71.9188	2,143.07	60.7145	2,143.07	70.1887	2,143.07	69.1023	2,143.07	74.2587	2,143.07	66.521	2,143.07	67.7294	2,143.07	69.8212	2,143.07	69.0232
2,219.24	87.8249	2,219.24	87.8926	2,219.24	88.2582	2,219.24	88.5937	2,219.24	87.5371	2,219.24	87.7376	2,219.24	86.5497	2,219.24	86.4582	2,219.24	86.2724	2,219.24	85.5339	2,219.24	85.6934	2,219.24	83.5743	2,219.24	83.6816	2,219.24	82.914	2,219.24	81.399	2,219.24	82.0393	2,219.24	79.1594	2,219.24	77.0206	2,219.24	77.2345	2,219.24	77.137	2,219.24	76.1059	2,219.24	76.4783	2,219.24	74.3884	2,219.24	69.982	2,219.24	68.0863	2,219.24	70.031	2,219.24	72.852	2,219.24	73.5369	2,219.24	67.1894	2,219.24	62.28	2,219.24	62.7264	2,219.24	72.6051	2,219.24	65.8723	2,219.24	67.8708	2,219.24	69.075	2,219.24	65.6522
2,296.88	86.9843	2,296.88	87.2656	2,296.88	87.7362	2,296.88	87.8149	2,296.88	87.2809	2,296.88	87.2177	2,296.88	86.5406	2,296.88	87.4528	2,296.88	86.1414	2,296.88	85.6308	2,296.88	86.6642	2,296.88	83.9879	2,296.88	85.4878	2,296.88	81.5663	2,296.88	82.4302	2,296.88	76.7689	2,296.88	80.912	2,296.88	77.3386	2,296.88	80.6342	2,296.88	75.8401	2,296.88	75.3928	2,296.88	75.7586	2,296.88	67.118	2,296.88	72.3882	2,296.88	71.4215	2,296.88	65.6848	2,296.88	73.4327	2,296.88	73.4682	2,296.88	70.0341	2,296.88	61.1122	2,296.88	59.0674	2,296.88	71.5003	2,296.88	57.8536	2,296.88	69.3231	2,296.88	71.3812	2,296.88	69.8486
2,378.91	86.0866	2,378.91	87.3717	2,378.91	87.2318	2,378.91	87.2931	2,378.91	87.9468	2,378.91	87.6345	2,378.91	87.2826	2,378.91	87.8716	2,378.91	86.0713	2,378.91	85.3894	2,378.91	86.1877	2,378.91	83.0333	2,378.91	85.1755	2,378.91	81.3316	2,378.91	84.3275	2,378.91	82.7058	2,378.91	83.9999	2,378.91	79.9712	2,378.91	81.0303	2,378.91	78.2183	2,378.91	77.1544	2,378.91	74.8075	2,378.91	73.8923	2,378.91	75.1178	2,378.91	69.5093	2,378.91	69.714	2,378.91	72.4798	2,378.91	74.713	2,378.91	72.809	2,378.91	70.7215	2,378.91	69.9614	2,378.91	69.0229	2,378.91	59.3834	2,378.91	69.0997	2,378.91	71.7309	2,378.91	70.3379
2,462.4	87.0767	2,462.4	87.0446	2,462.4	86.5017	2,462.4	87.8343	2,462.4	87.5129	2,462.4	87.9432	2,462.4	87.7442	2,462.4	86.3558	2,462.4	86.177	2,462.4	83.4561	2,462.4	85.5743	2,462.4	82.8238	2,462.4	85.209	2,462.4	82.8326	2,462.4	83.4469	2,462.4	77.9486	2,462.4	79.769	2,462.4	78.3638	2,462.4	79.1866	2,462.4	75.859	2,462.4	71.5904	2,462.4	75.1569	2,462.4	70.9568	2,462.4	73.218	2,462.4	72.1343	2,462.4	72.0243	2,462.4	74.5428	2,462.4	72.269	2,462.4	71.1464	2,462.4	72.559	2,462.4	69.9065	2,462.4	66.3568	2,462.4	63.4045	2,462.4	68.5328	2,462.4	70.8407	2,462.4	70.4439
2,548.83	88.7056	2,548.83	88.5038	2,548.83	87.774	2,548.83	88.7273	2,548.83	87.7048	2,548.83	87.8617	2,548.83	87.5554	2,548.83	84.7491	2,548.83	86.6233	2,548.83	84.9442	2,548.83	85.6755	2,548.83	84.1755	2,548.83	83.7762	2,548.83	82.3086	2,548.83	81.8886	2,548.83	81.9329	2,548.83	81.8316	2,548.83	76.8799	2,548.83	79.1414	2,548.83	76.1867	2,548.83	73.596	2,548.83	76.5624	2,548.83	73.325	2,548.83	71.7475	2,548.83	73.5136	2,548.83	74.7763	2,548.83	73.4106	2,548.83	69.9697	2,548.83	68.7742	2,548.83	73.1952	2,548.83	70.3859	2,548.83	65.0696	2,548.83	61.1927	2,548.83	67.4364	2,548.83	70.5559	2,548.83	68.5172
2,639.65	86.9989	2,639.65	87.5266	2,639.65	87.4193	2,639.65	87.8725	2,639.65	87.7016	2,639.65	86.9547	2,639.65	87.0327	2,639.65	86.8834	2,639.65	87.3052	2,639.65	86.3891	2,639.65	86.3287	2,639.65	84.7089	2,639.65	84.1493	2,639.65	82.19	2,639.65	83.5088	2,639.65	79.0204	2,639.65	82.1614	2,639.65	79.0719	2,639.65	74.1663	2,639.65	77.1584	2,639.65	72.4019	2,639.65	76.4732	2,639.65	77.7333	2,639.65	72.8225	2,639.65	70.2905	2,639.65	73.0183	2,639.65	73.464	2,639.65	73.2392	2,639.65	68.5786	2,639.65	70.2127	2,639.65	66.7934	2,639.65	69.0021	2,639.65	67.8954	2,639.65	64.9271	2,639.65	73.13	2,639.65	70.4686
2,731.93	85.7276	2,731.93	86.6578	2,731.93	85.8485	2,731.93	86.8957	2,731.93	87.007	2,731.93	86.855	2,731.93	86.8048	2,731.93	87.6756	2,731.93	87.2921	2,731.93	87.381	2,731.93	86.4662	2,731.93	85.8546	2,731.93	85.2705	2,731.93	82.9676	2,731.93	83.0633	2,731.93	83.4131	2,731.93	78.7606	2,731.93	80.7301	2,731.93	75.244	2,731.93	78.6775	2,731.93	78.1747	2,731.93	76.2229	2,731.93	77.551	2,731.93	72.0728	2,731.93	70.9492	2,731.93	74.9738	2,731.93	69.3976	2,731.93	75.6995	2,731.93	66.7443	2,731.93	72.06	2,731.93	69.0642	2,731.93	69.7418	2,731.93	62.9066	2,731.93	71.0125	2,731.93	72.2652	2,731.93	70.2306
2,828.61	85.8837	2,828.61	86.4653	2,828.61	86.0792	2,828.61	86.3755	2,828.61	87.0658	2,828.61	86.4129	2,828.61	86.3434	2,828.61	85.612	2,828.61	86.9671	2,828.61	85.644	2,828.61	86.2011	2,828.61	84.3892	2,828.61	84.8111	2,828.61	83.008	2,828.61	84.4303	2,828.61	81.6348	2,828.61	81.0026	2,828.61	79.0472	2,828.61	77.8186	2,828.61	74.6208	2,828.61	80.6762	2,828.61	73.933	2,828.61	75.892	2,828.61	72.8699	2,828.61	69.1527	2,828.61	71.5627	2,828.61	59.8792	2,828.61	72.6923	2,828.61	67.0036	2,828.61	70.2075	2,828.61	66.4417	2,828.61	65.468	2,828.61	65.0113	2,828.61	68.1723	2,828.61	73.2629	2,828.61	72.995
2,928.22	85.5183	2,928.22	85.3211	2,928.22	85.9277	2,928.22	85.6957	2,928.22	86.4639	2,928.22	86.3434	2,928.22	86.3195	2,928.22	86.3717	2,928.22	85.9429	2,928.22	86.4049	2,928.22	85.2227	2,928.22	84.7654	2,928.22	84.4769	2,928.22	84.3154	2,928.22	83.6431	2,928.22	80.3166	2,928.22	79.2208	2,928.22	75.2139	2,928.22	82.7571	2,928.22	77.3318	2,928.22	81.0253	2,928.22	74.2883	2,928.22	72.9567	2,928.22	71.4195	2,928.22	68.3472	2,928.22	72.2919	2,928.22	69.1725	2,928.22	72.9631	2,928.22	67.5164	2,928.22	71.8824	2,928.22	67.2663	2,928.22	66.1214	2,928.22	66.6572	2,928.22	65.1746	2,928.22	72.4686	2,928.22	71.8463
3,030.76	85.6149	3,030.76	84.6066	3,030.76	85.3689	3,030.76	84.5381	3,030.76	85.2018	3,030.76	85.4732	3,030.76	86.3922	3,030.76	86.936	3,030.76	85.7518	3,030.76	85.1214	3,030.76	84.7724	3,030.76	85.5772	3,030.76	83.1335	3,030.76	83.2563	3,030.76	81.8398	3,030.76	79.6253	3,030.76	80.0874	3,030.76	79.3137	3,030.76	83.3155	3,030.76	76.9054	3,030.76	79.7321	3,030.76	75.5219	3,030.76	71.7451	3,030.76	67.7406	3,030.76	71.8787	3,030.76	70.3627	3,030.76	71.8323	3,030.76	70.7712	3,030.76	65.3426	3,030.76	71.0597	3,030.76	69.2017	3,030.76	60.4936	3,030.76	67.9159	3,030.76	66.3837	3,030.76	72.2656	3,030.76	68.0731
3,137.7	87.0301	3,137.7	85.5414	3,137.7	86.8399	3,137.7	85.1424	3,137.7	85.9783	3,137.7	86.5579	3,137.7	86.1671	3,137.7	86.3617	3,137.7	85.7771	3,137.7	85.532	3,137.7	85.1102	3,137.7	84.1917	3,137.7	83.8938	3,137.7	80.6973	3,137.7	81.2276	3,137.7	81.1138	3,137.7	82.8925	3,137.7	78.7135	3,137.7	83.1831	3,137.7	73.4757	3,137.7	76.0577	3,137.7	74.5668	3,137.7	77.7022	3,137.7	70.4627	3,137.7	71.7031	3,137.7	71.725	3,137.7	69.5694	3,137.7	69.505	3,137.7	66.818	3,137.7	70.7102	3,137.7	66.4912	3,137.7	61.6407	3,137.7	68.947	3,137.7	61.0642	3,137.7	70.9499	3,137.7	69.3324
3,249.02	85.3727	3,249.02	84.1422	3,249.02	86.6149	3,249.02	84.814	3,249.02	86.5863	3,249.02	86.3567	3,249.02	85.8885	3,249.02	86.0687	3,249.02	85.4335	3,249.02	85.2891	3,249.02	84.4371	3,249.02	81.6024	3,249.02	82.9756	3,249.02	81.0367	3,249.02	82.1723	3,249.02	80.6288	3,249.02	84.7562	3,249.02	72.5151	3,249.02	82.8039	3,249.02	74.5212	3,249.02	76.8724	3,249.02	73.545	3,249.02	77.3028	3,249.02	72.712	3,249.02	74.0169	3,249.02	67.8677	3,249.02	71.3527	3,249.02	72.5368	3,249.02	69.9135	3,249.02	67.476	3,249.02	70.3903	3,249.02	67.287	3,249.02	68.7957	3,249.02	67.096	3,249.02	68.1588	3,249.02	66.0959
3,363.28	83.5716	3,363.28	83.8357	3,363.28	84.2118	3,363.28	84.5365	3,363.28	85.39	3,363.28	85.8954	3,363.28	85.0527	3,363.28	85.033	3,363.28	84.261	3,363.28	83.6536	3,363.28	83.9783	3,363.28	81.732	3,363.28	84.7674	3,363.28	80.6087	3,363.28	83.8944	3,363.28	74.6865	3,363.28	83.3406	3,363.28	76.6851	3,363.28	78.1011	3,363.28	76.3276	3,363.28	75.1026	3,363.28	71.1362	3,363.28	75.2436	3,363.28	71.2122	3,363.28	73.7204	3,363.28	68.3097	3,363.28	66.8458	3,363.28	74.5419	3,363.28	72.0361	3,363.28	67.207	3,363.28	69.4889	3,363.28	70.0685	3,363.28	64.9245	3,363.28	70.3042	3,363.28	62.9467	3,363.28	60.8645
3,481.93	85.2027	3,481.93	83.2989	3,481.93	86.2367	3,481.93	85.3972	3,481.93	85.1984	3,481.93	85.9354	3,481.93	84.4432	3,481.93	84.836	3,481.93	84.4227	3,481.93	83.8222	3,481.93	83.23	3,481.93	82.5249	3,481.93	84.6629	3,481.93	80.0023	3,481.93	83.6084	3,481.93	78.5833	3,481.93	80.4142	3,481.93	78.0968	3,481.93	67.7223	3,481.93	72.7622	3,481.93	68.9115	3,481.93	73.865	3,481.93	72.1891	3,481.93	70.8331	3,481.93	71.1706	3,481.93	67.1765	3,481.93	70.8407	3,481.93	73.7509	3,481.93	72.304	3,481.93	70.3686	3,481.93	70.8705	3,481.93	69.0697	3,481.93	69.6887	3,481.93	70.3337	3,481.93	65.9934	3,481.93	60.1923
3,604.98	83.8523	3,604.98	83.6004	3,604.98	86.4503	3,604.98	85.8538	3,604.98	85.9799	3,604.98	86.0664	3,604.98	83.8206	3,604.98	84.376	3,604.98	83.3909	3,604.98	82.6105	3,604.98	84.9488	3,604.98	81.7168	3,604.98	84.7249	3,604.98	80.8148	3,604.98	83.0225	3,604.98	81.371	3,604.98	70.1038	3,604.98	76.3413	3,604.98	75.6693	3,604.98	74.6779	3,604.98	68.5892	3,604.98	72.5286	3,604.98	44.8796	3,604.98	71.1053	3,604.98	70.6185	3,604.98	66.707	3,604.98	70.3628	3,604.98	73.1789	3,604.98	69.5112	3,604.98	68.9081	3,604.98	67.0591	3,604.98	68.3041	3,604.98	70.5481	3,604.98	68.924	3,604.98	65.0644	3,604.98	58.983
3,732.42	83.4601	3,732.42	84.7823	3,732.42	85.9032	3,732.42	85.3519	3,732.42	84.9952	3,732.42	85.3147	3,732.42	83.8352	3,732.42	82.8151	3,732.42	81.0705	3,732.42	83.6396	3,732.42	84.4133	3,732.42	81.9171	3,732.42	85.4544	3,732.42	82.1208	3,732.42	81.2181	3,732.42	77.5506	3,732.42	77.9215	3,732.42	76.2036	3,732.42	81.0626	3,732.42	75.8885	3,732.42	77.4932	3,732.42	71.1664	3,732.42	71.1234	3,732.42	70.3417	3,732.42	69.9269	3,732.42	69.295	3,732.42	65.5955	3,732.42	72.7102	3,732.42	62.6605	3,732.42	70.0058	3,732.42	64.3309	3,732.42	69.3545	3,732.42	70.3793	3,732.42	69.4746	3,732.42	67.9492	3,732.42	54.9088
3,864.26	83.8078	3,864.26	85.4269	3,864.26	84.8857	3,864.26	85.4398	3,864.26	84.9803	3,864.26	83.9527	3,864.26	83.695	3,864.26	84.779	3,864.26	82.861	3,864.26	85.2017	3,864.26	84.5436	3,864.26	84.8071	3,864.26	85.2798	3,864.26	83.1103	3,864.26	81.3893	3,864.26	80.5331	3,864.26	79.4801	3,864.26	78.7982	3,864.26	79.5455	3,864.26	75.3811	3,864.26	79.6493	3,864.26	73.9911	3,864.26	74.3627	3,864.26	71.1583	3,864.26	65.5184	3,864.26	69.8396	3,864.26	64.8333	3,864.26	72.6091	3,864.26	61.6132	3,864.26	70.3809	3,864.26	63.5501	3,864.26	71.0707	3,864.26	69.3196	3,864.26	69.3069	3,864.26	67.6845	3,864.26	59.4981
4,000.49	85.2081	4,000.49	87.396	4,000.49	85.2656	4,000.49	85.838	4,000.49	86.5842	4,000.49	86.0917	4,000.49	84.1708	4,000.49	85.789	4,000.49	83.7756	4,000.49	85.6222	4,000.49	85.7099	4,000.49	84.8868	4,000.49	85.2561	4,000.49	82.0071	4,000.49	81.3163	4,000.49	81.4663	4,000.49	80.6936	4,000.49	77.4321	4,000.49	82.2962	4,000.49	75.8661	4,000.49	80.1058	4,000.49	73.5667	4,000.49	68.3763	4,000.49	70.3003	4,000.49	63.0056	4,000.49	67.6484	4,000.49	63.7364	4,000.49	68.4951	4,000.49	64.0084	4,000.49	69.6592	4,000.49	65.0241	4,000.49	71.0643	4,000.49	68.3853	4,000.49	68.9668	4,000.49	64.774	4,000.49	59.4044
4,141.11	87.2583	4,141.11	88.7892	4,141.11	86.6906	4,141.11	85.8152	4,141.11	87.5079	4,141.11	84.503	4,141.11	85.5389	4,141.11	86.1735	4,141.11	85.4389	4,141.11	87.0255	4,141.11	87.1016	4,141.11	84.6656	4,141.11	85.112	4,141.11	83.5066	4,141.11	82.4085	4,141.11	80.1849	4,141.11	84.3343	4,141.11	75.7983	4,141.11	82.3507	4,141.11	76.7377	4,141.11	70.9365	4,141.11	70.6199	4,141.11	70.6524	4,141.11	72.1429	4,141.11	67.4043	4,141.11	69.1396	4,141.11	72.8205	4,141.11	69.6967	4,141.11	70.105	4,141.11	68.6987	4,141.11	66.5126	4,141.11	71.3554	4,141.11	66.5062	4,141.11	66.3039	4,141.11	64.271	4,141.11	59.6719
4,287.6	87.701	4,287.6	87.7096	4,287.6	86.3855	4,287.6	84.6135	4,287.6	88.5849	4,287.6	85.2748	4,287.6	86.6803	4,287.6	87.4042	4,287.6	87.1075	4,287.6	86.4659	4,287.6	88.471	4,287.6	85.5494	4,287.6	82.0904	4,287.6	84.3483	4,287.6	83.8946	4,287.6	81.4313	4,287.6	85.6973	4,287.6	80.786	4,287.6	77.37	4,287.6	78.109	4,287.6	75.4359	4,287.6	74.7408	4,287.6	76.2849	4,287.6	73.2726	4,287.6	70.7016	4,287.6	69.3654	4,287.6	73.0393	4,287.6	65.9286	4,287.6	67.342	4,287.6	68.0965	4,287.6	72.8836	4,287.6	70.8872	4,287.6	68.3225	4,287.6	66.925	4,287.6	65.3521	4,287.6	65.4381
4,438.48	89.8625	4,438.48	86.5344	4,438.48	86.3389	4,438.48	85.8743	4,438.48	89.2807	4,438.48	89.4014	4,438.48	88.1861	4,438.48	87.6567	4,438.48	88.8458	4,438.48	86.7577	4,438.48	87.263	4,438.48	85.8278	4,438.48	81.9299	4,438.48	82.7798	4,438.48	86.3525	4,438.48	81.8695	4,438.48	84.3468	4,438.48	76.864	4,438.48	76.7753	4,438.48	75.6865	4,438.48	79.9248	4,438.48	74.0699	4,438.48	74.4356	4,438.48	71.4682	4,438.48	70.9322	4,438.48	73.3482	4,438.48	64.8627	4,438.48	64.3176	4,438.48	65.9247	4,438.48	65.5003	4,438.48	73.816	4,438.48	68.055	4,438.48	70.6516	4,438.48	62.3225	4,438.48	62.0953	4,438.48	66.7496
4,595.21	90.6839	4,595.21	89.1637	4,595.21	87.784	4,595.21	89.1031	4,595.21	88.6268	4,595.21	88.1063	4,595.21	88.3425	4,595.21	86.3434	4,595.21	89.176	4,595.21	86.3141	4,595.21	85.0305	4,595.21	85.0246	4,595.21	86.2955	4,595.21	84.7258	4,595.21	87.6657	4,595.21	81.2264	4,595.21	81.1191	4,595.21	78.7129	4,595.21	80.5587	4,595.21	77.3979	4,595.21	77.8788	4,595.21	73.1797	4,595.21	71.4594	4,595.21	72.622	4,595.21	74.0862	4,595.21	70.6302	4,595.21	61.7336	4,595.21	66.4538	4,595.21	66.229	4,595.21	69.362	4,595.21	70.6837	4,595.21	69.32	4,595.21	73.2167	4,595.21	67.6609	4,595.21	67.9491	4,595.21	62.9614
4,756.35	89.6684	4,756.35	89.1721	4,756.35	87.966	4,756.35	88.5152	4,756.35	88.2461	4,756.35	85.0211	4,756.35	88.4033	4,756.35	86.3561	4,756.35	87.305	4,756.35	86.0441	4,756.35	82.7936	4,756.35	85.255	4,756.35	88.2033	4,756.35	83.2994	4,756.35	86.2058	4,756.35	79.7857	4,756.35	82.0173	4,756.35	79.1176	4,756.35	80.3685	4,756.35	74.4029	4,756.35	73.0929	4,756.35	72.9986	4,756.35	66.0709	4,756.35	69.7512	4,756.35	73.0223	4,756.35	69.7989	4,756.35	64.5503	4,756.35	65.523	4,756.35	62.7875	4,756.35	69.7052	4,756.35	62.5665	4,756.35	69.314	4,756.35	73.6228	4,756.35	67.575	4,756.35	67.1106	4,756.35	66.0877
4,924.8	88.2487	4,924.8	86.8401	4,924.8	88.2939	4,924.8	86.8819	4,924.8	86.6006	4,924.8	87.1898	4,924.8	88.1346	4,924.8	85.1397	4,924.8	84.9655	4,924.8	83.7617	4,924.8	84.3387	4,924.8	82.7742	4,924.8	88.2497	4,924.8	81.1737	4,924.8	81.1408	4,924.8	79.0241	4,924.8	81.1575	4,924.8	74.169	4,924.8	75.9847	4,924.8	72.4602	4,924.8	77.3965	4,924.8	70.3301	4,924.8	63.8393	4,924.8	71.0666	4,924.8	69.3504	4,924.8	61.8336	4,924.8	65.0668	4,924.8	61.2879	4,924.8	69.4181	4,924.8	68.6899	4,924.8	59.5724	4,924.8	65.6541	4,924.8	71.4199	4,924.8	65.6779	4,924.8	68.0224	4,924.8	64.6674
5,097.66	87.6003	5,097.66	86.7505	5,097.66	86.772	5,097.66	86.1235	5,097.66	84.6994	5,097.66	84.8114	5,097.66	87.1188	5,097.66	81.1437	5,097.66	83.0016	5,097.66	81.3378	5,097.66	84.1124	5,097.66	80.2996	5,097.66	85.2052	5,097.66	79.1954	5,097.66	78.3815	5,097.66	73.4526	5,097.66	76.4619	5,097.66	73.5128	5,097.66	74.9707	5,097.66	69.4112	5,097.66	73.8976	5,097.66	66.6267	5,097.66	69.8872	5,097.66	69.0564	5,097.66	57.5855	5,097.66	63.8818	5,097.66	58.3964	5,097.66	61.4052	5,097.66	70.6712	5,097.66	64.1023	5,097.66	64.8245	5,097.66	66.9597	5,097.66	66.6557	5,097.66	57.9714	5,097.66	65.4277	5,097.66	66.2106
5,277.83	85.2408	5,277.83	86.4771	5,277.83	86.6846	5,277.83	85.3482	5,277.83	83.2429	5,277.83	80.6687	5,277.83	83.6367	5,277.83	80.2351	5,277.83	80.3217	5,277.83	80.1539	5,277.83	82.7096	5,277.83	77.6228	5,277.83	77.8635	5,277.83	74.0226	5,277.83	78.1788	5,277.83	72.3559	5,277.83	75.4866	5,277.83	69.9218	5,277.83	75.4714	5,277.83	66.5781	5,277.83	69.8232	5,277.83	66.3418	5,277.83	69.5725	5,277.83	61.8949	5,277.83	66.9896	5,277.83	63.773	5,277.83	65.4448	5,277.83	63	5,277.83	60.0173	5,277.83	52.4724	5,277.83	66.2693	5,277.83	56.3052	5,277.83	66.4965	5,277.83	49.4977	5,277.83	61.5545	5,277.83	62.9072
5,463.87	84.5551	5,463.87	85.3313	5,463.87	85.8037	5,463.87	82.8459	5,463.87	81.9269	5,463.87	82.5291	5,463.87	82.6006	5,463.87	80.575	5,463.87	80.2335	5,463.87	78.7192	5,463.87	81.2397	5,463.87	76.7093	5,463.87	74.2644	5,463.87	77.213	5,463.87	75.0515	5,463.87	72.7472	5,463.87	72.2238	5,463.87	68.8904	5,463.87	73.2197	5,463.87	68.7308	5,463.87	67.0403	5,463.87	65.1537	5,463.87	61.9064	5,463.87	64.241	5,463.87	64.8725	5,463.87	65.5473	5,463.87	63.4127	5,463.87	61.1716	5,463.87	52.5905	5,463.87	61.6814	5,463.87	62.9886	5,463.87	59.0516	5,463.87	63.4652	5,463.87	61.3184	5,463.87	56.9167	5,463.87	60.2886
5,657.23	83.2778	5,657.23	83.604	5,657.23	83.9514	5,657.23	82.2639	5,657.23	83.1131	5,657.23	82.6441	5,657.23	82.2436	5,657.23	80.1182	5,657.23	80.8412	5,657.23	79.4057	5,657.23	76.8887	5,657.23	78.9981	5,657.23	76.518	5,657.23	77.0416	5,657.23	75.3123	5,657.23	74.813	5,657.23	73.7983	5,657.23	72.5191	5,657.23	72.1823	5,657.23	69.557	5,657.23	70.8105	5,657.23	64.9429	5,657.23	69.5026	5,657.23	64.2796	5,657.23	56.6143	5,657.23	65.0568	5,657.23	56.8708	5,657.23	63.3508	5,657.23	43.7614	5,657.23	60.1484	5,657.23	55.9043	5,657.23	54.5489	5,657.23	60.402	5,657.23	55.4113	5,657.23	50.0897	5,657.23	58.5951
5,856.45	82.557	5,856.45	83.2025	5,856.45	82.5382	5,856.45	83.0249	5,856.45	84.7995	5,856.45	82.4175	5,856.45	80.8575	5,856.45	79.8765	5,856.45	81.4322	5,856.45	80.2496	5,856.45	78.9754	5,856.45	79.5351	5,856.45	78.3924	5,856.45	79.486	5,856.45	75.9791	5,856.45	76.1008	5,856.45	76.0809	5,856.45	71.4278	5,856.45	70.6719	5,856.45	70.8538	5,856.45	70.0211	5,856.45	64.3815	5,856.45	66.9602	5,856.45	66.8984	5,856.45	65.8091	5,856.45	65.0108	5,856.45	58.4473	5,856.45	63.858	5,856.45	60.7403	5,856.45	62.7352	5,856.45	49.2535	5,856.45	58.8493	5,856.45	60.8985	5,856.45	57.6892	5,856.45	57.9412	5,856.45	52.9499
6,062.99	83.4143	6,062.99	83.3948	6,062.99	83.4878	6,062.99	83.9823	6,062.99	86.2647	6,062.99	83.1542	6,062.99	80.4098	6,062.99	82.0575	6,062.99	83.1737	6,062.99	81.3065	6,062.99	81.0479	6,062.99	81.5906	6,062.99	80.9187	6,062.99	79.4806	6,062.99	79.7659	6,062.99	75.4332	6,062.99	76.2627	6,062.99	73.8467	6,062.99	68.1104	6,062.99	69.0906	6,062.99	67.0097	6,062.99	65.7903	6,062.99	68.3279	6,062.99	64.6281	6,062.99	65.6428	6,062.99	63.5346	6,062.99	54.8136	6,062.99	62.4198	6,062.99	61.6147	6,062.99	58.5682	6,062.99	47.2567	6,062.99	55.716	6,062.99	52.2053	6,062.99	63.7422	6,062.99	56.5223	6,062.99	53.0731
6,276.86	85.5257	6,276.86	83.9794	6,276.86	85.1328	6,276.86	84.7103	6,276.86	85.7254	6,276.86	83.1351	6,276.86	79.9013	6,276.86	81.2675	6,276.86	84.9187	6,276.86	82.2471	6,276.86	82.7863	6,276.86	81.1939	6,276.86	80.8729	6,276.86	79.0765	6,276.86	80.7737	6,276.86	74.9841	6,276.86	76.1563	6,276.86	71.3068	6,276.86	72.2218	6,276.86	67.775	6,276.86	69.1879	6,276.86	66.0335	6,276.86	68.0692	6,276.86	62.4808	6,276.86	57.0781	6,276.86	64.2059	6,276.86	45.7137	6,276.86	61.6639	6,276.86	50.6991	6,276.86	61.9174	6,276.86	51.5775	6,276.86	55.2513	6,276.86	54.0472	6,276.86	63.8152	6,276.86	46.0726	6,276.86	55.5312
6,498.05	85.3224	6,498.05	84.6214	6,498.05	84.8687	6,498.05	85.0496	6,498.05	83.3978	6,498.05	83.3146	6,498.05	81.7076	6,498.05	82.0122	6,498.05	84.6644	6,498.05	82.2536	6,498.05	82.6041	6,498.05	80.4041	6,498.05	80.5708	6,498.05	77.5752	6,498.05	79.6543	6,498.05	72.7281	6,498.05	72.4785	6,498.05	70.4347	6,498.05	73.8754	6,498.05	66.8873	6,498.05	70.3513	6,498.05	64.3337	6,498.05	67.8867	6,498.05	62.4994	6,498.05	53.7678	6,498.05	62.9081	6,498.05	61.8873	6,498.05	60.2585	6,498.05	58.4348	6,498.05	62.0613	6,498.05	57.1663	6,498.05	54.249	6,498.05	57.005	6,498.05	60.6405	6,498.05	48.4506	6,498.05	58.7973
6,726.56	84.9615	6,726.56	84.742	6,726.56	83.6751	6,726.56	85.4864	6,726.56	82.3709	6,726.56	82.7793	6,726.56	82.9576	6,726.56	81.6032	6,726.56	84.7339	6,726.56	82.3135	6,726.56	81.2634	6,726.56	79.0064	6,726.56	81.3742	6,726.56	77.3993	6,726.56	74.5082	6,726.56	73.431	6,726.56	73.6445	6,726.56	69.3147	6,726.56	71.9193	6,726.56	68.1635	6,726.56	61.8331	6,726.56	61.9466	6,726.56	61.8423	6,726.56	62.9238	6,726.56	58.6556	6,726.56	63.9373	6,726.56	49.2305	6,726.56	60.3361	6,726.56	61.6064	6,726.56	58.996	6,726.56	60.8564	6,726.56	62.0892	6,726.56	57.1245	6,726.56	59.5689	6,726.56	44.3513	6,726.56	53.0592
6,963.87	84.5359	6,963.87	85.3155	6,963.87	84.6637	6,963.87	84.2385	6,963.87	85.4065	6,963.87	82.9002	6,963.87	83.6846	6,963.87	81.9173	6,963.87	83.4699	6,963.87	80.8385	6,963.87	81.7667	6,963.87	78.9914	6,963.87	81.3065	6,963.87	76.9514	6,963.87	74.1523	6,963.87	73.8223	6,963.87	78.246	6,963.87	70.7161	6,963.87	64.1217	6,963.87	67.3818	6,963.87	64.6173	6,963.87	61.9932	6,963.87	57.302	6,963.87	63.0165	6,963.87	56.1959	6,963.87	61.8192	6,963.87	50.876	6,963.87	61.8618	6,963.87	62.2629	6,963.87	59.6084	6,963.87	56.6239	6,963.87	61.2258	6,963.87	53.1935	6,963.87	59.2653	6,963.87	46.8159	6,963.87	44.9081
7,209.96	84.878	7,209.96	85.0795	7,209.96	86.0979	7,209.96	84.0096	7,209.96	87.7101	7,209.96	83.5217	7,209.96	84.8169	7,209.96	82.1242	7,209.96	80.5782	7,209.96	79.9746	7,209.96	83.7027	7,209.96	79.254	7,209.96	78.035	7,209.96	78.6844	7,209.96	80.8379	7,209.96	74.2591	7,209.96	78.1822	7,209.96	71.3549	7,209.96	74.1871	7,209.96	67.2375	7,209.96	70.1672	7,209.96	65.1017	7,209.96	55.4754	7,209.96	65.311	7,209.96	62.9867	7,209.96	60.227	7,209.96	56.2721	7,209.96	63.3227	7,209.96	56.2815	7,209.96	52.8506	7,209.96	52.2356	7,209.96	58.0373	7,209.96	52.0222	7,209.96	54.708	7,209.96	48.5924	7,209.96	49.9656
7,464.84	84.4275	7,464.84	84.1998	7,464.84	85.4435	7,464.84	83.0265	7,464.84	87.8639	7,464.84	84.0039	7,464.84	84.7868	7,464.84	80.6195	7,464.84	81.1101	7,464.84	79.6473	7,464.84	84.2403	7,464.84	80.8675	7,464.84	77.4279	7,464.84	78.9448	7,464.84	82.4473	7,464.84	76.0131	7,464.84	75.2206	7,464.84	73.0868	7,464.84	73.5291	7,464.84	66.6768	7,464.84	66.0323	7,464.84	67.1616	7,464.84	65.3094	7,464.84	63.1111	7,464.84	62.2138	7,464.84	59.9706	7,464.84	58.7555	7,464.84	61.8328	7,464.84	60.8217	7,464.84	54.6669	7,464.84	54.5216	7,464.84	59.5318	7,464.84	54.0951	7,464.84	53.7707	7,464.84	52.6619	7,464.84	51.0849
7,727.05	84.5854	7,727.05	84.6829	7,727.05	82.9613	7,727.05	82.8148	7,727.05	84.9122	7,727.05	83.9969	7,727.05	83.7219	7,727.05	79.4431	7,727.05	80.939	7,727.05	81.0822	7,727.05	82.7218	7,727.05	80.7721	7,727.05	80.1088	7,727.05	78.1009	7,727.05	80.3494	7,727.05	72.7849	7,727.05	72.9822	7,727.05	68.9152	7,727.05	73.5544	7,727.05	67.0358	7,727.05	65.3912	7,727.05	65.6968	7,727.05	69.0971	7,727.05	60.6511	7,727.05	55.3807	7,727.05	59.9114	7,727.05	61.8966	7,727.05	62.012	7,727.05	57.5884	7,727.05	61.5577	7,727.05	39.2856	7,727.05	52.5642	7,727.05	45.5177	7,727.05	55.5223	7,727.05	51.1546	7,727.05	48.2913
7,999.51	84.4709	7,999.51	83.0338	7,999.51	82.5356	7,999.51	83.3087	7,999.51	80.7647	7,999.51	83.1727	7,999.51	81.3708	7,999.51	79.8927	7,999.51	80.2765	7,999.51	80.5699	7,999.51	81.1599	7,999.51	79.725	7,999.51	82.0535	7,999.51	76.9638	7,999.51	75.9379	7,999.51	73.1599	7,999.51	74.7449	7,999.51	65.9465	7,999.51	68.964	7,999.51	67.2005	7,999.51	67.1274	7,999.51	61.9479	7,999.51	67.4318	7,999.51	61.3578	7,999.51	57.7093	7,999.51	61.9874	7,999.51	59.1409	7,999.51	62.9955	7,999.51	53.665	7,999.51	62.4291	7,999.51	45.0766	7,999.51	58.8455	7,999.51	46.5073	7,999.51	40.9686	7,999.51	53.9301	7,999.51	25.0983
8,282.23	84.2082	8,282.23	83.2497	8,282.23	84.895	8,282.23	84.1158	8,282.23	83.077	8,282.23	82.4511	8,282.23	81.7361	8,282.23	81.0503	8,282.23	81.9933	8,282.23	78.3907	8,282.23	80.7071	8,282.23	79.1058	8,282.23	81.6159	8,282.23	76.6279	8,282.23	73.4682	8,282.23	72.7626	8,282.23	77.7867	8,282.23	70.738	8,282.23	68.1779	8,282.23	67.4435	8,282.23	66.5246	8,282.23	62.4838	8,282.23	61.5676	8,282.23	63.4035	8,282.23	54.2772	8,282.23	63.6255	8,282.23	51.8714	8,282.23	63.1287	8,282.23	57.7679	8,282.23	61.3017	8,282.23	54.8648	8,282.23	55.8313	8,282.23	49.0878	8,282.23	60.218	8,282.23	41.9184	8,282.23	50.0443
8,573.73	85.4182	8,573.73	84.4653	8,573.73	86.1153	8,573.73	84.6143	8,573.73	85.8783	8,573.73	82.2758	8,573.73	83.2497	8,573.73	81.3033	8,573.73	82.5981	8,573.73	77.6147	8,573.73	82.275	8,573.73	78.9816	8,573.73	79.4572	8,573.73	77.1193	8,573.73	79.0011	8,573.73	71.5233	8,573.73	77.424	8,573.73	70.5922	8,573.73	70.667	8,573.73	63.4747	8,573.73	67.8542	8,573.73	62.6821	8,573.73	59.2864	8,573.73	63.1689	8,573.73	60.7655	8,573.73	62.9295	8,573.73	43.7351	8,573.73	61.1038	8,573.73	54.4686	8,573.73	57.4616	8,573.73	45.9472	8,573.73	54.9534	8,573.73	54.6427	8,573.73	59.8757	8,573.73	51.8837	8,573.73	51.5855
8,876.95	85.2382	8,876.95	85.3091	8,876.95	84.0011	8,876.95	83.8396	8,876.95	87.1236	8,876.95	82.5716	8,876.95	84.5361	8,876.95	80.2677	8,876.95	82.3741	8,876.95	78.8549	8,876.95	82.5499	8,876.95	78.9509	8,876.95	78.3116	8,876.95	76.5504	8,876.95	80.0694	8,876.95	73.0781	8,876.95	74.0552	8,876.95	70.6056	8,876.95	71.6692	8,876.95	61.0648	8,876.95	58.7299	8,876.95	63.0115	8,876.95	59.944	8,876.95	58.4387	8,876.95	60.2851	8,876.95	61.029	8,876.95	57.1897	8,876.95	61.9435	8,876.95	54.4782	8,876.95	57.6469	8,876.95	54.5141	8,876.95	52.9943	8,876.95	48.2437	8,876.95	48.6731	8,876.95	41.9034	8,876.95	55.2683
9,188.96	85.1081	9,188.96	86.0324	9,188.96	85.6018	9,188.96	84.0455	9,188.96	86.5306	9,188.96	83.6957	9,188.96	84.1238	9,188.96	79.23	9,188.96	81.1165	9,188.96	80.1448	9,188.96	80.5944	9,188.96	77.7097	9,188.96	80.1197	9,188.96	75.3565	9,188.96	77.4809	9,188.96	72.1942	9,188.96	73.4961	9,188.96	68.3639	9,188.96	70.3264	9,188.96	64.0294	9,188.96	60.5891	9,188.96	61.1685	9,188.96	64.0616	9,188.96	59.4011	9,188.96	47.1928	9,188.96	61.1759	9,188.96	62.3279	9,188.96	60.8437	9,188.96	56.8568	9,188.96	49.3954	9,188.96	40.7197	9,188.96	46.2511	9,188.96	45.8246	9,188.96	54.0136	9,188.96	57.7763	9,188.96	43.201
9,514.16	86.0678	9,514.16	86.0465	9,514.16	86.7538	9,514.16	84.3667	9,514.16	85.8112	9,514.16	83.9503	9,514.16	83.8542	9,514.16	78.7817	9,514.16	80.2993	9,514.16	79.3279	9,514.16	79.0966	9,514.16	76.2818	9,514.16	78.7083	9,514.16	76.5112	9,514.16	74.643	9,514.16	70.5262	9,514.16	73.7497	9,514.16	66.9554	9,514.16	66.2613	9,514.16	64.6727	9,514.16	61.7394	9,514.16	57.7398	9,514.16	54.0453	9,514.16	61.0601	9,514.16	50.5351	9,514.16	62.0205	9,514.16	52.9005	9,514.16	60.659	9,514.16	55.155	9,514.16	47.3754	9,514.16	32.2121	9,514.16	56.3337	9,514.16	54.0611	9,514.16	52.2541	9,514.16	56.619	9,514.16	50.1401
9,849.61	86.0436	9,849.61	85.9096	9,849.61	86.3343	9,849.61	84.1832	9,849.61	84.9363	9,849.61	83.9679	9,849.61	84.0463	9,849.61	79.4752	9,849.61	81.1517	9,849.61	77.142	9,849.61	79.6984	9,849.61	77.1225	9,849.61	78.8752	9,849.61	75.8338	9,849.61	74.4991	9,849.61	70.4834	9,849.61	73.1743	9,849.61	66.7448	9,849.61	67.1718	9,849.61	64.0925	9,849.61	52.3322	9,849.61	57.1981	9,849.61	54.2293	9,849.61	59.3983	9,849.61	53.5278	9,849.61	61.915	9,849.61	48.7412	9,849.61	59.0751	9,849.61	53.1464	9,849.61	52.9986	9,849.61	52.0897	9,849.61	48.8747	9,849.61	44.018	9,849.61	52.6086	9,849.61	54.6341	9,849.61	41.949
10,196.8	87.2519	10,196.8	85.9021	10,196.8	86.0068	10,196.8	84.5153	10,196.8	84.5673	10,196.8	82.947	10,196.8	83.5764	10,196.8	80.0231	10,196.8	81.2696	10,196.8	76.8251	10,196.8	79.7169	10,196.8	76.5962	10,196.8	76.4178	10,196.8	73.2406	10,196.8	75.1743	10,196.8	69.55	10,196.8	72.0541	10,196.8	65.6354	10,196.8	65.6993	10,196.8	62.1089	10,196.8	50.9851	10,196.8	55.5143	10,196.8	54.1331	10,196.8	56.7067	10,196.8	49.2999	10,196.8	61.7239	10,196.8	56.2572	10,196.8	57.1613	10,196.8	56.4305	10,196.8	56.5001	10,196.8	53.1513	10,196.8	51.3106	10,196.8	50.4992	10,196.8	49.7946	10,196.8	51.3163	10,196.8	44.9246
10,555.7	85.9331	10,555.7	85.7562	10,555.7	85.4709	10,555.7	85.0366	10,555.7	85.3498	10,555.7	82.661	10,555.7	82.0414	10,555.7	80.6494	10,555.7	81.2362	10,555.7	76.3614	10,555.7	77.4826	10,555.7	76.9463	10,555.7	75.2844	10,555.7	73.0436	10,555.7	75.3326	10,555.7	70.5556	10,555.7	67.9593	10,555.7	65.6923	10,555.7	63.0438	10,555.7	59.8327	10,555.7	59.1155	10,555.7	58.1815	10,555.7	56.1796	10,555.7	58.2914	10,555.7	53.0317	10,555.7	61.2987	10,555.7	56.7974	10,555.7	56.967	10,555.7	50.6701	10,555.7	53.598	10,555.7	42.4726	10,555.7	48.3227	10,555.7	50.691	10,555.7	55.9144	10,555.7	42.327	10,555.7	42.9063
10,927.7	85.7039	10,927.7	86.0756	10,927.7	85.1135	10,927.7	85.371	10,927.7	85.2818	10,927.7	83.3385	10,927.7	82.0329	10,927.7	80.4825	10,927.7	79.2505	10,927.7	77.1654	10,927.7	76.6878	10,927.7	76.3881	10,927.7	75.3502	10,927.7	74.3087	10,927.7	70.7818	10,927.7	69.9563	10,927.7	67.9589	10,927.7	65.3736	10,927.7	61.1553	10,927.7	59.1469	10,927.7	27.6479	10,927.7	57.3799	10,927.7	56.1726	10,927.7	56.5157	10,927.7	51.9499	10,927.7	56.5195	10,927.7	43.7474	10,927.7	55.8069	10,927.7	50.5943	10,927.7	52.3806	10,927.7	44.3743	10,927.7	52.8127	10,927.7	48.4428	10,927.7	49.2452	10,927.7	39.23	10,927.7	49.5709
11,313	86.1893	11,313	86.1231	11,313	85.4891	11,313	85.0813	11,313	84.9054	11,313	83.3464	11,313	82.3643	11,313	79.5516	11,313	79.7982	11,313	76.4802	11,313	75.965	11,313	74.5078	11,313	74.819	11,313	72.1414	11,313	68.4464	11,313	66.354	11,313	69.8798	11,313	62.0885	11,313	58.2116	11,313	57.8426	11,313	53.0337	11,313	55.7424	11,313	54.778	11,313	51.8776	11,313	48.4701	11,313	52.8164	11,313	46.4374	11,313	50.026	11,313	45.9011	11,313	46.0286	11,313	37.4348	11,313	51.7954	11,313	49.6291	11,313	47.7498	11,313	41.2713	11,313	46.4546
11,712.9	86.3246	11,712.9	85.5076	11,712.9	86.4175	11,712.9	84.562	11,712.9	85.7891	11,712.9	82.7245	11,712.9	83.1401	11,712.9	77.8927	11,712.9	80.7037	11,712.9	74.8126	11,712.9	77.7541	11,712.9	72.1027	11,712.9	74.3196	11,712.9	68.6349	11,712.9	71.4386	11,712.9	63.1376	11,712.9	66.1854	11,712.9	57.4533	11,712.9	55.0909	11,712.9	54.0639	11,712.9	50.1606	11,712.9	48.9849	11,712.9	49.9597	11,712.9	48.6265	11,712.9	43.0906	11,712.9	51.9406	11,712.9	48.6188	11,712.9	48.0879	11,712.9	46.8455	11,712.9	39.2247	11,712.9	47.4767	11,712.9	48.5275	11,712.9	49.2123	11,712.9	39.3879	11,712.9	40.4107	11,712.9	47.7234
12,126	86.3475	12,126	85.9761	12,126	86.2506	12,126	84.4215	12,126	86.301	12,126	81.7016	12,126	82.8093	12,126	77.0621	12,126	81.0398	12,126	73.0327	12,126	77.8616	12,126	68.6804	12,126	72.6558	12,126	64.0759	12,126	69.6664	12,126	58.1667	12,126	65.6229	12,126	51.8635	12,126	57.2811	12,126	48.5504	12,126	50.1747	12,126	43.57	12,126	49.1622	12,126	37.7586	12,126	41.1382	12,126	45.6573	12,126	43.8647	12,126	44.5497	12,126	47.0455	12,126	45.1323	12,126	39.9612	12,126	50.1336	12,126	49.5484	12,126	44.1458	12,126	48.0689	12,126	42.2207
12,553.7	86.6654	12,553.7	85.9269	12,553.7	86.0206	12,553.7	83.9687	12,553.7	85.4355	12,553.7	81.2532	12,553.7	82.2059	12,553.7	75.9566	12,553.7	79.9342	12,553.7	71.2639	12,553.7	75.45	12,553.7	63.5935	12,553.7	72.0578	12,553.7	54.3872	12,553.7	67.0973	12,553.7	39.2641	12,553.7	62.2875	12,553.7	49.1972	12,553.7	47.8101	12,553.7	32.5188	12,553.7	53.1262	12,553.7	49.9384	12,553.7	47.9264	12,553.7	48.0509	12,553.7	48.3983	12,553.7	50.1029	12,553.7	40.0947	12,553.7	44.012	12,553.7	33.0059	12,553.7	29.1047	12,553.7	40.3642	12,553.7	38.3505	12,553.7	39.8535	12,553.7	41.7259	12,553.7	37.8744	12,553.7	40.3101
12,996.1	86.1513	12,996.1	85.4711	12,996.1	86.2078	12,996.1	83.5143	12,996.1	85.574	12,996.1	80.9688	12,996.1	81.8965	12,996.1	75.4421	12,996.1	79.1811	12,996.1	70.1738	12,996.1	74.3033	12,996.1	64.8294	12,996.1	69.0189	12,996.1	50.2102	12,996.1	63.3842	12,996.1	55.4628	12,996.1	55.7622	12,996.1	52.2199	12,996.1	47.0262	12,996.1	41.314	12,996.1	54.8587	12,996.1	51.8893	12,996.1	44.3277	12,996.1	50.9912	12,996.1	49.7364	12,996.1	51.9299	12,996.1	40.8755	12,996.1	43.0486	12,996.1	26.4527	12,996.1	40.4693	12,996.1	24.9175	12,996.1	46.8497	12,996.1	44.9712	12,996.1	42.0769	12,996.1	41.119	12,996.1	38.4365
13,454.6	86.1176	13,454.6	85.5026	13,454.6	85.5276	13,454.6	83.3936	13,454.6	84.4613	13,454.6	80.7059	13,454.6	81.2772	13,454.6	75.2548	13,454.6	77.2986	13,454.6	69.4747	13,454.6	71.9943	13,454.6	66.582	13,454.6	63.6166	13,454.6	56.7381	13,454.6	52.9075	13,454.6	57.1122	13,454.6	50.5274	13,454.6	52.4872	13,454.6	57.0656	13,454.6	45.0131	13,454.6	54.4976	13,454.6	50.644	13,454.6	45.4855	13,454.6	49.2309	13,454.6	52.7232	13,454.6	50.186	13,454.6	45.7265	13,454.6	44.0684	13,454.6	31.5545	13,454.6	42.445	13,454.6	40.0073	13,454.6	48.3396	13,454.6	47.1399	13,454.6	40.3277	13,454.6	41.7387	13,454.6	35.835
13,929.2	85.8193	13,929.2	85.4294	13,929.2	85.2111	13,929.2	83.4424	13,929.2	83.9205	13,929.2	80.2338	13,929.2	79.922	13,929.2	74.9579	13,929.2	75.0689	13,929.2	68.9389	13,929.2	68.9849	13,929.2	65.4581	13,929.2	54.1287	13,929.2	57.2504	13,929.2	53.6012	13,929.2	55.2109	13,929.2	54.1748	13,929.2	51.9568	13,929.2	57.1441	13,929.2	44.3045	13,929.2	54.6097	13,929.2	49.9203	13,929.2	47.7879	13,929.2	45.7022	13,929.2	54.8693	13,929.2	47.2293	13,929.2	48.8315	13,929.2	44.9033	13,929.2	31.5731	13,929.2	45.6926	13,929.2	34.2007	13,929.2	42.7301	13,929.2	44.8026	13,929.2	38.3308	13,929.2	41.5537	13,929.2	34.6623
14,419.9	85.7002	14,419.9	85.1233	14,419.9	85.1519	14,419.9	83.1542	14,419.9	84.0087	14,419.9	79.7149	14,419.9	79.3234	14,419.9	73.9901	14,419.9	74.2162	14,419.9	67.7702	14,419.9	67.622	14,419.9	64.0056	14,419.9	59.0948	14,419.9	53.7649	14,419.9	54.6375	14,419.9	54.9417	14,419.9	57.0412	14,419.9	51.7305	14,419.9	57.9893	14,419.9	41.9125	14,419.9	52.4451	14,419.9	48.8036	14,419.9	47.25	14,419.9	44.5741	14,419.9	56.9664	14,419.9	48.1937	14,419.9	48.1161	14,419.9	45.0865	14,419.9	40.7673	14,419.9	48.4779	14,419.9	35.566	14,419.9	37.5197	14,419.9	45.2261	14,419.9	28.1421	14,419.9	41.4448	14,419.9	32.4999
14,928.2	85.6845	14,928.2	85.0664	14,928.2	84.947	14,928.2	82.7457	14,928.2	83.4033	14,928.2	79.3147	14,928.2	78.7697	14,928.2	72.9249	14,928.2	73.5744	14,928.2	65.8786	14,928.2	65.4876	14,928.2	61.2906	14,928.2	58.3807	14,928.2	56.2667	14,928.2	56.2825	14,928.2	53.9659	14,928.2	56.323	14,928.2	51.1003	14,928.2	57.9863	14,928.2	38.1645	14,928.2	52.1941	14,928.2	50.3291	14,928.2	49.3627	14,928.2	47.2614	14,928.2	55.8593	14,928.2	47.5823	14,928.2	49.4163	14,928.2	42.4889	14,928.2	33.419	14,928.2	45.3547	14,928.2	36.2375	14,928.2	34.1182	14,928.2	46.1557	14,928.2	33.9815	14,928.2	40.9314	14,928.2	30.7354
15,455.6	85.8358	15,455.6	85.256	15,455.6	85.1575	15,455.6	82.7409	15,455.6	82.9803	15,455.6	78.6792	15,455.6	77.6125	15,455.6	71.0069	15,455.6	71.5463	15,455.6	62.6618	15,455.6	62.5338	15,455.6	57.3884	15,455.6	49.5875	15,455.6	59.4456	15,455.6	56.4493	15,455.6	55.2164	15,455.6	58.2357	15,455.6	52.8341	15,455.6	56.6322	15,455.6	42.3464	15,455.6	53.4077	15,455.6	52.3782	15,455.6	53.4182	15,455.6	50.087	15,455.6	56.879	15,455.6	46.7082	15,455.6	52.751	15,455.6	39.6703	15,455.6	41.5897	15,455.6	48.3995	15,455.6	21.8065	15,455.6	31.5481	15,455.6	42.3838	15,455.6	40.5331	15,455.6	40.2434	15,455.6	37.0924
16,000.5	85.5986	16,000.5	84.8207	16,000.5	84.7681	16,000.5	81.9477	16,000.5	82.7351	16,000.5	77.0859	16,000.5	76.3173	16,000.5	68.0117	16,000.5	68.2002	16,000.5	53.5238	16,000.5	52.9072	16,000.5	59.9774	16,000.5	54.6627	16,000.5	63.8352	16,000.5	61.7166	16,000.5	59.4592	16,000.5	59.9513	16,000.5	55.4325	16,000.5	59.2418	16,000.5	46.2979	16,000.5	53.3079	16,000.5	52.9172	16,000.5	53.3115	16,000.5	50.4704	16,000.5	58.3223	16,000.5	45.7923	16,000.5	51.5598	16,000.5	38.3285	16,000.5	35.8619	16,000.5	48.8593	16,000.5	33.0284	16,000.5	41.4421	16,000.5	47.5232	16,000.5	36.3429	16,000.5	42.6288	16,000.5	29.713
16,564.5	85.2499	16,564.5	84.2005	16,564.5	84.4328	16,564.5	80.7076	16,564.5	82.3091	16,564.5	75.2924	16,564.5	75.6227	16,564.5	66.1086	16,564.5	68.6267	16,564.5	50.4453	16,564.5	54.4155	16,564.5	64.0815	16,564.5	58.8526	16,564.5	65.4776	16,564.5	65.9098	16,564.5	60.5669	16,564.5	61.5188	16,564.5	55.5465	16,564.5	60.3947	16,564.5	46.8213	16,564.5	51.3876	16,564.5	53.0204	16,564.5	57.5566	16,564.5	51.5317	16,564.5	59.9594	16,564.5	47.7677	16,564.5	54.24	16,564.5	42.1177	16,564.5	44.4169	16,564.5	50.8599	16,564.5	35.0566	16,564.5	43.4704	16,564.5	47.0512	16,564.5	24.7254	16,564.5	40.3101	16,564.5	37.3189
17,148.9	84.6762	17,148.9	83.4205	17,148.9	83.6953	17,148.9	79.7717	17,148.9	80.7883	17,148.9	74.803	17,148.9	74.0528	17,148.9	67.3092	17,148.9	66.1662	17,148.9	57.969	17,148.9	61.6857	17,148.9	65.3559	17,148.9	63.2825	17,148.9	66.411	17,148.9	65.2529	17,148.9	60.4216	17,148.9	60.0717	17,148.9	56.2337	17,148.9	58.8122	17,148.9	47.2922	17,148.9	47.9303	17,148.9	52.0065	17,148.9	56.8445	17,148.9	50.7521	17,148.9	60.3	17,148.9	48.6688	17,148.9	53.4062	17,148.9	33.3147	17,148.9	38.5052	17,148.9	49.8698	17,148.9	35.6449	17,148.9	48.0894	17,148.9	49.1952	17,148.9	44.9538	17,148.9	45.0173	17,148.9	40.0761
17,752.4	84.4468	17,752.4	83.1495	17,752.4	83.1717	17,752.4	79.4297	17,752.4	80.3593	17,752.4	74.4648	17,752.4	72.7714	17,752.4	67.1799	17,752.4	66.419	17,752.4	60.3111	17,752.4	60.7842	17,752.4	65.7191	17,752.4	61.3576	17,752.4	65.4189	17,752.4	64.176	17,752.4	61.116	17,752.4	58.5544	17,752.4	56.4897	17,752.4	57.6049	17,752.4	45.3858	17,752.4	46.2561	17,752.4	48.3504	17,752.4	55.8388	17,752.4	47.3659	17,752.4	59.1576	17,752.4	48.7337	17,752.4	48.4958	17,752.4	45.9067	17,752.4	43.0119	17,752.4	48.839	17,752.4	40.399	17,752.4	50.1237	17,752.4	41.267	17,752.4	35.6634	17,752.4	38.4506	17,752.4	16.3912
18,379.4	84.1628	18,379.4	82.849	18,379.4	82.6442	18,379.4	79.2304	18,379.4	79.4231	18,379.4	74.1501	18,379.4	72.298	18,379.4	68.0066	18,379.4	64.2204	18,379.4	60.8677	18,379.4	62.7377	18,379.4	65.8193	18,379.4	62.1241	18,379.4	63.7902	18,379.4	62.5568	18,379.4	58.7626	18,379.4	58.5102	18,379.4	54.9091	18,379.4	56.0819	18,379.4	44.7469	18,379.4	47.2734	18,379.4	46.7588	18,379.4	58.6075	18,379.4	45.7785	18,379.4	59.9763	18,379.4	50.6692	18,379.4	50.6386	18,379.4	46.337	18,379.4	40.3263	18,379.4	46.5477	18,379.4	38.3787	18,379.4	46.3062	18,379.4	46.2663	18,379.4	36.9856	18,379.4	44.1463	18,379.4	36.9811
19,026.9	83.7418	19,026.9	82.5717	19,026.9	82.3654	19,026.9	79.0802	19,026.9	79.2941	19,026.9	74.0769	19,026.9	71.469	19,026.9	67.8544	19,026.9	63.8037	19,026.9	59.8583	19,026.9	62.017	19,026.9	64.2651	19,026.9	61.2124	19,026.9	59.3657	19,026.9	60.881	19,026.9	54.8356	19,026.9	57.0797	19,026.9	50.8544	19,026.9	54.7434	19,026.9	38.3159	19,026.9	51.611	19,026.9	43.8389	19,026.9	59.2368	19,026.9	41.6162	19,026.9	60.3714	19,026.9	47.0393	19,026.9	48.4433	19,026.9	44.0319	19,026.9	42.677	19,026.9	43.413	19,026.9	36.9474	19,026.9	41.2061	19,026.9	47.3359	19,026.9	29.3752	19,026.9	45.4282	19,026.9	36.8727
19,697.8	83.4036	19,697.8	82.3945	19,697.8	81.986	19,697.8	78.9666	19,697.8	79.156	19,697.8	72.9767	19,697.8	70.7299	19,697.8	66.2705	19,697.8	63.3674	19,697.8	57.3616	19,697.8	62.5957	19,697.8	61.4479	19,697.8	59.111	19,697.8	54.2847	19,697.8	57.4579	19,697.8	48.2762	19,697.8	55.9369	19,697.8	47.0219	19,697.8	55.2078	19,697.8	35.4238	19,697.8	51.8613	19,697.8	41.5955	19,697.8	59.0686	19,697.8	36.7237	19,697.8	60.1924	19,697.8	45.1994	19,697.8	49.9502	19,697.8	42.9615	19,697.8	33.336	19,697.8	41.1304	19,697.8	40.4204	19,697.8	35.7782	19,697.8	41.7438	19,697.8	38.1995	19,697.8	43.8371	19,697.8	28.6372
19,999.5	83.295	19,999.5	82.2751	19,999.5	82.1656	19,999.5	78.6409	19,999.5	79.0238	19,999.5	72.041	19,999.5	70.4048	19,999.5	62.6948	19,999.5	60.2414	19,999.5	57.7806	19,999.5	61.3057	19,999.5	58.644	19,999.5	57.1919	19,999.5	55.0044	19,999.5	58.7087	19,999.5	38.6753	19,999.5	54.946	19,999.5	46.8899	19,999.5	52.3654	19,999.5	38.3028	19,999.5	52.4383	19,999.5	52.5342	19,999.5	59.522	19,999.5	48.7625	19,999.5	60.9008	19,999.5	37.5574	19,999.5	48.5292	19,999.5	47.681	19,999.5	36.17	19,999.5	49.0562	19,999.5	34.5359	19,999.5	45.219	19,999.5	48.5961	19,999.5	45.156	19,999.5	50.4867	19,999.5	21.4009
