"SPL Vertical"
"On-Axis"		"10°"		"-10°"		"20°"		"-20°"		"30°"		"-30°"		"40°"		"-40°"		"50°"		"-50°"		"60°"		"-60°"		"70°"		"-70°"		"80°"		"-80°"		"90°"		"-90°"		"100°"		"-100°"		"110°"		"-110°"		"120°"		"-120°"		"130°"		"-130°"		"140°"		"-140°"		"150°"		"-150°"		"160°"		"-160°"		"170°"		"-170°"		"180°"
"Frequency [Hz]"	"Sound Pessure Level [dB]   [2.83  V @ 1. m]"	"Frequency [Hz]"	"Sound Pessure Level [dB]   [2.83  V @ 1. m]"	"Frequency [Hz]"	"Sound Pessure Level [dB]   [2.83  V @ 1. m]"	"Frequency [Hz]"	"Sound Pessure Level [dB]   [2.83  V @ 1. m]"	"Frequency [Hz]"	"Sound Pessure Level [dB]   [2.83  V @ 1. m]"	"Frequency [Hz]"	"Sound Pessure Level [dB]   [2.83  V @ 1. m]"	"Frequency [Hz]"	"Sound Pessure Level [dB]   [2.83  V @ 1. m]"	"Frequency [Hz]"	"Sound Pessure Level [dB]   [2.83  V @ 1. m]"	"Frequency [Hz]"	"Sound Pessure Level [dB]   [2.83  V @ 1. m]"	"Frequency [Hz]"	"Sound Pessure Level [dB]   [2.83  V @ 1. m]"	"Frequency [Hz]"	"Sound Pessure Level [dB]   [2.83  V @ 1. m]"	"Frequency [Hz]"	"Sound Pessure Level [dB]   [2.83  V @ 1. m]"	"Frequency [Hz]"	"Sound Pessure Level [dB]   [2.83  V @ 1. m]"	"Frequency [Hz]"	"Sound Pessure Level [dB]   [2.83  V @ 1. m]"	"Frequency [Hz]"	"Sound Pessure Level [dB]   [2.83  V @ 1. m]"	"Frequency [Hz]"	"Sound Pessure Level [dB]   [2.83  V @ 1. m]"	"Frequency [Hz]"	"Sound Pessure Level [dB]   [2.83  V @ 1. m]"	"Frequency [Hz]"	"Sound Pessure Level [dB]   [2.83  V @ 1. m]"	"Frequency [Hz]"	"Sound Pessure Level [dB]   [2.83  V @ 1. m]"	"Frequency [Hz]"	"Sound Pessure Level [dB]   [2.83  V @ 1. m]"	"Frequency [Hz]"	"Sound Pessure Level [dB]   [2.83  V @ 1. m]"	"Frequency [Hz]"	"Sound Pessure Level [dB]   [2.83  V @ 1. m]"	"Frequency [Hz]"	"Sound Pessure Level [dB]   [2.83  V @ 1. m]"	"Frequency [Hz]"	"Sound Pessure Level [dB]   [2.83  V @ 1. m]"	"Frequency [Hz]"	"Sound Pessure Level [dB]   [2.83  V @ 1. m]"	"Frequency [Hz]"	"Sound Pessure Level [dB]   [2.83  V @ 1. m]"	"Frequency [Hz]"	"Sound Pessure Level [dB]   [2.83  V @ 1. m]"	"Frequency [Hz]"	"Sound Pessure Level [dB]   [2.83  V @ 1. m]"	"Frequency [Hz]"	"Sound Pessure Level [dB]   [2.83  V @ 1. m]"	"Frequency [Hz]"	"Sound Pessure Level [dB]   [2.83  V @ 1. m]"	"Frequency [Hz]"	"Sound Pessure Level [dB]   [2.83  V @ 1. m]"	"Frequency [Hz]"	"Sound Pessure Level [dB]   [2.83  V @ 1. m]"	"Frequency [Hz]"	"Sound Pessure Level [dB]   [2.83  V @ 1. m]"	"Frequency [Hz]"	"Sound Pessure Level [dB]   [2.83  V @ 1. m]"	"Frequency [Hz]"	"Sound Pessure Level [dB]   [2.83  V @ 1. m]"	"Frequency [Hz]"	"Sound Pessure Level [dB]   [2.83  V @ 1. m]"
20.5078	51.1933	20.5078	51.7924	20.5078	50.4842	20.5078	52.2745	20.5078	49.6961	20.5078	52.6444	20.5078	48.8951	20.5078	52.912	20.5078	48.1795	20.5078	53.0884	20.5078	47.6377	20.5078	53.1834	20.5078	47.2753	20.5078	53.2053	20.5078	46.9844	20.5078	53.1598	20.5078	46.5929	20.5078	53.0504	20.5078	45.9277	20.5078	52.8775	20.5078	44.8326	20.5078	52.6381	20.5078	43.1458	20.5078	52.3252	20.5078	40.7062	20.5078	51.9264	20.5078	37.8009	20.5078	51.4228	20.5078	37.2068	20.5078	50.7859	20.5078	40.1981	20.5078	49.9745	20.5078	43.3469	20.5078	48.9295	20.5078	45.7615	20.5078	47.566
21.9727	56.3969	21.9727	56.7084	21.9727	55.9982	21.9727	56.9402	21.9727	55.5047	21.9727	57.1003	21.9727	54.9098	21.9727	57.1963	21.9727	54.2084	21.9727	57.2357	21.9727	53.4004	21.9727	57.2249	21.9727	52.4975	21.9727	57.1699	21.9727	51.5351	21.9727	57.0753	21.9727	50.5876	21.9727	56.9451	21.9727	49.7774	21.9727	56.7824	21.9727	49.2578	21.9727	56.5891	21.9727	49.1529	21.9727	56.366	21.9727	49.4844	21.9727	56.1123	21.9727	50.1565	21.9727	55.825	21.9727	51.0141	21.9727	55.4974	21.9727	51.9144	21.9727	55.1187	21.9727	52.7615	21.9727	54.6732	21.9727	53.5081	21.9727	54.1423
23.4375	53.9974	23.4375	54.7284	23.4375	53.0409	23.4375	55.2767	23.4375	51.8018	23.4375	55.6749	23.4375	50.1999	23.4375	55.9489	23.4375	48.1154	23.4375	56.1189	23.4375	45.352	23.4375	56.2006	23.4375	41.5398	23.4375	56.2061	23.4375	35.7781	23.4375	56.1442	23.4375	24.3233	23.4375	56.0208	23.4375	25.4288	23.4375	55.8389	23.4375	30.9341	23.4375	55.5986	23.4375	32.8286	23.4375	55.2965	23.4375	35.3983	23.4375	54.9251	23.4375	39.2544	23.4375	54.4713	23.4375	42.8986	23.4375	53.9149	23.4375	45.8334	23.4375	53.2267	23.4375	48.1197	23.4375	52.3665	23.4375	49.8953	23.4375	51.2798
24.9023	55.0117	24.9023	55.7504	24.9023	54.0495	24.9023	56.3063	24.9023	52.8108	24.9023	56.7106	24.9023	51.2273	24.9023	56.9876	24.9023	49.2141	24.9023	57.1562	24.9023	46.6839	24.9023	57.2308	24.9023	43.6385	24.9023	57.2226	24.9023	40.5532	24.9023	57.1397	24.9023	38.833	24.9023	56.9875	24.9023	38.8579	24.9023	56.7693	24.9023	39.2541	24.9023	56.4859	24.9023	39.6286	24.9023	56.1357	24.9023	40.6615	24.9023	55.7146	24.9023	42.7112	24.9023	55.2146	24.9023	45.1509	24.9023	54.6231	24.9023	47.3995	24.9023	53.921	24.9023	49.2839	24.9023	53.0805	24.9023	50.8182	24.9023	52.0632
26.3672	53.1254	26.3672	54.4409	26.3672	51.3288	26.3672	55.4174	26.3672	48.7872	26.3672	56.1407	26.3672	44.9111	26.3672	56.6669	26.3672	37.9757	26.3672	57.0348	26.3672	34.2458	26.3672	57.2715	26.3672	42.2113	26.3672	57.3966	26.3672	46.0183	26.3672	57.4234	26.3672	47.8996	26.3672	57.3611	26.3672	48.5586	26.3672	57.2146	26.3672	48.1781	26.3672	56.9855	26.3672	46.6837	26.3672	56.6716	26.3672	43.7081	26.3672	56.2666	26.3672	38.709	26.3672	55.7579	26.3672	38.2747	26.3672	55.1244	26.3672	43.8811	26.3672	54.3311	26.3672	47.6924	26.3672	53.3215	26.3672	50.2194	26.3672	52.0028
27.832	53.9359	27.832	55.2499	27.832	52.2092	27.832	56.2396	27.832	50.0087	27.832	56.9752	27.832	47.5864	27.832	57.5084	27.832	46.343	27.832	57.8763	27.832	47.5723	27.832	58.1057	27.832	49.6523	27.832	58.2159	27.832	51.2892	27.832	58.2199	27.832	52.2331	27.832	58.1261	27.832	52.4751	27.832	57.9383	27.832	51.9996	27.832	57.6563	27.832	50.7188	27.832	57.2747	27.832	48.386	27.832	56.7826	27.832	44.3063	27.832	56.1606	27.832	36.0285	27.832	55.3768	27.832	37.5741	27.832	54.3798	27.832	44.9906	27.832	53.0843	27.832	48.8666	27.832	51.342
29.2969	55.1191	29.2969	56.3063	29.2969	53.7587	29.2969	57.264	29.2969	52.4872	29.2969	58.0054	29.2969	51.8909	29.2969	58.5596	29.2969	52.4104	29.2969	58.9547	29.2969	53.6458	29.2969	59.2136	29.2969	54.9195	29.2969	59.3539	29.2969	55.8664	29.2969	59.3879	29.2969	56.361	29.2969	59.3237	29.2969	56.3696	29.2969	59.1654	29.2969	55.8889	29.2969	58.9132	29.2969	54.9323	29.2969	58.5632	29.2969	53.5488	29.2969	58.1072	29.2969	51.9019	29.2969	57.5322	29.2969	50.4536	29.2969	56.8196	29.2969	49.9857	29.2969	55.9451	29.2969	50.7673	29.2969	54.8818	29.2969	52.1695	29.2969	53.6119
30.7617	55.7608	30.7617	56.7598	30.7617	54.9121	30.7617	57.6828	30.7617	54.6074	30.7617	58.4505	30.7617	55.1138	30.7617	59.051	30.7617	56.2115	30.7617	59.4953	30.7617	57.4433	30.7617	59.7998	30.7617	58.4886	30.7617	59.9797	30.7617	59.1988	30.7617	60.0475	30.7617	59.5184	30.7617	60.0118	30.7617	59.4333	30.7617	59.8783	30.7617	58.9523	30.7617	59.6491	30.7617	58.104	30.7617	59.3228	30.7617	56.9483	30.7617	58.8947	30.7617	55.6094	30.7617	58.3567	30.7617	54.334	30.7617	57.6984	30.7617	53.5084	30.7617	56.9114	30.7617	53.4438	30.7617	55.9993	30.7617	54.0585	30.7617	55.0042
32.2266	61.1346	32.2266	60.7221	32.2266	61.7204	32.2266	60.4728	32.2266	62.4519	32.2266	60.3497	32.2266	63.2675	32.2266	60.3066	32.2266	64.088	32.2266	60.3011	32.2266	64.8343	32.2266	60.2991	32.2266	65.4379	32.2266	60.2759	32.2266	65.8448	32.2266	60.2141	32.2266	66.0169	32.2266	60.1017	32.2266	65.9321	32.2266	59.9309	32.2266	65.585	32.2266	59.6977	32.2266	64.9874	32.2266	59.4035	32.2266	64.1686	32.2266	59.058	32.2266	63.1746	32.2266	58.6859	32.2266	62.0675	32.2266	58.3366	32.2266	60.9259	32.2266	58.0916	32.2266	59.8477	32.2266	58.058	32.2266	58.9472	32.2266	58.3325
33.6914	66.4992	33.6914	66.5184	33.6914	66.557	33.6914	66.5805	33.6914	66.7188	33.6914	66.6554	33.6914	66.9918	33.6914	66.7211	33.6914	67.3531	33.6914	66.764	33.6914	67.7535	33.6914	66.7772	33.6914	68.1298	33.6914	66.7583	33.6914	68.4217	33.6914	66.708	33.6914	68.5838	33.6914	66.6293	33.6914	68.5917	33.6914	66.5267	33.6914	68.4439	33.6914	66.4063	33.6914	68.1605	33.6914	66.2758	33.6914	67.7792	33.6914	66.1443	33.6914	67.3493	33.6914	66.0227	33.6914	66.9221	33.6914	65.9232	33.6914	66.5417	33.6914	65.8591	33.6914	66.2374	33.6914	65.8446	33.6914	66.0221	33.6914	65.8944
35.1562	68.2136	35.1562	68.0539	35.1562	68.4661	35.1562	67.9691	35.1562	68.815	35.1562	67.9356	35.1562	69.2428	35.1562	67.9311	35.1562	69.7109	35.1562	67.9381	35.1562	70.1663	35.1562	67.9442	35.1562	70.5528	35.1562	67.9416	35.1562	70.821	35.1562	67.9262	35.1562	70.9364	35.1562	67.8963	35.1562	70.8833	35.1562	67.8524	35.1562	70.6673	35.1562	67.797	35.1562	70.3147	35.1562	67.7339	35.1562	69.8683	35.1562	67.6694	35.1562	69.3805	35.1562	67.6117	35.1562	68.9032	35.1562	67.5716	35.1562	68.4779	35.1562	67.5623	35.1562	68.1303	35.1562	67.5988	35.1562	67.8707	35.1562	67.6968
36.6211	71.239	36.6211	71.015	36.6211	71.5281	36.6211	70.8503	36.6211	71.878	36.6211	70.7335	36.6211	72.2715	36.6211	70.6515	36.6211	72.679	36.6211	70.5921	36.6211	73.0616	36.6211	70.5457	36.6211	73.3776	36.6211	70.5057	36.6211	73.5898	36.6211	70.4678	36.6211	73.671	36.6211	70.4301	36.6211	73.6095	36.6211	70.3924	36.6211	73.4104	36.6211	70.3564	36.6211	73.0959	36.6211	70.3251	36.6211	72.7009	36.6211	70.3033	36.6211	72.2671	36.6211	70.2974	36.6211	71.835	36.6211	70.3153	36.6211	71.4371	36.6211	70.3662	36.6211	71.0948	36.6211	70.4606	36.6211	70.8181	36.6211	70.6084
38.0859	74.2728	38.0859	74.0199	38.0859	74.5685	38.0859	73.8099	38.0859	74.9007	38.0859	73.6381	38.0859	75.2544	38.0859	73.4983	38.0859	75.6063	38.0859	73.3837	38.0859	75.9268	38.0859	73.2887	38.0859	76.1835	38.0859	73.2089	38.0859	76.3473	38.0859	73.1414	38.0859	76.3966	38.0859	73.0848	38.0859	76.3225	38.0859	73.0391	38.0859	76.1301	38.0859	73.0056	38.0859	75.8387	38.0859	72.9868	38.0859	75.4781	38.0859	72.9867	38.0859	75.0827	38.0859	73.01	38.0859	74.6849	38.0859	73.0628	38.0859	74.3106	38.0859	73.1515	38.0859	73.9769	38.0859	73.2826	38.0859	73.6929	38.0859	73.4618
39.5508	76.703	39.5508	76.447	39.5508	76.9861	39.5508	76.2209	39.5508	77.2894	39.5508	76.024	39.5508	77.6004	39.5508	75.8546	39.5508	77.9005	39.5508	75.7099	39.5508	78.1662	39.5508	75.5876	39.5508	78.3721	39.5508	75.4855	39.5508	78.4945	39.5508	75.4022	39.5508	78.5163	39.5508	75.337	39.5508	78.4309	39.5508	75.2897	39.5508	78.2439	39.5508	75.2611	39.5508	77.9731	39.5508	75.2527	39.5508	77.6446	39.5508	75.2668	39.5508	77.2876	39.5508	75.3064	39.5508	76.9292	39.5508	75.375	39.5508	76.5901	39.5508	75.4768	39.5508	76.2839	39.5508	75.6158	39.5508	76.0181	39.5508	75.7955
41.0156	78.6193	41.0156	78.366	41.0156	78.89	41.0156	78.1329	41.0156	79.1719	41.0156	77.921	41.0156	79.4543	41.0156	77.7302	41.0156	79.7218	41.0156	77.5602	41.0156	79.9544	41.0156	77.4104	41.0156	80.1298	41.0156	77.2807	41.0156	80.227	41.0156	77.1711	41.0156	80.2307	41.0156	77.0822	41.0156	80.1345	41.0156	77.0146	41.0156	79.9435	41.0156	76.9697	41.0156	79.6737	41.0156	76.9492	41.0156	79.3489	41.0156	76.9556	41.0156	78.9959	41.0156	76.9915	41.0156	78.64	41.0156	77.0602	41.0156	78.3009	41.0156	77.165	41.0156	77.9924	41.0156	77.3089	41.0156	77.7223	41.0156	77.4942
42.4805	80.4313	42.4805	80.1989	42.4805	80.6693	42.4805	79.9749	42.4805	80.9068	42.4805	79.7609	42.4805	81.1341	42.4805	79.5574	42.4805	81.3375	42.4805	79.3652	42.4805	81.4995	42.4805	79.1852	42.4805	81.6017	42.4805	79.0186	42.4805	81.6275	42.4805	78.8672	42.4805	81.5663	42.4805	78.7329	42.4805	81.4168	42.4805	78.6181	42.4805	81.1881	42.4805	78.5254	42.4805	80.8979	42.4805	78.4578	42.4805	80.5687	42.4805	78.4188	42.4805	80.2231	42.4805	78.4123	42.4805	79.8806	42.4805	78.4426	42.4805	79.5563	42.4805	78.514	42.4805	79.2619	42.4805	78.6305	42.4805	79.0059	42.4805	78.7944
43.9453	81.2843	43.9453	81.0646	43.9453	81.5114	43.9453	80.8545	43.9453	81.7413	43.9453	80.6543	43.9453	81.9657	43.9453	80.464	43.9453	82.1718	43.9453	80.2836	43.9453	82.3432	43.9453	80.1136	43.9453	82.4614	43.9453	79.955	43.9453	82.5092	43.9453	79.8095	43.9453	82.4751	43.9453	79.6796	43.9453	82.356	43.9453	79.5684	43.9453	82.1599	43.9453	79.4796	43.9453	81.9031	43.9453	79.4176	43.9453	81.6066	43.9453	79.3876	43.9453	81.2907	43.9453	79.3948	43.9453	80.9716	43.9453	79.4442	43.9453	80.6612	43.9453	79.5395	43.9453	80.3687	43.9453	79.6824	43.9453	80.1028	43.9453	79.8717
45.4102	81.3988	45.4102	81.1466	45.4102	81.6715	45.4102	80.9195	45.4102	81.9567	45.4102	80.7192	45.4102	82.242	45.4102	80.5455	45.4102	82.5109	45.4102	80.3974	45.4102	82.744	45.4102	80.2737	45.4102	82.9207	45.4102	80.1737	45.4102	83.0224	45.4102	80.097	45.4102	83.0367	45.4102	80.0442	45.4102	82.9605	45.4102	80.0159	45.4102	82.8019	45.4102	80.0134	45.4102	82.5788	45.4102	80.038	45.4102	82.3153	45.4102	80.091	45.4102	82.035	45.4102	80.1734	45.4102	81.7558	45.4102	80.2856	45.4102	81.4882	45.4102	80.4267	45.4102	81.2367	45.4102	80.5952	45.4102	81.0028	45.4102	80.7882
46.875	82.2082	46.875	81.9377	46.875	82.4914	46.875	81.6882	46.875	82.7773	46.875	81.4658	46.875	83.0534	46.875	81.2749	46.875	83.3055	46.875	81.1179	46.875	83.5173	46.875	80.996	46.875	83.6721	46.875	80.909	46.875	83.7546	46.875	80.8563	46.875	83.7551	46.875	80.8363	46.875	83.6725	46.875	80.8473	46.875	83.5161	46.875	80.8873	46.875	83.305	46.875	80.9539	46.875	83.0633	46.875	81.0447	46.875	82.814	46.875	81.1572	46.875	82.5734	46.875	81.2884	46.875	82.3491	46.875	81.4354	46.875	82.1417	46.875	81.5956	46.875	81.9485	46.875	81.7668
48.3398	82.5615	48.3398	82.3172	48.3398	82.8094	48.3398	82.0841	48.3398	83.0523	48.3398	81.8686	48.3398	83.2803	48.3398	81.676	48.3398	83.4819	48.3398	81.5104	48.3398	83.6442	48.3398	81.375	48.3398	83.7542	48.3398	81.2715	48.3398	83.8003	48.3398	81.2006	48.3398	83.7755	48.3398	81.1622	48.3398	83.6798	48.3398	81.155	48.3398	83.522	48.3398	81.1774	48.3398	83.3184	48.3398	81.2266	48.3398	83.0895	48.3398	81.2998	48.3398	82.8552	48.3398	81.3935	48.3398	82.6308	48.3398	81.5042	48.3398	82.4241	48.3398	81.6286	48.3398	82.2369	48.3398	81.7643	48.3398	82.0667	48.3398	81.9101
51.2695	83.2148	51.2695	83.0052	51.2695	83.4191	51.2695	82.7961	51.2695	83.6113	51.2695	82.5931	51.2695	83.7837	51.2695	82.4012	51.2695	83.9278	51.2695	82.2249	51.2695	84.0342	51.2695	82.068	51.2695	84.0936	51.2695	81.9338	51.2695	84.0985	51.2695	81.8248	51.2695	84.0453	51.2695	81.7428	51.2695	83.9359	51.2695	81.6888	51.2695	83.7784	51.2695	81.663	51.2695	83.5853	51.2695	81.6653	51.2695	83.3713	51.2695	81.6945	51.2695	83.15	51.2695	81.7495	51.2695	82.932	51.2695	81.8286	51.2695	82.7242	51.2695	81.9301	51.2695	82.5307	51.2695	82.0523	51.2695	82.3535	51.2695	82.1938
52.7344	83.5205	52.7344	83.3103	52.7344	83.723	52.7344	83.0985	52.7344	83.9114	52.7344	82.8906	52.7344	84.0782	52.7344	82.6916	52.7344	84.2152	52.7344	82.5062	52.7344	84.3133	52.7344	82.3386	52.7344	84.3642	52.7344	82.1924	52.7344	84.3616	52.7344	82.0703	52.7344	84.3033	52.7344	81.9747	52.7344	84.1927	52.7344	81.9071	52.7344	84.0383	52.7344	81.8685	52.7344	83.8514	52.7344	81.8592	52.7344	83.6434	52.7344	81.8791	52.7344	83.4242	52.7344	81.9278	52.7344	83.2014	52.7344	82.0047	52.7344	82.9815	52.7344	82.1091	52.7344	82.7703	52.7344	82.2398	52.7344	82.5733	52.7344	82.3953
54.1992	83.8187	54.1992	83.6258	54.1992	84.0004	54.1992	83.4276	54.1992	84.1642	54.1992	83.2297	54.1992	84.3032	54.1992	83.0374	54.1992	84.4101	54.1992	82.8553	54.1992	84.4776	54.1992	82.6875	54.1992	84.4994	54.1992	82.5375	54.1992	84.4713	54.1992	82.4081	54.1992	84.3933	54.1992	82.3017	54.1992	84.27	54.1992	82.2201	54.1992	84.1104	54.1992	82.1645	54.1992	83.9255	54.1992	82.136	54.1992	83.7254	54.1992	82.1353	54.1992	83.5178	54.1992	82.1627	54.1992	83.3083	54.1992	82.2187	54.1992	83.1018	54.1992	82.3033	54.1992	82.9036	54.1992	82.4161	54.1992	82.7197	54.1992	82.5558
55.6641	84.1555	55.6641	83.9616	55.6641	84.3389	55.6641	83.7634	55.6641	84.5049	55.6641	83.5665	55.6641	84.646	55.6641	83.3762	55.6641	84.7535	55.6641	83.1968	55.6641	84.8191	55.6641	83.0324	55.6641	84.8346	55.6641	82.8863	55.6641	84.7947	55.6641	82.7609	55.6641	84.6986	55.6641	82.6584	55.6641	84.5521	55.6641	82.58	55.6641	84.367	55.6641	82.5267	55.6641	84.1587	55.6641	82.4989	55.6641	83.9425	55.6641	82.4969	55.6641	83.7299	55.6641	82.5205	55.6641	83.5273	55.6641	82.5696	55.6641	83.3376	55.6641	82.6435	55.6641	83.1623	55.6641	82.7414	55.6641	83.003	55.6641	82.8619
58.5938	84.4335	58.5938	84.2315	58.5938	84.6275	58.5938	84.028	58.5938	84.8059	58.5938	83.8294	58.5938	84.9609	58.5938	83.6412	58.5938	85.0842	58.5938	83.468	58.5938	85.1674	58.5938	83.3141	58.5938	85.2033	58.5938	83.1827	58.5938	85.1867	58.5938	83.0764	58.5938	85.1165	58.5938	82.9968	58.5938	84.997	58.5938	82.9448	58.5938	84.8377	58.5938	82.9205	58.5938	84.6523	58.5938	82.9236	58.5938	84.4548	58.5938	82.9529	58.5938	84.2572	58.5938	83.0067	58.5938	84.067	58.5938	83.083	58.5938	83.8879	58.5938	83.1794	58.5938	83.7207	58.5938	83.2934	58.5938	83.5656	58.5938	83.4228
60.0586	84.6113	60.0586	84.4096	60.0586	84.8034	60.0586	84.2052	60.0586	84.9784	60.0586	84.0046	60.0586	85.1288	60.0586	83.8138	60.0586	85.2468	60.0586	83.638	60.0586	85.3249	60.0586	83.4818	60.0586	85.3564	60.0586	83.3488	60.0586	85.337	60.0586	83.2418	60.0586	85.2661	60.0586	83.1627	60.0586	85.1479	60.0586	83.1122	60.0586	84.9919	60.0586	83.0904	60.0586	84.8107	60.0586	83.0965	60.0586	84.6179	60.0586	83.129	60.0586	84.4247	60.0586	83.1859	60.0586	84.2383	60.0586	83.2645	60.0586	84.0624	60.0586	83.3621	60.0586	83.8981	60.0586	83.4763	60.0586	83.7455	60.0586	83.6046
62.9883	84.9677	62.9883	84.78	62.9883	85.144	62.9883	84.5873	62.9883	85.3023	62.9883	84.3959	62.9883	85.436	62.9883	84.2113	62.9883	85.5384	62.9883	84.039	62.9883	85.6037	62.9883	83.8837	62.9883	85.6268	62.9883	83.7492	62.9883	85.605	62.9883	83.6387	62.9883	85.5385	62.9883	83.5547	62.9883	85.4314	62.9883	83.4986	62.9883	85.2915	62.9883	83.4708	62.9883	85.1289	62.9883	83.4714	62.9883	84.9539	62.9883	83.4991	62.9883	84.7754	62.9883	83.5524	62.9883	84.5993	62.9883	83.6291	62.9883	84.4293	62.9883	83.7263	62.9883	84.2671	62.9883	83.8414	62.9883	84.114	62.9883	83.9715
64.4531	85.098	64.4531	84.912	64.4531	85.2717	64.4531	84.7203	64.4531	85.4264	64.4531	84.5292	64.4531	85.5555	64.4531	84.3446	64.4531	85.6527	64.4531	84.172	64.4531	85.7123	64.4531	84.0163	64.4531	85.7302	64.4531	83.8815	64.4531	85.7042	64.4531	83.771	64.4531	85.6354	64.4531	83.6871	64.4531	85.5282	64.4531	83.6312	64.4531	85.3903	64.4531	83.6039	64.4531	85.2312	64.4531	83.6047	64.4531	85.0604	64.4531	83.6326	64.4531	84.8857	64.4531	83.6855	64.4531	84.7131	64.4531	83.7612	64.4531	84.5459	64.4531	83.8568	64.4531	84.3865	64.4531	83.9695	64.4531	84.2363	64.4531	84.0967
67.3828	85.3545	67.3828	85.1718	67.3828	85.524	67.3828	84.9825	67.3828	85.6739	67.3828	84.793	67.3828	85.798	67.3828	84.6094	67.3828	85.8908	67.3828	84.4371	67.3828	85.9478	67.3828	84.2809	67.3828	85.9663	67.3828	84.1448	67.3828	85.9453	67.3828	84.032	67.3828	85.8863	67.3828	83.9448	67.3828	85.7932	67.3828	83.8846	67.3828	85.6711	67.3828	83.8521	67.3828	85.5262	67.3828	83.8472	67.3828	85.3641	67.3828	83.8693	67.3828	85.1905	67.3828	83.9173	67.3828	85.0106	67.3828	83.9897	67.3828	84.8301	67.3828	84.0849	67.3828	84.6544	67.3828	84.2011	67.3828	84.4885	67.3828	84.3364
68.8477	85.466	68.8477	85.2868	68.8477	85.6319	68.8477	85.1011	68.8477	85.7775	68.8477	84.9156	68.8477	85.8965	68.8477	84.7364	68.8477	85.9833	68.8477	84.569	68.8477	86.0336	68.8477	84.418	68.8477	86.0456	68.8477	84.2871	68.8477	86.0198	68.8477	84.1789	68.8477	85.9594	68.8477	84.0953	68.8477	85.8701	68.8477	84.0373	68.8477	85.7577	68.8477	84.0052	68.8477	85.6273	68.8477	83.999	68.8477	85.4821	68.8477	84.0182	68.8477	85.3239	68.8477	84.0625	68.8477	85.1551	68.8477	84.1313	68.8477	84.9797	68.8477	84.2243	68.8477	84.8037	68.8477	84.3405	68.8477	84.6343	68.8477	84.4782
71.7773	85.5812	71.7773	85.4045	71.7773	85.7434	71.7773	85.2204	71.7773	85.8841	71.7773	85.0362	71.7773	85.9973	71.7773	84.8591	71.7773	86.0786	71.7773	84.6955	71.7773	86.1252	71.7773	84.5508	71.7773	86.1368	71.7773	84.4296	71.7773	86.1153	71.7773	84.3351	71.7773	86.0649	71.7773	84.2693	71.7773	85.9911	71.7773	84.2328	71.7773	85.8996	71.7773	84.2255	71.7773	85.795	71.7773	84.246	71.7773	85.6799	71.7773	84.2926	71.7773	85.5552	71.7773	84.3632	71.7773	85.421	71.7773	84.4552	71.7773	85.2782	71.7773	84.5661	71.7773	85.1295	71.7773	84.6929	71.7773	84.9791	71.7773	84.832
74.707	85.6882	74.707	85.5107	74.707	85.8486	74.707	85.3233	74.707	85.9855	74.707	85.1334	74.707	86.0935	74.707	84.9482	74.707	86.1688	74.707	84.7748	74.707	86.2096	74.707	84.6193	74.707	86.2162	74.707	84.487	74.707	86.1907	74.707	84.3822	74.707	86.1365	74.707	84.3076	74.707	86.0582	74.707	84.2648	74.707	85.9603	74.707	84.254	74.707	85.847	74.707	84.2741	74.707	85.7219	74.707	84.3229	74.707	85.5882	74.707	84.3973	74.707	85.4486	74.707	84.4938	74.707	85.3053	74.707	84.608	74.707	85.1601	74.707	84.7357	74.707	85.0151	74.707	84.8726
77.6367	85.6788	77.6367	85.503	77.6367	85.8344	77.6367	85.314	77.6367	85.9635	77.6367	85.1196	77.6367	86.0609	77.6367	84.9271	77.6367	86.1232	77.6367	84.7438	77.6367	86.1491	77.6367	84.5764	77.6367	86.1397	77.6367	84.4306	77.6367	86.098	77.6367	84.3111	77.6367	86.0288	77.6367	84.2215	77.6367	85.9376	77.6367	84.164	77.6367	85.8295	77.6367	84.1393	77.6367	85.7084	77.6367	84.147	77.6367	85.5771	77.6367	84.1853	77.6367	85.4379	77.6367	84.2511	77.6367	85.2933	77.6367	84.3409	77.6367	85.1458	77.6367	84.4502	77.6367	84.9978	77.6367	84.5745	77.6367	84.8516	77.6367	84.7095
79.1016	85.7035	79.1016	85.5294	79.1016	85.8559	79.1016	85.3409	79.1016	85.9803	79.1016	85.1455	79.1016	86.0717	79.1016	84.951	79.1016	86.1271	79.1016	84.7647	79.1016	86.1455	79.1016	84.5936	79.1016	86.1286	79.1016	84.4435	79.1016	86.0802	79.1016	84.3193	79.1016	86.0056	79.1016	84.2248	79.1016	85.9109	79.1016	84.1622	79.1016	85.801	79.1016	84.1326	79.1016	85.6795	79.1016	84.1356	79.1016	85.5485	79.1016	84.1696	79.1016	85.4097	79.1016	84.2316	79.1016	85.2651	79.1016	84.3182	79.1016	85.1172	79.1016	84.4249	79.1016	84.9689	79.1016	84.5472	79.1016	84.8226	79.1016	84.681
82.0312	85.7663	82.0312	85.5958	82.0312	85.9134	82.0312	85.4093	82.0312	86.0305	82.0312	85.2145	82.0312	86.1126	82.0312	85.0192	82.0312	86.1564	82.0312	84.8309	82.0312	86.1616	82.0312	84.656	82.0312	86.1302	82.0312	84.5004	82.0312	86.067	82.0312	84.3688	82.0312	85.9789	82.0312	84.2648	82.0312	85.8727	82.0312	84.1909	82.0312	85.7539	82.0312	84.1482	82.0312	85.6257	82.0312	84.1369	82.0312	85.4891	82.0312	84.1559	82.0312	85.3451	82.0312	84.2032	82.0312	85.1956	82.0312	84.2758	82.0312	85.0437	82.0312	84.3702	82.0312	84.8931	82.0312	84.4827	82.0312	84.7473	82.0312	84.6095
84.9609	85.7026	84.9609	85.5371	84.9609	85.845	84.9609	85.3559	84.9609	85.9576	84.9609	85.1667	84.9609	86.0354	84.9609	84.9773	84.9609	86.0752	84.9609	84.795	84.9609	86.0763	84.9609	84.6261	84.9609	86.0409	84.9609	84.4762	84.9609	85.9739	84.9609	84.3493	84.9609	85.8823	84.9609	84.2485	84.9609	85.7735	84.9609	84.1754	84.9609	85.6539	84.9609	84.1309	84.9609	85.527	84.9609	84.1146	84.9609	85.3936	84.9609	84.1257	84.9609	85.2532	84.9609	84.1626	84.9609	85.1065	84.9609	84.2234	84.9609	84.956	84.9609	84.3062	84.9609	84.8061	84.9609	84.4086	84.9609	84.662	84.9609	84.5282
87.8906	85.4705	87.8906	85.3016	87.8906	85.6146	87.8906	85.1158	87.8906	85.7277	87.8906	84.9214	87.8906	85.8052	87.8906	84.7269	87.8906	85.8455	87.8906	84.5408	87.8906	85.8495	87.8906	84.3704	87.8906	85.8212	87.8906	84.222	87.8906	85.7668	87.8906	84.1006	87.8906	85.693	87.8906	84.0096	87.8906	85.6055	87.8906	83.9507	87.8906	85.5079	87.8906	83.9241	87.8906	85.4011	87.8906	83.9289	87.8906	85.2847	87.8906	83.9629	87.8906	85.1585	87.8906	84.0233	87.8906	85.0235	87.8906	84.1066	87.8906	84.8824	87.8906	84.2092	87.8906	84.7385	87.8906	84.3273	87.8906	84.5956	87.8906	84.4573
90.8203	85.3512	90.8203	85.1811	90.8203	85.4954	90.8203	84.9932	90.8203	85.6072	90.8203	84.7959	90.8203	85.6817	90.8203	84.5978	90.8203	85.7166	90.8203	84.4068	90.8203	85.7132	90.8203	84.2303	90.8203	85.6757	90.8203	84.0745	90.8203	85.6118	90.8203	83.9446	90.8203	85.5302	90.8203	83.8442	90.8203	85.4389	90.8203	83.7757	90.8203	85.3422	90.8203	83.7403	90.8203	85.2401	90.8203	83.7376	90.8203	85.1293	90.8203	83.7665	90.8203	85.0069	90.8203	83.8245	90.8203	84.8721	90.8203	83.9086	90.8203	84.727	90.8203	84.0149	90.8203	84.5761	90.8203	84.1393	90.8203	84.4246	90.8203	84.2774
95.2148	85.0491	95.2148	84.8974	95.2148	85.1759	95.2148	84.7278	95.2148	85.2722	95.2148	84.5482	95.2148	85.3346	95.2148	84.367	95.2148	85.3623	95.2148	84.1922	95.2148	85.3573	95.2148	84.031	95.2148	85.3243	95.2148	83.8897	95.2148	85.2697	95.2148	83.7729	95.2148	85.2005	95.2148	83.6839	95.2148	85.1224	95.2148	83.6242	95.2148	85.0384	95.2148	83.5943	95.2148	84.9486	95.2148	83.5933	95.2148	84.8508	95.2148	83.6198	95.2148	84.7424	95.2148	83.6718	95.2148	84.6223	95.2148	83.7468	95.2148	84.492	95.2148	83.8421	95.2148	84.3548	95.2148	83.9547	95.2148	84.2159	95.2148	84.0808
98.1445	84.8666	98.1445	84.7244	98.1445	84.9752	98.1445	84.5567	98.1445	85.0441	98.1445	84.3727	98.1445	85.0705	98.1445	84.1824	98.1445	85.0552	98.1445	83.9954	98.1445	85.0037	98.1445	83.8207	98.1445	84.9256	98.1445	83.6661	98.1445	84.833	98.1445	83.5379	98.1445	84.7376	98.1445	83.4404	98.1445	84.6478	98.1445	83.376	98.1445	84.5659	98.1445	83.3451	98.1445	84.4896	98.1445	83.3463	98.1445	84.4137	98.1445	83.3771	98.1445	84.3333	98.1445	83.4335	98.1445	84.2453	98.1445	83.5112	98.1445	84.1488	98.1445	83.6053	98.1445	84.0446	98.1445	83.7105	98.1445	83.9345	98.1445	83.8218
101.074	84.7753	101.074	84.6243	101.074	84.888	101.074	84.4441	101.074	84.9556	101.074	84.2447	101.074	84.9741	101.074	84.0364	101.074	84.9439	101.074	83.8293	101.074	84.8704	101.074	83.6325	101.074	84.7644	101.074	83.4543	101.074	84.6404	101.074	83.3013	101.074	84.5133	101.074	83.1787	101.074	84.3942	101.074	83.0895	101.074	84.2874	101.074	83.0353	101.074	84.1899	101.074	83.0157	101.074	84.0952	101.074	83.0287	101.074	83.9971	101.074	83.0709	101.074	83.8926	101.074	83.1378	101.074	83.7819	101.074	83.2244	101.074	83.6669	101.074	83.3252	101.074	83.5504	101.074	83.4353
105.469	84.6847	105.469	84.53	105.469	84.8057	105.469	84.3493	105.469	84.8877	105.469	84.1514	105.469	84.9285	105.469	83.9462	105.469	84.9295	105.469	83.7433	105.469	84.8962	105.469	83.5523	105.469	84.8374	105.469	83.3813	105.469	84.7639	105.469	83.2371	105.469	84.6852	105.469	83.1248	105.469	84.6072	105.469	83.0474	105.469	84.53	105.469	83.0059	105.469	84.4491	105.469	82.9994	105.469	84.3575	105.469	83.0259	105.469	84.2498	105.469	83.0823	105.469	84.1245	105.469	83.1648	105.469	83.984	105.469	83.27	105.469	83.8339	105.469	83.3939	105.469	83.6812	105.469	83.5326
108.398	84.772	108.398	84.6512	108.398	84.8506	108.398	84.4959	108.398	84.8821	108.398	84.3153	108.398	84.8657	108.398	84.1198	108.398	84.8053	108.398	83.9194	108.398	84.7098	108.398	83.724	108.398	84.5922	108.398	83.5422	108.398	84.4673	108.398	83.3814	108.398	84.3472	108.398	83.2475	108.398	84.2383	108.398	83.1449	108.398	84.1399	108.398	83.0761	108.398	84.0467	108.398	83.0414	108.398	83.9534	108.398	83.0395	108.398	83.8574	108.398	83.0671	108.398	83.7591	108.398	83.1195	108.398	83.66	108.398	83.1908	108.398	83.5614	108.398	83.2752	108.398	83.4636	108.398	83.3675
112.793	84.7086	112.793	84.5606	112.793	84.8089	112.793	84.3761	112.793	84.853	112.793	84.1676	112.793	84.8362	112.793	83.9476	112.793	84.7602	112.793	83.7283	112.793	84.6339	112.793	83.5202	112.793	84.4745	112.793	83.3323	112.793	84.3051	112.793	83.1711	112.793	84.1495	112.793	83.0413	112.793	84.0239	112.793	82.9453	112.793	83.9319	112.793	82.8836	112.793	83.8638	112.793	82.8554	112.793	83.8035	112.793	82.8588	112.793	83.7367	112.793	82.891	112.793	83.6557	112.793	82.9484	112.793	83.5598	112.793	83.027	112.793	83.4529	112.793	83.122	112.793	83.3404	112.793	83.2282
117.188	84.4621	117.188	84.3011	117.188	84.5829	117.188	84.1086	117.188	84.6568	117.188	83.8944	117.188	84.6802	117.188	83.6689	117.188	84.6537	117.188	83.4425	117.188	84.5828	117.188	83.2252	117.188	84.4779	117.188	83.0263	117.188	84.353	117.188	82.8537	117.188	84.2229	117.188	82.7138	117.188	84.0985	117.188	82.6111	117.188	83.9842	117.188	82.5474	117.188	83.8772	117.188	82.5225	117.188	83.7699	117.188	82.5337	117.188	83.6554	117.188	82.577	117.188	83.5301	117.188	82.6478	117.188	83.395	117.188	82.7411	117.188	83.2544	117.188	82.8526	117.188	83.1137	117.188	82.9782
120.117	84.4499	120.117	84.3245	120.117	84.5306	120.117	84.1629	120.117	84.5606	120.117	83.9753	120.117	84.5375	120.117	83.7721	120.117	84.4637	120.117	83.5639	120.117	84.3466	120.117	83.36	120.117	84.1983	120.117	83.1691	120.117	84.0334	120.117	82.9981	120.117	83.8659	120.117	82.8525	120.117	83.7051	120.117	82.7361	120.117	83.5544	120.117	82.6512	120.117	83.4131	120.117	82.5978	120.117	83.2798	120.117	82.574	120.117	83.1556	120.117	82.5761	120.117	83.0438	120.117	82.5989	120.117	82.9474	120.117	82.6365	120.117	82.8664	120.117	82.6838	120.117	82.7977	120.117	82.7377
124.512	84.3244	124.512	84.1828	124.512	84.4195	124.512	84.0057	124.512	84.4599	124.512	83.8055	124.512	84.4416	124.512	83.5949	124.512	84.3661	124.512	83.3859	124.512	84.242	124.512	83.1892	124.512	84.0844	124.512	83.0133	124.512	83.9129	124.512	82.8648	124.512	83.7478	124.512	82.7478	124.512	83.6034	124.512	82.6641	124.512	83.4846	124.512	82.6134	124.512	83.3873	124.512	82.5938	124.512	83.3031	124.512	82.6015	124.512	83.2245	124.512	82.6315	124.512	83.1482	124.512	82.6781	124.512	83.0739	124.512	82.7355	124.512	83.002	124.512	82.7989	124.512	82.9327	124.512	82.865
128.906	84.1216	128.906	83.9616	128.906	84.229	128.906	83.7619	128.906	84.2745	128.906	83.5374	128.906	84.2539	128.906	83.3037	128.906	84.1705	128.906	83.0754	128.906	84.036	128.906	82.8658	128.906	83.8704	128.906	82.6854	128.906	83.6996	128.906	82.5417	128.906	83.549	128.906	82.4389	128.906	83.4355	128.906	82.3779	128.906	83.3628	128.906	82.3567	128.906	83.3211	128.906	82.3713	128.906	83.2937	128.906	82.4164	128.906	83.2642	128.906	82.4858	128.906	83.2214	128.906	82.5732	128.906	83.1602	128.906	82.6727	128.906	83.0813	128.906	82.7785	128.906	82.988	128.906	82.8854
133.301	84.0565	133.301	83.8816	133.301	84.1747	133.301	83.663	133.301	84.2266	133.301	83.4153	133.301	84.2077	133.301	83.1535	133.301	84.1218	133.301	82.892	133.301	83.9819	133.301	82.6443	133.301	83.8107	133.301	82.4222	133.301	83.6369	133.301	82.2363	133.301	83.4881	133.301	82.095	133.301	83.3814	133.301	82.0042	133.301	83.318	133.301	81.9668	133.301	83.2851	133.301	81.9822	133.301	83.2637	133.301	82.0459	133.301	83.2362	133.301	82.1502	133.301	83.1906	133.301	82.2849	133.301	83.1203	133.301	82.4385	133.301	83.023	133.301	82.5993	133.301	82.9002	133.301	82.7565
139.16	83.8295	139.16	83.6353	139.16	83.9717	139.16	83.4032	139.16	84.05	139.16	83.1483	139.16	84.0575	139.16	82.8848	139.16	83.9944	139.16	82.6251	139.16	83.8709	139.16	82.3795	139.16	83.7074	139.16	82.1562	139.16	83.5322	139.16	81.9617	139.16	83.3742	139.16	81.8009	139.16	83.252	139.16	81.6782	139.16	83.1665	139.16	81.5972	139.16	83.1011	139.16	81.5605	139.16	83.0326	139.16	81.5691	139.16	82.9424	139.16	81.6216	139.16	82.823	139.16	81.7143	139.16	82.677	139.16	81.8406	139.16	82.512	139.16	81.9925	139.16	82.337	139.16	82.161
143.555	83.5372	143.555	83.3581	143.555	83.6658	143.555	83.1416	143.555	83.7347	143.555	82.9024	143.555	83.7393	143.555	82.6554	143.555	83.6821	143.555	82.4144	143.555	83.5732	143.555	82.1909	143.555	83.4303	143.555	81.9931	143.555	83.2761	143.555	81.8257	143.555	83.133	143.555	81.6908	143.555	83.0158	143.555	81.5881	143.555	82.9257	143.555	81.5169	143.555	82.8511	143.555	81.4765	143.555	82.7731	143.555	81.4671	143.555	82.6754	143.555	81.4895	143.555	82.5501	143.555	81.5447	143.555	82.399	143.555	81.6325	143.555	82.2314	143.555	81.7511	143.555	82.0595	143.555	81.896
147.949	83.2104	147.949	82.9936	147.949	83.3714	147.949	82.7352	147.949	83.466	147.949	82.4516	147.949	83.4893	147.949	82.16	147.949	83.4433	147.949	81.8773	147.949	83.3386	147.949	81.6196	147.949	83.1939	147.949	81.4003	147.949	83.0332	147.949	81.2294	147.949	82.8799	147.949	81.1123	147.949	82.7503	147.949	81.0494	147.949	82.649	147.949	81.0364	147.949	82.5692	147.949	81.0658	147.949	82.4972	147.949	81.1288	147.949	82.4184	147.949	81.2177	147.949	82.3215	147.949	81.3269	147.949	82.2017	147.949	81.4533	147.949	82.0608	147.949	81.5947	147.949	81.9061	147.949	81.7477
153.809	83.1464	153.809	82.9865	153.809	83.2429	153.809	82.7761	153.809	83.269	153.809	82.5317	153.809	83.2253	153.809	82.2708	153.809	83.1216	153.809	82.0102	153.809	82.9769	153.809	81.7641	153.809	82.8171	153.809	81.5431	153.809	82.6676	153.809	81.3539	153.809	82.544	153.809	81.2003	153.809	82.4447	153.809	81.0838	153.809	82.3525	153.809	81.0046	153.809	82.2452	153.809	80.9617	153.809	82.1099	153.809	80.9526	153.809	81.9492	153.809	80.9734	153.809	81.7779	153.809	81.0185	153.809	81.6142	153.809	81.0816	153.809	81.4701	153.809	81.158	153.809	81.3486	153.809	81.2462
159.668	83.2987	159.668	83.0727	159.668	83.4468	159.668	82.7877	159.668	83.504	159.668	82.4654	159.668	83.4645	159.668	82.1298	159.668	83.3332	159.668	81.804	159.668	83.1278	159.668	81.5094	159.668	82.8798	159.668	81.2626	159.668	82.6302	159.668	81.0743	159.668	82.4192	159.668	80.9481	159.668	82.2709	159.668	80.8808	159.668	82.1841	159.668	80.8643	159.668	82.1366	159.668	80.8883	159.668	82.0987	159.668	80.9423	159.668	82.0467	159.668	81.0182	159.668	81.9687	159.668	81.1109	159.668	81.8641	159.668	81.2178	159.668	81.7392	159.668	81.3373	159.668	81.6039	159.668	81.4675
165.527	83.5026	165.527	83.2504	165.527	83.6789	165.527	82.9413	165.527	83.7646	165.527	82.5958	165.527	83.7513	165.527	82.2345	165.527	83.6405	165.527	81.8773	165.527	83.4469	165.527	81.5422	165.527	83.1995	165.527	81.2457	165.527	82.9383	165.527	81.0016	165.527	82.7047	165.527	80.8211	165.527	82.5271	165.527	80.7106	165.527	82.4103	165.527	80.6712	165.527	82.3383	165.527	80.6979	165.527	82.2857	165.527	80.781	165.527	82.2304	165.527	80.9076	165.527	82.1577	165.527	81.0648	165.527	82.0597	165.527	81.2409	165.527	81.9334	165.527	81.4254	165.527	81.781	165.527	81.6087
171.387	83.9663	171.387	83.7556	171.387	84.1088	171.387	83.4923	171.387	84.1718	171.387	83.1942	171.387	84.1495	171.387	82.8802	171.387	84.0443	171.387	82.5685	171.387	83.8686	171.387	82.2752	171.387	83.6452	171.387	82.0135	171.387	83.4049	171.387	81.7925	171.387	83.1782	171.387	81.6176	171.387	82.9835	171.387	81.4903	171.387	82.8196	171.387	81.4079	171.387	82.669	171.387	81.3647	171.387	82.5111	171.387	81.3526	171.387	82.3356	171.387	81.3629	171.387	82.1475	171.387	81.3889	171.387	81.9622	171.387	81.4277	171.387	81.796	171.387	81.4815	171.387	81.6599	171.387	81.5564
177.246	84.4212	177.246	84.1882	177.246	84.5822	177.246	83.9009	177.246	84.6582	177.246	83.5792	177.246	84.6437	177.246	83.244	177.246	84.5433	177.246	82.9154	177.246	84.3738	177.246	82.6114	177.246	84.1634	177.246	82.3475	177.246	83.9475	177.246	82.136	177.246	83.7586	177.246	81.985	177.246	83.616	177.246	81.8981	177.246	83.5201	177.246	81.8743	177.246	83.4555	177.246	81.9074	177.246	83.4009	177.246	81.9877	177.246	83.3378	177.246	82.1035	177.246	83.2545	177.246	82.2431	177.246	83.1473	177.246	82.3966	177.246	83.0182	177.246	82.5564	177.246	82.8726	177.246	82.7168
183.105	84.704	183.105	84.4864	183.105	84.848	183.105	84.2158	183.105	84.9025	183.105	83.9141	183.105	84.8601	183.105	83.6023	183.105	84.7267	183.105	83.2986	183.105	84.5244	183.105	83.0173	183.105	84.2908	183.105	82.7691	183.105	84.0714	183.105	82.5615	183.105	83.9035	183.105	82.3992	183.105	83.8008	183.105	82.2852	183.105	83.7491	183.105	82.2209	183.105	83.718	183.105	82.206	183.105	83.679	183.105	82.2383	183.105	83.6147	183.105	82.3136	183.105	83.5199	183.105	82.426	183.105	83.3959	183.105	82.5681	183.105	83.2474	183.105	82.7312	183.105	83.0811	183.105	82.9056
188.965	84.7736	188.965	84.5704	188.965	84.9023	188.965	84.3115	188.965	84.9423	188.965	84.017	188.965	84.8886	188.965	83.7066	188.965	84.7494	188.965	83.398	188.965	84.5493	188.965	83.1074	188.965	84.3276	188.965	82.8487	188.965	84.128	188.965	82.6337	188.965	83.9834	188.965	82.4712	188.965	83.9014	188.965	82.3657	188.965	83.8638	188.965	82.3165	188.965	83.8396	188.965	82.3174	188.965	83.8006	188.965	82.3586	188.965	83.7293	188.965	82.4298	188.965	83.6193	188.965	82.524	188.965	83.4725	188.965	82.639	188.965	83.2991	188.965	82.7762	188.965	83.1147	188.965	82.9364
196.289	85.3948	196.289	85.2219	196.289	85.4706	196.289	84.9774	196.289	85.4298	196.289	84.6883	196.289	85.2629	196.289	84.3807	196.289	84.9766	196.289	84.0765	196.289	84.5998	196.289	83.7918	196.289	84.1886	196.289	83.5358	196.289	83.8181	196.289	83.3123	196.289	83.5512	196.289	83.122	196.289	83.3991	196.289	82.9652	196.289	83.3133	196.289	82.8427	196.289	83.2254	196.289	82.7557	196.289	83.0957	196.289	82.7027	196.289	82.9315	196.289	82.6771	196.289	82.7719	196.289	82.6673	196.289	82.6566	196.289	82.6596	196.289	82.6021	196.289	82.6439	196.289	82.5978	196.289	82.6193
203.613	85.5132	203.613	85.2441	203.613	85.6891	203.613	84.9089	203.613	85.7489	203.613	84.5353	203.613	85.6775	203.613	84.1499	203.613	85.4713	203.613	83.7761	203.613	85.1448	203.613	83.4334	203.613	84.7352	203.613	83.1374	203.613	84.3041	203.613	82.9004	203.613	83.9265	203.613	82.7297	203.613	83.6644	203.613	82.6273	203.613	83.5376	203.613	82.588	203.613	83.5156	203.613	82.6006	203.613	83.5413	203.613	82.6506	203.613	83.5614	203.613	82.7241	203.613	83.5448	203.613	82.8119	203.613	83.4832	203.613	82.9104	203.613	83.3846	203.613	83.0195	203.613	83.2646	203.613	83.1392
210.938	85.1269	210.938	84.8821	210.938	85.2911	210.938	84.5846	210.938	85.3514	210.938	84.2634	210.938	85.2931	210.938	83.9454	210.938	85.1148	210.938	83.652	210.938	84.8344	210.938	83.397	210.938	84.4936	210.938	83.1852	210.938	84.1537	210.938	83.0148	210.938	83.8771	210.938	82.8805	210.938	83.6969	210.938	82.7771	210.938	83.5978	210.938	82.7021	210.938	83.5302	210.938	82.6547	210.938	83.4457	210.938	82.6341	210.938	83.3238	210.938	82.6365	210.938	83.1746	210.938	82.6546	210.938	83.0245	210.938	82.6807	210.938	82.8986	210.938	82.711	210.938	82.8083	210.938	82.7498
218.262	84.8947	218.262	84.6083	218.262	85.0897	218.262	84.2612	218.262	85.166	218.262	83.8841	218.262	85.1036	218.262	83.506	218.262	84.8962	218.262	83.1524	218.262	84.5571	218.262	82.8444	218.262	84.1247	218.262	82.5974	218.262	83.6627	218.262	82.4195	218.262	83.2468	218.262	82.3113	218.262	82.9367	218.262	82.2654	218.262	82.7497	218.262	82.2684	218.262	82.6593	218.262	82.3035	218.262	82.6215	218.262	82.3537	218.262	82.6015	218.262	82.4051	218.262	82.5832	218.262	82.4486	218.262	82.5638	218.262	82.4806	218.262	82.5456	218.262	82.5022	218.262	82.5304	218.262	82.5171
225.586	84.6335	225.586	84.396	225.586	84.7864	225.586	84.1001	225.586	84.8344	225.586	83.775	225.586	84.7672	225.586	83.4494	225.586	84.5884	225.586	83.1482	225.586	84.3191	225.586	82.8896	225.586	83.9984	225.586	82.6829	225.586	83.6777	225.586	82.5288	225.586	83.4052	225.586	82.4215	225.586	83.2053	225.586	82.3522	225.586	83.0704	225.586	82.3115	225.586	82.9707	225.586	82.2907	225.586	82.8766	225.586	82.2822	225.586	82.7728	225.586	82.2797	225.586	82.6598	225.586	82.2794	225.586	82.5475	225.586	82.2819	225.586	82.4479	225.586	82.2926	225.586	82.3707	225.586	82.3197
232.91	84.9215	232.91	84.6448	232.91	85.0814	232.91	84.2799	232.91	85.1026	232.91	83.8597	232.91	84.973	232.91	83.4199	232.91	84.697	232.91	82.9976	232.91	84.3037	232.91	82.6278	232.91	83.8548	232.91	82.3385	232.91	83.4428	232.91	82.1446	232.91	83.1612	232.91	82.0441	232.91	83.0524	232.91	82.0182	232.91	83.0762	232.91	82.0366	232.91	83.1373	232.91	82.066	232.91	83.1456	232.91	82.079	232.91	83.0548	232.91	82.0621	232.91	82.8683	232.91	82.0201	232.91	82.6235	232.91	81.9765	232.91	82.3715	232.91	81.9662	232.91	82.1602	232.91	82.0222
241.699	84.8368	241.699	84.5447	241.699	85.0084	241.699	84.1643	241.699	85.0343	241.699	83.7303	241.699	84.9011	241.699	83.2756	241.699	84.6133	241.699	82.8286	241.699	84.1986	241.699	82.4118	241.699	83.7084	241.699	82.0436	241.699	83.2086	241.699	81.7433	241.699	82.7588	241.699	81.5336	241.699	82.3936	241.699	81.4375	241.699	82.1201	241.699	81.465	241.699	81.9326	241.699	81.5994	241.699	81.8224	241.699	81.7945	241.699	81.7759	241.699	81.9901	241.699	81.7749	241.699	82.1328	241.699	81.8081	241.699	82.1924	241.699	81.8745	241.699	82.1674	241.699	81.9718	241.699	82.0812
250.488	84.2688	250.488	83.8097	250.488	84.6265	250.488	83.3018	250.488	84.8306	250.488	82.7908	250.488	84.8383	250.488	82.3123	250.488	84.6261	250.488	81.8925	250.488	84.2022	250.488	81.5497	250.488	83.6227	250.488	81.2953	250.488	83.0056	250.488	81.1316	250.488	82.509	250.488	81.0506	250.488	82.24	250.488	81.0362	250.488	82.1636	250.488	81.0682	250.488	82.1395	250.488	81.1263	250.488	82.0464	250.488	81.1922	250.488	81.8531	250.488	81.2502	250.488	81.6096	250.488	81.2868	250.488	81.3958	250.488	81.2943	250.488	81.2662	250.488	81.274	250.488	81.225	250.488	81.2409
259.277	83.4215	259.277	83.1882	259.277	83.6022	259.277	82.9143	259.277	83.7249	259.277	82.6175	259.277	83.7873	259.277	82.3167	259.277	83.7862	259.277	82.0253	259.277	83.7158	259.277	81.7483	259.277	83.5718	259.277	81.4853	259.277	83.3591	259.277	81.2385	259.277	83.0985	259.277	81.0228	259.277	82.8252	259.277	80.8687	259.277	82.5733	259.277	80.8106	259.277	82.3525	259.277	80.8624	259.277	82.1413	259.277	80.998	259.277	81.9103	259.277	81.159	259.277	81.6582	259.277	81.2826	259.277	81.4241	259.277	81.3307	259.277	81.2643	259.277	81.3041	259.277	81.2101	259.277	81.2427
268.066	83.0189	268.066	82.6452	268.066	83.3159	268.066	82.2421	268.066	83.5005	268.066	81.8605	268.066	83.5538	268.066	81.5442	268.066	83.4789	268.066	81.3179	268.066	83.3035	268.066	81.1797	268.066	83.0797	268.066	81.1044	268.066	82.8714	268.066	81.0576	268.066	82.7301	268.066	81.0138	268.066	82.668	268.066	80.9712	268.066	82.6511	268.066	80.9531	268.066	82.6222	268.066	80.9949	268.066	82.5371	268.066	81.1172	268.066	82.39	268.066	81.3053	268.066	82.2145	268.066	81.5142	268.066	82.0602	268.066	81.6933	268.066	81.9596	268.066	81.8127	268.066	81.909	268.066	81.8745
276.855	83.0379	276.855	82.6565	276.855	83.1518	276.855	82.0655	276.855	82.9754	276.855	81.3583	276.855	82.5338	276.855	80.6682	276.855	81.931	276.855	80.1505	276.855	81.3767	276.855	79.9227	276.855	81.1292	276.855	79.9967	276.855	81.3086	276.855	80.2828	276.855	81.7952	276.855	80.6668	276.855	82.3857	276.855	81.0747	276.855	82.9615	276.855	81.4902	276.855	83.5059	276.855	81.9372	276.855	84.0397	276.855	82.4481	276.855	84.561	276.855	83.0323	276.855	85.0261	276.855	83.6625	276.855	85.3694	276.855	84.2838	276.855	85.5348	276.855	84.8326	276.855	85.4945	276.855	85.2512
287.109	87.2859	287.109	86.7855	287.109	87.5253	287.109	86.0673	287.109	87.4642	287.109	85.1767	287.109	87.0707	287.109	84.1646	287.109	86.3286	287.109	83.098	287.109	85.2594	287.109	82.0734	287.109	83.9749	287.109	81.2216	287.109	82.7706	287.109	80.6753	287.109	82.1278	287.109	80.502	287.109	82.3269	287.109	80.6671	287.109	83.1069	287.109	81.079	287.109	84.0467	287.109	81.6592	287.109	84.9162	287.109	82.3643	287.109	85.6374	287.109	83.1628	287.109	86.1786	287.109	84.007	287.109	86.5125	287.109	84.8288	287.109	86.6169	287.109	85.5542	287.109	86.4835	287.109	86.1206
297.363	86.548	297.363	86.1205	297.363	86.7844	297.363	85.5421	297.363	86.7948	297.363	84.8558	297.363	86.5531	297.363	84.1059	297.363	86.0484	297.363	83.3397	297.363	85.2974	297.363	82.6085	297.363	84.3695	297.363	81.9639	297.363	83.4185	297.363	81.4456	297.363	82.6695	297.363	81.0697	297.363	82.285	297.363	80.8304	297.363	82.2326	297.363	80.7225	297.363	82.3834	297.363	80.7659	297.363	82.6792	297.363	81.0043	297.363	83.1136	297.363	81.4638	297.363	83.6208	297.363	82.1052	297.363	84.0627	297.363	82.824	297.363	84.3096	297.363	83.4942	297.363	84.2937	297.363	84.0088
307.617	86.388	307.617	85.8766	307.617	86.7097	307.617	85.2251	307.617	86.7926	307.617	84.4776	307.617	86.5955	307.617	83.6705	307.617	86.0949	307.617	82.8381	307.617	85.3003	307.617	82.0276	307.617	84.2854	307.617	81.3122	307.617	83.2337	307.617	80.7834	307.617	82.4457	307.617	80.5073	307.617	82.1685	307.617	80.4724	307.617	82.3432	307.617	80.5927	307.617	82.6848	307.617	80.7663	307.617	82.9653	307.617	80.9306	307.617	83.1035	307.617	81.078	307.617	83.1024	307.617	81.2405	307.617	82.9824	307.617	81.4591	307.617	82.7588	307.617	81.7518	307.617	82.4517	307.617	82.0986
319.336	85.7928	319.336	85.2886	319.336	86.1366	319.336	84.6801	319.336	86.2684	319.336	84.0242	319.336	86.1443	319.336	83.3731	319.336	85.7321	319.336	82.7673	319.336	85.0204	319.336	82.2279	319.336	84.0437	319.336	81.7509	319.336	82.9319	319.336	81.3114	319.336	81.9591	319.336	80.883	319.336	81.4498	319.336	80.4687	319.336	81.478	319.336	80.1258	319.336	81.7911	319.336	79.9556	319.336	82.1154	319.336	80.041	319.336	82.3432	319.336	80.3753	319.336	82.4875	319.336	80.8646	319.336	82.5752	319.336	81.3941	319.336	82.5904	319.336	81.8752	319.336	82.4913	319.336	82.2514
329.59	85.4098	329.59	84.85	329.59	85.8362	329.59	84.2263	329.59	86.0574	329.59	83.5889	329.59	86.0144	329.59	82.9624	329.59	85.6711	329.59	82.3571	329.59	85.0248	329.59	81.7924	329.59	84.1238	329.59	81.3127	329.59	83.0967	329.59	80.98	329.59	82.1667	329.59	80.8337	329.59	81.5794	329.59	80.8506	329.59	81.4379	329.59	80.9456	329.59	81.6406	329.59	81.0168	329.59	81.9976	329.59	80.9932	329.59	82.3347	329.59	80.8653	329.59	82.5172	329.59	80.6995	329.59	82.4647	329.59	80.6277	329.59	82.1675	329.59	80.7787	329.59	81.6917	329.59	81.1723
341.309	85.585	341.309	85.0864	341.309	85.9377	341.309	84.4915	341.309	86.0835	341.309	83.8371	341.309	85.9593	341.309	83.1539	341.309	85.5134	341.309	82.476	341.309	84.7273	341.309	81.8434	341.309	83.6545	341.309	81.2896	341.309	82.4846	341.309	80.8239	341.309	81.5697	341.309	80.4361	341.309	81.211	341.309	80.1315	341.309	81.3144	341.309	79.9724	341.309	81.5407	341.309	80.069	341.309	81.6973	341.309	80.4818	341.309	81.8088	341.309	81.1272	341.309	81.9715	341.309	81.8191	341.309	82.2205	341.309	82.3861	341.309	82.5064	341.309	82.7333	341.309	82.7421	341.309	82.8406
353.027	86.2457	353.027	85.7006	353.027	86.6226	353.027	85.0467	353.027	86.7654	353.027	84.3271	353.027	86.6135	353.027	83.5667	353.027	86.1205	353.027	82.7801	353.027	85.2672	353.027	81.988	353.027	84.0858	353.027	81.2296	353.027	82.7219	353.027	80.5618	353.027	81.526	353.027	80.0419	353.027	80.9624	353.027	79.7055	353.027	81.1273	353.027	79.5596	353.027	81.6348	353.027	79.5962	353.027	82.1364	353.027	79.808	353.027	82.5333	353.027	80.187	353.027	82.8363	353.027	80.7077	353.027	83.0282	353.027	81.3157	353.027	83.0516	353.027	81.9331	353.027	82.8646	353.027	82.4749
366.211	85.669	366.211	85.0698	366.211	86.2176	366.211	84.4982	366.211	86.6056	366.211	83.9726	366.211	86.7301	366.211	83.4642	366.211	86.5159	366.211	82.9401	366.211	85.9192	366.211	82.4007	366.211	84.9373	366.211	81.8876	366.211	83.6495	366.211	81.46	366.211	82.3108	366.211	81.1517	366.211	81.3843	366.211	80.9438	366.211	81.1727	366.211	80.7852	366.211	81.4224	366.211	80.6383	366.211	81.7249	366.211	80.5056	366.211	81.9054	366.211	80.4149	366.211	81.9378	366.211	80.3907	366.211	81.8136	366.211	80.4448	366.211	81.5415	366.211	80.5905	366.211	81.1848	366.211	80.8429
379.395	85.5156	379.395	85.131	379.395	85.837	379.395	84.6939	379.395	86.0526	379.395	84.1964	379.395	86.0957	379.395	83.6374	379.395	85.8973	379.395	83.0438	379.395	85.4049	379.395	82.4766	379.395	84.5969	379.395	82.0073	379.395	83.5057	379.395	81.6727	379.395	82.2933	379.395	81.4425	379.395	81.3474	379.395	81.2416	379.395	81.0543	379.395	81.0088	379.395	81.2326	379.395	80.7392	379.395	81.3536	379.395	80.4826	379.395	81.167	379.395	80.3	379.395	80.7808	379.395	80.2091	379.395	80.4285	379.395	80.1747	379.395	80.2276	379.395	80.1537	379.395	80.1495	379.395	80.1376
392.578	85.5653	392.578	85.0566	392.578	85.9759	392.578	84.5037	392.578	86.2087	392.578	83.9211	392.578	86.1849	392.578	83.2941	392.578	85.8468	392.578	82.6065	392.578	85.1719	392.578	81.8699	392.578	84.1984	392.578	81.1506	392.578	83.0711	392.578	80.5736	392.578	82.0481	392.578	80.2665	392.578	81.3232	392.578	80.2499	392.578	80.8006	392.578	80.4056	392.578	80.2866	392.578	80.578	392.578	79.8515	392.578	80.6759	392.578	79.7394	392.578	80.6919	392.578	79.9361	392.578	80.6631	392.578	80.1927	392.578	80.622	392.578	80.3643	392.578	80.5762	392.578	80.459	392.578	80.5228
405.762	85.0408	405.762	84.6684	405.762	85.4086	405.762	84.2688	405.762	85.7286	405.762	83.7807	405.762	85.9061	405.762	83.1488	405.762	85.835	405.762	82.355	405.762	85.4324	405.762	81.4321	405.762	84.6566	405.762	80.4659	405.762	83.5292	405.762	79.5879	405.762	82.2024	405.762	78.9472	405.762	81.0597	405.762	78.6549	405.762	80.5381	405.762	78.7241	405.762	80.5571	405.762	79.0608	405.762	80.6265	405.762	79.5177	405.762	80.4786	405.762	79.9571	405.762	80.1979	405.762	80.285	405.762	80.0093	405.762	80.4569	405.762	80.0251	405.762	80.4717	405.762	80.1818	405.762	80.3607
420.41	85.4705	420.41	85.156	420.41	85.6853	420.41	84.7232	420.41	85.789	420.41	84.1508	420.41	85.7307	420.41	83.4424	420.41	85.4364	420.41	82.6375	420.41	84.8407	420.41	81.8052	420.41	83.9265	420.41	81.0209	420.41	82.7956	420.41	80.3407	420.41	81.7643	420.41	79.7918	420.41	81.258	420.41	79.3902	420.41	81.3259	420.41	79.1638	420.41	81.5779	420.41	79.1444	420.41	81.7239	420.41	79.3217	420.41	81.7475	420.41	79.6191	420.41	81.7035	420.41	79.936	420.41	81.5749	420.41	80.2124	420.41	81.3335	420.41	80.4559	420.41	81.0209	420.41	80.7158
435.059	85.8691	435.059	85.3685	435.059	86.2988	435.059	84.8495	435.059	86.5615	435.059	84.3119	435.059	86.551	435.059	83.724	435.059	86.1849	435.059	83.0554	435.059	85.4244	435.059	82.3017	435.059	84.2837	435.059	81.493	435.059	82.8706	435.059	80.6806	435.059	81.504	435.059	79.9083	435.059	80.7252	435.059	79.1971	435.059	80.729	435.059	78.5812	435.059	81.0354	435.059	78.1681	435.059	81.2056	435.059	78.1112	435.059	81.1943	435.059	78.4459	435.059	81.1164	435.059	79.0076	435.059	81.0086	435.059	79.5765	435.059	80.8418	435.059	80.0292	435.059	80.6201	435.059	80.3596
451.172	85.6113	451.172	85.1708	451.172	86.04	451.172	84.715	451.172	86.3912	451.172	84.1949	451.172	86.5537	451.172	83.5604	451.172	86.4151	451.172	82.7951	451.172	85.8827	451.172	81.94	451.172	84.8848	451.172	81.1131	451.172	83.415	451.172	80.4899	451.172	81.7194	451.172	80.1839	451.172	80.5303	451.172	80.1065	451.172	80.3738	451.172	80.0233	451.172	80.6161	451.172	79.7532	451.172	80.5858	451.172	79.3127	451.172	80.2891	451.172	78.9635	451.172	80.0663	451.172	79.0426	451.172	80.1192	451.172	79.5525	451.172	80.3507	451.172	80.1396	451.172	80.5394	451.172	80.4973
465.82	85.3574	465.82	85.116	465.82	85.6586	465.82	84.8344	465.82	86.0179	465.82	84.4065	465.82	86.306	465.82	83.778	465.82	86.3447	465.82	82.9566	465.82	85.9853	465.82	82.0033	465.82	85.1346	465.82	81.0248	465.82	83.7759	465.82	80.1702	465.82	82.0593	465.82	79.6071	465.82	80.5216	465.82	79.4321	465.82	79.9212	465.82	79.5807	465.82	80.1041	465.82	79.8799	465.82	80.3107	465.82	80.1793	465.82	80.3367	465.82	80.4073	465.82	80.3792	465.82	80.5532	465.82	80.5169	465.82	80.6351	465.82	80.6473	465.82	80.6786	465.82	80.7031	465.82	80.7028
483.398	85.249	483.398	84.9784	483.398	85.2577	483.398	84.4926	483.398	85.0235	483.398	83.8754	483.398	84.6289	483.398	83.2033	483.398	84.1757	483.398	82.5093	483.398	83.7121	483.398	81.7898	483.398	83.1869	483.398	81.0589	483.398	82.4911	483.398	80.4053	483.398	81.5903	483.398	79.9599	483.398	80.6931	483.398	79.7522	483.398	80.1932	483.398	79.65	483.398	80.116	483.398	79.4983	483.398	79.9955	483.398	79.2585	483.398	79.5368	483.398	79.0192	483.398	78.9183	483.398	78.9008	483.398	78.5457	483.398	78.9228	483.398	78.5642	483.398	78.9776	483.398	78.7708	483.398	78.9395
499.512	85.4556	499.512	85.0683	499.512	85.7627	499.512	84.5919	499.512	85.9597	499.512	83.9963	499.512	85.9781	499.512	83.2444	499.512	85.7258	499.512	82.3026	499.512	85.1073	499.512	81.1594	499.512	84.0431	499.512	79.872	499.512	82.511	499.512	78.6287	499.512	80.7079	499.512	77.7394	499.512	79.4775	499.512	77.4209	499.512	79.7234	499.512	77.5739	499.512	80.5468	499.512	77.9751	499.512	80.8463	499.512	78.5546	499.512	80.4979	499.512	79.3101	499.512	79.8632	499.512	80.0906	499.512	79.3891	499.512	80.6372	499.512	79.3978	499.512	80.764	499.512	79.8717	499.512	80.45
517.09	83.7764	517.09	83.4768	517.09	83.9378	517.09	83.0158	517.09	84.0573	517.09	82.4533	517.09	84.2134	517.09	81.9021	517.09	84.3483	517.09	81.4572	517.09	84.2816	517.09	81.1033	517.09	83.8159	517.09	80.6964	517.09	82.8202	517.09	80.0841	517.09	81.4053	517.09	79.3192	517.09	80.2123	517.09	78.8038	517.09	79.7622	517.09	78.9084	517.09	79.3873	517.09	79.3763	517.09	78.631	517.09	79.7447	517.09	78.2208	517.09	79.9193	517.09	78.9064	517.09	80.1667	517.09	80.2217	517.09	80.7445	517.09	81.3827	517.09	81.4883	517.09	81.9972	517.09	81.997
536.133	85.2204	536.133	84.7291	536.133	85.3399	536.133	83.8663	536.133	85.1987	536.133	82.7531	536.133	84.9159	536.133	81.5872	536.133	84.4796	536.133	80.5669	536.133	83.7577	536.133	79.8226	536.133	82.6597	536.133	79.3896	536.133	81.3446	536.133	79.1765	536.133	80.4606	536.133	78.9654	536.133	80.4706	536.133	78.5575	536.133	80.5211	536.133	77.9611	536.133	79.7675	536.133	77.4329	536.133	78.4676	536.133	77.2567	536.133	77.8921	536.133	77.4988	536.133	78.7797	536.133	78.1658	536.133	80.2815	536.133	79.2928	536.133	81.4838	536.133	80.618	536.133	81.9694	536.133	81.6361
555.176	85.5412	555.176	84.6918	555.176	85.9827	555.176	83.6468	555.176	85.9469	555.176	82.6675	555.176	85.5061	555.176	81.8872	555.176	84.8204	555.176	81.2485	555.176	84.0291	555.176	80.6091	555.176	83.14	555.176	79.8431	555.176	82.0506	555.176	78.8943	555.176	80.7935	555.176	77.836	555.176	79.8501	555.176	76.9333	555.176	79.5851	555.176	76.5671	555.176	79.4213	555.176	76.8867	555.176	78.8302	555.176	77.6116	555.176	78.025	555.176	78.3379	555.176	77.6057	555.176	78.8434	555.176	77.8549	555.176	79.1256	555.176	78.481	555.176	79.2742	555.176	79.0343	555.176	79.285
574.219	84.9634	574.219	84.4536	574.219	85.19	574.219	83.6685	574.219	85.1895	574.219	82.7081	574.219	85.0161	574.219	81.7226	574.219	84.6682	574.219	80.8271	574.219	84.0479	574.219	80.0497	574.219	82.9261	574.219	79.3613	574.219	81.1016	574.219	78.7617	574.219	79.162	574.219	78.3273	574.219	79.0252	574.219	78.1249	574.219	80.1837	574.219	78.1039	574.219	80.7062	574.219	78.1604	574.219	80.267	574.219	78.2401	574.219	79.3852	574.219	78.3571	574.219	78.9067	574.219	78.6043	574.219	79.2355	574.219	79.1028	574.219	79.9214	574.219	79.784	574.219	80.3768	574.219	80.3145
594.727	84.8892	594.727	84.578	594.727	85.0699	594.727	84.0776	594.727	85.1651	594.727	83.3688	594.727	85.1413	594.727	82.4835	594.727	84.8798	594.727	81.5051	594.727	84.1848	594.727	80.563	594.727	82.7636	594.727	79.7465	594.727	80.3375	594.727	78.9743	594.727	77.3689	594.727	78.0667	594.727	76.7637	594.727	77.0389	594.727	78.8267	594.727	76.3266	594.727	80.404	594.727	76.4741	594.727	80.6965	594.727	77.32	594.727	80.0619	594.727	78.2024	594.727	79.1799	594.727	78.7282	594.727	78.3977	594.727	78.8479	594.727	77.8455	594.727	78.6268	594.727	77.7806	594.727	78.1724
615.234	86.8523	615.234	86.3935	615.234	86.8936	615.234	85.6816	615.234	86.6035	615.234	84.9134	615.234	86.3634	615.234	84.146	615.234	86.429	615.234	83.3153	615.234	86.4407	615.234	82.3714	615.234	85.7579	615.234	81.415	615.234	83.9213	615.234	80.7059	615.234	80.8878	615.234	80.3122	615.234	78.3496	615.234	79.8004	615.234	78.7218	615.234	78.6738	615.234	79.4655	615.234	77.2032	615.234	79.5786	615.234	77.0376	615.234	79.4543	615.234	78.3532	615.234	79.1519	615.234	79.3432	615.234	78.9289	615.234	79.5073	615.234	79.0244	615.234	79.3167	615.234	79.202	615.234	79.2436
637.207	86.6557	637.207	86.0584	637.207	87.0394	637.207	85.4544	637.207	86.948	637.207	84.8053	637.207	86.3868	637.207	84.0234	637.207	85.7109	637.207	83.1847	637.207	85.2169	637.207	82.4026	637.207	84.6124	637.207	81.6103	637.207	83.3131	637.207	80.7623	637.207	81.1653	637.207	80.2313	637.207	79.4647	637.207	80.2463	637.207	80.1077	637.207	80.1726	637.207	80.916	637.207	79.4877	637.207	80.3609	637.207	78.541	637.207	79.1214	637.207	78.4762	637.207	78.4987	637.207	79.408	637.207	79.2369	637.207	80.4154	637.207	80.7385	637.207	81.3108	637.207	81.8208	637.207	81.944
659.18	86.6021	659.18	86.1037	659.18	86.774	659.18	85.454	659.18	86.4065	659.18	84.5937	659.18	85.5971	659.18	83.4326	659.18	84.7711	659.18	82.0822	659.18	84.1265	659.18	80.8483	659.18	83.3021	659.18	79.9466	659.18	81.9939	659.18	79.1595	659.18	80.666	659.18	78.1072	659.18	80.3399	659.18	77.1765	659.18	80.2898	659.18	77.5885	659.18	79.7699	659.18	78.8558	659.18	79.5832	659.18	79.5386	659.18	79.836	659.18	79.4264	659.18	79.9336	659.18	79.4364	659.18	80.0296	659.18	79.9755	659.18	80.4067	659.18	80.2916	659.18	80.5103	659.18	80.3529
682.617	86.6571	682.617	86.4001	682.617	86.7267	682.617	85.8085	682.617	86.6718	682.617	84.8141	682.617	86.4081	682.617	83.5071	682.617	85.8392	682.617	82.1433	682.617	84.9463	682.617	81.0692	682.617	83.674	682.617	80.4422	682.617	81.7225	682.617	79.9898	682.617	78.987	682.617	79.3485	682.617	78.1942	682.617	78.5223	682.617	80.1043	682.617	77.8073	682.617	81.1214	682.617	77.4986	682.617	81.1914	682.617	77.8941	682.617	80.9629	682.617	78.8056	682.617	80.2846	682.617	79.4075	682.617	79.5615	682.617	79.4936	682.617	79.5403	682.617	79.6513	682.617	79.8632	682.617	79.9293
707.52	86.3423	707.52	86.5264	707.52	86.215	707.52	86.6002	707.52	85.8233	707.52	85.9491	707.52	85.2553	707.52	84.2819	707.52	85.0788	707.52	81.8938	707.52	85.0601	707.52	79.6281	707.52	84.0274	707.52	78.3611	707.52	80.9625	707.52	78.038	707.52	75.3559	707.52	77.9739	707.52	72.8622	707.52	78.0362	707.52	76.0435	707.52	78.3786	707.52	78.2015	707.52	78.7075	707.52	78.9123	707.52	78.7156	707.52	78.2408	707.52	78.6477	707.52	76.4464	707.52	78.5707	707.52	73.0697	707.52	77.8708	707.52	70.2541	707.52	76.6486	707.52	72.008	707.52	74.9715
732.422	87.0151	732.422	86.8884	732.422	86.7874	732.422	85.9781	732.422	86.513	732.422	84.4571	732.422	86.0375	732.422	83.1983	732.422	85.4944	732.422	82.5268	732.422	85.4466	732.422	81.6698	732.422	85.3855	732.422	80.1779	732.422	83.876	732.422	78.4702	732.422	79.6759	732.422	77.2583	732.422	73.7104	732.422	76.7131	732.422	75.6157	732.422	76.7653	732.422	78.1314	732.422	76.9043	732.422	79.535	732.422	76.3832	732.422	80.0418	732.422	75.9053	732.422	79.6938	732.422	77.0112	732.422	78.4245	732.422	78.0697	732.422	76.4374	732.422	77.7049	732.422	75.3772	732.422	76.2759
757.324	87.2729	757.324	86.6658	757.324	87.3795	757.324	85.8104	757.324	87.1862	757.324	85.3118	757.324	86.8172	757.324	84.8368	757.324	86.3437	757.324	83.6231	757.324	86.0203	757.324	81.7232	757.324	85.5984	757.324	79.749	757.324	84.2131	757.324	78.0502	757.324	81.4111	757.324	76.5285	757.324	77.8425	757.324	75.3417	757.324	77.2126	757.324	76.3364	757.324	79.6884	757.324	79.0489	757.324	81.6924	757.324	80.5211	757.324	82.0164	757.324	80.2728	757.324	81.205	757.324	79.6644	757.324	81.1788	757.324	79.3347	757.324	80.8258	757.324	78.2743	757.324	79.1118	757.324	77.7417
785.156	86.4219	785.156	85.9979	785.156	87.7703	785.156	86.6595	785.156	88.5283	785.156	86.9849	785.156	87.902	785.156	86.0298	785.156	86.1639	785.156	84.1137	785.156	84.9906	785.156	82.6029	785.156	85.7268	785.156	82.451	785.156	86.4924	785.156	82.9699	785.156	85.3302	785.156	83.2361	785.156	83.0698	785.156	83.0607	785.156	82.9151	785.156	82.9635	785.156	82.1579	785.156	83.5428	785.156	78.5082	785.156	83.3961	785.156	73.9792	785.156	81.2972	785.156	78.1325	785.156	77.4314	785.156	80.9172	785.156	71.2757	785.156	81.9508	785.156	76.8164	785.156	82.1979	785.156	80.6614
811.523	87.1441	811.523	86.9464	811.523	87.331	811.523	86.3841	811.523	87.5015	811.523	85.4232	811.523	87.1262	811.523	84.482	811.523	85.4345	811.523	83.7463	811.523	82.7211	811.523	83.0753	811.523	81.8394	811.523	81.7486	811.523	83.2835	811.523	79.1888	811.523	83.4128	811.523	75.8533	811.523	80.6962	811.523	73.1286	811.523	76.1518	811.523	70.8932	811.523	70.4221	811.523	73.3862	811.523	73.7124	811.523	77.933	811.523	78.5853	811.523	80.8957	811.523	80.3482	811.523	80.8648	811.523	80.3765	811.523	79.2449	811.523	78.3181	811.523	77.9922	811.523	75.7901	811.523	76.2346
840.82	87.0233	840.82	86.8855	840.82	88.172	840.82	87.4077	840.82	88.933	840.82	87.1028	840.82	88.6631	840.82	85.5243	840.82	87.657	840.82	82.4819	840.82	85.8165	840.82	77.0278	840.82	82.7913	840.82	77.1826	840.82	77.7718	840.82	82.2578	840.82	68.3598	840.82	84.8972	840.82	67.9357	840.82	85.9785	840.82	79.3853	840.82	85.9121	840.82	83.3255	840.82	85.045	840.82	83.7459	840.82	83.1504	840.82	81.49	840.82	78.4825	840.82	72.4954	840.82	69.6764	840.82	73.2654	840.82	72.7683	840.82	78.8805	840.82	79.6512	840.82	80.8702	840.82	81.6649
870.117	88.3793	870.117	88.2874	870.117	88.4369	870.117	87.7634	870.117	88.356	870.117	86.4378	870.117	87.8317	870.117	84.585	870.117	86.403	870.117	82.7913	870.117	84.9734	870.117	81.9384	870.117	85.0902	870.117	83.1434	870.117	84.4321	870.117	84.1168	870.117	81.6704	870.117	83.6615	870.117	78.6774	870.117	82.5758	870.117	80.5084	870.117	81.7937	870.117	82.0795	870.117	81.0591	870.117	79.3052	870.117	80.529	870.117	68.3631	870.117	81.3356	870.117	73.91	870.117	80.9231	870.117	80.4082	870.117	79.3014	870.117	81.4762	870.117	78.4903	870.117	78.7889	870.117	77.1522
900.879	89.126	900.879	87.7331	900.879	90.2792	900.879	87.7803	900.879	89.5352	900.879	88.4322	900.879	86.1181	900.879	88.6999	900.879	82.069	900.879	87.8708	900.879	83.7731	900.879	84.6823	900.879	85.3387	900.879	78.7152	900.879	84.8399	900.879	75.8636	900.879	84.0309	900.879	78.9063	900.879	82.6433	900.879	80.0868	900.879	80.0577	900.879	80.9758	900.879	81.6069	900.879	82.9001	900.879	82.3115	900.879	82.3984	900.879	81.0165	900.879	79.8237	900.879	79.1736	900.879	77.8306	900.879	70.6933	900.879	77.0869	900.879	76.639	900.879	78.4825	900.879	81.9352	900.879	81.3745
933.105	89.4789	933.105	90.2261	933.105	88.3859	933.105	89.4351	933.105	88.9503	933.105	87.7099	933.105	89.9542	933.105	85.2964	933.105	89.0594	933.105	82.5367	933.105	85.1869	933.105	80.3131	933.105	82.6346	933.105	82.2538	933.105	84.4175	933.105	85.3547	933.105	84.7417	933.105	86.2943	933.105	80.9034	933.105	85.7946	933.105	74.4297	933.105	83.9953	933.105	70.4072	933.105	80.2997	933.105	81.1559	933.105	78.633	933.105	83.8842	933.105	80.6601	933.105	79.8691	933.105	81.1283	933.105	72.1116	933.105	79.6254	933.105	74.8762	933.105	77.6769	933.105	77.7275	933.105	77.4768
965.332	90.0001	965.332	89.4637	965.332	89.7413	965.332	88.2544	965.332	89.0031	965.332	87.4438	965.332	88.2349	965.332	87.2091	965.332	87.3723	965.332	86.4015	965.332	86.4993	965.332	84.3706	965.332	85.8289	965.332	82.0702	965.332	84.7221	965.332	81.7226	965.332	82.6474	965.332	82.1869	965.332	78.3489	965.332	81.9522	965.332	76.4688	965.332	81.5024	965.332	79.8213	965.332	81.4823	965.332	77.1293	965.332	79.9177	965.332	72.6387	965.332	77.2794	965.332	73.602	965.332	78.1758	965.332	75.2166	965.332	78.6333	965.332	77.4346	965.332	76.7253	965.332	74.5579	965.332	73.76
1,000.49	89.9636	1,000.49	89.34	1,000.49	88.9632	1,000.49	88.1423	1,000.49	87.5302	1,000.49	87.9626	1,000.49	87.8665	1,000.49	87.9839	1,000.49	88.9186	1,000.49	87.2088	1,000.49	88.565	1,000.49	85.6856	1,000.49	86.422	1,000.49	83.0801	1,000.49	83.0202	1,000.49	80.2233	1,000.49	79.0802	1,000.49	79.6986	1,000.49	74.6643	1,000.49	77.9376	1,000.49	73.2466	1,000.49	76.9892	1,000.49	79.4755	1,000.49	80.4063	1,000.49	81.3235	1,000.49	78.172	1,000.49	81.5688	1,000.49	77.572	1,000.49	79.6041	1,000.49	78.4057	1,000.49	71.9052	1,000.49	76.8735	1,000.49	73.0404	1,000.49	77.0137	1,000.49	78.9135	1,000.49	79.4103
1,035.64	88.6281	1,035.64	89.7266	1,035.64	87.9582	1,035.64	89.811	1,035.64	89.1925	1,035.64	88.8087	1,035.64	89.5256	1,035.64	85.5912	1,035.64	87.4293	1,035.64	83.5336	1,035.64	84.6117	1,035.64	83.7962	1,035.64	85.2009	1,035.64	84.6748	1,035.64	85.5576	1,035.64	85.5322	1,035.64	86.1588	1,035.64	85.6497	1,035.64	85.5367	1,035.64	84.9744	1,035.64	84.2207	1,035.64	81.3726	1,035.64	78.5658	1,035.64	76.9524	1,035.64	78.1525	1,035.64	81.8801	1,035.64	75.5649	1,035.64	82.2806	1,035.64	69.1747	1,035.64	80.0644	1,035.64	71.8214	1,035.64	80.9223	1,035.64	75.4809	1,035.64	76.577	1,035.64	73.0326	1,035.64	71.4472
1,072.27	88.8488	1,072.27	87.6699	1,072.27	89.0179	1,072.27	88.4151	1,072.27	87.8901	1,072.27	89.4595	1,072.27	88.2013	1,072.27	88.4994	1,072.27	89.0237	1,072.27	86.5537	1,072.27	88.2026	1,072.27	84.6224	1,072.27	85.5071	1,072.27	81.3786	1,072.27	81.5989	1,072.27	77.4263	1,072.27	78.8262	1,072.27	77.9041	1,072.27	76.6836	1,072.27	76.3526	1,072.27	76.1874	1,072.27	74.3693	1,072.27	78.2962	1,072.27	77.5069	1,072.27	78.0997	1,072.27	76.9771	1,072.27	80.7623	1,072.27	80.237	1,072.27	78.6196	1,072.27	80.0846	1,072.27	71.8778	1,072.27	76.7515	1,072.27	64.4867	1,072.27	73.5344	1,072.27	71.3175	1,072.27	73.4134
1,108.89	87.335	1,108.89	87.7939	1,108.89	88.2324	1,108.89	89.1826	1,108.89	88.77	1,108.89	88.7017	1,108.89	88.3134	1,108.89	86.8375	1,108.89	87.2272	1,108.89	85.8493	1,108.89	87.2416	1,108.89	83.552	1,108.89	87.3913	1,108.89	78.4218	1,108.89	84.9418	1,108.89	78.4868	1,108.89	81.261	1,108.89	79.301	1,108.89	79.6753	1,108.89	75.7055	1,108.89	81.2052	1,108.89	71.7574	1,108.89	79.5018	1,108.89	68.6246	1,108.89	80.8079	1,108.89	63.5432	1,108.89	81.353	1,108.89	78.7632	1,108.89	78.3895	1,108.89	79.8659	1,108.89	74.208	1,108.89	79.5885	1,108.89	71.7018	1,108.89	77.549	1,108.89	73.0272	1,108.89	73.5582
1,148.44	87.6358	1,148.44	89.2229	1,148.44	86.3841	1,148.44	88.2649	1,148.44	87.1265	1,148.44	85.8703	1,148.44	87.3189	1,148.44	85.4235	1,148.44	86.1913	1,148.44	85.6505	1,148.44	84.0463	1,148.44	85.0137	1,148.44	81.9303	1,148.44	82.9956	1,148.44	82.0325	1,148.44	77.9108	1,148.44	83.5773	1,148.44	80.039	1,148.44	81.3967	1,148.44	81.4056	1,148.44	77.6931	1,148.44	80.2101	1,148.44	76.4196	1,148.44	79.1562	1,148.44	60.7935	1,148.44	78.5641	1,148.44	78.2202	1,148.44	79.6738	1,148.44	79.1556	1,148.44	77.5107	1,148.44	71.3053	1,148.44	74.2106	1,148.44	62.2825	1,148.44	71.4741	1,148.44	71.9382	1,148.44	72.8742
1,189.45	88.703	1,189.45	88.2963	1,189.45	87.3897	1,189.45	86.72	1,189.45	87.7296	1,189.45	86.5987	1,189.45	88.7291	1,189.45	87.1605	1,189.45	87.4076	1,189.45	86.7041	1,189.45	85.9842	1,189.45	85.7219	1,189.45	86.6085	1,189.45	84.3485	1,189.45	85.657	1,189.45	82.2804	1,189.45	82.8641	1,189.45	79.5856	1,189.45	81.7503	1,189.45	79.2884	1,189.45	82.8781	1,189.45	81.1813	1,189.45	80.5472	1,189.45	80.7583	1,189.45	73.7697	1,189.45	75.5023	1,189.45	76.067	1,189.45	73.6625	1,189.45	76.7671	1,189.45	78.1541	1,189.45	76.2323	1,189.45	74.6184	1,189.45	72.6018	1,189.45	71.3273	1,189.45	73.2832	1,189.45	71.6776
1,230.47	87.2076	1,230.47	88.1637	1,230.47	86.3818	1,230.47	87.0132	1,230.47	87.9776	1,230.47	84.9625	1,230.47	88.5635	1,230.47	85.8853	1,230.47	87.0329	1,230.47	87.1849	1,230.47	86.8953	1,230.47	86.5205	1,230.47	88.2545	1,230.47	85.8015	1,230.47	86.2313	1,230.47	84.9802	1,230.47	83.8408	1,230.47	83.4718	1,230.47	82.0126	1,230.47	83.6946	1,230.47	82.9277	1,230.47	80.3765	1,230.47	84.0457	1,230.47	81.9269	1,230.47	79.5591	1,230.47	82.2449	1,230.47	67.7995	1,230.47	75.8134	1,230.47	73.6163	1,230.47	72.1222	1,230.47	76.7304	1,230.47	74.5959	1,230.47	73.2475	1,230.47	77.6558	1,230.47	69.5389	1,230.47	77.6052
1,274.41	86.852	1,274.41	86.0041	1,274.41	87.5739	1,274.41	86.0719	1,274.41	85.6765	1,274.41	86.5483	1,274.41	85.4261	1,274.41	86.7394	1,274.41	87.4516	1,274.41	83.5635	1,274.41	86.2046	1,274.41	75.3316	1,274.41	84.1826	1,274.41	72.292	1,274.41	83.3019	1,274.41	73.3241	1,274.41	80.4362	1,274.41	69.6307	1,274.41	80.8435	1,274.41	72.5777	1,274.41	80.0083	1,274.41	70.6289	1,274.41	79.8487	1,274.41	66.4691	1,274.41	78.3515	1,274.41	75.7378	1,274.41	75.4172	1,274.41	73.0677	1,274.41	73.6483	1,274.41	72.3668	1,274.41	76.1641	1,274.41	77.1307	1,274.41	74.8974	1,274.41	74.0494	1,274.41	58.8582	1,274.41	67.5564
1,319.82	85.6914	1,319.82	86.3055	1,319.82	85.7212	1,319.82	85.4743	1,319.82	86.1036	1,319.82	83.7546	1,319.82	85.0031	1,319.82	81.6384	1,319.82	83.4383	1,319.82	79.9816	1,319.82	84.3544	1,319.82	80.7988	1,319.82	83.6364	1,319.82	78.4946	1,319.82	81.1087	1,319.82	68.8152	1,319.82	80.5483	1,319.82	69.4558	1,319.82	80.5464	1,319.82	74.9819	1,319.82	79.7513	1,319.82	74.8143	1,319.82	78.2288	1,319.82	76.3339	1,319.82	75.0883	1,319.82	76.8933	1,319.82	71.8667	1,319.82	79.2555	1,319.82	78.0936	1,319.82	77.5856	1,319.82	74.8751	1,319.82	70.9522	1,319.82	59.7642	1,319.82	65.4709	1,319.82	72.7624	1,319.82	70.2575
1,366.7	85.3432	1,366.7	85.1441	1,366.7	85.3314	1,366.7	85.823	1,366.7	85.1449	1,366.7	84.3217	1,366.7	84.6169	1,366.7	81.5773	1,366.7	83.2445	1,366.7	80.6641	1,366.7	84.8753	1,366.7	80.8026	1,366.7	84.6342	1,366.7	81.6874	1,366.7	78.9384	1,366.7	79.7355	1,366.7	75.2459	1,366.7	77.6705	1,366.7	74.4412	1,366.7	79.6142	1,366.7	75.185	1,366.7	74.5414	1,366.7	72.8459	1,366.7	66.2641	1,366.7	72.563	1,366.7	61.0702	1,366.7	72.3732	1,366.7	69.0206	1,366.7	75.6304	1,366.7	75.003	1,366.7	71.389	1,366.7	75.7459	1,366.7	72.121	1,366.7	76.7887	1,366.7	66.5796	1,366.7	68.634
1,413.57	85.6512	1,413.57	85.0862	1,413.57	83.9588	1,413.57	82.8579	1,413.57	84.8867	1,413.57	82.8714	1,413.57	85.3384	1,413.57	82.0075	1,413.57	81.8677	1,413.57	79.2735	1,413.57	78.7612	1,413.57	77.2795	1,413.57	80.2897	1,413.57	72.7549	1,413.57	78.6692	1,413.57	72.5075	1,413.57	78.0024	1,413.57	72.8995	1,413.57	78.0006	1,413.57	74.4008	1,413.57	53.4054	1,413.57	76.243	1,413.57	74.4364	1,413.57	78.6694	1,413.57	79.4715	1,413.57	75.7787	1,413.57	77.3799	1,413.57	67.7125	1,413.57	63.7296	1,413.57	69.6146	1,413.57	70.2226	1,413.57	73.7047	1,413.57	74.3282	1,413.57	68.3762	1,413.57	70.124	1,413.57	49.9796
1,463.38	84.9174	1,463.38	86.3002	1,463.38	85.7688	1,463.38	86.622	1,463.38	85.7913	1,463.38	83.4204	1,463.38	84.1762	1,463.38	80.5934	1,463.38	84.4283	1,463.38	81.1518	1,463.38	82.7462	1,463.38	79.7105	1,463.38	80.2959	1,463.38	78.3939	1,463.38	81.6392	1,463.38	76.3371	1,463.38	78.7741	1,463.38	57.8374	1,463.38	73.7857	1,463.38	72.4368	1,463.38	73.8831	1,463.38	66.0333	1,463.38	78.3827	1,463.38	67.5467	1,463.38	71.0077	1,463.38	76.0704	1,463.38	68.8798	1,463.38	77.2615	1,463.38	72.5365	1,463.38	76.2803	1,463.38	75.436	1,463.38	71.5491	1,463.38	67.6885	1,463.38	72.1332	1,463.38	67.008	1,463.38	73.0631
1,516.11	84.8141	1,516.11	85.0115	1,516.11	84.6212	1,516.11	84.9592	1,516.11	85.4461	1,516.11	83.6704	1,516.11	86.6369	1,516.11	81.0713	1,516.11	83.3605	1,516.11	76.4333	1,516.11	80.5291	1,516.11	76.8119	1,516.11	83.5289	1,516.11	78.9192	1,516.11	82.1261	1,516.11	75.3262	1,516.11	76.9316	1,516.11	75.7238	1,516.11	77.3351	1,516.11	76.7392	1,516.11	68.1794	1,516.11	76.2756	1,516.11	71.9011	1,516.11	75.5127	1,516.11	76.879	1,516.11	75.8311	1,516.11	77.4338	1,516.11	68.9624	1,516.11	68.3841	1,516.11	65.9104	1,516.11	70.7993	1,516.11	69.1686	1,516.11	73.3465	1,516.11	74.58	1,516.11	73.0553	1,516.11	68.3808
1,568.85	84.388	1,568.85	84.3763	1,568.85	83.9241	1,568.85	83.2727	1,568.85	83.5448	1,568.85	80.137	1,568.85	83.5495	1,568.85	79.5443	1,568.85	83.9986	1,568.85	81.8346	1,568.85	81.716	1,568.85	78.6855	1,568.85	80.021	1,568.85	65.8599	1,568.85	78.6052	1,568.85	71.2576	1,568.85	74.5523	1,568.85	67.733	1,568.85	74.5388	1,568.85	74.543	1,568.85	68.3307	1,568.85	71.2774	1,568.85	74.7779	1,568.85	42.9616	1,568.85	72.6827	1,568.85	71.6833	1,568.85	73.3415	1,568.85	74.1002	1,568.85	65.0804	1,568.85	72.5782	1,568.85	75.5429	1,568.85	70.4505	1,568.85	70.8276	1,568.85	69.0287	1,568.85	69.9541	1,568.85	74.2243
1,624.51	84.9424	1,624.51	83.8663	1,624.51	84.1599	1,624.51	81.4491	1,624.51	83.1584	1,624.51	80.3068	1,624.51	82.8537	1,624.51	79.5093	1,624.51	81.5855	1,624.51	75.1151	1,624.51	79.7047	1,624.51	73.5096	1,624.51	80.215	1,624.51	74.4766	1,624.51	77.8942	1,624.51	69.3461	1,624.51	77.2683	1,624.51	61.6781	1,624.51	77.4338	1,624.51	65.1797	1,624.51	74.7724	1,624.51	70.4751	1,624.51	65.134	1,624.51	66.4314	1,624.51	68.1733	1,624.51	72.7474	1,624.51	68.0131	1,624.51	71.1462	1,624.51	69.34	1,624.51	63.5106	1,624.51	65.2299	1,624.51	65.4235	1,624.51	68.1918	1,624.51	69.5515	1,624.51	71.7828	1,624.51	67.0904
1,681.64	85.6207	1,681.64	84.1442	1,681.64	85.1804	1,681.64	81.6405	1,681.64	83.1355	1,681.64	80.6856	1,681.64	80.8061	1,681.64	78.3722	1,681.64	78.7928	1,681.64	77.7698	1,681.64	77.9866	1,681.64	77.0851	1,681.64	77.9515	1,681.64	74.2615	1,681.64	79.2477	1,681.64	76.964	1,681.64	73.6841	1,681.64	73.7642	1,681.64	74.4548	1,681.64	67.9542	1,681.64	70.7311	1,681.64	71.0571	1,681.64	66.3205	1,681.64	71.4078	1,681.64	58.9795	1,681.64	68.4478	1,681.64	67.3601	1,681.64	70.0704	1,681.64	60.4622	1,681.64	70.5321	1,681.64	62.191	1,681.64	70.0637	1,681.64	71.8372	1,681.64	59.0892	1,681.64	72.7142	1,681.64	69.9171
1,741.7	86.4286	1,741.7	84.5626	1,741.7	85.2621	1,741.7	81.3257	1,741.7	82.8309	1,741.7	78.9875	1,741.7	79.8468	1,741.7	78.2371	1,741.7	76.0337	1,741.7	78.1011	1,741.7	76.4551	1,741.7	76.2301	1,741.7	79.97	1,741.7	74.7492	1,741.7	79.3927	1,741.7	72.3868	1,741.7	80.1019	1,741.7	70.5887	1,741.7	76.8726	1,741.7	68.6768	1,741.7	67.1349	1,741.7	68.7645	1,741.7	64.5376	1,741.7	72.2149	1,741.7	65.4836	1,741.7	68.8493	1,741.7	67.2104	1,741.7	66.8046	1,741.7	64.2407	1,741.7	59.3462	1,741.7	69.2482	1,741.7	62.2431	1,741.7	65.7509	1,741.7	68.1123	1,741.7	63.8644	1,741.7	64.5511
1,803.22	86.2458	1,803.22	84.5726	1,803.22	85.523	1,803.22	81.3803	1,803.22	82.7248	1,803.22	76.3265	1,803.22	79.5262	1,803.22	74.2007	1,803.22	75.1119	1,803.22	73.5106	1,803.22	75.5899	1,803.22	71.1543	1,803.22	76.8898	1,803.22	71.2748	1,803.22	80.0865	1,803.22	70.2332	1,803.22	77.0144	1,803.22	64.4494	1,803.22	73.3583	1,803.22	71.4747	1,803.22	70.0622	1,803.22	63.2294	1,803.22	66.6663	1,803.22	64.0674	1,803.22	62.6341	1,803.22	71.5989	1,803.22	65.223	1,803.22	64.4068	1,803.22	66.9123	1,803.22	65.7661	1,803.22	56.1436	1,803.22	59.614	1,803.22	69.3721	1,803.22	60.9303	1,803.22	71.6294	1,803.22	72.5742
1,866.21	85.8318	1,866.21	84.27	1,866.21	85.4619	1,866.21	81.4723	1,866.21	82.1785	1,866.21	76.4673	1,866.21	76.652	1,866.21	72.5867	1,866.21	74.4272	1,866.21	71.673	1,866.21	73.5433	1,866.21	71.8975	1,866.21	78.6188	1,866.21	72.8659	1,866.21	77.978	1,866.21	74.0776	1,866.21	78.4339	1,866.21	72.4895	1,866.21	77.527	1,866.21	69.4242	1,866.21	71.7565	1,866.21	72.2273	1,866.21	68.9615	1,866.21	68.7515	1,866.21	58.0851	1,866.21	67.0657	1,866.21	63.2071	1,866.21	67.6554	1,866.21	61.7241	1,866.21	67.547	1,866.21	57.9608	1,866.21	63.6887	1,866.21	66.1928	1,866.21	61.2445	1,866.21	69.866	1,866.21	65.0591
1,932.13	84.7329	1,932.13	83.3763	1,932.13	83.9082	1,932.13	81.1449	1,932.13	80.9276	1,932.13	77.3354	1,932.13	75.1363	1,932.13	68.3063	1,932.13	68.8814	1,932.13	70.9176	1,932.13	75.7624	1,932.13	72.9883	1,932.13	78.4853	1,932.13	73.8514	1,932.13	80.898	1,932.13	74.4995	1,932.13	73.3977	1,932.13	75.021	1,932.13	72.2044	1,932.13	73.9219	1,932.13	71.8865	1,932.13	70.2862	1,932.13	70.845	1,932.13	69.2552	1,932.13	60.9285	1,932.13	69.4044	1,932.13	57.0802	1,932.13	66.0703	1,932.13	52.7636	1,932.13	61.2807	1,932.13	60.1641	1,932.13	59.8971	1,932.13	62.2768	1,932.13	58.3821	1,932.13	70.9193	1,932.13	71.2497
1,999.51	85.126	1,999.51	83.0703	1,999.51	84.1952	1,999.51	80.2958	1,999.51	78.4402	1,999.51	74.2731	1,999.51	70.7129	1,999.51	60.5281	1,999.51	68.6878	1,999.51	65.7832	1,999.51	76.8406	1,999.51	73.7699	1,999.51	80.07	1,999.51	74.1255	1,999.51	79.8146	1,999.51	71.2645	1,999.51	77.4409	1,999.51	67.2511	1,999.51	76.7144	1,999.51	66.3711	1,999.51	72.591	1,999.51	71.0241	1,999.51	72.0091	1,999.51	70.7035	1,999.51	66.1452	1,999.51	67.034	1,999.51	43.664	1,999.51	68.5405	1,999.51	55.8576	1,999.51	62.8618	1,999.51	58.1638	1,999.51	54.5549	1,999.51	60.6662	1,999.51	63.4282	1,999.51	71.0275	1,999.51	65.6859
2,069.82	85.6133	2,069.82	83.8313	2,069.82	84.2639	2,069.82	80.1259	2,069.82	78.2823	2,069.82	73.5088	2,069.82	51.6605	2,069.82	66.334	2,069.82	72.653	2,069.82	74.2045	2,069.82	78.638	2,069.82	76.8835	2,069.82	80.6785	2,069.82	73.3521	2,069.82	81.7367	2,069.82	74.7278	2,069.82	74.1344	2,069.82	75.3414	2,069.82	72.7027	2,069.82	71.9211	2,069.82	71.221	2,069.82	67.7882	2,069.82	72.4578	2,069.82	72.1024	2,069.82	67.5055	2,069.82	69.2391	2,069.82	64.4885	2,069.82	66.8549	2,069.82	51.5142	2,069.82	63.3704	2,069.82	49.1744	2,069.82	44.0784	2,069.82	57.9336	2,069.82	66.3124	2,069.82	68.2101	2,069.82	69.1932
2,143.07	85.533	2,143.07	84.1151	2,143.07	84.9789	2,143.07	79.3093	2,143.07	77.2716	2,143.07	71.5863	2,143.07	57.9138	2,143.07	64.5417	2,143.07	75.5253	2,143.07	74.9487	2,143.07	78.9434	2,143.07	74.1088	2,143.07	80.1139	2,143.07	76.9157	2,143.07	81.1284	2,143.07	75.8132	2,143.07	78.8714	2,143.07	73.2257	2,143.07	74.3785	2,143.07	75.364	2,143.07	71.0379	2,143.07	71.4302	2,143.07	69.3951	2,143.07	68.3834	2,143.07	69.5728	2,143.07	67.8456	2,143.07	68.071	2,143.07	67.4764	2,143.07	50.688	2,143.07	62.2173	2,143.07	52.8705	2,143.07	58.6402	2,143.07	61.0981	2,143.07	64.2378	2,143.07	71.9907	2,143.07	71.2327
2,219.24	84.7166	2,219.24	84.853	2,219.24	83.5157	2,219.24	81.8548	2,219.24	77.8299	2,219.24	74.5141	2,219.24	67.5606	2,219.24	69.4916	2,219.24	76.8227	2,219.24	71.7237	2,219.24	80.1593	2,219.24	77.4735	2,219.24	80.4003	2,219.24	77.0845	2,219.24	82.248	2,219.24	72.5559	2,219.24	78.6426	2,219.24	72.7646	2,219.24	76.0605	2,219.24	60.3657	2,219.24	67.5202	2,219.24	70.7854	2,219.24	70.0235	2,219.24	70.1108	2,219.24	66.2065	2,219.24	70.1314	2,219.24	66.7945	2,219.24	68.0076	2,219.24	43.6097	2,219.24	62.8592	2,219.24	49.189	2,219.24	63.1829	2,219.24	59.8369	2,219.24	66.1371	2,219.24	68.5584	2,219.24	67.9401
2,296.88	83.6678	2,296.88	83.5804	2,296.88	82.5511	2,296.88	82.2681	2,296.88	75.7935	2,296.88	75.7657	2,296.88	69.4126	2,296.88	71.0358	2,296.88	78.0773	2,296.88	76.0654	2,296.88	80.6234	2,296.88	77.3689	2,296.88	80.4234	2,296.88	72.9454	2,296.88	82.1109	2,296.88	75.7807	2,296.88	80.3486	2,296.88	76.0239	2,296.88	68.1332	2,296.88	74.7155	2,296.88	71.0534	2,296.88	67.7923	2,296.88	66.5693	2,296.88	69.4718	2,296.88	66.4073	2,296.88	68.6845	2,296.88	66.7093	2,296.88	68.1106	2,296.88	57.7444	2,296.88	58.5036	2,296.88	51.535	2,296.88	45.6142	2,296.88	61.8694	2,296.88	66.2844	2,296.88	68.9934	2,296.88	68.443
2,378.91	83.5612	2,378.91	83.769	2,378.91	80.2037	2,378.91	81.0333	2,378.91	73.0067	2,378.91	75.2242	2,378.91	72.3717	2,378.91	75.491	2,378.91	78.8916	2,378.91	77.5057	2,378.91	81.5603	2,378.91	75.8863	2,378.91	82.0449	2,378.91	77.2926	2,378.91	82.9115	2,378.91	73.7965	2,378.91	80.8772	2,378.91	70.427	2,378.91	79.2965	2,378.91	65.8746	2,378.91	69.7902	2,378.91	72.5444	2,378.91	65.5319	2,378.91	68.1584	2,378.91	67.6905	2,378.91	70.5392	2,378.91	67.3224	2,378.91	67.4656	2,378.91	64.4291	2,378.91	66.3895	2,378.91	57.0143	2,378.91	62.0403	2,378.91	62.4061	2,378.91	62.685	2,378.91	69.9142	2,378.91	70.501
2,462.4	84.3666	2,462.4	84.823	2,462.4	82.1469	2,462.4	81.3621	2,462.4	72.042	2,462.4	75.6634	2,462.4	77.0785	2,462.4	76.256	2,462.4	81.0533	2,462.4	76.9807	2,462.4	81.7576	2,462.4	78.4935	2,462.4	82.8048	2,462.4	77.4589	2,462.4	83.1842	2,462.4	75.9224	2,462.4	79.136	2,462.4	75.9916	2,462.4	71.3539	2,462.4	72.4596	2,462.4	74.3594	2,462.4	70.5911	2,462.4	70.9773	2,462.4	70.638	2,462.4	67.0296	2,462.4	69.3315	2,462.4	68.7465	2,462.4	68.917	2,462.4	63.4534	2,462.4	61.8478	2,462.4	54.049	2,462.4	60.6533	2,462.4	59.0586	2,462.4	64.419	2,462.4	68.1956	2,462.4	68.1049
2,548.83	85.0635	2,548.83	85.8306	2,548.83	81.2394	2,548.83	82.2334	2,548.83	74.7271	2,548.83	75.7783	2,548.83	75.2186	2,548.83	77.673	2,548.83	82.0395	2,548.83	79.1984	2,548.83	82.5973	2,548.83	78.1521	2,548.83	83.9739	2,548.83	76.0038	2,548.83	82.1951	2,548.83	75.3964	2,548.83	80.9571	2,548.83	69.5025	2,548.83	74.1677	2,548.83	71.0542	2,548.83	71.0803	2,548.83	71.1956	2,548.83	70.4779	2,548.83	67.0912	2,548.83	67.5475	2,548.83	69.1146	2,548.83	69.4602	2,548.83	68.7432	2,548.83	62.7639	2,548.83	64.3832	2,548.83	55.1483	2,548.83	58.8834	2,548.83	65.4531	2,548.83	66.8689	2,548.83	70.2414	2,548.83	69.4194
2,639.65	83.5799	2,639.65	85.3651	2,639.65	80.7755	2,639.65	83.0595	2,639.65	75.1131	2,639.65	80.4301	2,639.65	77.748	2,639.65	77.5293	2,639.65	81.5621	2,639.65	78.8894	2,639.65	83.5807	2,639.65	79.1285	2,639.65	82.379	2,639.65	78.5432	2,639.65	82.0892	2,639.65	75.917	2,639.65	80.1514	2,639.65	76.9239	2,639.65	76.7995	2,639.65	71.9278	2,639.65	73.2087	2,639.65	71.8151	2,639.65	66.6436	2,639.65	70.5636	2,639.65	67.2161	2,639.65	70.2234	2,639.65	68.8023	2,639.65	68.2605	2,639.65	64.3986	2,639.65	67.5373	2,639.65	60.2555	2,639.65	65.5156	2,639.65	63.871	2,639.65	68.144	2,639.65	70.4383	2,639.65	71.0094
2,731.93	83.1539	2,731.93	83.7552	2,731.93	78.8983	2,731.93	82.0432	2,731.93	73.9368	2,731.93	79.0323	2,731.93	78.5254	2,731.93	79.0384	2,731.93	82.501	2,731.93	80.1505	2,731.93	83.1703	2,731.93	79.7187	2,731.93	83.2601	2,731.93	77.3556	2,731.93	82.3319	2,731.93	75.1695	2,731.93	79.3535	2,731.93	69.1682	2,731.93	64.3518	2,731.93	71.339	2,731.93	69.5078	2,731.93	70.931	2,731.93	66.0193	2,731.93	69.4159	2,731.93	63.7659	2,731.93	68.429	2,731.93	65.4602	2,731.93	68.239	2,731.93	67.1186	2,731.93	65.6034	2,731.93	61.7043	2,731.93	58.8056	2,731.93	66.543	2,731.93	64.1301	2,731.93	69.2483	2,731.93	67.6883
2,828.61	83.0451	2,828.61	84.1306	2,828.61	77.763	2,828.61	81.7525	2,828.61	77.5025	2,828.61	79.9186	2,828.61	78.0341	2,828.61	80.2928	2,828.61	82.3543	2,828.61	80.1549	2,828.61	83.2004	2,828.61	79.9957	2,828.61	84.321	2,828.61	77.9178	2,828.61	82.4147	2,828.61	77.3392	2,828.61	81.3172	2,828.61	76.8182	2,828.61	71.9083	2,828.61	72.7406	2,828.61	63.0154	2,828.61	71.365	2,828.61	64.8965	2,828.61	70.5825	2,828.61	67.7627	2,828.61	69.7249	2,828.61	65.5555	2,828.61	68.2143	2,828.61	66.205	2,828.61	67.3692	2,828.61	51.4838	2,828.61	56.3557	2,828.61	64.2031	2,828.61	64.2131	2,828.61	68.4878	2,828.61	70.3132
2,928.22	83.4991	2,928.22	84.5929	2,928.22	79.4907	2,928.22	82.2468	2,928.22	75.7275	2,928.22	78.5534	2,928.22	80.9241	2,928.22	79.8991	2,928.22	82.8731	2,928.22	81.6454	2,928.22	83.6856	2,928.22	79.9288	2,928.22	81.6658	2,928.22	79.9335	2,928.22	80.7812	2,928.22	75.5864	2,928.22	80.1401	2,928.22	70.628	2,928.22	72.5888	2,928.22	70.8897	2,928.22	55.1792	2,928.22	73.7737	2,928.22	67.1627	2,928.22	69.9394	2,928.22	67.0323	2,928.22	68.7907	2,928.22	63.9831	2,928.22	69.6152	2,928.22	68.3089	2,928.22	64.0132	2,928.22	58.6395	2,928.22	65.154	2,928.22	63.5377	2,928.22	64.8376	2,928.22	68.8079	2,928.22	67.6408
3,030.76	84.5722	3,030.76	85.4561	3,030.76	78.4978	3,030.76	83.6089	3,030.76	77.2897	3,030.76	80.4608	3,030.76	80.8069	3,030.76	80.8642	3,030.76	83.6999	3,030.76	81.5112	3,030.76	82.2878	3,030.76	81.8562	3,030.76	81.3433	3,030.76	79.7992	3,030.76	81.5561	3,030.76	79.9237	3,030.76	79.8446	3,030.76	78.4226	3,030.76	72.3448	3,030.76	74.7584	3,030.76	56.3172	3,030.76	71.5461	3,030.76	68.8329	3,030.76	70.4381	3,030.76	67.0734	3,030.76	70.5102	3,030.76	67.1745	3,030.76	69.9927	3,030.76	67.4156	3,030.76	68.2448	3,030.76	61.6446	3,030.76	58.9513	3,030.76	64.0857	3,030.76	66.5437	3,030.76	68.0012	3,030.76	70.342
3,137.7	83.2467	3,137.7	84.7195	3,137.7	79.4658	3,137.7	83.035	3,137.7	79.6075	3,137.7	80.2404	3,137.7	80.5967	3,137.7	81.3735	3,137.7	83.4977	3,137.7	82.8675	3,137.7	83.6088	3,137.7	82.395	3,137.7	81.9331	3,137.7	80.3975	3,137.7	82.2433	3,137.7	73.7451	3,137.7	81.2888	3,137.7	73.6758	3,137.7	75.0477	3,137.7	67.3108	3,137.7	65.8451	3,137.7	71.0819	3,137.7	65.1445	3,137.7	68.5077	3,137.7	64.4624	3,137.7	68.9139	3,137.7	64.0011	3,137.7	68.4294	3,137.7	66.8211	3,137.7	65.4594	3,137.7	62.7993	3,137.7	66.1909	3,137.7	62.4064	3,137.7	66.4106	3,137.7	69.7835	3,137.7	68.3431
3,249.02	83.6427	3,249.02	84.7398	3,249.02	79.8143	3,249.02	82.1216	3,249.02	79.7521	3,249.02	80.4029	3,249.02	83.4566	3,249.02	82.6144	3,249.02	82.3559	3,249.02	83.7055	3,249.02	84.7003	3,249.02	81.787	3,249.02	81.5026	3,249.02	77.6491	3,249.02	82.0704	3,249.02	78.7489	3,249.02	82.3537	3,249.02	72.4606	3,249.02	79.0564	3,249.02	73.5105	3,249.02	53.2243	3,249.02	68.2206	3,249.02	65.5136	3,249.02	69.4579	3,249.02	68.2452	3,249.02	66.8974	3,249.02	58.9516	3,249.02	68.9591	3,249.02	65.5595	3,249.02	66.4621	3,249.02	64.3933	3,249.02	58.3211	3,249.02	63.7908	3,249.02	65.5335	3,249.02	68.9899	3,249.02	69.1983
3,363.28	83.5704	3,363.28	83.8409	3,363.28	81.1455	3,363.28	80.9038	3,363.28	79.7199	3,363.28	80.4596	3,363.28	84.2163	3,363.28	83.6585	3,363.28	81.3271	3,363.28	83.5041	3,363.28	82.2361	3,363.28	80.4267	3,363.28	81.5211	3,363.28	77.9853	3,363.28	84.0503	3,363.28	74.8322	3,363.28	82.9117	3,363.28	75.6124	3,363.28	77.8585	3,363.28	69.7378	3,363.28	69.3921	3,363.28	70.5689	3,363.28	61.0594	3,363.28	68.2532	3,363.28	68.6504	3,363.28	68.0303	3,363.28	63.5726	3,363.28	68.2489	3,363.28	68.5587	3,363.28	64.6296	3,363.28	64.697	3,363.28	63.7066	3,363.28	62.4144	3,363.28	65.4538	3,363.28	69.693	3,363.28	66.5381
3,481.93	82.8855	3,481.93	84.2411	3,481.93	81.1463	3,481.93	81.9804	3,481.93	81.096	3,481.93	81.268	3,481.93	84.2572	3,481.93	84.0987	3,481.93	83.0175	3,481.93	82.5817	3,481.93	79.4121	3,481.93	80.2144	3,481.93	80.0316	3,481.93	78.2409	3,481.93	83.9741	3,481.93	77.1367	3,481.93	81.9618	3,481.93	67.2589	3,481.93	79.1802	3,481.93	70.884	3,481.93	68.6614	3,481.93	70.0752	3,481.93	65.7823	3,481.93	67.6306	3,481.93	70.3802	3,481.93	66.0284	3,481.93	65.8941	3,481.93	67.6199	3,481.93	66.5398	3,481.93	65.2197	3,481.93	65.0778	3,481.93	51.0425	3,481.93	62.7204	3,481.93	62.8327	3,481.93	67.592	3,481.93	68.1834
3,604.98	83.6053	3,604.98	85.0206	3,604.98	80.6574	3,604.98	82.8881	3,604.98	83.0007	3,604.98	82.698	3,604.98	84.6846	3,604.98	83.8365	3,604.98	82.651	3,604.98	82.307	3,604.98	79.9861	3,604.98	80.6682	3,604.98	80.7305	3,604.98	76.3449	3,604.98	82.5443	3,604.98	77.4645	3,604.98	79.8284	3,604.98	75.14	3,604.98	74.8224	3,604.98	73.7706	3,604.98	68.3926	3,604.98	66.6041	3,604.98	67.9709	3,604.98	69.3344	3,604.98	69.1615	3,604.98	66.0106	3,604.98	65.441	3,604.98	67.4572	3,604.98	64.8909	3,604.98	66.1236	3,604.98	66.0306	3,604.98	64.0199	3,604.98	61.6505	3,604.98	67.4972	3,604.98	67.5495	3,604.98	68.2751
3,732.42	84.497	3,732.42	84.2675	3,732.42	82.1828	3,732.42	82.0498	3,732.42	82.4937	3,732.42	83.6349	3,732.42	84.1859	3,732.42	83.1897	3,732.42	81.5751	3,732.42	82.2472	3,732.42	80.2899	3,732.42	79.2977	3,732.42	80.7279	3,732.42	78.3311	3,732.42	82.6247	3,732.42	72.8192	3,732.42	78.3255	3,732.42	74.5008	3,732.42	71.8884	3,732.42	66.3493	3,732.42	64.7203	3,732.42	68.4042	3,732.42	68.6818	3,732.42	67.2057	3,732.42	71.7621	3,732.42	66.3125	3,732.42	67.0816	3,732.42	65.8988	3,732.42	64.9935	3,732.42	60.9183	3,732.42	64.9203	3,732.42	57.0599	3,732.42	56.3998	3,732.42	62.0766	3,732.42	67.7796	3,732.42	66.6715
3,864.26	83.8661	3,864.26	85.2606	3,864.26	82.8735	3,864.26	83.0722	3,864.26	84.4025	3,864.26	83.0359	3,864.26	84.8482	3,864.26	83.5256	3,864.26	82.156	3,864.26	81.6471	3,864.26	79.689	3,864.26	79.8147	3,864.26	80.0207	3,864.26	77.411	3,864.26	80.3687	3,864.26	76.9929	3,864.26	78.9943	3,864.26	69.495	3,864.26	70.5328	3,864.26	70.8227	3,864.26	55.9076	3,864.26	69.4958	3,864.26	67.9847	3,864.26	68.2095	3,864.26	69.9958	3,864.26	66.1958	3,864.26	65.7164	3,864.26	68.7727	3,864.26	63.9521	3,864.26	64.9233	3,864.26	64.8153	3,864.26	60.6639	3,864.26	61.5399	3,864.26	65.0786	3,864.26	69.4839	3,864.26	67.9666
4,000.49	84.0417	4,000.49	84.6413	4,000.49	80.5527	4,000.49	83.2739	4,000.49	85.2895	4,000.49	82.5561	4,000.49	85.1723	4,000.49	83.5496	4,000.49	81.491	4,000.49	81.6918	4,000.49	79.0667	4,000.49	79.7539	4,000.49	79.1364	4,000.49	78.3125	4,000.49	79.06	4,000.49	76.2417	4,000.49	78.2226	4,000.49	71.6875	4,000.49	73.1539	4,000.49	71.2273	4,000.49	51.3206	4,000.49	65.4067	4,000.49	64.9765	4,000.49	69.7885	4,000.49	70.2239	4,000.49	64.8874	4,000.49	65.9443	4,000.49	68.3148	4,000.49	63.522	4,000.49	66.1003	4,000.49	67.8398	4,000.49	54.7027	4,000.49	58.5814	4,000.49	63.3126	4,000.49	67.5088	4,000.49	65.4996
4,141.11	85.3239	4,141.11	85.5618	4,141.11	81.6214	4,141.11	83.7048	4,141.11	84.7277	4,141.11	82.5884	4,141.11	85.5815	4,141.11	82.8447	4,141.11	80.7397	4,141.11	82.067	4,141.11	78.8256	4,141.11	79.4208	4,141.11	79.8442	4,141.11	78.0595	4,141.11	77.5427	4,141.11	74.2793	4,141.11	79.0353	4,141.11	72.5387	4,141.11	77.1593	4,141.11	68.9942	4,141.11	69.7736	4,141.11	67.1234	4,141.11	55.6797	4,141.11	65.8939	4,141.11	69.864	4,141.11	65.8938	4,141.11	63.5182	4,141.11	65.63	4,141.11	58.9368	4,141.11	64.1004	4,141.11	66.3868	4,141.11	52.9729	4,141.11	58.1681	4,141.11	58.7288	4,141.11	66.7226	4,141.11	65.7903
4,287.6	86.0974	4,287.6	86.1655	4,287.6	81.929	4,287.6	83.6936	4,287.6	85.5077	4,287.6	82.5461	4,287.6	85.6766	4,287.6	82.8683	4,287.6	82.5181	4,287.6	81.736	4,287.6	76.605	4,287.6	79.5919	4,287.6	81.0566	4,287.6	77.3063	4,287.6	78.3095	4,287.6	75.8945	4,287.6	79.0459	4,287.6	72.2986	4,287.6	76.5764	4,287.6	66.7854	4,287.6	71.4055	4,287.6	65.9964	4,287.6	57.7309	4,287.6	67.2309	4,287.6	67.5566	4,287.6	63.906	4,287.6	64.3864	4,287.6	64.9757	4,287.6	60.1249	4,287.6	63.883	4,287.6	66.7284	4,287.6	54.5941	4,287.6	57.6033	4,287.6	64.1914	4,287.6	66.614	4,287.6	65.8959
4,438.48	86.3776	4,438.48	86.5655	4,438.48	81.7467	4,438.48	83.7136	4,438.48	85.6921	4,438.48	82.9662	4,438.48	84.7219	4,438.48	83.2736	4,438.48	81.9304	4,438.48	81.3772	4,438.48	77.223	4,438.48	78.5241	4,438.48	79.4831	4,438.48	77.5301	4,438.48	80.9604	4,438.48	73.6019	4,438.48	80.02	4,438.48	72.8671	4,438.48	73.1148	4,438.48	70.4996	4,438.48	71.4683	4,438.48	66.1375	4,438.48	53.8688	4,438.48	68.5447	4,438.48	62.5862	4,438.48	61.8859	4,438.48	65.4093	4,438.48	66.5723	4,438.48	61.2295	4,438.48	67.2066	4,438.48	65.8767	4,438.48	55.0095	4,438.48	56.5619	4,438.48	59.9377	4,438.48	67.4445	4,438.48	61.7997
4,595.21	86.9238	4,595.21	86.4919	4,595.21	81.3724	4,595.21	81.4472	4,595.21	86.0539	4,595.21	83.0775	4,595.21	85.7356	4,595.21	82.9665	4,595.21	81.0343	4,595.21	81.5323	4,595.21	77.3888	4,595.21	78.9922	4,595.21	76.9187	4,595.21	77.9584	4,595.21	82.7051	4,595.21	74.4391	4,595.21	80.0042	4,595.21	71.6409	4,595.21	71.7688	4,595.21	69.7206	4,595.21	61.8276	4,595.21	65.3954	4,595.21	63.4927	4,595.21	66.8652	4,595.21	63.0106	4,595.21	62.9847	4,595.21	64.8771	4,595.21	67.4875	4,595.21	57.2305	4,595.21	63.0559	4,595.21	64.9774	4,595.21	50.358	4,595.21	58.4913	4,595.21	58.0249	4,595.21	66.4139	4,595.21	61.92
4,756.35	87.6741	4,756.35	86.325	4,756.35	81.1897	4,756.35	83.2984	4,756.35	84.8135	4,756.35	83.4355	4,756.35	85.484	4,756.35	82.5591	4,756.35	82.3267	4,756.35	80.9177	4,756.35	79.0159	4,756.35	79.7406	4,756.35	78.8686	4,756.35	77.0116	4,756.35	81.2544	4,756.35	74.3007	4,756.35	77.9966	4,756.35	67.1874	4,756.35	71.4926	4,756.35	65.4804	4,756.35	51.613	4,756.35	61.9137	4,756.35	63.5147	4,756.35	65.0658	4,756.35	64.0803	4,756.35	61.3616	4,756.35	62.5316	4,756.35	66.1077	4,756.35	61.2712	4,756.35	63.8237	4,756.35	66.3071	4,756.35	56.4416	4,756.35	55.3155	4,756.35	54.4452	4,756.35	64.5318	4,756.35	58.8745
4,924.8	87.8549	4,924.8	85.4022	4,924.8	83.9197	4,924.8	83.6347	4,924.8	83.4708	4,924.8	83.6848	4,924.8	84.9318	4,924.8	81.9488	4,924.8	82.9326	4,924.8	81.1963	4,924.8	79.9421	4,924.8	78.1127	4,924.8	79.2776	4,924.8	75.7528	4,924.8	80.0258	4,924.8	71.6037	4,924.8	77.4002	4,924.8	70.6051	4,924.8	71.9474	4,924.8	66.9751	4,924.8	53.4827	4,924.8	63.6337	4,924.8	61.9582	4,924.8	64.5888	4,924.8	66.2571	4,924.8	58.5196	4,924.8	62.3128	4,924.8	62.3043	4,924.8	58.5748	4,924.8	65.7831	4,924.8	66.043	4,924.8	60.8609	4,924.8	53.6374	4,924.8	46.5693	4,924.8	61.0966	4,924.8	60.0607
5,097.66	87.2988	5,097.66	85.7803	5,097.66	84.5944	5,097.66	84.1105	5,097.66	84.9399	5,097.66	83.6725	5,097.66	84.5212	5,097.66	82.1017	5,097.66	83.886	5,097.66	80.535	5,097.66	79.3106	5,097.66	77.8311	5,097.66	79.0735	5,097.66	74.5451	5,097.66	75.8211	5,097.66	72.1598	5,097.66	76.0499	5,097.66	68.5639	5,097.66	67.0708	5,097.66	65.2993	5,097.66	50.7242	5,097.66	64.5762	5,097.66	64.6328	5,097.66	64.2688	5,097.66	67.4225	5,097.66	63.1586	5,097.66	61.4964	5,097.66	62.8161	5,097.66	61.5569	5,097.66	63.9694	5,097.66	65.895	5,097.66	57.7605	5,097.66	56.0522	5,097.66	39.8869	5,097.66	60.4654	5,097.66	56.2877
5,277.83	87.1864	5,277.83	84.9705	5,277.83	84.6219	5,277.83	83.993	5,277.83	85.2462	5,277.83	83.5152	5,277.83	84.5064	5,277.83	82.6086	5,277.83	83.8102	5,277.83	80.0825	5,277.83	82.0492	5,277.83	77.1596	5,277.83	79.6601	5,277.83	74.5115	5,277.83	76.8112	5,277.83	71.7377	5,277.83	76.7031	5,277.83	69.6069	5,277.83	72.2945	5,277.83	64.8184	5,277.83	48.7745	5,277.83	61.4689	5,277.83	61.174	5,277.83	65.1362	5,277.83	66.2953	5,277.83	64.6328	5,277.83	29.3395	5,277.83	62.6429	5,277.83	63.3384	5,277.83	63.2167	5,277.83	64.5807	5,277.83	62.1245	5,277.83	58.2798	5,277.83	50.6405	5,277.83	57.6293	5,277.83	54.5309
5,463.87	87.362	5,463.87	86.0424	5,463.87	85.1513	5,463.87	84.476	5,463.87	86.1379	5,463.87	83.3215	5,463.87	84.9333	5,463.87	82.6141	5,463.87	84.4941	5,463.87	81.0885	5,463.87	81.3468	5,463.87	77.0955	5,463.87	77.5699	5,463.87	76.055	5,463.87	75.2709	5,463.87	71.5591	5,463.87	75.1759	5,463.87	71.744	5,463.87	66.7099	5,463.87	64.8397	5,463.87	53.3727	5,463.87	65.7093	5,463.87	57.8207	5,463.87	62.7337	5,463.87	60.4825	5,463.87	62.6178	5,463.87	58.297	5,463.87	65.1038	5,463.87	58.8011	5,463.87	64.6922	5,463.87	63.788	5,463.87	60.0317	5,463.87	59.4218	5,463.87	51.6081	5,463.87	57.4195	5,463.87	55.9628
5,657.23	87.4905	5,657.23	85.2569	5,657.23	84.717	5,657.23	84.6145	5,657.23	86.2799	5,657.23	83.0816	5,657.23	83.7346	5,657.23	82.8835	5,657.23	84.8067	5,657.23	80.5865	5,657.23	80.53	5,657.23	77.7752	5,657.23	72.7097	5,657.23	76.1832	5,657.23	76.6253	5,657.23	73.2802	5,657.23	74.5526	5,657.23	69.7446	5,657.23	70.3912	5,657.23	64.8549	5,657.23	53.487	5,657.23	61.9116	5,657.23	53.6705	5,657.23	62.2423	5,657.23	65.0516	5,657.23	63.623	5,657.23	56.5161	5,657.23	64.2115	5,657.23	58.7635	5,657.23	64.761	5,657.23	62.8984	5,657.23	61.7368	5,657.23	55.0353	5,657.23	53.5718	5,657.23	59.0377	5,657.23	54.449
5,856.45	86.9881	5,856.45	84.8248	5,856.45	84.3167	5,856.45	83.976	5,856.45	87.1705	5,856.45	82.8331	5,856.45	83.6358	5,856.45	82.66	5,856.45	84.4967	5,856.45	80.9049	5,856.45	80.8043	5,856.45	77.4261	5,856.45	73.8559	5,856.45	76.0665	5,856.45	74.8384	5,856.45	69.0464	5,856.45	75.7843	5,856.45	65.9129	5,856.45	75.043	5,856.45	60.458	5,856.45	59.2841	5,856.45	62.6754	5,856.45	61.8152	5,856.45	58.2164	5,856.45	61.8618	5,856.45	59.184	5,856.45	60.0603	5,856.45	57.4655	5,856.45	51.2501	5,856.45	62.8836	5,856.45	60.0287	5,856.45	60.2808	5,856.45	57.7937	5,856.45	53.0497	5,856.45	57.1105	5,856.45	54.8835
6,062.99	87.8119	6,062.99	84.3335	6,062.99	84.0536	6,062.99	84.7107	6,062.99	86.5437	6,062.99	83.1509	6,062.99	83.3457	6,062.99	82.938	6,062.99	83.2386	6,062.99	80.772	6,062.99	79.7302	6,062.99	78.3006	6,062.99	72.8707	6,062.99	73.546	6,062.99	72.3876	6,062.99	70.6801	6,062.99	73.3273	6,062.99	67.1821	6,062.99	74.8896	6,062.99	63.7274	6,062.99	63.046	6,062.99	62.2228	6,062.99	62.4225	6,062.99	63.1565	6,062.99	59.9684	6,062.99	63.3148	6,062.99	57.4433	6,062.99	59.5224	6,062.99	51.3518	6,062.99	63.3097	6,062.99	58.8798	6,062.99	62.6311	6,062.99	53.7521	6,062.99	57.5513	6,062.99	57.3714	6,062.99	46.6232
6,276.86	87.5651	6,276.86	84.3634	6,276.86	85.2858	6,276.86	84.1216	6,276.86	85.9241	6,276.86	83.2838	6,276.86	82.8697	6,276.86	82.8119	6,276.86	82.8966	6,276.86	81.4125	6,276.86	79.903	6,276.86	77.4799	6,276.86	74.1718	6,276.86	74.5778	6,276.86	75.8303	6,276.86	71.354	6,276.86	77.2609	6,276.86	68.5156	6,276.86	70.4596	6,276.86	65.8042	6,276.86	62.1717	6,276.86	60.8628	6,276.86	61.315	6,276.86	64.4421	6,276.86	61.4524	6,276.86	63.2288	6,276.86	55.9177	6,276.86	63.3205	6,276.86	52.3852	6,276.86	65.3895	6,276.86	56.2705	6,276.86	62.4712	6,276.86	57.0225	6,276.86	59.2422	6,276.86	58.8097	6,276.86	50.6015
6,498.05	87.3849	6,498.05	84.7076	6,498.05	84.4626	6,498.05	83.7798	6,498.05	85.6241	6,498.05	82.921	6,498.05	83.0691	6,498.05	81.8638	6,498.05	83.0252	6,498.05	81.1766	6,498.05	80.527	6,498.05	76.8744	6,498.05	72.8126	6,498.05	75.2817	6,498.05	79.1493	6,498.05	71.9921	6,498.05	74.6732	6,498.05	68.689	6,498.05	68.6413	6,498.05	64.2968	6,498.05	62.8252	6,498.05	62.1781	6,498.05	57.6565	6,498.05	62.6721	6,498.05	62.8206	6,498.05	61.5739	6,498.05	49.4047	6,498.05	64.1879	6,498.05	54.3933	6,498.05	62.4604	6,498.05	52.5805	6,498.05	61.622	6,498.05	58.0438	6,498.05	59.5083	6,498.05	57.5622	6,498.05	50.3179
6,726.56	87.5471	6,726.56	85.4587	6,726.56	84.802	6,726.56	85.1016	6,726.56	85.3735	6,726.56	83.1528	6,726.56	83.4342	6,726.56	82.2585	6,726.56	83.0168	6,726.56	79.8034	6,726.56	81.4945	6,726.56	77.2665	6,726.56	71.6966	6,726.56	73.6385	6,726.56	76.0358	6,726.56	69.4616	6,726.56	64.5847	6,726.56	68.1101	6,726.56	65.5154	6,726.56	62.2989	6,726.56	56.7384	6,726.56	58.9331	6,726.56	57.7009	6,726.56	61.0416	6,726.56	55.2644	6,726.56	60.6733	6,726.56	52.3317	6,726.56	63.3968	6,726.56	55.5354	6,726.56	62.5858	6,726.56	47.5993	6,726.56	62.0847	6,726.56	54.665	6,726.56	58.4932	6,726.56	55.6561	6,726.56	50.1684
6,963.87	86.9739	6,963.87	84.9921	6,963.87	85.3007	6,963.87	84.8743	6,963.87	85.1224	6,963.87	82.4432	6,963.87	82.648	6,963.87	82.6232	6,963.87	82.8363	6,963.87	79.3167	6,963.87	80.0835	6,963.87	76.7332	6,963.87	71.0733	6,963.87	72.6365	6,963.87	71.5572	6,963.87	71.4844	6,963.87	69.0954	6,963.87	66.4784	6,963.87	64.8914	6,963.87	63.7433	6,963.87	42.185	6,963.87	62.591	6,963.87	54.1688	6,963.87	61.6412	6,963.87	57.8257	6,963.87	60.7088	6,963.87	58.9378	6,963.87	63.6502	6,963.87	57.015	6,963.87	64.8372	6,963.87	41.208	6,963.87	60.6718	6,963.87	55.276	6,963.87	56.9136	6,963.87	56.7081	6,963.87	46.4411
7,209.96	87.223	7,209.96	85.4044	7,209.96	84.9992	7,209.96	85.0026	7,209.96	84.9205	7,209.96	83.0708	7,209.96	83.0741	7,209.96	82.0526	7,209.96	81.5312	7,209.96	79.6485	7,209.96	79.31	7,209.96	75.8205	7,209.96	72.6918	7,209.96	74.6085	7,209.96	69.4909	7,209.96	69.1197	7,209.96	73.5796	7,209.96	66.6761	7,209.96	65.4823	7,209.96	60.4967	7,209.96	56.6033	7,209.96	61.0277	7,209.96	54.988	7,209.96	61.3678	7,209.96	52.845	7,209.96	61.4107	7,209.96	59.8354	7,209.96	59.7444	7,209.96	55.3974	7,209.96	61.8852	7,209.96	25.0297	7,209.96	61.2825	7,209.96	54.5643	7,209.96	55.9305	7,209.96	57.1418	7,209.96	53.3905
7,464.84	87.3129	7,464.84	85.5378	7,464.84	85.7381	7,464.84	85.4886	7,464.84	85.0867	7,464.84	83.1109	7,464.84	82.6683	7,464.84	80.9953	7,464.84	81.5817	7,464.84	78.7826	7,464.84	79.089	7,464.84	76.3906	7,464.84	74.0772	7,464.84	72.0306	7,464.84	71.156	7,464.84	70.0096	7,464.84	70.3896	7,464.84	65.5747	7,464.84	64.5086	7,464.84	64.171	7,464.84	60.938	7,464.84	58.7659	7,464.84	61.9249	7,464.84	59.0314	7,464.84	59.9466	7,464.84	61.1572	7,464.84	57.63	7,464.84	61.4028	7,464.84	49.9073	7,464.84	60.3715	7,464.84	45.9534	7,464.84	59.127	7,464.84	55.7393	7,464.84	56.6917	7,464.84	53.7613	7,464.84	51.0553
7,727.05	86.7816	7,727.05	85.431	7,727.05	85.3673	7,727.05	85.6848	7,727.05	85.5623	7,727.05	82.1814	7,727.05	81.9661	7,727.05	80.61	7,727.05	80.6511	7,727.05	79.2891	7,727.05	78.6444	7,727.05	76.178	7,727.05	72.9905	7,727.05	72.5698	7,727.05	74.2775	7,727.05	70.513	7,727.05	67.5491	7,727.05	66.1823	7,727.05	64.6873	7,727.05	60.2349	7,727.05	55.7535	7,727.05	61.0708	7,727.05	55.36	7,727.05	63.0765	7,727.05	55.7836	7,727.05	57.8386	7,727.05	57.2682	7,727.05	62.2786	7,727.05	53.8317	7,727.05	62.3164	7,727.05	47.6973	7,727.05	59.4077	7,727.05	55.1581	7,727.05	53.1308	7,727.05	55.9351	7,727.05	43.0528
7,999.51	86.9853	7,999.51	86.4622	7,999.51	86.4112	7,999.51	85.3914	7,999.51	85.5015	7,999.51	82.4073	7,999.51	82.3946	7,999.51	80.9825	7,999.51	79.5246	7,999.51	78.93	7,999.51	79.257	7,999.51	76.9885	7,999.51	74.1231	7,999.51	73.442	7,999.51	73.0084	7,999.51	70.7872	7,999.51	62.6889	7,999.51	65.3546	7,999.51	61.7058	7,999.51	61.0211	7,999.51	47.2877	7,999.51	58.9818	7,999.51	55.25	7,999.51	60.0526	7,999.51	53.5855	7,999.51	59.406	7,999.51	52.5888	7,999.51	61.8967	7,999.51	51.0427	7,999.51	61.962	7,999.51	42.4111	7,999.51	61.7796	7,999.51	55.1543	7,999.51	56.5775	7,999.51	54.0502	7,999.51	53.1656
8,282.23	86.5537	8,282.23	86.4116	8,282.23	87.0124	8,282.23	85.6248	8,282.23	86.1518	8,282.23	82.3588	8,282.23	81.763	8,282.23	80.3785	8,282.23	80.0294	8,282.23	79.2695	8,282.23	77.9484	8,282.23	76.7106	8,282.23	73.9187	8,282.23	73.5912	8,282.23	70.3345	8,282.23	70.7108	8,282.23	70.7318	8,282.23	65.9721	8,282.23	61.5901	8,282.23	61.0855	8,282.23	47.0795	8,282.23	58.0748	8,282.23	57.1292	8,282.23	61.4995	8,282.23	56.9422	8,282.23	60.7497	8,282.23	52.4094	8,282.23	61.2337	8,282.23	48.7317	8,282.23	60.7584	8,282.23	53.0607	8,282.23	60.2357	8,282.23	53.6939	8,282.23	53.7098	8,282.23	52.0012	8,282.23	48.0511
8,573.73	87.0679	8,573.73	87.0256	8,573.73	86.9274	8,573.73	85.6729	8,573.73	85.9752	8,573.73	82.5221	8,573.73	81.6393	8,573.73	80.0948	8,573.73	79.5111	8,573.73	78.768	8,573.73	78.9112	8,573.73	76.8877	8,573.73	74.2613	8,573.73	72.4329	8,573.73	70.4542	8,573.73	69.2101	8,573.73	70.8587	8,573.73	63.8476	8,573.73	65.2341	8,573.73	61.3646	8,573.73	49.9967	8,573.73	57.3159	8,573.73	48.653	8,573.73	56.6232	8,573.73	54.8661	8,573.73	57.7188	8,573.73	54.3115	8,573.73	60.6201	8,573.73	48.2684	8,573.73	59.9618	8,573.73	51.1156	8,573.73	60.9319	8,573.73	51.3485	8,573.73	52.9755	8,573.73	52.0736	8,573.73	47.0277
8,876.95	86.8661	8,876.95	87.1337	8,876.95	87.018	8,876.95	85.9081	8,876.95	86.0557	8,876.95	82.1238	8,876.95	81.7588	8,876.95	80.4056	8,876.95	80.7429	8,876.95	78.4942	8,876.95	78.3811	8,876.95	76.5298	8,876.95	74.417	8,876.95	70.6401	8,876.95	71.9414	8,876.95	68.2104	8,876.95	68.1771	8,876.95	62.2575	8,876.95	61.4527	8,876.95	57.2764	8,876.95	51.0561	8,876.95	57.9928	8,876.95	46.6051	8,876.95	58.7345	8,876.95	48.677	8,876.95	56.0533	8,876.95	53.7804	8,876.95	60.8194	8,876.95	50.3743	8,876.95	59.448	8,876.95	50.5171	8,876.95	58.471	8,876.95	50.3696	8,876.95	51.656	8,876.95	52.4857	8,876.95	46.8393
9,188.96	87.2814	9,188.96	87.153	9,188.96	86.9645	9,188.96	85.6276	9,188.96	85.6779	9,188.96	82.1232	9,188.96	82.9681	9,188.96	80.4869	9,188.96	80.6985	9,188.96	78.3307	9,188.96	77.5462	9,188.96	75.2605	9,188.96	74.3154	9,188.96	71.0459	9,188.96	68.499	9,188.96	66.577	9,188.96	69.6316	9,188.96	62.553	9,188.96	61.9007	9,188.96	58.6908	9,188.96	54.8647	9,188.96	54.145	9,188.96	44.9418	9,188.96	53.2333	9,188.96	43.265	9,188.96	57.735	9,188.96	49.7268	9,188.96	59.2308	9,188.96	50.0797	9,188.96	57.0776	9,188.96	49.6475	9,188.96	57.7735	9,188.96	50.5872	9,188.96	55.5187	9,188.96	53.3705	9,188.96	36.6558
9,514.16	87.2681	9,514.16	87.2133	9,514.16	87.0302	9,514.16	85.705	9,514.16	85.7659	9,514.16	82.0454	9,514.16	82.4167	9,514.16	80.6176	9,514.16	80.5619	9,514.16	77.9622	9,514.16	76.7936	9,514.16	74.3184	9,514.16	73.2393	9,514.16	69.9378	9,514.16	67.3675	9,514.16	67.0032	9,514.16	66.9813	9,514.16	62.7944	9,514.16	62.4601	9,514.16	59.4788	9,514.16	53.5409	9,514.16	58.0866	9,514.16	52.8142	9,514.16	58.5597	9,514.16	50.2357	9,514.16	59.6864	9,514.16	55.822	9,514.16	52.3846	9,514.16	53.475	9,514.16	54.3632	9,514.16	47.7868	9,514.16	60.5167	9,514.16	50.0722	9,514.16	56.9515	9,514.16	52.0492	9,514.16	40.4897
9,849.61	87.8062	9,849.61	87.3895	9,849.61	87.2091	9,849.61	85.7314	9,849.61	85.4505	9,849.61	82.2154	9,849.61	82.8107	9,849.61	80.9534	9,849.61	79.0959	9,849.61	77.1568	9,849.61	76.9671	9,849.61	74.0908	9,849.61	74.6742	9,849.61	70.4924	9,849.61	67.0565	9,849.61	67.5761	9,849.61	65.416	9,849.61	60.7458	9,849.61	64.6566	9,849.61	57.2029	9,849.61	56.291	9,849.61	48.5165	9,849.61	47.7421	9,849.61	56.54	9,849.61	47.0759	9,849.61	58.3702	9,849.61	47.9017	9,849.61	58.9173	9,849.61	47.6817	9,849.61	56.1576	9,849.61	48.752	9,849.61	58.3392	9,849.61	51.2956	9,849.61	55.4357	9,849.61	50.7047	9,849.61	43.7318
10,196.8	88.0225	10,196.8	87.7732	10,196.8	87.3896	10,196.8	85.6101	10,196.8	85.8849	10,196.8	82.5556	10,196.8	82.5861	10,196.8	80.5457	10,196.8	79.3164	10,196.8	77.1448	10,196.8	76.408	10,196.8	74.0652	10,196.8	73.769	10,196.8	70.6595	10,196.8	65.2237	10,196.8	66.3717	10,196.8	65.2414	10,196.8	61.7893	10,196.8	52.617	10,196.8	57.948	10,196.8	53.8384	10,196.8	56.258	10,196.8	51.4827	10,196.8	56.4264	10,196.8	36.8222	10,196.8	58.4892	10,196.8	48.6167	10,196.8	53.4389	10,196.8	54.2448	10,196.8	53.0758	10,196.8	49.0541	10,196.8	58.8942	10,196.8	46.9846	10,196.8	55.9115	10,196.8	49.3528	10,196.8	42.4515
10,555.7	88.3797	10,555.7	87.9201	10,555.7	87.4784	10,555.7	85.6438	10,555.7	85.9516	10,555.7	82.8992	10,555.7	82.6093	10,555.7	80.198	10,555.7	78.6795	10,555.7	76.7627	10,555.7	75.6302	10,555.7	74.4194	10,555.7	71.9897	10,555.7	69.9236	10,555.7	64.231	10,555.7	67.1698	10,555.7	65.5007	10,555.7	60.9827	10,555.7	60.8658	10,555.7	56.1535	10,555.7	57.0625	10,555.7	56.5898	10,555.7	46.9598	10,555.7	58.032	10,555.7	32.1138	10,555.7	59.8855	10,555.7	41.884	10,555.7	51.9604	10,555.7	52.0622	10,555.7	52.6596	10,555.7	46.2165	10,555.7	57.4289	10,555.7	49.7882	10,555.7	54.2562	10,555.7	51.1429	10,555.7	42.9851
10,927.7	88.8388	10,927.7	88.1233	10,927.7	87.4721	10,927.7	85.7139	10,927.7	86.1129	10,927.7	82.9514	10,927.7	81.9777	10,927.7	79.6839	10,927.7	78.4114	10,927.7	76.1938	10,927.7	75.6021	10,927.7	73.8277	10,927.7	72.5247	10,927.7	69.766	10,927.7	64.1257	10,927.7	65.3822	10,927.7	58.3682	10,927.7	59.8359	10,927.7	58.0923	10,927.7	55.4593	10,927.7	56.6254	10,927.7	48.4768	10,927.7	50.0106	10,927.7	52.5069	10,927.7	44.2989	10,927.7	55.195	10,927.7	46.3233	10,927.7	52.2075	10,927.7	52.8699	10,927.7	56.3942	10,927.7	45.8344	10,927.7	55.7202	10,927.7	45.6774	10,927.7	51.2195	10,927.7	48.7298	10,927.7	45.312
11,313	88.9957	11,313	88.1152	11,313	87.6404	11,313	85.7809	11,313	85.9579	11,313	82.7759	11,313	81.2291	11,313	79.1144	11,313	77.2015	11,313	75.7009	11,313	74.6072	11,313	73.5098	11,313	71.0485	11,313	68.7756	11,313	62.527	11,313	64.2579	11,313	61.3342	11,313	61.0792	11,313	51.4029	11,313	55.9549	11,313	49.3952	11,313	53.2143	11,313	46.9043	11,313	55.7442	11,313	33.2454	11,313	56.5194	11,313	30.7043	11,313	54.5818	11,313	49.1266	11,313	55.901	11,313	45.6832	11,313	55.5953	11,313	47.8333	11,313	49.2208	11,313	48.7795	11,313	47.5691
11,712.9	89.1749	11,712.9	88.1946	11,712.9	87.7223	11,712.9	85.9937	11,712.9	85.8643	11,712.9	82.3597	11,712.9	80.9115	11,712.9	78.8717	11,712.9	77.1594	11,712.9	75.303	11,712.9	74.0433	11,712.9	72.6879	11,712.9	70.3503	11,712.9	67.9285	11,712.9	62.8295	11,712.9	63.7018	11,712.9	61.1306	11,712.9	59.4158	11,712.9	56.6331	11,712.9	53.113	11,712.9	54.2355	11,712.9	53.4383	11,712.9	50.7202	11,712.9	55.0452	11,712.9	45.9923	11,712.9	55.6768	11,712.9	45.4484	11,712.9	48.1916	11,712.9	50.2682	11,712.9	51.7296	11,712.9	43.5212	11,712.9	54.5786	11,712.9	48.6665	11,712.9	52.5105	11,712.9	51.2416	11,712.9	42.1587
12,126	89.2141	12,126	88.0195	12,126	87.7029	12,126	85.8954	12,126	85.8743	12,126	82.036	12,126	80.8253	12,126	78.238	12,126	77.7817	12,126	75.4754	12,126	74.4073	12,126	71.8875	12,126	71.6815	12,126	67.6971	12,126	65.9025	12,126	64.1207	12,126	56.0668	12,126	59.4645	12,126	49.8212	12,126	53.0761	12,126	45.3273	12,126	47.5646	12,126	50.7746	12,126	55.128	12,126	47.2453	12,126	53.9343	12,126	47.7884	12,126	54.7076	12,126	50.3064	12,126	50.1406	12,126	46.6335	12,126	58.7251	12,126	50.1087	12,126	53.4578	12,126	51.6671	12,126	42.7486
12,553.7	89.1278	12,553.7	87.8801	12,553.7	87.5495	12,553.7	85.6297	12,553.7	85.5847	12,553.7	81.7152	12,553.7	81.6105	12,553.7	77.8147	12,553.7	77.2076	12,553.7	75.1249	12,553.7	74.5417	12,553.7	72.2597	12,553.7	71.2214	12,553.7	68.5826	12,553.7	66.0965	12,553.7	64.1114	12,553.7	61.2756	12,553.7	59.9538	12,553.7	55.9704	12,553.7	54.1719	12,553.7	50.8036	12,553.7	52.1309	12,553.7	47.0998	12,553.7	54.2217	12,553.7	41.8738	12,553.7	55.9492	12,553.7	46.9135	12,553.7	53.0456	12,553.7	50.9948	12,553.7	54.4097	12,553.7	44.8819	12,553.7	55.7595	12,553.7	50.4897	12,553.7	50.2592	12,553.7	51.2346	12,553.7	44.9458
12,996.1	89.1552	12,996.1	87.6734	12,996.1	87.319	12,996.1	85.4888	12,996.1	85.2927	12,996.1	81.2583	12,996.1	82.3868	12,996.1	78.1868	12,996.1	77.3662	12,996.1	74.9769	12,996.1	74.1573	12,996.1	73.0637	12,996.1	71.9957	12,996.1	69.5643	12,996.1	66.2247	12,996.1	64.1243	12,996.1	55.5564	12,996.1	59.9861	12,996.1	48.8078	12,996.1	56.6144	12,996.1	56.0839	12,996.1	50.3377	12,996.1	46.7292	12,996.1	53.2275	12,996.1	47.3377	12,996.1	53.8319	12,996.1	45.6073	12,996.1	55.1009	12,996.1	47.7506	12,996.1	56.2619	12,996.1	43.9093	12,996.1	55.6176	12,996.1	52.0091	12,996.1	50.8927	12,996.1	52.4081	12,996.1	46.1327
13,454.6	89.0475	13,454.6	87.6418	13,454.6	87.2434	13,454.6	85.2896	13,454.6	84.9119	13,454.6	81.4333	13,454.6	82.376	13,454.6	78.6687	13,454.6	77.5453	13,454.6	75.1985	13,454.6	74.1119	13,454.6	73.8884	13,454.6	71.7658	13,454.6	69.6317	13,454.6	64.824	13,454.6	64.8901	13,454.6	61.9269	13,454.6	60.602	13,454.6	57.9184	13,454.6	56.1839	13,454.6	60.3521	13,454.6	48.4613	13,454.6	47.2375	13,454.6	53.3302	13,454.6	44.6406	13,454.6	54.0266	13,454.6	45.9157	13,454.6	51.877	13,454.6	46.9308	13,454.6	54.5352	13,454.6	44.2368	13,454.6	54.6695	13,454.6	51.7885	13,454.6	47.9318	13,454.6	52.6203	13,454.6	46.4203
13,929.2	88.8434	13,929.2	87.8174	13,929.2	87.4857	13,929.2	85.2921	13,929.2	84.6076	13,929.2	81.942	13,929.2	81.6676	13,929.2	79.2616	13,929.2	77.8228	13,929.2	75.8849	13,929.2	73.5701	13,929.2	73.4509	13,929.2	70.2206	13,929.2	69.9149	13,929.2	67.2354	13,929.2	64.8037	13,929.2	56.0233	13,929.2	60.3141	13,929.2	50.3139	13,929.2	55.44	13,929.2	57.7146	13,929.2	48.3307	13,929.2	45.6994	13,929.2	53.1762	13,929.2	42.8639	13,929.2	53.2475	13,929.2	41.2612	13,929.2	48.1576	13,929.2	39.1584	13,929.2	52.6935	13,929.2	41.9412	13,929.2	54.0524	13,929.2	50.8478	13,929.2	45.15	13,929.2	51.8183	13,929.2	45.7285
14,419.9	88.683	14,419.9	88.0326	14,419.9	87.6415	14,419.9	85.4054	14,419.9	84.8625	14,419.9	82.4897	14,419.9	81.2665	14,419.9	79.502	14,419.9	77.7822	14,419.9	75.4569	14,419.9	72.3655	14,419.9	72.7177	14,419.9	71.4722	14,419.9	69.1624	14,419.9	64.8952	14,419.9	64.2357	14,419.9	60.6635	14,419.9	58.8321	14,419.9	54.096	14,419.9	54.2387	14,419.9	58.9967	14,419.9	47.5763	14,419.9	50.8863	14,419.9	50.3271	14,419.9	46.5963	14,419.9	50.979	14,419.9	43.1166	14,419.9	45.3709	14,419.9	40.6318	14,419.9	51.323	14,419.9	41.1795	14,419.9	52.2476	14,419.9	50.9317	14,419.9	47.9469	14,419.9	51.2105	14,419.9	46.11
14,928.2	88.6777	14,928.2	87.999	14,928.2	87.6623	14,928.2	85.1037	14,928.2	84.6821	14,928.2	82.2209	14,928.2	80.9631	14,928.2	79.0479	14,928.2	77.0816	14,928.2	74.2273	14,928.2	71.257	14,928.2	71.4809	14,928.2	68.8779	14,928.2	68.3668	14,928.2	63.1241	14,928.2	62.1402	14,928.2	57.5035	14,928.2	58.1357	14,928.2	45.6915	14,928.2	53.1937	14,928.2	57.5841	14,928.2	40.3872	14,928.2	47.6306	14,928.2	48.0123	14,928.2	46.4322	14,928.2	49.3927	14,928.2	44.9736	14,928.2	51.8356	14,928.2	40.7852	14,928.2	50.8359	14,928.2	40.3081	14,928.2	52.5542	14,928.2	48.8806	14,928.2	47.6986	14,928.2	50.2259	14,928.2	43.9513
15,455.6	88.5225	15,455.6	87.9192	15,455.6	87.533	15,455.6	85.0384	15,455.6	84.5635	15,455.6	82.1411	15,455.6	81.0297	15,455.6	79.0669	15,455.6	77.0379	15,455.6	74.1135	15,455.6	71.2592	15,455.6	71.0044	15,455.6	67.8025	15,455.6	67.1103	15,455.6	64.4811	15,455.6	60.7139	15,455.6	53.0348	15,455.6	56.463	15,455.6	50.1305	15,455.6	50.7247	15,455.6	57.0422	15,455.6	41.3643	15,455.6	46.6728	15,455.6	48.0928	15,455.6	39.9792	15,455.6	50.4244	15,455.6	43.2657	15,455.6	35.4891	15,455.6	37.3814	15,455.6	46.3032	15,455.6	40.3784	15,455.6	49.2176	15,455.6	44.6065	15,455.6	46.7406	15,455.6	47.7454	15,455.6	43.616
16,000.5	87.8676	16,000.5	87.2567	16,000.5	86.8223	16,000.5	84.057	16,000.5	83.7084	16,000.5	81.2253	16,000.5	80.0081	16,000.5	77.9014	16,000.5	75.5638	16,000.5	72.8831	16,000.5	70.8957	16,000.5	69.1008	16,000.5	65.9327	16,000.5	64.42	16,000.5	61.1998	16,000.5	57.9928	16,000.5	59.4029	16,000.5	54.141	16,000.5	49.348	16,000.5	50.5176	16,000.5	55.0195	16,000.5	42.0465	16,000.5	45.8656	16,000.5	45.9484	16,000.5	34.3595	16,000.5	47.1503	16,000.5	35.7999	16,000.5	49.1648	16,000.5	31.361	16,000.5	43.9073	16,000.5	37.9169	16,000.5	47.8533	16,000.5	42.2146	16,000.5	45.3709	16,000.5	42.2394	16,000.5	41.7855
16,564.5	82.2643	16,564.5	82.3079	16,564.5	82.3813	16,564.5	81.4179	16,564.5	81.7006	16,564.5	80.5715	16,564.5	79.6212	16,564.5	78.7419	16,564.5	77.3662	16,564.5	74.3344	16,564.5	73.1058	16,564.5	69.5933	16,564.5	68.3726	16,564.5	65.4506	16,564.5	62.3192	16,564.5	59.2003	16,564.5	56.5568	16,564.5	55.7588	16,564.5	51.355	16,564.5	52.1701	16,564.5	54.9189	16,564.5	45.2124	16,564.5	51.4829	16,564.5	47.748	16,564.5	36.4919	16,564.5	45.8835	16,564.5	40.1154	16,564.5	43.3378	16,564.5	36.9282	16,564.5	41.7106	16,564.5	36.6635	16,564.5	48.1027	16,564.5	41.7353	16,564.5	47.0484	16,564.5	36.047	16,564.5	44.2632
17,148.9	89.3407	17,148.9	88.6572	17,148.9	88.3677	17,148.9	86.851	17,148.9	86.5155	17,148.9	83.2445	17,148.9	82.4808	17,148.9	79.4142	17,148.9	78.0603	17,148.9	73.5851	17,148.9	71.0341	17,148.9	65.2013	17,148.9	64.9692	17,148.9	60.5188	17,148.9	53.1027	17,148.9	52.3063	17,148.9	51.5862	17,148.9	48.4783	17,148.9	49.6845	17,148.9	47.2471	17,148.9	55.2915	17,148.9	46.5858	17,148.9	50.2015	17,148.9	41.0111	17,148.9	31.9268	17,148.9	46.5141	17,148.9	44.6833	17,148.9	47.6488	17,148.9	38.5229	17,148.9	42.5889	17,148.9	37.3346	17,148.9	38.8726	17,148.9	38.5281	17,148.9	44.253	17,148.9	25.2724	17,148.9	42.9358
17,752.4	88.9932	17,752.4	88.0415	17,752.4	87.6872	17,752.4	85.3673	17,752.4	85.0519	17,752.4	81.0099	17,752.4	80.3198	17,752.4	75.4184	17,752.4	74.6493	17,752.4	67.6451	17,752.4	64.8093	17,752.4	47.008	17,752.4	55.6122	17,752.4	48.776	17,752.4	50.2894	17,752.4	45.195	17,752.4	46.9173	17,752.4	44.8477	17,752.4	50.1539	17,752.4	36.8793	17,752.4	58.8407	17,752.4	46.2153	17,752.4	49.3712	17,752.4	42.6712	17,752.4	45.9971	17,752.4	44.791	17,752.4	46.408	17,752.4	42.9338	17,752.4	32.3982	17,752.4	40.1055	17,752.4	30.4421	17,752.4	42.279	17,752.4	37.0566	17,752.4	43.4302	17,752.4	23.9314	17,752.4	35.9454
18,379.4	88.1269	18,379.4	87.1131	18,379.4	86.7081	18,379.4	84.0651	18,379.4	83.7578	18,379.4	79.1007	18,379.4	78.4802	18,379.4	71.7289	18,379.4	71.9838	18,379.4	61.6985	18,379.4	58.111	18,379.4	56.5911	18,379.4	52.9625	18,379.4	58.0074	18,379.4	55.2232	18,379.4	55.0234	18,379.4	36.5141	18,379.4	50.2218	18,379.4	47.9068	18,379.4	40.8949	18,379.4	59.6451	18,379.4	47.0396	18,379.4	50.0145	18,379.4	40.4399	18,379.4	46.1752	18,379.4	36.8074	18,379.4	47.3307	18,379.4	46.6562	18,379.4	31.3533	18,379.4	36.5564	18,379.4	29.1224	18,379.4	40.7485	18,379.4	38.6745	18,379.4	40.226	18,379.4	35.4074	18,379.4	36.0291
19,026.9	87.1867	19,026.9	86.0063	19,026.9	85.5369	19,026.9	82.7352	19,026.9	82.3506	19,026.9	76.5486	19,026.9	76.1417	19,026.9	66.8864	19,026.9	67.3392	19,026.9	58.2803	19,026.9	45.2281	19,026.9	62.1845	19,026.9	60.7206	19,026.9	60.571	19,026.9	57.3285	19,026.9	57.6614	19,026.9	48.9068	19,026.9	52.6715	19,026.9	43.2822	19,026.9	45.7605	19,026.9	56.5878	19,026.9	48.1905	19,026.9	45.3383	19,026.9	39.2979	19,026.9	42.5307	19,026.9	45.6488	19,026.9	42.2357	19,026.9	31.8147	19,026.9	27.0779	19,026.9	36.9367	19,026.9	36.7259	19,026.9	37.8105	19,026.9	37.6352	19,026.9	43.528	19,026.9	37.732	19,026.9	31.7059
19,697.8	86.1873	19,697.8	84.918	19,697.8	84.3289	19,697.8	81.5305	19,697.8	80.5697	19,697.8	73.7555	19,697.8	72.1301	19,697.8	60.1275	19,697.8	59.2165	19,697.8	62.3449	19,697.8	56.5784	19,697.8	63.4378	19,697.8	63.0594	19,697.8	61.5611	19,697.8	60.617	19,697.8	57.8086	19,697.8	54.2402	19,697.8	52.0699	19,697.8	42.7043	19,697.8	44.8635	19,697.8	50.3144	19,697.8	48.3896	19,697.8	39.7989	19,697.8	38.8166	19,697.8	39.8623	19,697.8	46.717	19,697.8	35.6584	19,697.8	34.7237	19,697.8	23.1373	19,697.8	32.3811	19,697.8	39.5209	19,697.8	35.3157	19,697.8	37.2663	19,697.8	45.4164	19,697.8	36.1339	19,697.8	26.0004
19,999.5	85.8718	19,999.5	84.4902	19,999.5	83.5753	19,999.5	81.0405	19,999.5	80.2596	19,999.5	72.6718	19,999.5	69.9952	19,999.5	57.4046	19,999.5	53.8403	19,999.5	61.696	19,999.5	59.9586	19,999.5	65.3115	19,999.5	63.5003	19,999.5	62.1861	19,999.5	63.0242	19,999.5	55.9223	19,999.5	57.3188	19,999.5	53.2249	19,999.5	50.2465	19,999.5	47.7176	19,999.5	50.096	19,999.5	48.7043	19,999.5	51.3097	19,999.5	48.8972	19,999.5	52.6183	19,999.5	46.1968	19,999.5	44.9464	19,999.5	53.6269	19,999.5	45.9891	19,999.5	49.1423	19,999.5	45.1338	19,999.5	41.8813	19,999.5	45.5179	19,999.5	53.6066	19,999.5	43.2328	19,999.5	41.3997
