"SPL Horizontal"
"On-Axis"		"10°"		"-10°"		"20°"		"-20°"		"30°"		"-30°"		"40°"		"-40°"		"50°"		"-50°"		"60°"		"-60°"		"70°"		"-70°"		"80°"		"-80°"		"90°"		"-90°"		"100°"		"-100°"		"110°"		"-110°"		"120°"		"-120°"		"130°"		"-130°"		"140°"		"-140°"		"150°"		"-150°"		"160°"		"-160°"		"170°"		"-170°"		"180°"
"Frequency [Hz]"	"Sound Pessure Level [dB]   [2.83  V @ 1. m]"	"Frequency [Hz]"	"Sound Pessure Level [dB]   [2.83  V @ 1. m]"	"Frequency [Hz]"	"Sound Pessure Level [dB]   [2.83  V @ 1. m]"	"Frequency [Hz]"	"Sound Pessure Level [dB]   [2.83  V @ 1. m]"	"Frequency [Hz]"	"Sound Pessure Level [dB]   [2.83  V @ 1. m]"	"Frequency [Hz]"	"Sound Pessure Level [dB]   [2.83  V @ 1. m]"	"Frequency [Hz]"	"Sound Pessure Level [dB]   [2.83  V @ 1. m]"	"Frequency [Hz]"	"Sound Pessure Level [dB]   [2.83  V @ 1. m]"	"Frequency [Hz]"	"Sound Pessure Level [dB]   [2.83  V @ 1. m]"	"Frequency [Hz]"	"Sound Pessure Level [dB]   [2.83  V @ 1. m]"	"Frequency [Hz]"	"Sound Pessure Level [dB]   [2.83  V @ 1. m]"	"Frequency [Hz]"	"Sound Pessure Level [dB]   [2.83  V @ 1. m]"	"Frequency [Hz]"	"Sound Pessure Level [dB]   [2.83  V @ 1. m]"	"Frequency [Hz]"	"Sound Pessure Level [dB]   [2.83  V @ 1. m]"	"Frequency [Hz]"	"Sound Pessure Level [dB]   [2.83  V @ 1. m]"	"Frequency [Hz]"	"Sound Pessure Level [dB]   [2.83  V @ 1. m]"	"Frequency [Hz]"	"Sound Pessure Level [dB]   [2.83  V @ 1. m]"	"Frequency [Hz]"	"Sound Pessure Level [dB]   [2.83  V @ 1. m]"	"Frequency [Hz]"	"Sound Pessure Level [dB]   [2.83  V @ 1. m]"	"Frequency [Hz]"	"Sound Pessure Level [dB]   [2.83  V @ 1. m]"	"Frequency [Hz]"	"Sound Pessure Level [dB]   [2.83  V @ 1. m]"	"Frequency [Hz]"	"Sound Pessure Level [dB]   [2.83  V @ 1. m]"	"Frequency [Hz]"	"Sound Pessure Level [dB]   [2.83  V @ 1. m]"	"Frequency [Hz]"	"Sound Pessure Level [dB]   [2.83  V @ 1. m]"	"Frequency [Hz]"	"Sound Pessure Level [dB]   [2.83  V @ 1. m]"	"Frequency [Hz]"	"Sound Pessure Level [dB]   [2.83  V @ 1. m]"	"Frequency [Hz]"	"Sound Pessure Level [dB]   [2.83  V @ 1. m]"	"Frequency [Hz]"	"Sound Pessure Level [dB]   [2.83  V @ 1. m]"	"Frequency [Hz]"	"Sound Pessure Level [dB]   [2.83  V @ 1. m]"	"Frequency [Hz]"	"Sound Pessure Level [dB]   [2.83  V @ 1. m]"	"Frequency [Hz]"	"Sound Pessure Level [dB]   [2.83  V @ 1. m]"	"Frequency [Hz]"	"Sound Pessure Level [dB]   [2.83  V @ 1. m]"	"Frequency [Hz]"	"Sound Pessure Level [dB]   [2.83  V @ 1. m]"	"Frequency [Hz]"	"Sound Pessure Level [dB]   [2.83  V @ 1. m]"	"Frequency [Hz]"	"Sound Pessure Level [dB]   [2.83  V @ 1. m]"	"Frequency [Hz]"	"Sound Pessure Level [dB]   [2.83  V @ 1. m]"
20.5078	51.1933	20.5078	50.9028	20.5078	51.4217	20.5078	50.5546	20.5078	51.5856	20.5078	50.1556	20.5078	51.6837	20.5078	49.7169	20.5078	51.7155	20.5078	49.254	20.5078	51.6822	20.5078	48.7864	20.5078	51.5876	20.5078	48.3371	20.5078	51.4383	20.5078	47.9294	20.5078	51.2427	20.5078	47.5823	20.5078	51.0094	20.5078	47.3065	20.5078	50.744	20.5078	47.1015	20.5078	50.4473	20.5078	46.9599	20.5078	50.1156	20.5078	46.8746	20.5078	49.7439	20.5078	46.8468	20.5078	49.3305	20.5078	46.8883	20.5078	48.8826	20.5078	47.016	20.5078	48.4189	20.5078	47.2424	20.5078	47.9685	20.5078	47.566
21.9727	56.3969	21.9727	56.3733	21.9727	56.3898	21.9727	56.3198	21.9727	56.3512	21.9727	56.2383	21.9727	56.2804	21.9727	56.1314	21.9727	56.1768	21.9727	56.003	21.9727	56.0404	21.9727	55.858	21.9727	55.8733	21.9727	55.7021	21.9727	55.6798	21.9727	55.5414	21.9727	55.4672	21.9727	55.3806	21.9727	55.2445	21.9727	55.2225	21.9727	55.0219	21.9727	55.0673	21.9727	54.8089	21.9727	54.9131	21.9727	54.6138	21.9727	54.7583	21.9727	54.4431	21.9727	54.6039	21.9727	54.3028	21.9727	54.455	21.9727	54.1982	21.9727	54.321	21.9727	54.1343	21.9727	54.2133	21.9727	54.1152	21.9727	54.1423
23.4375	53.9974	23.4375	53.8436	23.4375	54.0967	23.4375	53.6408	23.4375	54.1382	23.4375	53.3969	23.4375	54.1207	23.4375	53.1217	23.4375	54.0452	23.4375	52.8273	23.4375	53.9149	23.4375	52.5267	23.4375	53.7362	23.4375	52.234	23.4375	53.5185	23.4375	51.963	23.4375	53.2742	23.4375	51.7253	23.4375	53.0168	23.4375	51.5286	23.4375	52.7589	23.4375	51.3752	23.4375	52.5102	23.4375	51.2631	23.4375	52.2767	23.4375	51.1879	23.4375	52.0604	23.4375	51.1456	23.4375	51.8621	23.4375	51.1338	23.4375	51.6824	23.4375	51.1521	23.4375	51.5234	23.4375	51.2007	23.4375	51.3882	23.4375	51.2798
24.9023	55.0117	24.9023	54.9018	24.9023	55.0821	24.9023	54.7553	24.9023	55.1105	24.9023	54.5764	24.9023	55.0946	24.9023	54.3705	24.9023	55.0323	24.9023	54.1443	24.9023	54.9221	24.9023	53.9051	24.9023	54.764	24.9023	53.661	24.9023	54.5603	24.9023	53.4195	24.9023	54.3165	24.9023	53.187	24.9023	54.0414	24.9023	52.9682	24.9023	53.7464	24.9023	52.766	24.9023	53.4444	24.9023	52.5823	24.9023	53.1482	24.9023	52.4187	24.9023	52.8699	24.9023	52.2783	24.9023	52.6203	24.9023	52.166	24.9023	52.4086	24.9023	52.0881	24.9023	52.2422	24.9023	52.0518	24.9023	52.1264	24.9023	52.0632
26.3672	53.1254	26.3672	53.1132	26.3672	53.1125	26.3672	53.077	26.3672	53.0749	26.3672	53.0188	26.3672	53.0133	26.3672	52.9425	26.3672	52.9294	26.3672	52.8533	26.3672	52.826	26.3672	52.7573	26.3672	52.7077	26.3672	52.6605	26.3672	52.5816	26.3672	52.5682	26.3672	52.4566	26.3672	52.4834	26.3672	52.3419	26.3672	52.4068	26.3672	52.2452	26.3672	52.3366	26.3672	52.1702	26.3672	52.2705	26.3672	52.1161	26.3672	52.2067	26.3672	52.0785	26.3672	52.146	26.3672	52.0513	26.3672	52.0913	26.3672	52.03	26.3672	52.047	26.3672	52.0132	26.3672	52.017	26.3672	52.0028	26.3672	52.0028
27.832	53.9359	27.832	53.8582	27.832	53.968	27.832	53.7372	27.832	53.9539	27.832	53.5775	27.832	53.8951	27.832	53.3852	27.832	53.7949	27.832	53.168	27.832	53.6586	27.832	52.9347	27.832	53.4934	27.832	52.6939	27.832	53.3072	27.832	52.454	27.832	53.1087	27.832	52.2219	27.832	52.9053	27.832	52.0032	27.832	52.7028	27.832	51.8021	27.832	52.5044	27.832	51.6231	27.832	52.3109	27.832	51.4713	27.832	52.1221	27.832	51.3537	27.832	51.938	27.832	51.2777	27.832	51.7611	27.832	51.2495	27.832	51.5967	27.832	51.2717	27.832	51.4536	27.832	51.342
29.2969	55.1191	29.2969	55.0765	29.2969	55.1363	29.2969	55.0116	29.2969	55.1259	29.2969	54.9276	29.2969	55.0866	29.2969	54.8282	29.2969	55.0179	29.2969	54.7171	29.2969	54.9211	29.2969	54.5978	29.2969	54.7996	29.2969	54.4738	29.2969	54.659	29.2969	54.3483	29.2969	54.5071	29.2969	54.2244	29.2969	54.3528	29.2969	54.1056	29.2969	54.2042	29.2969	53.9955	29.2969	54.0681	29.2969	53.8973	29.2969	53.9486	29.2969	53.813	29.2969	53.8474	29.2969	53.7432	29.2969	53.7644	29.2969	53.6876	29.2969	53.6992	29.2969	53.6463	29.2969	53.6515	29.2969	53.6204	29.2969	53.6222	29.2969	53.6119
30.7617	55.7608	30.7617	55.6723	30.7617	55.8329	30.7617	55.5714	30.7617	55.8849	30.7617	55.4624	30.7617	55.9141	30.7617	55.3491	30.7617	55.9195	30.7617	55.2352	30.7617	55.9023	30.7617	55.1245	30.7617	55.8657	30.7617	55.0209	30.7617	55.8143	30.7617	54.9285	30.7617	55.7533	30.7617	54.8512	30.7617	55.6875	30.7617	54.7924	30.7617	55.6201	30.7617	54.7544	30.7617	55.5525	30.7617	54.7381	30.7617	55.4842	30.7617	54.7426	30.7617	55.4134	30.7617	54.7662	30.7617	55.3383	30.7617	54.8065	30.7617	55.2579	30.7617	54.861	30.7617	55.1733	30.7617	54.9277	30.7617	55.0873	30.7617	55.0042
32.2266	61.1346	32.2266	61.0889	32.2266	61.1405	32.2266	61.0038	32.2266	61.1073	32.2266	60.8812	32.2266	61.0364	32.2266	60.7245	32.2266	60.9299	32.2266	60.5387	32.2266	60.7903	32.2266	60.3297	32.2266	60.6205	32.2266	60.1044	32.2266	60.4243	32.2266	59.8698	32.2266	60.2057	32.2266	59.6329	32.2266	59.9702	32.2266	59.4001	32.2266	59.7237	32.2266	59.1776	32.2266	59.4736	32.2266	58.9706	32.2266	59.2278	32.2266	58.7841	32.2266	58.995	32.2266	58.6226	32.2266	58.7844	32.2266	58.4911	32.2266	58.6055	32.2266	58.3951	32.2266	58.4666	32.2266	58.3405	32.2266	58.3745	32.2266	58.3325
33.6914	66.4992	33.6914	66.469	33.6914	66.5217	33.6914	66.432	33.6914	66.5353	33.6914	66.3891	33.6914	66.5391	33.6914	66.3411	33.6914	66.5325	33.6914	66.289	33.6914	66.5149	33.6914	66.2337	33.6914	66.4867	33.6914	66.1763	33.6914	66.4485	33.6914	66.1183	33.6914	66.4015	33.6914	66.0615	33.6914	66.3477	33.6914	66.0082	33.6914	66.2891	33.6914	65.9607	33.6914	66.228	33.6914	65.9211	33.6914	66.1666	33.6914	65.891	33.6914	66.1072	33.6914	65.8715	33.6914	66.0515	33.6914	65.8626	33.6914	66.0015	33.6914	65.8639	33.6914	65.9581	33.6914	65.8748	33.6914	65.9223	33.6914	65.8944
35.1562	68.2136	35.1562	68.2065	35.1562	68.2116	35.1562	68.1907	35.1562	68.2	35.1562	68.1671	35.1562	68.1788	35.1562	68.1369	35.1562	68.1485	35.1562	68.1011	35.1562	68.1099	35.1562	68.0612	35.1562	68.0646	35.1562	68.0184	35.1562	68.0146	35.1562	67.9742	35.1562	67.9626	35.1562	67.93	35.1562	67.9116	35.1562	67.887	35.1562	67.8642	35.1562	67.8467	35.1562	67.8227	35.1562	67.81	35.1562	67.7879	35.1562	67.7775	35.1562	67.7598	35.1562	67.7499	35.1562	67.7375	35.1562	67.7276	35.1562	67.72	35.1562	67.711	35.1562	67.7072	35.1562	67.7007	35.1562	67.6992	35.1562	67.6968
36.6211	71.239	36.6211	71.2321	36.6211	71.2347	36.6211	71.2145	36.6211	71.2191	36.6211	71.1873	36.6211	71.1926	36.6211	71.1517	36.6211	71.1562	36.6211	71.1093	36.6211	71.1114	36.6211	71.0615	36.6211	71.0603	36.6211	71.0102	36.6211	71.0051	36.6211	70.9569	36.6211	70.9484	36.6211	70.9032	36.6211	70.8924	36.6211	70.8504	36.6211	70.8393	36.6211	70.8	36.6211	70.7904	36.6211	70.7533	36.6211	70.7464	36.6211	70.7114	36.6211	70.7076	36.6211	70.6755	36.6211	70.6744	36.6211	70.6465	36.6211	70.647	36.6211	70.6252	36.6211	70.6263	36.6211	70.6124	36.6211	70.6131	36.6211	70.6084
38.0859	74.2728	38.0859	74.274	38.0859	74.2571	38.0859	74.2612	38.0859	74.2274	38.0859	74.2349	38.0859	74.1847	38.0859	74.1967	38.0859	74.1305	38.0859	74.1482	38.0859	74.0669	38.0859	74.0915	38.0859	73.9964	38.0859	74.0288	38.0859	73.922	38.0859	73.9622	38.0859	73.8465	38.0859	73.894	38.0859	73.773	38.0859	73.826	38.0859	73.704	38.0859	73.76	38.0859	73.6416	38.0859	73.6973	38.0859	73.5873	38.0859	73.6393	38.0859	73.5418	38.0859	73.5872	38.0859	73.5055	38.0859	73.5422	38.0859	73.4788	38.0859	73.5055	38.0859	73.4622	38.0859	73.4783	38.0859	73.4564	38.0859	73.4618
39.5508	76.703	39.5508	76.7109	39.5508	76.6779	39.5508	76.7019	39.5508	76.6361	39.5508	76.6768	39.5508	76.5791	39.5508	76.637	39.5508	76.5091	39.5508	76.5845	39.5508	76.429	39.5508	76.5216	39.5508	76.3425	39.5508	76.4509	39.5508	76.2537	39.5508	76.375	39.5508	76.1664	39.5508	76.2968	39.5508	76.0845	39.5508	76.2185	39.5508	76.0106	39.5508	76.1424	39.5508	75.9467	39.5508	76.0704	39.5508	75.8935	39.5508	76.0039	39.5508	75.8511	39.5508	75.9443	39.5508	75.8191	39.5508	75.8925	39.5508	75.7972	39.5508	75.8499	39.5508	75.7857	39.5508	75.8172	39.5508	75.785	39.5508	75.7955
41.0156	78.6193	41.0156	78.635	41.0156	78.5831	41.0156	78.6302	41.0156	78.5272	41.0156	78.6059	41.0156	78.4535	41.0156	78.5637	41.0156	78.3651	41.0156	78.5055	41.0156	78.2661	41.0156	78.4339	41.0156	78.1609	41.0156	78.3512	41.0156	78.0544	41.0156	78.2605	41.0156	77.9507	41.0156	78.1646	41.0156	77.8533	41.0156	78.0663	41.0156	77.7649	41.0156	77.9686	41.0156	77.6871	41.0156	77.8741	41.0156	77.6207	41.0156	77.7851	41.0156	77.5661	41.0156	77.7038	41.0156	77.5237	41.0156	77.6322	41.0156	77.4942	41.0156	77.5723	41.0156	77.4788	41.0156	77.5258	41.0156	77.4786	41.0156	77.4942
42.4805	80.4313	42.4805	80.4286	42.4805	80.413	42.4805	80.4051	42.4805	80.3734	42.4805	80.3618	42.4805	80.3127	42.4805	80.2996	42.4805	80.2316	42.4805	80.22	42.4805	80.1312	42.4805	80.1247	42.4805	80.0134	42.4805	80.0157	42.4805	79.8805	42.4805	79.8954	42.4805	79.7361	42.4805	79.7667	42.4805	79.5844	42.4805	79.6323	42.4805	79.4309	42.4805	79.4956	42.4805	79.2816	42.4805	79.3601	42.4805	79.1426	42.4805	79.2293	42.4805	79.0199	42.4805	79.1074	42.4805	78.9186	42.4805	78.9985	42.4805	78.8431	42.4805	78.9072	42.4805	78.7964	42.4805	78.8378	42.4805	78.7801	42.4805	78.7944
43.9453	81.2843	43.9453	81.2867	43.9453	81.2638	43.9453	81.2713	43.9453	81.2255	43.9453	81.2388	43.9453	81.1699	43.9453	81.1903	43.9453	81.0979	43.9453	81.1268	43.9453	81.0109	43.9453	81.05	43.9453	80.9107	43.9453	80.9612	43.9453	80.7995	43.9453	80.8623	43.9453	80.6796	43.9453	80.7549	43.9453	80.5542	43.9453	80.641	43.9453	80.4267	43.9453	80.5228	43.9453	80.3012	43.9453	80.4029	43.9453	80.1823	43.9453	80.2846	43.9453	80.0751	43.9453	80.1718	43.9453	79.9846	43.9453	80.069	43.9453	79.9157	43.9453	79.9814	43.9453	79.8724	43.9453	79.9141	43.9453	79.8574	43.9453	79.8717
45.4102	81.3988	45.4102	81.3843	45.4102	81.4052	45.4102	81.362	45.4102	81.4036	45.4102	81.3325	45.4102	81.3939	45.4102	81.2965	45.4102	81.3764	45.4102	81.2548	45.4102	81.3515	45.4102	81.2086	45.4102	81.3194	45.4102	81.1592	45.4102	81.2808	45.4102	81.1079	45.4102	81.2363	45.4102	81.0561	45.4102	81.1868	45.4102	81.0052	45.4102	81.1334	45.4102	80.9565	45.4102	81.0774	45.4102	80.9115	45.4102	81.0207	45.4102	80.8713	45.4102	80.9653	45.4102	80.8371	45.4102	80.9136	45.4102	80.8104	45.4102	80.8679	45.4102	80.7925	45.4102	80.8306	45.4102	80.7847	45.4102	80.8036	45.4102	80.7882
46.875	82.2082	46.875	82.1864	46.875	82.2216	46.875	82.1566	46.875	82.2265	46.875	82.1198	46.875	82.2228	46.875	82.077	46.875	82.211	46.875	82.0299	46.875	82.1918	46.875	81.9803	46.875	82.1661	46.875	81.9301	46.875	82.1352	46.875	81.8815	46.875	82.1006	46.875	81.8364	46.875	82.0638	46.875	81.7963	46.875	82.0263	46.875	81.7629	46.875	81.989	46.875	81.7373	46.875	81.9528	46.875	81.7206	46.875	81.9179	46.875	81.7132	46.875	81.8846	46.875	81.7152	46.875	81.8528	46.875	81.7259	46.875	81.8224	46.875	81.7437	46.875	81.7935	46.875	81.7668
48.3398	82.5615	48.3398	82.5509	48.3398	82.5598	48.3398	82.5284	48.3398	82.546	48.3398	82.4945	48.3398	82.5207	48.3398	82.4503	48.3398	82.4847	48.3398	82.3973	48.3398	82.4393	48.3398	82.3377	48.3398	82.3862	48.3398	82.2738	48.3398	82.3276	48.3398	82.2081	48.3398	82.2664	48.3398	82.1436	48.3398	82.2054	48.3398	82.083	48.3398	82.1473	48.3398	82.0288	48.3398	82.0947	48.3398	81.983	48.3398	82.0489	48.3398	81.947	48.3398	82.0109	48.3398	81.9216	48.3398	81.9802	48.3398	81.9065	48.3398	81.956	48.3398	81.9008	48.3398	81.9368	48.3398	81.9026	48.3398	81.9217	48.3398	81.9101
51.2695	83.2148	51.2695	83.2239	51.2695	83.1891	51.2695	83.2161	51.2695	83.1475	51.2695	83.1915	51.2695	83.0913	51.2695	83.151	51.2695	83.0221	51.2695	83.0957	51.2695	82.9423	51.2695	83.0276	51.2695	82.8543	51.2695	82.949	51.2695	82.7613	51.2695	82.8625	51.2695	82.6666	51.2695	82.7714	51.2695	82.5737	51.2695	82.6788	51.2695	82.4861	51.2695	82.5879	51.2695	82.4066	51.2695	82.5017	51.2695	82.3379	51.2695	82.4228	51.2695	82.2814	51.2695	82.3532	51.2695	82.2379	51.2695	82.2947	51.2695	82.2076	51.2695	82.2483	51.2695	82.1902	51.2695	82.2146	51.2695	82.1856	51.2695	82.1938
52.7344	83.5205	52.7344	83.5309	52.7344	83.4916	52.7344	83.5226	52.7344	83.4451	52.7344	83.496	52.7344	83.3823	52.7344	83.4521	52.7344	83.3051	52.7344	83.3925	52.7344	83.2162	52.7344	83.3192	52.7344	83.1185	52.7344	83.2348	52.7344	83.0155	52.7344	83.1422	52.7344	82.9107	52.7344	83.0446	52.7344	82.8079	52.7344	82.9453	52.7344	82.7108	52.7344	82.8474	52.7344	82.6226	52.7344	82.7538	52.7344	82.546	52.7344	82.6669	52.7344	82.4829	52.7344	82.5889	52.7344	82.4344	52.7344	82.5215	52.7344	82.4013	52.7344	82.466	52.7344	82.3838	52.7344	82.4236	52.7344	82.3819	52.7344	82.3953
54.1992	83.8187	54.1992	83.833	54.1992	83.7843	54.1992	83.8269	54.1992	83.7303	54.1992	83.8009	54.1992	83.6582	54.1992	83.7559	54.1992	83.5701	54.1992	83.6937	54.1992	83.4685	54.1992	83.6162	54.1992	83.3566	54.1992	83.5262	54.1992	83.238	54.1992	83.4265	54.1992	83.1166	54.1992	83.3204	54.1992	82.9969	54.1992	83.2113	54.1992	82.8834	54.1992	83.1022	54.1992	82.7803	54.1992	82.9964	54.1992	82.6913	54.1992	82.8966	54.1992	82.6197	54.1992	82.805	54.1992	82.5672	54.1992	82.7236	54.1992	82.535	54.1992	82.654	54.1992	82.523	54.1992	82.5975	54.1992	82.5304	54.1992	82.5558
55.6641	84.1555	55.6641	84.1596	55.6641	84.1321	55.6641	84.1444	55.6641	84.0899	55.6641	84.1105	55.6641	84.0299	55.6641	84.059	55.6641	83.9536	55.6641	83.9915	55.6641	83.8631	55.6641	83.9102	55.6641	83.7606	55.6641	83.8174	55.6641	83.6493	55.6641	83.7159	55.6641	83.5327	55.6641	83.6084	55.6641	83.4144	55.6641	83.498	55.6641	83.2985	55.6641	83.3877	55.6641	83.189	55.6641	83.2807	55.6641	83.0899	55.6641	83.1799	55.6641	83.0047	55.6641	83.0883	55.6641	82.9363	55.6641	83.0085	55.6641	82.887	55.6641	82.9429	55.6641	82.858	55.6641	82.8935	55.6641	82.8498	55.6641	82.8619
58.5938	84.4335	58.5938	84.4238	58.5938	84.4274	58.5938	84.3984	58.5938	84.4052	58.5938	84.3582	58.5938	84.3676	58.5938	84.3044	58.5938	84.3155	58.5938	84.2386	58.5938	84.2504	58.5938	84.1629	58.5938	84.1742	58.5938	84.0797	58.5938	84.0895	58.5938	83.9917	58.5938	83.9996	58.5938	83.9018	58.5938	83.9077	58.5938	83.8131	58.5938	83.8172	58.5938	83.7284	58.5938	83.7315	58.5938	83.6504	58.5938	83.6534	58.5938	83.5817	58.5938	83.585	58.5938	83.5242	58.5938	83.5278	58.5938	83.479	58.5938	83.4827	58.5938	83.4471	58.5938	83.4501	58.5938	83.4284	58.5938	83.4301	58.5938	83.4228
60.0586	84.6113	60.0586	84.6003	60.0586	84.6056	60.0586	84.573	60.0586	84.5833	60.0586	84.5303	60.0586	84.5449	60.0586	84.4735	60.0586	84.4916	60.0586	84.4045	60.0586	84.4251	60.0586	84.3257	60.0586	84.3477	60.0586	84.2398	60.0586	84.262	60.0586	84.1498	60.0586	84.1714	60.0586	84.0591	60.0586	84.0792	60.0586	83.9708	60.0586	83.989	60.0586	83.8878	60.0586	83.904	60.0586	83.8127	60.0586	83.8269	60.0586	83.7477	60.0586	83.7601	60.0586	83.6943	60.0586	83.7048	60.0586	83.6533	60.0586	83.6618	60.0586	83.6249	60.0586	83.6309	60.0586	83.6088	60.0586	83.6119	60.0586	83.6046
62.9883	84.9677	62.9883	84.9604	62.9883	84.9582	62.9883	84.9366	62.9883	84.9321	62.9883	84.8972	62.9883	84.8901	62.9883	84.8437	62.9883	84.8337	62.9883	84.778	62.9883	84.7647	62.9883	84.7025	62.9883	84.6854	62.9883	84.6198	62.9883	84.5988	62.9883	84.5328	62.9883	84.508	62.9883	84.4446	62.9883	84.4165	62.9883	84.358	62.9883	84.3276	62.9883	84.2757	62.9883	84.2446	62.9883	84.2002	62.9883	84.1703	62.9883	84.1336	62.9883	84.1066	62.9883	84.0774	62.9883	84.0549	62.9883	84.0328	62.9883	84.0158	62.9883	84.0004	62.9883	83.9891	62.9883	83.98	62.9883	83.9745	62.9883	83.9715
64.4531	85.098	64.4531	85.0902	64.4531	85.0886	64.4531	85.0655	64.4531	85.062	64.4531	85.0248	64.4531	85.0191	64.4531	84.9699	64.4531	84.9614	64.4531	84.9027	64.4531	84.8907	64.4531	84.826	64.4531	84.8096	64.4531	84.7425	64.4531	84.7211	64.4531	84.6553	64.4531	84.6284	64.4531	84.5675	64.4531	84.5352	64.4531	84.4818	64.4531	84.4451	64.4531	84.4009	64.4531	84.3612	64.4531	84.3269	64.4531	84.2865	64.4531	84.2616	64.4531	84.2232	64.4531	84.2064	64.4531	84.1724	64.4531	84.162	64.4531	84.1348	64.4531	84.129	64.4531	84.11	64.4531	84.1072	64.4531	84.0975	64.4531	84.0967
67.3828	85.3545	67.3828	85.3461	67.3828	85.3454	67.3828	85.3212	67.3828	85.3188	67.3828	85.2813	67.3828	85.2753	67.3828	85.2282	67.3828	85.2159	67.3828	85.1644	67.3828	85.1426	67.3828	85.0927	67.3828	85.0579	67.3828	85.0159	67.3828	84.9649	67.3828	84.9365	67.3828	84.8669	67.3828	84.8571	67.3828	84.7677	67.3828	84.7794	67.3828	84.6711	67.3828	84.7049	67.3828	84.5809	67.3828	84.6344	67.3828	84.5005	67.3828	84.5683	67.3828	84.4328	67.3828	84.5071	67.3828	84.3801	67.3828	84.4516	67.3828	84.3439	67.3828	84.4032	67.3828	84.3249	67.3828	84.3641	67.3828	84.3227	67.3828	84.3364
68.8477	85.466	68.8477	85.449	68.8477	85.4659	68.8477	85.416	68.8477	85.4482	68.8477	85.369	68.8477	85.4131	68.8477	85.3104	68.8477	85.3618	68.8477	85.2431	68.8477	85.296	68.8477	85.1703	68.8477	85.2179	68.8477	85.0951	68.8477	85.1304	68.8477	85.0203	68.8477	85.0366	68.8477	84.948	68.8477	84.9398	68.8477	84.8797	68.8477	84.8434	68.8477	84.8158	68.8477	84.7512	68.8477	84.7561	68.8477	84.6665	68.8477	84.6998	68.8477	84.5929	68.8477	84.646	68.8477	84.5337	68.8477	84.5948	68.8477	84.4914	68.8477	84.5477	68.8477	84.4681	68.8477	84.5074	68.8477	84.4641	68.8477	84.4782
71.7773	85.5812	71.7773	85.5522	71.7773	85.5931	71.7773	85.5067	71.7773	85.588	71.7773	85.4464	71.7773	85.567	71.7773	85.3737	71.7773	85.5318	71.7773	85.2923	71.7773	85.4846	71.7773	85.2062	71.7773	85.4281	71.7773	85.12	71.7773	85.3655	71.7773	85.0384	71.7773	85.2995	71.7773	84.9654	71.7773	85.233	71.7773	84.9045	71.7773	85.1683	71.7773	84.8575	71.7773	85.1071	71.7773	84.8248	71.7773	85.0506	71.7773	84.8052	71.7773	84.9996	71.7773	84.7967	71.7773	84.9544	71.7773	84.7968	71.7773	84.915	71.7773	84.8034	71.7773	84.8816	71.7773	84.8152	71.7773	84.854	71.7773	84.832
74.707	85.6882	74.707	85.6584	74.707	85.6991	74.707	85.6101	74.707	85.6915	74.707	85.5445	74.707	85.6669	74.707	85.4641	74.707	85.6271	74.707	85.3724	74.707	85.575	74.707	85.2735	74.707	85.5134	74.707	85.1726	74.707	85.4459	74.707	85.0749	74.707	85.3757	74.707	84.9857	74.707	85.3059	74.707	84.9097	74.707	85.2392	74.707	84.8503	74.707	85.1774	74.707	84.8093	74.707	85.1213	74.707	84.7868	74.707	85.0711	74.707	84.7815	74.707	85.0259	74.707	84.7908	74.707	84.9845	74.707	84.8113	74.707	84.9456	74.707	84.8396	74.707	84.9083	74.707	84.8726
77.6367	85.6788	77.6367	85.6611	77.6367	85.6752	77.6367	85.622	77.6367	85.651	77.6367	85.5629	77.6367	85.6079	77.6367	85.4858	77.6367	85.5484	77.6367	85.394	77.6367	85.4757	77.6367	85.2915	77.6367	85.3935	77.6367	85.1832	77.6367	85.306	77.6367	85.0745	77.6367	85.2173	77.6367	84.9709	77.6367	85.1317	77.6367	84.8778	77.6367	85.0525	77.6367	84.7994	77.6367	84.982	77.6367	84.7388	77.6367	84.9215	77.6367	84.6971	77.6367	84.8708	77.6367	84.6738	77.6367	84.8288	77.6367	84.6667	77.6367	84.7933	77.6367	84.6727	77.6367	84.7624	77.6367	84.6881	77.6367	84.7346	77.6367	84.7095
79.1016	85.7035	79.1016	85.6912	79.1016	85.6935	79.1016	85.6566	79.1016	85.662	79.1016	85.6011	79.1016	85.6107	79.1016	85.5268	79.1016	85.5423	79.1016	85.4369	79.1016	85.46	79.1016	85.3357	79.1016	85.3679	79.1016	85.228	79.1016	85.2704	79.1016	85.1191	79.1016	85.1723	79.1016	85.0146	79.1016	85.078	79.1016	84.9194	79.1016	84.9916	79.1016	84.8375	79.1016	84.9161	79.1016	84.7717	79.1016	84.853	79.1016	84.723	79.1016	84.8027	79.1016	84.6911	79.1016	84.7638	79.1016	84.6738	79.1016	84.7344	79.1016	84.6685	79.1016	84.712	79.1016	84.6718	79.1016	84.6946	79.1016	84.681
82.0312	85.7663	82.0312	85.7552	82.0312	85.7532	82.0312	85.7203	82.0312	85.7162	82.0312	85.6634	82.0312	85.6567	82.0312	85.5871	82.0312	85.5774	82.0312	85.4949	82.0312	85.4817	82.0312	85.3912	82.0312	85.3739	82.0312	85.2807	82.0312	85.2591	82.0312	85.1684	82.0312	85.1427	82.0312	85.0596	82.0312	85.0303	82.0312	84.9585	82.0312	84.9268	82.0312	84.869	82.0312	84.8363	82.0312	84.7934	82.0312	84.7615	82.0312	84.7325	82.0312	84.7033	82.0312	84.6861	82.0312	84.6612	82.0312	84.6526	82.0312	84.6332	82.0312	84.6299	82.0312	84.6169	82.0312	84.6161	82.0312	84.6096	82.0312	84.6095
84.9609	85.7026	84.9609	85.6886	84.9609	85.6934	84.9609	85.6518	84.9609	85.6615	84.9609	85.5938	84.9609	85.608	84.9609	85.5169	84.9609	85.5352	84.9609	85.4244	84.9609	85.4461	84.9609	85.3206	84.9609	85.3444	84.9609	85.2102	84.9609	85.2346	84.9609	85.0982	84.9609	85.1214	84.9609	84.9897	84.9609	85.0096	84.9609	84.889	84.9609	84.9038	84.9609	84.7996	84.9609	84.808	84.9609	84.7236	84.9609	84.7251	84.9609	84.6617	84.9609	84.657	84.9609	84.6134	84.9609	84.6042	84.9609	84.5773	84.9609	84.5664	84.9609	84.5518	84.9609	84.5422	84.9609	84.5356	84.9609	84.53	84.9609	84.5282
87.8906	85.4705	87.8906	85.4602	87.8906	85.4571	87.8906	85.4266	87.8906	85.4208	87.8906	85.3712	87.8906	85.3636	87.8906	85.2967	87.8906	85.2884	87.8906	85.2069	87.8906	85.1989	87.8906	85.1065	87.8906	85.0999	87.8906	85.0009	87.8906	84.9963	87.8906	84.8958	87.8906	84.8935	87.8906	84.7967	87.8906	84.7963	87.8906	84.708	87.8906	84.7088	87.8906	84.6331	87.8906	84.6342	87.8906	84.5733	87.8906	84.5742	87.8906	84.5287	87.8906	84.5288	87.8906	84.4976	87.8906	84.497	87.8906	84.4775	87.8906	84.4765	87.8906	84.4656	87.8906	84.4646	87.8906	84.4594	87.8906	84.4588	87.8906	84.4573
90.8203	85.3512	90.8203	85.3368	90.8203	85.3398	90.8203	85.2975	90.8203	85.3033	90.8203	85.2351	90.8203	85.2432	90.8203	85.1528	90.8203	85.1622	90.8203	85.055	90.8203	85.0644	90.8203	84.9467	90.8203	84.9546	90.8203	84.8339	90.8203	84.8386	90.8203	84.7228	90.8203	84.7227	90.8203	84.6191	90.8203	84.613	90.8203	84.5276	90.8203	84.5151	90.8203	84.4517	90.8203	84.4333	90.8203	84.3926	90.8203	84.3696	90.8203	84.3496	90.8203	84.3244	90.8203	84.3204	90.8203	84.2957	90.8203	84.3018	90.8203	84.2802	90.8203	84.2901	90.8203	84.2742	90.8203	84.2826	90.8203	84.2742	90.8203	84.2774
95.2148	85.0491	95.2148	85.0409	95.2148	85.0323	95.2148	85.0081	95.2148	84.9913	95.2148	84.9525	95.2148	84.928	95.2148	84.877	95.2148	84.8456	95.2148	84.7861	95.2148	84.7485	95.2148	84.6849	95.2148	84.6416	95.2148	84.5794	95.2148	84.5309	95.2148	84.476	95.2148	84.4225	95.2148	84.3804	95.2148	84.3221	95.2148	84.2978	95.2148	84.2351	95.2148	84.2311	95.2148	84.1648	95.2148	84.1814	95.2148	84.1132	95.2148	84.1473	95.2148	84.0797	95.2148	84.1254	95.2148	84.0623	95.2148	84.1113	95.2148	84.0575	95.2148	84.101	95.2148	84.0614	95.2148	84.0912	95.2148	84.0702	95.2148	84.0808
98.1445	84.8666	98.1445	84.8618	98.1445	84.841	98.1445	84.8276	98.1445	84.7857	98.1445	84.7666	98.1445	84.703	98.1445	84.683	98.1445	84.5972	98.1445	84.5818	98.1445	84.4739	98.1445	84.4694	98.1445	84.3404	98.1445	84.3524	98.1445	84.2044	98.1445	84.2382	98.1445	84.0743	98.1445	84.1332	98.1445	83.958	98.1445	84.0432	98.1445	83.862	98.1445	83.9717	98.1445	83.7909	98.1445	83.9198	98.1445	83.7467	98.1445	83.8862	98.1445	83.728	98.1445	83.8668	98.1445	83.7305	98.1445	83.8562	98.1445	83.748	98.1445	83.8483	98.1445	83.7732	98.1445	83.8379	98.1445	83.7995	98.1445	83.8218
101.074	84.7753	101.074	84.7603	101.074	84.7579	101.074	84.7145	101.074	84.7086	101.074	84.6406	101.074	84.6293	101.074	84.5426	101.074	84.5238	101.074	84.4258	101.074	84.3974	101.074	84.2962	101.074	84.2566	101.074	84.1606	101.074	84.1085	101.074	84.0259	101.074	83.9607	101.074	83.899	101.074	83.8203	101.074	83.7855	101.074	83.6942	101.074	83.6898	101.074	83.5878	101.074	83.6136	101.074	83.5053	101.074	83.5567	101.074	83.4483	101.074	83.5165	101.074	83.4158	101.074	83.4887	101.074	83.4041	101.074	83.4685	101.074	83.4075	101.074	83.4516	101.074	83.4196	101.074	83.4353
105.469	84.6847	105.469	84.6542	105.469	84.688	105.469	84.5967	105.469	84.6651	105.469	84.5136	105.469	84.6179	105.469	84.4077	105.469	84.5496	105.469	84.2836	105.469	84.4639	105.469	84.1472	105.469	84.3659	105.469	84.0058	105.469	84.2608	105.469	83.8677	105.469	84.1545	105.469	83.7415	105.469	84.0521	105.469	83.6348	105.469	83.958	105.469	83.5527	105.469	83.8746	105.469	83.4974	105.469	83.8026	105.469	83.4675	105.469	83.7411	105.469	83.4587	105.469	83.688	105.469	83.4652	105.469	83.6417	105.469	83.4818	105.469	83.6007	105.469	83.5049	105.469	83.5645	105.469	83.5326
108.398	84.772	108.398	84.7667	108.398	84.7443	108.398	84.7288	108.398	84.6844	108.398	84.66	108.398	84.5945	108.398	84.5636	108.398	84.4782	108.398	84.4438	108.398	84.3403	108.398	84.3062	108.398	84.187	108.398	84.1573	108.398	84.0264	108.398	84.0043	108.398	83.8675	108.398	83.8549	108.398	83.7203	108.398	83.7167	108.398	83.5939	108.398	83.5967	108.398	83.4952	108.398	83.5001	108.398	83.427	108.398	83.4298	108.398	83.3874	108.398	83.3855	108.398	83.3703	108.398	83.3638	108.398	83.3671	108.398	83.3584	108.398	83.3692	108.398	83.3619	108.398	83.3703	108.398	83.3675
112.793	84.7086	112.793	84.6916	112.793	84.6913	112.793	84.6412	112.793	84.6403	112.793	84.5601	112.793	84.5583	112.793	84.4526	112.793	84.4491	112.793	84.3245	112.793	84.3183	112.793	84.1831	112.793	84.1724	112.793	84.0365	112.793	84.0188	112.793	83.8933	112.793	83.8645	112.793	83.7609	112.793	83.7165	112.793	83.6451	112.793	83.5809	112.793	83.5487	112.793	83.4626	112.793	83.4714	112.793	83.3652	112.793	83.4105	112.793	83.2909	112.793	83.3619	112.793	83.2402	112.793	83.3212	112.793	83.2118	112.793	83.2858	112.793	83.2029	112.793	83.2544	112.793	83.2098	112.793	83.2282
117.188	84.4621	117.188	84.4398	117.188	84.4506	117.188	84.3842	117.188	84.405	117.188	84.2971	117.188	84.3263	117.188	84.1809	117.188	84.2167	117.188	84.0393	117.188	84.0802	117.188	83.8779	117.188	83.923	117.188	83.7041	117.188	83.7539	117.188	83.527	117.188	83.5833	117.188	83.3574	117.188	83.4226	117.188	83.2064	117.188	83.2824	117.188	83.0839	117.188	83.1702	117.188	82.9962	117.188	83.0892	117.188	82.9446	117.188	83.0378	117.188	82.9247	117.188	83.0101	117.188	82.9279	117.188	82.998	117.188	82.9437	117.188	82.993	117.188	82.9626	117.188	82.9879	117.188	82.9782
120.117	84.4499	120.117	84.4285	120.117	84.4381	120.117	84.3761	120.117	84.3917	120.117	84.2952	120.117	84.31	120.117	84.1893	120.117	84.1932	120.117	84.0625	120.117	84.0433	120.117	83.9196	120.117	83.8643	120.117	83.7661	120.117	83.6634	120.117	83.6081	120.117	83.4504	120.117	83.4518	120.117	83.2385	120.117	83.3033	120.117	83.0422	120.117	83.1686	120.117	82.8759	120.117	83.0526	120.117	82.7508	120.117	82.9587	120.117	82.6724	120.117	82.8877	120.117	82.6388	120.117	82.837	120.117	82.6414	120.117	82.8002	120.117	82.667	120.117	82.7694	120.117	82.7024	120.117	82.7377
124.512	84.3244	124.512	84.3033	124.512	84.3123	124.512	84.2503	124.512	84.2673	124.512	84.1683	124.512	84.1908	124.512	84.0619	124.512	84.0856	124.512	83.937	124.512	83.9559	124.512	83.8013	124.512	83.8069	124.512	83.6627	124.512	83.6455	124.512	83.5292	124.512	83.4794	124.512	83.4074	124.512	83.3171	124.512	83.3016	124.512	83.1671	124.512	83.2132	124.512	83.0371	124.512	83.1408	124.512	82.9333	124.512	83.0814	124.512	82.8592	124.512	83.031	124.512	82.8157	124.512	82.9861	124.512	82.8003	124.512	82.944	124.512	82.8077	124.512	82.9035	124.512	82.8315	124.512	82.865
128.906	84.1216	128.906	84.091	128.906	84.1134	128.906	84.0223	128.906	84.068	128.906	83.9185	128.906	83.9892	128.906	83.7852	128.906	83.8827	128.906	83.6305	128.906	83.7555	128.906	83.4648	128.906	83.6159	128.906	83.3002	128.906	83.4727	128.906	83.1497	128.906	83.3342	128.906	83.0247	128.906	83.2075	128.906	82.9335	128.906	83.0982	128.906	82.8786	128.906	83.0095	128.906	82.8565	128.906	82.9425	128.906	82.8581	128.906	82.8965	128.906	82.8721	128.906	82.8697	128.906	82.8872	128.906	82.8594	128.906	82.8958	128.906	82.8619	128.906	82.8947	128.906	82.8725	128.906	82.8854
133.301	84.0565	133.301	84.0379	133.301	84.034	133.301	83.9784	133.301	83.9722	133.301	83.8802	133.301	83.8747	133.301	83.7471	133.301	83.7479	133.301	83.5848	133.301	83.6	133.301	83.4013	133.301	83.4413	133.301	83.2063	133.301	83.2833	133.301	83.012	133.301	83.1374	133.301	82.8322	133.301	83.0139	133.301	82.6807	133.301	82.92	133.301	82.5696	133.301	82.8584	133.301	82.5062	133.301	82.8263	133.301	82.4908	133.301	82.8166	133.301	82.5163	133.301	82.8186	133.301	82.5698	133.301	82.8215	133.301	82.6361	133.301	82.8157	133.301	82.7017	133.301	82.7949	133.301	82.7565
139.16	83.8295	139.16	83.8178	139.16	83.7997	139.16	83.7658	139.16	83.7287	139.16	83.6767	139.16	83.6184	139.16	83.5549	139.16	83.4728	139.16	83.4068	139.16	83.2983	139.16	83.2402	139.16	83.1032	139.16	83.0641	139.16	82.8984	139.16	82.888	139.16	82.6962	139.16	82.7208	139.16	82.5094	139.16	82.5703	139.16	82.3503	139.16	82.4425	139.16	82.228	139.16	82.3406	139.16	82.1468	139.16	82.2659	139.16	82.1052	139.16	82.2166	139.16	82.0958	139.16	82.1887	139.16	82.1074	139.16	82.1753	139.16	82.1279	139.16	82.1686	139.16	82.1475	139.16	82.161
143.555	83.5372	143.555	83.5118	143.555	83.5233	143.555	83.4485	143.555	83.4703	143.555	83.3503	143.555	83.3796	143.555	83.2222	143.555	83.2541	143.555	83.0711	143.555	83.0983	143.555	82.9061	143.555	82.9183	143.555	82.7376	143.555	82.7223	143.555	82.5767	143.555	82.5201	143.555	82.4329	143.555	82.3229	143.555	82.3126	143.555	82.1427	143.555	82.2183	143.555	81.9903	143.555	82.1477	143.555	81.8749	143.555	82.0956	143.555	81.8013	143.555	82.0552	143.555	81.7692	143.555	82.0196	143.555	81.7729	143.555	81.9832	143.555	81.8028	143.555	81.9423	143.555	81.8472	143.555	81.896
147.949	83.2104	147.949	83.1648	147.949	83.2143	147.949	83.079	147.949	83.1771	147.949	82.9557	147.949	83.1009	147.949	82.7997	147.949	82.9903	147.949	82.6176	147.949	82.8518	147.949	82.4184	147.949	82.694	147.949	82.2134	147.949	82.5275	147.949	82.0161	147.949	82.3635	147.949	81.841	147.949	82.2125	147.949	81.7013	147.949	82.0832	147.949	81.6063	147.949	81.9806	147.949	81.5586	147.949	81.9058	147.949	81.5533	147.949	81.8556	147.949	81.5793	147.949	81.8243	147.949	81.6227	147.949	81.8045	147.949	81.6707	147.949	81.7892	147.949	81.7138	147.949	81.7718	147.949	81.7477
153.809	83.1464	153.809	83.1243	153.809	83.1204	153.809	83.0556	153.809	83.0471	153.809	82.9443	153.809	82.9283	153.809	82.7977	153.809	82.767	153.809	82.626	153.809	82.5674	153.809	82.4417	153.809	82.3361	153.809	82.2579	153.809	82.0826	153.809	82.0863	153.809	81.8204	153.809	81.935	153.809	81.5666	153.809	81.8074	153.809	81.3403	153.809	81.7021	153.809	81.1596	153.809	81.6152	153.809	81.0379	153.809	81.5417	153.809	80.9803	153.809	81.4779	153.809	80.9813	153.809	81.4206	153.809	81.0265	153.809	81.3661	153.809	81.0967	153.809	81.3096	153.809	81.1739	153.809	81.2462
159.668	83.2987	159.668	83.2543	159.668	83.2872	159.668	83.1558	159.668	83.2208	159.668	83.0079	159.668	83.1032	159.668	82.8178	159.668	82.9407	159.668	82.596	159.668	82.7417	159.668	82.3559	159.668	82.517	159.668	82.1143	159.668	82.2789	159.668	81.89	159.668	82.0414	159.668	81.7023	159.668	81.8182	159.668	81.5663	159.668	81.6225	159.668	81.4886	159.668	81.4648	159.668	81.4641	159.668	81.3523	159.668	81.4771	159.668	81.2881	159.668	81.5063	159.668	81.2701	159.668	81.5308	159.668	81.2918	159.668	81.5355	159.668	81.3418	159.668	81.5138	159.668	81.4056	159.668	81.4675
165.527	83.5026	165.527	83.4514	165.527	83.4932	165.527	83.3435	165.527	83.4227	165.527	83.1847	165.527	83.2943	165.527	82.983	165.527	83.1152	165.527	82.7473	165.527	82.8968	165.527	82.4884	165.527	82.6541	165.527	82.2192	165.527	82.4046	165.527	81.9554	165.527	82.1669	165.527	81.7151	165.527	81.9586	165.527	81.5178	165.527	81.7934	165.527	81.3802	165.527	81.6785	165.527	81.3113	165.527	81.6128	165.527	81.308	165.527	81.5879	165.527	81.3548	165.527	81.5906	165.527	81.4285	165.527	81.6062	165.527	81.5056	165.527	81.6213	165.527	81.5686	165.527	81.6248	165.527	81.6087
171.387	83.9663	171.387	83.9495	171.387	83.938	171.387	83.8888	171.387	83.8641	171.387	83.7865	171.387	83.7449	171.387	83.6457	171.387	83.5817	171.387	83.4718	171.387	83.3777	171.387	83.2716	171.387	83.1379	171.387	83.0537	171.387	82.8701	171.387	82.8273	171.387	82.5852	171.387	82.6021	171.387	82.2979	171.387	82.3874	171.387	82.026	171.387	82.1917	171.387	81.7888	171.387	82.0225	171.387	81.6037	171.387	81.8853	171.387	81.4818	171.387	81.7815	171.387	81.424	171.387	81.7069	171.387	81.4204	171.387	81.652	171.387	81.4534	171.387	81.605	171.387	81.5037	171.387	81.5564
177.246	84.4212	177.246	84.3733	177.246	84.4084	177.246	84.2659	177.246	84.3369	177.246	84.1031	177.246	84.212	177.246	83.8927	177.246	84.0425	177.246	83.646	177.246	83.8409	177.246	83.3786	177.246	83.6229	177.246	83.1101	177.246	83.4061	177.246	82.8628	177.246	83.2085	177.246	82.6581	177.246	83.0446	177.246	82.5124	177.246	82.9235	177.246	82.4327	177.246	82.8457	177.246	82.4142	177.246	82.8043	177.246	82.4425	177.246	82.7868	177.246	82.4986	177.246	82.7801	177.246	82.5644	177.246	82.7742	177.246	82.6266	177.246	82.7632	177.246	82.6779	177.246	82.7446	177.246	82.7168
183.105	84.704	183.105	84.6769	183.105	84.6751	183.105	84.594	183.105	84.5913	183.105	84.4574	183.105	84.4562	183.105	84.2716	183.105	84.2754	183.105	84.0439	183.105	84.0576	183.105	83.7854	183.105	83.8147	183.105	83.5116	183.105	83.5613	183.105	83.2416	183.105	83.3147	183.105	82.9972	183.105	83.0934	183.105	82.7989	183.105	82.9153	183.105	82.6621	183.105	82.7943	183.105	82.5931	183.105	82.7364	183.105	82.5877	183.105	82.736	183.105	82.6322	183.105	82.7768	183.105	82.7069	183.105	82.8352	183.105	82.7901	183.105	82.8872	183.105	82.8615	183.105	82.914	183.105	82.9056
188.965	84.7736	188.965	84.7233	188.965	84.7738	188.965	84.6273	188.965	84.7205	188.965	84.4902	188.965	84.6119	188.965	84.3171	188.965	84.4485	188.965	84.1141	188.965	84.2353	188.965	83.8888	188.965	83.9823	188.965	83.6512	188.965	83.7055	188.965	83.4142	188.965	83.427	188.965	83.1936	188.965	83.1726	188.965	83.0066	188.965	82.9668	188.965	82.8689	188.965	82.827	188.965	82.7896	188.965	82.7576	188.965	82.7674	188.965	82.7489	188.965	82.7897	188.965	82.7818	188.965	82.8364	188.965	82.8339	188.965	82.8866	188.965	82.8858	188.965	82.9233	188.965	82.9229	188.965	82.9364
196.289	85.3948	196.289	85.3682	196.289	85.3586	196.289	85.2775	196.289	85.2627	196.289	85.1249	196.289	85.1102	196.289	84.9178	196.289	84.9028	196.289	84.6691	196.289	84.6418	196.289	84.3973	196.289	84.3298	196.289	84.1242	196.289	83.9736	196.289	83.8711	196.289	83.586	196.289	83.6531	196.289	83.1877	196.289	83.4751	196.289	82.8068	196.289	83.3316	196.289	82.4781	196.289	83.2117	196.289	82.2372	196.289	83.1055	196.289	82.1101	196.289	83.008	196.289	82.101	196.289	82.917	196.289	82.1873	196.289	82.8284	196.289	82.328	196.289	82.7331	196.289	82.4814	196.289	82.6193
203.613	85.5132	203.613	85.4288	203.613	85.5235	203.613	85.2754	203.613	85.4593	203.613	85.0616	203.613	85.3257	203.613	84.7975	203.613	85.1321	203.613	84.493	203.613	84.8914	203.613	84.1576	203.613	84.6182	203.613	83.8025	203.613	84.3286	203.613	83.4445	203.613	84.0397	203.613	83.1106	203.613	83.7697	203.613	82.8373	203.613	83.5366	203.613	82.6614	203.613	83.354	203.613	82.6028	203.613	83.2276	203.613	82.6511	203.613	83.1538	203.613	82.7678	203.613	83.1223	203.613	82.9049	203.613	83.1198	203.613	83.0232	203.613	83.1321	203.613	83.1022	203.613	83.144	203.613	83.1392
210.938	85.1269	210.938	85.0726	210.938	85.1233	210.938	84.9608	210.938	85.0636	210.938	84.7948	210.938	84.9517	210.938	84.5816	210.938	84.7938	210.938	84.3327	210.938	84.5969	210.938	84.0636	210.938	84.369	210.938	83.7924	210.938	84.1173	210.938	83.5364	210.938	83.8488	210.938	83.3096	210.938	83.5722	210.938	83.1203	210.938	83.3006	210.938	82.972	210.938	83.0527	210.938	82.8651	210.938	82.8502	210.938	82.7983	210.938	82.7113	210.938	82.7672	210.938	82.6425	210.938	82.7623	210.938	82.6348	210.938	82.7682	210.938	82.6668	210.938	82.768	210.938	82.7123	210.938	82.7498
218.262	84.8947	218.262	84.8325	218.262	84.8998	218.262	84.713	218.262	84.8475	218.262	84.5358	218.262	84.7387	218.262	84.3016	218.262	84.5765	218.262	84.0136	218.262	84.3679	218.262	83.6807	218.262	84.1243	218.262	83.3194	218.262	83.8605	218.262	82.9553	218.262	83.593	218.262	82.6222	218.262	83.3381	218.262	82.3571	218.262	83.1095	218.262	82.1887	218.262	82.9172	218.262	82.1256	218.262	82.7667	218.262	82.151	218.262	82.6589	218.262	82.2311	218.262	82.5909	218.262	82.3291	218.262	82.5552	218.262	82.4173	218.262	82.5406	218.262	82.4808	218.262	82.5329	218.262	82.5171
225.586	84.6335	225.586	84.6038	225.586	84.6047	225.586	84.5147	225.586	84.5204	225.586	84.3688	225.586	84.3859	225.586	84.1714	225.586	84.2082	225.586	83.9314	225.586	83.996	225.586	83.6603	225.586	83.7604	225.586	83.3707	225.586	83.5143	225.586	83.075	225.586	83.2721	225.586	82.7843	225.586	83.0485	225.586	82.5098	225.586	82.857	225.586	82.2657	225.586	82.708	225.586	82.0717	225.586	82.6065	225.586	81.9497	225.586	82.5492	225.586	81.9132	225.586	82.5229	225.586	81.9587	225.586	82.5065	225.586	82.0635	225.586	82.477	225.586	82.1945	225.586	82.4167	225.586	82.3197
232.91	84.9215	232.91	84.9266	232.91	84.8358	232.91	84.8514	232.91	84.6714	232.91	84.6986	232.91	84.4336	232.91	84.4735	232.91	84.1313	232.91	84.1856	232.91	83.7789	232.91	83.8517	232.91	83.3971	232.91	83.4993	232.91	83.013	232.91	83.167	232.91	82.6561	232.91	82.8964	232.91	82.3496	232.91	82.7158	232.91	82.1031	232.91	82.6232	232.91	81.9122	232.91	82.5859	232.91	81.769	232.91	82.559	232.91	81.6736	232.91	82.5079	232.91	81.6355	232.91	82.4207	232.91	81.6629	232.91	82.303	232.91	81.7504	232.91	82.167	232.91	81.8779	232.91	82.0222
241.699	84.8368	241.699	84.7926	241.699	84.8074	241.699	84.6878	241.699	84.6976	241.699	84.5382	241.699	84.5075	241.699	84.3593	241.699	84.2428	241.699	84.1605	241.699	83.9133	241.699	83.9428	241.699	83.5316	241.699	83.697	241.699	83.1143	241.699	83.407	241.699	82.6859	241.699	83.0602	241.699	82.2853	241.699	82.6625	241.699	81.967	241.699	82.2545	241.699	81.784	241.699	81.9108	241.699	81.7544	241.699	81.7074	241.699	81.8399	241.699	81.6692	241.699	81.9679	241.699	81.7517	241.699	82.0739	241.699	81.8799	241.699	82.1271	241.699	81.9974	241.699	82.1263	241.699	82.0812
250.488	84.2688	250.488	84.171	250.488	84.3273	250.488	84.0323	250.488	84.3432	250.488	83.8481	250.488	84.3094	250.488	83.6162	250.488	84.2181	250.488	83.3424	250.488	84.0638	250.488	83.045	250.488	83.8447	250.488	82.757	250.488	83.5616	250.488	82.5191	250.488	83.2159	250.488	82.3614	250.488	82.8107	250.488	82.2811	250.488	82.3551	250.488	82.2376	250.488	81.875	250.488	82.1751	250.488	81.4227	250.488	82.0565	250.488	81.071	250.488	81.8827	250.488	80.8815	250.488	81.6877	250.488	80.8627	250.488	81.5114	250.488	80.9618	250.488	81.3684	250.488	81.1041	250.488	81.2409
259.277	83.4215	259.277	83.3843	259.277	83.4008	259.277	83.2941	259.277	83.3269	259.277	83.1635	259.277	83.2139	259.277	83.0078	259.277	83.0808	259.277	82.8391	259.277	82.9459	259.277	82.6613	259.277	82.8212	259.277	82.4684	259.277	82.7104	259.277	82.2496	259.277	82.6105	259.277	82.0009	259.277	82.5151	259.277	81.7385	259.277	82.4168	259.277	81.5009	259.277	82.3078	259.277	81.3318	259.277	82.1779	259.277	81.2505	259.277	82.0178	259.277	81.2361	259.277	81.8266	259.277	81.2454	259.277	81.6208	259.277	81.2456	259.277	81.4345	259.277	81.2353	259.277	81.3035	259.277	81.2427
268.066	83.0189	268.066	83.0065	268.066	82.9794	268.066	82.95	268.066	82.8926	268.066	82.8682	268.066	82.7751	268.066	82.7867	268.066	82.6538	268.066	82.7307	268.066	82.5598	268.066	82.7154	268.066	82.5186	268.066	82.7385	268.066	82.5394	268.066	82.7794	268.066	82.6091	268.066	82.8073	268.066	82.6965	268.066	82.7923	268.066	82.7644	268.066	82.7169	268.066	82.7821	268.066	82.5813	268.066	82.7339	268.066	82.4038	268.066	82.6209	268.066	82.2141	268.066	82.4591	268.066	82.0445	268.066	82.2744	268.066	81.9213	268.066	82.0975	268.066	81.8621	268.066	81.9569	268.066	81.8745
276.855	83.0379	276.855	82.835	276.855	83.0021	276.855	82.4153	276.855	82.7216	276.855	81.8271	276.855	82.2072	276.855	81.1668	276.855	81.4991	276.855	80.6037	276.855	80.6982	276.855	80.362	276.855	80.0117	276.855	80.5959	276.855	79.7392	276.855	81.2491	276.855	80.0786	276.855	82.1068	276.855	80.9154	276.855	82.9619	276.855	81.9486	276.855	83.6923	276.855	82.9362	276.855	84.2521	276.855	83.7598	276.855	84.6436	276.855	84.3843	276.855	84.8958	276.855	84.8164	276.855	85.0496	276.855	85.0826	276.855	85.1446	276.855	85.2187	276.855	85.2085	276.855	85.2631	276.855	85.2512
287.109	87.2859	287.109	87.1221	287.109	87.2611	287.109	86.76	287.109	87.0483	287.109	86.1841	287.109	86.6386	287.109	85.3785	287.109	86.0161	287.109	84.3358	287.109	85.1642	287.109	83.0774	287.109	84.0779	287.109	81.7089	287.109	82.7908	287.109	80.5335	287.109	81.4327	287.109	80.0837	287.109	80.3109	287.109	80.6574	287.109	79.8673	287.109	81.878	287.109	80.2989	287.109	83.2	287.109	81.3176	287.109	84.3343	287.109	82.5104	287.109	85.1944	287.109	83.6282	287.109	85.779	287.109	84.5681	287.109	86.1129	287.109	85.2982	287.109	86.2215	287.109	85.8141	287.109	86.1206
297.363	86.548	297.363	86.4239	297.363	86.5377	297.363	86.1674	297.363	86.3891	297.363	85.7733	297.363	86.1003	297.363	85.2271	297.363	85.6738	297.363	84.5105	297.363	85.1165	297.363	83.6146	297.363	84.4397	297.363	82.5635	297.363	83.6613	297.363	81.4459	297.363	82.8178	297.363	80.4443	297.363	81.9978	297.363	79.8113	297.363	81.3809	297.363	79.74	297.363	81.1955	297.363	80.2115	297.363	81.5193	297.363	81.0186	297.363	82.1684	297.363	81.9184	297.363	82.8722	297.363	82.7336	297.363	83.4525	297.363	83.3696	297.363	83.8398	297.363	83.7941	297.363	84.0235	297.363	84.0088
307.617	86.388	307.617	86.2861	307.617	86.3707	307.617	86.0535	307.617	86.2372	307.617	85.6755	307.617	85.9789	307.617	85.1384	307.617	85.5765	307.617	84.4302	307.617	85.0047	307.617	83.5423	307.617	84.2391	307.617	82.4802	307.617	83.2671	307.617	81.3006	307.617	82.1087	307.617	80.1821	307.617	80.8529	307.617	79.4611	307.617	79.6985	307.617	79.4192	307.617	78.9381	307.617	79.9461	307.617	78.7871	307.617	80.6764	307.617	79.1878	307.617	81.3385	307.617	79.8858	307.617	81.8244	307.617	80.6394	307.617	82.1119	307.617	81.3004	307.617	82.2031	307.617	81.796	307.617	82.0986
319.336	85.7928	319.336	85.7402	319.336	85.7409	319.336	85.5815	319.336	85.5837	319.336	85.3104	319.336	85.3194	319.336	84.9158	319.336	84.9434	319.336	84.3852	319.336	84.447	319.336	83.7141	319.336	83.8212	319.336	82.9158	319.336	83.0667	319.336	82.0321	319.336	82.207	319.336	81.1426	319.336	81.307	319.336	80.3709	319.336	80.4881	319.336	79.8742	319.336	79.9217	319.336	79.7825	319.336	79.7563	319.336	80.099	319.336	80.007	319.336	80.6744	319.336	80.537	319.336	81.3054	319.336	81.1565	319.336	81.8322	319.336	81.7093	319.336	82.1618	319.336	82.0932	319.336	82.2514
329.59	85.4098	329.59	85.4196	329.59	85.3188	329.59	85.3421	329.59	85.1463	329.59	85.1621	329.59	84.8905	329.59	84.8556	329.59	84.5505	329.59	84.3932	329.59	84.1254	329.59	83.7458	329.59	83.6108	329.59	82.8955	329.59	82.999	329.59	81.8562	329.59	82.2883	329.59	80.7143	329.59	81.5067	329.59	79.6818	329.59	80.7426	329.59	79.0698	329.59	80.1497	329.59	79.0536	329.59	79.8732	329.59	79.4764	329.59	79.9311	329.59	80.04	329.59	80.2052	329.59	80.5446	329.59	80.5483	329.59	80.9111	329.59	80.8585	329.59	81.1201	329.59	81.0779	329.59	81.1723
341.309	85.585	341.309	85.4628	341.309	85.5945	341.309	85.236	341.309	85.4817	341.309	84.9119	341.309	85.2356	341.309	84.4947	341.309	84.8437	341.309	83.9853	341.309	84.295	341.309	83.3865	341.309	83.5846	341.309	82.712	341.309	82.7205	341.309	81.9958	341.309	81.7348	341.309	81.2986	341.309	80.7061	341.309	80.7115	341.309	79.7982	341.309	80.3572	341.309	79.2727	341.309	80.3559	341.309	79.3488	341.309	80.7302	341.309	79.9642	341.309	81.3447	341.309	80.8174	341.309	81.988	341.309	81.6303	341.309	82.4945	341.309	82.2608	341.309	82.7848	341.309	82.6655	341.309	82.8406
353.027	86.2457	353.027	86.1383	353.027	86.25	353.027	85.9229	353.027	86.1512	353.027	85.5919	353.027	85.9434	353.027	85.1355	353.027	85.6144	353.027	84.542	353.027	85.1479	353.027	83.8008	353.027	84.527	353.027	82.9114	353.027	83.738	353.027	81.91	353.027	82.7787	353.027	80.9121	353.027	81.6819	353.027	80.135	353.027	80.561	353.027	79.8006	353.027	79.6588	353.027	79.9429	353.027	79.2905	353.027	80.397	353.027	79.5814	353.027	80.9763	353.027	80.3132	353.027	81.5568	353.027	81.1469	353.027	82.0502	353.027	81.8466	353.027	82.3779	353.027	82.3008	353.027	82.4749
366.211	85.669	366.211	85.5935	366.211	85.6738	366.211	85.4512	366.211	85.5905	366.211	85.2272	366.211	85.4005	366.211	84.8944	366.211	85.0917	366.211	84.4264	366.211	84.6567	366.211	83.8033	366.211	84.0838	366.211	83.0073	366.211	83.3513	366.211	82.0189	366.211	82.4359	366.211	80.843	366.211	81.3381	366.211	79.5992	366.211	80.1198	366.211	78.6547	366.211	78.9377	366.211	78.4903	366.211	78.0371	366.211	79.1025	366.211	77.6543	366.211	79.982	366.211	77.8608	366.211	80.7111	366.211	78.5189	366.211	81.1178	366.211	79.3839	366.211	81.1589	366.211	80.2169	366.211	80.8429
379.395	85.5156	379.395	85.4566	379.395	85.4522	379.395	85.2731	379.395	85.2778	379.395	84.9695	379.395	85.0062	379.395	84.5424	379.395	84.645	379.395	83.9674	379.395	84.1953	379.395	83.2011	379.395	83.656	379.395	82.2057	379.395	83.026	379.395	80.9926	379.395	82.3011	379.395	79.6785	379.395	81.4703	379.395	78.5153	379.395	80.5339	379.395	77.7778	379.395	79.57	379.395	77.5386	379.395	78.8277	379.395	77.6724	379.395	78.6401	379.395	78.0617	379.395	79.0249	379.395	78.6275	379.395	79.6144	379.395	79.25	379.395	80.066	379.395	79.7873	379.395	80.2428	379.395	80.1376
392.578	85.5653	392.578	85.4441	392.578	85.5871	392.578	85.2196	392.578	85.5102	392.578	84.8883	392.578	85.3285	392.578	84.4515	392.578	85.0233	392.578	83.9157	392.578	84.5611	392.578	83.2822	392.578	83.9014	392.578	82.5311	392.578	83.0126	392.578	81.6183	392.578	81.8913	392.578	80.5093	392.578	80.5909	392.578	79.2734	392.578	79.2797	392.578	78.2349	392.578	78.2997	392.578	77.917	392.578	78.0011	392.578	78.4235	392.578	78.3359	392.578	79.2472	392.578	78.9339	392.578	79.9376	392.578	79.5231	392.578	80.357	392.578	80.0043	392.578	80.5346	392.578	80.3434	392.578	80.5228
405.762	85.0408	405.762	85.0073	405.762	85.0311	405.762	84.9365	405.762	84.9605	405.762	84.8131	405.762	84.8132	405.762	84.5998	405.762	84.5799	405.762	84.2473	405.762	84.2534	405.762	83.706	405.762	83.8226	405.762	82.9405	405.762	83.2731	405.762	81.949	405.762	82.5918	405.762	80.7932	405.762	81.7645	405.762	79.6243	405.762	80.7808	405.762	78.66	405.762	79.6922	405.762	78.0892	405.762	78.745	405.762	77.9934	405.762	78.3803	405.762	78.3359	405.762	78.7473	405.762	78.9515	405.762	79.44	405.762	79.6034	405.762	80.0279	405.762	80.1038	405.762	80.341	405.762	80.3607
420.41	85.4705	420.41	85.4287	420.41	85.4573	420.41	85.3115	420.41	85.3866	420.41	85.0874	420.41	85.233	420.41	84.7321	420.41	84.9587	420.41	84.243	420.41	84.5237	420.41	83.6382	420.41	83.8851	420.41	82.9333	420.41	82.992	420.41	82.1079	420.41	81.795	420.41	81.107	420.41	80.2875	420.41	79.9416	420.41	78.5978	420.41	78.9081	420.41	77.1052	420.41	78.6257	420.41	76.3347	420.41	79.264	420.41	76.4403	420.41	80.1981	420.41	77.1167	420.41	80.8913	420.41	78.0653	420.41	81.1902	420.41	79.0916	420.41	81.1168	420.41	80.0196	420.41	80.7158
435.059	85.8691	435.059	85.7246	435.059	85.9084	435.059	85.4629	435.059	85.861	435.059	85.0911	435.059	85.7351	435.059	84.6233	435.059	85.527	435.059	84.0526	435.059	85.2312	435.059	83.3403	435.059	84.8428	435.059	82.4434	435.059	84.3433	435.059	81.3604	435.059	83.6848	435.059	80.1566	435.059	82.7888	435.059	78.9439	435.059	81.5723	435.059	77.8463	435.059	80.0131	435.059	77.0434	435.059	78.2935	435.059	76.8463	435.059	77.0136	435.059	77.4413	435.059	76.9232	435.059	78.5178	435.059	77.87	435.059	79.5572	435.059	79.0522	435.059	80.2194	435.059	79.9501	435.059	80.3596
451.172	85.6113	451.172	85.5434	451.172	85.6159	451.172	85.4409	451.172	85.5393	451.172	85.3137	451.172	85.3818	451.172	85.1273	451.172	85.1486	451.172	84.8093	451.172	84.8386	451.172	84.2821	451.172	84.4417	451.172	83.4921	451.172	83.9415	451.172	82.4245	451.172	83.3153	451.172	81.119	451.172	82.5341	451.172	79.7088	451.172	81.5769	451.172	78.4605	451.172	80.4897	451.172	77.734	451.172	79.4992	451.172	77.7777	451.172	79.0007	451.172	78.468	451.172	79.1416	451.172	79.3687	451.172	79.5995	451.172	80.084	451.172	80.0341	451.172	80.4491	451.172	80.3375	451.172	80.4973
465.82	85.3574	465.82	85.3573	465.82	85.2985	465.82	85.2953	465.82	85.1615	465.82	85.1465	465.82	84.9248	465.82	84.89	465.82	84.5761	465.82	84.5257	465.82	84.1106	465.82	84.0507	465.82	83.5185	465.82	83.4189	465.82	82.7601	465.82	82.5375	465.82	81.7581	465.82	81.3166	465.82	80.4623	465.82	79.7546	465.82	78.99	465.82	78.0704	465.82	77.7338	465.82	76.8604	465.82	77.1585	465.82	76.7831	465.82	77.3486	465.82	77.6587	465.82	78.0519	465.82	78.7878	465.82	79.002	465.82	79.7573	465.82	79.9209	465.82	80.4214	465.82	80.5358	465.82	80.7028
483.398	85.249	483.398	85.1003	483.398	85.2878	483.398	84.8627	483.398	85.2217	483.398	84.5594	483.398	85.0751	483.398	84.1875	483.398	84.8569	483.398	83.7229	483.398	84.5324	483.398	83.1552	483.398	84.0411	483.398	82.5027	483.398	83.354	483.398	81.7732	483.398	82.5002	483.398	80.9449	483.398	81.5012	483.398	80.0484	483.398	80.2683	483.398	79.2561	483.398	78.6634	483.398	78.7759	483.398	76.8852	483.398	78.6165	483.398	75.8925	483.398	78.6512	483.398	76.2458	483.398	78.8161	483.398	77.0973	483.398	79.0332	483.398	77.8603	483.398	79.1244	483.398	78.4848	483.398	78.9395
499.512	85.4556	499.512	85.3431	499.512	85.5766	499.512	85.2702	499.512	85.6352	499.512	85.1945	499.512	85.5728	499.512	85.0066	499.512	85.3736	499.512	84.5738	499.512	85.0492	499.512	83.7889	499.512	84.5915	499.512	82.5943	499.512	83.9437	499.512	80.9684	499.512	83.0309	499.512	78.9091	499.512	81.8185	499.512	76.5211	499.512	80.3438	499.512	74.4304	499.512	78.7471	499.512	74.0498	499.512	77.4432	499.512	75.4711	499.512	77.1716	499.512	77.2583	499.512	78.0195	499.512	78.6932	499.512	79.1477	499.512	79.6599	499.512	79.9727	499.512	80.2179	499.512	80.385	499.512	80.45
517.09	83.7764	517.09	83.8947	517.09	83.6929	517.09	84.0733	517.09	83.6752	517.09	84.3326	517.09	83.7716	517.09	84.6206	517.09	83.9641	517.09	84.8293	517.09	84.1663	517.09	84.8549	517.09	84.2842	517.09	84.6156	517.09	84.2252	517.09	84.0279	517.09	83.8652	517.09	82.9747	517.09	83.0477	517.09	81.2842	517.09	81.6371	517.09	78.7867	517.09	79.5979	517.09	75.9832	517.09	77.1869	517.09	75.766	517.09	75.5718	517.09	78.1936	517.09	76.3188	517.09	80.308	517.09	78.3565	517.09	81.5489	517.09	80.1683	517.09	82.0661	517.09	81.3777	517.09	81.997
536.133	85.2204	536.133	85.128	536.133	85.1441	536.133	84.8869	536.133	84.9206	536.133	84.5704	536.133	84.6127	536.133	84.2863	536.133	84.3106	536.133	84.0947	536.133	84.0674	536.133	83.9456	536.133	83.8416	536.133	83.6998	536.133	83.5285	536.133	83.1852	536.133	83.0419	536.133	82.2412	536.133	82.3356	536.133	80.7761	536.133	81.3438	536.133	78.8514	536.133	79.9405	536.133	76.8398	536.133	78.0835	536.133	75.7314	536.133	76.3594	536.133	76.5943	536.133	76.3073	536.133	78.6291	536.133	77.9387	536.133	80.4342	536.133	79.7397	536.133	81.4604	536.133	81.0303	536.133	81.6361
555.176	85.5412	555.176	85.3712	555.176	85.6308	555.176	85.1632	555.176	85.6052	555.176	84.942	555.176	85.4548	555.176	84.6953	555.176	85.1985	555.176	84.3816	555.176	84.8769	555.176	83.958	555.176	84.53	555.176	83.3971	555.176	84.1536	555.176	82.6839	555.176	83.6577	555.176	81.7866	555.176	82.8847	555.176	80.5994	555.176	81.6724	555.176	78.9264	555.176	79.8919	555.176	76.6987	555.176	77.5121	555.176	74.8429	555.176	75.0095	555.176	75.2655	555.176	74.1228	555.176	77.0122	555.176	75.5044	555.176	78.4457	555.176	77.336	555.176	79.2109	555.176	78.6568	555.176	79.285
574.219	84.9634	574.219	84.9506	574.219	84.849	574.219	84.799	574.219	84.653	574.219	84.5413	574.219	84.4146	574.219	84.2457	574.219	84.152	574.219	83.988	574.219	83.8885	574.219	83.7729	574.219	83.6307	574.219	83.4887	574.219	83.3117	574.219	82.961	574.219	82.821	574.219	82.0148	574.219	82.0695	574.219	80.4804	574.219	81.0017	574.219	78.2442	574.219	79.6113	574.219	75.6905	574.219	78.0156	574.219	74.6716	574.219	76.6125	574.219	76.0042	574.219	76.1978	574.219	77.7886	574.219	77.1463	574.219	79.2058	574.219	78.6313	574.219	80.0948	574.219	79.8009	574.219	80.3145
594.727	84.8892	594.727	84.745	594.727	84.8583	594.727	84.4446	594.727	84.6674	594.727	84.0348	594.727	84.352	594.727	83.5824	594.727	83.9434	594.727	83.1688	594.727	83.4702	594.727	82.8601	594.727	82.9783	594.727	82.6137	594.727	82.5098	594.727	82.2182	594.727	82.0333	594.727	81.4159	594.727	81.3906	594.727	80.0924	594.727	80.3661	594.727	78.4019	594.727	78.8818	594.727	76.8254	594.727	77.1568	594.727	75.8951	594.727	75.7194	594.727	75.7185	594.727	75.2721	594.727	76.1833	594.727	75.9905	594.727	77.0504	594.727	77.1085	594.727	77.8396	594.727	77.9191	594.727	78.1724
615.234	86.8523	615.234	86.7895	615.234	86.8254	615.234	86.6385	615.234	86.6941	615.234	86.4317	615.234	86.4528	615.234	86.2144	615.234	86.1566	615.234	85.9409	615.234	85.8806	615.234	85.4822	615.234	85.6151	615.234	84.7719	615.234	85.2681	615.234	83.8814	615.234	84.7771	615.234	82.9188	615.234	84.1302	615.234	81.7818	615.234	83.216	615.234	80.0415	615.234	81.7325	615.234	77.1688	615.234	79.3679	615.234	73.7042	615.234	76.2711	615.234	74.4661	615.234	74.1025	615.234	77.4925	615.234	74.8403	615.234	79.1547	615.234	76.7695	615.234	79.5769	615.234	78.3262	615.234	79.2436
637.207	86.6557	637.207	86.4416	637.207	86.6534	637.207	86.0834	637.207	86.4462	637.207	85.6687	637.207	86.1127	637.207	85.2823	637.207	85.7238	637.207	85.0555	637.207	85.3335	637.207	85.0411	637.207	85.0203	637.207	85.028	637.207	84.7965	637.207	84.6929	637.207	84.4726	637.207	83.846	637.207	83.7833	637.207	82.5068	637.207	82.5797	637.207	80.8361	637.207	80.7705	637.207	79.0543	637.207	78.2214	637.207	77.7978	637.207	75.4455	637.207	77.963	637.207	75.3905	637.207	79.2431	637.207	77.8347	637.207	80.7623	637.207	79.8969	637.207	81.8026	637.207	81.2389	637.207	81.944
659.18	86.6021	659.18	86.3585	659.18	86.6009	659.18	85.9511	659.18	86.3286	659.18	85.4953	659.18	85.8164	659.18	85.0761	659.18	85.1625	659.18	84.6658	659.18	84.5135	659.18	84.1606	659.18	83.9475	659.18	83.5537	659.18	83.4102	659.18	82.9452	659.18	82.8551	659.18	82.2578	659.18	82.2852	659.18	81.1557	659.18	81.5908	659.18	79.2988	659.18	80.5303	659.18	76.4249	659.18	78.8528	659.18	72.8243	659.18	76.4121	659.18	72.7327	659.18	74.3217	659.18	76.1203	659.18	75.5915	659.18	78.5965	659.18	78.1699	659.18	79.9305	659.18	79.8216	659.18	80.3529
682.617	86.6571	682.617	86.5285	682.617	86.563	682.617	86.1258	682.617	86.2919	682.617	85.4776	682.617	85.8407	682.617	84.6939	682.617	85.2073	682.617	83.9414	682.617	84.4779	682.617	83.4312	682.617	83.8986	682.617	83.2162	682.617	83.6821	682.617	83.0483	682.617	83.6134	682.617	82.6527	682.617	83.2578	682.617	81.8412	682.617	82.41	682.617	80.3183	682.617	81.0145	682.617	77.614	682.617	78.8821	682.617	73.5873	682.617	75.7278	682.617	72.1131	682.617	71.8003	682.617	75.5349	682.617	71.0781	682.617	78.501	682.617	74.8856	682.617	80.0019	682.617	78.2058	682.617	79.9293
707.52	86.3423	707.52	86.2729	707.52	86.2692	707.52	86.0356	707.52	86.0203	707.52	85.5825	707.52	85.5596	707.52	84.9409	707.52	84.9225	707.52	84.2018	707.52	84.2288	707.52	83.4292	707.52	83.5633	707.52	82.7303	707.52	82.8955	707.52	82.2025	707.52	82.2012	707.52	81.6208	707.52	81.5001	707.52	80.5974	707.52	80.7516	707.52	78.8833	707.52	79.7619	707.52	76.1727	707.52	78.1093	707.52	72.1504	707.52	75.2523	707.52	69.7508	707.52	71.0535	707.52	72.5046	707.52	69.3875	707.52	74.6077	707.52	72.2212	707.52	75.1708	707.52	74.1907	707.52	74.9715
732.422	87.0151	732.422	86.7219	732.422	87.1519	732.422	86.3632	732.422	87.0172	732.422	85.9417	732.422	86.5922	732.422	85.3928	732.422	85.9995	732.422	84.7146	732.422	85.3821	732.422	84.079	732.422	84.7923	732.422	83.6358	732.422	84.2052	732.422	83.239	732.422	83.599	732.422	82.7312	732.422	82.9939	732.422	82.0834	732.422	82.2928	732.422	80.9664	732.422	81.2414	732.422	79.0083	732.422	79.6189	732.422	76.7729	732.422	77.2518	732.422	75.5856	732.422	74.4404	732.422	75.307	732.422	73.462	732.422	75.3861	732.422	74.8471	732.422	75.871	732.422	75.9979	732.422	76.2759
757.324	87.2729	757.324	86.9278	757.324	87.3056	757.324	86.3822	757.324	87.0735	757.324	85.876	757.324	86.6762	757.324	85.4671	757.324	86.1952	757.324	84.964	757.324	85.6269	757.324	84.3546	757.324	84.9765	757.324	83.8715	757.324	84.466	757.324	83.5071	757.324	84.2616	757.324	82.9984	757.324	84.1038	757.324	82.0165	757.324	83.6426	757.324	80.3014	757.324	82.7483	757.324	78.066	757.324	81.3114	757.324	76.3451	757.324	79.0351	757.324	75.6997	757.324	75.9049	757.324	76.011	757.324	73.0978	757.324	77.4202	757.324	73.0801	757.324	78.3415	757.324	75.6075	757.324	77.7417
785.156	86.4219	785.156	86.1173	785.156	86.5968	785.156	85.6806	785.156	86.4396	785.156	84.9994	785.156	85.7066	785.156	84.0998	785.156	84.4215	785.156	83.2527	785.156	83.0967	785.156	82.9352	785.156	82.353	785.156	83.2747	785.156	82.2588	785.156	83.5539	785.156	82.7217	785.156	83.4229	785.156	83.8754	785.156	83.439	785.156	85.03	785.156	83.629	785.156	85.2994	785.156	83.3295	785.156	84.3832	785.156	82.211	785.156	82.8867	785.156	80.6392	785.156	81.6858	785.156	79.9562	785.156	80.6151	785.156	80.5332	785.156	79.812	785.156	80.9979	785.156	79.9387	785.156	80.6614
811.523	87.1441	811.523	86.7107	811.523	87.0596	811.523	85.8412	811.523	86.5264	811.523	84.7833	811.523	85.6574	811.523	83.6025	811.523	84.5664	811.523	82.1301	811.523	83.2769	811.523	80.6536	811.523	81.8095	811.523	79.9083	811.523	80.5081	811.523	79.8625	811.523	80.0832	811.523	79.9203	811.523	80.3486	811.523	79.564	811.523	80.1369	811.523	78.1281	811.523	78.9391	811.523	74.9957	811.523	77.0145	811.523	70.7299	811.523	74.9294	811.523	69.5069	811.523	72.9634	811.523	71.4673	811.523	72.2286	811.523	73.4935	811.523	74.1481	811.523	75.2137	811.523	75.9748	811.523	76.2346
840.82	87.0233	840.82	86.9315	840.82	86.9691	840.82	86.5912	840.82	86.7663	840.82	85.97	840.82	86.3309	840.82	85.1937	840.82	85.5915	840.82	84.2457	840.82	84.6183	840.82	82.8758	840.82	83.5024	840.82	81.2569	840.82	82.2926	840.82	80.3653	840.82	81.6526	840.82	80.3741	840.82	82.314	840.82	80.4007	840.82	83.4128	840.82	80.4097	840.82	83.7477	840.82	80.5806	840.82	82.9387	840.82	79.8475	840.82	81.3134	840.82	78.8326	840.82	79.9207	840.82	79.8907	840.82	80.1009	840.82	81.1866	840.82	81.1635	840.82	81.605	840.82	81.6501	840.82	81.6649
870.117	88.3793	870.117	88.3356	870.117	88.3034	870.117	87.8799	870.117	88.0855	870.117	86.8895	870.117	87.4419	870.117	85.4868	870.117	86.386	870.117	83.8184	870.117	85.166	870.117	82.1579	870.117	83.8686	870.117	81.1978	870.117	82.9675	870.117	80.8802	870.117	83.3488	870.117	80.2678	870.117	83.9718	870.117	79.6518	870.117	83.4942	870.117	79.4334	870.117	81.8924	870.117	78.3118	870.117	79.7329	870.117	74.2613	870.117	76.9309	870.117	61.604	870.117	71.4131	870.117	68.8119	870.117	59.8837	870.117	74.9945	870.117	70.9469	870.117	77.1306	870.117	75.3987	870.117	77.1522
900.879	89.126	900.879	89.3407	900.879	88.912	900.879	88.933	900.879	89.0609	900.879	88.0108	900.879	89.1084	900.879	87.0935	900.879	88.6376	900.879	86.1249	900.879	87.7867	900.879	84.6226	900.879	86.7014	900.879	82.5277	900.879	85.4532	900.879	81.1241	900.879	84.5114	900.879	81.3936	900.879	83.8465	900.879	81.4617	900.879	83.3576	900.879	79.7662	900.879	83.243	900.879	75.2285	900.879	82.5968	900.879	68.2149	900.879	80.6931	900.879	72.2635	900.879	77.6496	900.879	77.0277	900.879	75.9862	900.879	79.8449	900.879	78.6644	900.879	81.1657	900.879	80.7514	900.879	81.3745
933.105	89.4789	933.105	89.4616	933.105	89.3147	933.105	89.2515	933.105	88.8486	933.105	88.5697	933.105	88.0563	933.105	87.3127	933.105	86.97	933.105	85.9125	933.105	85.6893	933.105	84.7855	933.105	84.3677	933.105	83.9109	933.105	82.6691	933.105	83.382	933.105	80.5623	933.105	82.7921	933.105	80.7257	933.105	81.7693	933.105	82.224	933.105	80.8224	933.105	82.6432	933.105	79.4744	933.105	81.7422	933.105	76.5011	933.105	79.6156	933.105	71.7965	933.105	76.1591	933.105	66.8282	933.105	72.3914	933.105	69.5828	933.105	73.1505	933.105	75.2294	933.105	76.5298	933.105	77.4768
965.332	90.0001	965.332	89.7167	965.332	90.0552	965.332	89.3624	965.332	89.8268	965.332	89.0101	965.332	89.2922	965.332	88.2707	965.332	88.5572	965.332	86.827	965.332	87.6974	965.332	85.1407	965.332	86.6075	965.332	83.612	965.332	85.4608	965.332	82.0745	965.332	84.602	965.332	81.3986	965.332	83.5889	965.332	81.042	965.332	82.6852	965.332	79.801	965.332	82.1876	965.332	78.1891	965.332	81.1619	965.332	76.0966	965.332	79.1615	965.332	68.1352	965.332	75.5569	965.332	67.4744	965.332	69.1598	965.332	72.4929	965.332	68.4528	965.332	73.0163	965.332	73.1047	965.332	73.76
1,000.49	89.9636	1,000.49	89.8448	1,000.49	89.7629	1,000.49	89.1938	1,000.49	89.6796	1,000.49	88.0749	1,000.49	89.6901	1,000.49	86.8715	1,000.49	89.0187	1,000.49	85.8365	1,000.49	87.3962	1,000.49	84.5433	1,000.49	85.9155	1,000.49	82.9404	1,000.49	85.0938	1,000.49	82.9093	1,000.49	83.6309	1,000.49	83.6019	1,000.49	81.8943	1,000.49	83.0705	1,000.49	81.3868	1,000.49	82.3675	1,000.49	81.2866	1,000.49	81.5642	1,000.49	80.892	1,000.49	78.89	1,000.49	79.1374	1,000.49	74.315	1,000.49	73.7734	1,000.49	71.3152	1,000.49	61.1523	1,000.49	75.2486	1,000.49	71.2197	1,000.49	78.8752	1,000.49	77.1693	1,000.49	79.4103
1,035.64	88.6281	1,035.64	88.4045	1,035.64	88.5363	1,035.64	87.9649	1,035.64	88.1003	1,035.64	87.5786	1,035.64	87.2528	1,035.64	86.9823	1,035.64	86.1154	1,035.64	85.4919	1,035.64	85.1016	1,035.64	83.25	1,035.64	84.2433	1,035.64	81.6239	1,035.64	82.8714	1,035.64	80.6315	1,035.64	81.6182	1,035.64	79.24	1,035.64	81.3714	1,035.64	77.9099	1,035.64	81.1032	1,035.64	76.0342	1,035.64	80.8658	1,035.64	74.509	1,035.64	80.7668	1,035.64	75.1518	1,035.64	80.1342	1,035.64	71.9715	1,035.64	78.428	1,035.64	68.7434	1,035.64	74.4811	1,035.64	73.0683	1,035.64	64.2262	1,035.64	71.6991	1,035.64	68.3924	1,035.64	71.4472
1,072.27	88.8488	1,072.27	88.2088	1,072.27	89.2008	1,072.27	87.7088	1,072.27	89.034	1,072.27	87.3422	1,072.27	88.4221	1,072.27	86.6131	1,072.27	87.2524	1,072.27	85.3814	1,072.27	85.6815	1,072.27	83.7524	1,072.27	84.3222	1,072.27	81.4176	1,072.27	83.3787	1,072.27	80.0507	1,072.27	82.5764	1,072.27	81.5096	1,072.27	80.731	1,072.27	82.2706	1,072.27	78.5535	1,072.27	82.1298	1,072.27	79.2686	1,072.27	80.7558	1,072.27	80.2865	1,072.27	77.8171	1,072.27	79.3895	1,072.27	75.5072	1,072.27	76.7273	1,072.27	72.0309	1,072.27	73.9585	1,072.27	66.7619	1,072.27	69.7773	1,072.27	72.3858	1,072.27	71.6324	1,072.27	73.4134
1,108.89	87.335	1,108.89	87.5473	1,108.89	87.3052	1,108.89	87.711	1,108.89	86.9561	1,108.89	86.9989	1,108.89	86.334	1,108.89	85.7288	1,108.89	85.1536	1,108.89	84.8105	1,108.89	83.321	1,108.89	83.6383	1,108.89	82.0615	1,108.89	82.0843	1,108.89	81.9505	1,108.89	81.5695	1,108.89	81.6457	1,108.89	81.6388	1,108.89	80.8615	1,108.89	81.2629	1,108.89	80.5166	1,108.89	79.7729	1,108.89	79.1495	1,108.89	76.6176	1,108.89	77.8489	1,108.89	73.6485	1,108.89	77.0945	1,108.89	70.4115	1,108.89	76.7451	1,108.89	63.7348	1,108.89	74.2593	1,108.89	45.0564	1,108.89	64.5192	1,108.89	69.8508	1,108.89	66.3235	1,108.89	73.5582
1,148.44	87.6358	1,148.44	87.8241	1,148.44	87.2019	1,148.44	87.1553	1,148.44	86.922	1,148.44	86.4109	1,148.44	86.4996	1,148.44	85.9371	1,148.44	86.0137	1,148.44	84.6498	1,148.44	84.8906	1,148.44	82.3749	1,148.44	83.8565	1,148.44	80.243	1,148.44	82.7648	1,148.44	77.2223	1,148.44	79.8366	1,148.44	75.8229	1,148.44	77.6718	1,148.44	77.6134	1,148.44	78.2058	1,148.44	80.0805	1,148.44	79.5981	1,148.44	81.1616	1,148.44	78.5359	1,148.44	78.4613	1,148.44	77.1631	1,148.44	73.094	1,148.44	77.095	1,148.44	67.3666	1,148.44	76.66	1,148.44	66.7452	1,148.44	73.9211	1,148.44	69.7357	1,148.44	74.4826	1,148.44	72.8742
1,189.45	88.703	1,189.45	88.1202	1,189.45	88.7983	1,189.45	87.433	1,189.45	88.3649	1,189.45	86.7075	1,189.45	87.4079	1,189.45	85.4306	1,189.45	85.9904	1,189.45	84.1364	1,189.45	84.3894	1,189.45	83.2109	1,189.45	82.983	1,189.45	81.8806	1,189.45	81.2148	1,189.45	79.9913	1,189.45	78.8394	1,189.45	78.2902	1,189.45	76.6405	1,189.45	76.2358	1,189.45	76.5304	1,189.45	74.7645	1,189.45	77.8572	1,189.45	74.3807	1,189.45	77.9392	1,189.45	71.4773	1,189.45	78.0222	1,189.45	65.7375	1,189.45	77.5382	1,189.45	59.764	1,189.45	74.444	1,189.45	55.9811	1,189.45	66.5924	1,189.45	70.5396	1,189.45	63.4531	1,189.45	71.6776
1,230.47	87.2076	1,230.47	87.4258	1,230.47	86.923	1,230.47	86.5454	1,230.47	86.7303	1,230.47	85.1029	1,230.47	86.0851	1,230.47	84.3532	1,230.47	85.5294	1,230.47	82.8798	1,230.47	84.6814	1,230.47	80.5283	1,230.47	83.439	1,230.47	79.0123	1,230.47	81.6085	1,230.47	76.6355	1,230.47	78.2601	1,230.47	74.0959	1,230.47	76.0492	1,230.47	75.9897	1,230.47	76.539	1,230.47	78.4892	1,230.47	75.9841	1,230.47	79.6701	1,230.47	74.7583	1,230.47	77.9612	1,230.47	76.3623	1,230.47	75.5769	1,230.47	73.5758	1,230.47	63.9603	1,230.47	64.9574	1,230.47	73.6081	1,230.47	43.9759	1,230.47	76.7141	1,230.47	72.3972	1,230.47	77.6052
1,274.41	86.852	1,274.41	86.8008	1,274.41	86.708	1,274.41	86.0937	1,274.41	86.5444	1,274.41	85.3249	1,274.41	85.3539	1,274.41	83.85	1,274.41	84.9413	1,274.41	82.7225	1,274.41	83.972	1,274.41	82.7775	1,274.41	81.7222	1,274.41	81.8789	1,274.41	81.7722	1,274.41	80.4986	1,274.41	78.9662	1,274.41	76.8738	1,274.41	77.0908	1,274.41	73.393	1,274.41	77.5473	1,274.41	76.0692	1,274.41	79.0732	1,274.41	78.9526	1,274.41	79.0294	1,274.41	77.0604	1,274.41	78.2293	1,274.41	70.1848	1,274.41	76.6887	1,274.41	67.7959	1,274.41	73.6495	1,274.41	58.0846	1,274.41	69.6646	1,274.41	65.2721	1,274.41	68.0135	1,274.41	67.5564
1,319.82	85.6914	1,319.82	85.0073	1,319.82	86.0151	1,319.82	84.9426	1,319.82	85.614	1,319.82	83.9739	1,319.82	84.8812	1,319.82	81.7428	1,319.82	84.3991	1,319.82	80.6666	1,319.82	83.5879	1,319.82	78.6889	1,319.82	81.6218	1,319.82	76.3787	1,319.82	79.1755	1,319.82	76.5996	1,319.82	76.6327	1,319.82	75.1678	1,319.82	73.3032	1,319.82	72.3906	1,319.82	70.2578	1,319.82	76.4634	1,319.82	74.919	1,319.82	77.2992	1,319.82	78.3164	1,319.82	77.4861	1,319.82	77.7356	1,319.82	77.2615	1,319.82	76.3218	1,319.82	74.758	1,319.82	71.874	1,319.82	71.9589	1,319.82	67.1994	1,319.82	73.1473	1,319.82	69.6275	1,319.82	70.2575
1,366.7	85.3432	1,366.7	84.6594	1,366.7	85.7616	1,366.7	85.2073	1,366.7	84.7888	1,366.7	84.1717	1,366.7	83.9599	1,366.7	82.8323	1,366.7	82.1961	1,366.7	82.9895	1,366.7	80.331	1,366.7	81.2497	1,366.7	80.0064	1,366.7	79.8245	1,366.7	78.2557	1,366.7	78.9427	1,366.7	77.3373	1,366.7	75.9144	1,366.7	77.1176	1,366.7	75.8786	1,366.7	75.8553	1,366.7	77.0816	1,366.7	74.4356	1,366.7	77.577	1,366.7	75.9014	1,366.7	76.1887	1,366.7	77.5001	1,366.7	74.7982	1,366.7	78.0104	1,366.7	69.9887	1,366.7	72.3115	1,366.7	65.732	1,366.7	69.3485	1,366.7	65.9186	1,366.7	68.1029	1,366.7	68.634
1,413.57	85.6512	1,413.57	84.9833	1,413.57	85.0794	1,413.57	83.3272	1,413.57	84.0709	1,413.57	82.7649	1,413.57	82.8152	1,413.57	82.4089	1,413.57	81.7218	1,413.57	81.2606	1,413.57	80.858	1,413.57	79.6617	1,413.57	79.5513	1,413.57	80.0221	1,413.57	77.0636	1,413.57	78.3533	1,413.57	77.0526	1,413.57	77.4602	1,413.57	76.6319	1,413.57	77.3274	1,413.57	71.6663	1,413.57	77.5979	1,413.57	69.2505	1,413.57	77.6559	1,413.57	72.8944	1,413.57	75.6011	1,413.57	75.549	1,413.57	73.9665	1,413.57	73.4281	1,413.57	72.143	1,413.57	70.5527	1,413.57	63.4529	1,413.57	61.9036	1,413.57	58.3119	1,413.57	63.6981	1,413.57	49.9796
1,463.38	84.9174	1,463.38	84.8422	1,463.38	85.557	1,463.38	85.2501	1,463.38	85.826	1,463.38	84.525	1,463.38	85.4877	1,463.38	83.9734	1,463.38	83.5357	1,463.38	83.3721	1,463.38	81.3901	1,463.38	83.3652	1,463.38	79.1162	1,463.38	81.8563	1,463.38	80.3148	1,463.38	79.8964	1,463.38	79.246	1,463.38	78.0281	1,463.38	77.8419	1,463.38	74.1156	1,463.38	76.1243	1,463.38	72.7193	1,463.38	76.8597	1,463.38	74.4991	1,463.38	78.0738	1,463.38	77.7422	1,463.38	78.488	1,463.38	77.9926	1,463.38	75.0024	1,463.38	77.4722	1,463.38	72.1034	1,463.38	69.4151	1,463.38	69.5297	1,463.38	73.3681	1,463.38	73.7949	1,463.38	73.0631
1,516.11	84.8141	1,516.11	85.244	1,516.11	85.1142	1,516.11	84.5516	1,516.11	84.5067	1,516.11	83.4178	1,516.11	83.3086	1,516.11	82.3101	1,516.11	84.4648	1,516.11	81.6852	1,516.11	83.0553	1,516.11	80.6474	1,516.11	81.5682	1,516.11	80.0507	1,516.11	80.8283	1,516.11	79.1107	1,516.11	78.7586	1,516.11	79.0665	1,516.11	75.5992	1,516.11	78.7158	1,516.11	72.6402	1,516.11	78.0317	1,516.11	72.895	1,516.11	74.6015	1,516.11	76.4806	1,516.11	75.2248	1,516.11	77.0458	1,516.11	74.4536	1,516.11	75.6262	1,516.11	68.4435	1,516.11	73.1789	1,516.11	69.9115	1,516.11	72.1566	1,516.11	70.9661	1,516.11	66.657	1,516.11	68.3808
1,568.85	84.388	1,568.85	84.0273	1,568.85	84.097	1,568.85	83.6463	1,568.85	84.0804	1,568.85	82.7712	1,568.85	82.681	1,568.85	81.3413	1,568.85	80.5855	1,568.85	80.6277	1,568.85	79.3725	1,568.85	81.1214	1,568.85	78.4287	1,568.85	77.5683	1,568.85	79.2049	1,568.85	75.1083	1,568.85	77.0683	1,568.85	73.7306	1,568.85	75.1387	1,568.85	70.6552	1,568.85	75.9342	1,568.85	71.3755	1,568.85	70.9758	1,568.85	72.2335	1,568.85	69.7476	1,568.85	72.6348	1,568.85	75.5273	1,568.85	74.0604	1,568.85	76.9355	1,568.85	72.3483	1,568.85	71.981	1,568.85	71.8449	1,568.85	66.2649	1,568.85	74.638	1,568.85	71.0507	1,568.85	74.2243
1,624.51	84.9424	1,624.51	84.665	1,624.51	84.9556	1,624.51	83.6778	1,624.51	84.1018	1,624.51	82.2379	1,624.51	83.3695	1,624.51	80.5382	1,624.51	82.2856	1,624.51	78.9344	1,624.51	80.6453	1,624.51	78.2272	1,624.51	79.1124	1,624.51	78.2393	1,624.51	78.902	1,624.51	75.9771	1,624.51	77.9571	1,624.51	74.1605	1,624.51	76.7133	1,624.51	72.7274	1,624.51	73.8885	1,624.51	71.9597	1,624.51	71.7517	1,624.51	73.6644	1,624.51	73.4597	1,624.51	75.2388	1,624.51	73.0984	1,624.51	74.1233	1,624.51	75.5209	1,624.51	65.7359	1,624.51	73.1156	1,624.51	60.3106	1,624.51	69.979	1,624.51	65.4184	1,624.51	68.592	1,624.51	67.0904
1,681.64	85.6207	1,681.64	85.062	1,681.64	85.2565	1,681.64	84.6471	1,681.64	85.2051	1,681.64	83.8911	1,681.64	84.3358	1,681.64	82.68	1,681.64	83.4535	1,681.64	81.2527	1,681.64	82.3095	1,681.64	79.9168	1,681.64	81.2336	1,681.64	78.1957	1,681.64	79.3784	1,681.64	76.9813	1,681.64	78.1968	1,681.64	76.5407	1,681.64	77.0304	1,681.64	74.1094	1,681.64	75.36	1,681.64	71.4319	1,681.64	74.5235	1,681.64	71.8679	1,681.64	72.1957	1,681.64	72.3655	1,681.64	73.3631	1,681.64	72.7851	1,681.64	72.7406	1,681.64	71.5944	1,681.64	72.1435	1,681.64	66.4023	1,681.64	65.9152	1,681.64	68.8658	1,681.64	55.3591	1,681.64	69.9171
1,741.7	86.4286	1,741.7	86.3594	1,741.7	86.5127	1,741.7	85.4685	1,741.7	85.8458	1,741.7	84.4724	1,741.7	85.0806	1,741.7	83.3219	1,741.7	83.8687	1,741.7	81.8401	1,741.7	83.0394	1,741.7	80.3647	1,741.7	81.1507	1,741.7	79.2594	1,741.7	80.0868	1,741.7	77.8082	1,741.7	78.7755	1,741.7	75.7542	1,741.7	77.3541	1,741.7	74.2455	1,741.7	76.8755	1,741.7	73.2764	1,741.7	74.2631	1,741.7	72.1434	1,741.7	73.4675	1,741.7	72.9681	1,741.7	73.5353	1,741.7	73.6025	1,741.7	74.9816	1,741.7	69.0332	1,741.7	72.3629	1,741.7	59.2293	1,741.7	69.5915	1,741.7	60.755	1,741.7	70.0806	1,741.7	64.5511
1,803.22	86.2458	1,803.22	85.9266	1,803.22	85.998	1,803.22	85.387	1,803.22	85.4845	1,803.22	84.3274	1,803.22	84.8411	1,803.22	83.0331	1,803.22	83.5269	1,803.22	81.9679	1,803.22	82.2627	1,803.22	80.7818	1,803.22	81.0905	1,803.22	79.2264	1,803.22	79.9108	1,803.22	77.1713	1,803.22	78.3295	1,803.22	76.0939	1,803.22	76.8416	1,803.22	75.3189	1,803.22	74.9283	1,803.22	73.888	1,803.22	73.5606	1,803.22	73.9624	1,803.22	72.608	1,803.22	74.3225	1,803.22	73.2132	1,803.22	73.4219	1,803.22	74.0853	1,803.22	71.9011	1,803.22	73.9252	1,803.22	70.7389	1,803.22	67.8028	1,803.22	71.6645	1,803.22	62.8071	1,803.22	72.5742
1,866.21	85.8318	1,866.21	85.2731	1,866.21	85.4628	1,866.21	84.7778	1,866.21	85.1253	1,866.21	84.188	1,866.21	84.0786	1,866.21	83.1702	1,866.21	82.9844	1,866.21	82.1696	1,866.21	81.5736	1,866.21	80.673	1,866.21	80.4924	1,866.21	79.2679	1,866.21	78.7242	1,866.21	78.6413	1,866.21	77.2158	1,866.21	76.9619	1,866.21	75.3592	1,866.21	75.7245	1,866.21	74.6679	1,866.21	73.8883	1,866.21	73.1874	1,866.21	71.1608	1,866.21	72.2446	1,866.21	73.3633	1,866.21	71.2618	1,866.21	74.2429	1,866.21	72.647	1,866.21	71.2328	1,866.21	71.1749	1,866.21	58.4111	1,866.21	67.3957	1,866.21	62.0275	1,866.21	68.1904	1,866.21	65.0591
1,932.13	84.7329	1,932.13	84.8513	1,932.13	84.9199	1,932.13	84.0774	1,932.13	84.0779	1,932.13	83.3329	1,932.13	83.7047	1,932.13	82.3149	1,932.13	82.584	1,932.13	81.0177	1,932.13	81.4526	1,932.13	79.4898	1,932.13	79.5629	1,932.13	78.7726	1,932.13	78.0184	1,932.13	76.1188	1,932.13	77.0749	1,932.13	74.9534	1,932.13	75.9279	1,932.13	72.545	1,932.13	74.2067	1,932.13	73.551	1,932.13	72.2619	1,932.13	72.243	1,932.13	69.6614	1,932.13	72.0257	1,932.13	70.1088	1,932.13	72.047	1,932.13	71.9452	1,932.13	70.6434	1,932.13	72.5574	1,932.13	68.1307	1,932.13	68.3028	1,932.13	70.7044	1,932.13	63.1599	1,932.13	71.2497
1,999.51	85.126	1,999.51	84.4418	1,999.51	84.6221	1,999.51	84.0931	1,999.51	84.7476	1,999.51	83.2573	1,999.51	83.8494	1,999.51	81.7747	1,999.51	82.9959	1,999.51	80.5476	1,999.51	81.6452	1,999.51	79.6725	1,999.51	80.6517	1,999.51	77.7621	1,999.51	79.1795	1,999.51	76.9739	1,999.51	77.8237	1,999.51	74.4847	1,999.51	75.1371	1,999.51	73.9425	1,999.51	73.2857	1,999.51	71.9431	1,999.51	73.28	1,999.51	71.9338	1,999.51	71.8577	1,999.51	72.2843	1,999.51	69.5969	1,999.51	72.401	1,999.51	71.4992	1,999.51	69.2635	1,999.51	71.7276	1,999.51	65.1408	1,999.51	68.2525	1,999.51	68.474	1,999.51	60.1745	1,999.51	65.6859
2,069.82	85.6133	2,069.82	85.4599	2,069.82	85.9035	2,069.82	84.695	2,069.82	84.9947	2,069.82	83.7836	2,069.82	84.3997	2,069.82	82.9966	2,069.82	83.4203	2,069.82	81.3266	2,069.82	82.6344	2,069.82	79.3817	2,069.82	81.2405	2,069.82	78.3326	2,069.82	79.8432	2,069.82	76.9982	2,069.82	78.5084	2,069.82	75.1322	2,069.82	78.3262	2,069.82	72.3551	2,069.82	76.3652	2,069.82	72.1015	2,069.82	73.9074	2,069.82	69.8668	2,069.82	72.6725	2,069.82	70.7404	2,069.82	72.6521	2,069.82	71.4924	2,069.82	72.2562	2,069.82	69.6534	2,069.82	70.3475	2,069.82	63.8267	2,069.82	68.4955	2,069.82	63.7817	2,069.82	69.4911	2,069.82	69.1932
2,143.07	85.533	2,143.07	85.3029	2,143.07	85.1421	2,143.07	85.1652	2,143.07	85.1862	2,143.07	84.3335	2,143.07	84.4222	2,143.07	83.107	2,143.07	83.7073	2,143.07	82.0107	2,143.07	82.4576	2,143.07	80.7403	2,143.07	80.6949	2,143.07	78.6427	2,143.07	79.4548	2,143.07	76.9048	2,143.07	78.3312	2,143.07	74.435	2,143.07	74.7856	2,143.07	74.4558	2,143.07	73.7315	2,143.07	73.5355	2,143.07	73.3829	2,143.07	73.0422	2,143.07	72.3553	2,143.07	70.9929	2,143.07	71.9753	2,143.07	71.6436	2,143.07	71.6866	2,143.07	71.4884	2,143.07	73.5654	2,143.07	67.2658	2,143.07	68.9243	2,143.07	70.2713	2,143.07	64.8607	2,143.07	71.2327
2,219.24	84.7166	2,219.24	84.5538	2,219.24	84.7344	2,219.24	83.8857	2,219.24	84.0671	2,219.24	83.8125	2,219.24	83.8354	2,219.24	83.2105	2,219.24	82.7652	2,219.24	82.1796	2,219.24	81.9286	2,219.24	80.2281	2,219.24	80.9505	2,219.24	79.0837	2,219.24	78.5481	2,219.24	78.4333	2,219.24	76.8292	2,219.24	76.4341	2,219.24	77.0573	2,219.24	72.7292	2,219.24	74.2001	2,219.24	72.4018	2,219.24	71.4341	2,219.24	70.2414	2,219.24	72.3154	2,219.24	70.4927	2,219.24	68.9322	2,219.24	71.8332	2,219.24	71.0431	2,219.24	71.7321	2,219.24	69.5123	2,219.24	67.8903	2,219.24	66.6507	2,219.24	68.2068	2,219.24	65.6213	2,219.24	67.9401
2,296.88	83.6678	2,296.88	83.4431	2,296.88	83.3548	2,296.88	83.7812	2,296.88	83.3925	2,296.88	83.154	2,296.88	82.6008	2,296.88	82.3026	2,296.88	82.5072	2,296.88	81.7622	2,296.88	81.2628	2,296.88	79.9754	2,296.88	79.5522	2,296.88	77.8755	2,296.88	78.2451	2,296.88	75.9832	2,296.88	76.391	2,296.88	74.7719	2,296.88	73.2322	2,296.88	74.3149	2,296.88	72.9875	2,296.88	72.4621	2,296.88	71.3973	2,296.88	72.868	2,296.88	68.9555	2,296.88	70.7481	2,296.88	69.6432	2,296.88	71.7066	2,296.88	68.6715	2,296.88	68.2401	2,296.88	71.5488	2,296.88	63.7831	2,296.88	69.6776	2,296.88	67.1177	2,296.88	66.6262	2,296.88	68.443
2,378.91	83.5612	2,378.91	83.3962	2,378.91	83.9172	2,378.91	82.7885	2,378.91	83.582	2,378.91	82.4041	2,378.91	83.5575	2,378.91	82.1219	2,378.91	82.3144	2,378.91	80.964	2,378.91	82.2799	2,378.91	80.0129	2,378.91	81.368	2,378.91	77.9325	2,378.91	79.3718	2,378.91	77.6291	2,378.91	77.3698	2,378.91	75.8646	2,378.91	77.0858	2,378.91	71.0356	2,378.91	73.9761	2,378.91	70.9237	2,378.91	70.9936	2,378.91	69.9778	2,378.91	72.659	2,378.91	69.7683	2,378.91	71.5576	2,378.91	69.2926	2,378.91	70.6939	2,378.91	72.3974	2,378.91	71.47	2,378.91	66.3494	2,378.91	70.4033	2,378.91	69.7029	2,378.91	61.2479	2,378.91	70.501
2,462.4	84.3666	2,462.4	84.9739	2,462.4	84.252	2,462.4	85.1231	2,462.4	84.6743	2,462.4	84.6125	2,462.4	84.0317	2,462.4	83.1657	2,462.4	84.3737	2,462.4	82.1052	2,462.4	83.3451	2,462.4	80.6633	2,462.4	82.0274	2,462.4	78.1742	2,462.4	80.8335	2,462.4	74.7189	2,462.4	78.6131	2,462.4	73.9969	2,462.4	75.7778	2,462.4	73.5237	2,462.4	76.3317	2,462.4	69.7139	2,462.4	73.0594	2,462.4	71.6028	2,462.4	70.9779	2,462.4	67.9656	2,462.4	72.2032	2,462.4	68.5941	2,462.4	70.5928	2,462.4	67.1564	2,462.4	71.9282	2,462.4	66.1581	2,462.4	69.6323	2,462.4	68.2705	2,462.4	68.9409	2,462.4	68.1049
2,548.83	85.0635	2,548.83	84.9887	2,548.83	85.1702	2,548.83	85.0158	2,548.83	85.165	2,548.83	85.0043	2,548.83	85.6856	2,548.83	84.6003	2,548.83	84.6849	2,548.83	83.5997	2,548.83	84.124	2,548.83	81.8445	2,548.83	82.973	2,548.83	80.6047	2,548.83	80.8126	2,548.83	79.1211	2,548.83	78.7575	2,548.83	76.9486	2,548.83	77.4926	2,548.83	74.2002	2,548.83	75.242	2,548.83	72.3413	2,548.83	72.7897	2,548.83	72.0575	2,548.83	72.8284	2,548.83	70.9693	2,548.83	71.3293	2,548.83	70.8783	2,548.83	72.727	2,548.83	72.4007	2,548.83	72.5216	2,548.83	64.8549	2,548.83	72.0191	2,548.83	67.5124	2,548.83	66.0508	2,548.83	69.4194
2,639.65	83.5799	2,639.65	84.3883	2,639.65	83.7162	2,639.65	84.9866	2,639.65	83.8131	2,639.65	85.3775	2,639.65	83.8865	2,639.65	84.336	2,639.65	84.1948	2,639.65	83.1446	2,639.65	82.8645	2,639.65	82.2869	2,639.65	81.415	2,639.65	80.3282	2,639.65	80.3885	2,639.65	76.7448	2,639.65	77.3603	2,639.65	75.6005	2,639.65	75.0536	2,639.65	75.3252	2,639.65	75.2065	2,639.65	71.363	2,639.65	72.0689	2,639.65	72.0074	2,639.65	67.0795	2,639.65	72.1618	2,639.65	71.4821	2,639.65	70.0345	2,639.65	68.8476	2,639.65	71.2327	2,639.65	68.4796	2,639.65	67.6206	2,639.65	68.7215	2,639.65	66.9442	2,639.65	68.2853	2,639.65	71.0094
2,731.93	83.1539	2,731.93	83.1466	2,731.93	82.9773	2,731.93	83.8311	2,731.93	83.524	2,731.93	83.7642	2,731.93	84.2772	2,731.93	83.5471	2,731.93	83.3514	2,731.93	82.5938	2,731.93	82.9906	2,731.93	80.4689	2,731.93	81.7053	2,731.93	79.2514	2,731.93	79.7633	2,731.93	77.9153	2,731.93	78.1149	2,731.93	75.2537	2,731.93	75.6836	2,731.93	73.5607	2,731.93	73.1943	2,731.93	72.2126	2,731.93	72.6427	2,731.93	71.0019	2,731.93	70.3868	2,731.93	70.8131	2,731.93	68.9646	2,731.93	68.8014	2,731.93	71.8999	2,731.93	70.4517	2,731.93	70.9926	2,731.93	65.67	2,731.93	70.6501	2,731.93	69.0818	2,731.93	64.8416	2,731.93	67.6883
2,828.61	83.0451	2,828.61	83.9805	2,828.61	83.4405	2,828.61	84.5795	2,828.61	83.8614	2,828.61	84.9458	2,828.61	83.7352	2,828.61	83.9659	2,828.61	84.5676	2,828.61	82.2244	2,828.61	82.9517	2,828.61	80.2551	2,828.61	81.5578	2,828.61	78.7971	2,828.61	79.5786	2,828.61	75.2374	2,828.61	78.2281	2,828.61	73.2986	2,828.61	73.7697	2,828.61	73.193	2,828.61	73.385	2,828.61	69.3873	2,828.61	72.5325	2,828.61	70.1488	2,828.61	68.4817	2,828.61	71.0875	2,828.61	70.6516	2,828.61	67.5345	2,828.61	67.3754	2,828.61	70.6124	2,828.61	68.6174	2,828.61	68.4313	2,828.61	68.6933	2,828.61	67.9656	2,828.61	65.6381	2,828.61	70.3132
2,928.22	83.4991	2,928.22	83.6859	2,928.22	83.8189	2,928.22	84.4017	2,928.22	84.1569	2,928.22	84.5744	2,928.22	85.1978	2,928.22	84.5523	2,928.22	84.3743	2,928.22	83.826	2,928.22	84.2327	2,928.22	81.3402	2,928.22	82.5285	2,928.22	79.5318	2,928.22	81.176	2,928.22	77.7636	2,928.22	78.0011	2,928.22	74.6312	2,928.22	77.0658	2,928.22	73.1501	2,928.22	73.7459	2,928.22	72.391	2,928.22	72.4382	2,928.22	67.7435	2,928.22	69.5403	2,928.22	70.6528	2,928.22	67.6769	2,928.22	69.2951	2,928.22	71.9857	2,928.22	70.8169	2,928.22	70.0952	2,928.22	66.9071	2,928.22	71.5456	2,928.22	68.6789	2,928.22	66.4814	2,928.22	67.6408
3,030.76	84.5722	3,030.76	85.4533	3,030.76	84.4575	3,030.76	86.0857	3,030.76	85.5961	3,030.76	86.1792	3,030.76	85.552	3,030.76	85.3705	3,030.76	85.705	3,030.76	83.6308	3,030.76	84.4176	3,030.76	81.791	3,030.76	82.8444	3,030.76	79.66	3,030.76	79.8891	3,030.76	77.4484	3,030.76	79.3693	3,030.76	74.5601	3,030.76	76.225	3,030.76	72.9408	3,030.76	73.6144	3,030.76	71.5007	3,030.76	72.9886	3,030.76	69.3962	3,030.76	69.4142	3,030.76	71.0291	3,030.76	71.0262	3,030.76	68.9968	3,030.76	70.2175	3,030.76	69.0801	3,030.76	69.166	3,030.76	69.1871	3,030.76	69.6023	3,030.76	67.8999	3,030.76	65.4571	3,030.76	70.342
3,137.7	83.2467	3,137.7	84.7028	3,137.7	84.1276	3,137.7	85.5123	3,137.7	84.223	3,137.7	85.712	3,137.7	84.8095	3,137.7	85.0052	3,137.7	85.0501	3,137.7	84.1955	3,137.7	84.1593	3,137.7	81.6181	3,137.7	82.3973	3,137.7	79.482	3,137.7	80.7793	3,137.7	77.6295	3,137.7	77.0649	3,137.7	75.6302	3,137.7	76.3822	3,137.7	73.0703	3,137.7	73.5343	3,137.7	71.011	3,137.7	72.7384	3,137.7	66.8402	3,137.7	69.6499	3,137.7	70.6194	3,137.7	66.5344	3,137.7	69.1885	3,137.7	72.3596	3,137.7	71.3067	3,137.7	67.9628	3,137.7	65.6913	3,137.7	71.3933	3,137.7	67.7358	3,137.7	66.1163	3,137.7	68.3431
3,249.02	83.6427	3,249.02	84.1047	3,249.02	83.4042	3,249.02	85.1826	3,249.02	84.8265	3,249.02	85.3122	3,249.02	85.6648	3,249.02	85.0285	3,249.02	84.5152	3,249.02	83.0418	3,249.02	83.6907	3,249.02	81.1469	3,249.02	82.0527	3,249.02	79.2774	3,249.02	79.7905	3,249.02	77.1807	3,249.02	77.9488	3,249.02	74.2749	3,249.02	76.2143	3,249.02	72.7827	3,249.02	72.5975	3,249.02	73.32	3,249.02	71.4136	3,249.02	68.3957	3,249.02	70.1085	3,249.02	70.7873	3,249.02	69.3	3,249.02	68.9988	3,249.02	69.0141	3,249.02	69.0184	3,249.02	68.9847	3,249.02	69.1619	3,249.02	69.8436	3,249.02	64.9539	3,249.02	64.9919	3,249.02	69.1983
3,363.28	83.5704	3,363.28	84.3549	3,363.28	83.5552	3,363.28	84.7519	3,363.28	83.8989	3,363.28	84.7349	3,363.28	84.0347	3,363.28	83.5148	3,363.28	84.5574	3,363.28	82.1504	3,363.28	82.6232	3,363.28	80.2699	3,363.28	81.2792	3,363.28	77.7092	3,363.28	78.7932	3,363.28	75.098	3,363.28	76.1484	3,363.28	74.1795	3,363.28	73.3084	3,363.28	70.32	3,363.28	72.5121	3,363.28	68.7605	3,363.28	70.6442	3,363.28	67.7935	3,363.28	69.0287	3,363.28	68.1376	3,363.28	66.7394	3,363.28	68.9941	3,363.28	69.811	3,363.28	70.6375	3,363.28	66.908	3,363.28	67.189	3,363.28	69.8439	3,363.28	66.8379	3,363.28	64.4473	3,363.28	66.5381
3,481.93	82.8855	3,481.93	83.7225	3,481.93	83.6354	3,481.93	84.3626	3,481.93	83.6404	3,481.93	84.4202	3,481.93	84.0652	3,481.93	83.4906	3,481.93	83.7246	3,481.93	82.5334	3,481.93	82.8464	3,481.93	80.0112	3,481.93	80.5806	3,481.93	78.5821	3,481.93	79.2638	3,481.93	76.8226	3,481.93	76.4432	3,481.93	72.4459	3,481.93	74.8364	3,481.93	71.9871	3,481.93	70.8138	3,481.93	69.9216	3,481.93	70.0623	3,481.93	65.0454	3,481.93	67.833	3,481.93	69.4305	3,481.93	63.4268	3,481.93	68.2125	3,481.93	70.5649	3,481.93	68.1913	3,481.93	66.0494	3,481.93	68.1929	3,481.93	69.1078	3,481.93	65.2836	3,481.93	64.3289	3,481.93	68.1834
3,604.98	83.6053	3,604.98	83.746	3,604.98	83.322	3,604.98	84.3477	3,604.98	83.8167	3,604.98	84.2983	3,604.98	84.3851	3,604.98	83.9442	3,604.98	83.8186	3,604.98	82.1849	3,604.98	83.0309	3,604.98	80.7029	3,604.98	81.2194	3,604.98	78.2728	3,604.98	79.0899	3,604.98	76.0911	3,604.98	77.8646	3,604.98	74.055	3,604.98	75.562	3,604.98	71.6979	3,604.98	73.2768	3,604.98	71.979	3,604.98	69.8821	3,604.98	67.6699	3,604.98	69.7295	3,604.98	67.6447	3,604.98	67.9255	3,604.98	69.0385	3,604.98	68.8656	3,604.98	69.4527	3,604.98	68.4531	3,604.98	68.4067	3,604.98	69.5137	3,604.98	66.3144	3,604.98	66.457	3,604.98	68.2751
3,732.42	84.497	3,732.42	83.8692	3,732.42	84.6931	3,732.42	84.2281	3,732.42	83.9343	3,732.42	84.4601	3,732.42	84.0176	3,732.42	83.3367	3,732.42	83.7538	3,732.42	82.3206	3,732.42	82.7023	3,732.42	80.6126	3,732.42	82.081	3,732.42	78.5552	3,732.42	80.2616	3,732.42	75.6969	3,732.42	77.3773	3,732.42	74.3572	3,732.42	74.919	3,732.42	72.1637	3,732.42	73.6258	3,732.42	69.4314	3,732.42	71.8572	3,732.42	68.5572	3,732.42	68.7849	3,732.42	67.0093	3,732.42	66.2955	3,732.42	69.2103	3,732.42	70.249	3,732.42	69.4158	3,732.42	67.1092	3,732.42	68.5009	3,732.42	70.1599	3,732.42	65.7016	3,732.42	65.8218	3,732.42	66.6715
3,864.26	83.8661	3,864.26	84.5315	3,864.26	83.9453	3,864.26	84.2232	3,864.26	84.0366	3,864.26	84.1711	3,864.26	83.4857	3,864.26	84.0202	3,864.26	83.3251	3,864.26	83.1846	3,864.26	82.5956	3,864.26	81.6264	3,864.26	81.1709	3,864.26	79.4688	3,864.26	79.4063	3,864.26	76.9748	3,864.26	76.4294	3,864.26	74.5507	3,864.26	75.6636	3,864.26	73.08	3,864.26	71.2296	3,864.26	70.5757	3,864.26	70.934	3,864.26	67.7967	3,864.26	68.4551	3,864.26	69.2176	3,864.26	65.8505	3,864.26	69.3052	3,864.26	67.207	3,864.26	67.9127	3,864.26	67.3711	3,864.26	69.4282	3,864.26	68.2829	3,864.26	66.2376	3,864.26	65.7153	3,864.26	67.9666
4,000.49	84.0417	4,000.49	83.5622	4,000.49	84.1269	4,000.49	82.614	4,000.49	83.0277	4,000.49	82.5843	4,000.49	82.2187	4,000.49	82.373	4,000.49	82.1301	4,000.49	81.5393	4,000.49	81.6961	4,000.49	79.8465	4,000.49	80.8384	4,000.49	78.5981	4,000.49	79.2106	4,000.49	75.3486	4,000.49	76.9753	4,000.49	73.2839	4,000.49	74.8243	4,000.49	70.622	4,000.49	71.7779	4,000.49	70.6776	4,000.49	70.042	4,000.49	68.2483	4,000.49	67.8604	4,000.49	66.067	4,000.49	68.3615	4,000.49	69.3058	4,000.49	67.3495	4,000.49	66.3699	4,000.49	67.3655	4,000.49	68.9928	4,000.49	68.7799	4,000.49	64.7138	4,000.49	65.5052	4,000.49	65.4996
4,141.11	85.3239	4,141.11	84.6391	4,141.11	84.7971	4,141.11	83.9936	4,141.11	84.0063	4,141.11	83.4503	4,141.11	83.4702	4,141.11	83.2786	4,141.11	82.8717	4,141.11	81.9139	4,141.11	82.4999	4,141.11	80.0443	4,141.11	81.3901	4,141.11	78.2842	4,141.11	79.7628	4,141.11	75.7389	4,141.11	77.5442	4,141.11	73.4956	4,141.11	75.3706	4,141.11	70.1241	4,141.11	72.326	4,141.11	69.2718	4,141.11	70.475	4,141.11	67.3952	4,141.11	67.4745	4,141.11	64.2558	4,141.11	67.3708	4,141.11	68.5231	4,141.11	66.3879	4,141.11	65.868	4,141.11	66.4608	4,141.11	67.974	4,141.11	67.4965	4,141.11	64.5917	4,141.11	66.1437	4,141.11	65.7903
4,287.6	86.0974	4,287.6	84.7307	4,287.6	85.8844	4,287.6	84.0111	4,287.6	83.9236	4,287.6	83.6157	4,287.6	83.5503	4,287.6	83.3278	4,287.6	82.9141	4,287.6	82.5951	4,287.6	82.4807	4,287.6	80.8189	4,287.6	81.6062	4,287.6	78.4671	4,287.6	79.4652	4,287.6	75.5237	4,287.6	77.3823	4,287.6	73.6042	4,287.6	74.7634	4,287.6	71.6252	4,287.6	72.4564	4,287.6	69.1514	4,287.6	69.8354	4,287.6	66.6303	4,287.6	68.1185	4,287.6	66.9765	4,287.6	66.0627	4,287.6	67.9529	4,287.6	67.0157	4,287.6	66.113	4,287.6	65.8763	4,287.6	68.0476	4,287.6	64.3293	4,287.6	62.2168	4,287.6	65.1002	4,287.6	65.8959
4,438.48	86.3776	4,438.48	85.5834	4,438.48	86.1663	4,438.48	83.8006	4,438.48	84.5706	4,438.48	83.4362	4,438.48	83.3096	4,438.48	83.479	4,438.48	83.6703	4,438.48	82.1374	4,438.48	82.5015	4,438.48	80.3456	4,438.48	81.3713	4,438.48	76.7367	4,438.48	79.3867	4,438.48	74.1499	4,438.48	76.4498	4,438.48	71.1855	4,438.48	74.043	4,438.48	69.4117	4,438.48	71.3409	4,438.48	67.7796	4,438.48	69.595	4,438.48	63.4876	4,438.48	67.2892	4,438.48	67.9113	4,438.48	66.715	4,438.48	66.882	4,438.48	66.8545	4,438.48	65.5403	4,438.48	66.6816	4,438.48	68.6803	4,438.48	65.5334	4,438.48	62.2789	4,438.48	65.8165	4,438.48	61.7997
4,595.21	86.9238	4,595.21	86.1023	4,595.21	86.6184	4,595.21	84.5625	4,595.21	84.9638	4,595.21	83.7261	4,595.21	83.106	4,595.21	82.8805	4,595.21	82.7131	4,595.21	81.2615	4,595.21	81.5654	4,595.21	79.5285	4,595.21	79.5614	4,595.21	77.4207	4,595.21	77.6825	4,595.21	74.0272	4,595.21	74.8411	4,595.21	69.9799	4,595.21	72.0635	4,595.21	68.8991	4,595.21	69.8145	4,595.21	67.4169	4,595.21	65.8251	4,595.21	64.0201	4,595.21	66.1495	4,595.21	62.3112	4,595.21	63.2209	4,595.21	63.2945	4,595.21	65.7213	4,595.21	61.7436	4,595.21	63.8918	4,595.21	65.7512	4,595.21	63.5054	4,595.21	60.6362	4,595.21	65.2289	4,595.21	61.92
4,756.35	87.6741	4,756.35	86.4854	4,756.35	87.4884	4,756.35	85.0139	4,756.35	86.0983	4,756.35	83.4954	4,756.35	83.8898	4,756.35	82.6987	4,756.35	82.8455	4,756.35	80.5348	4,756.35	81.5753	4,756.35	77.6038	4,756.35	79.3986	4,756.35	75.0674	4,756.35	77.1194	4,756.35	73.2335	4,756.35	73.1151	4,756.35	69.2602	4,756.35	71.2452	4,756.35	69.0015	4,756.35	66.5679	4,756.35	66.3416	4,756.35	65.0552	4,756.35	64.1492	4,756.35	66.0563	4,756.35	64.527	4,756.35	59.7812	4,756.35	61.7383	4,756.35	64.0104	4,756.35	61.3521	4,756.35	58.226	4,756.35	64.5464	4,756.35	60.1947	4,756.35	57.8063	4,756.35	63.3869	4,756.35	58.8745
4,924.8	87.8549	4,924.8	86.9529	4,924.8	87.3886	4,924.8	85.3904	4,924.8	85.8894	4,924.8	84.4764	4,924.8	83.6114	4,924.8	83.6486	4,924.8	82.4814	4,924.8	81.9564	4,924.8	81.3781	4,924.8	79.6573	4,924.8	79.2148	4,924.8	77.6667	4,924.8	76.5982	4,924.8	74.535	4,924.8	73.3681	4,924.8	70.8862	4,924.8	72.068	4,924.8	69.3244	4,924.8	68.3282	4,924.8	65.2689	4,924.8	67.3982	4,924.8	65.165	4,924.8	63.8173	4,924.8	63.0657	4,924.8	64.0695	4,924.8	63.1127	4,924.8	63.529	4,924.8	63.9166	4,924.8	57.8346	4,924.8	64.1827	4,924.8	57.1259	4,924.8	57.021	4,924.8	62.474	4,924.8	60.0607
5,097.66	87.2988	5,097.66	86.1864	5,097.66	86.8193	5,097.66	84.8735	5,097.66	85.3593	5,097.66	84.0007	5,097.66	83.9275	5,097.66	83.5382	5,097.66	82.8718	5,097.66	81.8668	5,097.66	81.2678	5,097.66	80.0774	5,097.66	79.8234	5,097.66	77.5337	5,097.66	77.2866	5,097.66	75.6066	5,097.66	74.083	5,097.66	73.6142	5,097.66	71.795	5,097.66	71.4016	5,097.66	69.0298	5,097.66	68.1572	5,097.66	67.484	5,097.66	67.9601	5,097.66	67.172	5,097.66	65.0673	5,097.66	65.3424	5,097.66	66.3907	5,097.66	66.9603	5,097.66	64.2588	5,097.66	61.3631	5,097.66	66.7201	5,097.66	56.9077	5,097.66	63.314	5,097.66	63.1908	5,097.66	56.2877
5,277.83	87.1864	5,277.83	86.5671	5,277.83	86.7729	5,277.83	84.9679	5,277.83	85.187	5,277.83	84.3173	5,277.83	83.8497	5,277.83	83.6035	5,277.83	83.016	5,277.83	82.2247	5,277.83	81.2621	5,277.83	79.8847	5,277.83	79.0472	5,277.83	78.1774	5,277.83	76.7625	5,277.83	73.7516	5,277.83	74.4076	5,277.83	72.7949	5,277.83	71.617	5,277.83	67.9815	5,277.83	67.9885	5,277.83	66.5936	5,277.83	67.4728	5,277.83	66.6154	5,277.83	63.2395	5,277.83	62.9193	5,277.83	63.7581	5,277.83	66.4688	5,277.83	67.3986	5,277.83	62.303	5,277.83	62.396	5,277.83	64.6576	5,277.83	63.2593	5,277.83	58.3178	5,277.83	64.1658	5,277.83	54.5309
5,463.87	87.362	5,463.87	86.7464	5,463.87	86.8081	5,463.87	85.7374	5,463.87	85.7943	5,463.87	84.5191	5,463.87	84.4866	5,463.87	84.1192	5,463.87	83.5174	5,463.87	82.4216	5,463.87	81.6289	5,463.87	80.3717	5,463.87	79.5094	5,463.87	78.7087	5,463.87	77.0368	5,463.87	75.7256	5,463.87	74.5611	5,463.87	73.0314	5,463.87	71.8936	5,463.87	69.2264	5,463.87	69.1807	5,463.87	68.2281	5,463.87	69.1945	5,463.87	63.6624	5,463.87	64.4608	5,463.87	63.9982	5,463.87	65.3484	5,463.87	65.9339	5,463.87	66.9297	5,463.87	64.6135	5,463.87	64.9572	5,463.87	66.3888	5,463.87	64.745	5,463.87	59.1471	5,463.87	65.2393	5,463.87	55.9628
5,657.23	87.4905	5,657.23	87.234	5,657.23	87.3717	5,657.23	86.0606	5,657.23	86.3715	5,657.23	84.4038	5,657.23	84.6912	5,657.23	83.2579	5,657.23	83.1233	5,657.23	81.1621	5,657.23	81.204	5,657.23	79.151	5,657.23	79.7042	5,657.23	75.7888	5,657.23	77.0769	5,657.23	73.5929	5,657.23	74.0622	5,657.23	71.3549	5,657.23	70.5717	5,657.23	69.0576	5,657.23	69.2103	5,657.23	66.2128	5,657.23	65.9514	5,657.23	64.1803	5,657.23	63.6069	5,657.23	64.0583	5,657.23	63.0413	5,657.23	63.87	5,657.23	63.3863	5,657.23	64.4311	5,657.23	62.6195	5,657.23	65.7202	5,657.23	62.833	5,657.23	60.7287	5,657.23	66.1039	5,657.23	54.449
5,856.45	86.9881	5,856.45	86.8609	5,856.45	86.8593	5,856.45	85.8714	5,856.45	86.3239	5,856.45	84.3429	5,856.45	84.4194	5,856.45	83.2495	5,856.45	82.8275	5,856.45	81.2586	5,856.45	80.4937	5,856.45	79.3859	5,856.45	78.9567	5,856.45	77.1995	5,856.45	76.7082	5,856.45	74.6393	5,856.45	73.6744	5,856.45	71.6639	5,856.45	70.6844	5,856.45	67.804	5,856.45	67.9637	5,856.45	66.3408	5,856.45	65.0065	5,856.45	61.0163	5,856.45	63.8687	5,856.45	57.5731	5,856.45	62.9489	5,856.45	60.2607	5,856.45	60.9024	5,856.45	61.9499	5,856.45	60.1564	5,856.45	63.7589	5,856.45	59.7696	5,856.45	56.2491	5,856.45	64.1103	5,856.45	54.8835
6,062.99	87.8119	6,062.99	87.6599	6,062.99	87.7301	6,062.99	86.4085	6,062.99	87.0427	6,062.99	84.5312	6,062.99	85.0525	6,062.99	82.9073	6,062.99	83.0314	6,062.99	81.0851	6,062.99	81.1743	6,062.99	79.0319	6,062.99	79.5503	6,062.99	76.6556	6,062.99	77.0208	6,062.99	72.8619	6,062.99	73.5844	6,062.99	70.1571	6,062.99	70.2292	6,062.99	67.5407	6,062.99	67.3383	6,062.99	65.903	6,062.99	65.5304	6,062.99	60.4395	6,062.99	63.4805	6,062.99	57.5926	6,062.99	62.1288	6,062.99	61.0266	6,062.99	59.6649	6,062.99	61.9711	6,062.99	59.7132	6,062.99	63.2758	6,062.99	61.5215	6,062.99	55.919	6,062.99	64.6075	6,062.99	46.6232
6,276.86	87.5651	6,276.86	87.015	6,276.86	87.3402	6,276.86	85.6535	6,276.86	86.3715	6,276.86	83.7043	6,276.86	84.1167	6,276.86	82.9176	6,276.86	82.5889	6,276.86	81.5069	6,276.86	81.3311	6,276.86	79.4121	6,276.86	80.0733	6,276.86	77.1254	6,276.86	77.4202	6,276.86	73.0644	6,276.86	73.2378	6,276.86	70.5667	6,276.86	69.702	6,276.86	67.2913	6,276.86	66.3037	6,276.86	64.8609	6,276.86	62.533	6,276.86	61.3405	6,276.86	62.4926	6,276.86	60.2999	6,276.86	60.1818	6,276.86	55.466	6,276.86	54.379	6,276.86	61.1113	6,276.86	56.6588	6,276.86	61.7286	6,276.86	61.4723	6,276.86	58.3337	6,276.86	64.157	6,276.86	50.6015
6,498.05	87.3849	6,498.05	86.6914	6,498.05	87.023	6,498.05	84.9803	6,498.05	85.7168	6,498.05	83.202	6,498.05	83.4925	6,498.05	82.7308	6,498.05	82.307	6,498.05	80.9591	6,498.05	81.2769	6,498.05	78.3846	6,498.05	79.501	6,498.05	74.7049	6,498.05	76.4479	6,498.05	70.8606	6,498.05	72.9371	6,498.05	68.3525	6,498.05	69.1882	6,498.05	64.7614	6,498.05	63.7188	6,498.05	63.1908	6,498.05	63.3059	6,498.05	59.4359	6,498.05	60.1015	6,498.05	61.3059	6,498.05	56.9765	6,498.05	52.818	6,498.05	50.0863	6,498.05	60.5874	6,498.05	56.5137	6,498.05	59.2724	6,498.05	60.725	6,498.05	58.8093	6,498.05	62.4971	6,498.05	50.3179
6,726.56	87.5471	6,726.56	87.0938	6,726.56	87.5638	6,726.56	85.3709	6,726.56	86.305	6,726.56	83.5391	6,726.56	84.0504	6,726.56	82.9661	6,726.56	82.8234	6,726.56	80.9106	6,726.56	81.9457	6,726.56	77.9697	6,726.56	79.793	6,726.56	74.5611	6,726.56	76.0458	6,726.56	72.2973	6,726.56	72.5384	6,726.56	67.9949	6,726.56	69.1883	6,726.56	66.5937	6,726.56	66.9211	6,726.56	64.3017	6,726.56	63.6915	6,726.56	59.6891	6,726.56	61.6532	6,726.56	60.3318	6,726.56	59.8806	6,726.56	55.3186	6,726.56	55.7463	6,726.56	61.2701	6,726.56	57.0293	6,726.56	60.2281	6,726.56	61.3573	6,726.56	56.0677	6,726.56	62.1974	6,726.56	50.1684
6,963.87	86.9739	6,963.87	86.5858	6,963.87	86.8515	6,963.87	85.0675	6,963.87	85.9004	6,963.87	83.0151	6,963.87	83.6862	6,963.87	82.0984	6,963.87	82.4998	6,963.87	79.9398	6,963.87	80.9363	6,963.87	77.0201	6,963.87	78.5719	6,963.87	73.3583	6,963.87	75.1684	6,963.87	71.7104	6,963.87	71.6883	6,963.87	68.7151	6,963.87	69.1179	6,963.87	67.0593	6,963.87	66.6691	6,963.87	64.2106	6,963.87	62.3284	6,963.87	62.2515	6,963.87	60.7776	6,963.87	60.4679	6,963.87	56.916	6,963.87	55.2635	6,963.87	54.3635	6,963.87	62.484	6,963.87	53.088	6,963.87	61.5794	6,963.87	58.5448	6,963.87	57.1931	6,963.87	59.1208	6,963.87	46.4411
7,209.96	87.223	7,209.96	87.0152	7,209.96	87.316	7,209.96	85.7611	7,209.96	86.5919	7,209.96	83.6031	7,209.96	84.2279	7,209.96	82.467	7,209.96	82.7594	7,209.96	80.2232	7,209.96	80.7504	7,209.96	78.0814	7,209.96	78.8692	7,209.96	75.1169	7,209.96	76.0714	7,209.96	72.04	7,209.96	73.8057	7,209.96	69.7038	7,209.96	70.7023	7,209.96	66.4347	7,209.96	67.3446	7,209.96	64.5467	7,209.96	64.7751	7,209.96	62.6502	7,209.96	63.3459	7,209.96	58.5629	7,209.96	60.6467	7,209.96	53.3329	7,209.96	55.5719	7,209.96	58.5531	7,209.96	53.2402	7,209.96	60.8389	7,209.96	58.5049	7,209.96	55.2014	7,209.96	61.926	7,209.96	53.3905
7,464.84	87.3129	7,464.84	87.0572	7,464.84	87.348	7,464.84	85.8091	7,464.84	86.7148	7,464.84	83.1826	7,464.84	84.3026	7,464.84	81.9899	7,464.84	82.6126	7,464.84	79.7183	7,464.84	80.6885	7,464.84	77.9784	7,464.84	78.981	7,464.84	76.1853	7,464.84	76.9055	7,464.84	72.5138	7,464.84	73.5162	7,464.84	70.3505	7,464.84	71.9384	7,464.84	66.0898	7,464.84	67.8927	7,464.84	64.738	7,464.84	66.5307	7,464.84	62.0554	7,464.84	64.9961	7,464.84	58.0728	7,464.84	57.8569	7,464.84	54.73	7,464.84	57.552	7,464.84	59.8731	7,464.84	57.844	7,464.84	60.171	7,464.84	62.2458	7,464.84	54.434	7,464.84	60.4425	7,464.84	51.0553
7,727.05	86.7816	7,727.05	86.4676	7,727.05	86.6589	7,727.05	84.8958	7,727.05	86.2773	7,727.05	82.5241	7,727.05	84.0575	7,727.05	81.3151	7,727.05	82.3164	7,727.05	79.341	7,727.05	80.5655	7,727.05	77.5135	7,727.05	78.4885	7,727.05	75.252	7,727.05	76.3692	7,727.05	72.0911	7,727.05	73.9235	7,727.05	68.9081	7,727.05	71.1404	7,727.05	67.3891	7,727.05	67.7324	7,727.05	64.7664	7,727.05	66.0807	7,727.05	62.0535	7,727.05	64.3236	7,727.05	58.4238	7,727.05	57.6554	7,727.05	54.3519	7,727.05	57.7643	7,727.05	57.1385	7,727.05	56.7666	7,727.05	59.7428	7,727.05	60.8016	7,727.05	56.8612	7,727.05	60.4376	7,727.05	43.0528
7,999.51	86.9853	7,999.51	86.5943	7,999.51	86.9344	7,999.51	85.5642	7,999.51	86.19	7,999.51	83.2193	7,999.51	84.338	7,999.51	81.5011	7,999.51	82.0461	7,999.51	79.6654	7,999.51	80.1646	7,999.51	77.8049	7,999.51	78.7879	7,999.51	74.2891	7,999.51	76.4046	7,999.51	72.0638	7,999.51	72.7621	7,999.51	68.3722	7,999.51	70.4107	7,999.51	66.117	7,999.51	68.0977	7,999.51	62.5248	7,999.51	65.5506	7,999.51	62.2701	7,999.51	63.531	7,999.51	60.2128	7,999.51	57.4701	7,999.51	51.8875	7,999.51	57.8631	7,999.51	55.6673	7,999.51	56.0062	7,999.51	58.6983	7,999.51	60.982	7,999.51	57.1379	7,999.51	60.563	7,999.51	53.1656
8,282.23	86.5537	8,282.23	86.0097	8,282.23	86.5414	8,282.23	85.1116	8,282.23	85.6832	8,282.23	82.3964	8,282.23	83.737	8,282.23	80.3898	8,282.23	81.1572	8,282.23	78.7216	8,282.23	79.5007	8,282.23	77.3217	8,282.23	78.3618	8,282.23	73.4334	8,282.23	75.7543	8,282.23	71.0009	8,282.23	72.6812	8,282.23	67.6152	8,282.23	69.0614	8,282.23	65.5216	8,282.23	66.2093	8,282.23	63.06	8,282.23	62.9968	8,282.23	63.1381	8,282.23	61.2167	8,282.23	59.0605	8,282.23	59.4698	8,282.23	49.7471	8,282.23	58.9701	8,282.23	55.0108	8,282.23	53.3943	8,282.23	58.1085	8,282.23	59.1309	8,282.23	57.399	8,282.23	59.3542	8,282.23	48.0511
8,573.73	87.0679	8,573.73	86.1377	8,573.73	86.8869	8,573.73	85.0078	8,573.73	85.9335	8,573.73	82.2711	8,573.73	83.9231	8,573.73	80.6808	8,573.73	81.3688	8,573.73	79.0973	8,573.73	79.4973	8,573.73	77.3829	8,573.73	78.6049	8,573.73	74.8607	8,573.73	76.6005	8,573.73	71.118	8,573.73	72.9043	8,573.73	68.7603	8,573.73	70.0456	8,573.73	65.3776	8,573.73	66.0269	8,573.73	64.6702	8,573.73	64.7977	8,573.73	61.9698	8,573.73	62.4798	8,573.73	55.7899	8,573.73	56.0475	8,573.73	50.1638	8,573.73	58.552	8,573.73	53.1203	8,573.73	53.7772	8,573.73	58.2785	8,573.73	57.735	8,573.73	57.9526	8,573.73	59.572	8,573.73	47.0277
8,876.95	86.8661	8,876.95	85.6449	8,876.95	86.2939	8,876.95	84.4114	8,876.95	85.4326	8,876.95	81.537	8,876.95	82.9625	8,876.95	80.2402	8,876.95	80.7326	8,876.95	78.5845	8,876.95	78.7421	8,876.95	76.7453	8,876.95	77.483	8,876.95	74.708	8,876.95	75.5163	8,876.95	71.113	8,876.95	71.9685	8,876.95	68.4373	8,876.95	69.3147	8,876.95	64.7001	8,876.95	65.3296	8,876.95	62.8777	8,876.95	64.0135	8,876.95	59.452	8,876.95	60.5672	8,876.95	58.9239	8,876.95	57.441	8,876.95	55.4144	8,876.95	59.5893	8,876.95	55.505	8,876.95	51.4785	8,876.95	56.9103	8,876.95	57.4862	8,876.95	56.9476	8,876.95	57.4289	8,876.95	46.8393
9,188.96	87.2814	9,188.96	86.1914	9,188.96	86.8288	9,188.96	84.6908	9,188.96	85.614	9,188.96	82.0794	9,188.96	83.313	9,188.96	80.2471	9,188.96	80.6214	9,188.96	78.4538	9,188.96	78.5878	9,188.96	76.8025	9,188.96	77.15	9,188.96	73.5694	9,188.96	74.5155	9,188.96	71.0682	9,188.96	71.6569	9,188.96	66.8476	9,188.96	68.7613	9,188.96	65.0488	9,188.96	65.3394	9,188.96	62.8183	9,188.96	63.745	9,188.96	61.138	9,188.96	61.1191	9,188.96	59.1353	9,188.96	57.4164	9,188.96	54.9139	9,188.96	59.5503	9,188.96	54.7006	9,188.96	54.7389	9,188.96	56.0071	9,188.96	57.0089	9,188.96	57.8552	9,188.96	58.3439	9,188.96	36.6558
9,514.16	87.2681	9,514.16	86.0616	9,514.16	86.9124	9,514.16	84.7782	9,514.16	85.3274	9,514.16	81.7401	9,514.16	82.906	9,514.16	79.7783	9,514.16	80.1715	9,514.16	77.8258	9,514.16	77.6849	9,514.16	76.3228	9,514.16	76.4357	9,514.16	73.0417	9,514.16	73.8901	9,514.16	70.8732	9,514.16	70.4859	9,514.16	67.3494	9,514.16	67.2501	9,514.16	64.7298	9,514.16	64.3032	9,514.16	62.5887	9,514.16	61.7066	9,514.16	60.9655	9,514.16	58.332	9,514.16	58.0228	9,514.16	55.9013	9,514.16	56.4	9,514.16	58.228	9,514.16	54.8455	9,514.16	53.6255	9,514.16	58.253	9,514.16	53.8947	9,514.16	56.8948	9,514.16	56.0336	9,514.16	40.4897
9,849.61	87.8062	9,849.61	86.5074	9,849.61	87.3909	9,849.61	84.9876	9,849.61	85.6304	9,849.61	82.1742	9,849.61	82.8734	9,849.61	80.1183	9,849.61	80.2764	9,849.61	78.0642	9,849.61	77.266	9,849.61	76.8224	9,849.61	76.614	9,849.61	73.8786	9,849.61	74.8536	9,849.61	69.5443	9,849.61	71.1899	9,849.61	67.2516	9,849.61	66.9552	9,849.61	62.7149	9,849.61	63.759	9,849.61	61.4946	9,849.61	60.5407	9,849.61	60.0006	9,849.61	58.6944	9,849.61	57.0282	9,849.61	57.5095	9,849.61	55.8759	9,849.61	58.3399	9,849.61	53.1688	9,849.61	52.4316	9,849.61	57.9246	9,849.61	52.5087	9,849.61	56.1846	9,849.61	56.7193	9,849.61	43.7318
10,196.8	88.0225	10,196.8	86.958	10,196.8	87.6442	10,196.8	85.061	10,196.8	86.1239	10,196.8	82.36	10,196.8	83.3818	10,196.8	80.0084	10,196.8	80.6539	10,196.8	77.7221	10,196.8	77.5216	10,196.8	76.2543	10,196.8	76.5576	10,196.8	73.1091	10,196.8	74.4004	10,196.8	69.0894	10,196.8	70.5095	10,196.8	65.3178	10,196.8	66.8053	10,196.8	61.7136	10,196.8	62.9632	10,196.8	61.0036	10,196.8	60.7125	10,196.8	58.5333	10,196.8	58.9569	10,196.8	58.3598	10,196.8	56.1525	10,196.8	56.1189	10,196.8	57.9615	10,196.8	52.1205	10,196.8	53.4128	10,196.8	55.2561	10,196.8	50.3282	10,196.8	55.2873	10,196.8	56.4341	10,196.8	42.4515
10,555.7	88.3797	10,555.7	87.3324	10,555.7	87.9816	10,555.7	85.4027	10,555.7	86.3463	10,555.7	82.553	10,555.7	83.6395	10,555.7	79.8893	10,555.7	80.3897	10,555.7	77.3303	10,555.7	77.2691	10,555.7	75.4655	10,555.7	76.0232	10,555.7	71.6738	10,555.7	73.0233	10,555.7	68.5349	10,555.7	69.1595	10,555.7	64.3434	10,555.7	65.8089	10,555.7	61.5404	10,555.7	63.1479	10,555.7	59.7643	10,555.7	60.0388	10,555.7	59.2603	10,555.7	58.5044	10,555.7	59.4574	10,555.7	56.8302	10,555.7	55.0916	10,555.7	57.8462	10,555.7	53.4363	10,555.7	53.7574	10,555.7	53.8407	10,555.7	50.6474	10,555.7	56.7486	10,555.7	55.5186	10,555.7	42.9851
10,927.7	88.8388	10,927.7	87.6542	10,927.7	88.4067	10,927.7	85.5975	10,927.7	86.4833	10,927.7	82.3951	10,927.7	83.5379	10,927.7	79.4279	10,927.7	80.3586	10,927.7	76.734	10,927.7	77.2635	10,927.7	74.9383	10,927.7	75.5291	10,927.7	70.8992	10,927.7	72.9235	10,927.7	68.4	10,927.7	69.3902	10,927.7	64.9111	10,927.7	66.1513	10,927.7	61.3966	10,927.7	62.4527	10,927.7	59.5721	10,927.7	59.3353	10,927.7	59.277	10,927.7	58.5712	10,927.7	58.6309	10,927.7	57.4079	10,927.7	56.6326	10,927.7	57.5878	10,927.7	51.8185	10,927.7	53.5665	10,927.7	53.8481	10,927.7	50.9926	10,927.7	55.1785	10,927.7	54.1702	10,927.7	45.312
11,313	88.9957	11,313	87.7551	11,313	88.6107	11,313	85.499	11,313	86.5736	11,313	82.2701	11,313	83.5093	11,313	79.375	11,313	80.1157	11,313	76.3744	11,313	77.0872	11,313	75.1903	11,313	75.3316	11,313	71.4153	11,313	73.3715	11,313	68.6476	11,313	70.2921	11,313	65.1896	11,313	66.4984	11,313	61.2278	11,313	62.3064	11,313	60.4634	11,313	59.8492	11,313	59.9366	11,313	58.5582	11,313	59.3817	11,313	56.0354	11,313	54.8192	11,313	57.0659	11,313	52.2338	11,313	54.0349	11,313	53.9806	11,313	51.9348	11,313	54.5806	11,313	55.2253	11,313	47.5691
11,712.9	89.1749	11,712.9	87.9208	11,712.9	88.833	11,712.9	85.6531	11,712.9	86.7383	11,712.9	82.5064	11,712.9	83.7208	11,712.9	79.3714	11,712.9	80.3139	11,712.9	76.5513	11,712.9	76.8739	11,712.9	75.6572	11,712.9	75.6324	11,712.9	71.9043	11,712.9	73.7037	11,712.9	68.7797	11,712.9	70.2064	11,712.9	65.2506	11,712.9	66.7302	11,712.9	60.5315	11,712.9	62.7691	11,712.9	60.1314	11,712.9	60.3507	11,712.9	60.2072	11,712.9	57.9519	11,712.9	59.8695	11,712.9	55.7754	11,712.9	55.4694	11,712.9	56.0779	11,712.9	53.6055	11,712.9	53.3777	11,712.9	53.898	11,712.9	50.0478	11,712.9	55.604	11,712.9	56.4853	11,712.9	42.1587
12,126	89.2141	12,126	87.8729	12,126	88.7409	12,126	85.6046	12,126	86.7079	12,126	82.3927	12,126	83.5617	12,126	79.3226	12,126	80.2437	12,126	76.6584	12,126	76.5945	12,126	75.833	12,126	75.8909	12,126	72.0963	12,126	74.0427	12,126	68.723	12,126	70.5135	12,126	65.3403	12,126	67.3039	12,126	60.5779	12,126	62.8594	12,126	60.4408	12,126	60.21	12,126	59.5679	12,126	57.203	12,126	58.0621	12,126	54.8926	12,126	55.0181	12,126	56.2706	12,126	51.1945	12,126	52.6944	12,126	54.3168	12,126	50.2135	12,126	55.2774	12,126	55.8891	12,126	42.7486
12,553.7	89.1278	12,553.7	87.6351	12,553.7	88.5278	12,553.7	85.5253	12,553.7	86.5574	12,553.7	82.1102	12,553.7	83.0803	12,553.7	79.4002	12,553.7	80.5237	12,553.7	76.7109	12,553.7	77.0129	12,553.7	75.8484	12,553.7	76.2944	12,553.7	72.5408	12,553.7	74.6581	12,553.7	68.7023	12,553.7	71.1627	12,553.7	65.0636	12,553.7	67.9983	12,553.7	60.7753	12,553.7	63.1378	12,553.7	61.3723	12,553.7	61.0689	12,553.7	58.4922	12,553.7	57.8222	12,553.7	57.9784	12,553.7	54.3278	12,553.7	53.7465	12,553.7	55.0719	12,553.7	50.9583	12,553.7	53.3246	12,553.7	54.8075	12,553.7	48.8161	12,553.7	56.2448	12,553.7	55.4439	12,553.7	44.9458
12,996.1	89.1552	12,996.1	87.6718	12,996.1	88.5269	12,996.1	85.3587	12,996.1	86.551	12,996.1	82.1618	12,996.1	83.2057	12,996.1	79.7115	12,996.1	80.6705	12,996.1	76.6142	12,996.1	77.84	12,996.1	75.8015	12,996.1	76.8776	12,996.1	72.3694	12,996.1	75.5411	12,996.1	68.5732	12,996.1	71.5437	12,996.1	64.8963	12,996.1	68.4765	12,996.1	61.0484	12,996.1	64.0407	12,996.1	60.9624	12,996.1	61.3893	12,996.1	58.1005	12,996.1	58.6333	12,996.1	57.4496	12,996.1	54.7347	12,996.1	52.6368	12,996.1	55.2952	12,996.1	51.0403	12,996.1	54.4992	12,996.1	54.2622	12,996.1	49.8307	12,996.1	57.4199	12,996.1	55.4061	12,996.1	46.1327
13,454.6	89.0475	13,454.6	87.5288	13,454.6	88.321	13,454.6	85.2297	13,454.6	86.4991	13,454.6	82.3916	13,454.6	83.3631	13,454.6	79.7574	13,454.6	81.1778	13,454.6	76.38	13,454.6	78.3698	13,454.6	75.7233	13,454.6	77.0953	13,454.6	72.1262	13,454.6	75.2587	13,454.6	68.3854	13,454.6	71.8119	13,454.6	64.6286	13,454.6	68.4156	13,454.6	61.339	13,454.6	63.9984	13,454.6	60.4337	13,454.6	61.1539	13,454.6	57.2785	13,454.6	57.8122	13,454.6	57.1322	13,454.6	53.2991	13,454.6	51.9003	13,454.6	54.0822	13,454.6	51.3079	13,454.6	53.7493	13,454.6	53.8369	13,454.6	50.1795	13,454.6	57.7874	13,454.6	55.3485	13,454.6	46.4203
13,929.2	88.8434	13,929.2	87.4691	13,929.2	88.146	13,929.2	85.2023	13,929.2	86.3813	13,929.2	82.3712	13,929.2	83.3605	13,929.2	79.5969	13,929.2	81.4112	13,929.2	75.9254	13,929.2	78.7987	13,929.2	75.3044	13,929.2	76.8111	13,929.2	71.6698	13,929.2	74.8507	13,929.2	67.7491	13,929.2	71.6294	13,929.2	64.4656	13,929.2	67.8472	13,929.2	61.0623	13,929.2	63.4592	13,929.2	60.1994	13,929.2	59.7437	13,929.2	56.9219	13,929.2	57.5173	13,929.2	53.9798	13,929.2	53.521	13,929.2	51.2855	13,929.2	53.3619	13,929.2	47.8434	13,929.2	53.8979	13,929.2	52.7513	13,929.2	50.873	13,929.2	56.6603	13,929.2	52.9946	13,929.2	45.7285
14,419.9	88.683	14,419.9	87.3682	14,419.9	88.003	14,419.9	85.2412	14,419.9	86.2377	14,419.9	82.0785	14,419.9	83.1988	14,419.9	79.5819	14,419.9	81.3516	14,419.9	75.4656	14,419.9	78.2839	14,419.9	75.0154	14,419.9	76.062	14,419.9	71.6882	14,419.9	73.9836	14,419.9	67.9221	14,419.9	70.4283	14,419.9	64.6113	14,419.9	66.8598	14,419.9	61.1402	14,419.9	62.2379	14,419.9	60.148	14,419.9	59.2314	14,419.9	55.833	14,419.9	56.6838	14,419.9	55.6917	14,419.9	52.6105	14,419.9	46.3508	14,419.9	52.1598	14,419.9	45.1847	14,419.9	51.0168	14,419.9	49.6345	14,419.9	50.4058	14,419.9	55.5561	14,419.9	52.9148	14,419.9	46.11
14,928.2	88.6777	14,928.2	87.5202	14,928.2	87.9251	14,928.2	85.5122	14,928.2	86.3894	14,928.2	82.5385	14,928.2	83.5591	14,928.2	79.988	14,928.2	81.5775	14,928.2	75.307	14,928.2	78.0817	14,928.2	74.8124	14,928.2	75.3923	14,928.2	71.6261	14,928.2	73.4801	14,928.2	67.4765	14,928.2	69.7346	14,928.2	64.1594	14,928.2	65.9811	14,928.2	60.7824	14,928.2	61.6156	14,928.2	59.9159	14,928.2	57.9485	14,928.2	54.5019	14,928.2	55.3341	14,928.2	53.5802	14,928.2	52.2594	14,928.2	46.6107	14,928.2	50.7005	14,928.2	42.1978	14,928.2	49.1426	14,928.2	44.3495	14,928.2	50.0661	14,928.2	53.0154	14,928.2	50.3031	14,928.2	43.9513
15,455.6	88.5225	15,455.6	87.4526	15,455.6	87.6075	15,455.6	85.3394	15,455.6	86.0143	15,455.6	82.1054	15,455.6	83.0883	15,455.6	78.9923	15,455.6	80.5706	15,455.6	73.857	15,455.6	76.6657	15,455.6	73.1184	15,455.6	72.9915	15,455.6	69.5607	15,455.6	70.235	15,455.6	65.2333	15,455.6	67.2325	15,455.6	61.8304	15,455.6	62.5483	15,455.6	58.7345	15,455.6	56.8635	15,455.6	58.008	15,455.6	55.0437	15,455.6	52.2743	15,455.6	53.3112	15,455.6	52.2827	15,455.6	48.0349	15,455.6	44.3343	15,455.6	44.7487	15,455.6	32.4502	15,455.6	43.8016	15,455.6	30.313	15,455.6	50.0931	15,455.6	47.0869	15,455.6	47.8688	15,455.6	43.616
16,000.5	87.8676	16,000.5	86.5484	16,000.5	86.8382	16,000.5	84.3702	16,000.5	84.7437	16,000.5	80.5722	16,000.5	81.2897	16,000.5	77.3682	16,000.5	78.3527	16,000.5	71.9327	16,000.5	73.9061	16,000.5	71.2558	16,000.5	69.2042	16,000.5	67.9007	16,000.5	65.4357	16,000.5	63.9316	16,000.5	61.2063	16,000.5	60.2733	16,000.5	56.8156	16,000.5	57.4713	16,000.5	55.1205	16,000.5	55.908	16,000.5	49.0538	16,000.5	49.9949	16,000.5	43.7672	16,000.5	52.0617	16,000.5	41.0897	16,000.5	40.9859	16,000.5	38.5973	16,000.5	40.0611	16,000.5	41.4994	16,000.5	41.7072	16,000.5	46.8619	16,000.5	43.9582	16,000.5	43.4962	16,000.5	41.7855
16,564.5	82.2643	16,564.5	82.1366	16,564.5	81.2873	16,564.5	81.6472	16,564.5	81.239	16,564.5	79.9687	16,564.5	80.6749	16,564.5	78.1188	16,564.5	79.1368	16,564.5	73.509	16,564.5	75.5673	16,564.5	72.7967	16,564.5	72.0289	16,564.5	70.3333	16,564.5	69.6352	16,564.5	64.713	16,564.5	66.2623	16,564.5	62.7079	16,564.5	62.2309	16,564.5	57.5507	16,564.5	57.0298	16,564.5	57.2422	16,564.5	53.5805	16,564.5	51.9778	16,564.5	52.1771	16,564.5	51.3747	16,564.5	43.5096	16,564.5	34.8339	16,564.5	46.6847	16,564.5	45.205	16,564.5	47.0508	16,564.5	37.8288	16,564.5	47.4039	16,564.5	44.9196	16,564.5	42.4112	16,564.5	44.2632
17,148.9	89.3407	17,148.9	88.1767	17,148.9	88.5835	17,148.9	86.3116	17,148.9	87.017	17,148.9	82.3078	17,148.9	83.7222	17,148.9	78.7238	17,148.9	80.1502	17,148.9	72.1438	17,148.9	75.3034	17,148.9	69.2002	17,148.9	69.5983	17,148.9	65.1609	17,148.9	64.472	17,148.9	56.5411	17,148.9	62.0448	17,148.9	56.1026	17,148.9	57.87	17,148.9	48.6851	17,148.9	52.6447	17,148.9	53.3286	17,148.9	49.1707	17,148.9	48.9596	17,148.9	47.4525	17,148.9	51.3377	17,148.9	45.6399	17,148.9	41.0107	17,148.9	40.4783	17,148.9	40.0235	17,148.9	36.6903	17,148.9	43.4318	17,148.9	47.3538	17,148.9	28.5926	17,148.9	45.8202	17,148.9	42.9358
17,752.4	88.9932	17,752.4	87.1593	17,752.4	88.1305	17,752.4	84.1923	17,752.4	85.7985	17,752.4	78.7648	17,752.4	81.1759	17,752.4	73.2449	17,752.4	75.5621	17,752.4	63.6466	17,752.4	68.0612	17,752.4	54.738	17,752.4	60.5178	17,752.4	46.9341	17,752.4	61.5372	17,752.4	50.837	17,752.4	60.0688	17,752.4	39.1038	17,752.4	58.0359	17,752.4	43.4744	17,752.4	53.1156	17,752.4	36.922	17,752.4	51.3384	17,752.4	41.179	17,752.4	45.8753	17,752.4	44.6748	17,752.4	37.2144	17,752.4	39.8627	17,752.4	42.2863	17,752.4	41.8457	17,752.4	43.1892	17,752.4	42.8895	17,752.4	35.7023	17,752.4	42.5258	17,752.4	44.9673	17,752.4	35.9454
18,379.4	88.1269	18,379.4	85.8724	18,379.4	87.321	18,379.4	82.0804	18,379.4	84.7305	18,379.4	75.8381	18,379.4	78.9325	18,379.4	66.2439	18,379.4	70.8204	18,379.4	56.6194	18,379.4	63.1916	18,379.4	57.5627	18,379.4	64.1026	18,379.4	60.3051	18,379.4	66.754	18,379.4	57.83	18,379.4	64.4505	18,379.4	53.8605	18,379.4	61.3752	18,379.4	49.9893	18,379.4	56.8167	18,379.4	38.4489	18,379.4	53.7498	18,379.4	36.6936	18,379.4	48.8061	18,379.4	41.3983	18,379.4	41.288	18,379.4	38.1772	18,379.4	45.9075	18,379.4	43.9363	18,379.4	46.0584	18,379.4	41.3558	18,379.4	40.6856	18,379.4	45.7019	18,379.4	48.1846	18,379.4	36.0291
19,026.9	87.1867	19,026.9	84.5059	19,026.9	86.5089	19,026.9	80.3654	19,026.9	83.7016	19,026.9	72.8362	19,026.9	76.7872	19,026.9	47.8187	19,026.9	62.5816	19,026.9	63.3139	19,026.9	66.7328	19,026.9	64.6998	19,026.9	68.2025	19,026.9	65.0413	19,026.9	69.2602	19,026.9	61.3501	19,026.9	66.6554	19,026.9	56.7289	19,026.9	62.7822	19,026.9	51.5669	19,026.9	57.7773	19,026.9	46.25	19,026.9	54.2175	19,026.9	39.5143	19,026.9	49.1565	19,026.9	34.3862	19,026.9	43.6561	19,026.9	38.4769	19,026.9	47.8213	19,026.9	43.1418	19,026.9	46.7244	19,026.9	41.9256	19,026.9	43.5775	19,026.9	42.0339	19,026.9	48.6965	19,026.9	31.7059
19,697.8	86.1873	19,697.8	83.4391	19,697.8	85.4599	19,697.8	79.2303	19,697.8	82.6554	19,697.8	68.5398	19,697.8	75.2864	19,697.8	64.5389	19,697.8	50.7619	19,697.8	67.2902	19,697.8	68.2611	19,697.8	67.4184	19,697.8	69.2327	19,697.8	67.1901	19,697.8	69.3281	19,697.8	63.0483	19,697.8	66.693	19,697.8	58.6255	19,697.8	62.5321	19,697.8	53.0446	19,697.8	57.35	19,697.8	48.1966	19,697.8	53.6626	19,697.8	42.1673	19,697.8	48.3218	19,697.8	36.653	19,697.8	44.3967	19,697.8	29.0371	19,697.8	45.9403	19,697.8	42.5024	19,697.8	43.2932	19,697.8	41.6023	19,697.8	46.3433	19,697.8	34.2529	19,697.8	47.0525	19,697.8	26.0004
19,999.5	85.8718	19,999.5	82.9623	19,999.5	85.0221	19,999.5	78.954	19,999.5	81.8467	19,999.5	67.5336	19,999.5	74.8071	19,999.5	66.7732	19,999.5	55.068	19,999.5	68.012	19,999.5	68.3535	19,999.5	66.655	19,999.5	70.1473	19,999.5	66.6533	19,999.5	69.3662	19,999.5	61.3214	19,999.5	67.7314	19,999.5	59.8771	19,999.5	62.8725	19,999.5	50.223	19,999.5	57.2142	19,999.5	52.0504	19,999.5	47.3983	19,999.5	46.8358	19,999.5	30.5313	19,999.5	45.1461	19,999.5	53.2647	19,999.5	32.2792	19,999.5	43.808	19,999.5	51.2679	19,999.5	45.1601	19,999.5	49.0593	19,999.5	52.9981	19,999.5	51.6835	19,999.5	46.3227	19,999.5	41.3997
