"SPL Horizontal"
"On-Axis"		"10°"		"-10°"		"20°"		"-20°"		"30°"		"-30°"		"40°"		"-40°"		"50°"		"-50°"		"60°"		"-60°"		"70°"		"-70°"		"80°"		"-80°"		"90°"		"-90°"		"100°"		"-100°"		"110°"		"-110°"		"120°"		"-120°"		"130°"		"-130°"		"140°"		"-140°"		"150°"		"-150°"		"160°"		"-160°"		"170°"		"-170°"		"180°"
"Frequency / Hz"	"Sound Pressure Level / dB (re 20 µPa/V)  [2.83V at 1m]"	"Frequency / Hz"	"Sound Pressure Level / dB (re 20 µPa/V)  [2.83V at 1m]"	"Frequency / Hz"	"Sound Pressure Level / dB (re 20 µPa/V)  [2.83V at 1m]"	"Frequency / Hz"	"Sound Pressure Level / dB (re 20 µPa/V)  [2.83V at 1m]"	"Frequency / Hz"	"Sound Pressure Level / dB (re 20 µPa/V)  [2.83V at 1m]"	"Frequency / Hz"	"Sound Pressure Level / dB (re 20 µPa/V)  [2.83V at 1m]"	"Frequency / Hz"	"Sound Pressure Level / dB (re 20 µPa/V)  [2.83V at 1m]"	"Frequency / Hz"	"Sound Pressure Level / dB (re 20 µPa/V)  [2.83V at 1m]"	"Frequency / Hz"	"Sound Pressure Level / dB (re 20 µPa/V)  [2.83V at 1m]"	"Frequency / Hz"	"Sound Pressure Level / dB (re 20 µPa/V)  [2.83V at 1m]"	"Frequency / Hz"	"Sound Pressure Level / dB (re 20 µPa/V)  [2.83V at 1m]"	"Frequency / Hz"	"Sound Pressure Level / dB (re 20 µPa/V)  [2.83V at 1m]"	"Frequency / Hz"	"Sound Pressure Level / dB (re 20 µPa/V)  [2.83V at 1m]"	"Frequency / Hz"	"Sound Pressure Level / dB (re 20 µPa/V)  [2.83V at 1m]"	"Frequency / Hz"	"Sound Pressure Level / dB (re 20 µPa/V)  [2.83V at 1m]"	"Frequency / Hz"	"Sound Pressure Level / dB (re 20 µPa/V)  [2.83V at 1m]"	"Frequency / Hz"	"Sound Pressure Level / dB (re 20 µPa/V)  [2.83V at 1m]"	"Frequency / Hz"	"Sound Pressure Level / dB (re 20 µPa/V)  [2.83V at 1m]"	"Frequency / Hz"	"Sound Pressure Level / dB (re 20 µPa/V)  [2.83V at 1m]"	"Frequency / Hz"	"Sound Pressure Level / dB (re 20 µPa/V)  [2.83V at 1m]"	"Frequency / Hz"	"Sound Pressure Level / dB (re 20 µPa/V)  [2.83V at 1m]"	"Frequency / Hz"	"Sound Pressure Level / dB (re 20 µPa/V)  [2.83V at 1m]"	"Frequency / Hz"	"Sound Pressure Level / dB (re 20 µPa/V)  [2.83V at 1m]"	"Frequency / Hz"	"Sound Pressure Level / dB (re 20 µPa/V)  [2.83V at 1m]"	"Frequency / Hz"	"Sound Pressure Level / dB (re 20 µPa/V)  [2.83V at 1m]"	"Frequency / Hz"	"Sound Pressure Level / dB (re 20 µPa/V)  [2.83V at 1m]"	"Frequency / Hz"	"Sound Pressure Level / dB (re 20 µPa/V)  [2.83V at 1m]"	"Frequency / Hz"	"Sound Pressure Level / dB (re 20 µPa/V)  [2.83V at 1m]"	"Frequency / Hz"	"Sound Pressure Level / dB (re 20 µPa/V)  [2.83V at 1m]"	"Frequency / Hz"	"Sound Pressure Level / dB (re 20 µPa/V)  [2.83V at 1m]"	"Frequency / Hz"	"Sound Pressure Level / dB (re 20 µPa/V)  [2.83V at 1m]"	"Frequency / Hz"	"Sound Pressure Level / dB (re 20 µPa/V)  [2.83V at 1m]"	"Frequency / Hz"	"Sound Pressure Level / dB (re 20 µPa/V)  [2.83V at 1m]"	"Frequency / Hz"	"Sound Pressure Level / dB (re 20 µPa/V)  [2.83V at 1m]"	"Frequency / Hz"	"Sound Pressure Level / dB (re 20 µPa/V)  [2.83V at 1m]"	"Frequency / Hz"	"Sound Pressure Level / dB (re 20 µPa/V)  [2.83V at 1m]"
20.5078	59.1948	20.5078	59.1675	20.5078	59.211	20.5078	59.1299	20.5078	59.2151	20.5078	59.0827	20.5078	59.2064	20.5078	59.027	20.5078	59.1841	20.5078	58.9636	20.5078	59.148	20.5078	58.8938	20.5078	59.0979	20.5078	58.8191	20.5078	59.0349	20.5078	58.7412	20.5078	58.9603	20.5078	58.6624	20.5078	58.8768	20.5078	58.585	20.5078	58.7876	20.5078	58.5114	20.5078	58.6963	20.5078	58.4439	20.5078	58.6067	20.5078	58.3848	20.5078	58.5225	20.5078	58.336	20.5078	58.447	20.5078	58.2992	20.5078	58.3826	20.5078	58.2758	20.5078	58.3313	20.5078	58.2668	20.5078	58.2946	20.5078	58.273
21.2402	59.5448	21.2402	59.5136	21.2402	59.5679	21.2402	59.4746	21.2402	59.5822	21.2402	59.4283	21.2402	59.5869	21.2402	59.3753	21.2402	59.5812	21.2402	59.3162	21.2402	59.5642	21.2402	59.2523	21.2402	59.5354	21.2402	59.185	21.2402	59.4947	21.2402	59.1162	21.2402	59.4427	21.2402	59.0481	21.2402	59.3807	21.2402	58.9831	21.2402	59.3109	21.2402	58.9234	21.2402	59.2357	21.2402	58.8712	21.2402	59.1583	21.2402	58.8285	21.2402	59.0816	21.2402	58.797	21.2402	59.0085	21.2402	58.7778	21.2402	58.9417	21.2402	58.7719	21.2402	58.8837	21.2402	58.7797	21.2402	58.8364	21.2402	58.8014
21.9727	60.0779	21.9727	60.0576	21.9727	60.0929	21.9727	60.0321	21.9727	60.1019	21.9727	60.0018	21.9727	60.1042	21.9727	59.9669	21.9727	60.0989	21.9727	59.9277	21.9727	60.0851	21.9727	59.8847	21.9727	60.0622	21.9727	59.8391	21.9727	60.0302	21.9727	59.792	21.9727	59.9896	21.9727	59.7452	21.9727	59.942	21.9727	59.7003	21.9727	59.8894	21.9727	59.6591	21.9727	59.8341	21.9727	59.6229	21.9727	59.7787	21.9727	59.593	21.9727	59.7258	21.9727	59.5701	21.9727	59.6775	21.9727	59.5546	21.9727	59.6355	21.9727	59.5471	21.9727	59.6009	21.9727	59.5478	21.9727	59.5746	21.9727	59.5569
22.7051	60.3933	22.7051	60.361	22.7051	60.4168	22.7051	60.3207	22.7051	60.4303	22.7051	60.2732	22.7051	60.4327	22.7051	60.2195	22.7051	60.4227	22.7051	60.1604	22.7051	60.3995	22.7051	60.0969	22.7051	60.3627	22.7051	60.0304	22.7051	60.3126	22.7051	59.9623	22.7051	60.2504	22.7051	59.8944	22.7051	60.1781	22.7051	59.8285	22.7051	60.0984	22.7051	59.7667	22.7051	60.0146	22.7051	59.7108	22.7051	59.9303	22.7051	59.6626	22.7051	59.8491	22.7051	59.6238	22.7051	59.7743	22.7051	59.5958	22.7051	59.7089	22.7051	59.58	22.7051	59.6552	22.7051	59.5774	22.7051	59.6149	22.7051	59.5889
23.4375	61.0272	23.4375	60.9773	23.4375	61.0654	23.4375	60.917	23.4375	61.0901	23.4375	60.8479	23.4375	61.1001	23.4375	60.7713	23.4375	61.094	23.4375	60.6884	23.4375	61.0712	23.4375	60.6008	23.4375	61.0315	23.4375	60.51	23.4375	60.9753	23.4375	60.4179	23.4375	60.904	23.4375	60.3269	23.4375	60.8197	23.4375	60.2398	23.4375	60.7253	23.4375	60.1597	23.4375	60.6239	23.4375	60.0897	23.4375	60.5191	23.4375	60.0328	23.4375	60.4146	23.4375	59.9918	23.4375	60.314	23.4375	59.9687	23.4375	60.2206	23.4375	59.9648	23.4375	60.1379	23.4375	59.9806	23.4375	60.0687	23.4375	60.0156
24.1699	61.5286	24.1699	61.4985	24.1699	61.5483	24.1699	61.4588	24.1699	61.5567	24.1699	61.4103	24.1699	61.5529	24.1699	61.3534	24.1699	61.5364	24.1699	61.2888	24.1699	61.5066	24.1699	61.2175	24.1699	61.4637	24.1699	61.1405	24.1699	61.4084	24.1699	61.0598	24.1699	61.3419	24.1699	60.9776	24.1699	61.2662	24.1699	60.8968	24.1699	61.1839	24.1699	60.8207	24.1699	61.0976	24.1699	60.7523	24.1699	61.0106	24.1699	60.6945	24.1699	60.9257	24.1699	60.6498	24.1699	60.8459	24.1699	60.62	24.1699	60.774	24.1699	60.6063	24.1699	60.7124	24.1699	60.6091	24.1699	60.6633	24.1699	60.6284
25.6348	62.5488	25.6348	62.5373	25.6348	62.5554	25.6348	62.5211	25.6348	62.5564	25.6348	62.5004	25.6348	62.5514	25.6348	62.4752	25.6348	62.5399	25.6348	62.4456	25.6348	62.5214	25.6348	62.4116	25.6348	62.4959	25.6348	62.3736	25.6348	62.4636	25.6348	62.3323	25.6348	62.4254	25.6348	62.2889	25.6348	62.3824	25.6348	62.2448	25.6348	62.3362	25.6348	62.2018	25.6348	62.2885	25.6348	62.1617	25.6348	62.2411	25.6348	62.1262	25.6348	62.1961	25.6348	62.0967	25.6348	62.155	25.6348	62.0744	25.6348	62.1194	25.6348	62.0601	25.6348	62.0907	25.6348	62.0544	25.6348	62.0699	25.6348	62.0577
26.3672	62.9491	26.3672	62.9507	26.3672	62.9431	26.3672	62.9477	26.3672	62.9326	26.3672	62.9398	26.3672	62.9173	26.3672	62.9267	26.3672	62.8971	26.3672	62.9081	26.3672	62.8717	26.3672	62.8839	26.3672	62.841	26.3672	62.854	26.3672	62.8053	26.3672	62.8191	26.3672	62.7654	26.3672	62.7798	26.3672	62.7224	26.3672	62.7373	26.3672	62.6777	26.3672	62.6931	26.3672	62.6333	26.3672	62.6488	26.3672	62.591	26.3672	62.6061	26.3672	62.5528	26.3672	62.5667	26.3672	62.5203	26.3672	62.5323	26.3672	62.495	26.3672	62.5044	26.3672	62.4783	26.3672	62.4842	26.3672	62.4707	26.3672	62.4728
27.0996	63.4903	27.0996	63.4757	27.0996	63.4979	27.0996	63.4542	27.0996	63.4982	27.0996	63.426	27.0996	63.4906	27.0996	63.3909	27.0996	63.4748	27.0996	63.349	27.0996	63.4502	27.0996	63.3007	27.0996	63.4167	27.0996	63.2466	27.0996	63.3745	27.0996	63.1879	27.0996	63.3244	27.0996	63.1264	27.0996	63.2676	27.0996	63.0642	27.0996	63.2059	27.0996	63.004	27.0996	63.1417	27.0996	62.9483	27.0996	63.0774	27.0996	62.8997	27.0996	63.0155	27.0996	62.86	27.0996	62.9584	27.0996	62.831	27.0996	62.9083	27.0996	62.8138	27.0996	62.867	27.0996	62.8089	27.0996	62.836	27.0996	62.8164
27.832	63.9497	27.832	63.9297	27.832	63.963	27.832	63.9036	27.832	63.9692	27.832	63.8714	27.832	63.9676	27.832	63.8333	27.832	63.9576	27.832	63.7893	27.832	63.9386	27.832	63.74	27.832	63.9104	27.832	63.6858	27.832	63.873	27.832	63.6279	27.832	63.8272	27.832	63.5681	27.832	63.7741	27.832	63.5085	27.832	63.7155	27.832	63.4517	27.832	63.6535	27.832	63.4003	27.832	63.5903	27.832	63.3568	27.832	63.5283	27.832	63.3233	27.832	63.4698	27.832	63.3012	27.832	63.4169	27.832	63.2914	27.832	63.3714	27.832	63.294	27.832	63.3349	27.832	63.3087
29.2969	65.1372	29.2969	65.1249	29.2969	65.1399	29.2969	65.103	29.2969	65.1328	29.2969	65.0714	29.2969	65.1154	29.2969	65.0298	29.2969	65.0873	29.2969	64.9781	29.2969	65.0479	29.2969	64.9165	29.2969	64.997	29.2969	64.8456	29.2969	64.9349	29.2969	64.7668	29.2969	64.8626	29.2969	64.6822	29.2969	64.7819	29.2969	64.5946	29.2969	64.6952	29.2969	64.5073	29.2969	64.6056	29.2969	64.4241	29.2969	64.5168	29.2969	64.3487	29.2969	64.4324	29.2969	64.2843	29.2969	64.3559	29.2969	64.234	29.2969	64.2905	29.2969	64.1997	29.2969	64.2387	29.2969	64.1827	29.2969	64.2027	29.2969	64.1838
30.0293	65.5178	30.0293	65.5066	30.0293	65.5202	30.0293	65.4864	30.0293	65.5135	30.0293	65.4571	30.0293	65.4974	30.0293	65.4184	30.0293	65.4714	30.0293	65.3702	30.0293	65.4351	30.0293	65.3126	30.0293	65.3883	30.0293	65.2464	30.0293	65.3313	30.0293	65.1729	30.0293	65.2651	30.0293	65.0941	30.0293	65.1912	30.0293	65.0128	30.0293	65.1119	30.0293	64.9321	30.0293	65.0301	30.0293	64.8557	30.0293	64.9489	30.0293	64.7867	30.0293	64.8717	30.0293	64.7284	30.0293	64.8015	30.0293	64.6832	30.0293	64.7412	30.0293	64.6529	30.0293	64.6932	30.0293	64.6387	30.0293	64.6594	30.0293	64.6409
31.4941	66.144	31.4941	66.1273	31.4941	66.1505	31.4941	66.1007	31.4941	66.1467	31.4941	66.0643	31.4941	66.1322	31.4941	66.0182	31.4941	66.1067	31.4941	65.9631	31.4941	66.0699	31.4941	65.8997	31.4941	66.0221	31.4941	65.8296	31.4941	65.9638	31.4941	65.7546	31.4941	65.8963	31.4941	65.6771	31.4941	65.8216	31.4941	65.5997	31.4941	65.7421	31.4941	65.5253	31.4941	65.6608	31.4941	65.4567	31.4941	65.5809	31.4941	65.3964	31.4941	65.5054	31.4941	65.3465	31.4941	65.4373	31.4941	65.3088	31.4941	65.3789	31.4941	65.2845	31.4941	65.3322	31.4941	65.2746	31.4941	65.2987	31.4941	65.2793
32.2266	66.1835	32.2266	66.1654	32.2266	66.1905	32.2266	66.1365	32.2266	66.1859	32.2266	66.0974	32.2266	66.1693	32.2266	66.0486	32.2266	66.1404	32.2266	65.9909	32.2266	66.0993	32.2266	65.9254	32.2266	66.0466	32.2266	65.8535	32.2266	65.9831	32.2266	65.7771	32.2266	65.9107	32.2266	65.6985	32.2266	65.8316	32.2266	65.6204	32.2266	65.7488	32.2266	65.5455	32.2266	65.6653	32.2266	65.4764	32.2266	65.5844	32.2266	65.4157	32.2266	65.5092	32.2266	65.3654	32.2266	65.4422	32.2266	65.3271	32.2266	65.3857	32.2266	65.3018	32.2266	65.3413	32.2266	65.2904	32.2266	65.3103	32.2266	65.2932
33.6914	66.9028	33.6914	66.8977	33.6914	66.8994	33.6914	66.8839	33.6914	66.8872	33.6914	66.8614	33.6914	66.866	33.6914	66.8299	33.6914	66.8354	33.6914	66.7892	33.6914	66.7954	33.6914	66.7394	33.6914	66.7459	33.6914	66.6811	33.6914	66.6874	33.6914	66.6154	33.6914	66.6211	33.6914	66.544	33.6914	66.5488	33.6914	66.4691	33.6914	66.4728	33.6914	66.3935	33.6914	66.396	33.6914	66.3201	33.6914	66.3214	33.6914	66.252	33.6914	66.2524	33.6914	66.192	33.6914	66.1917	33.6914	66.1426	33.6914	66.142	33.6914	66.1058	33.6914	66.1052	33.6914	66.0831	33.6914	66.0827	33.6914	66.0753
34.4238	67.4989	34.4238	67.4929	34.4238	67.4955	34.4238	67.4775	34.4238	67.4827	34.4238	67.4527	34.4238	67.4603	34.4238	67.4183	34.4238	67.4279	34.4238	67.3744	34.4238	67.3855	34.4238	67.3212	34.4238	67.3331	34.4238	67.2593	34.4238	67.2712	34.4238	67.1901	34.4238	67.201	34.4238	67.1151	34.4238	67.1242	34.4238	67.0366	34.4238	67.0431	34.4238	66.9572	34.4238	66.9608	34.4238	66.8798	34.4238	66.8805	34.4238	66.8075	34.4238	66.8057	34.4238	66.7432	34.4238	66.7397	34.4238	66.6896	34.4238	66.6855	34.4238	66.649	34.4238	66.6455	34.4238	66.6234	34.4238	66.6213	34.4238	66.6139
35.8887	68.1116	35.8887	68.1024	35.8887	68.114	35.8887	68.0866	35.8887	68.1092	35.8887	68.0641	35.8887	68.097	35.8887	68.035	35.8887	68.0768	35.8887	67.9993	35.8887	68.0483	35.8887	67.9572	35.8887	68.0114	35.8887	67.9091	35.8887	67.9666	35.8887	67.8559	35.8887	67.9146	35.8887	67.7991	35.8887	67.8568	35.8887	67.7404	35.8887	67.7954	35.8887	67.682	35.8887	67.7326	35.8887	67.6262	35.8887	67.671	35.8887	67.5752	35.8887	67.6132	35.8887	67.5311	35.8887	67.5616	35.8887	67.4956	35.8887	67.5184	35.8887	67.4702	35.8887	67.4853	35.8887	67.4559	35.8887	67.4635	35.8887	67.4536
37.3535	69.0852	37.3535	69.0753	37.3535	69.0857	37.3535	69.0563	37.3535	69.0768	37.3535	69.0277	37.3535	69.0582	37.3535	68.9898	37.3535	69.0296	37.3535	68.9425	37.3535	68.9908	37.3535	68.8864	37.3535	68.942	37.3535	68.8228	37.3535	68.884	37.3535	68.7534	37.3535	68.8183	37.3535	68.6804	37.3535	68.747	37.3535	68.6067	37.3535	68.6728	37.3535	68.5352	37.3535	68.5986	37.3535	68.4687	37.3535	68.5274	37.3535	68.4099	37.3535	68.4619	37.3535	68.3607	37.3535	68.4044	37.3535	68.3228	37.3535	68.3568	37.3535	68.297	37.3535	68.3202	37.3535	68.2838	37.3535	68.2956	37.3535	68.2833
38.8184	69.5169	38.8184	69.5094	38.8184	69.5137	38.8184	69.4913	38.8184	69.4997	38.8184	69.4628	38.8184	69.4748	38.8184	69.4242	38.8184	69.4393	38.8184	69.376	38.8184	69.3933	38.8184	69.3189	38.8184	69.3377	38.8184	69.2541	38.8184	69.2735	38.8184	69.1831	38.8184	69.2024	38.8184	69.108	38.8184	69.1265	38.8184	69.0312	38.8184	69.0482	38.8184	68.9554	38.8184	68.9704	38.8184	68.8833	38.8184	68.8959	38.8184	68.8174	38.8184	68.8276	38.8184	68.7603	38.8184	68.7681	38.8184	68.7138	38.8184	68.7193	38.8184	68.6796	38.8184	68.6831	38.8184	68.659	38.8184	68.6606	38.8184	68.6525
39.5508	69.8283	39.5508	69.8212	39.5508	69.8255	39.5508	69.8043	39.5508	69.8128	39.5508	69.7777	39.5508	69.7903	39.5508	69.7418	39.5508	69.7581	39.5508	69.6971	39.5508	69.7167	39.5508	69.6444	39.5508	69.6667	39.5508	69.585	39.5508	69.6094	39.5508	69.5205	39.5508	69.5462	39.5508	69.4532	39.5508	69.4791	39.5508	69.3852	39.5508	69.4105	39.5508	69.3191	39.5508	69.343	39.5508	69.2574	39.5508	69.2789	39.5508	69.2021	39.5508	69.2206	39.5508	69.1551	39.5508	69.1702	39.5508	69.1177	39.5508	69.1291	39.5508	69.0909	39.5508	69.0985	39.5508	69.0753	39.5508	69.0791	39.5508	69.0713
41.0156	70.4913	41.0156	70.4847	41.0156	70.4874	41.0156	70.4676	41.0156	70.4729	41.0156	70.4401	41.0156	70.4479	41.0156	70.4027	41.0156	70.4128	41.0156	70.3557	41.0156	70.368	41.0156	70.3002	41.0156	70.3143	41.0156	70.2375	41.0156	70.253	41.0156	70.1694	41.0156	70.1859	41.0156	70.0982	41.0156	70.115	41.0156	70.0263	41.0156	70.0429	41.0156	69.9565	41.0156	69.9723	41.0156	69.8913	41.0156	69.9057	41.0156	69.8329	41.0156	69.8456	41.0156	69.7833	41.0156	69.7938	41.0156	69.7438	41.0156	69.7519	41.0156	69.7154	41.0156	69.7209	41.0156	69.6987	41.0156	69.7015	41.0156	69.6941
42.4805	71.1512	42.4805	71.1449	42.4805	71.1457	42.4805	71.1266	42.4805	71.1282	42.4805	71.0967	42.4805	71.0993	42.4805	71.0556	42.4805	71.0592	42.4805	71.0041	42.4805	71.0089	42.4805	70.9435	42.4805	70.9494	42.4805	70.8755	42.4805	70.8823	42.4805	70.802	42.4805	70.8095	42.4805	70.7257	42.4805	70.7335	42.4805	70.6492	42.4805	70.657	42.4805	70.5754	42.4805	70.5827	42.4805	70.5069	42.4805	70.5134	42.4805	70.4459	42.4805	70.4514	42.4805	70.3942	42.4805	70.3986	42.4805	70.3531	42.4805	70.3563	42.4805	70.3234	42.4805	70.3255	42.4805	70.3057	42.4805	70.3067	42.4805	70.3
43.9453	71.8186	43.9453	71.8131	43.9453	71.8106	43.9453	71.7943	43.9453	71.7894	43.9453	71.7622	43.9453	71.7555	43.9453	71.7177	43.9453	71.7096	43.9453	71.6616	43.9453	71.6527	43.9453	71.5955	43.9453	71.5863	43.9453	71.5213	43.9453	71.5121	43.9453	71.4414	43.9453	71.4325	43.9453	71.3585	43.9453	71.3499	43.9453	71.2757	43.9453	71.2675	43.9453	71.1959	43.9453	71.1881	43.9453	71.1218	43.9453	71.1145	43.9453	71.0558	43.9453	71.0491	43.9453	70.9996	43.9453	70.9938	43.9453	70.9547	43.9453	70.95	43.9453	70.9219	43.9453	70.9185	43.9453	70.9016	43.9453	70.8999	43.9453	70.8942
45.4102	72.1761	45.4102	72.1645	45.4102	72.1747	45.4102	72.1402	45.4102	72.1602	45.4102	72.1037	45.4102	72.1327	45.4102	72.0557	45.4102	72.0926	45.4102	71.997	45.4102	72.0408	45.4102	71.929	45.4102	71.9782	45.4102	71.8535	45.4102	71.9065	45.4102	71.7726	45.4102	71.8278	45.4102	71.6888	45.4102	71.7445	45.4102	71.6051	45.4102	71.6596	45.4102	71.5243	45.4102	71.5761	45.4102	71.4495	45.4102	71.4969	45.4102	71.383	45.4102	71.4247	45.4102	71.327	45.4102	71.3617	45.4102	71.2831	45.4102	71.31	45.4102	71.2524	45.4102	71.2707	45.4102	71.2356	45.4102	71.2449	45.4102	71.2331
47.6074	72.9268	47.6074	72.9182	47.6074	72.9241	47.6074	72.8983	47.6074	72.9104	47.6074	72.8676	47.6074	72.8863	47.6074	72.8267	47.6074	72.8524	47.6074	72.7768	47.6074	72.8097	47.6074	72.7195	47.6074	72.7596	47.6074	72.6566	47.6074	72.7034	47.6074	72.5905	47.6074	72.643	47.6074	72.5235	47.6074	72.5803	47.6074	72.4582	47.6074	72.5174	47.6074	72.397	47.6074	72.4564	47.6074	72.3419	47.6074	72.3991	47.6074	72.2947	47.6074	72.3472	47.6074	72.2565	47.6074	72.3019	47.6074	72.228	47.6074	72.2643	47.6074	72.2097	47.6074	72.2349	47.6074	72.2015	47.6074	72.2144	47.6074	72.2031
49.0723	73.4858	49.0723	73.4731	49.0723	73.488	49.0723	73.4499	49.0723	73.4796	49.0723	73.4168	49.0723	73.4611	49.0723	73.3748	49.0723	73.4331	49.0723	73.325	49.0723	73.3965	49.0723	73.2692	49.0723	73.3527	49.0723	73.2095	49.0723	73.3032	49.0723	73.1482	49.0723	73.25	49.0723	73.0878	49.0723	73.1951	49.0723	73.0309	49.0723	73.1406	49.0723	72.9798	49.0723	73.0885	49.0723	72.9363	49.0723	73.0401	49.0723	72.9017	49.0723	72.9965	49.0723	72.8765	49.0723	72.9583	49.0723	72.8606	49.0723	72.9258	49.0723	72.8537	49.0723	72.899	49.0723	72.8548	49.0723	72.8781	49.0723	72.8631
50.5371	74.3312	50.5371	74.3199	50.5371	74.3291	50.5371	74.2955	50.5371	74.3137	50.5371	74.2586	50.5371	74.2855	50.5371	74.2105	50.5371	74.2453	50.5371	74.1527	50.5371	74.1947	50.5371	74.0871	50.5371	74.1352	50.5371	74.0164	50.5371	74.0692	50.5371	73.9432	50.5371	73.9992	50.5371	73.8704	50.5371	73.928	50.5371	73.801	50.5371	73.8584	50.5371	73.7374	50.5371	73.7929	50.5371	73.6818	50.5371	73.7337	50.5371	73.6355	50.5371	73.6822	50.5371	73.5992	50.5371	73.639	50.5371	73.573	50.5371	73.6045	50.5371	73.5566	50.5371	73.5784	50.5371	73.5494	50.5371	73.5606	50.5371	73.5509
52.7344	75.206	52.7344	75.2004	52.7344	75.1943	52.7344	75.1777	52.7344	75.1656	52.7344	75.1385	52.7344	75.1206	52.7344	75.0841	52.7344	75.0609	52.7344	75.0165	52.7344	74.9881	52.7344	74.938	52.7344	74.9046	52.7344	74.8515	52.7344	74.8133	52.7344	74.7599	52.7344	74.7172	52.7344	74.6668	52.7344	74.62	52.7344	74.5754	52.7344	74.5251	52.7344	74.4885	52.7344	74.4361	52.7344	74.4086	52.7344	74.356	52.7344	74.3377	52.7344	74.2872	52.7344	74.2769	52.7344	74.2315	52.7344	74.2272	52.7344	74.1898	52.7344	74.1891	52.7344	74.1624	52.7344	74.1631	52.7344	74.1491	52.7344	74.1496
54.1992	75.3159	54.1992	75.3108	54.1992	75.3063	54.1992	75.2912	54.1992	75.2823	54.1992	75.2576	54.1992	75.2449	54.1992	75.2114	54.1992	75.1955	54.1992	75.1542	54.1992	75.1357	54.1992	75.0882	54.1992	75.068	54.1992	75.0161	54.1992	74.9947	54.1992	74.9406	54.1992	74.9187	54.1992	74.8649	54.1992	74.8429	54.1992	74.7916	54.1992	74.7701	54.1992	74.7234	54.1992	74.7026	54.1992	74.6621	54.1992	74.6426	54.1992	74.6092	54.1992	74.5914	54.1992	74.5653	54.1992	74.5499	54.1992	74.5308	54.1992	74.5185	54.1992	74.5056	54.1992	74.497	54.1992	74.4897	54.1992	74.4852	54.1992	74.4828
56.3965	76.2453	56.3965	76.237	56.3965	76.237	56.3965	76.2125	56.3965	76.2124	56.3965	76.1729	56.3965	76.1725	56.3965	76.1198	56.3965	76.1187	56.3965	76.0555	56.3965	76.0532	56.3965	75.9828	56.3965	75.9789	56.3965	75.9046	56.3965	75.8987	56.3965	75.8244	56.3965	75.8163	56.3965	75.7455	56.3965	75.735	56.3965	75.6709	56.3965	75.6581	56.3965	75.6031	56.3965	75.5884	56.3965	75.5437	56.3965	75.528	56.3965	75.4938	56.3965	75.4781	56.3965	75.4535	56.3965	75.4389	56.3965	75.4226	56.3965	75.4104	56.3965	75.4005	56.3965	75.3916	56.3965	75.3865	56.3965	75.3818	56.3965	75.3802
58.5938	76.8534	58.5938	76.8428	58.5938	76.8474	58.5938	76.8158	58.5938	76.8251	58.5938	76.7738	58.5938	76.7873	58.5938	76.7187	58.5938	76.736	58.5938	76.6529	58.5938	76.6734	58.5938	76.5796	58.5938	76.6024	58.5938	76.5021	58.5938	76.5263	58.5938	76.4241	58.5938	76.4485	58.5938	76.3488	58.5938	76.3724	58.5938	76.2792	58.5938	76.301	58.5938	76.2177	58.5938	76.237	58.5938	76.1657	58.5938	76.182	58.5938	76.1238	58.5938	76.1368	58.5938	76.0916	58.5938	76.1014	58.5938	76.0684	58.5938	76.0753	58.5938	76.0531	58.5938	76.0575	58.5938	76.0448	58.5938	76.0469	58.5938	76.0428
60.0586	77.2917	60.0586	77.2784	60.0586	77.2882	60.0586	77.2489	60.0586	77.2683	60.0586	77.2044	60.0586	77.2329	60.0586	77.147	60.0586	77.1839	60.0586	77.0794	60.0586	77.1236	60.0586	77.0049	60.0586	77.0551	60.0586	76.9271	60.0586	76.9816	60.0586	76.8496	60.0586	76.9066	60.0586	76.7761	60.0586	76.8335	60.0586	76.7096	60.0586	76.7654	60.0586	76.6522	60.0586	76.7045	60.0586	76.6054	60.0586	76.6525	60.0586	76.5693	60.0586	76.6099	60.0586	76.5433	60.0586	76.5765	60.0586	76.5262	60.0586	76.5515	60.0586	76.5167	60.0586	76.5336	60.0586	76.5133	60.0586	76.5217	60.0586	76.5151
62.2559	78.0103	62.2559	77.9926	62.2559	78.0099	62.2559	77.9576	62.2559	77.9917	62.2559	77.9065	62.2559	77.9567	62.2559	77.8419	62.2559	77.9069	62.2559	77.7668	62.2559	77.8449	62.2559	77.6849	62.2559	77.7738	62.2559	77.6002	62.2559	77.6973	62.2559	77.517	62.2559	77.6192	62.2559	77.4392	62.2559	77.543	62.2559	77.3701	62.2559	77.4722	62.2559	77.3122	62.2559	77.409	62.2559	77.2666	62.2559	77.3552	62.2559	77.2334	62.2559	77.311	62.2559	77.2117	62.2559	77.2762	62.2559	77.1998	62.2559	77.2494	62.2559	77.1956	62.2559	77.2293	62.2559	77.1974	62.2559	77.2144	62.2559	77.2039
64.4531	78.7618	64.4531	78.7377	64.4531	78.7649	64.4531	78.6935	64.4531	78.7471	64.4531	78.6309	64.4531	78.7097	64.4531	78.5528	64.4531	78.6549	64.4531	78.4627	64.4531	78.5854	64.4531	78.365	64.4531	78.505	64.4531	78.2646	64.4531	78.4177	64.4531	78.1663	64.4531	78.3279	64.4531	78.0749	64.4531	78.2396	64.4531	77.9944	64.4531	78.1567	64.4531	77.9276	64.4531	78.0818	64.4531	77.8758	64.4531	78.0169	64.4531	77.8392	64.4531	77.9627	64.4531	77.8164	64.4531	77.9187	64.4531	77.8053	64.4531	77.8839	64.4531	77.8036	64.4531	77.8568	64.4531	77.809	64.4531	77.8358	64.4531	77.82
66.6504	79.3766	66.6504	79.3546	66.6504	79.3769	66.6504	79.3116	66.6504	79.3559	66.6504	79.2494	66.6504	79.3149	66.6504	79.1707	66.6504	79.2562	66.6504	79.079	66.6504	79.183	66.6504	78.9785	66.6504	79.099	66.6504	78.8738	66.6504	79.0086	66.6504	78.7698	66.6504	78.9161	66.6504	78.6715	66.6504	78.8255	66.6504	78.5831	66.6504	78.7404	66.6504	78.5081	66.6504	78.6636	66.6504	78.4485	66.6504	78.5966	66.6504	78.4051	66.6504	78.5399	66.6504	78.3773	66.6504	78.493	66.6504	78.3633	66.6504	78.4549	66.6504	78.3607	66.6504	78.4241	66.6504	78.367	66.6504	78.3994	66.6504	78.3803
69.5801	80.052	69.5801	80.0364	69.5801	80.0466	69.5801	80.0005	69.5801	80.0206	69.5801	79.9463	69.5801	79.9756	69.5801	79.8765	69.5801	79.9143	69.5801	79.795	69.5801	79.8402	69.5801	79.7062	69.5801	79.7575	69.5801	79.6147	69.5801	79.6707	69.5801	79.5251	69.5801	79.5844	69.5801	79.4415	69.5801	79.5026	69.5801	79.3673	69.5801	79.4285	69.5801	79.3047	69.5801	79.3644	69.5801	79.2548	69.5801	79.3113	69.5801	79.2176	69.5801	79.269	69.5801	79.1922	69.5801	79.2364	69.5801	79.1768	69.5801	79.212	69.5801	79.1696	69.5801	79.1942	69.5801	79.1688	69.5801	79.1815	69.5801	79.173
71.7773	80.5625	71.7773	80.548	71.7773	80.5551	71.7773	80.5123	71.7773	80.5263	71.7773	80.4576	71.7773	80.478	71.7773	80.3871	71.7773	80.4132	71.7773	80.305	71.7773	80.3359	71.7773	80.2162	71.7773	80.2508	71.7773	80.1259	71.7773	80.1629	71.7773	80.039	71.7773	80.0772	71.7773	79.9601	71.7773	79.998	71.7773	79.8923	71.7773	79.9287	71.7773	79.8376	71.7773	79.8714	71.7773	79.7966	71.7773	79.8269	71.7773	79.7683	71.7773	79.7944	71.7773	79.7509	71.7773	79.7723	71.7773	79.7418	71.7773	79.7581	71.7773	79.7385	71.7773	79.7495	71.7773	79.7386	71.7773	79.7441	71.7773	79.7407
73.9746	81.0887	73.9746	81.0714	73.9746	81.0826	73.9746	81.0318	73.9746	81.0538	73.9746	80.9721	73.9746	81.0042	73.9746	80.8959	73.9746	80.9371	73.9746	80.8079	73.9746	80.8568	73.9746	80.7133	73.9746	80.7682	73.9746	80.6178	73.9746	80.6768	73.9746	80.5269	73.9746	80.5879	73.9746	80.4453	73.9746	80.5062	73.9746	80.3764	73.9746	80.4352	73.9746	80.3224	73.9746	80.3771	73.9746	80.2834	73.9746	80.3326	73.9746	80.2582	73.9746	80.3006	73.9746	80.2445	73.9746	80.2793	73.9746	80.2394	73.9746	80.266	73.9746	80.2397	73.9746	80.2576	73.9746	80.2429	73.9746	80.2519	73.9746	80.2472
76.9043	81.7533	76.9043	81.7248	76.9043	81.7565	76.9043	81.6723	76.9043	81.735	76.9043	81.5987	76.9043	81.6905	76.9043	81.5081	76.9043	81.6265	76.9043	81.4059	76.9043	81.5476	76.9043	81.2984	76.9043	81.4591	76.9043	81.1919	76.9043	81.3669	76.9043	81.0926	76.9043	81.2765	76.9043	81.0058	76.9043	81.1928	76.9043	80.9355	76.9043	81.1197	76.9043	80.8835	76.9043	81.0591	76.9043	80.85	76.9043	81.0114	76.9043	80.8333	76.9043	80.9757	76.9043	80.8304	76.9043	80.9494	76.9043	80.8374	76.9043	80.9297	76.9043	80.8506	76.9043	80.9136	76.9043	80.8666	76.9043	80.8985	76.9043	80.8829
79.834	82.24	79.834	82.2123	79.834	82.2414	79.834	82.1596	79.834	82.2171	79.834	82.0847	79.834	82.1692	79.834	81.9921	79.834	82.1015	79.834	81.8874	79.834	82.0189	79.834	81.777	79.834	81.9275	79.834	81.6677	79.834	81.8334	79.834	81.566	79.834	81.7427	79.834	81.4776	79.834	81.6605	79.834	81.4066	79.834	81.5905	79.834	81.355	79.834	81.5344	79.834	81.3231	79.834	81.4921	79.834	81.3089	79.834	81.4616	79.834	81.3094	79.834	81.44	79.834	81.3203	79.834	81.4235	79.834	81.3375	79.834	81.409	79.834	81.3571	79.834	81.3937	79.834	81.3764
82.7637	82.7212	82.7637	82.7011	82.7637	82.7137	82.7637	82.6544	82.7637	82.6792	82.7637	82.5841	82.7637	82.6204	82.7637	82.4949	82.7637	82.5417	82.7637	82.3928	82.7637	82.4487	82.7637	82.2847	82.7637	82.348	82.7637	82.1778	82.7637	82.2467	82.7637	82.079	82.7637	82.1514	82.7637	81.994	82.7637	82.0678	82.7637	81.9267	82.7637	82	82.7637	81.8791	82.7637	81.9497	82.7637	81.8505	82.7637	81.9165	82.7637	81.8386	82.7637	81.8981	82.7637	81.8396	82.7637	81.8904	82.7637	81.8487	82.7637	81.889	82.7637	81.8615	82.7637	81.8895	82.7637	81.8739	82.7637	81.8883	82.7637	81.8832
85.6934	83.1514	85.6934	83.1292	85.6934	83.1433	85.6934	83.078	85.6934	83.1058	85.6934	83.0011	85.6934	83.0417	85.6934	82.9038	85.6934	82.9559	85.6934	82.7929	85.6934	82.8546	85.6934	82.6763	85.6934	82.7454	85.6934	82.5621	85.6934	82.6361	85.6934	82.458	85.6934	82.5343	85.6934	82.3706	85.6934	82.4463	85.6934	82.304	85.6934	82.3764	85.6934	82.2598	85.6934	82.3266	85.6934	82.2369	85.6934	82.2962	85.6934	82.2317	85.6934	82.2823	85.6934	82.2393	85.6934	82.2802	85.6934	82.254	85.6934	82.2848	85.6934	82.2704	85.6934	82.291	85.6934	82.2841	85.6934	82.2944	85.6934	82.2925
88.623	83.5351	88.623	83.5145	88.623	83.5232	88.623	83.4625	88.623	83.48	88.623	83.3828	88.623	83.4089	88.623	83.2807	88.623	83.3155	88.623	83.1637	88.623	83.207	88.623	83.0403	88.623	83.0917	88.623	82.9198	88.623	82.9783	88.623	82.8108	88.623	82.8751	88.623	82.7207	88.623	82.7889	88.623	82.6545	88.623	82.724	88.623	82.6142	88.623	82.682	88.623	82.5983	88.623	82.6615	88.623	82.6026	88.623	82.6585	88.623	82.6209	88.623	82.6673	88.623	82.646	88.623	82.6816	88.623	82.6713	88.623	82.6952	88.623	82.6912	88.623	82.7031	88.623	82.7022
91.5527	83.9522	91.5527	83.9336	91.5527	83.9366	91.5527	83.882	91.5527	83.8881	91.5527	83.801	91.5527	83.8104	91.5527	83.6965	91.5527	83.7094	91.5527	83.5762	91.5527	83.5929	91.5527	83.449	91.5527	83.47	91.5527	83.3245	91.5527	83.3502	91.5527	83.2121	91.5527	83.2426	91.5527	83.1195	91.5527	83.1547	91.5527	83.0523	91.5527	83.0915	91.5527	83.0128	91.5527	83.0546	91.5527	82.9999	91.5527	83.0423	91.5527	83.0091	91.5527	83.0497	91.5527	83.0337	91.5527	83.07	91.5527	83.0656	91.5527	83.0951	91.5527	83.0969	91.5527	83.1177	91.5527	83.1208	91.5527	83.1316	91.5527	83.133
94.4824	84.2415	94.4824	84.2193	94.4824	84.227	94.4824	84.1621	94.4824	84.1771	94.4824	84.0739	94.4824	84.0956	94.4824	83.961	94.4824	83.9886	94.4824	83.8317	94.4824	83.8643	94.4824	83.6958	94.4824	83.7324	94.4824	83.5634	94.4824	83.6029	94.4824	83.4442	94.4824	83.4858	94.4824	83.3463	94.4824	83.3892	94.4824	83.2754	94.4824	83.3188	94.4824	83.2337	94.4824	83.2765	94.4824	83.2197	94.4824	83.2608	94.4824	83.2288	94.4824	83.2667	94.4824	83.2538	94.4824	83.2869	94.4824	83.2863	94.4824	83.3131	94.4824	83.3182	94.4824	83.337	94.4824	83.3425	94.4824	83.3522	94.4824	83.3544
98.1445	84.483	98.1445	84.4569	98.1445	84.4696	98.1445	84.3929	98.1445	84.4181	98.1445	84.2956	98.1445	84.3325	98.1445	84.1721	98.1445	84.2197	98.1445	84.0316	98.1445	84.0886	98.1445	83.8849	98.1445	83.9497	98.1445	83.7432	98.1445	83.8141	98.1445	83.6172	98.1445	83.6921	98.1445	83.5154	98.1445	83.5924	98.1445	83.4437	98.1445	83.5207	98.1445	83.404	98.1445	83.4787	98.1445	83.3942	98.1445	83.4644	98.1445	83.4089	98.1445	83.4723	98.1445	83.4402	98.1445	83.4943	98.1445	83.4789	98.1445	83.5217	98.1445	83.5163	98.1445	83.546	98.1445	83.5451	98.1445	83.5603	98.1445	83.5604
101.807	84.6279	101.807	84.5994	101.807	84.6143	101.807	84.5305	101.807	84.5597	101.807	84.4263	101.807	84.4686	101.807	84.2946	101.807	84.3482	101.807	84.1455	101.807	84.2083	101.807	83.9906	101.807	84.0604	101.807	83.8423	101.807	83.9165	101.807	83.7119	101.807	83.7883	101.807	83.6089	101.807	83.6852	101.807	83.5393	101.807	83.6136	101.807	83.5049	101.807	83.5752	101.807	83.503	101.807	83.5677	101.807	83.5271	101.807	83.5845	101.807	83.568	101.807	83.6165	101.807	83.6155	101.807	83.6535	101.807	83.6597	101.807	83.6858	101.807	83.6925	101.807	83.7058	101.807	83.7085
105.469	84.8123	105.469	84.7812	105.469	84.7974	105.469	84.7058	105.469	84.7379	105.469	84.5916	105.469	84.6383	105.469	84.4466	105.469	84.5065	105.469	84.2818	105.469	84.3528	105.469	84.1095	105.469	84.1894	105.469	83.943	105.469	84.0293	105.469	83.795	105.469	83.8848	105.469	83.676	105.469	83.7665	105.469	83.593	105.469	83.6813	105.469	83.5486	105.469	83.6319	105.469	83.5403	105.469	83.616	105.469	83.5612	105.469	83.6272	105.469	83.6015	105.469	83.6561	105.469	83.6498	105.469	83.6917	105.469	83.6955	105.469	83.7239	105.469	83.7297	105.469	83.7439	105.469	83.7465
109.131	84.9535	109.131	84.9244	109.131	84.9339	109.131	84.8485	109.131	84.8674	109.131	84.7312	109.131	84.7594	109.131	84.5812	109.131	84.6183	109.131	84.4097	109.131	84.4553	109.131	84.2302	109.131	84.2835	109.131	84.0565	109.131	84.1167	109.131	83.9021	109.131	83.9678	109.131	83.7781	109.131	83.8475	109.131	83.6918	109.131	83.7629	109.131	83.6458	109.131	83.7159	109.131	83.6375	109.131	83.7039	109.131	83.6597	109.131	83.7197	109.131	83.7021	109.131	83.7532	109.131	83.7529	109.131	83.793	109.131	83.8007	109.131	83.8283	109.131	83.8364	109.131	83.8504	109.131	83.8537
112.793	84.9368	112.793	84.9048	112.793	84.9176	112.793	84.8236	112.793	84.8491	112.793	84.6993	112.793	84.7371	112.793	84.5416	112.793	84.5912	112.793	84.363	112.793	84.4238	112.793	84.1782	112.793	84.2494	112.793	84.0026	112.793	84.083	112.793	83.8509	112.793	83.939	112.793	83.7346	112.793	83.8285	112.793	83.6612	112.793	83.7585	112.793	83.6325	112.793	83.73	112.793	83.6447	112.793	83.7388	112.793	83.6889	112.793	83.7755	112.793	83.7531	112.793	83.8282	112.793	83.8236	112.793	83.8835	112.793	83.8879	112.793	83.9296	112.793	83.9355	112.793	83.9569	112.793	83.9594
116.455	84.8619	116.455	84.8287	116.455	84.8398	116.455	84.7424	116.455	84.7643	116.455	84.6097	116.455	84.6418	116.455	84.441	116.455	84.4824	116.455	84.2498	116.455	84.2998	116.455	84.052	116.455	84.1099	116.455	83.8644	116.455	83.9296	116.455	83.7026	116.455	83.7748	116.455	83.5796	116.455	83.6584	116.455	83.5036	116.455	83.588	116.455	83.4765	116.455	83.5648	116.455	83.4942	116.455	83.5834	116.455	83.547	116.455	83.6328	116.455	83.6213	116.455	83.6989	116.455	83.7024	116.455	83.7663	116.455	83.7759	116.455	83.8215	116.455	83.8302	116.455	83.854	116.455	83.8573
120.85	85.0318	120.85	85.0003	120.85	85.0036	120.85	84.9113	120.85	84.9177	120.85	84.7715	120.85	84.7806	120.85	84.5915	120.85	84.6025	120.85	84.3852	120.85	84.3972	120.85	84.1693	120.85	84.1808	120.85	83.9613	120.85	83.9708	120.85	83.778	120.85	83.7842	120.85	83.6333	120.85	83.6357	120.85	83.5363	120.85	83.535	120.85	83.4895	120.85	83.4857	120.85	83.489	120.85	83.4842	120.85	83.5246	120.85	83.5206	120.85	83.5829	120.85	83.5806	120.85	83.6487	120.85	83.6481	120.85	83.7077	120.85	83.7082	120.85	83.7484	120.85	83.7489	120.85	83.7631
125.244	85.364	125.244	85.323	125.244	85.3438	125.244	85.2233	125.244	85.2648	125.244	85.0721	125.244	85.1337	125.244	84.8806	125.244	84.9617	125.244	84.6639	125.244	84.7633	125.244	84.44	125.244	84.5555	125.244	84.2277	125.244	84.3567	125.244	84.0455	125.244	84.184	125.244	83.9085	125.244	84.0516	125.244	83.8262	125.244	83.9684	125.244	83.8009	125.244	83.9368	125.244	83.8274	125.244	83.9517	125.244	83.8934	125.244	84.0019	125.244	83.9828	125.244	84.0723	125.244	84.0778	125.244	84.1462	125.244	84.162	125.244	84.2082	125.244	84.2228	125.244	84.246	125.244	84.2517
129.639	85.3464	129.639	85.31	129.639	85.3182	129.639	85.2117	129.639	85.228	129.639	85.0588	129.639	85.0828	129.639	84.8629	129.639	84.8944	129.639	84.6399	129.639	84.6786	129.639	84.4083	129.639	84.4542	129.639	84.1886	129.639	84.2415	129.639	84.0005	129.639	84.0602	129.639	83.861	129.639	83.9267	129.639	83.7812	129.639	83.8516	129.639	83.7641	129.639	83.837	129.639	83.8043	129.639	83.8766	129.639	83.8883	129.639	83.9563	129.639	83.9975	129.639	84.0573	129.639	84.1113	129.639	84.1595	129.639	84.2107	129.639	84.2444	129.639	84.2804	129.639	84.2978	129.639	84.3107
134.033	85.3108	134.033	85.2745	134.033	85.2768	134.033	85.1706	134.033	85.1751	134.033	85.0063	134.033	85.013	134.033	84.7938	134.033	84.8025	134.033	84.549	134.033	84.5599	134.033	84.2914	134.033	84.3047	134.033	84.0421	134.033	84.0587	134.033	83.8225	134.033	83.8436	134.033	83.6518	134.033	83.6786	134.033	83.5437	134.033	83.5771	134.033	83.5042	134.033	83.5441	134.033	83.5294	134.033	83.5743	134.033	83.6064	134.033	83.6534	134.033	83.7154	134.033	83.7603	134.033	83.8333	134.033	83.8718	134.033	83.9382	134.033	83.9664	134.033	84.0122	134.033	84.027	134.033	84.0433
138.428	85.2893	138.428	85.2576	138.428	85.2499	138.428	85.1574	138.428	85.1419	138.428	84.9962	138.428	84.9732	138.428	84.7861	138.428	84.7559	138.428	84.5431	138.428	84.5064	138.428	84.286	138.428	84.244	138.428	84.035	138.428	83.9895	138.428	83.8099	138.428	83.7635	138.428	83.6281	138.428	83.5837	138.428	83.5024	138.428	83.463	138.428	83.4385	138.428	83.4067	138.428	83.4342	138.428	83.4114	138.428	83.4794	138.428	83.4654	138.428	83.5572	138.428	83.5505	138.428	83.6473	138.428	83.6456	138.428	83.7296	138.428	83.7303	138.428	83.7869	138.428	83.7878	138.428	83.8077
143.555	85.1396	143.555	85.1025	143.555	85.1001	143.555	84.9915	143.555	84.9866	143.555	84.8151	143.555	84.8075	143.555	84.5873	143.555	84.5767	143.555	84.3261	143.555	84.3124	143.555	84.0532	143.555	84.0367	143.555	83.7916	143.555	83.7732	143.555	83.5638	143.555	83.5451	143.555	83.3882	143.555	83.3719	143.555	83.2773	143.555	83.2664	143.555	83.2347	143.555	83.2318	143.555	83.2552	143.555	83.2616	143.555	83.3252	143.555	83.34	143.555	83.4253	143.555	83.4455	143.555	83.5341	143.555	83.5553	143.555	83.6308	143.555	83.6483	143.555	83.6986	143.555	83.7084	143.555	83.726
148.682	85.3165	148.682	85.2732	148.682	85.277	148.682	85.1504	148.682	85.1578	148.682	84.9569	148.682	84.9676	148.682	84.7073	148.682	84.7208	148.682	84.421	148.682	84.4367	148.682	84.1212	148.682	84.1387	148.682	83.8331	148.682	83.8519	148.682	83.5813	148.682	83.6013	148.682	83.3871	148.682	83.4083	148.682	83.2647	148.682	83.2873	148.682	83.2187	148.682	83.2427	148.682	83.243	148.682	83.2681	148.682	83.3218	148.682	83.3472	148.682	83.433	148.682	83.4571	148.682	83.5522	148.682	83.5732	148.682	83.657	148.682	83.6726	148.682	83.7294	148.682	83.7377	148.682	83.7578
153.809	85.3223	153.809	85.2795	153.809	85.2813	153.809	85.1564	153.809	85.159	153.809	84.9621	153.809	84.9639	153.809	84.7115	153.809	84.7101	153.809	84.4243	153.809	84.4173	153.809	84.1242	153.809	84.1094	153.809	83.837	153.809	83.8136	153.809	83.5887	153.809	83.5575	153.809	83.4019	153.809	83.3661	153.809	83.2925	153.809	83.2571	153.809	83.2665	153.809	83.2368	153.809	83.318	153.809	83.2978	153.809	83.4298	153.809	83.4204	153.809	83.5766	153.809	83.5764	153.809	83.7298	153.809	83.7353	153.809	83.8625	153.809	83.8693	153.809	83.9528	153.809	83.9571	153.809	83.9862
159.668	85.1154	159.668	85.0605	159.668	85.0801	159.668	84.9194	159.668	84.9575	159.668	84.7024	159.668	84.7566	159.668	84.4257	159.668	84.4925	159.668	84.1105	159.668	84.1857	159.668	83.782	159.668	83.8604	159.668	83.4667	159.668	83.543	159.668	83.1906	159.668	83.2597	159.668	82.9757	159.668	83.0338	159.668	82.8373	159.668	82.8826	159.668	82.7813	159.668	82.8145	159.668	82.8028	159.668	82.8266	159.668	82.8867	159.668	82.9043	159.668	83.0098	159.668	83.024	159.668	83.145	159.668	83.1567	159.668	83.2655	159.668	83.2743	159.668	83.3488	159.668	83.3537	159.668	83.3801
164.795	84.896	164.795	84.8432	164.795	84.8547	164.795	84.7006	164.795	84.7223	164.795	84.4797	164.795	84.5091	164.795	84.1983	164.795	84.2321	164.795	83.8804	164.795	83.9146	164.795	83.5538	164.795	83.5846	164.795	83.2482	164.795	83.2723	164.795	82.9911	164.795	83.0066	164.795	82.8043	164.795	82.8113	164.795	82.7002	164.795	82.7002	164.795	82.6796	164.795	82.6751	164.795	82.7317	164.795	82.7252	164.795	82.837	164.795	82.8301	164.795	82.9707	164.795	82.9644	164.795	83.1069	164.795	83.1017	164.795	83.2225	164.795	83.2187	164.795	83.299	164.795	83.297	164.795	83.3252
170.654	84.7921	170.654	84.7355	170.654	84.7372	170.654	84.5709	170.654	84.5749	170.654	84.3099	170.654	84.3166	170.654	83.9713	170.654	83.9804	170.654	83.5816	170.654	83.5909	170.654	83.1734	170.654	83.1782	170.654	82.7837	170.654	82.7766	170.654	82.4502	170.654	82.4225	170.654	82.206	170.654	82.1503	170.654	82.0725	170.654	81.9862	170.654	82.0537	170.654	81.9412	170.654	82.1339	170.654	82.0064	170.654	82.2825	170.654	82.1545	170.654	82.4621	170.654	82.3473	170.654	82.6366	170.654	82.545	170.654	82.777	170.654	82.7141	170.654	82.8628	170.654	82.831	170.654	82.882
176.514	85.1137	176.514	85.0478	176.514	85.0779	176.514	84.8839	176.514	84.944	176.514	84.6332	176.514	84.7232	176.514	84.3141	176.514	84.4336	176.514	83.9512	176.514	84.0991	176.514	83.5738	176.514	83.7481	176.514	83.2144	176.514	83.4115	176.514	82.9057	176.514	83.1197	176.514	82.6776	176.514	82.8993	176.514	82.552	176.514	82.7694	176.514	82.5377	176.514	82.7375	176.514	82.6269	176.514	82.7976	176.514	82.7952	176.514	82.9295	176.514	83.0064	176.514	83.1032	176.514	83.2206	176.514	83.284	176.514	83.4023	176.514	83.439	176.514	83.5245	176.514	83.5409	176.514	83.572
183.105	84.8407	183.105	84.7757	183.105	84.7963	183.105	84.6066	183.105	84.6451	183.105	84.3461	183.105	84.398	183.105	84.014	183.105	84.0737	183.105	83.6359	183.105	83.698	183.105	83.2418	183.105	83.3029	183.105	82.8646	183.105	82.924	183.105	82.5374	183.105	82.5977	183.105	82.2902	183.105	82.3564	183.105	82.1456	183.105	82.2231	183.105	82.1141	183.105	82.2054	183.105	82.1899	183.105	82.2928	183.105	82.3507	183.105	82.4579	183.105	82.5616	183.105	82.663	183.105	82.7823	183.105	82.8678	183.105	82.9751	183.105	83.0364	183.105	83.1099	183.105	83.1418	183.105	83.1679
189.697	84.9247	189.697	84.8483	189.697	84.8866	189.697	84.6623	189.697	84.7372	189.697	84.3794	189.697	84.4878	189.697	84.02	189.697	84.1574	189.697	83.6122	189.697	83.7722	189.697	83.1901	189.697	83.3647	189.697	82.7924	189.697	82.972	189.697	82.4584	189.697	82.6334	189.697	82.223	189.697	82.3858	189.697	82.1096	189.697	82.2571	189.697	82.1244	189.697	82.2584	189.697	82.2537	189.697	82.3783	189.697	82.467	189.697	82.5846	189.697	82.7235	189.697	82.8321	189.697	82.9805	189.697	83.0736	189.697	83.1999	189.697	83.2687	189.697	83.3521	189.697	83.3888	189.697	83.4178
196.289	85.0734	196.289	85.0089	196.289	85.0178	196.289	84.8282	196.289	84.8463	196.289	84.5434	196.289	84.5708	196.289	84.1739	196.289	84.2113	196.289	83.7466	196.289	83.7944	196.289	83.2944	196.289	83.353	196.289	82.8552	196.289	82.9241	196.289	82.4702	196.289	82.547	196.289	82.1796	196.289	82.2592	196.289	82.0161	196.289	82.0911	196.289	81.9965	196.289	82.0589	196.289	82.1131	196.289	82.1573	196.289	82.3339	196.289	82.3591	196.289	82.6099	196.289	82.6198	196.289	82.8879	196.289	82.8885	196.289	83.1208	196.289	83.1179	196.289	83.2738	196.289	83.2713	196.289	83.326
202.881	84.8286	202.881	84.7519	202.881	84.7795	202.881	84.5551	202.881	84.6082	202.881	84.2526	202.881	84.3275	202.881	83.8673	202.881	83.9589	202.881	83.4293	202.881	83.5321	202.881	82.9745	202.881	83.0835	202.881	82.5423	202.881	82.6541	202.881	82.1727	202.881	82.2861	202.881	81.9031	202.881	82.0183	202.881	81.762	202.881	81.8795	202.881	81.7624	202.881	81.8807	202.881	81.8958	202.881	82.0103	202.881	82.131	202.881	82.2353	202.881	82.4206	202.881	82.5086	202.881	82.7126	202.881	82.78	202.881	82.9598	202.881	83.0048	202.881	83.1268	202.881	83.1492	202.881	83.1922
210.205	84.9796	210.205	84.9184	210.205	84.9012	210.205	84.7214	210.205	84.6884	210.205	84.4013	210.205	84.3555	210.205	83.9799	210.205	83.9252	210.205	83.4869	210.205	83.4281	210.205	82.9597	210.205	82.9022	210.205	82.4419	210.205	82.3916	210.205	81.9813	210.205	81.9453	210.205	81.6262	210.205	81.6119	210.205	81.4177	210.205	81.4323	210.205	81.3788	210.205	81.4262	210.205	81.5038	210.205	81.5821	210.205	81.7568	210.205	81.8572	210.205	82.0808	210.205	82.189	210.205	82.4134	210.205	82.513	210.205	82.699	210.205	82.775	210.205	82.8963	210.205	82.9373	210.205	82.9792
217.529	85.5143	217.529	85.4607	217.529	85.4332	217.529	85.2763	217.529	85.222	217.529	84.9743	217.529	84.8944	217.529	84.5756	217.529	84.4709	217.529	84.1074	217.529	83.9781	217.529	83.6009	217.529	83.4469	217.529	83.0898	217.529	82.911	217.529	82.6091	217.529	82.4071	217.529	82.195	217.529	81.9746	217.529	81.8834	217.529	81.6541	217.529	81.7043	217.529	81.4796	217.529	81.6716	217.529	81.466	217.529	81.7729	217.529	81.5979	217.529	81.9683	217.529	81.8301	217.529	82.2007	217.529	82.1002	217.529	82.4111	217.529	82.3463	217.529	82.5516	217.529	82.52	217.529	82.5915
225.586	85.1761	225.586	85.0904	225.586	85.1237	225.586	84.8725	225.586	84.9387	225.586	84.5388	225.586	84.637	225.586	84.1161	225.586	84.244	225.586	83.6391	225.586	83.7928	225.586	83.1488	225.586	83.3222	225.586	82.689	225.586	82.8739	225.586	82.303	225.586	82.4902	225.586	82.0291	225.586	82.2099	225.586	81.8955	225.586	82.0626	225.586	81.9132	225.586	82.0615	225.586	82.0707	225.586	82.197	225.586	82.3338	225.586	82.4362	225.586	82.6515	225.586	82.7296	225.586	82.9682	225.586	83.0232	225.586	83.234	225.586	83.2683	225.586	83.4113	225.586	83.4275	225.586	83.478
232.91	85.1655	232.91	85.0745	232.91	85.0997	232.91	84.8316	232.91	84.8822	232.91	84.4522	232.91	84.5277	232.91	83.9615	232.91	84.0602	232.91	83.3949	232.91	83.513	232.91	82.7972	232.91	82.929	232.91	82.2211	232.91	82.3604	232.91	81.7253	232.91	81.8677	232.91	81.3691	232.91	81.5139	232.91	81.2016	232.91	81.3514	232.91	81.2465	232.91	81.4032	232.91	81.4885	232.91	81.6496	232.91	81.8741	232.91	82.031	232.91	82.3272	232.91	82.4682	232.91	82.7698	232.91	82.884	232.91	83.1371	232.91	83.2168	232.91	83.3833	232.91	83.4242	232.91	83.4821
241.699	85.8721	241.699	85.7869	241.699	85.795	241.699	85.5457	241.699	85.5575	241.699	85.162	241.699	85.1705	241.699	84.6561	241.699	84.6542	241.699	84.0547	241.699	84.0385	241.699	83.3916	241.699	83.3616	241.699	82.7082	241.699	82.6688	241.699	82.0558	241.699	82.011	241.699	81.4965	241.699	81.4446	241.699	81.0986	241.699	81.0292	241.699	80.9209	241.699	80.8198	241.699	80.9849	241.699	80.8455	241.699	81.255	241.699	81.087	241.699	81.6474	241.699	81.4739	241.699	82.0615	241.699	81.9083	241.699	82.4094	241.699	82.297	241.699	82.629	241.699	82.5701	241.699	82.6858
249.756	85.4881	249.756	85.3879	249.756	85.4267	249.756	85.1339	249.756	85.2062	249.756	84.7438	249.756	84.8384	249.756	84.2445	249.756	84.3447	249.756	83.6707	249.756	83.7546	249.756	83.0615	249.756	83.1048	249.756	82.4564	249.756	82.4385	249.756	81.8916	249.756	81.806	249.756	81.3994	249.756	81.2639	249.756	81.0121	249.756	80.8704	249.756	80.7653	249.756	80.6724	249.756	80.6933	249.756	80.6853	249.756	80.8084	249.756	80.8808	249.756	81.0789	249.756	81.1936	249.756	81.4288	249.756	81.5422	249.756	81.7651	249.756	81.8486	249.756	82.0081	249.756	82.0508	249.756	82.1086
258.545	86.265	258.545	86.1591	258.545	86.1885	258.545	85.8783	258.545	85.9333	258.545	85.4411	258.545	85.514	258.545	84.8762	258.545	84.9555	258.545	84.2208	258.545	84.2911	258.545	83.5189	258.545	83.5612	258.545	82.8181	258.545	82.8105	258.545	82.1676	258.545	82.0883	258.545	81.6156	258.545	81.449	258.545	81.2056	258.545	80.9513	258.545	80.9687	258.545	80.6501	258.545	80.913	258.545	80.5748	258.545	81.0163	258.545	80.7083	258.545	81.2287	258.545	80.9852	258.545	81.4848	258.545	81.3162	258.545	81.7185	258.545	81.6176	258.545	81.8749	258.545	81.8289	258.545	81.9171
268.066	86.6912	268.066	86.5992	268.066	86.6215	268.066	86.35	268.066	86.3953	268.066	85.9582	268.066	86.0273	268.066	85.4473	268.066	85.54	268.066	84.8477	268.066	84.9618	268.066	84.1951	268.066	84.3248	268.066	83.529	268.066	83.6637	268.066	82.8916	268.066	83.0156	268.066	82.3272	268.066	82.4218	268.066	81.8795	268.066	81.9293	268.066	81.5852	268.066	81.5858	268.066	81.4623	268.066	81.4249	268.066	81.4989	268.066	81.4452	268.066	81.6525	268.066	81.6027	268.066	81.8612	268.066	81.8261	268.066	82.0619	268.066	82.0422	268.066	82.2029	268.066	82.1948	268.066	82.2514
277.588	86.0028	277.588	85.9015	277.588	85.9181	277.588	85.6212	277.588	85.654	277.588	85.1814	277.588	85.2297	277.588	84.6145	277.588	84.6775	277.588	83.964	277.588	84.0404	277.588	83.2831	277.588	83.3699	277.588	82.6307	277.588	82.7236	277.588	82.0668	277.588	82.1619	277.588	81.6476	277.588	81.7451	277.588	81.419	277.588	81.525	277.588	81.407	277.588	81.5301	277.588	81.6064	277.588	81.7483	277.588	81.9735	277.588	82.1241	277.588	82.4331	277.588	82.5744	277.588	82.8987	277.588	83.014	277.588	83.2928	277.588	83.3719	277.588	83.5587	277.588	83.5984	277.588	83.664
287.109	85.6886	287.109	85.5677	287.109	85.6087	287.109	85.2523	287.109	85.3362	287.109	84.7633	287.109	84.8941	287.109	84.1352	287.109	84.3169	287.109	83.4139	287.109	83.6459	287.109	82.6535	287.109	82.923	287.109	81.9117	287.109	82.1856	287.109	81.2463	287.109	81.469	287.109	80.7126	287.109	80.8178	287.109	80.3613	287.109	80.3015	287.109	80.2305	287.109	80.0172	287.109	80.332	287.109	80.0502	287.109	80.6386	287.109	80.4015	287.109	81.0835	287.109	80.9602	287.109	81.5756	287.109	81.5618	287.109	82.0212	287.109	82.0641	287.109	82.339	287.109	82.3789	287.109	82.4696
297.363	86.2737	297.363	86.2343	297.363	86.1126	297.363	85.9939	297.363	85.766	297.363	85.5672	297.363	85.2621	297.363	84.9821	297.363	84.6383	297.363	84.276	297.363	83.9386	297.363	83.493	297.363	83.2093	297.363	82.681	297.363	82.4951	297.363	81.8931	297.363	81.834	297.363	81.1876	297.363	81.2535	297.363	80.6273	297.363	80.773	297.363	80.2678	297.363	80.4112	297.363	80.1368	297.363	80.1926	297.363	80.215	297.363	80.1395	297.363	80.4366	297.363	80.2498	297.363	80.7118	297.363	80.4798	297.363	80.9539	297.363	80.7519	297.363	81.098	297.363	80.9827	297.363	81.1085
307.617	86.107	307.617	85.9387	307.617	86.0831	307.617	85.5919	307.617	85.8658	307.617	85.0914	307.617	85.4668	307.617	84.4707	307.617	84.9101	307.617	83.7683	307.617	84.2314	307.617	83.0255	307.617	83.4768	307.617	82.2859	307.617	82.7014	307.617	81.5986	307.617	81.9676	307.617	81.023	307.617	81.3427	307.617	80.629	307.617	80.893	307.617	80.48	307.617	80.6701	307.617	80.5969	307.617	80.6898	307.617	80.9294	307.617	80.9179	307.617	81.3713	307.617	81.2779	307.617	81.8078	307.617	81.677	307.617	82.1525	307.617	82.0329	307.617	82.3562	307.617	82.2862	307.617	82.4001
318.604	85.4691	318.604	85.3495	318.604	85.3924	318.604	85.0421	318.604	85.1242	318.604	84.5679	318.604	84.6825	318.604	83.9593	318.604	84.098	318.604	83.2571	318.604	83.4116	318.604	82.5079	318.604	82.6719	318.604	81.7617	318.604	81.9313	318.604	81.0721	318.604	81.2451	318.604	80.5001	318.604	80.6728	318.604	80.119	318.604	80.282	318.604	80.0036	318.604	80.1419	318.604	80.1946	318.604	80.2953	318.604	80.6565	318.604	80.7179	318.604	81.2779	318.604	81.31	318.604	81.9191	318.604	81.9347	318.604	82.459	318.604	82.4667	318.604	82.8145	318.604	82.8179	318.604	82.939
329.59	85.3783	329.59	85.2501	329.59	85.2833	329.59	84.9015	329.59	84.9818	329.59	84.3562	329.59	84.5072	329.59	83.6582	329.59	83.9044	329.59	82.8677	329.59	83.2231	329.59	82.0521	329.59	82.5102	329.59	81.2741	329.59	81.806	329.59	80.5828	329.59	81.147	329.59	80.015	329.59	80.5736	329.59	79.6076	329.59	80.1385	329.59	79.4093	329.59	79.9035	329.59	79.4694	329.59	79.9155	329.59	79.7961	329.59	80.1708	329.59	80.3193	329.59	80.5994	329.59	80.9085	329.59	81.0896	329.59	81.4285	329.59	81.5274	329.59	81.7811	329.59	81.8222	329.59	81.9154
341.309	85.5752	341.309	85.4472	341.309	85.4226	341.309	85.0545	341.309	84.9968	341.309	84.4342	341.309	84.3294	341.309	83.6421	341.309	83.4757	341.309	82.7473	341.309	82.5101	341.309	81.8256	341.309	81.5166	341.309	80.9499	341.309	80.5772	341.309	80.1833	341.309	79.7638	341.309	79.5765	341.309	79.1424	341.309	79.1722	341.309	78.7787	341.309	79.0092	341.309	78.7279	341.309	79.114	341.309	78.9991	341.309	79.4762	341.309	79.5259	341.309	80.0267	341.309	80.1833	341.309	80.6477	341.309	80.834	341.309	81.2106	341.309	81.3641	341.309	81.6101	341.309	81.6945	341.309	81.78
353.76	85.359	353.76	85.2245	353.76	85.2284	353.76	84.8346	353.76	84.8429	353.76	84.2187	353.76	84.2318	353.76	83.4234	353.76	83.4418	353.76	82.5077	353.76	82.5345	353.76	81.5358	353.76	81.5807	353.76	80.5716	353.76	80.6535	353.76	79.6802	353.76	79.8232	353.76	78.9407	353.76	79.1592	353.76	78.461	353.76	78.7387	353.76	78.3589	353.76	78.6414	353.76	78.6844	353.76	78.9067	353.76	79.3493	353.76	79.4791	353.76	80.1658	353.76	80.215	353.76	80.9486	353.76	80.9498	353.76	81.5702	353.76	81.5542	353.76	81.9605	353.76	81.9477	353.76	82.0883
366.211	85.6548	366.211	85.476	366.211	85.5548	366.211	85.0358	366.211	85.1782	366.211	84.3703	366.211	84.5473	366.211	83.534	366.211	83.7053	366.211	82.5973	366.211	82.7132	366.211	81.6378	366.211	81.641	366.211	80.7245	366.211	80.5541	366.211	79.9014	366.211	79.5023	366.211	79.1849	366.211	78.5232	366.211	78.5841	366.211	77.6734	366.211	78.1353	366.211	77.0714	366.211	77.9199	366.211	76.892	366.211	78.0236	366.211	77.2289	366.211	78.4414	366.211	77.9526	366.211	79.0371	366.211	78.7933	366.211	79.6187	366.211	79.5185	366.211	80.0268	366.211	79.9947	366.211	80.1657
378.662	85.3094	378.662	85.1612	378.662	85.2083	378.662	84.7656	378.662	84.8762	378.662	84.144	378.662	84.3498	378.662	83.3332	378.662	83.6783	378.662	82.3818	378.662	82.9138	378.662	81.3464	378.662	82.1014	378.662	80.2933	378.662	81.2723	378.662	79.3041	378.662	80.4457	378.662	78.483	378.662	79.6416	378.662	77.9492	378.662	78.9041	378.662	77.794	378.662	78.3281	378.662	78.0195	378.662	78.0541	378.662	78.5234	378.662	78.1847	378.662	79.152	378.662	78.6718	378.662	79.7629	378.662	79.3275	378.662	80.2504	378.662	79.9475	378.662	80.543	378.662	80.3929	378.662	80.5966
392.578	85.3172	392.578	85.195	392.578	85.1403	392.578	84.7843	392.578	84.6752	392.578	84.1172	392.578	83.9556	392.578	83.2462	392.578	83.0396	392.578	82.2407	392.578	82.0065	392.578	81.1756	392.578	80.9473	392.578	80.1156	392.578	79.945	392.578	79.1012	392.578	79.0566	392.578	78.1513	392.578	78.3085	392.578	77.2904	392.578	77.7132	392.578	76.5963	392.578	77.3013	392.578	76.2433	392.578	77.1447	392.578	76.4299	392.578	77.3281	392.578	77.1524	392.578	77.8524	392.578	78.1325	392.578	78.5733	392.578	79.0392	392.578	79.2705	392.578	79.6591	392.578	79.7529	392.578	79.9002
405.762	85.1904	405.762	85.009	405.762	85.0545	405.762	84.5199	405.762	84.6213	405.762	83.7624	405.762	83.938	405.762	82.8023	405.762	83.0732	405.762	81.7247	405.762	82.108	405.762	80.6234	405.762	81.1219	405.762	79.5897	405.762	80.1801	405.762	78.7057	405.762	79.3289	405.762	78.0403	405.762	78.6058	405.762	77.6473	405.762	78.0569	405.762	77.5573	405.762	77.745	405.762	77.7635	405.762	77.731	405.762	78.208	405.762	78.0245	405.762	78.7889	405.762	78.5491	405.762	79.386	405.762	79.1661	405.762	79.8884	405.762	79.7304	405.762	80.2103	405.762	80.1297	405.762	80.297
420.41	84.775	420.41	84.5697	420.41	84.6494	420.41	84.0522	420.41	84.2041	420.41	83.2741	420.41	83.4797	420.41	82.3228	420.41	82.5468	420.41	81.3156	420.41	81.5035	420.41	80.3744	420.41	80.4595	420.41	79.5824	420.41	79.507	420.41	78.9526	420.41	78.6964	420.41	78.4408	420.41	78.0419	420.41	77.9947	420.41	77.5545	420.41	77.6096	420.41	77.2698	420.41	77.3609	420.41	77.2363	420.41	77.375	420.41	77.4703	420.41	77.7124	420.41	77.9188	420.41	78.2712	420.41	78.4677	420.41	78.8498	420.41	78.9795	420.41	79.2721	420.41	79.3319	420.41	79.4409
435.059	84.9322	435.059	84.7497	435.059	84.7335	435.059	84.2086	435.059	84.1632	435.059	83.3642	435.059	83.2661	435.059	82.3036	435.059	82.1233	435.059	81.1367	435.059	80.847	435.059	79.9719	435.059	79.5599	435.059	78.8873	435.059	78.3656	435.059	77.92	435.059	77.3319	435.059	77.0913	435.059	76.507	435.059	76.4528	435.059	75.9614	435.059	76.1219	435.059	75.8133	435.059	76.2423	435.059	76.1614	435.059	76.8413	435.059	76.9441	435.059	77.7486	435.059	77.9324	435.059	78.707	435.059	78.8814	435.059	79.5093	435.059	79.63	435.059	80.0361	435.059	80.0945	435.059	80.2348
450.439	83.9257	450.439	83.8013	450.439	83.7239	450.439	83.3639	450.439	83.2217	450.439	82.6641	450.439	82.4819	450.439	81.782	450.439	81.5964	450.439	80.8115	450.439	80.6712	450.439	79.8385	450.439	79.801	450.439	78.9216	450.439	79.0363	450.439	78.0941	450.439	78.3631	450.439	77.3929	450.439	77.7302	450.439	76.8937	450.439	77.1266	450.439	76.7083	450.439	76.6598	450.439	76.9178	450.439	76.5561	450.439	77.4909	450.439	76.9818	450.439	78.28	450.439	77.8261	450.439	79.0961	450.439	78.7866	450.439	79.7781	450.439	79.6043	450.439	80.216	450.439	80.1412	450.439	80.3464
466.553	84.9047	466.553	84.6571	466.553	84.7656	466.553	84.0315	466.553	84.2549	466.553	83.0617	466.553	83.4129	466.553	81.8128	466.553	82.3067	466.553	80.3868	466.553	81.0275	466.553	78.9203	466.553	79.68	466.553	77.5565	466.553	78.3619	466.553	76.4049	466.553	77.1466	466.553	75.5293	466.553	76.082	466.553	74.9863	466.553	75.2176	466.553	74.8618	466.553	74.6597	466.553	75.2319	466.553	74.6002	466.553	76.0572	466.553	75.1846	466.553	77.1428	466.553	76.283	466.553	78.2326	466.553	77.5455	466.553	79.114	466.553	78.6537	466.553	79.6479	466.553	79.4199	466.553	79.7585
482.666	85.2445	482.666	85.0133	482.666	85.0325	482.666	84.3511	482.666	84.3854	482.666	83.2967	482.666	83.3356	482.666	81.9249	482.666	81.9546	482.666	80.3548	482.666	80.377	482.666	78.7452	482.666	78.8125	482.666	77.2631	482.666	77.5037	482.666	76.0297	482.666	76.6134	482.666	75.0848	482.666	76.1302	482.666	74.4291	482.666	75.9102	482.666	74.1314	482.666	75.8047	482.666	74.3599	482.666	75.7632	482.666	75.1822	482.666	75.8764	482.666	76.3704	482.666	76.3123	482.666	77.5676	482.666	77.1041	482.666	78.5109	482.666	78.0284	482.666	79.0593	482.666	78.7788	482.666	79.1495
500.244	84.9157	500.244	84.7058	500.244	84.6979	500.244	84.0877	500.244	84.0702	500.244	83.1172	500.244	83.09	500.244	81.8887	500.244	81.8555	500.244	80.5343	500.244	80.4947	500.244	79.2061	500.244	79.1377	500.244	78.034	500.244	77.8786	500.244	77.074	500.244	76.7547	500.244	76.2989	500.244	75.7755	500.244	75.6408	500.244	74.9964	500.244	75.0553	500.244	74.5683	500.244	74.5935	500.244	74.6513	500.244	74.4621	500.244	75.2104	500.244	74.8963	500.244	76.0025	500.244	75.8095	500.244	76.7827	500.244	76.8013	500.244	77.408	500.244	77.5296	500.244	77.7933	500.244	77.8576
517.822	84.0707	517.822	83.8894	517.822	83.8341	517.822	83.2992	517.822	83.2164	517.822	82.351	517.822	82.2992	517.822	81.133	517.822	81.1985	517.822	79.7659	517.822	80.039	517.822	78.3925	517.822	78.9087	517.822	77.1481	517.822	77.8209	517.822	76.1205	517.822	76.7346	517.822	75.3575	517.822	75.6317	517.822	74.9325	517.822	74.6125	517.822	74.9556	517.822	73.9835	517.822	75.4403	517.822	74.1526	517.822	76.1928	517.822	75.1342	517.822	76.9462	517.822	76.4269	517.822	77.5559	517.822	77.5505	517.822	78.0236	517.822	78.2921	517.822	78.3879	517.822	78.6258	517.822	78.6211
536.133	84.4501	536.133	84.1075	536.133	84.3208	536.133	83.3191	536.133	83.7213	536.133	82.1565	536.133	82.6709	536.133	80.7503	536.133	81.2133	536.133	79.2797	536.133	79.4474	536.133	77.9085	536.133	77.5812	536.133	76.7041	536.133	75.9511	536.133	75.6392	536.133	74.8897	536.133	74.6758	536.133	74.4806	536.133	73.848	536.133	74.5298	536.133	73.3441	536.133	74.7853	536.133	73.507	536.133	75.1144	536.133	74.4653	536.133	75.532	536.133	75.8271	536.133	76.1088	536.133	77.0886	536.133	76.8368	536.133	77.985	536.133	77.586	536.133	78.4491	536.133	78.1843	536.133	78.4991
554.443	83.6156	554.443	83.4436	554.443	83.3046	554.443	82.787	554.443	82.5409	554.443	81.672	554.443	81.4003	554.443	80.1799	554.443	80.0283	554.443	78.4971	554.443	78.6446	554.443	76.9317	554.443	77.4848	554.443	75.7776	554.443	76.6687	554.443	75.0843	554.443	76.1167	554.443	74.6798	554.443	75.6371	554.443	74.4335	554.443	75.1146	554.443	74.422	554.443	74.6741	554.443	74.8581	554.443	74.7013	554.443	75.8079	554.443	75.4763	554.443	77.0375	554.443	76.7518	554.443	78.221	554.443	78.0481	554.443	79.1432	554.443	79.0609	554.443	79.7109	554.443	79.6813	554.443	79.8944
574.219	84.9521	574.219	84.6947	574.219	84.6437	574.219	83.8666	574.219	83.7944	574.219	82.4971	574.219	82.4564	574.219	80.678	574.219	80.7392	574.219	78.6028	574.219	78.8556	574.219	76.5958	574.219	77.1308	574.219	75.0331	574.219	75.8505	574.219	74.0662	574.219	75.0267	574.219	73.5231	574.219	74.4889	574.219	73.2505	574.219	74.1725	574.219	73.3573	574.219	74.1702	574.219	74.0784	574.219	74.6041	574.219	75.4258	574.219	75.5427	574.219	77.0753	574.219	76.923	574.219	78.6442	574.219	78.4625	574.219	79.8871	574.219	79.7887	574.219	80.6773	574.219	80.6482	574.219	80.9448
594.727	86.0934	594.727	85.721	594.727	85.8595	594.727	84.7788	594.727	85.0338	594.727	83.3543	594.727	83.6785	594.727	81.5748	594.727	81.8992	594.727	79.5879	594.727	79.8445	594.727	77.5645	594.727	77.7218	594.727	75.7342	594.727	75.7974	594.727	74.3576	594.727	74.2934	594.727	73.5577	594.727	73.2293	594.727	73.2392	594.727	72.486	594.727	73.2413	594.727	72.12	594.727	73.5079	594.727	72.5182	594.727	74.1721	594.727	73.8628	594.727	75.4225	594.727	75.6865	594.727	77.0898	594.727	77.4462	594.727	78.6588	594.727	78.8588	594.727	79.7138	594.727	79.7762	594.727	80.0871
615.234	85.5415	615.234	85.3135	615.234	85.2951	615.234	84.6035	615.234	84.5995	615.234	83.4315	615.234	83.4808	615.234	81.8549	615.234	81.9572	615.234	79.9832	615.234	80.0675	615.234	77.989	615.234	77.9425	615.234	76.0787	615.234	75.8692	615.234	74.4108	615.234	74.2419	615.234	73.0486	615.234	73.3285	615.234	72.052	615.234	73.0488	615.234	71.5809	615.234	73.0966	615.234	71.7527	615.234	73.2974	615.234	72.4891	615.234	73.7856	615.234	73.6504	615.234	74.7702	615.234	75.0846	615.234	76.1092	615.234	76.5293	615.234	77.3554	615.234	77.6619	615.234	78.125	615.234	78.2333
637.207	85.8731	637.207	85.6102	637.207	85.5306	637.207	84.7189	637.207	84.6339	637.207	83.2426	637.207	83.2573	637.207	81.3551	637.207	81.5186	637.207	79.3821	637.207	79.6013	637.207	77.6483	637.207	77.7419	637.207	76.2027	637.207	76.1204	637.207	74.8277	637.207	74.722	637.207	73.3716	637.207	73.3956	637.207	71.9786	637.207	72.1726	637.207	71.0873	637.207	71.5923	637.207	71.2185	637.207	72.2428	637.207	72.4284	637.207	73.6701	637.207	74.1329	637.207	75.0486	637.207	75.7695	637.207	76.1815	637.207	77.1119	637.207	77.2293	637.207	78.0444	637.207	78.081	637.207	78.4013
659.912	84.9698	659.912	84.5739	659.912	84.7798	659.912	83.6547	659.912	83.9837	659.912	82.3014	659.912	82.6447	659.912	80.6249	659.912	80.96	659.912	78.765	659.912	79.2396	659.912	76.927	659.912	77.7407	659.912	75.3642	659.912	76.4907	659.912	74.1807	659.912	75.3592	659.912	73.3302	659.912	74.2826	659.912	72.9704	659.912	73.2963	659.912	73.3412	659.912	72.4177	659.912	74.1436	659.912	71.7696	659.912	74.7448	659.912	71.8659	659.912	74.8863	659.912	73.0497	659.912	74.9803	659.912	74.707	659.912	75.6136	659.912	76.0987	659.912	76.514	659.912	76.905	659.912	77.0362
683.35	85.3271	683.35	85.0272	683.35	84.9387	683.35	84.0868	683.35	83.9054	683.35	82.6173	683.35	82.3563	683.35	80.7815	683.35	80.4839	683.35	78.819	683.35	78.5872	683.35	76.9983	683.35	77.0327	683.35	75.4482	683.35	75.8734	683.35	74.0988	683.35	74.7821	683.35	72.7456	683.35	73.5075	683.35	71.3053	683.35	72.2847	683.35	70.5	683.35	71.9892	683.35	71.3713	683.35	72.7837	683.35	73.0694	683.35	73.599	683.35	74.5305	683.35	73.9769	683.35	75.7338	683.35	74.6032	683.35	76.9055	683.35	76.0086	683.35	77.8363	683.35	77.4197	683.35	78.0839
706.787	86.0161	706.787	85.765	706.787	85.6267	706.787	84.7816	706.787	84.6672	706.787	83.0353	706.787	83.1699	706.787	80.6947	706.787	81.1458	706.787	78.214	706.787	78.6773	706.787	76.1974	706.787	76.1525	706.787	75.0005	706.787	74.3947	706.787	74.4365	706.787	73.7467	706.787	74.0703	706.787	73.3621	706.787	73.5854	706.787	72.5635	706.787	72.9102	706.787	71.7323	706.787	72.5206	706.787	72.0727	706.787	73.1932	706.787	73.4793	706.787	74.6137	706.787	74.8603	706.787	75.9817	706.787	76.0185	706.787	77.0835	706.787	77.1334	706.787	77.9316	706.787	78.0299	706.787	78.3269
731.689	84.8672	731.689	84.5906	731.689	84.7323	731.689	83.8789	731.689	84.1458	731.689	82.6854	731.689	83.0226	731.689	80.9474	731.689	81.3561	731.689	78.675	731.689	79.3313	731.689	76.2514	731.689	77.2912	731.689	74.4569	731.689	75.6154	731.689	73.4873	731.689	74.4829	731.689	72.6808	731.689	73.6402	731.689	71.7695	731.689	72.7452	731.689	71.45	731.689	71.7288	731.689	72.2018	731.689	70.9045	731.689	73.2081	731.689	70.9178	731.689	73.7858	731.689	71.9869	731.689	74.2171	731.689	73.3582	731.689	74.9164	731.689	74.336	731.689	75.4356	731.689	74.9519	731.689	75.387
758.057	84.9157	758.057	84.6489	758.057	84.5836	758.057	83.8765	758.057	83.6236	758.057	82.6385	758.057	82.1522	758.057	80.891	758.057	80.4005	758.057	78.6253	758.057	78.5795	758.057	76.1139	758.057	76.8033	758.057	74.0593	758.057	75.2138	758.057	72.8148	758.057	74.0858	758.057	71.8516	758.057	73.4753	758.057	70.8123	758.057	72.9259	758.057	70.0067	758.057	72.1571	758.057	70.4608	758.057	71.7287	758.057	72.2844	758.057	72.1847	758.057	73.8858	758.057	72.7937	758.057	74.4239	758.057	72.8862	758.057	74.1108	758.057	72.6682	758.057	73.5194	758.057	72.626	758.057	72.9633
784.424	84.2128	784.424	84.0095	784.424	84.1124	784.424	83.4373	784.424	83.6319	784.424	82.3555	784.424	82.6541	784.424	80.7382	784.424	81.0912	784.424	78.7774	784.424	78.9067	784.424	76.7921	784.424	76.4272	784.424	75.1826	784.424	74.6394	784.424	74.1208	784.424	74.0223	784.424	73.1821	784.424	73.6737	784.424	71.8906	784.424	72.7459	784.424	70.1086	784.424	71.388	784.424	68.814	784.424	71.1742	784.424	69.7482	784.424	72.4426	784.424	71.7798	784.424	73.5961	784.424	73.5088	784.424	74.2877	784.424	74.731	784.424	74.8699	784.424	75.4398	784.424	75.3781	784.424	75.6241
812.256	84.4357	812.256	84.0356	812.256	84.1236	812.256	83.1014	812.256	83.1799	812.256	81.8466	812.256	81.8756	812.256	80.3436	812.256	80.3764	812.256	78.6004	812.256	78.6973	812.256	76.6977	812.256	77.0302	812.256	75.0515	812.256	75.8395	812.256	74.4055	812.256	75.3456	812.256	74.4156	812.256	74.951	812.256	73.8352	812.256	73.9886	812.256	72.1711	812.256	72.2818	812.256	70.4231	812.256	70.5335	812.256	70.5324	812.256	71.0396	812.256	71.7545	812.256	72.688	812.256	72.8934	812.256	73.3054	812.256	73.5179	812.256	73.1954	812.256	73.5234	812.256	73.1557	812.256	73.2922
840.82	83.9546	840.82	83.6766	840.82	83.9584	840.82	83.1226	840.82	83.4016	840.82	82.0262	840.82	82.2231	840.82	80.3118	840.82	80.7427	840.82	78.2177	840.82	79.1656	840.82	76.1204	840.82	77.3432	840.82	74.3556	840.82	75.4559	840.82	73.4175	840.82	74.4476	840.82	73.6288	840.82	74.5307	840.82	73.9379	840.82	74.6872	840.82	73.2203	840.82	74.2173	840.82	71.6887	840.82	73.0772	840.82	70.8682	840.82	72.109	840.82	70.5799	840.82	72.7411	840.82	70.2081	840.82	73.9751	840.82	71.5381	840.82	74.434	840.82	73.3097	840.82	74.3232	840.82	74.0942
870.85	83.836	870.85	83.6808	870.85	83.6302	870.85	83.1061	870.85	83.0609	870.85	82.0508	870.85	82.0715	870.85	80.5608	870.85	80.6043	870.85	78.8328	870.85	78.6381	870.85	77.1364	870.85	76.3131	870.85	75.6959	870.85	74.4364	870.85	74.6759	870.85	74.2832	870.85	74.1774	870.85	74.7884	870.85	73.99	870.85	74.3241	870.85	73.494	870.85	73.0442	870.85	72.1723	870.85	72.2015	870.85	70.7945	870.85	72.317	870.85	71.5452	870.85	72.525	870.85	72.9908	870.85	72.3024	870.85	73.2252	870.85	71.9287	870.85	72.6213	870.85	71.9155	870.85	72.1661
901.611	84.7323	901.611	84.5585	901.611	84.3225	901.611	83.757	901.611	83.6214	901.611	82.6229	901.611	82.6612	901.611	81.2806	901.611	81.2231	901.611	79.3785	901.611	79.402	901.611	76.6271	901.611	77.5937	901.611	73.9432	901.611	75.9307	901.611	73.2823	901.611	74.8118	901.611	73.9113	901.611	74.875	901.611	74.2116	901.611	75.3628	901.611	73.7783	901.611	75.1787	901.611	73.1365	901.611	73.8141	901.611	73.2049	901.611	72.2981	901.611	73.3344	901.611	72.9079	901.611	73.1503	901.611	73.9012	901.611	72.9221	901.611	73.3798	901.611	71.7589	901.611	71.538	901.611	70.5374
933.105	83.8275	933.105	83.6522	933.105	83.8585	933.105	83.3232	933.105	83.5345	933.105	82.6718	933.105	82.7239	933.105	81.5259	933.105	81.5091	933.105	79.7268	933.105	79.759	933.105	77.2093	933.105	77.1749	933.105	74.1618	933.105	74.0907	933.105	72.207	933.105	72.8851	933.105	73.3899	933.105	74.3726	933.105	75.0077	933.105	75.722	933.105	74.982	933.105	75.9456	933.105	73.0452	933.105	74.9665	933.105	71.9012	933.105	73.6134	933.105	73.9007	933.105	74.0567	933.105	75.4685	933.105	75.2068	933.105	76.0741	933.105	75.2651	933.105	76.0611	933.105	74.9903	933.105	75.4457
966.064	83.6246	966.064	83.1928	966.064	83.5489	966.064	82.4537	966.064	83.2261	966.064	81.8937	966.064	82.9415	966.064	81.6834	966.064	82.4522	966.064	81.1303	966.064	81.2888	966.064	79.3339	966.064	79.2818	966.064	76.068	966.064	76.6146	966.064	72.8112	966.064	74.292	966.064	72.5266	966.064	73.618	966.064	73.2366	966.064	73.7984	966.064	73.3327	966.064	74.0954	966.064	72.9105	966.064	73.6484	966.064	71.859	966.064	72.4436	966.064	73.3779	966.064	73.3043	966.064	75.7455	966.064	74.4847	966.064	75.9056	966.064	74.9628	966.064	75.6375	966.064	75.9886	966.064	76.2774
999.756	82.7637	999.756	82.7675	999.756	83.0613	999.756	82.8754	999.756	83.1756	999.756	82.7383	999.756	82.8362	999.756	82.2588	999.756	82.2964	999.756	81.2171	999.756	81.4737	999.756	79.5785	999.756	80.0643	999.756	78.098	999.756	78.0029	999.756	77.196	999.756	75.2098	999.756	76.2641	999.756	73.2042	999.756	75.6267	999.756	74.3467	999.756	75.4321	999.756	75.0854	999.756	74.6086	999.756	73.227	999.756	72.7357	999.756	69.9818	999.756	71.735	999.756	70.6718	999.756	73.3165	999.756	73.1605	999.756	74.1866	999.756	74.4317	999.756	73.2088	999.756	73.51	999.756	72.3756
1034.91	83.9239	1034.91	83.9427	1034.91	83.8706	1034.91	83.6858	1034.91	83.748	1034.91	83.1311	1034.91	83.2422	1034.91	82.3278	1034.91	82.3635	1034.91	81.1346	1034.91	81.3473	1034.91	79.5931	1034.91	80.0379	1034.91	77.769	1034.91	78.2038	1034.91	75.5079	1034.91	76.6452	1034.91	73.9459	1034.91	76.4689	1034.91	74.0974	1034.91	76.7976	1034.91	74.9039	1034.91	76.4807	1034.91	75.1843	1034.91	75.4847	1034.91	73.2422	1034.91	73.7239	1034.91	70.327	1034.91	70.37	1034.91	70.9938	1034.91	69.7466	1034.91	71.268	1034.91	69.486	1034.91	68.7767	1034.91	64.6674	1034.91	63.7318
1071.53	84.016	1071.53	84.1543	1071.53	83.9107	1071.53	84.1387	1071.53	84.058	1071.53	83.9176	1071.53	83.9943	1071.53	83.0931	1071.53	83.1499	1071.53	81.5042	1071.53	81.5566	1071.53	79.6612	1071.53	79.5651	1071.53	77.7261	1071.53	77.6456	1071.53	75.3365	1071.53	75.9275	1071.53	73.9929	1071.53	73.6002	1071.53	74.6843	1071.53	73.8118	1071.53	75.2352	1071.53	75.8796	1071.53	74.6712	1071.53	75.8384	1071.53	73.3201	1071.53	75.4625	1071.53	72.9968	1071.53	75.3739	1071.53	72.6115	1071.53	73.8303	1071.53	71.2961	1071.53	73.3808	1071.53	70.368	1071.53	72.9106	1071.53	71.2887
1109.62	84.8543	1109.62	84.5201	1109.62	85.0074	1109.62	84.5392	1109.62	84.6395	1109.62	84.4221	1109.62	84.3341	1109.62	83.7822	1109.62	83.8263	1109.62	82.107	1109.62	82.5842	1109.62	79.0573	1109.62	80.8224	1109.62	76.3663	1109.62	78.1232	1109.62	75.6008	1109.62	74.6852	1109.62	74.2567	1109.62	74.6069	1109.62	73.5659	1109.62	75.3247	1109.62	75.5377	1109.62	75.4911	1109.62	76.501	1109.62	75.6712	1109.62	75.0286	1109.62	74.6327	1109.62	71.9018	1109.62	72.0599	1109.62	71.9762	1109.62	71.3883	1109.62	73.5648	1109.62	74.4088	1109.62	72.6723	1109.62	74.9039	1109.62	72.9265
1148.44	84.4399	1148.44	84.7556	1148.44	84.6712	1148.44	85.2378	1148.44	84.7611	1148.44	84.9599	1148.44	84.6317	1148.44	84.164	1148.44	84.1458	1148.44	83.0325	1148.44	82.9747	1148.44	81.2821	1148.44	81.307	1148.44	79.1684	1148.44	79.3004	1148.44	77.1173	1148.44	77.1842	1148.44	75.1076	1148.44	75.6431	1148.44	74.8928	1148.44	75.0531	1148.44	75.4114	1148.44	74.4471	1148.44	75.3191	1148.44	74.5287	1148.44	75.3553	1148.44	74.9764	1148.44	74.133	1148.44	73.375	1148.44	72.8454	1148.44	73.1301	1148.44	72.4017	1148.44	72.8553	1148.44	70.3657	1148.44	69.918	1148.44	68.3523
1189.45	84.5514	1189.45	84.6628	1189.45	84.6529	1189.45	84.6729	1189.45	84.8839	1189.45	84.4427	1189.45	84.8475	1189.45	84.0539	1189.45	84.2125	1189.45	83.1171	1189.45	82.6835	1189.45	81.1275	1189.45	80.6312	1189.45	78.6271	1189.45	78.3326	1189.45	76.4813	1189.45	75.4771	1189.45	74.9884	1189.45	73.7931	1189.45	74.8372	1189.45	74.1781	1189.45	75.124	1189.45	75.7547	1189.45	75.7025	1189.45	77.1223	1189.45	75.7872	1189.45	77.08	1189.45	74.8307	1189.45	75.4437	1189.45	73.7393	1189.45	71.8591	1189.45	72.563	1189.45	71.3879	1189.45	70.173	1189.45	70.6959	1189.45	69.2277
1231.2	83.899	1231.2	83.7561	1231.2	84.2697	1231.2	84.2087	1231.2	84.533	1231.2	84.6407	1231.2	84.2583	1231.2	83.9656	1231.2	83.3626	1231.2	82.3898	1231.2	81.8208	1231.2	80.5909	1231.2	79.9594	1231.2	78.6789	1231.2	77.9789	1231.2	76.806	1231.2	75.5083	1231.2	74.7244	1231.2	73.8704	1231.2	74.1485	1231.2	74.068	1231.2	74.8835	1231.2	74.1162	1231.2	75.208	1231.2	75.107	1231.2	76.7605	1231.2	76.3218	1231.2	76.4919	1231.2	74.1785	1231.2	75.11	1231.2	71.605	1231.2	73.663	1231.2	71.7686	1231.2	71.1219	1231.2	69.8608	1231.2	68.8717
1274.41	83.7497	1274.41	83.8796	1274.41	83.8074	1274.41	84.0836	1274.41	84.1999	1274.41	84.0876	1274.41	84.0168	1274.41	83.3502	1274.41	83.1948	1274.41	82.1767	1274.41	81.9221	1274.41	80.3882	1274.41	80.1229	1274.41	78.0144	1274.41	78.3727	1274.41	76.1807	1274.41	76.5883	1274.41	73.7646	1274.41	74.0079	1274.41	72.755	1274.41	70.7015	1274.41	74.7046	1274.41	72.4652	1274.41	74.0395	1274.41	74.3797	1274.41	74.1209	1274.41	74.8977	1274.41	74.437	1274.41	74.5393	1274.41	71.5681	1274.41	72.9643	1274.41	71.0553	1274.41	72.091	1274.41	69.9693	1274.41	70.4725	1274.41	69.4847
1319.82	83.7621	1319.82	83.9901	1319.82	83.8417	1319.82	84.1944	1319.82	83.9911	1319.82	84.2243	1319.82	84.2021	1319.82	83.6961	1319.82	83.3666	1319.82	81.8199	1319.82	81.9167	1319.82	79.3524	1319.82	80.3328	1319.82	76.8044	1319.82	78.0164	1319.82	74.3253	1319.82	75.5422	1319.82	72.873	1319.82	72.9319	1319.82	71.9162	1319.82	72.3516	1319.82	72.6457	1319.82	73.1605	1319.82	74.4834	1319.82	74.2765	1319.82	73.9094	1319.82	75.5764	1319.82	72.5544	1319.82	73.4588	1319.82	72.8298	1319.82	71.1768	1319.82	73.0863	1319.82	72.7186	1319.82	69.1327	1319.82	70.6705	1319.82	68.1357
1365.97	84.3434	1365.97	84.1193	1365.97	84.2229	1365.97	83.9988	1365.97	84.216	1365.97	83.7781	1365.97	84.1813	1365.97	83.0257	1365.97	83.7127	1365.97	82.138	1365.97	82.564	1365.97	80.7181	1365.97	80.6823	1365.97	78.5701	1365.97	78.7727	1365.97	75.6673	1365.97	77.2627	1365.97	72.6016	1365.97	75.8439	1365.97	70.1366	1365.97	74.0128	1365.97	72.893	1365.97	73.3852	1365.97	75.1484	1365.97	74.28	1365.97	75.2755	1365.97	74.2678	1365.97	73.6955	1365.97	73.7668	1365.97	69.3586	1365.97	71.1686	1365.97	68.9013	1365.97	70.9217	1365.97	70.7581	1365.97	71.3701	1365.97	72.8686
1414.31	85.3753	1414.31	84.8757	1414.31	84.9389	1414.31	83.6709	1414.31	83.8224	1414.31	83.7434	1414.31	83.7888	1414.31	83.5197	1414.31	83.685	1414.31	82.4178	1414.31	82.6515	1414.31	80.4255	1414.31	80.856	1414.31	77.9087	1414.31	78.7719	1414.31	76.4362	1414.31	75.8983	1414.31	73.9601	1414.31	73.8596	1414.31	72.1608	1414.31	74.712	1414.31	72.9437	1414.31	73.9758	1414.31	71.7859	1414.31	73.9609	1414.31	72.1289	1414.31	73.8861	1414.31	73.2126	1414.31	72.3313	1414.31	70.2403	1414.31	68.5104	1414.31	70.0141	1414.31	69.4907	1414.31	70.7249	1414.31	70.6581	1414.31	68.9386
1464.11	86.4005	1464.11	85.5089	1464.11	85.6424	1464.11	84.2544	1464.11	84.3989	1464.11	83.6392	1464.11	83.5541	1464.11	82.6527	1464.11	82.3774	1464.11	81.6112	1464.11	81.4964	1464.11	80.4867	1464.11	79.8344	1464.11	78.5411	1464.11	77.8242	1464.11	77.8367	1464.11	76.8231	1464.11	77.7085	1464.11	74.014	1464.11	74.4529	1464.11	72.6308	1464.11	71.6744	1464.11	73.2918	1464.11	74.1385	1464.11	72.0518	1464.11	73.797	1464.11	74.1262	1464.11	71.8615	1464.11	71.8521	1464.11	68.324	1464.11	68.6043	1464.11	69.1521	1464.11	67.2079	1464.11	66.4945	1464.11	68.1865	1464.11	70.6736
1515.38	85.1569	1515.38	84.9878	1515.38	84.6409	1515.38	84.0635	1515.38	82.9792	1515.38	83.3788	1515.38	82.1252	1515.38	82.1713	1515.38	81.9045	1515.38	81.2928	1515.38	80.5927	1515.38	80.3161	1515.38	79.7362	1515.38	78.0974	1515.38	77.23	1515.38	77.267	1515.38	74.3353	1515.38	76.0965	1515.38	73.1202	1515.38	75.1226	1515.38	72.3966	1515.38	75.0144	1515.38	72.7378	1515.38	74.6746	1515.38	72.3546	1515.38	72.9477	1515.38	73.1281	1515.38	71.1507	1515.38	74.5379	1515.38	67.8629	1515.38	69.3243	1515.38	61.8897	1515.38	67.4564	1515.38	64.7049	1515.38	69.2158	1515.38	72.3304
1568.85	85.1449	1568.85	84.3635	1568.85	84.6514	1568.85	82.6886	1568.85	82.5052	1568.85	81.3148	1568.85	80.7081	1568.85	80.7365	1568.85	80.4986	1568.85	80.2021	1568.85	79.5951	1568.85	79.6691	1568.85	78.1339	1568.85	78.0647	1568.85	77.1428	1568.85	76.4897	1568.85	75.6449	1568.85	76.0982	1568.85	73.3695	1568.85	75.7374	1568.85	73.1814	1568.85	73.1019	1568.85	73.1482	1568.85	74.2319	1568.85	73.2205	1568.85	74.2114	1568.85	72.1064	1568.85	71.7893	1568.85	72.1693	1568.85	69.2791	1568.85	66.2436	1568.85	60.6973	1568.85	64.4779	1568.85	68.5317	1568.85	65.8708	1568.85	74.4269
1624.51	85.5987	1624.51	84.2121	1624.51	84.6336	1624.51	81.9528	1624.51	82.4049	1624.51	81.1519	1624.51	81.0777	1624.51	80.6171	1624.51	81.6142	1624.51	80.2006	1624.51	80.8158	1624.51	79.6541	1624.51	79.3884	1624.51	77.8203	1624.51	77.067	1624.51	74.9005	1624.51	75.7364	1624.51	74.7846	1624.51	75.3814	1624.51	72.2454	1624.51	72.4894	1624.51	69.097	1624.51	71.5145	1624.51	73.1122	1624.51	74.9545	1624.51	73.0751	1624.51	73.3537	1624.51	70.8705	1624.51	73.0486	1624.51	68.5669	1624.51	67.894	1624.51	63.8085	1624.51	64.8019	1624.51	67.8635	1624.51	70.0409	1624.51	73.2785
1681.64	85.5631	1681.64	84.7788	1681.64	84.1291	1681.64	82.5711	1681.64	82.6938	1681.64	81.2644	1681.64	81.4543	1681.64	81.3721	1681.64	80.4267	1681.64	81.4145	1681.64	80.5182	1681.64	80.5823	1681.64	79.701	1681.64	78.3866	1681.64	77.1571	1681.64	74.7652	1681.64	73.8297	1681.64	72.2165	1681.64	73.4151	1681.64	70.3177	1681.64	70.7831	1681.64	69.5394	1681.64	68.6436	1681.64	70.6266	1681.64	72.7645	1681.64	69.635	1681.64	71.8881	1681.64	70.5232	1681.64	70.1187	1681.64	66.4472	1681.64	70.646	1681.64	64.7955	1681.64	67.0576	1681.64	66.8507	1681.64	63.1554	1681.64	67.9326
1740.97	84.1417	1740.97	83.895	1740.97	82.9521	1740.97	82.5538	1740.97	80.9682	1740.97	80.9972	1740.97	79.8727	1740.97	80.4562	1740.97	79.9192	1740.97	80.4694	1740.97	79.7783	1740.97	79.0788	1740.97	78.1664	1740.97	76.2509	1740.97	77.0016	1740.97	75.5568	1740.97	73.4787	1740.97	74.1623	1740.97	71.2714	1740.97	71.8999	1740.97	70.0613	1740.97	68.4162	1740.97	68.3163	1740.97	73.2177	1740.97	73.0151	1740.97	72.0198	1740.97	70.4341	1740.97	69.3781	1740.97	70.6257	1740.97	66.0251	1740.97	64.502	1740.97	57.1788	1740.97	48.9603	1740.97	60.6288	1740.97	63.2148	1740.97	65.0264
1802.49	82.8154	1802.49	82.647	1802.49	82.1345	1802.49	81.8287	1802.49	80.2752	1802.49	80.8033	1802.49	79.4573	1802.49	80.1146	1802.49	79.6145	1802.49	79.5034	1802.49	77.8634	1802.49	78.4836	1802.49	76.5611	1802.49	75.898	1802.49	76.3234	1802.49	73.4424	1802.49	73.4282	1802.49	72.475	1802.49	69.6395	1802.49	70.9435	1802.49	69.6997	1802.49	68.2698	1802.49	63.4074	1802.49	65.7525	1802.49	67.7242	1802.49	69.3045	1802.49	67.9814	1802.49	67.2513	1802.49	66.1253	1802.49	65.5581	1802.49	64.5611	1802.49	60.4841	1802.49	62.9311	1802.49	59.9143	1802.49	58.6312	1802.49	66.1942
1866.21	81.8636	1866.21	81.532	1866.21	80.9647	1866.21	81.8735	1866.21	79.6923	1866.21	80.9228	1866.21	80.205	1866.21	80.3101	1866.21	80.2593	1866.21	79.1486	1866.21	77.6469	1866.21	76.9411	1866.21	73.8108	1866.21	75.033	1866.21	72.2345	1866.21	73.7446	1866.21	70.0632	1866.21	71.0909	1866.21	69.5066	1866.21	69.0253	1866.21	69.4037	1866.21	67.949	1866.21	70.2464	1866.21	68.3792	1866.21	69.5379	1866.21	70.3791	1866.21	69.6075	1866.21	69.2769	1866.21	63.5595	1866.21	61.97	1866.21	66.1289	1866.21	63.5232	1866.21	66.0386	1866.21	66.4253	1866.21	60.7613	1866.21	67.3667
1932.13	81.5168	1932.13	83.2067	1932.13	80.9857	1932.13	81.5988	1932.13	80.1108	1932.13	81.1932	1932.13	80.3955	1932.13	81.3688	1932.13	79.1906	1932.13	79.5958	1932.13	77.432	1932.13	78.5273	1932.13	75.5856	1932.13	76.4083	1932.13	75.4826	1932.13	74.7862	1932.13	72.3145	1932.13	72.1189	1932.13	71.6895	1932.13	67.2005	1932.13	67.3182	1932.13	68.2346	1932.13	69.1404	1932.13	62.1305	1932.13	67.3068	1932.13	69.6156	1932.13	66.4143	1932.13	66.3463	1932.13	59.7425	1932.13	67.7131	1932.13	67.2719	1932.13	63.0464	1932.13	67.3542	1932.13	68.2753	1932.13	69.4904	1932.13	70.6667
2000.24	82.0764	2000.24	81.8561	2000.24	81.0868	2000.24	81.0595	2000.24	80.9487	2000.24	80.4761	2000.24	78.3993	2000.24	80.8552	2000.24	78.1474	2000.24	79.8458	2000.24	78.5187	2000.24	79.1219	2000.24	77.2226	2000.24	77.368	2000.24	75.4669	2000.24	73.6257	2000.24	72.8188	2000.24	71.2875	2000.24	71.9869	2000.24	72.3147	2000.24	66.9954	2000.24	69.6951	2000.24	67.3709	2000.24	71.7129	2000.24	69.4856	2000.24	70.6215	2000.24	71.3251	2000.24	69.7194	2000.24	68.0279	2000.24	66.1052	2000.24	60.6728	2000.24	59.2349	2000.24	66.6353	2000.24	58.997	2000.24	64.8014	2000.24	69.3244
2070.56	82.5362	2070.56	82.2555	2070.56	82.7672	2070.56	80.6506	2070.56	82.2736	2070.56	80.8865	2070.56	78.9426	2070.56	80.7289	2070.56	80.0549	2070.56	81.152	2070.56	79.5487	2070.56	79.4382	2070.56	78.8558	2070.56	77.6188	2070.56	77.0618	2070.56	75.2835	2070.56	73.634	2070.56	74.1195	2070.56	72.2146	2070.56	73.9342	2070.56	73.8018	2070.56	67.7118	2070.56	69.2918	2070.56	71.2765	2070.56	72.0186	2070.56	70.3659	2070.56	69.7783	2070.56	69.4104	2070.56	72.7999	2070.56	65.0487	2070.56	67.2707	2070.56	59.2206	2070.56	60.304	2070.56	66.131	2070.56	66.9284	2070.56	64.7759
2143.8	85.009	2143.8	83.9569	2143.8	85.2547	2143.8	82.8494	2143.8	83.8209	2143.8	82.092	2143.8	81.9765	2143.8	82.1207	2143.8	82.9472	2143.8	82.5955	2143.8	83.5683	2143.8	80.8491	2143.8	82.314	2143.8	77.8271	2143.8	77.728	2143.8	76.8938	2143.8	76.17	2143.8	72.4259	2143.8	76.3307	2143.8	71.447	2143.8	74.3242	2143.8	71.6749	2143.8	69.4652	2143.8	70.422	2143.8	64.7222	2143.8	74.0516	2143.8	71.039	2143.8	72.2989	2143.8	68.5787	2143.8	65.494	2143.8	62.1259	2143.8	66.0821	2143.8	59.0427	2143.8	67.5662	2143.8	66.8758	2143.8	63.5635
2219.24	85.0728	2219.24	85.2722	2219.24	84.9524	2219.24	83.8298	2219.24	83.8344	2219.24	82.9806	2219.24	82.3744	2219.24	83.1999	2219.24	82.772	2219.24	83.8867	2219.24	83.3295	2219.24	82.4798	2219.24	82.3334	2219.24	79.5805	2219.24	79.3352	2219.24	76.6315	2219.24	76.402	2219.24	74.9284	2219.24	73.0502	2219.24	73.395	2219.24	73.8874	2219.24	67.4199	2219.24	70.9032	2219.24	67.0417	2219.24	70.73	2219.24	69.6665	2219.24	72.6661	2219.24	68.5239	2219.24	70.4261	2219.24	59.2206	2219.24	61.9575	2219.24	63.4761	2219.24	62.9318	2219.24	64.8804	2219.24	65.2744	2219.24	71.2081
2297.61	84.9096	2297.61	84.5854	2297.61	84.724	2297.61	83.6582	2297.61	83.7221	2297.61	82.2636	2297.61	82.1932	2297.61	82.5163	2297.61	82.2724	2297.61	82.6732	2297.61	82.7559	2297.61	81.9739	2297.61	81.6497	2297.61	79.2396	2297.61	78.4802	2297.61	75.7264	2297.61	75.1777	2297.61	72.9233	2297.61	71.6213	2297.61	72.7119	2297.61	70.1733	2297.61	72.0878	2297.61	70.2205	2297.61	70.3713	2297.61	68.4302	2297.61	68.0781	2297.61	71.3196	2297.61	68.6396	2297.61	68.8936	2297.61	58.07	2297.61	51.0553	2297.61	58.218	2297.61	52.8797	2297.61	66.2551	2297.61	65.4781	2297.61	67.9754
2378.17	85.7938	2378.17	85.8585	2378.17	86.1717	2378.17	85.2807	2378.17	85.4255	2378.17	83.5697	2378.17	84.1586	2378.17	83.5483	2378.17	83.9885	2378.17	83.2387	2378.17	84.0308	2378.17	81.6125	2378.17	82.5697	2378.17	79.0516	2378.17	79.3742	2378.17	75.1064	2378.17	76.2517	2378.17	71.3138	2378.17	70.3764	2378.17	68.4368	2378.17	71.3871	2378.17	69.6585	2378.17	72.1889	2378.17	70.5928	2378.17	68.648	2378.17	70.1676	2378.17	70.7371	2378.17	69.9085	2378.17	69.9058	2378.17	60.9183	2378.17	61.9562	2378.17	42.2839	2378.17	51.0223	2378.17	67.3989	2378.17	66.794	2378.17	67.1175
2462.4	86.4787	2462.4	86.8293	2462.4	86.8016	2462.4	86.1532	2462.4	86.0612	2462.4	84.6751	2462.4	84.5018	2462.4	84.0532	2462.4	84.3604	2462.4	84.1697	2462.4	83.8343	2462.4	82.4578	2462.4	82.018	2462.4	79.7026	2462.4	78.9764	2462.4	76.8994	2462.4	75.2846	2462.4	73.2385	2462.4	74.186	2462.4	67.8613	2462.4	71.5305	2462.4	71.6383	2462.4	71.5387	2462.4	70.3769	2462.4	69.117	2462.4	69.8985	2462.4	70.3934	2462.4	67.4762	2462.4	68.6231	2462.4	56.6707	2462.4	58.9998	2462.4	56.5822	2462.4	57.8119	2462.4	66.0075	2462.4	66.7887	2462.4	64.602
2548.83	85.494	2548.83	86.1601	2548.83	86.0273	2548.83	85.4436	2548.83	85.5496	2548.83	83.9508	2548.83	84.1424	2548.83	83.5685	2548.83	83.2966	2548.83	83.2147	2548.83	82.9342	2548.83	81.6343	2548.83	80.6299	2548.83	78.8557	2548.83	77.7184	2548.83	76.833	2548.83	75.0883	2548.83	72.6275	2548.83	69.226	2548.83	71.4569	2548.83	66.2757	2548.83	70.5822	2548.83	69.2612	2548.83	71.8577	2548.83	69.0715	2548.83	70.3459	2548.83	67.3793	2548.83	67.8284	2548.83	67.867	2548.83	61.9071	2548.83	55.3195	2548.83	56.3975	2548.83	59.0461	2548.83	64.3856	2548.83	66.654	2548.83	61.4775
2638.92	86.0746	2638.92	86.3435	2638.92	86.3961	2638.92	86.1794	2638.92	85.9888	2638.92	84.5656	2638.92	84.7331	2638.92	83.423	2638.92	83.6615	2638.92	82.7434	2638.92	83.289	2638.92	81.6684	2638.92	81.0011	2638.92	77.9841	2638.92	78.5244	2638.92	74.4683	2638.92	74.1251	2638.92	70.6362	2638.92	70.7081	2638.92	69.0248	2638.92	69.1421	2638.92	68.9225	2638.92	68.6318	2638.92	68.1665	2638.92	70.0083	2638.92	70.1509	2638.92	67.5796	2638.92	66.4718	2638.92	63.1109	2638.92	51.3762	2638.92	60.0508	2638.92	59.7578	2638.92	61.0202	2638.92	66.8713	2638.92	64.1674	2638.92	61.8542
2731.93	86.3303	2731.93	86.7413	2731.93	86.2203	2731.93	86.5388	2731.93	86.2469	2731.93	85.2857	2731.93	84.5662	2731.93	83.9907	2731.93	83.3035	2731.93	83.1851	2731.93	82.6285	2731.93	81.8246	2731.93	80.9717	2731.93	80.0214	2731.93	78.7513	2731.93	75.4091	2731.93	74.0227	2731.93	71.8834	2731.93	72.4028	2731.93	68.0415	2731.93	68.3765	2731.93	70.2724	2731.93	68.6102	2731.93	69.1601	2731.93	70.1842	2731.93	68.0037	2731.93	66.4556	2731.93	67.2176	2731.93	65.5333	2731.93	59.1215	2731.93	55.94	2731.93	61.6549	2731.93	60.0383	2731.93	64.924	2731.93	67.1928	2731.93	60.9872
2828.61	86.4169	2828.61	86.1647	2828.61	86.1843	2828.61	85.912	2828.61	85.9689	2828.61	84.5409	2828.61	84.7294	2828.61	82.9301	2828.61	82.545	2828.61	82.4117	2828.61	82.1248	2828.61	80.6711	2828.61	80.9482	2828.61	79.2063	2828.61	78.306	2828.61	74.8553	2828.61	74.7344	2828.61	70.8919	2828.61	71.0666	2828.61	69.3115	2828.61	67.521	2828.61	69.2063	2828.61	66.4291	2828.61	69.6848	2828.61	67.9542	2828.61	69.0765	2828.61	67.4126	2828.61	66.6967	2828.61	65.7309	2828.61	52.9296	2828.61	55.4296	2828.61	57.1438	2828.61	62.3163	2828.61	66.7314	2828.61	65.8268	2828.61	55.4053
2928.22	86.2898	2928.22	85.8041	2928.22	85.862	2928.22	86.0422	2928.22	85.7288	2928.22	84.6037	2928.22	84.1634	2928.22	82.3685	2928.22	82.2325	2928.22	81.7711	2928.22	81.3864	2928.22	80.8772	2928.22	80.5136	2928.22	77.9841	2928.22	77.7745	2928.22	73.4515	2928.22	73.4157	2928.22	70.205	2928.22	69.6	2928.22	67.7613	2928.22	67.2713	2928.22	68.729	2928.22	67.4185	2928.22	67.0171	2928.22	67.2934	2928.22	67.4459	2928.22	67.5076	2928.22	64.1246	2928.22	64.8558	2928.22	50.4172	2928.22	55.0702	2928.22	62.5963	2928.22	62.3867	2928.22	65.8565	2928.22	63.8808	2928.22	59.7862
3031.49	85.8916	3031.49	85.6224	3031.49	85.69	3031.49	85.6892	3031.49	85.3525	3031.49	84.4441	3031.49	83.7138	3031.49	81.879	3031.49	81.7703	3031.49	81.481	3031.49	81.3895	3031.49	80.3317	3031.49	79.6825	3031.49	77.7806	3031.49	76.4412	3031.49	72.4443	3031.49	72.391	3031.49	69.547	3031.49	70.6688	3031.49	66.6078	3031.49	65.4384	3031.49	65.4568	3031.49	65.3277	3031.49	67.2754	3031.49	66.388	3031.49	65.1772	3031.49	65.5471	3031.49	63.3792	3031.49	62.9841	3031.49	41.7136	3031.49	49.9562	3031.49	63.2031	3031.49	62.2106	3031.49	62.4513	3031.49	61.3484	3031.49	57.8645
3138.43	85.7426	3138.43	85.4291	3138.43	85.213	3138.43	85.4162	3138.43	85.1277	3138.43	84.1667	3138.43	83.5222	3138.43	82.0877	3138.43	81.2186	3138.43	81.066	3138.43	81.1027	3138.43	79.5423	3138.43	79.432	3138.43	76.5196	3138.43	75.6711	3138.43	71.6113	3138.43	71.3563	3138.43	69.3908	3138.43	68.0466	3138.43	64.8422	3138.43	65.8458	3138.43	64.7392	3138.43	64.4185	3138.43	67.6874	3138.43	65.7052	3138.43	62.9215	3138.43	63.0932	3138.43	60.8964	3138.43	61.5774	3138.43	55.3	3138.43	51.9293	3138.43	62.5036	3138.43	62.513	3138.43	61.2412	3138.43	59.1624	3138.43	59.762
3249.02	85.3198	3249.02	85.0626	3249.02	85.172	3249.02	84.8341	3249.02	84.3537	3249.02	83.486	3249.02	83.2137	3249.02	81.2807	3249.02	80.4433	3249.02	80.1514	3249.02	80.2725	3249.02	78.2802	3249.02	78.2351	3249.02	73.6148	3249.02	75.093	3249.02	71.6655	3249.02	70.7669	3249.02	66.9637	3249.02	66.1154	3249.02	64.7473	3249.02	65.7475	3249.02	64.6783	3249.02	65.4422	3249.02	66.7165	3249.02	65.7921	3249.02	64.6729	3249.02	66.0665	3249.02	62.4323	3249.02	62.8033	3249.02	53.6634	3249.02	56.2697	3249.02	61.5256	3249.02	62.3678	3249.02	58.058	3249.02	56.3057	3249.02	58.0495
3363.28	85.1811	3363.28	85.0167	3363.28	85.3143	3363.28	84.7031	3363.28	83.962	3363.28	83.4079	3363.28	82.8522	3363.28	80.6024	3363.28	80.0327	3363.28	80.3237	3363.28	79.5678	3363.28	78.5066	3363.28	77.446	3363.28	75.0199	3363.28	74.5518	3363.28	72.5993	3363.28	70.3167	3363.28	66.7021	3363.28	66.6427	3363.28	66.8024	3363.28	63.8584	3363.28	63.1103	3363.28	63.3544	3363.28	65.4521	3363.28	65.7335	3363.28	65.5374	3363.28	64.6912	3363.28	62.9281	3363.28	60.3797	3363.28	53.4532	3363.28	56.0515	3363.28	62.2006	3363.28	61.0639	3363.28	54.6969	3363.28	54.2711	3363.28	57.0951
3481.93	85.3746	3481.93	85.1401	3481.93	85.4615	3481.93	84.5022	3481.93	84.3203	3481.93	83.2	3481.93	83.1958	3481.93	80.0194	3481.93	80.6081	3481.93	80.0854	3481.93	79.3994	3481.93	78.1444	3481.93	78.0316	3481.93	76.1625	3481.93	75.2306	3481.93	71.7794	3481.93	71.2539	3481.93	67.1767	3481.93	67.4737	3481.93	65.2883	3481.93	66.2508	3481.93	64.2324	3481.93	64.7302	3481.93	66.0169	3481.93	66.5578	3481.93	65.6015	3481.93	63.8487	3481.93	59.3358	3481.93	59.8495	3481.93	55.9947	3481.93	49.1311	3481.93	60.2423	3481.93	60.8172	3481.93	53.1747	3481.93	52.945	3481.93	57.0123
3604.98	85.4086	3604.98	85.12	3604.98	85.3476	3604.98	84.1995	3604.98	84.1774	3604.98	83.1855	3604.98	82.8856	3604.98	79.574	3604.98	80.0962	3604.98	79.4204	3604.98	78.7198	3604.98	78.5171	3604.98	77.8861	3604.98	76.781	3604.98	75.2746	3604.98	72.0974	3604.98	70.8714	3604.98	68.247	3604.98	67.2964	3604.98	64.4767	3604.98	65.4557	3604.98	64.5803	3604.98	63.8001	3604.98	65.662	3604.98	66.403	3604.98	66.1013	3604.98	62.5179	3604.98	56.4713	3604.98	56.9926	3604.98	59.0191	3604.98	51.9762	3604.98	58.7759	3604.98	59.5577	3604.98	46.8572	3604.98	52.9528	3604.98	58.8846
3732.42	85.8699	3732.42	85.6853	3732.42	85.3457	3732.42	84.3124	3732.42	84.6586	3732.42	83.6595	3732.42	83.5967	3732.42	80.111	3732.42	80.5169	3732.42	79.4153	3732.42	79.1302	3732.42	78.8545	3732.42	78.1924	3732.42	77.1616	3732.42	75.2314	3732.42	70.5802	3732.42	72.3223	3732.42	68.1305	3732.42	68.34	3732.42	63.8284	3732.42	64.7951	3732.42	64.1564	3732.42	65.6931	3732.42	66.7085	3732.42	66.5825	3732.42	66.2948	3732.42	64.0855	3732.42	57.2231	3732.42	55.652	3732.42	58.1847	3732.42	56.0057	3732.42	60.8705	3732.42	61.95	3732.42	51.0526	3732.42	52.7726	3732.42	58.1992
3863.53	85.9778	3863.53	85.9845	3863.53	85.2599	3863.53	84.8309	3863.53	84.8378	3863.53	83.9315	3863.53	83.5694	3863.53	81.1422	3863.53	80.1581	3863.53	79.6539	3863.53	78.4082	3863.53	78.7641	3863.53	78.3319	3863.53	76.5503	3863.53	75.5789	3863.53	71.5962	3863.53	72.256	3863.53	68.6321	3863.53	66.7573	3863.53	63.9952	3863.53	63.5556	3863.53	63.9552	3863.53	65.7631	3863.53	67.7381	3863.53	66.2909	3863.53	66.4524	3863.53	62.4002	3863.53	60.131	3863.53	59.1345	3863.53	58.5994	3863.53	59.4691	3863.53	60.7164	3863.53	61.9406	3863.53	48.3363	3863.53	54.4364	3863.53	58.3623
3999.76	86.304	3999.76	86.1312	3999.76	85.5064	3999.76	84.9126	3999.76	84.7486	3999.76	83.8916	3999.76	83.183	3999.76	80.7907	3999.76	79.7156	3999.76	78.8339	3999.76	77.7625	3999.76	78.2072	3999.76	78.658	3999.76	75.6361	3999.76	76.0228	3999.76	72.5217	3999.76	72.9691	3999.76	68.4732	3999.76	67.534	3999.76	64.1607	3999.76	64.8261	3999.76	64.7167	3999.76	65.4469	3999.76	67.0274	3999.76	66.9002	3999.76	64.6869	3999.76	64.4488	3999.76	54.1862	3999.76	58.3528	3999.76	62.3591	3999.76	61.9111	3999.76	59.8689	3999.76	59.2963	3999.76	43.7375	3999.76	47.5573	3999.76	55.017
4141.11	86.2762	4141.11	85.9003	4141.11	85.4142	4141.11	85.0171	4141.11	84.8858	4141.11	83.7262	4141.11	83.1075	4141.11	80.9582	4141.11	80.402	4141.11	78.6859	4141.11	76.9738	4141.11	78.3387	4141.11	78.828	4141.11	76.5226	4141.11	76.9814	4141.11	73.6698	4141.11	73.1954	4141.11	69.55	4141.11	68.2972	4141.11	64.9473	4141.11	64.8077	4141.11	66.6205	4141.11	64.5541	4141.11	68.0706	4141.11	67.0586	4141.11	62.1902	4141.11	65.4556	4141.11	53.421	4141.11	54.2974	4141.11	61.3263	4141.11	60.0557	4141.11	61.4479	4141.11	54.7108	4141.11	55.3675	4141.11	51.8638	4141.11	54.277
4286.87	86.1935	4286.87	85.9896	4286.87	85.4406	4286.87	84.8386	4286.87	84.2348	4286.87	83.2485	4286.87	82.5335	4286.87	81.6713	4286.87	80.0249	4286.87	76.6424	4286.87	76.2179	4286.87	78.9765	4286.87	78.9508	4286.87	77.2298	4286.87	77.4143	4286.87	73.6081	4286.87	73.5408	4286.87	69.0721	4286.87	69.0041	4286.87	64.58	4286.87	65.6351	4286.87	66.8609	4286.87	66.7798	4286.87	66.0256	4286.87	66.6233	4286.87	63.5807	4286.87	64.7869	4286.87	50.4633	4286.87	56.1017	4286.87	63.7238	4286.87	60.2464	4286.87	60.6601	4286.87	59.7959	4286.87	57.2417	4286.87	56.9685	4286.87	57.1426
4438.48	85.917	4438.48	85.657	4438.48	85.9982	4438.48	84.4379	4438.48	83.7907	4438.48	82.6888	4438.48	82.408	4438.48	80.6528	4438.48	80.2192	4438.48	75.9713	4438.48	76.9894	4438.48	79.1295	4438.48	79.3501	4438.48	77.2174	4438.48	78.0133	4438.48	72.7049	4438.48	72.3084	4438.48	68.7796	4438.48	68.6573	4438.48	63.5093	4438.48	65.0467	4438.48	66.8718	4438.48	67.2377	4438.48	66.7643	4438.48	65.3107	4438.48	65.2089	4438.48	63.1934	4438.48	49.5894	4438.48	50.4246	4438.48	63.2844	4438.48	61.2658	4438.48	57.2642	4438.48	62.4315	4438.48	50.0598	4438.48	53.8923	4438.48	56.3184
4594.48	85.8376	4594.48	85.8724	4594.48	86.3617	4594.48	84.3946	4594.48	83.5935	4594.48	83.1374	4594.48	82.6926	4594.48	80.5572	4594.48	80.0267	4594.48	76.5778	4594.48	77.5315	4594.48	78.4499	4594.48	79.0365	4594.48	76.9892	4594.48	77.976	4594.48	73.9611	4594.48	73.0667	4594.48	69.4809	4594.48	69.4202	4594.48	67.1296	4594.48	67.4432	4594.48	67.1378	4594.48	67.0847	4594.48	66.174	4594.48	63.2805	4594.48	64.5635	4594.48	64.2977	4594.48	49.2483	4594.48	48.6719	4594.48	64.1653	4594.48	60.6774	4594.48	56.075	4594.48	58.0535	4594.48	59.325	4594.48	44.0436	4594.48	54.59
4757.08	86.4528	4757.08	85.9345	4757.08	86.3411	4757.08	84.7319	4757.08	84.2787	4757.08	82.9324	4757.08	82.1505	4757.08	79.6169	4757.08	80.5302	4757.08	76.6925	4757.08	77.8047	4757.08	78.0422	4757.08	78.5509	4757.08	77.2444	4757.08	77.8998	4757.08	73.1481	4757.08	73.5243	4757.08	69.4221	4757.08	69.613	4757.08	63.3733	4757.08	67.179	4757.08	65.692	4757.08	65.5601	4757.08	66.3157	4757.08	67.4829	4757.08	64.983	4757.08	65.5971	4757.08	52.7139	4757.08	55.3831	4757.08	61.2337	4757.08	60.1448	4757.08	57.5511	4757.08	54.9059	4757.08	60.1036	4757.08	52.4403	4757.08	58.2717
4924.8	86.211	4924.8	85.8293	4924.8	85.6481	4924.8	84.1285	4924.8	84.5616	4924.8	81.7206	4924.8	82.2777	4924.8	80.1872	4924.8	80.8693	4924.8	75.9434	4924.8	76.7826	4924.8	77.4113	4924.8	77.7559	4924.8	77.0885	4924.8	77.3838	4924.8	74.0227	4924.8	73.7088	4924.8	69.9162	4924.8	69.9344	4924.8	66.7517	4924.8	63.818	4924.8	65.84	4924.8	65.4982	4924.8	65.9684	4924.8	67.226	4924.8	60.5205	4924.8	65.9262	4924.8	54.8552	4924.8	58.2532	4924.8	60.0842	4924.8	63.6253	4924.8	53.9127	4924.8	52.8026	4924.8	58.6295	4924.8	53.9579	4924.8	56.0453
5098.39	86.7194	5098.39	86.2305	5098.39	85.7523	5098.39	84.5707	5098.39	84.9511	5098.39	81.7776	5098.39	82.4145	5098.39	81.3465	5098.39	81.1649	5098.39	77.5313	5098.39	75.7111	5098.39	77.9117	5098.39	77.6691	5098.39	77.6794	5098.39	77.0639	5098.39	73.6844	5098.39	73.9015	5098.39	69.1669	5098.39	70.0941	5098.39	67.5756	5098.39	65.2001	5098.39	65.1527	5098.39	63.9551	5098.39	66.3104	5098.39	65.6253	5098.39	62.8786	5098.39	61.9493	5098.39	47.3485	5098.39	55.3709	5098.39	58.7358	5098.39	65.1283	5098.39	53.6942	5098.39	51.6349	5098.39	55.3991	5098.39	56.6643	5098.39	48.6899
5277.83	86.9289	5277.83	86.0065	5277.83	86.3716	5277.83	85.3627	5277.83	84.9161	5277.83	82.4324	5277.83	82.994	5277.83	81.8639	5277.83	80.9412	5277.83	78.5835	5277.83	76.292	5277.83	76.2514	5277.83	76.3055	5277.83	76.039	5277.83	77.1652	5277.83	72.0691	5277.83	73.4446	5277.83	66.5749	5277.83	68.5325	5277.83	67.8268	5277.83	65.1638	5277.83	63.8897	5277.83	64.3664	5277.83	65.9447	5277.83	63.6378	5277.83	62.3764	5277.83	65.2094	5277.83	50.9605	5277.83	56.7074	5277.83	55.9514	5277.83	65.135	5277.83	55.0495	5277.83	54.5365	5277.83	49.3404	5277.83	54.5452	5277.83	50.0581
5463.87	86.8129	5463.87	85.5401	5463.87	85.9081	5463.87	85.5276	5463.87	84.7252	5463.87	83.0526	5463.87	82.4797	5463.87	81.6828	5463.87	80.6665	5463.87	78.2841	5463.87	77.4095	5463.87	76.4841	5463.87	76.7835	5463.87	76.0778	5463.87	76.9465	5463.87	72.5613	5463.87	72.9382	5463.87	67.8731	5463.87	66.499	5463.87	65.4221	5463.87	65.732	5463.87	63.778	5463.87	63.9941	5463.87	63.1884	5463.87	61.0457	5463.87	59.7517	5463.87	65.3132	5463.87	59.177	5463.87	60.1076	5463.87	59.4191	5463.87	62.7763	5463.87	52.0633	5463.87	53.4273	5463.87	58.0827	5463.87	58.0219	5463.87	42.6138
5656.49	86.8175	5656.49	85.7948	5656.49	85.3127	5656.49	84.9446	5656.49	84.5104	5656.49	83.7675	5656.49	82.2514	5656.49	81.7372	5656.49	80.9975	5656.49	78.0177	5656.49	77.4398	5656.49	76.0077	5656.49	76.1927	5656.49	77.7235	5656.49	77.2224	5656.49	74.5102	5656.49	72.4014	5656.49	69.5118	5656.49	67.6645	5656.49	64.5179	5656.49	63.1176	5656.49	63.2953	5656.49	66.5867	5656.49	61.3831	5656.49	64.1506	5656.49	60.478	5656.49	66.0072	5656.49	58.2867	5656.49	59.3286	5656.49	58.1041	5656.49	54.8774	5656.49	52.4934	5656.49	56.4553	5656.49	56.1696	5656.49	57.643	5656.49	50.225
5856.45	87.1051	5856.45	86.5314	5856.45	85.5209	5856.45	84.6683	5856.45	84.54	5856.45	83.9167	5856.45	82.8993	5856.45	81.143	5856.45	81.3868	5856.45	77.7435	5856.45	77.236	5856.45	75.6622	5856.45	75.5921	5856.45	78.529	5856.45	77.7713	5856.45	74.7056	5856.45	73.9975	5856.45	70.229	5856.45	70.5257	5856.45	63.8019	5856.45	65.2709	5856.45	64.5843	5856.45	63.2354	5856.45	64.2196	5856.45	57.7688	5856.45	59.153	5856.45	63.2634	5856.45	55.6225	5856.45	58.9575	5856.45	53.2826	5856.45	56.9486	5856.45	48.0476	5856.45	47.1753	5856.45	52.8038	5856.45	50.3544	5856.45	51.5442
6062.99	86.6989	6062.99	86.0488	6062.99	86.075	6062.99	84.3209	6062.99	84.2807	6062.99	83.3132	6062.99	83.3937	6062.99	81.0172	6062.99	81.1938	6062.99	77.1972	6062.99	76.5372	6062.99	74.1089	6062.99	75.6313	6062.99	77.7474	6062.99	77.6815	6062.99	72.7038	6062.99	71.2583	6062.99	69.3449	6062.99	69.1078	6062.99	63.6612	6062.99	64.0186	6062.99	63.7397	6062.99	55.7318	6062.99	63.2061	6062.99	64.3717	6062.99	62.5273	6062.99	62.2329	6062.99	50.7226	6062.99	55.324	6062.99	52.485	6062.99	56.2899	6062.99	54.5684	6062.99	58.8747	6062.99	51.9247	6062.99	53.5619	6062.99	48.2838
6276.86	86.6769	6276.86	86.0403	6276.86	86.5632	6276.86	84.3887	6276.86	84.5132	6276.86	83.2454	6276.86	83.6363	6276.86	81.8073	6276.86	81.3668	6276.86	77.2505	6276.86	77.7357	6276.86	74.0224	6276.86	73.2082	6276.86	75.7895	6276.86	74.4735	6276.86	73.7939	6276.86	74.1047	6276.86	66.8724	6276.86	70.3253	6276.86	63.5313	6276.86	59.31	6276.86	57.6154	6276.86	60.1945	6276.86	61.0371	6276.86	61.9121	6276.86	61.5798	6276.86	63.5277	6276.86	56.6982	6276.86	51.0724	6276.86	54.7747	6276.86	58.3373	6276.86	48.3927	6276.86	60.3893	6276.86	58.017	6276.86	52.3444	6276.86	46.0317
6498.05	86.8629	6498.05	86.1169	6498.05	86.5469	6498.05	85.1082	6498.05	85.1221	6498.05	83.6176	6498.05	82.9914	6498.05	82.7105	6498.05	81.8825	6498.05	78.0956	6498.05	78.4892	6498.05	73.5521	6498.05	70.8972	6498.05	74.5788	6498.05	75.338	6498.05	74.7353	6498.05	75.0864	6498.05	67.1436	6498.05	69.2114	6498.05	67.0549	6498.05	63.2204	6498.05	62.1678	6498.05	61.5073	6498.05	62.1972	6498.05	62.0703	6498.05	63.1366	6498.05	60.1523	6498.05	59.7563	6498.05	54.3097	6498.05	59.2661	6498.05	60.9348	6498.05	52.2274	6498.05	56.7114	6498.05	55.134	6498.05	50.8692	6498.05	50.0087
6727.29	86.7782	6727.29	86.2235	6727.29	86.2416	6727.29	85.3637	6727.29	85.5916	6727.29	83.2421	6727.29	82.3218	6727.29	82.7647	6727.29	81.7158	6727.29	78.4089	6727.29	77.8998	6727.29	73.5826	6727.29	73.5284	6727.29	74.9604	6727.29	76.2167	6727.29	74.2478	6727.29	73.1295	6727.29	68.9436	6727.29	67.8359	6727.29	64.126	6727.29	62.4826	6727.29	61.8216	6727.29	61.1671	6727.29	60.4512	6727.29	62.6775	6727.29	54.0312	6727.29	64.101	6727.29	56.088	6727.29	57.203	6727.29	53.1299	6727.29	53.3332	6727.29	54.7583	6727.29	40.472	6727.29	52.4598	6727.29	49.9171	6727.29	44.1973
6964.6	86.5707	6964.6	86.3653	6964.6	86.5665	6964.6	85.3671	6964.6	85.6122	6964.6	83.7095	6964.6	83.5508	6964.6	82.2485	6964.6	81.7069	6964.6	79.4196	6964.6	78.2737	6964.6	73.6761	6964.6	73.9832	6964.6	76.7085	6964.6	75.9112	6964.6	74.0101	6964.6	74.3724	6964.6	70.4707	6964.6	68.5356	6964.6	63.6379	6964.6	65.7709	6964.6	60.1619	6964.6	60.7036	6964.6	60.0298	6964.6	62.4024	6964.6	60.0393	6964.6	63.1076	6964.6	48.203	6964.6	52.3459	6964.6	51.1362	6964.6	51.6286	6964.6	58.2402	6964.6	52.9078	6964.6	45.0579	6964.6	52.5492	6964.6	37.8435
7209.96	86.4218	7209.96	86.3389	7209.96	86.8199	7209.96	85.625	7209.96	85.4008	7209.96	84.4418	7209.96	84.3333	7209.96	82.0951	7209.96	82.6203	7209.96	80.5477	7209.96	79.3644	7209.96	70.7947	7209.96	74.5545	7209.96	78.0158	7209.96	76.0632	7209.96	75.5172	7209.96	75.415	7209.96	71.1393	7209.96	68.7121	7209.96	65.5117	7209.96	64.6424	7209.96	60.1196	7209.96	60.4593	7209.96	62.2358	7209.96	64.5186	7209.96	62.0271	7209.96	62.2708	7209.96	58.8365	7209.96	58.5622	7209.96	57.7154	7209.96	47.0406	7209.96	58.0079	7209.96	53.7491	7209.96	41.5512	7209.96	44.0297	7209.96	49.8223
7464.11	86.0109	7464.11	85.9995	7464.11	85.7386	7464.11	85.957	7464.11	85.6081	7464.11	84.2761	7464.11	83.0948	7464.11	82.4461	7464.11	83.2346	7464.11	79.1394	7464.11	80.8037	7464.11	74.5034	7464.11	75.5518	7464.11	77.0025	7464.11	76.4182	7464.11	75.5482	7464.11	74.1552	7464.11	69.3336	7464.11	69.7053	7464.11	63.4044	7464.11	64.8316	7464.11	58.5228	7464.11	59.5911	7464.11	62.3852	7464.11	60.1858	7464.11	58.2993	7464.11	63.6742	7464.11	59.6698	7464.11	55.7876	7464.11	59.0308	7464.11	58.6826	7464.11	56.6265	7464.11	60.2306	7464.11	47.4763	7464.11	49.0115	7464.11	53.539
7727.78	86.2396	7727.78	86.3737	7727.78	85.5121	7727.78	85.7655	7727.78	85.922	7727.78	83.2868	7727.78	82.6531	7727.78	82.2194	7727.78	81.7839	7727.78	79.5061	7727.78	81.4476	7727.78	77.0442	7727.78	76.4408	7727.78	74.8779	7727.78	77.3766	7727.78	74.4303	7727.78	73.0371	7727.78	69.5106	7727.78	70.6177	7727.78	63.0463	7727.78	59.659	7727.78	59.0518	7727.78	54.5276	7727.78	60.4088	7727.78	60.282	7727.78	52.5376	7727.78	56.8338	7727.78	51.3948	7727.78	51.7968	7727.78	53.8057	7727.78	58.5283	7727.78	50.8617	7727.78	56.3428	7727.78	52.4609	7727.78	51.3322	7727.78	53.0877
8000.24	86.3575	8000.24	86.5424	8000.24	86.5254	8000.24	85.3618	8000.24	85.4632	8000.24	83.5412	8000.24	83.3985	8000.24	81.2956	8000.24	80.1775	8000.24	81.7189	8000.24	80.5248	8000.24	75.9558	8000.24	77.3106	8000.24	74.4901	8000.24	77.2152	8000.24	75.1031	8000.24	74.2617	8000.24	69.3418	8000.24	70.1601	8000.24	59.6935	8000.24	59.4388	8000.24	58.516	8000.24	53.7943	8000.24	59.803	8000.24	54.8842	8000.24	59.5711	8000.24	60.5546	8000.24	53.9687	8000.24	53.0026	8000.24	47.8789	8000.24	53.1066	8000.24	46.8217	8000.24	57.1602	8000.24	52.6117	8000.24	52.8614	8000.24	52.8611
8282.23	86.9622	8282.23	86.466	8282.23	87.1503	8282.23	85.0771	8282.23	85.1539	8282.23	82.1895	8282.23	83.6833	8282.23	80.8423	8282.23	80.7119	8282.23	81.5216	8282.23	80.7127	8282.23	75.6398	8282.23	77.1845	8282.23	72.6445	8282.23	73.6793	8282.23	73.3916	8282.23	72.1209	8282.23	67.9267	8282.23	67.7564	8282.23	57.573	8282.23	56.5903	8282.23	56.2904	8282.23	50.9249	8282.23	53.0611	8282.23	53.4575	8282.23	59.7153	8282.23	59.8847	8282.23	54.1907	8282.23	53.1986	8282.23	50.8702	8282.23	46.9457	8282.23	47.8216	8282.23	55.5287	8282.23	50.7991	8282.23	34.402	8282.23	49.9811
8574.46	87.9505	8574.46	87.4216	8574.46	87.2718	8574.46	85.8323	8574.46	85.7366	8574.46	83.1488	8574.46	83.0904	8574.46	81.4175	8574.46	81.4407	8574.46	80.42	8574.46	80.5124	8574.46	74.3392	8574.46	75.2625	8574.46	70.6774	8574.46	70.6869	8574.46	70.0757	8574.46	68.3845	8574.46	65.2745	8574.46	64.6011	8574.46	56.5968	8574.46	58.1587	8574.46	57.0925	8574.46	45.4946	8574.46	53.7951	8574.46	52.8512	8574.46	53.7484	8574.46	57.8547	8574.46	51.8973	8574.46	43.3421	8574.46	54.5022	8574.46	50.3235	8574.46	50.4743	8574.46	52.2898	8574.46	52.9468	8574.46	40.9434	8574.46	50.268
8876.22	87.5437	8876.22	87.1928	8876.22	86.8164	8876.22	85.6187	8876.22	85.4504	8876.22	84.0346	8876.22	83.0697	8876.22	82.0503	8876.22	81.8487	8876.22	80.0812	8876.22	80.5521	8876.22	76.2053	8876.22	74.3374	8876.22	72.317	8876.22	71.4914	8876.22	71.3098	8876.22	70.727	8876.22	64.9555	8876.22	65.2549	8876.22	59.5308	8876.22	56.0993	8876.22	55.4722	8876.22	49.9068	8876.22	56.1872	8876.22	56.6982	8876.22	41.093	8876.22	58.4993	8876.22	53.2745	8876.22	48.5981	8876.22	55.38	8876.22	42.5472	8876.22	39.1054	8876.22	47.2306	8876.22	51.0999	8876.22	49.061	8876.22	49.7315
9189.7	86.7916	9189.7	86.3201	9189.7	86.272	9189.7	85.3679	9189.7	85.6014	9189.7	84.0773	9189.7	83.8097	9189.7	81.9942	9189.7	82.3252	9189.7	79.7657	9189.7	79.6199	9189.7	77.4754	9189.7	76.5127	9189.7	73.3199	9189.7	73.2279	9189.7	71.5702	9189.7	71.8061	9189.7	59.4657	9189.7	64.2624	9189.7	50.556	9189.7	56.7138	9189.7	56.0578	9189.7	53.5519	9189.7	53.4191	9189.7	56.927	9189.7	47.5542	9189.7	59.4134	9189.7	54.8013	9189.7	45.4675	9189.7	52.5045	9189.7	51.6239	9189.7	50.0384	9189.7	53.0397	9189.7	50.8495	9189.7	52.3503	9189.7	48.8329
9513.43	86.556	9513.43	85.8441	9513.43	86.0128	9513.43	85.6418	9513.43	85.6263	9513.43	83.8811	9513.43	84.0678	9513.43	81.5952	9513.43	82.5036	9513.43	80.0732	9513.43	79.7677	9513.43	77.4468	9513.43	77.697	9513.43	72.8391	9513.43	73.826	9513.43	70.2504	9513.43	67.5238	9513.43	64.0737	9513.43	64.1326	9513.43	58.3624	9513.43	58.012	9513.43	57.1063	9513.43	39.966	9513.43	59.7009	9513.43	52.721	9513.43	48.9965	9513.43	49.2094	9513.43	53.3964	9513.43	48.7656	9513.43	52.4688	9513.43	40.2626	9513.43	56.9205	9513.43	36.7135	9513.43	50.7439	9513.43	48.7964	9513.43	38.9177
9848.88	85.9002	9848.88	86.1679	9848.88	86.5292	9848.88	85.0284	9848.88	84.8936	9848.88	84.3799	9848.88	83.925	9848.88	82.4722	9848.88	82.0329	9848.88	80.5467	9848.88	79.9956	9848.88	77.209	9848.88	76.9597	9848.88	72.5494	9848.88	73.7725	9848.88	70.0834	9848.88	69.0672	9848.88	65.4588	9848.88	65.0152	9848.88	54.6136	9848.88	45.9137	9848.88	53.426	9848.88	46.1332	9848.88	57.598	9848.88	50.1986	9848.88	52.9157	9848.88	48.7257	9848.88	48.4772	9848.88	43.6464	9848.88	55.0329	9848.88	43.3787	9848.88	51.0587	9848.88	53.7562	9848.88	51.9224	9848.88	53.0267	9848.88	46.0462
10196.8	85.6887	10196.8	86.6547	10196.8	86.4119	10196.8	85.252	10196.8	85.8112	10196.8	84.5898	10196.8	84.1781	10196.8	83.7321	10196.8	82.4811	10196.8	80.2069	10196.8	79.9162	10196.8	78.5767	10196.8	77.3412	10196.8	71.9923	10196.8	72.6954	10196.8	71.4171	10196.8	71.7332	10196.8	65.3063	10196.8	66.0921	10196.8	53.4124	10196.8	56.0063	10196.8	48.1981	10196.8	46.903	10196.8	53.9832	10196.8	48.6222	10196.8	54.4248	10196.8	48.0378	10196.8	44.6615	10196.8	41.8276	10196.8	40.6659	10196.8	54.4995	10196.8	38.8913	10196.8	58.1735	10196.8	50.6417	10196.8	48.9245	10196.8	48.1039
10556.4	86.6841	10556.4	86.7182	10556.4	86.5408	10556.4	85.4601	10556.4	85.5489	10556.4	84.7255	10556.4	84.3582	10556.4	83.6769	10556.4	83.0772	10556.4	80.0269	10556.4	80.4959	10556.4	77.976	10556.4	77.3073	10556.4	73.4201	10556.4	73.7821	10556.4	70.9391	10556.4	71.5377	10556.4	65.0155	10556.4	64.0208	10556.4	49.8705	10556.4	57.1955	10556.4	56.2898	10556.4	51.7078	10556.4	51.8407	10556.4	51.5281	10556.4	46.6375	10556.4	53.1681	10556.4	44.6317	10556.4	43.1037	10556.4	50.8232	10556.4	54.9144	10556.4	35.0382	10556.4	60.0238	10556.4	46.7308	10556.4	50.7203	10556.4	45.5425
10928.5	86.8958	10928.5	85.9698	10928.5	86.0558	10928.5	85.1551	10928.5	84.2972	10928.5	84.5749	10928.5	83.9719	10928.5	82.8523	10928.5	82.1475	10928.5	79.7141	10928.5	80.4477	10928.5	77.2947	10928.5	76.8465	10928.5	73.4877	10928.5	70.5744	10928.5	69.9963	10928.5	71.7345	10928.5	64.6161	10928.5	64.184	10928.5	57.765	10928.5	58.3767	10928.5	50.5975	10928.5	53.3296	10928.5	50.1146	10928.5	49.7871	10928.5	51.4135	10928.5	54.1882	10928.5	41.0911	10928.5	38.5751	10928.5	35.9656	10928.5	57.9807	10928.5	53.395	10928.5	58.0197	10928.5	56.1467	10928.5	55.5403	10928.5	37.1296
11313.7	87.1022	11313.7	86.0012	11313.7	85.6048	11313.7	84.7351	11313.7	84.8064	11313.7	84.5244	11313.7	83.9726	11313.7	82.9492	11313.7	82.2556	11313.7	79.1161	11313.7	80.0551	11313.7	77.5845	11313.7	77.1064	11313.7	73.2341	11313.7	71.9864	11313.7	71.0848	11313.7	71.764	11313.7	64.7624	11313.7	64.3351	11313.7	58.771	11313.7	59.9096	11313.7	57.3067	11313.7	48.52	11313.7	53.2824	11313.7	45.054	11313.7	53.3068	11313.7	49.4003	11313.7	47.1461	11313.7	46.7416	11313.7	43.0214	11313.7	55.463	11313.7	54.9283	11313.7	56.0365	11313.7	56.6646	11313.7	50.2329	11313.7	35.6177
11712.9	88.0087	11712.9	86.9636	11712.9	86.1935	11712.9	85.2979	11712.9	86.0007	11712.9	84.0369	11712.9	84.1781	11712.9	82.3569	11712.9	82.0407	11712.9	80.0868	11712.9	80.1037	11712.9	76.8269	11712.9	76.8208	11712.9	72.3126	11712.9	72.3937	11712.9	71.3682	11712.9	71.1497	11712.9	65.414	11712.9	64.428	11712.9	56.7	11712.9	55.1843	11712.9	57.5835	11712.9	53.6785	11712.9	49.8056	11712.9	49.2841	11712.9	50.7753	11712.9	39.2272	11712.9	43.2779	11712.9	47.2131	11712.9	14.5628	11712.9	42.087	11712.9	51.5988	11712.9	54.1709	11712.9	55.1751	11712.9	47.0075	11712.9	44.0249
12126	87.9682	12126	86.5699	12126	86.9558	12126	85.2562	12126	85.5995	12126	84.1859	12126	83.7699	12126	82.3839	12126	82.1899	12126	80.1113	12126	79.5554	12126	77.3182	12126	76.2953	12126	73.6109	12126	71.765	12126	69.8598	12126	70.8779	12126	64.3168	12126	63.7808	12126	58.6797	12126	59.0589	12126	52.1189	12126	53.996	12126	49.1894	12126	52.7177	12126	46.8456	12126	48.5665	12126	45.3164	12126	22.7638	12126	40.2859	12126	48.8159	12126	47.6775	12126	39.3784	12126	48.208	12126	47.5542	12126	51.8902
12553.7	87.481	12553.7	86.2514	12553.7	86.7584	12553.7	86.4182	12553.7	86.237	12553.7	84.0468	12553.7	84.2163	12553.7	83.5818	12553.7	82.5937	12553.7	79.9578	12553.7	80.0882	12553.7	77.2176	12553.7	76.3521	12553.7	72.2773	12553.7	71.2264	12553.7	69.9435	12553.7	69.9672	12553.7	62.8512	12553.7	65.3156	12553.7	57.2478	12553.7	60.4406	12553.7	48.7643	12553.7	53.1598	12553.7	48.8628	12553.7	52.9045	12553.7	42.5529	12553.7	59.9753	12553.7	36.8865	12553.7	47.517	12553.7	48.4723	12553.7	45.5106	12553.7	35.8247	12553.7	41.8002	12553.7	36.0062	12553.7	39.4799	12553.7	50.6917
12996.1	87.2021	12996.1	86.4674	12996.1	87.0617	12996.1	85.2628	12996.1	85.6102	12996.1	84.7795	12996.1	84.7461	12996.1	82.4908	12996.1	82.2287	12996.1	79.1596	12996.1	79.9952	12996.1	77.247	12996.1	76.6725	12996.1	72.0227	12996.1	73.4374	12996.1	68.7204	12996.1	70.5581	12996.1	66.4501	12996.1	66.7266	12996.1	58.5503	12996.1	57.9311	12996.1	47.1689	12996.1	50.7287	12996.1	49.8613	12996.1	46.1571	12996.1	36.5177	12996.1	53.5516	12996.1	42.2017	12996.1	53.7498	12996.1	45.3534	12996.1	53.3486	12996.1	47.9409	12996.1	47.5347	12996.1	43.1888	12996.1	48.7231	12996.1	44.6846
13454.6	87.154	13454.6	86.0839	13454.6	86.6539	13454.6	85.6629	13454.6	85.3118	13454.6	83.7518	13454.6	84.1315	13454.6	82.9411	13454.6	82.217	13454.6	80.1779	13454.6	80.9722	13454.6	76.3199	13454.6	76.9944	13454.6	72.9623	13454.6	72.8568	13454.6	69.8505	13454.6	71.5322	13454.6	66.2331	13454.6	66.4099	13454.6	56.3882	13454.6	56.2647	13454.6	56.2073	13454.6	50.6101	13454.6	37.3899	13454.6	53.251	13454.6	46.9284	13454.6	32.2035	13454.6	49.2231	13454.6	43.1949	13454.6	41.0725	13454.6	49.0417	13454.6	46.797	13454.6	47.6432	13454.6	51.7489	13454.6	52.9818	13454.6	41.7572
13928.5	86.7332	13928.5	86.3542	13928.5	86.6901	13928.5	85.3292	13928.5	85.4763	13928.5	85.1498	13928.5	85.2612	13928.5	82.3773	13928.5	82.6713	13928.5	79.3521	13928.5	81.377	13928.5	76.0845	13928.5	77.1178	13928.5	71.7824	13928.5	73.0037	13928.5	69.3461	13928.5	72.272	13928.5	63.947	13928.5	66.1784	13928.5	56.9007	13928.5	58.4828	13928.5	52.4031	13928.5	56.778	13928.5	44.1854	13928.5	52.816	13928.5	46.9632	13928.5	56.5102	13928.5	53.836	13928.5	44.3972	13928.5	50.1118	13928.5	51.3694	13928.5	55.6671	13928.5	44.4799	13928.5	54.7103	13928.5	52.7173	13928.5	41.7901
14419.9	86.1883	14419.9	85.5324	14419.9	85.3533	14419.9	85.2203	14419.9	85.1609	14419.9	84.0798	14419.9	84.4278	14419.9	82.748	14419.9	82.2446	14419.9	78.3726	14419.9	80.8649	14419.9	76.2631	14419.9	76.8009	14419.9	71.2142	14419.9	72.9787	14419.9	70.0519	14419.9	70.7219	14419.9	65.3248	14419.9	67.0244	14419.9	58.0563	14419.9	59.5904	14419.9	49.0221	14419.9	53.3541	14419.9	50.4334	14419.9	50.7473	14419.9	45.0424	14419.9	60.6809	14419.9	49.5351	14419.9	42.6129	14419.9	45.8996	14419.9	56.3506	14419.9	57.8643	14419.9	49.8937	14419.9	48.6991	14419.9	47.1096	14419.9	39.2368
14928.2	86.2544	14928.2	86.1337	14928.2	86.275	14928.2	85.1591	14928.2	85.6023	14928.2	84.3957	14928.2	84.4609	14928.2	82.0449	14928.2	82.8487	14928.2	77.6005	14928.2	80.7356	14928.2	75.2137	14928.2	76.7917	14928.2	72.5111	14928.2	72.7422	14928.2	68.9269	14928.2	71.3772	14928.2	65.3983	14928.2	66.7639	14928.2	58.2147	14928.2	55.7587	14928.2	50.3908	14928.2	52.3919	14928.2	51.2583	14928.2	37.61	14928.2	42.866	14928.2	63.0245	14928.2	42.0799	14928.2	46.1939	14928.2	41.7235	14928.2	57.265	14928.2	53.9797	14928.2	56.6796	14928.2	56.0759	14928.2	48.7152	14928.2	43.5988
15454.8	86.3615	15454.8	85.6734	15454.8	85.8307	15454.8	84.837	15454.8	85.4641	15454.8	83.0638	15454.8	83.903	15454.8	82.3097	15454.8	82.9996	15454.8	77.8869	15454.8	79.9814	15454.8	76.2542	15454.8	76.2466	15454.8	71.2698	15454.8	72.3829	15454.8	69.8474	15454.8	71.0474	15454.8	66.2472	15454.8	66.8197	15454.8	58.176	15454.8	59.6764	15454.8	52.7909	15454.8	51.2977	15454.8	46.0814	15454.8	50.5778	15454.8	46.0224	15454.8	56.4038	15454.8	48.8142	15454.8	44.5648	15454.8	44.425	15454.8	55.1367	15454.8	56.3841	15454.8	56.5156	15454.8	53.0977	15454.8	56.3342	15454.8	46.3403
15999.8	85.6446	15999.8	85.9286	15999.8	85.7925	15999.8	84.9686	15999.8	84.7712	15999.8	82.77	15999.8	83.5361	15999.8	81.4826	15999.8	82.9688	15999.8	77.7019	15999.8	80.0576	15999.8	76.8372	15999.8	76.7135	15999.8	69.3769	15999.8	70.9529	15999.8	69.0553	15999.8	69.6292	15999.8	64.8136	15999.8	65.3089	15999.8	53.6214	15999.8	58.0499	15999.8	52.718	15999.8	52.7201	15999.8	45.5037	15999.8	43.9193	15999.8	46.6327	15999.8	55.6074	15999.8	46.8796	15999.8	49.4762	15999.8	47.2309	15999.8	53.6343	15999.8	57.3846	15999.8	56.68	15999.8	53.0568	15999.8	55.9387	15999.8	31.4942
16564.5	85.214	16564.5	85.0781	16564.5	85.4016	16564.5	84.4048	16564.5	84.6891	16564.5	82.6855	16564.5	83.0114	16564.5	82.582	16564.5	82.3167	16564.5	78.238	16564.5	79.8363	16564.5	76.4337	16564.5	75.4348	16564.5	67.5945	16564.5	69.1986	16564.5	67.9544	16564.5	67.9239	16564.5	62.9114	16564.5	65.2297	16564.5	58.4196	16564.5	45.5056	16564.5	55.7509	16564.5	48.2041	16564.5	40.5273	16564.5	48.908	16564.5	49.8815	16564.5	56.1997	16564.5	52.2482	16564.5	51.316	16564.5	36.3396	16564.5	54.1693	16564.5	54.5666	16564.5	56.6359	16564.5	54.7179	16564.5	57.1294	16564.5	44.0623
17148.2	84.2398	17148.2	84.8053	17148.2	84.7652	17148.2	84.0998	17148.2	84.2695	17148.2	82.3755	17148.2	83.0461	17148.2	82.4003	17148.2	81.9043	17148.2	78.5452	17148.2	80.3679	17148.2	75.5475	17148.2	75.4044	17148.2	67.3328	17148.2	70.0111	17148.2	68.7419	17148.2	68.8156	17148.2	64.5712	17148.2	65.1991	17148.2	57.4397	17148.2	55.9384	17148.2	52.6064	17148.2	22.0549	17148.2	44.4473	17148.2	48.0758	17148.2	47.6712	17148.2	56.6363	17148.2	51.8886	17148.2	55.0746	17148.2	36.982	17148.2	55.5767	17148.2	55.7566	17148.2	56.662	17148.2	55.6705	17148.2	56.9549	17148.2	41.1143
17753.2	83.451	17753.2	84.6291	17753.2	84.8748	17753.2	83.3864	17753.2	83.8773	17753.2	82.3595	17753.2	82.6984	17753.2	81.5105	17753.2	80.8916	17753.2	78.6082	17753.2	79.9128	17753.2	76.2842	17753.2	74.7835	17753.2	66.262	17753.2	69.6667	17753.2	69.9055	17753.2	68.4033	17753.2	64.5027	17753.2	64.9164	17753.2	56.0918	17753.2	58.6898	17753.2	53.9053	17753.2	41.6175	17753.2	41.645	17753.2	45.1345	17753.2	45.1233	17753.2	51.6773	17753.2	48.5513	17753.2	52.5898	17753.2	51.0913	17753.2	56.1676	17753.2	57.6433	17753.2	56.6085	17753.2	57.8048	17753.2	55.493	17753.2	39.684
18379.4	82.4198	18379.4	83.2873	18379.4	84.1422	18379.4	82.3532	18379.4	83.2804	18379.4	81.0561	18379.4	82.1669	18379.4	80.5756	18379.4	80.0139	18379.4	77.5663	18379.4	79.1555	18379.4	75.3076	18379.4	74.874	18379.4	67.4193	18379.4	70.5321	18379.4	67.77	18379.4	66.3334	18379.4	62.7878	18379.4	63.0513	18379.4	55.8748	18379.4	51.6957	18379.4	55.3229	18379.4	39.0121	18379.4	41.1178	18379.4	50.5048	18379.4	43.2191	18379.4	58.3272	18379.4	50.5572	18379.4	48.8798	18379.4	49.831	18379.4	50.3062	18379.4	54.0828	18379.4	52.9657	18379.4	55.2002	18379.4	54.4405	18379.4	45.0077
19027.6	81.6351	19027.6	82.148	19027.6	83.4812	19027.6	81.711	19027.6	82.4144	19027.6	80.7759	19027.6	81.5776	19027.6	79.9111	19027.6	80.038	19027.6	76.119	19027.6	78.418	19027.6	75.0525	19027.6	74.196	19027.6	67.9428	19027.6	68.5453	19027.6	64.7957	19027.6	64.8186	19027.6	60.2495	19027.6	61.305	19027.6	55.5029	19027.6	53.6255	19027.6	54.1366	19027.6	34.4193	19027.6	40.218	19027.6	47.8381	19027.6	40.8535	19027.6	56.5027	19027.6	47.9059	19027.6	44.1767	19027.6	39.2393	19027.6	50.0995	19027.6	49.2535	19027.6	51.1917	19027.6	48.2624	19027.6	53.104	19027.6	37.5659
19698.5	81.3404	19698.5	82.1216	19698.5	82.7881	19698.5	81.197	19698.5	82.0588	19698.5	79.9869	19698.5	81.0993	19698.5	80.1555	19698.5	80.3166	19698.5	76.1154	19698.5	78.0162	19698.5	74.4641	19698.5	73.3349	19698.5	66.3988	19698.5	67.8143	19698.5	65.1112	19698.5	63.7163	19698.5	58.9521	19698.5	61.8778	19698.5	56.6217	19698.5	54.9227	19698.5	53.515	19698.5	37.85	19698.5	35.8163	19698.5	48.0297	19698.5	43.1443	19698.5	55.1297	19698.5	44.9832	19698.5	44.8772	19698.5	44.525	19698.5	46.7929	19698.5	53.2	19698.5	52.5375	19698.5	54.3851	19698.5	53.6994	19698.5	31.6545
19999.5	81.3711	19999.5	81.6388	19999.5	82.8383	19999.5	80.9175	19999.5	82.1629	19999.5	80.048	19999.5	81.0141	19999.5	80.021	19999.5	80.1146	19999.5	76.9118	19999.5	77.2979	19999.5	75.4847	19999.5	73.8552	19999.5	66.1851	19999.5	68.1135	19999.5	65.6147	19999.5	66.1756	19999.5	57.2056	19999.5	63.9227	19999.5	58.4491	19999.5	58.7828	19999.5	59.9338	19999.5	52.153	19999.5	52.4123	19999.5	45.1181	19999.5	46.2047	19999.5	54.5308	19999.5	42.4666	19999.5	45.6836	19999.5	45.5488	19999.5	48.2911	19999.5	53.6154	19999.5	56.2761	19999.5	49.7178	19999.5	50.4557	19999.5	41.1193
