"SPL Vertical"
"On-Axis"		"10°"		"-10°"		"20°"		"-20°"		"30°"		"-30°"		"40°"		"-40°"		"50°"		"-50°"		"60°"		"-60°"		"70°"		"-70°"		"80°"		"-80°"		"90°"		"-90°"		"100°"		"-100°"		"110°"		"-110°"		"120°"		"-120°"		"130°"		"-130°"		"140°"		"-140°"		"150°"		"-150°"		"160°"		"-160°"		"170°"		"-170°"		"180°"
"Frequency / Hz"	"Sound Pressure Level / dB (re 20 µPa/V)  [2.83V at 1m]"	"Frequency / Hz"	"Sound Pressure Level / dB (re 20 µPa/V)  [2.83V at 1m]"	"Frequency / Hz"	"Sound Pressure Level / dB (re 20 µPa/V)  [2.83V at 1m]"	"Frequency / Hz"	"Sound Pressure Level / dB (re 20 µPa/V)  [2.83V at 1m]"	"Frequency / Hz"	"Sound Pressure Level / dB (re 20 µPa/V)  [2.83V at 1m]"	"Frequency / Hz"	"Sound Pressure Level / dB (re 20 µPa/V)  [2.83V at 1m]"	"Frequency / Hz"	"Sound Pressure Level / dB (re 20 µPa/V)  [2.83V at 1m]"	"Frequency / Hz"	"Sound Pressure Level / dB (re 20 µPa/V)  [2.83V at 1m]"	"Frequency / Hz"	"Sound Pressure Level / dB (re 20 µPa/V)  [2.83V at 1m]"	"Frequency / Hz"	"Sound Pressure Level / dB (re 20 µPa/V)  [2.83V at 1m]"	"Frequency / Hz"	"Sound Pressure Level / dB (re 20 µPa/V)  [2.83V at 1m]"	"Frequency / Hz"	"Sound Pressure Level / dB (re 20 µPa/V)  [2.83V at 1m]"	"Frequency / Hz"	"Sound Pressure Level / dB (re 20 µPa/V)  [2.83V at 1m]"	"Frequency / Hz"	"Sound Pressure Level / dB (re 20 µPa/V)  [2.83V at 1m]"	"Frequency / Hz"	"Sound Pressure Level / dB (re 20 µPa/V)  [2.83V at 1m]"	"Frequency / Hz"	"Sound Pressure Level / dB (re 20 µPa/V)  [2.83V at 1m]"	"Frequency / Hz"	"Sound Pressure Level / dB (re 20 µPa/V)  [2.83V at 1m]"	"Frequency / Hz"	"Sound Pressure Level / dB (re 20 µPa/V)  [2.83V at 1m]"	"Frequency / Hz"	"Sound Pressure Level / dB (re 20 µPa/V)  [2.83V at 1m]"	"Frequency / Hz"	"Sound Pressure Level / dB (re 20 µPa/V)  [2.83V at 1m]"	"Frequency / Hz"	"Sound Pressure Level / dB (re 20 µPa/V)  [2.83V at 1m]"	"Frequency / Hz"	"Sound Pressure Level / dB (re 20 µPa/V)  [2.83V at 1m]"	"Frequency / Hz"	"Sound Pressure Level / dB (re 20 µPa/V)  [2.83V at 1m]"	"Frequency / Hz"	"Sound Pressure Level / dB (re 20 µPa/V)  [2.83V at 1m]"	"Frequency / Hz"	"Sound Pressure Level / dB (re 20 µPa/V)  [2.83V at 1m]"	"Frequency / Hz"	"Sound Pressure Level / dB (re 20 µPa/V)  [2.83V at 1m]"	"Frequency / Hz"	"Sound Pressure Level / dB (re 20 µPa/V)  [2.83V at 1m]"	"Frequency / Hz"	"Sound Pressure Level / dB (re 20 µPa/V)  [2.83V at 1m]"	"Frequency / Hz"	"Sound Pressure Level / dB (re 20 µPa/V)  [2.83V at 1m]"	"Frequency / Hz"	"Sound Pressure Level / dB (re 20 µPa/V)  [2.83V at 1m]"	"Frequency / Hz"	"Sound Pressure Level / dB (re 20 µPa/V)  [2.83V at 1m]"	"Frequency / Hz"	"Sound Pressure Level / dB (re 20 µPa/V)  [2.83V at 1m]"	"Frequency / Hz"	"Sound Pressure Level / dB (re 20 µPa/V)  [2.83V at 1m]"	"Frequency / Hz"	"Sound Pressure Level / dB (re 20 µPa/V)  [2.83V at 1m]"	"Frequency / Hz"	"Sound Pressure Level / dB (re 20 µPa/V)  [2.83V at 1m]"	"Frequency / Hz"	"Sound Pressure Level / dB (re 20 µPa/V)  [2.83V at 1m]"
20.5078	59.1948	20.5078	59.1804	20.5078	59.1941	20.5078	59.1515	20.5078	59.1783	20.5078	59.1089	20.5078	59.1481	20.5078	59.0544	20.5078	59.1048	20.5078	58.9898	20.5078	59.0498	20.5078	58.9173	20.5078	58.9851	20.5078	58.8393	20.5078	58.913	20.5078	58.7585	20.5078	58.8359	20.5078	58.6773	20.5078	58.7561	20.5078	58.5984	20.5078	58.6761	20.5078	58.524	20.5078	58.5983	20.5078	58.4563	20.5078	58.5248	20.5078	58.3973	20.5078	58.4578	20.5078	58.3483	20.5078	58.3991	20.5078	58.3107	20.5078	58.3501	20.5078	58.2853	20.5078	58.3122	20.5078	58.2726	20.5078	58.2863	20.5078	58.273
21.2402	59.5448	21.2402	59.541	21.2402	59.5365	21.2402	59.5254	21.2402	59.5165	21.2402	59.4984	21.2402	59.4854	21.2402	59.461	21.2402	59.4443	21.2402	59.4145	21.2402	59.3947	21.2402	59.3604	21.2402	59.3383	21.2402	59.3007	21.2402	59.2769	21.2402	59.2372	21.2402	59.2125	21.2402	59.1721	21.2402	59.1473	21.2402	59.1074	21.2402	59.0832	21.2402	59.0452	21.2402	59.0221	21.2402	58.9872	21.2402	58.9659	21.2402	58.9351	21.2402	58.9162	21.2402	58.8903	21.2402	58.8742	21.2402	58.8538	21.2402	58.8411	21.2402	58.8265	21.2402	58.8177	21.2402	58.8088	21.2402	58.8043	21.2402	58.8014
21.9727	60.0779	21.9727	60.0742	21.9727	60.0726	21.9727	60.0614	21.9727	60.0585	21.9727	60.04	21.9727	60.0362	21.9727	60.0107	21.9727	60.0065	21.9727	59.9746	21.9727	59.9706	21.9727	59.9331	21.9727	59.9298	21.9727	59.8876	21.9727	59.8858	21.9727	59.8399	21.9727	59.84	21.9727	59.7919	21.9727	59.7942	21.9727	59.7453	21.9727	59.7499	21.9727	59.7017	21.9727	59.7083	21.9727	59.6626	21.9727	59.6706	21.9727	59.6289	21.9727	59.6377	21.9727	59.6015	21.9727	59.6101	21.9727	59.5806	21.9727	59.588	21.9727	59.5663	21.9727	59.5718	21.9727	59.5584	21.9727	59.5614	21.9727	59.5569
22.7051	60.3933	22.7051	60.3869	22.7051	60.3867	22.7051	60.3678	22.7051	60.3672	22.7051	60.3367	22.7051	60.3354	22.7051	60.2947	22.7051	60.2924	22.7051	60.2433	22.7051	60.2396	22.7051	60.1842	22.7051	60.1788	22.7051	60.1194	22.7051	60.1122	22.7051	60.051	22.7051	60.042	22.7051	59.981	22.7051	59.9707	22.7051	59.9118	22.7051	59.9004	22.7051	59.8453	22.7051	59.8335	22.7051	59.7836	22.7051	59.7719	22.7051	59.7282	22.7051	59.7173	22.7051	59.6808	22.7051	59.6712	22.7051	59.6423	22.7051	59.6347	22.7051	59.6138	22.7051	59.6085	22.7051	59.5959	22.7051	59.5932	22.7051	59.5889
23.4375	61.0272	23.4375	61.0214	23.4375	61.0174	23.4375	61.0002	23.4375	60.9923	23.4375	60.9644	23.4375	60.9527	23.4375	60.915	23.4375	60.8998	23.4375	60.8539	23.4375	60.8355	23.4375	60.7828	23.4375	60.7617	23.4375	60.704	23.4375	60.6807	23.4375	60.6198	23.4375	60.595	23.4375	60.5329	23.4375	60.5071	23.4375	60.4457	23.4375	60.4197	23.4375	60.3607	23.4375	60.3354	23.4375	60.2806	23.4375	60.2567	23.4375	60.2075	23.4375	60.1859	23.4375	60.1436	23.4375	60.1252	23.4375	60.0911	23.4375	60.0765	23.4375	60.0514	23.4375	60.0413	23.4375	60.0259	23.4375	60.0208	23.4375	60.0156
24.1699	61.5286	24.1699	61.5207	24.1699	61.5222	24.1699	61.4991	24.1699	61.5017	24.1699	61.4646	24.1699	61.4675	24.1699	61.4185	24.1699	61.4208	24.1699	61.3624	24.1699	61.3631	24.1699	61.2982	24.1699	61.2962	24.1699	61.2279	24.1699	61.2223	24.1699	61.1535	24.1699	61.1439	24.1699	61.0774	24.1699	61.0635	24.1699	61.0016	24.1699	60.9836	24.1699	60.9282	24.1699	60.9069	24.1699	60.8593	24.1699	60.8359	24.1699	60.7966	24.1699	60.7727	24.1699	60.7417	24.1699	60.7193	24.1699	60.6963	24.1699	60.6772	24.1699	60.6616	24.1699	60.6477	24.1699	60.6387	24.1699	60.6313	24.1699	60.6284
25.6348	62.5488	25.6348	62.5375	25.6348	62.552	25.6348	62.5185	25.6348	62.5468	25.6348	62.4923	25.6348	62.5336	25.6348	62.46	25.6348	62.5128	25.6348	62.4226	25.6348	62.4852	25.6348	62.3814	25.6348	62.4518	25.6348	62.3379	25.6348	62.4138	25.6348	62.2935	25.6348	62.3725	25.6348	62.2497	25.6348	62.3295	25.6348	62.2079	25.6348	62.286	25.6348	62.1695	25.6348	62.2435	25.6348	62.1356	25.6348	62.2032	25.6348	62.1069	25.6348	62.1662	25.6348	62.0841	25.6348	62.1335	25.6348	62.0676	25.6348	62.1058	25.6348	62.0577	25.6348	62.0836	25.6348	62.0544	25.6348	62.0675	25.6348	62.0577
26.3672	62.9491	26.3672	62.9474	26.3672	62.943	26.3672	62.938	26.3672	62.9294	26.3672	62.9211	26.3672	62.9086	26.3672	62.8975	26.3672	62.8813	26.3672	62.8678	26.3672	62.8485	26.3672	62.8332	26.3672	62.8112	26.3672	62.7948	26.3672	62.7707	26.3672	62.754	26.3672	62.7285	26.3672	62.7122	26.3672	62.6859	26.3672	62.6707	26.3672	62.6445	26.3672	62.6309	26.3672	62.6055	26.3672	62.5939	26.3672	62.5701	26.3672	62.5607	26.3672	62.5392	26.3672	62.532	26.3672	62.5137	26.3672	62.5084	26.3672	62.494	26.3672	62.4905	26.3672	62.4805	26.3672	62.4785	26.3672	62.4734	26.3672	62.4728
27.0996	63.4903	27.0996	63.4874	27.0996	63.4826	27.0996	63.4739	27.0996	63.4646	27.0996	63.4502	27.0996	63.4369	27.0996	63.4171	27.0996	63.4004	27.0996	63.3755	27.0996	63.3562	27.0996	63.3268	27.0996	63.3058	27.0996	63.2727	27.0996	63.2509	27.0996	63.2149	27.0996	63.193	27.0996	63.1554	27.0996	63.1342	27.0996	63.096	27.0996	63.0762	27.0996	63.0387	27.0996	63.0208	27.0996	62.9853	27.0996	62.9696	27.0996	62.9374	27.0996	62.9242	27.0996	62.8962	27.0996	62.8856	27.0996	62.8628	27.0996	62.8549	27.0996	62.838	27.0996	62.8328	27.0996	62.8225	27.0996	62.8199	27.0996	62.8164
27.832	63.9497	27.832	63.944	27.832	63.9454	27.832	63.9285	27.832	63.9312	27.832	63.9036	27.832	63.9075	27.832	63.87	27.832	63.8751	27.832	63.829	27.832	63.835	27.832	63.7816	27.832	63.7884	27.832	63.7294	27.832	63.7368	27.832	63.6742	27.832	63.6819	27.832	63.6177	27.832	63.6254	27.832	63.5618	27.832	63.5692	27.832	63.5083	27.832	63.5152	27.832	63.4587	27.832	63.4649	27.832	63.4146	27.832	63.4199	27.832	63.3771	27.832	63.3815	27.832	63.3473	27.832	63.3505	27.832	63.3256	27.832	63.3278	27.832	63.3127	27.832	63.3138	27.832	63.3087
29.2969	65.1372	29.2969	65.1294	29.2969	65.1312	29.2969	65.1082	29.2969	65.1117	29.2969	65.0742	29.2969	65.0791	29.2969	65.0282	29.2969	65.0342	29.2969	64.9715	29.2969	64.9782	29.2969	64.9056	29.2969	64.9126	29.2969	64.8324	29.2969	64.8392	29.2969	64.7538	29.2969	64.76	29.2969	64.6721	29.2969	64.6774	29.2969	64.5897	29.2969	64.5938	29.2969	64.5089	29.2969	64.5118	29.2969	64.4324	29.2969	64.434	29.2969	64.3626	29.2969	64.3631	29.2969	64.3017	29.2969	64.3014	29.2969	64.2518	29.2969	64.2512	29.2969	64.2147	29.2969	64.214	29.2969	64.1917	29.2969	64.1913	29.2969	64.1838
30.0293	65.5178	30.0293	65.5108	30.0293	65.512	30.0293	65.4912	30.0293	65.4934	30.0293	65.4596	30.0293	65.4626	30.0293	65.4167	30.0293	65.4204	30.0293	65.364	30.0293	65.3679	30.0293	65.3027	30.0293	65.3066	30.0293	65.2346	30.0293	65.2382	30.0293	65.1618	30.0293	65.1648	30.0293	65.0864	30.0293	65.0884	30.0293	65.0105	30.0293	65.0116	30.0293	64.9365	30.0293	64.9365	30.0293	64.8666	30.0293	64.8657	30.0293	64.803	30.0293	64.8015	30.0293	64.7478	30.0293	64.7459	30.0293	64.7026	30.0293	64.7007	30.0293	64.6691	30.0293	64.6675	30.0293	64.6482	30.0293	64.6474	30.0293	64.6409
31.4941	66.144	31.4941	66.1383	31.4941	66.1357	31.4941	66.1189	31.4941	66.1138	31.4941	66.0866	31.4941	66.0789	31.4941	66.0423	31.4941	66.0322	31.4941	65.9878	31.4941	65.9753	31.4941	65.9248	31.4941	65.9101	31.4941	65.8554	31.4941	65.8388	31.4941	65.7819	31.4941	65.7637	31.4941	65.7065	31.4941	65.6874	31.4941	65.6318	31.4941	65.6122	31.4941	65.5599	31.4941	65.5405	31.4941	65.4929	31.4941	65.4745	31.4941	65.4327	31.4941	65.4159	31.4941	65.3809	31.4941	65.3664	31.4941	65.3388	31.4941	65.3273	31.4941	65.3074	31.4941	65.2994	31.4941	65.2874	31.4941	65.2833	31.4941	65.2793
32.2266	66.1835	32.2266	66.1795	32.2266	66.1729	32.2266	66.161	32.2266	66.148	32.2266	66.1285	32.2266	66.1099	32.2266	66.0834	32.2266	66.0599	32.2266	66.0271	32.2266	65.9999	32.2266	65.9617	32.2266	65.9318	32.2266	65.8894	32.2266	65.8581	32.2266	65.8128	32.2266	65.781	32.2266	65.7343	32.2266	65.703	32.2266	65.6565	32.2266	65.6266	32.2266	65.5818	32.2266	65.5541	32.2266	65.5125	32.2266	65.4875	32.2266	65.4504	32.2266	65.4288	32.2266	65.3972	32.2266	65.3794	32.2266	65.3541	32.2266	65.3404	32.2266	65.322	32.2266	65.3128	32.2266	65.3016	32.2266	65.2969	32.2266	65.2932
33.6914	66.9028	33.6914	66.8956	33.6914	66.8988	33.6914	66.8771	33.6914	66.8835	33.6914	66.8477	33.6914	66.8573	33.6914	66.8079	33.6914	66.8207	33.6914	66.7588	33.6914	66.7747	33.6914	66.7013	33.6914	66.7203	33.6914	66.637	33.6914	66.6588	33.6914	66.5676	33.6914	66.5919	33.6914	66.4952	33.6914	66.5214	33.6914	66.4219	33.6914	66.4494	33.6914	66.3502	33.6914	66.3782	33.6914	66.2825	33.6914	66.3099	33.6914	66.2211	33.6914	66.2468	33.6914	66.1684	33.6914	66.191	33.6914	66.1261	33.6914	66.1445	33.6914	66.0958	33.6914	66.1089	33.6914	66.0787	33.6914	66.0855	33.6914	66.0753
34.4238	67.4989	34.4238	67.4906	34.4238	67.4951	34.4238	67.4703	34.4238	67.4794	34.4238	67.4386	34.4238	67.452	34.4238	67.3961	34.4238	67.4136	34.4238	67.3437	34.4238	67.3651	34.4238	67.2827	34.4238	67.3076	34.4238	67.2145	34.4238	67.2425	34.4238	67.141	34.4238	67.1716	34.4238	67.0642	34.4238	67.0968	34.4238	66.9863	34.4238	67.0201	34.4238	66.9099	34.4238	66.944	34.4238	66.8374	34.4238	66.8706	34.4238	66.7715	34.4238	66.8024	34.4238	66.7145	34.4238	66.7417	34.4238	66.6687	34.4238	66.6908	34.4238	66.6359	34.4238	66.6515	34.4238	66.6174	34.4238	66.6255	34.4238	66.6139
35.8887	68.1116	35.8887	68.1125	35.8887	68.1015	35.8887	68.1039	35.8887	68.0824	35.8887	68.0861	35.8887	68.0549	35.8887	68.0594	35.8887	68.0196	35.8887	68.0242	35.8887	67.9773	35.8887	67.9816	35.8887	67.9292	35.8887	67.9326	35.8887	67.8766	35.8887	67.8786	35.8887	67.8208	35.8887	67.8214	35.8887	67.7636	35.8887	67.7628	35.8887	67.7067	35.8887	67.7045	35.8887	67.6519	35.8887	67.6486	35.8887	67.601	35.8887	67.597	35.8887	67.5555	35.8887	67.5512	35.8887	67.5169	35.8887	67.5129	35.8887	67.4866	35.8887	67.4833	35.8887	67.4655	35.8887	67.4633	35.8887	67.4544	35.8887	67.4536
37.3535	69.0852	37.3535	69.0794	37.3535	69.0785	37.3535	69.0615	37.3535	69.0597	37.3535	69.0319	37.3535	69.0291	37.3535	68.9915	37.3535	68.9876	37.3535	68.9415	37.3535	68.9365	37.3535	68.8834	37.3535	68.8772	37.3535	68.8191	37.3535	68.8115	37.3535	68.7507	37.3535	68.7418	37.3535	68.6805	37.3535	68.6701	37.3535	68.6106	37.3535	68.5991	37.3535	68.5434	37.3535	68.5311	37.3535	68.4808	37.3535	68.4683	37.3535	68.4248	37.3535	68.4126	37.3535	68.3767	37.3535	68.3657	37.3535	68.3378	37.3535	68.3287	37.3535	68.3089	37.3535	68.3024	37.3535	68.2906	37.3535	68.2872	37.3535	68.2833
38.8184	69.5169	38.8184	69.5123	38.8184	69.5085	38.8184	69.4949	38.8184	69.4873	38.8184	69.465	38.8184	69.454	38.8184	69.4236	38.8184	69.4096	38.8184	69.3719	38.8184	69.3554	38.8184	69.3116	38.8184	69.293	38.8184	69.2443	38.8184	69.2242	38.8184	69.1723	38.8184	69.1511	38.8184	69.0977	38.8184	69.0758	38.8184	69.0226	38.8184	69.0007	38.8184	68.9494	38.8184	68.9281	38.8184	68.8803	38.8184	68.8601	38.8184	68.8173	38.8184	68.799	38.8184	68.7624	38.8184	68.7467	38.8184	68.7172	38.8184	68.7048	38.8184	68.6832	38.8184	68.6745	38.8184	68.6614	38.8184	68.657	38.8184	68.6525
39.5508	69.8283	39.5508	69.823	39.5508	69.8217	39.5508	69.8059	39.5508	69.8033	39.5508	69.7776	39.5508	69.7738	39.5508	69.7389	39.5508	69.7341	39.5508	69.6912	39.5508	69.6854	39.5508	69.636	39.5508	69.6293	39.5508	69.5751	39.5508	69.5676	39.5508	69.5105	39.5508	69.5023	39.5508	69.4444	39.5508	69.4354	39.5508	69.3787	39.5508	69.3692	39.5508	69.3156	39.5508	69.3057	39.5508	69.2569	39.5508	69.247	39.5508	69.2042	39.5508	69.1948	39.5508	69.159	39.5508	69.1505	39.5508	69.1223	39.5508	69.1154	39.5508	69.0951	39.5508	69.0901	39.5508	69.078	39.5508	69.0754	39.5508	69.0713
41.0156	70.4913	41.0156	70.4851	41.0156	70.4852	41.0156	70.4666	41.0156	70.4668	41.0156	70.4364	41.0156	70.4368	41.0156	70.3955	41.0156	70.396	41.0156	70.345	41.0156	70.3458	41.0156	70.2866	41.0156	70.2876	41.0156	70.2221	41.0156	70.2233	41.0156	70.1536	41.0156	70.155	41.0156	70.0833	41.0156	70.0848	41.0156	70.0135	41.0156	70.0152	41.0156	69.9465	41.0156	69.9483	41.0156	69.8843	41.0156	69.8861	41.0156	69.8288	41.0156	69.8305	41.0156	69.7815	41.0156	69.7831	41.0156	69.7436	41.0156	69.745	41.0156	69.7161	41.0156	69.7171	41.0156	69.6995	41.0156	69.7	41.0156	69.6941
42.4805	71.1512	42.4805	71.1439	42.4805	71.145	42.4805	71.1234	42.4805	71.1256	42.4805	71.0903	42.4805	71.0934	42.4805	71.0456	42.4805	71.0497	42.4805	70.9908	42.4805	70.9957	42.4805	70.9277	42.4805	70.9332	42.4805	70.8583	42.4805	70.8643	42.4805	70.7849	42.4805	70.7912	42.4805	70.7099	42.4805	70.7163	42.4805	70.6357	42.4805	70.6421	42.4805	70.5646	42.4805	70.5709	42.4805	70.4988	42.4805	70.5048	42.4805	70.4403	42.4805	70.4458	42.4805	70.3906	42.4805	70.3954	42.4805	70.351	42.4805	70.3548	42.4805	70.3224	42.4805	70.3251	42.4805	70.3053	42.4805	70.3067	42.4805	70.3
43.9453	71.8186	43.9453	71.8117	43.9453	71.8104	43.9453	71.7902	43.9453	71.7876	43.9453	71.7548	43.9453	71.7508	43.9453	71.7067	43.9453	71.7012	43.9453	71.6476	43.9453	71.6406	43.9453	71.5793	43.9453	71.5711	43.9453	71.5043	43.9453	71.4949	43.9453	71.4249	43.9453	71.4147	43.9453	71.3437	43.9453	71.3331	43.9453	71.2633	43.9453	71.2528	43.9453	71.1863	43.9453	71.1762	43.9453	71.1149	43.9453	71.1057	43.9453	71.0512	43.9453	71.0432	43.9453	70.9968	43.9453	70.9903	43.9453	70.9531	43.9453	70.9482	43.9453	70.9211	43.9453	70.9179	43.9453	70.9014	43.9453	70.8998	43.9453	70.8942
45.4102	72.1761	45.4102	72.1686	45.4102	72.1693	45.4102	72.1471	45.4102	72.1484	45.4102	72.1121	45.4102	72.1142	45.4102	72.0647	45.4102	72.0675	45.4102	72.0062	45.4102	72.0097	45.4102	71.9383	45.4102	71.9426	45.4102	71.8633	45.4102	71.8681	45.4102	71.7833	45.4102	71.7884	45.4102	71.7009	45.4102	71.7061	45.4102	71.6187	45.4102	71.6237	45.4102	71.5392	45.4102	71.5438	45.4102	71.4649	45.4102	71.4689	45.4102	71.3981	45.4102	71.4013	45.4102	71.3407	45.4102	71.3432	45.4102	71.2944	45.4102	71.2962	45.4102	71.2605	45.4102	71.2616	45.4102	71.2399	45.4102	71.2404	45.4102	71.2331
47.6074	72.9268	47.6074	72.9205	47.6074	72.9215	47.6074	72.9026	47.6074	72.9048	47.6074	72.8736	47.6074	72.8775	47.6074	72.8344	47.6074	72.8405	47.6074	72.7861	47.6074	72.7951	47.6074	72.7305	47.6074	72.7429	47.6074	72.6693	47.6074	72.6855	47.6074	72.6047	47.6074	72.6248	47.6074	72.539	47.6074	72.5628	47.6074	72.4743	47.6074	72.5013	47.6074	72.4131	47.6074	72.4421	47.6074	72.3571	47.6074	72.3868	47.6074	72.3082	47.6074	72.3369	47.6074	72.2676	47.6074	72.2936	47.6074	72.2364	47.6074	72.2579	47.6074	72.2152	47.6074	72.2305	47.6074	72.2041	47.6074	72.212	47.6074	72.2031
49.0723	73.4858	49.0723	73.4799	49.0723	73.4809	49.0723	73.4631	49.0723	73.4654	49.0723	73.436	49.0723	73.44	49.0723	73.3995	49.0723	73.4056	49.0723	73.3549	49.0723	73.3635	49.0723	73.3039	49.0723	73.3154	49.0723	73.2484	49.0723	73.263	49.0723	73.1905	49.0723	73.2084	49.0723	73.1325	49.0723	73.1534	49.0723	73.0767	49.0723	73.1	49.0723	73.0249	49.0723	73.05	49.0723	72.9789	49.0723	73.0045	49.0723	72.94	49.0723	72.9647	49.0723	72.9088	49.0723	72.9311	49.0723	72.8857	49.0723	72.9041	49.0723	72.8706	49.0723	72.8838	49.0723	72.8632	49.0723	72.8701	49.0723	72.8631
50.5371	74.3312	50.5371	74.3279	50.5371	74.3212	50.5371	74.3113	50.5371	74.2982	50.5371	74.282	50.5371	74.2633	50.5371	74.2408	50.5371	74.2175	50.5371	74.1893	50.5371	74.1627	50.5371	74.1293	50.5371	74.1007	50.5371	74.063	50.5371	74.0339	50.5371	73.9928	50.5371	73.9646	50.5371	73.9213	50.5371	73.8954	50.5371	73.8512	50.5371	73.8286	50.5371	73.785	50.5371	73.7663	50.5371	73.7247	50.5371	73.7104	50.5371	73.6721	50.5371	73.6619	50.5371	73.6285	50.5371	73.6219	50.5371	73.5944	50.5371	73.5907	50.5371	73.5703	50.5371	73.5684	50.5371	73.5558	50.5371	73.5551	50.5371	73.5509
52.7344	75.206	52.7344	75.1919	52.7344	75.2036	52.7344	75.1615	52.7344	75.1844	52.7344	75.1161	52.7344	75.149	52.7344	75.0569	52.7344	75.0985	52.7344	74.986	52.7344	75.0344	52.7344	74.9055	52.7344	74.9589	52.7344	74.8179	52.7344	74.8745	52.7344	74.7261	52.7344	74.784	52.7344	74.633	52.7344	74.6906	52.7344	74.5416	52.7344	74.5973	52.7344	74.4548	52.7344	74.5072	52.7344	74.3752	52.7344	74.423	52.7344	74.3052	52.7344	74.3473	52.7344	74.2466	52.7344	74.282	52.7344	74.201	52.7344	74.2285	52.7344	74.1693	52.7344	74.1882	52.7344	74.1521	52.7344	74.1617	52.7344	74.1496
54.1992	75.3159	54.1992	75.3106	54.1992	75.3077	54.1992	75.2919	54.1992	75.2863	54.1992	75.2605	54.1992	75.2524	54.1992	75.2174	54.1992	75.2071	54.1992	75.164	54.1992	75.1518	54.1992	75.102	54.1992	75.0885	54.1992	75.0337	54.1992	75.0194	54.1992	74.9613	54.1992	74.9467	54.1992	74.8873	54.1992	74.873	54.1992	74.8141	54.1992	74.8008	54.1992	74.7441	54.1992	74.7322	54.1992	74.6795	54.1992	74.6694	54.1992	74.6222	54.1992	74.614	54.1992	74.5735	54.1992	74.5673	54.1992	74.5347	54.1992	74.5303	54.1992	74.5064	54.1992	74.5036	54.1992	74.489	54.1992	74.4877	54.1992	74.4828
56.3965	76.2453	56.3965	76.2402	56.3965	76.2353	56.3965	76.2202	56.3965	76.2105	56.3965	76.1861	56.3965	76.1718	56.3965	76.1391	56.3965	76.1206	56.3965	76.081	56.3965	76.0589	56.3965	76.0141	56.3965	75.9891	56.3965	75.9408	56.3965	75.9137	56.3965	75.8638	56.3965	75.8356	56.3965	75.786	56.3965	75.7577	56.3965	75.7101	56.3965	75.6827	56.3965	75.6385	56.3965	75.613	56.3965	75.5734	56.3965	75.5508	56.3965	75.5165	56.3965	75.4973	56.3965	75.469	56.3965	75.4535	56.3965	75.4315	56.3965	75.4199	56.3965	75.4042	56.3965	75.3966	56.3965	75.3871	56.3965	75.3834	56.3965	75.3802
58.5938	76.8534	58.5938	76.8491	58.5938	76.8432	58.5938	76.8305	58.5938	76.8186	58.5938	76.7982	58.5938	76.7808	58.5938	76.7537	58.5938	76.7311	58.5938	76.6986	58.5938	76.6714	58.5938	76.6351	58.5938	76.6042	58.5938	76.5658	58.5938	76.532	58.5938	76.4932	58.5938	76.4577	58.5938	76.4201	58.5938	76.3841	58.5938	76.349	58.5938	76.3138	58.5938	76.2823	58.5938	76.2492	58.5938	76.222	58.5938	76.192	58.5938	76.1695	58.5938	76.1436	58.5938	76.1257	58.5938	76.1046	58.5938	76.0912	58.5938	76.0752	58.5938	76.066	58.5938	76.0553	58.5938	76.0499	58.5938	76.0445	58.5938	76.0428
60.0586	77.2917	60.0586	77.2868	60.0586	77.2824	60.0586	77.2678	60.0586	77.2593	60.0586	77.2356	60.0586	77.2232	60.0586	77.1913	60.0586	77.1754	60.0586	77.1369	60.0586	77.1181	60.0586	77.0744	60.0586	77.0533	60.0586	77.0063	60.0586	76.9837	60.0586	76.9355	60.0586	76.9121	60.0586	76.8646	60.0586	76.8412	60.0586	76.7962	60.0586	76.7738	60.0586	76.7327	60.0586	76.7119	60.0586	76.6759	60.0586	76.6575	60.0586	76.6272	60.0586	76.6116	60.0586	76.5872	60.0586	76.5747	60.0586	76.5563	60.0586	76.547	60.0586	76.5342	60.0586	76.5281	60.0586	76.5206	60.0586	76.5175	60.0586	76.5151
62.2559	78.0103	62.2559	78.0019	62.2559	78.0038	62.2559	77.9788	62.2559	77.9829	62.2559	77.9416	62.2559	77.9484	62.2559	77.8918	62.2559	77.9018	62.2559	77.8311	62.2559	77.8451	62.2559	77.762	62.2559	77.7806	62.2559	77.6873	62.2559	77.7108	62.2559	77.61	62.2559	77.6386	62.2559	77.5334	62.2559	77.5668	62.2559	77.4605	62.2559	77.4979	62.2559	77.3941	62.2559	77.4342	62.2559	77.3362	62.2559	77.3773	62.2559	77.2884	62.2559	77.3283	62.2559	77.2514	62.2559	77.2875	62.2559	77.2251	62.2559	77.255	62.2559	77.209	62.2559	77.2304	62.2559	77.2022	62.2559	77.2133	62.2559	77.2039
64.4531	78.7618	64.4531	78.7607	64.4531	78.7456	64.4531	78.7424	64.4531	78.7129	64.4531	78.7076	64.4531	78.6647	64.4531	78.6575	64.4531	78.6031	64.4531	78.5942	64.4531	78.5304	64.4531	78.52	64.4531	78.4495	64.4531	78.438	64.4531	78.3636	64.4531	78.3516	64.4531	78.2762	64.4531	78.264	64.4531	78.1907	64.4531	78.1789	64.4531	78.1102	64.4531	78.0992	64.4531	78.0375	64.4531	78.0275	64.4531	77.9744	64.4531	77.9657	64.4531	77.9222	64.4531	77.9148	64.4531	77.8811	64.4531	77.8752	64.4531	77.8509	64.4531	77.8466	64.4531	77.831	64.4531	77.8284	64.4531	77.8208	64.4531	77.82
66.6504	79.3766	66.6504	79.3684	66.6504	79.3674	66.6504	79.3431	66.6504	79.3411	66.6504	79.3017	66.6504	79.2984	66.6504	79.2457	66.6504	79.2408	66.6504	79.1771	66.6504	79.1705	66.6504	79.0986	66.6504	79.09	66.6504	79.0129	66.6504	79.0024	66.6504	78.9233	66.6504	78.9111	66.6504	78.8331	66.6504	78.8196	66.6504	78.7455	66.6504	78.7315	66.6504	78.6635	66.6504	78.6497	66.6504	78.5898	66.6504	78.577	66.6504	78.5261	66.6504	78.515	66.6504	78.4737	66.6504	78.4648	66.6504	78.4331	66.6504	78.4265	66.6504	78.4042	66.6504	78.3999	66.6504	78.3867	66.6504	78.3847	66.6504	78.3803
69.5801	80.052	69.5801	80.0412	69.5801	80.0472	69.5801	80.015	69.5801	80.0269	69.5801	79.9746	69.5801	79.9918	69.5801	79.9214	69.5801	79.9434	69.5801	79.8574	69.5801	79.8836	69.5801	79.785	69.5801	79.8146	69.5801	79.707	69.5801	79.7392	69.5801	79.6264	69.5801	79.6603	69.5801	79.5461	69.5801	79.5811	69.5801	79.469	69.5801	79.5044	69.5801	79.3979	69.5801	79.4327	69.5801	79.3347	69.5801	79.368	69.5801	79.2811	69.5801	79.3118	69.5801	79.2381	69.5801	79.2649	69.5801	79.206	69.5801	79.2276	69.5801	79.1847	69.5801	79.1999	69.5801	79.1739	69.5801	79.1818	69.5801	79.173
71.7773	80.5625	71.7773	80.5537	71.7773	80.5555	71.7773	80.5295	71.7773	80.533	71.7773	80.4908	71.7773	80.4958	71.7773	80.4393	71.7773	80.4455	71.7773	80.3771	71.7773	80.3843	71.7773	80.3067	71.7773	80.3148	71.7773	80.2312	71.7773	80.24	71.7773	80.1536	71.7773	80.1631	71.7773	80.0772	71.7773	80.0874	71.7773	80.0048	71.7773	80.0158	71.7773	79.939	71.7773	79.9507	71.7773	79.8817	71.7773	79.894	71.7773	79.8342	71.7773	79.8465	71.7773	79.797	71.7773	79.8085	71.7773	79.7697	71.7773	79.7795	71.7773	79.7518	71.7773	79.759	71.7773	79.7424	71.7773	79.7462	71.7773	79.7407
73.9746	81.0887	73.9746	81.0781	73.9746	81.0826	73.9746	81.0515	73.9746	81.0603	73.9746	81.0099	73.9746	81.0225	73.9746	80.955	73.9746	80.971	73.9746	80.8893	73.9746	80.9079	73.9746	80.8155	73.9746	80.8361	73.9746	80.7368	73.9746	80.7588	73.9746	80.6564	73.9746	80.6795	73.9746	80.5777	73.9746	80.6014	73.9746	80.5038	73.9746	80.5279	73.9746	80.4373	73.9746	80.4613	73.9746	80.3801	73.9746	80.4035	73.9746	80.3334	73.9746	80.3554	73.9746	80.2973	73.9746	80.3171	73.9746	80.2717	73.9746	80.2879	73.9746	80.2554	73.9746	80.2671	73.9746	80.2476	73.9746	80.2537	73.9746	80.2472
76.9043	81.7533	76.9043	81.7426	76.9043	81.7465	76.9043	81.7148	76.9043	81.7224	76.9043	81.6711	76.9043	81.6821	76.9043	81.6135	76.9043	81.6274	76.9043	81.5443	76.9043	81.5607	76.9043	81.4667	76.9043	81.4851	76.9043	81.384	76.9043	81.404	76.9043	81.2998	76.9043	81.3211	76.9043	81.2178	76.9043	81.2401	76.9043	81.1412	76.9043	81.1641	76.9043	81.0727	76.9043	81.096	76.9043	81.0143	76.9043	81.0374	76.9043	80.9671	76.9043	80.9891	76.9043	80.9312	76.9043	80.9511	76.9043	80.9061	76.9043	80.9225	76.9043	80.8904	76.9043	80.9022	76.9043	80.8831	76.9043	80.8893	76.9043	80.8829
79.834	82.24	79.834	82.2301	79.834	82.2322	79.834	82.203	79.834	82.207	79.834	82.1597	79.834	82.1656	79.834	82.1023	79.834	82.1098	79.834	82.0331	79.834	82.0421	79.834	81.9553	79.834	81.9657	79.834	81.8723	79.834	81.8841	79.834	81.7879	79.834	81.8012	79.834	81.7056	79.834	81.7206	79.834	81.629	79.834	81.6457	79.834	81.5607	79.834	81.5791	79.834	81.5029	79.834	81.5224	79.834	81.4565	79.834	81.4762	79.834	81.4216	79.834	81.4403	79.834	81.3975	79.834	81.4135	79.834	81.3829	79.834	81.3947	79.834	81.3763	79.834	81.3825	79.834	81.3764
82.7637	82.7212	82.7637	82.712	82.7637	82.7124	82.7637	82.6853	82.7637	82.6858	82.7637	82.6424	82.7637	82.6426	82.7637	82.5852	82.7637	82.5848	82.7637	82.5165	82.7637	82.5151	82.7637	82.4395	82.7637	82.4369	82.7637	82.3578	82.7637	82.354	82.7637	82.2753	82.7637	82.2704	82.7637	82.1957	82.7637	82.1902	82.7637	82.1223	82.7637	82.1167	82.7637	82.0577	82.7637	82.0528	82.7637	82.0037	82.7637	81.9999	82.7637	81.9609	82.7637	81.9585	82.7637	81.929	82.7637	81.9279	82.7637	81.9069	82.7637	81.9067	82.7637	81.8929	82.7637	81.8932	82.7637	81.8854	82.7637	81.8857	82.7637	81.8832
85.6934	83.1514	85.6934	83.139	85.6934	83.1445	85.6934	83.1078	85.6934	83.1186	85.6934	83.0593	85.6934	83.0749	85.6934	82.9957	85.6934	83.0156	85.6934	82.9202	85.6934	82.9437	85.6934	82.8363	85.6934	82.8627	85.6934	82.7484	85.6934	82.7769	85.6934	82.6606	85.6934	82.6906	85.6934	82.5773	85.6934	82.608	85.6934	82.5019	85.6934	82.5328	85.6934	82.4375	85.6934	82.4677	85.6934	82.3855	85.6934	82.4143	85.6934	82.3464	85.6934	82.3728	85.6934	82.3193	85.6934	82.3423	85.6934	82.3025	85.6934	82.3209	85.6934	82.2937	85.6934	82.3067	85.6934	82.2909	85.6934	82.2976	85.6934	82.2925
88.623	83.5351	88.623	83.519	88.623	83.5311	88.623	83.4837	88.623	83.5072	88.623	83.4307	88.623	83.4647	88.623	83.3627	88.623	83.4059	88.623	83.283	88.623	83.3338	88.623	83.1959	88.623	83.2524	88.623	83.1056	88.623	83.1662	88.623	83.017	88.623	83.0798	88.623	82.9345	88.623	82.998	88.623	82.8619	88.623	82.9244	88.623	82.802	88.623	82.8619	88.623	82.7561	88.623	82.812	88.623	82.7243	88.623	82.7745	88.623	82.7051	88.623	82.7479	88.623	82.696	88.623	82.7298	88.623	82.6942	88.623	82.7176	88.623	82.697	88.623	82.709	88.623	82.7022
91.5527	83.9522	91.5527	83.9339	91.5527	83.9497	91.5527	83.8954	91.5527	83.9269	91.5527	83.8385	91.5527	83.8851	91.5527	83.7656	91.5527	83.8268	91.5527	83.6804	91.5527	83.7553	91.5527	83.587	91.5527	83.6749	91.5527	83.4905	91.5527	83.5902	91.5527	83.3961	91.5527	83.5062	91.5527	83.3089	91.5527	83.4273	91.5527	83.2335	91.5527	83.3575	91.5527	83.1733	91.5527	83.2992	91.5527	83.1301	91.5527	83.2534	91.5527	83.104	91.5527	83.2192	91.5527	83.0932	91.5527	83.1945	91.5527	83.0945	91.5527	83.1764	91.5527	83.104	91.5527	83.1616	91.5527	83.1179	91.5527	83.1476	91.5527	83.133
94.4824	84.2415	94.4824	84.23	94.4824	84.2309	94.4824	84.1972	94.4824	84.1989	94.4824	84.1444	94.4824	84.1472	94.4824	84.0741	94.4824	84.0783	94.4824	83.9898	94.4824	83.9959	94.4824	83.8958	94.4824	83.9047	94.4824	83.797	94.4824	83.8097	94.4824	83.6986	94.4824	83.7165	94.4824	83.6059	94.4824	83.63	94.4824	83.5237	94.4824	83.5544	94.4824	83.4557	94.4824	83.4927	94.4824	83.4039	94.4824	83.4457	94.4824	83.3688	94.4824	83.4127	94.4824	83.3488	94.4824	83.3912	94.4824	83.341	94.4824	83.3777	94.4824	83.3418	94.4824	83.3689	94.4824	83.3472	94.4824	83.3617	94.4824	83.3544
98.1445	84.483	98.1445	84.4695	98.1445	84.4733	98.1445	84.4334	98.1445	84.4409	98.1445	84.3765	98.1445	84.3875	98.1445	84.3016	98.1445	84.3158	98.1445	84.2122	98.1445	84.2297	98.1445	84.1132	98.1445	84.1341	98.1445	84.0097	98.1445	84.0344	98.1445	83.9073	98.1445	83.9363	98.1445	83.8115	98.1445	83.8453	98.1445	83.7272	98.1445	83.7659	98.1445	83.6581	98.1445	83.7011	98.1445	83.6062	98.1445	83.652	98.1445	83.5716	98.1445	83.6178	98.1445	83.5525	98.1445	83.5958	98.1445	83.5457	98.1445	83.5825	98.1445	83.5472	98.1445	83.5741	98.1445	83.5532	98.1445	83.5673	98.1445	83.5604
101.807	84.6279	101.807	84.6152	101.807	84.616	101.807	84.5785	101.807	84.5801	101.807	84.5195	101.807	84.522	101.807	84.4412	101.807	84.445	101.807	84.3477	101.807	84.3532	101.807	84.2441	101.807	84.2521	101.807	84.1361	101.807	84.1475	101.807	84.03	101.807	84.0459	101.807	83.932	101.807	83.9532	101.807	83.8472	101.807	83.8742	101.807	83.7797	101.807	83.812	101.807	83.7313	101.807	83.7676	101.807	83.7016	101.807	83.7395	101.807	83.6881	101.807	83.7246	101.807	83.6867	101.807	83.7182	101.807	83.6926	101.807	83.7158	101.807	83.701	101.807	83.7133	101.807	83.7085
105.469	84.8123	105.469	84.7981	105.469	84.7997	105.469	84.7574	105.469	84.7608	105.469	84.692	105.469	84.6978	105.469	84.6047	105.469	84.6138	105.469	84.4997	105.469	84.5131	105.469	84.3821	105.469	84.4013	105.469	84.2584	105.469	84.2848	105.469	84.1353	105.469	84.1702	105.469	84.0199	105.469	84.0643	105.469	83.9186	105.469	83.9724	105.469	83.8364	105.469	83.8984	105.469	83.7761	105.469	83.8436	105.469	83.738	105.469	83.8066	105.469	83.7197	105.469	83.7842	105.469	83.7167	105.469	83.7716	105.469	83.7236	105.469	83.7635	105.469	83.7349	105.469	83.756	105.469	83.7465
109.131	84.9535	109.131	84.9358	109.131	84.9441	109.131	84.8918	109.131	84.9081	109.131	84.8235	109.131	84.8472	109.131	84.7339	109.131	84.7643	109.131	84.6274	109.131	84.6638	109.131	84.509	109.131	84.551	109.131	84.3849	109.131	84.4324	109.131	84.2617	109.131	84.3148	109.131	84.146	109.131	84.205	109.131	84.0439	109.131	84.1086	109.131	83.9602	109.131	84.0296	109.131	83.8976	109.131	83.9696	109.131	83.8565	109.131	83.9277	109.131	83.835	109.131	83.9007	109.131	83.8288	109.131	83.8842	109.131	83.8331	109.131	83.8732	109.131	83.8428	109.131	83.8638	109.131	83.8537
112.793	84.9368	112.793	84.9223	112.793	84.9234	112.793	84.8809	112.793	84.8828	112.793	84.8148	112.793	84.8168	112.793	84.7275	112.793	84.7292	112.793	84.6237	112.793	84.6249	112.793	84.5091	112.793	84.5104	112.793	84.3902	112.793	84.3929	112.793	84.274	112.793	84.28	112.793	84.1674	112.793	84.1789	112.793	84.0764	112.793	84.0953	112.793	84.0055	112.793	84.0324	112.793	83.9568	112.793	83.9909	112.793	83.9296	112.793	83.9684	112.793	83.9207	112.793	83.9602	112.793	83.925	112.793	83.9605	112.793	83.9366	112.793	83.9633	112.793	83.9495	112.793	83.9639	112.793	83.9594
116.455	84.8619	116.455	84.8623	116.455	84.831	116.455	84.8328	116.455	84.7704	116.455	84.7758	116.455	84.6826	116.455	84.6947	116.455	84.5721	116.455	84.5944	116.455	84.4447	116.455	84.4807	116.455	84.3085	116.455	84.3605	116.455	84.1722	116.455	84.2413	116.455	84.0451	116.455	84.1305	116.455	83.936	116.455	84.0345	116.455	83.8514	116.455	83.9585	116.455	83.7951	116.455	83.9045	116.455	83.7669	116.455	83.8721	116.455	83.7629	116.455	83.8577	116.455	83.7765	116.455	83.8556	116.455	83.7996	116.455	83.8589	116.455	83.8245	116.455	83.8612	116.455	83.845	116.455	83.8573
120.85	85.0318	120.85	85.0296	120.85	85.0005	120.85	84.9947	120.85	84.9363	120.85	84.9294	120.85	84.8413	120.85	84.8373	120.85	84.7191	120.85	84.7237	120.85	84.575	120.85	84.5948	120.85	84.416	120.85	84.4583	120.85	84.2508	120.85	84.3223	120.85	84.0893	120.85	84.1948	120.85	83.9419	120.85	84.0829	120.85	83.8179	120.85	83.9915	120.85	83.7247	120.85	83.9226	120.85	83.6656	120.85	83.8747	120.85	83.6398	120.85	83.8437	120.85	83.6419	120.85	83.8233	120.85	83.664	120.85	83.8066	120.85	83.6967	120.85	83.7878	120.85	83.7318	120.85	83.7631
125.244	85.364	125.244	85.3356	125.244	85.3607	125.244	85.2767	125.244	85.3263	125.244	85.1895	125.244	85.2627	125.244	85.0782	125.244	85.1735	125.244	84.948	125.244	85.0636	125.244	84.8057	125.244	84.9397	125.244	84.6594	125.244	84.8095	125.244	84.5181	125.244	84.6814	125.244	84.3908	125.244	84.5636	125.244	84.2857	125.244	84.4633	125.244	84.2085	125.244	84.3852	125.244	84.1616	125.244	84.3307	125.244	84.1436	125.244	84.298	125.244	84.1492	125.244	84.2821	125.244	84.171	125.244	84.2762	125.244	84.2001	125.244	84.2729	125.244	84.2289	125.244	84.2661	125.244	84.2517
129.639	85.3464	129.639	85.3312	129.639	85.3278	129.639	85.2834	129.639	85.2762	129.639	85.2054	129.639	85.1939	129.639	85.101	129.639	85.0851	129.639	84.9757	129.639	84.9559	129.639	84.8365	129.639	84.8146	129.639	84.6919	129.639	84.6709	129.639	84.5514	129.639	84.5354	129.639	84.425	129.639	84.4183	129.639	84.3215	129.639	84.3276	129.639	84.2475	129.639	84.2681	129.639	84.2055	129.639	84.2396	129.639	84.1938	129.639	84.2374	129.639	84.2063	129.639	84.2533	129.639	84.2339	129.639	84.2774	129.639	84.2664	129.639	84.2996	129.639	84.2943	129.639	84.3123	129.639	84.3107
134.033	85.3108	134.033	85.3066	134.033	85.2764	134.033	85.2645	134.033	85.2042	134.033	85.1867	134.033	85.0968	134.033	85.077	134.033	84.9586	134.033	84.9405	134.033	84.7964	134.033	84.7846	134.033	84.6193	134.033	84.6183	134.033	84.4385	134.033	84.4522	134.033	84.2669	134.033	84.298	134.033	84.1176	134.033	84.1667	134.033	84.0016	134.033	84.0671	134.033	83.9259	134.033	84.0036	134.033	83.8915	134.033	83.9753	134.033	83.8933	134.033	83.9757	134.033	83.9209	134.033	83.9943	134.033	83.9612	134.033	84.0189	134.033	84.0012	134.033	84.038	134.033	84.0307	134.033	84.0433
138.428	85.2893	138.428	85.276	138.428	85.2659	138.428	85.2269	138.428	85.206	138.428	85.1441	138.428	85.1113	138.428	85.0309	138.428	84.985	138.428	84.8918	138.428	84.8321	138.428	84.733	138.428	84.6596	138.428	84.5623	138.428	84.477	138.428	84.3888	138.428	84.2952	138.428	84.223	138.428	84.1266	138.428	84.0752	138.428	83.9825	138.428	83.9545	138.428	83.8719	138.428	83.8665	138.428	83.7991	138.428	83.8124	138.428	83.7624	138.428	83.7882	138.428	83.755	138.428	83.7857	138.428	83.7664	138.428	83.7946	138.428	83.7849	138.428	83.8045	138.428	83.8008	138.428	83.8077
143.555	85.1396	143.555	85.141	143.555	85.0989	143.555	85.1038	143.555	85.0191	143.555	85.0307	143.555	84.9025	143.555	84.9254	143.555	84.7534	143.555	84.7932	143.555	84.5784	143.555	84.6409	143.555	84.3865	143.555	84.4771	143.555	84.1893	143.555	84.3114	143.555	84.0001	143.555	84.1543	143.555	83.8327	143.555	84.0157	143.555	83.6991	143.555	83.9038	143.555	83.6076	143.555	83.8229	143.555	83.5602	143.555	83.7728	143.555	83.5528	143.555	83.7486	143.555	83.5755	143.555	83.7417	143.555	83.6157	143.555	83.7418	143.555	83.6604	143.555	83.7391	143.555	83.6993	143.555	83.726
148.682	85.3165	148.682	85.2884	148.682	85.3032	148.682	85.2204	148.682	85.2486	148.682	85.1154	148.682	85.1545	148.682	84.9778	148.682	85.024	148.682	84.8141	148.682	84.8626	148.682	84.6324	148.682	84.6777	148.682	84.443	148.682	84.4795	148.682	84.2575	148.682	84.28	148.682	84.0878	148.682	84.0929	148.682	83.945	148.682	83.9314	148.682	83.8369	148.682	83.8062	148.682	83.7668	148.682	83.7231	148.682	83.7321	148.682	83.6815	148.682	83.7252	148.682	83.6746	148.682	83.7351	148.682	83.6908	148.682	83.7499	148.682	83.7174	148.682	83.7597	148.682	83.7425	148.682	83.7578
153.809	85.3223	153.809	85.3072	153.809	85.2956	153.809	85.251	153.809	85.2273	153.809	85.1563	153.809	85.1198	153.809	85.0269	153.809	84.9773	153.809	84.8686	153.809	84.8066	153.809	84.6894	153.809	84.6172	153.809	84.4995	153.809	84.4214	153.809	84.3118	153.809	84.2336	153.809	84.1402	153.809	84.0688	153.809	83.9986	153.809	83.9402	153.809	83.8976	153.809	83.8564	153.809	83.8421	153.809	83.8191	153.809	83.8298	153.809	83.8227	153.809	83.8512	153.809	83.8553	153.809	83.892	153.809	83.9016	153.809	83.9367	153.809	83.9464	153.809	83.9713	153.809	83.9772	153.809	83.9862
159.668	85.1154	159.668	85.1013	159.668	85.0856	159.668	85.0442	159.668	85.0124	159.668	84.9462	159.668	84.8974	159.668	84.8105	159.668	84.7439	159.668	84.6424	159.668	84.5571	159.668	84.4489	159.668	84.3447	159.668	84.2396	159.668	84.1174	159.668	84.0264	159.668	83.8891	159.668	83.823	159.668	83.6759	159.668	83.6439	159.668	83.4943	159.668	83.5013	159.668	83.358	159.668	83.403	159.668	83.2741	159.668	83.3497	159.668	83.2413	159.668	83.3344	159.668	83.2497	159.668	83.3445	159.668	83.2836	159.668	83.3645	159.668	83.3257	159.668	83.3798	159.668	83.3611	159.668	83.3801
164.795	84.896	164.795	84.8691	164.795	84.8792	164.795	84.8001	164.795	84.819	164.795	84.6918	164.795	84.7171	164.795	84.5488	164.795	84.5774	164.795	84.3774	164.795	84.4061	164.795	84.1858	164.795	84.2119	164.795	83.9842	164.795	84.0062	164.795	83.7848	164.795	83.8026	164.795	83.601	164.795	83.6159	164.795	83.4457	164.795	83.4599	164.795	83.3289	164.795	83.3446	164.795	83.2559	164.795	83.2742	164.795	83.225	164.795	83.2457	164.795	83.2282	164.795	83.2496	164.795	83.2531	164.795	83.2726	164.795	83.2854	164.795	83.3002	164.795	83.3123	164.795	83.3204	164.795	83.3252
170.654	84.7921	170.654	84.7645	170.654	84.7663	170.654	84.6845	170.654	84.6876	170.654	84.5549	170.654	84.5583	170.654	84.3805	170.654	84.3824	170.654	84.1684	170.654	84.1664	170.654	83.929	170.654	83.9197	170.654	83.6758	170.654	83.655	170.654	83.4254	170.654	83.3894	170.654	83.1965	170.654	83.1424	170.654	83.0072	170.654	82.9346	170.654	82.8708	170.654	82.7827	170.654	82.7928	170.654	82.6953	170.654	82.7682	170.654	82.6698	170.654	82.7835	170.654	82.6931	170.654	82.8199	170.654	82.7453	170.654	82.8581	170.654	82.8052	170.654	82.8822	170.654	82.8548	170.654	82.882
176.514	85.1137	176.514	85.0896	176.514	85.0947	176.514	85.0233	176.514	85.0331	176.514	84.9166	176.514	84.9308	176.514	84.7728	176.514	84.7915	176.514	84.5968	176.514	84.6211	176.514	84.3955	176.514	84.4281	176.514	84.1788	176.514	84.2238	176.514	83.9596	176.514	84.0221	176.514	83.7534	176.514	83.8382	176.514	83.5774	176.514	83.6866	176.514	83.4464	176.514	83.578	176.514	83.3696	176.514	83.5164	176.514	83.3473	176.514	83.4979	176.514	83.3702	176.514	83.5109	176.514	83.4219	176.514	83.5398	176.514	83.4834	176.514	83.5679	176.514	83.5375	176.514	83.5815	176.514	83.572
183.105	84.8407	183.105	84.8047	183.105	84.8281	183.105	84.7211	183.105	84.7675	183.105	84.592	183.105	84.6608	183.105	84.4217	183.105	84.5119	183.105	84.2162	183.105	84.3263	183.105	83.9843	183.105	84.1123	183.105	83.7381	183.105	83.8813	183.105	83.4934	183.105	83.6482	183.105	83.2688	183.105	83.4307	183.105	83.084	183.105	83.2472	183.105	82.9555	183.105	83.1132	183.105	82.8915	183.105	83.0369	183.105	82.8891	183.105	83.0162	183.105	82.9342	183.105	83.0385	183.105	83.0055	183.105	83.0843	183.105	83.08	183.105	83.1325	183.105	83.1383	183.105	83.1645	183.105	83.1679
189.697	84.9247	189.697	84.8982	189.697	84.8991	189.697	84.8207	189.697	84.8216	189.697	84.6951	189.697	84.6945	189.697	84.526	189.697	84.5222	189.697	84.3202	189.697	84.3121	189.697	84.0878	189.697	84.0754	189.697	83.8425	189.697	83.8275	189.697	83.6023	189.697	83.5876	189.697	83.3878	189.697	83.3771	189.697	83.2197	189.697	83.2164	189.697	83.1136	189.697	83.1192	189.697	83.0754	189.697	83.0892	189.697	83.0984	189.697	83.1174	189.697	83.1651	189.697	83.1855	189.697	83.2518	189.697	83.27	189.697	83.3346	189.697	83.3481	189.697	83.3941	189.697	83.4012	189.697	83.4178
196.289	85.0734	196.289	85.0421	196.289	85.0488	196.289	84.9537	196.289	84.9709	196.289	84.8082	196.289	84.8436	196.289	84.6072	196.289	84.6727	196.289	84.3549	196.289	84.4662	196.289	84.0592	196.289	84.235	196.289	83.7338	196.289	83.9933	196.289	83.4	196.289	83.7582	196.289	83.0871	196.289	83.5491	196.289	82.8301	196.289	83.384	196.289	82.6611	196.289	83.2761	196.289	82.5993	196.289	83.2288	196.289	82.6414	196.289	83.2343	196.289	82.7626	196.289	83.2746	196.289	82.9256	196.289	83.326	196.289	83.092	196.289	83.3642	196.289	83.2317	196.289	83.3687	196.289	83.326
202.881	84.8286	202.881	84.8264	202.881	84.7745	202.881	84.7677	202.881	84.6652	202.881	84.6539	202.881	84.5042	202.881	84.4873	202.881	84.2974	202.881	84.2719	202.881	84.0541	202.881	84.0147	202.881	83.7885	202.881	83.7263	202.881	83.5198	202.881	83.4238	202.881	83.2715	202.881	83.1307	202.881	83.0686	202.881	82.8766	202.881	82.9322	202.881	82.6918	202.881	82.8728	202.881	82.5983	202.881	82.8863	202.881	82.6013	202.881	82.9546	202.881	82.6857	202.881	83.0502	202.881	82.8209	202.881	83.1436	202.881	82.9706	202.881	83.209	202.881	83.1022	202.881	83.2283	202.881	83.1922
210.205	84.9796	210.205	84.9893	210.205	84.9029	210.205	84.9331	210.205	84.7588	210.205	84.813	210.205	84.5485	210.205	84.6312	210.205	84.2763	210.205	84.3914	210.205	83.9507	210.205	84.0995	210.205	83.5871	210.205	83.7661	210.205	83.2095	210.205	83.4091	210.205	82.8517	210.205	83.0557	210.205	82.5542	210.205	82.7418	210.205	82.3552	210.205	82.5064	210.205	82.2775	210.205	82.3796	210.205	82.3176	210.205	82.3697	210.205	82.4459	210.205	82.458	210.205	82.6179	210.205	82.6057	210.205	82.7877	210.205	82.7669	210.205	82.9184	210.205	82.901	210.205	82.9858	210.205	82.9792
217.529	85.5143	217.529	85.5108	217.529	85.463	217.529	85.4541	217.529	85.3549	217.529	85.3453	217.529	85.1878	217.529	85.1851	217.529	84.9599	217.529	84.974	217.529	84.6701	217.529	84.7131	217.529	84.3206	217.529	84.4058	217.529	83.9193	217.529	84.06	217.529	83.4837	217.529	83.6909	217.529	83.0447	217.529	83.3234	217.529	82.6465	217.529	82.9904	217.529	82.3385	217.529	82.7268	217.529	82.1588	217.529	82.558	217.529	82.1158	217.529	82.4876	217.529	82.1825	217.529	82.4947	217.529	82.3092	217.529	82.5409	217.529	82.4431	217.529	82.5844	217.529	82.5442	217.529	82.5915
225.586	85.1761	225.586	85.1484	225.586	85.1488	225.586	85.0695	225.586	85.0639	225.586	84.9445	225.586	84.9208	225.586	84.7791	225.586	84.7211	225.586	84.5804	225.586	84.47	225.586	84.3564	225.586	84.1779	225.586	84.1174	225.586	83.8616	225.586	83.8767	225.586	83.546	225.586	83.6507	225.586	83.2627	225.586	83.4584	225.586	83.0452	225.586	83.3177	225.586	82.9195	225.586	83.2406	225.586	82.8944	225.586	83.2283	225.586	82.9571	225.586	83.2688	225.586	83.0777	225.586	83.3399	225.586	83.219	225.586	83.4145	225.586	83.3472	225.586	83.4669	225.586	83.4378	225.586	83.478
232.91	85.1655	232.91	85.1345	232.91	85.1203	232.91	85.0309	232.91	84.9961	232.91	84.8595	232.91	84.792	232.91	84.6259	232.91	84.5103	232.91	84.3375	232.91	84.1584	232.91	84.0057	232.91	83.7517	232.91	83.6484	232.91	83.317	232.91	83.2925	232.91	82.8952	232.91	82.975	232.91	82.5387	232.91	82.7378	232.91	82.302	232.91	82.6165	232.91	82.2218	232.91	82.6251	232.91	82.2998	232.91	82.7467	232.91	82.5001	232.91	82.9394	232.91	82.7652	232.91	83.1509	232.91	83.0357	232.91	83.3332	232.91	83.264	232.91	83.4508	232.91	83.4185	232.91	83.4821
241.699	85.8721	241.699	85.8432	241.699	85.8253	241.699	85.7408	241.699	85.7002	241.699	85.5663	241.699	85.4941	241.699	85.3201	241.699	85.2053	241.699	85.0025	241.699	84.8335	241.699	84.6146	241.699	84.3828	241.699	84.1616	241.699	83.8652	241.699	83.6576	241.699	83.306	241.699	83.1324	241.699	82.7502	241.699	82.6359	241.699	82.2633	241.699	82.2352	241.699	81.9194	241.699	81.9941	241.699	81.7714	241.699	81.9415	241.699	81.8197	241.699	82.0506	241.699	82.0091	241.699	82.2517	241.699	82.2567	241.699	82.4642	241.699	82.4847	241.699	82.6225	241.699	82.6377	241.699	82.6858
249.756	85.4881	249.756	85.4212	249.756	85.4887	249.756	85.2912	249.756	85.4194	249.756	85.1003	249.756	85.2759	249.756	84.8506	249.756	85.0532	249.756	84.5437	249.756	84.7458	249.756	84.1816	249.756	84.3499	249.756	83.7693	249.756	83.8668	249.756	83.3182	249.756	83.3093	249.756	82.8511	249.756	82.7094	249.756	82.4054	249.756	82.1264	249.756	82.0321	249.756	81.6433	249.756	81.7819	249.756	81.3431	249.756	81.683	249.756	81.2654	249.756	81.7224	249.756	81.3792	249.756	81.8484	249.756	81.601	249.756	81.9928	249.756	81.8383	249.756	82.0936	249.756	82.0205	249.756	82.1086
258.545	86.265	258.545	86.243	258.545	86.221	258.545	86.1566	258.545	86.1074	258.545	86.005	258.545	85.9189	258.545	85.7847	258.545	85.6495	258.545	85.4898	258.545	85.2937	258.545	85.1138	258.545	84.8486	258.545	84.6526	258.545	84.3178	258.545	84.1094	258.545	83.7171	258.545	83.5016	258.545	83.0815	258.545	82.8694	258.545	82.4698	258.545	82.2789	258.545	81.9596	258.545	81.8122	258.545	81.623	258.545	81.5364	258.545	81.4894	258.545	81.4649	258.545	81.527	258.545	81.5476	258.545	81.6601	258.545	81.6998	258.545	81.8066	258.545	81.8411	258.545	81.9037	258.545	81.9171
268.066	86.6912	268.066	86.6217	268.066	86.7156	268.066	86.5077	268.066	86.6916	268.066	86.3484	268.066	86.6138	268.066	86.1406	268.066	86.4743	268.066	85.8794	268.066	86.2626	268.066	85.5592	268.066	85.9675	268.066	85.1756	268.066	85.5798	268.066	84.7293	268.066	85.0966	268.066	84.2312	268.066	84.5282	268.066	83.7074	268.066	83.9046	268.066	83.2019	268.066	83.2812	268.066	82.7698	268.066	82.7335	268.066	82.4593	268.066	82.3345	268.066	82.2885	268.066	82.1204	268.066	82.2342	268.066	82.0698	268.066	82.2446	268.066	82.119	268.066	82.2635	268.066	82.1965	268.066	82.2514
277.588	86.0028	277.588	85.9742	277.588	85.9717	277.588	85.8887	277.588	85.8776	277.588	85.749	277.588	85.718	277.588	85.5566	277.588	85.4916	277.588	85.3123	277.588	85.1997	277.588	85.0176	277.588	84.849	277.588	84.6766	277.588	84.4538	277.588	84.3005	277.588	84.0402	277.588	83.9119	277.588	83.647	277.588	83.5478	277.588	83.3224	277.588	83.2556	277.588	83.1118	277.588	83.0798	277.588	83.0391	277.588	83.0409	277.588	83.0942	277.588	83.1233	277.588	83.2358	277.588	83.2801	277.588	83.4083	277.588	83.4535	277.588	83.5598	277.588	83.5928	277.588	83.6519	277.588	83.664
287.109	85.6886	287.109	85.6351	287.109	85.6828	287.109	85.525	287.109	85.6135	287.109	85.3599	287.109	85.4752	287.109	85.1388	287.109	85.2603	287.109	84.8578	287.109	84.9595	287.109	84.5108	287.109	84.5628	287.109	84.0924	287.109	84.0645	287.109	83.6044	287.109	83.4714	287.109	83.0647	287.109	82.8158	287.109	82.5184	287.109	82.1691	287.109	82.0415	287.109	81.6423	287.109	81.7247	287.109	81.3496	287.109	81.628	287.109	81.3385	287.109	81.7381	287.109	81.5526	287.109	81.972	287.109	81.871	287.109	82.224	287.109	82.1767	287.109	82.4075	287.109	82.3898	287.109	82.4696
297.363	86.2737	297.363	86.243	297.363	86.248	297.363	86.1544	297.363	86.1658	297.363	86.0049	297.363	86.0252	297.363	85.7891	297.363	85.8214	297.363	85.4995	297.363	85.5457	297.363	85.1272	297.363	85.1851	297.363	84.664	297.363	84.7234	297.363	84.1069	297.363	84.1468	297.363	83.4641	297.363	83.4535	297.363	82.7638	297.363	82.6696	297.363	82.0625	297.363	81.8684	297.363	81.4456	297.363	81.1762	297.363	81.006	297.363	80.7323	297.363	80.7977	297.363	80.5974	297.363	80.798	297.363	80.7004	297.363	80.9174	297.363	80.8954	297.363	81.0489	297.363	81.0544	297.363	81.1085
307.617	86.107	307.617	86.0196	307.617	86.1584	307.617	85.8974	307.617	86.1706	307.617	85.7396	307.617	86.1387	307.617	85.5422	307.617	86.0552	307.617	85.2973	307.617	85.9097	307.617	84.9941	307.617	85.6907	307.617	84.6229	307.617	85.3881	307.617	84.1819	307.617	84.998	307.617	83.6858	307.617	84.528	307.617	83.1747	307.617	84.0024	307.617	82.7133	307.617	83.4653	307.617	82.3735	307.617	82.9768	307.617	82.1988	307.617	82.5981	307.617	82.1768	307.617	82.3673	307.617	82.2477	307.617	82.2811	307.617	82.3391	307.617	82.297	307.617	82.3975	307.617	82.3549	307.617	82.4001
318.604	85.4691	318.604	85.4878	318.604	85.4132	318.604	85.4684	318.604	85.318	318.604	85.4064	318.604	85.1788	318.604	85.2928	318.604	84.9886	318.604	85.1136	318.604	84.7381	318.604	84.8518	318.604	84.4184	318.604	84.491	318.604	84.0258	318.604	84.0243	318.604	83.5691	318.604	83.4653	318.604	83.079	318.604	82.8635	318.604	82.6146	318.604	82.3135	318.604	82.2568	318.604	81.9377	318.604	82.0786	318.604	81.8255	318.604	82.1031	318.604	81.9673	318.604	82.2852	318.604	82.2601	318.604	82.5377	318.604	82.5765	318.604	82.7711	318.604	82.8201	318.604	82.9181	318.604	82.939
329.59	85.3783	329.59	85.349	329.59	85.3637	329.59	85.2795	329.59	85.3001	329.59	85.1715	329.59	85.1809	329.59	85.0229	329.59	84.9972	329.59	84.8265	329.59	84.7378	329.59	84.5686	329.59	84.391	329.59	84.2312	329.59	83.9489	329.59	83.7974	329.59	83.4142	329.59	83.2613	329.59	82.8113	329.59	82.6427	329.59	82.197	329.59	82.0039	329.59	81.6632	329.59	81.4553	329.59	81.3128	329.59	81.1234	329.59	81.2058	329.59	81.0728	329.59	81.3145	329.59	81.2517	329.59	81.5395	329.59	81.5297	329.59	81.7667	329.59	81.7784	329.59	81.9083	329.59	81.9154
341.309	85.5752	341.309	85.5257	341.309	85.5656	341.309	85.4134	341.309	85.4993	341.309	85.2329	341.309	85.3761	341.309	84.9761	341.309	85.1921	341.309	84.632	341.309	84.9391	341.309	84.1872	341.309	84.6044	341.309	83.6291	341.309	84.175	341.309	82.9537	341.309	83.6439	341.309	82.1801	341.309	83.0219	341.309	81.3721	341.309	82.3521	341.309	80.6576	341.309	81.7219	341.309	80.2083	341.309	81.2518	341.309	80.1416	341.309	81.0408	341.309	80.416	341.309	81.0952	341.309	80.8624	341.309	81.3185	341.309	81.3049	341.309	81.5751	341.309	81.6285	341.309	81.7523	341.309	81.78
353.76	85.359	353.76	85.4211	353.76	85.2304	353.76	85.4229	353.76	85.0274	353.76	85.3668	353.76	84.7427	353.76	85.2471	353.76	84.3695	353.76	85.0478	353.76	83.902	353.76	84.7431	353.76	83.3372	353.76	84.301	353.76	82.6806	353.76	83.693	353.76	81.9601	353.76	82.909	353.76	81.244	353.76	81.9842	353.76	80.6539	353.76	81.0396	353.76	80.336	353.76	80.3053	353.76	80.3717	353.76	80.0291	353.76	80.7039	353.76	80.2593	353.76	81.1774	353.76	80.7916	353.76	81.6369	353.76	81.3689	353.76	81.9762	353.76	81.8257	353.76	82.1362	353.76	82.0883
366.211	85.6548	366.211	85.6425	366.211	85.636	366.211	85.6029	366.211	85.5813	366.211	85.5375	366.211	85.4839	366.211	85.4424	366.211	85.3316	366.211	85.3043	366.211	85.1026	366.211	85.099	366.211	84.7638	366.211	84.7912	366.211	84.2721	366.211	84.3401	366.211	83.5821	366.211	83.7066	366.211	82.6621	366.211	82.8674	366.211	81.5249	366.211	81.8383	366.211	80.2849	366.211	80.7162	366.211	79.2232	366.211	79.7249	366.211	78.7085	366.211	79.1629	366.211	78.8475	366.211	79.158	366.211	79.3472	366.211	79.5155	366.211	79.8483	366.211	79.9234	366.211	80.145	366.211	80.1657
378.662	85.3094	378.662	85.3336	378.662	85.2661	378.662	85.3352	378.662	85.2036	378.662	85.3062	378.662	85.1166	378.662	85.2312	378.662	84.9912	378.662	85.0857	378.662	84.803	378.662	84.8357	378.662	84.5177	378.662	84.4428	378.662	84.0968	378.662	83.8716	378.662	83.5078	378.662	83.1035	378.662	82.7408	378.662	82.1568	378.662	81.8309	378.662	81.1197	378.662	80.8874	378.662	80.1801	378.662	80.104	378.662	79.5875	378.662	79.6849	378.662	79.4789	378.662	79.686	378.662	79.7418	378.662	79.9623	378.662	80.1317	378.662	80.2997	378.662	80.4508	378.662	80.5386	378.662	80.5966
392.578	85.3172	392.578	85.2572	392.578	85.3521	392.578	85.1792	392.578	85.3536	392.578	85.0883	392.578	85.3116	392.578	84.9831	392.578	85.211	392.578	84.8514	392.578	85.0293	392.578	84.6667	392.578	84.735	392.578	84.3891	392.578	84.2897	392.578	83.9715	392.578	83.6529	392.578	83.3692	392.578	82.7921	392.578	82.5554	392.578	81.7042	392.578	81.5461	392.578	80.4581	392.578	80.445	392.578	79.2651	392.578	79.4879	392.578	78.4898	392.578	78.9768	392.578	78.3938	392.578	79.015	392.578	78.8176	392.578	79.376	392.578	79.3719	392.578	79.7402	392.578	79.7734	392.578	79.9002
405.762	85.1904	405.762	85.0914	405.762	85.2723	405.762	84.9804	405.762	85.3304	405.762	84.8601	405.762	85.3534	405.762	84.7281	405.762	85.3226	405.762	84.5734	405.762	85.2089	405.762	84.3735	405.762	84.9734	405.762	84.0961	405.762	84.572	405.762	83.7069	405.762	83.9624	405.762	83.1805	405.762	83.1176	405.762	82.517	405.762	82.0482	405.762	81.7603	405.762	80.8421	405.762	81.0133	405.762	79.7172	405.762	80.4241	405.762	78.9977	405.762	80.1131	405.762	78.8808	405.762	80.0799	405.762	79.2202	405.762	80.1997	405.762	79.7003	405.762	80.3126	405.762	80.0915	405.762	80.297
420.41	84.775	420.41	84.7857	420.41	84.7596	420.41	84.7912	420.41	84.7429	420.41	84.7935	420.41	84.7267	420.41	84.7912	420.41	84.7042	420.41	84.7722	420.41	84.6533	420.41	84.7067	420.41	84.5354	420.41	84.5469	420.41	84.2996	420.41	84.2339	420.41	83.8933	420.41	83.7085	420.41	83.2758	420.41	82.9243	420.41	82.4364	420.41	81.866	420.41	81.4226	420.41	80.5879	420.41	80.379	420.41	79.2897	420.41	79.554	420.41	78.3616	420.41	79.1715	420.41	78.1459	420.41	79.213	420.41	78.5213	420.41	79.428	420.41	79.0583	420.41	79.5544	420.41	79.4409
435.059	84.9322	435.059	84.891	435.059	84.9467	435.059	84.8253	435.059	84.9314	435.059	84.737	435.059	84.8796	435.059	84.6233	435.059	84.7767	435.059	84.4706	435.059	84.5968	435.059	84.2491	435.059	84.3035	435.059	83.9138	435.059	83.8543	435.059	83.4129	435.059	83.2092	435.059	82.7035	435.059	82.3438	435.059	81.775	435.059	81.2735	435.059	80.6898	435.059	80.0983	435.059	79.6389	435.059	79.0592	435.059	78.9427	435.059	78.4984	435.059	78.8361	435.059	78.5783	435.059	79.2036	435.059	79.0832	435.059	79.7127	435.059	79.6626	435.059	80.0993	435.059	80.0812	435.059	80.2348
450.439	83.9257	450.439	83.9196	450.439	83.9265	450.439	83.9129	450.439	83.9248	450.439	83.9139	450.439	83.9271	450.439	83.9242	450.439	83.9329	450.439	83.9281	450.439	83.9224	450.439	83.8876	450.439	83.8531	450.439	83.7474	450.439	83.6664	450.439	83.4483	450.439	83.304	450.439	82.9441	450.439	82.7294	450.439	82.2204	450.439	81.9518	450.439	81.3197	450.439	81.0552	450.439	80.3759	450.439	80.2196	450.439	79.6268	450.439	79.677	450.439	79.3085	450.439	79.5566	450.439	79.4428	450.439	79.7646	450.439	79.8119	450.439	80.0792	450.439	80.1639	450.439	80.3087	450.439	80.3464
466.553	84.9047	466.553	84.8118	466.553	84.9515	466.553	84.6746	466.553	84.9576	466.553	84.5039	466.553	84.9286	466.553	84.3148	466.553	84.8595	466.553	84.1156	466.553	84.7251	466.553	83.8935	466.553	84.4769	466.553	83.6067	466.553	84.0486	466.553	83.1917	466.553	83.3676	466.553	82.5837	466.553	82.3675	466.553	81.7424	466.553	81.0063	466.553	80.6874	466.553	79.3179	466.553	79.5572	466.553	77.5683	466.553	78.6638	466.553	76.4698	466.553	78.3608	466.553	76.664	466.553	78.6642	466.553	77.6918	466.553	79.2137	466.553	78.749	466.553	79.6455	466.553	79.4661	466.553	79.7585
482.666	85.2445	482.666	85.1772	482.666	85.2708	482.666	85.0574	482.666	85.2684	482.666	84.8772	482.666	85.247	482.666	84.6331	482.666	85.2074	482.666	84.3249	482.666	85.1336	482.666	83.9481	482.666	84.9874	482.666	83.4832	482.666	84.7079	482.666	82.8883	482.666	84.2183	482.666	82.1038	482.666	83.4372	482.666	81.0742	482.666	82.2927	482.666	79.7943	482.666	80.751	482.666	78.4108	482.666	78.9016	482.666	77.357	482.666	77.176	482.666	77.1616	482.666	76.4306	482.666	77.752	482.666	76.9516	482.666	78.5315	482.666	77.9553	482.666	79.0565	482.666	78.7676	482.666	79.1495
500.244	84.9157	500.244	84.9985	500.244	84.8105	500.244	85.0388	500.244	84.7106	500.244	85.022	500.244	84.6441	500.244	84.9335	500.244	84.6235	500.244	84.7516	500.244	84.6285	500.244	84.4438	500.244	84.6001	500.244	83.9665	500.244	84.4508	500.244	83.267	500.244	84.086	500.244	82.2851	500.244	83.4211	500.244	80.9565	500.244	82.3954	500.244	79.2301	500.244	80.9908	500.244	77.1593	500.244	79.2893	500.244	75.2092	500.244	77.6099	500.244	74.4951	500.244	76.585	500.244	75.3294	500.244	76.5953	500.244	76.5807	500.244	77.1849	500.244	77.4852	500.244	77.7159	500.244	77.8576
517.822	84.0707	517.822	84.1954	517.822	83.9467	517.822	84.3289	517.822	83.8352	517.822	84.487	517.822	83.764	517.822	84.6706	517.822	83.758	517.822	84.8425	517.822	83.8124	517.822	84.9241	517.822	83.8738	517.822	84.8138	517.822	83.8475	517.822	84.4118	517.822	83.6283	517.822	83.6326	517.822	83.1334	517.822	82.4001	517.822	82.3283	517.822	80.6426	517.822	81.2503	517.822	78.3397	517.822	80.0473	517.822	75.8205	517.822	79.007	517.822	74.4554	517.822	78.4467	517.822	75.266	517.822	78.4199	517.822	76.8054	517.822	78.6484	517.822	77.9836	517.822	78.7936	517.822	78.6211
536.133	84.4501	536.133	84.3421	536.133	84.5003	536.133	84.213	536.133	84.4887	536.133	84.1331	536.133	84.4377	536.133	84.1831	536.133	84.3828	536.133	84.3978	536.133	84.3498	536.133	84.7133	536.133	84.3254	536.133	84.9849	536.133	84.243	536.133	85.0567	536.133	83.9974	536.133	84.8101	536.133	83.4778	536.133	84.1644	536.133	82.5936	536.133	83.0581	536.133	81.3011	536.133	81.4473	536.133	79.671	536.133	79.3822	536.133	78.0649	536.133	77.2984	536.133	77.2155	536.133	76.3106	536.133	77.4495	536.133	76.8624	536.133	78.1253	536.133	77.8623	536.133	78.5699	536.133	78.4991
554.443	83.6156	554.443	83.4438	554.443	83.6437	554.443	83.1264	554.443	83.5633	554.443	82.7178	554.443	83.4318	554.443	82.3548	554.443	83.3189	554.443	82.2277	554.443	83.2842	554.443	82.4316	554.443	83.336	554.443	82.8392	554.443	83.3963	554.443	83.1947	554.443	83.3181	554.443	83.2787	554.443	82.9492	554.443	82.9584	554.443	82.1891	554.443	82.171	554.443	81.0276	554.443	80.9369	554.443	79.6142	554.443	79.4686	554.443	78.3919	554.443	78.3452	554.443	77.9916	554.443	78.2029	554.443	78.4812	554.443	78.8353	554.443	79.2503	554.443	79.5365	554.443	79.7891	554.443	79.8944
574.219	84.9521	574.219	84.7736	574.219	84.898	574.219	84.3444	574.219	84.6316	574.219	83.6697	574.219	84.1784	574.219	82.8396	574.219	83.5871	574.219	82.1192	574.219	82.954	574.219	81.8862	574.219	82.4144	574.219	82.2274	574.219	82.0563	574.219	82.7772	574.219	81.819	574.219	83.1205	574.219	81.5248	574.219	83.0232	574.219	80.9994	574.219	82.3849	574.219	80.1554	574.219	81.2021	574.219	79.0783	574.219	79.69	574.219	78.1963	574.219	78.5686	574.219	78.1745	574.219	78.6765	574.219	79.0337	574.219	79.6372	574.219	80.0766	574.219	80.5343	574.219	80.7789	574.219	80.9448
594.727	86.0934	594.727	85.9951	594.727	86.0474	594.727	85.7104	594.727	85.8765	594.727	85.1776	594.727	85.5821	594.727	84.3322	594.727	85.1583	594.727	83.1444	594.727	84.6051	594.727	81.6892	594.727	83.9391	594.727	80.2363	594.727	83.1885	594.727	79.1961	594.727	82.3599	594.727	78.7246	594.727	81.3925	594.727	78.5025	594.727	80.1424	594.727	78.106	594.727	78.4357	594.727	77.3468	594.727	76.2738	594.727	76.4789	594.727	74.5465	594.727	76.32	594.727	75.0676	594.727	77.3014	594.727	77.0531	594.727	78.6699	594.727	78.7823	594.727	79.687	594.727	79.7985	594.727	80.0871
615.234	85.5415	615.234	85.4566	615.234	85.5207	615.234	85.2435	615.234	85.4156	615.234	84.8832	615.234	85.2438	615.234	84.3719	615.234	85.0153	615.234	83.7372	615.234	84.7316	615.234	83.0462	615.234	84.3838	615.234	82.3785	615.234	83.9448	615.234	81.764	615.234	83.3558	615.234	81.1325	615.234	82.5209	615.234	80.3226	615.234	81.3133	615.234	79.1407	615.234	79.5856	615.234	77.4629	615.234	77.2137	615.234	75.5075	615.234	74.4516	615.234	74.4004	615.234	73.15	615.234	75.1742	615.234	74.6521	615.234	76.6979	615.234	76.62	615.234	77.8248	615.234	77.8488	615.234	78.2333
637.207	85.8731	637.207	85.7308	637.207	85.919	637.207	85.4592	637.207	85.882	637.207	85.0214	637.207	85.756	637.207	84.4053	637.207	85.5261	637.207	83.6643	637.207	85.1884	637.207	82.9455	637.207	84.7607	637.207	82.4343	637.207	84.266	637.207	82.1764	637.207	83.6893	637.207	81.9683	637.207	82.9427	637.207	81.4732	637.207	81.8593	637.207	80.359	637.207	80.1883	637.207	78.3068	637.207	77.5595	637.207	75.0457	637.207	73.5381	637.207	71.6844	637.207	70.1291	637.207	72.9404	637.207	73.0548	637.207	75.9252	637.207	76.2648	637.207	77.7554	637.207	77.948	637.207	78.4013
659.912	84.9698	659.912	84.8883	659.912	84.9177	659.912	84.6337	659.912	84.7694	659.912	84.1739	659.912	84.5567	659.912	83.5139	659.912	84.3072	659.912	82.7469	659.912	84.0521	659.912	82.0798	659.912	83.8325	659.912	81.7191	659.912	83.6679	659.912	81.6459	659.912	83.4994	659.912	81.5878	659.912	83.1853	659.912	81.2038	659.912	82.5479	659.912	80.2031	659.912	81.3795	659.912	78.3717	659.912	79.4004	659.912	75.7145	659.912	76.2411	659.912	73.3411	659.912	72.0031	659.912	73.679	659.912	71.1079	659.912	75.4893	659.912	74.1426	659.912	76.7481	659.912	76.2393	659.912	77.0362
683.35	85.3271	683.35	85.1976	683.35	85.2798	683.35	84.8635	683.35	85.0591	683.35	84.2853	683.35	84.6498	683.35	83.4555	683.35	84.0574	683.35	82.4887	683.35	83.3927	683.35	81.7116	683.35	82.9269	683.35	81.4989	683.35	82.9094	683.35	81.812	683.35	83.2444	683.35	82.1954	683.35	83.5679	683.35	82.194	683.35	83.5287	683.35	81.488	683.35	82.8499	683.35	79.8243	683.35	81.2767	683.35	76.9995	683.35	78.5462	683.35	73.5862	683.35	74.7454	683.35	73.328	683.35	72.9968	683.35	75.8309	683.35	75.3337	683.35	77.578	683.35	77.3557	683.35	78.0839
706.787	86.0161	706.787	86.0546	706.787	85.9042	706.787	85.9338	706.787	85.7253	706.787	85.5043	706.787	85.4046	706.787	84.5845	706.787	84.8019	706.787	83.0124	706.787	83.7618	706.787	80.7846	706.787	82.2261	706.787	78.5822	706.787	80.4905	706.787	78.2374	706.787	79.4898	706.787	79.6395	706.787	79.8744	706.787	80.7815	706.787	80.7967	706.787	80.7862	706.787	81.2188	706.787	79.3665	706.787	80.6084	706.787	76.3059	706.787	78.6707	706.787	72.4815	706.787	75.3735	706.787	73.3821	706.787	72.9705	706.787	76.4178	706.787	74.9453	706.787	78.0686	706.787	77.281	706.787	78.3269
731.689	84.8672	731.689	85.0122	731.689	84.7526	731.689	85.1093	731.689	84.6859	731.689	85.0465	731.689	84.6116	731.689	84.7122	731.689	84.4166	731.689	84.0326	731.689	83.9802	731.689	83.0071	731.689	83.2414	731.689	81.7418	731.689	82.2799	731.689	80.5013	731.689	81.3677	731.689	79.6772	731.689	80.793	731.689	79.3573	731.689	80.4419	731.689	78.998	731.689	79.8279	731.689	77.8784	731.689	78.4761	731.689	75.3647	731.689	76.0238	731.689	70.7357	731.689	72.4542	731.689	66.9527	731.689	70.56	731.689	71.2833	731.689	72.8222	731.689	74.3383	731.689	74.8444	731.689	75.387
758.057	84.9157	758.057	84.9824	758.057	84.8325	758.057	84.9398	758.057	84.8039	758.057	84.6961	758.057	84.8375	758.057	84.1777	758.057	84.8415	758.057	83.3608	758.057	84.6429	758.057	82.3252	758.057	84.0738	758.057	81.3327	758.057	83.0914	758.057	80.8127	758.057	81.884	758.057	80.8953	758.057	80.8304	758.057	81.0314	758.057	80.1199	758.057	80.5568	758.057	79.4265	758.057	79.0912	758.057	78.1885	758.057	76.3891	758.057	75.9385	758.057	72.1363	758.057	72.483	758.057	67.3509	758.057	69.5001	758.057	68.8063	758.057	70.638	758.057	71.7709	758.057	72.5087	758.057	72.9633
784.424	84.2128	784.424	84.4393	784.424	84.0501	784.424	84.6088	784.424	84.0163	784.424	84.5963	784.424	84.0793	784.424	84.3284	784.424	84.0991	784.424	83.8167	784.424	83.8785	784.424	83.117	784.424	83.2731	784.424	82.2909	784.424	82.3223	784.424	81.5258	784.424	81.3142	784.424	81.0594	784.424	80.6332	784.424	80.6742	784.424	80.3553	784.424	79.8152	784.424	80.0504	784.424	78.0685	784.424	79.1109	784.424	75.0912	784.424	77.0789	784.424	70.6189	784.424	73.8936	784.424	68.5208	784.424	71.6572	784.424	72.095	784.424	73.226	784.424	74.6908	784.424	75.0917	784.424	75.6241
812.256	84.4357	812.256	84.4445	812.256	84.2975	812.256	84.3352	812.256	84.0501	812.256	84.1321	812.256	83.7386	812.256	83.826	812.256	83.3967	812.256	83.3251	812.256	82.9966	812.256	82.4922	812.256	82.4625	812.256	81.3891	812.256	81.8019	812.256	80.5894	812.256	81.2275	812.256	80.5781	812.256	81.0129	812.256	80.784	812.256	81.0727	812.256	80.4588	812.256	80.9051	812.256	79.207	812.256	79.9879	812.256	76.6698	812.256	77.9519	812.256	72.3354	812.256	74.5298	812.256	67.3887	812.256	70.4481	812.256	69.4894	812.256	70.3404	812.256	72.3679	812.256	72.4926	812.256	73.2922
840.82	83.9546	840.82	84.0368	840.82	83.8564	840.82	84.0791	840.82	83.7742	840.82	84.0825	840.82	83.6984	840.82	84.0407	840.82	83.5369	840.82	83.8592	840.82	83.1627	840.82	83.3165	840.82	82.5548	840.82	82.1922	840.82	81.8966	840.82	80.5902	840.82	81.4656	840.82	79.2714	840.82	81.3035	840.82	78.9987	840.82	81.0578	840.82	79.1848	840.82	80.2883	840.82	78.6587	840.82	78.743	840.82	76.5489	840.82	76.3181	840.82	71.9598	840.82	73.144	840.82	65.3891	840.82	70.9624	840.82	69.3584	840.82	72.0553	840.82	72.9069	840.82	73.6764	840.82	74.0942
870.85	83.836	870.85	83.8164	870.85	83.7522	870.85	83.6974	870.85	83.5398	870.85	83.4697	870.85	83.1543	870.85	83.1267	870.85	82.555	870.85	82.6663	870.85	81.7588	870.85	82.0905	870.85	80.9253	870.85	81.4637	870.85	80.42	870.85	80.9831	870.85	80.5894	870.85	80.8714	870.85	81.169	870.85	81.0314	870.85	81.42	870.85	80.9516	870.85	80.8621	870.85	80.0566	870.85	79.3641	870.85	77.8304	870.85	76.8212	870.85	73.5132	870.85	72.8874	870.85	65.7044	870.85	67.639	870.85	66.6477	870.85	67.6096	870.85	71.0793	870.85	70.9069	870.85	72.1661
901.611	84.7323	901.611	84.8643	901.611	84.4062	901.611	84.6505	901.611	84.0176	901.611	83.9593	901.611	83.6046	901.611	82.7279	901.611	83.0288	901.611	81.0432	901.611	81.9882	901.611	79.3172	901.611	80.2036	901.611	78.5061	901.611	77.9305	901.611	79.226	901.611	77.0271	901.611	80.6108	901.611	78.6117	901.611	81.681	901.611	80.4124	901.611	81.9774	901.611	81.1635	901.611	81.2255	901.611	80.6638	901.611	79.1358	901.611	78.8923	901.611	75.2871	901.611	75.8406	901.611	69.1862	901.611	71.9798	901.611	66.0403	901.611	69.7624	901.611	69.1868	901.611	70.2456	901.611	70.5374
933.105	83.8275	933.105	83.8481	933.105	83.8012	933.105	83.8285	933.105	83.7341	933.105	83.687	933.105	83.5564	933.105	83.3252	933.105	83.1636	933.105	82.5856	933.105	82.3654	933.105	81.0915	933.105	80.9319	933.105	78.0646	933.105	78.6233	933.105	72.5001	933.105	75.4555	933.105	71.8253	933.105	74.4162	933.105	76.7661	933.105	77.1997	933.105	79.3117	933.105	79.3298	933.105	79.9138	933.105	79.8458	933.105	78.6554	933.105	78.8028	933.105	75.2838	933.105	76.2192	933.105	70.3598	933.105	72.9951	933.105	71.0979	933.105	73.0333	933.105	74.2182	933.105	74.8996	933.105	75.4457
966.064	83.6246	966.064	83.7932	966.064	83.4875	966.064	83.9268	966.064	83.4019	966.064	83.9851	966.064	83.3522	966.064	83.9441	966.064	83.3357	966.064	83.684	966.064	83.2905	966.064	82.9725	966.064	83.0152	966.064	81.5524	966.064	82.0895	966.064	79.2042	966.064	79.8283	966.064	76.322	966.064	75.8476	966.064	76.1035	966.064	73.4181	966.064	78.4361	966.064	75.1986	966.064	79.6108	966.064	76.4863	966.064	78.6848	966.064	76.3153	966.064	74.824	966.064	74.3849	966.064	62.6077	966.064	71.4373	966.064	68.5068	966.064	72.6274	966.064	74.6902	966.064	75.4249	966.064	76.2774
999.756	82.7637	999.756	82.7129	999.756	82.8685	999.756	82.7539	999.756	82.8136	999.756	82.7867	999.756	82.4261	999.756	82.697	999.756	81.886	999.756	82.3522	999.756	81.6761	999.756	81.629	999.756	81.8084	999.756	80.5322	999.756	81.5362	999.756	79.206	999.756	80.0671	999.756	77.9848	999.756	77.2249	999.756	77.5237	999.756	74.5531	999.756	78.1634	999.756	74.9997	999.756	78.9896	999.756	76.3589	999.756	78.6518	999.756	76.6484	999.756	75.959	999.756	75.7344	999.756	68.5179	999.756	73.5346	999.756	62.3925	999.756	70.8437	999.756	70.9022	999.756	71.1553	999.756	72.3756
1034.91	83.9239	1034.91	83.8596	1034.91	83.5675	1034.91	83.3021	1034.91	82.9073	1034.91	82.2607	1034.91	82.1688	1034.91	81.0467	1034.91	81.626	1034.91	80.3434	1034.91	81.3128	1034.91	80.3308	1034.91	80.9528	1034.91	79.9509	1034.91	80.1917	1034.91	78.0901	1034.91	78.7486	1034.91	75.8467	1034.91	76.866	1034.91	76.9613	1034.91	76.3014	1034.91	79.2501	1034.91	77.8188	1034.91	80.1271	1034.91	79.0464	1034.91	78.9807	1034.91	78.5523	1034.91	75.7368	1034.91	76.0868	1034.91	70.0057	1034.91	72.2791	1034.91	58.6824	1034.91	68.8165	1034.91	58.4673	1034.91	66.23	1034.91	63.7318
1071.53	84.016	1071.53	84.1947	1071.53	83.5175	1071.53	83.8917	1071.53	82.9706	1071.53	83.1418	1071.53	82.5759	1071.53	82.2147	1071.53	82.1832	1071.53	81.3913	1071.53	81.406	1071.53	80.5438	1071.53	80.2279	1071.53	79.1068	1071.53	79.1443	1071.53	76.7443	1071.53	78.2027	1071.53	72.0267	1071.53	76.5645	1071.53	67.8208	1071.53	75.0862	1071.53	76.2361	1071.53	76.906	1071.53	78.3732	1071.53	78.6724	1071.53	77.2001	1071.53	78.1522	1071.53	74.3558	1071.53	74.6578	1071.53	71.3814	1071.53	68.5028	1071.53	69.9987	1071.53	69.0463	1071.53	70.4984	1071.53	71.1435	1071.53	71.2887
1109.62	84.8543	1109.62	84.5103	1109.62	84.7851	1109.62	83.9106	1109.62	83.9785	1109.62	83.0655	1109.62	82.0967	1109.62	82.0219	1109.62	79.5703	1109.62	81.1231	1109.62	78.6678	1109.62	80.8039	1109.62	79.8099	1109.62	80.7569	1109.62	80.4233	1109.62	80.0271	1109.62	79.0771	1109.62	77.3181	1109.62	75.6607	1109.62	71.3046	1109.62	70.796	1109.62	73.6822	1109.62	70.4299	1109.62	77.241	1109.62	74.3422	1109.62	77.0974	1109.62	75.6104	1109.62	73.9942	1109.62	74.4971	1109.62	67.9375	1109.62	72.3165	1109.62	66.7775	1109.62	71.9327	1109.62	70.9603	1109.62	73.0089	1109.62	72.9265
1148.44	84.4399	1148.44	84.3505	1148.44	84.3268	1148.44	83.9475	1148.44	83.8828	1148.44	83.0391	1148.44	82.8504	1148.44	81.5819	1148.44	81.3107	1148.44	80.1316	1148.44	80.0736	1148.44	79.7894	1148.44	79.8031	1148.44	80.502	1148.44	79.5622	1148.44	80.7346	1148.44	78.1241	1148.44	78.9625	1148.44	74.7434	1148.44	74.5584	1148.44	66.6416	1148.44	73.6124	1148.44	64.6953	1148.44	77.3695	1148.44	72.3469	1148.44	78.3617	1148.44	74.5384	1148.44	76.1791	1148.44	74.5612	1148.44	69.888	1148.44	72.9357	1148.44	56.4959	1148.44	69.94	1148.44	66.397	1148.44	68.0085	1148.44	68.3523
1189.45	84.5514	1189.45	84.2035	1189.45	84.9446	1189.45	83.8783	1189.45	84.8926	1189.45	83.2252	1189.45	83.7638	1189.45	82.0623	1189.45	81.4192	1189.45	80.8027	1189.45	79.0212	1189.45	80.3324	1189.45	78.5931	1189.45	80.7401	1189.45	79.4363	1189.45	80.8619	1189.45	79.7122	1189.45	79.485	1189.45	79.002	1189.45	75.5268	1189.45	76.1581	1189.45	69.4852	1189.45	67.425	1189.45	73.9738	1189.45	67.3294	1189.45	75.8373	1189.45	73.306	1189.45	73.9743	1189.45	73.6524	1189.45	69.8339	1189.45	71.6951	1189.45	65.1236	1189.45	71.0663	1189.45	65.2321	1189.45	71.1634	1189.45	69.2277
1231.2	83.899	1231.2	83.6239	1231.2	84.1077	1231.2	83.3564	1231.2	83.8786	1231.2	82.9607	1231.2	82.8168	1231.2	82.3741	1231.2	81.0486	1231.2	81.5882	1231.2	79.7357	1231.2	80.7599	1231.2	80.0272	1231.2	80.8933	1231.2	80.8734	1231.2	81.4392	1231.2	81.143	1231.2	80.3083	1231.2	80.7486	1231.2	76.0361	1231.2	78.8928	1231.2	65.0165	1231.2	73.683	1231.2	66.5184	1231.2	67.2891	1231.2	69.9068	1231.2	72.3073	1231.2	70.7698	1231.2	72.1478	1231.2	70.8701	1231.2	67.0234	1231.2	68.0689	1231.2	67.7535	1231.2	63.6127	1231.2	70.692	1231.2	68.8717
1274.41	83.7497	1274.41	83.3001	1274.41	83.9259	1274.41	82.8654	1274.41	83.5133	1274.41	82.5667	1274.41	82.4276	1274.41	82.2808	1274.41	81.1052	1274.41	81.6322	1274.41	79.6596	1274.41	80.4307	1274.41	78.2678	1274.41	79.8944	1274.41	78.916	1274.41	81.3251	1274.41	80.716	1274.41	82.045	1274.41	81.9313	1274.41	81.0391	1274.41	81.5001	1274.41	78.5892	1274.41	78.9626	1274.41	75.3459	1274.41	75.0182	1274.41	72.4631	1274.41	72.2901	1274.41	70.4497	1274.41	70.0144	1274.41	69.494	1274.41	64.8676	1274.41	69.41	1274.41	65.1605	1274.41	69.5122	1274.41	68.544	1274.41	69.4847
1319.82	83.7621	1319.82	83.9424	1319.82	83.4766	1319.82	83.6835	1319.82	83.2093	1319.82	82.8608	1319.82	82.8116	1319.82	81.8117	1319.82	82.1517	1319.82	80.8442	1319.82	81.1044	1319.82	79.2761	1319.82	79.7015	1319.82	76.568	1319.82	78.7589	1319.82	74.1714	1319.82	78.6099	1319.82	71.8492	1319.82	77.8051	1319.82	66.416	1319.82	75.1319	1319.82	62.435	1319.82	72.3477	1319.82	69.5957	1319.82	73.8916	1319.82	74.4367	1319.82	75.8085	1319.82	75.8315	1319.82	75.7609	1319.82	73.9621	1319.82	73.5799	1319.82	70.8181	1319.82	69.6847	1319.82	69.4313	1319.82	66.9147	1319.82	68.1357
1365.97	84.3434	1365.97	84.1652	1365.97	84.2341	1365.97	83.6454	1365.97	83.9147	1365.97	82.7415	1365.97	83.3784	1365.97	81.5078	1365.97	82.5745	1365.97	80.1541	1365.97	81.1434	1365.97	78.8094	1365.97	79.2039	1365.97	78.2104	1365.97	79.0593	1365.97	79.2786	1365.97	79.9856	1365.97	79.8637	1365.97	80.4317	1365.97	78.1253	1365.97	79.3762	1365.97	73.1432	1365.97	76.1546	1365.97	67.4407	1365.97	71.6018	1365.97	69.046	1365.97	71.6497	1365.97	70.593	1365.97	71.1713	1365.97	70.5297	1365.97	67.25	1365.97	69.9206	1365.97	68.2364	1365.97	71.5248	1365.97	71.8333	1365.97	72.8686
1414.31	85.3753	1414.31	85.1522	1414.31	85.1279	1414.31	84.6139	1414.31	84.1413	1414.31	83.7061	1414.31	82.6942	1414.31	82.5311	1414.31	81.9026	1414.31	81.4208	1414.31	81.5212	1414.31	79.6038	1414.31	79.3383	1414.31	74.4721	1414.31	75.6136	1414.31	53.0965	1414.31	78.2366	1414.31	73.5386	1414.31	81.4142	1414.31	77.9347	1414.31	80.7912	1414.31	78.0582	1414.31	77.1687	1414.31	76.0514	1414.31	74.4381	1414.31	75.1195	1414.31	74.6461	1414.31	74.5688	1414.31	71.8544	1414.31	71.2424	1414.31	67.1252	1414.31	61.2114	1414.31	68.1192	1414.31	63.6034	1414.31	69.92	1414.31	68.9386
1464.11	86.4005	1464.11	86.3814	1464.11	84.99	1464.11	84.9137	1464.11	82.8048	1464.11	82.8336	1464.11	81.4368	1464.11	81.9484	1464.11	81.7436	1464.11	82.1338	1464.11	81.8522	1464.11	81.3298	1464.11	80.0872	1464.11	79.4475	1464.11	76.6279	1464.11	77.9352	1464.11	72.9821	1464.11	75.594	1464.11	75.1673	1464.11	70.6742	1464.11	77.7404	1464.11	63.3957	1464.11	76.5024	1464.11	67.9068	1464.11	69.1809	1464.11	75.4077	1464.11	69.0922	1464.11	76.4405	1464.11	72.5667	1464.11	73.2281	1464.11	70.8663	1464.11	66.8737	1464.11	67.4732	1464.11	68.3677	1464.11	69.2185	1464.11	70.6736
1515.38	85.1569	1515.38	85.1998	1515.38	84.5879	1515.38	84.5549	1515.38	83.8755	1515.38	83.477	1515.38	83.4567	1515.38	82.3457	1515.38	83.0898	1515.38	80.7233	1515.38	81.4414	1515.38	78.1469	1515.38	77.6274	1515.38	75.9423	1515.38	73.0466	1515.38	75.0018	1515.38	69.5658	1515.38	74.0964	1515.38	64.9474	1515.38	73.834	1515.38	69.8391	1515.38	72.8404	1515.38	71.4175	1515.38	65.1209	1515.38	68.0249	1515.38	67.9074	1515.38	67.5741	1515.38	74.504	1515.38	70.6209	1515.38	74.2308	1515.38	70.2468	1515.38	70.6572	1515.38	68.637	1515.38	70.2017	1515.38	71.3044	1515.38	72.3304
1568.85	85.1449	1568.85	85.1427	1568.85	84.6771	1568.85	84.2883	1568.85	84.1474	1568.85	82.9064	1568.85	83.5928	1568.85	81.9431	1568.85	82.4966	1568.85	80.7944	1568.85	80.3086	1568.85	78.5662	1568.85	78.0094	1568.85	75.9108	1568.85	77.6043	1568.85	74.7566	1568.85	76.9376	1568.85	73.9118	1568.85	74.4777	1568.85	74.0886	1568.85	73.5094	1568.85	74.3481	1568.85	71.7634	1568.85	69.1131	1568.85	66.4862	1568.85	67.361	1568.85	69.0241	1568.85	73.6962	1568.85	68.8425	1568.85	72.9072	1568.85	66.0981	1568.85	68.0423	1568.85	71.3794	1568.85	68.8611	1568.85	75.2333	1568.85	74.4269
1624.51	85.5987	1624.51	84.8742	1624.51	85.3334	1624.51	83.4551	1624.51	84.0724	1624.51	82.5374	1624.51	82.5956	1624.51	82.6213	1624.51	82.0738	1624.51	81.5195	1624.51	81.3931	1624.51	78.1443	1624.51	78.8279	1624.51	75.3112	1624.51	76.4044	1624.51	76.4168	1624.51	76.0391	1624.51	77.5444	1624.51	73.8707	1624.51	77.5265	1624.51	72.4786	1624.51	77.3136	1624.51	73.5784	1624.51	73.2039	1624.51	71.8119	1624.51	54.0291	1624.51	70.4848	1624.51	63.2763	1624.51	70.018	1624.51	67.7774	1624.51	65.2665	1624.51	66.7448	1624.51	70.1931	1624.51	69.2634	1624.51	74.1348	1624.51	73.2785
1681.64	85.5631	1681.64	84.7032	1681.64	85.0596	1681.64	83.1846	1681.64	83.6684	1681.64	82.1576	1681.64	82.4999	1681.64	81.4705	1681.64	81.9625	1681.64	80.9382	1681.64	81.6386	1681.64	79.7331	1681.64	80.5091	1681.64	79.097	1681.64	79.0438	1681.64	78.3506	1681.64	78.3653	1681.64	76.8054	1681.64	77.9393	1681.64	72.846	1681.64	77.2605	1681.64	72.5187	1681.64	75.142	1681.64	75.2256	1681.64	68.4568	1681.64	72.891	1681.64	58.3895	1681.64	68.0715	1681.64	65.2498	1681.64	72.7386	1681.64	72.6232	1681.64	69.9713	1681.64	73.786	1681.64	64.0879	1681.64	70.5143	1681.64	67.9326
1740.97	84.1417	1740.97	83.8206	1740.97	83.9258	1740.97	83.0694	1740.97	83.1558	1740.97	81.9466	1740.97	82.2455	1740.97	80.5257	1740.97	81.0779	1740.97	78.6117	1740.97	78.8975	1740.97	77.5167	1740.97	76.9002	1740.97	77.3806	1740.97	76.528	1740.97	76.589	1740.97	75.6807	1740.97	78.302	1740.97	71.9539	1740.97	78.2901	1740.97	70.7782	1740.97	74.7845	1740.97	72.3288	1740.97	73.5748	1740.97	70.6831	1740.97	71.1259	1740.97	70.1771	1740.97	66.2337	1740.97	71.21	1740.97	67.5488	1740.97	69.4982	1740.97	64.3783	1740.97	70.2143	1740.97	57.7363	1740.97	70.4786	1740.97	65.0264
1802.49	82.8154	1802.49	82.6647	1802.49	82.5613	1802.49	82.1398	1802.49	81.8512	1802.49	81.5928	1802.49	80.7166	1802.49	80.1617	1802.49	79.9752	1802.49	78.0166	1802.49	78.7592	1802.49	78.1991	1802.49	76.8365	1802.49	78.1993	1802.49	75.1409	1802.49	73.2078	1802.49	74.4656	1802.49	68.5208	1802.49	72.8456	1802.49	71.2361	1802.49	70.8934	1802.49	72.3836	1802.49	67.3207	1802.49	74.6551	1802.49	61.3684	1802.49	73.6641	1802.49	60.656	1802.49	67.658	1802.49	67.2562	1802.49	67.1166	1802.49	65.4677	1802.49	66.6076	1802.49	62.1304	1802.49	65.6749	1802.49	67.4326	1802.49	66.1942
1866.21	81.8636	1866.21	82.1249	1866.21	82.1498	1866.21	82.4473	1866.21	82.4549	1866.21	81.7616	1866.21	81.4216	1866.21	79.3204	1866.21	78.5341	1866.21	77.2572	1866.21	75.8038	1866.21	77.2378	1866.21	74.6472	1866.21	75.8105	1866.21	72.9422	1866.21	73.9223	1866.21	70.8162	1866.21	74.5171	1866.21	67.476	1866.21	74.9906	1866.21	61.3093	1866.21	74.1151	1866.21	68.4826	1866.21	71.7659	1866.21	68.7502	1866.21	69.0744	1866.21	65.7838	1866.21	72.4304	1866.21	67.4187	1866.21	73.0577	1866.21	63.9813	1866.21	66.9401	1866.21	66.1556	1866.21	65.5539	1866.21	67.1744	1866.21	67.3667
1932.13	81.5168	1932.13	81.7809	1932.13	80.9204	1932.13	81.1787	1932.13	79.826	1932.13	79.8866	1932.13	78.1765	1932.13	78.8549	1932.13	77.2183	1932.13	78.7564	1932.13	75.7183	1932.13	78.3879	1932.13	72.7439	1932.13	77.4092	1932.13	70.6749	1932.13	75.1396	1932.13	72.994	1932.13	74.0563	1932.13	73.7656	1932.13	73.5469	1932.13	74.7219	1932.13	69.4792	1932.13	74.2421	1932.13	67.032	1932.13	69.7733	1932.13	66.759	1932.13	53.728	1932.13	67.9128	1932.13	66.2079	1932.13	69.9715	1932.13	68.068	1932.13	68.6846	1932.13	55.621	1932.13	66.3084	1932.13	66.6198	1932.13	70.6667
2000.24	82.0764	2000.24	82.252	2000.24	81.5346	2000.24	82.0645	2000.24	80.5788	2000.24	81.7882	2000.24	78.8827	2000.24	80.0725	2000.24	77.1788	2000.24	77.2681	2000.24	77.1495	2000.24	76.8725	2000.24	76.4472	2000.24	76.2404	2000.24	76.2695	2000.24	74.1359	2000.24	76.6522	2000.24	74.442	2000.24	74.3881	2000.24	75.2955	2000.24	72.1765	2000.24	72.0607	2000.24	71.8467	2000.24	67.1794	2000.24	69.649	2000.24	65.4807	2000.24	65.7293	2000.24	62.7196	2000.24	66.4177	2000.24	69.4297	2000.24	65.3671	2000.24	69.7757	2000.24	61.3435	2000.24	67.2634	2000.24	67.319	2000.24	69.3244
2070.56	82.5362	2070.56	81.9823	2070.56	82.9487	2070.56	82.0761	2070.56	81.6165	2070.56	81.5466	2070.56	80.5666	2070.56	80.2629	2070.56	81.6468	2070.56	79.8401	2070.56	80.4931	2070.56	79.0563	2070.56	76.3851	2070.56	75.4406	2070.56	73.9565	2070.56	75.6671	2070.56	75.706	2070.56	75.6578	2070.56	75.4447	2070.56	69.4824	2070.56	76.5097	2070.56	70.7428	2070.56	77.3885	2070.56	70.602	2070.56	75.9703	2070.56	63.7569	2070.56	71.9186	2070.56	68.1808	2070.56	69.1399	2070.56	67.1156	2070.56	71.2907	2070.56	62.7103	2070.56	65.7468	2070.56	64.5957	2070.56	53.7658	2070.56	64.7759
2143.8	85.009	2143.8	82.9299	2143.8	85.2748	2143.8	82.1452	2143.8	82.8136	2143.8	83.2906	2143.8	80.9391	2143.8	82.0845	2143.8	82.3356	2143.8	77.6195	2143.8	83.1003	2143.8	75.7025	2143.8	80.5352	2143.8	71.7623	2143.8	70.5079	2143.8	70.1508	2143.8	68.9914	2143.8	65.8251	2143.8	68.8668	2143.8	68.0048	2143.8	61.8486	2143.8	70.02	2143.8	69.8839	2143.8	74.0185	2143.8	75.271	2143.8	73.7799	2143.8	73.9501	2143.8	70.6907	2143.8	74.0014	2143.8	67.7789	2143.8	69.874	2143.8	62.3851	2143.8	68.1609	2143.8	60.9085	2143.8	69.7167	2143.8	63.5635
2219.24	85.0728	2219.24	85.2075	2219.24	85.6638	2219.24	85.1461	2219.24	85.2421	2219.24	83.4167	2219.24	83.4895	2219.24	81.6893	2219.24	82.7829	2219.24	81.4655	2219.24	83.1155	2219.24	80.2114	2219.24	81.6508	2219.24	78.9173	2219.24	79.0322	2219.24	77.3468	2219.24	76.4375	2219.24	75.5801	2219.24	77.505	2219.24	75.3645	2219.24	75.6614	2219.24	70.4042	2219.24	72.4953	2219.24	72.1107	2219.24	75.2539	2219.24	71.3698	2219.24	72.1993	2219.24	66.57	2219.24	67.2471	2219.24	70.6709	2219.24	65.8359	2219.24	64.7497	2219.24	64.0874	2219.24	64.2464	2219.24	69.3291	2219.24	71.2081
2297.61	84.9096	2297.61	85.4691	2297.61	84.5178	2297.61	84.634	2297.61	85.0978	2297.61	83.4434	2297.61	84.8277	2297.61	82.6108	2297.61	83.8374	2297.61	81.408	2297.61	83.2278	2297.61	80.0369	2297.61	80.9937	2297.61	77.3009	2297.61	78.736	2297.61	75.0327	2297.61	78.4267	2297.61	73.2741	2297.61	77.3853	2297.61	71.7297	2297.61	73.3004	2297.61	71.5012	2297.61	71.1013	2297.61	71.0329	2297.61	72.0955	2297.61	71.5526	2297.61	70.0295	2297.61	65.6429	2297.61	68.6579	2297.61	67.5056	2297.61	68.7897	2297.61	62.3679	2297.61	63.2918	2297.61	61.7406	2297.61	64.5659	2297.61	67.9754
2378.17	85.7938	2378.17	85.212	2378.17	84.7187	2378.17	83.8591	2378.17	84.1564	2378.17	83.4849	2378.17	84.4697	2378.17	82.8141	2378.17	84.1218	2378.17	82.1113	2378.17	83.2258	2378.17	79.5538	2378.17	81.4161	2378.17	76.5987	2378.17	79.0932	2378.17	78.5222	2378.17	77.1038	2378.17	76.6015	2378.17	74.9625	2378.17	75.9717	2378.17	73.0832	2378.17	73.9006	2378.17	73.8136	2378.17	69.1523	2378.17	71.439	2378.17	70.2271	2378.17	69.8936	2378.17	66.1604	2378.17	66.3242	2378.17	70.2521	2378.17	66.5779	2378.17	67.3471	2378.17	63.0512	2378.17	54.1483	2378.17	66.4675	2378.17	67.1175
2462.4	86.4787	2462.4	85.6527	2462.4	85.9874	2462.4	84.7171	2462.4	84.9063	2462.4	84.1834	2462.4	84.4035	2462.4	83.2517	2462.4	84.1748	2462.4	81.2815	2462.4	83.2749	2462.4	78.8954	2462.4	81.1202	2462.4	77.3205	2462.4	78.773	2462.4	75.8402	2462.4	72.0894	2462.4	73.4142	2462.4	68.0904	2462.4	70.5841	2462.4	75.6776	2462.4	71.7103	2462.4	76.6269	2462.4	64.8615	2462.4	73.7573	2462.4	70.6874	2462.4	70.6446	2462.4	68.0311	2462.4	67.8908	2462.4	65.6102	2462.4	64.8202	2462.4	65.2323	2462.4	56.6818	2462.4	55.0839	2462.4	61.1183	2462.4	64.602
2548.83	85.494	2548.83	85.0923	2548.83	85.1144	2548.83	84.7403	2548.83	84.6048	2548.83	84.3144	2548.83	84.7694	2548.83	82.9288	2548.83	84.0693	2548.83	80.5614	2548.83	82.4799	2548.83	78.4048	2548.83	81.1363	2548.83	77.2594	2548.83	78.8058	2548.83	74.4357	2548.83	73.9691	2548.83	71.1641	2548.83	70.4936	2548.83	70.1345	2548.83	74.253	2548.83	72.275	2548.83	73.1117	2548.83	67.828	2548.83	71.7848	2548.83	68.7557	2548.83	68.8703	2548.83	67.8403	2548.83	65.0429	2548.83	68.3077	2548.83	67.9163	2548.83	68.9087	2548.83	62.889	2548.83	55.8232	2548.83	60.7185	2548.83	61.4775
2638.92	86.0746	2638.92	85.3145	2638.92	85.9836	2638.92	84.7702	2638.92	84.9039	2638.92	84.1649	2638.92	84.6018	2638.92	82.1913	2638.92	84.1775	2638.92	79.4129	2638.92	81.9319	2638.92	77.6151	2638.92	80.21	2638.92	75.8304	2638.92	77.5184	2638.92	72.388	2638.92	70.5302	2638.92	73.2976	2638.92	64.2047	2638.92	73.2753	2638.92	71.3888	2638.92	72.7879	2638.92	74.6734	2638.92	69.7593	2638.92	71.6361	2638.92	67.2702	2638.92	68.4872	2638.92	69.3328	2638.92	63.6943	2638.92	64.9083	2638.92	62.6008	2638.92	67.0452	2638.92	60.2285	2638.92	39.4559	2638.92	59.8592	2638.92	61.8542
2731.93	86.3303	2731.93	85.7435	2731.93	86.0651	2731.93	84.5466	2731.93	84.9604	2731.93	83.2725	2731.93	84.1343	2731.93	82.424	2731.93	83.8777	2731.93	81.2392	2731.93	82.134	2731.93	78.763	2731.93	79.9436	2731.93	76.009	2731.93	76.9149	2731.93	74.2368	2731.93	71.3363	2731.93	73.4935	2731.93	71.8354	2731.93	71.6789	2731.93	72.377	2731.93	68.945	2731.93	73.114	2731.93	67.9837	2731.93	72.3634	2731.93	67.3344	2731.93	68.4265	2731.93	69.6066	2731.93	66.315	2731.93	64.6386	2731.93	67.6173	2731.93	66.0031	2731.93	60.8296	2731.93	55.6813	2731.93	56.247	2731.93	60.9872
2828.61	86.4169	2828.61	85.7867	2828.61	85.8899	2828.61	84.7834	2828.61	85.2907	2828.61	84.1162	2828.61	84.3623	2828.61	82.9216	2828.61	82.7881	2828.61	81.1472	2828.61	80.7777	2828.61	78.8229	2828.61	77.3443	2828.61	75.5929	2828.61	73.9626	2828.61	71.9589	2828.61	70.8666	2828.61	69.7197	2828.61	71.3421	2828.61	66.9017	2828.61	73.54	2828.61	67.3392	2828.61	71.7886	2828.61	67.8309	2828.61	68.8345	2828.61	65.9783	2828.61	69.862	2828.61	68.0584	2828.61	64.7583	2828.61	66.3743	2828.61	66.4281	2828.61	66.8169	2828.61	63.2239	2828.61	60.8744	2828.61	55.9453	2828.61	55.4053
2928.22	86.2898	2928.22	85.0971	2928.22	86.2452	2928.22	84.7393	2928.22	84.9159	2928.22	84.2036	2928.22	83.885	2928.22	82.0943	2928.22	82.6867	2928.22	79.9848	2928.22	80.7069	2928.22	77.1779	2928.22	78.3416	2928.22	74.7159	2928.22	74.0595	2928.22	73.0575	2928.22	68.0621	2928.22	70.9117	2928.22	69.7281	2928.22	68.4589	2928.22	70.5524	2928.22	67.3767	2928.22	70.6936	2928.22	66.5906	2928.22	68.983	2928.22	63.3304	2928.22	66.5606	2928.22	67.9672	2928.22	65.4911	2928.22	65.5254	2928.22	63.6305	2928.22	65.3896	2928.22	64.9793	2928.22	59.5049	2928.22	59.4426	2928.22	59.7862
3031.49	85.8916	3031.49	85.4269	3031.49	85.3662	3031.49	84.4408	3031.49	84.4424	3031.49	83.4361	3031.49	83.8748	3031.49	82.5859	3031.49	82.0585	3031.49	80.3065	3031.49	79.2096	3031.49	76.1549	3031.49	76.8761	3031.49	74.0175	3031.49	72.4276	3031.49	70.7567	3031.49	71.2155	3031.49	68.3144	3031.49	71.4589	3031.49	68.7352	3031.49	68.3566	3031.49	66.298	3031.49	57.196	3031.49	66.698	3031.49	65.2087	3031.49	63.0418	3031.49	66.0374	3031.49	64.8	3031.49	63.8713	3031.49	64.0466	3031.49	61.6816	3031.49	65.9559	3031.49	62.4802	3031.49	61.3002	3031.49	58.9524	3031.49	57.8645
3138.43	85.7426	3138.43	85.3443	3138.43	85.7815	3138.43	84.9466	3138.43	84.5936	3138.43	83.8148	3138.43	83.1354	3138.43	82.2936	3138.43	81.7737	3138.43	79.7209	3138.43	79.0785	3138.43	76.9604	3138.43	76.3877	3138.43	73.6197	3138.43	71.0181	3138.43	71.0273	3138.43	72.0395	3138.43	70.9393	3138.43	70.7026	3138.43	68.5145	3138.43	63.2818	3138.43	64.194	3138.43	64.9047	3138.43	64.3174	3138.43	64.8833	3138.43	60.8826	3138.43	65.4635	3138.43	63.9004	3138.43	62.8437	3138.43	62.1696	3138.43	60.8257	3138.43	64.2207	3138.43	62.5376	3138.43	57.3256	3138.43	59.7347	3138.43	59.762
3249.02	85.3198	3249.02	84.637	3249.02	85.2957	3249.02	83.2952	3249.02	84.3038	3249.02	83.1574	3249.02	82.758	3249.02	81.3784	3249.02	81.3168	3249.02	78.2866	3249.02	78.978	3249.02	76.4036	3249.02	75.3822	3249.02	73.3252	3249.02	71.2496	3249.02	70.6179	3249.02	69.9055	3249.02	65.8465	3249.02	61.5508	3249.02	64.7319	3249.02	59.8365	3249.02	63.472	3249.02	68.0032	3249.02	63.5851	3249.02	65.6713	3249.02	63.1928	3249.02	66.4415	3249.02	62.7863	3249.02	60.6556	3249.02	61.9684	3249.02	60.3159	3249.02	61.2088	3249.02	62.7127	3249.02	56.1721	3249.02	59.3046	3249.02	58.0495
3363.28	85.1811	3363.28	84.6531	3363.28	85.0526	3363.28	84.3036	3363.28	84.3054	3363.28	83.1862	3363.28	82.5906	3363.28	81.5616	3363.28	80.7412	3363.28	79.2732	3363.28	79.5306	3363.28	75.9814	3363.28	75.419	3363.28	72.2987	3363.28	70.9518	3363.28	69.0614	3363.28	70.8724	3363.28	61.8934	3363.28	49.102	3363.28	63.5011	3363.28	43.9133	3363.28	64.3179	3363.28	66.2082	3363.28	61.9076	3363.28	61.5046	3363.28	61.5189	3363.28	62.6329	3363.28	61.7606	3363.28	60.4351	3363.28	61.3133	3363.28	60.5115	3363.28	62.3772	3363.28	59.5846	3363.28	58.0125	3363.28	58.8081	3363.28	57.0951
3481.93	85.3746	3481.93	84.6225	3481.93	85.0381	3481.93	84.0034	3481.93	83.7196	3481.93	83.2874	3481.93	82.7274	3481.93	81.4022	3481.93	81.1758	3481.93	78.4399	3481.93	79.481	3481.93	75.6837	3481.93	73.8778	3481.93	71.9316	3481.93	72.6199	3481.93	69.9091	3481.93	69.9423	3481.93	68.1266	3481.93	59.941	3481.93	66.9725	3481.93	63.7457	3481.93	62.0276	3481.93	59.7854	3481.93	63.7297	3481.93	55.4967	3481.93	59.8159	3481.93	60.5851	3481.93	59.4592	3481.93	58.3005	3481.93	59.8172	3481.93	60.3318	3481.93	63.4218	3481.93	61.9044	3481.93	56.3858	3481.93	58.3147	3481.93	57.0123
3604.98	85.4086	3604.98	84.9295	3604.98	84.9372	3604.98	84.2936	3604.98	84.2125	3604.98	82.9019	3604.98	82.8266	3604.98	80.9739	3604.98	81.5784	3604.98	78.3394	3604.98	79.354	3604.98	75.0721	3604.98	71.5158	3604.98	72.1714	3604.98	73.584	3604.98	70.2804	3604.98	68.5558	3604.98	66.5932	3604.98	68.4621	3604.98	66.2107	3604.98	67.806	3604.98	63.4026	3604.98	61.3559	3604.98	62.4125	3604.98	63.4243	3604.98	60.062	3604.98	61.2681	3604.98	59.7642	3604.98	58.4278	3604.98	61.1815	3604.98	56.8604	3604.98	60.3174	3604.98	62.5939	3604.98	57.0764	3604.98	59.7921	3604.98	58.8846
3732.42	85.8699	3732.42	85.139	3732.42	85.274	3732.42	84.1118	3732.42	84.2006	3732.42	83.1768	3732.42	82.9392	3732.42	81.405	3732.42	81.9701	3732.42	78.2545	3732.42	78.6578	3732.42	75.5589	3732.42	71.8398	3732.42	72.1187	3732.42	75.6202	3732.42	69.1924	3732.42	69.9778	3732.42	65.4064	3732.42	71.9841	3732.42	62.7892	3732.42	68.4728	3732.42	63.1897	3732.42	63.82	3732.42	62.6294	3732.42	65.7629	3732.42	59.6047	3732.42	64.3808	3732.42	56.3464	3732.42	58.1283	3732.42	56.1413	3732.42	58.6131	3732.42	59.279	3732.42	59.3957	3732.42	56.1553	3732.42	59.4679	3732.42	58.1992
3863.53	85.9778	3863.53	85.6303	3863.53	85.5275	3863.53	84.5782	3863.53	84.8544	3863.53	83.1151	3863.53	83.0546	3863.53	80.9457	3863.53	81.7787	3863.53	77.6853	3863.53	77.5149	3863.53	74.7832	3863.53	74.6077	3863.53	70.7536	3863.53	75.9741	3863.53	67.7166	3863.53	71.1391	3863.53	65.7025	3863.53	72.2745	3863.53	66.3817	3863.53	68.0119	3863.53	64.3649	3863.53	71.1096	3863.53	63.2936	3863.53	64.0899	3863.53	61.0833	3863.53	58.1282	3863.53	60.9831	3863.53	60.0413	3863.53	59.0767	3863.53	53.5467	3863.53	56.2876	3863.53	58.3895	3863.53	58.9651	3863.53	59.9288	3863.53	58.3623
3999.76	86.304	3999.76	85.3252	3999.76	85.7986	3999.76	84.1037	3999.76	84.4794	3999.76	83.3085	3999.76	83.3248	3999.76	81.4258	3999.76	82.1917	3999.76	78.3186	3999.76	76.1621	3999.76	73.9908	3999.76	76.177	3999.76	70.7511	3999.76	74.7211	3999.76	68.724	3999.76	69.4979	3999.76	66.0091	3999.76	69.6443	3999.76	63.4485	3999.76	61.1265	3999.76	64.5075	3999.76	69.704	3999.76	63.0554	3999.76	56.3859	3999.76	59.2338	3999.76	58.4241	3999.76	62.0285	3999.76	61.2316	3999.76	59.1855	3999.76	41.1828	3999.76	59.137	3999.76	58.2176	3999.76	57.8177	3999.76	60.4321	3999.76	55.017
4141.11	86.2762	4141.11	85.7473	4141.11	85.9758	4141.11	84.3988	4141.11	84.6591	4141.11	83.3423	4141.11	83.1799	4141.11	80.706	4141.11	81.902	4141.11	76.9073	4141.11	75.8518	4141.11	73.5623	4141.11	76.3037	4141.11	71.6798	4141.11	72.8466	4141.11	68.6314	4141.11	70.6406	4141.11	67.1467	4141.11	70.2612	4141.11	66.0426	4141.11	67.8873	4141.11	65.0889	4141.11	60.8767	4141.11	63.7152	4141.11	62.3417	4141.11	60.8226	4141.11	61.5399	4141.11	60.5182	4141.11	61.9634	4141.11	60.9228	4141.11	53.6879	4141.11	59.839	4141.11	57.1841	4141.11	53.9966	4141.11	56.8254	4141.11	54.277
4286.87	86.1935	4286.87	85.1574	4286.87	85.6805	4286.87	84.6164	4286.87	84.5274	4286.87	83.3998	4286.87	83.1153	4286.87	80.6247	4286.87	81.4832	4286.87	76.7559	4286.87	75.7044	4286.87	73.9551	4286.87	75.3623	4286.87	70.9774	4286.87	71.1404	4286.87	68.3069	4286.87	69.1597	4286.87	63.4258	4286.87	68.1216	4286.87	63.0715	4286.87	59.5029	4286.87	64.927	4286.87	63.4336	4286.87	64.0759	4286.87	68.5724	4286.87	62.2508	4286.87	61.6845	4286.87	62.0904	4286.87	55.6915	4286.87	59.8159	4286.87	50.8775	4286.87	60.6661	4286.87	50.6077	4286.87	57.5036	4286.87	59.7817	4286.87	57.1426
4438.48	85.917	4438.48	85.2285	4438.48	85.4358	4438.48	84.265	4438.48	84.1626	4438.48	82.8077	4438.48	83.4877	4438.48	80.2943	4438.48	81.515	4438.48	76.7052	4438.48	75.1588	4438.48	74.4234	4438.48	75.0586	4438.48	71.7417	4438.48	68.1839	4438.48	70.6724	4438.48	70.8839	4438.48	70.2549	4438.48	66.7949	4438.48	67.4048	4438.48	61.6631	4438.48	63.6181	4438.48	68.7165	4438.48	64.1758	4438.48	66.4735	4438.48	63.148	4438.48	57.7004	4438.48	62.5844	4438.48	59.433	4438.48	64.2389	4438.48	54.7414	4438.48	58.1525	4438.48	53.8911	4438.48	57.4425	4438.48	59.151	4438.48	56.3184
4594.48	85.8376	4594.48	85.1413	4594.48	85.508	4594.48	84.5069	4594.48	84.1783	4594.48	83.4405	4594.48	83.1786	4594.48	80.3994	4594.48	81.9223	4594.48	78.7276	4594.48	77.9051	4594.48	75.4353	4594.48	74.641	4594.48	74.3124	4594.48	68.0751	4594.48	71.1032	4594.48	72.1956	4594.48	68.0513	4594.48	65.0604	4594.48	63.6521	4594.48	70.2327	4594.48	64.3944	4594.48	69.5928	4594.48	63.7665	4594.48	58.73	4594.48	63.1268	4594.48	62.5124	4594.48	63.2305	4594.48	62.5629	4594.48	63.3781	4594.48	56.3418	4594.48	62.3679	4594.48	52.7199	4594.48	55.5198	4594.48	54.1279	4594.48	54.59
4757.08	86.4528	4757.08	86.0768	4757.08	85.6674	4757.08	85.3535	4757.08	84.2062	4757.08	83.099	4757.08	83.7039	4757.08	81.4801	4757.08	81.2655	4757.08	78.6887	4757.08	80.162	4757.08	75.9269	4757.08	75.6325	4757.08	73.4006	4757.08	71.3007	4757.08	69.2569	4757.08	73.3569	4757.08	68.7038	4757.08	66.4661	4757.08	67.7537	4757.08	71.6028	4757.08	65.0568	4757.08	64.2035	4757.08	62.886	4757.08	65.248	4757.08	61.8947	4757.08	66.4762	4757.08	62.5148	4757.08	59.4024	4757.08	63.1169	4757.08	58.2267	4757.08	60.4598	4757.08	56.1155	4757.08	57.2011	4757.08	56.4016	4757.08	58.2717
4924.8	86.211	4924.8	86.3	4924.8	85.6836	4924.8	84.5454	4924.8	84.3893	4924.8	83.5129	4924.8	84.083	4924.8	80.8674	4924.8	80.2815	4924.8	78.8069	4924.8	79.9356	4924.8	76.5676	4924.8	75.6046	4924.8	73.198	4924.8	73.4809	4924.8	70.1857	4924.8	72.2039	4924.8	68.5037	4924.8	71.0425	4924.8	63.8277	4924.8	69.5746	4924.8	62.4092	4924.8	58.6624	4924.8	62.2319	4924.8	66.6801	4924.8	61.2759	4924.8	65.3394	4924.8	61.5912	4924.8	59.5139	4924.8	62.5906	4924.8	58.3581	4924.8	60.2445	4924.8	54.9068	4924.8	51.0625	4924.8	54.1514	4924.8	56.0453
5098.39	86.7194	5098.39	85.8984	5098.39	86.2377	5098.39	84.4285	5098.39	84.4383	5098.39	83.6669	5098.39	83.5132	5098.39	81.4783	5098.39	80.9519	5098.39	79.3977	5098.39	79.9885	5098.39	75.1841	5098.39	74.3832	5098.39	73.8771	5098.39	75.0922	5098.39	69.914	5098.39	69.7417	5098.39	67.6448	5098.39	68.2765	5098.39	66.7175	5098.39	67.6637	5098.39	64.0513	5098.39	66.9438	5098.39	63.454	5098.39	66.9186	5098.39	61.4392	5098.39	57.7953	5098.39	59.6891	5098.39	55.6448	5098.39	62.3392	5098.39	56.6532	5098.39	61.4768	5098.39	52.4868	5098.39	51.4072	5098.39	54.6093	5098.39	48.6899
5277.83	86.9289	5277.83	85.9773	5277.83	86.6391	5277.83	84.4591	5277.83	84.337	5277.83	83.9546	5277.83	83.1396	5277.83	81.1041	5277.83	80.6695	5277.83	78.6201	5277.83	79.2974	5277.83	75.6971	5277.83	75.615	5277.83	73.5172	5277.83	75.0212	5277.83	69.0892	5277.83	67.2619	5277.83	67.9544	5277.83	68.29	5277.83	64.3667	5277.83	55.8201	5277.83	61.4092	5277.83	64.6077	5277.83	63.4875	5277.83	59.0004	5277.83	62.9245	5277.83	62.0914	5277.83	60.7077	5277.83	36.1302	5277.83	59.7865	5277.83	57.0814	5277.83	62.8092	5277.83	55.6817	5277.83	53.3636	5277.83	57.1678	5277.83	50.0581
5463.87	86.8129	5463.87	86.1178	5463.87	86.4625	5463.87	84.6834	5463.87	84.3007	5463.87	83.5929	5463.87	82.1861	5463.87	81.1078	5463.87	80.7295	5463.87	79.2817	5463.87	79.6796	5463.87	75.7324	5463.87	77.1352	5463.87	72.7558	5463.87	75.4067	5463.87	70.1088	5463.87	67.9758	5463.87	68.164	5463.87	67.6834	5463.87	66.1674	5463.87	66.9333	5463.87	64.3006	5463.87	58.4847	5463.87	62.0709	5463.87	63.4409	5463.87	61.01	5463.87	65.5737	5463.87	59.4088	5463.87	55.3281	5463.87	60.8457	5463.87	46.7711	5463.87	57.8894	5463.87	53.5976	5463.87	58.1122	5463.87	55.3485	5463.87	42.6138
5656.49	86.8175	5656.49	86.1782	5656.49	86.6306	5656.49	85.0707	5656.49	84.5536	5656.49	83.3417	5656.49	82.0969	5656.49	82.0074	5656.49	81.5664	5656.49	78.0502	5656.49	79.9211	5656.49	76.7963	5656.49	77.1649	5656.49	72.7753	5656.49	72.6686	5656.49	69.9051	5656.49	66.5984	5656.49	65.7404	5656.49	67.7088	5656.49	64.0957	5656.49	69.1542	5656.49	62.1214	5656.49	66.5097	5656.49	60.2282	5656.49	65.9369	5656.49	61.4803	5656.49	60.1676	5656.49	61.0752	5656.49	59.6726	5656.49	60.5918	5656.49	59.0944	5656.49	56.4953	5656.49	39.6828	5656.49	59.4211	5656.49	48.899	5656.49	50.225
5856.45	87.1051	5856.45	86.1046	5856.45	86.6192	5856.45	84.762	5856.45	84.0724	5856.45	83.5167	5856.45	82.5176	5856.45	81.6454	5856.45	82.0322	5856.45	79.3321	5856.45	80.419	5856.45	76.1779	5856.45	76.9571	5856.45	72.1787	5856.45	72.435	5856.45	68.9399	5856.45	67.9546	5856.45	67.1891	5856.45	65.9963	5856.45	64.5284	5856.45	66.5628	5856.45	61.6922	5856.45	64.0067	5856.45	61.6187	5856.45	61.4179	5856.45	60.8472	5856.45	58.436	5856.45	60.9864	5856.45	60.826	5856.45	60.1842	5856.45	56.6464	5856.45	60.3551	5856.45	58.1232	5856.45	60.6422	5856.45	41.6927	5856.45	51.5442
6062.99	86.6989	6062.99	85.9083	6062.99	85.929	6062.99	84.485	6062.99	85.0026	6062.99	83.6217	6062.99	82.4432	6062.99	82.0976	6062.99	83.1251	6062.99	79.0508	6062.99	79.8089	6062.99	76.0937	6062.99	77.1194	6062.99	72.5473	6062.99	70.3026	6062.99	69.6608	6062.99	70.7422	6062.99	65.9341	6062.99	59.2664	6062.99	64.0601	6062.99	66.8039	6062.99	61.8497	6062.99	65.9415	6062.99	61.7502	6062.99	63.3912	6062.99	61.739	6062.99	58.2148	6062.99	60.0173	6062.99	60.5649	6062.99	57.8594	6062.99	57.9512	6062.99	61.3077	6062.99	54.9834	6062.99	56.2734	6062.99	51.9373	6062.99	48.2838
6276.86	86.6769	6276.86	86.0897	6276.86	85.9899	6276.86	84.3373	6276.86	85.3433	6276.86	83.8186	6276.86	82.1265	6276.86	82.2012	6276.86	83.9767	6276.86	78.9713	6276.86	78.181	6276.86	75.1178	6276.86	76.0309	6276.86	70.4184	6276.86	70.1946	6276.86	68.5315	6276.86	71.6421	6276.86	66.1932	6276.86	66.4212	6276.86	64.9503	6276.86	64.8717	6276.86	61.8706	6276.86	64.8052	6276.86	62.2356	6276.86	64.7466	6276.86	61.7325	6276.86	59.9424	6276.86	58.2373	6276.86	62.315	6276.86	58.8543	6276.86	57.7981	6276.86	61.7608	6276.86	50.2148	6276.86	48.4335	6276.86	39.0957	6276.86	46.0317
6498.05	86.8629	6498.05	86.1456	6498.05	85.834	6498.05	84.193	6498.05	84.8182	6498.05	83.9029	6498.05	82.3017	6498.05	82.0646	6498.05	83.7246	6498.05	78.5929	6498.05	77.5526	6498.05	75.0671	6498.05	75.3072	6498.05	72.6506	6498.05	73.3469	6498.05	68.6418	6498.05	73.1519	6498.05	66.6025	6498.05	69.664	6498.05	65.2063	6498.05	64.2981	6498.05	61.9048	6498.05	59.9699	6498.05	63.8665	6498.05	60.6165	6498.05	61.611	6498.05	62.5956	6498.05	58.2244	6498.05	60.3715	6498.05	58.8942	6498.05	60.7562	6498.05	64.3906	6498.05	55.8484	6498.05	43.6805	6498.05	51.3086	6498.05	50.0087
6727.29	86.7782	6727.29	85.7572	6727.29	85.9656	6727.29	83.8126	6727.29	83.0092	6727.29	83.8836	6727.29	83.291	6727.29	81.8954	6727.29	83.4924	6727.29	78.4495	6727.29	78.5429	6727.29	75.9358	6727.29	75.4941	6727.29	72.3595	6727.29	74.6409	6727.29	69.3981	6727.29	71.2037	6727.29	66.6225	6727.29	69.5393	6727.29	63.3237	6727.29	67.25	6727.29	63.6011	6727.29	65.1341	6727.29	63.1731	6727.29	54.7848	6727.29	60.7997	6727.29	61.1699	6727.29	59.6937	6727.29	51.9866	6727.29	58.5244	6727.29	59.8497	6727.29	64.2118	6727.29	54.7899	6727.29	55.6884	6727.29	46.3736	6727.29	44.1973
6964.6	86.5707	6964.6	85.2924	6964.6	85.6972	6964.6	84.082	6964.6	81.0059	6964.6	83.8685	6964.6	84.463	6964.6	81.3875	6964.6	82.3593	6964.6	78.2818	6964.6	79.1379	6964.6	75.7311	6964.6	76.1979	6964.6	72.3648	6964.6	74.3903	6964.6	69.7519	6964.6	68.4205	6964.6	66.934	6964.6	62.8627	6964.6	63.2589	6964.6	67.6336	6964.6	62.0185	6964.6	64.756	6964.6	61.1842	6964.6	61.7436	6964.6	60.5716	6964.6	50.2467	6964.6	58.8982	6964.6	55.4323	6964.6	59.433	6964.6	50.3488	6964.6	60.7402	6964.6	57.3304	6964.6	54.8126	6964.6	50.7822	6964.6	37.8435
7209.96	86.4218	7209.96	85.1145	7209.96	84.8918	7209.96	84.359	7209.96	82.3599	7209.96	83.8041	7209.96	84.947	7209.96	81.2921	7209.96	82.1515	7209.96	77.7771	7209.96	78.0793	7209.96	75.9121	7209.96	77.1551	7209.96	72.0872	7209.96	74	7209.96	69.0941	7209.96	63.4571	7209.96	66.8234	7209.96	65.918	7209.96	63.4756	7209.96	66.5943	7209.96	61.7061	7209.96	65.6617	7209.96	61.7838	7209.96	62.6707	7209.96	62.3304	7209.96	57.01	7209.96	57.2842	7209.96	50.2282	7209.96	58.908	7209.96	47.4347	7209.96	62.6994	7209.96	56.3209	7209.96	52.2558	7209.96	50.7274	7209.96	49.8223
7464.11	86.0109	7464.11	85.5268	7464.11	85.203	7464.11	84.1607	7464.11	85.429	7464.11	83.4775	7464.11	84.5079	7464.11	80.948	7464.11	82.2254	7464.11	78.473	7464.11	78.047	7464.11	76.0624	7464.11	77.7677	7464.11	72.6549	7464.11	71.2243	7464.11	69.316	7464.11	70.0183	7464.11	67.0394	7464.11	68.0114	7464.11	62.9536	7464.11	61.1079	7464.11	61.2041	7464.11	59.4714	7464.11	61.028	7464.11	62.7879	7464.11	62.901	7464.11	59.9023	7464.11	56.6606	7464.11	52.6484	7464.11	57.2759	7464.11	59.9935	7464.11	60.1501	7464.11	59.0831	7464.11	57.7971	7464.11	53.2536	7464.11	53.539
7727.78	86.2396	7727.78	85.6036	7727.78	86.469	7727.78	84.3281	7727.78	86.9718	7727.78	83.1928	7727.78	83.6629	7727.78	81.0687	7727.78	81.1227	7727.78	78.3544	7727.78	78.6741	7727.78	76.433	7727.78	77.3754	7727.78	72.1528	7727.78	71.5717	7727.78	68.4052	7727.78	71.3515	7727.78	65.9668	7727.78	64.4233	7727.78	63.4083	7727.78	55.0698	7727.78	60.4313	7727.78	54.7626	7727.78	60.8069	7727.78	55.594	7727.78	61.5796	7727.78	61.398	7727.78	56.6957	7727.78	44.1198	7727.78	54.7587	7727.78	56.4438	7727.78	59.2273	7727.78	52.7293	7727.78	57.269	7727.78	49.7771	7727.78	53.0877
8000.24	86.3575	8000.24	85.6318	8000.24	86.8389	8000.24	84.7511	8000.24	87.14	8000.24	83.038	8000.24	83.2303	8000.24	80.7604	8000.24	79.8652	8000.24	78.5622	8000.24	80.326	8000.24	75.636	8000.24	75.6763	8000.24	72.0001	8000.24	72.8796	8000.24	66.5623	8000.24	69.6397	8000.24	64.6549	8000.24	64.7272	8000.24	61.5508	8000.24	65.3826	8000.24	61.5597	8000.24	58.9262	8000.24	60.4125	8000.24	54.714	8000.24	59.8748	8000.24	57.7538	8000.24	56.1969	8000.24	49.1009	8000.24	53.087	8000.24	55.7098	8000.24	63.5951	8000.24	54.2518	8000.24	58.2862	8000.24	52.5959	8000.24	52.8611
8282.23	86.9622	8282.23	86.4227	8282.23	86.4418	8282.23	84.3999	8282.23	85.4793	8282.23	82.6129	8282.23	81.7816	8282.23	80.1774	8282.23	79.4086	8282.23	78.5524	8282.23	80.6216	8282.23	75.5232	8282.23	74.021	8282.23	70.9946	8282.23	73.7887	8282.23	66.8168	8282.23	65.493	8282.23	64.5181	8282.23	66.3243	8282.23	60.3091	8282.23	64.8233	8282.23	58.8695	8282.23	61.603	8282.23	59.7846	8282.23	52.7467	8282.23	57.4749	8282.23	57.3337	8282.23	54.1149	8282.23	52.8914	8282.23	56.0967	8282.23	57.4146	8282.23	60.6127	8282.23	52.9684	8282.23	57.3011	8282.23	51.4844	8282.23	49.9811
8574.46	87.9505	8574.46	87.2967	8574.46	85.9947	8574.46	84.865	8574.46	82.7793	8574.46	83.2628	8574.46	81.5863	8574.46	80.9461	8574.46	81.2882	8574.46	78.3742	8574.46	80.0262	8574.46	74.3884	8574.46	74.3318	8574.46	69.2875	8574.46	72.375	8574.46	66.8575	8574.46	63.6209	8574.46	63.5748	8574.46	62.7262	8574.46	59.0369	8574.46	61.4194	8574.46	56.7426	8574.46	63.0437	8574.46	56.6259	8574.46	52.2033	8574.46	55.7674	8574.46	50.3349	8574.46	51.7468	8574.46	55.2196	8574.46	57.0085	8574.46	57.7828	8574.46	60.0287	8574.46	42.7901	8574.46	48.3468	8574.46	37.5183	8574.46	50.268
8876.22	87.5437	8876.22	86.8848	8876.22	86.0988	8876.22	85.0231	8876.22	80.3258	8876.22	83.6882	8876.22	81.8344	8876.22	81.7067	8876.22	83.2461	8876.22	78.6797	8876.22	78.938	8876.22	74.013	8876.22	76.4544	8876.22	70.8932	8876.22	70.5449	8876.22	67.0966	8876.22	68.0433	8876.22	61.7766	8876.22	62.7526	8876.22	60.0163	8876.22	66.8099	8876.22	58.3852	8876.22	63.9723	8876.22	56.9722	8876.22	59.7263	8876.22	58.243	8876.22	51.4443	8876.22	53.8302	8876.22	52.8376	8876.22	57.4702	8876.22	59.856	8876.22	59.9526	8876.22	53.2236	8876.22	56.58	8876.22	45.8261	8876.22	49.7315
9189.7	86.7916	9189.7	86.6373	9189.7	87.3027	9189.7	85.0896	9189.7	83.1028	9189.7	83.9026	9189.7	82.0951	9189.7	82.0387	9189.7	83.9413	9189.7	78.3478	9189.7	77.3149	9189.7	75.5517	9189.7	77.5895	9189.7	71.3777	9189.7	68.3838	9189.7	66.9877	9189.7	70.8424	9189.7	61.8668	9189.7	63.7175	9189.7	61.7694	9189.7	66.0254	9189.7	56.3679	9189.7	61.6248	9189.7	58.8069	9189.7	59.9058	9189.7	58.7661	9189.7	51.9487	9189.7	54.2998	9189.7	53.9353	9189.7	58.1373	9189.7	54.4365	9189.7	58.1562	9189.7	37.8938	9189.7	55.4832	9189.7	47.254	9189.7	48.8329
9513.43	86.556	9513.43	86.1594	9513.43	87.8599	9513.43	84.5951	9513.43	86.0444	9513.43	83.8859	9513.43	83.167	9513.43	82.2563	9513.43	83.7028	9513.43	78.7581	9513.43	78.8467	9513.43	75.7345	9513.43	77.3704	9513.43	69.9639	9513.43	71.559	9513.43	66.5856	9513.43	68.8931	9513.43	64.093	9513.43	61.2643	9513.43	60.6254	9513.43	63.7305	9513.43	53.1494	9513.43	60.4424	9513.43	57.3169	9513.43	58.1108	9513.43	59.5995	9513.43	52.1978	9513.43	54.3772	9513.43	48.0995	9513.43	54.2832	9513.43	44.8387	9513.43	56.0754	9513.43	52.1871	9513.43	49.6479	9513.43	35.1238	9513.43	38.9177
9848.88	85.9002	9848.88	86.1594	9848.88	86.925	9848.88	84.2917	9848.88	87.1649	9848.88	84.1257	9848.88	84.0479	9848.88	81.9117	9848.88	83.7559	9848.88	78.7339	9848.88	80.2191	9848.88	74.1588	9848.88	76.1689	9848.88	69.8379	9848.88	71.424	9848.88	64.1316	9848.88	65.8551	9848.88	62.4641	9848.88	64.2009	9848.88	56.3321	9848.88	56.3611	9848.88	55.4904	9848.88	60.5803	9848.88	56.0076	9848.88	46.8059	9848.88	57.5344	9848.88	54.1843	9848.88	53.7906	9848.88	47.9798	9848.88	54.2051	9848.88	54.6	9848.88	54.6218	9848.88	43.0363	9848.88	54.8834	9848.88	51.0609	9848.88	46.0462
10196.8	85.6887	10196.8	86.0664	10196.8	85.7635	10196.8	84.4647	10196.8	86.9864	10196.8	84.0774	10196.8	84.1769	10196.8	82.0332	10196.8	83.7315	10196.8	78.2621	10196.8	80.0095	10196.8	74.5152	10196.8	74.3258	10196.8	69.5752	10196.8	71.829	10196.8	62.792	10196.8	65.5085	10196.8	61.1225	10196.8	62.6031	10196.8	54.443	10196.8	53.7437	10196.8	56.7636	10196.8	60.4268	10196.8	57.3584	10196.8	47.3759	10196.8	58.5268	10196.8	51.5546	10196.8	52.3372	10196.8	55.9262	10196.8	48.2503	10196.8	51.5698	10196.8	57.0948	10196.8	40.6768	10196.8	58.3422	10196.8	51.5599	10196.8	48.1039
10556.4	86.6841	10556.4	85.6174	10556.4	86.1	10556.4	84.4367	10556.4	85.0091	10556.4	84.2623	10556.4	84.6286	10556.4	82.1969	10556.4	82.7487	10556.4	78.7003	10556.4	79.7885	10556.4	74.5881	10556.4	74.6098	10556.4	68.2677	10556.4	71.9899	10556.4	65.4736	10556.4	63.231	10556.4	61.9526	10556.4	63.5997	10556.4	54.6751	10556.4	60.7527	10556.4	57.9975	10556.4	58.8709	10556.4	57.5807	10556.4	52.926	10556.4	57.6386	10556.4	51.7149	10556.4	49.1769	10556.4	54.9989	10556.4	49.6425	10556.4	51.3018	10556.4	57.8589	10556.4	39.4071	10556.4	59.7277	10556.4	50.5403	10556.4	45.5425
10928.5	86.8958	10928.5	85.7151	10928.5	86.6554	10928.5	84.3735	10928.5	81.7508	10928.5	84.4552	10928.5	84.7102	10928.5	82.0779	10928.5	81.3705	10928.5	78.8501	10928.5	79.5363	10928.5	73.5053	10928.5	76.3568	10928.5	69.6386	10928.5	70.3185	10928.5	66.2189	10928.5	64.8011	10928.5	61.6197	10928.5	62.4634	10928.5	57.3821	10928.5	60.8433	10928.5	57.7073	10928.5	59.9082	10928.5	56.1263	10928.5	55.4097	10928.5	56.0282	10928.5	34.3418	10928.5	49.5048	10928.5	55.3545	10928.5	54.0127	10928.5	50.9861	10928.5	60.3731	10928.5	54.5182	10928.5	59.0632	10928.5	57.8521	10928.5	37.1296
11313.7	87.1022	11313.7	85.9252	11313.7	85.8343	11313.7	84.38	11313.7	82.1393	11313.7	84.5499	11313.7	84.0744	11313.7	82.2163	11313.7	81.9741	11313.7	77.7703	11313.7	79.4931	11313.7	74.0935	11313.7	76.7709	11313.7	71.0371	11313.7	69.5007	11313.7	65.3589	11313.7	68.6126	11313.7	60.6366	11313.7	63.6935	11313.7	58.6399	11313.7	60.2011	11313.7	55.7235	11313.7	60.1819	11313.7	56.1988	11313.7	55.5585	11313.7	53.3075	11313.7	47.7568	11313.7	49.4179	11313.7	54.3107	11313.7	55.5861	11313.7	48.3039	11313.7	59.5335	11313.7	52.6086	11313.7	57.6574	11313.7	54.1828	11313.7	35.6177
11712.9	88.0087	11712.9	86.3142	11712.9	85.9204	11712.9	84.7538	11712.9	85.1742	11712.9	84.2214	11712.9	82.7455	11712.9	82.0688	11712.9	83.1358	11712.9	77.1002	11712.9	78.7066	11712.9	73.7487	11712.9	75.9392	11712.9	70.0381	11712.9	70.667	11712.9	63.7788	11712.9	68.9187	11712.9	60.3126	11712.9	60.8385	11712.9	57.3937	11712.9	58.872	11712.9	54.6218	11712.9	58.1206	11712.9	52.8483	11712.9	49.2101	11712.9	51.7225	11712.9	46.6367	11712.9	52.2808	11712.9	49.8453	11712.9	54.5233	11712.9	43.0549	11712.9	59.1387	11712.9	55.6015	11712.9	47.4652	11712.9	51.5936	11712.9	44.0249
12126	87.9682	12126	86.2044	12126	87.1458	12126	84.8681	12126	86.5909	12126	84.0711	12126	83.0158	12126	81.6288	12126	83.6905	12126	77.2181	12126	79.3394	12126	73.1356	12126	74.2084	12126	69.2301	12126	71.4566	12126	63.5706	12126	61.0495	12126	58.7662	12126	61.1416	12126	53.017	12126	56.7134	12126	52.1306	12126	58.8501	12126	54.5382	12126	54.9804	12126	54.9785	12126	34.2302	12126	52.6546	12126	39.8047	12126	52.9466	12126	44.0706	12126	57.3613	12126	50.9831	12126	53.1884	12126	47.2414	12126	51.8902
12553.7	87.481	12553.7	86.4299	12553.7	86.8603	12553.7	84.667	12553.7	86.5301	12553.7	84.3157	12553.7	83.3663	12553.7	82.0749	12553.7	84.4075	12553.7	77.7486	12553.7	79.4135	12553.7	73.4337	12553.7	74.06	12553.7	69.0794	12553.7	70.121	12553.7	63.4053	12553.7	65.2594	12553.7	58.7308	12553.7	63.122	12553.7	50.8594	12553.7	51.5744	12553.7	55.0848	12553.7	57.1798	12553.7	56.1168	12553.7	53.3672	12553.7	53.8955	12553.7	39.8805	12553.7	53.7927	12553.7	52.2175	12553.7	50.8468	12553.7	40.3866	12553.7	57.0544	12553.7	54.0982	12553.7	45.5315	12553.7	49.566	12553.7	50.6917
12996.1	87.2021	12996.1	85.5953	12996.1	86.2405	12996.1	84.3813	12996.1	85.1511	12996.1	84.2949	12996.1	84.3144	12996.1	81.8285	12996.1	83.6877	12996.1	77.9621	12996.1	78.4769	12996.1	72.8711	12996.1	76.6917	12996.1	69.3825	12996.1	70.0036	12996.1	64.2316	12996.1	67.1582	12996.1	57.4694	12996.1	59.369	12996.1	54.5056	12996.1	59.9886	12996.1	52.9697	12996.1	58.1862	12996.1	53.9133	12996.1	46.2512	12996.1	52.1557	12996.1	53.7493	12996.1	54.1602	12996.1	50.446	12996.1	52.7637	12996.1	45.3291	12996.1	51.2752	12996.1	52.418	12996.1	49.5427	12996.1	50.4453	12996.1	44.6846
13454.6	87.154	13454.6	86.125	13454.6	86.4822	13454.6	84.5419	13454.6	85.1332	13454.6	84.5976	13454.6	84.9454	13454.6	81.702	13454.6	82.7976	13454.6	78.2215	13454.6	79.1552	13454.6	72.9932	13454.6	75.4451	13454.6	69.1037	13454.6	70.5516	13454.6	64.5013	13454.6	64.6766	13454.6	58.1654	13454.6	59.7613	13454.6	53.6391	13454.6	60.8718	13454.6	53.1919	13454.6	57.939	13454.6	54.6424	13454.6	47.4395	13454.6	53.669	13454.6	55.349	13454.6	48.7743	13454.6	54.0893	13454.6	54.5301	13454.6	46.6484	13454.6	55.2419	13454.6	40.3955	13454.6	45.505	13454.6	48.4563	13454.6	41.7572
13928.5	86.7332	13928.5	85.845	13928.5	86.9612	13928.5	84.639	13928.5	85.1411	13928.5	85.0871	13928.5	84.9434	13928.5	81.9401	13928.5	82.9435	13928.5	78.2678	13928.5	80.166	13928.5	72.9778	13928.5	74.8005	13928.5	69.0743	13928.5	69.9449	13928.5	63.797	13928.5	65.0283	13928.5	58.5028	13928.5	60.6848	13928.5	51.2461	13928.5	56.7773	13928.5	53.9789	13928.5	57.538	13928.5	55.1684	13928.5	53.8975	13928.5	53.7217	13928.5	49.171	13928.5	50.5893	13928.5	51.0791	13928.5	52.2321	13928.5	44.3459	13928.5	54.5139	13928.5	55.0928	13928.5	48.3683	13928.5	48.8095	13928.5	41.7901
14419.9	86.1883	14419.9	85.5006	14419.9	85.962	14419.9	84.0025	14419.9	84.5113	14419.9	84.747	14419.9	84.2551	14419.9	81.7987	14419.9	82.3962	14419.9	78.172	14419.9	79.4308	14419.9	72.9455	14419.9	75.5337	14419.9	69.3507	14419.9	69.9394	14419.9	64.9837	14419.9	65.0218	14419.9	57.8477	14419.9	57.8854	14419.9	54.7992	14419.9	56.4308	14419.9	53.634	14419.9	52.0425	14419.9	53.7517	14419.9	57.5051	14419.9	51.2334	14419.9	50.0247	14419.9	53.2134	14419.9	49.0329	14419.9	51.9694	14419.9	30.6448	14419.9	53.0799	14419.9	52.8443	14419.9	51.1647	14419.9	51.1892	14419.9	39.2368
14928.2	86.2544	14928.2	85.3302	14928.2	85.7784	14928.2	83.8386	14928.2	84.3701	14928.2	83.8715	14928.2	83.4168	14928.2	81.565	14928.2	81.6249	14928.2	77.8436	14928.2	78.5375	14928.2	72.5968	14928.2	74.7286	14928.2	69.6243	14928.2	70.7678	14928.2	64.9202	14928.2	65.42	14928.2	57.4922	14928.2	58.8802	14928.2	54.4155	14928.2	55.0393	14928.2	48.9779	14928.2	56.4666	14928.2	50.8909	14928.2	55.0183	14928.2	46.691	14928.2	49.9586	14928.2	53.0227	14928.2	52.7328	14928.2	50.3005	14928.2	43.9091	14928.2	50.8322	14928.2	50.6812	14928.2	55.0911	14928.2	53.6072	14928.2	43.5988
15454.8	86.3615	15454.8	85.4471	15454.8	86.467	15454.8	83.7832	15454.8	84.5445	15454.8	83.6759	15454.8	82.5278	15454.8	81.1943	15454.8	81.8412	15454.8	77.2342	15454.8	78.1135	15454.8	72.3245	15454.8	74.7438	15454.8	68.9232	15454.8	69.0485	15454.8	62.9574	15454.8	64.6885	15454.8	56.5153	15454.8	56.6044	15454.8	48.9087	15454.8	57.8282	15454.8	52.6958	15454.8	57.32	15454.8	51.0364	15454.8	50.6045	15454.8	47.234	15454.8	45.7583	15454.8	49.4452	15454.8	51.9808	15454.8	51.7167	15454.8	50.9618	15454.8	54.5123	15454.8	53.8235	15454.8	58.1155	15454.8	50.4521	15454.8	46.3403
15999.8	85.6446	15999.8	85.5927	15999.8	85.5993	15999.8	83.6513	15999.8	83.4603	15999.8	83.3777	15999.8	82.6842	15999.8	80.5738	15999.8	82.4736	15999.8	76.5093	15999.8	78.2083	15999.8	71.6583	15999.8	74.5822	15999.8	67.4055	15999.8	68.3837	15999.8	61.136	15999.8	62.3912	15999.8	54.5907	15999.8	56.0463	15999.8	41.6594	15999.8	56.41	15999.8	52.0409	15999.8	55.872	15999.8	51.2396	15999.8	50.6146	15999.8	48.6651	15999.8	44.0321	15999.8	49.5899	15999.8	51.9893	15999.8	51.9003	15999.8	45.057	15999.8	53.468	15999.8	53.9512	15999.8	58.3725	15999.8	56.0381	15999.8	31.4942
16564.5	85.214	16564.5	84.731	16564.5	84.9417	16564.5	82.8524	16564.5	84.0702	16564.5	83.0385	16564.5	82.5851	16564.5	80.2722	16564.5	82.5061	16564.5	76.1745	16564.5	76.8394	16564.5	71.3436	16564.5	73.6009	16564.5	66.8034	16564.5	67.925	16564.5	62.1996	16564.5	61.9404	16564.5	54.5652	16564.5	55.4926	16564.5	47.6805	16564.5	55.0471	16564.5	51.9966	16564.5	51.9935	16564.5	50.9986	16564.5	57.5536	16564.5	48.361	16564.5	53.6645	16564.5	52.3877	16564.5	55.3344	16564.5	46.4344	16564.5	37.9806	16564.5	50.1608	16564.5	54.3754	16564.5	57.7209	16564.5	53.8234	16564.5	44.0623
17148.2	84.2398	17148.2	84.3375	17148.2	85.1114	17148.2	82.0145	17148.2	83.3871	17148.2	82.7741	17148.2	81.8192	17148.2	79.5682	17148.2	80.8228	17148.2	76.1385	17148.2	77.3976	17148.2	70.7747	17148.2	72.6149	17148.2	67.2867	17148.2	67.3278	17148.2	62.5222	17148.2	60.2886	17148.2	52.6675	17148.2	55.3649	17148.2	42.2682	17148.2	53.8751	17148.2	54.3055	17148.2	56.2763	17148.2	51.9289	17148.2	54.4778	17148.2	49.3499	17148.2	54.4595	17148.2	51.3902	17148.2	49.5947	17148.2	43.2606	17148.2	46.3944	17148.2	53.7545	17148.2	53.8416	17148.2	59.2878	17148.2	55.0411	17148.2	41.1143
17753.2	83.451	17753.2	84.2227	17753.2	84.241	17753.2	81.419	17753.2	82.1298	17753.2	82.0956	17753.2	82.0084	17753.2	78.6883	17753.2	80.4901	17753.2	75.6843	17753.2	77.7654	17753.2	69.9783	17753.2	72.661	17753.2	67.784	17753.2	65.9564	17753.2	62.106	17753.2	63.4989	17753.2	51.0461	17753.2	50.7631	17753.2	48.1787	17753.2	52.2709	17753.2	54.2723	17753.2	48.1693	17753.2	51.9295	17753.2	57.6718	17753.2	47.2621	17753.2	57.1469	17753.2	47.9836	17753.2	46.1133	17753.2	46.4467	17753.2	45.1826	17753.2	53.0815	17753.2	53.5757	17753.2	60.4824	17753.2	55.2608	17753.2	39.684
18379.4	82.4198	18379.4	83.3443	18379.4	84.1707	18379.4	80.8061	18379.4	80.9068	18379.4	81.4792	18379.4	81.7282	18379.4	78.0938	18379.4	79.3341	18379.4	74.981	18379.4	75.9222	18379.4	69.4799	18379.4	71.5019	18379.4	67.0338	18379.4	66.0156	18379.4	60.5304	18379.4	61.0547	18379.4	50.391	18379.4	53.6054	18379.4	48.6711	18379.4	54.3164	18379.4	49.0812	18379.4	53.8981	18379.4	46.2416	18379.4	56.1324	18379.4	22.4501	18379.4	51.4868	18379.4	44.6618	18379.4	54.4777	18379.4	41.8854	18379.4	42.8107	18379.4	50.6624	18379.4	53.3797	18379.4	56.5188	18379.4	53.5081	18379.4	45.0077
19027.6	81.6351	19027.6	82.4591	19027.6	82.2426	19027.6	80.4697	19027.6	81.634	19027.6	80.957	19027.6	80.6656	19027.6	77.9646	19027.6	79.1609	19027.6	74.0112	19027.6	74.5181	19027.6	68.9994	19027.6	70.4121	19027.6	64.8665	19027.6	65.907	19027.6	58.6397	19027.6	57.2441	19027.6	45.577	19027.6	49.7054	19027.6	43.1411	19027.6	54.3314	19027.6	48.4051	19027.6	52.6437	19027.6	45.4434	19027.6	56.2256	19027.6	41.9643	19027.6	53.1219	19027.6	46.8402	19027.6	44.2328	19027.6	42.2216	19027.6	39.1794	19027.6	38.9406	19027.6	44.0198	19027.6	49.8654	19027.6	49.2544	19027.6	37.5659
19698.5	81.3404	19698.5	81.7502	19698.5	83.0849	19698.5	79.77	19698.5	81.7893	19698.5	80.472	19698.5	78.7496	19698.5	77.7794	19698.5	79.3069	19698.5	73.2988	19698.5	74.2744	19698.5	67.7868	19698.5	69.4546	19698.5	62.9982	19698.5	62.5584	19698.5	56.2766	19698.5	55.9681	19698.5	27.8204	19698.5	47.689	19698.5	47.1187	19698.5	52.6258	19698.5	48.6822	19698.5	52.8541	19698.5	44.1525	19698.5	55.6656	19698.5	47.2421	19698.5	55.5215	19698.5	47.4338	19698.5	49.7626	19698.5	49.3602	19698.5	40.2988	19698.5	51.1655	19698.5	47.3655	19698.5	55.7173	19698.5	51.88	19698.5	31.6545
19999.5	81.3711	19999.5	81.5651	19999.5	83.0279	19999.5	79.3281	19999.5	80.892	19999.5	80.0764	19999.5	78.5304	19999.5	77.5574	19999.5	78.6469	19999.5	73.2831	19999.5	73.9973	19999.5	67.828	19999.5	70.1478	19999.5	61.8447	19999.5	58.1663	19999.5	59.4938	19999.5	57.2315	19999.5	39.3853	19999.5	45.6528	19999.5	43.7008	19999.5	54.3143	19999.5	44.946	19999.5	50.4075	19999.5	48.6508	19999.5	51.54	19999.5	45.2537	19999.5	57.4672	19999.5	53.4319	19999.5	48.0731	19999.5	53.0297	19999.5	45.1654	19999.5	54.2958	19999.5	35.6573	19999.5	56.235	19999.5	50.2409	19999.5	41.1193
