"SPL Horizontal"
"On-Axis"		"10°"		"-10°"		"20°"		"-20°"		"30°"		"-30°"		"40°"		"-40°"		"50°"		"-50°"		"60°"		"-60°"		"70°"		"-70°"		"80°"		"-80°"		"90°"		"-90°"		"100°"		"-100°"		"110°"		"-110°"		"120°"		"-120°"		"130°"		"-130°"		"140°"		"-140°"		"150°"		"-150°"		"160°"		"-160°"		"170°"		"-170°"		"180°"
"Frequency [Hz]"	"Sound Pessure Level [dB]  / [2.83V 1m] "	"Frequency [Hz]"	"Sound Pessure Level [dB]  / [2.83V 1m] "	"Frequency [Hz]"	"Sound Pessure Level [dB]  / [2.83V 1m] "	"Frequency [Hz]"	"Sound Pessure Level [dB]  / [2.83V 1m] "	"Frequency [Hz]"	"Sound Pessure Level [dB]  / [2.83V 1m] "	"Frequency [Hz]"	"Sound Pessure Level [dB]  / [2.83V 1m] "	"Frequency [Hz]"	"Sound Pessure Level [dB]  / [2.83V 1m] "	"Frequency [Hz]"	"Sound Pessure Level [dB]  / [2.83V 1m] "	"Frequency [Hz]"	"Sound Pessure Level [dB]  / [2.83V 1m] "	"Frequency [Hz]"	"Sound Pessure Level [dB]  / [2.83V 1m] "	"Frequency [Hz]"	"Sound Pessure Level [dB]  / [2.83V 1m] "	"Frequency [Hz]"	"Sound Pessure Level [dB]  / [2.83V 1m] "	"Frequency [Hz]"	"Sound Pessure Level [dB]  / [2.83V 1m] "	"Frequency [Hz]"	"Sound Pessure Level [dB]  / [2.83V 1m] "	"Frequency [Hz]"	"Sound Pessure Level [dB]  / [2.83V 1m] "	"Frequency [Hz]"	"Sound Pessure Level [dB]  / [2.83V 1m] "	"Frequency [Hz]"	"Sound Pessure Level [dB]  / [2.83V 1m] "	"Frequency [Hz]"	"Sound Pessure Level [dB]  / [2.83V 1m] "	"Frequency [Hz]"	"Sound Pessure Level [dB]  / [2.83V 1m] "	"Frequency [Hz]"	"Sound Pessure Level [dB]  / [2.83V 1m] "	"Frequency [Hz]"	"Sound Pessure Level [dB]  / [2.83V 1m] "	"Frequency [Hz]"	"Sound Pessure Level [dB]  / [2.83V 1m] "	"Frequency [Hz]"	"Sound Pessure Level [dB]  / [2.83V 1m] "	"Frequency [Hz]"	"Sound Pessure Level [dB]  / [2.83V 1m] "	"Frequency [Hz]"	"Sound Pessure Level [dB]  / [2.83V 1m] "	"Frequency [Hz]"	"Sound Pessure Level [dB]  / [2.83V 1m] "	"Frequency [Hz]"	"Sound Pessure Level [dB]  / [2.83V 1m] "	"Frequency [Hz]"	"Sound Pessure Level [dB]  / [2.83V 1m] "	"Frequency [Hz]"	"Sound Pessure Level [dB]  / [2.83V 1m] "	"Frequency [Hz]"	"Sound Pessure Level [dB]  / [2.83V 1m] "	"Frequency [Hz]"	"Sound Pessure Level [dB]  / [2.83V 1m] "	"Frequency [Hz]"	"Sound Pessure Level [dB]  / [2.83V 1m] "	"Frequency [Hz]"	"Sound Pessure Level [dB]  / [2.83V 1m] "	"Frequency [Hz]"	"Sound Pessure Level [dB]  / [2.83V 1m] "	"Frequency [Hz]"	"Sound Pessure Level [dB]  / [2.83V 1m] "	"Frequency [Hz]"	"Sound Pessure Level [dB]  / [2.83V 1m] "
20.5078	50.5034	20.5078	50.7952	20.5078	50.7257	20.5078	51.5955	20.5078	51.4547	20.5078	52.8503	20.5078	52.644	20.5078	54.4328	20.5078	54.1753	20.5078	56.1848	20.5078	55.89	20.5078	57.9737	20.5078	57.6494	20.5078	59.713	20.5078	59.3615	20.5078	61.3548	20.5078	60.9768	20.5078	62.8749	20.5078	62.4734	20.5078	64.2616	20.5078	63.8439	20.5078	65.5084	20.5078	65.0866	20.5078	66.6099	20.5078	66.2002	20.5078	67.5595	20.5078	67.1801	20.5078	68.3484	20.5078	68.0179	20.5078	68.9662	20.5078	68.7016	20.5078	69.4024	20.5078	69.2178	20.5078	69.6483	20.5078	69.5535	20.5078	69.6988
21.9727	61.1202	21.9727	61.2161	21.9727	61.1328	21.9727	61.4255	21.9727	61.2651	21.9727	61.765	21.9727	61.5413	21.9727	62.2535	21.9727	61.988	21.9727	62.9003	21.9727	62.6188	21.9727	63.6961	21.9727	63.4229	21.9727	64.6121	21.9727	64.3643	21.9727	65.6069	21.9727	65.3927	21.9727	66.6362	21.9727	66.456	21.9727	67.6591	21.9727	67.5093	21.9727	68.6413	21.9727	68.517	21.9727	69.5546	21.9727	69.4514	21.9727	70.3749	21.9727	70.2899	21.9727	71.0807	21.9727	71.0125	21.9727	71.6523	21.9727	71.6007	21.9727	72.0723	21.9727	72.0376	21.9727	72.327	21.9727	72.3095	21.9727	72.4071
23.4375	62.6531	23.4375	62.6626	23.4375	62.6553	23.4375	62.6988	23.4375	62.6817	23.4375	62.8027	23.4375	62.7723	23.4375	63.034	23.4375	62.9894	23.4375	63.4546	23.4375	63.3999	23.4375	64.1023	23.4375	64.0463	23.4375	64.9699	23.4375	64.9218	23.4375	66.0072	23.4375	65.9721	23.4375	67.142	23.4375	67.1201	23.4375	68.3034	23.4375	68.2914	23.4375	69.4334	23.4375	69.4273	23.4375	70.4879	23.4375	70.4845	23.4375	71.4334	23.4375	71.4308	23.4375	72.2437	23.4375	72.2412	23.4375	72.8975	23.4375	72.8951	23.4375	73.3775	23.4375	73.3757	23.4375	73.6708	23.4375	73.6698	23.4375	73.7691
24.9023	67.4774	24.9023	67.4771	24.9023	67.5018	24.9023	67.5088	24.9023	67.5577	24.9023	67.5947	24.9023	67.6673	24.9023	67.7686	24.9023	67.8644	24.9023	68.0683	24.9023	68.1864	24.9023	68.5237	24.9023	68.6627	24.9023	69.1449	24.9023	69.3016	24.9023	69.9152	24.9023	70.0844	24.9023	70.7959	24.9023	70.9707	24.9023	71.7371	24.9023	71.9097	24.9023	72.6883	24.9023	72.8512	24.9023	73.6041	24.9023	73.7512	24.9023	74.4462	24.9023	74.5726	24.9023	75.1826	24.9023	75.2853	24.9023	75.7868	24.9023	75.8643	24.9023	76.2378	24.9023	76.2894	24.9023	76.5199	24.9023	76.5457	24.9023	76.6236
26.3672	70.9884	26.3672	71.0105	26.3672	70.9936	26.3672	71.0663	26.3672	71.0309	26.3672	71.1721	26.3672	71.1161	26.3672	71.352	26.3672	71.2743	26.3672	71.6324	26.3672	71.5352	26.3672	72.0353	26.3672	71.9249	26.3672	72.5701	26.3672	72.4566	26.3672	73.2285	26.3672	73.1227	26.3672	73.985	26.3672	73.8958	26.3672	74.803	26.3672	74.7349	26.3672	75.6411	26.3672	75.5941	26.3672	76.4586	26.3672	76.4294	26.3672	77.2183	26.3672	77.2022	26.3672	77.8874	26.3672	77.8798	26.3672	78.4382	26.3672	78.4353	26.3672	78.8484	26.3672	78.8476	26.3672	79.1013	26.3672	79.1013	26.3672	79.1869
27.832	74.4172	27.832	74.436	27.832	74.4289	27.832	74.4892	27.832	74.4743	27.832	74.5872	27.832	74.5638	27.832	74.7458	27.832	74.7135	27.832	74.983	27.832	74.9428	27.832	75.3153	27.832	75.2695	27.832	75.7522	27.832	75.7045	27.832	76.292	27.832	76.2468	27.832	76.9209	27.832	76.881	27.832	77.6135	27.832	77.5803	27.832	78.3374	27.832	78.3102	27.832	79.0567	27.832	79.0339	27.832	79.7355	27.832	79.7157	27.832	80.3406	27.832	80.3231	27.832	80.8429	27.832	80.8281	27.832	81.2185	27.832	81.2075	27.832	81.4497	27.832	81.4438	27.832	81.5259
29.2969	77.5787	29.2969	77.5944	29.2969	77.5931	29.2969	77.6427	29.2969	77.6399	29.2969	77.7311	29.2969	77.7267	29.2969	77.8712	29.2969	77.8649	29.2969	78.0765	29.2969	78.0681	29.2969	78.3601	29.2969	78.3497	29.2969	78.7308	29.2969	78.7187	29.2969	79.1899	29.2969	79.1766	29.2969	79.7291	29.2969	79.715	29.2969	80.3304	29.2969	80.3158	29.2969	80.9678	29.2969	80.9529	29.2969	81.6105	29.2969	81.5956	29.2969	82.2256	29.2969	82.2109	29.2969	82.7807	29.2969	82.767	29.2969	83.2462	29.2969	83.2345	29.2969	83.5971	29.2969	83.5885	29.2969	83.8145	29.2969	83.8099	29.2969	83.8867
30.7617	80.2688	30.7617	80.2934	30.7617	80.2756	30.7617	80.3523	30.7617	80.3152	30.7617	80.4513	30.7617	80.3924	30.7617	80.599	30.7617	80.5155	30.7617	80.8052	30.7617	80.695	30.7617	81.0787	30.7617	80.9417	30.7617	81.4253	30.7617	81.2644	30.7617	81.845	30.7617	81.6662	30.7617	82.331	30.7617	82.143	30.7617	82.8689	30.7617	82.6816	30.7617	83.4375	30.7617	83.2606	30.7617	84.0113	30.7617	83.8524	30.7617	84.5617	30.7617	84.4262	30.7617	85.0596	30.7617	84.9506	30.7617	85.4775	30.7617	85.3961	30.7617	85.7914	30.7617	85.7375	30.7617	85.9824	30.7617	85.9556	30.7617	86.0386
32.2266	83.055	32.2266	83.0822	32.2266	83.0604	32.2266	83.1435	32.2266	83.0999	32.2266	83.2429	32.2266	83.1776	32.2266	83.3862	32.2266	83.2998	32.2266	83.58	32.2266	83.4745	32.2266	83.8305	32.2266	83.7096	32.2266	84.1422	32.2266	84.011	32.2266	84.5155	32.2266	84.3808	32.2266	84.9463	32.2266	84.8151	32.2266	85.4244	32.2266	85.3032	32.2266	85.9341	32.2266	85.8275	32.2266	86.4545	32.2266	86.3649	32.2266	86.9604	32.2266	86.8881	32.2266	87.4245	32.2266	87.3687	32.2266	87.8195	32.2266	87.7788	32.2266	88.1203	32.2266	88.0937	32.2266	88.3068	32.2266	88.2936	32.2266	88.3661
33.6914	85.3554	33.6914	85.3782	33.6914	85.3675	33.6914	85.4369	33.6914	85.4158	33.6914	85.5339	33.6914	85.503	33.6914	85.673	33.6914	85.6335	33.6914	85.8588	33.6914	85.8123	33.6914	86.0956	33.6914	86.0442	33.6914	86.3862	33.6914	86.3326	33.6914	86.7308	33.6914	86.678	33.6914	87.1259	33.6914	87.0765	33.6914	87.5633	33.6914	87.5193	33.6914	88.0297	33.6914	87.9924	33.6914	88.507	33.6914	88.4765	33.6914	88.9728	33.6914	88.9487	33.6914	89.4023	33.6914	89.3837	33.6914	89.7697	33.6914	89.756	33.6914	90.0512	33.6914	90.0421	33.6914	90.2276	33.6914	90.223	33.6914	90.2863
35.1562	87.4258	35.1562	87.4439	35.1562	87.4423	35.1562	87.4975	35.1562	87.4944	35.1562	87.5882	35.1562	87.5835	35.1562	87.7186	35.1562	87.7126	35.1562	87.8916	35.1562	87.8845	35.1562	88.1102	35.1562	88.1023	35.1562	88.3761	35.1562	88.3679	35.1562	88.6892	35.1562	88.6811	35.1562	89.0466	35.1562	89.039	35.1562	89.4414	35.1562	89.4347	35.1562	89.8627	35.1562	89.8569	35.1562	90.2949	35.1562	90.2899	35.1562	90.7184	35.1562	90.7139	35.1562	91.1105	35.1562	91.1064	35.1562	91.4476	35.1562	91.444	35.1562	91.707	35.1562	91.7043	35.1562	91.8704	35.1562	91.8689	35.1562	91.9258
36.6211	89.2599	36.6211	89.2802	36.6211	89.2733	36.6211	89.3346	36.6211	89.3207	36.6211	89.4242	36.6211	89.4032	36.6211	89.5505	36.6211	89.5224	36.6211	89.7152	36.6211	89.6803	36.6211	89.9199	36.6211	89.8787	36.6211	90.1653	36.6211	90.1188	36.6211	90.4508	36.6211	90.4004	36.6211	90.7737	36.6211	90.7211	36.6211	91.1283	36.6211	91.0755	36.6211	91.5057	36.6211	91.4544	36.6211	91.8927	36.6211	91.8448	36.6211	92.2725	36.6211	92.2296	36.6211	92.6249	36.6211	92.5884	36.6211	92.9283	36.6211	92.8994	36.6211	93.1616	36.6211	93.1415	36.6211	93.3072	36.6211	93.2969	36.6211	93.3536
38.0859	90.7609	38.0859	90.7831	38.0859	90.7715	38.0859	90.8382	38.0859	90.8153	38.0859	90.9267	38.0859	90.8928	38.0859	91.0493	38.0859	91.0049	38.0859	91.2067	38.0859	91.1528	38.0859	91.3994	38.0859	91.3374	38.0859	91.6274	38.0859	91.5591	38.0859	91.8896	38.0859	91.8173	38.0859	92.1835	38.0859	92.1097	38.0859	92.5043	38.0859	92.4317	38.0859	92.8444	38.0859	92.7755	38.0859	93.1928	38.0859	93.1299	38.0859	93.535	38.0859	93.4799	38.0859	93.8532	38.0859	93.8072	38.0859	94.1277	38.0859	94.0921	38.0859	94.3391	38.0859	94.3148	38.0859	94.4709	38.0859	94.4585	38.0859	94.512
39.5508	91.8697	39.5508	91.892	39.5508	91.8791	39.5508	91.9459	39.5508	91.9205	39.5508	92.0314	39.5508	91.9942	39.5508	92.1485	39.5508	92.1005	39.5508	92.2973	39.5508	92.2399	39.5508	92.4774	39.5508	92.4125	39.5508	92.6882	39.5508	92.618	39.5508	92.9284	39.5508	92.8553	39.5508	93.1954	39.5508	93.1221	39.5508	93.4853	39.5508	93.4143	39.5508	93.7917	39.5508	93.7252	39.5508	94.1053	39.5508	94.0453	39.5508	94.4137	39.5508	94.3617	39.5508	94.7012	39.5508	94.6582	39.5508	94.9501	39.5508	94.917	39.5508	95.1425	39.5508	95.1198	39.5508	95.2626	39.5508	95.2511	39.5508	95.3
41.0156	92.5002	41.0156	92.5179	41.0156	92.5135	41.0156	92.5665	41.0156	92.5578	41.0156	92.6457	41.0156	92.633	41.0156	92.7551	41.0156	92.739	41.0156	92.8941	41.0156	92.8756	41.0156	93.062	41.0156	93.0426	41.0156	93.2577	41.0156	93.2394	41.0156	93.4799	41.0156	93.4651	41.0156	93.7268	41.0156	93.7176	41.0156	93.9952	41.0156	93.9932	41.0156	94.2804	41.0156	94.2857	41.0156	94.5748	41.0156	94.5863	41.0156	94.8675	41.0156	94.8825	41.0156	95.1436	41.0156	95.1593	41.0156	95.3859	41.0156	95.3996	41.0156	95.5762	41.0156	95.5861	41.0156	95.6987	41.0156	95.7038	41.0156	95.7426
42.4805	93.0262	42.4805	93.0325	42.4805	93.05	42.4805	93.0689	42.4805	93.1037	42.4805	93.1352	42.4805	93.1867	42.4805	93.2308	42.4805	93.2983	42.4805	93.3551	42.4805	93.4374	42.4805	93.5071	42.4805	93.6028	42.4805	93.6859	42.4805	93.7929	42.4805	93.8903	42.4805	94.0058	42.4805	94.1187	42.4805	94.2389	42.4805	94.3682	42.4805	94.4888	42.4805	94.6346	42.4805	94.7505	42.4805	94.9105	42.4805	95.0167	42.4805	95.1856	42.4805	95.2778	42.4805	95.4459	42.4805	95.521	42.4805	95.6752	42.4805	95.7316	42.4805	95.8567	42.4805	95.894	42.4805	95.9759	42.4805	95.9944	42.4805	96.0229
43.9453	93.3746	43.9453	93.3765	43.9453	93.4016	43.9453	93.4073	43.9453	93.4573	43.9453	93.4669	43.9453	93.5406	43.9453	93.5545	43.9453	93.6506	43.9453	93.6694	43.9453	93.7857	43.9453	93.8107	43.9453	93.9441	43.9453	93.9772	43.9453	94.124	43.9453	94.1679	43.9453	94.3231	43.9453	94.3808	43.9453	94.5389	43.9453	94.6135	43.9453	94.7683	43.9453	94.8616	43.9453	95.0068	43.9453	95.1183	43.9453	95.2483	43.9453	95.3738	43.9453	95.4843	43.9453	95.6154	43.9453	95.7038	43.9453	95.8282	43.9453	95.8936	43.9453	95.9969	43.9453	96.0396	43.9453	96.1083	43.9453	96.1293	43.9453	96.1533
45.4102	93.6016	45.4102	93.6076	45.4102	93.6232	45.4102	93.6411	45.4102	93.672	45.4102	93.7016	45.4102	93.7471	45.4102	93.7884	45.4102	93.8472	45.4102	93.9003	45.4102	93.9707	45.4102	94.0361	45.4102	94.1157	45.4102	94.1943	45.4102	94.28	45.4102	94.3734	45.4102	94.4614	45.4102	94.5711	45.4102	94.6573	45.4102	94.7845	45.4102	94.8647	45.4102	95.0093	45.4102	95.08	45.4102	95.2393	45.4102	95.2978	45.4102	95.4657	45.4102	95.511	45.4102	95.6776	45.4102	95.71	45.4102	95.8622	45.4102	95.8835	45.4102	96.0065	45.4102	96.0188	45.4102	96.0992	45.4102	96.1047	45.4102	96.1326
46.875	93.7035	46.875	93.7167	46.875	93.7172	46.875	93.7564	46.875	93.7574	46.875	93.8218	46.875	93.8231	46.875	93.9118	46.875	93.9131	46.875	94.0244	46.875	94.0253	46.875	94.1577	46.875	94.1577	46.875	94.3094	46.875	94.3079	46.875	94.4772	46.875	94.4734	46.875	94.6583	46.875	94.6516	46.875	94.8497	46.875	94.8396	46.875	95.0474	46.875	95.034	46.875	95.2463	46.875	95.2301	46.875	95.4398	46.875	95.4219	46.875	95.619	46.875	95.6011	46.875	95.7739	46.875	95.7579	46.875	95.8936	46.875	95.8816	46.875	95.9685	46.875	95.9621	46.875	95.992
48.3398	93.639	48.3398	93.6545	48.3398	93.6503	48.3398	93.6962	48.3398	93.6881	48.3398	93.7631	48.3398	93.7514	48.3398	93.8534	48.3398	93.8385	48.3398	93.9649	48.3398	93.9474	48.3398	94.0952	48.3398	94.0755	48.3398	94.2414	48.3398	94.2199	48.3398	94.4008	48.3398	94.3778	48.3398	94.5706	48.3398	94.5463	48.3398	94.7477	48.3398	94.7224	48.3398	94.9285	48.3398	94.9026	48.3398	95.1088	48.3398	95.0829	48.3398	95.2829	48.3398	95.2579	48.3398	95.4435	48.3398	95.4206	48.3398	95.5818	48.3398	95.5625	48.3398	95.6884	48.3398	95.6744	48.3398	95.7548	48.3398	95.7474	48.3398	95.7751
51.2695	93.5644	51.2695	93.5793	51.2695	93.5728	51.2695	93.617	51.2695	93.6042	51.2695	93.6764	51.2695	93.6577	51.2695	93.7556	51.2695	93.7316	51.2695	93.8521	51.2695	93.8236	51.2695	93.9633	51.2695	93.9311	51.2695	94.0862	51.2695	94.0514	51.2695	94.2178	51.2695	94.1816	51.2695	94.3551	51.2695	94.3187	51.2695	94.4955	51.2695	94.46	51.2695	94.6361	51.2695	94.6026	51.2695	94.7739	51.2695	94.7434	51.2695	94.9054	51.2695	94.8786	51.2695	95.0258	51.2695	95.0034	51.2695	95.1293	51.2695	95.1118	51.2695	95.2092	51.2695	95.1971	51.2695	95.2589	51.2695	95.2528	51.2695	95.274
52.7344	93.5175	52.7344	93.5299	52.7344	93.5279	52.7344	93.5648	52.7344	93.5607	52.7344	93.6209	52.7344	93.615	52.7344	93.6962	52.7344	93.6888	52.7344	93.7883	52.7344	93.7796	52.7344	93.8941	52.7344	93.8848	52.7344	94.0106	52.7344	94.0011	52.7344	94.1344	52.7344	94.1254	52.7344	94.2625	52.7344	94.2548	52.7344	94.3922	52.7344	94.3861	52.7344	94.5207	52.7344	94.5167	52.7344	94.6457	52.7344	94.6436	52.7344	94.7641	52.7344	94.7637	52.7344	94.8723	52.7344	94.8729	52.7344	94.9654	52.7344	94.9665	52.7344	95.0379	52.7344	95.0389	52.7344	95.0843	52.7344	95.0849	52.7344	95.1005
54.1992	93.5139	54.1992	93.5226	54.1992	93.527	54.1992	93.5526	54.1992	93.5614	54.1992	93.603	54.1992	93.616	54.1992	93.6718	54.1992	93.6889	54.1992	93.7565	54.1992	93.7775	54.1992	93.8545	54.1992	93.8791	54.1992	93.9626	54.1992	93.9905	54.1992	94.0776	54.1992	94.1084	54.1992	94.1967	54.1992	94.2297	54.1992	94.3172	54.1992	94.3515	54.1992	94.4366	54.1992	94.4709	54.1992	94.5525	54.1992	94.5854	54.1992	94.6622	54.1992	94.6922	54.1992	94.7625	54.1992	94.788	54.1992	94.8489	54.1992	94.8689	54.1992	94.9168	54.1992	94.9304	54.1992	94.9613	54.1992	94.9682	54.1992	94.9788
55.6641	93.5357	55.6641	93.5442	55.6641	93.5479	55.6641	93.573	55.6641	93.5804	55.6641	93.621	55.6641	93.6322	55.6641	93.6863	55.6641	93.7014	55.6641	93.7668	55.6641	93.7857	55.6641	93.8595	55.6641	93.8821	55.6641	93.9616	55.6641	93.9875	55.6641	94.0699	55.6641	94.0984	55.6641	94.1816	55.6641	94.2115	55.6641	94.2939	55.6641	94.324	55.6641	94.4041	55.6641	94.4329	55.6641	94.5098	55.6641	94.5359	55.6641	94.6084	55.6641	94.6308	55.6641	94.697	55.6641	94.715	55.6641	94.7723	55.6641	94.7855	55.6641	94.8304	55.6641	94.839	55.6641	94.8678	55.6641	94.872	55.6641	94.882
58.5938	93.5318	58.5938	93.5405	58.5938	93.5423	58.5938	93.5677	58.5938	93.5714	58.5938	93.6124	58.5938	93.618	58.5938	93.6724	58.5938	93.6802	58.5938	93.7453	58.5938	93.7554	58.5938	93.8278	58.5938	93.8403	58.5938	93.9165	58.5938	93.9315	58.5938	94.0078	58.5938	94.025	58.5938	94.0983	58.5938	94.1173	58.5938	94.185	58.5938	94.2053	58.5938	94.2654	58.5938	94.2863	58.5938	94.3379	58.5938	94.3586	58.5938	94.4016	58.5938	94.4212	58.5938	94.4559	58.5938	94.4734	58.5938	94.5004	58.5938	94.5146	58.5938	94.5342	58.5938	94.5443	58.5938	94.5563	58.5938	94.5615	58.5938	94.5656
60.0586	93.5182	60.0586	93.5242	60.0586	93.5311	60.0586	93.5486	60.0586	93.5624	60.0586	93.5902	60.0586	93.6107	60.0586	93.6472	60.0586	93.6742	60.0586	93.7167	60.0586	93.7498	60.0586	93.7955	60.0586	93.8343	60.0586	93.8801	60.0586	93.9239	60.0586	93.9667	60.0586	94.0146	60.0586	94.0519	60.0586	94.1026	60.0586	94.1325	60.0586	94.1847	60.0586	94.2064	60.0586	94.2584	60.0586	94.272	60.0586	94.3218	60.0586	94.3287	60.0586	94.3745	60.0586	94.3765	60.0586	94.4161	60.0586	94.4154	60.0586	94.447	60.0586	94.4454	60.0586	94.4674	60.0586	94.4661	60.0586	94.4774	60.0586	94.4769
62.9883	93.5421	62.9883	93.5459	62.9883	93.5546	62.9883	93.5658	62.9883	93.583	62.9883	93.6008	62.9883	93.626	62.9883	93.6489	62.9883	93.6816	62.9883	93.7079	62.9883	93.7471	62.9883	93.7744	62.9883	93.8194	62.9883	93.845	62.9883	93.8948	62.9883	93.9161	62.9883	93.9694	62.9883	93.984	62.9883	94.0396	62.9883	94.0458	62.9883	94.1023	62.9883	94.0991	62.9883	94.1548	62.9883	94.1429	62.9883	94.196	62.9883	94.1771	62.9883	94.2256	62.9883	94.2027	62.9883	94.2447	62.9883	94.2215	62.9883	94.255	62.9883	94.2352	62.9883	94.2586	62.9883	94.2454	62.9883	94.2574	62.9883	94.2528
64.4531	93.5481	64.4531	93.5504	64.4531	93.5615	64.4531	93.5684	64.4531	93.5902	64.4531	93.601	64.4531	93.6329	64.4531	93.6463	64.4531	93.6876	64.4531	93.702	64.4531	93.7514	64.4531	93.7649	64.4531	93.8212	64.4531	93.8314	64.4531	93.8932	64.4531	93.8978	64.4531	93.9636	64.4531	93.9604	64.4531	94.0285	64.4531	94.0161	64.4531	94.0848	64.4531	94.0626	64.4531	94.1299	64.4531	94.099	64.4531	94.1626	64.4531	94.1255	64.4531	94.1832	64.4531	94.1434	64.4531	94.193	64.4531	94.1553	64.4531	94.1946	64.4531	94.1636	64.4531	94.1909	64.4531	94.1705	64.4531	94.1845	64.4531	94.1774
67.3828	93.5549	67.3828	93.5535	67.3828	93.5712	67.3828	93.5669	67.3828	93.602	67.3828	93.5942	67.3828	93.6457	67.3828	93.6336	67.3828	93.7003	67.3828	93.6827	67.3828	93.7629	67.3828	93.7383	67.3828	93.83	67.3828	93.7968	67.3828	93.8974	67.3828	93.8543	67.3828	93.961	67.3828	93.907	67.3828	94.0166	67.3828	93.9518	67.3828	94.0609	67.3828	93.9863	67.3828	94.0915	67.3828	94.0098	67.3828	94.1076	67.3828	94.0231	67.3828	94.1102	67.3828	94.0283	67.3828	94.102	67.3828	94.029	67.3828	94.0866	67.3828	94.0289	67.3828	94.0685	67.3828	94.0315	67.3828	94.0516	67.3828	94.0389
68.8477	93.5751	68.8477	93.571	68.8477	93.5933	68.8477	93.5807	68.8477	93.6248	68.8477	93.6035	68.8477	93.6683	68.8477	93.6377	68.8477	93.7216	68.8477	93.6811	68.8477	93.7819	68.8477	93.7307	68.8477	93.8456	68.8477	93.7829	68.8477	93.9086	68.8477	93.8338	68.8477	93.9665	68.8477	93.8799	68.8477	94.0154	68.8477	93.9178	68.8477	94.0518	68.8477	93.9453	68.8477	94.0734	68.8477	93.9617	68.8477	94.0798	68.8477	93.9678	68.8477	94.0723	68.8477	93.9663	68.8477	94.0539	68.8477	93.9611	68.8477	94.0292	68.8477	93.9566	68.8477	94.0032	68.8477	93.9569	68.8477	93.9806	68.8477	93.9646
71.7773	93.6846	71.7773	93.6734	71.7773	93.7074	71.7773	93.6739	71.7773	93.7414	71.7773	93.6853	71.7773	93.7853	71.7773	93.7064	71.7773	93.8372	71.7773	93.735	71.7773	93.8942	71.7773	93.7687	71.7773	93.9527	71.7773	93.8045	71.7773	94.0087	71.7773	93.8389	71.7773	94.0576	71.7773	93.8686	71.7773	94.0951	71.7773	93.8906	71.7773	94.1177	71.7773	93.9032	71.7773	94.123	71.7773	93.9058	71.7773	94.1108	71.7773	93.8996	71.7773	94.0827	71.7773	93.8879	71.7773	94.0428	71.7773	93.8754	71.7773	93.9966	71.7773	93.8674	71.7773	93.9508	71.7773	93.869	71.7773	93.9115	71.7773	93.8835
74.707	93.8147	74.707	93.8132	74.707	93.8263	74.707	93.8213	74.707	93.8479	74.707	93.838	74.707	93.8788	74.707	93.8617	74.707	93.9175	74.707	93.8905	74.707	93.9618	74.707	93.9218	74.707	94.0083	74.707	93.9526	74.707	94.053	74.707	93.9797	74.707	94.0914	74.707	93.9995	74.707	94.1191	74.707	94.0094	74.707	94.1324	74.707	94.0073	74.707	94.129	74.707	93.9929	74.707	94.1085	74.707	93.9679	74.707	94.073	74.707	93.9364	74.707	94.0267	74.707	93.9043	74.707	93.9761	74.707	93.8784	74.707	93.9285	74.707	93.8653	74.707	93.891	74.707	93.8691
77.6367	93.8587	77.6367	93.868	77.6367	93.859	77.6367	93.8863	77.6367	93.8689	77.6367	93.9124	77.6367	93.888	77.6367	93.9446	77.6367	93.9153	77.6367	93.9809	77.6367	93.9487	77.6367	94.0181	77.6367	93.9856	77.6367	94.0529	77.6367	94.0223	77.6367	94.0815	77.6367	94.0547	77.6367	94.1	77.6367	94.0783	77.6367	94.1051	77.6367	94.0894	77.6367	94.0946	77.6367	94.0851	77.6367	94.0684	77.6367	94.0646	77.6367	94.0285	77.6367	94.0295	77.6367	93.9797	77.6367	93.984	77.6367	93.9292	77.6367	93.9349	77.6367	93.8853	77.6367	93.8905	77.6367	93.856	77.6367	93.859	77.6367	93.8466
79.1016	93.8716	79.1016	93.8831	79.1016	93.8689	79.1016	93.9028	79.1016	93.875	79.1016	93.9297	79.1016	93.8896	79.1016	93.9624	79.1016	93.9117	79.1016	93.9987	79.1016	93.9396	79.1016	94.0357	79.1016	93.9707	79.1016	94.07	79.1016	94.0018	79.1016	94.0974	79.1016	94.0287	79.1016	94.1141	79.1016	94.0474	79.1016	94.1165	79.1016	94.054	79.1016	94.1022	79.1016	94.0457	79.1016	94.0708	79.1016	94.0216	79.1016	94.0244	79.1016	93.9835	79.1016	93.9679	79.1016	93.9358	79.1016	93.909	79.1016	93.8856	79.1016	93.8566	79.1016	93.8415	79.1016	93.8195	79.1016	93.8121	79.1016	93.804
82.0312	93.9222	82.0312	93.9349	82.0312	93.9157	82.0312	93.9536	82.0312	93.9154	82.0312	93.9776	82.0312	93.921	82.0312	94.0057	82.0312	93.9317	82.0312	94.0359	82.0312	93.9459	82.0312	94.0656	82.0312	93.9616	82.0312	94.0913	82.0312	93.9759	82.0312	94.1088	82.0312	93.9851	82.0312	94.1139	82.0312	93.9855	82.0312	94.1025	82.0312	93.9737	82.0312	94.0721	82.0312	93.9473	82.0312	94.0221	82.0312	93.9059	82.0312	93.955	82.0312	93.8517	82.0312	93.8766	82.0312	93.7901	82.0312	93.7959	82.0312	93.7292	82.0312	93.7239	82.0312	93.6786	82.0312	93.6709	82.0312	93.6481	82.0312	93.6446
84.9609	93.8526	84.9609	93.8482	84.9609	93.8623	84.9609	93.8494	84.9609	93.877	84.9609	93.8556	84.9609	93.8959	84.9609	93.8659	84.9609	93.9177	84.9609	93.8786	84.9609	93.9406	84.9609	93.8912	84.9609	93.9619	84.9609	93.9004	84.9609	93.9784	84.9609	93.9023	84.9609	93.986	84.9609	93.8926	84.9609	93.9808	84.9609	93.8678	84.9609	93.959	84.9609	93.8256	84.9609	93.918	84.9609	93.7661	84.9609	93.8573	84.9609	93.6924	84.9609	93.7792	84.9609	93.6113	84.9609	93.6896	84.9609	93.5327	84.9609	93.5977	84.9609	93.4683	84.9609	93.5152	84.9609	93.4296	84.9609	93.4542	84.9609	93.4241
87.8906	93.7457	87.8906	93.7273	87.8906	93.7736	87.8906	93.719	87.8906	93.8103	87.8906	93.7211	87.8906	93.8546	87.8906	93.7333	87.8906	93.905	87.8906	93.7544	87.8906	93.9594	87.8906	93.7826	87.8906	94.0149	87.8906	93.8148	87.8906	94.0677	87.8906	93.8471	87.8906	94.1136	87.8906	93.8751	87.8906	94.1479	87.8906	93.8946	87.8906	94.1662	87.8906	93.9025	87.8906	94.1652	87.8906	93.8974	87.8906	94.1434	87.8906	93.8804	87.8906	94.1018	87.8906	93.8555	87.8906	94.0446	87.8906	93.8294	87.8906	93.9789	87.8906	93.8102	87.8906	93.9138	87.8906	93.8058	87.8906	93.8589	87.8906	93.8216
90.8203	93.7684	90.8203	93.7576	90.8203	93.786	90.8203	93.7537	90.8203	93.8102	90.8203	93.7572	90.8203	93.8411	90.8203	93.768	90.8203	93.8785	90.8203	93.786	90.8203	93.9215	90.8203	93.81	90.8203	93.9684	90.8203	93.8381	90.8203	94.0164	90.8203	93.8669	90.8203	94.0615	90.8203	93.8929	90.8203	94.0991	90.8203	93.912	90.8203	94.1244	90.8203	93.9211	90.8203	94.1335	90.8203	93.9189	90.8203	94.1242	90.8203	93.9062	90.8203	94.0967	90.8203	93.887	90.8203	94.0542	90.8203	93.8672	90.8203	94.0026	90.8203	93.854	90.8203	93.9496	90.8203	93.8536	90.8203	93.9032	90.8203	93.87
95.2148	93.909	95.2148	93.9153	95.2148	93.9022	95.2148	93.9208	95.2148	93.8951	95.2148	93.9256	95.2148	93.8885	95.2148	93.9299	95.2148	93.8829	95.2148	93.9336	95.2148	93.8788	95.2148	93.9358	95.2148	93.8754	95.2148	93.9346	95.2148	93.8713	95.2148	93.9275	95.2148	93.8639	95.2148	93.9114	95.2148	93.8499	95.2148	93.883	95.2148	93.826	95.2148	93.8404	95.2148	93.7894	95.2148	93.7833	95.2148	93.7392	95.2148	93.7141	95.2148	93.6772	95.2148	93.6382	95.2148	93.6082	95.2148	93.5633	95.2148	93.5402	95.2148	93.4988	95.2148	93.4829	95.2148	93.4538	95.2148	93.4456	95.2148	93.4352
98.1445	93.9877	98.1445	93.9927	98.1445	93.9782	98.1445	93.9931	98.1445	93.9649	98.1445	93.9894	98.1445	93.9492	98.1445	93.9826	98.1445	93.9324	98.1445	93.9734	98.1445	93.9156	98.1445	93.9622	98.1445	93.8989	98.1445	93.9481	98.1445	93.8811	98.1445	93.9293	98.1445	93.8596	98.1445	93.9027	98.1445	93.8309	98.1445	93.8647	98.1445	93.7911	98.1445	93.8122	98.1445	93.7371	98.1445	93.7435	98.1445	93.668	98.1445	93.6598	98.1445	93.5861	98.1445	93.5657	98.1445	93.4975	98.1445	93.4701	98.1445	93.412	98.1445	93.3847	98.1445	93.3419	98.1445	93.3218	98.1445	93.2991	98.1445	93.2917
101.074	94.0956	101.074	94.1046	101.074	94.0774	101.074	94.1047	101.074	94.0501	101.074	94.097	101.074	94.0148	101.074	94.0827	101.074	93.9727	101.074	94.0632	101.074	93.9252	101.074	94.0392	101.074	93.8733	101.074	94.0106	101.074	93.8172	101.074	93.9762	101.074	93.7563	101.074	93.9336	101.074	93.6891	101.074	93.8801	101.074	93.6142	101.074	93.8126	101.074	93.531	101.074	93.7292	101.074	93.4408	101.074	93.6303	101.074	93.3475	101.074	93.5193	101.074	93.2585	101.074	93.4036	101.074	93.1836	101.074	93.2939	101.074	93.1337	101.074	93.2027	101.074	93.1181	101.074	93.1416
105.469	93.7051	105.469	93.6862	105.469	93.7214	105.469	93.665	105.469	93.7351	105.469	93.6424	105.469	93.7468	105.469	93.6194	105.469	93.7574	105.469	93.5967	105.469	93.7672	105.469	93.5742	105.469	93.7759	105.469	93.5507	105.469	93.7822	105.469	93.5239	105.469	93.7831	105.469	93.491	105.469	93.7746	105.469	93.4488	105.469	93.7521	105.469	93.3957	105.469	93.7112	105.469	93.3318	105.469	93.6493	105.469	93.2605	105.469	93.5664	105.469	93.1888	105.469	93.4665	105.469	93.1265	105.469	93.3576	105.469	93.0849	105.469	93.2514	105.469	93.0742	105.469	93.1615	105.469	93.1
108.398	94.0521	108.398	94.0354	108.398	94.0576	108.398	94.0077	108.398	94.0526	108.398	93.9705	108.398	94.0389	108.398	93.9258	108.398	94.019	108.398	93.8756	108.398	93.9953	108.398	93.8217	108.398	93.9699	108.398	93.7647	108.398	93.9437	108.398	93.7045	108.398	93.9161	108.398	93.64	108.398	93.8851	108.398	93.5701	108.398	93.8476	108.398	93.4945	108.398	93.8001	108.398	93.415	108.398	93.7395	108.398	93.336	108.398	93.6643	108.398	93.2649	108.398	93.5758	108.398	93.2109	108.398	93.4787	108.398	93.1829	108.398	93.3808	108.398	93.1873	108.398	93.2927	108.398	93.2253
112.793	94.2158	112.793	94.2189	112.793	94.1995	112.793	94.2092	112.793	94.1705	112.793	94.1882	112.793	94.1304	112.793	94.1577	112.793	94.0817	112.793	94.1197	112.793	94.0269	112.793	94.0755	112.793	93.9683	112.793	94.0255	112.793	93.907	112.793	93.9691	112.793	93.8433	112.793	93.9047	112.793	93.7764	112.793	93.8307	112.793	93.7053	112.793	93.746	112.793	93.6291	112.793	93.6517	112.793	93.5484	112.793	93.551	112.793	93.4652	112.793	93.4501	112.793	93.3837	112.793	93.357	112.793	93.31	112.793	93.2807	112.793	93.2513	112.793	93.2289	112.793	93.2149	112.793	93.2066
117.188	94.5033	117.188	94.4982	117.188	94.4909	117.188	94.477	117.188	94.4608	117.188	94.4417	117.188	94.4141	117.188	94.3952	117.188	94.3527	117.188	94.3401	117.188	94.2794	117.188	94.2785	117.188	94.1968	117.188	94.2114	117.188	94.107	117.188	94.1386	117.188	94.011	117.188	94.0587	117.188	93.909	117.188	93.9699	117.188	93.8008	117.188	93.8703	117.188	93.6867	117.188	93.7598	117.188	93.5691	117.188	93.6401	117.188	93.4525	117.188	93.5165	117.188	93.3441	117.188	93.397	117.188	93.2528	117.188	93.2919	117.188	93.188	117.188	93.2118	117.188	93.1573	117.188	93.1653
120.117	94.3932	120.117	94.3784	120.117	94.3928	120.117	94.3493	120.117	94.3773	120.117	94.3075	120.117	94.3481	120.117	94.2556	120.117	94.3072	120.117	94.196	120.117	94.2569	120.117	94.131	120.117	94.1996	120.117	94.0618	120.117	94.1367	120.117	93.9888	120.117	94.0684	120.117	93.9111	120.117	93.9936	120.117	93.8274	120.117	93.9103	120.117	93.7363	120.117	93.8166	120.117	93.6381	120.117	93.7122	120.117	93.535	120.117	93.5996	120.117	93.4321	120.117	93.4848	120.117	93.3375	120.117	93.3772	120.117	93.2612	120.117	93.2874	120.117	93.213	120.117	93.226	120.117	93.2004
124.512	94.2445	124.512	94.2229	124.512	94.2487	124.512	94.1852	124.512	94.2353	124.512	94.1334	124.512	94.2051	124.512	94.0702	124.512	94.1599	124.512	93.9983	124.512	94.1022	124.512	93.92	124.512	94.0347	124.512	93.8372	124.512	93.9602	124.512	93.7507	124.512	93.8807	124.512	93.6609	124.512	93.7971	124.512	93.568	124.512	93.7096	124.512	93.4727	124.512	93.6178	124.512	93.3769	124.512	93.5216	124.512	93.2842	124.512	93.4223	124.512	93.1997	124.512	93.3237	124.512	93.1297	124.512	93.2315	124.512	93.0802	124.512	93.1527	124.512	93.0564	124.512	93.0941	124.512	93.0611
128.906	94.2607	128.906	94.2353	128.906	94.2676	128.906	94.1916	128.906	94.2569	128.906	94.1311	128.906	94.2305	128.906	94.056	128.906	94.1908	128.906	93.9691	128.906	94.1399	128.906	93.8729	128.906	94.0793	128.906	93.7692	128.906	94.0096	128.906	93.6589	128.906	93.9303	128.906	93.5421	128.906	93.84	128.906	93.4195	128.906	93.7373	128.906	93.2926	128.906	93.6212	128.906	93.1653	128.906	93.4925	128.906	93.044	128.906	93.3544	128.906	92.9369	128.906	93.2131	128.906	92.8528	128.906	93.0774	128.906	92.7995	128.906	92.9578	128.906	92.7825	128.906	92.8642	128.906	92.8043
133.301	94.0169	133.301	94.0358	133.301	93.9824	133.301	94.0385	133.301	93.9343	133.301	94.0256	133.301	93.8757	133.301	93.9983	133.301	93.81	133.301	93.9577	133.301	93.7407	133.301	93.9046	133.301	93.6699	133.301	93.8382	133.301	93.598	133.301	93.7569	133.301	93.5238	133.301	93.6586	133.301	93.4449	133.301	93.5422	133.301	93.3587	133.301	93.4087	133.301	93.2635	133.301	93.2629	133.301	93.1597	133.301	93.1127	133.301	93.0503	133.301	92.9694	133.301	92.9408	133.301	92.8448	133.301	92.8393	133.301	92.7498	133.301	92.7551	133.301	92.692	133.301	92.6978	133.301	92.6751
139.16	93.9009	139.16	93.8945	139.16	93.8798	139.16	93.8621	139.16	93.8322	139.16	93.8077	139.16	93.7621	139.16	93.7374	139.16	93.6755	139.16	93.6581	139.16	93.5795	139.16	93.5765	139.16	93.4811	139.16	93.4975	139.16	93.3859	139.16	93.4231	139.16	93.2966	139.16	93.3522	139.16	93.2135	139.16	93.2814	139.16	93.1347	139.16	93.2064	139.16	93.0582	139.16	93.1251	139.16	92.9829	139.16	93.0381	139.16	92.9102	139.16	92.9501	139.16	92.8434	139.16	92.8681	139.16	92.7872	139.16	92.7997	139.16	92.7462	139.16	92.7512	139.16	92.7248	139.16	92.726
143.555	94.0341	143.555	94.0197	143.555	94.0151	143.555	93.9736	143.555	93.9633	143.555	93.899	143.555	93.8811	143.555	93.8006	143.555	93.7734	143.555	93.6838	143.555	93.6466	143.555	93.5543	143.555	93.5083	143.555	93.4176	143.555	93.3661	143.555	93.278	143.555	93.2259	143.555	93.1387	143.555	93.0914	143.555	93.0015	143.555	92.9641	143.555	92.8678	143.555	92.8436	143.555	92.7397	143.555	92.7297	143.555	92.6205	143.555	92.6233	143.555	92.515	143.555	92.5268	143.555	92.4282	143.555	92.4443	143.555	92.3651	143.555	92.3798	143.555	92.3284	143.555	92.3372	143.555	92.3194
147.949	93.9885	147.949	93.9742	147.949	93.9716	147.949	93.9291	147.949	93.9248	147.949	93.8554	147.949	93.8514	147.949	93.757	147.949	93.7564	147.949	93.6382	147.949	93.6459	147.949	93.5043	147.949	93.526	147.949	93.3602	147.949	93.4019	147.949	93.2102	147.949	93.2771	147.949	93.0579	147.949	93.153	147.949	92.9062	147.949	93.0293	147.949	92.7583	147.949	92.9056	147.949	92.6182	147.949	92.7824	147.949	92.4915	147.949	92.662	147.949	92.385	147.949	92.5485	147.949	92.3051	147.949	92.4467	147.949	92.2562	147.949	92.3611	147.949	92.2397	147.949	92.2956	147.949	92.2539
153.809	93.85	153.809	93.8592	153.809	93.8069	153.809	93.836	153.809	93.7309	153.809	93.7833	153.809	93.6255	153.809	93.7058	153.809	93.4963	153.809	93.6084	153.809	93.351	153.809	93.4966	153.809	93.1987	153.809	93.3749	153.809	93.0479	153.809	93.2467	153.809	92.9051	153.809	93.1143	153.809	92.7724	153.809	92.9786	153.809	92.6477	153.809	92.8396	153.809	92.5264	153.809	92.6976	153.809	92.4049	153.809	92.5543	153.809	92.2841	153.809	92.413	153.809	92.171	153.809	92.2799	153.809	92.0771	153.809	92.1628	153.809	92.0145	153.809	92.0704	153.809	91.9916	153.809	92.0112
159.668	93.3248	159.668	93.3044	159.668	93.3267	159.668	93.2702	159.668	93.3079	159.668	93.2288	159.668	93.2691	159.668	93.1874	159.668	93.213	159.668	93.1519	159.668	93.1441	159.668	93.1255	159.668	93.0675	159.668	93.1074	159.668	92.9881	159.668	93.0929	159.668	92.91	159.668	93.0746	159.668	92.8355	159.668	93.0449	159.668	92.765	159.668	92.9976	159.668	92.6973	159.668	92.9303	159.668	92.6303	159.668	92.8447	159.668	92.5635	159.668	92.7464	159.668	92.4993	159.668	92.644	159.668	92.444	159.668	92.5481	159.668	92.4066	159.668	92.4693	159.668	92.3957	159.668	92.4167
165.527	93.073	165.527	93.0213	165.527	93.0761	165.527	92.9254	165.527	93.0322	165.527	92.7968	165.527	92.9492	165.527	92.6535	165.527	92.8408	165.527	92.5191	165.527	92.725	165.527	92.4188	165.527	92.6226	165.527	92.3737	165.527	92.5539	165.527	92.3944	165.527	92.5344	165.527	92.4765	165.527	92.5707	165.527	92.6029	165.527	92.6587	165.527	92.7501	165.527	92.7846	165.527	92.8959	165.527	92.9283	165.527	93.0247	165.527	93.0686	165.527	93.1295	165.527	93.188	165.527	93.2103	165.527	93.2755	165.527	93.2706	165.527	93.3276	165.527	93.3139	165.527	93.3472	165.527	93.3406
171.387	93.7108	171.387	93.6801	171.387	93.6738	171.387	93.5799	171.387	93.5734	171.387	93.4127	171.387	93.4165	171.387	93.186	171.387	93.2129	171.387	92.9154	171.387	92.9753	171.387	92.6258	171.387	92.7199	171.387	92.3518	171.387	92.4671	171.387	92.1333	171.387	92.2406	171.387	92.0057	171.387	92.0657	171.387	91.9868	171.387	91.9644	171.387	92.0693	171.387	91.9501	171.387	92.2242	171.387	92.0211	171.387	92.4123	171.387	92.1604	171.387	92.597	171.387	92.3398	171.387	92.7508	171.387	92.5273	171.387	92.8565	171.387	92.6945	171.387	92.9049	171.387	92.8205	171.387	92.8926
177.246	93.868	177.246	93.8513	177.246	93.8173	177.246	93.7663	177.246	93.7017	177.246	93.6145	177.246	93.5262	177.246	93.3992	177.246	93.299	177.246	93.1274	177.246	93.0321	177.246	92.811	177.246	92.7418	177.246	92.4689	177.246	92.4493	177.246	92.1289	177.246	92.1803	177.246	91.8263	177.246	91.962	177.246	91.5991	177.246	91.8189	177.246	91.4776	177.246	91.7653	177.246	91.4731	177.246	91.8003	177.246	91.5725	177.246	91.9052	177.246	91.743	177.246	92.0491	177.246	91.9426	177.246	92.1955	177.246	92.1315	177.246	92.3112	177.246	92.2778	177.246	92.371	177.246	92.3607
183.105	93.6376	183.105	93.6354	183.105	93.5762	183.105	93.5713	183.105	93.4513	183.105	93.448	183.105	93.2648	183.105	93.2696	183.105	93.0221	183.105	93.0425	183.105	92.7322	183.105	92.7762	183.105	92.409	183.105	92.4859	183.105	92.072	183.105	92.1934	183.105	91.7466	183.105	91.9266	183.105	91.4628	183.105	91.7149	183.105	91.2513	183.105	91.5817	183.105	91.1362	183.105	91.5365	183.105	91.1265	183.105	91.5704	183.105	91.2114	183.105	91.6583	183.105	91.3622	183.105	91.7666	183.105	91.5409	183.105	91.8614	183.105	91.71	183.105	91.915	183.105	91.8392	183.105	91.9096
188.965	93.8195	188.965	93.782	188.965	93.7884	188.965	93.6804	188.965	93.6851	188.965	93.5202	188.965	93.5082	188.965	93.3068	188.965	93.2595	188.965	93.0466	188.965	92.9451	188.965	92.7475	188.965	92.5774	188.965	92.4225	188.965	92.1763	188.965	92.0922	188.965	91.7708	188.965	91.7858	188.965	91.3983	188.965	91.5386	188.965	91.1003	188.965	91.3813	188.965	90.9128	188.965	91.3277	188.965	90.854	188.965	91.3663	188.965	90.9163	188.965	91.4645	188.965	91.0677	188.965	91.5804	188.965	91.2626	188.965	91.6755	188.965	91.4551	188.965	91.721	188.965	91.6086	188.965	91.7002
196.289	94.0727	196.289	94.0215	196.289	94.0561	196.289	93.9052	196.289	93.9698	196.289	93.7269	196.289	93.8132	196.289	93.4901	196.289	93.5878	196.289	93.1996	196.289	93.2983	196.289	92.8636	196.289	92.9537	196.289	92.4959	196.289	92.57	196.289	92.1195	196.289	92.1721	196.289	91.7683	196.289	91.7949	196.289	91.4839	196.289	91.4812	196.289	91.3048	196.289	91.272	196.289	91.2508	196.289	91.1913	196.289	91.3118	196.289	91.2342	196.289	91.4501	196.289	91.3674	196.289	91.616	196.289	91.5417	196.289	91.7634	196.289	91.7083	196.289	91.8586	196.289	91.8296	196.289	91.8824
203.613	94.0942	203.613	94.0322	203.613	94.0865	203.613	93.9044	203.613	94.0068	203.613	93.7155	203.613	93.8538	203.613	93.4707	203.613	93.6275	203.613	93.1748	203.613	93.329	203.613	92.8322	203.613	92.9613	203.613	92.4489	203.613	92.5324	203.613	92.0367	203.613	92.0591	203.613	91.6205	203.613	91.5744	203.613	91.2423	203.613	91.1306	203.613	90.9574	203.613	90.7938	203.613	90.8149	203.613	90.6197	203.613	90.8293	203.613	90.6231	203.613	90.9663	203.613	90.7664	203.613	91.1581	203.613	90.9813	203.613	91.3334	203.613	91.1987	203.613	91.4401	203.613	91.3666	203.613	91.4522
210.938	93.9669	210.938	93.8711	210.938	93.9975	210.938	93.7152	210.938	93.9573	210.938	93.5024	210.938	93.8411	210.938	93.2342	210.938	93.6464	210.938	92.9109	210.938	93.3738	210.938	92.5343	210.938	93.0271	210.938	92.1094	210.938	92.6136	210.938	91.6488	210.938	92.1451	210.938	91.1766	210.938	91.6428	210.938	90.733	210.938	91.1447	210.938	90.372	210.938	90.7101	210.938	90.1487	210.938	90.4087	210.938	90.094	210.938	90.2887	210.938	90.1929	210.938	90.3419	210.938	90.3875	210.938	90.5028	210.938	90.6018	210.938	90.6839	210.938	90.7687	210.938	90.8122	210.938	90.8444
218.262	93.8141	218.262	93.7878	218.262	93.7875	218.262	93.704	218.262	93.7114	218.262	93.5585	218.262	93.5874	218.262	93.3484	218.262	93.4152	218.262	93.0723	218.262	93.1938	218.262	92.7303	218.262	92.9237	218.262	92.3259	218.262	92.6089	218.262	91.869	218.262	92.258	218.262	91.3824	218.262	91.8861	218.262	90.9079	218.262	91.5161	218.262	90.5064	218.262	91.1807	218.262	90.2432	218.262	90.9188	218.262	90.1573	218.262	90.7631	218.262	90.2359	218.262	90.7219	218.262	90.4189	218.262	90.7681	218.262	90.629	218.262	90.8488	218.262	90.801	218.262	90.906	218.262	90.8965
225.586	94.0975	225.586	94.0899	225.586	94.0305	225.586	94.0075	225.586	93.8907	225.586	93.8522	225.586	93.6796	225.586	93.6293	225.586	93.3985	225.586	93.3468	225.586	93.0488	225.586	93.0134	225.586	92.6344	225.586	92.636	225.586	92.1654	225.586	92.2203	225.586	91.6635	225.586	91.7752	225.586	91.1677	225.586	91.3239	225.586	90.7372	225.586	90.9144	225.586	90.4405	225.586	90.6159	225.586	90.3283	225.586	90.4899	225.586	90.4021	225.586	90.5474	225.586	90.6077	225.586	90.7347	225.586	90.862	225.586	90.9636	225.586	91.0862	225.586	91.1526	225.586	91.2245	225.586	91.2476
232.91	94.3377	232.91	94.3042	232.91	94.2891	232.91	94.1893	232.91	94.1597	232.91	93.9964	232.91	93.9515	232.91	93.7331	232.91	93.6664	232.91	93.4109	232.91	93.3056	232.91	93.0447	232.91	92.87	232.91	92.6511	232.91	92.3625	232.91	92.244	232.91	91.7917	232.91	91.8338	232.91	91.1792	232.91	91.4306	232.91	90.5706	232.91	91.0544	232.91	90.0435	232.91	90.7434	232.91	89.697	232.91	90.5456	232.91	89.6064	232.91	90.4911	232.91	89.7652	232.91	90.5622	232.91	90.0781	232.91	90.693	232.91	90.4168	232.91	90.7984	232.91	90.6778	232.91	90.8064
241.699	94.1506	241.699	94.1261	241.699	94.107	241.699	94.0303	241.699	93.9982	241.699	93.8591	241.699	93.8261	241.699	93.6082	241.699	93.5909	241.699	93.2745	241.699	93.29	241.699	92.8594	241.699	92.9193	241.699	92.3734	241.699	92.476	241.699	91.8412	241.699	91.965	241.699	91.3051	241.699	91.4076	241.699	90.8242	241.699	90.8497	241.699	90.4655	241.699	90.3642	241.699	90.2835	241.699	90.0357	241.699	90.2923	241.699	89.9235	241.699	90.4518	241.699	90.025	241.699	90.6809	241.699	90.2741	241.699	90.8893	241.699	90.574	241.699	91.0049	241.699	90.8334	241.699	90.9876
250.488	94.2576	250.488	94.2092	250.488	94.2125	250.488	94.071	250.488	94.0743	250.488	93.8497	250.488	93.8472	250.488	93.5533	250.488	93.5373	250.488	93.1887	250.488	93.1499	250.488	92.7621	250.488	92.687	250.488	92.2807	250.488	92.1481	250.488	91.7559	250.488	91.5351	250.488	91.2074	250.488	90.8649	250.488	90.6667	250.488	90.1888	250.488	90.1825	250.488	89.6073	250.488	89.8224	250.488	89.2514	250.488	89.6545	250.488	89.2053	250.488	89.7043	250.488	89.431	250.488	89.9185	250.488	89.7917	250.488	90.1862	250.488	90.1423	250.488	90.3953	250.488	90.3848	250.488	90.4717
259.277	94.2005	259.277	94.1438	259.277	94.1768	259.277	94.0055	259.277	94.0735	259.277	93.7842	259.277	93.8916	259.277	93.479	259.277	93.6333	259.277	93.0906	259.277	93.3019	259.277	92.6225	259.277	92.9019	259.277	92.0839	259.277	92.4369	259.277	91.4947	259.277	91.9105	259.277	90.8918	259.277	91.3308	259.277	90.3329	259.277	90.7241	259.277	89.8873	259.277	90.1545	259.277	89.6139	259.277	89.7307	259.277	89.5373	259.277	89.5634	259.277	89.6393	259.277	89.6762	259.277	89.8663	259.277	89.9656	259.277	90.1411	259.277	90.2721	259.277	90.379	259.277	90.4707	259.277	90.5048
268.066	93.8185	268.066	93.7544	268.066	93.8112	268.066	93.6165	268.066	93.7304	268.066	93.3988	268.066	93.57	268.066	93.0949	268.066	93.3219	268.066	92.7017	268.066	92.9797	268.066	92.2235	268.066	92.5413	268.066	91.6778	268.066	92.0124	268.066	91.1015	268.066	91.4079	268.066	90.5583	268.066	90.7551	268.066	90.1331	268.066	90.0976	268.066	89.9019	268.066	89.5064	268.066	89.8855	268.066	89.0866	268.066	90.0344	268.066	88.9493	268.066	90.264	268.066	89.1322	268.066	90.4962	268.066	89.5446	268.066	90.6716	268.066	90.0217	268.066	90.7417	268.066	90.4208	268.066	90.6658
276.855	93.9541	276.855	93.9621	276.855	93.8973	276.855	93.9135	276.855	93.7949	276.855	93.7955	276.855	93.6451	276.855	93.5872	276.855	93.4391	276.855	93.2593	276.855	93.1611	276.855	92.776	276.855	92.7914	276.855	92.1021	276.855	92.3132	276.855	91.2177	276.855	91.7234	276.855	90.1486	276.855	91.046	276.855	89.0245	276.855	90.3451	276.855	88.1361	276.855	89.7272	276.855	87.8289	276.855	89.3144	276.855	88.1594	276.855	89.186	276.855	88.8245	276.855	89.3292	276.855	89.4984	276.855	89.6448	276.855	90.0113	276.855	89.999	276.855	90.31	276.855	90.274	276.855	90.3915
287.109	93.8182	287.109	93.8039	287.109	93.7652	287.109	93.7336	287.109	93.6397	287.109	93.6232	287.109	93.4428	287.109	93.487	287.109	93.1782	287.109	93.3283	287.109	92.8478	287.109	93.1303	287.109	92.447	287.109	92.8526	287.109	91.9623	287.109	92.4385	287.109	91.3749	287.109	91.8368	287.109	90.6726	287.109	91.0392	287.109	89.8775	287.109	90.1401	287.109	89.0903	287.109	89.3963	287.109	88.5191	287.109	89.141	287.109	88.393	287.109	89.4484	287.109	88.7453	287.109	90.0229	287.109	89.3645	287.109	90.5269	287.109	89.9988	287.109	90.7886	287.109	90.4924	287.109	90.77
297.363	94.3307	297.363	94.25	297.363	94.3299	297.363	94.0935	297.363	94.2408	297.363	93.8659	297.363	94.0571	297.363	93.5718	297.363	93.7744	297.363	93.2188	297.363	93.3893	297.363	92.821	297.363	92.896	297.363	92.3975	297.363	92.2839	297.363	91.9614	297.363	91.5405	297.363	91.5068	297.363	90.6671	297.363	91.0126	297.363	89.7089	297.363	90.4796	297.363	88.7896	297.363	89.9863	297.363	88.1163	297.363	89.6984	297.363	87.8916	297.363	89.7466	297.363	88.1605	297.363	90.0603	297.363	88.7684	297.363	90.4107	297.363	89.4814	297.363	90.5889	297.363	90.0989	297.363	90.489
307.617	94.0733	307.617	94.0398	307.617	94.0347	307.617	93.9317	307.617	93.9299	307.617	93.7461	307.617	93.7678	307.617	93.4757	307.617	93.5567	307.617	93.1065	307.617	93.2987	307.617	92.6218	307.617	92.9852	307.617	92.0097	307.617	92.5932	307.617	91.2768	307.617	92.0834	307.617	90.4595	307.617	91.4085	307.617	89.6328	307.617	90.5411	307.617	88.9129	307.617	89.5283	307.617	88.4506	307.617	88.5593	307.617	88.3809	307.617	87.9524	307.617	88.7065	307.617	87.9262	307.617	89.2436	307.617	88.3732	307.617	89.7353	307.617	89.0036	307.617	89.9911	307.617	89.5742	307.617	89.9321
319.336	94.0909	319.336	93.9645	319.336	94.129	319.336	93.766	319.336	94.0657	319.336	93.5106	319.336	93.8926	319.336	93.2047	319.336	93.6063	319.336	92.8369	319.336	93.2067	319.336	92.374	319.336	92.6958	319.336	91.769	319.336	92.0781	319.336	90.9827	319.336	91.3609	319.336	90.0173	319.336	90.5563	319.336	88.9624	319.336	89.6951	319.336	88.0376	319.336	88.8647	319.336	87.5406	319.336	88.2534	319.336	87.6183	319.336	88.0929	319.336	88.1193	319.336	88.4303	319.336	88.7695	319.336	89.0281	319.336	89.3632	319.336	89.584	319.336	89.7875	319.336	89.9202	319.336	89.9845
329.59	93.7902	329.59	93.7519	329.59	93.7546	329.59	93.6324	329.59	93.6543	329.59	93.4319	329.59	93.4954	329.59	93.1602	329.59	93.2775	329.59	92.8323	329.59	92.9908	329.59	92.4537	329.59	92.6168	329.59	92.0034	329.59	92.1325	329.59	91.4303	329.59	91.5175	329.59	90.6741	329.59	90.7597	329.59	89.715	329.59	89.8663	329.59	88.6509	329.59	88.8929	329.59	87.7754	329.59	88.0098	329.59	87.4639	329.59	87.5362	329.59	87.779	329.59	87.7098	329.59	88.4009	329.59	88.3473	329.59	89.0075	329.59	89.0304	329.59	89.435	329.59	89.4793	329.59	89.6087
341.309	93.3501	341.309	93.3211	341.309	93.2803	341.309	93.1974	341.309	93.1122	341.309	92.9823	341.309	92.8542	341.309	92.6762	341.309	92.5232	341.309	92.2782	341.309	92.1384	341.309	91.7915	341.309	91.7099	341.309	91.2245	341.309	91.2301	341.309	90.5839	341.309	90.6819	341.309	89.8662	341.309	90.0671	341.309	89.0696	341.309	89.4405	341.309	88.2525	341.309	88.9215	341.309	87.6133	341.309	88.6507	341.309	87.4485	341.309	88.7019	341.309	87.8588	341.309	89.0286	341.309	88.5992	341.309	89.4914	341.309	89.3458	341.309	89.9231	341.309	89.9024	341.309	90.1838	341.309	90.1874
353.027	93.5118	353.027	93.4229	353.027	93.5215	353.027	93.2698	353.027	93.4403	353.027	93.0695	353.027	93.2602	353.027	92.8343	353.027	92.9772	353.027	92.5611	353.027	92.5885	353.027	92.2219	353.027	92.0862	353.027	91.7636	353.027	91.4466	353.027	91.1245	353.027	90.6223	353.027	90.2659	353.027	89.5514	353.027	89.2294	353.027	88.2105	353.027	88.2228	353.027	86.7713	353.027	87.6491	353.027	85.8459	353.027	87.8132	353.027	86.1273	353.027	88.5321	353.027	87.2964	353.027	89.3683	353.027	88.556	353.027	90.0244	353.027	89.5278	353.027	90.3847	353.027	90.1449	353.027	90.4256
366.211	94.0535	366.211	93.9951	366.211	94.0095	366.211	93.8147	366.211	93.8881	366.211	93.5113	366.211	93.707	366.211	93.1048	366.211	93.4699	366.211	92.6253	366.211	93.1683	366.211	92.0883	366.211	92.7822	366.211	91.4701	366.211	92.2728	366.211	90.7021	366.211	91.57	366.211	89.6983	366.211	90.5669	366.211	88.4207	366.211	89.1354	366.211	87.0252	366.211	87.2035	366.211	86.0855	366.211	85.0718	366.211	86.3015	366.211	84.0774	366.211	87.4367	366.211	85.2093	366.211	88.6926	366.211	87.0803	366.211	89.6278	366.211	88.6247	366.211	90.114	366.211	89.6351	366.211	90.1223
379.395	94.0348	379.395	93.9957	379.395	94.0159	379.395	93.8998	379.395	93.9331	379.395	93.7334	379.395	93.7881	379.395	93.4693	379.395	93.5912	379.395	93.0776	379.395	93.3499	379.395	92.5352	379.395	93.0523	379.395	91.825	379.395	92.6615	379.395	90.9213	379.395	92.1244	379.395	89.7756	379.395	91.3872	379.395	88.3309	379.395	90.4083	379.395	86.6291	379.395	89.1876	379.395	85.1361	379.395	87.8592	379.395	84.9035	379.395	86.8574	379.395	86.0972	379.395	86.764	379.395	87.6059	379.395	87.5173	379.395	88.739	379.395	88.4685	379.395	89.3542	379.395	89.1723	379.395	89.4828
392.578	93.3566	392.578	93.3371	392.578	93.3274	392.578	93.2759	392.578	93.2498	392.578	93.1817	392.578	93.1291	392.578	93.0526	392.578	92.9668	392.578	92.8695	392.578	92.7551	392.578	92.5968	392.578	92.4715	392.578	92.1853	392.578	92.0732	392.578	91.5715	392.578	91.4971	392.578	90.6772	392.578	90.6703	392.578	89.4242	392.578	89.534	392.578	87.7926	392.578	88.0941	392.578	86.0185	392.578	86.568	392.578	84.9561	392.578	85.6343	392.578	85.4937	392.578	86.0266	392.578	86.9973	392.578	87.3344	392.578	88.4381	392.578	88.645	392.578	89.3951	392.578	89.4981	392.578	89.7565
405.762	93.2956	405.762	93.2168	405.762	93.2442	405.762	93.0225	405.762	93.0714	405.762	92.7462	405.762	92.8078	405.762	92.428	405.762	92.4931	405.762	92.0958	405.762	92.1566	405.762	91.7438	405.762	91.7999	405.762	91.3214	405.762	91.3877	405.762	90.7447	405.762	90.8524	405.762	89.9219	405.762	90.1092	405.762	88.7864	405.762	89.0954	405.762	87.3643	405.762	87.8668	405.762	85.9802	405.762	86.7888	405.762	85.487	405.762	86.5435	405.762	86.3895	405.762	87.3209	405.762	87.8863	405.762	88.4856	405.762	89.16	405.762	89.4735	405.762	89.9499	405.762	90.0761	405.762	90.2436
420.41	93.7873	420.41	93.6653	420.41	93.7677	420.41	93.4187	420.41	93.6254	420.41	93.0957	420.41	93.4079	420.41	92.76	420.41	93.1721	420.41	92.4658	420.41	92.954	420.41	92.2199	420.41	92.7444	420.41	91.9496	420.41	92.4776	420.41	91.5044	420.41	92.0356	420.41	90.6943	420.41	91.2581	420.41	89.3406	420.41	89.9473	420.41	87.3816	420.41	87.8668	420.41	85.2811	420.41	84.8478	420.41	84.636	420.41	81.9889	420.41	85.982	420.41	83.0712	420.41	87.7106	420.41	86.0068	420.41	89.0025	420.41	88.1614	420.41	89.7343	420.41	89.3996	420.41	89.8858
435.059	93.7876	435.059	93.6455	435.059	93.7647	435.059	93.3876	435.059	93.5529	435.059	93.0659	435.059	93.1757	435.059	92.7204	435.059	92.7118	435.059	92.3764	435.059	92.2747	435.059	92.0459	435.059	91.9482	435.059	91.7142	435.059	91.7149	435.059	91.3083	435.059	91.4463	435.059	90.6774	435.059	90.9596	435.059	89.6161	435.059	90.0758	435.059	87.9288	435.059	88.6615	435.059	85.6386	435.059	86.7384	435.059	83.8309	435.059	84.9143	435.059	84.5777	435.059	84.7238	435.059	86.7243	435.059	86.2883	435.059	88.4842	435.059	88.0468	435.059	89.4873	435.059	89.2466	435.059	89.7347
451.172	94.4579	451.172	94.3311	451.172	94.4142	451.172	94.0309	451.172	94.2178	451.172	93.5912	451.172	93.8922	451.172	93.0947	451.172	93.4723	451.172	92.6457	451.172	93.0086	451.172	92.2958	451.172	92.5473	451.172	91.9782	451.172	92.0926	451.172	91.5203	451.172	91.5799	451.172	90.7096	451.172	90.8746	451.172	89.3312	451.172	89.7776	451.172	87.16	451.172	88.0291	451.172	84.0715	451.172	85.3836	451.172	81.5071	451.172	82.4737	451.172	83.2171	451.172	82.8991	451.172	86.2729	451.172	85.8373	451.172	88.3823	451.172	88.1099	451.172	89.5141	451.172	89.3862	451.172	89.8292
465.82	93.9452	465.82	93.852	465.82	93.8581	465.82	93.5771	465.82	93.6101	465.82	93.1488	465.82	93.2388	465.82	92.6388	465.82	92.8124	465.82	92.1521	465.82	92.4335	465.82	91.7743	465.82	92.1962	465.82	91.5042	465.82	92.0985	465.82	91.2398	465.82	92.0054	465.82	90.8151	465.82	91.7154	465.82	90.0284	465.82	91.036	465.82	88.6447	465.82	89.7894	465.82	86.436	465.82	87.7978	465.82	83.6182	465.82	85.0946	465.82	82.6116	465.82	83.2701	465.82	84.7921	465.82	84.715	465.82	87.0755	465.82	86.9935	465.82	88.4325	465.82	88.4152	465.82	88.8716
483.398	93.7195	483.398	93.5157	483.398	93.6832	483.398	93.1083	483.398	93.3851	483.398	92.5366	483.398	92.8379	483.398	91.8559	483.398	92.109	483.398	91.1756	483.398	91.3393	483.398	90.6588	483.398	90.7174	483.398	90.3956	483.398	90.3493	483.398	90.2568	483.398	90.1233	483.398	89.9491	483.398	89.7755	483.398	89.1728	483.398	89.0519	483.398	87.6965	483.398	87.7889	483.398	85.4667	483.398	86.0044	483.398	83.3229	483.398	84.3043	483.398	83.6389	483.398	84.2031	483.398	85.8055	483.398	85.8035	483.398	87.676	483.398	87.546	483.398	88.7685	483.398	88.6882	483.398	89.0979
499.512	94.2418	499.512	94.115	499.512	94.1632	499.512	93.7605	499.512	93.8878	499.512	93.1601	499.512	93.3993	499.512	92.3217	499.512	92.6639	499.512	91.3188	499.512	91.6705	499.512	90.3429	499.512	90.5086	499.512	89.661	499.512	89.4443	499.512	89.3543	499.512	88.7901	499.512	89.141	499.512	88.4869	499.512	88.5958	499.512	88.0255	499.512	87.3606	499.512	86.82	499.512	85.1955	499.512	84.4309	499.512	82.6114	499.512	81.5097	499.512	82.8021	499.512	82.4741	499.512	85.647	499.512	85.7775	499.512	87.9496	499.512	88.0583	499.512	89.2121	499.512	89.2496	499.512	89.6083
517.09	94.1354	517.09	94.0429	517.09	93.989	517.09	93.7033	517.09	93.6024	517.09	93.1043	517.09	92.9763	517.09	92.2425	517.09	92.1389	517.09	91.14	517.09	91.1627	517.09	89.8714	517.09	90.1539	517.09	88.5858	517.09	89.2203	517.09	87.4586	517.09	88.445	517.09	86.5272	517.09	87.8366	517.09	85.5727	517.09	87.2235	517.09	84.2096	517.09	86.2184	517.09	82.1365	517.09	84.3321	517.09	80.2471	517.09	81.4075	517.09	81.8483	517.09	80.3256	517.09	85.2267	517.09	83.5604	517.09	87.7146	517.09	86.6171	517.09	89.0218	517.09	88.468	517.09	89.2515
536.133	93.7981	536.133	93.7552	536.133	93.7485	536.133	93.6172	536.133	93.6036	536.133	93.3747	536.133	93.3555	536.133	93.021	536.133	92.99	536.133	92.5731	536.133	92.498	536.133	92.0785	536.133	91.8937	536.133	91.5737	536.133	91.2032	536.133	90.9993	536.133	90.4009	536.133	90.1558	536.133	89.3476	536.133	88.7373	536.133	87.8038	536.133	86.3445	536.133	85.4631	536.133	82.2648	536.133	81.8414	536.133	74.0136	536.133	75.8692	536.133	71.2756	536.133	72.9058	536.133	80.1237	536.133	79.533	536.133	83.8313	536.133	83.4424	536.133	85.6214	536.133	85.4596	536.133	86.1322
555.176	95.2516	555.176	95.1454	555.176	95.1595	555.176	94.8537	555.176	94.9097	555.176	94.4408	555.176	94.5555	555.176	93.9717	555.176	94.1285	555.176	93.4616	555.176	93.6498	555.176	92.9028	555.176	93.1681	555.176	92.3465	555.176	92.7496	555.176	91.9009	555.176	92.3907	555.176	91.5527	555.176	91.9526	555.176	91.0195	555.176	91.1865	555.176	89.8488	555.176	89.7641	555.176	87.5038	555.176	87.2093	555.176	83.1336	555.176	82.6662	555.176	76.4041	555.176	77.1487	555.176	80.2695	555.176	81.7606	555.176	84.8025	555.176	85.6999	555.176	87.0107	555.176	87.4685	555.176	87.8258
574.219	96.1413	574.219	95.9338	574.219	96.0839	574.219	95.5152	574.219	95.7527	574.219	94.9639	574.219	95.2043	574.219	94.3766	574.219	94.5533	574.219	93.8693	574.219	93.927	574.219	93.5454	574.219	93.4256	574.219	93.3981	574.219	93.1119	574.219	93.2494	574.219	92.9595	574.219	92.8389	574.219	92.771	574.219	91.9309	574.219	92.2108	574.219	90.2796	574.219	90.9005	574.219	87.4471	574.219	88.3761	574.219	82.4545	574.219	83.6945	574.219	77.0378	574.219	74.3445	574.219	82.7816	574.219	80.063	574.219	86.7565	574.219	85.6888	574.219	88.6245	574.219	88.2259	574.219	89.0833
594.727	95.5169	594.727	95.482	594.727	95.3449	594.727	95.1785	594.727	94.9885	594.727	94.5447	594.727	94.433	594.727	93.5864	594.727	93.6634	594.727	92.456	594.727	92.7382	594.727	91.4998	594.727	91.8842	594.727	91.1034	594.727	91.4572	594.727	91.2845	594.727	91.5597	594.727	91.6294	594.727	91.8209	594.727	91.6527	594.727	91.7449	594.727	90.9631	594.727	90.9409	594.727	89.2118	594.727	89.0243	594.727	86.0073	594.727	85.3442	594.727	81.6682	594.727	79.2187	594.727	82.326	594.727	80.8754	594.727	86.0892	594.727	85.7453	594.727	88.2554	594.727	88.1296	594.727	88.881
615.234	94.8364	615.234	94.7173	615.234	94.785	615.234	94.4321	615.234	94.5305	615.234	93.9532	615.234	94.0375	615.234	93.2485	615.234	93.2995	615.234	92.3301	615.234	92.3674	615.234	91.3185	615.234	91.3752	615.234	90.4674	615.234	90.5368	615.234	90.0018	615.234	90.0374	615.234	89.8011	615.234	89.8086	615.234	89.3952	615.234	89.4697	615.234	88.2466	615.234	88.5267	615.234	85.7826	615.234	86.4508	615.234	81.0449	615.234	82.4326	615.234	75.9249	615.234	76.2287	615.234	81.6423	615.234	80.1987	615.234	85.645	615.234	85.0129	615.234	87.5778	615.234	87.3723	615.234	88.1258
637.207	94.1755	637.207	93.9481	637.207	94.1379	637.207	93.4978	637.207	93.7904	637.207	92.8327	637.207	93.1186	637.207	91.9394	637.207	92.1471	637.207	90.8653	637.207	90.9647	637.207	89.8653	637.207	89.8512	637.207	89.397	637.207	89.3336	637.207	89.583	637.207	89.6197	637.207	89.8969	637.207	90.163	637.207	89.7209	637.207	90.2967	637.207	88.5994	637.207	89.566	637.207	85.9563	637.207	87.5061	637.207	80.1165	637.207	83.0961	637.207	69.1089	637.207	71.24	637.207	82.1861	637.207	78.1373	637.207	86.654	637.207	84.5616	637.207	88.3679	637.207	87.3185	637.207	88.4807
659.18	94.1065	659.18	94.0887	659.18	93.9088	659.18	93.7628	659.18	93.5642	659.18	93.0751	659.18	93.0548	659.18	92.0207	659.18	92.2726	659.18	90.6192	659.18	91.0896	659.18	88.9883	659.18	89.5062	659.18	87.6674	659.18	87.9831	659.18	87.5479	659.18	87.6017	659.18	88.3823	659.18	88.5079	659.18	89.0266	659.18	89.4419	659.18	88.7812	659.18	89.4879	659.18	87.1754	659.18	88.1284	659.18	83.2611	659.18	84.5355	659.18	72.3939	659.18	74.9732	659.18	76.2128	659.18	75.2096	659.18	83.3838	659.18	83.4412	659.18	86.0625	659.18	86.198	659.18	86.8812
682.617	94.242	682.617	94.132	682.617	94.2579	682.617	93.9491	682.617	94.1032	682.617	93.6111	682.617	93.6916	682.617	92.9556	682.617	92.9303	682.617	91.8159	682.617	91.6985	682.617	90.0684	682.617	89.8442	682.617	87.7648	682.617	87.3634	682.617	85.9604	682.617	85.4521	682.617	86.8075	682.617	86.4378	682.617	88.9319	682.617	88.5447	682.617	90.1638	682.617	89.7469	682.617	89.8408	682.617	89.6061	682.617	87.5206	682.617	87.836	682.617	81.9361	682.617	83.5335	682.617	71.544	682.617	72.8656	682.617	81.1904	682.617	78.9529	682.617	84.9601	682.617	84.2908	682.617	85.7958
707.52	94.9127	707.52	94.7104	707.52	94.8352	707.52	94.2622	707.52	94.5345	707.52	93.6873	707.52	94.0999	707.52	93.0816	707.52	93.5695	707.52	92.3745	707.52	92.8876	707.52	91.3682	707.52	91.9389	707.52	89.9317	707.52	90.6013	707.52	88.194	707.52	88.8273	707.52	86.7944	707.52	86.9941	707.52	86.5351	707.52	86.3254	707.52	86.9767	707.52	87.0539	707.52	86.9165	707.52	87.6439	707.52	85.4827	707.52	87.0736	707.52	81.7035	707.52	84.7515	707.52	73.2077	707.52	79.6022	707.52	77.2118	707.52	73.2392	707.52	81.9777	707.52	79.6084	707.52	82.5258
732.422	94.506	732.422	94.4072	732.422	94.3616	732.422	94.0611	732.422	93.9745	732.422	93.4717	732.422	93.3773	732.422	92.6842	732.422	92.6503	732.422	91.7583	732.422	91.8439	732.422	90.6831	732.422	90.9031	732.422	89.4021	732.422	89.7458	732.422	88.0451	732.422	88.4448	732.422	87.0159	732.422	87.3673	732.422	86.4433	732.422	86.851	732.422	85.9098	732.422	86.5681	732.422	85.0006	732.422	85.8141	732.422	83.3856	732.422	84.0323	732.422	80.5676	732.422	80.9022	732.422	77.8398	732.422	78.1882	732.422	80.6351	732.422	80.5347	732.422	83.6425	732.422	83.3813	732.422	84.4858
757.324	94.1189	757.324	93.9869	757.324	94.0524	757.324	93.6313	757.324	93.7901	757.324	93.0234	757.324	93.2752	757.324	92.1265	757.324	92.4398	757.324	90.9474	757.324	91.2889	757.324	89.5996	757.324	89.9146	757.324	88.2732	757.324	88.4631	757.324	87.1819	757.324	87.1814	757.324	86.6349	757.324	86.5128	757.324	86.7543	757.324	86.6173	757.324	86.8591	757.324	86.825	757.324	85.8955	757.324	86.2246	757.324	82.9448	757.324	84.0766	757.324	77.8955	757.324	79.9221	757.324	78.4644	757.324	77.9321	757.324	81.998	757.324	81.4887	757.324	83.794	757.324	83.7539	757.324	84.3711
785.156	94.1471	785.156	94.0058	785.156	94.0293	785.156	93.6043	785.156	93.7016	785.156	93.004	785.156	93.2086	785.156	92.2642	785.156	92.528	785.156	91.3379	785.156	91.5615	785.156	90.1072	785.156	90.241	785.156	88.6104	785.156	88.7122	785.156	87.2615	785.156	87.433	785.156	86.5809	785.156	86.7892	785.156	86.4196	785.156	86.512	785.156	86.0648	785.156	86.135	785.156	84.8151	785.156	85.28	785.156	81.8852	785.156	83.12	785.156	75.4484	785.156	77.3821	785.156	75.0679	785.156	72.1035	785.156	82.3593	785.156	81.7312	785.156	85.4222	785.156	85.173	785.156	86.1679
811.523	94.179	811.523	94.0087	811.523	94.125	811.523	93.6443	811.523	93.7693	811.523	93.0593	811.523	93.0727	811.523	92.2296	811.523	92.113	811.523	91.1702	811.523	91.0407	811.523	89.8934	811.523	89.9137	811.523	88.4353	811.523	88.6699	811.523	87.1143	811.523	87.4539	811.523	86.5222	811.523	86.837	811.523	86.6115	811.523	86.9609	811.523	86.6532	811.523	87.0409	811.523	86.0109	811.523	86.309	811.523	84.02	811.523	84.2007	811.523	79.3817	811.523	79.824	811.523	72.9542	811.523	73.7063	811.523	79.7797	811.523	79.0997	811.523	83.5802	811.523	83.256	811.523	84.5813
840.82	94.4322	840.82	94.3172	840.82	94.2828	840.82	93.8863	840.82	93.9366	840.82	93.1426	840.82	93.3741	840.82	92.1162	840.82	92.4538	840.82	90.8193	840.82	91.0589	840.82	89.2726	840.82	89.2668	840.82	87.6411	840.82	87.3185	840.82	86.3924	840.82	85.6687	840.82	86.0976	840.82	85.2369	840.82	86.4796	840.82	85.8316	840.82	86.4748	840.82	85.8862	840.82	85.2834	840.82	84.488	840.82	82.2793	840.82	81.1345	840.82	76.9264	840.82	75.1237	840.82	78.0844	840.82	76.8517	840.82	83.4162	840.82	83.0534	840.82	86.3253	840.82	86.2625	840.82	87.2528
870.117	94.0777	870.117	93.9662	870.117	93.9777	870.117	93.6698	870.117	93.632	870.117	93.183	870.117	93.1191	870.117	92.5397	870.117	92.5291	870.117	91.6647	870.117	91.7301	870.117	90.2273	870.117	90.3484	870.117	87.9377	870.117	88.0634	870.117	85.6391	870.117	85.4587	870.117	85.795	870.117	85.0361	870.117	87.2619	870.117	86.5189	870.117	87.8646	870.117	87.4375	870.117	86.8504	870.117	86.8768	870.117	83.0864	870.117	83.7778	870.117	69.7423	870.117	72.8007	870.117	79.1881	870.117	77.9427	870.117	85.5004	870.117	84.8489	870.117	87.6768	870.117	87.225	870.117	88.0239
900.879	94.2974	900.879	94.1138	900.879	94.0979	900.879	93.6833	900.879	93.6084	900.879	93.2271	900.879	93.0099	900.879	92.7262	900.879	92.4156	900.879	92.0231	900.879	91.783	900.879	90.9938	900.879	90.8334	900.879	89.1983	900.879	89.0062	900.879	85.735	900.879	85.4713	900.879	82.4296	900.879	81.4017	900.879	85.6148	900.879	84.531	900.879	87.9828	900.879	87.6488	900.879	88.0893	900.879	88.2575	900.879	86.022	900.879	86.2447	900.879	79.9187	900.879	79.7077	900.879	74.5319	900.879	75.627	900.879	84.5937	900.879	84.9776	900.879	87.9542	900.879	88.1088	900.879	88.8814
933.105	93.9572	933.105	93.8422	933.105	93.79	933.105	93.3735	933.105	93.1422	933.105	92.4157	933.105	92.1629	933.105	91.5094	933.105	91.2676	933.105	91.0983	933.105	90.5809	933.105	90.3576	933.105	89.9013	933.105	88.4102	933.105	88.7351	933.105	85.2399	933.105	86.1732	933.105	82.4246	933.105	81.1226	933.105	83.4818	933.105	80.351	933.105	86.3137	933.105	85.0564	933.105	87.3127	933.105	86.6749	933.105	85.0407	933.105	85.2767	933.105	76.9726	933.105	80.2272	933.105	75.5662	933.105	76.6399	933.105	84.2472	933.105	83.9034	933.105	88.0568	933.105	88.0019	933.105	89.3019
965.332	94.29	965.332	93.9439	965.332	93.8493	965.332	92.9208	965.332	92.9779	965.332	91.7593	965.332	91.7746	965.332	90.6032	965.332	90.1794	965.332	89.609	965.332	88.986	965.332	89.3255	965.332	88.7055	965.332	88.9191	965.332	88.2883	965.332	86.819	965.332	86.4708	965.332	81.4847	965.332	81.8818	965.332	80.161	965.332	77.743	965.332	84.9604	965.332	83.9784	965.332	86.4998	965.332	86.515	965.332	85.7844	965.332	86.1118	965.332	82.4553	965.332	83.5109	965.332	81.9952	965.332	80.4368	965.332	87.1754	965.332	85.2628	965.332	89.4916	965.332	88.6856	965.332	89.8169
1,000.49	95.8123	1,000.49	95.662	1,000.49	95.678	1,000.49	95.0544	1,000.49	95.1334	1,000.49	93.7083	1,000.49	94.094	1,000.49	91.7653	1,000.49	92.523	1,000.49	89.9503	1,000.49	90.5107	1,000.49	88.9563	1,000.49	89.1237	1,000.49	88.6718	1,000.49	89.1359	1,000.49	87.9246	1,000.49	88.6102	1,000.49	84.8033	1,000.49	85.3403	1,000.49	78.3848	1,000.49	75.9063	1,000.49	85.0323	1,000.49	83.0138	1,000.49	89.2999	1,000.49	87.9866	1,000.49	89.8809	1,000.49	89.4089	1,000.49	87.6917	1,000.49	88.4284	1,000.49	83.0929	1,000.49	85.691	1,000.49	84.6415	1,000.49	85.0596	1,000.49	88.4293	1,000.49	87.6006	1,000.49	89.1719
1,035.64	96.0829	1,035.64	95.7362	1,035.64	96.0451	1,035.64	95.1197	1,035.64	95.5114	1,035.64	94.2142	1,035.64	94.5272	1,035.64	92.8761	1,035.64	93.1964	1,035.64	91.1175	1,035.64	91.5254	1,035.64	89.5086	1,035.64	89.7015	1,035.64	88.7207	1,035.64	88.5238	1,035.64	88.0698	1,035.64	88.2461	1,035.64	86.0314	1,035.64	87.2834	1,035.64	80.5803	1,035.64	83.3733	1,035.64	80.2707	1,035.64	74.8668	1,035.64	86.1753	1,035.64	83.9956	1,035.64	87.6152	1,035.64	87.067	1,035.64	85.888	1,035.64	86.4342	1,035.64	81.6701	1,035.64	82.8652	1,035.64	81.5995	1,035.64	80.2741	1,035.64	85.111	1,035.64	84.2695	1,035.64	86.1077
1,072.27	95.706	1,072.27	95.4155	1,072.27	95.5578	1,072.27	94.7835	1,072.27	94.9995	1,072.27	93.8238	1,072.27	94.2581	1,072.27	92.5791	1,072.27	93.2605	1,072.27	91.0059	1,072.27	91.7427	1,072.27	89.1571	1,072.27	90.004	1,072.27	87.9243	1,072.27	88.5842	1,072.27	87.2739	1,072.27	87.369	1,072.27	85.2321	1,072.27	86.1278	1,072.27	80.081	1,072.27	83.8003	1,072.27	78.679	1,072.27	78.855	1,072.27	83.724	1,072.27	81.6303	1,072.27	85.5749	1,072.27	85.6756	1,072.27	84.7338	1,072.27	85.9947	1,072.27	81.2233	1,072.27	82.6934	1,072.27	76.9291	1,072.27	76.6208	1,072.27	82.6253	1,072.27	81.2642	1,072.27	84.3871
1,108.89	95.6995	1,108.89	95.6724	1,108.89	95.559	1,108.89	95.3003	1,108.89	95.2203	1,108.89	94.4396	1,108.89	94.6053	1,108.89	93.1921	1,108.89	93.5602	1,108.89	91.5947	1,108.89	91.9354	1,108.89	89.5815	1,108.89	90.0288	1,108.89	87.6236	1,108.89	88.5916	1,108.89	86.5409	1,108.89	87.7189	1,108.89	85.5624	1,108.89	86.3059	1,108.89	82.7023	1,108.89	83.1289	1,108.89	77.1371	1,108.89	78.1943	1,108.89	82.1898	1,108.89	81.7591	1,108.89	85.2787	1,108.89	85.2821	1,108.89	84.429	1,108.89	84.9595	1,108.89	79.5734	1,108.89	80.989	1,108.89	73.1243	1,108.89	71.2416	1,108.89	80.5701	1,108.89	79.2732	1,108.89	82.8666
1,148.44	95.5054	1,148.44	95.3985	1,148.44	95.2788	1,148.44	94.8538	1,148.44	94.7745	1,148.44	94.0017	1,148.44	93.9737	1,148.44	92.9735	1,148.44	92.7812	1,148.44	91.4498	1,148.44	91.2219	1,148.44	89.3769	1,148.44	89.5777	1,148.44	87.7571	1,148.44	88.0852	1,148.44	86.9081	1,148.44	86.944	1,148.44	85.7342	1,148.44	86.2537	1,148.44	83.0847	1,148.44	84.82	1,148.44	77.9547	1,148.44	81.0774	1,148.44	79.6968	1,148.44	79.4283	1,148.44	83.2595	1,148.44	82.2117	1,148.44	83.0304	1,148.44	83.0618	1,148.44	78.1805	1,148.44	80.8893	1,148.44	70.1472	1,148.44	72.67	1,148.44	79.3359	1,148.44	78.524	1,148.44	81.4744
1,189.45	95.2699	1,189.45	95.0934	1,189.45	94.9582	1,189.45	94.5128	1,189.45	94.5221	1,189.45	93.8388	1,189.45	93.8077	1,189.45	92.6478	1,189.45	92.6299	1,189.45	90.9174	1,189.45	91.2589	1,189.45	89.3122	1,189.45	89.6358	1,189.45	87.6403	1,189.45	87.67	1,189.45	85.8157	1,189.45	86.0787	1,189.45	84.5633	1,189.45	84.8981	1,189.45	82.8265	1,189.45	82.8116	1,189.45	80.405	1,189.45	79.3631	1,189.45	81.3901	1,189.45	80.1873	1,189.45	83.6165	1,189.45	83.5772	1,189.45	83.4604	1,189.45	83.3096	1,189.45	78.5868	1,189.45	78.3492	1,189.45	69.5996	1,189.45	68.2609	1,189.45	79.7106	1,189.45	80.3307	1,189.45	82.2138
1,230.47	94.8086	1,230.47	94.5328	1,230.47	94.657	1,230.47	94.0403	1,230.47	93.8548	1,230.47	93.1732	1,230.47	92.6887	1,230.47	91.9425	1,230.47	91.5743	1,230.47	90.7028	1,230.47	90.366	1,230.47	89.2265	1,230.47	88.656	1,230.47	87.1959	1,230.47	86.4663	1,230.47	85.7204	1,230.47	84.7898	1,230.47	85.0806	1,230.47	84.135	1,230.47	83.2855	1,230.47	82.5763	1,230.47	79.3626	1,230.47	78.8149	1,230.47	78.9201	1,230.47	78.1341	1,230.47	82.8895	1,230.47	81.8047	1,230.47	82.6528	1,230.47	83.0419	1,230.47	76.6914	1,230.47	80.0828	1,230.47	72.2241	1,230.47	75.2894	1,230.47	78.2482	1,230.47	79.744	1,230.47	81.0338
1,274.41	94.5553	1,274.41	94.3304	1,274.41	94.2966	1,274.41	93.5757	1,274.41	93.6443	1,274.41	92.4818	1,274.41	92.6228	1,274.41	91.2384	1,274.41	91.3549	1,274.41	89.8607	1,274.41	89.758	1,274.41	88.2459	1,274.41	87.8584	1,274.41	86.672	1,274.41	86.2111	1,274.41	85.5633	1,274.41	84.5351	1,274.41	84.2319	1,274.41	82.3887	1,274.41	81.9177	1,274.41	80.4205	1,274.41	78.7127	1,274.41	78.3052	1,274.41	78.0281	1,274.41	77.3404	1,274.41	81.575	1,274.41	79.5728	1,274.41	82.19	1,274.41	81.2871	1,274.41	77.9537	1,274.41	79.6297	1,274.41	51.6417	1,274.41	69.1019	1,274.41	74.9329	1,274.41	75.0043	1,274.41	77.2846
1,319.82	93.9627	1,319.82	93.7878	1,319.82	93.5698	1,319.82	93.1596	1,319.82	92.9131	1,319.82	92.3275	1,319.82	92.1151	1,319.82	91.2446	1,319.82	90.7925	1,319.82	89.442	1,319.82	88.6679	1,319.82	87.121	1,319.82	86.3725	1,319.82	86.1767	1,319.82	84.9111	1,319.82	85.5701	1,319.82	83.7421	1,319.82	83.4273	1,319.82	82.2019	1,319.82	80.6806	1,319.82	79.7373	1,319.82	78.9754	1,319.82	77.2742	1,319.82	78.7009	1,319.82	78.3025	1,319.82	78.8194	1,319.82	78.976	1,319.82	76.9549	1,319.82	78.0792	1,319.82	68.5083	1,319.82	73.6773	1,319.82	70.6588	1,319.82	51.9258	1,319.82	78.5154	1,319.82	75.6842	1,319.82	79.3728
1,366.7	93.5668	1,366.7	93.423	1,366.7	93.2706	1,366.7	92.9738	1,366.7	92.749	1,366.7	91.9665	1,366.7	91.8549	1,366.7	90.3546	1,366.7	90.4057	1,366.7	88.6992	1,366.7	88.9732	1,366.7	86.5086	1,366.7	86.8005	1,366.7	83.9779	1,366.7	83.5552	1,366.7	83.3809	1,366.7	82.8625	1,366.7	83.0098	1,366.7	82.8185	1,366.7	79.4981	1,366.7	80.5675	1,366.7	72.5103	1,366.7	75.1999	1,366.7	78.3068	1,366.7	75.3578	1,366.7	80.4952	1,366.7	81.0975	1,366.7	78.9035	1,366.7	81.3798	1,366.7	74.2276	1,366.7	76.7004	1,366.7	75.8571	1,366.7	73.1041	1,366.7	81.1996	1,366.7	80.2031	1,366.7	82.3569
1,413.57	93.6468	1,413.57	93.3089	1,413.57	93.609	1,413.57	92.7696	1,413.57	92.8848	1,413.57	91.2783	1,413.57	91.7413	1,413.57	89.4807	1,413.57	90.2945	1,413.57	88.6197	1,413.57	88.6391	1,413.57	87.5023	1,413.57	87.069	1,413.57	84.8739	1,413.57	85.2349	1,413.57	82.4365	1,413.57	82.7379	1,413.57	82.6885	1,413.57	82.6904	1,413.57	81.6956	1,413.57	82.4719	1,413.57	75.5189	1,413.57	77.8756	1,413.57	73.4326	1,413.57	71.2687	1,413.57	80.9622	1,413.57	80.393	1,413.57	82.8068	1,413.57	83.0701	1,413.57	80.9884	1,413.57	81.8833	1,413.57	80.1596	1,413.57	79.4931	1,413.57	82.7088	1,413.57	80.4936	1,413.57	82.6601
1,463.38	94.4321	1,463.38	94.1164	1,463.38	93.9791	1,463.38	93.0409	1,463.38	93.2622	1,463.38	91.922	1,463.38	92.0958	1,463.38	90.0332	1,463.38	90.6497	1,463.38	87.8648	1,463.38	88.8586	1,463.38	86.3716	1,463.38	86.7967	1,463.38	84.3708	1,463.38	85.0311	1,463.38	81.9304	1,463.38	83.0621	1,463.38	81.5237	1,463.38	80.4451	1,463.38	82.1065	1,463.38	80.1209	1,463.38	79.606	1,463.38	80.3151	1,463.38	68.3938	1,463.38	73.7696	1,463.38	77.9817	1,463.38	78.3849	1,463.38	83.211	1,463.38	83.3412	1,463.38	82.141	1,463.38	82.6326	1,463.38	78.3366	1,463.38	79.5488	1,463.38	78.3985	1,463.38	76.7688	1,463.38	79.3367
1,516.11	93.2859	1,516.11	93.1081	1,516.11	93.0874	1,516.11	92.5163	1,516.11	92.4343	1,516.11	91.1771	1,516.11	91.3239	1,516.11	89.9968	1,516.11	89.7982	1,516.11	88.015	1,516.11	88.3402	1,516.11	84.4859	1,516.11	86.2034	1,516.11	83.171	1,516.11	83.7722	1,516.11	82.815	1,516.11	82.1829	1,516.11	80.1861	1,516.11	80.7637	1,516.11	78.5976	1,516.11	80.0076	1,516.11	79.1948	1,516.11	79.0058	1,516.11	74.7358	1,516.11	77.9815	1,516.11	70.0955	1,516.11	73.9516	1,516.11	77.0869	1,516.11	76.1169	1,516.11	78.3906	1,516.11	78.4719	1,516.11	72.6302	1,516.11	76.6751	1,516.11	67.1629	1,516.11	69.4035	1,516.11	64.1695
1,568.85	92.9909	1,568.85	92.8853	1,568.85	92.465	1,568.85	92.0031	1,568.85	91.8498	1,568.85	91.0623	1,568.85	90.826	1,568.85	89.7554	1,568.85	89.8152	1,568.85	87.9374	1,568.85	88.1264	1,568.85	85.3816	1,568.85	85.343	1,568.85	81.0439	1,568.85	83.0026	1,568.85	79.2756	1,568.85	80.452	1,568.85	78.2899	1,568.85	79.8448	1,568.85	78.2946	1,568.85	77.2755	1,568.85	78.5923	1,568.85	75.047	1,568.85	76.6562	1,568.85	75.3475	1,568.85	73.9066	1,568.85	73.8954	1,568.85	74.9968	1,568.85	77.0891	1,568.85	75.4236	1,568.85	78.4588	1,568.85	73.5847	1,568.85	74.5359	1,568.85	69.5618	1,568.85	72.1053	1,568.85	73.5414
1,624.51	94.4169	1,624.51	93.9278	1,624.51	94.2978	1,624.51	92.7888	1,624.51	93.3522	1,624.51	91.2333	1,624.51	91.529	1,624.51	89.9018	1,624.51	89.7432	1,624.51	88.6138	1,624.51	88.5016	1,624.51	86.9271	1,624.51	86.9258	1,624.51	83.5668	1,624.51	83.5372	1,624.51	80.8544	1,624.51	78.9205	1,624.51	78.3245	1,624.51	78.2268	1,624.51	66.4471	1,624.51	77.0088	1,624.51	72.8923	1,624.51	72.3711	1,624.51	77.8029	1,624.51	75.864	1,624.51	76.3008	1,624.51	76.2024	1,624.51	78.4258	1,624.51	76.83	1,624.51	80.317	1,624.51	81.305	1,624.51	74.2052	1,624.51	77.3356	1,624.51	63.4756	1,624.51	66.6155	1,624.51	69.3843
1,681.64	93.2918	1,681.64	92.9536	1,681.64	93.4586	1,681.64	92.2241	1,681.64	92.8857	1,681.64	91.043	1,681.64	91.2307	1,681.64	88.0363	1,681.64	89.6063	1,681.64	86.6349	1,681.64	87.0469	1,681.64	84.8933	1,681.64	85.1773	1,681.64	81.1504	1,681.64	84.5746	1,681.64	76.9645	1,681.64	82.769	1,681.64	78.7504	1,681.64	80.2777	1,681.64	79.0495	1,681.64	80.6088	1,681.64	70.0364	1,681.64	75.0434	1,681.64	76.361	1,681.64	59.6585	1,681.64	73.8166	1,681.64	76.7509	1,681.64	71.1017	1,681.64	74.3523	1,681.64	71.4942	1,681.64	75.9817	1,681.64	73.6974	1,681.64	75.7221	1,681.64	76.9633	1,681.64	72.1493	1,681.64	77.8552
1,741.7	93.2306	1,741.7	92.4319	1,741.7	93.1875	1,741.7	91.3222	1,741.7	92.3978	1,741.7	89.645	1,741.7	91.3908	1,741.7	87.4468	1,741.7	89.8899	1,741.7	84.2236	1,741.7	88.205	1,741.7	81.8499	1,741.7	85.1702	1,741.7	81.6489	1,741.7	82.0938	1,741.7	78.3762	1,741.7	81.2422	1,741.7	77.0452	1,741.7	75.8716	1,741.7	79.1529	1,741.7	78.2561	1,741.7	76.0811	1,741.7	74.9178	1,741.7	68.6165	1,741.7	59.7274	1,741.7	74.2099	1,741.7	77.5052	1,741.7	74.5567	1,741.7	78.6043	1,741.7	70.7804	1,741.7	69.7842	1,741.7	76.424	1,741.7	69.9579	1,741.7	79.0165	1,741.7	74.261	1,741.7	78.9389
1,803.22	93.1189	1,803.22	92.5639	1,803.22	92.7473	1,803.22	91.3356	1,803.22	91.5366	1,803.22	89.9388	1,803.22	90.9529	1,803.22	88.1188	1,803.22	90.036	1,803.22	85.9831	1,803.22	87.1099	1,803.22	79.3455	1,803.22	85.0838	1,803.22	77.0967	1,803.22	85.505	1,803.22	79.8581	1,803.22	83.4748	1,803.22	73.9608	1,803.22	80.4431	1,803.22	72.0379	1,803.22	77.5223	1,803.22	75.012	1,803.22	80.3103	1,803.22	64.6285	1,803.22	73.2519	1,803.22	77.1875	1,803.22	69.5528	1,803.22	78.6348	1,803.22	75.2452	1,803.22	76.2131	1,803.22	76.5995	1,803.22	70.4428	1,803.22	65.8537	1,803.22	75.2459	1,803.22	73.9606	1,803.22	77.9485
1,866.21	93.2082	1,866.21	92.3585	1,866.21	92.8785	1,866.21	91.4134	1,866.21	92.1504	1,866.21	89.8183	1,866.21	90.6751	1,866.21	87.2528	1,866.21	89.5511	1,866.21	86.3623	1,866.21	87.3716	1,866.21	82.5204	1,866.21	85.3192	1,866.21	79.7671	1,866.21	83.271	1,866.21	76.8534	1,866.21	81.196	1,866.21	76.5185	1,866.21	74.8798	1,866.21	70.7309	1,866.21	76.2445	1,866.21	74.5595	1,866.21	76.751	1,866.21	69.2334	1,866.21	66.1014	1,866.21	70.0031	1,866.21	76.383	1,866.21	65.2956	1,866.21	75.2658	1,866.21	78.7624	1,866.21	72.3093	1,866.21	73.922	1,866.21	42.642	1,866.21	78.8355	1,866.21	66.5097	1,866.21	77.5195
1,932.13	91.936	1,932.13	91.6889	1,932.13	91.9271	1,932.13	91.1902	1,932.13	90.8998	1,932.13	90.0569	1,932.13	89.5804	1,932.13	87.8599	1,932.13	88.623	1,932.13	85.3304	1,932.13	85.9203	1,932.13	83.2896	1,932.13	83.186	1,932.13	78.2316	1,932.13	79.261	1,932.13	77.4856	1,932.13	75.8116	1,932.13	75.1482	1,932.13	74.6435	1,932.13	72.8322	1,932.13	62.5967	1,932.13	75.024	1,932.13	59.9597	1,932.13	65.6398	1,932.13	66.9397	1,932.13	56.1578	1,932.13	66.2552	1,932.13	70.043	1,932.13	74.3881	1,932.13	73.2107	1,932.13	72.0803	1,932.13	69.2612	1,932.13	67.9635	1,932.13	68.9114	1,932.13	66.1787	1,932.13	73.5389
1,999.51	91.1513	1,999.51	90.7761	1,999.51	91.2905	1,999.51	90.0744	1,999.51	90.0928	1,999.51	89.0633	1,999.51	88.8674	1,999.51	86.4054	1,999.51	86.8645	1,999.51	85.1871	1,999.51	84.8951	1,999.51	81.5662	1,999.51	82.7818	1,999.51	78.7426	1,999.51	79.8729	1,999.51	77.201	1,999.51	75.8122	1,999.51	74.3856	1,999.51	69.7389	1,999.51	76.8986	1,999.51	72.7689	1,999.51	74.0334	1,999.51	61.7478	1,999.51	68.0231	1,999.51	61.6069	1,999.51	61.2421	1,999.51	68.8165	1,999.51	62.691	1,999.51	69.4008	1,999.51	65.1848	1,999.51	65.6146	1,999.51	50.0062	1,999.51	59.9253	1,999.51	69.1921	1,999.51	73.8528	1,999.51	72.3984
2,069.82	92.3875	2,069.82	91.5459	2,069.82	91.7467	2,069.82	89.642	2,069.82	91.5752	2,069.82	87.6927	2,069.82	89.9542	2,069.82	85.84	2,069.82	87.5603	2,069.82	82.8516	2,069.82	85.7156	2,069.82	80.1398	2,069.82	80.5486	2,069.82	74.4022	2,069.82	79.8268	2,069.82	70.2383	2,069.82	76.0026	2,069.82	63.3469	2,069.82	67.1704	2,069.82	70.7779	2,069.82	69.0979	2,069.82	69.3287	2,069.82	69.2189	2,069.82	61.756	2,069.82	72.1508	2,069.82	67.8474	2,069.82	71.1823	2,069.82	59.3105	2,069.82	68.5687	2,069.82	68.031	2,069.82	65.6834	2,069.82	67.5382	2,069.82	67.8439	2,069.82	69.464	2,069.82	69.8318	2,069.82	65.8105
2,143.07	93.7618	2,143.07	93.6143	2,143.07	93.7343	2,143.07	92.2683	2,143.07	92.8707	2,143.07	89.9194	2,143.07	90.5398	2,143.07	87.7484	2,143.07	87.8573	2,143.07	84.3716	2,143.07	84.2854	2,143.07	80.9692	2,143.07	81.2315	2,143.07	77.5024	2,143.07	75.5439	2,143.07	74.0515	2,143.07	75.7047	2,143.07	72.2507	2,143.07	71.5987	2,143.07	66.0021	2,143.07	64.7983	2,143.07	65.0163	2,143.07	73.6491	2,143.07	56.8345	2,143.07	72.0788	2,143.07	71.7693	2,143.07	64.9665	2,143.07	62.3379	2,143.07	66.7279	2,143.07	68.2661	2,143.07	67.1346	2,143.07	65.197	2,143.07	64.6908	2,143.07	67.8663	2,143.07	64.4077	2,143.07	75.1967
2,219.24	94.4526	2,219.24	94.4389	2,219.24	93.9683	2,219.24	93.5881	2,219.24	93.2789	2,219.24	91.5189	2,219.24	91.1065	2,219.24	89.1813	2,219.24	89.1538	2,219.24	86.753	2,219.24	85.7296	2,219.24	84.509	2,219.24	83.3175	2,219.24	80.0691	2,219.24	78.0301	2,219.24	77.551	2,219.24	75.4246	2,219.24	76.0832	2,219.24	68.331	2,219.24	71.1629	2,219.24	64.8795	2,219.24	63.4681	2,219.24	63.2038	2,219.24	69.5116	2,219.24	70.4074	2,219.24	66.0298	2,219.24	60.1619	2,219.24	66.7562	2,219.24	65.7186	2,219.24	70.9562	2,219.24	66.4585	2,219.24	64.948	2,219.24	69.3497	2,219.24	73.6089	2,219.24	72.5779	2,219.24	74.4229
2,296.88	93.8188	2,296.88	94.0072	2,296.88	93.2904	2,296.88	92.6885	2,296.88	92.4644	2,296.88	91.2148	2,296.88	90.5231	2,296.88	88.8953	2,296.88	88.1538	2,296.88	87.4929	2,296.88	85.8599	2,296.88	85.1516	2,296.88	83.9513	2,296.88	82.2571	2,296.88	79.5768	2,296.88	78.6677	2,296.88	81.0753	2,296.88	75.449	2,296.88	76.4642	2,296.88	77.6008	2,296.88	75.5702	2,296.88	74.9513	2,296.88	69.2197	2,296.88	73.9071	2,296.88	62.2474	2,296.88	71.112	2,296.88	71.1133	2,296.88	70.8791	2,296.88	70.8289	2,296.88	73.0483	2,296.88	73.8891	2,296.88	73.6188	2,296.88	72.0265	2,296.88	69.4483	2,296.88	69.2314	2,296.88	69.5248
2,378.91	92.5463	2,378.91	92.335	2,378.91	92.3161	2,378.91	91.5388	2,378.91	91.3764	2,378.91	90.7183	2,378.91	89.5346	2,378.91	89.6838	2,378.91	87.8684	2,378.91	87.0324	2,378.91	85.85	2,378.91	84.5314	2,378.91	84.0272	2,378.91	83.4122	2,378.91	82.8414	2,378.91	79.7238	2,378.91	78.7799	2,378.91	78.2798	2,378.91	74.7691	2,378.91	74.4402	2,378.91	73.1798	2,378.91	74.4793	2,378.91	69.2206	2,378.91	71.9418	2,378.91	66.1219	2,378.91	71.7513	2,378.91	65.3912	2,378.91	70.9626	2,378.91	68.5418	2,378.91	72.1118	2,378.91	65.7431	2,378.91	69.9795	2,378.91	67.6793	2,378.91	67.7369	2,378.91	64.6187	2,378.91	67.7082
2,462.4	93.794	2,462.4	92.9615	2,462.4	93.491	2,462.4	91.8943	2,462.4	92.7012	2,462.4	90.2834	2,462.4	91.478	2,462.4	89.079	2,462.4	89.8285	2,462.4	87.5194	2,462.4	88.3076	2,462.4	84.1853	2,462.4	86.2183	2,462.4	82.5095	2,462.4	84.2833	2,462.4	79.6933	2,462.4	81.4287	2,462.4	77.9939	2,462.4	79.0551	2,462.4	75.2532	2,462.4	76.7989	2,462.4	73.8744	2,462.4	74.4371	2,462.4	71.2772	2,462.4	70.8666	2,462.4	71.8201	2,462.4	68.5156	2,462.4	72.8072	2,462.4	74.5585	2,462.4	69.4476	2,462.4	65.2394	2,462.4	71.915	2,462.4	71.9599	2,462.4	71.4266	2,462.4	69.232	2,462.4	73.8111
2,548.83	93.9662	2,548.83	93.8764	2,548.83	93.911	2,548.83	93.1609	2,548.83	93.4686	2,548.83	91.9401	2,548.83	92.1739	2,548.83	90.2642	2,548.83	90.8267	2,548.83	89.6194	2,548.83	89.3311	2,548.83	87.9665	2,548.83	87.467	2,548.83	85.2493	2,548.83	85.6206	2,548.83	83.3087	2,548.83	83.6462	2,548.83	80.5508	2,548.83	80.2574	2,548.83	79.2161	2,548.83	78.332	2,548.83	76.039	2,548.83	76.8357	2,548.83	73.522	2,548.83	74.934	2,548.83	72.69	2,548.83	70.801	2,548.83	75.1204	2,548.83	75.3867	2,548.83	70.9968	2,548.83	71.1751	2,548.83	73.3522	2,548.83	75.6078	2,548.83	67.7126	2,548.83	73.5329	2,548.83	74.9183
2,639.65	92.9996	2,639.65	93.1567	2,639.65	92.8661	2,639.65	92.601	2,639.65	92.6341	2,639.65	92.0647	2,639.65	91.7818	2,639.65	90.3933	2,639.65	90.8921	2,639.65	90.1053	2,639.65	89.703	2,639.65	89.4856	2,639.65	88.3439	2,639.65	87.2018	2,639.65	86.487	2,639.65	84.9691	2,639.65	83.8619	2,639.65	82.2315	2,639.65	80.5971	2,639.65	80.8745	2,639.65	79.5193	2,639.65	77.6718	2,639.65	77.6001	2,639.65	76.787	2,639.65	77.3368	2,639.65	71.5661	2,639.65	70.0806	2,639.65	78.295	2,639.65	76.3541	2,639.65	73.424	2,639.65	72.7292	2,639.65	76.5868	2,639.65	77.0831	2,639.65	76.0489	2,639.65	72.9235	2,639.65	76.3103
2,731.93	91.8628	2,731.93	91.2176	2,731.93	91.768	2,731.93	91.2223	2,731.93	91.3685	2,731.93	91.2051	2,731.93	91.2816	2,731.93	90.9224	2,731.93	90.9371	2,731.93	89.2498	2,731.93	90.1424	2,731.93	88.9216	2,731.93	88.9894	2,731.93	87.2413	2,731.93	87.2855	2,731.93	84.8223	2,731.93	85.1856	2,731.93	83.4022	2,731.93	83.6926	2,731.93	80.4747	2,731.93	80.9819	2,731.93	76.4749	2,731.93	77.9083	2,731.93	78.0944	2,731.93	78.1584	2,731.93	71.4924	2,731.93	70.1941	2,731.93	78.5787	2,731.93	77.356	2,731.93	76.4201	2,731.93	76.2183	2,731.93	77.9756	2,731.93	75.2144	2,731.93	78.315	2,731.93	75.4979	2,731.93	78.4633
2,828.61	92.7405	2,828.61	91.8963	2,828.61	92.5599	2,828.61	91.0487	2,828.61	91.8557	2,828.61	90.7515	2,828.61	91.5343	2,828.61	91.0676	2,828.61	91.1563	2,828.61	90.0737	2,828.61	90.7346	2,828.61	88.2477	2,828.61	89.5993	2,828.61	87.1364	2,828.61	87.8192	2,828.61	85.2249	2,828.61	86.1046	2,828.61	82.4843	2,828.61	84.3837	2,828.61	79.8465	2,828.61	80.9005	2,828.61	77.4467	2,828.61	79.2915	2,828.61	77.0204	2,828.61	76.4878	2,828.61	70.0137	2,828.61	73.7798	2,828.61	77.2179	2,828.61	77.3215	2,828.61	74.3393	2,828.61	77.4108	2,828.61	76.2548	2,828.61	74.9641	2,828.61	76.9079	2,828.61	75.4629	2,828.61	76.644
2,928.22	94.3799	2,928.22	93.7413	2,928.22	93.8658	2,928.22	92.357	2,928.22	92.866	2,928.22	91.4796	2,928.22	91.6366	2,928.22	90.9212	2,928.22	90.9061	2,928.22	90.1601	2,928.22	89.8231	2,928.22	88.5648	2,928.22	88.706	2,928.22	86.8604	2,928.22	86.9252	2,928.22	85.1215	2,928.22	84.9579	2,928.22	82.3113	2,928.22	82.9762	2,928.22	79.2386	2,928.22	79.9574	2,928.22	77.7396	2,928.22	77.3012	2,928.22	74.4181	2,928.22	76.1692	2,928.22	74.045	2,928.22	74.8831	2,928.22	74.8957	2,928.22	72.8877	2,928.22	77.23	2,928.22	76.9845	2,928.22	75.181	2,928.22	72.5935	2,928.22	74.3577	2,928.22	73.6074	2,928.22	77.2003
3,030.76	95.1917	3,030.76	94.6434	3,030.76	94.469	3,030.76	93.2414	3,030.76	93.6534	3,030.76	92.0074	3,030.76	91.7869	3,030.76	90.6895	3,030.76	91.2095	3,030.76	89.6729	3,030.76	89.9518	3,030.76	88.6169	3,030.76	88.8662	3,030.76	86.8153	3,030.76	86.809	3,030.76	84.4672	3,030.76	84.7273	3,030.76	81.7535	3,030.76	81.7068	3,030.76	79.7954	3,030.76	79.9226	3,030.76	77.498	3,030.76	76.5204	3,030.76	75.7442	3,030.76	75.2825	3,030.76	72.5794	3,030.76	71.7012	3,030.76	72.6477	3,030.76	71.0651	3,030.76	73.8768	3,030.76	75.6553	3,030.76	76.8127	3,030.76	76.4535	3,030.76	67.9278	3,030.76	61.3409	3,030.76	76.7243
3,137.7	94.9201	3,137.7	94.6086	3,137.7	94.8383	3,137.7	93.4461	3,137.7	93.7744	3,137.7	92.0674	3,137.7	92.5368	3,137.7	91.0636	3,137.7	91.5463	3,137.7	90.2924	3,137.7	90.675	3,137.7	88.8617	3,137.7	89.1403	3,137.7	86.3615	3,137.7	87.7346	3,137.7	84.1656	3,137.7	85.4965	3,137.7	82.2991	3,137.7	83.3185	3,137.7	80.4355	3,137.7	81.1655	3,137.7	77.4854	3,137.7	78.6861	3,137.7	76.3246	3,137.7	75.9225	3,137.7	71.5584	3,137.7	74.0691	3,137.7	74.7497	3,137.7	73.6769	3,137.7	74.0913	3,137.7	74.9076	3,137.7	76.4349	3,137.7	77.6049	3,137.7	72.7305	3,137.7	72.9379	3,137.7	76.6966
3,249.02	95.2479	3,249.02	94.415	3,249.02	94.7324	3,249.02	93.525	3,249.02	93.8702	3,249.02	92.5041	3,249.02	92.6594	3,249.02	91.2189	3,249.02	91.482	3,249.02	90.0625	3,249.02	90.8092	3,249.02	89.0237	3,249.02	89.6695	3,249.02	87.2358	3,249.02	87.8724	3,249.02	85.3938	3,249.02	85.4544	3,249.02	83.173	3,249.02	82.4206	3,249.02	81.3097	3,249.02	81.2285	3,249.02	77.2059	3,249.02	78.4137	3,249.02	75.2557	3,249.02	76.8891	3,249.02	73.9455	3,249.02	74.1005	3,249.02	72.951	3,249.02	73.5759	3,249.02	75.9312	3,249.02	75.7113	3,249.02	78.794	3,249.02	75.9999	3,249.02	76.6147	3,249.02	74.2663	3,249.02	77.4761
3,363.28	94.5592	3,363.28	94.2567	3,363.28	94.6306	3,363.28	93.0317	3,363.28	93.2537	3,363.28	91.7009	3,363.28	92.3747	3,363.28	90.9715	3,363.28	91.1323	3,363.28	90.2102	3,363.28	90.1674	3,363.28	88.827	3,363.28	88.2426	3,363.28	86.9122	3,363.28	87.0985	3,363.28	84.9919	3,363.28	84.3375	3,363.28	83.7251	3,363.28	82.9128	3,363.28	81.0307	3,363.28	80.1529	3,363.28	79.1787	3,363.28	77.3056	3,363.28	77.2571	3,363.28	73.0057	3,363.28	74.6607	3,363.28	73.2856	3,363.28	68.7874	3,363.28	67.075	3,363.28	76.3969	3,363.28	74.5388	3,363.28	77.7469	3,363.28	75.4481	3,363.28	71.416	3,363.28	74.8404	3,363.28	75.0713
3,481.93	94.5911	3,481.93	94.4102	3,481.93	94.4696	3,481.93	93.19	3,481.93	93.5861	3,481.93	92.091	3,481.93	92.7788	3,481.93	91.5698	3,481.93	92.0747	3,481.93	90.685	3,481.93	91.2274	3,481.93	89.1954	3,481.93	90.2035	3,481.93	87.338	3,481.93	87.9517	3,481.93	85.9316	3,481.93	86.0049	3,481.93	83.6677	3,481.93	83.9992	3,481.93	80.9293	3,481.93	81.1408	3,481.93	77.8655	3,481.93	79.4503	3,481.93	76.2928	3,481.93	76.8713	3,481.93	75.7136	3,481.93	76.5354	3,481.93	71.5593	3,481.93	68.007	3,481.93	75.8416	3,481.93	73.9956	3,481.93	77.3103	3,481.93	73.7026	3,481.93	73.733	3,481.93	74.1308	3,481.93	76.1867
3,604.98	95.8615	3,604.98	95.553	3,604.98	95.437	3,604.98	94.4125	3,604.98	95	3,604.98	93.289	3,604.98	94.0903	3,604.98	92.5422	3,604.98	93.3833	3,604.98	91.8019	3,604.98	92.6569	3,604.98	90.4433	3,604.98	91.3356	3,604.98	89.2729	3,604.98	89.1812	3,604.98	86.2182	3,604.98	87.3404	3,604.98	83.7654	3,604.98	84.9239	3,604.98	81.7712	3,604.98	81.8867	3,604.98	79.684	3,604.98	80.9155	3,604.98	76.2839	3,604.98	79.0345	3,604.98	75.7111	3,604.98	77.5092	3,604.98	69.109	3,604.98	70.588	3,604.98	74.7452	3,604.98	76.7168	3,604.98	75.9142	3,604.98	74.9288	3,604.98	74.8043	3,604.98	75.9322	3,604.98	77.4181
3,732.42	95.2428	3,732.42	94.6668	3,732.42	94.7843	3,732.42	94.6746	3,732.42	93.6445	3,732.42	94.0446	3,732.42	93.2059	3,732.42	93.2289	3,732.42	92.2632	3,732.42	91.3374	3,732.42	91.8397	3,732.42	91.5395	3,732.42	90.3561	3,732.42	89.6304	3,732.42	88.069	3,732.42	87.5819	3,732.42	87.2028	3,732.42	84.9096	3,732.42	83.3356	3,732.42	82.1166	3,732.42	81.4886	3,732.42	81.0303	3,732.42	79.9714	3,732.42	77.4595	3,732.42	76.7325	3,732.42	78.0591	3,732.42	73.1047	3,732.42	66.8895	3,732.42	67.6881	3,732.42	75.2063	3,732.42	73.9616	3,732.42	76.0547	3,732.42	73.5184	3,732.42	76.4376	3,732.42	74.8308	3,732.42	76.2283
3,864.26	94.3476	3,864.26	94.2069	3,864.26	95.0537	3,864.26	93.7137	3,864.26	94.1786	3,864.26	93.2343	3,864.26	93.7097	3,864.26	92.1917	3,864.26	92.8082	3,864.26	91.5926	3,864.26	92.0032	3,864.26	89.9591	3,864.26	90.7534	3,864.26	88.1297	3,864.26	89.1107	3,864.26	85.8436	3,864.26	86.7182	3,864.26	82.7812	3,864.26	84.1699	3,864.26	81.5428	3,864.26	82.0351	3,864.26	78.8061	3,864.26	80.1327	3,864.26	76.8094	3,864.26	75.8858	3,864.26	74.2163	3,864.26	76.662	3,864.26	70.9882	3,864.26	75.1638	3,864.26	77.8086	3,864.26	74.2517	3,864.26	75.0542	3,864.26	74.8628	3,864.26	75.5551	3,864.26	76.2841	3,864.26	76.2227
4,000.49	95.5352	4,000.49	96.0835	4,000.49	95.3205	4,000.49	95.3178	4,000.49	95.5969	4,000.49	94.1465	4,000.49	94.3514	4,000.49	93.5252	4,000.49	93.8488	4,000.49	93.0108	4,000.49	92.0176	4,000.49	90.9053	4,000.49	90.0579	4,000.49	89.2229	4,000.49	89.0664	4,000.49	86.0365	4,000.49	86.4717	4,000.49	84.3195	4,000.49	83.225	4,000.49	80.961	4,000.49	80.8246	4,000.49	78.8595	4,000.49	77.3988	4,000.49	76.2356	4,000.49	76.4103	4,000.49	76.4061	4,000.49	74.0488	4,000.49	70.6074	4,000.49	70.2889	4,000.49	72.2532	4,000.49	71.7459	4,000.49	73.7387	4,000.49	76.5508	4,000.49	71.5177	4,000.49	75.4479	4,000.49	73.2445
4,141.11	95.8122	4,141.11	96.0528	4,141.11	95.7407	4,141.11	95.8087	4,141.11	95.7181	4,141.11	94.9577	4,141.11	94.894	4,141.11	93.9772	4,141.11	93.0577	4,141.11	91.9312	4,141.11	91.7995	4,141.11	90.7665	4,141.11	90.818	4,141.11	88.1543	4,141.11	88.582	4,141.11	86.2781	4,141.11	86.2641	4,141.11	85.0582	4,141.11	84.4368	4,141.11	81.0048	4,141.11	80.8187	4,141.11	80.1031	4,141.11	79.1707	4,141.11	76.2863	4,141.11	73.4698	4,141.11	77.771	4,141.11	74.3776	4,141.11	73.9902	4,141.11	70.2642	4,141.11	73.0944	4,141.11	71.4998	4,141.11	74.1441	4,141.11	72.1849	4,141.11	71.77	4,141.11	76.636	4,141.11	72.2337
4,287.6	96.424	4,287.6	95.7724	4,287.6	96.8981	4,287.6	95.7871	4,287.6	95.6555	4,287.6	94.8273	4,287.6	94.4094	4,287.6	92.4325	4,287.6	92.2975	4,287.6	91.2004	4,287.6	91.3526	4,287.6	89.825	4,287.6	90.3792	4,287.6	88.1048	4,287.6	88.746	4,287.6	86.6473	4,287.6	86.0155	4,287.6	82.5332	4,287.6	83.7099	4,287.6	81.5122	4,287.6	80.4181	4,287.6	77.2042	4,287.6	78.7737	4,287.6	73.9935	4,287.6	77.1755	4,287.6	72.8582	4,287.6	73.3902	4,287.6	68.1614	4,287.6	72.8322	4,287.6	73.1732	4,287.6	70.4052	4,287.6	73.6552	4,287.6	71.5379	4,287.6	73.0903	4,287.6	74.8736	4,287.6	67.777
4,438.48	93.1077	4,438.48	93.537	4,438.48	92.6672	4,438.48	92.5084	4,438.48	93.2636	4,438.48	90.51	4,438.48	91.6385	4,438.48	88.6531	4,438.48	90.8992	4,438.48	87.7418	4,438.48	89.3262	4,438.48	86.6857	4,438.48	87.032	4,438.48	85.7809	4,438.48	84.8189	4,438.48	83.4366	4,438.48	84.0669	4,438.48	80.4196	4,438.48	80.7677	4,438.48	75.5787	4,438.48	78.5813	4,438.48	74.2597	4,438.48	75.4133	4,438.48	72.9697	4,438.48	73.7131	4,438.48	71.435	4,438.48	66.5538	4,438.48	63.6695	4,438.48	68.0856	4,438.48	66.2361	4,438.48	69.1834	4,438.48	70.1084	4,438.48	65.8662	4,438.48	67.3892	4,438.48	71.2847	4,438.48	66.6655
4,595.21	91.3954	4,595.21	91.1517	4,595.21	91.4204	4,595.21	90.1254	4,595.21	90.4164	4,595.21	88.5608	4,595.21	89.1399	4,595.21	87.6324	4,595.21	86.7796	4,595.21	85.5082	4,595.21	85.6891	4,595.21	82.4476	4,595.21	85.2164	4,595.21	80.0213	4,595.21	83.8803	4,595.21	76.9739	4,595.21	81.169	4,595.21	75.5597	4,595.21	78.9366	4,595.21	72.069	4,595.21	75.6191	4,595.21	69.8837	4,595.21	74.1395	4,595.21	64.6656	4,595.21	70.6791	4,595.21	63.6996	4,595.21	71.2605	4,595.21	62.6949	4,595.21	65.8224	4,595.21	63.7022	4,595.21	63.596	4,595.21	56.6482	4,595.21	67.1621	4,595.21	61.9603	4,595.21	63.4138	4,595.21	58.8598
4,756.35	92.7523	4,756.35	91.9251	4,756.35	92.8139	4,756.35	91.3361	4,756.35	91.648	4,756.35	89.3608	4,756.35	89.7805	4,756.35	87.442	4,756.35	88.5404	4,756.35	87.3472	4,756.35	88.1836	4,756.35	86.8832	4,756.35	86.3709	4,756.35	85.1412	4,756.35	85.533	4,756.35	83.2965	4,756.35	83.0662	4,756.35	79.7616	4,756.35	81.0593	4,756.35	78.7059	4,756.35	77.9145	4,756.35	74.1005	4,756.35	74.495	4,756.35	72.5214	4,756.35	72.2769	4,756.35	67.0569	4,756.35	71.5028	4,756.35	69.3216	4,756.35	67.58	4,756.35	65.9555	4,756.35	65.2292	4,756.35	68.753	4,756.35	63.6906	4,756.35	69.5777	4,756.35	70.8565	4,756.35	67.1787
4,924.8	94.3847	4,924.8	94.3095	4,924.8	94.2256	4,924.8	92.1613	4,924.8	93.5179	4,924.8	90.6317	4,924.8	91.7605	4,924.8	88.8159	4,924.8	90.5891	4,924.8	87.0283	4,924.8	89.5685	4,924.8	86.4823	4,924.8	88.0832	4,924.8	84.3496	4,924.8	85.4712	4,924.8	81.5988	4,924.8	84.8611	4,924.8	78.6939	4,924.8	81.937	4,924.8	76.0911	4,924.8	79.6461	4,924.8	75.0771	4,924.8	75.8521	4,924.8	73.1326	4,924.8	74.1791	4,924.8	71.7329	4,924.8	71.8072	4,924.8	67.4812	4,924.8	68.8039	4,924.8	68.3092	4,924.8	69.581	4,924.8	68.7226	4,924.8	71.4582	4,924.8	69.4761	4,924.8	72.9462	4,924.8	63.6165
5,097.66	94.8208	5,097.66	94.1761	5,097.66	94.6216	5,097.66	93.5357	5,097.66	93.4527	5,097.66	91.9934	5,097.66	92.2448	5,097.66	91.0029	5,097.66	90.2685	5,097.66	90.0296	5,097.66	88.8522	5,097.66	88.3619	5,097.66	88.1374	5,097.66	86.0109	5,097.66	86.4306	5,097.66	84.1094	5,097.66	83.7512	5,097.66	82.7393	5,097.66	82.0475	5,097.66	80.7947	5,097.66	79.466	5,097.66	76.9686	5,097.66	76.0227	5,097.66	73.7979	5,097.66	73.9545	5,097.66	72.5176	5,097.66	73.2134	5,097.66	66.6846	5,097.66	70.1184	5,097.66	67.0379	5,097.66	68.698	5,097.66	70.9398	5,097.66	68.8578	5,097.66	71.8643	5,097.66	69.5395	5,097.66	65.2355
5,277.83	95.2889	5,277.83	94.6723	5,277.83	94.7227	5,277.83	92.9787	5,277.83	93.7282	5,277.83	92.0706	5,277.83	92.0449	5,277.83	89.9781	5,277.83	90.601	5,277.83	87.8453	5,277.83	89.2759	5,277.83	86.7526	5,277.83	87.4197	5,277.83	84.6732	5,277.83	86.0079	5,277.83	83.0598	5,277.83	84.0894	5,277.83	79.8924	5,277.83	80.5377	5,277.83	78.4254	5,277.83	78.3405	5,277.83	75.1447	5,277.83	75.6296	5,277.83	73.6459	5,277.83	73.135	5,277.83	70.8568	5,277.83	69.2163	5,277.83	68.6052	5,277.83	68.7681	5,277.83	66.8066	5,277.83	60.7396	5,277.83	71.0975	5,277.83	64.122	5,277.83	70.9658	5,277.83	72.0121	5,277.83	63.9173
5,463.87	95.2349	5,463.87	94.3842	5,463.87	94.9971	5,463.87	93.5809	5,463.87	93.8825	5,463.87	92.2279	5,463.87	93.2849	5,463.87	91.0465	5,463.87	91.2761	5,463.87	89.0615	5,463.87	88.9382	5,463.87	87.7966	5,463.87	87.8907	5,463.87	86.1282	5,463.87	86.2924	5,463.87	83.752	5,463.87	83.0976	5,463.87	81.9468	5,463.87	81.776	5,463.87	76.5645	5,463.87	78.7157	5,463.87	75.8223	5,463.87	76.5945	5,463.87	73.2094	5,463.87	72.2965	5,463.87	71.9356	5,463.87	71.2031	5,463.87	66.803	5,463.87	68.9238	5,463.87	58.6995	5,463.87	67.2485	5,463.87	68.5061	5,463.87	67.6117	5,463.87	71.9161	5,463.87	71.9936	5,463.87	61.3571
5,657.23	96.4381	5,657.23	95.6698	5,657.23	95.8928	5,657.23	94.7147	5,657.23	94.8747	5,657.23	93.6143	5,657.23	93.9463	5,657.23	91.487	5,657.23	92.2601	5,657.23	89.1307	5,657.23	90.5694	5,657.23	86.5299	5,657.23	88.2681	5,657.23	84.8367	5,657.23	86.8662	5,657.23	82.8964	5,657.23	84.862	5,657.23	80.4623	5,657.23	81.7779	5,657.23	78.9393	5,657.23	78.9235	5,657.23	75.878	5,657.23	76.2078	5,657.23	73.1921	5,657.23	74.6597	5,657.23	69.8639	5,657.23	70.9499	5,657.23	66.0442	5,657.23	70.1641	5,657.23	64.3706	5,657.23	63.4032	5,657.23	69.1987	5,657.23	65.8325	5,657.23	69.564	5,657.23	71.6759	5,657.23	62.8967
5,856.45	96.0422	5,856.45	95.1735	5,856.45	95.7376	5,856.45	93.8782	5,856.45	94.9163	5,856.45	92.6849	5,856.45	94.0528	5,856.45	91.1966	5,856.45	92.3988	5,856.45	89.3779	5,856.45	90.4436	5,856.45	88.1964	5,856.45	89.0061	5,856.45	87.167	5,856.45	87.3608	5,856.45	85.233	5,856.45	84.3325	5,856.45	82.4197	5,856.45	81.8158	5,856.45	79.0876	5,856.45	78.931	5,856.45	75.9403	5,856.45	76.6	5,856.45	74.3975	5,856.45	74.4471	5,856.45	69.1636	5,856.45	69.5836	5,856.45	68.4976	5,856.45	67.7913	5,856.45	64.3735	5,856.45	64.5406	5,856.45	59.1448	5,856.45	66.0049	5,856.45	72.5552	5,856.45	69.5808	5,856.45	64.1915
6,062.99	96.6261	6,062.99	95.8457	6,062.99	95.985	6,062.99	94.7591	6,062.99	95.1347	6,062.99	93.7819	6,062.99	93.9534	6,062.99	92.1507	6,062.99	92.5368	6,062.99	90.2013	6,062.99	90.8841	6,062.99	88.1385	6,062.99	88.7208	6,062.99	86.3086	6,062.99	86.5363	6,062.99	83.8413	6,062.99	85.2249	6,062.99	81.6162	6,062.99	82.5964	6,062.99	77.599	6,062.99	78.95	6,062.99	74.4094	6,062.99	76.2967	6,062.99	73.2154	6,062.99	75.0244	6,062.99	66.5093	6,062.99	69.8421	6,062.99	64.8854	6,062.99	68.6951	6,062.99	62.203	6,062.99	67.9	6,062.99	62.9348	6,062.99	68.6545	6,062.99	69.8195	6,062.99	70.9473	6,062.99	59.7003
6,276.86	95.9683	6,276.86	95.3317	6,276.86	95.6845	6,276.86	94.3104	6,276.86	94.4387	6,276.86	92.7923	6,276.86	93.4869	6,276.86	91.1408	6,276.86	91.9455	6,276.86	89.575	6,276.86	90.0283	6,276.86	88.1587	6,276.86	88.4428	6,276.86	87.0809	6,276.86	87.3633	6,276.86	84.4808	6,276.86	84.8386	6,276.86	81.7763	6,276.86	82.087	6,276.86	79.4455	6,276.86	79.0203	6,276.86	76.3387	6,276.86	76.8692	6,276.86	74.2506	6,276.86	74.1395	6,276.86	69.2828	6,276.86	71.2554	6,276.86	67.7452	6,276.86	69.1977	6,276.86	66.9887	6,276.86	66.4654	6,276.86	64.6528	6,276.86	67.7583	6,276.86	71.4198	6,276.86	69.8234	6,276.86	61.2124
6,498.05	95.2637	6,498.05	94.76	6,498.05	95.0179	6,498.05	93.3616	6,498.05	94.1821	6,498.05	91.9732	6,498.05	92.7828	6,498.05	90.2394	6,498.05	91.4217	6,498.05	88.2765	6,498.05	89.731	6,498.05	86.9751	6,498.05	87.9161	6,498.05	85.2135	6,498.05	86.3774	6,498.05	82.6186	6,498.05	84.1484	6,498.05	79.9983	6,498.05	81.8886	6,498.05	76.6982	6,498.05	78.9377	6,498.05	74.3512	6,498.05	76.1989	6,498.05	71.9678	6,498.05	74.8476	6,498.05	68.9317	6,498.05	67.2818	6,498.05	63.8599	6,498.05	67.9245	6,498.05	62.1492	6,498.05	64.4005	6,498.05	63.866	6,498.05	68.7793	6,498.05	69.0689	6,498.05	68.4205	6,498.05	53.1632
6,726.56	95.2761	6,726.56	94.8273	6,726.56	95.3002	6,726.56	93.3102	6,726.56	94.0935	6,726.56	91.8292	6,726.56	92.6043	6,726.56	90.4333	6,726.56	91.116	6,726.56	88.6817	6,726.56	89.3849	6,726.56	87.1937	6,726.56	87.9728	6,726.56	86.1717	6,726.56	86.8147	6,726.56	83.6911	6,726.56	84.3379	6,726.56	81.3527	6,726.56	81.8259	6,726.56	78.8563	6,726.56	79.0463	6,726.56	75.7019	6,726.56	76.7446	6,726.56	73.2761	6,726.56	73.1943	6,726.56	71.4736	6,726.56	71.9417	6,726.56	68.1358	6,726.56	68.0448	6,726.56	64.8605	6,726.56	66.0422	6,726.56	67.0822	6,726.56	68.7198	6,726.56	69.8301	6,726.56	67.0294	6,726.56	56.6696
6,963.87	95.3218	6,963.87	94.9099	6,963.87	95.3859	6,963.87	93.4361	6,963.87	94.1738	6,963.87	91.9355	6,963.87	92.5506	6,963.87	90.5513	6,963.87	91.2758	6,963.87	88.7887	6,963.87	89.3227	6,963.87	87.5476	6,963.87	88.0242	6,963.87	85.7263	6,963.87	86.6816	6,963.87	83.6096	6,963.87	84.2482	6,963.87	80.5221	6,963.87	81.7746	6,963.87	77.7002	6,963.87	78.4637	6,963.87	74.7864	6,963.87	75.7008	6,963.87	72.6612	6,963.87	72.725	6,963.87	70.0096	6,963.87	69.9716	6,963.87	66.6239	6,963.87	67.8453	6,963.87	63.8093	6,963.87	66.1336	6,963.87	65.3916	6,963.87	68.533	6,963.87	69.0487	6,963.87	67.9416	6,963.87	51.9677
7,209.96	96.2628	7,209.96	96.0545	7,209.96	96.289	7,209.96	94.5682	7,209.96	94.9359	7,209.96	93.1128	7,209.96	93.3446	7,209.96	91.6018	7,209.96	91.9587	7,209.96	90.0022	7,209.96	90.3898	7,209.96	88.4993	7,209.96	89.1799	7,209.96	87.0088	7,209.96	87.8643	7,209.96	84.0324	7,209.96	85.2433	7,209.96	81.864	7,209.96	81.8992	7,209.96	78.0329	7,209.96	78.7928	7,209.96	74.7564	7,209.96	76.15	7,209.96	73.2735	7,209.96	74.0338	7,209.96	71.2485	7,209.96	71.988	7,209.96	69.4887	7,209.96	69.6539	7,209.96	64.216	7,209.96	67.8846	7,209.96	68.6867	7,209.96	67.9358	7,209.96	68.4391	7,209.96	67.8037	7,209.96	54.2712
7,464.84	96.3046	7,464.84	95.878	7,464.84	96.3515	7,464.84	94.3925	7,464.84	95.2869	7,464.84	92.4395	7,464.84	93.4717	7,464.84	91.1678	7,464.84	92.0872	7,464.84	89.5471	7,464.84	90.5227	7,464.84	88.111	7,464.84	88.702	7,464.84	86.3555	7,464.84	87.263	7,464.84	83.3816	7,464.84	84.5399	7,464.84	81.0395	7,464.84	81.3538	7,464.84	77.9937	7,464.84	77.3999	7,464.84	75.0417	7,464.84	75.6597	7,464.84	73.5063	7,464.84	72.6743	7,464.84	70.4673	7,464.84	70.1459	7,464.84	67.3466	7,464.84	69.1669	7,464.84	64.2103	7,464.84	65.4094	7,464.84	65.819	7,464.84	66.0235	7,464.84	68.7953	7,464.84	66.867	7,464.84	33.099
7,727.05	96.7089	7,727.05	96.1779	7,727.05	96.5937	7,727.05	94.7725	7,727.05	95.4962	7,727.05	93.0671	7,727.05	93.7809	7,727.05	91.9241	7,727.05	92.4175	7,727.05	90.2897	7,727.05	90.9645	7,727.05	88.2248	7,727.05	89.3485	7,727.05	86.493	7,727.05	87.2706	7,727.05	83.368	7,727.05	84.3003	7,727.05	80.7338	7,727.05	81.2621	7,727.05	77.6226	7,727.05	77.9124	7,727.05	73.8149	7,727.05	76.0424	7,727.05	70.8981	7,727.05	71.7881	7,727.05	70.0091	7,727.05	71.3277	7,727.05	65.6947	7,727.05	69.2924	7,727.05	60.9286	7,727.05	66.6629	7,727.05	66.1306	7,727.05	66.2273	7,727.05	66.9059	7,727.05	66.3325	7,727.05	43.874
7,999.51	96.4939	7,999.51	95.9804	7,999.51	96.3641	7,999.51	94.8292	7,999.51	95.4308	7,999.51	92.7973	7,999.51	93.3583	7,999.51	91.7691	7,999.51	92.0086	7,999.51	89.991	7,999.51	90.7546	7,999.51	87.9853	7,999.51	88.426	7,999.51	85.9761	7,999.51	86.2739	7,999.51	83.4481	7,999.51	84.0468	7,999.51	80.1645	7,999.51	80.5107	7,999.51	77.2165	7,999.51	77.7911	7,999.51	73.7561	7,999.51	73.7886	7,999.51	72.7036	7,999.51	71.3947	7,999.51	70.737	7,999.51	70.152	7,999.51	67.4027	7,999.51	68.3232	7,999.51	64.1953	7,999.51	63.2509	7,999.51	65.0881	7,999.51	65.7146	7,999.51	68.9975	7,999.51	65.563	7,999.51	50.5408
8,282.23	96.4926	8,282.23	95.9017	8,282.23	96.1995	8,282.23	94.6878	8,282.23	95.2694	8,282.23	92.6827	8,282.23	93.1502	8,282.23	91.6481	8,282.23	92.1138	8,282.23	89.8153	8,282.23	90.3747	8,282.23	87.2372	8,282.23	88.1814	8,282.23	85.8943	8,282.23	86.4765	8,282.23	82.8939	8,282.23	84.3344	8,282.23	80.1664	8,282.23	80.7343	8,282.23	75.6465	8,282.23	77.3352	8,282.23	73.3974	8,282.23	74.208	8,282.23	71.6031	8,282.23	71.3133	8,282.23	69.3384	8,282.23	70.2418	8,282.23	67.4148	8,282.23	68.2425	8,282.23	62.8547	8,282.23	62.6616	8,282.23	65.5551	8,282.23	65.385	8,282.23	67.6355	8,282.23	65.1552	8,282.23	55.2867
8,573.73	96.6299	8,573.73	95.9991	8,573.73	96.3938	8,573.73	94.4863	8,573.73	95.5063	8,573.73	92.2492	8,573.73	93.4117	8,573.73	90.8784	8,573.73	92.1141	8,573.73	88.6625	8,573.73	90.2715	8,573.73	86.4328	8,573.73	87.9236	8,573.73	84.6423	8,573.73	85.7748	8,573.73	81.7224	8,573.73	83.6469	8,573.73	78.1698	8,573.73	80.2124	8,573.73	75.193	8,573.73	75.7113	8,573.73	71.9681	8,573.73	74.2067	8,573.73	69.9381	8,573.73	68.9213	8,573.73	68.2799	8,573.73	69.8293	8,573.73	66.7729	8,573.73	67.7833	8,573.73	62.0778	8,573.73	63.8179	8,573.73	63.2074	8,573.73	65.2366	8,573.73	68.0406	8,573.73	63.9786	8,573.73	50.0798
8,876.95	96.09	8,876.95	95.4812	8,876.95	95.8293	8,876.95	94.0254	8,876.95	94.6513	8,876.95	91.9625	8,876.95	92.5158	8,876.95	90.1755	8,876.95	90.7974	8,876.95	88.3272	8,876.95	89.0089	8,876.95	85.8233	8,876.95	86.4744	8,876.95	84.156	8,876.95	84.2022	8,876.95	81.7888	8,876.95	81.7439	8,876.95	78.3948	8,876.95	78.5377	8,876.95	75.8858	8,876.95	75.2012	8,876.95	72.804	8,876.95	72.1189	8,876.95	69.3272	8,876.95	67.2709	8,876.95	68.7667	8,876.95	67.4293	8,876.95	65.5413	8,876.95	65.7288	8,876.95	62.5689	8,876.95	59.6373	8,876.95	62.5261	8,876.95	60.4991	8,876.95	65.9834	8,876.95	63.4376	8,876.95	50.7395
9,188.96	96.557	9,188.96	95.9648	9,188.96	96.0428	9,188.96	94.5298	9,188.96	94.6062	9,188.96	92.5945	9,188.96	92.5604	9,188.96	90.5638	9,188.96	90.4397	9,188.96	88.6463	9,188.96	88.4139	9,188.96	86.2178	9,188.96	85.8109	9,188.96	83.7954	9,188.96	83.5658	9,188.96	81.1782	9,188.96	80.9481	9,188.96	78.0222	9,188.96	77.7526	9,188.96	74.4926	9,188.96	73.7948	9,188.96	71.9153	9,188.96	70.0208	9,188.96	68.7566	9,188.96	67.1116	9,188.96	66.7148	9,188.96	67.2435	9,188.96	66.7577	9,188.96	63.5089	9,188.96	62.2073	9,188.96	59.7792	9,188.96	59.6688	9,188.96	60.7116	9,188.96	65.4956	9,188.96	60.267	9,188.96	45.1354
9,514.16	96.3665	9,514.16	95.659	9,514.16	96.0789	9,514.16	94.0045	9,514.16	94.7244	9,514.16	91.7522	9,514.16	92.6367	9,514.16	89.6672	9,514.16	90.104	9,514.16	87.2185	9,514.16	87.8064	9,514.16	84.4152	9,514.16	85.334	9,514.16	82.7488	9,514.16	83.2122	9,514.16	79.9408	9,514.16	80.3894	9,514.16	77.0057	9,514.16	77.6308	9,514.16	73.8067	9,514.16	74.6382	9,514.16	70.1594	9,514.16	71.189	9,514.16	66.056	9,514.16	68.415	9,514.16	65.7266	9,514.16	65.8987	9,514.16	65.3585	9,514.16	63.7166	9,514.16	61.2759	9,514.16	59.8032	9,514.16	58.9775	9,514.16	56.3452	9,514.16	64.9822	9,514.16	61.1712	9,514.16	52.9455
9,849.61	96.3149	9,849.61	95.5999	9,849.61	95.9431	9,849.61	94.1669	9,849.61	94.7166	9,849.61	92.2308	9,849.61	92.8036	9,849.61	89.6156	9,849.61	90.5107	9,849.61	87.465	9,849.61	88.2307	9,849.61	84.5498	9,849.61	85.3792	9,849.61	82.8695	9,849.61	82.8157	9,849.61	80.138	9,849.61	80.0971	9,849.61	77.3878	9,849.61	77.1112	9,849.61	74.412	9,849.61	74.286	9,849.61	70.7774	9,849.61	69.2952	9,849.61	67.277	9,849.61	67.9458	9,849.61	66.4419	9,849.61	64.9539	9,849.61	62.5163	9,849.61	62.9988	9,849.61	61.4037	9,849.61	59.0548	9,849.61	60.3887	9,849.61	57.8099	9,849.61	65.3654	9,849.61	60.0509	9,849.61	48.806
10,196.8	95.8479	10,196.8	95.2565	10,196.8	95.4245	10,196.8	94.05	10,196.8	94.0616	10,196.8	91.8567	10,196.8	91.7564	10,196.8	89.5436	10,196.8	89.5071	10,196.8	87.1818	10,196.8	86.7326	10,196.8	84.8296	10,196.8	83.6938	10,196.8	83.1231	10,196.8	81.5601	10,196.8	80.6215	10,196.8	80.1908	10,196.8	78.0394	10,196.8	76.4112	10,196.8	74.795	10,196.8	72.0889	10,196.8	71.6011	10,196.8	68.9578	10,196.8	66.9663	10,196.8	67.4352	10,196.8	65.5433	10,196.8	62.554	10,196.8	65.327	10,196.8	59.9141	10,196.8	59.1012	10,196.8	56.8804	10,196.8	60.8703	10,196.8	60.1076	10,196.8	64.8153	10,196.8	58.1724	10,196.8	34.3234
10,555.7	95.348	10,555.7	94.7363	10,555.7	94.7003	10,555.7	93.6483	10,555.7	93.5764	10,555.7	91.5681	10,555.7	91.5372	10,555.7	89.1216	10,555.7	88.8597	10,555.7	86.6596	10,555.7	85.885	10,555.7	83.8421	10,555.7	83.0716	10,555.7	82.3345	10,555.7	80.6988	10,555.7	80.16	10,555.7	78.1061	10,555.7	76.6568	10,555.7	75.3186	10,555.7	74.1435	10,555.7	72.302	10,555.7	69.5446	10,555.7	70.0646	10,555.7	65.9673	10,555.7	66.8651	10,555.7	65.565	10,555.7	61.2172	10,555.7	64.5207	10,555.7	59.5298	10,555.7	60.1505	10,555.7	53.9854	10,555.7	60.6915	10,555.7	57.2565	10,555.7	64.0076	10,555.7	58.1012	10,555.7	49.291
10,927.7	95.4147	10,927.7	94.9346	10,927.7	94.7382	10,927.7	94.0058	10,927.7	93.6687	10,927.7	92.198	10,927.7	91.801	10,927.7	89.3999	10,927.7	89.1234	10,927.7	87.4365	10,927.7	86.0391	10,927.7	84.6516	10,927.7	82.7056	10,927.7	83.0656	10,927.7	80.722	10,927.7	81.0817	10,927.7	78.7813	10,927.7	77.5375	10,927.7	75.7218	10,927.7	75.0106	10,927.7	72.6631	10,927.7	70.5448	10,927.7	68.0319	10,927.7	67.8989	10,927.7	65.547	10,927.7	66.5052	10,927.7	60.722	10,927.7	63.5664	10,927.7	60.479	10,927.7	58.5567	10,927.7	52.7054	10,927.7	59.3137	10,927.7	58.4032	10,927.7	63.4621	10,927.7	54.5416	10,927.7	44.8337
11,313	95.8445	11,313	95.54	11,313	95.2237	11,313	94.7478	11,313	94.1812	11,313	93.0147	11,313	92.2406	11,313	90.3796	11,313	88.9831	11,313	88.1704	11,313	85.8631	11,313	85.8398	11,313	83.583	11,313	83.9383	11,313	81.8371	11,313	81.3435	11,313	79.4638	11,313	78.2836	11,313	75.8847	11,313	75.0835	11,313	72.2755	11,313	70.8271	11,313	68.3694	11,313	67.9315	11,313	66.7555	11,313	65.9782	11,313	60.7154	11,313	63.9359	11,313	58.6561	11,313	57.0441	11,313	53.7454	11,313	60.5576	11,313	57.6775	11,313	61.2103	11,313	55.0128	11,313	40.6384
11,712.9	95.9102	11,712.9	95.5956	11,712.9	95.5476	11,712.9	94.5364	11,712.9	94.4271	11,712.9	92.6565	11,712.9	92.363	11,712.9	89.445	11,712.9	89.0131	11,712.9	86.747	11,712.9	85.7476	11,712.9	84.5986	11,712.9	84.0747	11,712.9	82.4028	11,712.9	81.4863	11,712.9	79.5103	11,712.9	78.9674	11,712.9	76.423	11,712.9	75.6709	11,712.9	72.9652	11,712.9	72.7307	11,712.9	68.196	11,712.9	69.0149	11,712.9	66.2742	11,712.9	66.6069	11,712.9	63.458	11,712.9	59.8481	11,712.9	62.4523	11,712.9	59.111	11,712.9	54.7538	11,712.9	54.3133	11,712.9	59.7091	11,712.9	55.3389	11,712.9	61.0397	11,712.9	57.3307	11,712.9	44.0609
12,126	95.8292	12,126	95.4845	12,126	95.5854	12,126	94.3092	12,126	94.6132	12,126	91.9646	12,126	92.497	12,126	88.3583	12,126	89.1522	12,126	85.8623	12,126	86.5987	12,126	83.8288	12,126	84.4062	12,126	81.5955	12,126	82.1948	12,126	78.7057	12,126	80.5406	12,126	75.8472	12,126	76.842	12,126	72.7298	12,126	73.2146	12,126	68.2337	12,126	69.4354	12,126	66.6136	12,126	66.6804	12,126	63.1576	12,126	59.2219	12,126	60.8849	12,126	59.2698	12,126	48.7628	12,126	54.7789	12,126	56.2868	12,126	57.8767	12,126	61.3601	12,126	57.2973	12,126	50.4044
12,553.7	95.6457	12,553.7	95.4487	12,553.7	95.515	12,553.7	94.3419	12,553.7	94.4828	12,553.7	92.1471	12,553.7	92.121	12,553.7	88.7177	12,553.7	88.635	12,553.7	86.748	12,553.7	86.0737	12,553.7	84.8843	12,553.7	84.0604	12,553.7	82.6653	12,553.7	82.1632	12,553.7	80.3527	12,553.7	79.8121	12,553.7	77.1871	12,553.7	76.7907	12,553.7	73.8261	12,553.7	72.4281	12,553.7	70.2673	12,553.7	69.8279	12,553.7	67.2627	12,553.7	67.2849	12,553.7	63.2249	12,553.7	54.5883	12,553.7	61.8757	12,553.7	57.8216	12,553.7	52.935	12,553.7	54.4485	12,553.7	47.4769	12,553.7	57.6042	12,553.7	60.2083	12,553.7	58.0789	12,553.7	50.1599
12,996.1	94.5288	12,996.1	94.4192	12,996.1	94.6684	12,996.1	93.4747	12,996.1	93.9653	12,996.1	91.5651	12,996.1	91.6639	12,996.1	88.7965	12,996.1	88.5862	12,996.1	86.7498	12,996.1	86.1228	12,996.1	85.0792	12,996.1	84.3343	12,996.1	82.7757	12,996.1	81.7005	12,996.1	80.1398	12,996.1	79.4824	12,996.1	76.7856	12,996.1	76.316	12,996.1	73.4225	12,996.1	72.2573	12,996.1	69.1255	12,996.1	69.0096	12,996.1	67.2355	12,996.1	66.2682	12,996.1	62.3778	12,996.1	57.9712	12,996.1	61.2207	12,996.1	58.2482	12,996.1	53.0903	12,996.1	55.9534	12,996.1	50.162	12,996.1	58.1781	12,996.1	55.7094	12,996.1	60.0158	12,996.1	48.3911
13,454.6	93.6234	13,454.6	93.6473	13,454.6	93.8428	13,454.6	92.6759	13,454.6	92.9002	13,454.6	90.329	13,454.6	90.4906	13,454.6	87.7102	13,454.6	87.1959	13,454.6	85.0538	13,454.6	84.2673	13,454.6	82.8594	13,454.6	82.0285	13,454.6	80.1551	13,454.6	79.4302	13,454.6	77.4547	13,454.6	76.9554	13,454.6	73.9487	13,454.6	73.8906	13,454.6	70.4751	13,454.6	69.8009	13,454.6	65.9574	13,454.6	67.2015	13,454.6	63.6273	13,454.6	64.0636	13,454.6	60.5436	13,454.6	56.1912	13,454.6	57.7853	13,454.6	55.5072	13,454.6	49.3414	13,454.6	57.4131	13,454.6	41.0926	13,454.6	57.9929	13,454.6	53.1164	13,454.6	60.7703	13,454.6	50.2017
13,929.2	93.6402	13,929.2	93.849	13,929.2	93.2905	13,929.2	92.4821	13,929.2	92.0389	13,929.2	89.4246	13,929.2	89.0939	13,929.2	85.8427	13,929.2	85.4002	13,929.2	82.6215	13,929.2	82.1225	13,929.2	80.3657	13,929.2	79.8545	13,929.2	77.3811	13,929.2	76.891	13,929.2	74.6321	13,929.2	74.2325	13,929.2	71.6611	13,929.2	71.5334	13,929.2	68.4949	13,929.2	67.8169	13,929.2	64.8745	13,929.2	63.5695	13,929.2	60.5849	13,929.2	61.2416	13,929.2	55.2771	13,929.2	55.4963	13,929.2	52.2633	13,929.2	54.5883	13,929.2	37.4949	13,929.2	55.1434	13,929.2	49.9006	13,929.2	52.9434	13,929.2	53.9293	13,929.2	55.6653	13,929.2	48.2799
14,419.9	93.3775	14,419.9	94.0033	14,419.9	93.1261	14,419.9	92.7124	14,419.9	92.1245	14,419.9	90.0737	14,419.9	89.5468	14,419.9	86.7983	14,419.9	86.622	14,419.9	84.0298	14,419.9	84.1862	14,419.9	81.8781	14,419.9	81.8137	14,419.9	79.2717	14,419.9	78.927	14,419.9	76.7803	14,419.9	76.5514	14,419.9	73.9931	14,419.9	73.5828	14,419.9	70.0332	14,419.9	69.2522	14,419.9	67.1469	14,419.9	65.8393	14,419.9	62.8976	14,419.9	63.4488	14,419.9	56.4256	14,419.9	55.4942	14,419.9	53.1331	14,419.9	55.1345	14,419.9	38.8133	14,419.9	55.3505	14,419.9	49.9471	14,419.9	53.1571	14,419.9	52.8001	14,419.9	53.0918	14,419.9	43.8489
14,928.2	94.3106	14,928.2	94.7458	14,928.2	94.0692	14,928.2	93.6768	14,928.2	93.0002	14,928.2	91.3876	14,928.2	90.5676	14,928.2	88.4217	14,928.2	87.5175	14,928.2	85.3339	14,928.2	84.5576	14,928.2	82.6785	14,928.2	81.6572	14,928.2	79.8023	14,928.2	78.5541	14,928.2	77.1053	14,928.2	76.0301	14,928.2	74.2057	14,928.2	73.0511	14,928.2	69.9558	14,928.2	69.0774	14,928.2	67.2074	14,928.2	65.0229	14,928.2	63.3898	14,928.2	62.1541	14,928.2	57.4469	14,928.2	55.8619	14,928.2	52.9945	14,928.2	53.4623	14,928.2	27.0012	14,928.2	52.2299	14,928.2	51.0611	14,928.2	54.5821	14,928.2	49.2811	14,928.2	53.6762	14,928.2	32.1111
15,455.6	94.9623	15,455.6	95.2197	15,455.6	94.5149	15,455.6	93.9598	15,455.6	92.7373	15,455.6	91.4009	15,455.6	89.8621	15,455.6	87.9696	15,455.6	86.173	15,455.6	84.4637	15,455.6	82.8525	15,455.6	81.2153	15,455.6	78.9367	15,455.6	78.5308	15,455.6	75.8363	15,455.6	75.5432	15,455.6	73.5885	15,455.6	72.7154	15,455.6	71.0033	15,455.6	68.6355	15,455.6	66.3756	15,455.6	64.984	15,455.6	63.1426	15,455.6	61.4727	15,455.6	59.0335	15,455.6	52.906	15,455.6	53.6752	15,455.6	43.4596	15,455.6	50.4632	15,455.6	39.0182	15,455.6	50.623	15,455.6	47.4932	15,455.6	53.4811	15,455.6	47.3036	15,455.6	55.5572	15,455.6	43.4507
16,000.5	94.905	16,000.5	94.854	16,000.5	95.2985	16,000.5	93.3587	16,000.5	94.2466	16,000.5	90.8317	16,000.5	91.9248	16,000.5	87.2002	16,000.5	88.5127	16,000.5	83.4907	16,000.5	84.8406	16,000.5	80.1405	16,000.5	81.2815	16,000.5	77.0011	16,000.5	78.4687	16,000.5	74.095	16,000.5	75.9674	16,000.5	70.1493	16,000.5	73.6694	16,000.5	67.828	16,000.5	69.6319	16,000.5	64.1115	16,000.5	65.5691	16,000.5	59.8682	16,000.5	61.8014	16,000.5	52.8145	16,000.5	56.1687	16,000.5	49.5431	16,000.5	54.1987	16,000.5	24.7795	16,000.5	53.8958	16,000.5	48.8126	16,000.5	55.4168	16,000.5	52.01	16,000.5	55.8428	16,000.5	48.2582
16,564.5	93.8268	16,564.5	94.1872	16,564.5	93.9542	16,564.5	93.4138	16,564.5	93.061	16,564.5	91.1944	16,564.5	90.9902	16,564.5	87.6722	16,564.5	87.418	16,564.5	83.2932	16,564.5	83.3357	16,564.5	79.6226	16,564.5	79.3466	16,564.5	77.0377	16,564.5	76.2558	16,564.5	74.3916	16,564.5	74.3534	16,564.5	71.3722	16,564.5	71.3156	16,564.5	67.4271	16,564.5	66.0954	16,564.5	65.0832	16,564.5	63.5515	16,564.5	59.7204	16,564.5	60.364	16,564.5	43.7854	16,564.5	53.0283	16,564.5	47.5993	16,564.5	49.8079	16,564.5	44.0097	16,564.5	45.8933	16,564.5	51.5987	16,564.5	55.3601	16,564.5	49.0919	16,564.5	55.7635	16,564.5	44.5136
17,148.9	93.919	17,148.9	94.2431	17,148.9	93.3696	17,148.9	93.0845	17,148.9	91.8441	17,148.9	90.1279	17,148.9	88.997	17,148.9	85.6416	17,148.9	84.3389	17,148.9	80.809	17,148.9	78.5432	17,148.9	76.7424	17,148.9	73.1184	17,148.9	75.0826	17,148.9	71.2431	17,148.9	72.1922	17,148.9	69.1153	17,148.9	68.372	17,148.9	66.4249	17,148.9	64.8313	17,148.9	60.1754	17,148.9	62.0966	17,148.9	59.0787	17,148.9	58.2393	17,148.9	51.7345	17,148.9	46.5421	17,148.9	43.7455	17,148.9	48.864	17,148.9	46.125	17,148.9	40.6053	17,148.9	44.9151	17,148.9	51.6925	17,148.9	53.8675	17,148.9	48.8187	17,148.9	53.4572	17,148.9	47.4344
17,752.4	94.0295	17,752.4	93.4945	17,752.4	93.7687	17,752.4	91.9119	17,752.4	92.3444	17,752.4	89.0963	17,752.4	89.4978	17,752.4	84.9271	17,752.4	85.2828	17,752.4	79.7823	17,752.4	80.6003	17,752.4	76.0945	17,752.4	77.3949	17,752.4	73.8068	17,752.4	75.3469	17,752.4	70.6655	17,752.4	73.1584	17,752.4	66.1539	17,752.4	70.4807	17,752.4	61.9592	17,752.4	65.7598	17,752.4	58.1643	17,752.4	62.4727	17,752.4	50.4267	17,752.4	55.1501	17,752.4	48.1068	17,752.4	51.1757	17,752.4	49.0022	17,752.4	45.2077	17,752.4	45.1437	17,752.4	46.9471	17,752.4	50.3953	17,752.4	54.0526	17,752.4	41.1716	17,752.4	52.1479	17,752.4	45.483
18,379.4	95.2704	18,379.4	94.1553	18,379.4	95.1986	18,379.4	91.7839	18,379.4	93.8717	18,379.4	87.9016	18,379.4	90.929	18,379.4	82.2609	18,379.4	86.6054	18,379.4	75.0349	18,379.4	81.8167	18,379.4	69.9425	18,379.4	77.7622	18,379.4	65.3011	18,379.4	75.3382	18,379.4	59.0092	18,379.4	72.3974	18,379.4	53.8767	18,379.4	69.9184	18,379.4	50.5778	18,379.4	65.1005	18,379.4	42.9197	18,379.4	62.0284	18,379.4	46.1791	18,379.4	55.1184	18,379.4	45.4345	18,379.4	49.6849	18,379.4	41.8529	18,379.4	46.289	18,379.4	45.4608	18,379.4	49.6282	18,379.4	41.1274	18,379.4	51.2852	18,379.4	43.6776	18,379.4	42.4827	18,379.4	30.8465
19,026.9	94.6147	19,026.9	93.4793	19,026.9	94.3748	19,026.9	90.5679	19,026.9	92.5913	19,026.9	85.698	19,026.9	89.43	19,026.9	77.4335	19,026.9	84.8176	19,026.9	68.854	19,026.9	79.2146	19,026.9	67.3867	19,026.9	74.7706	19,026.9	66.6933	19,026.9	71.3293	19,026.9	66.7794	19,026.9	68.0862	19,026.9	64.6253	19,026.9	65.6124	19,026.9	58.2187	19,026.9	61.5329	19,026.9	56.8084	19,026.9	58.4928	19,026.9	50.3595	19,026.9	52.0536	19,026.9	46.6296	19,026.9	43.8027	19,026.9	39.9116	19,026.9	36.9316	19,026.9	46.8413	19,026.9	43.6812	19,026.9	36.0023	19,026.9	44.5729	19,026.9	43.93	19,026.9	31.1412	19,026.9	33.545
19,697.8	94.6898	19,697.8	93.7619	19,697.8	94.0845	19,697.8	91.1408	19,697.8	91.8369	19,697.8	86.5936	19,697.8	88.0588	19,697.8	79.7402	19,697.8	82.4809	19,697.8	74.0317	19,697.8	75.0768	19,697.8	72.213	19,697.8	67.7634	19,697.8	70.4445	19,697.8	59.8014	19,697.8	69.0996	19,697.8	59.155	19,697.8	66.4682	19,697.8	57.1732	19,697.8	60.6044	19,697.8	55.6188	19,697.8	58.3522	19,697.8	50.3045	19,697.8	51.9493	19,697.8	43.8752	19,697.8	44.8975	19,697.8	39.1733	19,697.8	45.67	19,697.8	31.2849	19,697.8	42.8567	19,697.8	37.7766	19,697.8	36.307	19,697.8	40.5894	19,697.8	42.7792	19,697.8	36.5897	19,697.8	39.33
19,999.5	94.7272	19,999.5	93.8501	19,999.5	94.071	19,999.5	91.0522	19,999.5	91.919	19,999.5	86.4875	19,999.5	87.7029	19,999.5	79.5483	19,999.5	81.2269	19,999.5	72.0338	19,999.5	72.2387	19,999.5	70.2753	19,999.5	55.8504	19,999.5	69.1491	19,999.5	63.831	19,999.5	67.3487	19,999.5	64.2738	19,999.5	63.9754	19,999.5	58.4495	19,999.5	59.9995	19,999.5	61.2587	19,999.5	60.4532	19,999.5	46.7113	19,999.5	44.0289	19,999.5	58.1055	19,999.5	50.2424	19,999.5	58.1189	19,999.5	57.2032	19,999.5	59.3441	19,999.5	39.8392	19,999.5	44.6301	19,999.5	46.4839	19,999.5	49.9256	19,999.5	54.0368	19,999.5	49.0927	19,999.5	36.5533
