"SPL Vertical"
"On-Axis"		"10°"		"-10°"		"20°"		"-20°"		"30°"		"-30°"		"40°"		"-40°"		"50°"		"-50°"		"60°"		"-60°"		"70°"		"-70°"		"80°"		"-80°"		"90°"		"-90°"		"100°"		"-100°"		"110°"		"-110°"		"120°"		"-120°"		"130°"		"-130°"		"140°"		"-140°"		"150°"		"-150°"		"160°"		"-160°"		"170°"		"-170°"		"180°"
"Frequency [Hz]"	"Sound Pessure Level [dB]  / [2.83V 1m] "	"Frequency [Hz]"	"Sound Pessure Level [dB]  / [2.83V 1m] "	"Frequency [Hz]"	"Sound Pessure Level [dB]  / [2.83V 1m] "	"Frequency [Hz]"	"Sound Pessure Level [dB]  / [2.83V 1m] "	"Frequency [Hz]"	"Sound Pessure Level [dB]  / [2.83V 1m] "	"Frequency [Hz]"	"Sound Pessure Level [dB]  / [2.83V 1m] "	"Frequency [Hz]"	"Sound Pessure Level [dB]  / [2.83V 1m] "	"Frequency [Hz]"	"Sound Pessure Level [dB]  / [2.83V 1m] "	"Frequency [Hz]"	"Sound Pessure Level [dB]  / [2.83V 1m] "	"Frequency [Hz]"	"Sound Pessure Level [dB]  / [2.83V 1m] "	"Frequency [Hz]"	"Sound Pessure Level [dB]  / [2.83V 1m] "	"Frequency [Hz]"	"Sound Pessure Level [dB]  / [2.83V 1m] "	"Frequency [Hz]"	"Sound Pessure Level [dB]  / [2.83V 1m] "	"Frequency [Hz]"	"Sound Pessure Level [dB]  / [2.83V 1m] "	"Frequency [Hz]"	"Sound Pessure Level [dB]  / [2.83V 1m] "	"Frequency [Hz]"	"Sound Pessure Level [dB]  / [2.83V 1m] "	"Frequency [Hz]"	"Sound Pessure Level [dB]  / [2.83V 1m] "	"Frequency [Hz]"	"Sound Pessure Level [dB]  / [2.83V 1m] "	"Frequency [Hz]"	"Sound Pessure Level [dB]  / [2.83V 1m] "	"Frequency [Hz]"	"Sound Pessure Level [dB]  / [2.83V 1m] "	"Frequency [Hz]"	"Sound Pessure Level [dB]  / [2.83V 1m] "	"Frequency [Hz]"	"Sound Pessure Level [dB]  / [2.83V 1m] "	"Frequency [Hz]"	"Sound Pessure Level [dB]  / [2.83V 1m] "	"Frequency [Hz]"	"Sound Pessure Level [dB]  / [2.83V 1m] "	"Frequency [Hz]"	"Sound Pessure Level [dB]  / [2.83V 1m] "	"Frequency [Hz]"	"Sound Pessure Level [dB]  / [2.83V 1m] "	"Frequency [Hz]"	"Sound Pessure Level [dB]  / [2.83V 1m] "	"Frequency [Hz]"	"Sound Pessure Level [dB]  / [2.83V 1m] "	"Frequency [Hz]"	"Sound Pessure Level [dB]  / [2.83V 1m] "	"Frequency [Hz]"	"Sound Pessure Level [dB]  / [2.83V 1m] "	"Frequency [Hz]"	"Sound Pessure Level [dB]  / [2.83V 1m] "	"Frequency [Hz]"	"Sound Pessure Level [dB]  / [2.83V 1m] "	"Frequency [Hz]"	"Sound Pessure Level [dB]  / [2.83V 1m] "	"Frequency [Hz]"	"Sound Pessure Level [dB]  / [2.83V 1m] "	"Frequency [Hz]"	"Sound Pessure Level [dB]  / [2.83V 1m] "	"Frequency [Hz]"	"Sound Pessure Level [dB]  / [2.83V 1m] "
20.5078	50.5034	20.5078	51.87	20.5078	49.5034	20.5078	53.4655	20.5078	48.9941	20.5078	55.1564	20.5078	49.1137	20.5078	56.8434	20.5078	49.9991	20.5078	58.467	20.5078	51.626	20.5078	59.9983	20.5078	53.7374	20.5078	61.4267	20.5078	56.0204	20.5078	62.7506	20.5078	58.2615	20.5078	63.9719	20.5078	60.3537	20.5078	65.0924	20.5078	62.2523	20.5078	66.112	20.5078	63.942	20.5078	67.0273	20.5078	65.418	20.5078	67.8311	20.5078	66.6782	20.5078	68.5125	20.5078	67.7206	20.5078	69.057	20.5078	68.5431	20.5078	69.4478	20.5078	69.1449	20.5078	69.6673	20.5078	69.5281	20.5078	69.6988
21.9727	61.1202	21.9727	61.3859	21.9727	60.978	21.9727	61.7959	21.9727	60.9387	21.9727	62.3579	21.9727	60.9943	21.9727	63.0609	21.9727	61.1594	21.9727	63.8773	21.9727	61.4725	21.9727	64.7711	21.9727	61.9839	21.9727	65.7064	21.9727	62.7302	21.9727	66.6522	21.9727	63.7062	21.9727	67.5835	21.9727	64.8577	21.9727	68.4805	21.9727	66.1018	21.9727	69.3262	21.9727	67.354	21.9727	70.1049	21.9727	68.5442	21.9727	70.8007	21.9727	69.6207	21.9727	71.3964	21.9727	70.5471	21.9727	71.8736	21.9727	71.2994	21.9727	72.2132	21.9727	71.863	21.9727	72.3965	21.9727	72.2318	21.9727	72.4071
23.4375	62.6531	23.4375	62.727	23.4375	62.6295	23.4375	62.9054	23.4375	62.6148	23.4375	63.2409	23.4375	62.5913	23.4375	63.7654	23.4375	62.5743	23.4375	64.4771	23.4375	62.6217	23.4375	65.3427	23.4375	62.8375	23.4375	66.3117	23.4375	63.3432	23.4375	67.3323	23.4375	64.2081	23.4375	68.3603	23.4375	65.3902	23.4375	69.3615	23.4375	66.7593	23.4375	70.3094	23.4375	68.1713	23.4375	71.1825	23.4375	69.5161	23.4375	71.9615	23.4375	70.7233	23.4375	72.6271	23.4375	71.7514	23.4375	73.16	23.4375	72.5775	23.4375	73.5405	23.4375	73.1899	23.4375	73.7493	23.4375	73.5859	23.4375	73.7691
24.9023	67.4774	24.9023	67.5214	24.9023	67.4778	24.9023	67.6405	24.9023	67.5003	24.9023	67.8671	24.9023	67.5364	24.9023	68.2259	24.9023	67.5961	24.9023	68.7264	24.9023	67.711	24.9023	69.3592	24.9023	67.9342	24.9023	70.0989	24.9023	68.3287	24.9023	70.9115	24.9023	68.9415	24.9023	71.7615	24.9023	69.7744	24.9023	72.6159	24.9023	70.7762	24.9023	73.4457	24.9023	71.863	24.9023	74.2256	24.9023	72.9482	24.9023	74.9324	24.9023	73.9596	24.9023	75.544	24.9023	74.8452	24.9023	76.0389	24.9023	75.57	24.9023	76.3963	24.9023	76.1131	24.9023	76.5967	24.9023	76.4646	24.9023	76.6236
26.3672	70.9884	26.3672	71.0273	26.3672	70.9905	26.3672	71.1299	26.3672	71.0179	26.3672	71.3205	26.3672	71.0652	26.3672	71.6192	26.3672	71.1403	26.3672	72.0364	26.3672	71.2671	26.3672	72.5693	26.3672	71.4839	26.3672	73.202	26.3672	71.8365	26.3672	73.91	26.3672	72.3613	26.3672	74.664	26.3672	73.0662	26.3672	75.4347	26.3672	73.9202	26.3672	76.1941	26.3672	74.8627	26.3672	76.9165	26.3672	75.8221	26.3672	77.5775	26.3672	76.7324	26.3672	78.1541	26.3672	77.5407	26.3672	78.6235	26.3672	78.2093	26.3672	78.9646	26.3672	78.7135	26.3672	79.1578	26.3672	79.0404	26.3672	79.1869
27.832	74.4172	27.832	74.4488	27.832	74.424	27.832	74.5335	27.832	74.459	27.832	74.688	27.832	74.5192	27.832	74.927	27.832	74.61	27.832	75.2602	27.832	74.7466	27.832	75.689	27.832	74.9538	27.832	76.2061	27.832	75.2609	27.832	76.7958	27.832	75.694	27.832	77.4373	27.832	76.2633	27.832	78.1064	27.832	76.9552	27.832	78.7781	27.832	77.732	27.832	79.4273	27.832	78.5413	27.832	80.0292	27.832	79.3272	27.832	80.5598	27.832	80.0396	27.832	80.9955	27.832	80.6382	27.832	81.3142	27.832	81.095	27.832	81.4962	27.832	81.393	27.832	81.5259
29.2969	77.5787	29.2969	77.6008	29.2969	77.5924	29.2969	77.6692	29.2969	77.6345	29.2969	77.7962	29.2969	77.7029	29.2969	77.9933	29.2969	77.8017	29.2969	78.269	29.2969	77.9418	29.2969	78.6263	29.2969	78.1407	29.2969	79.0619	29.2969	78.4197	29.2969	79.5659	29.2969	78.7979	29.2969	80.123	29.2969	79.2848	29.2969	80.7138	29.2969	79.8734	29.2969	81.3161	29.2969	80.5379	29.2969	81.9068	29.2969	81.2381	29.2969	82.4617	29.2969	81.9272	29.2969	82.9564	29.2969	82.5593	29.2969	83.3673	29.2969	83.0953	29.2969	83.6717	29.2969	83.5059	29.2969	83.85	29.2969	83.7724	29.2969	83.8867
30.7617	80.2688	30.7617	80.2867	30.7617	80.2862	30.7617	80.3484	30.7617	80.3332	30.7617	80.4637	30.7617	80.4081	30.7617	80.6416	30.7617	80.5136	30.7617	80.8891	30.7617	80.6578	30.7617	81.209	30.7617	80.8534	30.7617	81.5991	30.7617	81.1159	30.7617	82.0521	30.7617	81.4598	30.7617	82.5554	30.7617	81.8932	30.7617	83.0926	30.7617	82.4122	30.7617	83.6443	30.7617	82.9985	30.7617	84.1889	30.7617	83.6209	30.7617	84.7038	30.7617	84.2396	30.7617	85.1653	30.7617	84.8135	30.7617	85.55	30.7617	85.305	30.7617	85.8359	30.7617	85.6845	30.7617	86.0037	30.7617	85.9322	30.7617	86.0386
32.2266	83.055	32.2266	83.0787	32.2266	83.0669	32.2266	83.1436	32.2266	83.1108	32.2266	83.2562	32.2266	83.1858	32.2266	83.4228	32.2266	83.2941	32.2266	83.6484	32.2266	83.4416	32.2266	83.9356	32.2266	83.637	32.2266	84.2835	32.2266	83.8909	32.2266	84.6873	32.2266	84.213	32.2266	85.138	32.2266	84.6084	32.2266	85.6227	32.2266	85.0744	32.2266	86.1253	32.2266	85.5976	32.2266	86.6263	32.2266	86.1538	32.2266	87.1046	32.2266	86.7109	32.2266	87.5369	32.2266	87.2326	32.2266	87.9	32.2266	87.6841	32.2266	88.1715	32.2266	88.036	32.2266	88.3317	32.2266	88.2671	32.2266	88.3661
33.6914	85.3554	33.6914	85.3736	33.6914	85.3739	33.6914	85.4325	33.6914	85.4267	33.6914	85.5368	33.6914	85.5129	33.6914	85.6909	33.6914	85.634	33.6914	85.8984	33.6914	85.7937	33.6914	86.1612	33.6914	85.9976	33.6914	86.4785	33.6914	86.2523	33.6914	86.8465	33.6914	86.5634	33.6914	87.2579	33.6914	86.9336	33.6914	87.702	33.6914	87.3597	33.6914	88.1646	33.6914	87.8308	33.6914	88.6287	33.6914	88.3276	33.6914	89.0746	33.6914	88.8237	33.6914	89.4808	33.6914	89.2883	33.6914	89.8251	33.6914	89.6905	33.6914	90.0858	33.6914	90.0029	33.6914	90.2442	33.6914	90.2052	33.6914	90.2863
35.1562	87.4258	35.1562	87.4381	35.1562	87.4493	35.1562	87.4891	35.1562	87.5069	35.1562	87.582	35.1562	87.5978	35.1562	87.7201	35.1562	87.7228	35.1562	87.9059	35.1562	87.884	35.1562	88.1409	35.1562	88.0847	35.1562	88.4245	35.1562	88.3287	35.1562	88.7537	35.1562	88.6191	35.1562	89.123	35.1562	88.9572	35.1562	89.5235	35.1562	89.3399	35.1562	89.9433	35.1562	89.7588	35.1562	90.3675	35.1562	90.1986	35.1562	90.7781	35.1562	90.6376	35.1562	91.1552	35.1562	91.0494	35.1562	91.4777	35.1562	91.4062	35.1562	91.7249	35.1562	91.6828	35.1562	91.8787	35.1562	91.8597	35.1562	91.9258
36.6211	89.2599	36.6211	89.2699	36.6211	89.2843	36.6211	89.3159	36.6211	89.3416	36.6211	89.4002	36.6211	89.4314	36.6211	89.5249	36.6211	89.5539	36.6211	89.6918	36.6211	89.7101	36.6211	89.9018	36.6211	89.9019	36.6211	90.1546	36.6211	90.1313	36.6211	90.4481	36.6211	90.3998	36.6211	90.778	36.6211	90.7078	36.6211	91.1373	36.6211	91.0526	36.6211	91.516	36.6211	91.4273	36.6211	91.9013	36.6211	91.8193	36.6211	92.277	36.6211	92.2105	36.6211	92.6248	36.6211	92.578	36.6211	92.9246	36.6211	92.8967	36.6211	93.1569	36.6211	93.1432	36.6211	93.3042	36.6211	93.2992	36.6211	93.3536
38.0859	90.7609	38.0859	90.7673	38.0859	90.7875	38.0859	90.808	38.0859	90.8463	38.0859	90.884	38.0859	90.9367	38.0859	90.9969	38.0859	91.0588	38.0859	91.1476	38.0859	91.2126	38.0859	91.3369	38.0859	91.3987	38.0859	91.5643	38.0859	91.6177	38.0859	91.8283	38.0859	91.8698	38.0859	92.1255	38.0859	92.1543	38.0859	92.4503	38.0859	92.4685	38.0859	92.7945	38.0859	92.8065	38.0859	93.1467	38.0859	93.1577	38.0859	93.4926	38.0859	93.5068	38.0859	93.8152	38.0859	93.834	38.0859	94.0959	38.0859	94.1171	38.0859	94.316	38.0859	94.3348	38.0859	94.4588	38.0859	94.4699	38.0859	94.512
39.5508	91.8697	39.5508	91.8691	39.5508	91.9017	39.5508	91.9009	39.5508	91.9647	39.5508	91.9657	39.5508	92.0579	39.5508	92.0643	39.5508	92.1809	39.5508	92.1975	39.5508	92.3331	39.5508	92.3656	39.5508	92.5141	39.5508	92.5685	39.5508	92.7232	39.5508	92.8049	39.5508	92.9597	39.5508	93.0723	39.5508	93.2222	39.5508	93.3662	39.5508	93.5078	39.5508	93.6796	39.5508	93.8114	39.5508	94.0027	39.5508	94.1243	39.5508	94.3227	39.5508	94.4334	39.5508	94.6239	39.5508	94.7219	39.5508	94.8888	39.5508	94.9701	39.5508	95.0998	39.5508	95.1588	39.5508	95.2408	39.5508	95.272	39.5508	95.3
41.0156	92.5002	41.0156	92.5019	41.0156	92.5296	41.0156	92.535	41.0156	92.5899	41.0156	92.5999	41.0156	92.6807	41.0156	92.6966	41.0156	92.8013	41.0156	92.8255	41.0156	92.951	41.0156	92.9865	41.0156	93.1287	41.0156	93.1791	41.0156	93.3329	41.0156	93.4021	41.0156	93.562	41.0156	93.6531	41.0156	93.8136	41.0156	93.9281	41.0156	94.0844	41.0156	94.2209	41.0156	94.3694	41.0156	94.5228	41.0156	94.6608	41.0156	94.8219	41.0156	94.9471	41.0156	95.104	41.0156	95.2133	41.0156	95.3528	41.0156	95.4419	41.0156	95.5516	41.0156	95.6153	41.0156	95.6852	41.0156	95.7186	41.0156	95.7426
42.4805	93.0262	42.4805	93.0174	42.4805	93.0655	42.4805	93.0393	42.4805	93.1348	42.4805	93.0919	42.4805	93.2332	42.4805	93.1752	42.4805	93.3595	42.4805	93.2888	42.4805	93.5121	42.4805	93.4326	42.4805	93.6889	42.4805	93.6059	42.4805	93.8878	42.4805	93.8075	42.4805	94.1063	42.4805	94.0356	42.4805	94.3417	42.4805	94.2869	42.4805	94.5908	42.4805	94.5562	42.4805	94.8489	42.4805	94.8361	42.4805	95.1093	42.4805	95.1162	42.4805	95.3622	42.4805	95.3834	42.4805	95.5947	42.4805	95.6227	42.4805	95.7912	42.4805	95.8181	42.4805	95.9361	42.4805	95.9551	42.4805	96.016	42.4805	96.0229
43.9453	93.3746	43.9453	93.3592	43.9453	93.4195	43.9453	93.3737	43.9453	93.4936	43.9453	93.4177	43.9453	93.5958	43.9453	93.4911	43.9453	93.7246	43.9453	93.5932	43.9453	93.8779	43.9453	93.7238	43.9453	94.0531	43.9453	93.882	43.9453	94.2473	43.9453	94.0667	43.9453	94.4574	43.9453	94.2763	43.9453	94.6799	43.9453	94.5078	43.9453	94.9112	43.9453	94.7568	43.9453	95.1469	43.9453	95.0166	43.9453	95.3809	43.9453	95.278	43.9453	95.6049	43.9453	95.5292	43.9453	95.8078	43.9453	95.7562	43.9453	95.9765	43.9453	95.9444	43.9453	96.0973	43.9453	96.0802	43.9453	96.1586	43.9453	96.1533
45.4102	93.6016	45.4102	93.5846	45.4102	93.647	45.4102	93.5958	45.4102	93.7201	45.4102	93.6348	45.4102	93.8201	45.4102	93.7012	45.4102	93.9452	45.4102	93.7942	45.4102	94.093	45.4102	93.913	45.4102	94.2608	45.4102	94.0568	45.4102	94.445	45.4102	94.2242	45.4102	94.6422	45.4102	94.4138	45.4102	94.8484	45.4102	94.623	45.4102	95.06	45.4102	94.848	45.4102	95.2725	45.4102	95.083	45.4102	95.4806	45.4102	95.3201	45.4102	95.6772	45.4102	95.5489	45.4102	95.853	45.4102	95.7571	45.4102	95.9971	45.4102	95.9316	45.4102	96.0977	45.4102	96.0599	45.4102	96.145	45.4102	96.1326
46.875	93.7035	46.875	93.6849	46.875	93.7493	46.875	93.6932	46.875	93.8218	46.875	93.7276	46.875	93.9202	46.875	93.7872	46.875	94.0425	46.875	93.871	46.875	94.1861	46.875	93.9777	46.875	94.3477	46.875	94.1062	46.875	94.5233	46.875	94.2555	46.875	94.7089	46.875	94.4241	46.875	94.9002	46.875	94.6099	46.875	95.0931	46.875	94.8099	46.875	95.2834	46.875	95.0197	46.875	95.4663	46.875	95.2327	46.875	95.6358	46.875	95.4401	46.875	95.7845	46.875	95.6311	46.875	95.9032	46.875	95.7939	46.875	95.9824	46.875	95.9172	46.875	96.0136	46.875	95.992
48.3398	93.639	48.3398	93.6186	48.3398	93.6864	48.3398	93.6247	48.3398	93.7606	48.3398	93.6562	48.3398	93.8604	48.3398	93.7117	48.3398	93.9839	48.3398	93.7899	48.3398	94.1281	48.3398	93.8892	48.3398	94.289	48.3398	94.0083	48.3398	94.4623	48.3398	94.146	48.3398	94.6432	48.3398	94.3009	48.3398	94.8271	48.3398	94.4713	48.3398	95.0092	48.3398	94.6549	48.3398	95.1854	48.3398	94.8479	48.3398	95.3511	48.3398	95.0448	48.3398	95.5011	48.3398	95.2382	48.3398	95.6292	48.3398	95.4183	48.3398	95.7278	48.3398	95.5745	48.3398	95.789	48.3398	95.6963	48.3398	95.8061	48.3398	95.7751
51.2695	93.5644	51.2695	93.5346	51.2695	93.6178	51.2695	93.5282	51.2695	93.6942	51.2695	93.5444	51.2695	93.7921	51.2695	93.582	51.2695	93.9092	51.2695	93.6394	51.2695	94.0423	51.2695	93.715	51.2695	94.1874	51.2695	93.8071	51.2695	94.3401	51.2695	93.9146	51.2695	94.4955	51.2695	94.0361	51.2695	94.6488	51.2695	94.1705	51.2695	94.7954	51.2695	94.3163	51.2695	94.9315	51.2695	94.471	51.2695	95.0535	51.2695	94.6312	51.2695	95.1579	51.2695	94.7913	51.2695	95.241	51.2695	94.9442	51.2695	95.2986	51.2695	95.0811	51.2695	95.3258	51.2695	95.1935	51.2695	95.3184	51.2695	95.274
52.7344	93.5175	52.7344	93.4881	52.7344	93.5701	52.7344	93.4816	52.7344	93.6454	52.7344	93.4969	52.7344	93.742	52.7344	93.5327	52.7344	93.8574	52.7344	93.5869	52.7344	93.9883	52.7344	93.6578	52.7344	94.1305	52.7344	93.7435	52.7344	94.2792	52.7344	93.8426	52.7344	94.4293	52.7344	93.9538	52.7344	94.5757	52.7344	94.076	52.7344	94.7137	52.7344	94.2082	52.7344	94.8392	52.7344	94.3485	52.7344	94.9486	52.7344	94.4942	52.7344	95.0391	52.7344	94.6409	52.7344	95.1077	52.7344	94.7824	52.7344	95.1513	52.7344	94.9112	52.7344	95.1663	52.7344	95.0195	52.7344	95.1499	52.7344	95.1005
54.1992	93.5139	54.1992	93.4846	54.1992	93.5655	54.1992	93.4771	54.1992	93.6389	54.1992	93.4904	54.1992	93.7329	54.1992	93.5228	54.1992	93.845	54.1992	93.5725	54.1992	93.9721	54.1992	93.6375	54.1992	94.11	54.1992	93.716	54.1992	94.254	54.1992	93.8063	54.1992	94.3989	54.1992	93.9074	54.1992	94.5393	54.1992	94.0184	54.1992	94.6702	54.1992	94.1383	54.1992	94.7873	54.1992	94.266	54.1992	94.887	54.1992	94.3993	54.1992	94.9665	54.1992	94.5348	54.1992	95.0232	54.1992	94.6673	54.1992	95.0548	54.1992	94.7901	54.1992	95.059	54.1992	94.8961	54.1992	95.0338	54.1992	94.9788
55.6641	93.5357	55.6641	93.502	55.6641	93.5907	55.6641	93.4892	55.6641	93.6664	55.6641	93.4964	55.6641	93.7614	55.6641	93.5221	55.6641	93.8734	55.6641	93.5645	55.6641	93.9991	55.6641	93.6216	55.6641	94.1345	55.6641	93.6916	55.6641	94.2747	55.6641	93.773	55.6641	94.4144	55.6641	93.8647	55.6641	94.5483	55.6641	93.9658	55.6641	94.671	55.6641	94.0756	55.6641	94.7782	55.6641	94.1931	55.6641	94.8661	55.6641	94.3168	55.6641	94.9321	55.6641	94.4437	55.6641	94.9743	55.6641	94.5697	55.6641	94.9913	55.6641	94.6889	55.6641	94.9817	55.6641	94.7951	55.6641	94.9451	55.6641	94.882
58.5938	93.5318	58.5938	93.4933	58.5938	93.5898	58.5938	93.474	58.5938	93.6665	58.5938	93.4727	58.5938	93.7604	58.5938	93.488	58.5938	93.8691	58.5938	93.5176	58.5938	93.989	58.5938	93.5596	58.5938	94.1159	58.5938	93.6117	58.5938	94.2446	58.5938	93.6722	58.5938	94.3695	58.5938	93.7398	58.5938	94.4847	58.5938	93.8138	58.5938	94.5847	58.5938	93.8939	58.5938	94.6648	58.5938	93.9804	58.5938	94.7217	58.5938	94.0731	58.5938	94.7536	58.5938	94.1714	58.5938	94.7603	58.5938	94.2735	58.5938	94.7428	58.5938	94.3762	58.5938	94.7028	58.5938	94.4752	58.5938	94.6427	58.5938	94.5656
60.0586	93.5182	60.0586	93.4786	60.0586	93.5769	60.0586	93.4577	60.0586	93.6542	60.0586	93.4547	60.0586	93.7484	60.0586	93.4676	60.0586	93.857	60.0586	93.4943	60.0586	93.9765	60.0586	93.5326	60.0586	94.1025	60.0586	93.5803	60.0586	94.2297	60.0586	93.6354	60.0586	94.3524	60.0586	93.6966	60.0586	94.4645	60.0586	93.7632	60.0586	94.5603	60.0586	93.8353	60.0586	94.6349	60.0586	93.9133	60.0586	94.6849	60.0586	93.9978	60.0586	94.7084	60.0586	94.0888	60.0586	94.7056	60.0586	94.1853	60.0586	94.678	60.0586	94.2848	60.0586	94.6284	60.0586	94.3835	60.0586	94.56	60.0586	94.4769
62.9883	93.5421	62.9883	93.4964	62.9883	93.6047	62.9883	93.4675	62.9883	93.6833	62.9883	93.4546	62.9883	93.7764	62.9883	93.4561	62.9883	93.8812	62.9883	93.4698	62.9883	93.9943	62.9883	93.4937	62.9883	94.1115	62.9883	93.5253	62.9883	94.2275	62.9883	93.5628	62.9883	94.3367	62.9883	93.6047	62.9883	94.4331	62.9883	93.6507	62.9883	94.5109	62.9883	93.701	62.9883	94.565	62.9883	93.7567	62.9883	94.592	62.9883	93.8194	62.9883	94.5905	62.9883	93.8906	62.9883	94.5615	62.9883	93.9709	62.9883	94.5081	62.9883	94.0598	62.9883	94.4351	62.9883	94.155	62.9883	94.348	62.9883	94.2528
64.4531	93.5481	64.4531	93.4994	64.4531	93.6131	64.4531	93.4672	64.4531	93.6935	64.4531	93.4506	64.4531	93.7877	64.4531	93.4481	64.4531	93.8928	64.4531	93.4577	64.4531	94.0053	64.4531	93.477	64.4531	94.121	64.4531	93.5037	64.4531	94.2347	64.4531	93.5357	64.4531	94.3405	64.4531	93.5717	64.4531	94.4324	64.4531	93.611	64.4531	94.5045	64.4531	93.6541	64.4531	94.5516	64.4531	93.7023	64.4531	94.5703	64.4531	93.7575	64.4531	94.5593	64.4531	93.8219	64.4531	94.52	64.4531	93.8968	64.4531	94.4562	64.4531	93.9824	64.4531	94.3734	64.4531	94.0771	64.4531	94.2783	64.4531	94.1774
67.3828	93.5549	67.3828	93.5005	67.3828	93.6247	67.3828	93.4619	67.3828	93.709	67.3828	93.4383	67.3828	93.8057	67.3828	93.4283	67.3828	93.912	67.3828	93.4298	67.3828	94.0244	67.3828	93.4404	67.3828	94.1382	67.3828	93.4576	67.3828	94.2484	67.3828	93.4792	67.3828	94.3489	67.3828	93.5036	67.3828	94.4335	67.3828	93.5304	67.3828	94.496	67.3828	93.56	67.3828	94.5311	67.3828	93.5943	67.3828	94.5351	67.3828	93.6361	67.3828	94.5071	67.3828	93.6886	67.3828	94.449	67.3828	93.7547	67.3828	94.3655	67.3828	93.8359	67.3828	94.2637	67.3828	93.9317	67.3828	94.152	67.3828	94.0389
68.8477	93.5751	68.8477	93.5182	68.8477	93.6467	68.8477	93.4761	68.8477	93.7317	68.8477	93.4483	68.8477	93.8281	68.8477	93.4335	68.8477	93.9331	68.8477	93.4296	68.8477	94.0431	68.8477	93.4342	68.8477	94.1537	68.8477	93.4448	68.8477	94.2599	68.8477	93.4593	68.8477	94.3557	68.8477	93.476	68.8477	94.4348	68.8477	93.4946	68.8477	94.491	68.8477	93.5157	68.8477	94.5189	68.8477	93.5414	68.8477	94.5147	68.8477	93.5751	68.8477	94.4775	68.8477	93.6204	68.8477	94.4093	68.8477	93.6809	68.8477	94.3154	68.8477	93.7589	68.8477	94.2038	68.8477	93.8545	68.8477	94.0838	68.8477	93.9646
71.7773	93.6846	71.7773	93.6248	71.7773	93.7565	71.7773	93.5778	71.7773	93.8393	71.7773	93.5431	71.7773	93.9308	71.7773	93.5197	71.7773	94.0286	71.7773	93.5059	71.7773	94.1293	71.7773	93.4992	71.7773	94.2291	71.7773	93.4975	71.7773	94.3232	71.7773	93.4985	71.7773	94.4061	71.7773	93.5007	71.7773	94.472	71.7773	93.5039	71.7773	94.5146	71.7773	93.5089	71.7773	94.5284	71.7773	93.5181	71.7773	94.5096	71.7773	93.5355	71.7773	94.457	71.7773	93.5657	71.7773	94.3731	71.7773	93.6133	71.7773	94.264	71.7773	93.682	71.7773	94.1388	71.7773	93.7727	71.7773	94.0085	71.7773	93.8835
74.707	93.8147	74.707	93.7562	74.707	93.8838	74.707	93.709	74.707	93.9621	74.707	93.6728	74.707	94.0476	74.707	93.6467	74.707	94.1378	74.707	93.6289	74.707	94.2296	74.707	93.6171	74.707	94.3195	74.707	93.609	74.707	94.4031	74.707	93.6023	74.707	94.4753	74.707	93.5955	74.707	94.5303	74.707	93.588	74.707	94.562	74.707	93.5806	74.707	94.5649	74.707	93.5761	74.707	94.5351	74.707	93.5785	74.707	94.4717	74.707	93.5934	74.707	94.3774	74.707	93.6264	74.707	94.2592	74.707	93.6823	74.707	94.1272	74.707	93.7636	74.707	93.9933	74.707	93.8691
77.6367	93.8587	77.6367	93.797	77.6367	93.9311	77.6367	93.7466	77.6367	94.0124	77.6367	93.7075	77.6367	94.1006	77.6367	93.6787	77.6367	94.1928	77.6367	93.6584	77.6367	94.2861	77.6367	93.644	77.6367	94.3767	77.6367	93.6328	77.6367	94.4603	77.6367	93.6224	77.6367	94.5316	77.6367	93.6108	77.6367	94.5848	77.6367	93.5973	77.6367	94.6136	77.6367	93.583	77.6367	94.612	77.6367	93.5705	77.6367	94.5759	77.6367	93.5648	77.6367	94.5041	77.6367	93.5723	77.6367	94.3995	77.6367	93.5997	77.6367	94.2695	77.6367	93.6531	77.6367	94.1252	77.6367	93.7357	77.6367	93.9799	77.6367	93.8466
79.1016	93.8716	79.1016	93.8067	79.1016	93.9464	79.1016	93.7527	79.1016	94.0295	79.1016	93.7096	79.1016	94.1185	79.1016	93.6766	79.1016	94.211	79.1016	93.6518	79.1016	94.3037	79.1016	93.6329	79.1016	94.3933	79.1016	93.617	79.1016	94.4754	79.1016	93.6018	79.1016	94.5449	79.1016	93.5852	79.1016	94.596	79.1016	93.5667	79.1016	94.6221	79.1016	93.5473	79.1016	94.6171	79.1016	93.53	79.1016	94.5766	79.1016	93.5199	79.1016	94.4992	79.1016	93.524	79.1016	94.3877	79.1016	93.5496	79.1016	94.2498	79.1016	93.6031	79.1016	94.0973	79.1016	93.6883	79.1016	93.944	79.1016	93.804
82.0312	93.9222	82.0312	93.8491	82.0312	94.0031	82.0312	93.7852	82.0312	94.09	82.0312	93.7309	82.0312	94.1802	82.0312	93.6855	82.0312	94.2711	82.0312	93.6474	82.0312	94.3596	82.0312	93.6143	82.0312	94.4421	82.0312	93.5836	82.0312	94.5145	82.0312	93.5527	82.0312	94.5718	82.0312	93.5198	82.0312	94.6082	82.0312	93.4843	82.0312	94.6175	82.0312	93.4476	82.0312	94.5936	82.0312	93.4132	82.0312	94.5323	82.0312	93.3871	82.0312	94.4329	82.0312	93.3771	82.0312	94.2987	82.0312	93.3917	82.0312	94.1387	82.0312	93.439	82.0312	93.9659	82.0312	93.5234	82.0312	93.7961	82.0312	93.6446
84.9609	93.8526	84.9609	93.7761	84.9609	93.9352	84.9609	93.7073	84.9609	94.0217	84.9609	93.6471	84.9609	94.1097	84.9609	93.5953	84.9609	94.1964	84.9609	93.5505	84.9609	94.279	84.9609	93.5107	84.9609	94.354	84.9609	93.4733	84.9609	94.4177	84.9609	93.4355	84.9609	94.465	84.9609	93.3953	84.9609	94.4901	84.9609	93.3518	84.9609	94.4864	84.9609	93.306	84.9609	94.4479	84.9609	93.2612	84.9609	94.3707	84.9609	93.2232	84.9609	94.2545	84.9609	93.2002	84.9609	94.1043	84.9609	93.2014	84.9609	93.9306	84.9609	93.2358	84.9609	93.7482	84.9609	93.3096	84.9609	93.5741	84.9609	93.4241
87.8906	93.7457	87.8906	93.6884	87.8906	93.8145	87.8906	93.643	87.8906	93.8941	87.8906	93.6088	87.8906	93.9832	87.8906	93.5847	87.8906	94.0801	87.8906	93.5687	87.8906	94.1823	87.8906	93.5583	87.8906	94.2866	87.8906	93.5506	87.8906	94.3887	87.8906	93.5427	87.8906	94.4824	87.8906	93.5327	87.8906	94.5602	87.8906	93.5199	87.8906	94.6134	87.8906	93.5053	87.8906	94.6334	87.8906	93.4924	87.8906	94.6133	87.8906	93.4868	87.8906	94.5498	87.8906	93.4963	87.8906	94.4445	87.8906	93.5292	87.8906	94.3048	87.8906	93.5928	87.8906	94.1437	87.8906	93.6909	87.8906	93.9771	87.8906	93.8216
90.8203	93.7684	90.8203	93.6968	90.8203	93.8506	90.8203	93.6373	90.8203	93.9415	90.8203	93.5904	90.8203	94.0387	90.8203	93.5557	90.8203	94.1404	90.8203	93.5316	90.8203	94.2444	90.8203	93.5155	90.8203	94.3486	90.8203	93.5047	90.8203	94.4498	90.8203	93.496	90.8203	94.5434	90.8203	93.4875	90.8203	94.6227	90.8203	93.4781	90.8203	94.6795	90.8203	93.469	90.8203	94.7044	90.8203	93.4634	90.8203	94.6896	90.8203	93.4671	90.8203	94.6301	90.8203	93.4876	90.8203	94.5261	90.8203	93.5334	90.8203	94.3839	90.8203	93.6112	90.8203	94.216	90.8203	93.7243	90.8203	94.0388	90.8203	93.87
95.2148	93.909	95.2148	93.8196	95.2148	93.9974	95.2148	93.7324	95.2148	94.0814	95.2148	93.6503	95.2148	94.1588	95.2148	93.5755	95.2148	94.2281	95.2148	93.5086	95.2148	94.2891	95.2148	93.449	95.2148	94.3421	95.2148	93.395	95.2148	94.3868	95.2148	93.3445	95.2148	94.4218	95.2148	93.2956	95.2148	94.4436	95.2148	93.2475	95.2148	94.4462	95.2148	93.2013	95.2148	94.4224	95.2148	93.1606	95.2148	94.3651	95.2148	93.1313	95.2148	94.2697	95.2148	93.1219	95.2148	94.1366	95.2148	93.1417	95.2148	93.9721	95.2148	93.1986	95.2148	93.789	95.2148	93.2971	95.2148	93.6041	95.2148	93.4352
98.1445	93.9877	98.1445	93.908	98.1445	94.0645	98.1445	93.8278	98.1445	94.1365	98.1445	93.7489	98.1445	94.2021	98.1445	93.6728	98.1445	94.2609	98.1445	93.5999	98.1445	94.3126	98.1445	93.5296	98.1445	94.3573	98.1445	93.4605	98.1445	94.3945	98.1445	93.391	98.1445	94.422	98.1445	93.3199	98.1445	94.4353	98.1445	93.2471	98.1445	94.4279	98.1445	93.1746	98.1445	94.3918	98.1445	93.107	98.1445	94.3195	98.1445	93.0517	98.1445	94.2064	98.1445	93.0185	98.1445	94.0538	98.1445	93.0185	98.1445	93.8694	98.1445	93.0613	98.1445	93.668	98.1445	93.1528	98.1445	93.4689	98.1445	93.2917
101.074	94.0956	101.074	94.0129	101.074	94.1738	101.074	93.9284	101.074	94.2446	101.074	93.8442	101.074	94.3053	101.074	93.7616	101.074	94.3542	101.074	93.6805	101.074	94.3903	101.074	93.6001	101.074	94.4131	101.074	93.5187	101.074	94.4225	101.074	93.4346	101.074	94.4178	101.074	93.3468	101.074	94.3965	101.074	93.2553	101.074	94.3548	101.074	93.1627	101.074	94.287	101.074	93.0739	101.074	94.1881	101.074	92.9969	101.074	94.055	101.074	92.9421	101.074	93.8895	101.074	92.9211	101.074	93.6996	101.074	92.9442	101.074	93.4994	101.074	93.0178	101.074	93.3071	101.074	93.1416
105.469	93.7051	105.469	93.6153	105.469	93.7934	105.469	93.5275	105.469	93.8764	105.469	93.4451	105.469	93.9514	105.469	93.37	105.469	94.0168	105.469	93.3029	105.469	94.0722	105.469	93.2427	105.469	94.1177	105.469	93.1873	105.469	94.1534	105.469	93.1341	105.469	94.1777	105.469	93.0806	105.469	94.1874	105.469	93.0257	105.469	94.1765	105.469	92.9702	105.469	94.138	105.469	92.9175	105.469	94.0653	105.469	92.8739	105.469	93.955	105.469	92.8483	105.469	93.8087	105.469	92.8507	105.469	93.6344	105.469	92.8905	105.469	93.4463	105.469	92.9736	105.469	93.2622	105.469	93.1
108.398	94.0521	108.398	93.9446	108.398	94.1533	108.398	93.8354	108.398	94.2437	108.398	93.7288	108.398	94.3201	108.398	93.6279	108.398	94.3805	108.398	93.5342	108.398	94.4243	108.398	93.4478	108.398	94.4522	108.398	93.3674	108.398	94.4654	108.398	93.2908	108.398	94.4643	108.398	93.2164	108.398	94.4475	108.398	93.1435	108.398	94.4116	108.398	93.0737	108.398	94.3512	108.398	93.0109	108.398	94.2605	108.398	92.9621	108.398	94.1358	108.398	92.9363	108.398	93.9779	108.398	92.9434	108.398	93.7934	108.398	92.9919	108.398	93.595	108.398	93.0864	108.398	93.3997	108.398	93.2253
112.793	94.2158	112.793	94.1172	112.793	94.3054	112.793	94.0137	112.793	94.3819	112.793	93.9092	112.793	94.4426	112.793	93.8069	112.793	94.4857	112.793	93.7088	112.793	94.5109	112.793	93.6152	112.793	94.5188	112.793	93.5254	112.793	94.5105	112.793	93.4379	112.793	94.4868	112.793	93.3513	112.793	94.4471	112.793	93.2654	112.793	94.3891	112.793	93.1818	112.793	94.309	112.793	93.1044	112.793	94.2029	112.793	93.0401	112.793	94.0685	112.793	92.9977	112.793	93.9077	112.793	92.9866	112.793	93.7276	112.793	93.0154	112.793	93.5402	112.793	93.0889	112.793	93.3613	112.793	93.2066
117.188	94.5033	117.188	94.417	117.188	94.5777	117.188	94.3224	117.188	94.6367	117.188	94.2229	117.188	94.6783	117.188	94.1213	117.188	94.7015	117.188	94.0188	117.188	94.7065	117.188	93.9157	117.188	94.6946	117.188	93.8108	117.188	94.6668	117.188	93.7029	117.188	94.6234	117.188	93.5907	117.188	94.5628	117.188	93.4748	117.188	94.4815	117.188	93.3575	117.188	94.3752	117.188	93.2442	117.188	94.2406	117.188	93.1429	117.188	94.0775	117.188	93.064	117.188	93.8907	117.188	93.0186	117.188	93.6904	117.188	93.0168	117.188	93.4916	117.188	93.0653	117.188	93.3113	117.188	93.1653
120.117	94.3932	120.117	94.2915	120.117	94.4824	120.117	94.1825	120.117	94.5549	120.117	94.0712	120.117	94.6078	120.117	93.9614	120.117	94.6402	120.117	93.8557	120.117	94.653	120.117	93.7546	120.117	94.6487	120.117	93.6572	120.117	94.6298	120.117	93.5616	120.117	94.5975	120.117	93.4658	120.117	94.5509	120.117	93.3691	120.117	94.4859	120.117	93.2727	120.117	94.3969	120.117	93.1807	120.117	94.2784	120.117	93.0999	120.117	94.1277	120.117	93.04	120.117	93.948	120.117	93.0118	120.117	93.7489	120.117	93.0255	120.117	93.5459	120.117	93.0878	120.117	93.3573	120.117	93.2004
124.512	94.2445	124.512	94.1354	124.512	94.3394	124.512	94.0171	124.512	94.4157	124.512	93.8948	124.512	94.4707	124.512	93.773	124.512	94.5035	124.512	93.6548	124.512	94.5152	124.512	93.5416	124.512	94.5079	124.512	93.4334	124.512	94.4846	124.512	93.3292	124.512	94.447	124.512	93.2282	124.512	94.3949	124.512	93.1303	124.512	94.3256	124.512	93.0376	124.512	94.2343	124.512	92.9542	124.512	94.1164	124.512	92.8867	124.512	93.9695	124.512	92.8435	124.512	93.7959	124.512	92.8335	124.512	93.6038	124.512	92.8642	124.512	93.4066	124.512	92.9402	124.512	93.2205	124.512	93.0611
128.906	94.2607	128.906	94.142	128.906	94.3629	128.906	94.0125	128.906	94.444	128.906	93.8774	128.906	94.5008	128.906	93.7415	128.906	94.5321	128.906	93.6076	128.906	94.5387	128.906	93.477	128.906	94.5227	128.906	93.3492	128.906	94.4868	128.906	93.223	128.906	94.4332	128.906	93.0974	128.906	94.3618	128.906	92.973	128.906	94.2703	128.906	92.8527	128.906	94.1544	128.906	92.7424	128.906	94.0099	128.906	92.6509	128.906	93.835	128.906	92.5887	128.906	93.6329	128.906	92.5664	128.906	93.4128	128.906	92.5928	128.906	93.1897	128.906	92.6724	128.906	92.9811	128.906	92.8043
133.301	94.0169	133.301	93.9007	133.301	94.1205	133.301	93.7773	133.301	94.2072	133.301	93.6524	133.301	94.2741	133.301	93.5308	133.301	94.32	133.301	93.4156	133.301	94.3453	133.301	93.3076	133.301	94.3509	133.301	93.2057	133.301	94.3377	133.301	93.1069	133.301	94.305	133.301	93.0082	133.301	94.2501	133.301	92.9074	133.301	94.1683	133.301	92.8048	133.301	94.0542	133.301	92.7039	133.301	93.9039	133.301	92.6121	133.301	93.7181	133.301	92.5401	133.301	93.5034	133.301	92.5002	133.301	93.2731	133.301	92.5044	133.301	93.0454	133.301	92.5617	133.301	92.8402	133.301	92.6751
139.16	93.9009	139.16	93.754	139.16	94.0265	139.16	93.5925	139.16	94.1254	139.16	93.4239	139.16	94.1949	139.16	93.2554	139.16	94.2351	139.16	93.0934	139.16	94.2485	139.16	92.9423	139.16	94.2401	139.16	92.8053	139.16	94.215	139.16	92.6839	139.16	94.177	139.16	92.579	139.16	94.1264	139.16	92.4912	139.16	94.0597	139.16	92.4221	139.16	93.9703	139.16	92.3742	139.16	93.8515	139.16	92.3509	139.16	93.7001	139.16	92.3562	139.16	93.5184	139.16	92.3941	139.16	93.3158	139.16	92.4677	139.16	93.1061	139.16	92.5786	139.16	92.905	139.16	92.726
143.555	94.0341	143.555	93.8953	143.555	94.1475	143.555	93.7369	143.555	94.2308	143.555	93.5651	143.555	94.2816	143.555	93.3854	143.555	94.2999	143.555	93.202	143.555	94.2885	143.555	93.0177	143.555	94.252	143.555	92.8344	143.555	94.1959	143.555	92.6541	143.555	94.1243	143.555	92.4796	143.555	94.0383	143.555	92.3161	143.555	93.9348	143.555	92.171	143.555	93.8078	143.555	92.0537	143.555	93.6509	143.555	91.9742	143.555	93.461	143.555	91.9408	143.555	93.2411	143.555	91.959	143.555	93.0015	143.555	92.03	143.555	92.7572	143.555	92.1518	143.555	92.5249	143.555	92.3194
147.949	93.9885	147.949	93.8439	147.949	94.1098	147.949	93.6828	147.949	94.202	147.949	93.5129	147.949	94.2621	147.949	93.3407	147.949	94.2895	147.949	93.1708	147.949	94.2867	147.949	93.0053	147.949	94.2578	147.949	92.8441	147.949	94.2077	147.949	92.6859	147.949	94.1398	147.949	92.5297	147.949	94.0549	147.949	92.3769	147.949	93.9498	147.949	92.2319	147.949	93.8183	147.949	92.1034	147.949	93.6541	147.949	92.0029	147.949	93.4541	147.949	91.9426	147.949	93.2215	147.949	91.9334	147.949	92.9674	147.949	91.982	147.949	92.7086	147.949	92.09	147.949	92.4647	147.949	92.2539
153.809	93.85	153.809	93.7004	153.809	93.9704	153.809	93.5283	153.809	94.0575	153.809	93.3415	153.809	94.1098	153.809	93.1476	153.809	94.1292	153.809	92.9531	153.809	94.1203	153.809	92.7627	153.809	94.0893	153.809	92.5788	153.809	94.0419	153.809	92.4022	153.809	93.9814	153.809	92.2334	153.809	93.9062	153.809	92.074	153.809	93.8103	153.809	91.928	153.809	93.6845	153.809	91.8025	153.809	93.5201	153.809	91.7073	153.809	93.3128	153.809	91.6535	153.809	93.0662	153.809	91.6517	153.809	92.7924	153.809	91.7096	153.809	92.5106	153.809	91.8303	153.809	92.2432	153.809	92.0112
159.668	93.3248	159.668	93.176	159.668	93.4514	159.668	93.0118	159.668	93.5524	159.668	92.841	159.668	93.6287	159.668	92.6731	159.668	93.6855	159.668	92.5159	159.668	93.7311	159.668	92.3744	159.668	93.7747	159.668	92.2501	159.668	93.8228	159.668	92.1421	159.668	93.8756	159.668	92.0478	159.668	93.9246	159.668	91.9655	159.668	93.9535	159.668	91.8964	159.668	93.9423	159.668	91.845	159.668	93.8733	159.668	91.8199	159.668	93.7362	159.668	91.8321	159.668	93.5322	159.668	91.8925	159.668	93.2742	159.668	92.0094	159.668	92.9844	159.668	92.1856	159.668	92.6898	159.668	92.4167
165.527	93.073	165.527	92.8938	165.527	93.2137	165.527	92.6903	165.527	93.307	165.527	92.4806	165.527	93.3514	165.527	92.2841	165.527	93.3539	165.527	92.1193	165.527	93.3304	165.527	92.0009	165.527	93.3041	165.527	91.9373	165.527	93.3006	165.527	91.9296	165.527	93.34	165.527	91.972	165.527	93.4283	165.527	92.0549	165.527	93.5534	165.527	92.1674	165.527	93.6888	165.527	92.3002	165.527	93.8032	165.527	92.4471	165.527	93.8696	165.527	92.6056	165.527	93.8724	165.527	92.7753	165.527	93.8093	165.527	92.9563	165.527	93.6887	165.527	93.1468	165.527	93.5265	165.527	93.3406
171.387	93.7108	171.387	93.5281	171.387	93.8235	171.387	93.2871	171.387	93.859	171.387	93.0038	171.387	93.8161	171.387	92.6972	171.387	93.701	171.387	92.3887	171.387	93.5282	171.387	92.1005	171.387	93.3221	171.387	91.8545	171.387	93.116	171.387	91.6692	171.387	92.9469	171.387	91.5582	171.387	92.8462	171.387	91.5276	171.387	92.8271	171.387	91.5754	171.387	92.8785	171.387	91.6924	171.387	92.9701	171.387	91.8631	171.387	93.065	171.387	92.0693	171.387	93.1321	171.387	92.2918	171.387	93.1518	171.387	92.5129	171.387	93.117	171.387	92.7173	171.387	93.0286	171.387	92.8926
177.246	93.868	177.246	93.7089	177.246	93.9631	177.246	93.4919	177.246	93.9906	177.246	93.2256	177.246	93.9499	177.246	92.9214	177.246	93.8433	177.246	92.5935	177.246	93.6773	177.246	92.2596	177.246	93.4637	177.246	91.94	177.246	93.2205	177.246	91.6581	177.246	92.9719	177.246	91.4373	177.246	92.7455	177.246	91.298	177.246	92.5674	177.246	91.2526	177.246	92.4539	177.246	91.301	177.246	92.4069	177.246	91.43	177.246	92.4122	177.246	91.6154	177.246	92.4449	177.246	91.8277	177.246	92.4771	177.246	92.0377	177.246	92.4841	177.246	92.221	177.246	92.4483	177.246	92.3607
183.105	93.6376	183.105	93.4771	183.105	93.7384	183.105	93.2632	183.105	93.7751	183.105	93.0038	183.105	93.7461	183.105	92.7074	183.105	93.6545	183.105	92.3836	183.105	93.5085	183.105	92.044	183.105	93.3224	183.105	91.7037	183.105	93.1161	183.105	91.3818	183.105	92.9123	183.105	91.1025	183.105	92.7323	183.105	90.8921	183.105	92.5904	183.105	90.7742	183.105	92.4898	183.105	90.7617	183.105	92.4231	183.105	90.8512	183.105	92.3755	183.105	91.0225	183.105	92.3301	183.105	91.2445	183.105	92.2716	183.105	91.4836	183.105	92.1875	183.105	91.7116	183.105	92.0685	183.105	91.9096
188.965	93.8195	188.965	93.6434	188.965	93.9292	188.965	93.4092	188.965	93.9658	188.965	93.126	188.965	93.9259	188.965	92.8026	188.965	93.8112	188.965	92.4479	188.965	93.6298	188.965	92.0716	188.965	93.3971	188.965	91.6863	188.965	93.1357	188.965	91.3097	188.965	92.8735	188.965	90.9667	188.965	92.638	188.965	90.6886	188.965	92.4495	188.965	90.508	188.965	92.3161	188.965	90.449	188.965	92.2315	188.965	90.5162	188.965	92.1789	188.965	90.6911	188.965	92.1371	188.965	90.9367	188.965	92.0845	188.965	91.2102	188.965	92.0026	188.965	91.4734	188.965	91.8771	188.965	91.7002
196.289	94.0727	196.289	93.9111	196.289	94.1677	196.289	93.6921	196.289	94.1892	196.289	93.4263	196.289	94.1333	196.289	93.1242	196.289	94.0009	196.289	92.7962	196.289	93.7989	196.289	92.4525	196.289	93.5417	196.289	92.1041	196.289	93.2519	196.289	91.7644	196.289	92.9599	196.289	91.4512	196.289	92.6984	196.289	91.187	196.289	92.4947	196.289	90.9976	196.289	92.361	196.289	90.9049	196.289	92.2906	196.289	90.9196	196.289	92.2614	196.289	91.0339	196.289	92.2451	196.289	91.2225	196.289	92.2153	196.289	91.4495	196.289	92.1518	196.289	91.6791	196.289	92.0421	196.289	91.8824
203.613	94.0942	203.613	93.9351	203.613	94.1855	203.613	93.7164	203.613	94.2016	203.613	93.4459	203.613	94.1365	203.613	93.1308	203.613	93.9864	203.613	92.7774	203.613	93.7516	203.613	92.3924	203.613	93.4378	203.613	91.9849	203.613	93.0593	203.613	91.5694	203.613	92.6423	203.613	91.1696	203.613	92.2261	203.613	90.8196	203.613	91.8599	203.613	90.5603	203.613	91.591	203.613	90.4278	203.613	91.4459	203.613	90.4377	203.613	91.4165	203.613	90.5744	203.613	91.4629	203.613	90.7955	203.613	91.5313	203.613	91.0466	203.613	91.5721	203.613	91.2776	203.613	91.551	203.613	91.4522
210.938	93.9669	210.938	93.8055	210.938	94.0649	210.938	93.5898	210.938	94.0919	210.938	93.3291	210.938	94.0419	210.938	93.0316	210.938	93.9115	210.938	92.704	210.938	93.7006	210.938	92.3511	210.938	93.4128	210.938	91.9772	210.938	93.0565	210.938	91.589	210.938	92.6459	210.938	91.1994	210.938	92.203	210.938	90.8313	210.938	91.7598	210.938	90.5187	210.938	91.3591	210.938	90.3008	210.938	91.0474	210.938	90.2073	210.938	90.8587	210.938	90.242	210.938	90.7945	210.938	90.3758	210.938	90.8174	210.938	90.5562	210.938	90.8679	210.938	90.7268	210.938	90.8889	210.938	90.8444
218.262	93.8141	218.262	93.6266	218.262	93.9388	218.262	93.3872	218.262	93.9917	218.262	93.1078	218.262	93.9677	218.262	92.7998	218.262	93.8658	218.262	92.4728	218.262	93.6903	218.262	92.1342	218.262	93.4498	218.262	91.79	218.262	93.1565	218.262	91.4466	218.262	92.8245	218.262	91.1143	218.262	92.4688	218.262	90.8105	218.262	92.1061	218.262	90.5598	218.262	91.7584	218.262	90.3903	218.262	91.4537	218.262	90.3227	218.262	91.2207	218.262	90.3587	218.262	91.0757	218.262	90.4754	218.262	91.0088	218.262	90.6318	218.262	90.9849	218.262	90.7833	218.262	90.9593	218.262	90.8965
225.586	94.0975	225.586	93.9065	225.586	94.2175	225.586	93.6571	225.586	94.2566	225.586	93.3629	225.586	94.2089	225.586	93.0362	225.586	94.0733	225.586	92.6867	225.586	93.8545	225.586	92.321	225.586	93.563	225.586	91.9441	225.586	93.2158	225.586	91.562	225.586	92.8352	225.586	91.1867	225.586	92.4478	225.586	90.8406	225.586	92.082	225.586	90.5581	225.586	91.7664	225.586	90.3791	225.586	91.5266	225.586	90.3341	225.586	91.3795	225.586	90.4252	225.586	91.3226	225.586	90.6192	225.586	91.328	225.586	90.8585	225.586	91.3481	225.586	91.083	225.586	91.3329	225.586	91.2476
232.91	94.3377	232.91	94.1474	232.91	94.4422	232.91	93.882	232.91	94.4537	232.91	93.5554	232.91	94.3691	232.91	93.1833	232.91	94.1887	232.91	92.7818	232.91	93.9169	232.91	92.366	232.91	93.5621	232.91	91.95	232.91	93.1383	232.91	91.547	232.91	92.6657	232.91	91.1709	232.91	92.1714	232.91	90.838	232.91	91.6888	232.91	90.5687	232.91	91.257	232.91	90.3849	232.91	90.9183	232.91	90.3039	232.91	90.7076	232.91	90.3277	232.91	90.6348	232.91	90.4353	232.91	90.6703	232.91	90.5845	232.91	90.7518	232.91	90.7231	232.91	90.8124	232.91	90.8064
241.699	94.1506	241.699	93.9269	241.699	94.298	241.699	93.6362	241.699	94.3622	241.699	93.2897	241.699	94.3386	241.699	92.8995	241.699	94.225	241.699	92.4781	241.699	94.0213	241.699	92.0381	241.699	93.7306	241.699	91.5939	241.699	93.3599	241.699	91.1642	241.699	92.9224	241.699	90.7745	241.699	92.4402	241.699	90.4571	241.699	91.9467	241.699	90.2459	241.699	91.487	241.699	90.1645	241.699	91.1133	241.699	90.2136	241.699	90.8701	241.699	90.3656	241.699	90.7736	241.699	90.5709	241.699	90.7986	241.699	90.7725	241.699	90.886	241.699	90.9215	241.699	90.9671	241.699	90.9876
250.488	94.2576	250.488	93.9782	250.488	94.4389	250.488	93.6091	250.488	94.5177	250.488	93.1626	250.488	94.4934	250.488	92.6533	250.488	94.3691	250.488	92.0984	250.488	94.15	250.488	91.5165	250.488	93.8428	250.488	90.929	250.488	93.454	250.488	90.3618	250.488	92.9903	250.488	89.8487	250.488	92.4622	250.488	89.4321	250.488	91.8922	250.488	89.1584	250.488	91.3262	250.488	89.0639	250.488	90.8364	250.488	89.1547	250.488	90.5016	250.488	89.3956	250.488	90.3602	250.488	89.719	250.488	90.3764	250.488	90.047	250.488	90.4591	250.488	90.3123	250.488	90.5125	250.488	90.4717
259.277	94.2005	259.277	93.9965	259.277	94.3335	259.277	93.7327	259.277	94.3871	259.277	93.4196	259.277	94.3576	259.277	93.0648	259.277	94.248	259.277	92.6717	259.277	94.0665	259.277	92.241	259.277	93.8235	259.277	91.7737	259.277	93.527	259.277	91.2767	259.277	93.1784	259.277	90.7685	259.277	92.773	259.277	90.284	259.277	92.3074	259.277	89.8746	259.277	91.7956	259.277	89.5996	259.277	91.286	259.277	89.5035	259.277	90.8613	259.277	89.5901	259.277	90.5999	259.277	89.8127	259.277	90.5151	259.277	90.0909	259.277	90.5368	259.277	90.3416	259.277	90.5601	259.277	90.5048
268.066	93.8185	268.066	93.5855	268.066	93.9627	268.066	93.2736	268.066	94.0118	268.066	92.895	268.066	93.9638	268.066	92.4638	268.066	93.8215	268.066	91.9952	268.066	93.5934	268.066	91.5075	268.066	93.2942	268.066	91.0235	268.066	92.9425	268.066	90.5729	268.066	92.557	268.066	90.1928	268.066	92.1496	268.066	89.9215	268.066	91.7244	268.066	89.788	268.066	91.2861	268.066	89.799	268.066	90.8605	268.066	89.9324	268.066	90.5073	268.066	90.1423	268.066	90.3024	268.066	90.3713	268.066	90.2819	268.066	90.5622	268.066	90.4007	268.066	90.669	268.066	90.5595	268.066	90.6658
276.855	93.9541	276.855	93.7536	276.855	94.0671	276.855	93.4728	276.855	94.0886	276.855	93.1207	276.855	94.0187	276.855	92.7043	276.855	93.8609	276.855	92.2273	276.855	93.6215	276.855	91.6906	276.855	93.3097	276.855	91.098	276.855	92.9392	276.855	90.4663	276.855	92.5279	276.855	89.8388	276.855	92.0959	276.855	89.2932	276.855	91.6601	276.855	88.9297	276.855	91.2335	276.855	88.8253	276.855	90.8344	276.855	88.9803	276.855	90.5011	276.855	89.3124	276.855	90.2875	276.855	89.7042	276.855	90.2251	276.855	90.0529	276.855	90.2814	276.855	90.2913	276.855	90.3683	276.855	90.3915
287.109	93.8182	287.109	93.6541	287.109	93.9118	287.109	93.4283	287.109	93.9292	287.109	93.1495	287.109	93.8697	287.109	92.8229	287.109	93.737	287.109	92.446	287.109	93.5368	287.109	92.009	287.109	93.2736	287.109	91.4988	287.109	92.9494	287.109	90.9088	287.109	92.5644	287.109	90.2563	287.109	92.1231	287.109	89.6039	287.109	91.6441	287.109	89.0748	287.109	91.169	287.109	88.8201	287.109	90.7643	287.109	88.9207	287.109	90.5035	287.109	89.3075	287.109	90.4259	287.109	89.813	287.109	90.5041	287.109	90.2792	287.109	90.652	287.109	90.6103	287.109	90.768	287.109	90.77
297.363	94.3307	297.363	94.1657	297.363	94.4047	297.363	93.9175	297.363	94.3822	297.363	93.5942	297.363	94.2621	297.363	93.2033	297.363	94.0504	297.363	92.751	297.363	93.7602	297.363	92.2409	297.363	93.4105	297.363	91.6744	297.363	93.0208	297.363	91.0524	297.363	92.6049	297.363	90.3831	297.363	92.168	297.363	89.6984	297.363	91.7116	297.363	89.076	297.363	91.2486	297.363	88.6478	297.363	90.8193	297.363	88.5482	297.363	90.4936	297.363	88.8053	297.363	90.3367	297.363	89.2942	297.363	90.3526	297.363	89.8253	297.363	90.4614	297.363	90.2485	297.363	90.5416	297.363	90.489
307.617	94.0733	307.617	93.918	307.617	94.1527	307.617	93.7039	307.617	94.1397	307.617	93.4429	307.617	94.0221	307.617	93.1383	307.617	93.796	307.617	92.7843	307.617	93.467	307.617	92.3684	307.617	93.0506	307.617	91.8767	307.617	92.5686	307.617	91.2986	307.617	92.0421	307.617	90.6329	307.617	91.4851	307.617	89.8999	307.617	90.9096	307.617	89.1593	307.617	90.3465	307.617	88.5294	307.617	89.8717	307.617	88.1712	307.617	89.5953	307.617	88.1965	307.617	89.5797	307.617	88.5621	307.617	89.758	307.617	89.0911	307.617	89.9673	307.617	89.5915	307.617	90.0538	307.617	89.9321
319.336	94.0909	319.336	93.8337	319.336	94.2548	319.336	93.5061	319.336	94.3076	319.336	93.1319	319.336	94.2392	319.336	92.729	319.336	94.0472	319.336	92.3053	319.336	93.7357	319.336	91.8595	319.336	93.3132	319.336	91.3877	319.336	92.7904	319.336	90.8927	319.336	92.1782	319.336	90.391	319.336	91.4881	319.336	89.9157	319.336	90.7375	319.336	89.5131	319.336	89.969	319.336	89.2355	319.336	89.2844	319.336	89.126	319.336	88.8523	319.336	89.1975	319.336	88.8095	319.336	89.4127	319.336	89.106	319.336	89.6861	319.336	89.5245	319.336	89.9093	319.336	89.8533	319.336	89.9845
329.59	93.7902	329.59	93.5161	329.59	93.9632	329.59	93.1631	329.59	94.0245	329.59	92.7598	329.59	93.9763	329.59	92.3314	329.59	93.8295	329.59	91.8904	329.59	93.598	329.59	91.4334	329.59	93.2923	329.59	90.9471	329.59	92.916	329.59	90.4226	329.59	92.4635	329.59	89.8703	329.59	91.9205	329.59	89.3316	329.59	91.2684	329.59	88.8814	329.59	90.5017	329.59	88.61	329.59	89.6681	329.59	88.5795	329.59	88.9224	329.59	88.7754	329.59	88.5094	329.59	89.102	329.59	88.5668	329.59	89.4254	329.59	88.9458	329.59	89.6224	329.59	89.3602	329.59	89.6087
341.309	93.3501	341.309	93.1203	341.309	93.4667	341.309	92.8016	341.309	93.4621	341.309	92.427	341.309	93.3464	341.309	92.0271	341.309	93.1451	341.309	91.6181	341.309	92.8905	341.309	91.1978	341.309	92.6105	341.309	90.7517	341.309	92.3152	341.309	90.2688	341.309	91.9893	341.309	89.7593	341.309	91.596	341.309	89.2677	341.309	91.0966	341.309	88.8737	341.309	90.486	341.309	88.6692	341.309	89.8393	341.309	88.7116	341.309	89.3354	341.309	88.9804	341.309	89.1718	341.309	89.3809	341.309	89.3731	341.309	89.7868	341.309	89.7475	341.309	90.0831	341.309	90.0641	341.309	90.1874
353.027	93.5118	353.027	93.2611	353.027	93.6354	353.027	92.9051	353.027	93.6226	353.027	92.4752	353.027	93.4761	353.027	92.0046	353.027	93.2092	353.027	91.5165	353.027	92.8464	353.027	91.0162	353.027	92.423	353.027	90.4935	353.027	91.9777	353.027	89.9389	353.027	91.5352	353.027	89.3653	353.027	91.0879	353.027	88.8317	353.027	90.5972	353.027	88.451	353.027	90.0283	353.027	88.352	353.027	89.4142	353.027	88.5883	353.027	88.915	353.027	89.0775	353.027	88.7717	353.027	89.6495	353.027	89.0749	353.027	90.137	353.027	89.628	353.027	90.4191	353.027	90.1405	353.027	90.4256
366.211	94.0535	366.211	93.7907	366.211	94.173	366.211	93.4021	366.211	94.1397	366.211	92.9139	366.211	93.953	366.211	92.3577	366.211	93.6225	366.211	91.7635	366.211	93.1751	366.211	91.1492	366.211	92.6616	366.211	90.5144	366.211	92.1542	366.211	89.8459	366.211	91.7151	366.211	89.1429	366.211	91.3439	366.211	88.4548	366.211	90.9559	366.211	87.9185	366.211	90.4322	366.211	87.7319	366.211	89.72	366.211	88.0021	366.211	88.9469	366.211	88.6111	366.211	88.4622	366.211	89.3063	366.211	88.5718	366.211	89.8679	366.211	89.1354	366.211	90.1618	366.211	89.7464	366.211	90.1223
379.395	94.0348	379.395	93.8506	379.395	94.115	379.395	93.5686	379.395	94.0878	379.395	93.1979	379.395	93.9499	379.395	92.7482	379.395	93.6957	379.395	92.2252	379.395	93.3193	379.395	91.6296	379.395	92.82	379.395	90.9603	379.395	92.2124	379.395	90.221	379.395	91.5332	379.395	89.43	379.395	90.8397	379.395	88.6337	379.395	90.1887	379.395	87.9236	379.395	89.6128	379.395	87.4428	379.395	89.1316	379.395	87.3349	379.395	88.8014	379.395	87.6291	379.395	88.7149	379.395	88.1859	379.395	88.8923	379.395	88.7878	379.395	89.2023	379.395	89.2544	379.395	89.4472	379.395	89.4828
392.578	93.3566	392.578	93.1634	392.578	93.4196	392.578	92.8635	392.578	93.3477	392.578	92.4903	392.578	93.1563	392.578	92.0724	392.578	92.8754	392.578	91.6164	392.578	92.5382	392.578	91.1018	392.578	92.1655	392.578	90.4922	392.578	91.7544	392.578	89.7608	392.578	91.2755	392.578	88.9214	392.578	90.6813	392.578	88.0619	392.578	89.9261	392.578	87.363	392.578	89.0088	392.578	87.0449	392.578	88.0651	392.578	87.2123	392.578	87.4579	392.578	87.7567	392.578	87.5627	392.578	88.456	392.578	88.2557	392.578	89.1098	392.578	89.0455	392.578	89.5762	392.578	89.5838	392.578	89.7565
405.762	93.2956	405.762	93.1452	405.762	93.2881	405.762	92.8633	405.762	93.1129	405.762	92.4821	405.762	92.7854	405.762	92.0273	405.762	92.3517	405.762	91.5079	405.762	91.8838	405.762	90.9122	405.762	91.4565	405.762	90.2155	405.762	91.1072	405.762	89.3981	405.762	90.8001	405.762	88.4774	405.762	90.427	405.762	87.556	405.762	89.8472	405.762	86.8683	405.762	88.9539	405.762	86.7133	405.762	87.7976	405.762	87.1877	405.762	86.8178	405.762	88.0557	405.762	86.7898	405.762	88.9841	405.762	87.7705	405.762	89.7394	405.762	88.9697	405.762	90.188	405.762	89.8429	405.762	90.2436
420.41	93.7873	420.41	93.4934	420.41	93.9096	420.41	93.0893	420.41	93.8376	420.41	92.6618	420.41	93.5832	420.41	92.284	420.41	93.1847	420.41	91.9683	420.41	92.7012	420.41	91.6534	420.41	92.2071	420.41	91.2384	420.41	91.7731	420.41	90.626	420.41	91.4238	420.41	89.7507	420.41	91.0936	420.41	88.6094	420.41	90.6282	420.41	87.3399	420.41	89.8425	420.41	86.3593	420.41	88.6212	420.41	86.255	420.41	87.1413	420.41	87.0799	420.41	86.2657	420.41	88.2459	420.41	86.8755	420.41	89.2412	420.41	88.2425	420.41	89.8252	420.41	89.3548	420.41	89.8858
435.059	93.7876	435.059	93.5239	435.059	93.8153	435.059	93.0654	435.059	93.602	435.059	92.4982	435.059	93.1729	435.059	91.9443	435.059	92.586	435.059	91.5083	435.059	91.9409	435.059	91.1998	435.059	91.3789	435.059	90.9121	435.059	91.0355	435.059	90.4927	435.059	90.9392	435.059	89.8285	435.059	90.9564	435.059	88.9017	435.059	90.8612	435.059	87.85	435.059	90.4397	435.059	87.0278	435.059	89.5615	435.059	86.871	435.059	88.2995	435.059	87.4427	435.059	87.2173	435.059	88.3527	435.059	87.2349	435.059	89.1879	435.059	88.2227	435.059	89.6973	435.059	89.2204	435.059	89.7347
451.172	94.4579	451.172	94.0614	451.172	94.5941	451.172	93.4301	451.172	94.4603	451.172	92.6183	451.172	94.0565	451.172	91.7178	451.172	93.3931	451.172	90.8473	451.172	92.5025	451.172	90.1072	451.172	91.4653	451.172	89.5174	451.172	90.4407	451.172	88.9997	451.172	89.6474	451.172	88.4222	451.172	89.2074	451.172	87.6695	451.172	88.9688	451.172	86.7283	451.172	88.5904	451.172	85.8413	451.172	87.8031	451.172	85.6112	451.172	86.6815	451.172	86.422	451.172	85.9966	451.172	87.7755	451.172	86.6601	451.172	88.9888	451.172	88.0903	451.172	89.7173	451.172	89.2723	451.172	89.8292
465.82	93.9452	465.82	93.6814	465.82	93.9502	465.82	93.187	465.82	93.7004	465.82	92.5222	465.82	93.2285	465.82	91.7675	465.82	92.5883	465.82	90.9949	465.82	91.8422	465.82	90.2318	465.82	91.0499	465.82	89.4511	465.82	90.2675	465.82	88.6041	465.82	89.56	465.82	87.6727	465.82	88.9936	465.82	86.7182	465.82	88.5681	465.82	85.9195	465.82	88.1441	465.82	85.5607	465.82	87.4963	465.82	85.8574	465.82	86.5206	465.82	86.7066	465.82	85.5842	465.82	87.7394	465.82	85.625	465.82	88.5917	465.82	86.7905	465.82	89.0187	465.82	88.0858	465.82	88.8716
483.398	93.7195	483.398	93.3383	483.398	93.8312	483.398	92.7219	483.398	93.6744	483.398	91.9474	483.398	93.2776	483.398	91.1309	483.398	92.6901	483.398	90.3876	483.398	91.978	483.398	89.758	483.398	91.2241	483.398	89.1679	483.398	90.5242	483.398	88.474	483.398	89.9466	483.398	87.542	483.398	89.4577	483.398	86.3038	483.398	88.8964	483.398	84.8445	483.398	88.0538	483.398	83.6273	483.398	86.8294	483.398	83.5466	483.398	85.5235	483.398	84.8008	483.398	85.129	483.398	86.4955	483.398	86.165	483.398	87.9258	483.398	87.6383	483.398	88.8252	483.398	88.6974	483.398	89.0979
499.512	94.2418	499.512	93.8342	499.512	94.3559	499.512	93.1476	499.512	94.1901	499.512	92.2386	499.512	93.7746	499.512	91.2177	499.512	93.1462	499.512	90.2365	499.512	92.343	499.512	89.4168	499.512	91.4123	499.512	88.7542	499.512	90.4307	499.512	88.1017	499.512	89.514	499.512	87.2467	499.512	88.7666	499.512	86.0046	499.512	88.1567	499.512	84.3707	499.512	87.4485	499.512	82.984	499.512	86.3356	499.512	83.2825	499.512	84.829	499.512	85.1474	499.512	84.0825	499.512	87.1335	499.512	85.4466	499.512	88.6142	499.512	87.5194	499.512	89.4586	499.512	88.983	499.512	89.6083
517.09	94.1354	517.09	93.7575	517.09	94.1818	517.09	93.1195	517.09	93.8908	517.09	92.3643	517.09	93.3185	517.09	91.6818	517.09	92.589	517.09	91.2135	517.09	91.9028	517.09	90.9428	517.09	91.5008	517.09	90.7018	517.09	91.5042	517.09	90.2726	517.09	91.7586	517.09	89.45	517.09	91.9196	517.09	88.0237	517.09	91.6331	517.09	85.693	517.09	90.5697	517.09	81.8632	517.09	88.3079	517.09	76.0497	517.09	84.0046	517.09	78.3025	517.09	77.0807	517.09	83.7388	517.09	81.6202	517.09	86.9548	517.09	86.3952	517.09	88.6935	517.09	88.6021	517.09	89.2515
536.133	93.7981	536.133	93.3263	536.133	93.7803	536.133	92.3416	536.133	93.3019	536.133	90.8856	536.133	92.3637	536.133	89.2197	536.133	90.9054	536.133	88.061	536.133	88.8089	536.133	88.1393	536.133	86.1392	536.133	89.0749	536.133	84.4467	536.133	90.0321	536.133	86.1539	536.133	90.5972	536.133	88.946	536.133	90.6448	536.133	90.9891	536.133	90.1158	536.133	91.9987	536.133	88.9184	536.133	91.8696	536.133	86.9122	536.133	90.3678	536.133	84.1564	536.133	86.9457	536.133	82.334	536.133	80.6606	536.133	83.7409	536.133	79.9938	536.133	85.6437	536.133	84.5417	536.133	86.1322
555.176	95.2516	555.176	94.9564	555.176	95.2342	555.176	94.3086	555.176	94.9598	555.176	93.2873	555.176	94.4721	555.176	91.8946	555.176	93.7614	555.176	90.2045	555.176	92.7377	555.176	88.5258	555.176	91.2381	555.176	87.5479	555.176	89.0547	555.176	87.717	555.176	86.1582	555.176	88.4849	555.176	84.1769	555.176	89.1215	555.176	85.7766	555.176	89.2842	555.176	88.1224	555.176	88.8865	555.176	89.3249	555.176	88.0234	555.176	89.191	555.176	87.1017	555.176	87.7624	555.176	86.8444	555.176	85.5999	555.176	87.4119	555.176	85.0274	555.176	87.9975	555.176	86.5946	555.176	87.8258
574.219	96.1413	574.219	95.8529	574.219	96.124	574.219	95.2257	574.219	95.8454	574.219	94.2486	574.219	95.3428	574.219	92.9477	574.219	94.6252	574.219	91.4219	574.219	93.6611	574.219	89.8927	574.219	92.3807	574.219	88.6774	574.219	90.6971	574.219	87.9573	574.219	88.6443	574.219	87.602	574.219	86.9258	574.219	87.3801	574.219	87.0015	574.219	87.1856	574.219	88.3133	574.219	87.0172	574.219	89.1583	574.219	86.9251	574.219	88.8713	574.219	87.0598	574.219	87.4413	574.219	87.6043	574.219	85.892	574.219	88.4453	574.219	86.4089	574.219	89.1052	574.219	88.089	574.219	89.0833
594.727	95.5169	594.727	95.3459	594.727	95.4266	594.727	94.8786	594.727	95.1185	594.727	94.1102	594.727	94.6166	594.727	93.0739	594.727	93.9183	594.727	91.8396	594.727	93.0133	594.727	90.5005	594.727	91.9033	594.727	89.1487	594.727	90.5921	594.727	87.8629	594.727	89.0817	594.727	86.7545	594.727	87.4468	594.727	86.0002	594.727	86.0357	594.727	85.691	594.727	85.4817	594.727	85.6779	594.727	85.8406	594.727	85.7928	594.727	86.3269	594.727	86.1451	594.727	86.4323	594.727	86.9551	594.727	86.4555	594.727	88.0252	594.727	87.0957	594.727	88.8047	594.727	88.1779	594.727	88.881
615.234	94.8364	615.234	94.6142	615.234	94.806	615.234	94.1227	615.234	94.5313	615.234	93.3463	615.234	94.0137	615.234	92.2949	615.234	93.2531	615.234	91.0476	615.234	92.2419	615.234	89.7912	615.234	90.9408	615.234	88.7538	615.234	89.3032	615.234	87.9868	615.234	87.5027	615.234	87.2801	615.234	86.3596	615.234	86.3885	615.234	86.6208	615.234	85.2779	615.234	87.3635	615.234	84.2752	615.234	87.3635	615.234	83.9939	615.234	85.9814	615.234	84.6927	615.234	83.0327	615.234	85.9677	615.234	81.3761	615.234	87.2573	615.234	84.369	615.234	88.1	615.234	86.9898	615.234	88.1258
637.207	94.1755	637.207	93.9301	637.207	94.1021	637.207	93.3233	637.207	93.7773	637.207	92.3433	637.207	93.2784	637.207	91.0392	637.207	92.6417	637.207	89.6016	637.207	91.8048	637.207	88.4204	637.207	90.6145	637.207	87.7916	637.207	88.9177	637.207	87.4634	637.207	86.7201	637.207	86.9202	637.207	84.6419	637.207	85.8613	637.207	84.3505	637.207	84.3361	637.207	85.6611	637.207	82.9256	637.207	86.3884	637.207	82.6459	637.207	85.3506	637.207	83.7281	637.207	81.96	637.207	85.4409	637.207	80.0325	637.207	87.103	637.207	84.4616	637.207	88.2419	637.207	87.4141	637.207	88.4807
659.18	94.1065	659.18	94.0609	659.18	93.918	659.18	93.718	659.18	93.5563	659.18	93.026	659.18	93.0507	659.18	91.9552	659.18	92.3797	659.18	90.557	659.18	91.4858	659.18	89.0951	659.18	90.2912	659.18	88.043	659.18	88.6514	659.18	87.5315	659.18	86.3018	659.18	87.0112	659.18	83.365	659.18	85.8342	659.18	82.7066	659.18	83.6918	659.18	85.0989	659.18	81.1913	659.18	86.6885	659.18	80.884	659.18	86.3516	659.18	82.882	659.18	83.3691	659.18	84.9063	659.18	75.3981	659.18	86.3887	659.18	78.9336	659.18	87.1751	659.18	84.7562	659.18	86.8812
682.617	94.242	682.617	94.5682	682.617	93.6372	682.617	94.554	682.617	92.8298	682.617	94.1136	682.617	91.9441	682.617	93.1291	682.617	91.1347	682.617	91.4992	682.617	90.5057	682.617	89.3432	682.617	90.0304	682.617	87.5591	682.617	89.5078	682.617	87.46	682.617	88.5506	682.617	88.236	682.617	86.5761	682.617	88.4048	682.617	83.2757	682.617	87.3386	682.617	83.1044	682.617	84.5356	682.617	86.8906	682.617	78.7521	682.617	88.8235	682.617	75.9412	682.617	88.2245	682.617	82.7803	682.617	84.2782	682.617	86.1124	682.617	68.5753	682.617	87.0853	682.617	80.4469	682.617	85.7958
707.52	94.9127	707.52	94.852	707.52	94.6988	707.52	94.551	707.52	94.2013	707.52	94.0483	707.52	93.4301	707.52	93.3388	707.52	92.4234	707.52	92.349	707.52	91.2972	707.52	90.9829	707.52	90.2674	707.52	89.2942	707.52	89.5063	707.52	87.8503	707.52	88.8462	707.52	87.5823	707.52	87.6218	707.52	88.2009	707.52	84.7568	707.52	88.5363	707.52	80.1	707.52	87.8534	707.52	83.4765	707.52	85.6414	707.52	87.7998	707.52	81.1436	707.52	89.2117	707.52	76.3664	707.52	88.1205	707.52	80.4385	707.52	84.6743	707.52	82.9248	707.52	81.3679	707.52	82.5258
732.422	94.506	732.422	94.4203	732.422	94.2315	732.422	94.0344	732.422	93.6334	732.422	93.4546	732.422	92.8263	732.422	92.7444	732.422	91.921	732.422	91.8685	732.422	90.9375	732.422	90.7331	732.422	89.7936	732.422	89.3117	732.422	88.3918	732.422	87.7998	732.422	86.8049	732.422	86.6795	732.422	85.4248	732.422	86.3468	732.422	84.5016	732.422	86.5117	732.422	83.4675	732.422	86.4742	732.422	82.0255	732.422	85.6779	732.422	82.208	732.422	83.8552	732.422	84.0889	732.422	81.7155	732.422	85.0201	732.422	81.9261	732.422	84.7985	732.422	83.6535	732.422	84.5352	732.422	84.4858
757.324	94.1189	757.324	94.1727	757.324	93.7214	757.324	93.8707	757.324	93.0479	757.324	93.246	757.324	92.1822	757.324	92.3323	757.324	91.2043	757.324	91.1303	757.324	90.2172	757.324	89.6197	757.324	89.2933	757.324	87.8389	757.324	88.3741	757.324	86.0442	757.324	87.3789	757.324	84.8292	757.324	86.3535	757.324	84.6296	757.324	85.3631	757.324	85.0031	757.324	84.5339	757.324	85.2489	757.324	84.3539	757.324	85.033	757.324	84.7739	757.324	84.4302	757.324	84.6764	757.324	84.018	757.324	83.4172	757.324	84.3175	757.324	82.1358	757.324	84.7418	757.324	82.9949	757.324	84.3711
785.156	94.1471	785.156	94.0725	785.156	93.8048	785.156	93.6063	785.156	93.093	785.156	92.8155	785.156	92.1454	785.156	91.7858	785.156	91.1601	785.156	90.6325	785.156	90.3007	785.156	89.5124	785.156	89.5476	785.156	88.5221	785.156	88.7072	785.156	87.5499	785.156	87.6256	785.156	86.4039	785.156	86.3196	785.156	85.1841	785.156	84.8004	785.156	84.4306	785.156	82.8125	785.156	84.2895	785.156	80.7624	785.156	83.8829	785.156	81.2238	785.156	82.4066	785.156	82.9296	785.156	80.7817	785.156	83.6631	785.156	82.4642	785.156	84.3068	785.156	85.1138	785.156	85.5779	785.156	86.1679
811.523	94.179	811.523	94.2521	811.523	93.5886	811.523	93.7228	811.523	92.6678	811.523	92.627	811.523	91.6557	811.523	91.126	811.523	90.7877	811.523	89.535	811.523	90.1579	811.523	88.2387	811.523	89.5712	811.523	87.3352	811.523	88.6927	811.523	86.5766	811.523	87.3702	811.523	85.7902	811.523	85.8664	811.523	85.0865	811.523	84.9522	811.523	84.7576	811.523	84.526	811.523	84.8612	811.523	82.9998	811.523	84.8852	811.523	79.5221	811.523	84.2368	811.523	79.0574	811.523	83.0717	811.523	82.4793	811.523	82.8053	811.523	84.203	811.523	83.7989	811.523	84.6907	811.523	84.5813
840.82	94.4322	840.82	94.7255	840.82	93.6389	840.82	94.5173	840.82	92.4259	840.82	93.7846	840.82	91.0054	840.82	92.4091	840.82	89.673	840.82	90.2211	840.82	88.7272	840.82	87.2618	840.82	88.3253	840.82	84.4303	840.82	88.2154	840.82	83.3442	840.82	87.8341	840.82	83.586	840.82	86.7427	840.82	83.9927	840.82	85.2954	840.82	84.6631	840.82	84.8569	840.82	85.7379	840.82	85.1851	840.82	86.5494	840.82	84.4352	840.82	86.457	840.82	81.5517	840.82	85.5661	840.82	79.9662	840.82	85.1956	840.82	84.1213	840.82	86.271	840.82	86.7695	840.82	87.2528
870.117	94.0777	870.117	94.3718	870.117	93.473	870.117	94.27	870.117	92.654	870.117	93.6559	870.117	91.7307	870.117	92.3782	870.117	90.7535	870.117	90.3206	870.117	89.77	870.117	87.5648	870.117	88.9481	870.117	84.6466	870.117	88.3491	870.117	82.4373	870.117	87.6686	870.117	80.8234	870.117	86.6381	870.117	79.5691	870.117	85.8082	870.117	81.11	870.117	86.0247	870.117	84.4599	870.117	86.2943	870.117	86.8547	870.117	84.947	870.117	87.8687	870.117	80.0646	870.117	87.9192	870.117	72.1821	870.117	87.8424	870.117	82.414	870.117	88.1087	870.117	86.5476	870.117	88.0239
900.879	94.2974	900.879	94.3343	900.879	94.0449	900.879	94.1756	900.879	93.5872	900.879	93.8043	900.879	92.8202	900.879	93.0003	900.879	91.6583	900.879	91.4232	900.879	90.3992	900.879	88.9522	900.879	89.5319	900.879	86.2389	900.879	89.0177	900.879	84.6781	900.879	88.1553	900.879	84.0603	900.879	86.1572	900.879	82.6138	900.879	82.6222	900.879	78.713	900.879	83.5584	900.879	77.0964	900.879	87.9941	900.879	82.3384	900.879	89.3464	900.879	84.9974	900.879	86.956	900.879	86.0643	900.879	76.862	900.879	87.1593	900.879	81.1437	900.879	88.4594	900.879	87.3163	900.879	88.8814
933.105	93.9572	933.105	93.6056	933.105	94.0367	933.105	93.1928	933.105	93.7133	933.105	92.7033	933.105	92.9669	933.105	91.7767	933.105	91.7454	933.105	90.022	933.105	90.0698	933.105	87.4006	933.105	88.3266	933.105	84.6507	933.105	87.3217	933.105	83.8583	933.105	87.2748	933.105	84.7246	933.105	87.081	933.105	84.2691	933.105	85.2492	933.105	80.8472	933.105	81.4041	933.105	76.3949	933.105	83.6509	933.105	81.4432	933.105	86.6179	933.105	84.7573	933.105	85.388	933.105	86.1586	933.105	75.427	933.105	87.2424	933.105	81.2767	933.105	88.6293	933.105	87.7982	933.105	89.3019
965.332	94.29	965.332	94.0962	965.332	93.9805	965.332	93.321	965.332	93.3702	965.332	92.2775	965.332	92.5256	965.332	91.3984	965.332	91.4314	965.332	90.4187	965.332	90.0542	965.332	88.5697	965.332	88.2727	965.332	85.2224	965.332	86.6224	965.332	82.5755	965.332	86.4995	965.332	84.5911	965.332	87.0638	965.332	85.9257	965.332	85.6348	965.332	84.7212	965.332	79.1083	965.332	79.8567	965.332	83.4951	965.332	76.6767	965.332	89.1033	965.332	82.7429	965.332	89.9939	965.332	85.6027	965.332	86.0006	965.332	87.4614	965.332	73.5154	965.332	89.3277	965.332	86.8895	965.332	89.8169
1,000.49	95.8123	1,000.49	95.9166	1,000.49	95.4556	1,000.49	95.3659	1,000.49	95.1316	1,000.49	93.9629	1,000.49	94.7411	1,000.49	91.9398	1,000.49	94.2206	1,000.49	89.8937	1,000.49	93.6004	1,000.49	87.9727	1,000.49	92.3547	1,000.49	85.5234	1,000.49	89.8949	1,000.49	81.2318	1,000.49	87.2906	1,000.49	79.4421	1,000.49	87.7255	1,000.49	83.2391	1,000.49	89.1781	1,000.49	83.403	1,000.49	86.9894	1,000.49	79.2612	1,000.49	70.0322	1,000.49	79.2153	1,000.49	85.2951	1,000.49	84.0064	1,000.49	89.476	1,000.49	86.1387	1,000.49	87.3346	1,000.49	87.5476	1,000.49	73.2259	1,000.49	89.038	1,000.49	85.4357	1,000.49	89.1719
1,035.64	96.0829	1,035.64	96.5711	1,035.64	95.3294	1,035.64	96.2979	1,035.64	94.5741	1,035.64	94.9568	1,035.64	93.8915	1,035.64	92.9365	1,035.64	93.379	1,035.64	91.6309	1,035.64	92.6977	1,035.64	91.5045	1,035.64	91.3319	1,035.64	90.8803	1,035.64	89.4993	1,035.64	87.8229	1,035.64	87.922	1,035.64	80.9101	1,035.64	87.8817	1,035.64	80.1174	1,035.64	89.0069	1,035.64	82.9195	1,035.64	87.9218	1,035.64	81.2061	1,035.64	83.7382	1,035.64	75.5337	1,035.64	84.6927	1,035.64	79.5794	1,035.64	89.6542	1,035.64	82.7088	1,035.64	89.9469	1,035.64	84.1958	1,035.64	83.5828	1,035.64	86.2486	1,035.64	77.4758	1,035.64	86.1077
1,072.27	95.706	1,072.27	95.7878	1,072.27	95.3538	1,072.27	95.3311	1,072.27	94.9157	1,072.27	94.2498	1,072.27	94.1913	1,072.27	92.5443	1,072.27	93.4325	1,072.27	90.543	1,072.27	93.1477	1,072.27	89.2034	1,072.27	92.5368	1,072.27	88.7388	1,072.27	90.4604	1,072.27	87.6841	1,072.27	86.9066	1,072.27	85.306	1,072.27	83.1167	1,072.27	84.4666	1,072.27	86.4754	1,072.27	85.7754	1,072.27	87.3189	1,072.27	84.687	1,072.27	82.5786	1,072.27	78.6517	1,072.27	80.0968	1,072.27	72.2216	1,072.27	88.1034	1,072.27	80.6127	1,072.27	88.9349	1,072.27	83.0343	1,072.27	83.32	1,072.27	84.4433	1,072.27	78.8996	1,072.27	84.3871
1,108.89	95.6995	1,108.89	95.582	1,108.89	95.6098	1,108.89	95.1414	1,108.89	95.3227	1,108.89	94.3031	1,108.89	94.5514	1,108.89	93.062	1,108.89	93.0429	1,108.89	91.5505	1,108.89	91.1263	1,108.89	89.9695	1,108.89	90.0977	1,108.89	88.5634	1,108.89	90.105	1,108.89	87.3172	1,108.89	89.4147	1,108.89	85.5332	1,108.89	85.951	1,108.89	83.1507	1,108.89	81.4544	1,108.89	82.2805	1,108.89	84.3327	1,108.89	82.9258	1,108.89	85.0543	1,108.89	82.2281	1,108.89	83.9138	1,108.89	80.1109	1,108.89	86.3084	1,108.89	79.7853	1,108.89	86.9447	1,108.89	81.8624	1,108.89	81.8586	1,108.89	83.5016	1,108.89	76.0842	1,108.89	82.8666
1,148.44	95.5054	1,148.44	95.5485	1,148.44	95.1716	1,148.44	94.9393	1,148.44	94.9793	1,148.44	93.5841	1,148.44	94.7154	1,148.44	91.8111	1,148.44	93.7211	1,148.44	90.4895	1,148.44	91.8205	1,148.44	89.7858	1,148.44	89.7499	1,148.44	88.2416	1,148.44	88.6506	1,148.44	84.9045	1,148.44	87.8736	1,148.44	83.409	1,148.44	85.1598	1,148.44	84.4412	1,148.44	81.2277	1,148.44	84.4152	1,148.44	83.3966	1,148.44	82.8509	1,148.44	83.5385	1,148.44	81.5474	1,148.44	78.2916	1,148.44	82.0824	1,148.44	82.6638	1,148.44	80.8019	1,148.44	85.7954	1,148.44	78.6562	1,148.44	82.3317	1,148.44	80.9731	1,148.44	77.0231	1,148.44	81.4744
1,189.45	95.2699	1,189.45	95.3238	1,189.45	95.4253	1,189.45	95.0672	1,189.45	95.594	1,189.45	94.0574	1,189.45	95.3123	1,189.45	92.454	1,189.45	94.1623	1,189.45	90.626	1,189.45	91.9	1,189.45	88.7706	1,189.45	89.3318	1,189.45	86.5686	1,189.45	87.9611	1,189.45	83.3635	1,189.45	87.2002	1,189.45	79.8797	1,189.45	85.5776	1,189.45	81.3122	1,189.45	82.2596	1,189.45	83.4549	1,189.45	78.2057	1,189.45	82.7696	1,189.45	81.2822	1,189.45	79.8358	1,189.45	84.842	1,189.45	79.6488	1,189.45	85.4232	1,189.45	81.0833	1,189.45	84.47	1,189.45	81.6295	1,189.45	80.899	1,189.45	82.6566	1,189.45	77.3414	1,189.45	82.2138
1,230.47	94.8086	1,230.47	95.036	1,230.47	94.7319	1,230.47	94.9875	1,230.47	94.8485	1,230.47	94.2211	1,230.47	94.6879	1,230.47	92.6457	1,230.47	93.6405	1,230.47	90.4426	1,230.47	91.5799	1,230.47	88.1306	1,230.47	88.9655	1,230.47	86.5348	1,230.47	87.1867	1,230.47	84.6054	1,230.47	86.7899	1,230.47	80.4126	1,230.47	85.5794	1,230.47	76.5908	1,230.47	81.6877	1,230.47	81.7928	1,230.47	79.1972	1,230.47	84.0212	1,230.47	82.5738	1,230.47	83.4143	1,230.47	81.1811	1,230.47	83.3998	1,230.47	80.9618	1,230.47	83.5222	1,230.47	85.2215	1,230.47	81.6463	1,230.47	82.7724	1,230.47	81.1532	1,230.47	75.815	1,230.47	81.0338
1,274.41	94.5553	1,274.41	94.8246	1,274.41	94.3966	1,274.41	94.456	1,274.41	94.6898	1,274.41	93.4179	1,274.41	94.7434	1,274.41	92.285	1,274.41	93.9022	1,274.41	90.9982	1,274.41	91.9415	1,274.41	88.6874	1,274.41	89.1683	1,274.41	85.2828	1,274.41	87.0752	1,274.41	82.3732	1,274.41	86.2993	1,274.41	81.3574	1,274.41	85.166	1,274.41	80.6389	1,274.41	82.6925	1,274.41	78.9705	1,274.41	79.5533	1,274.41	78.7906	1,274.41	79.2857	1,274.41	79.8965	1,274.41	80.5834	1,274.41	80.3792	1,274.41	81.2227	1,274.41	79.487	1,274.41	82.1862	1,274.41	79.3468	1,274.41	81.6834	1,274.41	80.0912	1,274.41	77.2415	1,274.41	77.2846
1,319.82	93.9627	1,319.82	94.2119	1,319.82	94.3385	1,319.82	94.2346	1,319.82	94.7042	1,319.82	93.5567	1,319.82	94.515	1,319.82	92.4631	1,319.82	93.7581	1,319.82	90.6839	1,319.82	91.9187	1,319.82	88.1928	1,319.82	89.0915	1,319.82	85.8382	1,319.82	86.6649	1,319.82	84.0488	1,319.82	85.41	1,319.82	81.3025	1,319.82	83.8731	1,319.82	77.944	1,319.82	82.024	1,319.82	77.7394	1,319.82	80.1633	1,319.82	79.3608	1,319.82	79.1912	1,319.82	82.3107	1,319.82	83.5104	1,319.82	83.902	1,319.82	83.3584	1,319.82	82.7621	1,319.82	79.2772	1,319.82	79.958	1,319.82	81.0757	1,319.82	79.386	1,319.82	80.0399	1,319.82	79.3728
1,366.7	93.5668	1,366.7	92.9683	1,366.7	94.0586	1,366.7	93.0896	1,366.7	94.2241	1,366.7	93.3851	1,366.7	94.4361	1,366.7	92.9867	1,366.7	93.9086	1,366.7	90.8872	1,366.7	92.0392	1,366.7	87.2096	1,366.7	88.6072	1,366.7	85.2157	1,366.7	85.7032	1,366.7	85.1024	1,366.7	85.8616	1,366.7	81.2169	1,366.7	84.7631	1,366.7	77.0194	1,366.7	80.7327	1,366.7	81.9134	1,366.7	76.6361	1,366.7	79.5767	1,366.7	73.7478	1,366.7	74.5152	1,366.7	77.7507	1,366.7	83.567	1,366.7	83.9995	1,366.7	84.9621	1,366.7	82.6648	1,366.7	83.3482	1,366.7	78.6733	1,366.7	82.0874	1,366.7	81.736	1,366.7	82.3569
1,413.57	93.6468	1,413.57	92.9236	1,413.57	94.0546	1,413.57	92.2282	1,413.57	93.9087	1,413.57	92.3138	1,413.57	93.34	1,413.57	92.3349	1,413.57	92.6558	1,413.57	90.6728	1,413.57	91.5994	1,413.57	87.8127	1,413.57	89.2366	1,413.57	86.0583	1,413.57	85.1173	1,413.57	86.4283	1,413.57	83.5187	1,413.57	85.5549	1,413.57	84.6622	1,413.57	80.7522	1,413.57	81.5788	1,413.57	75.8725	1,413.57	79.0869	1,413.57	76.9615	1,413.57	80.2542	1,413.57	69.9103	1,413.57	67.4396	1,413.57	79.3252	1,413.57	84.4969	1,413.57	84.1673	1,413.57	86.224	1,413.57	83.1973	1,413.57	78.2441	1,413.57	82.0752	1,413.57	77.1147	1,413.57	82.6601
1,463.38	94.4321	1,463.38	93.7218	1,463.38	94.3502	1,463.38	92.9999	1,463.38	93.7087	1,463.38	92.3785	1,463.38	93.0569	1,463.38	90.88	1,463.38	92.2063	1,463.38	88.1998	1,463.38	91.2553	1,463.38	86.0187	1,463.38	89.7175	1,463.38	84.5252	1,463.38	87.0239	1,463.38	82.9506	1,463.38	82.9062	1,463.38	82.3657	1,463.38	83.4703	1,463.38	80.5455	1,463.38	83.9397	1,463.38	77.6606	1,463.38	78.9388	1,463.38	79.9688	1,463.38	81.3221	1,463.38	78.3654	1,463.38	80.4683	1,463.38	62.0162	1,463.38	75.1918	1,463.38	78.0502	1,463.38	84.6228	1,463.38	81.0663	1,463.38	82.9164	1,463.38	80.5516	1,463.38	59.8967	1,463.38	79.3367
1,516.11	93.2859	1,516.11	92.9224	1,516.11	94.1674	1,516.11	92.4408	1,516.11	94.4013	1,516.11	90.9946	1,516.11	93.6496	1,516.11	89.1588	1,516.11	92.1954	1,516.11	88.1963	1,516.11	90.2756	1,516.11	87.8261	1,516.11	88.1063	1,516.11	85.6604	1,516.11	84.9508	1,516.11	81.2174	1,516.11	81.4382	1,516.11	78.8499	1,516.11	79.8491	1,516.11	76.9681	1,516.11	81.6076	1,516.11	77.4455	1,516.11	81.162	1,516.11	81.1565	1,516.11	80.0567	1,516.11	80.2777	1,516.11	83.6836	1,516.11	76.9971	1,516.11	78.6926	1,516.11	80.3257	1,516.11	73.3744	1,516.11	77.4455	1,516.11	79.2639	1,516.11	63.8633	1,516.11	74.7327	1,516.11	64.1695
1,568.85	92.9909	1,568.85	92.6297	1,568.85	93.9615	1,568.85	92.4237	1,568.85	94.2896	1,568.85	90.8556	1,568.85	93.495	1,568.85	88.3411	1,568.85	91.8067	1,568.85	87.3236	1,568.85	89.6654	1,568.85	87.6496	1,568.85	87.6823	1,568.85	85.9035	1,568.85	86.3075	1,568.85	80.5145	1,568.85	84.2739	1,568.85	76.5529	1,568.85	81.6269	1,568.85	76.4683	1,568.85	81.5201	1,568.85	75.2262	1,568.85	77.5742	1,568.85	80.7826	1,568.85	76.5223	1,568.85	81.0795	1,568.85	79.7479	1,568.85	72.9427	1,568.85	77.3655	1,568.85	78.8694	1,568.85	78.5472	1,568.85	77.8768	1,568.85	80.7979	1,568.85	70.9339	1,568.85	67.7013	1,568.85	73.5414
1,624.51	94.4169	1,624.51	94.8608	1,624.51	94.2045	1,624.51	94.9006	1,624.51	94.2594	1,624.51	93.3468	1,624.51	94.5134	1,624.51	90.6811	1,624.51	92.9939	1,624.51	89.0404	1,624.51	90.4246	1,624.51	87.6185	1,624.51	88.5634	1,624.51	85.031	1,624.51	87.0076	1,624.51	82.2376	1,624.51	85.8555	1,624.51	79.5363	1,624.51	84.2437	1,624.51	82.5406	1,624.51	79.3227	1,624.51	79.7066	1,624.51	79.9693	1,624.51	75.9309	1,624.51	75.1782	1,624.51	83.4244	1,624.51	78.2723	1,624.51	77.998	1,624.51	83.9434	1,624.51	75.2267	1,624.51	78.0691	1,624.51	79.7443	1,624.51	81.2407	1,624.51	72.8309	1,624.51	81.3425	1,624.51	69.3843
1,681.64	93.2918	1,681.64	93.5669	1,681.64	93.1859	1,681.64	94.0284	1,681.64	93.4578	1,681.64	92.9647	1,681.64	93.8531	1,681.64	90.7109	1,681.64	92.7174	1,681.64	89.5543	1,681.64	90.2605	1,681.64	87.3752	1,681.64	87.4456	1,681.64	80.9657	1,681.64	84.3842	1,681.64	76.178	1,681.64	85.3733	1,681.64	73.9029	1,681.64	84.5636	1,681.64	55.3549	1,681.64	82.2997	1,681.64	79.5438	1,681.64	82.2021	1,681.64	72.5898	1,681.64	82.1334	1,681.64	75.8975	1,681.64	72.8157	1,681.64	80.5581	1,681.64	82.5612	1,681.64	80.8037	1,681.64	78.7793	1,681.64	76.4575	1,681.64	77.6643	1,681.64	74.5047	1,681.64	80.8374	1,681.64	77.8552
1,741.7	93.2306	1,741.7	93.158	1,741.7	92.3459	1,741.7	92.258	1,741.7	92.5024	1,741.7	92.2171	1,741.7	92.1956	1,741.7	90.8578	1,741.7	92.7208	1,741.7	87.1722	1,741.7	91.4358	1,741.7	82.4456	1,741.7	87.4632	1,741.7	74.743	1,741.7	83.4441	1,741.7	75.0681	1,741.7	81.2216	1,741.7	77.5349	1,741.7	81.4836	1,741.7	71.2352	1,741.7	79.6579	1,741.7	76.664	1,741.7	77.0937	1,741.7	61.58	1,741.7	80.7507	1,741.7	69.0949	1,741.7	81.4651	1,741.7	78.0264	1,741.7	72.8193	1,741.7	82.0043	1,741.7	81.6689	1,741.7	80.0583	1,741.7	66.6059	1,741.7	78.6549	1,741.7	77.1413	1,741.7	78.9389
1,803.22	93.1189	1,803.22	91.5134	1,803.22	92.2271	1,803.22	92.3325	1,803.22	90.77	1,803.22	91.2256	1,803.22	92.8021	1,803.22	87.6537	1,803.22	91.5838	1,803.22	86.598	1,803.22	90.3672	1,803.22	81.0775	1,803.22	89.5406	1,803.22	76.832	1,803.22	83.5976	1,803.22	75.9849	1,803.22	85.4875	1,803.22	78.7985	1,803.22	83.8091	1,803.22	70.1613	1,803.22	83.4409	1,803.22	76.039	1,803.22	81.5386	1,803.22	83.2434	1,803.22	81.2747	1,803.22	65.6488	1,803.22	82.0049	1,803.22	75.8141	1,803.22	71.3163	1,803.22	71.7144	1,803.22	84.6064	1,803.22	82.5212	1,803.22	80.1787	1,803.22	74.7836	1,803.22	77.3122	1,803.22	77.9485
1,866.21	93.2082	1,866.21	93.0305	1,866.21	91.4955	1,866.21	90.8069	1,866.21	91.1422	1,866.21	91.3254	1,866.21	89.8611	1,866.21	88.9499	1,866.21	92.7424	1,866.21	77.7912	1,866.21	90.4679	1,866.21	67.6853	1,866.21	86.6557	1,866.21	74.6837	1,866.21	84.4953	1,866.21	77.214	1,866.21	81.2584	1,866.21	77.1239	1,866.21	78.8093	1,866.21	68.1717	1,866.21	78.7586	1,866.21	80.8344	1,866.21	81.3022	1,866.21	79.9834	1,866.21	69.2427	1,866.21	78.9454	1,866.21	80.7473	1,866.21	77.4939	1,866.21	77.7054	1,866.21	73.5286	1,866.21	73.6612	1,866.21	71.4962	1,866.21	80.2943	1,866.21	74.4779	1,866.21	70.5686	1,866.21	77.5195
1,932.13	91.936	1,932.13	93.1578	1,932.13	90.6049	1,932.13	91.9963	1,932.13	90.7606	1,932.13	90.0379	1,932.13	89.1146	1,932.13	85.9047	1,932.13	90.9943	1,932.13	77.7379	1,932.13	90.2821	1,932.13	81.8614	1,932.13	86.1439	1,932.13	80.7992	1,932.13	81.2962	1,932.13	76.3048	1,932.13	77.8937	1,932.13	73.9377	1,932.13	75.2271	1,932.13	74.2043	1,932.13	74.8969	1,932.13	70.4591	1,932.13	66.8543	1,932.13	78.738	1,932.13	72.0652	1,932.13	64.8659	1,932.13	81.3104	1,932.13	75.6973	1,932.13	78.1756	1,932.13	64.467	1,932.13	70.513	1,932.13	74.1538	1,932.13	78.8195	1,932.13	68.2536	1,932.13	62.4952	1,932.13	73.5389
1,999.51	91.1513	1,999.51	92.7191	1,999.51	89.872	1,999.51	93.393	1,999.51	88.5921	1,999.51	89.1222	1,999.51	91.3449	1,999.51	85.4239	1,999.51	89.956	1,999.51	82.6419	1,999.51	89.184	1,999.51	39.9202	1,999.51	87.2289	1,999.51	76.8899	1,999.51	84.8818	1,999.51	82.624	1,999.51	80.9875	1,999.51	80.9838	1,999.51	77.2661	1,999.51	71.2561	1,999.51	78.286	1,999.51	67.9533	1,999.51	74.7682	1,999.51	74.2381	1,999.51	70.9377	1,999.51	59.8775	1,999.51	68.0781	1,999.51	74.2044	1,999.51	78.6802	1,999.51	68.8738	1,999.51	77.0849	1,999.51	65.228	1,999.51	74.5742	1,999.51	69.338	1,999.51	70.5224	1,999.51	72.3984
2,069.82	92.3875	2,069.82	93.4619	2,069.82	89.4208	2,069.82	92.3432	2,069.82	88.0249	2,069.82	89.7501	2,069.82	89.7234	2,069.82	83.8398	2,069.82	90.3233	2,069.82	76.6644	2,069.82	89.8083	2,069.82	69.6009	2,069.82	85.7539	2,069.82	78.0148	2,069.82	82.1535	2,069.82	80.4165	2,069.82	78.9366	2,069.82	79.3949	2,069.82	72.3379	2,069.82	77.0331	2,069.82	68.9473	2,069.82	77.5593	2,069.82	70.9174	2,069.82	64.1844	2,069.82	69.3259	2,069.82	68.3942	2,069.82	69.4315	2,069.82	65.5597	2,069.82	74.603	2,069.82	69.6487	2,069.82	78.3288	2,069.82	69.5279	2,069.82	65.7497	2,069.82	73.7512	2,069.82	65.0752	2,069.82	65.8105
2,143.07	93.7618	2,143.07	94.1316	2,143.07	91.9095	2,143.07	92.5789	2,143.07	88.4483	2,143.07	89.3045	2,143.07	88.6604	2,143.07	85.7379	2,143.07	89.3459	2,143.07	74.6446	2,143.07	89.0335	2,143.07	72.0025	2,143.07	84.4152	2,143.07	70.5958	2,143.07	80.787	2,143.07	66.8736	2,143.07	75.3743	2,143.07	75.5152	2,143.07	74.0183	2,143.07	80.5449	2,143.07	69.6478	2,143.07	77.6282	2,143.07	68.4225	2,143.07	65.9815	2,143.07	59.0014	2,143.07	69.7702	2,143.07	67.8134	2,143.07	73.4174	2,143.07	69.5973	2,143.07	65.1421	2,143.07	73.6664	2,143.07	65.3613	2,143.07	74.6358	2,143.07	74.969	2,143.07	70.3702	2,143.07	75.1967
2,219.24	94.4526	2,219.24	95.0198	2,219.24	92.3465	2,219.24	92.7912	2,219.24	88.6273	2,219.24	88.1844	2,219.24	89.3418	2,219.24	82.0899	2,219.24	90.3155	2,219.24	67.4184	2,219.24	88.5761	2,219.24	71.4829	2,219.24	85.4963	2,219.24	65.2215	2,219.24	84.4038	2,219.24	68.6248	2,219.24	75.6403	2,219.24	67.2315	2,219.24	59.2961	2,219.24	76.1427	2,219.24	63.543	2,219.24	76.6434	2,219.24	58.0048	2,219.24	80.302	2,219.24	62.6896	2,219.24	65.1806	2,219.24	67.2209	2,219.24	75.9054	2,219.24	74.567	2,219.24	65.8227	2,219.24	63.7785	2,219.24	66.8697	2,219.24	74.3174	2,219.24	73.4884	2,219.24	69.4927	2,219.24	74.4229
2,296.88	93.8188	2,296.88	95.2096	2,296.88	91.2678	2,296.88	92.9217	2,296.88	86.2694	2,296.88	86.1988	2,296.88	87.3912	2,296.88	74.2867	2,296.88	89.4519	2,296.88	75.4135	2,296.88	88.4459	2,296.88	79.4598	2,296.88	83.9622	2,296.88	81.134	2,296.88	81.8138	2,296.88	80.9799	2,296.88	73.7938	2,296.88	80.1716	2,296.88	72.8815	2,296.88	76.7702	2,296.88	71.1189	2,296.88	75.9576	2,296.88	56.9329	2,296.88	77.675	2,296.88	73.1765	2,296.88	77.2466	2,296.88	75.6313	2,296.88	74.8935	2,296.88	74.5265	2,296.88	73.2997	2,296.88	72.5018	2,296.88	70.9988	2,296.88	71.9055	2,296.88	77.8983	2,296.88	64.6048	2,296.88	69.5248
2,378.91	92.5463	2,378.91	93.683	2,378.91	88.0209	2,378.91	92.3044	2,378.91	79.8752	2,378.91	87.9457	2,378.91	89.2716	2,378.91	78.2374	2,378.91	90.9087	2,378.91	78.571	2,378.91	88.7104	2,378.91	81.133	2,378.91	85.7323	2,378.91	81.1275	2,378.91	84.7817	2,378.91	77.0822	2,378.91	80.213	2,378.91	77.781	2,378.91	77.2601	2,378.91	77.7068	2,378.91	77.36	2,378.91	78.3108	2,378.91	75.3296	2,378.91	76.0925	2,378.91	68.3929	2,378.91	72.6765	2,378.91	71.9999	2,378.91	79.1693	2,378.91	75.2516	2,378.91	67.2207	2,378.91	72.3088	2,378.91	74.4749	2,378.91	66.6238	2,378.91	72.0258	2,378.91	67.8736	2,378.91	67.7082
2,462.4	93.794	2,462.4	94.123	2,462.4	87.3979	2,462.4	91.5798	2,462.4	76.4232	2,462.4	86.1285	2,462.4	88.6838	2,462.4	83.2324	2,462.4	90.2847	2,462.4	82.1164	2,462.4	89.28	2,462.4	84.0942	2,462.4	88.0492	2,462.4	82.7968	2,462.4	85.9236	2,462.4	83.4962	2,462.4	79.8896	2,462.4	79.4906	2,462.4	72.1305	2,462.4	77.9821	2,462.4	79.7234	2,462.4	77.4864	2,462.4	77.2573	2,462.4	75.8387	2,462.4	73.2506	2,462.4	74.0348	2,462.4	77.6574	2,462.4	74.2008	2,462.4	72.8921	2,462.4	67.2841	2,462.4	70.6256	2,462.4	66.9938	2,462.4	70.7846	2,462.4	72.8894	2,462.4	71.8407	2,462.4	73.8111
2,548.83	93.9662	2,548.83	95.1347	2,548.83	87.9957	2,548.83	92.2676	2,548.83	71.9774	2,548.83	86.496	2,548.83	86.521	2,548.83	83.6656	2,548.83	90.2609	2,548.83	86.9333	2,548.83	89.4418	2,548.83	85.6316	2,548.83	88.4292	2,548.83	85.2656	2,548.83	86.9052	2,548.83	83.7222	2,548.83	84.8653	2,548.83	80.58	2,548.83	79.6428	2,548.83	80.4483	2,548.83	79.4021	2,548.83	78.5038	2,548.83	76.2458	2,548.83	77.0469	2,548.83	77.7491	2,548.83	72.2499	2,548.83	77.6765	2,548.83	74.0236	2,548.83	76.0862	2,548.83	72.0305	2,548.83	71.1184	2,548.83	70.8048	2,548.83	69.0289	2,548.83	74.905	2,548.83	72.4634	2,548.83	74.9183
2,639.65	92.9996	2,639.65	94.7881	2,639.65	86.991	2,639.65	93.0597	2,639.65	84.4809	2,639.65	89.0225	2,639.65	89.0205	2,639.65	86.2178	2,639.65	89.7983	2,639.65	88.0884	2,639.65	88.8889	2,639.65	87.2947	2,639.65	88.2853	2,639.65	86.2961	2,639.65	87.9016	2,639.65	82.6504	2,639.65	84.6936	2,639.65	82.9404	2,639.65	83.7968	2,639.65	79.6443	2,639.65	80.0411	2,639.65	77.894	2,639.65	76.2722	2,639.65	77.3622	2,639.65	77.5101	2,639.65	74.1639	2,639.65	77.7414	2,639.65	75.403	2,639.65	75.1489	2,639.65	70.8305	2,639.65	67.2796	2,639.65	73.2224	2,639.65	67.2956	2,639.65	75.7731	2,639.65	73.5521	2,639.65	76.3103
2,731.93	91.8628	2,731.93	94.1828	2,731.93	82.7392	2,731.93	93.7417	2,731.93	90.4132	2,731.93	89.6696	2,731.93	92.9314	2,731.93	88.6952	2,731.93	88.3961	2,731.93	88.4276	2,731.93	88.0059	2,731.93	88.3815	2,731.93	87.2784	2,731.93	83.8265	2,731.93	88.5544	2,731.93	84.0286	2,731.93	86.9315	2,731.93	80.9818	2,731.93	85.471	2,731.93	80.694	2,731.93	77.0982	2,731.93	78.3496	2,731.93	77.9152	2,731.93	79.1639	2,731.93	76.56	2,731.93	76.6292	2,731.93	80.4324	2,731.93	75.3364	2,731.93	73.3526	2,731.93	75.4225	2,731.93	45.7582	2,731.93	70.8132	2,731.93	73.7505	2,731.93	72.9017	2,731.93	73.258	2,731.93	78.4633
2,828.61	92.7405	2,828.61	95.1022	2,828.61	79.6778	2,828.61	93.0706	2,828.61	90.4839	2,828.61	88.826	2,828.61	94.7451	2,828.61	89.5779	2,828.61	89.2412	2,828.61	89.0467	2,828.61	85.7048	2,828.61	86.343	2,828.61	88.438	2,828.61	83.8712	2,828.61	88.0145	2,828.61	82.8301	2,828.61	87.0123	2,828.61	80.8121	2,828.61	84.1466	2,828.61	81.9769	2,828.61	71.9702	2,828.61	79.8485	2,828.61	52.7958	2,828.61	77.1361	2,828.61	79.7198	2,828.61	76.1251	2,828.61	78.3579	2,828.61	73.7282	2,828.61	78.228	2,828.61	77.055	2,828.61	58.9008	2,828.61	57.6489	2,828.61	74.5414	2,828.61	71.5329	2,828.61	74.703	2,828.61	76.644
2,928.22	94.3799	2,928.22	95.8893	2,928.22	85.7763	2,928.22	92.3228	2,928.22	87.2299	2,928.22	86.9684	2,928.22	93.9149	2,928.22	88.7832	2,928.22	90.5941	2,928.22	87.9867	2,928.22	83.2414	2,928.22	85.6311	2,928.22	89.228	2,928.22	85.6074	2,928.22	88.4281	2,928.22	82.9061	2,928.22	86.1746	2,928.22	80.3306	2,928.22	73.572	2,928.22	77.9943	2,928.22	79.2428	2,928.22	77.5622	2,928.22	78.1442	2,928.22	75.4961	2,928.22	77.766	2,928.22	73.4817	2,928.22	79.2717	2,928.22	67.0552	2,928.22	77.8091	2,928.22	74.1558	2,928.22	70.1438	2,928.22	65.4969	2,928.22	75.0212	2,928.22	70.9605	2,928.22	76.1447	2,928.22	77.2003
3,030.76	95.1917	3,030.76	95.5943	3,030.76	88.4123	3,030.76	91.2976	3,030.76	84.6776	3,030.76	89.1424	3,030.76	93.13	3,030.76	89.3481	3,030.76	90.9599	3,030.76	87.5834	3,030.76	81.1394	3,030.76	86.9287	3,030.76	90.2692	3,030.76	84.5565	3,030.76	90.6573	3,030.76	81.9738	3,030.76	85.4159	3,030.76	80.8104	3,030.76	76.0831	3,030.76	80.4221	3,030.76	83.0507	3,030.76	77.28	3,030.76	79.5424	3,030.76	78.7941	3,030.76	75.2744	3,030.76	74.1102	3,030.76	81.6414	3,030.76	74.4639	3,030.76	76.1312	3,030.76	73.1748	3,030.76	74.9356	3,030.76	71.7041	3,030.76	72.3803	3,030.76	69.1119	3,030.76	75.2698	3,030.76	76.7243
3,137.7	94.9201	3,137.7	94.519	3,137.7	90.3157	3,137.7	90.7602	3,137.7	87.3583	3,137.7	91.4458	3,137.7	93.2153	3,137.7	90.2365	3,137.7	91.3428	3,137.7	89.0769	3,137.7	80.2639	3,137.7	87.8571	3,137.7	90.1312	3,137.7	86.3088	3,137.7	91.7488	3,137.7	85.5678	3,137.7	85.9819	3,137.7	83.1296	3,137.7	82.7869	3,137.7	80.2393	3,137.7	85.5249	3,137.7	78.064	3,137.7	76.3084	3,137.7	77.5168	3,137.7	76.1969	3,137.7	72.7459	3,137.7	81.031	3,137.7	76.1692	3,137.7	76.5068	3,137.7	70.1097	3,137.7	71.7153	3,137.7	69.8026	3,137.7	73.8238	3,137.7	71.3027	3,137.7	72.3567	3,137.7	76.6966
3,249.02	95.2479	3,249.02	93.9629	3,249.02	91.343	3,249.02	91.8558	3,249.02	88.2515	3,249.02	92.0415	3,249.02	93.6351	3,249.02	90.3763	3,249.02	91.4098	3,249.02	90.2022	3,249.02	81.545	3,249.02	88.2603	3,249.02	90.3282	3,249.02	86.8957	3,249.02	93.2869	3,249.02	83.4093	3,249.02	87.9921	3,249.02	79.6422	3,249.02	84.9952	3,249.02	80.3032	3,249.02	85.5065	3,249.02	79.9937	3,249.02	79.0743	3,249.02	78.1289	3,249.02	77.9065	3,249.02	75.301	3,249.02	81.5908	3,249.02	75.2725	3,249.02	75.4044	3,249.02	73.277	3,249.02	69.1361	3,249.02	70.7818	3,249.02	73.7275	3,249.02	69.9972	3,249.02	73.7392	3,249.02	77.4761
3,363.28	94.5592	3,363.28	93.1506	3,363.28	92.7708	3,363.28	91.9032	3,363.28	90.5655	3,363.28	91.5278	3,363.28	94.1423	3,363.28	91.1855	3,363.28	92.287	3,363.28	90.1613	3,363.28	80.7277	3,363.28	88.7555	3,363.28	89.9421	3,363.28	85.4623	3,363.28	93.3024	3,363.28	83.791	3,363.28	88.9363	3,363.28	84.1122	3,363.28	88.0404	3,363.28	81.4066	3,363.28	86.8762	3,363.28	78.7986	3,363.28	68.5623	3,363.28	77.1546	3,363.28	79.3632	3,363.28	75.3151	3,363.28	80.569	3,363.28	72.2845	3,363.28	75.539	3,363.28	76.8877	3,363.28	72.079	3,363.28	68.1762	3,363.28	74.8137	3,363.28	70.9457	3,363.28	74.745	3,363.28	75.0713
3,481.93	94.5911	3,481.93	93.5439	3,481.93	92.8064	3,481.93	93.3426	3,481.93	91.7901	3,481.93	91.8284	3,481.93	95.5231	3,481.93	91.3428	3,481.93	93.9351	3,481.93	91.1044	3,481.93	84.9824	3,481.93	88.4335	3,481.93	91.2611	3,481.93	86.7617	3,481.93	93.1998	3,481.93	85.8285	3,481.93	89.9785	3,481.93	79.4207	3,481.93	88.8658	3,481.93	79.6321	3,481.93	85.5238	3,481.93	79.4894	3,481.93	79.6279	3,481.93	77.0569	3,481.93	78.6852	3,481.93	75.8913	3,481.93	79.7176	3,481.93	72.6524	3,481.93	73.1097	3,481.93	74.8639	3,481.93	74.0886	3,481.93	71.5117	3,481.93	75.2427	3,481.93	72.5606	3,481.93	72.6973	3,481.93	76.1867
3,604.98	95.8615	3,604.98	94.6972	3,604.98	94.2966	3,604.98	94.3487	3,604.98	92.0774	3,604.98	92.5165	3,604.98	95.5713	3,604.98	92.9707	3,604.98	94.5187	3,604.98	91.1893	3,604.98	85.9783	3,604.98	89.5023	3,604.98	91.8047	3,604.98	88.0087	3,604.98	90.7828	3,604.98	84.0606	3,604.98	90.633	3,604.98	85.1664	3,604.98	88.1233	3,604.98	80.8777	3,604.98	84.3822	3,604.98	80.1025	3,604.98	76.9281	3,604.98	78.5311	3,604.98	78.8656	3,604.98	77.6464	3,604.98	79.9689	3,604.98	73.8363	3,604.98	74.2099	3,604.98	74.0786	3,604.98	73.7634	3,604.98	74.7133	3,604.98	73.2723	3,604.98	72.3563	3,604.98	71.9918	3,604.98	77.4181
3,732.42	95.2428	3,732.42	94.7345	3,732.42	96.1691	3,732.42	93.9407	3,732.42	93.5095	3,732.42	92.8684	3,732.42	95.0198	3,732.42	93.3088	3,732.42	95.2659	3,732.42	92.171	3,732.42	86.9825	3,732.42	90.708	3,732.42	91.0044	3,732.42	88.3554	3,732.42	90.215	3,732.42	87.6925	3,732.42	90.4583	3,732.42	84.2127	3,732.42	85.6729	3,732.42	81.3856	3,732.42	78.443	3,732.42	80.3659	3,732.42	79.1614	3,732.42	77.5986	3,732.42	79.5065	3,732.42	77.7135	3,732.42	79.095	3,732.42	68.7628	3,732.42	70.9217	3,732.42	75.2345	3,732.42	73.276	3,732.42	74.9788	3,732.42	70.1352	3,732.42	68.8076	3,732.42	74.3894	3,732.42	76.2283
3,864.26	94.3476	3,864.26	94.0983	3,864.26	95.3091	3,864.26	93.0802	3,864.26	95.1203	3,864.26	93.9716	3,864.26	94.9396	3,864.26	93.4107	3,864.26	96.1226	3,864.26	92.314	3,864.26	88.41	3,864.26	90.8263	3,864.26	89.9798	3,864.26	88.6865	3,864.26	89.1331	3,864.26	83.2392	3,864.26	90.7295	3,864.26	80.9119	3,864.26	82.9314	3,864.26	79.9994	3,864.26	75.9582	3,864.26	78.606	3,864.26	74.1341	3,864.26	77.4532	3,864.26	76.3165	3,864.26	76.5068	3,864.26	78.3632	3,864.26	71.0154	3,864.26	62.8999	3,864.26	74.6944	3,864.26	69.7194	3,864.26	74.6588	3,864.26	71.6458	3,864.26	69.6111	3,864.26	73.2771	3,864.26	76.2227
4,000.49	95.5352	4,000.49	95.9765	4,000.49	95.8975	4,000.49	93.3419	4,000.49	95.4943	4,000.49	94.65	4,000.49	94.5551	4,000.49	93.34	4,000.49	95.9813	4,000.49	93.0248	4,000.49	88.8856	4,000.49	90.2871	4,000.49	88.7424	4,000.49	86.8265	4,000.49	92.016	4,000.49	86.5971	4,000.49	88.5953	4,000.49	84.1378	4,000.49	86.706	4,000.49	81.516	4,000.49	81.0889	4,000.49	80.2171	4,000.49	67.5174	4,000.49	76.8732	4,000.49	72.7278	4,000.49	76.3299	4,000.49	78.4346	4,000.49	68.3957	4,000.49	68.1789	4,000.49	71.2323	4,000.49	72.8576	4,000.49	73.757	4,000.49	58.9592	4,000.49	66.5878	4,000.49	67.2295	4,000.49	73.2445
4,141.11	95.8122	4,141.11	95.3563	4,141.11	95.6829	4,141.11	94.4229	4,141.11	96.3244	4,141.11	94.3361	4,141.11	94.1688	4,141.11	93.7607	4,141.11	95.4595	4,141.11	92.4749	4,141.11	88.1913	4,141.11	89.6151	4,141.11	89.2117	4,141.11	88.82	4,141.11	91.2669	4,141.11	84.0407	4,141.11	89.5554	4,141.11	82.5097	4,141.11	86.6975	4,141.11	79.5207	4,141.11	80.3009	4,141.11	78.94	4,141.11	77.3097	4,141.11	78.5887	4,141.11	72.0483	4,141.11	76.5701	4,141.11	78.7361	4,141.11	67.706	4,141.11	57.7906	4,141.11	73.8479	4,141.11	74.5044	4,141.11	75.5585	4,141.11	69.2357	4,141.11	70.0023	4,141.11	70.3231	4,141.11	72.2337
4,287.6	96.424	4,287.6	93.6771	4,287.6	95.1572	4,287.6	94.2363	4,287.6	96.3508	4,287.6	94.5182	4,287.6	92.4693	4,287.6	93.9428	4,287.6	95.4733	4,287.6	92.3465	4,287.6	90.7151	4,287.6	90.2177	4,287.6	88.3651	4,287.6	87.6505	4,287.6	90.6084	4,287.6	87.0634	4,287.6	86.9572	4,287.6	84.5992	4,287.6	80.5388	4,287.6	81.4236	4,287.6	80.2713	4,287.6	79.7567	4,287.6	82.4194	4,287.6	77.3536	4,287.6	77.8689	4,287.6	76.298	4,287.6	75.8007	4,287.6	66.678	4,287.6	64.4248	4,287.6	67.7783	4,287.6	68.4608	4,287.6	73.295	4,287.6	72.6412	4,287.6	67.0481	4,287.6	69.5444	4,287.6	67.777
4,438.48	93.1077	4,438.48	92.5184	4,438.48	91.6996	4,438.48	91.8667	4,438.48	94.5931	4,438.48	90.5976	4,438.48	87.9347	4,438.48	90.3307	4,438.48	92.6855	4,438.48	89.4561	4,438.48	89.189	4,438.48	87.7775	4,438.48	83.5666	4,438.48	85.8127	4,438.48	86.2139	4,438.48	81.3408	4,438.48	82.6535	4,438.48	77.1746	4,438.48	72.6026	4,438.48	77.1786	4,438.48	76.9007	4,438.48	75.2065	4,438.48	80.9575	4,438.48	73.8111	4,438.48	74.3754	4,438.48	73.1598	4,438.48	70.8176	4,438.48	69.25	4,438.48	65.0163	4,438.48	63.481	4,438.48	66.3102	4,438.48	69.8476	4,438.48	69.5992	4,438.48	48.6967	4,438.48	65.2272	4,438.48	66.6655
4,595.21	91.3954	4,595.21	88.0681	4,595.21	88.9674	4,595.21	87.5554	4,595.21	90.5772	4,595.21	88.7389	4,595.21	86.6695	4,595.21	87.3281	4,595.21	87.6223	4,595.21	86.2784	4,595.21	86.7198	4,595.21	84.1267	4,595.21	75.1946	4,595.21	80.8965	4,595.21	79.0016	4,595.21	80.4861	4,595.21	77.3941	4,595.21	75.2684	4,595.21	73.742	4,595.21	72.5695	4,595.21	67.1168	4,595.21	71.1948	4,595.21	72.8706	4,595.21	71.753	4,595.21	68.7004	4,595.21	69.2867	4,595.21	69.1289	4,595.21	67.7418	4,595.21	58.5039	4,595.21	61.2999	4,595.21	62.0041	4,595.21	65.1409	4,595.21	57.8227	4,595.21	57.6532	4,595.21	60.8627	4,595.21	58.8598
4,756.35	92.7523	4,756.35	91.5725	4,756.35	91.3895	4,756.35	90.5971	4,756.35	92.6742	4,756.35	89.7909	4,756.35	89.8311	4,756.35	88.4555	4,756.35	90.1379	4,756.35	88.7618	4,756.35	89.7996	4,756.35	86.2671	4,756.35	73.2947	4,756.35	84.2244	4,756.35	80.5506	4,756.35	79.77	4,756.35	80.7287	4,756.35	78.2244	4,756.35	81.7504	4,756.35	75.0002	4,756.35	72.0654	4,756.35	73.8759	4,756.35	72.471	4,756.35	73.1104	4,756.35	69.0765	4,756.35	70.0494	4,756.35	73.1093	4,756.35	70.4105	4,756.35	65.5368	4,756.35	66.4965	4,756.35	65.5498	4,756.35	66.3314	4,756.35	66.4899	4,756.35	58.37	4,756.35	64.7185	4,756.35	67.1787
4,924.8	94.3847	4,924.8	92.8798	4,924.8	93.4667	4,924.8	91.4602	4,924.8	93.5639	4,924.8	91.5789	4,924.8	92.4579	4,924.8	90.9526	4,924.8	91.0904	4,924.8	89.2709	4,924.8	91.9029	4,924.8	88.3213	4,924.8	70.9735	4,924.8	83.8958	4,924.8	83.2816	4,924.8	82.6085	4,924.8	81.1323	4,924.8	75.9776	4,924.8	84.5318	4,924.8	75.5126	4,924.8	80.03	4,924.8	73.735	4,924.8	74.8208	4,924.8	73.736	4,924.8	69.7147	4,924.8	69.8445	4,924.8	71.9814	4,924.8	70.4394	4,924.8	73.4786	4,924.8	68.4956	4,924.8	62.4921	4,924.8	67.9668	4,924.8	62.6563	4,924.8	63.6368	4,924.8	68.2984	4,924.8	63.6165
5,097.66	94.8208	5,097.66	94.6283	5,097.66	94.5632	5,097.66	92.9399	5,097.66	93.5172	5,097.66	91.3364	5,097.66	93.3118	5,097.66	90.7439	5,097.66	91.3229	5,097.66	90.0091	5,097.66	92.7022	5,097.66	87.3159	5,097.66	76.7237	5,097.66	84.6385	5,097.66	88.2395	5,097.66	80.8065	5,097.66	84.7863	5,097.66	80.6877	5,097.66	85.0933	5,097.66	75.003	5,097.66	77.5545	5,097.66	75.1469	5,097.66	76.0111	5,097.66	73.1944	5,097.66	67.0657	5,097.66	72.7967	5,097.66	73.8266	5,097.66	68.2536	5,097.66	70.9525	5,097.66	67.7968	5,097.66	65.0628	5,097.66	66.4699	5,097.66	65.5288	5,097.66	56.384	5,097.66	64.1051	5,097.66	65.2355
5,277.83	95.2889	5,277.83	94.3467	5,277.83	94.9934	5,277.83	92.9533	5,277.83	93.3727	5,277.83	92.4016	5,277.83	93.0811	5,277.83	91.2069	5,277.83	91.1955	5,277.83	89.1164	5,277.83	91.9365	5,277.83	86.8068	5,277.83	80.5409	5,277.83	84.2125	5,277.83	87.4643	5,277.83	80.2845	5,277.83	85.911	5,277.83	77.3185	5,277.83	83.8644	5,277.83	73.3904	5,277.83	68.4123	5,277.83	74.1388	5,277.83	73.5403	5,277.83	69.7922	5,277.83	70.0237	5,277.83	69.826	5,277.83	67.61	5,277.83	66.8172	5,277.83	71.1566	5,277.83	66.3928	5,277.83	55.4237	5,277.83	69.0981	5,277.83	68.7995	5,277.83	59.79	5,277.83	62.0512	5,277.83	63.9173
5,463.87	95.2349	5,463.87	95.2934	5,463.87	94.8849	5,463.87	93.8748	5,463.87	94.199	5,463.87	92.5171	5,463.87	92.831	5,463.87	91.3381	5,463.87	91.2325	5,463.87	89.3804	5,463.87	91.7171	5,463.87	87.3029	5,463.87	79.4373	5,463.87	84.5911	5,463.87	87.0953	5,463.87	81.6364	5,463.87	81.2395	5,463.87	79.4784	5,463.87	82.6627	5,463.87	75.5655	5,463.87	62.012	5,463.87	74.3502	5,463.87	68.0944	5,463.87	72.1819	5,463.87	69.5499	5,463.87	71.0517	5,463.87	70.2933	5,463.87	69.7701	5,463.87	69.1878	5,463.87	68.242	5,463.87	64.4794	5,463.87	67.5936	5,463.87	65.801	5,463.87	65.9054	5,463.87	59.8759	5,463.87	61.3571
5,657.23	96.4381	5,657.23	96.4583	5,657.23	95.7332	5,657.23	94.9921	5,657.23	93.7337	5,657.23	93.3795	5,657.23	93.6602	5,657.23	91.4736	5,657.23	88.9091	5,657.23	89.8937	5,657.23	89.4119	5,657.23	87.5153	5,657.23	81.8604	5,657.23	84.7438	5,657.23	87.2076	5,657.23	80.5611	5,657.23	82.6415	5,657.23	78.451	5,657.23	77.4377	5,657.23	76.0191	5,657.23	68.232	5,657.23	74.9724	5,657.23	70.1839	5,657.23	72.3817	5,657.23	61.7403	5,657.23	70.8362	5,657.23	63.9749	5,657.23	68.2178	5,657.23	67.2979	5,657.23	68.429	5,657.23	65.1662	5,657.23	71.0271	5,657.23	61.3801	5,657.23	58.5846	5,657.23	62.3855	5,657.23	62.8967
5,856.45	96.0422	5,856.45	96.0221	5,856.45	95.6724	5,856.45	94.8369	5,856.45	95.0048	5,856.45	92.8041	5,856.45	92.7328	5,856.45	91.2643	5,856.45	89.5514	5,856.45	89.4919	5,856.45	87.5863	5,856.45	85.879	5,856.45	83.0332	5,856.45	83.6715	5,856.45	83.8527	5,856.45	79.9507	5,856.45	85.6339	5,856.45	75.3828	5,856.45	78.8245	5,856.45	73.3787	5,856.45	70.033	5,856.45	70.7487	5,856.45	71.5485	5,856.45	70.4633	5,856.45	69.5902	5,856.45	66.6349	5,856.45	63.1779	5,856.45	67.1175	5,856.45	68.2628	5,856.45	69.8736	5,856.45	65.9565	5,856.45	67.1526	5,856.45	66.4598	5,856.45	63.9486	5,856.45	65.0632	5,856.45	64.1915
6,062.99	96.6261	6,062.99	96.4133	6,062.99	95.9598	6,062.99	95.2574	6,062.99	94.8638	6,062.99	93.338	6,062.99	93.3336	6,062.99	91.0081	6,062.99	88.2755	6,062.99	88.6768	6,062.99	87.7955	6,062.99	85.019	6,062.99	84.8844	6,062.99	81.9208	6,062.99	81.9641	6,062.99	77.2585	6,062.99	83.5771	6,062.99	74.2225	6,062.99	79.8874	6,062.99	71.5653	6,062.99	78.0144	6,062.99	70.5055	6,062.99	58.9955	6,062.99	70.7063	6,062.99	64.432	6,062.99	65.0459	6,062.99	61.0903	6,062.99	68.6545	6,062.99	69.7201	6,062.99	69.2748	6,062.99	67.0729	6,062.99	66.2518	6,062.99	68.7618	6,062.99	64.727	6,062.99	66.164	6,062.99	59.7003
6,276.86	95.9683	6,276.86	95.5893	6,276.86	96.2588	6,276.86	94.9786	6,276.86	95.02	6,276.86	92.5884	6,276.86	93.7539	6,276.86	90.0401	6,276.86	89.4381	6,276.86	86.9589	6,276.86	87.6925	6,276.86	83.803	6,276.86	85.9543	6,276.86	79.507	6,276.86	79.0376	6,276.86	76.3281	6,276.86	83.9601	6,276.86	73.426	6,276.86	74.6952	6,276.86	69.6816	6,276.86	75.3268	6,276.86	67.576	6,276.86	71.0857	6,276.86	68.5015	6,276.86	67.1767	6,276.86	63.2862	6,276.86	58.5294	6,276.86	68.6798	6,276.86	69.0901	6,276.86	67.8177	6,276.86	65.9825	6,276.86	67.315	6,276.86	66.6356	6,276.86	66.5427	6,276.86	60.8612	6,276.86	61.2124
6,498.05	95.2637	6,498.05	95.2839	6,498.05	95.0387	6,498.05	93.9259	6,498.05	94.8779	6,498.05	91.1843	6,498.05	93.1219	6,498.05	89.0761	6,498.05	89.2584	6,498.05	86.1819	6,498.05	87.4809	6,498.05	80.6072	6,498.05	84.1321	6,498.05	78.1819	6,498.05	75.9866	6,498.05	73.8079	6,498.05	82.0842	6,498.05	69.2281	6,498.05	74.2743	6,498.05	69.8426	6,498.05	70.3067	6,498.05	65.7769	6,498.05	72.0083	6,498.05	67.3879	6,498.05	62.9864	6,498.05	60.3629	6,498.05	64.127	6,498.05	67.6006	6,498.05	66.7613	6,498.05	65.926	6,498.05	63.9036	6,498.05	67.1747	6,498.05	65.2464	6,498.05	66.0965	6,498.05	62.5072	6,498.05	53.1632
6,726.56	95.2761	6,726.56	95.1134	6,726.56	95.2406	6,726.56	93.6779	6,726.56	93.7617	6,726.56	92.0372	6,726.56	92.6975	6,726.56	89.0122	6,726.56	88.3218	6,726.56	85.5517	6,726.56	87.1324	6,726.56	81.3972	6,726.56	81.3039	6,726.56	77.0475	6,726.56	72.361	6,726.56	74.9297	6,726.56	78.3216	6,726.56	72.9845	6,726.56	73.5626	6,726.56	70.3318	6,726.56	72.878	6,726.56	69.0296	6,726.56	57.962	6,726.56	66.1349	6,726.56	66.6934	6,726.56	66.9999	6,726.56	66.66	6,726.56	65.841	6,726.56	65.82	6,726.56	64.3198	6,726.56	64.314	6,726.56	68.0998	6,726.56	65.8344	6,726.56	66.5718	6,726.56	63.8352	6,726.56	56.6696
6,963.87	95.3218	6,963.87	95.3576	6,963.87	95.273	6,963.87	94.1922	6,963.87	94.7517	6,963.87	92.2299	6,963.87	92.291	6,963.87	88.7506	6,963.87	88.6546	6,963.87	85.855	6,963.87	86.8512	6,963.87	81.5973	6,963.87	81.2024	6,963.87	78.4577	6,963.87	70.3064	6,963.87	76.3727	6,963.87	77.1902	6,963.87	73.1649	6,963.87	63.5155	6,963.87	70.4669	6,963.87	71.4282	6,963.87	68.1316	6,963.87	65.1103	6,963.87	67.7757	6,963.87	66.6469	6,963.87	67.1401	6,963.87	64.3304	6,963.87	63.5014	6,963.87	62.5387	6,963.87	64.3866	6,963.87	59.5107	6,963.87	69.1652	6,963.87	61.2547	6,963.87	66.5837	6,963.87	64.426	6,963.87	51.9677
7,209.96	96.2628	7,209.96	96.2289	7,209.96	96.1995	7,209.96	94.7287	7,209.96	94.3131	7,209.96	92.0779	7,209.96	93.2416	7,209.96	89.0169	7,209.96	88.0486	7,209.96	85.6805	7,209.96	86.5439	7,209.96	81.5158	7,209.96	79.2368	7,209.96	79.1852	7,209.96	74.135	7,209.96	74.5206	7,209.96	72.5269	7,209.96	73.3498	7,209.96	67.3189	7,209.96	70.1324	7,209.96	71.8154	7,209.96	68.2689	7,209.96	65.6305	7,209.96	65.596	7,209.96	47.9174	7,209.96	65.2478	7,209.96	65.3357	7,209.96	62.6196	7,209.96	67.6397	7,209.96	66.8517	7,209.96	61.9541	7,209.96	69.0042	7,209.96	59.7746	7,209.96	65.6331	7,209.96	62.4646	7,209.96	54.2712
7,464.84	96.3046	7,464.84	96.1221	7,464.84	95.8639	7,464.84	94.7102	7,464.84	95.0049	7,464.84	91.9448	7,464.84	92.4313	7,464.84	88.5333	7,464.84	88.5758	7,464.84	84.0439	7,464.84	85.0335	7,464.84	81.6184	7,464.84	80.6042	7,464.84	77.8994	7,464.84	77.8445	7,464.84	75.8563	7,464.84	75.9879	7,464.84	72.9258	7,464.84	68.3745	7,464.84	69.6737	7,464.84	67.6621	7,464.84	69.6305	7,464.84	69.1449	7,464.84	68.4713	7,464.84	63.1024	7,464.84	62.6521	7,464.84	63.6126	7,464.84	65.4534	7,464.84	65.6723	7,464.84	67.3555	7,464.84	60.2421	7,464.84	69.8618	7,464.84	60.9841	7,464.84	67.3525	7,464.84	65.2483	7,464.84	33.099
7,727.05	96.7089	7,727.05	96.2371	7,727.05	96.206	7,727.05	95.0328	7,727.05	94.9328	7,727.05	91.6759	7,727.05	91.9875	7,727.05	86.8883	7,727.05	87.5417	7,727.05	84.2931	7,727.05	85.1361	7,727.05	81.3421	7,727.05	78.1319	7,727.05	78.2532	7,727.05	78.151	7,727.05	76.0241	7,727.05	71.6216	7,727.05	73.3066	7,727.05	73.5579	7,727.05	71.0037	7,727.05	68.0719	7,727.05	67.618	7,727.05	58.3173	7,727.05	66.7525	7,727.05	64.6667	7,727.05	64.7706	7,727.05	54.9689	7,727.05	63.9994	7,727.05	64.6093	7,727.05	62.5325	7,727.05	49.8958	7,727.05	66.6077	7,727.05	64.1629	7,727.05	66.7149	7,727.05	63.3671	7,727.05	43.874
7,999.51	96.4939	7,999.51	96.7616	7,999.51	96.0939	7,999.51	95.1543	7,999.51	94.8065	7,999.51	90.9125	7,999.51	91.5288	7,999.51	87.2424	7,999.51	85.6535	7,999.51	83.7977	7,999.51	82.7908	7,999.51	81.695	7,999.51	65.8531	7,999.51	78.7551	7,999.51	76.4595	7,999.51	76.178	7,999.51	73.9009	7,999.51	71.6316	7,999.51	74.8261	7,999.51	69.5251	7,999.51	67.9777	7,999.51	69.2582	7,999.51	54.1246	7,999.51	65.8527	7,999.51	65.929	7,999.51	64.4461	7,999.51	55.1098	7,999.51	65.3513	7,999.51	63.6384	7,999.51	64.7073	7,999.51	35.313	7,999.51	67.3763	7,999.51	63.7885	7,999.51	67.458	7,999.51	62.6215	7,999.51	50.5408
8,282.23	96.4926	8,282.23	96.597	8,282.23	96.4551	8,282.23	94.2838	8,282.23	94.1158	8,282.23	91.1652	8,282.23	91.077	8,282.23	85.8835	8,282.23	86.5033	8,282.23	82.9215	8,282.23	79.6543	8,282.23	82.3727	8,282.23	68.8036	8,282.23	79.4217	8,282.23	78.9911	8,282.23	76.9939	8,282.23	70.7981	8,282.23	74.9	8,282.23	75.9965	8,282.23	70.8155	8,282.23	64.5108	8,282.23	68.4704	8,282.23	57.7416	8,282.23	67.3581	8,282.23	61.9201	8,282.23	64.2367	8,282.23	58.5203	8,282.23	65.5518	8,282.23	64.324	8,282.23	65.53	8,282.23	54.7936	8,282.23	67.5033	8,282.23	64.5309	8,282.23	65.239	8,282.23	63.222	8,282.23	55.2867
8,573.73	96.6299	8,573.73	96.4428	8,573.73	95.9023	8,573.73	94.4913	8,573.73	93.9485	8,573.73	89.6279	8,573.73	90.4637	8,573.73	85.4222	8,573.73	86.0622	8,573.73	83.617	8,573.73	76.9135	8,573.73	82.1243	8,573.73	81.6648	8,573.73	79.7057	8,573.73	80.5543	8,573.73	76.1975	8,573.73	69.8566	8,573.73	73.1789	8,573.73	71.296	8,573.73	70.7979	8,573.73	64.9603	8,573.73	68.8335	8,573.73	59.6975	8,573.73	66.8519	8,573.73	60.3727	8,573.73	63.7765	8,573.73	62.9922	8,573.73	64.2094	8,573.73	63.6089	8,573.73	65.796	8,573.73	49.4142	8,573.73	66.6436	8,573.73	63.2434	8,573.73	64.8456	8,573.73	60.5114	8,573.73	50.0798
8,876.95	96.09	8,876.95	96.122	8,876.95	95.3888	8,876.95	93.8062	8,876.95	92.9226	8,876.95	89.6264	8,876.95	89.2076	8,876.95	85.8829	8,876.95	83.7587	8,876.95	82.9357	8,876.95	77.3462	8,876.95	82.9165	8,876.95	84.153	8,876.95	79.7413	8,876.95	80.0627	8,876.95	76.4252	8,876.95	69.8122	8,876.95	74.165	8,876.95	68.9399	8,876.95	69.8463	8,876.95	65.8271	8,876.95	68.7665	8,876.95	49.3704	8,876.95	67.7219	8,876.95	57.3682	8,876.95	64.1024	8,876.95	58.3629	8,876.95	64.7615	8,876.95	61.0656	8,876.95	67.0679	8,876.95	47.923	8,876.95	65.8387	8,876.95	57.3969	8,876.95	64.0217	8,876.95	58.6449	8,876.95	50.7395
9,188.96	96.557	9,188.96	96.0778	9,188.96	95.0955	9,188.96	93.6328	9,188.96	92.5782	9,188.96	89.1252	9,188.96	89.0659	9,188.96	84.5624	9,188.96	82.6084	9,188.96	83.1032	9,188.96	77.3328	9,188.96	81.6375	9,188.96	84.812	9,188.96	80.0736	9,188.96	79.6632	9,188.96	76.8869	9,188.96	69.1148	9,188.96	73.497	9,188.96	69.3813	9,188.96	70.0456	9,188.96	68.3325	9,188.96	69.1438	9,188.96	57.957	9,188.96	67.1105	9,188.96	58.5474	9,188.96	64.2441	9,188.96	60.1504	9,188.96	63.7483	9,188.96	59.6754	9,188.96	65.6327	9,188.96	50.678	9,188.96	64.7423	9,188.96	56.5646	9,188.96	62.3659	9,188.96	59.3273	9,188.96	45.1354
9,514.16	96.3665	9,514.16	95.6426	9,514.16	94.9716	9,514.16	92.9793	9,514.16	92.7739	9,514.16	87.5641	9,514.16	89.1567	9,514.16	83.9964	9,514.16	83.7984	9,514.16	81.267	9,514.16	80.2609	9,514.16	83.0039	9,514.16	83.8584	9,514.16	80.6242	9,514.16	76.2399	9,514.16	77.5546	9,514.16	71.362	9,514.16	74.3109	9,514.16	69.7771	9,514.16	69.6935	9,514.16	62.9886	9,514.16	67.3469	9,514.16	58.5037	9,514.16	68.1204	9,514.16	58.4107	9,514.16	65.4387	9,514.16	61.4396	9,514.16	64.9444	9,514.16	57.3771	9,514.16	65.7016	9,514.16	37.3649	9,514.16	64.6126	9,514.16	57.58	9,514.16	62.4561	9,514.16	58.5384	9,514.16	52.9455
9,849.61	96.3149	9,849.61	95.0847	9,849.61	95.4844	9,849.61	91.746	9,849.61	93.0187	9,849.61	87.6442	9,849.61	88.8559	9,849.61	82.5348	9,849.61	82.4373	9,849.61	81.8241	9,849.61	81.602	9,849.61	82.0442	9,849.61	80.5428	9,849.61	79.9863	9,849.61	74.9799	9,849.61	76.1223	9,849.61	67.1297	9,849.61	72.9342	9,849.61	67.8129	9,849.61	69.1198	9,849.61	50.605	9,849.61	66.2503	9,849.61	62.5517	9,849.61	66.8353	9,849.61	51.9511	9,849.61	63.5362	9,849.61	57.7158	9,849.61	62.8344	9,849.61	58.2249	9,849.61	64.9058	9,849.61	57.147	9,849.61	61.8489	9,849.61	58.3112	9,849.61	61.7083	9,849.61	58.5041	9,849.61	48.806
10,196.8	95.8479	10,196.8	94.3601	10,196.8	94.7275	10,196.8	91.2501	10,196.8	92.253	10,196.8	86.5793	10,196.8	86.7208	10,196.8	82.6149	10,196.8	82.7484	10,196.8	81.9872	10,196.8	83.305	10,196.8	83.2858	10,196.8	79.322	10,196.8	80.4124	10,196.8	76.954	10,196.8	76.2732	10,196.8	68.1027	10,196.8	71.8681	10,196.8	66.4377	10,196.8	69.2897	10,196.8	57.2031	10,196.8	65.0769	10,196.8	60.8625	10,196.8	65.8171	10,196.8	47.068	10,196.8	62.3309	10,196.8	50.2139	10,196.8	62.725	10,196.8	59.0984	10,196.8	64.4961	10,196.8	52.5463	10,196.8	61.92	10,196.8	59.0952	10,196.8	61.5121	10,196.8	58.4111	10,196.8	34.3234
10,555.7	95.348	10,555.7	94.401	10,555.7	93.9145	10,555.7	91.4901	10,555.7	91.0309	10,555.7	87.7941	10,555.7	85.6684	10,555.7	83.8867	10,555.7	83.37	10,555.7	83.6402	10,555.7	84.6683	10,555.7	83.4873	10,555.7	79.8148	10,555.7	80.0515	10,555.7	73.6309	10,555.7	76.016	10,555.7	72.4829	10,555.7	71.6519	10,555.7	58.7188	10,555.7	67.5656	10,555.7	55.5213	10,555.7	64.27	10,555.7	48.644	10,555.7	65.6429	10,555.7	50.7752	10,555.7	62.4608	10,555.7	36.7639	10,555.7	62.5294	10,555.7	58.6852	10,555.7	64.9546	10,555.7	45.9998	10,555.7	62.1917	10,555.7	59.7803	10,555.7	59.6147	10,555.7	60.0612	10,555.7	49.291
10,927.7	95.4147	10,927.7	94.5285	10,927.7	94.2297	10,927.7	91.8644	10,927.7	91.0558	10,927.7	87.3847	10,927.7	86.7939	10,927.7	83.2656	10,927.7	83.1149	10,927.7	81.5045	10,927.7	80.935	10,927.7	80.9251	10,927.7	79.6281	10,927.7	76.9797	10,927.7	62.1682	10,927.7	71.7784	10,927.7	70.6573	10,927.7	67.5354	10,927.7	56.8924	10,927.7	62.8448	10,927.7	50.6998	10,927.7	60.9908	10,927.7	54.3069	10,927.7	61.187	10,927.7	53.6674	10,927.7	59.2137	10,927.7	52.0181	10,927.7	60.7817	10,927.7	56.4742	10,927.7	61.0387	10,927.7	44.492	10,927.7	58.86	10,927.7	59.3924	10,927.7	55.3455	10,927.7	60.1128	10,927.7	44.8337
11,313	95.8445	11,313	94.7795	11,313	94.395	11,313	91.3898	11,313	90.8847	11,313	85.9452	11,313	86.4609	11,313	80.4112	11,313	80.1341	11,313	79.2741	11,313	77.8818	11,313	78.385	11,313	78.3527	11,313	73.9655	11,313	70.7025	11,313	69.805	11,313	69.9326	11,313	65.7959	11,313	57.9127	11,313	61.3086	11,313	45.8871	11,313	58.7046	11,313	50.4418	11,313	58.0351	11,313	48.2339	11,313	59.988	11,313	51.047	11,313	58.252	11,313	51.4948	11,313	59.9151	11,313	40.4977	11,313	58.8083	11,313	56.1188	11,313	54.6616	11,313	58.0137	11,313	40.6384
11,712.9	95.9102	11,712.9	94.8523	11,712.9	94.1748	11,712.9	91.1907	11,712.9	89.5109	11,712.9	85.5032	11,712.9	83.632	11,712.9	82.8366	11,712.9	80.0023	11,712.9	81.9354	11,712.9	79.1294	11,712.9	81.0188	11,712.9	78.7139	11,712.9	76.5356	11,712.9	71.3579	11,712.9	71.9005	11,712.9	71.3881	11,712.9	68.4272	11,712.9	50.6087	11,712.9	64.6829	11,712.9	56.8024	11,712.9	59.7529	11,712.9	51.0667	11,712.9	60.7414	11,712.9	45.7826	11,712.9	62.4528	11,712.9	46.3617	11,712.9	60.9413	11,712.9	47.7581	11,712.9	62.8018	11,712.9	43.5507	11,712.9	60.6917	11,712.9	55.7219	11,712.9	54.8383	11,712.9	57.767	11,712.9	44.0609
12,126	95.8292	12,126	95.1571	12,126	93.7347	12,126	91.7146	12,126	88.2663	12,126	86.8274	12,126	81.8987	12,126	84.0035	12,126	81.1005	12,126	82.482	12,126	77.7264	12,126	81.172	12,126	74.5855	12,126	77.0218	12,126	61.9091	12,126	72.4187	12,126	67.8603	12,126	68.4586	12,126	21.2996	12,126	64.7379	12,126	55.2776	12,126	60.0111	12,126	56.653	12,126	60.7872	12,126	50.7413	12,126	63.2101	12,126	47.7856	12,126	60.5544	12,126	51.2519	12,126	61.6347	12,126	49.0308	12,126	61.4064	12,126	52.2883	12,126	55.0466	12,126	58.2979	12,126	50.4044
12,553.7	95.6457	12,553.7	94.9804	12,553.7	93.3775	12,553.7	91.2648	12,553.7	86.483	12,553.7	86.0555	12,553.7	79.5328	12,553.7	84.6323	12,553.7	81.5863	12,553.7	83.1085	12,553.7	78.1008	12,553.7	81.6033	12,553.7	74.7135	12,553.7	77.3224	12,553.7	73.8576	12,553.7	72.5077	12,553.7	67.3966	12,553.7	68.9292	12,553.7	61.1827	12,553.7	63.2031	12,553.7	63.2935	12,553.7	61.5681	12,553.7	62.3784	12,553.7	61.2206	12,553.7	38.841	12,553.7	61.9628	12,553.7	45.3282	12,553.7	58.2421	12,553.7	47.771	12,553.7	60.1238	12,553.7	41.7231	12,553.7	60.0956	12,553.7	52.806	12,553.7	52.5565	12,553.7	59.4866	12,553.7	50.1599
12,996.1	94.5288	12,996.1	93.52	12,996.1	92.8218	12,996.1	89.0968	12,996.1	87.1962	12,996.1	85.1439	12,996.1	84.419	12,996.1	84.0709	12,996.1	85.025	12,996.1	81.9745	12,996.1	81.7925	12,996.1	79.4123	12,996.1	77.2389	12,996.1	74.0946	12,996.1	76.4747	12,996.1	68.2406	12,996.1	72.5467	12,996.1	65.4582	12,996.1	60.813	12,996.1	59.6993	12,996.1	61.4925	12,996.1	56.4689	12,996.1	60.9478	12,996.1	56.8202	12,996.1	45.2598	12,996.1	58.5399	12,996.1	41.9675	12,996.1	54.9194	12,996.1	49.5957	12,996.1	56.7284	12,996.1	24.0086	12,996.1	58.3867	12,996.1	45.7631	12,996.1	50.8066	12,996.1	57.6688	12,996.1	48.3911
13,454.6	93.6234	13,454.6	92.4887	13,454.6	92.3235	13,454.6	88.7621	13,454.6	88.9685	13,454.6	86.7081	13,454.6	86.8563	13,454.6	84.5828	13,454.6	84.9634	13,454.6	81.4258	13,454.6	83.3979	13,454.6	79.1226	13,454.6	74.2421	13,454.6	73.2837	13,454.6	76.3808	13,454.6	67.6259	13,454.6	71.4936	13,454.6	66.1651	13,454.6	59.8143	13,454.6	59.4144	13,454.6	62.9483	13,454.6	55.5692	13,454.6	63.4447	13,454.6	57.1545	13,454.6	41.8118	13,454.6	59.2294	13,454.6	44.9588	13,454.6	54.5894	13,454.6	52.2298	13,454.6	57.0697	13,454.6	43.7328	13,454.6	58.611	13,454.6	49.0184	13,454.6	48.1834	13,454.6	55.9906	13,454.6	50.2017
13,929.2	93.6402	13,929.2	92.8112	13,929.2	92.3308	13,929.2	89.7035	13,929.2	89.4285	13,929.2	86.8597	13,929.2	86.6549	13,929.2	84.0801	13,929.2	83.1714	13,929.2	79.9466	13,929.2	79.0904	13,929.2	76.9129	13,929.2	66.5963	13,929.2	71.0907	13,929.2	73.7534	13,929.2	64.3404	13,929.2	61.9096	13,929.2	62.2696	13,929.2	61.5453	13,929.2	55.088	13,929.2	61.2193	13,929.2	54.0324	13,929.2	59.3405	13,929.2	55.5366	13,929.2	52.0154	13,929.2	57.9853	13,929.2	39.6849	13,929.2	50.0109	13,929.2	45.9811	13,929.2	53.741	13,929.2	45.0859	13,929.2	54.0525	13,929.2	50.1517	13,929.2	45.7738	13,929.2	51.211	13,929.2	48.2799
14,419.9	93.3775	14,419.9	92.5428	14,419.9	92.0002	14,419.9	89.2485	14,419.9	88.7143	14,419.9	85.8988	14,419.9	84.9847	14,419.9	82.0583	14,419.9	80.8402	14,419.9	77.1047	14,419.9	75.8161	14,419.9	72.1121	14,419.9	69.9547	14,419.9	64.6244	14,419.9	69.8596	14,419.9	60.5424	14,419.9	67.7003	14,419.9	59.1753	14,419.9	58.3276	14,419.9	53.0496	14,419.9	52.3671	14,419.9	50.7504	14,419.9	47.7489	14,419.9	51.4961	14,419.9	53.12	14,419.9	54.2292	14,419.9	41.2284	14,419.9	44.5827	14,419.9	41.9911	14,419.9	47.0654	14,419.9	43.8957	14,419.9	50.5068	14,419.9	44.9845	14,419.9	46.3232	14,419.9	46.9775	14,419.9	43.8489
14,928.2	94.3106	14,928.2	92.956	14,928.2	92.6306	14,928.2	88.6181	14,928.2	88.0679	14,928.2	83.5874	14,928.2	81.9824	14,928.2	78.2936	14,928.2	78.1874	14,928.2	70.1891	14,928.2	72.6002	14,928.2	56.1353	14,928.2	72.1969	14,928.2	63.9518	14,928.2	72.2705	14,928.2	62.6896	14,928.2	68.2123	14,928.2	60.1127	14,928.2	59.2451	14,928.2	52.5755	14,928.2	56.5788	14,928.2	51.1889	14,928.2	54.2312	14,928.2	49.2548	14,928.2	48.3404	14,928.2	47.8222	14,928.2	37.4045	14,928.2	36.1807	14,928.2	46.3925	14,928.2	46.1055	14,928.2	41.753	14,928.2	41.9769	14,928.2	41.7616	14,928.2	44.3256	14,928.2	30.7069	14,928.2	32.1111
15,455.6	94.9623	15,455.6	93.1209	15,455.6	92.8333	15,455.6	88.8533	15,455.6	88.0945	15,455.6	84.2943	15,455.6	83.9123	15,455.6	78.5073	15,455.6	81.9391	15,455.6	69.7078	15,455.6	76.7852	15,455.6	71.9776	15,455.6	77.3844	15,455.6	72.451	15,455.6	76.6862	15,455.6	69.2283	15,455.6	67.3303	15,455.6	65.4714	15,455.6	63.129	15,455.6	59.6826	15,455.6	63.1735	15,455.6	56.4344	15,455.6	60.741	15,455.6	56.1438	15,455.6	43.0879	15,455.6	52.2536	15,455.6	37.5287	15,455.6	40.3698	15,455.6	48.8191	15,455.6	48.9923	15,455.6	47.1701	15,455.6	43.253	15,455.6	42.1073	15,455.6	28.123	15,455.6	49.1301	15,455.6	43.4507
16,000.5	94.905	16,000.5	93.3918	16,000.5	93.1643	16,000.5	90.2001	16,000.5	89.5609	16,000.5	86.3115	16,000.5	85.837	16,000.5	79.7597	16,000.5	80.7194	16,000.5	73.4518	16,000.5	76.1316	16,000.5	75.8871	16,000.5	76.6136	16,000.5	75.1035	16,000.5	71.1784	16,000.5	70.8219	16,000.5	68.5565	16,000.5	66.6255	16,000.5	65.9093	16,000.5	62.6949	16,000.5	58.8788	16,000.5	58.2994	16,000.5	54.6492	16,000.5	57.3988	16,000.5	53.2766	16,000.5	50.0787	16,000.5	53.3791	16,000.5	44.6131	16,000.5	52.7997	16,000.5	51.1751	16,000.5	52.0016	16,000.5	45.4633	16,000.5	51.3302	16,000.5	45.0379	16,000.5	52.3258	16,000.5	48.2582
16,564.5	93.8268	16,564.5	93.0768	16,564.5	92.2839	16,564.5	90.4417	16,564.5	89.5418	16,564.5	86.5709	16,564.5	85.1868	16,564.5	80.2826	16,564.5	78.1481	16,564.5	74.0938	16,564.5	73.2179	16,564.5	75.0777	16,564.5	75.1901	16,564.5	74.104	16,564.5	72.4032	16,564.5	70.0874	16,564.5	69.0795	16,564.5	64.6286	16,564.5	62.2355	16,564.5	59.9514	16,564.5	51.1508	16,564.5	55.2972	16,564.5	50.9482	16,564.5	56.1804	16,564.5	53.5312	16,564.5	51.5883	16,564.5	53.517	16,564.5	48.7895	16,564.5	53.5825	16,564.5	53.843	16,564.5	51.9246	16,564.5	46.8643	16,564.5	50.8322	16,564.5	51.0755	16,564.5	52.2856	16,564.5	44.5136
17,148.9	93.919	17,148.9	93.2854	17,148.9	92.646	17,148.9	90.4739	17,148.9	89.915	17,148.9	86.3942	17,148.9	85.0707	17,148.9	80.0868	17,148.9	78.7514	17,148.9	73.1885	17,148.9	74.457	17,148.9	73.1379	17,148.9	74.4907	17,148.9	71.7034	17,148.9	72.5858	17,148.9	66.9719	17,148.9	65.2322	17,148.9	62.0246	17,148.9	61.1324	17,148.9	56.4266	17,148.9	59.5202	17,148.9	54.7451	17,148.9	42.9442	17,148.9	53.389	17,148.9	43.5925	17,148.9	53.2505	17,148.9	45.1323	17,148.9	37.6208	17,148.9	51.6142	17,148.9	55.7167	17,148.9	45.0866	17,148.9	51.8379	17,148.9	46.97	17,148.9	52.9644	17,148.9	49.0924	17,148.9	47.4344
17,752.4	94.0295	17,752.4	92.9529	17,752.4	93.3762	17,752.4	89.6647	17,752.4	90.0226	17,752.4	84.9525	17,752.4	84.5796	17,752.4	78.6333	17,752.4	79.4039	17,752.4	68.6343	17,752.4	73.8539	17,752.4	64.095	17,752.4	70.0471	17,752.4	62.4994	17,752.4	67.0399	17,752.4	58.5718	17,752.4	58.3161	17,752.4	53.1244	17,752.4	60.4989	17,752.4	43.3887	17,752.4	56.3329	17,752.4	49.3893	17,752.4	49.3763	17,752.4	42.9634	17,752.4	46.7563	17,752.4	49.783	17,752.4	31.8697	17,752.4	46.027	17,752.4	37.3153	17,752.4	53.7198	17,752.4	38.4391	17,752.4	49.4182	17,752.4	42.5108	17,752.4	52.7687	17,752.4	47.9084	17,752.4	45.483
18,379.4	95.2704	18,379.4	93.7691	18,379.4	93.895	18,379.4	89.0246	18,379.4	88.9486	18,379.4	80.406	18,379.4	83.1578	18,379.4	62.5568	18,379.4	78.5847	18,379.4	69.3203	18,379.4	72.1988	18,379.4	69.8985	18,379.4	68.8444	18,379.4	63.819	18,379.4	64.5033	18,379.4	59.6492	18,379.4	59.051	18,379.4	52.2189	18,379.4	59.2348	18,379.4	51.74	18,379.4	57.268	18,379.4	40.367	18,379.4	60.2978	18,379.4	48.215	18,379.4	53.0339	18,379.4	40.4976	18,379.4	43.7182	18,379.4	47.7142	18,379.4	33.3585	18,379.4	47.5291	18,379.4	42.0367	18,379.4	43.9505	18,379.4	34.6742	18,379.4	50.5201	18,379.4	44.5184	18,379.4	30.8465
19,026.9	94.6147	19,026.9	94.0928	19,026.9	92.4997	19,026.9	89.641	19,026.9	87.8989	19,026.9	80.3048	19,026.9	82.1166	19,026.9	68.6871	19,026.9	75.2274	19,026.9	72.1094	19,026.9	66.0337	19,026.9	70.6205	19,026.9	63.6671	19,026.9	66.9623	19,026.9	61.753	19,026.9	63.3694	19,026.9	55.4399	19,026.9	52.9477	19,026.9	55.9434	19,026.9	54.7658	19,026.9	54.6529	19,026.9	36.9398	19,026.9	63.8172	19,026.9	48.9317	19,026.9	55.5808	19,026.9	42.1337	19,026.9	41.5116	19,026.9	47.7372	19,026.9	40.7603	19,026.9	42.5449	19,026.9	29.3016	19,026.9	46.9385	19,026.9	42.3895	19,026.9	45.8428	19,026.9	44.7734	19,026.9	33.545
19,697.8	94.6898	19,697.8	94.2268	19,697.8	92.1418	19,697.8	89.3154	19,697.8	86.8879	19,697.8	79.3253	19,697.8	79.6631	19,697.8	57.8122	19,697.8	68.9675	19,697.8	69.2115	19,697.8	59.7333	19,697.8	68.074	19,697.8	62.0392	19,697.8	64.7977	19,697.8	56.549	19,697.8	62.1578	19,697.8	44.2556	19,697.8	53.3986	19,697.8	45.2166	19,697.8	50.4881	19,697.8	54.2802	19,697.8	44.4488	19,697.8	62.2587	19,697.8	48.4691	19,697.8	51.6414	19,697.8	36.5002	19,697.8	32.8082	19,697.8	43.9871	19,697.8	37.2225	19,697.8	42.3447	19,697.8	33.7501	19,697.8	47.7386	19,697.8	37.666	19,697.8	44.1533	19,697.8	40.3395	19,697.8	39.33
19,999.5	94.7272	19,999.5	94.2007	19,999.5	92.078	19,999.5	88.6926	19,999.5	86.9337	19,999.5	76.5877	19,999.5	78.6899	19,999.5	67.9403	19,999.5	66.586	19,999.5	73.8418	19,999.5	59.954	19,999.5	71.352	19,999.5	65.3322	19,999.5	68.1638	19,999.5	53.0579	19,999.5	65.1306	19,999.5	47.8743	19,999.5	55.6098	19,999.5	58.1977	19,999.5	54.8469	19,999.5	59.7397	19,999.5	49.0279	19,999.5	65.6965	19,999.5	55.8632	19,999.5	36.9518	19,999.5	57.3836	19,999.5	55.1237	19,999.5	53.4329	19,999.5	60.8114	19,999.5	29.955	19,999.5	48.402	19,999.5	39.1701	19,999.5	48.7851	19,999.5	49.1992	19,999.5	41.2452	19,999.5	36.5533
