"SPL Horizontal"
"On-Axis"		"10°"		"-10°"		"20°"		"-20°"		"30°"		"-30°"		"40°"		"-40°"		"50°"		"-50°"		"60°"		"-60°"		"70°"		"-70°"		"80°"		"-80°"		"90°"		"-90°"		"100°"		"-100°"		"110°"		"-110°"		"120°"		"-120°"		"130°"		"-130°"		"140°"		"-140°"		"150°"		"-150°"		"160°"		"-160°"		"170°"		"-170°"		"180°"
"Frequency / Hz"	"Sound Pressure Level / dB (re 20 µPa/V)  [2.83  V @ 1. m]"	"Frequency / Hz"	"Sound Pressure Level / dB (re 20 µPa/V)  [2.83  V @ 1. m]"	"Frequency / Hz"	"Sound Pressure Level / dB (re 20 µPa/V)  [2.83  V @ 1. m]"	"Frequency / Hz"	"Sound Pressure Level / dB (re 20 µPa/V)  [2.83  V @ 1. m]"	"Frequency / Hz"	"Sound Pressure Level / dB (re 20 µPa/V)  [2.83  V @ 1. m]"	"Frequency / Hz"	"Sound Pressure Level / dB (re 20 µPa/V)  [2.83  V @ 1. m]"	"Frequency / Hz"	"Sound Pressure Level / dB (re 20 µPa/V)  [2.83  V @ 1. m]"	"Frequency / Hz"	"Sound Pressure Level / dB (re 20 µPa/V)  [2.83  V @ 1. m]"	"Frequency / Hz"	"Sound Pressure Level / dB (re 20 µPa/V)  [2.83  V @ 1. m]"	"Frequency / Hz"	"Sound Pressure Level / dB (re 20 µPa/V)  [2.83  V @ 1. m]"	"Frequency / Hz"	"Sound Pressure Level / dB (re 20 µPa/V)  [2.83  V @ 1. m]"	"Frequency / Hz"	"Sound Pressure Level / dB (re 20 µPa/V)  [2.83  V @ 1. m]"	"Frequency / Hz"	"Sound Pressure Level / dB (re 20 µPa/V)  [2.83  V @ 1. m]"	"Frequency / Hz"	"Sound Pressure Level / dB (re 20 µPa/V)  [2.83  V @ 1. m]"	"Frequency / Hz"	"Sound Pressure Level / dB (re 20 µPa/V)  [2.83  V @ 1. m]"	"Frequency / Hz"	"Sound Pressure Level / dB (re 20 µPa/V)  [2.83  V @ 1. m]"	"Frequency / Hz"	"Sound Pressure Level / dB (re 20 µPa/V)  [2.83  V @ 1. m]"	"Frequency / Hz"	"Sound Pressure Level / dB (re 20 µPa/V)  [2.83  V @ 1. m]"	"Frequency / Hz"	"Sound Pressure Level / dB (re 20 µPa/V)  [2.83  V @ 1. m]"	"Frequency / Hz"	"Sound Pressure Level / dB (re 20 µPa/V)  [2.83  V @ 1. m]"	"Frequency / Hz"	"Sound Pressure Level / dB (re 20 µPa/V)  [2.83  V @ 1. m]"	"Frequency / Hz"	"Sound Pressure Level / dB (re 20 µPa/V)  [2.83  V @ 1. m]"	"Frequency / Hz"	"Sound Pressure Level / dB (re 20 µPa/V)  [2.83  V @ 1. m]"	"Frequency / Hz"	"Sound Pressure Level / dB (re 20 µPa/V)  [2.83  V @ 1. m]"	"Frequency / Hz"	"Sound Pressure Level / dB (re 20 µPa/V)  [2.83  V @ 1. m]"	"Frequency / Hz"	"Sound Pressure Level / dB (re 20 µPa/V)  [2.83  V @ 1. m]"	"Frequency / Hz"	"Sound Pressure Level / dB (re 20 µPa/V)  [2.83  V @ 1. m]"	"Frequency / Hz"	"Sound Pressure Level / dB (re 20 µPa/V)  [2.83  V @ 1. m]"	"Frequency / Hz"	"Sound Pressure Level / dB (re 20 µPa/V)  [2.83  V @ 1. m]"	"Frequency / Hz"	"Sound Pressure Level / dB (re 20 µPa/V)  [2.83  V @ 1. m]"	"Frequency / Hz"	"Sound Pressure Level / dB (re 20 µPa/V)  [2.83  V @ 1. m]"	"Frequency / Hz"	"Sound Pressure Level / dB (re 20 µPa/V)  [2.83  V @ 1. m]"	"Frequency / Hz"	"Sound Pressure Level / dB (re 20 µPa/V)  [2.83  V @ 1. m]"	"Frequency / Hz"	"Sound Pressure Level / dB (re 20 µPa/V)  [2.83  V @ 1. m]"	"Frequency / Hz"	"Sound Pressure Level / dB (re 20 µPa/V)  [2.83  V @ 1. m]"	"Frequency / Hz"	"Sound Pressure Level / dB (re 20 µPa/V)  [2.83  V @ 1. m]"
20.5078	60.1195	20.5078	60.3119	20.5078	59.8947	20.5078	60.469	20.5078	59.6478	20.5078	60.593	20.5078	59.3973	20.5078	60.69	20.5078	59.1715	20.5078	60.7686	20.5078	59.0087	20.5078	60.8383	20.5078	58.9523	20.5078	60.9077	20.5078	59.0401	20.5078	60.9836	20.5078	59.2879	20.5078	61.0697	20.5078	59.6785	20.5078	61.1679	20.5078	60.1652	20.5078	61.2789	20.5078	60.6876	20.5078	61.4033	20.5078	61.1892	20.5078	61.5421	20.5078	61.6264	20.5078	61.6953	20.5078	61.9708	20.5078	61.86	20.5078	62.2079	20.5078	62.0277	20.5078	62.3352	20.5078	62.1824	20.5078	62.3608	20.5078	62.302
21.9727	59.4584	21.9727	59.564	21.9727	59.2769	21.9727	59.5957	21.9727	59.0192	21.9727	59.5568	21.9727	58.6901	21.9727	59.4511	21.9727	58.3031	21.9727	59.2841	21.9727	57.8871	21.9727	59.0644	21.9727	57.4927	21.9727	58.8055	21.9727	57.1947	21.9727	58.5282	21.9727	57.078	21.9727	58.2625	21.9727	57.2018	21.9727	58.0476	21.9727	57.5604	21.9727	57.9264	21.9727	58.0807	21.9727	57.9351	21.9727	58.6586	21.9727	58.0886	21.9727	59.1994	21.9727	58.3727	21.9727	59.6356	21.9727	58.7467	21.9727	59.9272	21.9727	59.1543	21.9727	60.0564	21.9727	59.5363	21.9727	60.0224	21.9727	59.8395
23.4375	58.1899	23.4375	58.2365	23.4375	58.0112	23.4375	58.1462	23.4375	57.7089	23.4375	57.9164	23.4375	57.2973	23.4375	57.5482	23.4375	56.8038	23.4375	57.0498	23.4375	56.2797	23.4375	56.4441	23.4375	55.813	23.4375	55.7815	23.4375	55.5288	23.4375	55.1579	23.4375	55.5514	23.4375	54.7218	23.4375	55.9282	23.4375	54.6339	23.4375	56.5887	23.4375	54.9704	23.4375	57.3919	23.4375	55.6595	23.4375	58.2024	23.4375	56.539	23.4375	58.9256	23.4375	57.455	23.4375	59.5053	23.4375	58.3031	23.4375	59.9103	23.4375	59.0232	23.4375	60.1244	23.4375	59.5812	23.4375	60.1403	23.4375	59.9575
24.9023	57.6055	24.9023	57.4692	24.9023	57.6184	24.9023	57.2133	24.9023	57.5131	24.9023	56.855	24.9023	57.3044	24.9023	56.433	24.9023	57.0212	24.9023	56.0202	24.9023	56.7154	24.9023	55.7309	24.9023	56.4714	24.9023	55.7003	24.9023	56.4026	24.9023	56.0209	24.9023	56.6153	24.9023	56.6779	24.9023	57.1462	24.9023	57.5603	24.9023	57.9323	24.9023	58.5323	24.9023	58.851	24.9023	59.4874	24.9023	59.7821	24.9023	60.3595	24.9023	60.639	24.9023	61.1116	24.9023	61.3687	24.9023	61.7237	24.9023	61.9418	24.9023	62.1834	24.9023	62.3431	24.9023	62.4819	24.9023	62.5665	24.9023	62.6116
26.3672	59.9019	26.3672	59.9808	26.3672	59.6872	26.3672	59.9296	26.3672	59.3327	26.3672	59.7567	26.3672	58.8371	26.3672	59.4759	26.3672	58.2071	26.3672	59.1115	26.3672	57.4703	26.3672	58.7067	26.3672	56.7015	26.3672	58.3317	26.3672	56.0605	26.3672	58.0853	26.3672	55.7928	26.3672	58.0714	26.3672	56.0995	26.3672	58.3487	26.3672	56.9419	26.3672	58.8906	26.3672	58.0746	26.3672	59.601	26.3672	59.2505	26.3672	60.3664	26.3672	60.3191	26.3672	61.0946	26.3672	61.21	26.3672	61.7235	26.3672	61.8953	26.3672	62.2134	26.3672	62.3674	26.3672	62.5387	26.3672	62.6273	26.3672	62.6811
27.832	60.3191	27.832	60.4081	27.832	60.1199	27.832	60.3935	27.832	59.8098	27.832	60.2872	27.832	59.3959	27.832	60.1092	27.832	58.9002	27.832	59.8908	27.832	58.3716	27.832	59.6783	27.832	57.9034	27.832	59.5336	27.832	57.6372	27.832	59.5249	27.832	57.7207	27.832	59.7048	27.832	58.2133	27.832	60.085	27.832	59.0322	27.832	60.6288	27.832	60.0143	27.832	61.2688	27.832	61.0092	27.832	61.9325	27.832	61.9172	27.832	62.5593	27.832	62.6825	27.832	63.1039	27.832	63.2769	27.832	63.5334	27.832	63.6878	27.832	63.8232	27.832	63.9123	27.832	63.9543
29.2969	63.2322	29.2969	63.2067	29.2969	63.1086	29.2969	63.0288	29.2969	62.8384	29.2969	62.6936	29.2969	62.4238	29.2969	62.1962	29.2969	61.8708	29.2969	61.5356	29.2969	61.1961	29.2969	60.7237	29.2969	60.4418	29.2969	59.8059	29.2969	59.699	29.2969	58.8986	29.2969	59.1296	29.2969	58.2258	29.2969	58.9365	29.2969	58.0642	29.2969	59.2384	29.2969	58.5282	29.2969	59.9572	29.2969	59.4436	29.2969	60.8835	29.2969	60.5254	29.2969	61.8204	29.2969	61.5656	29.2969	62.6421	29.2969	62.4571	29.2969	63.2828	29.2969	63.1528	29.2969	63.7114	29.2969	63.6328	29.2969	63.9146	29.2969	63.8882
30.7617	62.8625	30.7617	62.8296	30.7617	62.7486	30.7617	62.6503	30.7617	62.4866	30.7617	62.3256	30.7617	62.0751	30.7617	61.8596	30.7617	61.5158	30.7617	61.2672	30.7617	60.8225	30.7617	60.5872	30.7617	60.0395	30.7617	59.9051	30.7617	59.2744	30.7617	59.3736	30.7617	58.7304	30.7617	59.1899	30.7617	58.6597	30.7617	59.4828	30.7617	59.1768	30.7617	60.1991	30.7617	60.1341	30.7617	61.1492	30.7617	61.2635	30.7617	62.1423	30.7617	62.3558	30.7617	63.0526	30.7617	63.2975	30.7617	63.8117	30.7617	64.0373	30.7617	64.3855	30.7617	64.5556	30.7617	64.7558	30.7617	64.8468	30.7617	64.912
32.2266	63.8913	32.2266	63.8556	32.2266	63.794	32.2266	63.6901	32.2266	63.5616	32.2266	63.4008	32.2266	63.1946	32.2266	62.9995	32.2266	62.6998	32.2266	62.5109	32.2266	62.0993	32.2266	61.9834	32.2266	61.4478	32.2266	61.5028	32.2266	60.857	32.2266	61.1955	32.2266	60.5055	32.2266	61.1947	32.2266	60.5781	32.2266	61.5628	32.2266	61.1291	32.2266	62.2415	32.2266	62.0253	32.2266	63.0918	32.2266	63.0561	32.2266	63.973	32.2266	64.0536	32.2266	64.7842	32.2266	64.9197	32.2266	65.4643	32.2266	65.6063	32.2266	65.9789	32.2266	66.0924	32.2266	66.3085	32.2266	66.3709	32.2266	66.4416
33.6914	65.4137	33.6914	65.3934	33.6914	65.3081	33.6914	65.2493	33.6914	65.0749	33.6914	64.9847	33.6914	64.7138	33.6914	64.6061	33.6914	64.2284	33.6914	64.1282	33.6914	63.6332	33.6914	63.5819	33.6914	62.965	33.6914	63.0261	33.6914	62.3034	33.6914	62.5589	33.6914	61.7867	33.6914	62.3086	33.6914	61.5909	33.6914	62.3835	33.6914	61.8315	33.6914	62.7997	33.6914	62.4645	33.6914	63.4639	33.6914	63.3194	33.6914	64.234	33.6914	64.2174	33.6914	64.9851	33.6914	65.0352	33.6914	65.6328	33.6914	65.7039	33.6914	66.1274	33.6914	66.1895	33.6914	66.4414	33.6914	66.4766	33.6914	66.5601
35.1562	66.4649	35.1562	66.4566	35.1562	66.3478	35.1562	66.3238	35.1562	66.1043	35.1562	66.068	35.1562	65.7342	35.1562	65.6931	35.1562	65.2405	35.1562	65.2097	35.1562	64.6349	35.1562	64.6421	35.1562	63.9488	35.1562	64.0406	35.1562	63.2517	35.1562	63.4947	35.1562	62.6707	35.1562	63.1341	35.1562	62.3799	35.1562	63.0884	35.1562	62.5163	35.1562	63.4067	35.1562	63.0678	35.1562	64.0154	35.1562	63.8782	35.1562	64.7674	35.1562	64.7614	35.1562	65.522	35.1562	65.5809	35.1562	66.1813	35.1562	66.2579	35.1562	66.6875	35.1562	66.7523	35.1562	67.0094	35.1562	67.0456	35.1562	67.1311
36.6211	67.9763	36.6211	67.952	36.6211	67.8772	36.6211	67.8039	36.6211	67.6543	36.6211	67.532	36.6211	67.3078	36.6211	67.1373	36.6211	66.8406	36.6211	66.6259	36.6211	66.2634	36.6211	66.016	36.6211	65.6044	36.6211	65.3494	36.6211	64.925	36.6211	64.7093	36.6211	64.3367	36.6211	64.2297	36.6211	63.9952	36.6211	64.0647	36.6211	64.034	36.6211	64.2988	36.6211	64.4651	36.6211	64.8742	36.6211	65.1636	36.6211	65.6316	36.6211	65.9581	36.6211	66.41	36.6211	66.7117	36.6211	67.0973	36.6211	67.3398	36.6211	67.6301	36.6211	67.7972	36.6211	67.9763	36.6211	68.0611	36.6211	68.1215
38.0859	68.1491	38.0859	68.0385	38.0859	68.1327	38.0859	67.7999	38.0859	67.9903	38.0859	67.4334	38.0859	67.7234	38.0859	66.9423	38.0859	67.3367	38.0859	66.3394	38.0859	66.8428	38.0859	65.6583	38.0859	66.2704	38.0859	64.9715	38.0859	65.6787	38.0859	64.4084	38.0859	65.1697	38.0859	64.1416	38.0859	64.8814	38.0859	64.3019	38.0859	64.9333	38.0859	64.8712	38.0859	65.344	38.0859	65.6928	38.0859	66.0123	38.0859	66.584	38.0859	66.7859	38.0859	67.4119	38.0859	67.5346	38.0859	68.1003	38.0859	68.1724	38.0859	68.6104	38.0859	68.6503	38.0859	68.9244	38.0859	68.9422	38.0859	69.0352
39.5508	68.1346	39.5508	68.068	39.5508	68.0938	39.5508	67.8968	39.5508	67.9444	39.5508	67.627	39.5508	67.6878	39.5508	67.2702	39.5508	67.3299	39.5508	66.8478	39.5508	66.8845	39.5508	66.3972	39.5508	66.3802	39.5508	65.9787	39.5508	65.8695	39.5508	65.6748	39.5508	65.4364	39.5508	65.5727	39.5508	65.1884	39.5508	65.7259	39.5508	65.2198	39.5508	66.1209	39.5508	65.5555	39.5508	66.6819	39.5508	66.1292	39.5508	67.3087	39.5508	66.8223	39.5508	67.9114	39.5508	67.5188	39.5508	68.4242	39.5508	68.1336	39.5508	68.8035	39.5508	68.6136	39.5508	69.0226	39.5508	68.9291	39.5508	69.0664
41.0156	69.9691	41.0156	69.9503	41.0156	69.892	41.0156	69.8382	41.0156	69.7176	41.0156	69.6372	41.0156	69.4461	41.0156	69.3549	41.0156	69.0812	41.0156	69.0047	41.0156	68.6328	41.0156	68.6096	41.0156	68.1225	41.0156	68.2071	41.0156	67.591	41.0156	67.8514	41.0156	67.1062	41.0156	67.6091	41.0156	66.7612	41.0156	67.541	41.0156	66.6501	41.0156	67.6751	41.0156	66.8203	41.0156	67.9885	41.0156	67.2381	41.0156	68.4158	41.0156	67.8062	41.0156	68.8758	41.0156	68.4128	41.0156	69.2948	41.0156	68.9673	41.0156	69.6172	41.0156	69.4096	41.0156	69.8056	41.0156	69.7053	41.0156	69.8381
42.4805	70.3032	42.4805	70.2838	42.4805	70.2307	42.4805	70.1757	42.4805	70.0649	42.4805	69.9842	42.4805	69.8065	42.4805	69.7184	42.4805	69.4597	42.4805	69.394	42.4805	69.035	42.4805	69.0365	42.4805	68.5551	42.4805	68.6847	42.4805	68.0615	42.4805	68.3915	42.4805	67.6209	42.4805	68.2169	42.4805	67.3228	42.4805	68.2104	42.4805	67.2542	42.4805	68.3888	42.4805	67.4555	42.4805	68.7244	42.4805	67.8905	42.4805	69.155	42.4805	68.4649	42.4805	69.6061	42.4805	69.0722	42.4805	70.0105	42.4805	69.6262	42.4805	70.3167	42.4805	70.0696	42.4805	70.4902	42.4805	70.3696	42.4805	70.5107
43.9453	71.9224	43.9453	71.9361	43.9453	71.8298	43.9453	71.8724	43.9453	71.6577	43.9453	71.7342	43.9453	71.4071	43.9453	71.526	43.9453	71.0812	43.9453	71.2557	43.9453	70.6881	43.9453	70.9362	43.9453	70.2429	43.9453	70.5878	43.9453	69.7725	43.9453	70.2407	43.9453	69.3195	43.9453	69.9345	43.9453	68.9422	43.9453	69.7129	43.9453	68.7055	43.9453	69.6124	43.9453	68.6579	43.9453	69.6468	43.9453	68.8065	43.9453	69.7981	43.9453	69.1094	43.9453	70.0212	43.9453	69.4939	43.9453	70.2588	43.9453	69.8839	43.9453	70.456	43.9453	70.2179	43.9453	70.5702	43.9453	70.455	43.9453	70.5738
45.4102	73.4481	45.4102	73.4301	45.4102	73.3793	45.4102	73.3261	45.4102	73.2235	45.4102	73.1369	45.4102	72.981	45.4102	72.865	45.4102	72.6541	45.4102	72.5154	45.4102	72.249	45.4102	72.099	45.4102	71.7793	45.4102	71.6359	45.4102	71.2709	45.4102	71.1604	45.4102	70.7671	45.4102	70.724	45.4102	70.3312	45.4102	70.3918	45.4102	70.0376	45.4102	70.2264	45.4102	69.9471	45.4102	70.26	45.4102	70.0746	45.4102	70.4732	45.4102	70.3765	45.4102	70.8013	45.4102	70.7701	45.4102	71.161	45.4102	71.1667	45.4102	71.4762	45.4102	71.4941	45.4102	71.691	45.4102	71.7042	45.4102	71.7716
46.875	73.8385	46.875	73.7877	46.875	73.8027	46.875	73.6511	46.875	73.6805	46.875	73.4304	46.875	73.4734	46.875	73.1302	46.875	73.1852	46.875	72.7594	46.875	72.8241	46.875	72.335	46.875	72.406	46.875	71.8864	46.875	71.9587	46.875	71.4596	46.875	71.526	46.875	71.1172	46.875	71.1681	46.875	70.9266	46.875	70.9518	46.875	70.9346	46.875	70.9275	46.875	71.1407	46.875	71.1027	46.875	71.4929	46.875	71.4335	46.875	71.9103	46.875	71.8432	46.875	72.3123	46.875	72.2507	46.875	72.636	46.875	72.5898	46.875	72.8399	46.875	72.8154	46.875	72.9018
48.3398	74.1135	48.3398	74.0994	48.3398	74.0544	48.3398	74.0146	48.3398	73.9216	48.3398	73.8638	48.3398	73.7166	48.3398	73.6548	48.3398	73.444	48.3398	73.4003	48.3398	73.1132	48.3398	73.1193	48.3398	72.7414	48.3398	72.8385	48.3398	72.3564	48.3398	72.5924	48.3398	71.9991	48.3398	72.4192	48.3398	71.7225	48.3398	72.352	48.3398	71.581	48.3398	72.4079	48.3398	71.6119	48.3398	72.5783	48.3398	71.8155	48.3398	72.8301	48.3398	72.1518	48.3398	73.1147	48.3398	72.5553	48.3398	73.3811	48.3398	72.9577	48.3398	73.5848	48.3398	73.3028	48.3398	73.6925	48.3398	73.552	48.3398	73.684
51.2695	75.87	51.2695	75.8715	51.2695	75.8081	51.2695	75.813	51.2695	75.686	51.2695	75.696	51.2695	75.5056	51.2695	75.523	51.2695	75.2708	51.2695	75.2985	51.2695	74.9886	51.2695	75.0296	51.2695	74.6707	51.2695	74.728	51.2695	74.3347	51.2695	74.4117	51.2695	74.0054	51.2695	74.1065	51.2695	73.7141	51.2695	73.8447	51.2695	73.4946	51.2695	73.6597	51.2695	73.3756	51.2695	73.575	51.2695	73.3691	51.2695	73.5939	51.2695	73.4636	51.2695	73.6953	51.2695	73.6259	51.2695	73.8401	51.2695	73.8114	51.2695	73.9839	51.2695	73.9766	51.2695	74.0881	51.2695	74.0881	51.2695	74.1266
52.7344	76.7609	52.7344	76.7416	52.7344	76.7141	52.7344	76.6564	52.7344	76.601	52.7344	76.5059	52.7344	76.4224	52.7344	76.291	52.7344	76.1798	52.7344	76.0144	52.7344	75.8768	52.7344	75.6811	52.7344	75.5204	52.7344	75.301	52.7344	75.1229	52.7344	74.8907	52.7344	74.7038	52.7344	74.4759	52.7344	74.2911	52.7344	74.0903	52.7344	73.9207	52.7344	73.7721	52.7344	73.6301	52.7344	73.553	52.7344	73.4478	52.7344	73.447	52.7344	73.3807	52.7344	73.4428	52.7344	73.41	52.7344	73.5071	52.7344	73.4971	52.7344	73.5962	52.7344	73.5974	52.7344	73.6696	52.7344	73.6727	52.7344	73.6989
54.1992	77.8939	54.1992	77.8944	54.1992	77.8144	54.1992	77.8154	54.1992	77.6562	54.1992	77.6564	54.1992	77.4197	54.1992	77.4177	54.1992	77.1064	54.1992	77.1007	54.1992	76.7192	54.1992	76.7103	54.1992	76.2649	54.1992	76.257	54.1992	75.7566	54.1992	75.7601	54.1992	75.2167	54.1992	75.2505	54.1992	74.6811	54.1992	74.7713	54.1992	74.1991	54.1992	74.3733	54.1992	73.8268	54.1992	74.1007	54.1992	73.6097	54.1992	73.9735	54.1992	73.5609	54.1992	73.9755	54.1992	73.6524	54.1992	74.0592	54.1992	73.8256	54.1992	74.1645	54.1992	74.0144	54.1992	74.2375	54.1992	74.1644	54.1992	74.2421
55.6641	78.5068	55.6641	78.4596	55.6641	78.4747	55.6641	78.3317	55.6641	78.3651	55.6641	78.1226	55.6641	78.1811	55.6641	77.8335	55.6641	77.927	55.6641	77.4682	55.6641	77.6099	55.6641	77.0355	55.6641	77.241	55.6641	76.5523	55.6641	76.8379	55.6641	76.0469	55.6641	76.4267	55.6641	75.5622	55.6641	76.043	55.6641	75.1545	55.6641	75.7291	55.6641	74.8827	55.6641	75.5246	55.6641	74.7874	55.6641	75.4513	55.6641	74.8695	55.6641	75.5011	55.6641	75.0863	55.6641	75.6363	55.6641	75.3689	55.6641	75.8023	55.6641	75.6473	55.6641	75.9437	55.6641	75.8667	55.6641	76.0166	55.6641	75.9938
58.5938	79.2418	58.5938	79.2106	58.5938	79.208	58.5938	79.116	58.5938	79.1084	58.5938	78.9608	58.5938	78.9431	58.5938	78.7498	58.5938	78.7138	58.5938	78.4908	58.5938	78.4249	58.5938	78.1962	58.5938	78.0858	58.5938	77.8848	58.5938	77.7134	58.5938	77.5828	58.5938	77.3356	58.5938	77.3225	58.5938	76.992	58.5938	77.1374	58.5938	76.7299	58.5938	77.0528	58.5938	76.5915	58.5938	77.075	58.5938	76.5971	58.5938	77.1871	58.5938	76.7337	58.5938	77.353	58.5938	76.9592	58.5938	77.5282	58.5938	77.2182	58.5938	77.6707	58.5938	77.4585	58.5938	77.7478	58.5938	77.6404	58.5938	77.7397
60.0586	79.9712	60.0586	79.9512	60.0586	79.9364	60.0586	79.8778	60.0586	79.8465	60.0586	79.7534	60.0586	79.702	60.0586	79.5822	60.0586	79.5054	60.0586	79.3714	60.0586	79.2624	60.0586	79.1323	60.0586	78.9837	60.0586	78.8811	60.0586	78.687	60.0586	78.6397	60.0586	78.3985	60.0586	78.4338	60.0586	78.1512	60.0586	78.2889	60.0586	77.9797	60.0586	78.2238	60.0586	77.9095	60.0586	78.2435	60.0586	77.9477	60.0586	78.3361	60.0586	78.0785	60.0586	78.4754	60.0586	78.2677	60.0586	78.6272	60.0586	78.4739	60.0586	78.7576	60.0586	78.6579	60.0586	78.8387	60.0586	78.7898	60.0586	78.8518
62.9883	80.9557	62.9883	80.951	62.9883	80.9075	62.9883	80.894	62.9883	80.8071	62.9883	80.7867	62.9883	80.6573	62.9883	80.6329	62.9883	80.463	62.9883	80.4385	62.9883	80.2326	62.9883	80.2125	62.9883	79.9786	62.9883	79.9683	62.9883	79.7184	62.9883	79.7237	62.9883	79.4742	62.9883	79.5008	62.9883	79.2707	62.9883	79.3239	62.9883	79.1314	62.9883	79.2139	62.9883	79.072	62.9883	79.1822	62.9883	79.0948	62.9883	79.2254	62.9883	79.1868	62.9883	79.3253	62.9883	79.3223	62.9883	79.4529	62.9883	79.4693	62.9883	79.576	62.9883	79.5966	62.9883	79.6664	62.9883	79.6797	62.9883	79.7039
64.4531	81.2844	64.4531	81.2656	64.4531	81.2572	64.4531	81.2005	64.4531	81.1857	64.4531	81.0903	64.4531	81.073	64.4531	80.9378	64.4531	80.9238	64.4531	80.7481	64.4531	80.7452	64.4531	80.5298	64.4531	80.5471	64.4531	80.2952	64.4531	80.3428	64.4531	80.0615	64.4531	80.1483	64.4531	79.8496	64.4531	79.9819	64.4531	79.6823	64.4531	79.8607	64.4531	79.5794	64.4531	79.797	64.4531	79.5519	64.4531	79.7943	64.4531	79.5975	64.4531	79.8449	64.4531	79.6998	64.4531	79.9303	64.4531	79.8327	64.4531	80.0256	64.4531	79.9664	64.4531	80.1049	64.4531	80.0742	64.4531	80.1465	64.4531	80.1372
67.3828	82.2946	67.3828	82.2552	67.3828	82.2936	67.3828	82.1756	67.3828	82.2526	67.3828	82.0571	67.3828	82.1733	67.3828	81.9027	67.3828	82.0582	67.3828	81.717	67.3828	81.9117	67.3828	81.5078	67.3828	81.7404	67.3828	81.2861	67.3828	81.5539	67.3828	81.0666	67.3828	81.365	67.3828	80.8676	67.3828	81.1894	67.3828	80.7083	67.3828	81.0438	67.3828	80.6057	67.3828	80.9424	67.3828	80.5693	67.3828	80.8934	67.3828	80.5978	67.3828	80.8948	67.3828	80.678	67.3828	80.9343	67.3828	80.7879	67.3828	80.9916	67.3828	80.9016	67.3828	81.0431	67.3828	80.9959	67.3828	81.0684	67.3828	81.0538
68.8477	82.9961	68.8477	82.9495	68.8477	83.0057	68.8477	82.8665	68.8477	82.9781	68.8477	82.749	68.8477	82.9142	68.8477	82.5999	68.8477	82.8159	68.8477	82.4241	68.8477	82.6868	68.8477	82.2289	68.8477	82.5327	68.8477	82.0245	68.8477	82.362	68.8477	81.8247	68.8477	82.1865	68.8477	81.6456	68.8477	82.0203	68.8477	81.5043	68.8477	81.8786	68.8477	81.4151	68.8477	81.775	68.8477	81.3858	68.8477	81.7176	68.8477	81.4142	68.8477	81.706	68.8477	81.4882	68.8477	81.7306	68.8477	81.5876	68.8477	81.7741	68.8477	81.6895	68.8477	81.8159	68.8477	81.7732	68.8477	81.8369	68.8477	81.8241
71.7773	84.2294	71.7773	84.1966	71.7773	84.2299	71.7773	84.1326	71.7773	84.1974	71.7773	84.0396	71.7773	84.1321	71.7773	83.9205	71.7773	84.035	71.7773	83.7797	71.7773	83.9088	71.7773	83.623	71.7773	83.7578	71.7773	83.4582	71.7773	83.5891	71.7773	83.2949	71.7773	83.4123	71.7773	83.1442	71.7773	83.2396	71.7773	83.0172	71.7773	83.085	71.7773	82.9235	71.7773	82.962	71.7773	82.8687	71.7773	82.8802	71.7773	82.8523	71.7773	82.8432	71.7773	82.8672	71.7773	82.846	71.7773	82.9007	71.7773	82.8763	71.7773	82.9377	71.7773	82.9173	71.7773	82.9639	71.7773	82.9525	71.7773	82.9697
74.707	84.8742	74.707	84.8616	74.707	84.856	74.707	84.819	74.707	84.8068	74.707	84.7476	74.707	84.727	74.707	84.6491	74.707	84.6178	74.707	84.5266	74.707	84.4815	74.707	84.384	74.707	84.3222	74.707	84.2271	74.707	84.1461	74.707	84.0634	74.707	83.9619	74.707	83.9021	74.707	83.7805	74.707	83.7533	74.707	83.6145	74.707	83.6266	74.707	83.4764	74.707	83.5294	74.707	83.376	74.707	83.4643	74.707	83.3176	74.707	83.4288	74.707	83.2986	74.707	83.4148	74.707	83.3097	74.707	83.4111	74.707	83.3377	74.707	83.4066	74.707	83.3689	74.707	83.3933
77.6367	85.9071	77.6367	85.8986	77.6367	85.8874	77.6367	85.8624	77.6367	85.8389	77.6367	85.7993	77.6367	85.7619	77.6367	85.7106	77.6367	85.6568	77.6367	85.5983	77.6367	85.525	77.6367	85.4651	77.6367	85.3691	77.6367	85.3149	77.6367	85.1937	77.6367	85.1532	77.6367	85.0055	77.6367	84.9867	77.6367	84.8134	77.6367	84.8235	77.6367	84.6287	77.6367	84.6721	77.6367	84.4635	77.6367	84.5399	77.6367	84.3285	77.6367	84.4321	77.6367	84.2309	77.6367	84.3501	77.6367	84.1724	77.6367	84.2912	77.6367	84.1485	77.6367	84.2493	77.6367	84.1501	77.6367	84.2176	77.6367	84.1669	77.6367	84.1906
79.1016	86.6376	79.1016	86.6304	79.1016	86.6167	79.1016	86.5957	79.1016	86.5675	79.1016	86.5341	79.1016	86.4898	79.1016	86.4466	79.1016	86.3836	79.1016	86.3343	79.1016	86.2501	79.1016	86.1996	79.1016	86.0914	79.1016	86.0457	79.1016	85.9116	79.1016	85.8775	79.1016	85.7169	79.1016	85.7016	79.1016	85.5163	79.1016	85.5258	79.1016	85.3211	79.1016	85.3591	79.1016	85.1434	79.1016	85.2099	79.1016	84.995	79.1016	85.0848	79.1016	84.8838	79.1016	84.9869	79.1016	84.8124	79.1016	84.9149	79.1016	84.7771	79.1016	84.864	79.1016	84.7696	79.1016	84.8277	79.1016	84.7799	79.1016	84.8003
82.0312	87.3232	82.0312	87.324	82.0312	87.297	82.0312	87.2994	82.0312	87.2455	82.0312	87.2494	82.0312	87.1686	82.0312	87.174	82.0312	87.0668	82.0312	87.074	82.0312	86.9409	82.0312	86.9509	82.0312	86.7932	82.0312	86.8077	82.0312	86.6274	82.0312	86.6488	82.0312	86.4496	82.0312	86.4809	82.0312	86.268	82.0312	86.312	82.0312	86.0929	82.0312	86.1512	82.0312	85.9354	82.0312	86.0075	82.0312	85.8052	82.0312	85.8876	82.0312	85.7086	82.0312	85.7949	82.0312	85.6471	82.0312	85.7282	82.0312	85.6165	82.0312	85.683	82.0312	85.6089	82.0312	85.6525	82.0312	85.6158	82.0312	85.631
84.9609	87.4583	84.9609	87.449	84.9609	87.4509	84.9609	87.4233	84.9609	87.4265	84.9609	87.3811	84.9609	87.3849	84.9609	87.3226	84.9609	87.3259	84.9609	87.2479	84.9609	87.2495	84.9609	87.1578	84.9609	87.1568	84.9609	87.054	84.9609	87.0494	84.9609	86.939	84.9609	86.9303	84.9609	86.8166	84.9609	86.8039	84.9609	86.6916	84.9609	86.6757	84.9609	86.5699	84.9609	86.5521	84.9609	86.4575	84.9609	86.4397	84.9609	86.3601	84.9609	86.3441	84.9609	86.2815	84.9609	86.2688	84.9609	86.2233	84.9609	86.2144	84.9609	86.1844	84.9609	86.1793	84.9609	86.1625	84.9609	86.1602	84.9609	86.1549
87.8906	88.5496	87.8906	88.5407	87.8906	88.5313	87.8906	88.5052	87.8906	88.4856	87.8906	88.4434	87.8906	88.4121	87.8906	88.356	87.8906	88.3107	87.8906	88.2437	87.8906	88.1817	87.8906	88.108	87.8906	88.0259	87.8906	87.9506	87.8906	87.8453	87.8906	87.7745	87.8906	87.6431	87.8906	87.5836	87.8906	87.4249	87.8906	87.3832	87.8906	87.1983	87.8906	87.1798	87.8906	86.9732	87.8906	86.981	87.8906	86.7614	87.8906	86.7942	87.8906	86.5745	87.8906	86.6264	87.8906	86.4222	87.8906	86.4829	87.8906	86.3112	87.8906	86.3676	87.8906	86.2435	87.8906	86.2833	87.8906	86.2183	87.8906	86.2327
90.8203	89.17	90.8203	89.1782	90.8203	89.1362	90.8203	89.1602	90.8203	89.0768	90.8203	89.1155	90.8203	88.9917	90.8203	89.0435	90.8203	88.8805	90.8203	88.9438	90.8203	88.7432	90.8203	88.8165	90.8203	88.5798	90.8203	88.6623	90.8203	88.3916	90.8203	88.4834	90.8203	88.1814	90.8203	88.2834	90.8203	87.9543	90.8203	88.0676	90.8203	87.7179	90.8203	87.8432	90.8203	87.4825	90.8203	87.6188	90.8203	87.2604	90.8203	87.4036	90.8203	87.0642	90.8203	87.2067	90.8203	86.9051	90.8203	87.036	90.8203	86.7907	90.8203	86.897	90.8203	86.7239	90.8203	86.7936	90.8203	86.7041	90.8203	86.7284
95.2148	89.6472	95.2148	89.6634	95.2148	89.609	95.2148	89.6581	95.2148	89.5481	95.2148	89.6315	95.2148	89.4638	95.2148	89.5835	95.2148	89.3556	95.2148	89.5135	95.2148	89.2239	95.2148	89.4212	95.2148	89.0699	95.2148	89.306	95.2148	88.8964	95.2148	89.1683	95.2148	88.7079	95.2148	89.0093	95.2148	88.5105	95.2148	88.8318	95.2148	88.3121	95.2148	88.6407	95.2148	88.1219	95.2148	88.4428	95.2148	87.9493	95.2148	88.2472	95.2148	87.8029	95.2148	88.0636	95.2148	87.6891	95.2148	87.9013	95.2148	87.6115	95.2148	87.7674	95.2148	87.5712	95.2148	87.6662	95.2148	87.5675	95.2148	87.5993
98.1445	89.8254	98.1445	89.8234	98.1445	89.808	98.1445	89.8021	98.1445	89.7708	98.1445	89.761	98.1445	89.7129	98.1445	89.6992	98.1445	89.6339	98.1445	89.6152	98.1445	89.5331	98.1445	89.5076	98.1445	89.4107	98.1445	89.375	98.1445	89.2674	98.1445	89.2172	98.1445	89.105	98.1445	89.0354	98.1445	88.9268	98.1445	88.8334	98.1445	88.7372	98.1445	88.6182	98.1445	88.5427	98.1445	88.3998	98.1445	88.3507	98.1445	88.1909	98.1445	88.1695	98.1445	88.0049	98.1445	88.0069	98.1445	87.8536	98.1445	87.8702	98.1445	87.7451	98.1445	87.765	98.1445	87.6832	98.1445	87.6962	98.1445	87.6678
101.074	89.9643	101.074	89.9531	101.074	89.9612	101.074	89.9278	101.074	89.943	101.074	89.8877	101.074	89.9079	101.074	89.8315	101.074	89.8538	101.074	89.7574	101.074	89.7785	101.074	89.6633	101.074	89.6799	101.074	89.5478	101.074	89.5571	101.074	89.4103	101.074	89.4103	101.074	89.2518	101.074	89.2417	101.074	89.0756	101.074	89.0559	101.074	88.8873	101.074	88.8598	101.074	88.6952	101.074	88.6627	101.074	88.5093	101.074	88.4748	101.074	88.3401	101.074	88.3068	101.074	88.1972	101.074	88.1683	101.074	88.0883	101.074	88.0667	101.074	88.0183	101.074	88.0068	101.074	87.9906
105.469	90.0273	105.469	90.0333	105.469	90.0111	105.469	90.0275	105.469	89.9856	105.469	90.0075	105.469	89.9503	105.469	89.9705	105.469	89.9038	105.469	89.9134	105.469	89.8436	105.469	89.8339	105.469	89.7667	105.469	89.73	105.469	89.67	105.469	89.6012	105.469	89.5509	105.469	89.4489	105.469	89.4087	105.469	89.2765	105.469	89.2447	105.469	89.0898	105.469	89.0635	105.469	88.8968	105.469	88.8727	105.469	88.7072	105.469	88.683	105.469	88.5312	105.469	88.5066	105.469	88.3793	105.469	88.356	105.469	88.2607	105.469	88.242	105.469	88.1834	105.469	88.1729	105.469	88.1531
108.398	90.0014	108.398	89.9714	108.398	90.027	108.398	89.9379	108.398	90.0462	108.398	89.9005	108.398	90.0559	108.398	89.8577	108.398	90.0525	108.398	89.8073	108.398	90.0317	108.398	89.7466	108.398	89.9895	108.398	89.6727	108.398	89.9223	108.398	89.5832	108.398	89.8278	108.398	89.477	108.398	89.7057	108.398	89.3548	108.398	89.5582	108.398	89.2193	108.398	89.3904	108.398	89.0757	108.398	89.2105	108.398	88.9311	108.398	89.0295	108.398	88.7939	108.398	88.8594	108.398	88.6735	108.398	88.7125	108.398	88.5792	108.398	88.5993	108.398	88.5194	108.398	88.5275	108.398	88.5009
112.793	90.6043	112.793	90.5874	112.793	90.6073	112.793	90.5576	112.793	90.595	112.793	90.5149	112.793	90.5656	112.793	90.459	112.793	90.5165	112.793	90.3891	112.793	90.4449	112.793	90.3042	112.793	90.3482	112.793	90.2032	112.793	90.2239	112.793	90.0851	112.793	90.071	112.793	89.9498	112.793	89.8907	112.793	89.798	112.793	89.6871	112.793	89.6313	112.793	89.4675	112.793	89.453	112.793	89.2427	112.793	89.2677	112.793	89.0265	112.793	89.0823	112.793	88.8341	112.793	88.9061	112.793	88.6807	112.793	88.7508	112.793	88.5789	112.793	88.6297	112.793	88.5365	112.793	88.555
117.188	90.4283	117.188	90.453	117.188	90.3964	117.188	90.4705	117.188	90.3566	117.188	90.4791	117.188	90.307	117.188	90.4764	117.188	90.2451	117.188	90.4587	117.188	90.1681	117.188	90.4219	117.188	90.0731	117.188	90.3617	117.188	89.9576	117.188	90.2745	117.188	89.8204	117.188	90.1578	117.188	89.6617	117.188	90.0107	117.188	89.4843	117.188	89.8346	117.188	89.294	117.188	89.6342	117.188	89.0998	117.188	89.4172	117.188	88.9135	117.188	89.1952	117.188	88.749	117.188	88.9826	117.188	88.6203	117.188	88.7952	117.188	88.5396	117.188	88.6479	117.188	88.5157	117.188	88.5523
120.117	90.4619	120.117	90.4878	120.117	90.4311	120.117	90.5084	120.117	90.3949	120.117	90.5211	120.117	90.3512	120.117	90.5225	120.117	90.2971	120.117	90.5078	120.117	90.2291	120.117	90.4718	120.117	90.1437	120.117	90.4094	120.117	90.038	120.117	90.3163	120.117	89.9102	120.117	90.1899	120.117	89.7604	120.117	90.0299	120.117	89.5908	120.117	89.8391	120.117	89.4064	120.117	89.6242	120.117	89.2148	120.117	89.3954	120.117	89.0264	120.117	89.1667	120.117	88.8535	120.117	88.9546	120.117	88.7096	120.117	88.7756	120.117	88.6078	120.117	88.6443	120.117	88.5592	120.117	88.5707
124.512	90.4458	124.512	90.4703	124.512	90.4211	124.512	90.4931	124.512	90.396	124.512	90.5112	124.512	90.3687	124.512	90.5202	124.512	90.3364	124.512	90.5148	124.512	90.2953	124.512	90.4892	124.512	90.2414	124.512	90.4381	124.512	90.171	124.512	90.3571	124.512	90.0811	124.512	90.2434	124.512	89.9695	124.512	90.0967	124.512	89.8357	124.512	89.9198	124.512	89.6814	124.512	89.7191	124.512	89.5109	124.512	89.505	124.512	89.332	124.512	89.2918	124.512	89.1562	124.512	89.0966	124.512	88.9982	124.512	88.9371	124.512	88.8737	124.512	88.8287	124.512	88.7978	124.512	88.7812
128.906	90.6232	128.906	90.6278	128.906	90.6116	128.906	90.6246	128.906	90.5925	128.906	90.6119	128.906	90.5647	128.906	90.5869	128.906	90.5258	128.906	90.546	128.906	90.4731	128.906	90.485	128.906	90.4033	128.906	90.3995	128.906	90.3129	128.906	90.2856	128.906	90.1986	128.906	90.1403	128.906	90.0573	128.906	89.9628	128.906	89.8874	128.906	89.7547	128.906	89.6897	128.906	89.5222	128.906	89.4688	128.906	89.2761	128.906	89.2343	128.906	89.0321	128.906	89.0013	128.906	88.8102	128.906	88.7889	128.906	88.6314	128.906	88.6182	128.906	88.5144	128.906	88.5081	128.906	88.4718
133.301	90.4424	133.301	90.4408	133.301	90.4425	133.301	90.4371	133.301	90.4401	133.301	90.4283	133.301	90.4325	133.301	90.4106	133.301	90.4153	133.301	90.3792	133.301	90.3834	133.301	90.3291	133.301	90.3318	133.301	90.2556	133.301	90.256	133.301	90.1552	133.301	90.1525	133.301	90.0255	133.301	90.0196	133.301	89.8667	133.301	89.8576	133.301	89.6819	133.301	89.6699	133.301	89.4777	133.301	89.4635	133.301	89.265	133.301	89.2494	133.301	89.0578	133.301	89.0421	133.301	88.8726	133.301	88.8583	133.301	88.7252	133.301	88.7142	133.301	88.6294	133.301	88.6234	133.301	88.5942
139.16	89.8338	139.16	89.8087	139.16	89.8717	139.16	89.7968	139.16	89.9194	139.16	89.7957	139.16	89.9715	139.16	89.8008	139.16	90.0207	139.16	89.8059	139.16	90.0585	139.16	89.8037	139.16	90.0764	139.16	89.7872	139.16	90.067	139.16	89.75	139.16	90.0249	139.16	89.6877	139.16	89.9477	139.16	89.599	139.16	89.8366	139.16	89.4857	139.16	89.6966	139.16	89.3535	139.16	89.5359	139.16	89.2113	139.16	89.3652	139.16	89.071	139.16	89.1968	139.16	88.946	139.16	89.0432	139.16	88.8499	139.16	88.9168	139.16	88.7942	139.16	88.8284	139.16	88.7863
143.555	89.9625	143.555	89.93	143.555	89.9951	143.555	89.8989	143.555	90.0256	143.555	89.8694	143.555	90.0509	143.555	89.8402	143.555	90.0669	143.555	89.8084	143.555	90.068	143.555	89.7695	143.555	90.0476	143.555	89.7174	143.555	89.9987	143.555	89.6456	143.555	89.9153	143.555	89.5484	143.555	89.7934	143.555	89.4218	143.555	89.6329	143.555	89.2654	143.555	89.4378	143.555	89.0829	143.555	89.2169	143.555	88.883	143.555	88.9828	143.555	88.6795	143.555	88.7513	143.555	88.4907	143.555	88.5404	143.555	88.3374	143.555	88.369	143.555	88.2389	143.555	88.2545	143.555	88.2095
147.949	90.2462	147.949	90.2868	147.949	90.1977	147.949	90.3178	147.949	90.1424	147.949	90.3361	147.949	90.0799	147.949	90.3379	147.949	90.0084	147.949	90.3185	147.949	89.9247	147.949	90.2726	147.949	89.8245	147.949	90.1941	147.949	89.7023	147.949	90.0774	147.949	89.5528	147.949	89.9174	147.949	89.3718	147.949	89.7113	147.949	89.1576	147.949	89.4596	147.949	88.9124	147.949	89.1675	147.949	88.6435	147.949	88.8465	147.949	88.3639	147.949	88.5144	147.949	88.0932	147.949	88.1956	147.949	87.856	147.949	87.9186	147.949	87.6795	147.949	87.7118	147.949	87.5881	147.949	87.5979
153.809	89.7289	153.809	89.7368	153.809	89.7249	153.809	89.7486	153.809	89.7228	153.809	89.7619	153.809	89.7186	153.809	89.7719	153.809	89.7071	153.809	89.7721	153.809	89.6824	153.809	89.7547	153.809	89.6385	153.809	89.712	153.809	89.5695	153.809	89.6369	153.809	89.4709	153.809	89.5246	153.809	89.3405	153.809	89.3734	153.809	89.1789	153.809	89.1855	153.809	88.9907	153.809	88.9679	153.809	88.7836	153.809	88.7326	153.809	88.5692	153.809	88.4962	153.809	88.3618	153.809	88.2786	153.809	88.1778	153.809	88.1004	153.809	88.0343	153.809	87.9792	153.809	87.9467	153.809	87.9268
159.668	89.733	159.668	89.7305	159.668	89.7414	159.668	89.7331	159.668	89.7536	159.668	89.7373	159.668	89.7653	159.668	89.7376	159.668	89.7702	159.668	89.7271	159.668	89.7613	159.668	89.6989	159.668	89.7314	159.668	89.6462	159.668	89.6743	159.668	89.5639	159.668	89.585	159.668	89.4483	159.668	89.4608	159.668	89.2983	159.668	89.3019	159.668	89.1157	159.668	89.1117	159.668	88.9064	159.668	88.8975	159.668	88.6809	159.668	88.6706	159.668	88.4545	159.668	88.4462	159.668	88.2468	159.668	88.2421	159.668	88.0788	159.668	88.0773	159.668	87.9695	159.668	87.9694	159.668	87.9316
165.527	89.7085	165.527	89.7128	165.527	89.7116	165.527	89.7227	165.527	89.7215	165.527	89.7342	165.527	89.7357	165.527	89.742	165.527	89.7492	165.527	89.7396	165.527	89.7555	165.527	89.7201	165.527	89.7477	165.527	89.6767	165.527	89.7185	165.527	89.6035	165.527	89.6615	165.527	89.4963	165.527	89.5716	165.527	89.3537	165.527	89.4456	165.527	89.1776	165.527	89.2835	165.527	88.9746	165.527	89.0892	165.527	88.7559	165.527	88.872	165.527	88.538	165.527	88.6467	165.527	88.3409	165.527	88.4329	165.527	88.1857	165.527	88.2525	165.527	88.0913	165.527	88.1266	165.527	88.0705
171.387	89.3853	171.387	89.389	171.387	89.3887	171.387	89.399	171.387	89.3985	171.387	89.4132	171.387	89.4124	171.387	89.4281	171.387	89.427	171.387	89.439	171.387	89.438	171.387	89.44	171.387	89.4405	171.387	89.4247	171.387	89.4292	171.387	89.3861	171.387	89.3982	171.387	89.318	171.387	89.3419	171.387	89.2157	171.387	89.2552	171.387	89.0775	171.387	89.1347	171.387	88.9071	171.387	88.981	171.387	88.7142	171.387	88.8003	171.387	88.515	171.387	88.6051	171.387	88.3307	171.387	88.4139	171.387	88.1841	171.387	88.2485	171.387	88.0952	171.387	88.1304	171.387	88.0766
177.246	89.1308	177.246	89.1332	177.246	89.1384	177.246	89.1463	177.246	89.1537	177.246	89.1688	177.246	89.1719	177.246	89.1977	177.246	89.186	177.246	89.228	177.246	89.1875	177.246	89.2528	177.246	89.1672	177.246	89.2636	177.246	89.117	177.246	89.2509	177.246	89.0311	177.246	89.2053	177.246	88.9067	177.246	89.119	177.246	88.7449	177.246	88.9868	177.246	88.5504	177.246	88.8081	177.246	88.3318	177.246	88.5881	177.246	88.1029	177.246	88.3394	177.246	87.8822	177.246	88.0825	177.246	87.6927	177.246	87.8439	177.246	87.5588	177.246	87.6525	177.246	87.5017	177.246	87.5334
183.105	89.1501	183.105	89.1579	183.105	89.1504	183.105	89.1732	183.105	89.1569	183.105	89.1935	183.105	89.1654	183.105	89.2143	183.105	89.1695	183.105	89.2299	183.105	89.1607	183.105	89.2336	183.105	89.129	183.105	89.2181	183.105	89.0646	183.105	89.176	183.105	88.9591	183.105	89.1	183.105	88.807	183.105	88.9845	183.105	88.6084	183.105	88.8263	183.105	88.3693	183.105	88.6262	183.105	88.1038	183.105	88.3902	183.105	87.8326	183.105	88.1303	183.105	87.5824	183.105	87.8647	183.105	87.3811	183.105	87.6162	183.105	87.2534	183.105	87.41	183.105	87.2151	183.105	87.2702
188.965	88.6512	188.965	88.6763	188.965	88.6408	188.965	88.7149	188.965	88.6435	188.965	88.7634	188.965	88.6554	188.965	88.8158	188.965	88.6708	188.965	88.8645	188.965	88.6821	188.965	88.9013	188.965	88.681	188.965	88.9176	188.965	88.6594	188.965	88.9057	188.965	88.6108	188.965	88.8594	188.965	88.5324	188.965	88.7746	188.965	88.4255	188.965	88.6507	188.965	88.2954	188.965	88.4914	188.965	88.1506	188.965	88.3057	188.965	88.0013	188.965	88.1081	188.965	87.858	188.965	87.9178	188.965	87.7321	188.965	87.7557	188.965	87.6358	188.965	87.6398	188.965	87.5818	188.965	87.5812
196.289	89.0879	196.289	89.1114	196.289	89.0655	196.289	89.1314	196.289	89.0472	196.289	89.1427	196.289	89.0331	196.289	89.1399	196.289	89.0199	196.289	89.118	196.289	89.0013	196.289	89.0713	196.289	88.9682	196.289	88.9937	196.289	88.9103	196.289	88.8784	196.289	88.8175	196.289	88.7191	196.289	88.6817	196.289	88.5126	196.289	88.4982	196.289	88.2604	196.289	88.2672	196.289	87.9709	196.289	87.9955	196.289	87.6605	196.289	87.6975	196.289	87.3524	196.289	87.3948	196.289	87.0745	196.289	87.1148	196.289	86.8549	196.289	86.8862	196.289	86.7169	196.289	86.734	196.289	86.6753
203.613	88.6276	203.613	88.6388	203.613	88.6242	203.613	88.6595	203.613	88.6236	203.613	88.6881	203.613	88.6189	203.613	88.7195	203.613	88.6025	203.613	88.7458	203.613	88.5675	203.613	88.7577	203.613	88.5089	203.613	88.745	203.613	88.424	203.613	88.6984	203.613	88.3121	203.613	88.6097	203.613	88.1731	203.613	88.4733	203.613	88.0078	203.613	88.2871	203.613	87.8174	203.613	88.0547	203.613	87.6054	203.613	87.7865	203.613	87.3795	203.613	87.5007	203.613	87.1538	203.613	87.2223	203.613	86.9491	203.613	86.9797	203.613	86.7908	203.613	86.8005	203.613	86.7038	203.613	86.7054
210.938	88.4716	210.938	88.4485	210.938	88.4932	210.938	88.4229	210.938	88.5136	210.938	88.3947	210.938	88.531	210.938	88.3646	210.938	88.5403	210.938	88.3328	210.938	88.5333	210.938	88.2978	210.938	88.5008	210.938	88.2543	210.938	88.4349	210.938	88.1927	210.938	88.3312	210.938	88.101	210.938	88.1897	210.938	87.9676	210.938	88.0139	210.938	87.786	210.938	87.8098	210.938	87.5581	210.938	87.5844	210.938	87.2969	210.938	87.3458	210.938	87.0266	210.938	87.1046	210.938	86.7787	210.938	86.8749	210.938	86.5863	210.938	86.6757	210.938	86.475	210.938	86.5292	210.938	86.4571
218.262	88.3579	218.262	88.3733	218.262	88.341	218.262	88.3858	218.262	88.3239	218.262	88.3936	218.262	88.3076	218.262	88.3943	218.262	88.2913	218.262	88.3843	218.262	88.2711	218.262	88.359	218.262	88.2389	218.262	88.3132	218.262	88.1836	218.262	88.2411	218.262	88.0932	218.262	88.1371	218.262	87.958	218.262	87.9957	218.262	87.7743	218.262	87.8133	218.262	87.5454	218.262	87.5901	218.262	87.2828	218.262	87.3322	218.262	87.0054	218.262	87.0543	218.262	86.7373	218.262	86.7792	218.262	86.5052	218.262	86.5356	218.262	86.3346	218.262	86.3522	218.262	86.2462	218.262	86.2518
225.586	88.1552	225.586	88.1504	225.586	88.1553	225.586	88.1438	225.586	88.1477	225.586	88.1372	225.586	88.1296	225.586	88.13	225.586	88.0987	225.586	88.1193	225.586	88.0528	225.586	88.0996	225.586	87.9882	225.586	88.0634	225.586	87.8996	225.586	88.0019	225.586	87.7805	225.586	87.9057	225.586	87.6249	225.586	87.7667	225.586	87.4297	225.586	87.5801	225.586	87.1979	225.586	87.3467	225.586	86.9392	225.586	87.0747	225.586	86.67	225.586	86.7811	225.586	86.4115	225.586	86.4913	225.586	86.1874	225.586	86.2359	225.586	86.0213	225.586	86.0449	225.586	85.9344	225.586	85.941
232.91	87.8951	232.91	87.8758	232.91	87.9073	232.91	87.8515	232.91	87.9105	232.91	87.8236	232.91	87.9022	232.91	87.7932	232.91	87.8795	232.91	87.7595	232.91	87.8389	232.91	87.72	232.91	87.7764	232.91	87.6695	232.91	87.6878	232.91	87.6005	232.91	87.5698	232.91	87.5042	232.91	87.4203	232.91	87.372	232.91	87.2393	232.91	87.1979	232.91	87.0297	232.91	86.9818	232.91	86.7975	232.91	86.7318	232.91	86.5531	232.91	86.4656	232.91	86.3111	232.91	86.2095	232.91	86.0909	232.91	85.9931	232.91	85.9148	232.91	85.8435	232.91	85.8051	232.91	85.7789
241.699	87.5944	241.699	87.5812	241.699	87.6011	241.699	87.5609	241.699	87.6013	241.699	87.5335	241.699	87.5938	241.699	87.499	241.699	87.575	241.699	87.4567	241.699	87.5386	241.699	87.4044	241.699	87.4767	241.699	87.3373	241.699	87.3818	241.699	87.2481	241.699	87.2486	241.699	87.1288	241.699	87.0761	241.699	86.9724	241.699	86.8688	241.699	86.7762	241.699	86.6365	241.699	86.5437	241.699	86.3932	241.699	86.2869	241.699	86.1539	241.699	86.0259	241.699	85.9323	241.699	85.7868	241.699	85.739	241.699	85.5971	241.699	85.5842	241.699	85.4785	241.699	85.48	241.699	85.4407
250.488	87.4104	250.488	87.3778	250.488	87.4289	250.488	87.3328	250.488	87.433	250.488	87.2771	250.488	87.4222	250.488	87.2116	250.488	87.396	250.488	87.135	250.488	87.3516	250.488	87.0441	250.488	87.2845	250.488	86.9349	250.488	87.1889	250.488	86.8047	250.488	87.0588	250.488	86.6527	250.488	86.8895	250.488	86.4801	250.488	86.679	250.488	86.2895	250.488	86.4305	250.488	86.0842	250.488	86.1552	250.488	85.8698	250.488	85.8731	250.488	85.6562	250.488	85.6101	250.488	85.4586	250.488	85.3918	250.488	85.2952	250.488	85.2354	250.488	85.1824	250.488	85.1484	250.488	85.1316
259.277	87.3575	259.277	87.3329	259.277	87.3763	259.277	87.3029	259.277	87.3902	259.277	87.2691	259.277	87.4004	259.277	87.2332	259.277	87.4062	259.277	87.194	259.277	87.4037	259.277	87.145	259.277	87.3857	259.277	87.073	259.277	87.3417	259.277	86.9607	259.277	87.2602	259.277	86.7915	259.277	87.131	259.277	86.556	259.277	86.947	259.277	86.2569	259.277	86.7062	259.277	85.9122	259.277	86.4121	259.277	85.5535	259.277	86.0766	259.277	85.2199	259.277	85.7208	259.277	84.9481	259.277	85.3751	259.277	84.765	259.277	85.0732	259.277	84.685	259.277	84.8455	259.277	84.7126
268.066	86.8996	268.066	86.895	268.066	86.8953	268.066	86.8772	268.066	86.8865	268.066	86.8438	268.066	86.8759	268.066	86.796	268.066	86.8633	268.066	86.7383	268.066	86.8457	268.066	86.6765	268.066	86.8177	268.066	86.6144	268.066	86.7719	268.066	86.5491	268.066	86.6995	268.066	86.4697	268.066	86.5918	268.066	86.3589	268.066	86.4413	268.066	86.1997	268.066	86.244	268.066	85.9836	268.066	86.0021	268.066	85.7183	268.066	85.7264	268.066	85.4288	268.066	85.4377	268.066	85.1526	268.066	85.1653	268.066	84.9282	268.066	84.9413	268.066	84.7848	268.066	84.7931	268.066	84.7385
276.855	86.8558	276.855	86.8643	276.855	86.8345	276.855	86.8511	276.855	86.8069	276.855	86.8084	276.855	86.7725	276.855	86.7319	276.855	86.7226	276.855	86.6224	276.855	86.6428	276.855	86.4861	276.855	86.5216	276.855	86.335	276.855	86.3567	276.855	86.1829	276.855	86.1578	276.855	86.0375	276.855	85.9408	276.855	85.8924	276.855	85.7182	276.855	85.726	276.855	85.4913	276.855	85.5117	276.855	85.2527	276.855	85.2346	276.855	84.9966	276.855	84.9072	276.855	84.7294	276.855	84.572	276.855	84.4719	276.855	84.2886	276.855	84.2534	276.855	84.1069	276.855	84.1033	276.855	84.0475
287.109	86.6706	287.109	86.665	287.109	86.6386	287.109	86.627	287.109	86.5777	287.109	86.5683	287.109	86.5112	287.109	86.4988	287.109	86.4671	287.109	86.4205	287.109	86.4578	287.109	86.3251	287.109	86.4642	287.109	86.1994	287.109	86.4393	287.109	86.0334	287.109	86.3308	287.109	85.8287	287.109	86.106	287.109	85.6002	287.109	85.7652	287.109	85.3691	287.109	85.3423	287.109	85.1513	287.109	84.8935	287.109	84.9491	287.109	84.4797	287.109	84.7539	287.109	84.1504	287.109	84.5557	287.109	83.935	287.109	84.3518	287.109	83.8426	287.109	84.1521	287.109	83.8652	287.109	83.9792
297.363	86.2352	297.363	86.3413	297.363	86.1224	297.363	86.4291	297.363	86.0098	297.363	86.4853	297.363	85.9005	297.363	86.5005	297.363	85.8008	297.363	86.4714	297.363	85.7244	297.363	86.399	297.363	85.6876	297.363	86.285	297.363	85.6928	297.363	86.1282	297.363	85.7145	297.363	85.926	297.363	85.7043	297.363	85.6777	297.363	85.6138	297.363	85.3887	297.363	85.4192	297.363	85.0743	297.363	85.1345	297.363	84.7625	297.363	84.8105	297.363	84.4919	297.363	84.5158	297.363	84.2986	297.363	84.3061	297.363	84.1948	297.363	84.1961	297.363	84.1584	297.363	84.1586	297.363	84.1523
307.617	86.2154	307.617	86.2043	307.617	86.2061	307.617	86.1773	307.617	86.1725	307.617	86.1404	307.617	86.1086	307.617	86.0994	307.617	86.007	307.617	86.0558	307.617	85.8649	307.617	86.0042	307.617	85.6916	307.617	85.9342	307.617	85.5116	307.617	85.8348	307.617	85.3563	307.617	85.7004	307.617	85.2434	307.617	85.5305	307.617	85.1589	307.617	85.3239	307.617	85.0577	307.617	85.0712	307.617	84.8844	307.617	84.7552	307.617	84.6009	307.617	84.3652	307.617	84.2087	307.617	83.9201	307.617	83.7594	307.617	83.4821	307.617	83.3451	307.617	83.1444	307.617	83.0658	307.617	82.9925
319.336	85.0711	319.336	85.1486	319.336	84.9848	319.336	85.2109	319.336	84.9033	319.336	85.2606	319.336	84.8411	319.336	85.3041	319.336	84.8044	319.336	85.3459	319.336	84.7867	319.336	85.3835	319.336	84.7741	319.336	85.4045	319.336	84.7532	319.336	85.3878	319.336	84.7169	319.336	85.3098	319.336	84.6628	319.336	85.156	319.336	84.5885	319.336	84.9298	319.336	84.4901	319.336	84.6546	319.336	84.3636	319.336	84.3632	319.336	84.2084	319.336	84.0846	319.336	84.0293	319.336	83.8379	319.336	83.8389	319.336	83.6393	319.336	83.6605	319.336	83.51	319.336	83.5268	319.336	83.4707
329.59	84.2543	329.59	84.3686	329.59	84.1205	329.59	84.4676	329.59	83.9732	329.59	84.5601	329.59	83.8298	329.59	84.6531	329.59	83.7158	329.59	84.7482	329.59	83.6556	329.59	84.8409	329.59	83.664	329.59	84.9235	329.59	83.7403	329.59	84.9893	329.59	83.8674	329.59	85.0315	329.59	84.0124	329.59	85.0401	329.59	84.1336	329.59	84.9997	329.59	84.1929	329.59	84.8947	329.59	84.1688	329.59	84.7194	329.59	84.0646	329.59	84.4846	329.59	83.9074	329.59	84.2175	329.59	83.7402	329.59	83.9557	329.59	83.6098	329.59	83.7382	329.59	83.5552	329.59	83.598
341.309	85.1092	341.309	85.062	341.309	85.0517	341.309	84.9367	341.309	84.8839	341.309	84.7746	341.309	84.6215	341.309	84.6193	341.309	84.2952	341.309	84.5053	341.309	83.9434	341.309	84.4548	341.309	83.6058	341.309	84.4804	341.309	83.3244	341.309	84.5813	341.309	83.1482	341.309	84.7349	341.309	83.1237	341.309	84.8987	341.309	83.2641	341.309	85.0254	341.309	83.5242	341.309	85.0831	341.309	83.8204	341.309	85.0651	341.309	84.0793	341.309	84.9893	341.309	84.2705	341.309	84.8881	341.309	84.4028	341.309	84.7917	341.309	84.4997	341.309	84.7129	341.309	84.578	341.309	84.646
353.027	85.9975	353.027	85.9451	353.027	85.9487	353.027	85.7954	353.027	85.7943	353.027	85.5559	353.027	85.5328	353.027	85.2448	353.027	85.1722	353.027	84.8947	353.027	84.7338	353.027	84.5476	353.027	84.2523	353.027	84.2452	353.027	83.7714	353.027	84.0248	353.027	83.3427	353.027	83.924	353.027	83.0223	353.027	83.9731	353.027	82.8551	353.027	84.1666	353.027	82.8533	353.027	84.4449	353.027	82.9949	353.027	84.7184	353.027	83.245	353.027	84.9161	353.027	83.5715	353.027	85.0144	353.027	83.9396	353.027	85.0265	353.027	84.3031	353.027	84.9684	353.027	84.6125	353.027	84.8353
366.211	86.4473	366.211	86.3249	366.211	86.4653	366.211	86.1058	366.211	86.3761	366.211	85.8071	366.211	86.1787	366.211	85.4535	366.211	85.8755	366.211	85.0698	366.211	85.4794	366.211	84.6751	366.211	85.016	366.211	84.2889	366.211	84.5133	366.211	83.9482	366.211	83.9894	366.211	83.714	366.211	83.4598	366.211	83.6448	366.211	82.9747	366.211	83.7455	366.211	82.6428	366.211	83.9513	366.211	82.5725	366.211	84.1683	366.211	82.7621	366.211	84.3262	366.211	83.0942	366.211	84.3977	366.211	83.4436	366.211	84.3872	366.211	83.7463	366.211	84.3097	366.211	83.9891	366.211	84.1759
379.395	86.412	379.395	86.3588	379.395	86.41	379.395	86.2328	379.395	86.3606	379.395	86.0206	379.395	86.2541	379.395	85.728	379.395	86.0682	379.395	85.3855	379.395	85.7825	379.395	85.0382	379.395	85.3971	379.395	84.7224	379.395	84.9447	379.395	84.4454	379.395	84.4873	379.395	84.1906	379.395	84.0867	379.395	83.9435	379.395	83.7681	379.395	83.7163	379.395	83.5134	379.395	83.5491	379.395	83.2991	379.395	83.4835	379.395	83.1352	379.395	83.5253	379.395	83.0607	379.395	83.6274	379.395	83.1042	379.395	83.7133	379.395	83.251	379.395	83.7188	379.395	83.4466	379.395	83.6217
392.578	86.0885	392.578	86.0286	392.578	86.0549	392.578	85.8808	392.578	85.9346	392.578	85.6556	392.578	85.7471	392.578	85.3611	392.578	85.5126	392.578	85.0028	392.578	85.2377	392.578	84.5871	392.578	84.9131	392.578	84.1294	392.578	84.5298	392.578	83.6675	392.578	84.1007	392.578	83.2774	392.578	83.6693	392.578	83.0559	392.578	83.2986	392.578	83.051	392.578	83.0477	392.578	83.2044	392.578	82.9486	392.578	83.3958	392.578	82.9921	392.578	83.5361	392.578	83.1313	392.578	83.6083	392.578	83.3046	392.578	83.6388	392.578	83.4617	392.578	83.6488	392.578	83.5738	392.578	83.633
405.762	85.5455	405.762	85.4527	405.762	85.58	405.762	85.3056	405.762	85.5378	405.762	85.0919	405.762	85.3999	405.762	84.7944	405.762	85.1609	405.762	84.4078	405.762	84.8344	405.762	83.9488	405.762	84.4438	405.762	83.4489	405.762	84.0109	405.762	82.9443	405.762	83.5547	405.762	82.4846	405.762	83.1061	405.762	82.1567	405.762	82.7183	405.762	82.0631	405.762	82.4566	405.762	82.2262	405.762	82.3659	405.762	82.5366	405.762	82.4403	405.762	82.839	405.762	82.6229	405.762	83.0422	405.762	82.8358	405.762	83.1422	405.762	83.0136	405.762	83.1769	405.762	83.1249	405.762	83.1729
420.41	86.103	420.41	86.0205	420.41	86.0768	420.41	85.8213	420.41	85.9583	420.41	85.5187	420.41	85.7545	420.41	85.1449	420.41	85.457	420.41	84.7335	420.41	85.053	420.41	84.3003	420.41	84.5428	420.41	83.8347	420.41	83.9519	420.41	83.3063	420.41	83.3269	420.41	82.6879	420.41	82.7192	420.41	82.0033	420.41	82.1716	420.41	81.3873	420.41	81.7209	420.41	81.0713	420.41	81.4104	420.41	81.1932	420.41	81.2913	420.41	81.6304	420.41	81.3986	420.41	82.1378	420.41	81.7102	420.41	82.5388	420.41	82.1269	420.41	82.749	420.41	82.5085	420.41	82.7363
435.059	85.7689	435.059	85.7245	435.059	85.7065	435.059	85.5734	435.059	85.556	435.059	85.3314	435.059	85.347	435.059	85.0196	435.059	85.1037	435.059	84.6522	435.059	84.8288	435.059	84.2338	435.059	84.5032	435.059	83.7694	435.059	84.0982	435.059	83.2804	435.059	83.5945	435.059	82.8108	435.059	83.0081	435.059	82.4102	435.059	82.419	435.059	82.1132	435.059	81.9677	435.059	81.9385	435.059	81.7729	435.059	81.899	435.059	81.8326	435.059	81.9923	435.059	82.042	435.059	82.1807	435.059	82.2885	435.059	82.3976	435.059	82.4994	435.059	82.5739	435.059	82.632	435.059	82.6593
451.172	85.4653	451.172	85.4081	451.172	85.4206	451.172	85.2695	451.172	85.2628	451.172	85.0657	451.172	85.0017	451.172	84.8033	451.172	84.6623	451.172	84.4802	451.172	84.2678	451.172	84.0804	451.172	83.8329	451.172	83.5741	451.172	83.3717	451.172	82.9363	451.172	82.897	451.172	82.1901	451.172	82.3959	451.172	81.4505	451.172	81.8287	451.172	80.9125	451.172	81.1942	451.172	80.7257	451.172	80.6286	451.172	80.8706	451.172	80.4004	451.172	81.2062	451.172	80.6492	451.172	81.5892	451.172	81.18	451.172	81.9184	451.172	81.6964	451.172	82.1286	451.172	82.0399	451.172	82.1786
465.82	85.4042	465.82	85.3668	465.82	85.4171	465.82	85.282	465.82	85.3799	465.82	85.0974	465.82	85.2425	465.82	84.7819	465.82	84.9687	465.82	84.3608	465.82	84.5495	465.82	83.8957	465.82	83.9874	465.82	83.4195	465.82	83.2908	465.82	82.8991	465.82	82.5089	465.82	82.287	465.82	81.768	465.82	81.6152	465.82	81.212	465.82	81.0301	465.82	80.8613	465.82	80.6986	465.82	80.6121	465.82	80.6582	465.82	80.4128	465.82	80.8174	465.82	80.3498	465.82	81.0702	465.82	80.522	465.82	81.3301	465.82	80.8829	465.82	81.5008	465.82	81.2597	465.82	81.4887
483.398	85.1126	483.398	85.0442	483.398	85.1246	483.398	84.9271	483.398	85.0555	483.398	84.7447	483.398	84.8778	483.398	84.4662	483.398	84.5789	483.398	84.0724	483.398	84.172	483.398	83.5772	483.398	83.684	483.398	83.0184	483.398	83.124	483.398	82.4089	483.398	82.4623	483.398	81.7054	483.398	81.6627	483.398	80.8821	483.398	80.7778	483.398	80.0863	483.398	80.045	483.398	79.6661	483.398	79.7739	483.398	79.8243	483.398	79.9916	483.398	80.3178	483.398	80.424	483.398	80.7858	483.398	80.8278	483.398	81.0828	483.398	81.1097	483.398	81.2363	483.398	81.2597	483.398	81.2945
499.512	84.7562	499.512	84.6621	499.512	84.7569	499.512	84.493	499.512	84.6842	499.512	84.2949	499.512	84.5668	499.512	84.0914	499.512	84.4052	499.512	83.8471	499.512	84.1616	499.512	83.496	499.512	83.7848	499.512	83.0094	499.512	83.2479	499.512	82.4299	499.512	82.5671	499.512	81.8215	499.512	81.79	499.512	81.1865	499.512	80.9709	499.512	80.4874	499.512	80.1679	499.512	79.8033	499.512	79.4884	499.512	79.4136	499.512	79.1165	499.512	79.5287	499.512	79.1844	499.512	79.9724	499.512	79.5913	499.512	80.413	499.512	80.0873	499.512	80.6641	499.512	80.4797	499.512	80.6826
517.09	84.369	517.09	84.3982	517.09	84.3086	517.09	84.3658	517.09	84.2265	517.09	84.2347	517.09	84.116	517.09	83.9841	517.09	83.9675	517.09	83.6209	517.09	83.7698	517.09	83.1533	517.09	83.4978	517.09	82.5549	517.09	83.1059	517.09	81.7855	517.09	82.5427	517.09	80.863	517.09	81.7877	517.09	79.9183	517.09	80.8989	517.09	79.1686	517.09	80.0463	517.09	78.7985	517.09	79.4808	517.09	78.8573	517.09	79.3967	517.09	79.2594	517.09	79.7714	517.09	79.8459	517.09	80.3748	517.09	80.4552	517.09	80.9325	517.09	80.9581	517.09	81.2503	517.09	81.2505
536.133	83.6744	536.133	83.6301	536.133	83.6726	536.133	83.5407	536.133	83.5954	536.133	83.3852	536.133	83.4098	536.133	83.1584	536.133	83.1114	536.133	82.8944	536.133	82.7319	536.133	82.6305	536.133	82.3043	536.133	82.3294	536.133	81.8149	536.133	81.8563	536.133	81.2028	536.133	81.0651	536.133	80.4117	536.133	79.9447	536.133	79.4578	536.133	78.7597	536.133	78.5157	536.133	77.9964	536.133	77.9395	536.133	77.8668	536.133	77.973	536.133	78.1296	536.133	78.4495	536.133	78.5798	536.133	79.0677	536.133	79.1582	536.133	79.6435	536.133	79.7295	536.133	80.0261	536.133	80.0666
555.176	84.0513	555.176	83.9915	555.176	84.0291	555.176	83.8842	555.176	83.9201	555.176	83.752	555.176	83.7443	555.176	83.5609	555.176	83.5096	555.176	83.2386	555.176	83.1846	555.176	82.7495	555.176	82.7138	555.176	82.1348	555.176	82.06	555.176	81.448	555.176	81.2375	555.176	80.6505	555.176	80.3163	555.176	79.6309	555.176	79.3867	555.176	78.3647	555.176	78.4928	555.176	77.1433	555.176	77.6536	555.176	76.69	555.176	77.0778	555.176	77.3617	555.176	77.1914	555.176	78.4185	555.176	77.9651	555.176	79.1575	555.176	78.8017	555.176	79.4724	555.176	79.3162	555.176	79.5082
574.219	84.0629	574.219	84.042	574.219	84.0079	574.219	83.9491	574.219	83.8859	574.219	83.7974	574.219	83.7105	574.219	83.595	574.219	83.4895	574.219	83.3224	574.219	83.2256	574.219	82.9391	574.219	82.9039	574.219	82.4288	574.219	82.4572	574.219	81.813	574.219	81.7831	574.219	81.0843	574.219	80.8462	574.219	80.153	574.219	79.7583	574.219	78.9751	574.219	78.7181	574.219	77.7747	574.219	77.929	574.219	77.0058	574.219	77.6526	574.219	76.9787	574.219	77.977	574.219	77.6585	574.219	78.5891	574.219	78.6548	574.219	79.1849	574.219	79.4542	574.219	79.6285	574.219	79.7736
594.727	84.05	594.727	84.0418	594.727	83.9735	594.727	83.9191	594.727	83.8441	594.727	83.717	594.727	83.6567	594.727	83.5137	594.727	83.4015	594.727	83.3237	594.727	83.085	594.727	83.034	594.727	82.7028	594.727	82.4854	594.727	82.2368	594.727	81.6374	594.727	81.6558	594.727	80.6375	594.727	80.8548	594.727	79.6316	594.727	79.6732	594.727	78.5574	594.727	78.1427	594.727	77.4493	594.727	76.8366	594.727	76.9144	594.727	76.6012	594.727	77.361	594.727	77.3477	594.727	78.1414	594.727	78.3419	594.727	78.7956	594.727	79.1534	594.727	79.3212	594.727	79.6113	594.727	79.6477
615.234	83.6277	615.234	83.631	615.234	83.6094	615.234	83.6582	615.234	83.5292	615.234	83.651	615.234	83.3989	615.234	83.5042	615.234	83.2391	615.234	83.1976	615.234	83.0328	615.234	82.8184	615.234	82.737	615.234	82.4	615.234	82.2814	615.234	81.8031	615.234	81.5791	615.234	80.8694	615.234	80.5896	615.234	79.6302	615.234	79.3745	615.234	78.1937	615.234	78.1427	615.234	76.5069	615.234	77.2275	615.234	75.0864	615.234	76.8399	615.234	75.3728	615.234	76.8829	615.234	76.7321	615.234	77.1945	615.234	77.7863	615.234	77.6837	615.234	78.3123	615.234	78.1679	615.234	78.418
637.207	83.6279	637.207	83.6456	637.207	83.5849	637.207	83.6344	637.207	83.5499	637.207	83.6068	637.207	83.534	637.207	83.5354	637.207	83.4895	637.207	83.3727	637.207	83.3219	637.207	83.0901	637.207	82.971	637.207	82.6691	637.207	82.4752	637.207	82.1073	637.207	81.8754	637.207	81.3949	637.207	81.0884	637.207	80.4563	637.207	80.007	637.207	79.2677	637.207	78.6555	637.207	78.0613	637.207	77.2241	637.207	77.1507	637.207	76.2914	637.207	76.7475	637.207	76.6014	637.207	77.0509	637.207	77.6977	637.207	77.8203	637.207	78.6378	637.207	78.5712	637.207	79.0764	637.207	79.0284
659.18	83.1797	659.18	83.1921	659.18	83.1236	659.18	83.1682	659.18	83.0334	659.18	83.1006	659.18	82.933	659.18	82.975	659.18	82.8382	659.18	82.7965	659.18	82.744	659.18	82.5718	659.18	82.6035	659.18	82.288	659.18	82.354	659.18	81.8769	659.18	81.9256	659.18	81.1869	659.18	81.1537	659.18	80.1084	659.18	79.8632	659.18	78.7447	659.18	78.2313	659.18	77.4064	659.18	76.8931	659.18	76.6287	659.18	76.1935	659.18	76.9774	659.18	76.2893	659.18	78.08	659.18	77.5144	659.18	79.1507	659.18	79.1086	659.18	79.9385	659.18	80.1344	659.18	80.3497
682.617	83.6935	682.617	83.6724	682.617	83.6085	682.617	83.5107	682.617	83.4211	682.617	83.2115	682.617	83.1516	682.617	82.8647	682.617	82.8801	682.617	82.5987	682.617	82.6488	682.617	82.4666	682.617	82.3836	682.617	82.3223	682.617	81.9715	682.617	81.9413	682.617	81.3839	682.617	81.2773	682.617	80.6884	682.617	80.3941	682.617	79.8194	682.617	79.1811	682.617	78.5067	682.617	77.4298	682.617	76.8699	682.617	75.5756	682.617	75.9787	682.617	75.4177	682.617	76.4311	682.617	76.9542	682.617	77.4195	682.617	78.4328	682.617	78.3667	682.617	79.2968	682.617	79.1074	682.617	79.4879
707.52	84.0573	707.52	84.142	707.52	83.8637	707.52	84.0635	707.52	83.6896	707.52	83.8821	707.52	83.5147	707.52	83.6131	707.52	83.2096	707.52	83.2215	707.52	82.7945	707.52	82.7578	707.52	82.4256	707.52	82.2955	707.52	82.1478	707.52	81.771	707.52	81.7775	707.52	81.038	707.52	81.0944	707.52	79.999	707.52	80.0628	707.52	78.661	707.52	78.603	707.52	77.1103	707.52	76.4614	707.52	75.4499	707.52	74.593	707.52	74.6165	707.52	75.3902	707.52	75.8235	707.52	77.3584	707.52	77.4758	707.52	78.7764	707.52	78.5864	707.52	79.3862	707.52	79.2474
732.422	83.904	732.422	83.86	732.422	83.8786	732.422	83.8275	732.422	83.5873	732.422	83.6585	732.422	83.113	732.422	83.3267	732.422	82.7111	732.422	82.9892	732.422	82.3713	732.422	82.7046	732.422	81.9417	732.422	82.4227	732.422	81.5068	732.422	82.1019	732.422	81.0411	732.422	81.5763	732.422	80.163	732.422	80.5895	732.422	78.7768	732.422	79.001	732.422	77.4296	732.422	76.9429	732.422	76.3975	732.422	75.113	732.422	75.5709	732.422	74.7131	732.422	75.6542	732.422	75.8886	732.422	76.5797	732.422	77.5206	732.422	77.5995	732.422	78.6798	732.422	78.515	732.422	78.9944
757.324	84.2927	757.324	84.1859	757.324	84.1903	757.324	83.8316	757.324	84.0766	757.324	83.4792	757.324	83.913	757.324	83.2843	757.324	83.5685	757.324	83.1229	757.324	83.1752	757.324	82.8647	757.324	82.827	757.324	82.4308	757.324	82.2814	757.324	81.7367	757.324	81.4385	757.324	80.9235	757.324	80.5255	757.324	80.245	757.324	79.3967	757.324	79.3865	757.324	77.5734	757.324	77.7822	757.324	75.3266	757.324	75.7797	757.324	73.8227	757.324	74.8333	757.324	74.1007	757.324	75.5745	757.324	75.9656	757.324	77.0502	757.324	77.4245	757.324	78.0164	757.324	77.964	757.324	78.1624
785.156	83.9345	785.156	83.903	785.156	83.7547	785.156	83.7359	785.156	83.3919	785.156	83.4644	785.156	83.0207	785.156	83.0822	785.156	82.7818	785.156	82.6731	785.156	82.6213	785.156	82.4235	785.156	82.3841	785.156	82.397	785.156	82.0701	785.156	82.283	785.156	81.7189	785.156	81.6016	785.156	81.0083	785.156	80.2868	785.156	79.5502	785.156	78.8094	785.156	77.5421	785.156	77.2522	785.156	75.4484	785.156	75.1566	785.156	73.5201	785.156	74.1857	785.156	73.3552	785.156	75.7618	785.156	75.4813	785.156	77.1285	785.156	77.6452	785.156	77.9315	785.156	78.7342	785.156	78.6314
811.523	83.5461	811.523	83.4856	811.523	83.4983	811.523	83.3479	811.523	83.3286	811.523	83.1631	811.523	83.0159	811.523	82.918	811.523	82.577	811.523	82.6018	811.523	82.1534	811.523	82.1787	811.523	81.7964	811.523	81.5645	811.523	81.3615	811.523	80.9887	811.523	80.8622	811.523	80.6025	811.523	80.1591	811.523	79.7535	811.523	78.6672	811.523	78.043	811.523	76.4187	811.523	76.4285	811.523	74.437	811.523	75.4064	811.523	73.1137	811.523	74.7589	811.523	73.8477	811.523	75.9747	811.523	76.0484	811.523	77.609	811.523	77.6431	811.523	78.5381	811.523	78.6462	811.523	78.9495
840.82	83.4721	840.82	83.398	840.82	83.4451	840.82	83.2704	840.82	83.1703	840.82	83.0534	840.82	82.6731	840.82	82.7388	840.82	82.2225	840.82	82.2905	840.82	82.0397	840.82	81.9505	840.82	82.0215	840.82	81.9568	840.82	81.8443	840.82	81.7533	840.82	81.2919	840.82	80.9461	840.82	80.4852	840.82	79.9643	840.82	79.5108	840.82	78.6311	840.82	77.817	840.82	75.9832	840.82	74.8894	840.82	72.5224	840.82	72.2119	840.82	71.1728	840.82	72.3908	840.82	73.4644	840.82	74.5634	840.82	76.538	840.82	76.8626	840.82	78.2777	840.82	78.2273	840.82	78.6805
870.117	83.472	870.117	83.464	870.117	83.1701	870.117	83.2077	870.117	82.6944	870.117	82.709	870.117	82.3111	870.117	82.0809	870.117	81.9443	870.117	81.5719	870.117	81.5064	870.117	81.2385	870.117	81.221	870.117	81.1201	870.117	81.0144	870.117	81.1246	870.117	80.7046	870.117	80.7376	870.117	80.2389	870.117	79.7021	870.117	79.337	870.117	78.1779	870.117	77.716	870.117	75.9507	870.117	75.4559	870.117	73.1788	870.117	73.4027	870.117	72.9084	870.117	74.0165	870.117	75.0216	870.117	76.4039	870.117	77.0066	870.117	78.1024	870.117	78.3606	870.117	78.7905	870.117	78.8554
900.879	84.0534	900.879	84.1135	900.879	83.8318	900.879	83.803	900.879	83.4699	900.879	83.1068	900.879	82.9245	900.879	82.3734	900.879	82.2195	900.879	81.9086	900.879	81.4467	900.879	81.5494	900.879	81.0365	900.879	80.9691	900.879	81.108	900.879	80.3783	900.879	81.0788	900.879	80.2637	900.879	80.6968	900.879	80.0264	900.879	79.8169	900.879	78.7236	900.879	77.8411	900.879	76.3274	900.879	74.4755	900.879	73.4365	900.879	71.7362	900.879	71.1017	900.879	72.9334	900.879	74.0912	900.879	75.672	900.879	77.2161	900.879	77.9616	900.879	78.4777	900.879	79.1022	900.879	79.0723
933.105	84.1312	933.105	84.0658	933.105	83.8899	933.105	83.8546	933.105	83.3327	933.105	83.4993	933.105	82.6655	933.105	82.896	933.105	82.0153	933.105	81.9876	933.105	81.5749	933.105	81.2799	933.105	81.4118	933.105	81.5085	933.105	81.1311	933.105	81.7302	933.105	80.8153	933.105	81.2439	933.105	80.5929	933.105	80.5629	933.105	79.7899	933.105	79.3774	933.105	77.9048	933.105	76.5347	933.105	74.9303	933.105	72.0735	933.105	70.1565	933.105	69.5919	933.105	70.4224	933.105	72.6004	933.105	74.6814	933.105	75.7728	933.105	76.8862	933.105	77.6777	933.105	78.2472	933.105	78.593
965.332	84.8786	965.332	84.8006	965.332	84.6426	965.332	84.3301	965.332	84.1943	965.332	83.6253	965.332	83.5872	965.332	82.9013	965.332	82.6811	965.332	82.2464	965.332	81.3112	965.332	81.688	965.332	80.2822	965.332	81.3077	965.332	80.313	965.332	81.2802	965.332	80.5533	965.332	81.1466	965.332	80.5308	965.332	80.2958	965.332	79.9295	965.332	78.7314	965.332	77.871	965.332	76.2285	965.332	74.5418	965.332	72.219	965.332	72.0471	965.332	70.2823	965.332	70.7983	965.332	74.0932	965.332	75.0538	965.332	77.7117	965.332	78.4842	965.332	79.3497	965.332	79.246	965.332	79.3629
1,000.49	84.959	1,000.49	84.9811	1,000.49	84.8755	1,000.49	84.7191	1,000.49	84.4001	1,000.49	83.9722	1,000.49	83.3756	1,000.49	82.9272	1,000.49	82.3335	1,000.49	81.8608	1,000.49	81.5284	1,000.49	81.1663	1,000.49	80.8544	1,000.49	80.9634	1,000.49	80.472	1,000.49	81.0576	1,000.49	80.2725	1,000.49	81.3669	1,000.49	80.0001	1,000.49	81.2532	1,000.49	79.3669	1,000.49	79.9316	1,000.49	77.8694	1,000.49	77.273	1,000.49	74.5625	1,000.49	73.0619	1,000.49	67.7155	1,000.49	68.2979	1,000.49	68.8442	1,000.49	72.7062	1,000.49	73.8106	1,000.49	76.4212	1,000.49	76.9504	1,000.49	78.463	1,000.49	79.058	1,000.49	79.5235
1,035.64	85.3899	1,035.64	85.2171	1,035.64	85.0651	1,035.64	84.8456	1,035.64	84.4055	1,035.64	84.3368	1,035.64	83.774	1,035.64	83.4059	1,035.64	82.9013	1,035.64	82.1409	1,035.64	81.3555	1,035.64	80.9401	1,035.64	79.8774	1,035.64	80.3865	1,035.64	79.5125	1,035.64	80.6919	1,035.64	79.6931	1,035.64	80.8028	1,035.64	79.6853	1,035.64	80.3141	1,035.64	79.2305	1,035.64	79.4678	1,035.64	77.8542	1,035.64	77.3449	1,035.64	74.8187	1,035.64	72.3731	1,035.64	69.0502	1,035.64	66.6411	1,035.64	67.0111	1,035.64	72.3298	1,035.64	74.4036	1,035.64	76.6939	1,035.64	78.1297	1,035.64	78.663	1,035.64	79.4971	1,035.64	79.4853
1,072.27	85.451	1,072.27	85.3822	1,072.27	85.3867	1,072.27	85.0967	1,072.27	84.9719	1,072.27	84.3973	1,072.27	83.915	1,072.27	83.1297	1,072.27	82.4775	1,072.27	81.716	1,072.27	81.1157	1,072.27	80.5851	1,072.27	79.9141	1,072.27	79.6026	1,072.27	79.0448	1,072.27	79.6258	1,072.27	78.9245	1,072.27	80.2478	1,072.27	79.3785	1,072.27	80.1087	1,072.27	79.1306	1,072.27	79.0406	1,072.27	77.3954	1,072.27	77.0428	1,072.27	74.149	1,072.27	72.5407	1,072.27	67.014	1,072.27	63.9484	1,072.27	65.8959	1,072.27	70.993	1,072.27	73.665	1,072.27	76.4129	1,072.27	76.8287	1,072.27	78.6537	1,072.27	78.3102	1,072.27	78.9314
1,108.89	85.2811	1,108.89	85.3879	1,108.89	85.0431	1,108.89	85.0448	1,108.89	84.7021	1,108.89	84.092	1,108.89	84.0024	1,108.89	82.924	1,108.89	82.8543	1,108.89	81.6069	1,108.89	81.4187	1,108.89	79.9814	1,108.89	80.0459	1,108.89	79.2741	1,108.89	79.675	1,108.89	79.4805	1,108.89	79.9259	1,108.89	79.8826	1,108.89	80.0156	1,108.89	80.5716	1,108.89	79.6376	1,108.89	80.363	1,108.89	78.3284	1,108.89	77.9372	1,108.89	75.4654	1,108.89	73.5294	1,108.89	70.0836	1,108.89	65.2969	1,108.89	56.9863	1,108.89	67.7259	1,108.89	71.2788	1,108.89	75.846	1,108.89	76.9136	1,108.89	78.1984	1,108.89	79.2853	1,108.89	79.2608
1,148.44	85.9026	1,148.44	85.8573	1,148.44	85.6757	1,148.44	85.375	1,148.44	85.1736	1,148.44	84.8211	1,148.44	84.3029	1,148.44	84.066	1,148.44	83.0798	1,148.44	82.4821	1,148.44	81.4328	1,148.44	80.4688	1,148.44	79.8583	1,148.44	78.6396	1,148.44	78.5344	1,148.44	77.4036	1,148.44	78.1566	1,148.44	78.2702	1,148.44	79.4452	1,148.44	79.697	1,148.44	80.1089	1,148.44	79.5159	1,148.44	78.7267	1,148.44	78.4209	1,148.44	76.3234	1,148.44	75.5935	1,148.44	72.446	1,148.44	65.8411	1,148.44	57.57	1,148.44	66.5739	1,148.44	71.8376	1,148.44	74.6523	1,148.44	76.3021	1,148.44	78.2066	1,148.44	77.5957	1,148.44	78.7132
1,189.45	85.7035	1,189.45	85.4984	1,189.45	85.2259	1,189.45	85.2266	1,189.45	84.8484	1,189.45	84.9984	1,189.45	84.363	1,189.45	83.9763	1,189.45	83.2413	1,189.45	82.853	1,189.45	82.1205	1,189.45	81.5916	1,189.45	80.4729	1,189.45	79.3814	1,189.45	79.0835	1,189.45	78.4626	1,189.45	79.9207	1,189.45	78.9493	1,189.45	80.3236	1,189.45	79.8608	1,189.45	79.8542	1,189.45	80.6702	1,189.45	79.4833	1,189.45	79.3598	1,189.45	78.0869	1,189.45	76.2067	1,189.45	73.3947	1,189.45	70.5371	1,189.45	60.8332	1,189.45	60.6296	1,189.45	67.5117	1,189.45	73.5067	1,189.45	74.3577	1,189.45	77.1303	1,189.45	77.8463	1,189.45	78.8986
1,230.47	85.7229	1,230.47	85.9555	1,230.47	85.5459	1,230.47	85.6894	1,230.47	85.2596	1,230.47	84.9406	1,230.47	84.4239	1,230.47	84.4951	1,230.47	83.1233	1,230.47	83.5822	1,230.47	81.9359	1,230.47	81.8524	1,230.47	80.6907	1,230.47	80.054	1,230.47	78.9371	1,230.47	77.6397	1,230.47	77.3139	1,230.47	78.6068	1,230.47	78.2371	1,230.47	80.6945	1,230.47	80.1462	1,230.47	80.0984	1,230.47	79.9983	1,230.47	78.9415	1,230.47	78.0427	1,230.47	77.0381	1,230.47	74.6317	1,230.47	71.9402	1,230.47	62.8644	1,230.47	63.8137	1,230.47	70.4277	1,230.47	73.9545	1,230.47	76.6257	1,230.47	78.1081	1,230.47	78.1333	1,230.47	78.3273
1,274.41	85.1391	1,274.41	84.9433	1,274.41	85.3199	1,274.41	84.8106	1,274.41	84.9554	1,274.41	84.1595	1,274.41	84.4588	1,274.41	83.6529	1,274.41	83.9626	1,274.41	83.3319	1,274.41	82.4331	1,274.41	81.4379	1,274.41	80.3572	1,274.41	79.1303	1,274.41	78.6415	1,274.41	78.1357	1,274.41	77.4102	1,274.41	76.8991	1,274.41	78.6047	1,274.41	77.7599	1,274.41	79.3222	1,274.41	79.4046	1,274.41	79.3702	1,274.41	78.8196	1,274.41	78.7426	1,274.41	75.7294	1,274.41	75.6443	1,274.41	69.5518	1,274.41	68.713	1,274.41	61.0665	1,274.41	62.293	1,274.41	71.5513	1,274.41	74.8498	1,274.41	77.311	1,274.41	77.1337	1,274.41	77.7487
1,319.82	85.1274	1,319.82	85.1009	1,319.82	85.1318	1,319.82	84.9006	1,319.82	85.1754	1,319.82	84.4977	1,319.82	84.7352	1,319.82	84.1357	1,319.82	83.5358	1,319.82	82.979	1,319.82	83.044	1,319.82	81.6309	1,319.82	81.7418	1,319.82	80.6029	1,319.82	78.6945	1,319.82	77.8394	1,319.82	77.19	1,319.82	76.1926	1,319.82	75.8695	1,319.82	77.0824	1,319.82	77.0416	1,319.82	77.828	1,319.82	79.2892	1,319.82	78.4217	1,319.82	77.9654	1,319.82	76.9445	1,319.82	74.6869	1,319.82	70.9239	1,319.82	67.3061	1,319.82	64.6034	1,319.82	64.0012	1,319.82	73.1339	1,319.82	72.7913	1,319.82	75.5028	1,319.82	77.2534	1,319.82	77.9718
1,366.7	85.2714	1,366.7	84.9029	1,366.7	85.1988	1,366.7	84.7008	1,366.7	84.5812	1,366.7	84.6642	1,366.7	83.5942	1,366.7	83.4349	1,366.7	83.7111	1,366.7	82.0821	1,366.7	82.709	1,366.7	81.1251	1,366.7	80.0881	1,366.7	79.2015	1,366.7	77.5216	1,366.7	76.7661	1,366.7	75.2144	1,366.7	75.1135	1,366.7	75.9415	1,366.7	75.859	1,366.7	76.681	1,366.7	77.2567	1,366.7	77.6313	1,366.7	77.2291	1,366.7	78.4912	1,366.7	75.1045	1,366.7	74.8426	1,366.7	69.6834	1,366.7	69.3619	1,366.7	65.0216	1,366.7	60.1734	1,366.7	71.8235	1,366.7	74.6503	1,366.7	77.3978	1,366.7	75.2635	1,366.7	76.1483
1,413.57	85.3136	1,413.57	84.9163	1,413.57	85.0541	1,413.57	84.8562	1,413.57	84.2555	1,413.57	83.3868	1,413.57	84.7677	1,413.57	82.5707	1,413.57	83.568	1,413.57	82.1175	1,413.57	81.5712	1,413.57	79.9951	1,413.57	81.6939	1,413.57	78.8217	1,413.57	80.2819	1,413.57	78.211	1,413.57	77.1841	1,413.57	76.4965	1,413.57	77.3991	1,413.57	77.2949	1,413.57	77.5702	1,413.57	78.2925	1,413.57	77.402	1,413.57	77.1404	1,413.57	77.255	1,413.57	74.9083	1,413.57	75.4348	1,413.57	70.8773	1,413.57	68.4867	1,413.57	60.5164	1,413.57	48.1884	1,413.57	71.4395	1,413.57	68.2259	1,413.57	71.1912	1,413.57	75.4402	1,413.57	75.2402
1,463.38	85.6211	1,463.38	85.7867	1,463.38	85.7716	1,463.38	84.9675	1,463.38	85.6927	1,463.38	84.0119	1,463.38	84.7255	1,463.38	83.9482	1,463.38	84.2575	1,463.38	83.0054	1,463.38	83.948	1,463.38	81.211	1,463.38	82.0245	1,463.38	79.5084	1,463.38	79.367	1,463.38	77.1536	1,463.38	78.7074	1,463.38	76.4464	1,463.38	77.0317	1,463.38	77.3891	1,463.38	77.9232	1,463.38	76.2919	1,463.38	79.1092	1,463.38	76.537	1,463.38	78.0919	1,463.38	76.9919	1,463.38	77.4755	1,463.38	73.099	1,463.38	71.4404	1,463.38	60.8667	1,463.38	65.7438	1,463.38	67.6982	1,463.38	69.4132	1,463.38	74.4818	1,463.38	74.8562	1,463.38	76.9372
1,516.11	86.3731	1,516.11	86.4994	1,516.11	86.6003	1,516.11	85.9862	1,516.11	86.4997	1,516.11	85.3165	1,516.11	85.2779	1,516.11	84.3122	1,516.11	84.3519	1,516.11	82.8651	1,516.11	83.7812	1,516.11	82.005	1,516.11	82.4213	1,516.11	79.9595	1,516.11	80.3796	1,516.11	77.4625	1,516.11	77.6962	1,516.11	76.6848	1,516.11	76.4468	1,516.11	75.9229	1,516.11	77.141	1,516.11	78.4752	1,516.11	77.8701	1,516.11	79.0037	1,516.11	77.4945	1,516.11	76.13	1,516.11	75.7164	1,516.11	72.1481	1,516.11	70.6702	1,516.11	59.9178	1,516.11	63.4269	1,516.11	73.027	1,516.11	71.6474	1,516.11	76.0276	1,516.11	76.9739	1,516.11	77.1584
1,568.85	86.2151	1,568.85	86.2356	1,568.85	85.8787	1,568.85	86.2958	1,568.85	85.1191	1,568.85	85.5305	1,568.85	85.0917	1,568.85	84.1908	1,568.85	84.5713	1,568.85	83.0232	1,568.85	83.1381	1,568.85	81.876	1,568.85	81.7841	1,568.85	81.0418	1,568.85	79.941	1,568.85	79.4559	1,568.85	77.7672	1,568.85	76.4878	1,568.85	76.4802	1,568.85	77.3661	1,568.85	76.7837	1,568.85	78.2024	1,568.85	77.3326	1,568.85	77.5204	1,568.85	77.0992	1,568.85	76.3548	1,568.85	76.5959	1,568.85	71.9155	1,568.85	72.4028	1,568.85	64.6718	1,568.85	56.465	1,568.85	72.2915	1,568.85	75.6183	1,568.85	77.4093	1,568.85	78.0723	1,568.85	78.3943
1,624.51	85.6903	1,624.51	86.6666	1,624.51	85.3883	1,624.51	85.4233	1,624.51	85.3557	1,624.51	84.5934	1,624.51	84.3268	1,624.51	84.6322	1,624.51	82.6678	1,624.51	82.1809	1,624.51	82.5287	1,624.51	81.4624	1,624.51	81.608	1,624.51	79.4921	1,624.51	77.5826	1,624.51	75.3224	1,624.51	75.182	1,624.51	75.8047	1,624.51	70.5479	1,624.51	72.4557	1,624.51	71.6658	1,624.51	74.8478	1,624.51	76.8344	1,624.51	78.0745	1,624.51	76.3009	1,624.51	75.7855	1,624.51	73.9269	1,624.51	67.3062	1,624.51	69.1315	1,624.51	63.3088	1,624.51	67.672	1,624.51	73.3092	1,624.51	74.3445	1,624.51	77.6052	1,624.51	75.2683	1,624.51	77.9697
1,681.64	85.1646	1,681.64	85.0816	1,681.64	84.6605	1,681.64	85.0248	1,681.64	84.6868	1,681.64	84.0381	1,681.64	84.2196	1,681.64	82.7798	1,681.64	82.9265	1,681.64	81.8031	1,681.64	82.4682	1,681.64	81.0664	1,681.64	81.0139	1,681.64	79.5325	1,681.64	78.8969	1,681.64	75.7567	1,681.64	76.0781	1,681.64	72.1759	1,681.64	73.0354	1,681.64	71.7578	1,681.64	74.4265	1,681.64	74.9936	1,681.64	75.1613	1,681.64	76.0418	1,681.64	77.1193	1,681.64	74.6488	1,681.64	74.6398	1,681.64	71.7668	1,681.64	68.7534	1,681.64	55.8358	1,681.64	68.0069	1,681.64	70.4857	1,681.64	73.4876	1,681.64	75.3135	1,681.64	77.1961	1,681.64	76.5276
1,741.7	86.2437	1,741.7	85.5624	1,741.7	86.2089	1,741.7	84.817	1,741.7	85.5097	1,741.7	84.0588	1,741.7	84.2736	1,741.7	82.5732	1,741.7	83.4725	1,741.7	81.6087	1,741.7	82.4403	1,741.7	79.7531	1,741.7	82.0333	1,741.7	79.0064	1,741.7	80.8521	1,741.7	77.3282	1,741.7	77.3146	1,741.7	71.6175	1,741.7	74.0992	1,741.7	70.2874	1,741.7	72.5227	1,741.7	71.9344	1,741.7	75.4813	1,741.7	75.2885	1,741.7	76.3294	1,741.7	76.7538	1,741.7	74.7449	1,741.7	73.6518	1,741.7	71.8953	1,741.7	64.0152	1,741.7	63.5673	1,741.7	68.4926	1,741.7	73.4896	1,741.7	73.4417	1,741.7	78.571	1,741.7	78.2835
1,803.22	86.8662	1,803.22	86.6747	1,803.22	86.773	1,803.22	86.1115	1,803.22	86.1558	1,803.22	85.0842	1,803.22	85.247	1,803.22	83.4438	1,803.22	84.2765	1,803.22	82.222	1,803.22	83.4518	1,803.22	81.3731	1,803.22	82.1756	1,803.22	78.8145	1,803.22	80.1513	1,803.22	76.9459	1,803.22	78.2169	1,803.22	74.4945	1,803.22	75.2184	1,803.22	69.3735	1,803.22	72.8465	1,803.22	72.4363	1,803.22	74.8696	1,803.22	74.86	1,803.22	75.3621	1,803.22	75.2932	1,803.22	75.5033	1,803.22	73.9231	1,803.22	70.2055	1,803.22	64.8859	1,803.22	62.9549	1,803.22	71.0338	1,803.22	74.0871	1,803.22	77.334	1,803.22	77.4919	1,803.22	78.7014
1,866.21	86.7718	1,866.21	86.8894	1,866.21	86.1774	1,866.21	86.0618	1,866.21	85.7917	1,866.21	85.0972	1,866.21	84.367	1,866.21	83.9777	1,866.21	83.1763	1,866.21	82.6206	1,866.21	82.4711	1,866.21	81.307	1,866.21	81.2035	1,866.21	80.8568	1,866.21	79.699	1,866.21	78.5096	1,866.21	78.0657	1,866.21	74.194	1,866.21	75.7973	1,866.21	72.104	1,866.21	72.5118	1,866.21	68.157	1,866.21	72.6796	1,866.21	72.0177	1,866.21	74.0872	1,866.21	73.0828	1,866.21	73.2919	1,866.21	70.4326	1,866.21	71.6599	1,866.21	64.3245	1,866.21	65.2687	1,866.21	69.7464	1,866.21	73.327	1,866.21	76.5846	1,866.21	76.9278	1,866.21	77.894
1,932.13	86.1453	1,932.13	85.7967	1,932.13	85.6193	1,932.13	85.0194	1,932.13	84.5177	1,932.13	84.0953	1,932.13	83.1186	1,932.13	82.6127	1,932.13	81.5875	1,932.13	81.3285	1,932.13	80.3055	1,932.13	79.6714	1,932.13	79.9507	1,932.13	78.345	1,932.13	78.505	1,932.13	77.3702	1,932.13	76.1601	1,932.13	73.7685	1,932.13	74.4298	1,932.13	68.8043	1,932.13	70.9937	1,932.13	70.573	1,932.13	73.0693	1,932.13	73.0812	1,932.13	74.5871	1,932.13	73.7719	1,932.13	72.0349	1,932.13	72.0769	1,932.13	70.2714	1,932.13	65.7497	1,932.13	66.9711	1,932.13	68.8717	1,932.13	72.4572	1,932.13	75.4095	1,932.13	76.0072	1,932.13	78.0379
1,999.51	86.2988	1,999.51	86.0986	1,999.51	86.1096	1,999.51	85.7483	1,999.51	84.6768	1,999.51	83.927	1,999.51	83.6083	1,999.51	82.1339	1,999.51	82.2868	1,999.51	80.8723	1,999.51	79.9596	1,999.51	79.6127	1,999.51	77.7414	1,999.51	78.7728	1,999.51	76.7647	1,999.51	77.5297	1,999.51	77.047	1,999.51	74.3767	1,999.51	74.9037	1,999.51	70.9182	1,999.51	72.5101	1,999.51	68.6096	1,999.51	71.6302	1,999.51	66.829	1,999.51	73.5137	1,999.51	71.5722	1,999.51	73.9064	1,999.51	70.9183	1,999.51	69.401	1,999.51	63.9752	1,999.51	66.313	1,999.51	69.6571	1,999.51	72.7366	1,999.51	75.3798	1,999.51	76.5059	1,999.51	76.9347
2,069.82	87.0153	2,069.82	86.9944	2,069.82	86.1499	2,069.82	85.7063	2,069.82	85.7462	2,069.82	85.0329	2,069.82	84.4989	2,069.82	83.5223	2,069.82	82.7318	2,069.82	81.2199	2,069.82	80.3875	2,069.82	79.4389	2,069.82	79.1095	2,069.82	77.1379	2,069.82	78.5445	2,069.82	74.3184	2,069.82	75.3104	2,069.82	72.5929	2,069.82	72.7206	2,069.82	70.7646	2,069.82	73.0653	2,069.82	68.9432	2,069.82	72.9517	2,069.82	70.6291	2,069.82	71.2062	2,069.82	68.1995	2,069.82	71.7185	2,069.82	66.605	2,069.82	71.9168	2,069.82	66.8785	2,069.82	71.3918	2,069.82	72.3145	2,069.82	75.1083	2,069.82	76.4967	2,069.82	77.535	2,069.82	77.6428
2,143.07	86.9444	2,143.07	86.4942	2,143.07	86.9855	2,143.07	85.9018	2,143.07	86.2701	2,143.07	84.8	2,143.07	85.1985	2,143.07	83.3438	2,143.07	83.4381	2,143.07	81.625	2,143.07	81.3674	2,143.07	79.4207	2,143.07	79.5927	2,143.07	78.7296	2,143.07	78.8256	2,143.07	77.7074	2,143.07	76.7169	2,143.07	74.5534	2,143.07	71.8705	2,143.07	73.1097	2,143.07	71.0081	2,143.07	73.3329	2,143.07	70.7111	2,143.07	70.3056	2,143.07	70.0459	2,143.07	69.1756	2,143.07	70.3226	2,143.07	67.952	2,143.07	66.7218	2,143.07	63.3638	2,143.07	68.334	2,143.07	73.9484	2,143.07	76.5372	2,143.07	78.3156	2,143.07	78.734	2,143.07	79.2408
2,219.24	86.0992	2,219.24	86.095	2,219.24	86.3083	2,219.24	85.8722	2,219.24	85.6386	2,219.24	84.3188	2,219.24	84.4829	2,219.24	82.4784	2,219.24	83.0848	2,219.24	81.286	2,219.24	80.8465	2,219.24	80.7938	2,219.24	78.3207	2,219.24	79.5225	2,219.24	77.9938	2,219.24	77.3219	2,219.24	76.8798	2,219.24	72.8691	2,219.24	69.725	2,219.24	69.5933	2,219.24	67.4097	2,219.24	74.1943	2,219.24	67.9541	2,219.24	74.0671	2,219.24	68.8982	2,219.24	70.8674	2,219.24	69.6071	2,219.24	67.3919	2,219.24	64.6157	2,219.24	65.376	2,219.24	68.6594	2,219.24	73.3287	2,219.24	75.4889	2,219.24	76.5908	2,219.24	78.9493	2,219.24	78.1755
2,296.88	86.2473	2,296.88	86.2439	2,296.88	86.0022	2,296.88	86.2721	2,296.88	85.4514	2,296.88	84.9217	2,296.88	85.4037	2,296.88	83.0964	2,296.88	84.1764	2,296.88	80.1075	2,296.88	81.2455	2,296.88	77.4895	2,296.88	79.3669	2,296.88	80.0792	2,296.88	78.8113	2,296.88	79.0592	2,296.88	76.9914	2,296.88	74.2276	2,296.88	75.2721	2,296.88	70.3346	2,296.88	70.1092	2,296.88	69.3244	2,296.88	71.8983	2,296.88	68.2154	2,296.88	72.4505	2,296.88	68.6021	2,296.88	68.8298	2,296.88	65.2697	2,296.88	69.6262	2,296.88	42.6712	2,296.88	65.5089	2,296.88	72.4285	2,296.88	76.1875	2,296.88	78.2495	2,296.88	78.4337	2,296.88	79.3043
2,378.91	86.4579	2,378.91	86.4462	2,378.91	86.2056	2,378.91	85.5973	2,378.91	86.3425	2,378.91	84.9029	2,378.91	85.489	2,378.91	83.7899	2,378.91	83.9656	2,378.91	82.1465	2,378.91	82.2189	2,378.91	78.8577	2,378.91	79.9287	2,378.91	76.7603	2,378.91	77.9373	2,378.91	77.5661	2,378.91	77.2601	2,378.91	77.0223	2,378.91	75.3419	2,378.91	72.4906	2,378.91	71.474	2,378.91	67.0938	2,378.91	70.7995	2,378.91	74.2081	2,378.91	71.2053	2,378.91	75.9025	2,378.91	72.6404	2,378.91	72.4564	2,378.91	69.4418	2,378.91	62.3641	2,378.91	61.7478	2,378.91	69.4515	2,378.91	75.5512	2,378.91	76.5021	2,378.91	79.272	2,378.91	78.9664
2,462.4	86.3944	2,462.4	86.5055	2,462.4	86.018	2,462.4	85.6432	2,462.4	85.41	2,462.4	84.7615	2,462.4	85.148	2,462.4	84.3229	2,462.4	84.383	2,462.4	81.8467	2,462.4	82.0846	2,462.4	78.7125	2,462.4	79.316	2,462.4	77.1925	2,462.4	77.2729	2,462.4	77.125	2,462.4	76.4883	2,462.4	76.9424	2,462.4	75.8225	2,462.4	74.206	2,462.4	69.9488	2,462.4	68.0628	2,462.4	69.9867	2,462.4	70.9079	2,462.4	72.7609	2,462.4	76.0066	2,462.4	68.4453	2,462.4	75.806	2,462.4	67.9626	2,462.4	64.494	2,462.4	57.8876	2,462.4	70.4526	2,462.4	73.5335	2,462.4	76.3529	2,462.4	78.3629	2,462.4	79.4089
2,548.83	85.5506	2,548.83	85.3909	2,548.83	83.8604	2,548.83	83.957	2,548.83	84.7318	2,548.83	84.4211	2,548.83	83.8073	2,548.83	82.7029	2,548.83	82.0817	2,548.83	80.2497	2,548.83	81.1699	2,548.83	78.3395	2,548.83	79.6477	2,548.83	74.668	2,548.83	77.4641	2,548.83	74.4504	2,548.83	75.025	2,548.83	75.8148	2,548.83	75.6979	2,548.83	75.6117	2,548.83	73.9161	2,548.83	72.871	2,548.83	71.1515	2,548.83	69.7749	2,548.83	72.9666	2,548.83	72.6612	2,548.83	71.6082	2,548.83	72.6663	2,548.83	73.1511	2,548.83	67.8126	2,548.83	64.0905	2,548.83	62.144	2,548.83	69.3385	2,548.83	74.3146	2,548.83	73.1323	2,548.83	76.2467
2,639.65	85.236	2,639.65	84.3953	2,639.65	85.9337	2,639.65	83.5717	2,639.65	84.9497	2,639.65	83.2566	2,639.65	83.6367	2,639.65	83.1904	2,639.65	82.8471	2,639.65	82.7691	2,639.65	80.632	2,639.65	80.6266	2,639.65	78.3095	2,639.65	77.2389	2,639.65	76.5672	2,639.65	72.597	2,639.65	75.7559	2,639.65	71.7379	2,639.65	72.8829	2,639.65	72.3153	2,639.65	71.6831	2,639.65	75.1075	2,639.65	67.6732	2,639.65	71.2015	2,639.65	70.2948	2,639.65	70.4879	2,639.65	73.5873	2,639.65	73.8812	2,639.65	70.4793	2,639.65	70.2368	2,639.65	67.0787	2,639.65	55.5495	2,639.65	52.8809	2,639.65	73.1693	2,639.65	71.821	2,639.65	75.618
2,731.93	83.6644	2,731.93	83.4458	2,731.93	84.0096	2,731.93	82.4711	2,731.93	83.2711	2,731.93	81.3462	2,731.93	82.5068	2,731.93	81.0464	2,731.93	81.9717	2,731.93	80.6154	2,731.93	80.3995	2,731.93	79.202	2,731.93	78.2247	2,731.93	77.8576	2,731.93	74.5478	2,731.93	75.6413	2,731.93	73.5286	2,731.93	72.2058	2,731.93	72.592	2,731.93	71.8904	2,731.93	71.4724	2,731.93	74.2386	2,731.93	69.8076	2,731.93	71.711	2,731.93	66.3845	2,731.93	68.9894	2,731.93	69.7467	2,731.93	72.6117	2,731.93	71.8901	2,731.93	71.6878	2,731.93	68.8356	2,731.93	63.1262	2,731.93	65.4634	2,731.93	66.8264	2,731.93	70.7591	2,731.93	72.2513
2,828.61	83.6064	2,828.61	82.4147	2,828.61	85.0323	2,828.61	82.8021	2,828.61	82.9111	2,828.61	80.3438	2,828.61	82.1518	2,828.61	79.8124	2,828.61	81.5507	2,828.61	79.3693	2,828.61	80.5953	2,828.61	78.1544	2,828.61	79.7885	2,828.61	77.5122	2,828.61	76.289	2,828.61	74.7314	2,828.61	72.522	2,828.61	73.3929	2,828.61	72.527	2,828.61	70.6606	2,828.61	72.7364	2,828.61	71.0708	2,828.61	68.9232	2,828.61	72.7987	2,828.61	66.2308	2,828.61	71.7261	2,828.61	68.9068	2,828.61	71.8669	2,828.61	70.0598	2,828.61	70.9306	2,828.61	70.3705	2,828.61	66.6942	2,828.61	66.4576	2,828.61	68.846	2,828.61	72.5142	2,828.61	73.4683
2,928.22	82.9906	2,928.22	82.4692	2,928.22	83.6572	2,928.22	82.684	2,928.22	82.5228	2,928.22	81.4205	2,928.22	81.819	2,928.22	80.6992	2,928.22	80.948	2,928.22	79.6242	2,928.22	80.0906	2,928.22	78.4248	2,928.22	78.6399	2,928.22	78.5753	2,928.22	76.8155	2,928.22	76.5314	2,928.22	74.6261	2,928.22	74.3138	2,928.22	72.4205	2,928.22	72.5159	2,928.22	71.5595	2,928.22	68.0487	2,928.22	70.4391	2,928.22	70.1106	2,928.22	69.7643	2,928.22	71.954	2,928.22	68.7227	2,928.22	70.7446	2,928.22	69.7343	2,928.22	69.8509	2,928.22	69.336	2,928.22	68.2465	2,928.22	64.2557	2,928.22	66.461	2,928.22	66.7145	2,928.22	67.9485
3,030.76	82.0105	3,030.76	82.3062	3,030.76	82.5906	3,030.76	82.8065	3,030.76	82.1213	3,030.76	82.0356	3,030.76	81.6755	3,030.76	80.4594	3,030.76	80.642	3,030.76	77.8325	3,030.76	79.5901	3,030.76	77.1705	3,030.76	78.0915	3,030.76	77.6297	3,030.76	77.1207	3,030.76	75.5619	3,030.76	74.276	3,030.76	74.0158	3,030.76	72.3749	3,030.76	72.6085	3,030.76	72.223	3,030.76	68.142	3,030.76	69.8258	3,030.76	69.1874	3,030.76	68.2361	3,030.76	70.3094	3,030.76	69.8441	3,030.76	69.6992	3,030.76	69.3113	3,030.76	69.094	3,030.76	67.1126	3,030.76	65.7044	3,030.76	60.2874	3,030.76	70.2831	3,030.76	70.6706	3,030.76	72.3795
3,137.7	83.3909	3,137.7	84.5238	3,137.7	81.3968	3,137.7	83.5108	3,137.7	82.6176	3,137.7	83.3182	3,137.7	82.105	3,137.7	81.4781	3,137.7	80.9984	3,137.7	79.628	3,137.7	80.1424	3,137.7	79.1994	3,137.7	78.4379	3,137.7	77.3798	3,137.7	76.9109	3,137.7	75.0619	3,137.7	74.5607	3,137.7	73.9493	3,137.7	73.2015	3,137.7	72.9011	3,137.7	71.2523	3,137.7	70.5426	3,137.7	71.628	3,137.7	69.2287	3,137.7	70.0957	3,137.7	69.4906	3,137.7	64.7552	3,137.7	69.5086	3,137.7	69.5165	3,137.7	69.9941	3,137.7	69.856	3,137.7	64.0125	3,137.7	64.2282	3,137.7	63.7297	3,137.7	66.7709	3,137.7	69.2803
3,249.02	82.7824	3,249.02	83.2001	3,249.02	82.1068	3,249.02	82.664	3,249.02	82.7623	3,249.02	82.7259	3,249.02	81.8055	3,249.02	81.4165	3,249.02	80.792	3,249.02	81.52	3,249.02	79.7041	3,249.02	79.4491	3,249.02	78.6193	3,249.02	74.2212	3,249.02	76.4845	3,249.02	74.3215	3,249.02	74.9677	3,249.02	74.0735	3,249.02	73.7307	3,249.02	72.1011	3,249.02	71.0691	3,249.02	70.4916	3,249.02	71.157	3,249.02	69.8391	3,249.02	71.9868	3,249.02	70.7079	3,249.02	69.7565	3,249.02	69.7841	3,249.02	67.5687	3,249.02	69.0912	3,249.02	68.3209	3,249.02	64.2617	3,249.02	64.0767	3,249.02	64.2088	3,249.02	66.7528	3,249.02	68.8314
3,363.28	81.9483	3,363.28	81.8457	3,363.28	82.6047	3,363.28	82.4611	3,363.28	82.3444	3,363.28	82.2162	3,363.28	81.7876	3,363.28	81.9856	3,363.28	81.4596	3,363.28	81.3157	3,363.28	80.2794	3,363.28	78.796	3,363.28	78.3117	3,363.28	76.6226	3,363.28	76.9009	3,363.28	74.8677	3,363.28	75.6163	3,363.28	73.523	3,363.28	72.5655	3,363.28	72.1594	3,363.28	71.1001	3,363.28	70.9053	3,363.28	69.7461	3,363.28	68.5608	3,363.28	69.5511	3,363.28	69.5788	3,363.28	70.4472	3,363.28	70.9108	3,363.28	65.6184	3,363.28	68.6374	3,363.28	62.3842	3,363.28	66.6651	3,363.28	60.5899	3,363.28	65.4461	3,363.28	65.8351	3,363.28	68.2111
3,481.93	82.2727	3,481.93	81.8133	3,481.93	83.3926	3,481.93	82.4852	3,481.93	82.615	3,481.93	82.1154	3,481.93	82.3947	3,481.93	81.9414	3,481.93	82.3954	3,481.93	81.3566	3,481.93	80.7331	3,481.93	79.3624	3,481.93	78.9572	3,481.93	78.0776	3,481.93	77.1038	3,481.93	76.6196	3,481.93	75.5264	3,481.93	74.6716	3,481.93	73.0952	3,481.93	72.8493	3,481.93	72.6992	3,481.93	71.0158	3,481.93	72.1192	3,481.93	69.9719	3,481.93	69.3057	3,481.93	69.6082	3,481.93	68.1464	3,481.93	69.4548	3,481.93	69.0997	3,481.93	68.9946	3,481.93	69.8188	3,481.93	64.9502	3,481.93	64.4751	3,481.93	66.2999	3,481.93	67.571	3,481.93	69.7844
3,604.98	82.8054	3,604.98	82.9556	3,604.98	83.2443	3,604.98	82.7799	3,604.98	83.1029	3,604.98	82.4604	3,604.98	82.9729	3,604.98	82.6513	3,604.98	82.6418	3,604.98	80.4053	3,604.98	81.3878	3,604.98	78.2976	3,604.98	78.8183	3,604.98	78.2225	3,604.98	77.6412	3,604.98	76.2667	3,604.98	75.6491	3,604.98	75.0595	3,604.98	72.8755	3,604.98	74.2538	3,604.98	73.3178	3,604.98	72.4178	3,604.98	70.1008	3,604.98	71.5537	3,604.98	69.5775	3,604.98	72.6104	3,604.98	70.7349	3,604.98	72.6663	3,604.98	67.8654	3,604.98	71.5377	3,604.98	70.1965	3,604.98	68.3168	3,604.98	66.965	3,604.98	66.883	3,604.98	66.3799	3,604.98	70.3936
3,732.42	83.2552	3,732.42	83.2012	3,732.42	83.2561	3,732.42	83.065	3,732.42	83.3231	3,732.42	82.4327	3,732.42	83.1775	3,732.42	82.1729	3,732.42	82.4922	3,732.42	80.8515	3,732.42	81.5148	3,732.42	78.8745	3,732.42	79.5028	3,732.42	77.9903	3,732.42	77.7808	3,732.42	75.3846	3,732.42	75.8086	3,732.42	71.7581	3,732.42	72.9946	3,732.42	72.8186	3,732.42	72.1468	3,732.42	72.4407	3,732.42	70.9535	3,732.42	69.0263	3,732.42	66.9356	3,732.42	70.3316	3,732.42	69.6308	3,732.42	70.763	3,732.42	68.9508	3,732.42	69.3908	3,732.42	69.3808	3,732.42	68.316	3,732.42	67.5412	3,732.42	65.9423	3,732.42	63.9307	3,732.42	67.887
3,864.26	83.808	3,864.26	84.2195	3,864.26	83.1347	3,864.26	83.6277	3,864.26	83.8777	3,864.26	83.5098	3,864.26	83.8281	3,864.26	82.5825	3,864.26	83.1678	3,864.26	81.1483	3,864.26	82.2436	3,864.26	80.6778	3,864.26	80.8419	3,864.26	78.6098	3,864.26	78.5759	3,864.26	77.3818	3,864.26	76.0349	3,864.26	74.9572	3,864.26	74.809	3,864.26	73.116	3,864.26	73.1288	3,864.26	73.5426	3,864.26	72.5492	3,864.26	69.8597	3,864.26	69.5562	3,864.26	70.5215	3,864.26	71.5034	3,864.26	71.2366	3,864.26	70.6814	3,864.26	69.9808	3,864.26	69.1185	3,864.26	67.3787	3,864.26	69.424	3,864.26	65.1833	3,864.26	65.1349	3,864.26	66.8826
4,000.49	83.5284	4,000.49	83.8569	4,000.49	83.42	4,000.49	83.5799	4,000.49	84.1094	4,000.49	83.5031	4,000.49	84.046	4,000.49	82.359	4,000.49	83.2615	4,000.49	81.3331	4,000.49	81.9237	4,000.49	80.1929	4,000.49	80.4569	4,000.49	77.0794	4,000.49	78.3116	4,000.49	75.7649	4,000.49	76.851	4,000.49	75.1812	4,000.49	75.2133	4,000.49	72.2946	4,000.49	72.5284	4,000.49	71.0524	4,000.49	72.2183	4,000.49	71.2544	4,000.49	69.657	4,000.49	70.1328	4,000.49	68.6437	4,000.49	69.7705	4,000.49	69.4996	4,000.49	68.5921	4,000.49	67.2594	4,000.49	67.2179	4,000.49	66.415	4,000.49	65.822	4,000.49	66.4973	4,000.49	68.0339
4,141.11	83.8083	4,141.11	83.3994	4,141.11	84.6279	4,141.11	83.9989	4,141.11	84.7738	4,141.11	83.9558	4,141.11	84.5803	4,141.11	83.1567	4,141.11	83.898	4,141.11	83.0923	4,141.11	82.2557	4,141.11	81.0137	4,141.11	80.6919	4,141.11	78.0411	4,141.11	78.2809	4,141.11	76.7503	4,141.11	75.6412	4,141.11	73.631	4,141.11	75.0389	4,141.11	73.4866	4,141.11	71.9465	4,141.11	72.8016	4,141.11	71.5078	4,141.11	70.5787	4,141.11	71.5304	4,141.11	70.9583	4,141.11	70.2494	4,141.11	70.1494	4,141.11	70.7977	4,141.11	70.349	4,141.11	66.9995	4,141.11	69.8261	4,141.11	67.921	4,141.11	67.3577	4,141.11	67.4443	4,141.11	70.1258
4,287.6	84.4009	4,287.6	84.0654	4,287.6	85.1099	4,287.6	84.6724	4,287.6	85.131	4,287.6	83.9883	4,287.6	85.175	4,287.6	82.8838	4,287.6	84.7547	4,287.6	82.5069	4,287.6	82.9419	4,287.6	79.7872	4,287.6	81.4054	4,287.6	78.559	4,287.6	79.1908	4,287.6	77.1938	4,287.6	77.8944	4,287.6	74.5132	4,287.6	75.5385	4,287.6	74.1645	4,287.6	72.9591	4,287.6	74.0772	4,287.6	72.4899	4,287.6	69.9909	4,287.6	70.7236	4,287.6	69.6545	4,287.6	70.843	4,287.6	71.9286	4,287.6	71.605	4,287.6	70.5193	4,287.6	70.2755	4,287.6	68.8412	4,287.6	67.6586	4,287.6	64.9312	4,287.6	67.3534	4,287.6	69.2676
4,438.48	84.95	4,438.48	85.8459	4,438.48	84.1236	4,438.48	85.367	4,438.48	85.0872	4,438.48	85.285	4,438.48	85.3638	4,438.48	84.6472	4,438.48	84.7143	4,438.48	81.7045	4,438.48	83.3018	4,438.48	81.2492	4,438.48	81.611	4,438.48	81.0593	4,438.48	80.0782	4,438.48	77.3653	4,438.48	77.8696	4,438.48	76.9792	4,438.48	75.322	4,438.48	74.8153	4,438.48	73.7038	4,438.48	72.8635	4,438.48	71.1675	4,438.48	73.6994	4,438.48	67.4882	4,438.48	71.4311	4,438.48	71.7149	4,438.48	72.6754	4,438.48	72.0506	4,438.48	71.0018	4,438.48	69.3955	4,438.48	70.2993	4,438.48	69.4521	4,438.48	65.4081	4,438.48	66.8672	4,438.48	68.8553
4,595.21	85.05	4,595.21	84.9284	4,595.21	86.0927	4,595.21	84.9381	4,595.21	85.7319	4,595.21	85.6669	4,595.21	86.1121	4,595.21	85.416	4,595.21	86.0484	4,595.21	83.4267	4,595.21	84.3	4,595.21	82.6528	4,595.21	83.2037	4,595.21	79.9996	4,595.21	80.839	4,595.21	76.8165	4,595.21	77.77	4,595.21	76.2021	4,595.21	76.0244	4,595.21	73.7085	4,595.21	73.4543	4,595.21	73.3447	4,595.21	73.315	4,595.21	74.36	4,595.21	71.7287	4,595.21	72.4051	4,595.21	68.5362	4,595.21	72.7321	4,595.21	70.6797	4,595.21	71.2308	4,595.21	65.6899	4,595.21	70.4158	4,595.21	70.9569	4,595.21	67.6652	4,595.21	69.5713	4,595.21	70.0772
4,756.35	85.6068	4,756.35	85.2808	4,756.35	86.7114	4,756.35	85.8601	4,756.35	85.5752	4,756.35	85.552	4,756.35	84.9908	4,756.35	85.6314	4,756.35	85.4879	4,756.35	85.7873	4,756.35	85.0548	4,756.35	83.7876	4,756.35	82.9341	4,756.35	80.2472	4,756.35	80	4,756.35	78.4932	4,756.35	77.4008	4,756.35	76.434	4,756.35	76.0647	4,756.35	74.9728	4,756.35	73.8908	4,756.35	72.9676	4,756.35	74.2492	4,756.35	73.1099	4,756.35	73.0999	4,756.35	71.6493	4,756.35	69.5033	4,756.35	73.4097	4,756.35	74.611	4,756.35	70.9462	4,756.35	71.2117	4,756.35	71.586	4,756.35	68.8382	4,756.35	68.4605	4,756.35	68.8026	4,756.35	71.5476
4,924.8	86.9061	4,924.8	87.3668	4,924.8	86.1693	4,924.8	86.9005	4,924.8	86.8515	4,924.8	85.8804	4,924.8	86.5246	4,924.8	84.4522	4,924.8	85.6248	4,924.8	83.7194	4,924.8	85.0153	4,924.8	82.6962	4,924.8	83.9676	4,924.8	81.878	4,924.8	81.5978	4,924.8	78.6499	4,924.8	80.2085	4,924.8	76.8506	4,924.8	77.7767	4,924.8	76.9617	4,924.8	75.629	4,924.8	73.877	4,924.8	76.2345	4,924.8	70.5924	4,924.8	73.3224	4,924.8	71.0749	4,924.8	69.6157	4,924.8	73.7463	4,924.8	74.0755	4,924.8	70.819	4,924.8	69.6861	4,924.8	67.6497	4,924.8	70.6369	4,924.8	70.3255	4,924.8	68.5915	4,924.8	70.5185
5,097.66	85.7425	5,097.66	85.4138	5,097.66	85.8926	5,097.66	85.0918	5,097.66	85.7439	5,097.66	85.3092	5,097.66	85.7253	5,097.66	84.6896	5,097.66	85.4937	5,097.66	83.5022	5,097.66	83.965	5,097.66	82.5849	5,097.66	83.1376	5,097.66	81.8256	5,097.66	82.1816	5,097.66	80.4263	5,097.66	80.4027	5,097.66	79.6905	5,097.66	76.9285	5,097.66	77.4442	5,097.66	74.4161	5,097.66	74.8747	5,097.66	74.2341	5,097.66	74.2024	5,097.66	75.0325	5,097.66	72.8025	5,097.66	71.3759	5,097.66	73.7165	5,097.66	73.0045	5,097.66	73.0699	5,097.66	72.2589	5,097.66	69.4771	5,097.66	72.9665	5,097.66	69.7004	5,097.66	68.4436	5,097.66	69.2812
5,277.83	88.3666	5,277.83	87.5305	5,277.83	88.1373	5,277.83	86.8564	5,277.83	86.7213	5,277.83	86.6218	5,277.83	87.0113	5,277.83	86.9439	5,277.83	87.4008	5,277.83	87.0525	5,277.83	85.9412	5,277.83	85.4021	5,277.83	84.5549	5,277.83	82.4433	5,277.83	82.8408	5,277.83	80.3965	5,277.83	80.2437	5,277.83	77.9345	5,277.83	77.536	5,277.83	67.6235	5,277.83	76.6965	5,277.83	69.1458	5,277.83	74.573	5,277.83	73.9585	5,277.83	74.8587	5,277.83	71.3276	5,277.83	71.5634	5,277.83	74.6484	5,277.83	74.6725	5,277.83	74.151	5,277.83	74.3068	5,277.83	72.3104	5,277.83	72.704	5,277.83	67.8719	5,277.83	67.9145	5,277.83	69.8986
5,463.87	87.7449	5,463.87	87.3528	5,463.87	87.212	5,463.87	85.9499	5,463.87	86.5271	5,463.87	85.2123	5,463.87	86.5697	5,463.87	85.4094	5,463.87	86.1647	5,463.87	84.7143	5,463.87	85.7576	5,463.87	83.6069	5,463.87	84.3017	5,463.87	81.6686	5,463.87	81.9004	5,463.87	78.1673	5,463.87	79.9185	5,463.87	74.9408	5,463.87	78.2105	5,463.87	74.7962	5,463.87	77.5773	5,463.87	72.6305	5,463.87	74.7988	5,463.87	72.5334	5,463.87	71.2758	5,463.87	72.1374	5,463.87	72.5384	5,463.87	74.6106	5,463.87	74.5795	5,463.87	71.5851	5,463.87	72.053	5,463.87	71.7324	5,463.87	72.5672	5,463.87	68.2375	5,463.87	69.7198	5,463.87	67.0178
5,657.23	88.0724	5,657.23	88.1205	5,657.23	87.554	5,657.23	86.6673	5,657.23	87.0783	5,657.23	85.6054	5,657.23	85.8029	5,657.23	86.0035	5,657.23	85.7247	5,657.23	85.8831	5,657.23	85.9128	5,657.23	84.3252	5,657.23	84.6788	5,657.23	83.8633	5,657.23	83.2483	5,657.23	82.5936	5,657.23	80.9945	5,657.23	80.2177	5,657.23	78.5573	5,657.23	79.7114	5,657.23	75.7108	5,657.23	77.0942	5,657.23	74.1948	5,657.23	74.5273	5,657.23	75.0564	5,657.23	72.9239	5,657.23	72.565	5,657.23	74.6769	5,657.23	74.8352	5,657.23	74.4258	5,657.23	73.0895	5,657.23	70.6928	5,657.23	72.7943	5,657.23	71.9447	5,657.23	70.8402	5,657.23	67.1121
5,856.45	88.8292	5,856.45	88.581	5,856.45	87.7002	5,856.45	87.5708	5,856.45	86.3662	5,856.45	86.6839	5,856.45	86.4847	5,856.45	86.4739	5,856.45	87.4289	5,856.45	86.1066	5,856.45	86.4831	5,856.45	84.5795	5,856.45	85.1748	5,856.45	83.393	5,856.45	83.363	5,856.45	80.8577	5,856.45	81.6415	5,856.45	78.772	5,856.45	77.4447	5,856.45	75.2415	5,856.45	75.2731	5,856.45	74.8222	5,856.45	72.8063	5,856.45	73.593	5,856.45	72.1482	5,856.45	70.6331	5,856.45	73.7568	5,856.45	72.2225	5,856.45	73.7818	5,856.45	74.9199	5,856.45	73.5982	5,856.45	69.4532	5,856.45	70.9883	5,856.45	70.8343	5,856.45	67.2532	5,856.45	64.817
6,062.99	89.3181	6,062.99	88.6025	6,062.99	88.3073	6,062.99	87.3855	6,062.99	86.5835	6,062.99	86.7292	6,062.99	86.7707	6,062.99	86.8594	6,062.99	87.5493	6,062.99	86.1721	6,062.99	87.0462	6,062.99	85.5324	6,062.99	86.2411	6,062.99	83.8544	6,062.99	84.0682	6,062.99	80.5964	6,062.99	80.532	6,062.99	77.1692	6,062.99	77.7586	6,062.99	74.5397	6,062.99	74.4602	6,062.99	73.6645	6,062.99	73.5197	6,062.99	74.2005	6,062.99	72.9242	6,062.99	73.2215	6,062.99	70.421	6,062.99	73.776	6,062.99	72.8105	6,062.99	73.4127	6,062.99	72.8589	6,062.99	70.1298	6,062.99	73.0523	6,062.99	67.329	6,062.99	67.6677	6,062.99	66.4639
6,276.86	89.3563	6,276.86	88.7897	6,276.86	88.5872	6,276.86	87.0767	6,276.86	86.8364	6,276.86	86.6787	6,276.86	85.4986	6,276.86	87.0986	6,276.86	86.4092	6,276.86	86.5433	6,276.86	86.8393	6,276.86	85.3569	6,276.86	85.6092	6,276.86	83.0469	6,276.86	82.5028	6,276.86	80.0931	6,276.86	81.2969	6,276.86	78.5237	6,276.86	76.9744	6,276.86	76.6212	6,276.86	75.5115	6,276.86	74.1849	6,276.86	74.7004	6,276.86	72.3039	6,276.86	74.2763	6,276.86	71.9538	6,276.86	73.5621	6,276.86	69.671	6,276.86	73.4411	6,276.86	72.3113	6,276.86	72.0081	6,276.86	69.2845	6,276.86	72.3328	6,276.86	69.3355	6,276.86	68.764	6,276.86	65.6785
6,498.05	89.4246	6,498.05	88.8186	6,498.05	88.686	6,498.05	87.3759	6,498.05	86.5142	6,498.05	87.1714	6,498.05	86.3694	6,498.05	87.4369	6,498.05	87.1635	6,498.05	86.6604	6,498.05	86.2918	6,498.05	84.8954	6,498.05	84.3322	6,498.05	81.7601	6,498.05	83.2544	6,498.05	80.127	6,498.05	79.9729	6,498.05	77.9029	6,498.05	76.0151	6,498.05	76.3232	6,498.05	74.7536	6,498.05	74.2577	6,498.05	71.943	6,498.05	71.6687	6,498.05	70.6858	6,498.05	71.6621	6,498.05	69.1886	6,498.05	71.2179	6,498.05	72.4252	6,498.05	71.2557	6,498.05	72.9617	6,498.05	69.7191	6,498.05	73.2544	6,498.05	67.563	6,498.05	65.4924	6,498.05	63.2829
6,726.56	90.0971	6,726.56	89.3138	6,726.56	89.6106	6,726.56	89.4579	6,726.56	88.3232	6,726.56	88.7557	6,726.56	87.9751	6,726.56	87.5432	6,726.56	88.074	6,726.56	87.3822	6,726.56	86.7668	6,726.56	85.5776	6,726.56	85.8752	6,726.56	83.217	6,726.56	83.267	6,726.56	80.2711	6,726.56	79.8937	6,726.56	76.94	6,726.56	77.3767	6,726.56	73.3332	6,726.56	74.874	6,726.56	73.1685	6,726.56	73.0072	6,726.56	72.1776	6,726.56	72.6609	6,726.56	72.0825	6,726.56	73.7959	6,726.56	70.6126	6,726.56	72.6021	6,726.56	70.3838	6,726.56	68.9985	6,726.56	69.1218	6,726.56	70.9808	6,726.56	70.1761	6,726.56	68.099	6,726.56	66.0767
6,963.87	90.5203	6,963.87	90.0255	6,963.87	90.3227	6,963.87	88.712	6,963.87	89.4586	6,963.87	87.9661	6,963.87	88.5154	6,963.87	88.1193	6,963.87	88.1773	6,963.87	87.3362	6,963.87	87.0479	6,963.87	85.5347	6,963.87	84.6133	6,963.87	83.3145	6,963.87	81.4743	6,963.87	80.5676	6,963.87	80.7686	6,963.87	77.7423	6,963.87	76.7411	6,963.87	74.1169	6,963.87	75.3349	6,963.87	70.767	6,963.87	72.7669	6,963.87	71.3403	6,963.87	69.4863	6,963.87	71.5888	6,963.87	69.7776	6,963.87	70.7218	6,963.87	71.4199	6,963.87	71.3826	6,963.87	72.9006	6,963.87	67.8606	6,963.87	66.451	6,963.87	66.5217	6,963.87	69.0403	6,963.87	60.8346
7,209.96	90.7512	7,209.96	90.0008	7,209.96	90.4471	7,209.96	89.4344	7,209.96	89.3447	7,209.96	88.5675	7,209.96	88.8833	7,209.96	87.4136	7,209.96	88.6835	7,209.96	86.7453	7,209.96	87.2852	7,209.96	84.9288	7,209.96	85.6653	7,209.96	82.8092	7,209.96	84.3987	7,209.96	80.0473	7,209.96	81.8848	7,209.96	79.485	7,209.96	78.0439	7,209.96	75.9318	7,209.96	73.9174	7,209.96	73.9694	7,209.96	73.0526	7,209.96	73.1963	7,209.96	72.3917	7,209.96	72.3222	7,209.96	74.3336	7,209.96	71.668	7,209.96	72.2813	7,209.96	72.8321	7,209.96	73.6707	7,209.96	66.4075	7,209.96	65.9096	7,209.96	62.0982	7,209.96	65.8221	7,209.96	58.441
7,464.84	90.6209	7,464.84	90.1214	7,464.84	90.5216	7,464.84	89.1399	7,464.84	89.647	7,464.84	88.629	7,464.84	88.1837	7,464.84	88.3782	7,464.84	88.1332	7,464.84	87.2125	7,464.84	87.7682	7,464.84	85.7703	7,464.84	87.0703	7,464.84	83.9815	7,464.84	84.0775	7,464.84	82.1102	7,464.84	82.0489	7,464.84	79.5183	7,464.84	79.3774	7,464.84	75.5753	7,464.84	77.0842	7,464.84	73.3165	7,464.84	74.2689	7,464.84	71.6659	7,464.84	72.0495	7,464.84	72.4093	7,464.84	70.9921	7,464.84	71.1774	7,464.84	72.4477	7,464.84	71.7831	7,464.84	72.6321	7,464.84	69.731	7,464.84	70.9482	7,464.84	67.8868	7,464.84	66.3539	7,464.84	63.3954
7,727.05	90.382	7,727.05	90.2276	7,727.05	90.5753	7,727.05	89.109	7,727.05	90.1617	7,727.05	88.0758	7,727.05	89.0887	7,727.05	88.3453	7,727.05	88.2296	7,727.05	87.9463	7,727.05	87.77	7,727.05	86.8986	7,727.05	86.0966	7,727.05	85.2412	7,727.05	84.3448	7,727.05	83.2943	7,727.05	81.9654	7,727.05	80.9308	7,727.05	79.072	7,727.05	77.1769	7,727.05	76.2136	7,727.05	74.9598	7,727.05	74.0218	7,727.05	72.3913	7,727.05	73.2176	7,727.05	72.6639	7,727.05	71.9881	7,727.05	73.1786	7,727.05	71.5415	7,727.05	73.2571	7,727.05	74.2094	7,727.05	70.4591	7,727.05	69.631	7,727.05	68.3548	7,727.05	65.7819	7,727.05	62.9892
7,999.51	90.2549	7,999.51	90.2579	7,999.51	90.5065	7,999.51	89.8908	7,999.51	90.235	7,999.51	88.4829	7,999.51	89.1467	7,999.51	87.5668	7,999.51	88.6562	7,999.51	87.2719	7,999.51	87.2581	7,999.51	86.6043	7,999.51	86.0222	7,999.51	84.7533	7,999.51	83.9496	7,999.51	81.9564	7,999.51	81.0049	7,999.51	79.2084	7,999.51	78.4285	7,999.51	76.7114	7,999.51	75.7097	7,999.51	75.2526	7,999.51	72.424	7,999.51	72.3502	7,999.51	69.846	7,999.51	70.7474	7,999.51	73.1996	7,999.51	68.3941	7,999.51	70.5878	7,999.51	68.3064	7,999.51	71.1503	7,999.51	65.2053	7,999.51	66.0358	7,999.51	65.9043	7,999.51	65.3275	7,999.51	61.9215
8,282.23	89.5827	8,282.23	90.2848	8,282.23	90.2575	8,282.23	90.1113	8,282.23	89.7269	8,282.23	88.5182	8,282.23	87.7162	8,282.23	87.4396	8,282.23	87.3715	8,282.23	87.0005	8,282.23	86.9989	8,282.23	86.1219	8,282.23	85.9706	8,282.23	83.1948	8,282.23	82.0297	8,282.23	80.0412	8,282.23	80.2351	8,282.23	77.1877	8,282.23	77.7331	8,282.23	73.8408	8,282.23	75.0985	8,282.23	72.4736	8,282.23	73.6173	8,282.23	69.6944	8,282.23	72.4107	8,282.23	71.7431	8,282.23	72.2393	8,282.23	70.4773	8,282.23	69.7211	8,282.23	70.8237	8,282.23	71.6327	8,282.23	62.3444	8,282.23	66.6824	8,282.23	68.6154	8,282.23	62.7573	8,282.23	64.7971
8,573.73	89.7101	8,573.73	89.7553	8,573.73	90.1154	8,573.73	89.768	8,573.73	88.8673	8,573.73	88.3575	8,573.73	88.368	8,573.73	87.4915	8,573.73	87.8668	8,573.73	86.8747	8,573.73	86.3338	8,573.73	85.2078	8,573.73	84.5895	8,573.73	82.3257	8,573.73	82.7236	8,573.73	79.2221	8,573.73	80.6152	8,573.73	76.8397	8,573.73	76.4503	8,573.73	72.9376	8,573.73	73.5941	8,573.73	70.0728	8,573.73	72.2839	8,573.73	70.2541	8,573.73	69.4413	8,573.73	69.2177	8,573.73	69.7612	8,573.73	69.3663	8,573.73	68.3264	8,573.73	69.6832	8,573.73	70.4647	8,573.73	65.7014	8,573.73	60.8661	8,573.73	63.0425	8,573.73	64.4628	8,573.73	61.1982
8,876.95	89.6468	8,876.95	89.5899	8,876.95	89.6962	8,876.95	89.2002	8,876.95	88.5374	8,876.95	87.898	8,876.95	86.7574	8,876.95	86.6015	8,876.95	86.5941	8,876.95	86.0944	8,876.95	87.3555	8,876.95	85.1394	8,876.95	85.9825	8,876.95	83.0552	8,876.95	82.2708	8,876.95	80.3127	8,876.95	80.4314	8,876.95	78.7059	8,876.95	77.2078	8,876.95	73.8702	8,876.95	73.93	8,876.95	71.4434	8,876.95	71.7929	8,876.95	69.3005	8,876.95	68.7215	8,876.95	69.7878	8,876.95	70.2675	8,876.95	67.9536	8,876.95	68.2581	8,876.95	70.8824	8,876.95	70.4877	8,876.95	60.0316	8,876.95	62.3644	8,876.95	64.7407	8,876.95	58.7268	8,876.95	64.4061
9,188.96	89.9855	9,188.96	90.2237	9,188.96	89.4988	9,188.96	89.5313	9,188.96	89.5672	9,188.96	88.851	9,188.96	88.2306	9,188.96	87.5628	9,188.96	87.8237	9,188.96	87.0571	9,188.96	86.6742	9,188.96	85.714	9,188.96	85.2028	9,188.96	82.2804	9,188.96	83.0613	9,188.96	80.5281	9,188.96	80.5793	9,188.96	78.7072	9,188.96	76.2219	9,188.96	74.7985	9,188.96	73.8084	9,188.96	72.1149	9,188.96	72.3151	9,188.96	67.9466	9,188.96	72.4348	9,188.96	67.9287	9,188.96	70.5412	9,188.96	68.022	9,188.96	66.0318	9,188.96	69.1939	9,188.96	70.0619	9,188.96	62.5639	9,188.96	57.616	9,188.96	62.1948	9,188.96	62.0994	9,188.96	56.5101
9,514.16	90.3855	9,514.16	90.7074	9,514.16	90.422	9,514.16	90.1143	9,514.16	89.9952	9,514.16	89.1829	9,514.16	88.2394	9,514.16	87.6059	9,514.16	87.1693	9,514.16	86.3004	9,514.16	86.2549	9,514.16	84.3227	9,514.16	85.1057	9,514.16	82.5613	9,514.16	81.5847	9,514.16	80.9067	9,514.16	78.6359	9,514.16	77.5085	9,514.16	76.7982	9,514.16	73.9941	9,514.16	74.0934	9,514.16	70.9771	9,514.16	71.5622	9,514.16	69.0293	9,514.16	71.3077	9,514.16	67.9871	9,514.16	69.8284	9,514.16	68.7404	9,514.16	68.3707	9,514.16	68.6394	9,514.16	71.2045	9,514.16	63.1309	9,514.16	62.1782	9,514.16	64.5147	9,514.16	56.5802	9,514.16	57.801
9,849.61	91.0926	9,849.61	90.4892	9,849.61	90.6996	9,849.61	89.6835	9,849.61	89.4496	9,849.61	88.4071	9,849.61	88.1693	9,849.61	86.6127	9,849.61	86.5853	9,849.61	85.2467	9,849.61	84.8274	9,849.61	83.4578	9,849.61	83.5053	9,849.61	82.149	9,849.61	81.5055	9,849.61	79.0716	9,849.61	79.3274	9,849.61	76.5378	9,849.61	75.2868	9,849.61	70.9807	9,849.61	72.8759	9,849.61	69.9389	9,849.61	70.2672	9,849.61	70.7578	9,849.61	69.3853	9,849.61	67.8827	9,849.61	68.0427	9,849.61	66.6026	9,849.61	68.0052	9,849.61	68.8865	9,849.61	70.6628	9,849.61	59.2661	9,849.61	62.7535	9,849.61	62.1525	9,849.61	61.1465	9,849.61	59.0531
10,196.8	91.0774	10,196.8	90.2172	10,196.8	90.2203	10,196.8	88.6593	10,196.8	88.6925	10,196.8	87.2929	10,196.8	86.693	10,196.8	85.5595	10,196.8	84.7428	10,196.8	84.2782	10,196.8	83.6362	10,196.8	83.5826	10,196.8	82.7088	10,196.8	81.3885	10,196.8	79.8617	10,196.8	78.0785	10,196.8	77.5524	10,196.8	75.1282	10,196.8	74.6551	10,196.8	72.5536	10,196.8	71.9372	10,196.8	69.5526	10,196.8	67.1712	10,196.8	67.1084	10,196.8	67.6079	10,196.8	66.5635	10,196.8	68.3587	10,196.8	66.6725	10,196.8	65.7955	10,196.8	68.1791	10,196.8	69.7859	10,196.8	60.1685	10,196.8	56.5187	10,196.8	60.2613	10,196.8	57.4585	10,196.8	59.2307
10,555.7	90.3613	10,555.7	89.5037	10,555.7	89.1415	10,555.7	88.3105	10,555.7	87.549	10,555.7	87.0831	10,555.7	85.4126	10,555.7	84.529	10,555.7	83.5169	10,555.7	83.5035	10,555.7	81.9174	10,555.7	83.2058	10,555.7	81.4205	10,555.7	80.7929	10,555.7	79.0835	10,555.7	77.6971	10,555.7	77.7071	10,555.7	75.4396	10,555.7	73.2721	10,555.7	70.1236	10,555.7	69.2384	10,555.7	67.7331	10,555.7	66.0575	10,555.7	68.2053	10,555.7	66.4335	10,555.7	65.4083	10,555.7	65.6568	10,555.7	65.8391	10,555.7	63.4617	10,555.7	65.8896	10,555.7	67.0041	10,555.7	59.4629	10,555.7	56.061	10,555.7	57.0552	10,555.7	55.7735	10,555.7	60.0611
10,927.7	89.7958	10,927.7	89.2263	10,927.7	88.2305	10,927.7	87.9827	10,927.7	87.6761	10,927.7	87.1543	10,927.7	84.8089	10,927.7	84.0673	10,927.7	82.8087	10,927.7	82.6859	10,927.7	80.9233	10,927.7	82.236	10,927.7	80.8094	10,927.7	79.1721	10,927.7	76.9032	10,927.7	76.411	10,927.7	74.6381	10,927.7	72.2794	10,927.7	70.9844	10,927.7	69.0896	10,927.7	68.3479	10,927.7	66.1077	10,927.7	64.7807	10,927.7	65.6552	10,927.7	64.8071	10,927.7	63.3155	10,927.7	59.2123	10,927.7	67.2588	10,927.7	63.1803	10,927.7	65.7387	10,927.7	65.4115	10,927.7	62.1706	10,927.7	60.4054	10,927.7	56.7321	10,927.7	53.3832	10,927.7	61.9432
11,313	89.0257	11,313	88.7081	11,313	87.8039	11,313	86.9767	11,313	87.4407	11,313	85.822	11,313	85.0844	11,313	82.1311	11,313	82.8445	11,313	81.4609	11,313	80.7255	11,313	79.4167	11,313	79.7203	11,313	78.6002	11,313	78.074	11,313	74.9668	11,313	75.308	11,313	71.0848	11,313	70.5552	11,313	67.8087	11,313	68.512	11,313	65.822	11,313	65.3782	11,313	62.9857	11,313	64.6723	11,313	60.6026	11,313	61.0459	11,313	65.2216	11,313	63.8799	11,313	60.2158	11,313	66.5917	11,313	59.1974	11,313	59.1801	11,313	57.6733	11,313	51.3679	11,313	61.0891
11,712.9	88.5861	11,712.9	88.3214	11,712.9	87.5286	11,712.9	86.7258	11,712.9	86.6676	11,712.9	85.0355	11,712.9	83.8069	11,712.9	82.6372	11,712.9	82.5362	11,712.9	80.6748	11,712.9	80.1877	11,712.9	78.798	11,712.9	79.0541	11,712.9	77.4281	11,712.9	76.3091	11,712.9	73.8536	11,712.9	74.5258	11,712.9	71.9008	11,712.9	70.4463	11,712.9	64.7714	11,712.9	67.5858	11,712.9	61.7586	11,712.9	63.0082	11,712.9	63.9589	11,712.9	62.6725	11,712.9	61.4236	11,712.9	62.6117	11,712.9	64.8725	11,712.9	60.5472	11,712.9	59.3044	11,712.9	61.1794	11,712.9	58.5006	11,712.9	53.1267	11,712.9	54.4232	11,712.9	39.1878	11,712.9	60.4953
12,126	87.7373	12,126	87.3651	12,126	87.1178	12,126	86.4356	12,126	86.0225	12,126	84.3785	12,126	84.1905	12,126	82.3806	12,126	82.2768	12,126	79.6657	12,126	79.589	12,126	78.4183	12,126	77.3949	12,126	75.4341	12,126	74.3751	12,126	73.9362	12,126	71.8934	12,126	69.5887	12,126	65.2916	12,126	64.9657	12,126	62.9753	12,126	54.9229	12,126	59.3152	12,126	58.0559	12,126	55.883	12,126	61.1211	12,126	61.7433	12,126	63.7514	12,126	55.1831	12,126	57.2786	12,126	60.9151	12,126	54.611	12,126	57.464	12,126	57.8748	12,126	55.4792	12,126	60.2103
12,553.7	87.1002	12,553.7	87.0287	12,553.7	86.8309	12,553.7	85.9659	12,553.7	85.7013	12,553.7	84.1469	12,553.7	83.0477	12,553.7	81.3263	12,553.7	81.5175	12,553.7	79.2281	12,553.7	77.5349	12,553.7	77.3622	12,553.7	75.9418	12,553.7	74.3704	12,553.7	73.3733	12,553.7	72.7492	12,553.7	71.1101	12,553.7	69.6161	12,553.7	64.0737	12,553.7	64.734	12,553.7	60.6503	12,553.7	57.9624	12,553.7	59.6126	12,553.7	53.5058	12,553.7	59.3352	12,553.7	55.3423	12,553.7	62.1274	12,553.7	60.8085	12,553.7	58.0459	12,553.7	56.7359	12,553.7	59.9282	12,553.7	53.6737	12,553.7	56.321	12,553.7	56.1029	12,553.7	49.2403	12,553.7	58.1184
12,996.1	86.7006	12,996.1	86.7911	12,996.1	85.9727	12,996.1	85.5041	12,996.1	85.2197	12,996.1	84.35	12,996.1	82.6677	12,996.1	81.7633	12,996.1	80.3215	12,996.1	79.3831	12,996.1	76.5649	12,996.1	76.7711	12,996.1	74.9388	12,996.1	74.8518	12,996.1	72.6201	12,996.1	71.4483	12,996.1	70.1039	12,996.1	69.0892	12,996.1	64.3737	12,996.1	63.694	12,996.1	60.0334	12,996.1	59.6733	12,996.1	58.0347	12,996.1	46.3009	12,996.1	57.5558	12,996.1	51.6559	12,996.1	60.3784	12,996.1	57.5869	12,996.1	58.0132	12,996.1	54.6242	12,996.1	56.954	12,996.1	51.9243	12,996.1	56.7892	12,996.1	54.8274	12,996.1	50.0894	12,996.1	57.7454
13,454.6	86.5559	13,454.6	86.3598	13,454.6	85.6174	13,454.6	85.2319	13,454.6	84.5835	13,454.6	83.995	13,454.6	82.1612	13,454.6	81.1844	13,454.6	79.8048	13,454.6	78.8377	13,454.6	76.4134	13,454.6	75.9326	13,454.6	74.7184	13,454.6	74.3208	13,454.6	70.8721	13,454.6	71.6477	13,454.6	67.7311	13,454.6	68.176	13,454.6	61.8314	13,454.6	63.4017	13,454.6	60.4147	13,454.6	58.944	13,454.6	55.5945	13,454.6	43.374	13,454.6	53.2339	13,454.6	52.7503	13,454.6	55.6189	13,454.6	57.7597	13,454.6	49.861	13,454.6	51.762	13,454.6	48.0523	13,454.6	51.9074	13,454.6	52.7113	13,454.6	51.9363	13,454.6	51.9418	13,454.6	54.2541
13,929.2	86.5615	13,929.2	86.6505	13,929.2	85.7261	13,929.2	85.5818	13,929.2	84.5243	13,929.2	84.0171	13,929.2	82.3922	13,929.2	81.2772	13,929.2	80.1818	13,929.2	79.2867	13,929.2	77.1613	13,929.2	76.3627	13,929.2	74.722	13,929.2	73.9937	13,929.2	71.1042	13,929.2	70.6056	13,929.2	68.5967	13,929.2	67.6511	13,929.2	62.1578	13,929.2	62.7436	13,929.2	61.4422	13,929.2	55.0529	13,929.2	53.6655	13,929.2	49.4288	13,929.2	49.6168	13,929.2	54.1211	13,929.2	58.9422	13,929.2	55.5693	13,929.2	52.7921	13,929.2	54.4851	13,929.2	44.6392	13,929.2	52.3846	13,929.2	50.1186	13,929.2	49.4435	13,929.2	47.1949	13,929.2	53.5786
14,419.9	87.1027	14,419.9	87.1451	14,419.9	86.2296	14,419.9	86.1736	14,419.9	84.7637	14,419.9	84.4593	14,419.9	82.2833	14,419.9	82.1526	14,419.9	79.6508	14,419.9	79.5171	14,419.9	76.25	14,419.9	76.4769	14,419.9	72.9384	14,419.9	73.2196	14,419.9	69.6815	14,419.9	71.1198	14,419.9	66.8253	14,419.9	67.7123	14,419.9	61.1905	14,419.9	61.7861	14,419.9	59.7009	14,419.9	58.2542	14,419.9	52.701	14,419.9	53.0161	14,419.9	29.2696	14,419.9	53.5393	14,419.9	53.7432	14,419.9	53.706	14,419.9	51.6511	14,419.9	53.2738	14,419.9	45.0028	14,419.9	50.594	14,419.9	53.0893	14,419.9	51.1247	14,419.9	48.6315	14,419.9	51.9865
14,928.2	87.3453	14,928.2	87.3838	14,928.2	86.347	14,928.2	86.0222	14,928.2	84.6872	14,928.2	83.9759	14,928.2	81.5368	14,928.2	81.3169	14,928.2	78.3338	14,928.2	78.2705	14,928.2	73.7859	14,928.2	74.6042	14,928.2	69.471	14,928.2	71.3356	14,928.2	64.9199	14,928.2	66.7043	14,928.2	60.7525	14,928.2	64.251	14,928.2	53.5521	14,928.2	58.5009	14,928.2	53.804	14,928.2	55.1192	14,928.2	45.1695	14,928.2	44.7044	14,928.2	30.0771	14,928.2	50.4491	14,928.2	48.4645	14,928.2	54.1533	14,928.2	50.2633	14,928.2	52.4459	14,928.2	42.0169	14,928.2	43.9482	14,928.2	52.0004	14,928.2	51.8931	14,928.2	50.8332	14,928.2	51.6877
15,455.6	87.8853	15,455.6	87.6808	15,455.6	86.7852	15,455.6	86.0174	15,455.6	84.822	15,455.6	83.5527	15,455.6	81.2251	15,455.6	80.2032	15,455.6	77.7326	15,455.6	76.7309	15,455.6	72.04	15,455.6	72.6548	15,455.6	66.7264	15,455.6	67.8757	15,455.6	59.1047	15,455.6	63.0473	15,455.6	49.2161	15,455.6	58.8783	15,455.6	39.0822	15,455.6	52.1484	15,455.6	45.7345	15,455.6	47.1753	15,455.6	39.9668	15,455.6	33.4252	15,455.6	47.7227	15,455.6	48.7235	15,455.6	41.9889	15,455.6	51.4202	15,455.6	46.9012	15,455.6	52.2101	15,455.6	42.0158	15,455.6	35.7881	15,455.6	48.9992	15,455.6	52.4264	15,455.6	46.3252	15,455.6	46.7134
16,000.5	88.4959	16,000.5	88.29	16,000.5	87.3032	16,000.5	86.3801	16,000.5	85.2111	16,000.5	83.5227	16,000.5	81.2771	16,000.5	79.9528	16,000.5	77.4121	16,000.5	76.0688	16,000.5	70.7789	16,000.5	71.4796	16,000.5	63.7199	16,000.5	65.6665	16,000.5	52.5706	16,000.5	61.3056	16,000.5	54.5366	16,000.5	57.5858	16,000.5	47.1565	16,000.5	48.5836	16,000.5	51.4275	16,000.5	41.8907	16,000.5	46.6701	16,000.5	30.7067	16,000.5	49.4023	16,000.5	48.4038	16,000.5	46.3893	16,000.5	52.6422	16,000.5	41.5678	16,000.5	53.4257	16,000.5	41.2742	16,000.5	35.4285	16,000.5	44.4816	16,000.5	50.7789	16,000.5	42.7267	16,000.5	41.747
16,564.5	88.9028	16,564.5	88.5426	16,564.5	87.8246	16,564.5	86.4654	16,564.5	85.4538	16,564.5	83.2829	16,564.5	80.9077	16,564.5	79.1403	16,564.5	76.1749	16,564.5	74.3532	16,564.5	66.9113	16,564.5	68.5847	16,564.5	56.9472	16,564.5	64.1418	16,564.5	57.8378	16,564.5	59.5191	16,564.5	61.5201	16,564.5	59.5756	16,564.5	56.6643	16,564.5	49.3732	16,564.5	56.8909	16,564.5	51.1723	16,564.5	50.5125	16,564.5	44.1511	16,564.5	49.1821	16,564.5	48.6289	16,564.5	51.4298	16,564.5	52.1523	16,564.5	42.3779	16,564.5	54.7476	16,564.5	39.8083	16,564.5	45.8131	16,564.5	45.2015	16,564.5	52.6864	16,564.5	46.8495	16,564.5	46.0596
17,148.9	88.7955	17,148.9	88.3164	17,148.9	87.6554	17,148.9	85.8723	17,148.9	84.9782	17,148.9	82.0664	17,148.9	79.7563	17,148.9	76.8764	17,148.9	73.1672	17,148.9	70.8387	17,148.9	55.9593	17,148.9	65.8924	17,148.9	60.7273	17,148.9	65.0402	17,148.9	64.3902	17,148.9	62.8814	17,148.9	65.3969	17,148.9	62.0713	17,148.9	61.2038	17,148.9	55.544	17,148.9	58.7173	17,148.9	54.018	17,148.9	53.9815	17,148.9	51.6126	17,148.9	50.9023	17,148.9	51.6585	17,148.9	53.6162	17,148.9	52.3495	17,148.9	47.3708	17,148.9	52.6597	17,148.9	27.0796	17,148.9	46.7098	17,148.9	42.2737	17,148.9	49.8421	17,148.9	51.406	17,148.9	49.1826
17,752.4	88.4484	17,752.4	87.8094	17,752.4	87.2648	17,752.4	84.8515	17,752.4	84.1657	17,752.4	80.1077	17,752.4	77.9352	17,752.4	73.3091	17,752.4	69.1762	17,752.4	65.3535	17,752.4	60.387	17,752.4	65.8598	17,752.4	66.6611	17,752.4	67.4074	17,752.4	69.2125	17,752.4	65.4767	17,752.4	68.9866	17,752.4	64.5957	17,752.4	64.4515	17,752.4	56.9222	17,752.4	61.1352	17,752.4	55.2801	17,752.4	57.4457	17,752.4	53.4777	17,752.4	53.5223	17,752.4	52.5807	17,752.4	56.5699	17,752.4	52.2499	17,752.4	52.455	17,752.4	53.0794	17,752.4	33.936	17,752.4	39.7786	17,752.4	42.918	17,752.4	48.1584	17,752.4	49.2741	17,752.4	49.1479
18,379.4	87.8812	18,379.4	87.0943	18,379.4	86.7526	18,379.4	83.781	18,379.4	83.5288	18,379.4	78.394	18,379.4	77.0362	18,379.4	70.9544	18,379.4	69.4106	18,379.4	63.642	18,379.4	66.6676	18,379.4	66.7256	18,379.4	68.9897	18,379.4	67.2558	18,379.4	70.3527	18,379.4	66.3855	18,379.4	69.8312	18,379.4	65.043	18,379.4	65.2578	18,379.4	57.3874	18,379.4	61.551	18,379.4	54.7738	18,379.4	58.2507	18,379.4	51.8892	18,379.4	55.4112	18,379.4	49.4481	18,379.4	56.4808	18,379.4	50.0371	18,379.4	54.3119	18,379.4	52.8505	18,379.4	41.5064	18,379.4	32.9969	18,379.4	40.5372	18,379.4	47.832	18,379.4	46.456	18,379.4	44.6396
19,026.9	86.6533	19,026.9	85.7217	19,026.9	85.5488	19,026.9	81.8034	19,026.9	82.1707	19,026.9	75.4625	19,026.9	75.4729	19,026.9	65.2501	19,026.9	69.6433	19,026.9	66.5695	19,026.9	69.3342	19,026.9	69.2852	19,026.9	69.6322	19,026.9	68.1711	19,026.9	69.9118	19,026.9	67.6974	19,026.9	69.6609	19,026.9	66.1129	19,026.9	65.2478	19,026.9	60.1171	19,026.9	60.8886	19,026.9	56.6721	19,026.9	58.3139	19,026.9	52.7702	19,026.9	55.7347	19,026.9	48.2453	19,026.9	55.9873	19,026.9	49.9534	19,026.9	53.9164	19,026.9	51.7885	19,026.9	44.2825	19,026.9	37.9436	19,026.9	44.6114	19,026.9	47.3938	19,026.9	43.3275	19,026.9	43.4629
19,697.8	84.8629	19,697.8	83.519	19,697.8	84.0436	19,697.8	78.8932	19,697.8	80.7763	19,697.8	70.3503	19,697.8	75.7355	19,697.8	59.0846	19,697.8	71.6643	19,697.8	69.4801	19,697.8	70.5975	19,697.8	70.6316	19,697.8	69.8253	19,697.8	68.7508	19,697.8	69.5784	19,697.8	68.4487	19,697.8	69.1859	19,697.8	66.0632	19,697.8	65.2936	19,697.8	60.6447	19,697.8	60.6656	19,697.8	56.2166	19,697.8	58.1417	19,697.8	52.8776	19,697.8	52.913	19,697.8	49.9005	19,697.8	54.9026	19,697.8	50.1246	19,697.8	51.59	19,697.8	53.3559	19,697.8	45.2766	19,697.8	47.0598	19,697.8	46.5576	19,697.8	46.633	19,697.8	44.9266	19,697.8	46.3385
19,999.5	83.8676	19,999.5	82.159	19,999.5	83.0676	19,999.5	76.9571	19,999.5	80.1213	19,999.5	67.4194	19,999.5	76.2939	19,999.5	63.4934	19,999.5	72.8494	19,999.5	71.3699	19,999.5	70.9254	19,999.5	71.3362	19,999.5	69.5916	19,999.5	69.9836	19,999.5	70.1323	19,999.5	68.623	19,999.5	69.1529	19,999.5	66.4278	19,999.5	65.1178	19,999.5	58.6666	19,999.5	61.1818	19,999.5	52.4235	19,999.5	58.6469	19,999.5	54.8726	19,999.5	52.932	19,999.5	48.6005	19,999.5	43.3302	19,999.5	56.1173	19,999.5	53.0645	19,999.5	52.5038	19,999.5	54.2336	19,999.5	43.3281	19,999.5	46.4995	19,999.5	48.14	19,999.5	50.1779	19,999.5	45.8716
