"SPL Vertical"
"On-Axis"		"10°"		"-10°"		"20°"		"-20°"		"30°"		"-30°"		"40°"		"-40°"		"50°"		"-50°"		"60°"		"-60°"		"70°"		"-70°"		"80°"		"-80°"		"90°"		"-90°"		"100°"		"-100°"		"110°"		"-110°"		"120°"		"-120°"		"130°"		"-130°"		"140°"		"-140°"		"150°"		"-150°"		"160°"		"-160°"		"170°"		"-170°"		"180°"
"Frequency / Hz"	"Sound Pressure Level / dB (re 20 µPa/V)  [2.83  V @ 1. m]"	"Frequency / Hz"	"Sound Pressure Level / dB (re 20 µPa/V)  [2.83  V @ 1. m]"	"Frequency / Hz"	"Sound Pressure Level / dB (re 20 µPa/V)  [2.83  V @ 1. m]"	"Frequency / Hz"	"Sound Pressure Level / dB (re 20 µPa/V)  [2.83  V @ 1. m]"	"Frequency / Hz"	"Sound Pressure Level / dB (re 20 µPa/V)  [2.83  V @ 1. m]"	"Frequency / Hz"	"Sound Pressure Level / dB (re 20 µPa/V)  [2.83  V @ 1. m]"	"Frequency / Hz"	"Sound Pressure Level / dB (re 20 µPa/V)  [2.83  V @ 1. m]"	"Frequency / Hz"	"Sound Pressure Level / dB (re 20 µPa/V)  [2.83  V @ 1. m]"	"Frequency / Hz"	"Sound Pressure Level / dB (re 20 µPa/V)  [2.83  V @ 1. m]"	"Frequency / Hz"	"Sound Pressure Level / dB (re 20 µPa/V)  [2.83  V @ 1. m]"	"Frequency / Hz"	"Sound Pressure Level / dB (re 20 µPa/V)  [2.83  V @ 1. m]"	"Frequency / Hz"	"Sound Pressure Level / dB (re 20 µPa/V)  [2.83  V @ 1. m]"	"Frequency / Hz"	"Sound Pressure Level / dB (re 20 µPa/V)  [2.83  V @ 1. m]"	"Frequency / Hz"	"Sound Pressure Level / dB (re 20 µPa/V)  [2.83  V @ 1. m]"	"Frequency / Hz"	"Sound Pressure Level / dB (re 20 µPa/V)  [2.83  V @ 1. m]"	"Frequency / Hz"	"Sound Pressure Level / dB (re 20 µPa/V)  [2.83  V @ 1. m]"	"Frequency / Hz"	"Sound Pressure Level / dB (re 20 µPa/V)  [2.83  V @ 1. m]"	"Frequency / Hz"	"Sound Pressure Level / dB (re 20 µPa/V)  [2.83  V @ 1. m]"	"Frequency / Hz"	"Sound Pressure Level / dB (re 20 µPa/V)  [2.83  V @ 1. m]"	"Frequency / Hz"	"Sound Pressure Level / dB (re 20 µPa/V)  [2.83  V @ 1. m]"	"Frequency / Hz"	"Sound Pressure Level / dB (re 20 µPa/V)  [2.83  V @ 1. m]"	"Frequency / Hz"	"Sound Pressure Level / dB (re 20 µPa/V)  [2.83  V @ 1. m]"	"Frequency / Hz"	"Sound Pressure Level / dB (re 20 µPa/V)  [2.83  V @ 1. m]"	"Frequency / Hz"	"Sound Pressure Level / dB (re 20 µPa/V)  [2.83  V @ 1. m]"	"Frequency / Hz"	"Sound Pressure Level / dB (re 20 µPa/V)  [2.83  V @ 1. m]"	"Frequency / Hz"	"Sound Pressure Level / dB (re 20 µPa/V)  [2.83  V @ 1. m]"	"Frequency / Hz"	"Sound Pressure Level / dB (re 20 µPa/V)  [2.83  V @ 1. m]"	"Frequency / Hz"	"Sound Pressure Level / dB (re 20 µPa/V)  [2.83  V @ 1. m]"	"Frequency / Hz"	"Sound Pressure Level / dB (re 20 µPa/V)  [2.83  V @ 1. m]"	"Frequency / Hz"	"Sound Pressure Level / dB (re 20 µPa/V)  [2.83  V @ 1. m]"	"Frequency / Hz"	"Sound Pressure Level / dB (re 20 µPa/V)  [2.83  V @ 1. m]"	"Frequency / Hz"	"Sound Pressure Level / dB (re 20 µPa/V)  [2.83  V @ 1. m]"	"Frequency / Hz"	"Sound Pressure Level / dB (re 20 µPa/V)  [2.83  V @ 1. m]"	"Frequency / Hz"	"Sound Pressure Level / dB (re 20 µPa/V)  [2.83  V @ 1. m]"	"Frequency / Hz"	"Sound Pressure Level / dB (re 20 µPa/V)  [2.83  V @ 1. m]"	"Frequency / Hz"	"Sound Pressure Level / dB (re 20 µPa/V)  [2.83  V @ 1. m]"
20.5078	60.1195	20.5078	60.2374	20.5078	59.9692	20.5078	60.327	20.5078	59.7856	20.5078	60.3941	20.5078	59.5724	20.5078	60.4462	20.5078	59.3408	20.5078	60.4924	20.5078	59.112	20.5078	60.5433	20.5078	58.9192	20.5078	60.6101	20.5078	58.8056	20.5078	60.7029	20.5078	58.8167	20.5078	60.8293	20.5078	58.9837	20.5078	60.9918	20.5078	59.3085	20.5078	61.1874	20.5078	59.7588	20.5078	61.4071	20.5078	60.2788	20.5078	61.6372	20.5078	60.8081	20.5078	61.8606	20.5078	61.295	20.5078	62.0581	20.5078	61.7028	20.5078	62.2102	20.5078	62.0104	20.5078	62.2974	20.5078	62.2094	20.5078	62.302
21.9727	59.4584	21.9727	59.2807	21.9727	59.558	21.9727	59.0329	21.9727	59.5725	21.9727	58.7252	21.9727	59.4965	21.9727	58.371	21.9727	59.3273	21.9727	57.9902	21.9727	59.0675	21.9727	57.6119	21.9727	58.7287	21.9727	57.2771	21.9727	58.3385	21.9727	57.036	21.9727	57.9464	21.9727	56.9394	21.9727	57.6276	21.9727	57.021	21.9727	57.4689	21.9727	57.2811	21.9727	57.5333	21.9727	57.6834	21.9727	57.8206	21.9727	58.1678	21.9727	58.2623	21.9727	58.668	21.9727	58.7579	21.9727	59.1255	21.9727	59.2153	21.9727	59.4938	21.9727	59.5694	21.9727	59.7393	21.9727	59.7828	21.9727	59.8395
23.4375	58.1899	23.4375	57.9175	23.4375	58.3406	23.4375	57.5366	23.4375	58.3596	23.4375	57.0665	23.4375	58.2385	23.4375	56.538	23.4375	57.9711	23.4375	56.0011	23.4375	57.5561	23.4375	55.5315	23.4375	57.0043	23.4375	55.2276	23.4375	56.3541	23.4375	55.1838	23.4375	55.696	23.4375	55.4436	23.4375	55.1961	23.4375	55.9709	23.4375	55.0636	23.4375	56.6702	23.4375	55.416	23.4375	57.4339	23.4375	56.1646	23.4375	58.1743	23.4375	57.0928	23.4375	58.8297	23.4375	58.0061	23.4375	59.3596	23.4375	58.7879	23.4375	59.7367	23.4375	59.3836	23.4375	59.9411	23.4375	59.774	23.4375	59.9575
24.9023	57.6055	24.9023	57.2932	24.9023	57.8158	24.9023	56.9143	24.9023	57.9013	24.9023	56.5229	24.9023	57.8492	24.9023	56.1953	24.9023	57.6553	24.9023	56.0245	24.9023	57.3294	24.9023	56.0957	24.9023	56.9057	24.9023	56.4488	24.9023	56.4641	24.9023	57.0563	24.9023	56.1489	24.9023	57.8394	24.9023	56.1484	24.9023	58.7055	24.9023	56.5898	24.9023	59.5757	24.9023	57.4272	24.9023	60.3927	24.9023	58.4782	24.9023	61.1173	24.9023	59.5547	24.9023	61.7228	24.9023	60.5318	24.9023	62.1896	24.9023	61.3446	24.9023	62.5019	24.9023	61.9655	24.9023	62.6465	24.9023	62.3871	24.9023	62.6116
26.3672	59.9019	26.3672	59.5609	26.3672	60.118	26.3672	59.1107	26.3672	60.1981	26.3672	58.5773	26.3672	60.1332	26.3672	58.005	26.3672	59.9159	26.3672	57.4686	26.3672	59.543	26.3672	57.0774	26.3672	59.0216	26.3672	56.9557	26.3672	58.3852	26.3672	57.1848	26.3672	57.7208	26.3672	57.7476	26.3672	57.2002	26.3672	58.5378	26.3672	57.0583	26.3672	59.4239	26.3672	57.4454	26.3672	60.2983	26.3672	58.2778	26.3672	61.0891	26.3672	59.3161	26.3672	61.752	26.3672	60.3441	26.3672	62.2594	26.3672	61.2353	26.3672	62.5926	26.3672	61.9322	26.3672	62.7371	26.3672	62.4148	26.3672	62.6811
27.832	60.3191	27.832	60.0016	27.832	60.5521	27.832	59.6275	27.832	60.6811	27.832	59.2364	27.832	60.6922	27.832	58.8839	27.832	60.5769	27.832	58.6408	27.832	60.335	27.832	58.5816	27.832	59.9808	27.832	58.7591	27.832	59.5556	27.832	59.178	27.832	59.1446	27.832	59.7904	27.832	58.8842	27.832	60.5188	27.832	58.9269	27.832	61.2836	27.832	59.3482	27.832	62.02	27.832	60.0811	27.832	62.6806	27.832	60.9668	27.832	63.2323	27.832	61.8516	27.832	63.6515	27.832	62.633	27.832	63.9206	27.832	63.2567	27.832	64.0253	27.832	63.6992	27.832	63.9543
29.2969	63.2322	29.2969	62.8575	29.2969	63.4578	29.2969	62.3389	29.2969	63.5293	29.2969	61.6858	29.2969	63.4405	29.2969	60.919	29.2969	63.1831	29.2969	60.0854	29.2969	62.7474	29.2969	59.28	29.2969	62.1254	29.2969	58.6644	29.2969	61.32	29.2969	58.4352	29.2969	60.3674	29.2969	58.7044	29.2969	59.3844	29.2969	59.3986	29.2969	58.6291	29.2969	60.3216	29.2969	58.4514	29.2969	61.2865	29.2969	58.9948	29.2969	62.1721	29.2969	60.0152	29.2969	62.9122	29.2969	61.1537	29.2969	63.4716	29.2969	62.1799	29.2969	63.8301	29.2969	62.9939	29.2969	63.9731	29.2969	63.5643	29.2969	63.8882
30.7617	62.8625	30.7617	62.4371	30.7617	63.141	30.7617	61.874	30.7617	63.2658	30.7617	61.1903	30.7617	63.2298	30.7617	60.4228	30.7617	63.0248	30.7617	59.6471	30.7617	62.643	30.7617	58.9994	30.7617	62.0812	30.7617	58.6692	30.7617	61.3531	30.7617	58.8118	30.7617	60.5156	30.7617	59.4234	30.7617	59.7165	30.7617	60.3416	30.7617	59.2278	30.7617	61.3701	30.7617	59.3339	30.7617	62.3662	30.7617	60.0611	30.7617	63.2478	30.7617	61.139	30.7617	63.9715	30.7617	62.2662	30.7617	64.5137	30.7617	63.2617	30.7617	64.8592	30.7617	64.0474	30.7617	64.9956	30.7617	64.5982	30.7617	64.912
32.2266	63.8913	32.2266	63.5108	32.2266	64.1445	32.2266	63.0168	32.2266	64.2612	32.2266	62.433	32.2266	64.234	32.2266	61.8037	32.2266	64.0567	32.2266	61.2066	32.2266	63.7264	32.2266	60.7609	32.2266	63.2487	32.2266	60.606	32.2266	62.651	32.2266	60.8336	32.2266	62.0052	32.2266	61.4211	32.2266	61.4564	32.2266	62.2465	32.2266	61.2171	32.2266	63.1648	32.2266	61.4579	32.2266	64.0629	32.2266	62.1542	32.2266	64.8684	32.2266	63.1042	32.2266	65.538	32.2266	64.0899	32.2266	66.0458	32.2266	64.9687	32.2266	66.374	32.2266	65.6691	32.2266	66.5095	32.2266	66.1625	32.2266	66.4416
33.6914	65.4137	33.6914	65.0515	33.6914	65.6547	33.6914	64.5774	33.6914	65.7672	33.6914	64.007	33.6914	65.7444	33.6914	63.3697	33.6914	65.58	33.6914	62.7189	33.6914	65.2687	33.6914	62.1444	33.6914	64.8108	33.6914	61.7708	33.6914	64.2207	33.6914	61.7192	33.6914	63.5431	33.6914	62.036	33.6914	62.8791	33.6914	62.6556	33.6914	62.4018	33.6914	63.4446	33.6914	62.3088	33.6914	64.2712	33.6914	62.6824	33.6914	65.0402	33.6914	63.408	33.6914	65.6913	33.6914	64.2725	33.6914	66.1883	33.6914	65.0983	33.6914	66.5084	33.6914	65.7818	33.6914	66.6359	33.6914	66.2748	33.6914	66.5601
35.1562	66.4649	35.1562	66.1051	35.1562	66.702	35.1562	65.6302	35.1562	66.8103	35.1562	65.053	35.1562	66.7836	35.1562	64.3983	35.1562	66.6152	35.1562	63.7137	35.1562	66.2992	35.1562	63.0826	35.1562	65.8338	35.1562	62.6282	35.1562	65.229	35.1562	62.4828	35.1562	64.5222	35.1562	62.7152	35.1562	63.8032	35.1562	63.2771	35.1562	63.2374	35.1562	64.0361	35.1562	63.0331	35.1562	64.8517	35.1562	63.3077	35.1562	65.6188	35.1562	63.974	35.1562	66.2712	35.1562	64.8168	35.1562	66.7693	35.1562	65.6424	35.1562	67.0886	35.1562	66.3343	35.1562	67.2129	35.1562	66.8373	35.1562	67.1311
36.6211	67.9763	36.6211	67.6474	36.6211	68.1818	36.6211	67.2	36.6211	68.2598	36.6211	66.6429	36.6211	68.2054	36.6211	65.9943	36.6211	68.0133	36.6211	65.291	36.6211	67.6785	36.6211	64.6028	36.6211	67.1997	36.6211	64.0417	36.6211	66.5867	36.6211	63.7476	36.6211	65.8747	36.6211	63.8245	36.6211	65.1475	36.6211	64.2664	36.6211	64.5593	36.6211	64.9578	36.6211	64.3084	36.6211	65.7489	36.6211	64.5172	36.6211	66.5177	36.6211	65.1176	36.6211	67.1846	36.6211	65.9086	36.6211	67.7019	36.6211	66.6977	36.6211	68.0414	36.6211	67.3635	36.6211	68.185	36.6211	67.8461	36.6211	68.1215
38.0859	68.1491	38.0859	67.7613	38.0859	68.4049	38.0859	67.2467	38.0859	68.5253	38.0859	66.616	38.0859	68.5076	38.0859	65.8932	38.0859	68.3488	38.0859	65.1284	38.0859	68.0481	38.0859	64.416	38.0859	67.6096	38.0859	63.9026	38.0859	67.051	38.0859	63.7501	38.0859	66.4174	38.0859	64.0373	38.0859	65.802	38.0859	64.6935	38.0859	65.3557	38.0859	65.5533	38.0859	65.2467	38.0859	66.4568	38.0859	65.5505	38.0859	67.295	38.0859	66.1798	38.0859	68.0047	38.0859	66.9535	38.0859	68.5506	38.0859	67.7071	38.0859	68.9121	38.0859	68.336	38.0859	69.0763	38.0859	68.7864	38.0859	69.0352
39.5508	68.1346	39.5508	67.744	39.5508	68.4183	39.5508	67.2575	39.5508	68.5877	39.5508	66.6938	39.5508	68.6379	39.5508	66.0858	39.5508	68.5653	39.5508	65.4888	39.5508	68.3692	39.5508	64.9867	39.5508	68.0542	39.5508	64.6841	39.5508	67.6364	39.5508	64.6708	39.5508	67.1519	39.5508	64.9711	39.5508	66.6692	39.5508	65.5255	39.5508	66.2933	39.5508	66.2252	39.5508	66.1432	39.5508	66.962	39.5508	66.2918	39.5508	67.6534	39.5508	66.7115	39.5508	68.2443	39.5508	67.2902	39.5508	68.6995	39.5508	67.8975	39.5508	68.9966	39.5508	68.4323	39.5508	69.1213	39.5508	68.8326	39.5508	69.0664
41.0156	69.9691	41.0156	69.666	41.0156	70.1803	41.0156	69.2799	41.0156	70.2928	41.0156	68.8244	41.0156	70.3007	41.0156	68.3207	41.0156	70.1993	41.0156	67.8033	41.0156	69.9859	41.0156	67.3238	41.0156	69.6622	41.0156	66.9508	41.0156	69.2391	41.0156	66.7571	41.0156	68.7445	41.0156	66.7931	41.0156	68.2332	41.0156	67.0595	41.0156	67.793	41.0156	67.504	41.0156	67.5327	41.0156	68.0449	41.0156	67.5361	41.0156	68.6001	41.0156	67.8069	41.0156	69.103	41.0156	68.2617	41.0156	69.5053	41.0156	68.7802	41.0156	69.7742	41.0156	69.2571	41.0156	69.8888	41.0156	69.6224	41.0156	69.8381
42.4805	70.3032	42.4805	69.9734	42.4805	70.5426	42.4805	69.5641	42.4805	70.6842	42.4805	69.0913	42.4805	70.7221	42.4805	68.5808	42.4805	70.6521	42.4805	68.0724	42.4805	70.4725	42.4805	67.6235	42.4805	70.1865	42.4805	67.3053	42.4805	69.8067	42.4805	67.1859	42.4805	69.3617	42.4805	67.3019	42.4805	68.9047	42.4805	67.6375	42.4805	68.5177	42.4805	68.1304	42.4805	68.2983	42.4805	68.6987	42.4805	68.3193	42.4805	69.2658	42.4805	68.5826	42.4805	69.7716	42.4805	69.014	42.4805	70.1729	42.4805	69.5048	42.4805	70.4407	42.4805	69.9577	42.4805	70.5563	42.4805	70.3057	42.4805	70.5107
43.9453	71.9224	43.9453	71.6614	43.9453	72.1086	43.9453	71.3327	43.9453	72.2139	43.9453	70.9459	43.9453	72.233	43.9453	70.5153	43.9453	72.1605	43.9453	70.0625	43.9453	71.9927	43.9453	69.6185	43.9453	71.7291	43.9453	69.2248	43.9453	71.3755	43.9453	68.9292	43.9453	70.9491	43.9453	68.7754	43.9453	70.4838	43.9453	68.7873	43.9453	70.0354	43.9453	68.9572	43.9453	69.6772	43.9453	69.246	43.9453	69.4804	43.9453	69.5968	43.9453	69.4795	43.9453	69.9507	43.9453	69.6505	43.9453	70.2569	43.9453	69.9215	43.9453	70.4774	43.9453	70.2081	43.9453	70.5871	43.9453	70.4404	43.9453	70.5738
45.4102	73.4481	45.4102	73.2209	45.4102	73.592	45.4102	72.9173	45.4102	73.6467	45.4102	72.5462	45.4102	73.6073	45.4102	72.1202	45.4102	73.469	45.4102	71.658	45.4102	73.2287	45.4102	71.1873	45.4102	72.8863	45.4102	70.7475	45.4102	72.4478	45.4102	70.3895	45.4102	71.9313	45.4102	70.1664	45.4102	71.3748	45.4102	70.1169	45.4102	70.8432	45.4102	70.2457	45.4102	70.4264	45.4102	70.5174	45.4102	70.2143	45.4102	70.869	45.4102	70.2502	45.4102	71.2301	45.4102	70.4995	45.4102	71.5393	45.4102	70.8686	45.4102	71.7501	45.4102	71.2529	45.4102	71.8323	45.4102	71.5707	45.4102	71.7716
46.875	73.8385	46.875	73.5772	46.875	74.0152	46.875	73.2367	46.875	74.1029	46.875	72.8245	46.875	74.0984	46.875	72.3533	46.875	73.9991	46.875	71.8445	46.875	73.8046	46.875	71.3339	46.875	73.5178	46.875	70.8756	46.875	73.1484	46.875	70.5398	46.875	72.7172	46.875	70.395	46.875	72.2622	46.875	70.4782	46.875	71.8426	46.875	70.7715	46.875	71.5337	46.875	71.2079	46.875	71.404	46.875	71.7004	46.875	71.4814	46.875	72.1694	46.875	71.733	46.875	72.5549	46.875	72.0809	46.875	72.8174	46.875	72.4364	46.875	72.9351	46.875	72.7265	46.875	72.9018
48.3398	74.1135	48.3398	73.8489	48.3398	74.3084	48.3398	73.5245	48.3398	74.4259	48.3398	73.1538	48.3398	74.4602	48.3398	72.7561	48.3398	74.4073	48.3398	72.358	48.3398	74.2658	48.3398	71.996	48.3398	74.0384	48.3398	71.7142	48.3398	73.7348	48.3398	71.5572	48.3398	73.3756	48.3398	71.5565	48.3398	72.9968	48.3398	71.7168	48.3398	72.6515	48.3398	72.0106	48.3398	72.4041	48.3398	72.3876	48.3398	72.3103	48.3398	72.789	48.3398	72.3912	48.3398	73.1611	48.3398	72.6189	48.3398	73.4608	48.3398	72.9294	48.3398	73.6579	48.3398	73.2486	48.3398	73.7343	48.3398	73.5143	48.3398	73.684
51.2695	75.87	51.2695	75.6649	51.2695	76.0163	51.2695	75.4062	51.2695	76.0993	51.2695	75.1005	51.2695	76.1149	51.2695	74.7576	51.2695	76.0593	51.2695	74.3916	51.2695	75.9302	51.2695	74.0224	51.2695	75.7279	51.2695	73.6762	51.2695	75.4573	51.2695	73.3838	51.2695	75.1306	51.2695	73.1762	51.2695	74.7702	51.2695	73.0768	51.2695	74.4101	51.2695	73.0929	51.2695	74.0934	51.2695	73.2117	51.2695	73.8641	51.2695	73.4026	51.2695	73.7506	51.2695	73.6252	51.2695	73.753	51.2695	73.8383	51.2695	73.8402	51.2695	74.0069	51.2695	73.9631	51.2695	74.1066	51.2695	74.0714	51.2695	74.1266
52.7344	76.7609	52.7344	76.5504	52.7344	76.9045	52.7344	76.277	52.7344	76.9774	52.7344	75.9464	52.7344	76.9759	52.7344	75.5663	52.7344	76.8963	52.7344	75.1484	52.7344	76.7358	52.7344	74.7098	52.7344	76.4935	52.7344	74.274	52.7344	76.172	52.7344	73.8709	52.7344	75.7798	52.7344	73.5338	52.7344	75.3342	52.7344	73.293	52.7344	74.8642	52.7344	73.1668	52.7344	74.4108	52.7344	73.154	52.7344	74.0228	52.7344	73.232	52.7344	73.7432	52.7344	73.3634	52.7344	73.5919	52.7344	73.5061	52.7344	73.5562	52.7344	73.6235	52.7344	73.5951	52.7344	73.6907	52.7344	73.6576	52.7344	73.6989
54.1992	77.8939	54.1992	77.6953	54.1992	78.0127	54.1992	77.4203	54.1992	78.0486	54.1992	77.0734	54.1992	77.9988	54.1992	76.6615	54.1992	77.8605	54.1992	76.195	54.1992	77.6314	54.1992	75.6908	54.1992	77.3109	54.1992	75.1737	54.1992	76.9014	54.1992	74.6786	54.1992	76.4121	54.1992	74.2486	54.1992	75.8625	54.1992	73.9272	54.1992	75.2875	54.1992	73.7455	54.1992	74.7401	54.1992	73.7075	54.1992	74.2859	54.1992	73.7863	54.1992	73.9842	54.1992	73.9328	54.1992	73.8598	54.1992	74.0914	54.1992	73.8879	54.1992	74.2142	54.1992	74.0063	54.1992	74.2687	54.1992	74.1434	54.1992	74.2421
55.6641	78.5068	55.6641	78.3086	55.6641	78.6237	55.6641	78.0325	55.6641	78.6571	55.6641	77.6843	55.6641	78.6058	55.6641	77.2733	55.6641	78.4693	55.6641	76.8144	55.6641	78.2478	55.6641	76.3303	55.6641	77.9438	55.6641	75.8537	55.6641	77.5638	55.6641	75.428	55.6641	77.1216	55.6641	75.1015	55.6641	76.643	55.6641	74.9161	55.6641	76.1692	55.6641	74.8903	55.6641	75.7564	55.6641	75.0092	55.6641	75.4644	55.6641	75.2282	55.6641	75.3342	55.6641	75.4884	55.6641	75.3651	55.6641	75.7324	55.6641	75.5127	55.6641	75.9147	55.6641	75.7085	55.6641	76.0058	55.6641	75.8854	55.6641	75.9938
58.5938	79.2418	58.5938	79.0121	58.5938	79.4034	58.5938	78.721	58.5938	79.492	58.5938	78.3779	58.5938	79.5043	58.5938	77.9961	58.5938	79.4383	58.5938	77.5944	58.5938	79.2944	58.5938	77.1987	58.5938	79.0757	58.5938	76.8417	58.5938	78.7905	58.5938	76.5602	58.5938	78.4546	58.5938	76.3884	58.5938	78.094	58.5938	76.3473	58.5938	77.7459	58.5938	76.4363	58.5938	77.4556	58.5938	76.6311	58.5938	77.2658	58.5938	76.8908	58.5938	77.2002	58.5938	77.1684	58.5938	77.2515	58.5938	77.4204	58.5938	77.3823	58.5938	77.6125	58.5938	77.5394	58.5938	77.722	58.5938	77.6715	58.5938	77.7397
60.0586	79.9712	60.0586	79.7701	60.0586	80.1175	60.0586	79.5212	60.0586	80.2034	60.0586	79.2342	60.0586	80.2253	60.0586	78.9213	60.0586	80.181	60.0586	78.599	60.0586	80.0706	60.0586	78.288	60.0586	79.8972	60.0586	78.0133	60.0586	79.6685	60.0586	77.8016	60.0586	79.3988	60.0586	77.677	60.0586	79.1102	60.0586	77.6542	60.0586	78.8335	60.0586	77.7328	60.0586	78.6049	60.0586	77.896	60.0586	78.4573	60.0586	78.1135	60.0586	78.4086	60.0586	78.3487	60.0586	78.4529	60.0586	78.5653	60.0586	78.5609	60.0586	78.7332	60.0586	78.6903	60.0586	78.8316	60.0586	78.7983	60.0586	78.8518
62.9883	80.9557	62.9883	80.7859	62.9883	81.074	62.9883	80.5679	62.9883	81.1386	62.9883	80.3078	62.9883	81.1486	62.9883	80.0145	62.9883	81.1037	62.9883	79.7017	62.9883	81.0051	62.9883	79.388	62.9883	80.8556	62.9883	79.0971	62.9883	80.6617	62.9883	78.856	62.9883	80.434	62.9883	78.691	62.9883	80.1897	62.9883	78.6211	62.9883	79.9518	62.9883	78.6515	62.9883	79.7471	62.9883	78.771	62.9883	79.6007	62.9883	78.9536	62.9883	79.5272	62.9883	79.165	62.9883	79.5246	62.9883	79.3704	62.9883	79.573	62.9883	79.5401	62.9883	79.6407	62.9883	79.6541	62.9883	79.6937	62.9883	79.7039
64.4531	81.2844	64.4531	81.1062	64.4531	81.4169	64.4531	80.8866	64.4531	81.5009	64.4531	80.6321	64.4531	81.5346	64.4531	80.3525	64.4531	81.5169	64.4531	80.0613	64.4531	81.4477	64.4531	79.7765	64.4531	81.3286	64.4531	79.5196	64.4531	81.1641	64.4531	79.3138	64.4531	80.9631	64.4531	79.1801	64.4531	80.74	64.4531	79.1323	64.4531	80.5149	64.4531	79.1722	64.4531	80.3123	64.4531	79.2883	64.4531	80.1559	64.4531	79.4571	64.4531	80.062	64.4531	79.6492	64.4531	80.0324	64.4531	79.8342	64.4531	80.0528	64.4531	79.9869	64.4531	80.0968	64.4531	80.09	64.4531	80.1337	64.4531	80.1372
67.3828	82.2946	67.3828	82.1177	67.3828	82.4316	67.3828	81.9059	67.3828	82.5246	67.3828	81.6661	67.3828	82.5706	67.3828	81.4072	67.3828	82.5674	67.3828	81.1411	67.3828	82.5135	67.3828	80.8824	67.3828	82.4096	67.3828	80.6484	67.3828	82.2587	67.3828	80.4572	67.3828	82.0684	67.3828	80.3254	67.3828	81.8509	67.3828	80.2645	67.3828	81.6247	67.3828	80.2772	67.3828	81.412	67.3828	80.3559	67.3828	81.2357	67.3828	80.4832	67.3828	81.1131	67.3828	80.6352	67.3828	81.0492	67.3828	80.7869	67.3828	81.0347	67.3828	80.9158	67.3828	81.0478	67.3828	81.0067	67.3828	81.0622	67.3828	81.0538
68.8477	82.9961	68.8477	82.82	68.8477	83.1361	68.8477	82.6134	68.8477	83.2353	68.8477	82.3833	68.8477	83.29	68.8477	82.1388	68.8477	83.2973	68.8477	81.8909	68.8477	83.2557	68.8477	81.6529	68.8477	83.1653	68.8477	81.4399	68.8477	83.029	68.8477	81.2673	68.8477	82.8536	68.8477	81.1493	68.8477	82.6507	68.8477	81.0951	68.8477	82.4371	68.8477	81.1068	68.8477	82.2334	68.8477	81.1777	68.8477	82.0608	68.8477	81.2925	68.8477	81.9354	68.8477	81.4306	68.8477	81.863	68.8477	81.5694	68.8477	81.8361	68.8477	81.689	68.8477	81.8361	68.8477	81.7757	68.8477	81.8393	68.8477	81.8241
71.7773	84.2294	71.7773	84.0742	71.7773	84.3549	71.7773	83.8945	71.7773	84.4458	71.7773	83.6965	71.7773	84.4982	71.7773	83.4871	71.7773	84.5088	71.7773	83.2744	71.7773	84.4755	71.7773	83.0678	71.7773	84.398	71.7773	82.8777	71.7773	84.2783	71.7773	82.7153	71.7773	84.1215	71.7773	82.591	71.7773	83.9369	71.7773	82.5132	71.7773	83.738	71.7773	82.4857	71.7773	83.5414	71.7773	82.5067	71.7773	83.3651	71.7773	82.5676	71.7773	83.2235	71.7773	82.6549	71.7773	83.1237	71.7773	82.7522	71.7773	83.0627	71.7773	82.8438	71.7773	83.0281	71.7773	82.9179	71.7773	83.0027	71.7773	82.9697
74.707	84.8742	74.707	84.7328	74.707	84.987	74.707	84.5668	74.707	85.0675	74.707	84.3807	74.707	85.1126	74.707	84.1799	74.707	85.1193	74.707	83.9708	74.707	85.0857	74.707	83.7613	74.707	85.0109	74.707	83.5607	74.707	84.896	74.707	83.3793	74.707	84.7447	74.707	83.2277	74.707	84.564	74.707	83.1154	74.707	84.3649	74.707	83.0486	74.707	84.1616	74.707	83.0287	74.707	83.9697	74.707	83.0511	74.707	83.8034	74.707	83.1058	74.707	83.6712	74.707	83.1793	74.707	83.5738	74.707	83.2579	74.707	83.5036	74.707	83.3308	74.707	83.4479	74.707	83.3933
77.6367	85.9071	77.6367	85.77	77.6367	86.0179	77.6367	85.6099	77.6367	86.0988	77.6367	85.4307	77.6367	86.1466	77.6367	85.2367	77.6367	86.1582	77.6367	85.033	77.6367	86.1309	77.6367	84.826	77.6367	86.063	77.6367	84.6229	77.6367	85.954	77.6367	84.4325	77.6367	85.806	77.6367	84.2641	77.6367	85.6238	77.6367	84.1265	77.6367	85.4163	77.6367	84.0268	77.6367	85.1955	77.6367	83.9685	77.6367	84.9763	77.6367	83.9505	77.6367	84.7736	77.6367	83.9666	77.6367	84.599	77.6367	84.0075	77.6367	84.4578	77.6367	84.063	77.6367	84.3482	77.6367	84.1251	77.6367	84.2624	77.6367	84.1906
79.1016	86.6376	79.1016	86.504	79.1016	86.7442	79.1016	86.3469	79.1016	86.8207	79.1016	86.1696	79.1016	86.864	79.1016	85.9764	79.1016	86.8711	79.1016	85.772	79.1016	86.8392	79.1016	85.5625	79.1016	86.7664	79.1016	85.3549	79.1016	86.6521	79.1016	85.1577	79.1016	86.4978	79.1016	84.98	79.1016	86.3084	79.1016	84.831	79.1016	86.0921	79.1016	84.7181	79.1016	85.8611	79.1016	84.6452	79.1016	85.6304	79.1016	84.6122	79.1016	85.4154	79.1016	84.6137	79.1016	85.2289	79.1016	84.6413	79.1016	85.0776	79.1016	84.6856	79.1016	84.9607	79.1016	84.7394	79.1016	84.8714	79.1016	84.8003
82.0312	87.3232	82.0312	87.1909	82.0312	87.4308	82.0312	87.0372	82.0312	87.5107	82.0312	86.8657	82.0312	87.5596	82.0312	86.6807	82.0312	87.5745	82.0312	86.487	82.0312	87.5528	82.0312	86.2904	82.0312	87.4921	82.0312	86.0976	82.0312	87.3918	82.0312	85.9162	82.0312	87.253	82.0312	85.7541	82.0312	87.0799	82.0312	85.6191	82.0312	86.88	82.0312	85.5176	82.0312	86.6645	82.0312	85.4532	82.0312	86.4474	82.0312	85.4257	82.0312	86.2432	82.0312	85.4307	82.0312	86.0637	82.0312	85.4611	82.0312	85.9156	82.0312	85.5083	82.0312	85.7984	82.0312	85.5659	82.0312	85.7063	82.0312	85.631
84.9609	87.4583	84.9609	87.3365	84.9609	87.5685	84.9609	87.2068	84.9609	87.6626	84.9609	87.0719	84.9609	87.7357	84.9609	86.9337	84.9609	87.7825	84.9609	86.7939	84.9609	87.798	84.9609	86.654	84.9609	87.7782	84.9609	86.5163	84.9609	87.7205	84.9609	86.3839	84.9609	87.6248	84.9609	86.2615	84.9609	87.4936	84.9609	86.1543	84.9609	87.3329	84.9609	86.068	84.9609	87.1519	84.9609	86.0075	84.9609	86.9623	84.9609	85.9752	84.9609	86.777	84.9609	85.9709	84.9609	86.607	84.9609	85.9913	84.9609	86.4597	84.9609	86.0314	84.9609	86.3372	84.9609	86.0867	84.9609	86.2371	84.9609	86.1549
87.8906	88.5496	87.8906	88.4426	87.8906	88.6324	87.8906	88.3132	87.8906	88.6884	87.8906	88.1631	87.8906	88.7147	87.8906	87.9934	87.8906	88.7084	87.8906	87.8054	87.8906	88.667	87.8906	87.6012	87.8906	88.5883	87.8906	87.3844	87.8906	88.4712	87.8906	87.1604	87.8906	88.3162	87.8906	86.9364	87.8906	88.1256	87.8906	86.7219	87.8906	87.9042	87.8906	86.5271	87.8906	87.6599	87.8906	86.3621	87.8906	87.4034	87.8906	86.2351	87.8906	87.1472	87.8906	86.1508	87.8906	86.9043	87.8906	86.1106	87.8906	86.6857	87.8906	86.1126	87.8906	86.4989	87.8906	86.1541	87.8906	86.3476	87.8906	86.2327
90.8203	89.17	90.8203	89.0672	90.8203	89.2491	90.8203	88.9411	90.8203	89.3033	90.8203	88.7917	90.8203	89.3309	90.8203	88.6192	90.8203	89.3292	90.8203	88.4245	90.8203	89.2948	90.8203	88.21	90.8203	89.2245	90.8203	87.9798	90.8203	89.1154	90.8203	87.7402	90.8203	88.9657	90.8203	87.4999	90.8203	88.776	90.8203	87.2695	90.8203	88.5498	90.8203	87.0601	90.8203	88.2942	90.8203	86.8825	90.8203	88.0201	90.8203	86.7449	90.8203	87.7416	90.8203	86.6521	90.8203	87.4736	90.8203	86.6055	90.8203	87.2301	90.8203	86.6038	90.8203	87.0216	90.8203	86.6451	90.8203	86.8538	90.8203	86.7284
95.2148	89.6472	95.2148	89.5413	95.2148	89.7333	95.2148	89.4178	95.2148	89.7972	95.2148	89.2786	95.2148	89.836	95.2148	89.1251	95.2148	89.8467	95.2148	88.959	95.2148	89.8261	95.2148	88.7821	95.2148	89.7715	95.2148	88.597	95.2148	89.6809	95.2148	88.4076	95.2148	89.5532	95.2148	88.2191	95.2148	89.3897	95.2148	88.0379	95.2148	89.1937	95.2148	87.8717	95.2148	88.9719	95.2148	87.728	95.2148	88.7337	95.2148	87.614	95.2148	88.4911	95.2148	87.5347	95.2148	88.2571	95.2148	87.4931	95.2148	88.0436	95.2148	87.4902	95.2148	87.8597	95.2148	87.5257	95.2148	87.7108	95.2148	87.5993
98.1445	89.8254	98.1445	89.7319	98.1445	89.8977	98.1445	89.6177	98.1445	89.948	98.1445	89.483	98.1445	89.9753	98.1445	89.3287	98.1445	89.9778	98.1445	89.1559	98.1445	89.9535	98.1445	88.9669	98.1445	89.9	98.1445	88.765	98.1445	89.8149	98.1445	88.5552	98.1445	89.6965	98.1445	88.3442	98.1445	89.5441	98.1445	88.1398	98.1445	89.3593	98.1445	87.9513	98.1445	89.146	98.1445	87.7879	98.1445	88.9113	98.1445	87.6581	98.1445	88.6653	98.1445	87.5687	98.1445	88.4198	98.1445	87.524	98.1445	88.1874	98.1445	87.5259	98.1445	87.9792	98.1445	87.5743	98.1445	87.804	98.1445	87.6678
101.074	89.9643	101.074	89.881	101.074	90.0313	101.074	89.7814	101.074	90.0816	101.074	89.6653	101.074	90.1141	101.074	89.5325	101.074	90.127	101.074	89.3833	101.074	90.1177	101.074	89.2187	101.074	90.0829	101.074	89.0411	101.074	90.0194	101.074	88.854	101.074	89.9239	101.074	88.6628	101.074	89.7945	101.074	88.4742	101.074	89.6311	101.074	88.2965	101.074	89.4363	101.074	88.1385	101.074	89.2162	101.074	88.0091	101.074	88.98	101.074	87.9158	101.074	88.7399	101.074	87.8646	101.074	88.5092	101.074	87.8591	101.074	88.3008	101.074	87.9012	101.074	88.1254	101.074	87.9906
105.469	90.0273	105.469	89.942	105.469	90.0979	105.469	89.842	105.469	90.1536	105.469	89.7276	105.469	90.1935	105.469	89.5991	105.469	90.2161	105.469	89.4573	105.469	90.2189	105.469	89.3038	105.469	90.1986	105.469	89.1406	105.469	90.1513	105.469	88.9706	105.469	90.0731	105.469	88.7974	105.469	89.9607	105.469	88.6259	105.469	89.8125	105.469	88.4619	105.469	89.6295	105.469	88.3126	105.469	89.4163	105.469	88.1861	105.469	89.1814	105.469	88.0905	105.469	88.9371	105.469	88.034	105.469	88.698	105.469	88.023	105.469	88.4792	105.469	88.0621	105.469	88.2942	105.469	88.1531
108.398	90.0014	108.398	89.9205	108.398	90.0766	108.398	89.8343	108.398	90.145	108.398	89.7426	108.398	90.205	108.398	89.6451	108.398	90.2536	108.398	89.541	108.398	90.2871	108.398	89.4293	108.398	90.3006	108.398	89.3095	108.398	90.2888	108.398	89.1813	108.398	90.2462	108.398	89.0456	108.398	90.1682	108.398	88.9054	108.398	90.0522	108.398	88.7654	108.398	89.8982	108.398	88.6329	108.398	89.7101	108.398	88.5169	108.398	89.4959	108.398	88.4275	108.398	89.2673	108.398	88.3745	108.398	89.0387	108.398	88.3662	108.398	88.8257	108.398	88.4079	108.398	88.6426	108.398	88.5009
112.793	90.6043	112.793	90.5357	112.793	90.6596	112.793	90.4525	112.793	90.7025	112.793	90.3533	112.793	90.7326	112.793	90.2365	112.793	90.7487	112.793	90.1011	112.793	90.7484	112.793	89.9467	112.793	90.7277	112.793	89.7739	112.793	90.6821	112.793	89.5851	112.793	90.6063	112.793	89.3846	112.793	90.4959	112.793	89.1787	112.793	90.348	112.793	88.9763	112.793	90.1622	112.793	88.7878	112.793	89.942	112.793	88.6252	112.793	89.695	112.793	88.5006	112.793	89.4333	112.793	88.4248	112.793	89.1719	112.793	88.4063	112.793	88.9279	112.793	88.4496	112.793	88.7177	112.793	88.555
117.188	90.4283	117.188	90.3577	117.188	90.4905	117.188	90.2777	117.188	90.5449	117.188	90.1866	117.188	90.5909	117.188	90.0827	117.188	90.6262	117.188	89.9646	117.188	90.647	117.188	89.8311	117.188	90.6482	117.188	89.6818	117.188	90.6235	117.188	89.5175	117.188	90.5668	117.188	89.3405	117.188	90.4724	117.188	89.1554	117.188	90.3371	117.188	88.9692	117.188	90.1602	117.188	88.7915	117.188	89.9453	117.188	88.6341	117.188	89.7006	117.188	88.5098	117.188	89.4383	117.188	88.4311	117.188	89.1748	117.188	88.4085	117.188	88.9281	117.188	88.4485	117.188	88.7156	117.188	88.5523
120.117	90.4619	120.117	90.396	120.117	90.5209	120.117	90.3215	120.117	90.5739	120.117	90.236	120.117	90.6201	120.117	90.1371	120.117	90.6572	120.117	90.0223	120.117	90.6814	120.117	89.8899	120.117	90.6869	120.117	89.7391	120.117	90.6675	120.117	89.5706	120.117	90.6162	120.117	89.3872	120.117	90.5273	120.117	89.1941	120.117	90.3966	120.117	88.999	120.117	90.223	120.117	88.8125	120.117	90.0091	120.117	88.6473	120.117	89.7626	120.117	88.5173	120.117	89.4955	120.117	88.436	120.117	89.2243	120.117	88.4142	120.117	88.9675	120.117	88.4589	120.117	88.7442	120.117	88.5707
124.512	90.4458	124.512	90.3819	124.512	90.5092	124.512	90.3156	124.512	90.5726	124.512	90.244	124.512	90.6343	124.512	90.1637	124.512	90.691	124.512	90.0712	124.512	90.7371	124.512	89.9638	124.512	90.7657	124.512	89.8396	124.512	90.7692	124.512	89.6979	124.512	90.7399	124.512	89.5401	124.512	90.6711	124.512	89.3701	124.512	90.5581	124.512	89.1942	124.512	90.3993	124.512	89.0219	124.512	90.1972	124.512	88.8654	124.512	89.9591	124.512	88.739	124.512	89.6974	124.512	88.6569	124.512	89.4292	124.512	88.6321	124.512	89.1742	124.512	88.6728	124.512	88.9524	124.512	88.7812
128.906	90.6232	128.906	90.5566	128.906	90.6863	128.906	90.4847	128.906	90.7456	128.906	90.4042	128.906	90.7986	128.906	90.3102	128.906	90.8409	128.906	90.1983	128.906	90.867	128.906	90.0642	128.906	90.8705	128.906	89.9058	128.906	90.8448	128.906	89.7229	128.906	90.7832	128.906	89.5178	128.906	90.6799	128.906	89.2963	128.906	90.5308	128.906	89.0672	128.906	90.3345	128.906	88.8428	128.906	90.0937	128.906	88.6385	128.906	89.8159	128.906	88.4715	128.906	89.5142	128.906	88.3594	128.906	89.207	128.906	88.317	128.906	88.916	128.906	88.3538	128.906	88.6641	128.906	88.4718
133.301	90.4424	133.301	90.3871	133.301	90.4932	133.301	90.3251	133.301	90.5411	133.301	90.2537	133.301	90.5863	133.301	90.1695	133.301	90.6277	133.301	90.0695	133.301	90.6621	133.301	89.9509	133.301	90.6845	133.301	89.8118	133.301	90.688	133.301	89.6519	133.301	90.6641	133.301	89.4727	133.301	90.604	133.301	89.2781	133.301	90.5003	133.301	89.0755	133.301	90.3479	133.301	88.8756	133.301	90.1464	133.301	88.6929	133.301	89.9009	133.301	88.5444	133.301	89.6229	133.301	88.4478	133.301	89.3303	133.301	88.4187	133.301	89.0454	133.301	88.4669	133.301	88.7926	133.301	88.5942
139.16	89.8338	139.16	89.7844	139.16	89.8885	139.16	89.7373	139.16	89.9508	139.16	89.6893	139.16	90.0211	139.16	89.6375	139.16	90.0975	139.16	89.579	139.16	90.1751	139.16	89.5116	139.16	90.2465	139.16	89.4331	139.16	90.3027	139.16	89.342	139.16	90.3336	139.16	89.2378	139.16	90.3301	139.16	89.1217	139.16	90.2843	139.16	88.9976	139.16	90.1917	139.16	88.8725	139.16	90.0514	139.16	88.7571	139.16	89.8676	139.16	88.6651	139.16	89.6499	139.16	88.6111	139.16	89.4132	139.16	88.6086	139.16	89.1767	139.16	88.6665	139.16	88.9613	139.16	88.7863
143.555	89.9625	143.555	89.8968	143.555	90.0335	143.555	89.8352	143.555	90.1082	143.555	89.7748	143.555	90.1831	143.555	89.7103	143.555	90.2523	143.555	89.6358	143.555	90.3087	143.555	89.5447	143.555	90.3442	143.555	89.4316	143.555	90.3504	143.555	89.2929	143.555	90.3197	143.555	89.1279	143.555	90.2456	143.555	88.9403	143.555	90.1239	143.555	88.7382	143.555	89.9535	143.555	88.5343	143.555	89.7373	143.555	88.3452	143.555	89.4831	143.555	88.1897	143.555	89.2033	143.555	88.0863	143.555	88.9152	143.555	88.0504	143.555	88.6393	143.555	88.0913	143.555	88.3973	143.555	88.2095
147.949	90.2462	147.949	90.2084	147.949	90.2819	147.949	90.1634	147.949	90.3179	147.949	90.1039	147.949	90.3536	147.949	90.0213	147.949	90.3857	147.949	89.9072	147.949	90.4084	147.949	89.7546	147.949	90.414	147.949	89.5594	147.949	90.3934	147.949	89.3212	147.949	90.3368	147.949	89.0443	147.949	90.235	147.949	88.7382	147.949	90.0806	147.949	88.4172	147.949	89.8691	147.949	88.1012	147.949	89.6006	147.949	87.8139	147.949	89.2813	147.949	87.5815	147.949	88.9241	147.949	87.4288	147.949	88.5492	147.949	87.3759	147.949	88.1832	147.949	87.4329	147.949	87.8561	147.949	87.5979
153.809	89.7289	153.809	89.6813	153.809	89.7764	153.809	89.6311	153.809	89.8249	153.809	89.5745	153.809	89.8741	153.809	89.5067	153.809	89.9218	153.809	89.4225	153.809	89.9647	153.809	89.3171	153.809	89.9975	153.809	89.1868	153.809	90.0134	153.809	89.0294	153.809	90.0041	153.809	88.8459	153.809	89.9605	153.809	88.6405	153.809	89.8741	153.809	88.4217	153.809	89.7382	153.809	88.203	153.809	89.55	153.809	88.0021	153.809	89.3121	153.809	87.8399	153.809	89.0338	153.809	87.7377	153.809	88.7317	153.809	87.7133	153.809	88.4286	153.809	87.7766	153.809	88.1514	153.809	87.9268
159.668	89.733	159.668	89.6935	159.668	89.7776	159.668	89.6561	159.668	89.8279	159.668	89.6164	159.668	89.8829	159.668	89.568	159.668	89.9396	159.668	89.5039	159.668	89.9932	159.668	89.4173	159.668	90.0368	159.668	89.3023	159.668	90.0619	159.668	89.1553	159.668	90.0588	159.668	88.9758	159.668	90.0174	159.668	88.7677	159.668	89.9288	159.668	88.5397	159.668	89.7868	159.668	88.306	159.668	89.5896	159.668	88.0862	159.668	89.3411	159.668	87.9032	159.668	89.0524	159.668	87.7808	159.668	88.7415	159.668	87.739	159.668	88.4326	159.668	87.7894	159.668	88.1535	159.668	87.9316
165.527	89.7085	165.527	89.6755	165.527	89.7477	165.527	89.6456	165.527	89.7945	165.527	89.6139	165.527	89.8483	165.527	89.5742	165.527	89.9067	165.527	89.5197	165.527	89.9653	165.527	89.4436	165.527	90.0171	165.527	89.3407	165.527	90.0535	165.527	89.2077	165.527	90.0639	165.527	89.0444	165.527	90.0374	165.527	88.8542	165.527	89.9642	165.527	88.6451	165.527	89.8373	165.527	88.4297	165.527	89.6544	165.527	88.2255	165.527	89.4193	165.527	88.0536	165.527	89.1432	165.527	87.9366	165.527	88.8444	165.527	87.8939	165.527	88.5476	165.527	87.9381	165.527	88.2807	165.527	88.0705
171.387	89.3853	171.387	89.3401	171.387	89.4329	171.387	89.2972	171.387	89.4832	171.387	89.2566	171.387	89.5371	171.387	89.2175	171.387	89.5944	171.387	89.1773	171.387	89.6533	171.387	89.1323	171.387	89.7087	171.387	89.0773	171.387	89.752	171.387	89.0068	171.387	89.7721	171.387	88.9159	171.387	89.7569	171.387	88.8014	171.387	89.6956	171.387	88.6637	171.387	89.5813	171.387	88.5081	171.387	89.4129	171.387	88.3457	171.387	89.197	171.387	88.1932	171.387	88.9476	171.387	88.0715	171.387	88.6859	171.387	88.0017	171.387	88.4369	171.387	88.0007	171.387	88.2266	171.387	88.0766
177.246	89.1308	177.246	89.1004	177.246	89.1714	177.246	89.0738	177.246	89.2278	177.246	89.045	177.246	89.3028	177.246	89.0091	177.246	89.3952	177.246	88.962	177.246	89.4989	177.246	88.9002	177.246	89.6025	177.246	88.8203	177.246	89.691	177.246	88.7185	177.246	89.7469	177.246	88.5916	177.246	89.7531	177.246	88.4378	177.246	89.6944	177.246	88.2588	177.246	89.5609	177.246	88.0608	177.246	89.3501	177.246	87.8566	177.246	89.069	177.246	87.6656	177.246	88.7356	177.246	87.5128	177.246	88.3784	177.246	87.4254	177.246	88.0343	177.246	87.4275	177.246	87.7419	177.246	87.5334
183.105	89.1501	183.105	89.1151	183.105	89.1934	183.105	89.0849	183.105	89.2462	183.105	89.0536	183.105	89.3072	183.105	89.0137	183.105	89.3728	183.105	88.9568	183.105	89.4379	183.105	88.8747	183.105	89.4958	183.105	88.7602	183.105	89.5383	183.105	88.6082	183.105	89.5556	183.105	88.4171	183.105	89.5367	183.105	88.1901	183.105	89.4702	183.105	87.9362	183.105	89.3457	183.105	87.6714	183.105	89.1565	183.105	87.4189	183.105	88.9022	183.105	87.2071	183.105	88.5907	183.105	87.0662	183.105	88.2402	183.105	87.0222	183.105	87.8793	183.105	87.0905	183.105	87.5436	183.105	87.2702
188.965	88.6512	188.965	88.6612	188.965	88.6523	188.965	88.6753	188.965	88.6713	188.965	88.6871	188.965	88.7139	188.965	88.69	188.965	88.7831	188.965	88.6777	188.965	88.8771	188.965	88.6436	188.965	88.9884	188.965	88.5815	188.965	89.1044	188.965	88.4863	188.965	89.2091	188.965	88.3548	188.965	89.285	188.965	88.1878	188.965	89.3153	188.965	87.992	188.965	89.2861	188.965	87.7814	188.965	89.1875	188.965	87.578	188.965	89.0162	188.965	87.4101	188.965	88.7769	188.965	87.3079	188.965	88.4847	188.965	87.2966	188.965	88.1646	188.965	87.3892	188.965	87.8509	188.965	87.5812
196.289	89.0879	196.289	89.0207	196.289	89.1592	196.289	88.9605	196.289	89.2288	196.289	88.9054	196.289	89.2889	196.289	88.8495	196.289	89.3317	196.289	88.7827	196.289	89.3502	196.289	88.6936	196.289	89.3383	196.289	88.5707	196.289	89.2899	196.289	88.4054	196.289	89.1991	196.289	88.1946	196.289	89.0604	196.289	87.9417	196.289	88.8707	196.289	87.6583	196.289	88.6307	196.289	87.3633	196.289	88.3474	196.289	87.0815	196.289	88.0338	196.289	86.8403	196.289	87.7074	196.289	86.6652	196.289	87.3884	196.289	86.5751	196.289	87.0972	196.289	86.579	196.289	86.8534	196.289	86.6753
203.613	88.6276	203.613	88.6502	203.613	88.6125	203.613	88.6721	203.613	88.6134	203.613	88.6843	203.613	88.6368	203.613	88.678	203.613	88.686	203.613	88.6436	203.613	88.7582	203.613	88.5724	203.613	88.8433	203.613	88.4573	203.613	88.9249	203.613	88.2942	203.613	88.9827	203.613	88.0836	203.613	88.9959	203.613	87.8309	203.613	88.9468	203.613	87.5478	203.613	88.8235	203.613	87.2525	203.613	88.622	203.613	86.9698	203.613	88.3481	203.613	86.7298	203.613	88.0173	203.613	86.5635	203.613	87.6544	203.613	86.4969	203.613	87.2914	203.613	86.5445	203.613	86.9636	203.613	86.7054
210.938	88.4716	210.938	88.4272	210.938	88.5277	210.938	88.3914	210.938	88.5954	210.938	88.359	210.938	88.6714	210.938	88.3232	210.938	88.7491	210.938	88.2765	210.938	88.8188	210.938	88.2113	210.938	88.8695	210.938	88.12	210.938	88.8897	210.938	87.9962	210.938	88.8684	210.938	87.835	210.938	88.7962	210.938	87.6348	210.938	88.6662	210.938	87.3994	210.938	88.4755	210.938	87.1402	210.938	88.2262	210.938	86.8773	210.938	87.9277	210.938	86.6384	210.938	87.5961	210.938	86.4544	210.938	87.2549	210.938	86.3531	210.938	86.9321	210.938	86.3526	210.938	86.6571	210.938	86.4571
218.262	88.3579	218.262	88.3243	218.262	88.4016	218.262	88.2992	218.262	88.4544	218.262	88.2781	218.262	88.5135	218.262	88.2539	218.262	88.5746	218.262	88.2173	218.262	88.6318	218.262	88.158	218.262	88.6776	218.262	88.0659	218.262	88.7028	218.262	87.9324	218.262	88.6962	218.262	87.7525	218.262	88.6454	218.262	87.5261	218.262	88.5386	218.262	87.2603	218.262	88.3672	218.262	86.9704	218.262	88.1289	218.262	86.6804	218.262	87.83	218.262	86.4213	218.262	87.4868	218.262	86.2262	218.262	87.1247	218.262	86.1234	218.262	86.776	218.262	86.131	218.262	86.4746	218.262	86.2518
225.586	88.1552	225.586	88.1284	225.586	88.1864	225.586	88.1047	225.586	88.2218	225.586	88.0805	225.586	88.2603	225.586	88.05	225.586	88.3002	225.586	88.0051	225.586	88.3391	225.586	87.937	225.586	88.3724	225.586	87.8364	225.586	88.3925	225.586	87.6959	225.586	88.3879	225.586	87.5104	225.586	88.3444	225.586	87.2793	225.586	88.2471	225.586	87.0087	225.586	88.0838	225.586	86.7129	225.586	87.8495	225.586	86.4153	225.586	87.5489	225.586	86.1465	225.586	87.199	225.586	85.9404	225.586	86.8275	225.586	85.8269	225.586	86.47	225.586	85.8254	225.586	86.1636	225.586	85.941
232.91	87.8951	232.91	87.8759	232.91	87.9117	232.91	87.8543	232.91	87.9261	232.91	87.8293	232.91	87.9402	232.91	87.798	232.91	87.9569	232.91	87.7552	232.91	87.9787	232.91	87.6935	232.91	88.0047	232.91	87.6043	232.91	88.0287	232.91	87.4789	232.91	88.0386	232.91	87.3103	232.91	88.0176	232.91	87.0959	232.91	87.948	232.91	86.8394	232.91	87.815	232.91	86.5536	232.91	87.6106	232.91	86.261	232.91	87.3375	232.91	85.9929	232.91	87.01	232.91	85.7845	232.91	86.6541	232.91	85.6676	232.91	86.305	232.91	85.6639	232.91	86.0013	232.91	85.7789
241.699	87.5944	241.699	87.5641	241.699	87.6303	241.699	87.5364	241.699	87.6739	241.699	87.5081	241.699	87.7264	241.699	87.4752	241.699	87.7859	241.699	87.4324	241.699	87.8473	241.699	87.3728	241.699	87.9016	241.699	87.2881	241.699	87.9372	241.699	87.1693	241.699	87.9402	241.699	87.0083	241.699	87.8966	241.699	86.8005	241.699	87.7935	241.699	86.5481	241.699	87.6218	241.699	86.2627	241.699	87.3787	241.699	85.9667	241.699	87.0702	241.699	85.6915	241.699	86.713	241.699	85.4735	241.699	86.3348	241.699	85.346	241.699	85.9714	241.699	85.3324	241.699	85.6618	241.699	85.4407
250.488	87.4104	250.488	87.3657	250.488	87.4636	250.488	87.3309	250.488	87.5217	250.488	87.3049	250.488	87.5797	250.488	87.2829	250.488	87.6321	250.488	87.2568	250.488	87.6729	250.488	87.2154	250.488	87.6958	250.488	87.1455	250.488	87.6939	250.488	87.0341	250.488	87.6587	250.488	86.8708	250.488	87.5801	250.488	86.6511	250.488	87.4478	250.488	86.3795	250.488	87.2539	250.488	86.0709	250.488	86.9962	250.488	85.7513	250.488	86.6814	250.488	85.4549	250.488	86.3269	250.488	85.2187	250.488	85.9604	250.488	85.0747	250.488	85.6161	250.488	85.0437	250.488	85.3295	250.488	85.1316
259.277	87.3575	259.277	87.3507	259.277	87.3884	259.277	87.3693	259.277	87.4373	259.277	87.4073	259.277	87.4965	259.277	87.4511	259.277	87.559	259.277	87.4803	259.277	87.619	259.277	87.4709	259.277	87.671	259.277	87.3996	259.277	87.7063	259.277	87.248	259.277	87.7117	259.277	87.0062	259.277	87.6693	259.277	86.6764	259.277	87.5597	259.277	86.2745	259.277	87.3669	259.277	85.8313	259.277	87.0838	259.277	85.3901	259.277	86.7161	259.277	85.0013	259.277	86.285	259.277	84.7132	259.277	85.825	259.277	84.5611	259.277	85.3799	259.277	84.5617	259.277	84.9956	259.277	84.7126
268.066	86.8996	268.066	86.8498	268.066	86.9526	268.066	86.8122	268.066	87.0014	268.066	86.7931	268.066	87.0435	268.066	86.7928	268.066	87.0821	268.066	86.8037	268.066	87.124	268.066	86.8105	268.066	87.1743	268.066	86.793	268.066	87.2312	268.066	86.7284	268.066	87.2827	268.066	86.5967	268.066	87.3071	268.066	86.385	268.066	87.2771	268.066	86.0935	268.066	87.1671	268.066	85.7403	268.066	86.9604	268.066	85.3621	268.066	86.6551	268.066	85.0099	268.066	86.2678	268.066	84.738	268.066	85.8333	268.066	84.5901	268.066	85.3998	268.066	84.5897	268.066	85.0196	268.066	84.7385
276.855	86.8558	276.855	86.7962	276.855	86.9119	276.855	86.7408	276.855	86.9582	276.855	86.6967	276.855	86.9903	276.855	86.6678	276.855	87.0056	276.855	86.6516	276.855	87.0034	276.855	86.6367	276.855	86.9846	276.855	86.6036	276.855	86.9506	276.855	86.5271	276.855	86.9014	276.855	86.3816	276.855	86.8317	276.855	86.1479	276.855	86.7289	276.855	85.82	276.855	86.5745	276.855	85.4115	276.855	86.3492	276.855	84.9586	276.855	86.041	276.855	84.5187	276.855	85.6533	276.855	84.1596	276.855	85.2099	276.855	83.9423	276.855	84.7553	276.855	83.9036	276.855	84.3477	276.855	84.0475
287.109	86.6706	287.109	86.6303	287.109	86.7235	287.109	86.6079	287.109	86.7824	287.109	86.605	287.109	86.8415	287.109	86.6166	287.109	86.8966	287.109	86.6303	287.109	86.9439	287.109	86.6271	287.109	86.9777	287.109	86.5843	287.109	86.9892	287.109	86.4788	287.109	86.9666	287.109	86.2924	287.109	86.8965	287.109	86.0162	287.109	86.7666	287.109	85.6547	287.109	86.5675	287.109	85.2298	287.109	86.2946	287.109	84.7811	287.109	85.95	287.109	84.3629	287.109	85.5454	287.109	84.0346	287.109	85.1045	287.109	83.847	287.109	84.6645	287.109	83.8286	287.109	84.2725	287.109	83.9792
297.363	86.2352	297.363	86.1845	297.363	86.2938	297.363	86.1545	297.363	86.3477	297.363	86.1529	297.363	86.389	297.363	86.179	297.363	86.4175	297.363	86.2219	297.363	86.4401	297.363	86.2608	297.363	86.4658	297.363	86.2682	297.363	86.4975	297.363	86.2151	297.363	86.5247	297.363	86.0774	297.363	86.523	297.363	85.8434	297.363	86.4613	297.363	85.5193	297.363	86.3132	297.363	85.1334	297.363	86.0693	297.363	84.7343	297.363	85.7433	297.363	84.3824	297.363	85.3701	297.363	84.1321	297.363	84.9934	297.363	84.0137	297.363	84.6509	297.363	84.0272	297.363	84.3658	297.363	84.1523
307.617	86.2154	307.617	86.1815	307.617	86.2395	307.617	86.1436	307.617	86.2496	307.617	86.1064	307.617	86.2459	307.617	86.0721	307.617	86.2349	307.617	86.0397	307.617	86.2289	307.617	86.0048	307.617	86.2436	307.617	85.9577	307.617	86.2903	307.617	85.8821	307.617	86.3665	307.617	85.7542	307.617	86.4481	307.617	85.5469	307.617	86.4892	307.617	85.2385	307.617	86.4332	307.617	84.8233	307.617	86.229	307.617	84.3229	307.617	85.8485	307.617	83.7919	307.617	85.3001	307.617	83.3129	307.617	84.6379	307.617	82.9769	307.617	83.9583	307.617	82.8575	307.617	83.3771	307.617	82.9925
319.336	85.0711	319.336	85.0578	319.336	85.1115	319.336	85.0783	319.336	85.1704	319.336	85.1339	319.336	85.2418	319.336	85.2164	319.336	85.3227	319.336	85.3081	319.336	85.4134	319.336	85.3851	319.336	85.5145	319.336	85.4229	319.336	85.6231	319.336	85.4009	319.336	85.7296	319.336	85.305	319.336	85.8166	319.336	85.1289	319.336	85.86	319.336	84.8753	319.336	85.8326	319.336	84.5582	319.336	85.7082	319.336	84.2039	319.336	85.4692	319.336	83.8527	319.336	85.1162	319.336	83.5552	319.336	84.676	319.336	83.3656	319.336	84.2049	319.336	83.3296	319.336	83.7785	319.336	83.4707
329.59	84.2543	329.59	84.167	329.59	84.3471	329.59	84.1149	329.59	84.4243	329.59	84.1258	329.59	84.4807	329.59	84.2133	329.59	84.5305	329.59	84.369	329.59	84.6032	329.59	84.5624	329.59	84.729	329.59	84.75	329.59	84.9184	329.59	84.8875	329.59	85.1493	329.59	84.94	329.59	85.3734	329.59	84.8878	329.59	85.5354	329.59	84.7294	329.59	85.5915	329.59	84.4822	329.59	85.5193	329.59	84.1811	329.59	85.3193	329.59	83.8753	329.59	85.0122	329.59	83.6204	329.59	84.6349	329.59	83.4689	329.59	84.2359	329.59	83.4576	329.59	83.8717	329.59	83.598
341.309	85.1092	341.309	84.9468	341.309	85.198	341.309	84.7385	341.309	85.1978	341.309	84.5199	341.309	85.1103	341.309	84.3301	341.309	84.96	341.309	84.2029	341.309	84.7967	341.309	84.1567	341.309	84.6881	341.309	84.1856	341.309	84.6981	341.309	84.2606	341.309	84.853	341.309	84.3407	341.309	85.1221	341.309	84.388	341.309	85.4314	341.309	84.381	341.309	85.6975	341.309	84.3215	341.309	85.8574	341.309	84.235	341.309	85.8809	341.309	84.1629	341.309	85.7699	341.309	84.149	341.309	85.5506	341.309	84.2238	341.309	85.2623	341.309	84.3947	341.309	84.9474	341.309	84.646
353.027	85.9975	353.027	85.772	353.027	86.1101	353.027	85.4714	353.027	86.0858	353.027	85.1438	353.027	85.9178	353.027	84.8404	353.027	85.6207	353.027	84.6051	353.027	85.2368	353.027	84.4629	353.027	84.8411	353.027	84.4109	353.027	84.5339	353.027	84.4214	353.027	84.4062	353.027	84.4541	353.027	84.4867	353.027	84.4732	353.027	84.7188	353.027	84.4619	353.027	84.9982	353.027	84.4269	353.027	85.2296	353.027	84.3936	353.027	85.3595	353.027	84.3919	353.027	85.3772	353.027	84.4403	353.027	85.302	353.027	84.5392	353.027	85.1669	353.027	84.676	353.027	85.0038	353.027	84.8353
366.211	86.4473	366.211	86.2657	366.211	86.5353	366.211	86.0084	366.211	86.5174	366.211	85.6982	366.211	86.3887	366.211	85.3633	366.211	86.1538	366.211	85.0381	366.211	85.8309	366.211	84.7608	366.211	85.4565	366.211	84.5632	366.211	85.087	366.211	84.4529	366.211	84.7882	366.211	84.4034	366.211	84.6116	366.211	84.3644	366.211	84.5672	366.211	84.2898	366.211	84.6175	366.211	84.164	366.211	84.6993	366.211	84.0112	366.211	84.7543	366.211	83.8827	366.211	84.7479	366.211	83.8291	366.211	84.6721	366.211	83.8726	366.211	84.538	366.211	83.9997	366.211	84.365	366.211	84.1759
379.395	86.412	379.395	86.2546	379.395	86.4993	379.395	86.0442	379.395	86.5027	379.395	85.7997	379.395	86.4131	379.395	85.5399	379.395	86.23	379.395	85.2806	379.395	85.9661	379.395	85.0327	379.395	85.6494	379.395	84.8017	379.395	85.3196	379.395	84.5869	379.395	85.0194	379.395	84.3816	379.395	84.7819	379.395	84.1744	379.395	84.621	379.395	83.9567	379.395	84.5269	379.395	83.7323	379.395	84.4704	379.395	83.5238	379.395	84.4146	379.395	83.3679	379.395	84.3286	379.395	83.2982	379.395	84.1973	379.395	83.3283	379.395	84.0237	379.395	83.4458	379.395	83.8239	379.395	83.6217
392.578	86.0885	392.578	85.9237	392.578	86.168	392.578	85.6949	392.578	86.1473	392.578	85.4246	392.578	86.0225	392.578	85.1347	392.578	85.8053	392.578	84.8471	392.578	85.5247	392.578	84.5847	392.578	85.2233	392.578	84.3698	392.578	84.9488	392.578	84.214	392.578	84.74	392.578	84.1071	392.578	84.6102	392.578	84.0168	392.578	84.5414	392.578	83.9068	392.578	84.4954	392.578	83.7606	392.578	84.4358	392.578	83.5953	392.578	84.3448	392.578	83.4544	392.578	84.2241	392.578	83.3828	392.578	84.0853	392.578	83.4007	392.578	83.938	392.578	83.4948	392.578	83.7858	392.578	83.633
405.762	85.5455	405.762	85.4555	405.762	85.5595	405.762	85.3024	405.762	85.4875	405.762	85.0956	405.762	85.3288	405.762	84.8409	405.762	85.0971	405.762	84.5462	405.762	84.8193	405.762	84.2284	405.762	84.5295	405.762	83.9167	405.762	84.2597	405.762	83.6438	405.762	84.0316	405.762	83.428	405.762	83.8548	405.762	83.2589	405.762	83.7325	405.762	83.106	405.762	83.669	405.762	82.9459	405.762	83.665	405.762	82.7869	405.762	83.7027	405.762	82.6694	405.762	83.7389	405.762	82.6424	405.762	83.7212	405.762	82.7316	405.762	83.6152	405.762	82.9234	405.762	83.4214	405.762	83.1729
420.41	86.103	420.41	85.9674	420.41	86.1492	420.41	85.7535	420.41	86.0947	420.41	85.4728	420.41	85.9278	420.41	85.138	420.41	85.6425	420.41	84.7648	420.41	85.2477	420.41	84.3733	420.41	84.7762	420.41	83.9897	420.41	84.2836	420.41	83.6423	420.41	83.8318	420.41	83.3514	420.41	83.4608	420.41	83.1183	420.41	83.1717	420.41	82.9276	420.41	82.943	420.41	82.7638	420.41	82.7622	420.41	82.6291	420.41	82.6417	420.41	82.5444	420.41	82.6	420.41	82.5312	420.41	82.632	420.41	82.5857	420.41	82.6981	420.41	82.6712	420.41	82.7451	420.41	82.7363
435.059	85.7689	435.059	85.6294	435.059	85.83	435.059	85.4248	435.059	85.7954	435.059	85.1614	435.059	85.6522	435.059	84.8406	435.059	85.4009	435.059	84.4665	435.059	85.0605	435.059	84.0541	435.059	84.6681	435.059	83.6359	435.059	84.2724	435.059	83.259	435.059	83.9216	435.059	82.9657	435.059	83.6472	435.059	82.7671	435.059	83.4545	435.059	82.6369	435.059	83.3283	435.059	82.5374	435.059	83.2477	435.059	82.4512	435.059	83.1928	435.059	82.3893	435.059	83.1411	435.059	82.3749	435.059	83.0673	435.059	82.4207	435.059	82.956	435.059	82.5213	435.059	82.8126	435.059	82.6593
451.172	85.4653	451.172	85.3532	451.172	85.5069	451.172	85.1917	451.172	85.4478	451.172	84.9815	451.172	85.2642	451.172	84.7029	451.172	84.9503	451.172	84.3266	451.172	84.5227	451.172	83.834	451.172	84.0174	451.172	83.2382	451.172	83.4847	451.172	82.5995	451.172	82.9863	451.172	82.0198	451.172	82.5855	451.172	81.5991	451.172	82.322	451.172	81.3766	451.172	82.1883	451.172	81.3168	451.172	82.1417	451.172	81.3587	451.172	82.1412	451.172	81.4649	451.172	82.1693	451.172	81.6232	451.172	82.2177	451.172	81.8198	451.172	82.2617	451.172	82.0205	451.172	82.2593	451.172	82.1786
465.82	85.4042	465.82	85.2919	465.82	85.4441	465.82	85.1266	465.82	85.4001	465.82	84.9245	465.82	85.2726	465.82	84.6901	465.82	85.0713	465.82	84.4129	465.82	84.8073	465.82	84.0726	465.82	84.4874	465.82	83.6493	465.82	84.1116	465.82	83.1339	465.82	83.674	465.82	82.5382	465.82	83.1714	465.82	81.9037	465.82	82.6275	465.82	81.3045	465.82	82.1243	465.82	80.8324	465.82	81.7931	465.82	80.5643	465.82	81.7133	465.82	80.5246	465.82	81.8088	465.82	80.6716	465.82	81.9071	465.82	80.9244	465.82	81.8857	465.82	81.2104	465.82	81.7298	465.82	81.4887
483.398	85.1126	483.398	85.0303	483.398	85.1404	483.398	84.9055	483.398	85.0944	483.398	84.7345	483.398	84.9588	483.398	84.5015	483.398	84.7299	483.398	84.1902	483.398	84.4169	483.398	83.7972	483.398	84.0412	483.398	83.3364	483.398	83.6392	483.398	82.8337	483.398	83.2548	483.398	82.3145	483.398	82.9117	483.398	81.7969	483.398	82.5848	483.398	81.2972	483.398	82.2228	483.398	80.8493	483.398	81.8201	483.398	80.5149	483.398	81.468	483.398	80.3651	483.398	81.3	483.398	80.4333	483.398	81.3376	483.398	80.6804	483.398	81.442	483.398	81.0065	483.398	81.4505	483.398	81.2945
499.512	84.7562	499.512	84.669	499.512	84.7959	499.512	84.5508	499.512	84.7687	499.512	84.4077	499.512	84.6554	499.512	84.2264	499.512	84.4396	499.512	83.9756	499.512	84.1129	499.512	83.6197	499.512	83.6821	499.512	83.1393	499.512	83.1733	499.512	82.5486	499.512	82.6323	499.512	81.9011	499.512	82.1214	499.512	81.2745	499.512	81.7049	499.512	80.7357	499.512	81.421	499.512	80.3187	499.512	81.2592	499.512	80.0412	499.512	81.1729	499.512	79.9239	499.512	81.1168	499.512	79.9764	499.512	81.0646	499.512	80.1685	499.512	80.9937	499.512	80.43	499.512	80.874	499.512	80.6826
517.09	84.369	517.09	84.3284	517.09	84.3757	517.09	84.2765	517.09	84.3244	517.09	84.2253	517.09	84.1932	517.09	84.1606	517.09	83.9673	517.09	84.0335	517.09	83.6494	517.09	83.7732	517.09	83.2675	517.09	83.319	517.09	82.8658	517.09	82.6574	517.09	82.4788	517.09	81.8495	517.09	82.108	517.09	81.0325	517.09	81.7306	517.09	80.3744	517.09	81.3425	517.09	79.9923	517.09	80.999	517.09	79.9061	517.09	80.7996	517.09	80.0628	517.09	80.8036	517.09	80.376	517.09	80.9634	517.09	80.7429	517.09	81.1595	517.09	81.0605	517.09	81.2781	517.09	81.2505
536.133	83.6744	536.133	83.4393	536.133	83.8366	536.133	83.1888	536.133	83.8607	536.133	82.959	536.133	83.7074	536.133	82.763	536.133	83.3991	536.133	82.5856	536.133	83.018	536.133	82.3806	536.133	82.655	536.133	82.0867	536.133	82.3529	536.133	81.6563	536.133	82.0967	536.133	81.0772	536.133	81.8361	536.133	80.3878	536.133	81.5177	536.133	79.6903	536.133	81.1216	536.133	79.1313	536.133	80.6948	536.133	78.8321	536.133	80.3494	536.133	78.8241	536.133	80.1883	536.133	79.0504	536.133	80.1982	536.133	79.4052	536.133	80.2539	536.133	79.7743	536.133	80.229	536.133	80.0666
555.176	84.0513	555.176	83.8212	555.176	84.1681	555.176	83.5283	555.176	84.1481	555.176	83.2222	555.176	84.0078	555.176	82.9253	555.176	83.7855	555.176	82.6205	555.176	83.5066	555.176	82.2617	555.176	83.173	555.176	81.8037	555.176	82.7837	555.176	81.2159	555.176	82.3363	555.176	80.4849	555.176	81.7936	555.176	79.6571	555.176	81.0905	555.176	78.8839	555.176	80.2356	555.176	78.3542	555.176	79.4417	555.176	78.1547	555.176	79.0586	555.176	78.2448	555.176	79.1607	555.176	78.5302	555.176	79.438	555.176	78.9017	555.176	79.6183	555.176	79.2528	555.176	79.6356	555.176	79.5082
574.219	84.0629	574.219	83.827	574.219	84.2131	574.219	83.5159	574.219	84.2682	574.219	83.1632	574.219	84.2086	574.219	82.8358	574.219	84.0141	574.219	82.6064	574.219	83.685	574.219	82.4819	574.219	83.2496	574.219	82.3495	574.219	82.7583	574.219	82.0189	574.219	82.2746	574.219	81.3389	574.219	81.8428	574.219	80.3188	574.219	81.4306	574.219	79.1985	574.219	80.9305	574.219	78.3688	574.219	80.2753	574.219	78.0765	574.219	79.6009	574.219	78.2412	574.219	79.2399	574.219	78.64	574.219	79.3392	574.219	79.1003	574.219	79.6372	574.219	79.5089	574.219	79.8222	574.219	79.7736
594.727	84.05	594.727	83.8609	594.727	84.117	594.727	83.5669	594.727	84.0551	594.727	83.1821	594.727	83.8814	594.727	82.729	594.727	83.6233	594.727	82.2679	594.727	83.2891	594.727	81.8964	594.727	82.8657	594.727	81.6709	594.727	82.3589	594.727	81.5024	594.727	81.838	594.727	81.1719	594.727	81.4192	594.727	80.4818	594.727	81.1464	594.727	79.4179	594.727	80.9023	594.727	78.2434	594.727	80.5162	594.727	77.4434	594.727	79.9911	594.727	77.3601	594.727	79.6059	594.727	77.8514	594.727	79.6045	594.727	78.5438	594.727	79.8035	594.727	79.1824	594.727	79.8641	594.727	79.6477
615.234	83.6277	615.234	83.3355	615.234	83.8417	615.234	83.0074	615.234	83.9272	615.234	82.6651	615.234	83.8386	615.234	82.3084	615.234	83.5639	615.234	81.9496	615.234	83.1516	615.234	81.65	615.234	82.6789	615.234	81.4732	615.234	82.1759	615.234	81.3574	615.234	81.6128	615.234	81.0889	615.234	80.9747	615.234	80.4687	615.234	80.319	615.234	79.503	615.234	79.7498	615.234	78.4581	615.234	79.3332	615.234	77.7159	615.234	79.0491	615.234	77.4615	615.234	78.8532	615.234	77.5671	615.234	78.7406	615.234	77.8333	615.234	78.6865	615.234	78.1418	615.234	78.6025	615.234	78.418
637.207	83.6279	637.207	83.4086	637.207	83.7434	637.207	83.0859	637.207	83.7453	637.207	82.6738	637.207	83.6327	637.207	82.2326	637.207	83.4309	637.207	81.8511	637.207	83.1569	637.207	81.5787	637.207	82.7677	637.207	81.3822	637.207	82.2015	637.207	81.1636	637.207	81.5182	637.207	80.7921	637.207	80.9629	637.207	80.1467	637.207	80.7085	637.207	79.2155	637.207	80.5213	637.207	78.196	637.207	80.0029	637.207	77.4775	637.207	79.1203	637.207	77.3768	637.207	78.447	637.207	77.7808	637.207	78.4997	637.207	78.3205	637.207	78.8847	637.207	78.7594	637.207	79.091	637.207	79.0284
659.18	83.1797	659.18	82.9339	659.18	83.3071	659.18	82.6205	659.18	83.2496	659.18	82.2466	659.18	82.9775	659.18	81.8075	659.18	82.548	659.18	81.3594	659.18	82.0868	659.18	81.0065	659.18	81.6818	659.18	80.7615	659.18	81.3373	659.18	80.4871	659.18	81.0164	659.18	80.0512	659.18	80.6677	659.18	79.4763	659.18	80.2863	659.18	78.8836	659.18	79.9696	659.18	78.3686	659.18	79.8225	659.18	78.0287	659.18	79.807	659.18	78.0499	659.18	79.8536	659.18	78.5333	659.18	80.0145	659.18	79.265	659.18	80.2791	659.18	79.9318	659.18	80.4514	659.18	80.3497
682.617	83.6935	682.617	83.4104	682.617	83.7394	682.617	82.91	682.617	83.5749	682.617	82.2667	682.617	83.273	682.617	81.6019	682.617	82.9135	682.617	81.0346	682.617	82.498	682.617	80.6234	682.617	81.9649	682.617	80.3313	682.617	81.3259	682.617	80.042	682.617	80.7188	682.617	79.6375	682.617	80.257	682.617	79.0965	682.617	79.8492	682.617	78.5207	682.617	79.2853	682.617	78.0343	682.617	78.5342	682.617	77.7273	682.617	77.9718	682.617	77.7258	682.617	78.076	682.617	78.1054	682.617	78.6616	682.617	78.6983	682.617	79.2013	682.617	79.2173	682.617	79.4799	682.617	79.4879
707.52	84.0573	707.52	83.6894	707.52	84.178	707.52	83.1215	707.52	84.044	707.52	82.4145	707.52	83.6943	707.52	81.6421	707.52	83.1974	707.52	80.9298	707.52	82.6195	707.52	80.427	707.52	81.9969	707.52	80.1292	707.52	81.3213	707.52	79.7855	707.52	80.5438	707.52	79.1395	707.52	79.6687	707.52	78.2412	707.52	78.9708	707.52	77.4762	707.52	78.8692	707.52	77.1295	707.52	79.0796	707.52	77.0379	707.52	78.8716	707.52	77.0073	707.52	78.3392	707.52	77.1583	707.52	78.5034	707.52	77.6757	707.52	79.2733	707.52	78.4739	707.52	79.6103	707.52	79.2474
732.422	83.904	732.422	83.6189	732.422	84.0103	732.422	83.1378	732.422	83.9556	732.422	82.4758	732.422	83.7579	732.422	81.7306	732.422	83.416	732.422	81.0722	732.422	82.8822	732.422	80.6321	732.422	82.1038	732.422	80.408	732.422	81.121	732.422	80.2788	732.422	80.1279	732.422	80.0402	732.422	79.3845	732.422	79.4792	732.422	79.0028	732.422	78.5553	732.422	78.8723	732.422	77.5633	732.422	78.7688	732.422	77.0564	732.422	78.5074	732.422	77.2471	732.422	78.1445	732.422	77.759	732.422	78.0743	732.422	78.2804	732.422	78.475	732.422	78.7283	732.422	78.9102	732.422	78.9944
757.324	84.2927	757.324	84.0628	757.324	84.3689	757.324	83.753	757.324	84.2811	757.324	83.3836	757.324	84.0768	757.324	82.8542	757.324	83.7531	757.324	82.0983	757.324	83.2208	757.324	81.3143	757.324	82.3918	757.324	80.9087	757.324	81.2569	757.324	81.0028	757.324	79.9432	757.324	81.1146	757.324	78.8049	757.324	80.6812	757.324	78.353	757.324	79.6037	757.324	78.5647	757.324	78.234	757.324	78.6158	757.324	77.1882	757.324	78.0765	757.324	76.979	757.324	77.6126	757.324	77.367	757.324	77.885	757.324	77.7836	757.324	78.2793	757.324	78.0189	757.324	78.3095	757.324	78.1624
785.156	83.9345	785.156	83.6552	785.156	83.9548	785.156	83.0463	785.156	83.8381	785.156	82.271	785.156	83.6715	785.156	81.7958	785.156	83.4822	785.156	81.9319	785.156	83.1375	785.156	82.3146	785.156	82.3583	785.156	82.2714	785.156	81.0284	785.156	81.521	785.156	79.421	785.156	80.4093	785.156	77.9947	785.156	79.3979	785.156	77.0294	785.156	78.6561	785.156	76.7468	785.156	78.0743	785.156	76.9892	785.156	77.4204	785.156	76.9449	785.156	76.9265	785.156	76.4445	785.156	76.9968	785.156	76.6227	785.156	77.5184	785.156	77.7598	785.156	78.1582	785.156	78.5851	785.156	78.6314
811.523	83.5461	811.523	83.5709	811.523	83.4107	811.523	83.3969	811.523	83.2569	811.523	82.9924	811.523	83.1301	811.523	82.4672	811.523	82.9241	811.523	82.0396	811.523	82.3957	811.523	81.7343	811.523	81.4339	811.523	81.1969	811.523	80.2916	811.523	80.1468	811.523	79.3854	811.523	78.9805	811.523	78.7455	811.523	78.441	811.523	77.9587	811.523	78.444	811.523	77.029	811.523	78.2642	811.523	76.7841	811.523	77.6524	811.523	77.0819	811.523	77.1614	811.523	76.9594	811.523	77.4062	811.523	76.7634	811.523	78.1382	811.523	77.4699	811.523	78.7682	811.523	78.4864	811.523	78.9495
840.82	83.4721	840.82	83.2833	840.82	83.5988	840.82	83.069	840.82	83.5809	840.82	82.8344	840.82	83.3482	840.82	82.5962	840.82	82.9064	840.82	82.3304	840.82	82.3711	840.82	81.9216	840.82	81.884	840.82	81.2372	840.82	81.3982	840.82	80.194	840.82	80.6618	840.82	78.945	840.82	79.5025	840.82	78.049	840.82	78.0674	840.82	77.8575	840.82	76.8635	840.82	77.8671	840.82	76.3091	840.82	77.4275	840.82	76.1732	840.82	76.6456	840.82	76.4158	840.82	76.3281	840.82	77.3626	840.82	76.8912	840.82	78.4442	840.82	77.8753	840.82	78.9305	840.82	78.6805
870.117	83.472	870.117	83.3687	870.117	83.3441	870.117	82.9883	870.117	83.1246	870.117	82.3873	870.117	82.9526	870.117	81.7634	870.117	82.8204	870.117	81.4191	870.117	82.52	870.117	81.3652	870.117	81.7693	870.117	81.196	870.117	80.5108	870.117	80.6298	870.117	79.166	870.117	79.7512	870.117	78.3169	870.117	78.7916	870.117	77.9277	870.117	77.9763	870.117	77.4776	870.117	77.4855	870.117	76.9088	870.117	77.2689	870.117	76.5577	870.117	77.1946	870.117	76.4749	870.117	77.3298	870.117	76.9585	870.117	77.7732	870.117	78.0301	870.117	78.388	870.117	78.806	870.117	78.8554
900.879	84.0534	900.879	83.9342	900.879	83.9764	900.879	83.6432	900.879	83.6901	900.879	83.1766	900.879	83.224	900.879	82.4756	900.879	82.6235	900.879	81.5936	900.879	81.8786	900.879	80.9209	900.879	81.0348	900.879	80.5851	900.879	80.3424	900.879	79.8637	900.879	79.8824	900.879	78.4079	900.879	79.1942	900.879	77.0996	900.879	77.8667	900.879	76.9374	900.879	76.1595	900.879	77.244	900.879	74.7393	900.879	77.2342	900.879	73.8656	900.879	77.1532	900.879	74.1951	900.879	77.4334	900.879	76.142	900.879	78.0275	900.879	78.0236	900.879	78.6603	900.879	78.9646	900.879	79.0723
933.105	84.1312	933.105	83.9192	933.105	83.9767	933.105	83.33	933.105	83.6085	933.105	82.6007	933.105	83.1424	933.105	82.1009	933.105	82.5693	933.105	81.7446	933.105	81.9055	933.105	81.0447	933.105	81.1234	933.105	80.0752	933.105	79.9542	933.105	79.5118	933.105	78.4456	933.105	79.1517	933.105	77.5917	933.105	78.1295	933.105	77.7964	933.105	76.2552	933.105	77.8292	933.105	74.9848	933.105	76.8876	933.105	75.5811	933.105	75.7299	933.105	76.4377	933.105	75.5172	933.105	76.9848	933.105	76.0906	933.105	77.5848	933.105	77.1806	933.105	78.2621	933.105	78.2155	933.105	78.593
965.332	84.8786	965.332	84.7824	965.332	84.6806	965.332	84.3582	965.332	84.2536	965.332	83.6002	965.332	83.7188	965.332	82.6292	965.332	83.1419	965.332	81.7926	965.332	82.3971	965.332	81.3081	965.332	81.3912	965.332	80.8335	965.332	80.3089	965.332	80.1261	965.332	79.2433	965.332	79.5033	965.332	77.9663	965.332	78.8665	965.332	76.6817	965.332	77.456	965.332	75.4839	965.332	75.5117	965.332	74.0567	965.332	74.9584	965.332	73.0775	965.332	76.1572	965.332	73.5104	965.332	77.6547	965.332	75.1688	965.332	78.7592	965.332	77.2106	965.332	79.3464	965.332	78.6917	965.332	79.3629
1,000.49	84.959	1,000.49	84.724	1,000.49	84.8065	1,000.49	84.0234	1,000.49	84.3997	1,000.49	82.9569	1,000.49	83.8255	1,000.49	81.8672	1,000.49	83.1125	1,000.49	81.0866	1,000.49	82.2839	1,000.49	80.4805	1,000.49	81.3312	1,000.49	79.6008	1,000.49	80.2727	1,000.49	78.4441	1,000.49	79.2693	1,000.49	77.6499	1,000.49	78.4309	1,000.49	77.4107	1,000.49	77.7079	1,000.49	77.0451	1,000.49	77.076	1,000.49	76.1546	1,000.49	76.3942	1,000.49	75.1939	1,000.49	75.1673	1,000.49	74.9946	1,000.49	73.3275	1,000.49	75.7696	1,000.49	73.9043	1,000.49	77.1933	1,000.49	77.0376	1,000.49	78.6929	1,000.49	79.0872	1,000.49	79.5235
1,035.64	85.3899	1,035.64	85.364	1,035.64	85.2045	1,035.64	85.0343	1,035.64	84.8741	1,035.64	84.3187	1,035.64	84.2832	1,035.64	83.1456	1,035.64	83.356	1,035.64	81.6598	1,035.64	82.4196	1,035.64	80.3566	1,035.64	81.7187	1,035.64	79.443	1,035.64	80.6049	1,035.64	78.743	1,035.64	78.3444	1,035.64	78.1353	1,035.64	76.1364	1,035.64	77.0971	1,035.64	76.3929	1,035.64	75.6897	1,035.64	76.7987	1,035.64	74.9905	1,035.64	75.1093	1,035.64	75.32	1,035.64	72.4538	1,035.64	76.0277	1,035.64	73.4875	1,035.64	76.8821	1,035.64	75.1708	1,035.64	78.0745	1,035.64	76.7658	1,035.64	79.1896	1,035.64	78.5675	1,035.64	79.4853
1,072.27	85.451	1,072.27	85.4957	1,072.27	85.1654	1,072.27	85.208	1,072.27	84.7269	1,072.27	84.5926	1,072.27	84.2155	1,072.27	83.5518	1,072.27	83.5537	1,072.27	81.7937	1,072.27	82.2858	1,072.27	79.733	1,072.27	80.3452	1,072.27	79.2909	1,072.27	78.9619	1,072.27	80.6558	1,072.27	79.0543	1,072.27	81.2201	1,072.27	79.2867	1,072.27	79.5673	1,072.27	78.3223	1,072.27	75.821	1,072.27	76.3748	1,072.27	71.4703	1,072.27	75.3395	1,072.27	72.572	1,072.27	74.7581	1,072.27	75.7068	1,072.27	72.6596	1,072.27	77.582	1,072.27	73.6548	1,072.27	78.6178	1,072.27	76.9616	1,072.27	79.0063	1,072.27	78.491	1,072.27	78.9314
1,108.89	85.2811	1,108.89	85.4224	1,108.89	84.9601	1,108.89	85.4474	1,108.89	84.3136	1,108.89	84.9329	1,108.89	83.4049	1,108.89	83.473	1,108.89	82.2495	1,108.89	81.5729	1,108.89	81.1637	1,108.89	80.4434	1,108.89	80.6139	1,108.89	79.971	1,108.89	79.8144	1,108.89	79.3577	1,108.89	77.529	1,108.89	78.9546	1,108.89	73.9008	1,108.89	78.6736	1,108.89	73.0725	1,108.89	77.5475	1,108.89	75.63	1,108.89	74.615	1,108.89	75.3401	1,108.89	71.1265	1,108.89	70.8835	1,108.89	73.2766	1,108.89	67.8257	1,108.89	76.0978	1,108.89	70.7118	1,108.89	77.8684	1,108.89	74.7423	1,108.89	78.994	1,108.89	78.026	1,108.89	79.2608
1,148.44	85.9026	1,148.44	85.9625	1,148.44	85.3093	1,148.44	85.536	1,148.44	84.577	1,148.44	84.8301	1,148.44	84.0548	1,148.44	83.7674	1,148.44	83.355	1,148.44	82.3653	1,148.44	81.9276	1,148.44	81.2561	1,148.44	80.0049	1,148.44	80.7752	1,148.44	78.4259	1,148.44	80.3371	1,148.44	77.3265	1,148.44	79.942	1,148.44	75.8532	1,148.44	79.8542	1,148.44	74.5285	1,148.44	79.2906	1,148.44	75.1203	1,148.44	76.9433	1,148.44	75.0469	1,148.44	71.9515	1,148.44	72.7562	1,148.44	70.1964	1,148.44	69.4891	1,148.44	74.3408	1,148.44	68.8405	1,148.44	76.6989	1,148.44	74.3588	1,148.44	78.0427	1,148.44	77.8643	1,148.44	78.7132
1,189.45	85.7035	1,189.45	85.7476	1,189.45	85.0345	1,189.45	85.0289	1,189.45	84.0135	1,189.45	83.7868	1,189.45	82.7351	1,189.45	82.7784	1,189.45	81.312	1,189.45	82.4215	1,189.45	80.2589	1,189.45	81.6741	1,189.45	79.7438	1,189.45	79.7239	1,189.45	79.3741	1,189.45	78.4158	1,189.45	78.4413	1,189.45	78.9032	1,189.45	75.9839	1,189.45	79.3901	1,189.45	72.6101	1,189.45	79.373	1,189.45	72.8782	1,189.45	78.9434	1,189.45	74.2348	1,189.45	76.7938	1,189.45	73.1575	1,189.45	72.0079	1,189.45	69.5703	1,189.45	71.0561	1,189.45	61.316	1,189.45	75.4162	1,189.45	71.8813	1,189.45	78.1306	1,189.45	77.3695	1,189.45	78.8986
1,230.47	85.7229	1,230.47	85.946	1,230.47	85.0908	1,230.47	85.7296	1,230.47	84.2812	1,230.47	85.2203	1,230.47	83.3385	1,230.47	84.3231	1,230.47	82.3472	1,230.47	83.0733	1,230.47	81.3387	1,230.47	82.0098	1,230.47	80.0961	1,230.47	81.127	1,230.47	78.5859	1,230.47	79.2754	1,230.47	77.3306	1,230.47	77.2635	1,230.47	76.5884	1,230.47	78.2889	1,230.47	75.2564	1,230.47	79.6108	1,230.47	74.2706	1,230.47	78.8003	1,230.47	74.606	1,230.47	75.7631	1,230.47	73.8204	1,230.47	72.8383	1,230.47	71.8347	1,230.47	73.9537	1,230.47	69.0129	1,230.47	76.5604	1,230.47	71.0031	1,230.47	78.3176	1,230.47	75.9509	1,230.47	78.3273
1,274.41	85.1391	1,274.41	85.6175	1,274.41	84.5704	1,274.41	85.5045	1,274.41	84.0314	1,274.41	84.7643	1,274.41	83.2935	1,274.41	84.2116	1,274.41	82.2902	1,274.41	83.9397	1,274.41	81.1194	1,274.41	82.7302	1,274.41	79.9428	1,274.41	80.4199	1,274.41	79.0449	1,274.41	78.7987	1,274.41	77.9287	1,274.41	77.7519	1,274.41	76.4026	1,274.41	75.7361	1,274.41	74.7809	1,274.41	75.8666	1,274.41	74.0707	1,274.41	78.0146	1,274.41	75.8218	1,274.41	77.9727	1,274.41	76.5305	1,274.41	74.8668	1,274.41	74.1704	1,274.41	70.2461	1,274.41	66.2878	1,274.41	72.3411	1,274.41	69.7863	1,274.41	75.9542	1,274.41	76.4759	1,274.41	77.7487
1,319.82	85.1274	1,319.82	85.9948	1,319.82	84.145	1,319.82	86.0825	1,319.82	83.1392	1,319.82	85.2365	1,319.82	81.9067	1,319.82	84.3214	1,319.82	80.6658	1,319.82	83.7166	1,319.82	79.7373	1,319.82	82.309	1,319.82	79.0955	1,319.82	80.0212	1,319.82	78.4657	1,319.82	79.151	1,319.82	78.4319	1,319.82	78.9684	1,319.82	78.1493	1,319.82	77.2601	1,319.82	75.7999	1,319.82	76.6208	1,319.82	72.9694	1,319.82	77.7455	1,319.82	73.0055	1,319.82	76.9539	1,319.82	73.2261	1,319.82	75.01	1,319.82	73.5479	1,319.82	75.5504	1,319.82	72.4431	1,319.82	77.799	1,319.82	70.3263	1,319.82	78.5958	1,319.82	75.4389	1,319.82	77.9718
1,366.7	85.2714	1,366.7	85.6749	1,366.7	84.0534	1,366.7	85.4021	1,366.7	82.8954	1,366.7	85.0065	1,366.7	81.9737	1,366.7	84.1608	1,366.7	80.9918	1,366.7	82.7404	1,366.7	80.5672	1,366.7	81.9593	1,366.7	79.8169	1,366.7	81.5125	1,366.7	78.4653	1,366.7	79.4907	1,366.7	77.3112	1,366.7	76.9781	1,366.7	76.9617	1,366.7	76.4625	1,366.7	75.7989	1,366.7	76.3662	1,366.7	71.6556	1,366.7	76.3059	1,366.7	74.6579	1,366.7	76.7243	1,366.7	75.9723	1,366.7	75.9225	1,366.7	71.8904	1,366.7	74.0273	1,366.7	63.4307	1,366.7	74.0649	1,366.7	70.1482	1,366.7	75.6137	1,366.7	74.5569	1,366.7	76.1483
1,413.57	85.3136	1,413.57	86.1873	1,413.57	84.4077	1,413.57	86.4809	1,413.57	83.2355	1,413.57	85.967	1,413.57	81.6669	1,413.57	85.1355	1,413.57	80.5772	1,413.57	84.2001	1,413.57	79.2966	1,413.57	82.7108	1,413.57	78.6897	1,413.57	80.7436	1,413.57	79.1989	1,413.57	78.2034	1,413.57	78.7079	1,413.57	77.0713	1,413.57	77.6595	1,413.57	77.0086	1,413.57	76.1516	1,413.57	75.3623	1,413.57	74.582	1,413.57	75.7648	1,413.57	74.5548	1,413.57	77.0799	1,413.57	74.6724	1,413.57	76.3902	1,413.57	73.7363	1,413.57	72.642	1,413.57	72.0492	1,413.57	72.858	1,413.57	69.4005	1,413.57	75.2318	1,413.57	72.7226	1,413.57	75.2402
1,463.38	85.6211	1,463.38	86.3056	1,463.38	84.423	1,463.38	86.4068	1,463.38	82.7467	1,463.38	86.0726	1,463.38	81.011	1,463.38	85.5456	1,463.38	79.6491	1,463.38	84.6543	1,463.38	77.9619	1,463.38	82.496	1,463.38	76.693	1,463.38	79.2495	1,463.38	76.9693	1,463.38	77.6493	1,463.38	76.8217	1,463.38	77.4156	1,463.38	75.4518	1,463.38	76.3751	1,463.38	75.7044	1,463.38	75.1274	1,463.38	75.5643	1,463.38	74.2693	1,463.38	68.8304	1,463.38	74.8775	1,463.38	72.5577	1,463.38	75.5477	1,463.38	75.1544	1,463.38	73.5517	1,463.38	67.739	1,463.38	72.7837	1,463.38	66.2902	1,463.38	75.8555	1,463.38	74.3954	1,463.38	76.9372
1,516.11	86.3731	1,516.11	86.8318	1,516.11	84.6629	1,516.11	86.4093	1,516.11	82.4693	1,516.11	85.6955	1,516.11	80.8981	1,516.11	84.8933	1,516.11	78.7931	1,516.11	83.6939	1,516.11	76.4276	1,516.11	81.9889	1,516.11	76.0722	1,516.11	79.9704	1,516.11	75.9919	1,516.11	77.715	1,516.11	77.1156	1,516.11	77.5641	1,516.11	78.1045	1,516.11	78.9098	1,516.11	76.3923	1,516.11	77.481	1,516.11	72.419	1,516.11	74.308	1,516.11	71.0583	1,516.11	76.5412	1,516.11	70.052	1,516.11	77.8152	1,516.11	71.0936	1,516.11	75.6542	1,516.11	69.2672	1,516.11	73.964	1,516.11	65.8454	1,516.11	76.3701	1,516.11	75.0824	1,516.11	77.1584
1,568.85	86.2151	1,568.85	87.3186	1,568.85	84.6554	1,568.85	87.4084	1,568.85	82.4079	1,568.85	86.1881	1,568.85	79.5612	1,568.85	84.6375	1,568.85	76.7779	1,568.85	84.0399	1,568.85	75.97	1,568.85	82.8379	1,568.85	76.6591	1,568.85	80.5328	1,568.85	76.3219	1,568.85	79.813	1,568.85	76.0345	1,568.85	79.3721	1,568.85	75.5573	1,568.85	78.2298	1,568.85	76.6479	1,568.85	77.772	1,568.85	76.915	1,568.85	76.6274	1,568.85	72.5023	1,568.85	76.1443	1,568.85	71.9669	1,568.85	77.6986	1,568.85	73.0854	1,568.85	77.1349	1,568.85	67.8888	1,568.85	76.0638	1,568.85	67.0637	1,568.85	77.9489	1,568.85	75.5153	1,568.85	78.3943
1,624.51	85.6903	1,624.51	87.2138	1,624.51	83.3692	1,624.51	87.4732	1,624.51	80.7279	1,624.51	86.912	1,624.51	78.468	1,624.51	86.2255	1,624.51	77.2667	1,624.51	85.2437	1,624.51	77.8442	1,624.51	82.9089	1,624.51	79.3265	1,624.51	80.5838	1,624.51	78.4489	1,624.51	79.9647	1,624.51	77.1925	1,624.51	77.4567	1,624.51	76.9667	1,624.51	74.6925	1,624.51	77.5564	1,624.51	76.9326	1,624.51	77.5854	1,624.51	76.6681	1,624.51	75.3127	1,624.51	74.2421	1,624.51	74.2766	1,624.51	76.6168	1,624.51	73.5539	1,624.51	77.7104	1,624.51	69.612	1,624.51	76.2033	1,624.51	67.0424	1,624.51	76.5897	1,624.51	76.2023	1,624.51	77.9697
1,681.64	85.1646	1,681.64	86.9568	1,681.64	83.0704	1,681.64	88.0148	1,681.64	79.4069	1,681.64	87.952	1,681.64	75.991	1,681.64	87.0132	1,681.64	76.489	1,681.64	85.4042	1,681.64	78.845	1,681.64	83.8271	1,681.64	79.5044	1,681.64	82.9527	1,681.64	79.3975	1,681.64	81.0091	1,681.64	80.2442	1,681.64	76.0894	1,681.64	79.21	1,681.64	73.4537	1,681.64	77.9963	1,681.64	76.4652	1,681.64	77.9724	1,681.64	77.5747	1,681.64	74.4558	1,681.64	75.7087	1,681.64	75.4507	1,681.64	75.0169	1,681.64	75.3964	1,681.64	75.4829	1,681.64	68.3572	1,681.64	75.7474	1,681.64	61.4705	1,681.64	76.3081	1,681.64	73.7959	1,681.64	76.5276
1,741.7	86.2437	1,741.7	87.6436	1,741.7	83.6209	1,741.7	87.9191	1,741.7	79.3415	1,741.7	87.8687	1,741.7	76.2714	1,741.7	87.1346	1,741.7	76.8751	1,741.7	85.2801	1,741.7	80.4417	1,741.7	83.6297	1,741.7	81.0593	1,741.7	81.356	1,741.7	80.0135	1,741.7	78.3599	1,741.7	81.1999	1,741.7	79.414	1,741.7	81.8685	1,741.7	78.4423	1,741.7	79.1098	1,741.7	71.9494	1,741.7	77.431	1,741.7	76.8397	1,741.7	77.9328	1,741.7	78.7374	1,741.7	78.5862	1,741.7	77.4588	1,741.7	78.485	1,741.7	75.484	1,741.7	71.0519	1,741.7	74.9094	1,741.7	63.831	1,741.7	77.5238	1,741.7	71.2111	1,741.7	78.2835
1,803.22	86.8662	1,803.22	88.4022	1,803.22	84.076	1,803.22	88.9963	1,803.22	79.6229	1,803.22	88.7756	1,803.22	78.427	1,803.22	87.7846	1,803.22	80.9608	1,803.22	85.6478	1,803.22	83.0261	1,803.22	82.9528	1,803.22	83.0621	1,803.22	81.25	1,803.22	82.0183	1,803.22	81.1739	1,803.22	80.8867	1,803.22	82.1418	1,803.22	81.1346	1,803.22	80.5924	1,803.22	79.8333	1,803.22	75.1449	1,803.22	78.1184	1,803.22	73.26	1,803.22	78.6292	1,803.22	76.4808	1,803.22	75.1759	1,803.22	76.9715	1,803.22	76.7263	1,803.22	76.5631	1,803.22	74.5036	1,803.22	76.5713	1,803.22	58.0214	1,803.22	78.7299	1,803.22	73.6346	1,803.22	78.7014
1,866.21	86.7718	1,866.21	89.1457	1,866.21	83.5996	1,866.21	89.893	1,866.21	78.9615	1,866.21	88.7572	1,866.21	79.9843	1,866.21	87.2047	1,866.21	82.7941	1,866.21	85.7543	1,866.21	84.0415	1,866.21	84.4914	1,866.21	83.6253	1,866.21	83.6277	1,866.21	83.2266	1,866.21	81.376	1,866.21	82.3558	1,866.21	79.6034	1,866.21	81.278	1,866.21	79.3928	1,866.21	79.8604	1,866.21	76.5185	1,866.21	78.4439	1,866.21	72.5435	1,866.21	78.0392	1,866.21	75.5577	1,866.21	76.3867	1,866.21	76.613	1,866.21	75.1869	1,866.21	75.8016	1,866.21	74.6108	1,866.21	74.8994	1,866.21	65.5055	1,866.21	76.749	1,866.21	73.2516	1,866.21	77.894
1,932.13	86.1453	1,932.13	89.1245	1,932.13	81.9392	1,932.13	90.1288	1,932.13	76.841	1,932.13	88.5835	1,932.13	79.2706	1,932.13	86.5757	1,932.13	82.9801	1,932.13	86.3003	1,932.13	84.1827	1,932.13	84.9365	1,932.13	84.1467	1,932.13	82.3885	1,932.13	83.7534	1,932.13	79.8398	1,932.13	82.1063	1,932.13	77.1502	1,932.13	80.9754	1,932.13	78.1787	1,932.13	79.7224	1,932.13	78.2839	1,932.13	77.4574	1,932.13	74.0015	1,932.13	77.5646	1,932.13	75.501	1,932.13	74.4576	1,932.13	78.6384	1,932.13	74.0983	1,932.13	78.4554	1,932.13	73.9376	1,932.13	76.4739	1,932.13	69.2179	1,932.13	77.6439	1,932.13	70.6982	1,932.13	78.0379
1,999.51	86.2988	1,999.51	89.0204	1,999.51	80.7989	1,999.51	89.4332	1,999.51	75.2971	1,999.51	88.3743	1,999.51	79.7439	1,999.51	87.66	1,999.51	83.6596	1,999.51	86.6074	1,999.51	85.0236	1,999.51	84.8576	1,999.51	85.3435	1,999.51	83.6875	1,999.51	84.4845	1,999.51	81.0484	1,999.51	82.1269	1,999.51	75.5888	1,999.51	81.3941	1,999.51	76.8341	1,999.51	80.9842	1,999.51	79.1177	1,999.51	76.984	1,999.51	76.2071	1,999.51	77.0462	1,999.51	72.3035	1,999.51	74.2626	1,999.51	78.0105	1,999.51	73.2797	1,999.51	78.7056	1,999.51	72.6862	1,999.51	76.5641	1,999.51	68.9249	1,999.51	77.0173	1,999.51	72.1028	1,999.51	76.9347
2,069.82	87.0153	2,069.82	88.8648	2,069.82	82.1297	2,069.82	88.2018	2,069.82	76.3029	2,069.82	88.0552	2,069.82	80.5003	2,069.82	88.6274	2,069.82	83.67	2,069.82	86.8211	2,069.82	86.3288	2,069.82	83.8743	2,069.82	86.5142	2,069.82	81.4827	2,069.82	84.8075	2,069.82	78.7733	2,069.82	80.6095	2,069.82	79.6091	2,069.82	78.6695	2,069.82	75.841	2,069.82	80.7132	2,069.82	74.3587	2,069.82	78.2268	2,069.82	76.8093	2,069.82	77.0586	2,069.82	72.7191	2,069.82	77.0983	2,069.82	76.6433	2,069.82	75.226	2,069.82	79.3336	2,069.82	70.2294	2,069.82	76.5392	2,069.82	68.7584	2,069.82	75.711	2,069.82	73.876	2,069.82	77.6428
2,143.07	86.9444	2,143.07	88.703	2,143.07	82.0713	2,143.07	88.6256	2,143.07	77.5158	2,143.07	88.5212	2,143.07	81.6414	2,143.07	88.0705	2,143.07	84.6585	2,143.07	85.435	2,143.07	87.1325	2,143.07	83.0417	2,143.07	87.0486	2,143.07	80.6228	2,143.07	85.4089	2,143.07	78.6081	2,143.07	82.5545	2,143.07	80.3533	2,143.07	80.8376	2,143.07	77.0066	2,143.07	82.2782	2,143.07	70.6299	2,143.07	80.0313	2,143.07	75.1946	2,143.07	77.455	2,143.07	72.8231	2,143.07	79.3185	2,143.07	74.8681	2,143.07	77.6732	2,143.07	79.8307	2,143.07	75.0348	2,143.07	78.5724	2,143.07	68.2561	2,143.07	77.3691	2,143.07	75.784	2,143.07	79.2408
2,219.24	86.0992	2,219.24	88.3371	2,219.24	81.4591	2,219.24	89.6224	2,219.24	79.7196	2,219.24	88.6781	2,219.24	84.3264	2,219.24	85.8043	2,219.24	86.439	2,219.24	84.0951	2,219.24	86.99	2,219.24	83.991	2,219.24	86.5683	2,219.24	80.8227	2,219.24	85.628	2,219.24	75.2795	2,219.24	83.8164	2,219.24	76.3056	2,219.24	82.5885	2,219.24	77.3084	2,219.24	84.2876	2,219.24	71.5729	2,219.24	82.2765	2,219.24	71.3707	2,219.24	76.6208	2,219.24	73.4138	2,219.24	81.3372	2,219.24	70.5303	2,219.24	80.0185	2,219.24	79.3157	2,219.24	74.3154	2,219.24	80.3145	2,219.24	63.2774	2,219.24	77.6045	2,219.24	76.315	2,219.24	78.1755
2,296.88	86.2473	2,296.88	88.3349	2,296.88	82.2346	2,296.88	89.0999	2,296.88	81.9617	2,296.88	88.0175	2,296.88	86.0134	2,296.88	85.2505	2,296.88	87.2944	2,296.88	84.5451	2,296.88	87.1973	2,296.88	84.3363	2,296.88	86.8263	2,296.88	82.5183	2,296.88	84.2857	2,296.88	80.9645	2,296.88	81.3903	2,296.88	77.3475	2,296.88	81.4127	2,296.88	77.9581	2,296.88	83.9565	2,296.88	77.264	2,296.88	84.0842	2,296.88	59.0778	2,296.88	79.188	2,296.88	74.8447	2,296.88	78.5173	2,296.88	72.7023	2,296.88	80.4876	2,296.88	73.8917	2,296.88	76.8215	2,296.88	77.6567	2,296.88	67.5893	2,296.88	77.1786	2,296.88	76.8838	2,296.88	79.3043
2,378.91	86.4579	2,378.91	88.6517	2,378.91	82.4872	2,378.91	88.5379	2,378.91	80.1458	2,378.91	87.0695	2,378.91	85.8666	2,378.91	86.3698	2,378.91	88.1102	2,378.91	85.0765	2,378.91	88.2668	2,378.91	84.294	2,378.91	86.6682	2,378.91	82.5235	2,378.91	83.7233	2,378.91	77.1096	2,378.91	82.7898	2,378.91	72.6721	2,378.91	82.2617	2,378.91	71.5819	2,378.91	83.4991	2,378.91	78.1678	2,378.91	83.4666	2,378.91	74.0703	2,378.91	80.4577	2,378.91	64.3989	2,378.91	78.1557	2,378.91	70.1864	2,378.91	78.9684	2,378.91	72.9794	2,378.91	77.4453	2,378.91	76.6551	2,378.91	66.1062	2,378.91	77.7807	2,378.91	74.9834	2,378.91	78.9664
2,462.4	86.3944	2,462.4	88.0391	2,462.4	82.1084	2,462.4	87.5471	2,462.4	78.039	2,462.4	86.6287	2,462.4	84.9743	2,462.4	87.0903	2,462.4	87.8352	2,462.4	85.6481	2,462.4	88.1605	2,462.4	81.1612	2,462.4	87.3348	2,462.4	77.267	2,462.4	86.4362	2,462.4	80.4766	2,462.4	83.6292	2,462.4	78.1522	2,462.4	82.7733	2,462.4	68.6802	2,462.4	83.9271	2,462.4	73.1183	2,462.4	83.7062	2,462.4	73.5699	2,462.4	80.8692	2,462.4	69.6272	2,462.4	78.7098	2,462.4	67.8642	2,462.4	77.3066	2,462.4	68.4717	2,462.4	78.2171	2,462.4	73.6725	2,462.4	71.4904	2,462.4	77.9118	2,462.4	73.7029	2,462.4	79.4089
2,548.83	85.5506	2,548.83	86.6428	2,548.83	80.8446	2,548.83	87.2939	2,548.83	71.7198	2,548.83	87.1469	2,548.83	82.9987	2,548.83	85.7349	2,548.83	87.4473	2,548.83	83.0548	2,548.83	88.1663	2,548.83	80.8718	2,548.83	87.9285	2,548.83	79.155	2,548.83	84.9085	2,548.83	74.4366	2,548.83	78.9527	2,548.83	74.3284	2,548.83	78.9274	2,548.83	73.4126	2,548.83	81.4129	2,548.83	63.435	2,548.83	81.665	2,548.83	69.1651	2,548.83	80.7686	2,548.83	69.8985	2,548.83	76.9312	2,548.83	68.5111	2,548.83	74.1405	2,548.83	71.5907	2,548.83	77.6762	2,548.83	70.9368	2,548.83	74.2795	2,548.83	72.8235	2,548.83	71.5462	2,548.83	76.2467
2,639.65	85.236	2,639.65	86.7874	2,639.65	78.4973	2,639.65	87.2852	2,639.65	70.2024	2,639.65	86.392	2,639.65	82.3857	2,639.65	82.8697	2,639.65	86.5451	2,639.65	81.579	2,639.65	87.3679	2,639.65	81.3773	2,639.65	86.1891	2,639.65	80.0617	2,639.65	83.9903	2,639.65	78.2854	2,639.65	82.5914	2,639.65	72.8268	2,639.65	79.6323	2,639.65	73.0962	2,639.65	78.3661	2,639.65	74.6604	2,639.65	78.1474	2,639.65	64.1056	2,639.65	80.5202	2,639.65	70.5821	2,639.65	78.9471	2,639.65	69.213	2,639.65	74.2504	2,639.65	67.6689	2,639.65	75.3297	2,639.65	74.2381	2,639.65	69.0486	2,639.65	70.1726	2,639.65	71.8705	2,639.65	75.618
2,731.93	83.6644	2,731.93	86.3595	2,731.93	77.6788	2,731.93	86.4597	2,731.93	72.2717	2,731.93	84.2457	2,731.93	83.7774	2,731.93	83.4897	2,731.93	87.1221	2,731.93	82.3707	2,731.93	87.1671	2,731.93	81.136	2,731.93	86.5482	2,731.93	77.0273	2,731.93	84.4045	2,731.93	71.8486	2,731.93	81.1881	2,731.93	77.1668	2,731.93	75.9528	2,731.93	73.6872	2,731.93	75.8691	2,731.93	72.0116	2,731.93	76.03	2,731.93	72.2654	2,731.93	77.5422	2,731.93	58.8335	2,731.93	78.3508	2,731.93	68.3695	2,731.93	74.1059	2,731.93	68.052	2,731.93	73.3464	2,731.93	70.7701	2,731.93	61.9071	2,731.93	71.8559	2,731.93	72.043	2,731.93	72.2513
2,828.61	83.6064	2,828.61	85.7109	2,828.61	76.9668	2,828.61	84.9269	2,828.61	66.6201	2,828.61	84.0034	2,828.61	83.7272	2,828.61	83.4419	2,828.61	86.8337	2,828.61	80.74	2,828.61	86.0815	2,828.61	78.4818	2,828.61	83.9853	2,828.61	76.3154	2,828.61	81.7768	2,828.61	75.7267	2,828.61	80.8649	2,828.61	74.522	2,828.61	72.0684	2,828.61	71.8162	2,828.61	65.0081	2,828.61	70.9664	2,828.61	76.4226	2,828.61	70.3236	2,828.61	78.0485	2,828.61	66.6405	2,828.61	76.4761	2,828.61	62.245	2,828.61	71.8547	2,828.61	64.3741	2,828.61	70.5055	2,828.61	68.0415	2,828.61	49.5197	2,828.61	71.152	2,828.61	71.8657	2,828.61	73.4683
2,928.22	82.9906	2,928.22	84.6297	2,928.22	77.7438	2,928.22	84.1657	2,928.22	69.1651	2,928.22	83.3736	2,928.22	81.7045	2,928.22	80.2694	2,928.22	86.0047	2,928.22	77.8915	2,928.22	85.484	2,928.22	76.4347	2,928.22	82.5111	2,928.22	73.2373	2,928.22	83.2436	2,928.22	75.4344	2,928.22	79.5098	2,928.22	70.0415	2,928.22	60.636	2,928.22	69.5055	2,928.22	75.7815	2,928.22	69.9149	2,928.22	78.888	2,928.22	68.8414	2,928.22	75.0307	2,928.22	69.7203	2,928.22	76.1038	2,928.22	63.7494	2,928.22	70.1343	2,928.22	64.2459	2,928.22	70.8147	2,928.22	68.1135	2,928.22	69.0721	2,928.22	67.833	2,928.22	70.4872	2,928.22	67.9485
3,030.76	82.0105	3,030.76	83.2829	3,030.76	77.5239	3,030.76	83.661	3,030.76	75.7487	3,030.76	83.234	3,030.76	82.413	3,030.76	82.124	3,030.76	85.7109	3,030.76	79.2592	3,030.76	85.6164	3,030.76	76.2972	3,030.76	81.8208	3,030.76	76.4874	3,030.76	80.3509	3,030.76	70.4194	3,030.76	72.6881	3,030.76	73.0887	3,030.76	67.4207	3,030.76	74.5491	3,030.76	77.7526	3,030.76	72.632	3,030.76	79.6813	3,030.76	71.3477	3,030.76	71.2038	3,030.76	66.8049	3,030.76	73.6143	3,030.76	70.2611	3,030.76	71.6789	3,030.76	65.524	3,030.76	67.2599	3,030.76	69.135	3,030.76	67.6731	3,030.76	69.7037	3,030.76	68.4636	3,030.76	72.3795
3,137.7	83.3909	3,137.7	84.1885	3,137.7	77.8203	3,137.7	84.121	3,137.7	78.3143	3,137.7	83.5922	3,137.7	82.4935	3,137.7	80.585	3,137.7	85.5569	3,137.7	78.1795	3,137.7	85.747	3,137.7	76.419	3,137.7	82.1517	3,137.7	75.4466	3,137.7	80.2043	3,137.7	77.0591	3,137.7	72.8554	3,137.7	77.146	3,137.7	74.289	3,137.7	74.2679	3,137.7	77.6542	3,137.7	70.6969	3,137.7	77.4828	3,137.7	71.6901	3,137.7	72.0008	3,137.7	68.2147	3,137.7	72.0029	3,137.7	67.1554	3,137.7	71.2181	3,137.7	64.5168	3,137.7	67.6295	3,137.7	69.0855	3,137.7	68.8756	3,137.7	70.1396	3,137.7	69.5452	3,137.7	69.2803
3,249.02	82.7824	3,249.02	84.3976	3,249.02	78.4376	3,249.02	85.1014	3,249.02	79.583	3,249.02	83.2639	3,249.02	82.3407	3,249.02	79.4671	3,249.02	85.2924	3,249.02	79.4727	3,249.02	85.6977	3,249.02	77.1435	3,249.02	82.5448	3,249.02	78.4759	3,249.02	78.6979	3,249.02	78.7169	3,249.02	76.4001	3,249.02	74.5197	3,249.02	75.773	3,249.02	73.496	3,249.02	75.8593	3,249.02	73.1984	3,249.02	74.9421	3,249.02	72.2487	3,249.02	73.3449	3,249.02	69.6953	3,249.02	70.7737	3,249.02	67.4646	3,249.02	70.674	3,249.02	66.7983	3,249.02	67.9491	3,249.02	66.5284	3,249.02	68.7903	3,249.02	69.2728	3,249.02	71.3058	3,249.02	68.8314
3,363.28	81.9483	3,363.28	85.2744	3,363.28	78.8286	3,363.28	85.5729	3,363.28	80.3345	3,363.28	83.2152	3,363.28	83.0857	3,363.28	81.2701	3,363.28	85.1357	3,363.28	80.5587	3,363.28	83.7502	3,363.28	79.1736	3,363.28	82.0416	3,363.28	78.8442	3,363.28	79.9543	3,363.28	76.3221	3,363.28	77.0261	3,363.28	74.7345	3,363.28	75.4832	3,363.28	74.8748	3,363.28	75.8949	3,363.28	73.2474	3,363.28	75.4768	3,363.28	72.1276	3,363.28	73.8863	3,363.28	69.6655	3,363.28	71.0889	3,363.28	66.2138	3,363.28	70.3863	3,363.28	68.5117	3,363.28	67.4139	3,363.28	65.5238	3,363.28	67.8512	3,363.28	68.6358	3,363.28	72.6456	3,363.28	68.2111
3,481.93	82.2727	3,481.93	86.0754	3,481.93	78.4454	3,481.93	85.5465	3,481.93	80.9303	3,481.93	83.0933	3,481.93	83.0168	3,481.93	81.5627	3,481.93	85.0868	3,481.93	80.8178	3,481.93	83.2722	3,481.93	79.7542	3,481.93	82.3357	3,481.93	76.7236	3,481.93	80.6381	3,481.93	76.2834	3,481.93	77.4173	3,481.93	76.828	3,481.93	73.7006	3,481.93	73.1604	3,481.93	74.7036	3,481.93	72.2248	3,481.93	75.7712	3,481.93	72.6077	3,481.93	73.0271	3,481.93	71.4059	3,481.93	70.3119	3,481.93	66.8507	3,481.93	69.5337	3,481.93	64.8716	3,481.93	58.248	3,481.93	67.9735	3,481.93	64.2706	3,481.93	71.4081	3,481.93	71.1685	3,481.93	69.7844
3,604.98	82.8054	3,604.98	85.5621	3,604.98	78.1359	3,604.98	85.1291	3,604.98	80.8167	3,604.98	82.9923	3,604.98	83.2213	3,604.98	80.9286	3,604.98	84.4086	3,604.98	80.3459	3,604.98	83.2734	3,604.98	78.4953	3,604.98	83.887	3,604.98	76.7048	3,604.98	81.6845	3,604.98	77.3743	3,604.98	77.2173	3,604.98	75.0162	3,604.98	69.0059	3,604.98	72.3356	3,604.98	70.668	3,604.98	72.2032	3,604.98	72.4474	3,604.98	72.6258	3,604.98	71.3327	3,604.98	71.9417	3,604.98	66.7783	3,604.98	68.0273	3,604.98	69.6452	3,604.98	57.9476	3,604.98	66.2999	3,604.98	65.7822	3,604.98	67.8319	3,604.98	70.6427	3,604.98	71.5262	3,604.98	70.3936
3,732.42	83.2552	3,732.42	85.6364	3,732.42	79.2939	3,732.42	85.8955	3,732.42	81.6851	3,732.42	84.4872	3,732.42	83.2994	3,732.42	82.5268	3,732.42	82.1714	3,732.42	79.581	3,732.42	82.4546	3,732.42	77.2188	3,732.42	83.7193	3,732.42	76.4101	3,732.42	81.129	3,732.42	73.5173	3,732.42	75.1089	3,732.42	74.9429	3,732.42	62.1597	3,732.42	75.1701	3,732.42	55.5167	3,732.42	71.7893	3,732.42	61.9251	3,732.42	71.5446	3,732.42	64.2249	3,732.42	71.3517	3,732.42	63.9992	3,732.42	69.2347	3,732.42	64.5024	3,732.42	65.046	3,732.42	66.8888	3,732.42	59.0692	3,732.42	71.0001	3,732.42	66.9587	3,732.42	72.1147	3,732.42	67.887
3,864.26	83.808	3,864.26	86.1991	3,864.26	80.022	3,864.26	86.124	3,864.26	82.1853	3,864.26	85.2239	3,864.26	83.4327	3,864.26	82.0514	3,864.26	82.1402	3,864.26	77.6938	3,864.26	81.9879	3,864.26	76.638	3,864.26	83.243	3,864.26	74.9926	3,864.26	79.8904	3,864.26	75.8924	3,864.26	73.8446	3,864.26	75.6777	3,864.26	67.7146	3,864.26	73.556	3,864.26	67.6451	3,864.26	73.3162	3,864.26	67.143	3,864.26	71.2652	3,864.26	61.8567	3,864.26	71.4118	3,864.26	59.711	3,864.26	70.5356	3,864.26	65.3401	3,864.26	66.8545	3,864.26	64.3743	3,864.26	61.7146	3,864.26	70.0736	3,864.26	68.0487	3,864.26	72.3754	3,864.26	66.8826
4,000.49	83.5284	4,000.49	86.5703	4,000.49	80.0613	4,000.49	86.897	4,000.49	82.6539	4,000.49	84.602	4,000.49	82.725	4,000.49	80.4814	4,000.49	80.3739	4,000.49	78.0981	4,000.49	82.7009	4,000.49	76.9213	4,000.49	83.5709	4,000.49	77.6527	4,000.49	79.3562	4,000.49	77.4826	4,000.49	73.8024	4,000.49	75.7056	4,000.49	72.4634	4,000.49	75.0148	4,000.49	75.7502	4,000.49	72.7435	4,000.49	70.4833	4,000.49	72.0073	4,000.49	61.3109	4,000.49	70.5085	4,000.49	61.3872	4,000.49	69.0548	4,000.49	67.7895	4,000.49	67.7782	4,000.49	68.3956	4,000.49	62.5657	4,000.49	71.7629	4,000.49	68.5236	4,000.49	72.1105	4,000.49	68.0339
4,141.11	83.8083	4,141.11	86.6584	4,141.11	80.5707	4,141.11	87.5386	4,141.11	82.8213	4,141.11	85.309	4,141.11	82.7927	4,141.11	81.7611	4,141.11	78.8749	4,141.11	78.774	4,141.11	81.5244	4,141.11	77.6848	4,141.11	84.0124	4,141.11	76.9677	4,141.11	79.7575	4,141.11	74.6166	4,141.11	75.2235	4,141.11	75.605	4,141.11	79.5423	4,141.11	75.0225	4,141.11	78.5746	4,141.11	73.3911	4,141.11	68.518	4,141.11	72.0166	4,141.11	61.0384	4,141.11	70.9058	4,141.11	61.9317	4,141.11	69.187	4,141.11	68.2133	4,141.11	63.0011	4,141.11	67.0455	4,141.11	64.8268	4,141.11	71.8833	4,141.11	67.9679	4,141.11	71.3157	4,141.11	70.1258
4,287.6	84.4009	4,287.6	87.2926	4,287.6	80.5493	4,287.6	88.1239	4,287.6	82.4576	4,287.6	85.8714	4,287.6	82.7691	4,287.6	81.171	4,287.6	79.3093	4,287.6	79.9387	4,287.6	82.179	4,287.6	78.9044	4,287.6	84.1458	4,287.6	76.9056	4,287.6	78.357	4,287.6	76.8063	4,287.6	79.308	4,287.6	75.2435	4,287.6	80.4892	4,287.6	73.9815	4,287.6	75.7866	4,287.6	72.9422	4,287.6	67.7686	4,287.6	72.438	4,287.6	61.5537	4,287.6	71.2624	4,287.6	66.8445	4,287.6	70.7472	4,287.6	67.2938	4,287.6	67.2969	4,287.6	66.4264	4,287.6	62.3875	4,287.6	72.2115	4,287.6	68.2288	4,287.6	72.4285	4,287.6	69.2676
4,438.48	84.95	4,438.48	88.3893	4,438.48	80.855	4,438.48	88.1137	4,438.48	83.6329	4,438.48	83.2695	4,438.48	83.5919	4,438.48	80.7822	4,438.48	80.7748	4,438.48	80.8349	4,438.48	82.1716	4,438.48	75.495	4,438.48	82.2801	4,438.48	77.2364	4,438.48	79.0703	4,438.48	75.3488	4,438.48	82.5526	4,438.48	74.0616	4,438.48	80.4885	4,438.48	75.0934	4,438.48	76.185	4,438.48	73.2725	4,438.48	75.6508	4,438.48	73.1432	4,438.48	59.4405	4,438.48	71.5188	4,438.48	66.4033	4,438.48	67.765	4,438.48	65.2316	4,438.48	66.6447	4,438.48	68.3321	4,438.48	55.7	4,438.48	72.7939	4,438.48	67.0933	4,438.48	73.1138	4,438.48	68.8553
4,595.21	85.05	4,595.21	89.2088	4,595.21	82.7811	4,595.21	89.19	4,595.21	84.3671	4,595.21	84.697	4,595.21	84.5184	4,595.21	83.4704	4,595.21	82.8516	4,595.21	80.5264	4,595.21	81.5659	4,595.21	78.966	4,595.21	78.6535	4,595.21	77.7853	4,595.21	85.1443	4,595.21	76.586	4,595.21	82.8747	4,595.21	77.2583	4,595.21	75.7747	4,595.21	74.9138	4,595.21	78.4537	4,595.21	73.9091	4,595.21	75.4991	4,595.21	73.4692	4,595.21	63.3016	4,595.21	73.578	4,595.21	61.1946	4,595.21	71.7801	4,595.21	66.9866	4,595.21	68.1978	4,595.21	66.5002	4,595.21	64.6428	4,595.21	71.8694	4,595.21	66.2846	4,595.21	72.17	4,595.21	70.0772
4,756.35	85.6068	4,756.35	88.5908	4,756.35	83.0293	4,756.35	88.0486	4,756.35	86.0306	4,756.35	85.6354	4,756.35	86.3563	4,756.35	83.3614	4,756.35	82.96	4,756.35	80.3935	4,756.35	80.0961	4,756.35	78.4144	4,756.35	81.7002	4,756.35	79.662	4,756.35	87.387	4,756.35	79.0538	4,756.35	80.4417	4,756.35	76.1722	4,756.35	75.4256	4,756.35	76.7815	4,756.35	77.3859	4,756.35	74.6531	4,756.35	68.0555	4,756.35	73.5495	4,756.35	54.2994	4,756.35	72.6781	4,756.35	55.5492	4,756.35	72.5001	4,756.35	68.95	4,756.35	71.8164	4,756.35	64.393	4,756.35	61.4274	4,756.35	72.9953	4,756.35	68.7436	4,756.35	73.7011	4,756.35	71.5476
4,924.8	86.9061	4,924.8	89.6824	4,924.8	82.0277	4,924.8	88.2359	4,924.8	85.9502	4,924.8	85.9991	4,924.8	87.4755	4,924.8	85.0922	4,924.8	82.2057	4,924.8	82.5351	4,924.8	76.8453	4,924.8	82.9306	4,924.8	85.4319	4,924.8	81.7653	4,924.8	87.6381	4,924.8	79.1305	4,924.8	78.5215	4,924.8	78.719	4,924.8	80.8154	4,924.8	76.7819	4,924.8	78.724	4,924.8	73.9515	4,924.8	74.1668	4,924.8	73.1919	4,924.8	62.2736	4,924.8	73.4182	4,924.8	59.4882	4,924.8	72.7776	4,924.8	63.1888	4,924.8	71.0289	4,924.8	67.3655	4,924.8	64.1847	4,924.8	72.5407	4,924.8	64.6586	4,924.8	71.9898	4,924.8	70.5185
5,097.66	85.7425	5,097.66	89.1578	5,097.66	82.4169	5,097.66	88.713	5,097.66	86.7367	5,097.66	88.1125	5,097.66	88.2326	5,097.66	85.7056	5,097.66	81.3819	5,097.66	83.4051	5,097.66	71.8572	5,097.66	83.5207	5,097.66	86.7797	5,097.66	81.5658	5,097.66	85.2311	5,097.66	79.9999	5,097.66	80.7458	5,097.66	77.5324	5,097.66	81.8082	5,097.66	74.8989	5,097.66	78.1657	5,097.66	74.0391	5,097.66	73.823	5,097.66	72.158	5,097.66	55.6988	5,097.66	71.0604	5,097.66	55.8864	5,097.66	72.3428	5,097.66	55.8071	5,097.66	71.4958	5,097.66	68.994	5,097.66	68.4952	5,097.66	71.6851	5,097.66	61.2163	5,097.66	70.6598	5,097.66	69.2812
5,277.83	88.3666	5,277.83	88.4138	5,277.83	83.6229	5,277.83	88.2533	5,277.83	86.5049	5,277.83	87.7288	5,277.83	89.7168	5,277.83	85.6092	5,277.83	83.6277	5,277.83	83.943	5,277.83	78.8369	5,277.83	83.339	5,277.83	87.7344	5,277.83	81.4249	5,277.83	83.986	5,277.83	76.2961	5,277.83	83.5858	5,277.83	75.1784	5,277.83	81.8469	5,277.83	72.7699	5,277.83	76.0109	5,277.83	71.7403	5,277.83	72.6528	5,277.83	71.059	5,277.83	61.0715	5,277.83	68.7612	5,277.83	61.3377	5,277.83	71.387	5,277.83	54.6776	5,277.83	70.1623	5,277.83	60.9539	5,277.83	64.373	5,277.83	70.785	5,277.83	65.2483	5,277.83	71.6233	5,277.83	69.8986
5,463.87	87.7449	5,463.87	89.1529	5,463.87	85.6863	5,463.87	89.9111	5,463.87	87.2256	5,463.87	88.1384	5,463.87	88.7827	5,463.87	85.3702	5,463.87	84.1384	5,463.87	84.3392	5,463.87	79.7917	5,463.87	80.9732	5,463.87	86.3172	5,463.87	76.3085	5,463.87	83.8044	5,463.87	77.0963	5,463.87	83.6049	5,463.87	74.0041	5,463.87	81.5356	5,463.87	72.9681	5,463.87	78.2379	5,463.87	71.7487	5,463.87	70.4679	5,463.87	72.4076	5,463.87	62.0697	5,463.87	69.1653	5,463.87	63.8246	5,463.87	66.1216	5,463.87	65.5149	5,463.87	67.7863	5,463.87	67.4582	5,463.87	62.5992	5,463.87	68.952	5,463.87	45.7692	5,463.87	72.4571	5,463.87	67.0178
5,657.23	88.0724	5,657.23	89.6122	5,657.23	86.7405	5,657.23	90.6799	5,657.23	87.0182	5,657.23	87.6414	5,657.23	88.0229	5,657.23	85.4913	5,657.23	85.174	5,657.23	84.6048	5,657.23	81.4016	5,657.23	80.6517	5,657.23	84.4506	5,657.23	78.2554	5,657.23	83.8714	5,657.23	77.3363	5,657.23	81.7223	5,657.23	77.5858	5,657.23	77.3372	5,657.23	76.0999	5,657.23	76.3857	5,657.23	72.9519	5,657.23	70.3319	5,657.23	72.2327	5,657.23	67.758	5,657.23	71.2934	5,657.23	66.3799	5,657.23	71.7059	5,657.23	67.5712	5,657.23	70.993	5,657.23	69.3132	5,657.23	68.2719	5,657.23	68.8245	5,657.23	56.5644	5,657.23	69.5971	5,657.23	67.1121
5,856.45	88.8292	5,856.45	90.0221	5,856.45	87.2525	5,856.45	89.6623	5,856.45	87.8413	5,856.45	86.3646	5,856.45	87.5018	5,856.45	86.6303	5,856.45	85.2254	5,856.45	85.4237	5,856.45	82.3126	5,856.45	82.2258	5,856.45	82.0849	5,856.45	81.8151	5,856.45	84.5192	5,856.45	80.7533	5,856.45	79.8818	5,856.45	78.3953	5,856.45	77.2308	5,856.45	76.6709	5,856.45	76.2037	5,856.45	75.6663	5,856.45	70.5917	5,856.45	73.8253	5,856.45	65.707	5,856.45	72.8018	5,856.45	53.4209	5,856.45	72.4507	5,856.45	66.194	5,856.45	71.8051	5,856.45	68.0063	5,856.45	67.8679	5,856.45	70.6166	5,856.45	64.8205	5,856.45	66.0397	5,856.45	64.817
6,062.99	89.3181	6,062.99	89.9917	6,062.99	88.5823	6,062.99	89.8629	6,062.99	88.4963	6,062.99	87.4604	6,062.99	87.6047	6,062.99	87.7306	6,062.99	85.0129	6,062.99	85.8111	6,062.99	82.8712	6,062.99	84.9823	6,062.99	83.1315	6,062.99	82.8755	6,062.99	83.7591	6,062.99	80.6883	6,062.99	78.0395	6,062.99	79.4472	6,062.99	79.3384	6,062.99	77.5517	6,062.99	73.2336	6,062.99	74.6297	6,062.99	67.1997	6,062.99	72.9355	6,062.99	60.6512	6,062.99	73.5381	6,062.99	61.3292	6,062.99	72.087	6,062.99	60.538	6,062.99	73.7689	6,062.99	65.4771	6,062.99	67.3814	6,062.99	68.3412	6,062.99	58.6008	6,062.99	67.9225	6,062.99	66.4639
6,276.86	89.3563	6,276.86	90.2346	6,276.86	89.7895	6,276.86	89.0596	6,276.86	89.2041	6,276.86	86.8503	6,276.86	87.9979	6,276.86	87.7213	6,276.86	84.2663	6,276.86	86.0656	6,276.86	78.6091	6,276.86	85.5925	6,276.86	83.4847	6,276.86	82.3879	6,276.86	83.8343	6,276.86	79.4328	6,276.86	81.981	6,276.86	75.7086	6,276.86	78.9598	6,276.86	75.5215	6,276.86	72.8601	6,276.86	72.6161	6,276.86	65.7613	6,276.86	71.9811	6,276.86	64.0908	6,276.86	71.9779	6,276.86	59.852	6,276.86	71.7201	6,276.86	58.0214	6,276.86	72.9092	6,276.86	61.1272	6,276.86	69.2365	6,276.86	67.641	6,276.86	65.1279	6,276.86	71.0563	6,276.86	65.6785
6,498.05	89.4246	6,498.05	90.8026	6,498.05	90.0143	6,498.05	88.7335	6,498.05	89.9438	6,498.05	88.0875	6,498.05	87.5071	6,498.05	88.0297	6,498.05	84.2491	6,498.05	86.7374	6,498.05	77.24	6,498.05	85.1327	6,498.05	81.0035	6,498.05	79.1221	6,498.05	85.226	6,498.05	77.6623	6,498.05	83.8454	6,498.05	75.197	6,498.05	78.1703	6,498.05	74.4851	6,498.05	73.3307	6,498.05	71.1745	6,498.05	62.7051	6,498.05	72.3853	6,498.05	65.3321	6,498.05	69.4453	6,498.05	62.835	6,498.05	70.4506	6,498.05	61.4005	6,498.05	72.3961	6,498.05	63.2767	6,498.05	66.7245	6,498.05	65.8703	6,498.05	65.5049	6,498.05	70.342	6,498.05	63.2829
6,726.56	90.0971	6,726.56	91.7187	6,726.56	89.9949	6,726.56	89.0684	6,726.56	90.0956	6,726.56	87.696	6,726.56	87.6143	6,726.56	87.8228	6,726.56	85.6492	6,726.56	87.082	6,726.56	80.339	6,726.56	82.5386	6,726.56	80.7076	6,726.56	79.7497	6,726.56	86.1042	6,726.56	78.0902	6,726.56	81.8846	6,726.56	77.43	6,726.56	76.6289	6,726.56	75.8171	6,726.56	74.9491	6,726.56	72.7692	6,726.56	62.4369	6,726.56	71.6505	6,726.56	63.1681	6,726.56	69.551	6,726.56	62.504	6,726.56	69.2955	6,726.56	64.3434	6,726.56	69.4153	6,726.56	65.6144	6,726.56	71.8681	6,726.56	58.9626	6,726.56	66.3208	6,726.56	72.1648	6,726.56	66.0767
6,963.87	90.5203	6,963.87	92.0677	6,963.87	89.6704	6,963.87	89.0202	6,963.87	89.8215	6,963.87	88.126	6,963.87	86.9065	6,963.87	88.0601	6,963.87	86.0564	6,963.87	87.0214	6,963.87	82.7594	6,963.87	82.8272	6,963.87	83.5928	6,963.87	82.116	6,963.87	85.2385	6,963.87	80.2579	6,963.87	77.4595	6,963.87	78.586	6,963.87	78.1848	6,963.87	75.9378	6,963.87	72.1598	6,963.87	74.9946	6,963.87	63.0796	6,963.87	72.0968	6,963.87	67.6455	6,963.87	72.2876	6,963.87	59.3607	6,963.87	71.9503	6,963.87	62.1922	6,963.87	68.9604	6,963.87	65.5647	6,963.87	73.82	6,963.87	55.3908	6,963.87	66.2508	6,963.87	70.9703	6,963.87	60.8346
7,209.96	90.7512	7,209.96	92.5809	7,209.96	89.8104	7,209.96	89.0493	7,209.96	89.4149	7,209.96	86.9751	7,209.96	87.0117	7,209.96	87.7507	7,209.96	86.4944	7,209.96	86.7087	7,209.96	84.449	7,209.96	84.4849	7,209.96	84.6024	7,209.96	83.0762	7,209.96	81.1955	7,209.96	79.832	7,209.96	82.5231	7,209.96	78.9731	7,209.96	77.286	7,209.96	74.8323	7,209.96	66.2072	7,209.96	74.7022	7,209.96	65.2652	7,209.96	71.952	7,209.96	70.5478	7,209.96	71.9958	7,209.96	57.054	7,209.96	72.2753	7,209.96	60.4677	7,209.96	68.0672	7,209.96	63.4517	7,209.96	73.9626	7,209.96	53.4702	7,209.96	66.5915	7,209.96	68.1505	7,209.96	58.441
7,464.84	90.6209	7,464.84	92.279	7,464.84	89.804	7,464.84	88.1937	7,464.84	89.1509	7,464.84	87.6477	7,464.84	88.1365	7,464.84	88.4514	7,464.84	86.8154	7,464.84	86.7578	7,464.84	84.9421	7,464.84	85.2011	7,464.84	81.994	7,464.84	82.7475	7,464.84	79.6156	7,464.84	78.3475	7,464.84	85.0382	7,464.84	77.5109	7,464.84	77.5274	7,464.84	75.1724	7,464.84	74.5308	7,464.84	73.5709	7,464.84	62.5042	7,464.84	70.9333	7,464.84	68.4664	7,464.84	69.8915	7,464.84	58.1826	7,464.84	72.3544	7,464.84	62.731	7,464.84	68.608	7,464.84	59.1857	7,464.84	73.0101	7,464.84	59.019	7,464.84	66.2243	7,464.84	69.3242	7,464.84	63.3954
7,727.05	90.382	7,727.05	92.3026	7,727.05	89.3193	7,727.05	87.8104	7,727.05	89.6092	7,727.05	88.219	7,727.05	88.741	7,727.05	88.0435	7,727.05	87.1628	7,727.05	86.8705	7,727.05	84.8497	7,727.05	84.6409	7,727.05	77.98	7,727.05	80.9174	7,727.05	83.3489	7,727.05	77.9744	7,727.05	84.6556	7,727.05	76.8187	7,727.05	74.799	7,727.05	74.9386	7,727.05	74.6116	7,727.05	73.9264	7,727.05	57.3906	7,727.05	70.4294	7,727.05	67.8959	7,727.05	69.1818	7,727.05	56.344	7,727.05	70.2621	7,727.05	63.3424	7,727.05	68.5873	7,727.05	63.8199	7,727.05	70.8293	7,727.05	61.852	7,727.05	67.2557	7,727.05	71.2118	7,727.05	62.9892
7,999.51	90.2549	7,999.51	91.8379	7,999.51	89.3713	7,999.51	87.8057	7,999.51	90.6337	7,999.51	89.579	7,999.51	88.688	7,999.51	87.5769	7,999.51	87.4076	7,999.51	86.8012	7,999.51	84.7751	7,999.51	83.387	7,999.51	78.6124	7,999.51	80.2888	7,999.51	84.1202	7,999.51	77.2751	7,999.51	80.7371	7,999.51	75.5659	7,999.51	73.7332	7,999.51	73.8412	7,999.51	74.7877	7,999.51	73.79	7,999.51	66.6749	7,999.51	70.0467	7,999.51	62.3754	7,999.51	70.7199	7,999.51	59.4391	7,999.51	69.1736	7,999.51	61.0472	7,999.51	64.5011	7,999.51	69.0469	7,999.51	72.0817	7,999.51	62.0998	7,999.51	66.2149	7,999.51	69.1259	7,999.51	61.9215
8,282.23	89.5827	8,282.23	91.2949	8,282.23	89.8688	8,282.23	88.6819	8,282.23	91.1626	8,282.23	89.4955	8,282.23	88.0473	8,282.23	87.181	8,282.23	87.299	8,282.23	86.8403	8,282.23	85.3504	8,282.23	82.5341	8,282.23	80.9413	8,282.23	80.455	8,282.23	82.692	8,282.23	74.5215	8,282.23	78.8544	8,282.23	74.7552	8,282.23	77.5723	8,282.23	71.5072	8,282.23	73.4859	8,282.23	72.467	8,282.23	67.9199	8,282.23	69.0187	8,282.23	62.9627	8,282.23	71.3672	8,282.23	58.2448	8,282.23	68.0951	8,282.23	59.3861	8,282.23	59.9922	8,282.23	71.1335	8,282.23	72.8076	8,282.23	63.6477	8,282.23	67.4296	8,282.23	65.0248	8,282.23	64.7971
8,573.73	89.7101	8,573.73	91.2476	8,573.73	89.9454	8,573.73	88.6771	8,573.73	89.615	8,573.73	89.2239	8,573.73	86.321	8,573.73	86.872	8,573.73	87.2292	8,573.73	86.1246	8,573.73	85.8882	8,573.73	82.0599	8,573.73	79.3675	8,573.73	79.6412	8,573.73	79.624	8,573.73	73.8444	8,573.73	80.6986	8,573.73	75.2949	8,573.73	77.9846	8,573.73	68.7666	8,573.73	71.651	8,573.73	71.8309	8,573.73	68.333	8,573.73	66.086	8,573.73	66.4125	8,573.73	71.0755	8,573.73	57.2215	8,573.73	69.9943	8,573.73	58.9183	8,573.73	62.1155	8,573.73	68.8534	8,573.73	72.8764	8,573.73	56.6833	8,573.73	68.3368	8,573.73	65.481	8,573.73	61.1982
8,876.95	89.6468	8,876.95	90.8136	8,876.95	90.2655	8,876.95	88.2114	8,876.95	90.132	8,876.95	89.5408	8,876.95	85.7184	8,876.95	86.454	8,876.95	87.1566	8,876.95	84.7497	8,876.95	86.4303	8,876.95	80.9783	8,876.95	76.5495	8,876.95	79.5486	8,876.95	78.3478	8,876.95	75.0245	8,876.95	81.8356	8,876.95	75.3355	8,876.95	78.0253	8,876.95	67.3125	8,876.95	72.7567	8,876.95	71.6627	8,876.95	68.6339	8,876.95	60.657	8,876.95	63.2615	8,876.95	69.0584	8,876.95	64.8669	8,876.95	67.2211	8,876.95	60.4201	8,876.95	62.8312	8,876.95	69.3047	8,876.95	72.6818	8,876.95	54.1762	8,876.95	65.7747	8,876.95	66.0207	8,876.95	64.4061
9,188.96	89.9855	9,188.96	90.8037	9,188.96	90.7888	9,188.96	87.9943	9,188.96	91.3026	9,188.96	89.8125	9,188.96	86.4999	9,188.96	84.7847	9,188.96	86.3428	9,188.96	83.6341	9,188.96	85.1298	9,188.96	80.7492	9,188.96	81.1331	9,188.96	78.3846	9,188.96	78.1773	9,188.96	70.0052	9,188.96	78.876	9,188.96	72.7995	9,188.96	76.7043	9,188.96	65.8098	9,188.96	69.5071	9,188.96	70.4158	9,188.96	68.2989	9,188.96	65.0317	9,188.96	64.0867	9,188.96	65.648	9,188.96	64.9322	9,188.96	63.2064	9,188.96	63.0745	9,188.96	66.0903	9,188.96	68.6653	9,188.96	72.8412	9,188.96	58.8498	9,188.96	60.03	9,188.96	60.5356	9,188.96	56.5101
9,514.16	90.3855	9,514.16	90.3298	9,514.16	89.915	9,514.16	89.125	9,514.16	89.9409	9,514.16	89.7662	9,514.16	87.9438	9,514.16	83.9795	9,514.16	85.0364	9,514.16	84.8504	9,514.16	83.2253	9,514.16	80.5939	9,514.16	81.3885	9,514.16	78.5256	9,514.16	76.5644	9,514.16	73.1605	9,514.16	77.565	9,514.16	73.7618	9,514.16	77.55	9,514.16	68.5209	9,514.16	66.6874	9,514.16	70.782	9,514.16	66.5748	9,514.16	67.0931	9,514.16	60.0397	9,514.16	67.9818	9,514.16	57.6771	9,514.16	64.5621	9,514.16	61.3568	9,514.16	68.8515	9,514.16	61.1986	9,514.16	71.3781	9,514.16	57.3839	9,514.16	59.2401	9,514.16	64.7461	9,514.16	57.801
9,849.61	91.0926	9,849.61	89.8387	9,849.61	89.6473	9,849.61	89.024	9,849.61	89.594	9,849.61	89.2033	9,849.61	88.1113	9,849.61	84.709	9,849.61	84.0075	9,849.61	84.5401	9,849.61	82.8512	9,849.61	80.243	9,849.61	78.8966	9,849.61	80.0062	9,849.61	72.8514	9,849.61	73.8232	9,849.61	76.5671	9,849.61	73.2145	9,849.61	75.9682	9,849.61	67.6146	9,849.61	62.5316	9,849.61	69.6654	9,849.61	65.1278	9,849.61	66.2656	9,849.61	57.0828	9,849.61	66.4359	9,849.61	57.3705	9,849.61	63.5792	9,849.61	59.8448	9,849.61	68.1729	9,849.61	62.1053	9,849.61	70.4125	9,849.61	54.3351	9,849.61	60.8243	9,849.61	61.8736	9,849.61	59.0531
10,196.8	91.0774	10,196.8	88.747	10,196.8	89.5261	10,196.8	88.3874	10,196.8	88.5284	10,196.8	87.9932	10,196.8	87.3369	10,196.8	84.6784	10,196.8	84.3279	10,196.8	83.0461	10,196.8	83.1062	10,196.8	80.0843	10,196.8	78.9327	10,196.8	78.6203	10,196.8	71.1788	10,196.8	71.0702	10,196.8	72.0926	10,196.8	70.1903	10,196.8	72.6898	10,196.8	65.6561	10,196.8	61.1469	10,196.8	66.5774	10,196.8	61.3109	10,196.8	66.88	10,196.8	55.3299	10,196.8	61.4394	10,196.8	56.2941	10,196.8	57.7292	10,196.8	59.0756	10,196.8	66.1974	10,196.8	61.7329	10,196.8	68.8518	10,196.8	54.947	10,196.8	55.9152	10,196.8	57.0766	10,196.8	59.2307
10,555.7	90.3613	10,555.7	88.0737	10,555.7	88.6755	10,555.7	87.8125	10,555.7	87.0812	10,555.7	86.9238	10,555.7	85.2416	10,555.7	84.4264	10,555.7	83.3613	10,555.7	81.222	10,555.7	82.9716	10,555.7	79.6897	10,555.7	80.1527	10,555.7	75.6554	10,555.7	71.0778	10,555.7	71.6604	10,555.7	74.6195	10,555.7	66.6774	10,555.7	74.6139	10,555.7	67.8036	10,555.7	64.0387	10,555.7	63.7632	10,555.7	59.0963	10,555.7	67.9931	10,555.7	57.0497	10,555.7	57.9246	10,555.7	55.7712	10,555.7	59.9079	10,555.7	57.3564	10,555.7	65.9793	10,555.7	58.2076	10,555.7	66.9548	10,555.7	57.113	10,555.7	51.4499	10,555.7	55.9996	10,555.7	60.0611
10,927.7	89.7958	10,927.7	88.0866	10,927.7	88.7401	10,927.7	87.1319	10,927.7	87.5289	10,927.7	86.0312	10,927.7	84.5569	10,927.7	83.8426	10,927.7	82.8731	10,927.7	80.3147	10,927.7	82.3044	10,927.7	78.6451	10,927.7	78.8029	10,927.7	75.3158	10,927.7	72.4423	10,927.7	72.1491	10,927.7	75.8759	10,927.7	66.4719	10,927.7	71.3566	10,927.7	66.85	10,927.7	66.8473	10,927.7	61.2522	10,927.7	58.5527	10,927.7	66.4069	10,927.7	52.0733	10,927.7	56.028	10,927.7	54.134	10,927.7	59.7883	10,927.7	51.0917	10,927.7	64.9638	10,927.7	54.082	10,927.7	63.0243	10,927.7	53.1618	10,927.7	54.575	10,927.7	55.592	10,927.7	61.9432
11,313	89.0257	11,313	87.6858	11,313	88.2008	11,313	85.9692	11,313	87.6719	11,313	84.3691	11,313	85.95	11,313	81.9326	11,313	83.7636	11,313	79.0861	11,313	82.0962	11,313	75.8209	11,313	78.0588	11,313	73.1337	11,313	74.9588	11,313	66.4539	11,313	71.2421	11,313	61.5986	11,313	70.2046	11,313	62.4582	11,313	61.4036	11,313	56.2696	11,313	61.688	11,313	61.3886	11,313	55.3897	11,313	55.6689	11,313	58.5314	11,313	56.8047	11,313	58.1538	11,313	63.6168	11,313	56.8589	11,313	56.2151	11,313	43.9771	11,313	47.7442	11,313	50.3587	11,313	61.0891
11,712.9	88.5861	11,712.9	86.9014	11,712.9	87.8228	11,712.9	85.7266	11,712.9	87.2226	11,712.9	82.84	11,712.9	85.6146	11,712.9	81.4211	11,712.9	83.4939	11,712.9	77.8627	11,712.9	81.2296	11,712.9	75.542	11,712.9	77.6069	11,712.9	70.4182	11,712.9	70.801	11,712.9	67.5756	11,712.9	71.5423	11,712.9	61.097	11,712.9	70.6349	11,712.9	62.5901	11,712.9	65.7383	11,712.9	56.3811	11,712.9	59.9542	11,712.9	60.163	11,712.9	55.7388	11,712.9	56.0756	11,712.9	55.7595	11,712.9	56.1566	11,712.9	53.8962	11,712.9	60.1403	11,712.9	55.6078	11,712.9	53.1114	11,712.9	56.9931	11,712.9	55.0649	11,712.9	50.8526	11,712.9	60.4953
12,126	87.7373	12,126	86.7179	12,126	87.4221	12,126	85.2237	12,126	85.8068	12,126	82.1259	12,126	83.7577	12,126	81.4147	12,126	83.0926	12,126	77.1275	12,126	81.3523	12,126	75.0926	12,126	76.1827	12,126	69.9419	12,126	73.1242	12,126	67.2805	12,126	70.0798	12,126	59.7993	12,126	65.5879	12,126	62.8085	12,126	64.8593	12,126	58.6513	12,126	63.4806	12,126	59.7405	12,126	49.2585	12,126	53.9344	12,126	44.0607	12,126	50.9578	12,126	57.6086	12,126	59.0562	12,126	54.6551	12,126	47.4944	12,126	57.9328	12,126	58.1758	12,126	56.5242	12,126	60.2103
12,553.7	87.1002	12,553.7	85.6379	12,553.7	87.0438	12,553.7	85.0072	12,553.7	85.491	12,553.7	83.0819	12,553.7	83.9268	12,553.7	81.3759	12,553.7	82.1253	12,553.7	77.3264	12,553.7	80.5211	12,553.7	75.2906	12,553.7	74.3902	12,553.7	70.6567	12,553.7	72.0591	12,553.7	67.4964	12,553.7	63.5778	12,553.7	63.5243	12,553.7	65.0528	12,553.7	62.4282	12,553.7	62.9955	12,553.7	59.6557	12,553.7	62.1735	12,553.7	59.9786	12,553.7	52.0594	12,553.7	52.6195	12,553.7	53.1596	12,553.7	53.1692	12,553.7	51.1938	12,553.7	59.531	12,553.7	47.4998	12,553.7	51.3836	12,553.7	53.9094	12,553.7	55.6253	12,553.7	54.1948	12,553.7	58.1184
12,996.1	86.7006	12,996.1	85.2781	12,996.1	86.8997	12,996.1	84.8151	12,996.1	85.3486	12,996.1	82.7014	12,996.1	82.9409	12,996.1	80.8841	12,996.1	81.7473	12,996.1	76.3869	12,996.1	79.5314	12,996.1	75.1737	12,996.1	75.1425	12,996.1	71.1246	12,996.1	71.2479	12,996.1	67.1475	12,996.1	64.533	12,996.1	62.9819	12,996.1	64.2605	12,996.1	60.8285	12,996.1	60.0975	12,996.1	57.6912	12,996.1	58.8731	12,996.1	58.9244	12,996.1	57.9085	12,996.1	55.3145	12,996.1	51.5884	12,996.1	50.0441	12,996.1	46.3957	12,996.1	55.9538	12,996.1	47.4649	12,996.1	54.6006	12,996.1	57.5213	12,996.1	55.4261	12,996.1	50.2703	12,996.1	57.7454
13,454.6	86.5559	13,454.6	85.7086	13,454.6	86.8234	13,454.6	84.8977	13,454.6	84.6632	13,454.6	82.1034	13,454.6	82.074	13,454.6	79.9976	13,454.6	80.6906	13,454.6	75.8334	13,454.6	78.6585	13,454.6	75.433	13,454.6	72.6783	13,454.6	69.8849	13,454.6	70.6328	13,454.6	65.436	13,454.6	60.9864	13,454.6	59.2275	13,454.6	56.6192	13,454.6	57.2816	13,454.6	60.7367	13,454.6	56.8764	13,454.6	62.5802	13,454.6	55.2255	13,454.6	57.7046	13,454.6	51.5556	13,454.6	42.2382	13,454.6	50.4462	13,454.6	52.3898	13,454.6	50.3248	13,454.6	37.3842	13,454.6	50.0675	13,454.6	54.2856	13,454.6	58.3591	13,454.6	55.5177	13,454.6	54.2541
13,929.2	86.5615	13,929.2	86.363	13,929.2	86.6313	13,929.2	84.9434	13,929.2	84.88	13,929.2	81.8317	13,929.2	81.8404	13,929.2	79.5116	13,929.2	79.9236	13,929.2	75.9913	13,929.2	76.8097	13,929.2	73.6038	13,929.2	72.1474	13,929.2	67.0894	13,929.2	67.4849	13,929.2	63.044	13,929.2	58.4265	13,929.2	57.1218	13,929.2	55.6314	13,929.2	53.0597	13,929.2	61.1509	13,929.2	50.7345	13,929.2	61.4661	13,929.2	54.2537	13,929.2	56.0568	13,929.2	37.3775	13,929.2	49.1601	13,929.2	43.0895	13,929.2	47.497	13,929.2	49.0695	13,929.2	48.8772	13,929.2	49.4051	13,929.2	53.8159	13,929.2	54.7214	13,929.2	54.4542	13,929.2	53.5786
14,419.9	87.1027	14,419.9	87.0606	14,419.9	86.852	14,419.9	84.9126	14,419.9	85.634	14,419.9	82.202	14,419.9	82.4716	14,419.9	79.7909	14,419.9	79.7886	14,419.9	75.2696	14,419.9	76.2213	14,419.9	72.3104	14,419.9	72.4103	14,419.9	66.1634	14,419.9	64.7297	14,419.9	61.5741	14,419.9	59.0444	14,419.9	54.8108	14,419.9	52.8225	14,419.9	53.2315	14,419.9	62.1906	14,419.9	47.5568	14,419.9	61.6935	14,419.9	52.2098	14,419.9	55.9317	14,419.9	42.4938	14,419.9	49.6909	14,419.9	44.1667	14,419.9	42.2076	14,419.9	47.4006	14,419.9	51.7228	14,419.9	54.6995	14,419.9	48.7486	14,419.9	46.5545	14,419.9	49.896	14,419.9	51.9865
14,928.2	87.3453	14,928.2	87.2332	14,928.2	86.9758	14,928.2	84.9778	14,928.2	85.5701	14,928.2	82.2313	14,928.2	82.3105	14,928.2	79.6358	14,928.2	78.5411	14,928.2	75.1473	14,928.2	75.7124	14,928.2	71.9477	14,928.2	71.0552	14,928.2	64.6429	14,928.2	65.1352	14,928.2	60.0466	14,928.2	51.2028	14,928.2	49.2706	14,928.2	52.8235	14,928.2	51.6181	14,928.2	61.9521	14,928.2	45.5201	14,928.2	60.4985	14,928.2	48.6376	14,928.2	58.1284	14,928.2	33.9172	14,928.2	51.3452	14,928.2	46.164	14,928.2	32.4873	14,928.2	46.0485	14,928.2	52.6107	14,928.2	49.9236	14,928.2	50.9041	14,928.2	42.3314	14,928.2	47.705	14,928.2	51.6877
15,455.6	87.8853	15,455.6	87.5345	15,455.6	87.2625	15,455.6	84.6265	15,455.6	86.0376	15,455.6	82.3834	15,455.6	81.7491	15,455.6	79.3015	15,455.6	78.0257	15,455.6	74.609	15,455.6	74.7074	15,455.6	70.1462	15,455.6	70.7718	15,455.6	63.2591	15,455.6	61.2569	15,455.6	59.2455	15,455.6	53.9815	15,455.6	48.1653	15,455.6	41.5213	15,455.6	51.4851	15,455.6	60.7756	15,455.6	40.4727	15,455.6	61.6982	15,455.6	53.5292	15,455.6	56.8484	15,455.6	38.9986	15,455.6	50.7086	15,455.6	48.9931	15,455.6	42.9326	15,455.6	50.6515	15,455.6	53.0268	15,455.6	47.9363	15,455.6	45.6878	15,455.6	48.838	15,455.6	52.1069	15,455.6	46.7134
16,000.5	88.4959	16,000.5	87.4899	16,000.5	87.8612	16,000.5	84.6533	16,000.5	85.6184	16,000.5	81.7032	16,000.5	82.0045	16,000.5	77.6291	16,000.5	78.1024	16,000.5	72.5325	16,000.5	73.3101	16,000.5	68.2598	16,000.5	68.4276	16,000.5	63.0008	16,000.5	58.5373	16,000.5	59.9686	16,000.5	47.4883	16,000.5	52.2412	16,000.5	45.5187	16,000.5	52.6102	16,000.5	59.812	16,000.5	47.157	16,000.5	61.8284	16,000.5	54.0265	16,000.5	56.5521	16,000.5	41.9272	16,000.5	51.2919	16,000.5	50.8023	16,000.5	42.3286	16,000.5	48.7763	16,000.5	43.9923	16,000.5	42.3899	16,000.5	46.3776	16,000.5	47.4886	16,000.5	54.0618	16,000.5	41.747
16,564.5	88.9028	16,564.5	87.6527	16,564.5	88.1978	16,564.5	84.1835	16,564.5	86.2331	16,564.5	81.1337	16,564.5	82.1251	16,564.5	75.43	16,564.5	76.892	16,564.5	70.9257	16,564.5	71.8055	16,564.5	67.3161	16,564.5	64.6273	16,564.5	64.7055	16,564.5	55.5333	16,564.5	60.9685	16,564.5	50.3263	16,564.5	57.0053	16,564.5	33.0199	16,564.5	54.2511	16,564.5	60.4407	16,564.5	49.2202	16,564.5	62.872	16,564.5	55.4583	16,564.5	55.3491	16,564.5	41.6869	16,564.5	51.3162	16,564.5	52.3753	16,564.5	38.5834	16,564.5	50.395	16,564.5	46.4936	16,564.5	50.8053	16,564.5	45.4999	16,564.5	50.9474	16,564.5	54.8714	16,564.5	46.0596
17,148.9	88.7955	17,148.9	87.075	17,148.9	88.0578	17,148.9	83.6818	17,148.9	85.8075	17,148.9	79.678	17,148.9	81.0928	17,148.9	70.8563	17,148.9	75.2898	17,148.9	68.7246	17,148.9	67.061	17,148.9	67.4494	17,148.9	62.6779	17,148.9	67.2501	17,148.9	53.0044	17,148.9	62.955	17,148.9	55.2209	17,148.9	58.1938	17,148.9	39.4412	17,148.9	56.4989	17,148.9	59.2861	17,148.9	50.7937	17,148.9	62.4748	17,148.9	57.3696	17,148.9	56.3301	17,148.9	45.9383	17,148.9	49.3296	17,148.9	53.1892	17,148.9	37.5113	17,148.9	52.7459	17,148.9	45.7985	17,148.9	50.3816	17,148.9	46.1244	17,148.9	52.9602	17,148.9	53.0807	17,148.9	49.1826
17,752.4	88.4484	17,752.4	86.4427	17,752.4	87.6546	17,752.4	83.2855	17,752.4	85.1231	17,752.4	77.7414	17,752.4	80.4299	17,752.4	66.8318	17,752.4	74.3592	17,752.4	68.4751	17,752.4	66.1849	17,752.4	69.1818	17,752.4	58.4551	17,752.4	67.2763	17,752.4	53.5737	17,752.4	63.6968	17,752.4	54.2123	17,752.4	56.0031	17,752.4	43.2434	17,752.4	56.4319	17,752.4	55.9483	17,752.4	51.8189	17,752.4	59.5433	17,752.4	56.4798	17,752.4	57.2791	17,752.4	49.5916	17,752.4	49.0066	17,752.4	52.9886	17,752.4	40.1595	17,752.4	54.0177	17,752.4	43.2507	17,752.4	46.8702	17,752.4	45.3321	17,752.4	50.6743	17,752.4	49.2043	17,752.4	49.1479
18,379.4	87.8812	18,379.4	85.64	18,379.4	87.1182	18,379.4	82.2806	18,379.4	83.7313	18,379.4	73.9533	18,379.4	78.3306	18,379.4	63.5859	18,379.4	71.9556	18,379.4	71.0595	18,379.4	60.9555	18,379.4	70.3303	18,379.4	44.2029	18,379.4	68.2668	18,379.4	56.5348	18,379.4	64.0174	18,379.4	54.7948	18,379.4	58.16	18,379.4	47.4879	18,379.4	56.0613	18,379.4	54.0894	18,379.4	52.7213	18,379.4	59.2852	18,379.4	55.5857	18,379.4	56.338	18,379.4	50.7453	18,379.4	48.2518	18,379.4	52.2518	18,379.4	33.82	18,379.4	53.9145	18,379.4	43.8849	18,379.4	44.7945	18,379.4	44.0616	18,379.4	47.7778	18,379.4	43.9892	18,379.4	44.6396
19,026.9	86.6533	19,026.9	84.3616	19,026.9	86.0762	19,026.9	80.211	19,026.9	82.5846	19,026.9	67.1414	19,026.9	76.9066	19,026.9	64.0502	19,026.9	70.3082	19,026.9	72.0379	19,026.9	61.5802	19,026.9	71.3093	19,026.9	55.2422	19,026.9	68.1936	19,026.9	58.8941	19,026.9	63.9664	19,026.9	54.8146	19,026.9	57.8172	19,026.9	51.2077	19,026.9	56.4034	19,026.9	53.8654	19,026.9	53.6359	19,026.9	58.2506	19,026.9	53.9881	19,026.9	54.8685	19,026.9	52.5481	19,026.9	46.9371	19,026.9	52.1633	19,026.9	31.3604	19,026.9	51.8182	19,026.9	45.4422	19,026.9	46.1376	19,026.9	43.4253	19,026.9	43.1725	19,026.9	36.9107	19,026.9	43.4629
19,697.8	84.8629	19,697.8	82.3232	19,697.8	84.5479	19,697.8	75.9166	19,697.8	81.4683	19,697.8	56.7892	19,697.8	76.3383	19,697.8	67.866	19,697.8	70.7041	19,697.8	72.7171	19,697.8	64.849	19,697.8	71.913	19,697.8	59.6094	19,697.8	67.7647	19,697.8	56.8239	19,697.8	62.7962	19,697.8	55.928	19,697.8	57.6482	19,697.8	53.8253	19,697.8	54.9536	19,697.8	54.6223	19,697.8	53.9931	19,697.8	56.8193	19,697.8	52.2403	19,697.8	52.1505	19,697.8	51.6456	19,697.8	47.4625	19,697.8	50.238	19,697.8	41.0226	19,697.8	50.6699	19,697.8	34.9325	19,697.8	46.2368	19,697.8	48.5982	19,697.8	45.1304	19,697.8	34.6255	19,697.8	46.3385
19,999.5	83.8676	19,999.5	81.1562	19,999.5	83.4684	19,999.5	72.6699	19,999.5	80.9558	19,999.5	63.0867	19,999.5	75.9598	19,999.5	68.9152	19,999.5	71.8499	19,999.5	73.2866	19,999.5	64.0498	19,999.5	72.1428	19,999.5	60.3822	19,999.5	67.4495	19,999.5	51.6804	19,999.5	61.6251	19,999.5	58.7741	19,999.5	57.6644	19,999.5	48.9423	19,999.5	55.6904	19,999.5	53.8806	19,999.5	55.0032	19,999.5	57.1023	19,999.5	47.6377	19,999.5	51.9512	19,999.5	28.8067	19,999.5	47.7991	19,999.5	46.555	19,999.5	43.9153	19,999.5	53.6497	19,999.5	36.0694	19,999.5	35.2711	19,999.5	47.6385	19,999.5	51.5758	19,999.5	32.8315	19,999.5	45.8716
