"SPL Vertical"
"On-Axis"		"10°"		"-10°"		"20°"		"-20°"		"30°"		"-30°"		"40°"		"-40°"		"50°"		"-50°"		"60°"		"-60°"		"70°"		"-70°"		"80°"		"-80°"		"90°"		"-90°"		"100°"		"-100°"		"110°"		"-110°"		"120°"		"-120°"		"130°"		"-130°"		"140°"		"-140°"		"150°"		"-150°"		"160°"		"-160°"		"170°"		"-170°"		"180°"
"Frequency / Hz"	"Sound Pressure Level / dB (re 20 µPa/V)   /[0.3V at 1m]"	"Frequency / Hz"	"Sound Pressure Level / dB (re 20 µPa/V)   /[0.3V at 1m]"	"Frequency / Hz"	"Sound Pressure Level / dB (re 20 µPa/V)   /[0.3V at 1m]"	"Frequency / Hz"	"Sound Pressure Level / dB (re 20 µPa/V)   /[0.3V at 1m]"	"Frequency / Hz"	"Sound Pressure Level / dB (re 20 µPa/V)   /[0.3V at 1m]"	"Frequency / Hz"	"Sound Pressure Level / dB (re 20 µPa/V)   /[0.3V at 1m]"	"Frequency / Hz"	"Sound Pressure Level / dB (re 20 µPa/V)   /[0.3V at 1m]"	"Frequency / Hz"	"Sound Pressure Level / dB (re 20 µPa/V)   /[0.3V at 1m]"	"Frequency / Hz"	"Sound Pressure Level / dB (re 20 µPa/V)   /[0.3V at 1m]"	"Frequency / Hz"	"Sound Pressure Level / dB (re 20 µPa/V)   /[0.3V at 1m]"	"Frequency / Hz"	"Sound Pressure Level / dB (re 20 µPa/V)   /[0.3V at 1m]"	"Frequency / Hz"	"Sound Pressure Level / dB (re 20 µPa/V)   /[0.3V at 1m]"	"Frequency / Hz"	"Sound Pressure Level / dB (re 20 µPa/V)   /[0.3V at 1m]"	"Frequency / Hz"	"Sound Pressure Level / dB (re 20 µPa/V)   /[0.3V at 1m]"	"Frequency / Hz"	"Sound Pressure Level / dB (re 20 µPa/V)   /[0.3V at 1m]"	"Frequency / Hz"	"Sound Pressure Level / dB (re 20 µPa/V)   /[0.3V at 1m]"	"Frequency / Hz"	"Sound Pressure Level / dB (re 20 µPa/V)   /[0.3V at 1m]"	"Frequency / Hz"	"Sound Pressure Level / dB (re 20 µPa/V)   /[0.3V at 1m]"	"Frequency / Hz"	"Sound Pressure Level / dB (re 20 µPa/V)   /[0.3V at 1m]"	"Frequency / Hz"	"Sound Pressure Level / dB (re 20 µPa/V)   /[0.3V at 1m]"	"Frequency / Hz"	"Sound Pressure Level / dB (re 20 µPa/V)   /[0.3V at 1m]"	"Frequency / Hz"	"Sound Pressure Level / dB (re 20 µPa/V)   /[0.3V at 1m]"	"Frequency / Hz"	"Sound Pressure Level / dB (re 20 µPa/V)   /[0.3V at 1m]"	"Frequency / Hz"	"Sound Pressure Level / dB (re 20 µPa/V)   /[0.3V at 1m]"	"Frequency / Hz"	"Sound Pressure Level / dB (re 20 µPa/V)   /[0.3V at 1m]"	"Frequency / Hz"	"Sound Pressure Level / dB (re 20 µPa/V)   /[0.3V at 1m]"	"Frequency / Hz"	"Sound Pressure Level / dB (re 20 µPa/V)   /[0.3V at 1m]"	"Frequency / Hz"	"Sound Pressure Level / dB (re 20 µPa/V)   /[0.3V at 1m]"	"Frequency / Hz"	"Sound Pressure Level / dB (re 20 µPa/V)   /[0.3V at 1m]"	"Frequency / Hz"	"Sound Pressure Level / dB (re 20 µPa/V)   /[0.3V at 1m]"	"Frequency / Hz"	"Sound Pressure Level / dB (re 20 µPa/V)   /[0.3V at 1m]"	"Frequency / Hz"	"Sound Pressure Level / dB (re 20 µPa/V)   /[0.3V at 1m]"	"Frequency / Hz"	"Sound Pressure Level / dB (re 20 µPa/V)   /[0.3V at 1m]"	"Frequency / Hz"	"Sound Pressure Level / dB (re 20 µPa/V)   /[0.3V at 1m]"	"Frequency / Hz"	"Sound Pressure Level / dB (re 20 µPa/V)   /[0.3V at 1m]"	"Frequency / Hz"	"Sound Pressure Level / dB (re 20 µPa/V)   /[0.3V at 1m]"
20.5078	76.4123	20.5078	76.3798	20.5078	76.4717	20.5078	76.3751	20.5078	76.5572	20.5078	76.3986	20.5078	76.6681	20.5078	76.4508	20.5078	76.8031	20.5078	76.5321	20.5078	76.9611	20.5078	76.6426	20.5078	77.1404	20.5078	76.7821	20.5078	77.3393	20.5078	76.95	20.5078	77.5552	20.5078	77.145	20.5078	77.7845	20.5078	77.3646	20.5078	78.0224	20.5078	77.6051	20.5078	78.2621	20.5078	77.8606	20.5078	78.4947	20.5078	78.1228	20.5078	78.7094	20.5078	78.3811	20.5078	78.8935	20.5078	78.6221	20.5078	79.0344	20.5078	78.8315	20.5078	79.1208	20.5078	78.9953	20.5078	79.1445	20.5078	79.1021
21.9727	77.3774	21.9727	77.3555	21.9727	77.4274	21.9727	77.3622	21.9727	77.5049	21.9727	77.3981	21.9727	77.609	21.9727	77.4635	21.9727	77.7388	21.9727	77.5584	21.9727	77.8932	21.9727	77.6828	21.9727	78.071	21.9727	77.8362	21.9727	78.2703	21.9727	78.0176	21.9727	78.4889	21.9727	78.2254	21.9727	78.7234	21.9727	78.4566	21.9727	78.9691	21.9727	78.7068	21.9727	79.2191	21.9727	78.9697	21.9727	79.4645	21.9727	79.2365	21.9727	79.6942	21.9727	79.4955	21.9727	79.8954	21.9727	79.7333	21.9727	80.0549	21.9727	79.9352	21.9727	80.1606	21.9727	80.0873	21.9727	80.2035	21.9727	80.1788
23.4375	78.2466	23.4375	78.231	23.4375	78.2913	23.4375	78.2447	23.4375	78.3645	23.4375	78.288	23.4375	78.4658	23.4375	78.3609	23.4375	78.5943	23.4375	78.4633	23.4375	78.7488	23.4375	78.5951	23.4375	78.9279	23.4375	78.7557	23.4375	79.1295	23.4375	78.944	23.4375	79.351	23.4375	79.1581	23.4375	79.5887	23.4375	79.3951	23.4375	79.8378	23.4375	79.6503	23.4375	80.0919	23.4375	79.917	23.4375	80.3426	23.4375	80.1858	23.4375	80.5789	23.4375	80.4448	23.4375	80.7881	23.4375	80.6803	23.4375	80.9566	23.4375	80.8776	23.4375	81.0716	23.4375	81.0235	23.4375	81.1235	23.4375	81.1074
24.9023	78.2883	24.9023	78.2765	24.9023	78.3276	24.9023	78.2926	24.9023	78.3942	24.9023	78.3367	24.9023	78.4877	24.9023	78.4088	24.9023	78.6075	24.9023	78.5087	24.9023	78.7527	24.9023	78.6362	24.9023	78.9222	24.9023	78.7905	24.9023	79.1142	24.9023	78.9704	24.9023	79.3262	24.9023	79.1741	24.9023	79.5547	24.9023	79.3985	24.9023	79.7946	24.9023	79.6392	24.9023	80.0392	24.9023	79.89	24.9023	80.28	24.9023	80.1424	24.9023	80.5062	24.9023	80.3854	24.9023	80.7057	24.9023	80.6065	24.9023	80.8657	24.9023	80.7921	24.9023	80.9747	24.9023	80.9295	24.9023	81.0239	24.9023	81.0086
26.3672	79.0419	26.3672	79.023	26.3672	79.0857	26.3672	79.0292	26.3672	79.1538	26.3672	79.0608	26.3672	79.2455	26.3672	79.1181	26.3672	79.36	26.3672	79.2009	26.3672	79.4963	26.3672	79.3091	26.3672	79.6529	26.3672	79.4422	26.3672	79.8282	26.3672	79.5992	26.3672	80.0197	26.3672	79.7786	26.3672	80.2243	26.3672	79.9781	26.3672	80.4377	26.3672	80.1938	26.3672	80.6543	26.3672	80.4206	26.3672	80.8667	26.3672	80.6511	26.3672	81.0654	26.3672	80.8758	26.3672	81.2395	26.3672	81.083	26.3672	81.3772	26.3672	81.2604	26.3672	81.4677	26.3672	81.3955	26.3672	81.5028	26.3672	81.4783
27.832	79.433	27.832	79.4103	27.832	79.4785	27.832	79.4108	27.832	79.5463	27.832	79.4348	27.832	79.6356	27.832	79.4826	27.832	79.7455	27.832	79.554	27.832	79.875	27.832	79.649	27.832	80.0226	27.832	79.7672	27.832	80.1867	27.832	79.9078	27.832	80.3649	27.832	80.0698	27.832	80.5544	27.832	80.2511	27.832	80.7513	27.832	80.4488	27.832	80.9502	27.832	80.6585	27.832	81.1446	27.832	80.8737	27.832	81.3256	27.832	81.0859	27.832	81.483	27.832	81.2843	27.832	81.6059	27.832	81.457	27.832	81.6839	27.832	81.5915	27.832	81.7091	27.832	81.6778
29.2969	79.9885	29.2969	79.9646	29.2969	80.0345	29.2969	79.9632	29.2969	80.1021	29.2969	79.9845	29.2969	80.1904	29.2969	80.0287	29.2969	80.2987	29.2969	80.0958	29.2969	80.4256	29.2969	80.1856	29.2969	80.5698	29.2969	80.2977	29.2969	80.7295	29.2969	80.4314	29.2969	80.9025	29.2969	80.5858	29.2969	81.0858	29.2969	80.759	29.2969	81.2756	29.2969	80.9484	29.2969	81.4668	29.2969	81.1499	29.2969	81.6528	29.2969	81.3576	29.2969	81.8254	29.2969	81.5635	29.2969	81.9746	29.2969	81.7571	29.2969	82.09	29.2969	81.9267	29.2969	82.1615	29.2969	82.0603	29.2969	82.1819	29.2969	82.1476
30.7617	80.3321	30.7617	80.3074	30.7617	80.3766	30.7617	80.3028	30.7617	80.4404	30.7617	80.3187	30.7617	80.5225	30.7617	80.3551	30.7617	80.6222	30.7617	80.4122	30.7617	80.7382	30.7617	80.4898	30.7617	80.8692	30.7617	80.5876	30.7617	81.0135	30.7617	80.7052	30.7617	81.169	30.7617	80.8418	30.7617	81.3331	30.7617	80.9961	30.7617	81.5026	30.7617	81.166	30.7617	81.6732	30.7617	81.3481	30.7617	81.8391	30.7617	81.5373	30.7617	81.9932	30.7617	81.7264	30.7617	82.1266	30.7617	81.9057	30.7617	82.2294	30.7617	82.064	30.7617	82.2923	30.7617	82.1899	30.7617	82.3081	30.7617	82.2734
32.2266	80.6634	32.2266	80.6379	32.2266	80.7061	32.2266	80.6303	32.2266	80.7656	32.2266	80.6408	32.2266	80.841	32.2266	80.6696	32.2266	80.9313	32.2266	80.7168	32.2266	81.0355	32.2266	80.7824	32.2266	81.1521	32.2266	80.8662	32.2266	81.2799	32.2266	80.9682	32.2266	81.417	32.2266	81.0877	32.2266	81.5613	32.2266	81.224	32.2266	81.7103	32.2266	81.3754	32.2266	81.8606	32.2266	81.5392	32.2266	82.0074	32.2266	81.711	32.2266	82.1445	32.2266	81.884	32.2266	82.2639	32.2266	82.0495	32.2266	82.3564	32.2266	82.1967	32.2266	82.4129	32.2266	82.3144	32.2266	82.4262	32.2266	82.3929
33.6914	80.9716	33.6914	80.9435	33.6914	81.015	33.6914	80.9311	33.6914	81.0728	33.6914	80.9348	33.6914	81.1443	33.6914	80.9549	33.6914	81.2283	33.6914	80.9915	33.6914	81.3237	33.6914	81.0447	33.6914	81.4292	33.6914	81.1145	33.6914	81.5433	33.6914	81.2008	33.6914	81.6644	33.6914	81.3033	33.6914	81.7908	33.6914	81.4217	33.6914	81.9203	33.6914	81.5548	33.6914	82.0502	33.6914	81.7005	33.6914	82.1767	33.6914	81.8552	33.6914	82.2944	33.6914	82.0129	33.6914	82.3965	33.6914	82.1656	33.6914	82.4747	33.6914	82.3032	33.6914	82.5205	33.6914	82.415	33.6914	82.5273	33.6914	82.4917
35.1562	81.3694	35.1562	81.3361	35.1562	81.4143	35.1562	81.3151	35.1562	81.4699	35.1562	81.3069	35.1562	81.5354	35.1562	81.3118	35.1562	81.6094	35.1562	81.3302	35.1562	81.6908	35.1562	81.3621	35.1562	81.7783	35.1562	81.4079	35.1562	81.8704	35.1562	81.4678	35.1562	81.966	35.1562	81.5421	35.1562	82.0637	35.1562	81.631	35.1562	82.1623	35.1562	81.7343	35.1562	82.2601	35.1562	81.8509	35.1562	82.3545	35.1562	81.9787	35.1562	82.4418	35.1562	82.113	35.1562	82.5164	35.1562	82.2469	35.1562	82.5713	35.1562	82.3713	35.1562	82.5992	35.1562	82.4761	35.1562	82.5938	35.1562	82.5522
36.6211	81.3405	36.6211	81.3085	36.6211	81.3824	36.6211	81.287	36.6211	81.4336	36.6211	81.2766	36.6211	81.4931	36.6211	81.2777	36.6211	81.5599	36.6211	81.2906	36.6211	81.633	36.6211	81.3158	36.6211	81.7113	36.6211	81.3537	36.6211	81.7937	36.6211	81.4049	36.6211	81.8793	36.6211	81.47	36.6211	81.9672	36.6211	81.5496	36.6211	82.0564	36.6211	81.644	36.6211	82.1457	36.6211	81.7527	36.6211	82.2331	36.6211	81.8736	36.6211	82.3153	36.6211	82.0024	36.6211	82.387	36.6211	82.132	36.6211	82.4413	36.6211	82.253	36.6211	82.4702	36.6211	82.3548	36.6211	82.467	36.6211	82.4281
38.0859	81.4984	38.0859	81.4648	38.0859	81.5408	38.0859	81.4406	38.0859	81.591	38.0859	81.4264	38.0859	81.6481	38.0859	81.4224	38.0859	81.7109	38.0859	81.429	38.0859	81.7783	38.0859	81.4464	38.0859	81.8488	38.0859	81.475	38.0859	81.9214	38.0859	81.5151	38.0859	81.995	38.0859	81.5672	38.0859	82.0687	38.0859	81.6321	38.0859	82.1417	38.0859	81.7103	38.0859	82.2133	38.0859	81.8016	38.0859	82.2823	38.0859	81.905	38.0859	82.3463	38.0859	82.0171	38.0859	82.4012	38.0859	82.1323	38.0859	82.4411	38.0859	82.2421	38.0859	82.4591	38.0859	82.337	38.0859	82.4491	38.0859	82.4079
39.5508	81.7893	39.5508	81.7488	39.5508	81.8346	39.5508	81.714	39.5508	81.8838	39.5508	81.6853	39.5508	81.9354	39.5508	81.6633	39.5508	81.988	39.5508	81.648	39.5508	82.0401	39.5508	81.6396	39.5508	82.0904	39.5508	81.6385	39.5508	82.1376	39.5508	81.6452	39.5508	82.1809	39.5508	81.6605	39.5508	82.22	39.5508	81.686	39.5508	82.2548	39.5508	81.7233	39.5508	82.2858	39.5508	81.7741	39.5508	82.3132	39.5508	81.8395	39.5508	82.3363	39.5508	81.9187	39.5508	82.3529	39.5508	82.0082	39.5508	82.3587	39.5508	82.1013	39.5508	82.3485	39.5508	82.1895	39.5508	82.3175	39.5508	82.2637
41.0156	81.9427	41.0156	81.9064	41.0156	81.9817	41.0156	81.8733	41.0156	82.0225	41.0156	81.8436	41.0156	82.0643	41.0156	81.8176	41.0156	82.106	41.0156	81.7956	41.0156	82.1464	41.0156	81.7778	41.0156	82.1843	41.0156	81.7647	41.0156	82.2187	41.0156	81.7574	41.0156	82.2488	41.0156	81.7573	41.0156	82.2744	41.0156	81.7666	41.0156	82.2957	41.0156	81.788	41.0156	82.3135	41.0156	81.8241	41.0156	82.3288	41.0156	81.8768	41.0156	82.3419	41.0156	81.9456	41.0156	82.3515	41.0156	82.0271	41.0156	82.354	41.0156	82.114	41.0156	82.3439	41.0156	82.1967	41.0156	82.3156	41.0156	82.266
42.4805	82.2596	42.4805	82.2236	42.4805	82.2955	42.4805	82.1881	42.4805	82.3308	42.4805	82.1531	42.4805	82.3645	42.4805	82.119	42.4805	82.3956	42.4805	82.0857	42.4805	82.4226	42.4805	82.0537	42.4805	82.4442	42.4805	82.0235	42.4805	82.459	42.4805	81.9964	42.4805	82.4661	42.4805	81.9743	42.4805	82.4654	42.4805	81.9596	42.4805	82.4578	42.4805	81.9559	42.4805	82.4451	42.4805	81.9666	42.4805	82.4301	42.4805	81.9943	42.4805	82.4153	42.4805	82.0398	42.4805	82.4018	42.4805	82.1001	42.4805	82.3879	42.4805	82.1686	42.4805	82.369	42.4805	82.2365	42.4805	82.3394	42.4805	82.2951
43.9453	82.1678	43.9453	82.1283	43.9453	82.2064	43.9453	82.0885	43.9453	82.2434	43.9453	82.0488	43.9453	82.2776	43.9453	82.0092	43.9453	82.3075	43.9453	81.9699	43.9453	82.3315	43.9453	81.9309	43.9453	82.3478	43.9453	81.8927	43.9453	82.3549	43.9453	81.8565	43.9453	82.3517	43.9453	81.8239	43.9453	82.3382	43.9453	81.7976	43.9453	82.3155	43.9453	81.7813	43.9453	82.2862	43.9453	81.779	43.9453	82.254	43.9453	81.794	43.9453	82.2226	43.9453	81.8278	43.9453	82.1942	43.9453	81.8783	43.9453	82.1682	43.9453	81.9394	43.9453	82.1405	43.9453	82.0027	43.9453	82.1058	43.9453	82.0598
45.4102	82.316	45.4102	82.2741	45.4102	82.3543	45.4102	82.2292	45.4102	82.3881	45.4102	82.1814	45.4102	82.4164	45.4102	82.1306	45.4102	82.4374	45.4102	82.0769	45.4102	82.4494	45.4102	82.0203	45.4102	82.4504	45.4102	81.9614	45.4102	82.4389	45.4102	81.9012	45.4102	82.4139	45.4102	81.8419	45.4102	82.3754	45.4102	81.787	45.4102	82.3251	45.4102	81.7411	45.4102	82.2666	45.4102	81.7097	45.4102	82.2048	45.4102	81.6978	45.4102	82.1451	45.4102	81.7085	45.4102	82.0915	45.4102	81.7412	45.4102	82.0446	45.4102	81.7906	45.4102	82.0012	45.4102	81.8481	45.4102	81.9561	45.4102	81.905
46.875	82.4342	46.875	82.3927	46.875	82.4705	46.875	82.3463	46.875	82.5007	46.875	82.2952	46.875	82.5238	46.875	82.2393	46.875	82.5379	46.875	82.1783	46.875	82.5414	46.875	82.1122	46.875	82.5323	46.875	82.0413	46.875	82.5087	46.875	81.9668	46.875	82.4694	46.875	81.8909	46.875	82.4145	46.875	81.817	46.875	82.3456	46.875	81.7503	46.875	82.2662	46.875	81.6968	46.875	82.182	46.875	81.6628	46.875	82.0996	46.875	81.6526	46.875	82.0246	46.875	81.6667	46.875	81.9599	46.875	81.7012	46.875	81.9038	46.875	81.7483	46.875	81.8519	46.875	81.8001
48.3398	82.436	48.3398	82.3939	48.3398	82.4721	48.3398	82.3462	48.3398	82.5014	48.3398	82.2927	48.3398	82.5227	48.3398	82.2332	48.3398	82.5342	48.3398	82.167	48.3398	82.5337	48.3398	82.0937	48.3398	82.5189	48.3398	82.0134	48.3398	82.4875	48.3398	81.9265	48.3398	82.4377	48.3398	81.835	48.3398	82.3687	48.3398	81.7422	48.3398	82.2818	48.3398	81.6533	48.3398	82.1805	48.3398	81.5751	48.3398	82.071	48.3398	81.5152	48.3398	81.9613	48.3398	81.4799	48.3398	81.8594	48.3398	81.472	48.3398	81.7705	48.3398	81.4896	48.3398	81.6956	48.3398	81.5263	48.3398	81.6316	48.3398	81.5752
51.2695	83.1488	51.2695	83.088	51.2695	83.1868	51.2695	83.005	51.2695	83.2005	51.2695	82.9003	51.2695	83.188	51.2695	82.7735	51.2695	83.1467	51.2695	82.6243	51.2695	83.0737	51.2695	82.4526	51.2695	82.9658	51.2695	82.2587	51.2695	82.8205	51.2695	82.0442	51.2695	82.6363	51.2695	81.8128	51.2695	82.4145	51.2695	81.5712	51.2695	82.1604	51.2695	81.3302	51.2695	81.8851	51.2695	81.1045	51.2695	81.606	51.2695	80.9115	51.2695	81.345	51.2695	80.7669	51.2695	81.1232	51.2695	80.6795	51.2695	80.953	51.2695	80.6468	51.2695	80.8331	51.2695	80.6565	51.2695	80.7512	51.2695	80.6938
52.7344	82.9481	52.7344	82.8868	52.7344	82.9889	52.7344	82.8062	52.7344	83.0078	52.7344	82.7064	52.7344	83.0028	52.7344	82.5876	52.7344	82.9713	52.7344	82.4497	52.7344	82.9104	52.7344	82.2928	52.7344	82.8172	52.7344	82.1175	52.7344	82.6896	52.7344	81.9259	52.7344	82.5269	52.7344	81.7221	52.7344	82.3312	52.7344	81.5131	52.7344	82.1091	52.7344	81.3098	52.7344	81.8724	52.7344	81.1264	52.7344	81.6382	52.7344	80.9787	52.7344	81.4264	52.7344	80.8794	52.7344	81.2533	52.7344	80.8337	52.7344	81.1254	52.7344	80.835	52.7344	81.0364	52.7344	80.8682	52.7344	80.9714	52.7344	80.9166
54.1992	82.6894	54.1992	82.6356	54.1992	82.7254	54.1992	82.5646	54.1992	82.7424	54.1992	82.4766	54.1992	82.7384	54.1992	82.3713	54.1992	82.7112	54.1992	82.2482	54.1992	82.6581	54.1992	82.1068	54.1992	82.5768	54.1992	81.9474	54.1992	82.4653	54.1992	81.7711	54.1992	82.323	54.1992	81.5816	54.1992	82.152	54.1992	81.3851	54.1992	81.9577	54.1992	81.1919	54.1992	81.7501	54.1992	81.0161	54.1992	81.5434	54.1992	80.8734	54.1992	81.3537	54.1992	80.7776	54.1992	81.1944	54.1992	80.735	54.1992	81.0708	54.1992	80.7407	54.1992	80.9778	54.1992	80.7806	54.1992	80.9037	54.1992	80.8383
55.6641	82.9353	55.6641	82.8818	55.6641	82.9684	55.6641	82.8082	55.6641	82.9801	55.6641	82.7142	55.6641	82.9687	55.6641	82.5988	55.6641	82.9316	55.6641	82.4609	55.6641	82.8659	55.6641	82.2992	55.6641	82.7682	55.6641	82.1134	55.6641	82.6354	55.6641	81.9039	55.6641	82.4654	55.6641	81.6739	55.6641	82.2584	55.6641	81.4296	55.6641	82.0184	55.6641	81.182	55.6641	81.7547	55.6641	80.9469	55.6641	81.483	55.6641	80.7434	55.6641	81.2235	55.6641	80.5896	55.6641	80.9969	55.6641	80.4963	55.6641	80.8165	55.6641	80.4622	55.6641	80.6835	55.6641	80.4752	55.6641	80.5884	55.6641	80.5201
58.5938	83.1843	58.5938	83.1247	58.5938	83.2186	58.5938	83.0401	58.5938	83.2264	58.5938	82.9299	58.5938	83.2058	58.5938	82.7929	58.5938	83.1537	58.5938	82.6278	58.5938	83.0667	58.5938	82.433	58.5938	82.941	58.5938	82.2075	58.5938	82.7727	58.5938	81.9521	58.5938	82.5594	58.5938	81.67	58.5938	82.3015	58.5938	81.3689	58.5938	82.0038	58.5938	81.0624	58.5938	81.6782	58.5938	80.7704	58.5938	81.3446	58.5938	80.5178	58.5938	81.0296	58.5938	80.328	58.5938	80.7598	58.5938	80.2142	58.5938	80.5522	58.5938	80.1733	58.5938	80.4061	58.5938	80.1874	58.5938	80.3063	58.5938	80.2354
60.0586	83.2488	60.0586	83.1859	60.0586	83.2847	60.0586	83.096	60.0586	83.2922	60.0586	82.9786	60.0586	83.2693	60.0586	82.8324	60.0586	83.2129	60.0586	82.6556	60.0586	83.1193	60.0586	82.4466	60.0586	82.9842	60.0586	82.2043	60.0586	82.8037	60.0586	81.9292	60.0586	82.575	60.0586	81.6251	60.0586	82.2983	60.0586	81.3002	60.0586	81.9787	60.0586	80.9695	60.0586	81.629	60.0586	80.6553	60.0586	81.271	60.0586	80.3854	60.0586	80.9339	60.0586	80.1854	60.0586	80.6474	60.0586	80.0695	60.0586	80.4298	60.0586	80.0323	60.0586	80.2796	60.0586	80.0523	60.0586	80.1782	60.0586	80.105
62.9883	83.3314	62.9883	83.2599	62.9883	83.3737	62.9883	83.1593	62.9883	83.3855	62.9883	83.029	62.9883	83.3647	62.9883	82.8676	62.9883	83.3079	62.9883	82.6733	62.9883	83.2112	62.9883	82.4445	62.9883	83.07	62.9883	82.1803	62.9883	82.8801	62.9883	81.8819	62.9883	82.6384	62.9883	81.554	62.9883	82.3451	62.9883	81.2071	62.9883	82.0058	62.9883	80.8591	62.9883	81.6347	62.9883	80.5362	62.9883	81.2565	62.9883	80.2692	62.9883	80.9045	62.9883	80.0851	62.9883	80.6118	62.9883	79.9945	62.9883	80.3976	62.9883	79.9851	62.9883	80.2567	62.9883	80.0273	62.9883	80.1638	62.9883	80.0911
64.4531	83.3413	64.4531	83.2635	64.4531	83.3888	64.4531	83.1557	64.4531	83.4046	64.4531	83.0172	64.4531	83.3863	64.4531	82.8464	64.4531	83.3304	64.4531	82.6416	64.4531	83.2325	64.4531	82.4006	64.4531	83.0875	64.4531	82.1222	64.4531	82.8904	64.4531	81.8068	64.4531	82.6371	64.4531	81.4583	64.4531	82.3265	64.4531	81.086	64.4531	81.9626	64.4531	80.7066	64.4531	81.558	64.4531	80.3459	64.4531	81.1364	64.4531	80.0356	64.4531	80.7317	64.4531	79.8059	64.4531	80.3811	64.4531	79.6729	64.4531	80.1108	64.4531	79.6301	64.4531	79.9234	64.4531	79.6523	64.4531	79.799	64.4531	79.7124
67.3828	83.4572	67.3828	83.3684	67.3828	83.5106	67.3828	83.2444	67.3828	83.5269	67.3828	83.0846	67.3828	83.5032	67.3828	82.8872	67.3828	83.4356	67.3828	82.65	67.3828	83.3186	67.3828	82.3708	67.3828	83.1462	67.3828	82.048	67.3828	82.9118	67.3828	81.6819	67.3828	82.6102	67.3828	81.2767	67.3828	82.2387	67.3828	80.8433	67.3828	81.8014	67.3828	80.4018	67.3828	81.3127	67.3828	79.9833	67.3828	80.8027	67.3828	79.627	67.3828	80.3167	67.3828	79.369	67.3828	79.9067	67.3828	79.2257	67.3828	79.6093	67.3828	79.1834	67.3828	79.4253	67.3828	79.2054	67.3828	79.3214	67.3828	79.2553
68.8477	83.5175	68.8477	83.4319	68.8477	83.567	68.8477	83.3105	68.8477	83.5788	68.8477	83.1528	68.8477	83.5499	68.8477	82.9571	68.8477	83.4762	68.8477	82.7215	68.8477	83.3524	68.8477	82.4437	68.8477	83.1727	68.8477	82.1226	68.8477	82.9309	68.8477	81.7591	68.8477	82.622	68.8477	81.3581	68.8477	82.2445	68.8477	80.9316	68.8477	81.8034	68.8477	80.5013	68.8477	81.3153	68.8477	80.0994	68.8477	80.8126	68.8477	79.7652	68.8477	80.3436	68.8477	79.5324	68.8477	79.9614	68.8477	79.4124	68.8477	79.7005	68.8477	79.3853	68.8477	79.5562	68.8477	79.4096	68.8477	79.4879	68.8477	79.4474
71.7773	83.718	71.7773	83.6432	71.7773	83.7573	71.7773	83.5332	71.7773	83.7594	71.7773	83.387	71.7773	83.7215	71.7773	83.2027	71.7773	83.6395	71.7773	82.9778	71.7773	83.5078	71.7773	82.7095	71.7773	83.3202	71.7773	82.3956	71.7773	83.0704	71.7773	82.0358	71.7773	82.7528	71.7773	81.6336	71.7773	82.365	71.7773	81.1988	71.7773	81.9112	71.7773	80.7508	71.7773	81.4066	71.7773	80.3202	71.7773	80.8825	71.7773	79.9461	71.7773	80.3873	71.7773	79.6652	71.7773	79.9767	71.7773	79.4951	71.7773	79.6903	71.7773	79.4226	71.7773	79.5293	71.7773	79.4115	71.7773	79.4569	71.7773	79.4261
74.707	83.8241	74.707	83.7536	74.707	83.8592	74.707	83.648	74.707	83.8574	74.707	83.5061	74.707	83.8156	74.707	83.3256	74.707	83.7294	74.707	83.1033	74.707	83.5929	74.707	82.8358	74.707	83.3995	74.707	82.5197	74.707	83.1419	74.707	82.1534	74.707	82.8137	74.707	81.7385	74.707	82.4111	74.707	81.2827	74.707	81.9363	74.707	80.8031	74.707	81.4023	74.707	80.3287	74.707	80.8387	74.707	79.8994	74.707	80.2938	74.707	79.5563	74.707	79.8271	74.707	79.3251	74.707	79.4867	74.707	79.2015	74.707	79.2836	74.707	79.1552	74.707	79.1876	74.707	79.1534
77.6367	83.958	77.6367	83.888	77.6367	83.9921	77.6367	83.7823	77.6367	83.9886	77.6367	83.6394	77.6367	83.9444	77.6367	83.4565	77.6367	83.8545	77.6367	83.2298	77.6367	83.7127	77.6367	82.9549	77.6367	83.5115	77.6367	82.6272	77.6367	83.2429	77.6367	82.2436	77.6367	82.8991	77.6367	81.8038	77.6367	82.4748	77.6367	81.3137	77.6367	81.9703	77.6367	80.7886	77.6367	81.3963	77.6367	80.2577	77.6367	80.7808	77.6367	79.7635	77.6367	80.1732	77.6367	79.354	77.6367	79.6383	77.6367	79.0643	77.6367	79.2346	77.6367	78.8973	77.6367	78.9833	77.6367	78.8256	77.6367	78.859	77.6367	78.8157
79.1016	83.9771	79.1016	83.9074	79.1016	84.0099	79.1016	83.8007	79.1016	84.0042	79.1016	83.6554	79.1016	83.9567	79.1016	83.4682	79.1016	83.8622	79.1016	83.2349	79.1016	83.7142	79.1016	82.9501	79.1016	83.5046	79.1016	82.6087	79.1016	83.2247	79.1016	82.2063	79.1016	82.8656	79.1016	81.7413	79.1016	82.4205	79.1016	81.2181	79.1016	81.8875	79.1016	80.6509	79.1016	81.2753	79.1016	80.0683	79.1016	80.6097	79.1016	79.515	79.1016	79.9406	79.1016	79.0444	79.1016	79.3379	79.1016	78.6993	79.1016	78.8703	79.1016	78.4895	79.1016	78.5708	79.1016	78.3907	79.1016	78.4195	79.1016	78.3698
82.0312	83.9594	82.0312	83.8902	82.0312	83.9905	82.0312	83.7825	82.0312	83.9816	82.0312	83.6346	82.0312	83.9293	82.0312	83.4428	82.0312	83.8281	82.0312	83.2022	82.0312	83.6709	82.0312	82.9068	82.0312	83.4488	82.0312	82.5502	82.0312	83.1518	82.0312	82.1263	82.0312	82.7693	82.0312	81.6312	82.0312	82.2916	82.0312	81.0659	82.0312	81.7128	82.0312	80.4402	82.0312	81.036	82.0312	79.7779	82.0312	80.2809	82.0312	79.1209	82.0312	79.4931	82.0312	78.5251	82.0312	78.7476	82.0312	78.0453	82.0312	78.1334	82.0312	77.7106	82.0312	77.7149	82.0312	77.5162	82.0312	77.4981	82.0312	77.4441
84.9609	83.764	84.9609	83.6976	84.9609	83.7886	84.9609	83.5892	84.9609	83.7693	84.9609	83.437	84.9609	83.7026	84.9609	83.2371	84.9609	83.5825	84.9609	82.9844	84.9609	83.4013	84.9609	82.6722	84.9609	83.1495	84.9609	82.293	84.9609	82.8156	84.9609	81.8389	84.9609	82.3872	84.9609	81.303	84.9609	81.8518	84.9609	80.6819	84.9609	81.1993	84.9609	79.9786	84.9609	80.4269	84.9609	79.2088	84.9609	79.5472	84.9609	78.4065	84.9609	78.6004	84.9609	77.6272	84.9609	77.6646	84.9609	76.9394	84.9609	76.851	84.9609	76.4035	84.9609	76.2647	84.9609	76.0517	84.9609	75.9526	84.9609	75.8947
87.8906	83.4151	87.8906	83.3406	87.8906	83.4425	87.8906	83.2188	87.8906	83.4206	87.8906	83.0478	87.8906	83.3454	87.8906	82.8235	87.8906	83.2104	87.8906	82.5402	87.8906	83.0071	87.8906	82.19	87.8906	82.7242	87.8906	81.7636	87.8906	82.3484	87.8906	81.2502	87.8906	81.8638	87.8906	80.6384	87.8906	81.2531	87.8906	79.9174	87.8906	80.4994	87.8906	79.0803	87.8906	79.5897	87.8906	78.1295	87.8906	78.524	87.8906	77.0866	87.8906	77.3289	87.8906	76.0043	87.8906	76.0786	87.8906	74.9746	87.8906	74.9078	87.8906	74.1162	87.8906	73.9855	87.8906	73.5358	87.8906	73.4382	87.8906	73.2972
90.8203	83.3431	90.8203	83.2622	90.8203	83.3739	90.8203	83.1309	90.8203	83.3527	90.8203	82.9464	90.8203	83.275	90.8203	82.7037	90.8203	83.1338	90.8203	82.3954	90.8203	82.9195	90.8203	82.0118	90.8203	82.6193	90.8203	81.5407	90.8203	82.2175	90.8203	80.9674	90.8203	81.695	90.8203	80.2753	90.8203	81.0299	90.8203	79.4463	90.8203	80.1986	90.8203	78.4641	90.8203	79.1788	90.8203	77.3205	90.8203	77.9577	90.8203	76.0285	90.8203	76.5481	90.8203	74.6453	90.8203	75.0169	90.8203	73.2989	90.8203	73.5179	90.8203	72.1817	90.8203	72.2812	90.8203	71.4706	90.8203	71.5029	90.8203	71.2395
95.2148	83.1943	95.2148	83.1073	95.2148	83.2261	95.2148	82.9644	95.2148	83.201	95.2148	82.7621	95.2148	83.114	95.2148	82.494	95.2148	82.9575	95.2148	82.1512	95.2148	82.7206	95.2148	81.7214	95.2148	82.3888	95.2148	81.1891	95.2148	81.9437	95.2148	80.5351	95.2148	81.3623	95.2148	79.7359	95.2148	80.6167	95.2148	78.7639	95.2148	79.6739	95.2148	77.5886	95.2148	78.4968	95.2148	76.1811	95.2148	77.0488	95.2148	74.5288	95.2148	75.308	95.2148	72.6683	95.2148	73.3024	95.2148	70.7502	95.2148	71.1845	95.2148	69.0881	95.2148	69.3077	95.2148	68.0295	95.2148	68.0979	95.2148	67.6975
98.1445	83.0648	98.1445	82.9779	98.1445	83.093	98.1445	82.8313	98.1445	83.0606	98.1445	82.6211	98.1445	82.9626	98.1445	82.3406	98.1445	82.7908	98.1445	81.9795	98.1445	82.5334	98.1445	81.5246	98.1445	82.175	98.1445	80.9584	98.1445	81.6952	98.1445	80.2589	98.1445	81.0686	98.1445	79.3984	98.1445	80.2632	98.1445	78.3427	98.1445	79.2392	98.1445	77.0506	98.1445	77.9486	98.1445	75.4761	98.1445	76.3364	98.1445	73.5791	98.1445	74.3496	98.1445	71.3618	98.1445	71.9726	98.1445	68.9643	98.1445	69.3313	98.1445	66.8069	98.1445	66.8955	98.1445	65.4457	98.1445	65.393	98.1445	64.9985
101.074	82.8856	101.074	82.7975	101.074	82.9117	101.074	82.6461	101.074	82.8737	101.074	82.4274	101.074	82.7664	101.074	82.134	101.074	82.5812	101.074	81.7552	101.074	82.3058	101.074	81.2764	101.074	81.9234	101.074	80.6786	101.074	81.4124	101.074	79.937	101.074	80.7446	101.074	79.0198	101.074	79.8838	101.074	77.8858	101.074	78.7836	101.074	76.4816	101.074	77.3841	101.074	74.7399	101.074	75.6094	101.074	72.5829	101.074	73.3683	101.074	69.9511	101.074	70.5778	101.074	66.9324	101.074	67.2865	101.074	64.1112	101.074	64.1036	101.074	62.5187	101.074	62.3594	101.074	62.0983
105.469	82.7613	105.469	82.6643	105.469	82.7929	105.469	82.5006	105.469	82.7571	105.469	82.2658	105.469	82.648	105.469	81.9517	105.469	82.4564	105.469	81.5463	105.469	82.1687	105.469	81.0333	105.469	81.7664	105.469	80.3909	105.469	81.2252	105.469	79.59	105.469	80.5131	105.469	78.5919	105.469	79.588	105.469	77.3441	105.469	78.3936	105.469	75.7729	105.469	76.8526	105.469	73.7721	105.469	74.8545	105.469	71.1843	105.469	72.2352	105.469	67.7799	105.469	68.742	105.469	63.3547	105.469	64.0538	105.469	58.9861	105.469	58.8618	105.469	58.3341	105.469	57.883	105.469	58.8154
108.398	82.6653	108.398	82.5739	108.398	82.6911	108.398	82.4153	108.398	82.6492	108.398	82.1846	108.398	82.5338	108.398	81.8732	108.398	82.3353	108.398	81.4682	108.398	82.0396	108.398	80.9524	108.398	81.6275	108.398	80.3024	108.398	81.0735	108.398	79.4872	108.398	80.3441	108.398	78.4652	108.398	79.3946	108.398	77.1787	108.398	78.1643	108.398	75.5449	108.398	76.5678	108.398	73.4389	108.398	74.4788	108.398	70.6594	108.398	71.6955	108.398	66.8578	108.398	67.8618	108.398	61.4829	108.398	62.3205	108.398	55.9942	108.398	55.6478	108.398	57.4098	108.398	56.9256	108.398	58.645
112.793	82.5874	112.793	82.4934	112.793	82.6137	112.793	82.3299	112.793	82.5705	112.793	82.0914	112.793	82.4518	112.793	81.7682	112.793	82.2476	112.793	81.3463	112.793	81.943	112.793	80.8065	112.793	81.518	112.793	80.123	112.793	80.9453	112.793	79.2612	112.793	80.189	112.793	78.1736	112.793	79.2006	112.793	76.7927	112.793	77.9128	112.793	75.0173	112.793	76.2275	112.793	72.6838	112.793	73.9916	112.793	69.4959	112.793	70.9376	112.793	64.8151	112.793	66.5091	112.793	57.0328	112.793	59.2259	112.793	54.3176	112.793	52.7823	112.793	59.6627	112.793	59.1117	112.793	60.9979
117.188	82.4053	117.188	82.2979	117.188	82.4431	117.188	82.1188	117.188	82.4089	117.188	81.8624	117.188	82.2965	117.188	81.5186	117.188	82.0953	117.188	81.0725	117.188	81.7899	117.188	80.5038	117.188	81.3594	117.188	79.7852	117.188	80.7757	117.188	78.8797	117.188	80.002	117.188	77.7364	117.188	78.9878	117.188	76.2812	117.188	77.663	117.188	74.401	117.188	75.9235	117.188	71.9045	117.188	73.6018	117.188	68.4194	117.188	70.3891	117.188	63.0107	117.188	65.5673	117.188	51.8413	117.188	56.3425	117.188	55.1262	117.188	50.3164	117.188	60.6156	117.188	59.7201	117.188	61.7286
120.117	82.3732	120.117	82.273	120.117	82.4016	120.117	82.0998	120.117	82.3558	120.117	81.848	120.117	82.229	120.117	81.5082	120.117	82.0101	120.117	81.0663	120.117	81.6833	120.117	80.5027	120.117	81.227	120.117	79.7911	120.117	80.6122	120.117	78.8961	120.117	79.8005	120.117	77.7683	120.117	78.7394	120.117	76.3365	120.117	77.3545	120.117	74.4911	120.117	75.5345	120.117	72.047	120.117	73.0965	120.117	68.6419	120.117	69.6957	120.117	63.3538	120.117	64.5084	120.117	51.5454	120.117	54.5411	120.117	53.9182	120.117	54.9233	120.117	60.5825	120.117	60.8205	120.117	62.1466
124.512	82.4365	124.512	82.3386	124.512	82.4627	124.512	82.1674	124.512	82.4146	124.512	81.917	124.512	82.2854	124.512	81.5769	124.512	82.0633	124.512	81.132	124.512	81.7314	124.512	80.5611	124.512	81.2666	124.512	79.8358	124.512	80.6374	124.512	78.9169	124.512	79.8017	124.512	77.7493	124.512	78.7009	124.512	76.2515	124.512	77.2498	124.512	74.2929	124.512	75.3158	124.512	71.6411	124.512	72.6685	124.512	67.801	124.512	68.8302	124.512	61.2998	124.512	62.4437	124.512	47.4096	124.512	49.8511	124.512	59.868	124.512	60.1635	124.512	64.0143	124.512	64.1756	124.512	65.1619
128.906	82.455	128.906	82.352	128.906	82.4849	128.906	82.1743	128.906	82.4392	128.906	81.9155	128.906	82.3106	128.906	81.5649	128.906	82.0868	128.906	81.1061	128.906	81.7502	128.906	80.517	128.906	81.2768	128.906	79.7672	128.906	80.634	128.906	78.8152	128.906	79.7778	128.906	77.6019	128.906	78.6471	128.906	76.0386	128.906	77.152	128.906	73.9812	128.906	75.1509	128.906	71.1664	128.906	72.3938	128.906	67.0162	128.906	68.3566	128.906	59.8531	128.906	61.6426	128.906	54.7067	128.906	55.4375	128.906	62.4074	128.906	62.5258	128.906	65.6118	128.906	65.701	128.906	66.5484
133.301	82.4581	133.301	82.3572	133.301	82.4853	133.301	82.1805	133.301	82.436	133.301	81.9217	133.301	82.3027	133.301	81.5693	133.301	82.0727	133.301	81.1065	133.301	81.7279	133.301	80.5104	133.301	81.2429	133.301	79.7494	133.301	80.5841	133.301	78.7802	133.301	79.7054	133.301	77.5408	133.301	78.5421	133.301	75.937	133.301	76.9978	133.301	73.8121	133.301	74.9171	133.301	70.8697	133.301	72.0124	133.301	66.4113	133.301	67.6259	133.301	57.9265	133.301	59.4715	133.301	54.9161	133.301	54.388	133.301	63.2317	133.301	63.3092	133.301	66.3	133.301	66.3885	133.301	67.1986
139.16	82.3544	139.16	82.2493	139.16	82.389	139.16	82.0714	139.16	82.3505	139.16	81.8136	139.16	82.2315	139.16	81.4638	139.16	82.0195	139.16	81.0044	139.16	81.6962	139.16	80.4117	139.16	81.2371	139.16	79.6534	139.16	80.6091	139.16	78.6858	139.16	79.7682	139.16	77.4468	139.16	78.6535	139.16	75.8432	139.16	77.1762	139.16	73.7213	139.16	75.197	139.16	70.7939	139.16	72.4681	139.16	66.3983	139.16	68.4601	139.16	58.2903	139.16	61.607	139.16	54.3479	139.16	52.4887	139.16	62.6232	139.16	61.8679	139.16	65.6667	139.16	65.4428	139.16	66.4634
143.555	82.2615	143.555	82.157	143.555	82.2977	143.555	81.982	143.555	82.263	143.555	81.7292	143.555	82.1497	143.555	81.3862	143.555	81.945	143.555	80.9354	143.555	81.6304	143.555	80.3526	143.555	81.181	143.555	79.606	143.555	80.5643	143.555	78.6524	143.555	79.7369	143.555	77.4317	143.555	78.6402	143.555	75.8546	143.555	77.1898	143.555	73.7769	143.555	75.2561	143.555	70.9362	143.555	72.6168	143.555	66.7583	143.555	68.8271	143.555	59.5893	143.555	62.8037	143.555	54.3674	143.555	55.4606	143.555	61.9499	143.555	61.4098	143.555	65.0762	143.555	64.8893	143.555	65.9058
147.949	82.1972	147.949	82.0876	147.949	82.2361	147.949	81.9054	147.949	82.2014	147.949	81.6438	147.949	82.0851	147.949	81.2909	147.949	81.8739	147.949	80.8295	147.949	81.5493	147.949	80.2362	147.949	81.0865	147.949	79.4799	147.949	80.453	147.949	78.5194	147.949	79.6062	147.949	77.2969	147.949	78.4885	147.949	75.7277	147.949	77.0185	147.949	73.677	147.949	75.0745	147.949	70.9057	147.949	72.4599	147.949	66.9247	147.949	68.8392	147.949	60.6564	147.949	63.8249	147.949	56.491	147.949	60.2987	147.949	62.1118	147.949	63.1124	147.949	65.1317	147.949	65.4612	147.949	66.1035
153.809	82.4443	153.809	82.3373	153.809	82.4825	153.809	82.1593	153.809	82.4486	153.809	81.9035	153.809	82.334	153.809	81.5574	153.809	82.1248	153.809	81.1033	153.809	81.8013	153.809	80.5175	153.809	81.3372	153.809	79.7684	153.809	80.6977	153.809	78.8137	153.809	79.8372	153.809	77.5945	153.809	78.693	153.809	76.0234	153.809	77.1745	153.809	73.9597	153.809	75.1409	153.809	71.1509	153.809	72.3494	153.809	67.0749	153.809	68.3299	153.809	60.6656	153.809	62.3058	153.809	58.015	153.809	59.528	153.809	63.4862	153.809	64.0784	153.809	66.3301	153.809	66.5946	153.809	67.2518
159.668	82.3091	159.668	82.2251	159.668	82.331	159.668	82.0763	159.668	82.2884	159.668	81.8546	159.668	82.173	159.668	81.5465	159.668	81.971	159.668	81.1336	159.668	81.6627	159.668	80.5916	159.668	81.2218	159.668	79.8897	159.668	80.6149	159.668	78.9874	159.668	79.7989	159.668	77.8306	159.668	78.7169	159.668	76.3422	159.668	77.2914	159.668	74.4051	159.668	75.41	159.668	71.8284	159.668	72.9011	159.668	68.2874	159.668	69.5086	159.668	63.4515	159.668	65.1109	159.668	60.3322	159.668	62.1765	159.668	63.2553	159.668	64.0479	159.668	65.738	159.668	66.0344	159.668	66.6127
165.527	82.2129	165.527	82.1282	165.527	82.2302	165.527	81.9737	165.527	82.1767	165.527	81.7413	165.527	82.0433	165.527	81.4172	165.527	81.8148	165.527	80.9818	165.527	81.4703	165.527	80.4094	165.527	80.9821	165.527	79.6668	165.527	80.3149	165.527	78.7108	165.527	79.4234	165.527	77.4829	165.527	78.2479	165.527	75.8995	165.527	76.707	165.527	73.8327	165.527	74.6847	165.527	71.0742	165.527	72.0151	165.527	67.2989	165.527	68.5238	165.527	62.6051	165.527	64.696	165.527	61.6517	165.527	63.7864	165.527	64.7984	165.527	65.8096	165.527	66.9498	165.527	67.3534	165.527	67.7497
171.387	82.1424	171.387	82.0612	171.387	82.1519	171.387	81.9066	171.387	82.0855	171.387	81.6709	171.387	81.933	171.387	81.3408	171.387	81.6779	171.387	80.897	171.387	81.2976	171.387	80.3141	171.387	80.7626	171.387	79.5594	171.387	80.0348	171.387	78.5899	171.387	79.0652	171.387	77.3475	171.387	77.7874	171.387	75.7484	171.387	76.1075	171.387	73.6618	171.387	73.8826	171.387	70.8685	171.387	70.8863	171.387	66.9965	171.387	66.8296	171.387	61.9756	171.387	62.5643	171.387	61.0129	171.387	63.1696	171.387	64.5835	171.387	65.955	171.387	66.9266	171.387	67.5412	171.387	67.8493
177.246	82.0029	177.246	81.9275	177.246	82.0106	177.246	81.7817	177.246	81.9469	177.246	81.5569	177.246	81.8017	177.246	81.2383	177.246	81.5587	177.246	80.8052	177.246	81.1948	177.246	80.2308	177.246	80.68	177.246	79.481	177.246	79.9758	177.246	78.5113	177.246	79.0328	177.246	77.2621	177.246	77.7843	177.246	75.6468	177.246	76.1358	177.246	73.5299	177.246	73.9412	177.246	70.6776	177.246	70.9546	177.246	66.6639	177.246	66.7631	177.246	61.1952	177.246	61.5236	177.246	60.1272	177.246	61.531	177.246	64.0856	177.246	64.9655	177.246	66.4844	177.246	66.8802	177.246	67.3442
183.105	82.1776	183.105	82.1074	183.105	82.1806	183.105	81.9674	183.105	82.1129	183.105	81.7492	183.105	81.9644	183.105	81.4382	183.105	81.7186	183.105	81.0145	183.105	81.3526	183.105	80.4524	183.105	80.8363	183.105	79.7195	183.105	80.1318	183.105	78.7751	183.105	79.1898	183.105	77.5647	183.105	77.9452	183.105	76.0124	183.105	76.3059	183.105	74.0021	183.105	74.132	183.105	71.3436	183.105	71.1922	183.105	67.7128	183.105	67.1077	183.105	62.8375	183.105	61.9559	183.105	60.1724	183.105	61.293	183.105	63.2767	183.105	64.5148	183.105	65.7766	183.105	66.3764	183.105	66.7596
188.965	82.409	188.965	82.3325	188.965	82.4199	188.965	82.1877	188.965	82.3616	188.965	81.9658	188.965	82.2237	188.965	81.6516	188.965	81.9893	188.965	81.2249	188.965	81.6354	188.965	80.6594	188.965	81.1316	188.965	79.9227	188.965	80.4401	188.965	78.9743	188.965	79.5126	188.965	77.7611	188.965	78.2857	188.965	76.2097	188.965	76.671	188.965	74.2105	188.965	74.5358	188.965	71.5883	188.965	71.6639	188.965	68.0679	188.965	67.7016	188.965	63.5365	188.965	62.6083	188.965	61.0766	188.965	61.2415	188.965	63.6184	188.965	64.3497	188.965	65.8917	188.965	66.3008	188.965	66.77
196.289	82.3503	196.289	82.2841	196.289	82.3527	196.289	82.151	196.289	82.2877	196.289	81.941	196.289	82.1447	196.289	81.6381	196.289	81.9063	196.289	81.2207	196.289	81.5483	196.289	80.6613	196.289	81.0396	196.289	79.9263	196.289	80.3414	196.289	78.9741	196.289	79.4047	196.289	77.7513	196.289	78.1655	196.289	76.1846	196.289	76.5345	196.289	74.1676	196.289	74.3761	196.289	71.54	196.289	71.4645	196.289	68.0991	196.289	67.4118	196.289	64.0889	196.289	62.1185	196.289	62.6113	196.289	61.0597	196.289	64.7418	196.289	64.5115	196.289	66.5813	196.289	66.6033	196.289	67.2228
203.613	82.1455	203.613	82.0743	203.613	82.1607	203.613	81.9433	203.613	82.1162	203.613	81.7415	203.613	82.0012	203.613	81.4513	203.613	81.7977	203.613	81.0486	203.613	81.4813	203.613	80.5032	203.613	81.0211	203.613	79.7783	203.613	80.3796	203.613	78.8284	203.613	79.511	203.613	77.5958	203.613	78.3582	203.613	76.0022	203.613	76.8465	203.613	73.9346	203.613	74.8705	203.613	71.2218	203.613	72.2735	203.613	67.6397	203.613	68.8371	203.613	63.4335	203.613	64.5827	203.613	62.0075	203.613	62.1037	203.613	64.2373	203.613	63.9124	203.613	66.0072	203.613	65.831	203.613	66.5363
210.938	82.1484	210.938	82.082	210.938	82.1541	210.938	81.953	210.938	82.0932	210.938	81.7526	210.938	81.9526	210.938	81.4646	210.938	81.7122	210.938	81.0664	210.938	81.3454	210.938	80.5296	210.938	80.8192	210.938	79.8194	210.938	80.0934	210.938	78.8942	210.938	79.1189	210.938	77.7021	210.938	77.8344	210.938	76.1756	210.938	76.1599	210.938	74.22	210.938	73.9862	210.938	71.6959	210.938	71.1655	210.938	68.4105	210.938	67.5745	210.938	64.3486	210.938	63.8018	210.938	61.5293	210.938	62.809	210.938	62.9022	210.938	64.4484	210.938	64.9204	210.938	65.6979	210.938	65.8759
218.262	82.3002	218.262	82.2253	218.262	82.3156	218.262	82.0889	218.262	82.266	218.262	81.8817	218.262	82.1383	218.262	81.5877	218.262	81.912	218.262	81.185	218.262	81.56	218.262	80.6466	218.262	81.0483	218.262	79.9405	218.262	80.3358	218.262	79.0298	218.262	79.3725	218.262	77.8713	218.262	78.0972	218.262	76.4138	218.262	76.4314	218.262	74.596	218.262	74.2725	218.262	72.3536	218.262	71.4947	218.262	69.6764	218.262	68.0517	218.262	66.8762	218.262	64.7077	218.262	65.1468	218.262	64.0097	218.262	65.4003	218.262	65.454	218.262	66.3675	218.262	66.6021	218.262	66.8876
225.586	82.478	225.586	82.3904	225.586	82.5131	225.586	82.2466	225.586	82.491	225.586	82.0349	225.586	82.3988	225.586	81.7366	225.586	82.2153	225.586	81.3269	225.586	81.912	225.586	80.7764	225.586	81.4533	225.586	80.0509	225.586	80.7962	225.586	79.1123	225.586	79.8885	225.586	77.9175	225.586	78.6653	225.586	76.42	225.586	77.0405	225.586	74.5771	225.586	74.8923	225.586	72.3889	225.586	72.0451	225.586	70.0427	225.586	68.3342	225.586	68.228	225.586	64.5792	225.586	67.8447	225.586	64.5772	225.586	68.5282	225.586	66.9588	225.586	69.2151	225.586	68.638	225.586	69.3338
232.91	82.4304	232.91	82.3153	232.91	82.4903	232.91	82.1405	232.91	82.4907	232.91	81.8927	232.91	82.4187	232.91	81.5507	232.91	82.2534	232.91	81.0864	232.91	81.9668	232.91	80.4658	232.91	81.5242	232.91	79.6489	232.91	80.8838	232.91	78.5894	232.91	79.9958	232.91	77.2321	232.91	78.7992	232.91	75.5093	232.91	77.2159	232.91	73.3391	232.91	75.1394	232.91	70.6504	232.91	72.42	232.91	67.5716	232.91	68.8921	232.91	65.1739	232.91	64.9008	232.91	65.1978	232.91	63.437	232.91	66.5542	232.91	65.3258	232.91	67.5709	232.91	67.0466	232.91	67.777
241.699	82.5168	241.699	82.4141	241.699	82.5671	241.699	82.2551	241.699	82.5601	241.699	82.0261	241.699	82.482	241.699	81.7054	241.699	82.3109	241.699	81.2635	241.699	82.0182	241.699	80.665	241.699	81.5689	241.699	79.8687	241.699	80.9218	241.699	78.8281	241.699	80.0288	241.699	77.4905	241.699	78.8326	241.699	75.7956	241.699	77.2618	241.699	73.6819	241.699	75.2218	241.699	71.1292	241.699	72.5841	241.699	68.359	241.699	69.2126	241.699	66.3406	241.699	65.3765	241.699	66.2045	241.699	63.5115	241.699	67.098	241.699	65.0373	241.699	67.7552	241.699	66.8027	241.699	67.7086
250.488	82.5188	250.488	82.4165	250.488	82.5669	250.488	82.258	250.488	82.5542	250.488	82.0324	250.488	82.466	250.488	81.7202	250.488	82.2805	250.488	81.2936	250.488	81.9695	250.488	80.718	250.488	81.4998	250.488	79.9528	250.488	80.834	250.488	78.9516	250.488	79.9328	250.488	77.6633	250.488	78.7576	250.488	76.0331	250.488	77.2758	250.488	74.0097	250.488	75.4748	250.488	71.5793	250.488	73.3947	250.488	68.9006	250.488	71.205	250.488	66.6497	250.488	69.3018	250.488	65.8893	250.488	68.1671	250.488	66.4316	250.488	67.8294	250.488	67.1966	250.488	67.812	250.488	67.6703
259.277	83.1512	259.277	83.0056	259.277	83.2339	259.277	82.7935	259.277	83.2478	259.277	82.5019	259.277	83.1775	259.277	82.1088	259.277	82.999	259.277	81.5851	259.277	82.6802	259.277	80.8956	259.277	82.1819	259.277	79.9998	259.277	81.4572	259.277	78.8525	259.277	80.4509	259.277	77.4043	259.277	79.0978	259.277	75.6051	259.277	77.3212	259.277	73.4211	259.277	75.0405	259.277	70.9101	259.277	72.2309	259.277	68.4726	259.277	69.229	259.277	67.1384	259.277	67.4146	259.277	67.4652	259.277	67.7876	259.277	68.5032	259.277	68.8932	259.277	69.3792	259.277	69.6317	259.277	69.7869
268.066	83.8148	268.066	83.7317	268.066	83.852	268.066	83.5979	268.066	83.8369	268.066	83.3978	268.066	83.7535	268.066	83.1058	268.066	83.5771	268.066	82.6873	268.066	83.2758	268.066	82.1011	268.066	82.8105	268.066	81.2998	268.066	82.1352	268.066	80.2303	268.066	81.1953	268.066	78.8316	268.066	79.9245	268.066	77.0333	268.066	78.2408	268.066	74.7597	268.066	76.0436	268.066	71.9825	268.066	73.2434	268.066	69.0179	268.066	69.9969	268.066	67.2873	268.066	67.6476	268.066	67.9347	268.066	68.017	268.066	69.3999	268.066	69.5077	268.066	70.4687	268.066	70.5524	268.066	70.8697
276.855	83.2196	276.855	83.1104	276.855	83.2917	276.855	82.9618	276.855	83.3179	276.855	82.7603	276.855	83.2793	276.855	82.4823	276.855	83.1479	276.855	82.0949	276.855	82.888	276.855	81.5576	276.855	82.4577	276.855	80.8234	276.855	81.8095	276.855	79.8384	276.855	80.8897	276.855	78.5392	276.855	79.6368	276.855	76.8461	276.855	77.9759	276.855	74.6487	276.855	75.8076	276.855	71.7733	276.855	72.9866	276.855	67.9114	276.855	69.2883	276.855	62.5519	276.855	64.4851	276.855	57.2628	276.855	60.0319	276.855	59.5598	276.855	60.6896	276.855	62.2597	276.855	62.5994	276.855	63.1804
287.109	82.4571	287.109	82.4476	287.109	82.4394	287.109	82.402	287.109	82.3936	287.109	82.3014	287.109	82.3084	287.109	82.1182	287.109	82.1622	287.109	81.8181	287.109	81.9229	287.109	81.3616	287.109	81.5477	287.109	80.7069	287.109	80.9856	287.109	79.8108	287.109	80.1804	287.109	78.6293	287.109	79.0751	287.109	77.1178	287.109	77.6173	287.109	75.2309	287.109	75.7678	287.109	72.9271	287.109	73.5191	287.109	70.1882	287.109	70.9392	287.109	67.103	287.109	68.2606	287.109	64.1255	287.109	65.9383	287.109	62.303	287.109	64.3719	287.109	62.1221	287.109	63.4332	287.109	62.7109
297.363	82.5745	297.363	82.4802	297.363	82.627	297.363	82.3458	297.363	82.6253	297.363	82.163	297.363	82.5481	297.363	81.914	297.363	82.3672	297.363	81.5742	297.363	82.0494	297.363	81.1142	297.363	81.5593	297.363	80.5023	297.363	80.8602	297.363	79.7067	297.363	79.9159	297.363	78.6975	297.363	78.6918	297.363	77.4486	297.363	77.1584	297.363	75.9405	297.363	75.2994	297.363	74.1641	297.363	73.1274	297.363	72.1268	297.363	70.7137	297.363	69.8643	297.363	68.222	297.363	67.4678	297.363	65.9077	297.363	65.1446	297.363	64.03	297.363	63.304	297.363	62.7926	297.363	62.4629
307.617	82.6683	307.617	82.5834	307.617	82.7085	307.617	82.4559	307.617	82.6916	307.617	82.2775	307.617	82.5967	307.617	82.0305	307.617	82.3967	307.617	81.6901	307.617	82.0606	307.617	81.2271	307.617	81.556	307.617	80.6115	307.617	80.8507	307.617	79.8145	307.617	79.9149	307.617	78.8125	307.617	78.7245	307.617	77.5901	307.617	77.2676	307.617	76.1463	307.617	75.5573	307.617	74.5026	307.617	73.6519	307.617	72.7158	307.617	71.6776	307.617	70.8924	307.617	69.8299	307.617	69.1946	307.617	68.3136	307.617	67.8145	307.617	67.2479	307.617	66.907	307.617	66.6525	307.617	66.5281
319.336	82.438	319.336	82.3455	319.336	82.5007	319.336	82.2211	319.336	82.5228	319.336	82.0496	319.336	82.4815	319.336	81.8045	319.336	82.3444	319.336	81.4506	319.336	82.0718	319.336	80.9479	319.336	81.6193	319.336	80.2542	319.336	80.9393	319.336	79.3287	319.336	79.9827	319.336	78.1358	319.336	78.7006	319.336	76.6518	319.336	77.0484	319.336	74.8772	319.336	74.998	319.336	72.8616	319.336	72.5715	319.336	70.7448	319.336	69.9264	319.336	68.7827	319.336	67.4893	319.336	67.2649	319.336	65.8691	319.336	66.2996	319.336	65.2434	319.336	65.7481	319.336	65.2132	319.336	65.415
329.59	82.3945	329.59	82.2771	329.59	82.488	329.59	82.1375	329.59	82.5445	329.59	81.965	329.59	82.5411	329.59	81.7377	329.59	82.4464	329.59	81.4237	329.59	82.2225	329.59	80.9845	329.59	81.8268	329.59	80.3775	329.59	81.2135	329.59	79.5593	329.59	80.3349	329.59	78.4881	329.59	79.1423	329.59	77.1271	329.59	77.5879	329.59	75.45	329.59	75.6295	329.59	73.453	329.59	73.2448	329.59	71.1795	329.59	70.4724	329.59	68.7658	329.59	67.5168	329.59	66.4872	329.59	64.9055	329.59	64.695	329.59	63.3158	329.59	63.5641	329.59	62.8241	329.59	62.9793
341.309	82.1389	341.309	81.962	341.309	82.2955	341.309	81.7691	341.309	82.4154	341.309	81.5503	341.309	82.474	341.309	81.2812	341.309	82.4412	341.309	80.9252	341.309	82.2844	341.309	80.4374	341.309	81.9693	341.309	79.7688	341.309	81.4596	341.309	78.8695	341.309	80.7173	341.309	77.6917	341.309	79.7014	341.309	76.1926	341.309	78.3669	341.309	74.338	341.309	76.6625	341.309	72.1105	341.309	74.529	341.309	69.525	341.309	71.8952	341.309	66.6549	341.309	68.6767	341.309	63.6602	341.309	64.7926	341.309	60.765	341.309	60.3342	341.309	58.1435	341.309	56.5202	341.309	56.1143
353.027	82.2999	353.027	82.0992	353.027	82.502	353.027	81.8971	353.027	82.6928	353.027	81.6752	353.027	82.8457	353.027	81.4022	353.027	82.9244	353.027	81.0361	353.027	82.8878	353.027	80.5273	353.027	82.6947	353.027	79.8214	353.027	82.3061	353.027	78.8597	353.027	81.6858	353.027	77.5797	353.027	80.7984	353.027	75.9127	353.027	79.6074	353.027	73.7793	353.027	78.0709	353.027	71.0814	353.027	76.1373	353.027	67.6915	353.027	73.7387	353.027	63.4638	353.027	70.7834	353.027	58.4828	353.027	67.1533	353.027	54.4102	353.027	62.7617	353.027	53.6006	353.027	57.9722	353.027	54.612
366.211	82.1372	366.211	82.1141	366.211	82.1734	366.211	82.1031	366.211	82.2117	366.211	82.0899	366.211	82.2313	366.211	82.0461	366.211	82.2026	366.211	81.9323	366.211	82.0905	366.211	81.7024	366.211	81.8586	366.211	81.3102	366.211	81.4745	366.211	80.7143	366.211	80.9125	366.211	79.883	366.211	80.1552	366.211	78.7986	366.211	79.1905	366.211	77.4633	366.211	78.0086	366.211	75.9064	366.211	76.6006	366.211	74.1933	366.211	74.9668	366.211	72.4356	366.211	73.1482	366.211	70.7959	366.211	71.2857	366.211	69.4655	366.211	69.6661	366.211	68.6014	366.211	68.6227	366.211	68.2917
379.395	81.7685	379.395	81.6388	379.395	81.8785	379.395	81.5013	379.395	81.9535	379.395	81.3613	379.395	81.9754	379.395	81.2111	379.395	81.9202	379.395	81.0276	379.395	81.7555	379.395	80.7735	379.395	81.4401	379.395	80.4039	379.395	80.9269	379.395	79.8743	379.395	80.1692	379.395	79.1475	379.395	79.1286	379.395	78.1983	379.395	77.7876	379.395	77.0164	379.395	76.1677	379.395	75.6086	379.395	74.3496	379.395	74.0001	379.395	72.4743	379.395	72.2399	379.395	70.693	379.395	70.4151	379.395	69.098	379.395	68.6835	379.395	67.754	379.395	67.3112	379.395	66.8341	379.395	66.6341
392.578	81.7221	392.578	81.6789	392.578	81.7172	392.578	81.5861	392.578	81.6693	392.578	81.441	392.578	81.5871	392.578	81.2351	392.578	81.4796	392.578	80.9495	392.578	81.3463	392.578	80.5549	392.578	81.1672	392.578	80.0147	392.578	80.8955	392.578	79.2911	392.578	80.459	392.578	78.3535	392.578	79.7686	392.578	77.1868	392.578	78.7266	392.578	75.7978	392.578	77.2323	392.578	74.2156	392.578	75.1838	392.578	72.4763	392.578	72.4849	392.578	70.5937	392.578	69.0843	392.578	68.5412	392.578	65.1648	392.578	66.2904	392.578	61.7538	392.578	63.9293	392.578	60.6687	392.578	61.8105
405.762	81.3468	405.762	81.1506	405.762	81.3983	405.762	80.8262	405.762	81.2948	405.762	80.3967	405.762	81.0343	405.762	79.8915	405.762	80.6275	405.762	79.3433	405.762	80.1039	405.762	78.7794	405.762	79.5134	405.762	78.2042	405.762	78.9112	405.762	77.5818	405.762	78.3188	405.762	76.8313	405.762	77.6832	405.762	75.8404	405.762	76.8744	405.762	74.4873	405.762	75.7213	405.762	72.6688	405.762	74.0445	405.762	70.3659	405.762	71.6679	405.762	67.8589	405.762	68.4641	405.762	66.0507	405.762	64.8044	405.762	65.6191	405.762	63.017	405.762	65.703	405.762	64.0956	405.762	65.2969
420.41	83.4268	420.41	83.2864	420.41	83.4956	420.41	83.0712	420.41	83.4827	420.41	82.7655	420.41	83.3658	420.41	82.3439	420.41	83.1111	420.41	81.7776	420.41	82.6772	420.41	81.0454	420.41	82.0212	420.41	80.1497	420.41	81.1099	420.41	79.1298	420.41	79.9328	420.41	78.0569	420.41	78.5166	420.41	76.985	420.41	76.9216	420.41	75.8685	420.41	75.1913	420.41	74.5257	420.41	73.2488	420.41	72.6757	420.41	70.8097	420.41	69.976	420.41	67.3154	420.41	66.0345	420.41	61.564	420.41	60.9378	420.41	49.4981	420.41	58.3224	420.41	54.8366	420.41	58.3077
435.059	83.0087	435.059	82.8608	435.059	83.1068	435.059	82.6711	435.059	83.1401	435.059	82.4376	435.059	83.0893	435.059	82.1434	435.059	82.9325	435.059	81.7563	435.059	82.6483	435.059	81.2331	435.059	82.2206	435.059	80.5296	435.059	81.6402	435.059	79.6117	435.059	80.9012	435.059	78.4671	435.059	79.9875	435.059	77.1103	435.059	78.852	435.059	75.5679	435.059	77.3959	435.059	73.8318	435.059	75.4513	435.059	71.792	435.059	72.7535	435.059	69.1927	435.059	68.8506	435.059	65.6422	435.059	62.7671	435.059	60.916	435.059	52.7704	435.059	57.3735	435.059	55.069	435.059	57.3227
451.172	82.8471	451.172	82.7594	451.172	82.8581	451.172	82.602	451.172	82.7907	451.172	82.3788	451.172	82.6505	451.172	82.0782	451.172	82.444	451.172	81.6668	451.172	82.171	451.172	81.0912	451.172	81.8203	451.172	80.2897	451.172	81.3688	451.172	79.2069	451.172	80.7809	451.172	77.8107	451.172	80.0023	451.172	76.1085	451.172	78.9493	451.172	74.1477	451.172	77.4928	451.172	71.965	451.172	75.4351	451.172	69.4583	451.172	72.4489	451.172	66.2421	451.172	67.8626	451.172	61.6088	451.172	59.443	451.172	56.6171	451.172	48.0564	451.172	58.7321	451.172	59.3398	451.172	60.7974
465.82	82.3846	465.82	82.244	465.82	82.4775	465.82	82.0709	465.82	82.5079	465.82	81.8728	465.82	82.4612	465.82	81.6391	465.82	82.3176	465.82	81.3354	465.82	82.0501	465.82	80.9097	465.82	81.6296	465.82	80.3098	465.82	81.0396	465.82	79.5035	465.82	80.293	465.82	78.4935	465.82	79.4335	465.82	77.3145	465.82	78.4972	465.82	75.9914	465.82	77.4383	465.82	74.4622	465.82	76.0818	465.82	72.5147	465.82	74.1397	465.82	69.7612	465.82	71.2155	465.82	65.5503	465.82	66.6508	465.82	58.578	465.82	58.7284	465.82	50.535	465.82	44.7377	465.82	52.2517
483.398	82.657	483.398	82.4382	483.398	82.7828	483.398	82.1645	483.398	82.7938	483.398	81.8821	483.398	82.6811	483.398	81.6204	483.398	82.4408	483.398	81.3643	483.398	82.0695	483.398	81.0455	483.398	81.5676	483.398	80.5614	483.398	80.9447	483.398	79.8054	483.398	80.218	483.398	78.6909	483.398	79.3885	483.398	77.1638	483.398	78.3997	483.398	75.2008	483.398	77.1017	483.398	72.7675	483.398	75.2354	483.398	69.6854	483.398	72.3904	483.398	65.3492	483.398	67.8033	483.398	58.6838	483.398	60.2052	483.398	59.161	483.398	60.7047	483.398	63.9996	483.398	64.8939	483.398	65.7603
499.512	82.0823	499.512	81.8148	499.512	82.2435	499.512	81.4521	499.512	82.3041	499.512	81.0316	499.512	82.2754	499.512	80.6136	499.512	82.1601	499.512	80.2573	499.512	81.9431	499.512	79.98	499.512	81.588	499.512	79.7279	499.512	81.0466	499.512	79.3906	499.512	80.2766	499.512	78.841	499.512	79.2651	499.512	77.9634	499.512	78.0414	499.512	76.6544	499.512	76.6533	499.512	74.7997	499.512	75.0834	499.512	72.2284	499.512	73.157	499.512	68.6483	499.512	70.5443	499.512	63.7564	499.512	66.9259	499.512	59.8674	499.512	62.9704	499.512	61.289	499.512	61.907	499.512	62.3758
517.09	82.7067	517.09	82.5235	517.09	82.7198	517.09	82.1596	517.09	82.5831	517.09	81.6175	517.09	82.3198	517.09	80.9142	517.09	81.9505	517.09	80.088	517.09	81.5017	517.09	79.2113	517.09	81.026	517.09	78.3969	517.09	80.6056	517.09	77.7565	517.09	80.2952	517.09	77.2988	517.09	80.0253	517.09	76.8661	517.09	79.5781	517.09	76.1924	517.09	78.6569	517.09	74.9854	517.09	76.9304	517.09	72.9221	517.09	73.9662	517.09	69.5729	517.09	69.0424	517.09	64.8634	517.09	63.0375	517.09	64.1011	517.09	65.9087	517.09	67.4457	517.09	68.74	517.09	69.1296
536.133	82.4324	536.133	82.2966	536.133	82.4141	536.133	82.022	536.133	82.2442	536.133	81.6315	536.133	81.9407	536.133	81.1373	536.133	81.5246	536.133	80.5245	536.133	81.0027	536.133	79.749	536.133	80.3599	536.133	78.7598	536.133	79.5723	536.133	77.5423	536.133	78.6422	536.133	76.1714	536.133	77.6244	536.133	74.815	536.133	76.5856	536.133	73.574	536.133	75.4617	536.133	72.2527	536.133	73.9466	536.133	70.4004	536.133	71.5348	536.133	67.6488	536.133	67.7066	536.133	65.0084	536.133	64.1501	536.133	65.95	536.133	66.259	536.133	68.2724	536.133	68.703	536.133	69.3257
555.176	82.0849	555.176	81.9233	555.176	82.0753	555.176	81.5961	555.176	81.9157	555.176	81.1369	555.176	81.6418	555.176	80.5991	555.176	81.2801	555.176	80.0337	555.176	80.8182	555.176	79.4564	555.176	80.1887	555.176	78.8238	555.176	79.2878	555.176	78.0424	555.176	78.0399	555.176	77.0081	555.176	76.5267	555.176	75.6439	555.176	75.139	555.176	73.9051	555.176	74.3081	555.176	71.7217	555.176	73.7201	555.176	68.8557	555.176	72.4904	555.176	64.7896	555.176	69.7859	555.176	60.6992	555.176	65.0261	555.176	63.39	555.176	62.8357	555.176	66.6076	555.176	66.164	555.176	67.5615
574.219	82.2619	574.219	82.1221	574.219	82.2511	574.219	81.8395	574.219	82.0997	574.219	81.4377	574.219	81.8223	574.219	80.9402	574.219	81.4153	574.219	80.3513	574.219	80.8484	574.219	79.6415	574.219	80.0861	574.219	78.7509	574.219	79.1372	574.219	77.6106	574.219	78.0987	574.219	76.1748	574.219	77.1177	574.219	74.4451	574.219	76.2059	574.219	72.443	574.219	75.0836	574.219	70.073	574.219	73.2588	574.219	66.9231	574.219	70.1444	574.219	62.5714	574.219	65.5775	574.219	61.9247	574.219	64.8866	574.219	66.3918	574.219	68.373	574.219	69.3634	574.219	70.33	574.219	70.6126
594.727	81.6896	594.727	81.5361	594.727	81.623	594.727	81.1996	594.727	81.3514	594.727	80.7559	594.727	80.9435	594.727	80.2924	594.727	80.4985	594.727	79.8635	594.727	80.0852	594.727	79.4461	594.727	79.6786	594.727	78.9382	594.727	79.164	594.727	78.2047	594.727	78.4151	594.727	77.1362	594.727	77.3863	594.727	75.6863	594.727	76.1665	594.727	73.8698	594.727	74.8983	594.727	71.6749	594.727	73.501	594.727	68.8838	594.727	71.5087	594.727	65.0854	594.727	68.2563	594.727	62.0629	594.727	63.9653	594.727	64.6146	594.727	64.2621	594.727	67.3545	594.727	67.1306	594.727	68.2092
615.234	82.7945	615.234	82.5466	615.234	82.8159	615.234	82.106	615.234	82.602	615.234	81.5276	615.234	82.1755	615.234	80.8815	615.234	81.5986	615.234	80.2423	615.234	80.965	615.234	79.6666	615.234	80.3497	615.234	79.168	615.234	79.7269	615.234	78.7041	615.234	78.9476	615.234	78.1797	615.234	77.834	615.234	77.4502	615.234	76.3413	615.234	76.3112	615.234	74.7094	615.234	74.4573	615.234	73.3393	615.234	71.3449	615.234	72.2005	615.234	65.7259	615.234	70.9018	615.234	59.6231	615.234	69.7652	615.234	66.4224	615.234	69.8987	615.234	69.9746	615.234	70.8383	615.234	71.1395
637.207	82.001	637.207	81.8216	637.207	81.9804	637.207	81.429	637.207	81.7914	637.207	80.8358	637.207	81.4743	637.207	80.084	637.207	81.0654	637.207	79.2426	637.207	80.5829	637.207	78.3897	637.207	80.021	637.207	77.585	637.207	79.3638	637.207	76.8671	637.207	78.616	637.207	76.2913	637.207	77.809	637.207	75.9037	637.207	76.9246	637.207	75.5778	637.207	75.7651	637.207	74.9216	637.207	73.9065	637.207	73.3594	637.207	70.765	637.207	70.0887	637.207	66.6018	637.207	64.4084	637.207	67.485	637.207	65.905	637.207	70.998	637.207	70.6355	637.207	72.7484	637.207	72.6835
659.18	82.1021	659.18	82.0678	659.18	81.8997	659.18	81.7774	659.18	81.52	659.18	81.2474	659.18	81.0401	659.18	80.5226	659.18	80.5087	659.18	79.6779	659.18	79.9148	659.18	78.8123	659.18	79.2057	659.18	77.9922	659.18	78.3408	659.18	77.1665	659.18	77.3562	659.18	76.184	659.18	76.401	659.18	74.9531	659.18	75.6254	659.18	73.585	659.18	74.9119	659.18	72.257	659.18	73.8206	659.18	70.7376	659.18	71.8312	659.18	68.2645	659.18	68.7547	659.18	64.6259	659.18	66.8467	659.18	65.2034	659.18	68.8138	659.18	68.9071	659.18	70.6496	659.18	70.7612
682.617	82.2507	682.617	82.1967	682.617	81.9972	682.617	81.8572	682.617	81.4652	682.617	81.2747	682.617	80.7612	682.617	80.4938	682.617	80.0528	682.617	79.5636	682.617	79.4636	682.617	78.5498	682.617	78.941	682.617	77.5214	682.617	78.2692	682.617	76.492	682.617	77.2382	682.617	75.4094	682.617	75.8695	682.617	74.2933	682.617	74.6316	682.617	73.3732	682.617	74.0393	682.617	72.8066	682.617	73.6433	682.617	72.2056	682.617	72.5776	682.617	70.9426	682.617	70.6997	682.617	69.0406	682.617	69.5308	682.617	68.5023	682.617	70.4852	682.617	70.1927	682.617	71.6063	682.617	71.5581
707.52	82.1219	707.52	81.9729	707.52	81.9681	707.52	81.573	707.52	81.5188	707.52	81.0131	707.52	80.8553	707.52	80.3892	707.52	80.1338	707.52	79.7578	707.52	79.5328	707.52	79.1115	707.52	79.1127	707.52	78.401	707.52	78.708	707.52	77.5704	707.52	78.0181	707.52	76.5549	707.52	76.8145	707.52	75.2468	707.52	75.1641	707.52	73.4873	707.52	73.6027	707.52	71.1232	707.52	72.5779	707.52	68.2302	707.52	71.5951	707.52	66.0992	707.52	70.413	707.52	67.2718	707.52	70.4777	707.52	70.1138	707.52	72.1023	707.52	72.369	707.52	73.3803	707.52	73.4943
732.422	82.1949	732.422	81.9785	732.422	82.0832	732.422	81.5035	732.422	81.6128	732.422	80.8502	732.422	80.816	732.422	80.0752	732.422	79.8249	732.422	79.1994	732.422	78.9062	732.422	78.2487	732.422	78.3478	732.422	77.3178	732.422	78.1277	732.422	76.5377	732.422	77.8532	732.422	75.8916	732.422	77.1462	732.422	75.1525	732.422	75.9531	732.422	74.1023	732.422	74.584	732.422	72.7312	732.422	73.2354	732.422	71.1783	732.422	71.4141	732.422	69.4475	732.422	68.8152	732.422	67.6417	732.422	67.9849	732.422	67.3685	732.422	70.0213	732.422	69.324	732.422	71.3399	732.422	71.0405
757.324	82.3969	757.324	82.1529	757.324	82.2906	757.324	81.5518	757.324	81.8644	757.324	80.6358	757.324	81.1552	757.324	79.5245	757.324	80.2088	757.324	78.4037	757.324	79.1146	757.324	77.4188	757.324	78.0462	757.324	76.5544	757.324	77.1813	757.324	75.7259	757.324	76.4784	757.324	75.0058	757.324	75.7164	757.324	74.5872	757.324	74.8989	757.324	74.3679	757.324	74.3478	757.324	73.8519	757.324	74.0045	757.324	72.549	757.324	73.2219	757.324	70.4713	757.324	71.7655	757.324	69.4085	757.324	70.9211	757.324	71.0014	757.324	71.9471	757.324	72.8271	757.324	73.2347	757.324	73.6032
785.156	82.3458	785.156	82.2537	785.156	82.0107	785.156	81.7598	785.156	81.3137	785.156	80.9281	785.156	80.451	785.156	79.816	785.156	79.7109	785.156	78.4678	785.156	79.2545	785.156	76.9842	785.156	78.903	785.156	75.6129	785.156	78.2697	785.156	74.5987	785.156	77.0522	785.156	73.8199	785.156	75.2769	785.156	73.0224	785.156	73.5161	785.156	72.3951	785.156	72.3196	785.156	72.178	785.156	71.2551	785.156	71.7387	785.156	70.2631	785.156	70.1911	785.156	70.5007	785.156	68.2384	785.156	71.7662	785.156	69.5192	785.156	72.8909	785.156	72.038	785.156	73.4825	785.156	73.3251
811.523	83.0113	811.523	82.6942	811.523	82.8043	811.523	81.9476	811.523	82.0499	811.523	80.9002	811.523	80.8149	811.523	79.6421	811.523	79.3011	811.523	78.1535	811.523	77.9621	811.523	76.3565	811.523	77.4039	811.523	74.4309	811.523	77.531	811.523	73.1297	811.523	77.3952	811.523	72.6847	811.523	76.1765	811.523	72.0641	811.523	73.7365	811.523	70.9712	811.523	71.9439	811.523	70.8531	811.523	72.582	811.523	71.8322	811.523	72.7607	811.523	71.897	811.523	71.4577	811.523	70.5724	811.523	70.84	811.523	70.4823	811.523	72.5694	811.523	72.7339	811.523	74.0905	811.523	74.2055
840.82	82.6414	840.82	82.2733	840.82	82.6139	840.82	81.6059	840.82	82.1249	840.82	80.7492	840.82	81.1381	840.82	79.7745	840.82	79.6901	840.82	78.6575	840.82	78.1087	840.82	77.2962	840.82	77.294	840.82	75.6391	840.82	77.6537	840.82	73.8012	840.82	78.0411	840.82	71.8518	840.82	77.3665	840.82	69.6085	840.82	75.1805	840.82	68.4891	840.82	71.8955	840.82	70.7087	840.82	70.3986	840.82	72.8159	840.82	71.2332	840.82	72.8915	840.82	71.6408	840.82	70.7194	840.82	71.64	840.82	68.5938	840.82	72.0746	840.82	70.6407	840.82	72.6987	840.82	72.4724
870.117	83.6914	870.117	83.2644	870.117	83.5507	870.117	82.3658	870.117	82.8732	870.117	81.2122	870.117	81.7743	870.117	80.0819	870.117	80.3207	870.117	79.1344	870.117	78.3985	870.117	78.2108	870.117	75.9923	870.117	76.957	870.117	74.6232	870.117	75.2203	870.117	75.8753	870.117	73.2896	870.117	77.1057	870.117	71.2526	870.117	76.7415	870.117	67.925	870.117	74.6907	870.117	63.2924	870.117	71.967	870.117	67.5275	870.117	70.8726	870.117	71.0817	870.117	71.3629	870.117	71.8619	870.117	72.6535	870.117	71.9496	870.117	74.2179	870.117	73.3245	870.117	75.082	870.117	74.7654
900.879	83.0647	900.879	82.544	900.879	83.0835	900.879	81.6376	900.879	82.5629	900.879	80.4685	900.879	81.6007	900.879	79.1503	900.879	80.4023	900.879	77.8309	900.879	79.1344	900.879	76.6702	900.879	77.7831	900.879	75.7322	900.879	76.245	900.879	75.0728	900.879	74.6052	900.879	74.7743	900.879	73.2562	900.879	74.4102	900.879	72.6576	900.879	72.9631	900.879	72.988	900.879	69.2222	900.879	73.683	900.879	65.4484	900.879	73.7147	900.879	69.5927	900.879	72.5329	900.879	71.6844	900.879	70.9486	900.879	71.3208	900.879	71.075	900.879	70.8964	900.879	71.9063	900.879	71.6757
933.105	83.1482	933.105	82.666	933.105	83.1952	933.105	81.8572	933.105	82.7646	933.105	80.8619	933.105	81.8853	933.105	79.8081	933.105	80.6382	933.105	78.758	933.105	79.1454	933.105	77.6266	933.105	77.5923	933.105	76.1984	933.105	76.1481	933.105	74.4197	933.105	74.7978	933.105	72.8737	933.105	73.6808	933.105	72.3426	933.105	73.2228	933.105	72.2912	933.105	72.8323	933.105	71.7915	933.105	71.5552	933.105	70.6733	933.105	70.7951	933.105	69.5735	933.105	72.3861	933.105	69.5474	933.105	73.6828	933.105	70.5536	933.105	73.7735	933.105	71.7277	933.105	73.2988	933.105	72.6473
965.332	82.5122	965.332	82.193	965.332	82.4901	965.332	81.6892	965.332	81.981	965.332	81.043	965.332	81.0362	965.332	80.2603	965.332	79.9206	965.332	79.3923	965.332	78.8811	965.332	78.38	965.332	77.8943	965.332	76.8579	965.332	76.7735	965.332	74.3394	965.332	75.4036	965.332	71.2487	965.332	73.607	965.332	70.5367	965.332	71.1704	965.332	71.4279	965.332	69.7273	965.332	71.1837	965.332	71.3004	965.332	70.3521	965.332	72.5635	965.332	70.6528	965.332	72.2705	965.332	71.2769	965.332	71.5882	965.332	71.4658	965.332	71.897	965.332	71.9123	965.332	72.4787	965.332	72.4691
1000.49	82.4603	1000.49	82.4008	1000.49	82.1628	1000.49	81.9362	1000.49	81.5789	1000.49	81.0664	1000.49	80.7765	1000.49	79.8598	1000.49	79.7845	1000.49	78.5148	1000.49	78.5769	1000.49	77.4219	1000.49	77.2323	1000.49	76.8241	1000.49	76.1354	1000.49	76.2711	1000.49	75.497	1000.49	74.9272	1000.49	74.8433	1000.49	71.9205	1000.49	73.6292	1000.49	66.5907	1000.49	71.3771	1000.49	67.039	1000.49	68.1816	1000.49	71.0172	1000.49	68.9553	1000.49	72.056	1000.49	71.6246	1000.49	71.5007	1000.49	72.1096	1000.49	71.4437	1000.49	71.3252	1000.49	71.7916	1000.49	71.0504	1000.49	71.5183
1035.64	82.2724	1035.64	82.2074	1035.64	81.924	1035.64	81.7559	1035.64	81.2139	1035.64	80.9673	1035.64	80.2473	1035.64	79.8476	1035.64	79.1296	1035.64	78.4445	1035.64	77.9862	1035.64	77.1001	1035.64	77.0501	1035.64	76.2626	1035.64	76.3366	1035.64	75.5806	1035.64	75.2558	1035.64	74.2921	1035.64	73.4919	1035.64	72.3341	1035.64	72.0284	1035.64	70.3782	1035.64	71.3975	1035.64	68.6047	1035.64	70.6058	1035.64	67.8702	1035.64	70.3023	1035.64	69.9585	1035.64	70.6373	1035.64	71.7624	1035.64	70.5195	1035.64	71.9983	1035.64	70.4018	1035.64	71.4697	1035.64	70.7198	1035.64	71.0558
1072.27	82.4933	1072.27	82.2234	1072.27	82.2678	1072.27	81.5684	1072.27	81.6303	1072.27	80.7021	1072.27	80.8184	1072.27	79.7006	1072.27	79.918	1072.27	78.5122	1072.27	78.6214	1072.27	77.1267	1072.27	76.6468	1072.27	75.7623	1072.27	75.0628	1072.27	74.794	1072.27	75.3732	1072.27	74.4066	1072.27	75.5687	1072.27	74.2706	1072.27	74.1958	1072.27	73.5843	1072.27	71.7853	1072.27	71.5495	1072.27	70.1413	1072.27	68.6201	1072.27	70.3591	1072.27	68.9278	1072.27	71.4674	1072.27	70.5946	1072.27	71.6914	1072.27	70.8233	1072.27	70.876	1072.27	70.4257	1072.27	70.249	1072.27	70.2157
1108.89	82.7526	1108.89	82.5268	1108.89	82.4216	1108.89	81.8973	1108.89	81.5226	1108.89	81.029	1108.89	80.2688	1108.89	80.0332	1108.89	79.0393	1108.89	78.9842	1108.89	78.0556	1108.89	77.7604	1108.89	77.0297	1108.89	75.9727	1108.89	75.358	1108.89	73.3954	1108.89	73.2502	1108.89	70.5786	1108.89	72.6898	1108.89	69.0186	1108.89	73.1275	1108.89	70.0431	1108.89	72.4552	1108.89	72.2467	1108.89	71.1288	1108.89	73.1006	1108.89	70.8327	1108.89	71.6421	1108.89	71.1988	1108.89	70.2191	1108.89	71.3814	1108.89	71.8128	1108.89	71.2061	1108.89	72.3898	1108.89	71.0494	1108.89	71.6061
1148.44	82.8843	1148.44	82.8078	1148.44	82.506	1148.44	82.3906	1148.44	81.6883	1148.44	81.7201	1148.44	80.6891	1148.44	80.7721	1148.44	79.8238	1148.44	79.4619	1148.44	78.9719	1148.44	77.8102	1148.44	77.601	1148.44	76.0553	1148.44	75.5957	1148.44	74.3434	1148.44	73.8649	1148.44	72.2342	1148.44	72.6013	1148.44	69.0774	1148.44	71.0397	1148.44	66.2391	1148.44	70.6123	1148.44	68.4502	1148.44	71.156	1148.44	71.2471	1148.44	71.5353	1148.44	72.2955	1148.44	72.4792	1148.44	72.1437	1148.44	72.5153	1148.44	71.4576	1148.44	70.9127	1148.44	70.32	1148.44	69.1915	1148.44	69.108
1189.45	82.7306	1189.45	82.7357	1189.45	82.355	1189.45	82.4262	1189.45	81.5996	1189.45	81.7236	1189.45	80.6987	1189.45	80.5324	1189.45	79.8863	1189.45	78.9091	1189.45	79.0004	1189.45	77.0548	1189.45	77.5979	1189.45	75.0895	1189.45	75.4467	1189.45	73.086	1189.45	73.3523	1189.45	71.5454	1189.45	72.7038	1189.45	70.4578	1189.45	72.1112	1189.45	68.355	1189.45	70.5916	1189.45	66.3586	1189.45	70.8395	1189.45	70.068	1189.45	72.1983	1189.45	72.1462	1189.45	72.095	1189.45	71.3002	1189.45	70.8052	1189.45	70.2146	1189.45	69.3595	1189.45	70.2175	1189.45	68.8027	1189.45	69.5054
1230.47	82.6377	1230.47	82.5096	1230.47	82.3098	1230.47	81.994	1230.47	81.5455	1230.47	81.1994	1230.47	80.4564	1230.47	80.1404	1230.47	79.254	1230.47	78.7278	1230.47	78.2204	1230.47	76.9135	1230.47	77.3603	1230.47	74.8977	1230.47	75.9109	1230.47	72.9915	1230.47	73.3305	1230.47	70.9426	1230.47	70.9615	1230.47	68.5711	1230.47	69.8955	1230.47	67.3761	1230.47	68.2897	1230.47	67.304	1230.47	68.8529	1230.47	68.2712	1230.47	71.4874	1230.47	71.3048	1230.47	72.4548	1230.47	72.3669	1230.47	71.4826	1230.47	70.9451	1230.47	69.6375	1230.47	69.8367	1230.47	68.9647	1230.47	69.5705
1274.41	82.2982	1274.41	82.3084	1274.41	81.7646	1274.41	81.9487	1274.41	80.8334	1274.41	81.3267	1274.41	79.8579	1274.41	80.3709	1274.41	79.0012	1274.41	79.0238	1274.41	78.0391	1274.41	77.2934	1274.41	76.7122	1274.41	75.192	1274.41	74.9714	1274.41	72.7392	1274.41	72.8219	1274.41	69.9361	1274.41	70.3891	1274.41	67.3661	1274.41	68.9907	1274.41	67.8503	1274.41	68.5261	1274.41	69.5356	1274.41	66.1098	1274.41	68.6669	1274.41	67.1995	1274.41	68.2346	1274.41	70.6808	1274.41	71.1699	1274.41	70.867	1274.41	71.2251	1274.41	69.0873	1274.41	68.7202	1274.41	67.5373	1274.41	67.252
1319.82	82.0706	1319.82	82.2644	1319.82	81.4444	1319.82	82.107	1319.82	80.4722	1319.82	81.4798	1319.82	79.4589	1319.82	80.1904	1319.82	78.5425	1319.82	78.2337	1319.82	77.7063	1319.82	75.7873	1319.82	76.7284	1319.82	73.3511	1319.82	74.8968	1319.82	71.7879	1319.82	72.6781	1319.82	70.5585	1319.82	72.1916	1319.82	67.4215	1319.82	70.1542	1319.82	60.7093	1319.82	63.4332	1319.82	66.8579	1319.82	67.6473	1319.82	69.7718	1319.82	68.7972	1319.82	69.4775	1319.82	68.0891	1319.82	70.5922	1319.82	69.613	1319.82	70.3351	1319.82	69.1278	1319.82	67.2121	1319.82	66.9972	1319.82	65.6941
1366.7	82.2641	1366.7	82.323	1366.7	81.6319	1366.7	81.9406	1366.7	80.4247	1366.7	80.9924	1366.7	79.0661	1366.7	79.4211	1366.7	77.7968	1366.7	77.6722	1366.7	76.3326	1366.7	76.1874	1366.7	74.9508	1366.7	74.2375	1366.7	74.1572	1366.7	71.3737	1366.7	72.6001	1366.7	70.7285	1366.7	69.6701	1366.7	71.1216	1366.7	68.3758	1366.7	68.4848	1366.7	66.2368	1366.7	64.0875	1366.7	63.5328	1366.7	66.8054	1366.7	67.6312	1366.7	67.5664	1366.7	68.2807	1366.7	68.787	1366.7	67.8412	1366.7	69.0177	1366.7	67.9856	1366.7	66.8049	1366.7	67.3695	1366.7	66.0305
1413.57	82.2294	1413.57	82.3331	1413.57	81.8211	1413.57	82.0966	1413.57	80.7618	1413.57	81.2235	1413.57	79.0991	1413.57	79.6366	1413.57	77.2723	1413.57	77.469	1413.57	75.5232	1413.57	75.2728	1413.57	74.2012	1413.57	73.4794	1413.57	73.6819	1413.57	70.9939	1413.57	73.0914	1413.57	67.6248	1413.57	71.7602	1413.57	66.3046	1413.57	70.2836	1413.57	66.3517	1413.57	67.4785	1413.57	67.9005	1413.57	61.3116	1413.57	68.961	1413.57	63.7758	1413.57	66.2491	1413.57	67.745	1413.57	68.9123	1413.57	69.2492	1413.57	70.6843	1413.57	69.305	1413.57	67.4544	1413.57	67.8853	1413.57	65.2134
1463.38	82.4757	1463.38	82.7709	1463.38	81.9776	1463.38	82.3906	1463.38	81.1729	1463.38	81.1186	1463.38	79.805	1463.38	79.0937	1463.38	78.102	1463.38	76.4244	1463.38	76.4398	1463.38	73.6369	1463.38	75.0502	1463.38	71.638	1463.38	73.5862	1463.38	69.118	1463.38	71.4687	1463.38	66.3053	1463.38	70.3244	1463.38	64.9506	1463.38	70.7956	1463.38	59.3213	1463.38	68.7127	1463.38	65.5949	1463.38	64.5497	1463.38	70.5581	1463.38	65.6664	1463.38	67.8208	1463.38	67.2925	1463.38	67.4738	1463.38	69.1965	1463.38	70.7509	1463.38	69.6127	1463.38	67.6652	1463.38	67.6195	1463.38	63.4143
1516.11	82.457	1516.11	82.5408	1516.11	81.6506	1516.11	81.7335	1516.11	80.6004	1516.11	80.3265	1516.11	79.2677	1516.11	78.5708	1516.11	77.5766	1516.11	76.2648	1516.11	76.0504	1516.11	72.8197	1516.11	74.7877	1516.11	69.0534	1516.11	72.6846	1516.11	65.5956	1516.11	70.6042	1516.11	56.9301	1516.11	70.0393	1516.11	62.652	1516.11	68.2826	1516.11	64.0926	1516.11	67.9669	1516.11	60.1973	1516.11	66.6185	1516.11	69.1195	1516.11	63.1114	1516.11	68.6041	1516.11	64.6333	1516.11	62.3755	1516.11	66.2199	1516.11	67.9662	1516.11	67.3145	1516.11	66.9506	1516.11	64.9118	1516.11	59.6236
1568.85	82.1698	1568.85	82.1025	1568.85	81.3033	1568.85	81.3557	1568.85	79.8199	1568.85	80.0836	1568.85	78.3124	1568.85	78.2123	1568.85	76.7458	1568.85	75.7769	1568.85	75.186	1568.85	72.3546	1568.85	74.0934	1568.85	67.9104	1568.85	73.0573	1568.85	64.9908	1568.85	70.5671	1568.85	60.0835	1568.85	68.6535	1568.85	35.6158	1568.85	68.6907	1568.85	57.251	1568.85	66.938	1568.85	56.3706	1568.85	66.8927	1568.85	65.0892	1568.85	66.2937	1568.85	66.5813	1568.85	63.4209	1568.85	60.6506	1568.85	63.7555	1568.85	66.6967	1568.85	65.3071	1568.85	68.1523	1568.85	64.1026	1568.85	63.5229
1624.51	82.3925	1624.51	82.1041	1624.51	81.8647	1624.51	81.311	1624.51	80.1224	1624.51	79.6655	1624.51	77.7354	1624.51	76.9137	1624.51	75.7006	1624.51	73.368	1624.51	74.342	1624.51	69.331	1624.51	73.4854	1624.51	64.5544	1624.51	73.0463	1624.51	61.5097	1624.51	71.3447	1624.51	56.325	1624.51	67.1026	1624.51	54.4068	1624.51	67.5346	1624.51	60.3733	1624.51	67.4983	1624.51	57.0983	1624.51	65.7308	1624.51	63.4168	1624.51	65.8692	1624.51	67.0811	1624.51	63.2076	1624.51	63.5748	1624.51	63.3138	1624.51	64.9998	1624.51	65.6947	1624.51	67.4539	1624.51	65.3403	1624.51	64.8117
1681.64	82.5246	1681.64	82.2277	1681.64	82.201	1681.64	81.0686	1681.64	80.5782	1681.64	78.702	1681.64	77.6399	1681.64	75.3504	1681.64	74.7889	1681.64	71.4499	1681.64	73.5816	1681.64	67.9021	1681.64	73.3825	1681.64	64.6593	1681.64	73.0014	1681.64	62.3311	1681.64	71.3681	1681.64	61.5839	1681.64	68.1256	1681.64	58.0378	1681.64	66.9749	1681.64	47.3318	1681.64	67.341	1681.64	47.3257	1681.64	67.6357	1681.64	60.0698	1681.64	66.181	1681.64	63.652	1681.64	64.2234	1681.64	61.0844	1681.64	63.9705	1681.64	58.8711	1681.64	65.0532	1681.64	65.5909	1681.64	63.5666	1681.64	63.9033
1741.7	82.1806	1741.7	82.1526	1741.7	81.5633	1741.7	80.6936	1741.7	80.3421	1741.7	77.8754	1741.7	77.2659	1741.7	73.8096	1741.7	73.4631	1741.7	68.9418	1741.7	72.6191	1741.7	65.5059	1741.7	73.3933	1741.7	64.8277	1741.7	73.12	1741.7	64.301	1741.7	72.1342	1741.7	64.2389	1741.7	69.1027	1741.7	62.7845	1741.7	65.543	1741.7	61.1703	1741.7	65.9635	1741.7	58.3055	1741.7	66.2537	1741.7	45.01	1741.7	66.0256	1741.7	60.6572	1741.7	62.8894	1741.7	64.2376	1741.7	60.6678	1741.7	63.9574	1741.7	60.9274	1741.7	66.155	1741.7	63.0252	1741.7	65.7461
1803.22	81.9706	1803.22	81.8133	1803.22	80.9446	1803.22	80.3927	1803.22	79.2875	1803.22	77.4527	1803.22	76.1738	1803.22	72.5084	1803.22	71.6271	1803.22	66.0661	1803.22	71.0053	1803.22	62.5959	1803.22	72.9112	1803.22	63.6558	1803.22	73.4007	1803.22	64.4967	1803.22	71.9327	1803.22	66.1046	1803.22	69.1416	1803.22	65.0902	1803.22	66.8442	1803.22	64.7914	1803.22	64.1619	1803.22	64.4544	1803.22	66.2283	1803.22	54.8941	1803.22	65.541	1803.22	50.4699	1803.22	62.2997	1803.22	57.1808	1803.22	59.5223	1803.22	61.1731	1803.22	61.8782	1803.22	63.9356	1803.22	65.0294	1803.22	65.3603
1866.21	82.3227	1866.21	81.749	1866.21	81.4271	1866.21	80.0397	1866.21	78.8505	1866.21	76.5128	1866.21	74.5598	1866.21	71.1451	1866.21	67.9081	1866.21	64.65	1866.21	69.2805	1866.21	63.4797	1866.21	72.4987	1866.21	64.6401	1866.21	73.2037	1866.21	61.8893	1866.21	72.4128	1866.21	64.29	1866.21	70.3376	1866.21	64.0563	1866.21	65.8924	1866.21	65.916	1866.21	64.2138	1866.21	66.6676	1866.21	65.6821	1866.21	61.5778	1866.21	64.2719	1866.21	49.4955	1866.21	61.5664	1866.21	51.6418	1866.21	57.4338	1866.21	61.6926	1866.21	60.1657	1866.21	64.0548	1866.21	63.5014	1866.21	63.2362
1932.13	82.3623	1932.13	81.764	1932.13	81.8207	1932.13	79.6663	1932.13	79.0078	1932.13	74.7249	1932.13	72.9038	1932.13	65.9183	1932.13	62.1632	1932.13	60.3712	1932.13	68.7873	1932.13	63.5261	1932.13	71.5738	1932.13	64.1138	1932.13	72.5788	1932.13	61.3001	1932.13	71.8662	1932.13	52.4429	1932.13	69.6993	1932.13	55.3615	1932.13	68.7115	1932.13	59.317	1932.13	66.1113	1932.13	64.6834	1932.13	64.2966	1932.13	63.9288	1932.13	64.2593	1932.13	55.0396	1932.13	56.3581	1932.13	47.2526	1932.13	54.1022	1932.13	57.037	1932.13	60.3279	1932.13	63.9274	1932.13	64.7892	1932.13	63.7946
1999.51	81.9081	1999.51	81.8023	1999.51	81.1883	1999.51	79.2797	1999.51	78.889	1999.51	72.3456	1999.51	73.0033	1999.51	55.6625	1999.51	61.4108	1999.51	59.0307	1999.51	70.5167	1999.51	62.8714	1999.51	72.4159	1999.51	64.3975	1999.51	72.8136	1999.51	65.3516	1999.51	71.8069	1999.51	63.9568	1999.51	70.802	1999.51	60.3061	1999.51	67.6899	1999.51	57.6368	1999.51	65.4114	1999.51	61.3016	1999.51	65.2191	1999.51	64.4764	1999.51	63.0937	1999.51	58.561	1999.51	55.3014	1999.51	50.8375	1999.51	52.9664	1999.51	51.5232	1999.51	61.1641	1999.51	62.8258	1999.51	64.4242	1999.51	61.8818
2069.82	82.1781	2069.82	81.8465	2069.82	80.5452	2069.82	77.9323	2069.82	77.6721	2069.82	70.6272	2069.82	71.703	2069.82	59.289	2069.82	59.2997	2069.82	61.2626	2069.82	72.6642	2069.82	65.0596	2069.82	73.4374	2069.82	65.6642	2069.82	72.5546	2069.82	66.5947	2069.82	71.7179	2069.82	66.5786	2069.82	69.2247	2069.82	67.833	2069.82	67.0016	2069.82	68.2065	2069.82	65.8823	2069.82	62.5581	2069.82	62.127	2069.82	60.2801	2069.82	60.9214	2069.82	65.0948	2069.82	47.3111	2069.82	45.4021	2069.82	49.7248	2069.82	47.1123	2069.82	60.7525	2069.82	63.927	2069.82	65.1278	2069.82	64.0054
2143.07	82.8158	2143.07	81.7644	2143.07	81.3912	2143.07	77.1693	2143.07	77.565	2143.07	70.3057	2143.07	69.3981	2143.07	57.3217	2143.07	64.2587	2143.07	64.6718	2143.07	73.5122	2143.07	68.7793	2143.07	74.1175	2143.07	70.5257	2143.07	73.3238	2143.07	70.4639	2143.07	71.981	2143.07	70.1703	2143.07	72.0131	2143.07	66.9948	2143.07	70.2617	2143.07	67.1669	2143.07	61.4555	2143.07	70.2174	2143.07	63.9511	2143.07	60.7914	2143.07	62.3578	2143.07	64.8308	2143.07	50.1936	2143.07	58.2585	2143.07	54.1937	2143.07	58.2783	2143.07	62.8628	2143.07	58.695	2143.07	62.9236	2143.07	63.7027
2219.24	82.5067	2219.24	81.1209	2219.24	81.0919	2219.24	77.3614	2219.24	78.4221	2219.24	69.9935	2219.24	68.189	2219.24	64.5635	2219.24	68.5039	2219.24	70.8907	2219.24	74.0484	2219.24	72.7988	2219.24	76.0608	2219.24	73.0394	2219.24	73.7929	2219.24	71.3993	2219.24	72.1569	2219.24	67.5391	2219.24	70.2674	2219.24	69.0959	2219.24	67.6139	2219.24	65.8459	2219.24	67.4851	2219.24	68.6681	2219.24	66.1652	2219.24	65.6948	2219.24	66.7778	2219.24	65.6981	2219.24	56.8575	2219.24	62.5991	2219.24	54.172	2219.24	54.798	2219.24	61.4935	2219.24	59.7668	2219.24	63.3808	2219.24	64.9975
2296.88	82.311	2296.88	81.1105	2296.88	79.8021	2296.88	77.0135	2296.88	76.8102	2296.88	69.6338	2296.88	70.057	2296.88	70.3336	2296.88	70.8935	2296.88	72.4135	2296.88	75.0499	2296.88	73.6101	2296.88	75.1359	2296.88	71.7124	2296.88	74.6508	2296.88	68.8736	2296.88	71.8648	2296.88	67.6874	2296.88	70.3039	2296.88	64.4379	2296.88	72.0574	2296.88	60.2375	2296.88	65.6805	2296.88	67.2761	2296.88	65.7016	2296.88	66.8777	2296.88	66.9584	2296.88	65.662	2296.88	57.3057	2296.88	65.6339	2296.88	56.9549	2296.88	54.7789	2296.88	63.5676	2296.88	60.1774	2296.88	60.1956	2296.88	64.0024
2378.91	82.8914	2378.91	81.2495	2378.91	81.2194	2378.91	76.4486	2378.91	75.6539	2378.91	72.0824	2378.91	71.8911	2378.91	70.532	2378.91	70.1595	2378.91	73.4761	2378.91	76.5878	2378.91	73.127	2378.91	76.4916	2378.91	72.6417	2378.91	73.9023	2378.91	73.3215	2378.91	71.9324	2378.91	71.3685	2378.91	71.4944	2378.91	71.352	2378.91	70.5998	2378.91	70.2765	2378.91	65.8448	2378.91	66.1065	2378.91	65.5465	2378.91	66.5605	2378.91	66.4396	2378.91	67.7981	2378.91	59.6709	2378.91	63.816	2378.91	55.5646	2378.91	57.2347	2378.91	57.9953	2378.91	62.0389	2378.91	60.5282	2378.91	66.5797
2462.4	82.6964	2462.4	81.2531	2462.4	81.6565	2462.4	76.9959	2462.4	76.549	2462.4	73.2881	2462.4	71.2333	2462.4	73.0357	2462.4	72.165	2462.4	75.9008	2462.4	76.7665	2462.4	75.2687	2462.4	77.4656	2462.4	73.4977	2462.4	75.6944	2462.4	72.0947	2462.4	71.9607	2462.4	71.4571	2462.4	69.9436	2462.4	69.6826	2462.4	70.5107	2462.4	65.0727	2462.4	67.6469	2462.4	68.415	2462.4	62.6772	2462.4	66.4604	2462.4	67.3943	2462.4	66.2358	2462.4	62.796	2462.4	66.2282	2462.4	50.0073	2462.4	60.3305	2462.4	61.3361	2462.4	60.9119	2462.4	63.008	2462.4	66.2758
2548.83	82.6002	2548.83	80.8651	2548.83	80.8431	2548.83	77.615	2548.83	77.3451	2548.83	73.8099	2548.83	71.7404	2548.83	75.8256	2548.83	73.5174	2548.83	76.0983	2548.83	77.3652	2548.83	75.208	2548.83	77.7475	2548.83	73.1896	2548.83	75.9027	2548.83	71.8801	2548.83	73.3343	2548.83	69.8119	2548.83	71.4276	2548.83	68.0551	2548.83	71.445	2548.83	68.19	2548.83	67.7714	2548.83	67.8511	2548.83	64.142	2548.83	66.8343	2548.83	65.7671	2548.83	67.8972	2548.83	61.4866	2548.83	64.7857	2548.83	53.6237	2548.83	62.8469	2548.83	61.4524	2548.83	60.4144	2548.83	62.3312	2548.83	65.8903
2639.65	82.6189	2639.65	80.8427	2639.65	81.1235	2639.65	77.5939	2639.65	76.309	2639.65	75.3018	2639.65	73.3618	2639.65	76.6302	2639.65	73.6154	2639.65	76.7812	2639.65	77.487	2639.65	75.2612	2639.65	78.1871	2639.65	73.825	2639.65	76.4366	2639.65	72.1118	2639.65	72.4855	2639.65	70.788	2639.65	68.5299	2639.65	69.5326	2639.65	65.875	2639.65	66.1226	2639.65	66.3847	2639.65	67.1402	2639.65	61.1544	2639.65	67.3664	2639.65	67.0088	2639.65	67.1721	2639.65	62.9242	2639.65	67.2095	2639.65	51.2216	2639.65	61.3406	2639.65	61.4974	2639.65	61.6173	2639.65	62.7369	2639.65	65.9368
2731.93	82.8015	2731.93	81.2492	2731.93	81.6879	2731.93	78.2323	2731.93	77.122	2731.93	76.6229	2731.93	73.7054	2731.93	77.4483	2731.93	74.5869	2731.93	76.9712	2731.93	77.6526	2731.93	75.0224	2731.93	78.1281	2731.93	73.0679	2731.93	76.4422	2731.93	72.3234	2731.93	72.836	2731.93	71.3918	2731.93	69.8613	2731.93	68.0575	2731.93	70.5174	2731.93	66.3787	2731.93	68.1761	2731.93	67.1726	2731.93	66.3366	2731.93	67.2692	2731.93	62.9575	2731.93	67.2463	2731.93	60.2897	2731.93	65.8314	2731.93	53.4186	2731.93	63.2706	2731.93	60.7924	2731.93	61.2799	2731.93	62.0478	2731.93	64.9725
2828.61	82.8148	2828.61	81.3716	2828.61	81.7775	2828.61	78.781	2828.61	77.948	2828.61	77.786	2828.61	74.281	2828.61	78.5487	2828.61	75.3046	2828.61	76.859	2828.61	77.8821	2828.61	74.9228	2828.61	78.9887	2828.61	74.0379	2828.61	77.3443	2828.61	71.4431	2828.61	73.6994	2828.61	68.8359	2828.61	71.9752	2828.61	69.5124	2828.61	72.0267	2828.61	69.0673	2828.61	69.3932	2828.61	66.2355	2828.61	67.4049	2828.61	68.7933	2828.61	68.6657	2828.61	66.5028	2828.61	62.5037	2828.61	67.6545	2828.61	58.4245	2828.61	62.0655	2828.61	62.6812	2828.61	62.4312	2828.61	64.366	2828.61	65.3232
2928.22	81.9907	2928.22	81.0096	2928.22	81.545	2928.22	78.7904	2928.22	77.4621	2928.22	78.8006	2928.22	76.6951	2928.22	78.917	2928.22	74.7417	2928.22	77.3573	2928.22	78.3714	2928.22	76.2529	2928.22	78.8685	2928.22	74.6751	2928.22	77.1532	2928.22	73.3582	2928.22	72.6207	2928.22	72.23	2928.22	69.2565	2928.22	69.7257	2928.22	69.264	2928.22	68.3329	2928.22	69.3752	2928.22	66.0034	2928.22	67.813	2928.22	68.6722	2928.22	65.3819	2928.22	68.4101	2928.22	63.7766	2928.22	66.3143	2928.22	57.146	2928.22	64.1358	2928.22	61.2829	2928.22	63.0933	2928.22	61.3986	2928.22	62.6786
3030.76	82.591	3030.76	82.0459	3030.76	81.9869	3030.76	79.8677	3030.76	77.7283	3030.76	79.9668	3030.76	77.0914	3030.76	78.7805	3030.76	76.0865	3030.76	78.079	3030.76	78.2752	3030.76	76.0264	3030.76	79.3364	3030.76	74.3188	3030.76	77.3702	3030.76	72.4174	3030.76	72.5087	3030.76	69.1493	3030.76	71.2973	3030.76	67.1028	3030.76	73.7602	3030.76	68.2098	3030.76	71.5572	3030.76	66.6735	3030.76	68.314	3030.76	67.8126	3030.76	64.0567	3030.76	67.3971	3030.76	66.0129	3030.76	67.1502	3030.76	58.4581	3030.76	64.76	3030.76	62.5957	3030.76	62.7044	3030.76	63.6852	3030.76	64.9044
3137.7	82.1108	3137.7	81.6144	3137.7	81.2955	3137.7	80.3935	3137.7	78.7068	3137.7	80.232	3137.7	77.0608	3137.7	79.4739	3137.7	77.4052	3137.7	78.2886	3137.7	77.4434	3137.7	76.2826	3137.7	79.3645	3137.7	74.4335	3137.7	77.3668	3137.7	72.1324	3137.7	72.4719	3137.7	69.2331	3137.7	70.855	3137.7	68.5487	3137.7	73.2704	3137.7	68.2248	3137.7	71.7096	3137.7	66.3337	3137.7	69.7081	3137.7	68.7314	3137.7	64.417	3137.7	67.0688	3137.7	65.7972	3137.7	67.4466	3137.7	57.2675	3137.7	64.5839	3137.7	61.5062	3137.7	63.4664	3137.7	63.5714	3137.7	62.7771
3249.02	82.4324	3249.02	81.7869	3249.02	81.2603	3249.02	80.8744	3249.02	79.1036	3249.02	80.2671	3249.02	77.0631	3249.02	79.7848	3249.02	78.1627	3249.02	78.4904	3249.02	77.3993	3249.02	76.1187	3249.02	78.6143	3249.02	74.1332	3249.02	77.5157	3249.02	72.9586	3249.02	71.3844	3249.02	70.4781	3249.02	70.0455	3249.02	68.018	3249.02	72.0065	3249.02	67.4193	3249.02	70.6018	3249.02	65.3744	3249.02	70.3373	3249.02	67.912	3249.02	67.2429	3249.02	66.5894	3249.02	67.2421	3249.02	66.9257	3249.02	59.3626	3249.02	65.0606	3249.02	62.1921	3249.02	62.6703	3249.02	63.7509	3249.02	62.368
3363.28	82.3489	3363.28	82.0454	3363.28	80.9301	3363.28	81.3266	3363.28	79.7771	3363.28	80.7461	3363.28	77.8223	3363.28	80.2603	3363.28	78.506	3363.28	78.3139	3363.28	78.1436	3363.28	75.9032	3363.28	78.5209	3363.28	74.2275	3363.28	77.4629	3363.28	72.1345	3363.28	72.5939	3363.28	69.7966	3363.28	72.3355	3363.28	66.9125	3363.28	69.7609	3363.28	67.2834	3363.28	68.0221	3363.28	63.8298	3363.28	68.5264	3363.28	67.4463	3363.28	68.0108	3363.28	65.1232	3363.28	67.0613	3363.28	67.4672	3363.28	58.601	3363.28	62.5411	3363.28	63.063	3363.28	62.4307	3363.28	60.8495	3363.28	62.3725
3481.93	82.3592	3481.93	81.9992	3481.93	81.0008	3481.93	81.1429	3481.93	79.7805	3481.93	80.8935	3481.93	78.5443	3481.93	80.491	3481.93	78.7516	3481.93	78.2524	3481.93	78.1021	3481.93	76.0823	3481.93	78.7155	3481.93	74.0516	3481.93	77.2966	3481.93	71.4734	3481.93	72.227	3481.93	68.2341	3481.93	72.4275	3481.93	66.0023	3481.93	69.3394	3481.93	65.9358	3481.93	63.8508	3481.93	64.2978	3481.93	71.2128	3481.93	65.476	3481.93	67.0295	3481.93	63.4043	3481.93	67.4588	3481.93	66.3803	3481.93	60.1602	3481.93	62.8628	3481.93	61.0862	3481.93	62.1914	3481.93	62.8184	3481.93	61.0175
3604.98	82.6073	3604.98	82.2709	3604.98	81.1323	3604.98	81.6945	3604.98	80.3771	3604.98	81.1522	3604.98	79.2803	3604.98	80.2615	3604.98	78.5251	3604.98	77.8097	3604.98	78.5433	3604.98	75.574	3604.98	78.6655	3604.98	73.8013	3604.98	77.701	3604.98	71.4911	3604.98	72.0754	3604.98	67.0704	3604.98	71.0916	3604.98	65.7412	3604.98	66.5375	3604.98	65.3179	3604.98	64.8794	3604.98	62.8976	3604.98	72.9859	3604.98	64.8302	3604.98	68.6434	3604.98	62.195	3604.98	67.9241	3604.98	65.8132	3604.98	59.9589	3604.98	61.5932	3604.98	58.8699	3604.98	59.6132	3604.98	61.7423	3604.98	62.2457
3732.42	82.6848	3732.42	82.4102	3732.42	81.2067	3732.42	81.2202	3732.42	80.2782	3732.42	81.5588	3732.42	79.6555	3732.42	79.5712	3732.42	78.7788	3732.42	78.1676	3732.42	77.4859	3732.42	75.5539	3732.42	78.4062	3732.42	73.3325	3732.42	78.5041	3732.42	70.3989	3732.42	74.1804	3732.42	67.7256	3732.42	72.3473	3732.42	67.4915	3732.42	58.2795	3732.42	64.7988	3732.42	59.65	3732.42	62.663	3732.42	70.6974	3732.42	64.3488	3732.42	69.9814	3732.42	62.8691	3732.42	69.25	3732.42	65.586	3732.42	57.9471	3732.42	58.4884	3732.42	59.1247	3732.42	60.1378	3732.42	61.2918	3732.42	60.5998
3864.26	82.575	3864.26	82.7539	3864.26	81.4225	3864.26	81.6002	3864.26	80.9881	3864.26	81.1116	3864.26	79.7412	3864.26	80.0742	3864.26	79.2514	3864.26	77.4612	3864.26	76.9398	3864.26	75.3024	3864.26	78.2543	3864.26	74.2617	3864.26	78.1588	3864.26	72.1212	3864.26	75.9587	3864.26	69.614	3864.26	74.5141	3864.26	67.3689	3864.26	64.066	3864.26	64.0468	3864.26	56.2118	3864.26	64.2664	3864.26	72.0104	3864.26	63.7557	3864.26	70.0972	3864.26	63.6784	3864.26	68.9588	3864.26	65.3163	3864.26	61.4429	3864.26	59.3534	3864.26	58.8105	3864.26	60.907	3864.26	59.6646	3864.26	59.4729
4000.49	82.4981	4000.49	82.1807	4000.49	81.7404	4000.49	81.4449	4000.49	80.7899	4000.49	80.8503	4000.49	80.1658	4000.49	80.1217	4000.49	79.2892	4000.49	77.3575	4000.49	76.8262	4000.49	75.9646	4000.49	77.6043	4000.49	74.4517	4000.49	77.5159	4000.49	71.351	4000.49	73.4231	4000.49	68.7052	4000.49	72.3269	4000.49	67.0202	4000.49	62.1135	4000.49	63.8596	4000.49	59.7875	4000.49	62.5145	4000.49	71.6919	4000.49	63.9333	4000.49	68.0586	4000.49	62.8642	4000.49	69.2588	4000.49	64.7328	4000.49	61.3801	4000.49	60.2234	4000.49	60.595	4000.49	59.0487	4000.49	58.4081	4000.49	60.6725
4141.11	82.698	4141.11	82.1532	4141.11	81.8038	4141.11	81.7814	4141.11	80.7994	4141.11	81.1481	4141.11	80.7794	4141.11	79.4815	4141.11	79.1669	4141.11	77.8053	4141.11	76.1484	4141.11	76.1018	4141.11	77.8034	4141.11	73.8129	4141.11	76.8328	4141.11	70.6503	4141.11	73.599	4141.11	68.7431	4141.11	71.0409	4141.11	65.6561	4141.11	58.8659	4141.11	61.5513	4141.11	62.7915	4141.11	64.0872	4141.11	72.3056	4141.11	61.9026	4141.11	70.973	4141.11	61.9238	4141.11	68.3594	4141.11	63.2857	4141.11	61.6345	4141.11	59.9394	4141.11	57.6987	4141.11	57.4451	4141.11	60.248	4141.11	60.5562
4287.6	82.423	4287.6	81.7737	4287.6	81.64	4287.6	81.2389	4287.6	80.7551	4287.6	81.3972	4287.6	80.8645	4287.6	79.5344	4287.6	78.8917	4287.6	77.5671	4287.6	75.6143	4287.6	75.6322	4287.6	76.4685	4287.6	73.7029	4287.6	76.6585	4287.6	70.0117	4287.6	71.687	4287.6	68.3116	4287.6	67.5991	4287.6	66.4118	4287.6	58.657	4287.6	62.197	4287.6	65.9473	4287.6	62.7098	4287.6	75.1348	4287.6	60.7527	4287.6	70.9322	4287.6	61.3992	4287.6	66.9219	4287.6	63.9785	4287.6	62.025	4287.6	59.1406	4287.6	58.099	4287.6	56.8585	4287.6	57.5027	4287.6	59.7943
4438.48	82.7563	4438.48	81.7564	4438.48	81.5334	4438.48	81.81	4438.48	81.006	4438.48	81.4076	4438.48	80.882	4438.48	79.2313	4438.48	78.7581	4438.48	77.2562	4438.48	75.5447	4438.48	75.4455	4438.48	76.2649	4438.48	73.325	4438.48	75.6275	4438.48	70.6781	4438.48	70.7804	4438.48	68.0458	4438.48	70.4704	4438.48	65.3462	4438.48	48.863	4438.48	62.9331	4438.48	69.873	4438.48	61.5626	4438.48	76.351	4438.48	59.8664	4438.48	71.6411	4438.48	62.3521	4438.48	64.3515	4438.48	63.2848	4438.48	61.6856	4438.48	58.3496	4438.48	58.2138	4438.48	58.675	4438.48	56.2312	4438.48	58.1261
4595.21	82.5893	4595.21	81.8524	4595.21	81.3321	4595.21	81.4108	4595.21	80.9172	4595.21	80.8456	4595.21	81.0381	4595.21	79.3565	4595.21	78.038	4595.21	77.0294	4595.21	76.2518	4595.21	75.3869	4595.21	75.9311	4595.21	73.4511	4595.21	75.6538	4595.21	68.9726	4595.21	70.1054	4595.21	67.8343	4595.21	71.6879	4595.21	64.3967	4595.21	53.7001	4595.21	61.6902	4595.21	70.4051	4595.21	61.1989	4595.21	76.7686	4595.21	56.9501	4595.21	70.9173	4595.21	61.2134	4595.21	64.3258	4595.21	62.9946	4595.21	63.0837	4595.21	57.5263	4595.21	56.1603	4595.21	55.1238	4595.21	56.8619	4595.21	58.5889
4756.35	82.2467	4756.35	81.5493	4756.35	81.7453	4756.35	81.6419	4756.35	80.6186	4756.35	80.7354	4756.35	80.7879	4756.35	79.0381	4756.35	77.6881	4756.35	76.6805	4756.35	74.9361	4756.35	75.4321	4756.35	74.4683	4756.35	72.3093	4756.35	75.159	4756.35	68.5157	4756.35	71.1156	4756.35	65.9871	4756.35	69.9083	4756.35	64.1706	4756.35	58.12	4756.35	62.4645	4756.35	68.2046	4756.35	58.3963	4756.35	77.7285	4756.35	55.6895	4756.35	72.107	4756.35	61.0448	4756.35	59.6058	4756.35	61.5811	4756.35	60.6141	4756.35	56.0808	4756.35	53.72	4756.35	54.9315	4756.35	57.02	4756.35	57.9886
4924.8	82.2869	4924.8	81.9563	4924.8	81.519	4924.8	81.7407	4924.8	80.942	4924.8	80.4008	4924.8	80.8914	4924.8	78.5328	4924.8	77.0935	4924.8	77.1235	4924.8	74.6508	4924.8	74.2969	4924.8	74.7811	4924.8	71.8926	4924.8	75.5412	4924.8	69.3574	4924.8	72.8739	4924.8	66.7208	4924.8	67.4883	4924.8	63.7617	4924.8	57.9849	4924.8	61.3742	4924.8	70.5668	4924.8	58.6338	4924.8	79.0894	4924.8	55.1473	4924.8	71.7718	4924.8	60.9646	4924.8	51.8871	4924.8	62.2424	4924.8	58.4188	4924.8	57.1161	4924.8	52.5264	4924.8	54.4221	4924.8	57.8255	4924.8	55.8225
5097.66	82.1763	5097.66	81.9212	5097.66	81.9174	5097.66	81.3902	5097.66	80.5689	5097.66	80.2836	5097.66	80.3688	5097.66	78.91	5097.66	77.7357	5097.66	75.9574	5097.66	73.9488	5097.66	74.562	5097.66	74.3129	5097.66	72.1909	5097.66	75.5041	5097.66	67.8073	5097.66	72.5159	5097.66	66.1164	5097.66	65.7583	5097.66	62.749	5097.66	59.3631	5097.66	62.5444	5097.66	72.8337	5097.66	58.0093	5097.66	79.5162	5097.66	54.1151	5097.66	71.7501	5097.66	60.9105	5097.66	58.9067	5097.66	60.5364	5097.66	58.6152	5097.66	56.6172	5097.66	50.638	5097.66	50.1395	5097.66	55.6537	5097.66	56.4496
5277.83	81.854	5277.83	81.7828	5277.83	82.0847	5277.83	81.1777	5277.83	80.8992	5277.83	80.3948	5277.83	79.7394	5277.83	78.5766	5277.83	77.1308	5277.83	75.7822	5277.83	73.4338	5277.83	74.5236	5277.83	73.5468	5277.83	70.974	5277.83	75.1716	5277.83	68.4432	5277.83	71.7139	5277.83	65.4547	5277.83	66.5241	5277.83	63.8765	5277.83	62.0997	5277.83	61.3059	5277.83	73.2288	5277.83	56.7976	5277.83	80.1853	5277.83	55.7933	5277.83	73.5212	5277.83	60.5548	5277.83	62.275	5277.83	61.8404	5277.83	59.297	5277.83	55.8123	5277.83	52.7917	5277.83	51.0636	5277.83	56.6001	5277.83	55.5137
5463.87	82.4502	5463.87	81.9687	5463.87	82.0372	5463.87	81.0926	5463.87	80.5243	5463.87	80.2988	5463.87	79.807	5463.87	78.2197	5463.87	77.1622	5463.87	76.0491	5463.87	72.3503	5463.87	73.8668	5463.87	72.5856	5463.87	71.1786	5463.87	74.228	5463.87	68.9354	5463.87	71.0405	5463.87	66.3774	5463.87	66.3748	5463.87	61.9822	5463.87	65.1512	5463.87	62.4314	5463.87	74.0515	5463.87	57.3452	5463.87	80.0157	5463.87	58.0931	5463.87	73.5516	5463.87	60.2902	5463.87	63.2273	5463.87	59.8981	5463.87	58.2743	5463.87	55.8107	5463.87	54.5863	5463.87	47.8617	5463.87	54.6366	5463.87	52.4937
5657.23	82.3207	5657.23	81.6074	5657.23	81.8016	5657.23	80.9988	5657.23	80.8193	5657.23	80.1895	5657.23	79.2171	5657.23	78.0281	5657.23	76.8294	5657.23	75.3478	5657.23	73.5084	5657.23	74.0707	5657.23	71.2162	5657.23	71.5422	5657.23	73.9779	5657.23	69.0483	5657.23	71.0209	5657.23	66.5233	5657.23	63.9443	5657.23	62.6325	5657.23	63.5884	5657.23	61.7111	5657.23	73.9415	5657.23	57.2014	5657.23	80.5253	5657.23	58.6625	5657.23	73.1655	5657.23	60.5469	5657.23	64.0776	5657.23	60.0569	5657.23	56.6059	5657.23	55.1177	5657.23	55.0655	5657.23	47.7993	5657.23	53.9786	5657.23	55.677
5856.45	82.1303	5856.45	81.3376	5856.45	82.065	5856.45	81.1114	5856.45	80.2888	5856.45	79.903	5856.45	79.0522	5856.45	77.6319	5856.45	76.8087	5856.45	75.3097	5856.45	73.7259	5856.45	74.4353	5856.45	70.1692	5856.45	71.2399	5856.45	73.356	5856.45	68.7606	5856.45	70.2475	5856.45	65.2104	5856.45	66.105	5856.45	63.2484	5856.45	65.9616	5856.45	59.8368	5856.45	74.1721	5856.45	57.1708	5856.45	80.3114	5856.45	57.942	5856.45	72.8603	5856.45	58.6092	5856.45	64.1845	5856.45	57.7355	5856.45	54.4324	5856.45	54.9926	5856.45	52.9728	5856.45	45.93	5856.45	49.8053	5856.45	53.8711
6062.99	82.2063	6062.99	81.4099	6062.99	81.9687	6062.99	81.1128	6062.99	80.5733	6062.99	79.5059	6062.99	78.4339	6062.99	77.3206	6062.99	76.3647	6062.99	75.7263	6062.99	74.186	6062.99	74.1187	6062.99	70.2544	6062.99	71.1149	6062.99	72.04	6062.99	68.1478	6062.99	69.5719	6062.99	65.6266	6062.99	58.1633	6062.99	61.5676	6062.99	64.5536	6062.99	58.4943	6062.99	73.8116	6062.99	56.1298	6062.99	80.0922	6062.99	57.9072	6062.99	72.1514	6062.99	57.2603	6062.99	64.7723	6062.99	54.295	6062.99	53.6203	6062.99	52.1961	6062.99	54.2885	6062.99	42.7148	6062.99	51.5007	6062.99	52.5565
6276.86	82.2419	6276.86	81.809	6276.86	81.9456	6276.86	81.1568	6276.86	80.657	6276.86	79.2125	6276.86	78.2543	6276.86	76.9615	6276.86	76.6996	6276.86	75.4323	6276.86	74.1369	6276.86	73.9914	6276.86	68.6916	6276.86	70.0441	6276.86	72.0131	6276.86	67.7887	6276.86	69.1384	6276.86	63.3547	6276.86	63.0784	6276.86	63.5061	6276.86	66.5842	6276.86	58.0195	6276.86	73.6277	6276.86	57.467	6276.86	79.7995	6276.86	55.8059	6276.86	70.3996	6276.86	56.1429	6276.86	64.2353	6276.86	52.3216	6276.86	50.9057	6276.86	49.5568	6276.86	52.5852	6276.86	47.3704	6276.86	53.6032	6276.86	55.7042
6498.05	82.7985	6498.05	82.2051	6498.05	82.1906	6498.05	80.9952	6498.05	80.4645	6498.05	79.1717	6498.05	77.8685	6498.05	77.2564	6498.05	77.6433	6498.05	75.4168	6498.05	73.7506	6498.05	73.5998	6498.05	68.2684	6498.05	70.0046	6498.05	72.1204	6498.05	68.5785	6498.05	70.3986	6498.05	65.9512	6498.05	63.7817	6498.05	61.7931	6498.05	64.7669	6498.05	58.8115	6498.05	74.096	6498.05	58.8089	6498.05	79.1408	6498.05	56.2325	6498.05	69.6506	6498.05	54.8165	6498.05	64.3913	6498.05	53.7348	6498.05	45.4153	6498.05	51.8877	6498.05	48.3147	6498.05	42.1108	6498.05	49.0374	6498.05	53.9059
6726.56	82.9964	6726.56	82.2029	6726.56	81.9524	6726.56	80.9267	6726.56	80.6865	6726.56	78.878	6726.56	77.8595	6726.56	76.9111	6726.56	77.7073	6726.56	75.1817	6726.56	73.7201	6726.56	74.0575	6726.56	70.4361	6726.56	70.8304	6726.56	73.3127	6726.56	68.4867	6726.56	71.2496	6726.56	64.6365	6726.56	64.7259	6726.56	62.246	6726.56	66.9216	6726.56	58.5045	6726.56	74.4074	6726.56	56.9748	6726.56	78.3892	6726.56	53.8207	6726.56	67.6236	6726.56	52.4908	6726.56	60.7844	6726.56	49.5006	6726.56	38.2846	6726.56	49.4414	6726.56	48.4827	6726.56	48.1556	6726.56	49.3692	6726.56	54.2503
6963.87	82.6997	6963.87	82.1737	6963.87	82.0451	6963.87	80.786	6963.87	80.7058	6963.87	78.5292	6963.87	77.9762	6963.87	76.6446	6963.87	77.3813	6963.87	74.7887	6963.87	73.6553	6963.87	74.1836	6963.87	69.9756	6963.87	70.5254	6963.87	73.2282	6963.87	67.7696	6963.87	71.365	6963.87	66.1656	6963.87	62.6915	6963.87	62.1202	6963.87	66.8573	6963.87	59.5169	6963.87	74.5207	6963.87	57.1736	6963.87	77.4931	6963.87	52.067	6963.87	66.3543	6963.87	50.01	6963.87	58.3718	6963.87	46.6117	6963.87	45.3939	6963.87	47.5686	6963.87	53.6968	6963.87	46.8845	6963.87	49.6556	6963.87	52.7527
7209.96	83.1094	7209.96	82.4696	7209.96	82.4474	7209.96	80.5909	7209.96	80.484	7209.96	78.3795	7209.96	77.8442	7209.96	76.3942	7209.96	77.5908	7209.96	75.098	7209.96	73.6389	7209.96	73.9043	7209.96	66.348	7209.96	70.4391	7209.96	71.693	7209.96	67.4679	7209.96	69.5513	7209.96	64.3478	7209.96	57.7355	7209.96	62.1403	7209.96	65.435	7209.96	59.4548	7209.96	73.1687	7209.96	57.9299	7209.96	75.676	7209.96	53.7291	7209.96	62.9736	7209.96	51.4758	7209.96	56.9741	7209.96	49.212	7209.96	49.0215	7209.96	43.8008	7209.96	50.1419	7209.96	42.6498	7209.96	49.3105	7209.96	52.3264
7464.84	83.226	7464.84	82.3917	7464.84	82.3501	7464.84	80.2713	7464.84	80.781	7464.84	78.598	7464.84	78.408	7464.84	76.2476	7464.84	76.8318	7464.84	75.2295	7464.84	74.4322	7464.84	73.9614	7464.84	65.174	7464.84	70.032	7464.84	70.1562	7464.84	67.6608	7464.84	67.4996	7464.84	63.9876	7464.84	56.9673	7464.84	61.2618	7464.84	66.1917	7464.84	59.6163	7464.84	72.261	7464.84	57.9597	7464.84	72.9669	7464.84	54.8221	7464.84	60.503	7464.84	52.4557	7464.84	55.9397	7464.84	50.1618	7464.84	51.9337	7464.84	48.0023	7464.84	45.807	7464.84	45.5512	7464.84	52.3328	7464.84	53.085
7727.05	83.0577	7727.05	82.2581	7727.05	82.3656	7727.05	80.3256	7727.05	80.8718	7727.05	78.6542	7727.05	78.7082	7727.05	76.7592	7727.05	76.4068	7727.05	75.2386	7727.05	74.6988	7727.05	73.2625	7727.05	67.0186	7727.05	69.1652	7727.05	68.6238	7727.05	65.906	7727.05	67.3504	7727.05	62.61	7727.05	61.2018	7727.05	60.2068	7727.05	66.5191	7727.05	57.7743	7727.05	71.203	7727.05	56.9201	7727.05	70.0165	7727.05	53.3875	7727.05	56.5415	7727.05	51.0322	7727.05	54.502	7727.05	49.3517	7727.05	51.4815	7727.05	46.0298	7727.05	48.6022	7727.05	43.948	7727.05	50.9097	7727.05	52.6016
7999.51	83.0636	7999.51	82.3641	7999.51	82.1022	7999.51	80.793	7999.51	80.4316	7999.51	78.6361	7999.51	79.1194	7999.51	77.2605	7999.51	76.5036	7999.51	75.1609	7999.51	74.3842	7999.51	72.6954	7999.51	68.2103	7999.51	68.6453	7999.51	68.4953	7999.51	66.0238	7999.51	69.1146	7999.51	63.0928	7999.51	61.7293	7999.51	59.9122	7999.51	66.7706	7999.51	58.5596	7999.51	70.4154	7999.51	58.1196	7999.51	69.1618	7999.51	54.9655	7999.51	58.5853	7999.51	52.2298	7999.51	52.9556	7999.51	50.654	7999.51	48.2851	7999.51	45.8176	7999.51	48.0718	7999.51	46.9388	7999.51	52.8762	7999.51	52.8409
8282.23	82.8096	8282.23	82.3705	8282.23	81.9616	8282.23	80.906	8282.23	80.324	8282.23	78.8221	8282.23	79.2045	8282.23	77.1465	8282.23	76.4076	8282.23	75.2899	8282.23	75.0733	8282.23	72.2595	8282.23	69.2528	8282.23	69.786	8282.23	70.7911	8282.23	66.6071	8282.23	70.9502	8282.23	63.0389	8282.23	62.2671	8282.23	59.4143	8282.23	66.6014	8282.23	58.9394	8282.23	70.2736	8282.23	58.5024	8282.23	71.2653	8282.23	56.1806	8282.23	61.3812	8282.23	54.0569	8282.23	55.8748	8282.23	53.3905	8282.23	42.7318	8282.23	47.8245	8282.23	43.1699	8282.23	46.3985	8282.23	53.4749	8282.23	55.0049
8573.73	82.8235	8573.73	82.3045	8573.73	81.5497	8573.73	80.9101	8573.73	80.2806	8573.73	78.9632	8573.73	79.2916	8573.73	77.0192	8573.73	76.3279	8573.73	75.2885	8573.73	75.276	8573.73	72.2589	8573.73	69.5988	8573.73	69.8173	8573.73	71.0934	8573.73	66.1222	8573.73	69.522	8573.73	62.4401	8573.73	62.5241	8573.73	59.7764	8573.73	64.8433	8573.73	59.4953	8573.73	69.4921	8573.73	57.8957	8573.73	73.1789	8573.73	55.8893	8573.73	64.0681	8573.73	55.5081	8573.73	57.3406	8573.73	54.2741	8573.73	51.9048	8573.73	46.506	8573.73	41.2848	8573.73	45.4035	8573.73	54.4423	8573.73	54.7223
8876.95	82.7502	8876.95	82.3228	8876.95	81.3511	8876.95	80.6444	8876.95	80.3206	8876.95	78.8665	8876.95	79.4186	8876.95	77.098	8876.95	76.1834	8876.95	75.1763	8876.95	75.2608	8876.95	72.3437	8876.95	68.3566	8876.95	70.2837	8876.95	69.5754	8876.95	66.8163	8876.95	66.269	8876.95	62.9605	8876.95	62.3737	8876.95	61.2022	8876.95	61.9847	8876.95	60.1609	8876.95	68.84	8876.95	58.4835	8876.95	74.2433	8876.95	56.757	8876.95	63.0968	8876.95	56.8835	8876.95	57.1671	8876.95	56.5449	8876.95	52.5471	8876.95	49.9571	8876.95	49.2284	8876.95	46.7329	8876.95	55.6549	8876.95	54.7663
9188.96	82.6796	9188.96	82.4995	9188.96	81.3562	9188.96	80.4154	9188.96	80.4026	9188.96	78.9309	9188.96	79.6457	9188.96	76.5276	9188.96	76.3545	9188.96	75.4282	9188.96	76.1433	9188.96	72.4428	9188.96	69.195	9188.96	70.8225	9188.96	66.5011	9188.96	66.8924	9188.96	66.4837	9188.96	62.6038	9188.96	63.1163	9188.96	60.7989	9188.96	61.4186	9188.96	58.8876	9188.96	69.773	9188.96	56.7797	9188.96	74.3099	9188.96	56.3843	9188.96	64.2029	9188.96	56.6065	9188.96	55.9677	9188.96	57.3432	9188.96	50.1875	9188.96	50.176	9188.96	49.9499	9188.96	47.3274	9188.96	57.0572	9188.96	55.798
9514.16	82.5041	9514.16	82.6155	9514.16	81.3698	9514.16	80.7658	9514.16	80.4205	9514.16	79.0596	9514.16	79.837	9514.16	75.6024	9514.16	76.7089	9514.16	75.3805	9514.16	75.3337	9514.16	72.5834	9514.16	69.4677	9514.16	70.2163	9514.16	67.3738	9514.16	65.5618	9514.16	67.6224	9514.16	62.513	9514.16	60.9208	9514.16	59.6901	9514.16	58.8428	9514.16	56.1608	9514.16	68.4557	9514.16	53.7558	9514.16	73.4581	9514.16	54.7942	9514.16	63.0884	9514.16	56.3405	9514.16	57.087	9514.16	57.593	9514.16	53.5125	9514.16	48.9303	9514.16	50.4665	9514.16	46.7784	9514.16	55.7236	9514.16	54.7858
9849.61	82.2599	9849.61	82.7044	9849.61	81.3143	9849.61	81.5937	9849.61	80.5948	9849.61	78.9352	9849.61	79.4511	9849.61	75.7595	9849.61	77.2412	9849.61	75.4723	9849.61	75.0738	9849.61	72.6801	9849.61	69.8334	9849.61	69.6059	9849.61	64.9505	9849.61	66.5716	9849.61	65.3119	9849.61	62.2457	9849.61	61.9885	9849.61	58.5921	9849.61	64.2755	9849.61	55.2025	9849.61	70.2088	9849.61	53.3001	9849.61	70.9707	9849.61	54.2398	9849.61	58.2636	9849.61	53.5899	9849.61	48.7016	9849.61	56.6627	9849.61	42.5694	9849.61	50.6447	9849.61	51.7089	9849.61	44.1357	9849.61	41.2496	9849.61	49.1605
10196.8	82.253	10196.8	82.6777	10196.8	81.3397	10196.8	82.1247	10196.8	80.6603	10196.8	78.638	10196.8	79.6209	10196.8	75.2221	10196.8	77.436	10196.8	75.6962	10196.8	74.2377	10196.8	72.1491	10196.8	70.0284	10196.8	69.4324	10196.8	62.9041	10196.8	65.7075	10196.8	66.9077	10196.8	60.4402	10196.8	63.0862	10196.8	56.918	10196.8	62.6259	10196.8	52.4667	10196.8	70.289	10196.8	49.7337	10196.8	69.3388	10196.8	53.35	10196.8	57.6299	10196.8	53.3818	10196.8	44.4322	10196.8	56.6719	10196.8	41.0129	10196.8	49.6971	10196.8	52.1581	10196.8	44.5933	10196.8	42.2864	10196.8	47.9145
10555.7	82.1639	10555.7	83.0158	10555.7	81.379	10555.7	82.361	10555.7	80.5868	10555.7	78.8006	10555.7	79.5306	10555.7	75.2991	10555.7	77.1082	10555.7	75.8725	10555.7	74.088	10555.7	71.8871	10555.7	70.3857	10555.7	68.2259	10555.7	64.6228	10555.7	64.5886	10555.7	67.9748	10555.7	61.1457	10555.7	58.9961	10555.7	55.8622	10555.7	63.9335	10555.7	50.728	10555.7	70.3488	10555.7	47.5588	10555.7	69.5237	10555.7	51.5495	10555.7	58.2713	10555.7	53.6369	10555.7	44.164	10555.7	56.9851	10555.7	44.7284	10555.7	51.2855	10555.7	51.8936	10555.7	43.6049	10555.7	42.6901	10555.7	47.0702
10927.7	82.0451	10927.7	83.2057	10927.7	81.2734	10927.7	82.6033	10927.7	80.6595	10927.7	78.9817	10927.7	79.3242	10927.7	75.9833	10927.7	76.8608	10927.7	75.9122	10927.7	73.1151	10927.7	71.0382	10927.7	71.3501	10927.7	67.7847	10927.7	64.426	10927.7	64.5543	10927.7	64.5902	10927.7	59.8663	10927.7	57.5411	10927.7	56.2471	10927.7	63.0728	10927.7	49.6544	10927.7	70.425	10927.7	45.0976	10927.7	70.6547	10927.7	49.5419	10927.7	60.9059	10927.7	53.15	10927.7	48.335	10927.7	57.1861	10927.7	47.1632	10927.7	51.1006	10927.7	50.0413	10927.7	41.9098	10927.7	44.9588	10927.7	47.8343
11313	81.5254	11313	83.0911	11313	81.1932	11313	82.5692	11313	80.635	11313	79.279	11313	78.8981	11313	75.518	11313	76.1812	11313	75.8195	11313	73.5547	11313	70.042	11313	70.1845	11313	67.1972	11313	61.4883	11313	63.366	11313	58.0704	11313	59.5829	11313	54.5108	11313	55.9218	11313	61.5391	11313	52.2956	11313	70.8334	11313	48.8663	11313	71.4103	11313	43.948	11313	59.9814	11313	52.2339	11313	47.9088	11313	56.9935	11313	50.6784	11313	49.7842	11313	49.8861	11313	43.1166	11313	44.0307	11313	48.4419
11712.9	80.9354	11712.9	82.5052	11712.9	81.4043	11712.9	82.4194	11712.9	80.7303	11712.9	79.3311	11712.9	78.1588	11712.9	75.3565	11712.9	76.345	11712.9	75.03	11712.9	73.6707	11712.9	69.4911	11712.9	68.067	11712.9	65.889	11712.9	62.0825	11712.9	61.6102	11712.9	56.997	11712.9	58.785	11712.9	51.8565	11712.9	55.5464	11712.9	62.038	11712.9	53.9623	11712.9	70.0302	11712.9	51.4075	11712.9	71.8152	11712.9	40.5404	11712.9	61.2222	11712.9	52.0493	11712.9	52.1374	11712.9	56.617	11712.9	52.3086	11712.9	47.6763	11712.9	49.5014	11712.9	47.0468	11712.9	46.1997	11712.9	50.1631
12126	80.016	12126	81.5821	12126	81.7495	12126	82.1347	12126	80.7164	12126	79.1652	12126	77.2309	12126	75.2014	12126	76.5848	12126	74.2738	12126	73.0793	12126	67.5587	12126	66.3612	12126	64.144	12126	54.9244	12126	57.7171	12126	54.7662	12126	56.7876	12126	54.8024	12126	55.4838	12126	60.2577	12126	54.0631	12126	69.1545	12126	51.9424	12126	71.3817	12126	41.6272	12126	59.6822	12126	51.7917	12126	51.7765	12126	55.5493	12126	55.2041	12126	47.7882	12126	51.8473	12126	50.4958	12126	44.6334	12126	51.7203
12553.7	79.4926	12553.7	80.7404	12553.7	82.0122	12553.7	81.5589	12553.7	80.5343	12553.7	79.3679	12553.7	76.4325	12553.7	74.9175	12553.7	76.7798	12553.7	73.2711	12553.7	71.3568	12553.7	66.2556	12553.7	66.0096	12553.7	59.975	12553.7	59.8002	12553.7	54.7192	12553.7	55.9868	12553.7	56.285	12553.7	53.5124	12553.7	54.9312	12553.7	58.9614	12553.7	53.8024	12553.7	67.5455	12553.7	53.0154	12553.7	70.4432	12553.7	47.6272	12553.7	54.5325	12553.7	53.4466	12553.7	54.644	12553.7	55.804	12553.7	57.2957	12553.7	52.191	12553.7	53.3159	12553.7	53.4685	12553.7	45.2938	12553.7	52.8701
12996.1	80.7126	12996.1	81.0305	12996.1	82.4434	12996.1	81.0283	12996.1	80.2034	12996.1	79.8746	12996.1	76.651	12996.1	75.1745	12996.1	76.4112	12996.1	72.0624	12996.1	68.0788	12996.1	66.7532	12996.1	67.3655	12996.1	59.9762	12996.1	64.7684	12996.1	56.3677	12996.1	53.1923	12996.1	55.7174	12996.1	55.9634	12996.1	52.6623	12996.1	59.4245	12996.1	52.9548	12996.1	65.7718	12996.1	54.1727	12996.1	69.254	12996.1	52.2799	12996.1	52.0149	12996.1	55.0191	12996.1	55.7405	12996.1	57.1543	12996.1	57.9227	12996.1	56.4467	12996.1	53.8381	12996.1	55.1742	12996.1	49.7134	12996.1	55.1323
13454.6	82.622	13454.6	82.0942	13454.6	82.9673	13454.6	81.0559	13454.6	80.0321	13454.6	80.0714	13454.6	77.618	13454.6	74.9092	13454.6	75.6278	13454.6	72.2284	13454.6	66.8519	13454.6	68.4465	13454.6	68.8412	13454.6	62.0863	13454.6	65.8579	13454.6	58.4478	13454.6	55.8655	13454.6	55.0299	13454.6	53.6503	13454.6	49.9413	13454.6	60.1499	13454.6	49.2527	13454.6	63.5557	13454.6	53.5154	13454.6	66.5815	13454.6	55.2369	13454.6	52.1994	13454.6	55.6423	13454.6	55.9074	13454.6	57.0804	13454.6	57.9211	13454.6	58.1021	13454.6	50.8354	13454.6	55.1708	13454.6	52.8606	13454.6	55.7175
13929.2	83.2952	13929.2	82.8068	13929.2	82.572	13929.2	81.0079	13929.2	80.0761	13929.2	79.4479	13929.2	78.1896	13929.2	75.1432	13929.2	74.2198	13929.2	72.3497	13929.2	68.8493	13929.2	68.1504	13929.2	69.1244	13929.2	63.7349	13929.2	64.2669	13929.2	59.2821	13929.2	52.6671	13929.2	50.397	13929.2	39.4771	13929.2	45.9289	13929.2	59.8736	13929.2	38.744	13929.2	61.1143	13929.2	50.7152	13929.2	60.8686	13929.2	55.6216	13929.2	48.1891	13929.2	55.4036	13929.2	53.5971	13929.2	55.8954	13929.2	55.2013	13929.2	58.4029	13929.2	49.8164	13929.2	54.3315	13929.2	55.5837	13929.2	55.0687
14419.9	83.2635	14419.9	82.957	14419.9	82.024	14419.9	81.8885	14419.9	80.7768	14419.9	79.231	14419.9	78.6337	14419.9	75.4693	14419.9	73.8869	14419.9	72.6292	14419.9	70.9191	14419.9	67.6692	14419.9	68.8392	14419.9	64.8645	14419.9	63.14	14419.9	60.6729	14419.9	54.0009	14419.9	51.5546	14419.9	51.3981	14419.9	46.9432	14419.9	58.029	14419.9	39.4237	14419.9	61.3389	14419.9	44.4139	14419.9	58.1602	14419.9	53.7387	14419.9	50.7428	14419.9	53.371	14419.9	52.5492	14419.9	52.4681	14419.9	48.8101	14419.9	56.4445	14419.9	53.9154	14419.9	50.963	14419.9	55.8603	14419.9	50.8732
14928.2	83.2378	14928.2	83.0333	14928.2	81.9273	14928.2	82.4873	14928.2	81.2624	14928.2	79.4033	14928.2	78.5237	14928.2	75.4491	14928.2	74.8762	14928.2	71.7987	14928.2	72.5757	14928.2	68.8054	14928.2	69.0196	14928.2	65.5272	14928.2	65.3084	14928.2	60.8677	14928.2	59.6742	14928.2	54.5345	14928.2	49.0544	14928.2	48.2404	14928.2	56.5603	14928.2	46.6686	14928.2	63.6679	14928.2	42.2402	14928.2	62.2468	14928.2	47.9493	14928.2	56.8461	14928.2	48.526	14928.2	54.8203	14928.2	45.9897	14928.2	53.3322	14928.2	51.7222	14928.2	57.9376	14928.2	49.0653	14928.2	53.8977	14928.2	42.2256
15455.6	82.7547	15455.6	82.5316	15455.6	81.7901	15455.6	82.0315	15455.6	81.0029	15455.6	79.0049	15455.6	77.8574	15455.6	74.0585	15455.6	74.9507	15455.6	71.4584	15455.6	72.0968	15455.6	69.0553	15455.6	68.1903	15455.6	65.2367	15455.6	62.6657	15455.6	60.3289	15455.6	61.691	15455.6	53.0697	15455.6	50.5717	15455.6	45.5667	15455.6	52.9785	15455.6	41.5726	15455.6	65.6906	15455.6	47.2769	15455.6	63.5194	15455.6	46.5832	15455.6	60.0586	15455.6	36.443	15455.6	55.1549	15455.6	43.6565	15455.6	55.9681	15455.6	46.3551	15455.6	58.8995	15455.6	50.2372	15455.6	49.0407	15455.6	47.3291
16000.5	82.2209	16000.5	81.7352	16000.5	81.3354	16000.5	80.8824	16000.5	80.0217	16000.5	77.6734	16000.5	76.9649	16000.5	73.2511	16000.5	73.6873	16000.5	71.0202	16000.5	71.1946	16000.5	67.6922	16000.5	67.3555	16000.5	64.488	16000.5	63.1995	16000.5	59.8317	16000.5	60.0986	16000.5	51.5583	16000.5	50.3361	16000.5	42.3837	16000.5	54.655	16000.5	33.9987	16000.5	65.4504	16000.5	47.6836	16000.5	62.6682	16000.5	49.4096	16000.5	58.3402	16000.5	44.6572	16000.5	53.5658	16000.5	47.4182	16000.5	56.6342	16000.5	50.6659	16000.5	57.2103	16000.5	51.0586	16000.5	44.7837	16000.5	49.9911
16564.5	81.4709	16564.5	81.0733	16564.5	80.9047	16564.5	80.1774	16564.5	79.0904	16564.5	76.701	16564.5	76.3563	16564.5	73.2694	16564.5	73.0671	16564.5	70.5073	16564.5	70.872	16564.5	67.5048	16564.5	65.2887	16564.5	64.6078	16564.5	64.4079	16564.5	58.6214	16564.5	56.9778	16564.5	48.5853	16564.5	53.5093	16564.5	44.2785	16564.5	53.9196	16564.5	41.8784	16564.5	63.0675	16564.5	49.0238	16564.5	59.9659	16564.5	51.1815	16564.5	55.1376	16564.5	49.2284	16564.5	50.2145	16564.5	49.7501	16564.5	54.6912	16564.5	53.2302	16564.5	54.6923	16564.5	50.8906	16564.5	40.2063	16564.5	50.4326
17148.9	81.2753	17148.9	81.0665	17148.9	80.5697	17148.9	79.7255	17148.9	78.1578	17148.9	75.7679	17148.9	75.5974	17148.9	72.5019	17148.9	72.3198	17148.9	69.2936	17148.9	70.8822	17148.9	67.0704	17148.9	64.1783	17148.9	63.8143	17148.9	66.0051	17148.9	57.2761	17148.9	52.899	17148.9	43.7303	17148.9	53.1291	17148.9	46.1398	17148.9	56.6111	17148.9	48.2665	17148.9	57.0714	17148.9	51.0735	17148.9	55.9825	17148.9	52.0483	17148.9	47.3927	17148.9	50.4479	17148.9	45.597	17148.9	48.4685	17148.9	51.3116	17148.9	53.5848	17148.9	50.1272	17148.9	50.2216	17148.9	41.1724	17148.9	48.9134
17752.4	81.0393	17752.4	80.9291	17752.4	80.1128	17752.4	79.1628	17752.4	77.058	17752.4	74.6649	17752.4	74.389	17752.4	71.5084	17752.4	71.1526	17752.4	67.8699	17752.4	69.7176	17752.4	65.4442	17752.4	63.369	17752.4	61.5762	17752.4	65.0084	17752.4	54.5844	17752.4	53.6925	17752.4	49.1056	17752.4	53.7864	17752.4	50.7702	17752.4	59.1558	17752.4	53.3063	17752.4	45.9802	17752.4	52.7551	17752.4	55.6351	17752.4	53.1845	17752.4	52.9598	17752.4	51.9292	17752.4	50.4711	17752.4	49.9162	17752.4	49.1941	17752.4	53.6796	17752.4	51.1115	17752.4	49.7318	17752.4	36.7612	17752.4	46.8555
18379.4	80.6022	18379.4	80.434	18379.4	79.2585	18379.4	78.2427	18379.4	76.171	18379.4	73.7697	18379.4	73.4672	18379.4	71.4039	18379.4	70.933	18379.4	67.7952	18379.4	68.2241	18379.4	62.0198	18379.4	63.2728	18379.4	59.0272	18379.4	63.0366	18379.4	52.2467	18379.4	56.8923	18379.4	52.1556	18379.4	51.9036	18379.4	53.4209	18379.4	60.6001	18379.4	55.3462	18379.4	55.6136	18379.4	53.9339	18379.4	57.776	18379.4	54.545	18379.4	56.93	18379.4	53.4001	18379.4	55.5955	18379.4	52.0423	18379.4	54.58	18379.4	54.4233	18379.4	56.0029	18379.4	52.1153	18379.4	46.7291	18379.4	49.4305
19026.9	80.2283	19026.9	80.3138	19026.9	78.9512	19026.9	77.4299	19026.9	76.1002	19026.9	73.6489	19026.9	72.6751	19026.9	72.0086	19026.9	71.4589	19026.9	68.4238	19026.9	64.3666	19026.9	58.2311	19026.9	62.6818	19026.9	55.8991	19026.9	61.5183	19026.9	55.6109	19026.9	58.1792	19026.9	53.2861	19026.9	50.0249	19026.9	54.2544	19026.9	60.3677	19026.9	56.6415	19026.9	62.1788	19026.9	55.5454	19026.9	58.5109	19026.9	56.0582	19026.9	58.8895	19026.9	55.0543	19026.9	58.1755	19026.9	55.4842	19026.9	58.5766	19026.9	56.985	19026.9	59.4679	19026.9	55.1783	19026.9	51.2028	19026.9	53.9639
19697.8	80.399	19697.8	80.3594	19697.8	79.2189	19697.8	77.195	19697.8	76.6896	19697.8	73.7842	19697.8	71.7773	19697.8	71.7422	19697.8	72.4609	19697.8	68.4225	19697.8	57.7129	19697.8	53.6315	19697.8	65.0975	19697.8	52.6772	19697.8	62.7495	19697.8	57.9429	19697.8	59.8977	19697.8	53.7805	19697.8	50.727	19697.8	55.1818	19697.8	59.9178	19697.8	58.6925	19697.8	65.9186	19697.8	58.4576	19697.8	57.2565	19697.8	58.3009	19697.8	60.9721	19697.8	57.582	19697.8	60.0262	19697.8	59.0875	19697.8	60.8518	19697.8	59.2523	19697.8	62.3109	19697.8	58.141	19697.8	54.9507	19697.8	57.2816
19999.5	79.8965	19999.5	80.4196	19999.5	79.2225	19999.5	76.8064	19999.5	77.1837	19999.5	73.5084	19999.5	71.3604	19999.5	71.4792	19999.5	72.4064	19999.5	67.83	19999.5	52.9984	19999.5	54.618	19999.5	66.5821	19999.5	51.6975	19999.5	63.4832	19999.5	58.7994	19999.5	61.9301	19999.5	54.4295	19999.5	53.3524	19999.5	55.767	19999.5	60.1419	19999.5	60.0301	19999.5	67.0677	19999.5	60.2705	19999.5	56.2271	19999.5	60.3046	19999.5	62.2089	19999.5	58.0134	19999.5	60.9579	19999.5	60.019	19999.5	62.0807	19999.5	59.4061	19999.5	63.3844	19999.5	59.2719	19999.5	56.3842	19999.5	56.9666
