"SPL Horizontal"
"On-Axis"		"10°"		"-10°"		"20°"		"-20°"		"30°"		"-30°"		"40°"		"-40°"		"50°"		"-50°"		"60°"		"-60°"		"70°"		"-70°"		"80°"		"-80°"		"90°"		"-90°"		"100°"		"-100°"		"110°"		"-110°"		"120°"		"-120°"		"130°"		"-130°"		"140°"		"-140°"		"150°"		"-150°"		"160°"		"-160°"		"170°"		"-170°"		"180°"
"Frequency / Hz"	"Sound Pressure Level / dB (re 20 µPa/V)  [0.3V at 1m]"	"Frequency / Hz"	"Sound Pressure Level / dB (re 20 µPa/V)  [0.3V at 1m]"	"Frequency / Hz"	"Sound Pressure Level / dB (re 20 µPa/V)  [0.3V at 1m]"	"Frequency / Hz"	"Sound Pressure Level / dB (re 20 µPa/V)  [0.3V at 1m]"	"Frequency / Hz"	"Sound Pressure Level / dB (re 20 µPa/V)  [0.3V at 1m]"	"Frequency / Hz"	"Sound Pressure Level / dB (re 20 µPa/V)  [0.3V at 1m]"	"Frequency / Hz"	"Sound Pressure Level / dB (re 20 µPa/V)  [0.3V at 1m]"	"Frequency / Hz"	"Sound Pressure Level / dB (re 20 µPa/V)  [0.3V at 1m]"	"Frequency / Hz"	"Sound Pressure Level / dB (re 20 µPa/V)  [0.3V at 1m]"	"Frequency / Hz"	"Sound Pressure Level / dB (re 20 µPa/V)  [0.3V at 1m]"	"Frequency / Hz"	"Sound Pressure Level / dB (re 20 µPa/V)  [0.3V at 1m]"	"Frequency / Hz"	"Sound Pressure Level / dB (re 20 µPa/V)  [0.3V at 1m]"	"Frequency / Hz"	"Sound Pressure Level / dB (re 20 µPa/V)  [0.3V at 1m]"	"Frequency / Hz"	"Sound Pressure Level / dB (re 20 µPa/V)  [0.3V at 1m]"	"Frequency / Hz"	"Sound Pressure Level / dB (re 20 µPa/V)  [0.3V at 1m]"	"Frequency / Hz"	"Sound Pressure Level / dB (re 20 µPa/V)  [0.3V at 1m]"	"Frequency / Hz"	"Sound Pressure Level / dB (re 20 µPa/V)  [0.3V at 1m]"	"Frequency / Hz"	"Sound Pressure Level / dB (re 20 µPa/V)  [0.3V at 1m]"	"Frequency / Hz"	"Sound Pressure Level / dB (re 20 µPa/V)  [0.3V at 1m]"	"Frequency / Hz"	"Sound Pressure Level / dB (re 20 µPa/V)  [0.3V at 1m]"	"Frequency / Hz"	"Sound Pressure Level / dB (re 20 µPa/V)  [0.3V at 1m]"	"Frequency / Hz"	"Sound Pressure Level / dB (re 20 µPa/V)  [0.3V at 1m]"	"Frequency / Hz"	"Sound Pressure Level / dB (re 20 µPa/V)  [0.3V at 1m]"	"Frequency / Hz"	"Sound Pressure Level / dB (re 20 µPa/V)  [0.3V at 1m]"	"Frequency / Hz"	"Sound Pressure Level / dB (re 20 µPa/V)  [0.3V at 1m]"	"Frequency / Hz"	"Sound Pressure Level / dB (re 20 µPa/V)  [0.3V at 1m]"	"Frequency / Hz"	"Sound Pressure Level / dB (re 20 µPa/V)  [0.3V at 1m]"	"Frequency / Hz"	"Sound Pressure Level / dB (re 20 µPa/V)  [0.3V at 1m]"	"Frequency / Hz"	"Sound Pressure Level / dB (re 20 µPa/V)  [0.3V at 1m]"	"Frequency / Hz"	"Sound Pressure Level / dB (re 20 µPa/V)  [0.3V at 1m]"	"Frequency / Hz"	"Sound Pressure Level / dB (re 20 µPa/V)  [0.3V at 1m]"	"Frequency / Hz"	"Sound Pressure Level / dB (re 20 µPa/V)  [0.3V at 1m]"	"Frequency / Hz"	"Sound Pressure Level / dB (re 20 µPa/V)  [0.3V at 1m]"	"Frequency / Hz"	"Sound Pressure Level / dB (re 20 µPa/V)  [0.3V at 1m]"	"Frequency / Hz"	"Sound Pressure Level / dB (re 20 µPa/V)  [0.3V at 1m]"	"Frequency / Hz"	"Sound Pressure Level / dB (re 20 µPa/V)  [0.3V at 1m]"
20.5078	76.4123	20.5078	76.4242	20.5078	76.4291	20.5078	76.4649	20.5078	76.4745	20.5078	76.5341	20.5078	76.5479	20.5078	76.6312	20.5078	76.6484	20.5078	76.7553	20.5078	76.775	20.5078	76.9051	20.5078	76.9263	20.5078	77.0788	20.5078	77.1003	20.5078	77.2742	20.5078	77.2947	20.5078	77.4882	20.5078	77.5065	20.5078	77.7167	20.5078	77.7319	20.5078	77.9546	20.5078	77.9659	20.5078	78.1948	20.5078	78.2019	20.5078	78.4287	20.5078	78.4318	20.5078	78.6456	20.5078	78.6454	20.5078	78.8331	20.5078	78.8311	20.5078	78.9787	20.5078	78.9762	20.5078	79.071	20.5078	79.0694	20.5078	79.1021
21.9727	77.3774	21.9727	77.3932	21.9727	77.3919	21.9727	77.4393	21.9727	77.4367	21.9727	77.5152	21.9727	77.5113	21.9727	77.6202	21.9727	77.6149	21.9727	77.7532	21.9727	77.7467	21.9727	77.9128	21.9727	77.9051	21.9727	78.0969	21.9727	78.0882	21.9727	78.3029	21.9727	78.2934	21.9727	78.5274	21.9727	78.5172	21.9727	78.7659	21.9727	78.7551	21.9727	79.0126	21.9727	79.0014	21.9727	79.2602	21.9727	79.2488	21.9727	79.4997	21.9727	79.4883	21.9727	79.7203	21.9727	79.7095	21.9727	79.9099	21.9727	79.9006	21.9727	80.0563	21.9727	80.0494	21.9727	80.1485	21.9727	80.1447	21.9727	80.1788
23.4375	78.2466	23.4375	78.272	23.4375	78.2524	23.4375	78.3284	23.4375	78.2893	23.4375	78.415	23.4375	78.3569	23.4375	78.531	23.4375	78.4548	23.4375	78.675	23.4375	78.5818	23.4375	78.8449	23.4375	78.7368	23.4375	79.0385	23.4375	78.9179	23.4375	79.2526	23.4375	79.1228	23.4375	79.4834	23.4375	79.3484	23.4375	79.7263	23.4375	79.5904	23.4375	79.9755	23.4375	79.8432	23.4375	80.2237	23.4375	80.0996	23.4375	80.4619	23.4375	80.3505	23.4375	80.6793	23.4375	80.5848	23.4375	80.864	23.4375	80.7898	23.4375	81.0037	23.4375	80.9526	23.4375	81.0873	23.4375	81.0613	23.4375	81.1074
24.9023	78.2883	24.9023	78.3035	24.9023	78.3035	24.9023	78.3487	24.9023	78.3493	24.9023	78.4231	24.9023	78.4256	24.9023	78.5255	24.9023	78.5316	24.9023	78.6544	24.9023	78.6662	24.9023	78.8082	24.9023	78.8275	24.9023	78.9845	24.9023	79.0131	24.9023	79.1807	24.9023	79.2197	24.9023	79.3938	24.9023	79.443	24.9023	79.6198	24.9023	79.6781	24.9023	79.8538	24.9023	79.9188	24.9023	80.0897	24.9023	80.1579	24.9023	80.3195	24.9023	80.3868	24.9023	80.5336	24.9023	80.5953	24.9023	80.7209	24.9023	80.7723	24.9023	80.8694	24.9023	80.9064	24.9023	80.968	24.9023	80.9875	24.9023	81.0086
26.3672	79.0419	26.3672	79.0624	26.3672	79.0487	26.3672	79.1099	26.3672	79.0828	26.3672	79.1835	26.3672	79.1439	26.3672	79.2824	26.3672	79.2314	26.3672	79.4053	26.3672	79.3444	26.3672	79.5503	26.3672	79.4814	26.3672	79.7153	26.3672	79.6403	26.3672	79.8976	26.3672	79.8188	26.3672	80.0939	26.3672	80.0134	26.3672	80.3	26.3672	80.2203	26.3672	80.5112	26.3672	80.4345	26.3672	80.7212	26.3672	80.6499	26.3672	80.9228	26.3672	80.8592	26.3672	81.1072	26.3672	81.0534	26.3672	81.2645	26.3672	81.2224	26.3672	81.3845	26.3672	81.3557	26.3672	81.458	26.3672	81.4433	26.3672	81.4783
27.832	79.433	27.832	79.4389	27.832	79.4525	27.832	79.47	27.832	79.4969	27.832	79.5262	27.832	79.5656	27.832	79.6068	27.832	79.6577	27.832	79.7108	27.832	79.7718	27.832	79.837	27.832	79.9063	27.832	79.9834	27.832	80.0589	27.832	80.1476	27.832	80.2271	27.832	80.3267	27.832	80.4078	27.832	80.517	27.832	80.5971	27.832	80.7141	27.832	80.7906	27.832	80.9123	27.832	80.9829	27.832	81.105	27.832	81.1676	27.832	81.284	27.832	81.3367	27.832	81.4402	27.832	81.4813	27.832	81.5635	27.832	81.5918	27.832	81.6449	27.832	81.6593	27.832	81.6778
29.2969	79.9885	29.2969	80.0084	29.2969	79.9933	29.2969	80.0526	29.2969	80.0225	29.2969	80.1206	29.2969	80.076	29.2969	80.2116	29.2969	80.153	29.2969	80.3241	29.2969	80.2525	29.2969	80.4564	29.2969	80.3732	29.2969	80.6061	29.2969	80.5133	29.2969	80.7706	29.2969	80.6704	29.2969	80.9464	29.2969	80.8417	29.2969	81.1297	29.2969	81.0238	29.2969	81.3159	29.2969	81.2124	29.2969	81.4999	29.2969	81.4024	29.2969	81.6753	29.2969	81.5875	29.2969	81.8348	29.2969	81.7602	29.2969	81.97	29.2969	81.9115	29.2969	82.0723	29.2969	82.0321	29.2969	82.1334	29.2969	82.1129	29.2969	82.1476
30.7617	80.3321	30.7617	80.3499	30.7617	80.3369	30.7617	80.3898	30.7617	80.3643	30.7617	80.4514	30.7617	80.4138	30.7617	80.5335	30.7617	80.485	30.7617	80.6349	30.7617	80.5766	30.7617	80.7538	30.7617	80.6873	30.7617	80.888	30.7617	80.8151	30.7617	81.0349	30.7617	80.9577	30.7617	81.1917	30.7617	81.1122	30.7617	81.355	30.7617	81.2754	30.7617	81.5209	30.7617	81.4435	30.7617	81.6852	30.7617	81.6122	30.7617	81.8425	30.7617	81.7763	30.7617	81.9863	30.7617	81.9294	30.7617	82.1091	30.7617	82.0639	30.7617	82.2027	30.7617	82.1713	30.7617	82.2593	30.7617	82.2432	30.7617	82.2734
32.2266	80.6634	32.2266	80.6802	32.2266	80.6668	32.2266	80.717	32.2266	80.6906	32.2266	80.773	32.2266	80.7345	32.2266	80.8472	32.2266	80.7979	32.2266	80.9382	32.2266	80.8799	32.2266	81.0444	32.2266	80.979	32.2266	81.1638	32.2266	81.0934	32.2266	81.294	32.2266	81.2208	32.2266	81.4324	32.2266	81.3588	32.2266	81.5761	32.2266	81.5042	32.2266	81.7221	32.2266	81.6539	32.2266	81.8668	32.2266	81.804	32.2266	82.0056	32.2266	81.9501	32.2266	82.1333	32.2266	82.0865	32.2266	82.2432	32.2266	82.2066	32.2266	82.3276	32.2266	82.3024	32.2266	82.3793	32.2266	82.3665	32.2266	82.3929
33.6914	80.9716	33.6914	80.9858	33.6914	80.9756	33.6914	81.0177	33.6914	80.9978	33.6914	81.0668	33.6914	81.038	33.6914	81.1321	33.6914	81.0956	33.6914	81.2123	33.6914	81.1696	33.6914	81.3058	33.6914	81.2587	33.6914	81.4108	33.6914	81.3611	33.6914	81.5252	33.6914	81.4747	33.6914	81.6463	33.6914	81.597	33.6914	81.7719	33.6914	81.7253	33.6914	81.899	33.6914	81.8565	33.6914	82.0247	33.6914	81.9874	33.6914	82.1455	33.6914	82.1142	33.6914	82.2572	33.6914	82.2322	33.6914	82.354	33.6914	82.3355	33.6914	82.4295	33.6914	82.4174	33.6914	82.4771	33.6914	82.4712	33.6914	82.4917
35.1562	81.3694	35.1562	81.3724	35.1562	81.381	35.1562	81.3898	35.1562	81.4073	35.1562	81.4212	35.1562	81.4479	35.1562	81.4655	35.1562	81.502	35.1562	81.5219	35.1562	81.5686	35.1562	81.5888	35.1562	81.6461	35.1562	81.6648	35.1562	81.7328	35.1562	81.7482	35.1562	81.8264	35.1562	81.8372	35.1562	81.9246	35.1562	81.9304	35.1562	82.0251	35.1562	82.0262	35.1562	82.1253	35.1562	82.1234	35.1562	82.223	35.1562	82.22	35.1562	82.3153	35.1562	82.3135	35.1562	82.399	35.1562	82.3996	35.1562	82.4697	35.1562	82.4723	35.1562	82.5222	35.1562	82.5251	35.1562	82.551	35.1562	82.5522
36.6211	81.3405	36.6211	81.3397	36.6211	81.3548	36.6211	81.3525	36.6211	81.3823	36.6211	81.3786	36.6211	81.4225	36.6211	81.4175	36.6211	81.4744	36.6211	81.4684	36.6211	81.5371	36.6211	81.5302	36.6211	81.6088	36.6211	81.6014	36.6211	81.688	36.6211	81.6806	36.6211	81.7724	36.6211	81.7658	36.6211	81.8602	36.6211	81.8553	36.6211	81.9491	36.6211	81.9472	36.6211	82.0374	36.6211	82.0398	36.6211	82.1233	36.6211	82.1309	36.6211	82.2049	36.6211	82.2177	36.6211	82.2799	36.6211	82.2962	36.6211	82.3446	36.6211	82.3611	36.6211	82.3943	36.6211	82.4067	36.6211	82.4235	36.6211	82.4281
38.0859	81.4984	38.0859	81.5034	38.0859	81.506	38.0859	81.521	38.0859	81.5258	38.0859	81.551	38.0859	81.5574	38.0859	81.5925	38.0859	81.5996	38.0859	81.6447	38.0859	81.6514	38.0859	81.706	38.0859	81.7112	38.0859	81.7747	38.0859	81.777	38.0859	81.8486	38.0859	81.847	38.0859	81.9255	38.0859	81.9191	38.0859	82.003	38.0859	81.9913	38.0859	82.0792	38.0859	82.0624	38.0859	82.1524	38.0859	82.1311	38.0859	82.221	38.0859	82.1969	38.0859	82.2833	38.0859	82.2588	38.0859	82.3367	38.0859	82.3145	38.0859	82.3777	38.0859	82.3609	38.0859	82.4025	38.0859	82.3934	38.0859	82.4079
39.5508	81.7893	39.5508	81.7984	39.5508	81.7887	39.5508	81.8157	39.5508	81.7967	39.5508	81.8406	39.5508	81.8128	39.5508	81.8721	39.5508	81.8363	39.5508	81.9089	39.5508	81.8662	39.5508	81.9494	39.5508	81.9012	39.5508	81.9916	39.5508	81.9396	39.5508	82.0334	39.5508	81.9795	39.5508	82.073	39.5508	82.0192	39.5508	82.1088	39.5508	82.0572	39.5508	82.1402	39.5508	82.0929	39.5508	82.1673	39.5508	82.126	39.5508	82.1911	39.5508	82.1571	39.5508	82.2128	39.5508	82.1867	39.5508	82.2329	39.5508	82.2145	39.5508	82.2499	39.5508	82.2385	39.5508	82.2612	39.5508	82.2558	39.5508	82.2637
41.0156	81.9427	41.0156	81.9441	41.0156	81.9482	41.0156	81.9523	41.0156	81.9602	41.0156	81.9667	41.0156	81.9783	41.0156	81.9868	41.0156	82.0017	41.0156	82.0113	41.0156	82.0291	41.0156	82.0388	41.0156	82.059	41.0156	82.0677	41.0156	82.0896	41.0156	82.0962	41.0156	82.1191	41.0156	82.1226	41.0156	82.1458	41.0156	82.1458	41.0156	82.1685	41.0156	82.1654	41.0156	82.187	41.0156	82.1822	41.0156	82.202	41.0156	82.1976	41.0156	82.2152	41.0156	82.2135	41.0156	82.2283	41.0156	82.2303	41.0156	82.242	41.0156	82.2467	41.0156	82.2549	41.0156	82.2598	41.0156	82.264	41.0156	82.266
42.4805	82.2596	42.4805	82.2603	42.4805	82.2634	42.4805	82.2653	42.4805	82.2716	42.4805	82.2742	42.4805	82.2836	42.4805	82.286	42.4805	82.2983	42.4805	82.2993	42.4805	82.3145	42.4805	82.3126	42.4805	82.3305	42.4805	82.324	42.4805	82.3443	42.4805	82.3316	42.4805	82.3541	42.4805	82.3341	42.4805	82.3584	42.4805	82.3306	42.4805	82.3564	42.4805	82.3218	42.4805	82.3484	42.4805	82.3095	42.4805	82.3363	42.4805	82.2969	42.4805	82.3229	42.4805	82.2874	42.4805	82.3114	42.4805	82.2836	42.4805	82.3039	42.4805	82.2853	42.4805	82.3002	42.4805	82.2902	42.4805	82.2982	42.4805	82.2951
43.9453	82.1678	43.9453	82.1644	43.9453	82.1752	43.9453	82.165	43.9453	82.1862	43.9453	82.1692	43.9453	82.1999	43.9453	82.1761	43.9453	82.2151	43.9453	82.1842	43.9453	82.2299	43.9453	82.1919	43.9453	82.2425	43.9453	82.197	43.9453	82.2506	43.9453	82.1976	43.9453	82.2522	43.9453	82.1919	43.9453	82.2455	43.9453	82.1791	43.9453	82.2299	43.9453	82.1594	43.9453	82.2059	43.9453	82.1348	43.9453	82.1761	43.9453	82.1088	43.9453	82.1443	43.9453	82.0856	43.9453	82.1149	43.9453	82.0688	43.9453	82.0915	43.9453	82.0598	43.9453	82.0754	43.9453	82.0575	43.9453	82.0655	43.9453	82.0598
45.4102	82.316	45.4102	82.313	45.4102	82.3203	45.4102	82.3114	45.4102	82.3254	45.4102	82.3107	45.4102	82.3305	45.4102	82.3099	45.4102	82.3343	45.4102	82.3076	45.4102	82.3349	45.4102	82.3018	45.4102	82.3304	45.4102	82.2905	45.4102	82.3187	45.4102	82.2715	45.4102	82.2978	45.4102	82.2431	45.4102	82.2663	45.4102	82.2045	45.4102	82.2238	45.4102	82.1565	45.4102	82.1719	45.4102	82.102	45.4102	82.1137	45.4102	82.046	45.4102	82.0547	45.4102	81.9945	45.4102	82.0011	45.4102	81.9531	45.4102	81.958	45.4102	81.9246	45.4102	81.9281	45.4102	81.9092	45.4102	81.9111	45.4102	81.905
46.875	82.4342	46.875	82.4316	46.875	82.4369	46.875	82.4289	46.875	82.4391	46.875	82.4256	46.875	82.4402	46.875	82.4204	46.875	82.4387	46.875	82.4118	46.875	82.4328	46.875	82.3975	46.875	82.4204	46.875	82.3752	46.875	82.3992	46.875	82.3425	46.875	82.367	46.875	82.2974	46.875	82.322	46.875	82.2394	46.875	82.2636	46.875	82.1694	46.875	82.193	46.875	82.0911	46.875	82.1138	46.875	82.0106	46.875	82.032	46.875	81.9357	46.875	81.955	46.875	81.8738	46.875	81.8901	46.875	81.83	46.875	81.8419	46.875	81.8058	46.875	81.8121	46.875	81.8001
48.3398	82.436	48.3398	82.4303	48.3398	82.4412	48.3398	82.4239	48.3398	82.4456	48.3398	82.4162	48.3398	82.4481	48.3398	82.4059	48.3398	82.4472	48.3398	82.391	48.3398	82.4406	48.3398	82.3694	48.3398	82.4259	48.3398	82.3383	48.3398	82.3999	48.3398	82.2951	48.3398	82.3596	48.3398	82.2375	48.3398	82.3024	48.3398	82.1645	48.3398	82.2269	48.3398	82.0768	48.3398	82.1338	48.3398	81.9779	48.3398	82.027	48.3398	81.8743	48.3398	81.9137	48.3398	81.7749	48.3398	81.804	48.3398	81.6892	48.3398	81.7088	48.3398	81.6249	48.3398	81.6365	48.3398	81.5864	48.3398	81.5917	48.3398	81.5752
51.2695	83.1488	51.2695	83.1554	51.2695	83.125	51.2695	83.1445	51.2695	83.0837	51.2695	83.1149	51.2695	83.0242	51.2695	83.0649	51.2695	82.9452	51.2695	82.9924	51.2695	82.8446	51.2695	82.8943	51.2695	82.7205	51.2695	82.7677	51.2695	82.5708	51.2695	82.6098	51.2695	82.3938	51.2695	82.419	51.2695	82.1898	51.2695	82.1958	51.2695	81.9615	51.2695	81.9451	51.2695	81.7162	51.2695	81.6775	51.2695	81.4661	51.2695	81.4102	51.2695	81.2286	51.2695	81.1648	51.2695	81.0226	51.2695	80.9627	51.2695	80.8636	51.2695	80.8171	51.2695	80.7579	51.2695	80.7297	51.2695	80.703	51.2695	80.6938
52.7344	82.9481	52.7344	82.9357	52.7344	82.9456	52.7344	82.9081	52.7344	82.9281	52.7344	82.8647	52.7344	82.895	52.7344	82.804	52.7344	82.845	52.7344	82.7243	52.7344	82.7767	52.7344	82.6236	52.7344	82.688	52.7344	82.4996	52.7344	82.5769	52.7344	82.3506	52.7344	82.4419	52.7344	82.1761	52.7344	82.2824	52.7344	81.978	52.7344	82.1002	52.7344	81.7624	52.7344	81.9001	52.7344	81.5405	52.7344	81.6917	52.7344	81.3291	52.7344	81.4881	52.7344	81.1477	52.7344	81.3044	52.7344	81.0132	52.7344	81.153	52.7344	80.9333	52.7344	81.0394	52.7344	80.9044	52.7344	80.9618	52.7344	80.9166
54.1992	82.6894	54.1992	82.6702	54.1992	82.697	54.1992	82.6392	54.1992	82.6926	54.1992	82.5959	54.1992	82.6753	54.1992	82.5391	54.1992	82.6435	54.1992	82.467	54.1992	82.5954	54.1992	82.3776	54.1992	82.5283	54.1992	82.2685	54.1992	82.4396	54.1992	82.1377	54.1992	82.3267	54.1992	81.984	54.1992	82.1878	54.1992	81.8087	54.1992	82.0232	54.1992	81.6166	54.1992	81.8364	54.1992	81.4174	54.1992	81.6355	54.1992	81.2259	54.1992	81.4332	54.1992	81.0595	54.1992	81.2454	54.1992	80.934	54.1992	81.0868	54.1992	80.8571	54.1992	80.9661	54.1992	80.8276	54.1992	80.8843	54.1992	80.8383
55.6641	82.9353	55.6641	82.9204	55.6641	82.9365	55.6641	82.8917	55.6641	82.9235	55.6641	82.8485	55.6641	82.8949	55.6641	82.7891	55.6641	82.8487	55.6641	82.7111	55.6641	82.7822	55.6641	82.6117	55.6641	82.6921	55.6641	82.4874	55.6641	82.5747	55.6641	82.3349	55.6641	82.4265	55.6641	82.1518	55.6641	82.2451	55.6641	81.9382	55.6641	82.0302	55.6641	81.6979	55.6641	81.7859	55.6641	81.4407	55.6641	81.5221	55.6641	81.183	55.6641	81.2555	55.6641	80.9463	55.6641	81.0078	55.6641	80.7521	55.6641	80.8008	55.6641	80.6149	55.6641	80.6488	55.6641	80.5387	55.6641	80.5562	55.6641	80.5201
58.5938	83.1843	58.5938	83.1677	58.5938	83.1823	58.5938	83.1323	58.5938	83.1612	58.5938	83.077	58.5938	83.1196	58.5938	83.0002	58.5938	83.0554	58.5938	82.8992	58.5938	82.966	58.5938	82.7709	58.5938	82.8477	58.5938	82.6116	58.5938	82.6968	58.5938	82.4178	58.5938	82.5096	58.5938	82.1871	58.5938	82.2837	58.5938	81.9201	58.5938	82.0194	58.5938	81.6221	58.5938	81.7221	58.5938	81.3058	58.5938	81.4043	58.5938	80.9925	58.5938	81.0866	58.5938	80.7094	58.5938	80.7955	58.5938	80.4832	58.5938	80.5562	58.5938	80.3298	58.5938	80.3837	58.5938	80.2502	58.5938	80.279	58.5938	80.2354
60.0586	83.2488	60.0586	83.23	60.0586	83.2474	60.0586	83.1905	60.0586	83.225	60.0586	83.1295	60.0586	83.1805	60.0586	83.045	60.0586	83.1116	60.0586	82.9344	60.0586	83.0154	60.0586	82.7943	60.0586	82.8885	60.0586	82.6209	60.0586	82.7266	60.0586	82.4108	60.0586	82.5259	60.0586	82.1615	60.0586	82.284	60.0586	81.8737	60.0586	82.0011	60.0586	81.5537	60.0586	81.6831	60.0586	81.2153	60.0586	81.3434	60.0586	80.882	60.0586	81.0046	60.0586	80.5836	60.0586	80.6954	60.0586	80.3486	60.0586	80.4429	60.0586	80.1932	60.0586	80.2622	60.0586	80.1159	60.0586	80.1525	60.0586	80.105
62.9883	83.3314	62.9883	83.3047	62.9883	83.3359	62.9883	83.2557	62.9883	83.3177	62.9883	83.1834	62.9883	83.2752	62.9883	83.0862	62.9883	83.2063	62.9883	82.9615	62.9883	83.1079	62.9883	82.8061	62.9883	82.9763	62.9883	82.6165	62.9883	82.8072	62.9883	82.3895	62.9883	82.5965	62.9883	82.1231	62.9883	82.3418	62.9883	81.8189	62.9883	82.0435	62.9883	81.4846	62.9883	81.7083	62.9883	81.1365	62.9883	81.3513	62.9883	80.8003	62.9883	80.9977	62.9883	80.5081	62.9883	80.679	62.9883	80.2878	62.9883	80.424	62.9883	80.1517	62.9883	80.2463	62.9883	80.0918	62.9883	80.1403	62.9883	80.0911
64.4531	83.3413	64.4531	83.317	64.4531	83.3425	64.4531	83.2696	64.4531	83.3196	64.4531	83.1984	64.4531	83.2711	64.4531	83.1016	64.4531	83.1942	64.4531	82.9767	64.4531	83.0857	64.4531	82.8201	64.4531	82.9412	64.4531	82.6278	64.4531	82.7559	64.4531	82.3956	64.4531	82.5252	64.4531	82.1203	64.4531	82.2456	64.4531	81.8017	64.4531	81.9167	64.4531	81.445	64.4531	81.5443	64.4531	81.0643	64.4531	81.1435	64.4531	80.6839	64.4531	80.7408	64.4531	80.3364	64.4531	80.372	64.4531	80.0544	64.4531	80.0729	64.4531	79.8577	64.4531	79.8651	64.4531	79.747	64.4531	79.749	64.4531	79.7124
67.3828	83.4572	67.3828	83.4421	67.3828	83.4443	67.3828	83.3985	67.3828	83.4026	67.3828	83.3251	67.3828	83.3306	67.3828	83.2198	67.3828	83.2258	67.3828	83.0792	67.3828	83.0848	67.3828	82.8989	67.3828	82.9031	67.3828	82.674	67.3828	82.6756	67.3828	82.3993	67.3828	82.3975	67.3828	82.0707	67.3828	82.0653	67.3828	81.6881	67.3828	81.6792	67.3828	81.258	67.3828	81.247	67.3828	80.7981	67.3828	80.7878	67.3828	80.3406	67.3828	80.3345	67.3828	79.929	67.3828	79.93	67.3828	79.6057	67.3828	79.6139	67.3828	79.3931	67.3828	79.4046	67.3828	79.2842	67.3828	79.2924	67.3828	79.2553
68.8477	83.5175	68.8477	83.4993	68.8477	83.5067	68.8477	83.4516	68.8477	83.4662	68.8477	83.3735	68.8477	83.3947	68.8477	83.2629	68.8477	83.2899	68.8477	83.1167	68.8477	83.1488	68.8477	82.931	68.8477	82.9671	68.8477	82.7012	68.8477	82.7405	68.8477	82.4227	68.8477	82.4645	68.8477	82.0921	68.8477	82.1362	68.8477	81.7102	68.8477	81.7568	68.8477	81.2849	68.8477	81.335	68.8477	80.8359	68.8477	80.8908	68.8477	80.3969	68.8477	80.4573	68.8477	80.0117	68.8477	80.0763	68.8477	79.7206	68.8477	79.7839	68.8477	79.5409	68.8477	79.5928	68.8477	79.4592	68.8477	79.4888	68.8477	79.4474
71.7773	83.718	71.7773	83.6987	71.7773	83.708	71.7773	83.6499	71.7773	83.6683	71.7773	83.5704	71.7773	83.5974	71.7773	83.4582	71.7773	83.4932	71.7773	83.3104	71.7773	83.3524	71.7773	83.1228	71.7773	83.1711	71.7773	82.8906	71.7773	82.9444	71.7773	82.6088	71.7773	82.6672	71.7773	82.2734	71.7773	82.336	71.7773	81.8837	71.7773	81.9505	71.7773	81.4461	71.7773	81.5174	71.7773	80.9783	71.7773	81.0546	71.7773	80.5122	71.7773	80.5936	71.7773	80.0924	71.7773	80.1764	71.7773	79.7629	71.7773	79.8427	71.7773	79.5485	71.7773	79.6127	71.7773	79.4439	71.7773	79.4801	71.7773	79.4261
74.707	83.8241	74.707	83.8033	74.707	83.8149	74.707	83.7524	74.707	83.7755	74.707	83.67	74.707	83.7045	74.707	83.5541	74.707	83.5997	74.707	83.4015	74.707	83.4579	74.707	83.2079	74.707	83.2748	74.707	82.9679	74.707	83.0451	74.707	82.6759	74.707	82.7631	74.707	82.3266	74.707	82.4237	74.707	81.9178	74.707	82.0248	74.707	81.4539	74.707	81.5706	74.707	80.9502	74.707	81.076	74.707	80.4377	74.707	80.5701	74.707	79.9625	74.707	80.0955	74.707	79.5753	74.707	79.6976	74.707	79.3114	74.707	79.4071	74.707	79.1763	74.707	79.2292	74.707	79.1534
77.6367	83.958	77.6367	83.9341	77.6367	83.951	77.6367	83.8789	77.6367	83.9126	77.6367	83.7913	77.6367	83.8415	77.6367	83.6688	77.6367	83.7354	77.6367	83.5082	77.6367	83.5906	77.6367	83.3047	77.6367	83.4025	77.6367	83.0524	77.6367	83.1651	77.6367	82.7447	77.6367	82.8716	77.6367	82.3751	77.6367	82.5154	77.6367	81.9395	77.6367	82.0924	77.6367	81.44	77.6367	81.6045	77.6367	80.8901	77.6367	81.0644	77.6367	80.3202	77.6367	80.5003	77.6367	79.7797	77.6367	79.9575	77.6367	79.3275	77.6367	79.4886	77.6367	79.0104	77.6367	79.1353	77.6367	78.8438	77.6367	78.9125	77.6367	78.8157
79.1016	83.9771	79.1016	83.9495	79.1016	83.9725	79.1016	83.8893	79.1016	83.935	79.1016	83.795	79.1016	83.8634	79.1016	83.6644	79.1016	83.755	79.1016	83.4937	79.1016	83.6061	79.1016	83.2781	79.1016	83.4117	79.1016	83.011	79.1016	83.165	79.1016	82.685	79.1016	82.8586	79.1016	82.2924	79.1016	82.4846	79.1016	81.8279	79.1016	82.0373	79.1016	81.2916	79.1016	81.5166	79.1016	80.6958	79.1016	80.9331	79.1016	80.071	79.1016	80.3144	79.1016	79.4694	79.1016	79.7073	79.1016	78.9576	79.1016	79.1708	79.1016	78.5931	79.1016	78.7565	79.1016	78.3999	79.1016	78.4891	79.1016	78.3698
82.0312	83.9594	82.0312	83.9265	82.0312	83.9584	82.0312	83.8592	82.0312	83.9228	82.0312	83.7561	82.0312	83.8513	82.0312	83.6147	82.0312	83.7412	82.0312	83.431	82.0312	83.5884	82.0312	83.1996	82.0312	83.3873	82.0312	82.9133	82.0312	83.1303	82.0312	82.5633	82.0312	82.8082	82.0312	82.1399	82.0312	82.4109	82.0312	81.6345	82.0312	81.929	82.0312	81.0434	82.0312	81.3571	82.0312	80.3734	82.0312	80.6996	82.0312	79.6502	82.0312	79.978	82.0312	78.9257	82.0312	79.2379	82.0312	78.2763	82.0312	78.5486	82.0312	77.783	82.0312	77.9866	82.0312	77.5004	82.0312	77.6095	82.0312	77.4441
84.9609	83.764	84.9609	83.7313	84.9609	83.76	84.9609	83.6614	84.9609	83.7186	84.9609	83.5529	84.9609	83.638	84.9609	83.4029	84.9609	83.5154	84.9609	83.2073	84.9609	83.3461	84.9609	82.9596	84.9609	83.1235	84.9609	82.6515	84.9609	82.8389	84.9609	82.2722	84.9609	82.4811	84.9609	81.8092	84.9609	82.0371	84.9609	81.2494	84.9609	81.4933	84.9609	80.583	84.9609	80.8389	84.9609	79.8088	84.9609	80.0708	84.9609	78.9441	84.9609	79.2035	84.9609	78.037	84.9609	78.2806	84.9609	77.1737	84.9609	77.3831	84.9609	76.4671	84.9609	76.6215	84.9609	76.0208	84.9609	76.1027	84.9609	75.8947
87.8906	83.4151	87.8906	83.3877	87.8906	83.4002	87.8906	83.3177	87.8906	83.3423	87.8906	83.2032	87.8906	83.2393	87.8906	83.0411	87.8906	83.0876	87.8906	82.8261	87.8906	82.8819	87.8906	82.5508	87.8906	82.6141	87.8906	82.2046	87.8906	82.2739	87.8906	81.7739	87.8906	81.8474	87.8906	81.2417	87.8906	81.3177	87.8906	80.5891	87.8906	80.6658	87.8906	79.7973	87.8906	79.8729	87.8906	78.8538	87.8906	78.926	87.8906	77.7631	87.8906	77.8286	87.8906	76.5644	87.8906	76.6186	87.8906	75.3534	87.8906	75.3913	87.8906	74.2891	87.8906	74.3086	87.8906	73.5568	87.8906	73.5629	87.8906	73.2972
90.8203	83.3431	90.8203	83.3171	90.8203	83.3221	90.8203	83.2434	90.8203	83.2531	90.8203	83.1201	90.8203	83.1339	90.8203	82.9433	90.8203	82.9604	90.8203	82.7071	90.8203	82.7264	90.8203	82.4026	90.8203	82.4229	90.8203	82.0176	90.8203	82.0379	90.8203	81.5359	90.8203	81.555	90.8203	80.9369	90.8203	80.9539	90.8203	80.1964	90.8203	80.2105	90.8203	79.2882	90.8203	79.2989	90.8203	78.1896	90.8203	78.1966	90.8203	76.8935	90.8203	76.8968	90.8203	75.4314	90.8203	75.4312	90.8203	73.9098	90.8203	73.9066	90.8203	72.5374	90.8203	72.5325	90.8203	71.5809	90.8203	71.5772	90.8203	71.2395
95.2148	83.1943	95.2148	83.1627	95.2148	83.1724	95.2148	83.0769	95.2148	83.0962	95.2148	82.9347	95.2148	82.9632	95.2148	82.7315	95.2148	82.7688	95.2148	82.4606	95.2148	82.5061	95.2148	82.1117	95.2148	82.1649	95.2148	81.6705	95.2148	81.7309	95.2148	81.1174	95.2148	81.1847	95.2148	80.4268	95.2148	80.5008	95.2148	79.5661	95.2148	79.6471	95.2148	78.4969	95.2148	78.5853	95.2148	77.1774	95.2148	77.2739	95.2148	75.5733	95.2148	75.6781	95.2148	73.6839	95.2148	73.7955	95.2148	71.6041	95.2148	71.7156	95.2148	69.6165	95.2148	69.7114	95.2148	68.1886	95.2148	68.2433	95.2148	67.6975
98.1445	83.0648	98.1445	83.0291	98.1445	83.0432	98.1445	82.9354	98.1445	82.9633	98.1445	82.781	98.1445	82.8226	98.1445	82.5613	98.1445	82.6162	98.1445	82.2687	98.1445	82.3365	98.1445	81.8922	98.1445	81.9726	98.1445	81.4159	98.1445	81.5088	98.1445	80.818	98.1445	80.9236	98.1445	80.0692	98.1445	80.1881	98.1445	79.1312	98.1445	79.2646	98.1445	77.956	98.1445	78.1057	98.1445	76.4869	98.1445	76.655	98.1445	74.6649	98.1445	74.8532	98.1445	72.4549	98.1445	72.6617	98.1445	69.9231	98.1445	70.1348	98.1445	67.4074	98.1445	67.5857	98.1445	65.5934	98.1445	65.6886	98.1445	64.9985
101.074	82.8856	101.074	82.8493	101.074	82.8612	101.074	82.7514	101.074	82.7749	101.074	82.5892	101.074	82.6241	101.074	82.3576	101.074	82.4035	101.074	82.0487	101.074	82.1053	101.074	81.6506	101.074	81.7174	101.074	81.1461	101.074	81.2228	101.074	80.5112	101.074	80.5978	101.074	79.7132	101.074	79.8099	101.074	78.708	101.074	78.8152	101.074	77.438	101.074	77.5564	101.074	75.8292	101.074	75.9591	101.074	73.7931	101.074	73.9331	101.074	71.2443	101.074	71.3864	101.074	68.1884	101.074	68.306	101.074	65.0158	101.074	65.0527	101.074	62.7886	101.074	62.7428	101.074	62.0983
105.469	82.7613	105.469	82.7275	105.469	82.7296	105.469	82.6273	105.469	82.6312	105.469	82.4576	105.469	82.4632	105.469	82.213	105.469	82.22	105.469	81.8847	105.469	81.8928	105.469	81.4594	105.469	81.4685	105.469	80.9182	105.469	80.9283	105.469	80.2336	105.469	80.2454	105.469	79.3675	105.469	79.3821	105.469	78.2667	105.469	78.2861	105.469	76.8571	105.469	76.8841	105.469	75.0339	105.469	75.0728	105.469	72.6475	105.469	72.7036	105.469	69.4852	105.469	69.5642	105.469	65.3181	105.469	65.4177	105.469	60.6283	105.469	60.6868	105.469	58.6071	105.469	58.5592	105.469	58.8154
108.398	82.6653	108.398	82.6243	108.398	82.6388	108.398	82.5149	108.398	82.5435	108.398	82.334	108.398	82.3762	108.398	82.0763	108.398	82.1314	108.398	81.7328	108.398	81.7998	108.398	81.29	108.398	81.3682	108.398	80.7281	108.398	80.8169	108.398	80.0186	108.398	80.118	108.398	79.121	108.398	79.2315	108.398	77.9779	108.398	78.1014	108.398	76.5074	108.398	76.6471	108.398	74.5896	108.398	74.7512	108.398	72.0419	108.398	72.234	108.398	68.5732	108.398	68.8061	108.398	63.7666	108.398	64.0275	108.398	58.2672	108.398	58.2942	108.398	57.6885	108.398	57.4441	108.398	58.645
112.793	82.5874	112.793	82.5508	112.793	82.5524	112.793	82.442	112.793	82.4448	112.793	82.2577	112.793	82.2614	112.793	81.9925	112.793	81.9962	112.793	81.6371	112.793	81.6398	112.793	81.1777	112.793	81.178	112.793	80.5936	112.793	80.5899	112.793	79.8544	112.793	79.8451	112.793	78.9164	112.793	78.8996	112.793	77.7159	112.793	77.6899	112.793	76.1592	112.793	76.1222	112.793	74.1029	112.793	74.0515	112.793	71.3112	112.793	71.2373	112.793	67.3567	112.793	67.2326	112.793	61.5027	112.793	61.1997	112.793	56.492	112.793	55.9099	112.793	59.5666	112.793	59.4359	112.793	60.9979
117.188	82.4053	117.188	82.3675	117.188	82.3689	117.188	82.2544	117.188	82.2571	117.188	82.0633	117.188	82.0665	117.188	81.7884	117.188	81.7912	117.188	81.4204	117.188	81.4218	117.188	80.945	117.188	80.944	117.188	80.3408	117.188	80.3367	117.188	79.5758	117.188	79.5686	117.188	78.6034	117.188	78.5941	117.188	77.3549	117.188	77.3457	117.188	75.7268	117.188	75.7213	117.188	73.554	117.188	73.5571	117.188	70.5465	117.188	70.5627	117.188	66.1003	117.188	66.1226	117.188	58.6983	117.188	58.5345	117.188	54.5942	117.188	53.5456	117.188	60.2081	117.188	59.9927	117.188	61.7286
120.117	82.3732	120.117	82.3433	120.117	82.3277	120.117	82.2372	120.117	82.2054	120.117	82.0519	120.117	82.0031	120.117	81.782	120.117	81.7145	120.117	81.4179	120.117	81.3302	120.117	80.9452	120.117	80.8355	120.117	80.3421	120.117	80.2089	120.117	79.5763	120.117	79.4181	120.117	78.6	120.117	78.4154	120.117	77.3425	120.117	77.1299	120.117	75.6961	120.117	75.4517	120.117	73.4857	120.117	73.2008	120.117	70.3914	120.117	70.0423	120.117	65.6843	120.117	65.191	120.117	56.7296	120.117	55.5189	120.117	52.4265	120.117	52.7498	120.117	60.4057	120.117	60.5338	120.117	62.1466
124.512	82.4365	124.512	82.4022	124.512	82.3919	124.512	82.2878	124.512	82.2673	124.512	82.0901	124.512	82.0592	124.512	81.8026	124.512	81.7613	124.512	81.4153	124.512	81.3636	124.512	80.9123	124.512	80.8504	124.512	80.27	124.512	80.1983	124.512	79.4529	124.512	79.3721	124.512	78.4082	124.512	78.3188	124.512	77.055	124.512	76.9576	124.512	75.2653	124.512	75.1598	124.512	72.8177	124.512	72.7021	124.512	69.2638	124.512	69.1309	124.512	63.3593	124.512	63.1846	124.512	46.9705	124.512	47.2736	124.512	59.0423	124.512	59.2083	124.512	63.935	124.512	63.9751	124.512	65.1619
128.906	82.455	128.906	82.4108	128.906	82.4175	128.906	82.2841	128.906	82.2973	128.906	82.0712	128.906	82.0905	128.906	81.7656	128.906	81.7906	128.906	81.3569	128.906	81.3868	128.906	80.8286	128.906	80.8628	128.906	80.1562	128.906	80.1937	128.906	79.3024	128.906	79.3426	128.906	78.2108	128.906	78.2531	128.906	76.7937	128.906	76.8382	128.906	74.908	128.906	74.9558	128.906	72.2964	128.906	72.3501	128.906	68.4005	128.906	68.4672	128.906	61.4215	128.906	61.5243	128.906	44.3469	128.906	42.1599	128.906	61.5914	128.906	61.5095	128.906	65.5202	128.906	65.4955	128.906	66.5484
133.301	82.4581	133.301	82.4225	133.301	82.4099	133.301	82.3022	133.301	82.2762	133.301	82.0939	133.301	82.0531	133.301	81.7915	133.301	81.7334	133.301	81.3845	133.301	81.306	133.301	80.8572	133.301	80.7539	133.301	80.1852	133.301	80.0517	133.301	79.3314	133.301	79.1609	133.301	78.2394	133.301	78.0226	133.301	76.821	133.301	76.5446	133.301	74.9316	133.301	74.5732	133.301	72.31	133.301	71.8246	133.301	68.3907	133.301	67.6578	133.301	61.406	133.301	59.8593	133.301	51.2764	133.301	52.6357	133.301	62.4337	133.301	63.0106	133.301	66.1388	133.301	66.3445	133.301	67.1986
139.16	82.3544	139.16	82.3207	139.16	82.3035	139.16	82.2013	139.16	82.1667	139.16	81.993	139.16	81.9405	139.16	81.6896	139.16	81.6183	139.16	81.2811	139.16	81.1901	139.16	80.7523	139.16	80.6398	139.16	80.0794	139.16	79.9437	139.16	79.2268	139.16	79.0656	139.16	78.1394	139.16	77.9497	139.16	76.7311	139.16	76.5093	139.16	74.8612	139.16	74.6009	139.16	72.2774	139.16	71.966	139.16	68.4391	139.16	68.0457	139.16	61.6648	139.16	61.1132	139.16	46.4883	139.16	50.7481	139.16	61.3814	139.16	61.8356	139.16	65.3764	139.16	65.5078	139.16	66.4634
143.555	82.2615	143.555	82.2217	143.555	82.216	143.555	82.0959	143.555	82.084	143.555	81.881	143.555	81.8616	143.555	81.5709	143.555	81.5426	143.555	81.1562	143.555	81.1166	143.555	80.6218	143.555	80.5682	143.555	79.9447	143.555	79.8743	143.555	79.0899	143.555	78.9999	143.555	78.0031	143.555	77.8912	143.555	76.5999	143.555	76.4642	143.555	74.742	143.555	74.5803	143.555	72.1828	143.555	71.9902	143.555	68.3979	143.555	68.1582	143.555	61.772	143.555	61.4108	143.555	37.015	143.555	42.465	143.555	60.597	143.555	60.7776	143.555	64.8054	143.555	64.8522	143.555	65.9058
147.949	82.1972	147.949	82.1646	147.949	82.1431	147.949	82.0449	147.949	82.0009	147.949	81.8349	147.949	81.7667	147.949	81.5288	147.949	81.4339	147.949	81.1172	147.949	80.9925	147.949	80.5849	147.949	80.4272	147.949	79.9092	147.949	79.715	147.949	79.055	147.949	78.8211	147.949	77.9682	147.949	77.6915	147.949	76.5643	147.949	76.2404	147.949	74.7049	147.949	74.3257	147.949	72.1439	147.949	71.6878	147.949	68.3622	147.949	67.7615	147.949	61.8242	147.949	60.7323	147.949	49.1672	147.949	47.2812	147.949	61.0384	147.949	61.3005	147.949	65.025	147.949	65.1121	147.949	66.1035
153.809	82.4443	153.809	82.3898	153.809	82.4119	153.809	82.2472	153.809	82.2911	153.809	82.0126	153.809	82.0783	153.809	81.6791	153.809	81.7665	153.809	81.236	153.809	81.3453	153.809	80.6666	153.809	80.799	153.809	79.9462	153.809	80.1038	153.809	79.0372	153.809	79.2242	153.809	77.8813	153.809	78.1051	153.809	76.3855	153.809	76.6588	153.809	74.3932	153.809	74.7386	153.809	71.6111	153.809	72.074	153.809	67.3633	153.809	68.06	153.809	59.1621	153.809	60.6217	153.809	52.5243	153.809	48.0575	153.809	63.1382	153.809	62.4463	153.809	66.4199	153.809	66.1825	153.809	67.2518
159.668	82.3091	159.668	82.2684	159.668	82.2663	159.668	82.1433	159.668	82.1386	159.668	81.93	159.668	81.9215	159.668	81.6216	159.668	81.6076	159.668	81.2072	159.668	81.1854	159.668	80.671	159.668	80.6386	159.668	79.9897	159.668	79.9431	159.668	79.1283	159.668	79.0634	159.668	78.0335	159.668	77.9455	159.668	76.6221	159.668	76.5051	159.668	74.7573	159.668	74.6028	159.668	72.1958	159.668	71.9889	159.668	68.4327	159.668	68.1403	159.668	62.1111	159.668	61.6462	159.668	54.093	159.668	54.6277	159.668	61.9715	159.668	62.2738	159.668	65.5878	159.668	65.6912	159.668	66.6127
165.527	82.2129	165.527	82.1566	165.527	82.1747	165.527	82.0045	165.527	82.0401	165.527	81.7523	165.527	81.804	165.527	81.3918	165.527	81.4576	165.527	80.911	165.527	80.9878	165.527	80.2922	165.527	80.3763	165.527	79.51	165.527	79.5969	165.527	78.5266	165.527	78.6115	165.527	77.2836	165.527	77.3625	165.527	75.6876	165.527	75.7576	165.527	73.5775	165.527	73.6383	165.527	70.6479	165.527	70.7015	165.527	66.2099	165.527	66.25	165.527	58.4907	165.527	58.2862	165.527	58.2208	165.527	57.6266	165.527	64.3252	165.527	64.1545	165.527	66.9949	165.527	66.9313	165.527	67.7497
171.387	82.1424	171.387	82.0914	171.387	82.0889	171.387	81.9352	171.387	81.929	171.387	81.6698	171.387	81.6572	171.387	81.2877	171.387	81.2649	171.387	80.7778	171.387	80.7398	171.387	80.124	171.387	80.0647	171.387	79.3026	171.387	79.2154	171.387	78.2778	171.387	78.1562	171.387	76.9925	171.387	76.8306	171.387	75.3514	171.387	75.1438	171.387	73.1847	171.387	72.9229	171.387	70.1542	171.387	69.8144	171.387	65.4264	171.387	64.9058	171.387	55.8109	171.387	53.9356	171.387	57.3777	171.387	57.3077	171.387	64.3253	171.387	64.3609	171.387	67.0627	171.387	67.0749	171.387	67.8493
177.246	82.0029	177.246	81.9442	177.246	81.9584	177.246	81.7807	177.246	81.8093	177.246	81.5077	177.246	81.5511	177.246	81.1172	177.246	81.1761	177.246	80.5974	177.246	80.673	177.246	79.9315	177.246	80.026	177.246	79.0956	177.246	79.2128	177.246	78.0538	177.246	78.1997	177.246	76.7494	177.246	76.9338	177.246	75.0871	177.246	75.3259	177.246	72.8951	177.246	73.2161	177.246	69.8264	177.246	70.2868	177.246	64.9931	177.246	65.7585	177.246	54.1152	177.246	56.3327	177.246	56.2392	177.246	54.4296	177.246	63.8462	177.246	63.3366	177.246	66.6146	177.246	66.4241	177.246	67.3442
183.105	82.1776	183.105	82.1173	183.105	82.1333	183.105	81.9516	183.105	81.9825	183.105	81.6763	183.105	81.7198	183.105	81.2839	183.105	81.3367	183.105	80.7636	183.105	80.8212	183.105	80.1	183.105	80.1566	183.105	79.2715	183.105	79.3201	183.105	78.2459	183.105	78.2779	183.105	76.9724	183.105	76.9781	183.105	75.3659	183.105	75.3334	183.105	73.2742	183.105	73.1885	183.105	70.3988	183.105	70.2358	183.105	66.0294	183.105	65.7304	183.105	57.4779	183.105	56.7614	183.105	53.2311	183.105	54.2876	183.105	62.6516	183.105	62.9121	183.105	65.8461	183.105	65.9384	183.105	66.7596
188.965	82.409	188.965	82.3478	188.965	82.3637	188.965	82.1789	188.965	82.2095	188.965	81.8979	188.965	81.9407	188.965	81.4969	188.965	81.5479	188.965	80.9645	188.965	81.018	188.965	80.2849	188.965	80.3333	188.965	79.4363	188.965	79.4699	188.965	78.3873	188.965	78.3943	188.965	77.0885	188.965	77.0553	188.965	75.4567	188.965	75.3684	188.965	73.3425	188.965	73.1812	188.965	70.4502	188.965	70.1876	188.965	66.0756	188.965	65.6372	188.965	57.5987	188.965	56.5759	188.965	53.4522	188.965	54.5161	188.965	62.6767	188.965	62.9584	188.965	65.8578	188.965	65.9559	188.965	66.77
196.289	82.3503	196.289	82.2913	196.289	82.2972	196.289	82.1187	196.289	82.1297	196.289	81.827	196.289	81.8418	196.289	81.4068	196.289	81.4232	196.289	80.8447	196.289	80.8601	196.289	80.1228	196.289	80.1341	196.289	79.2173	196.289	79.2213	196.289	78.0947	196.289	78.0885	196.289	76.7035	196.289	76.6854	196.289	74.9564	196.289	74.9271	196.289	72.692	196.289	72.6544	196.289	69.5759	196.289	69.533	196.289	64.7566	196.289	64.6899	196.289	54.7559	196.289	53.9748	196.289	56.6999	196.289	55.8944	196.289	63.7302	196.289	63.5541	196.289	66.4602	196.289	66.396	196.289	67.2228
203.613	82.1455	203.613	82.0669	203.613	82.1084	203.613	81.8704	203.613	81.9535	203.613	81.5498	203.613	81.6749	203.613	81.0951	203.613	81.2628	203.613	80.4922	203.613	80.7037	203.613	79.7228	203.613	79.9801	203.613	78.7635	203.613	79.0699	203.613	77.5825	203.613	77.9436	203.613	76.1314	203.613	76.557	203.613	74.3273	203.613	74.8351	203.613	72.0106	203.613	72.6363	203.613	68.8392	203.613	69.6634	203.613	63.9056	203.613	65.1733	203.613	52.7827	203.613	56.1492	203.613	55.827	203.613	53.2081	203.613	63.1238	203.613	62.3953	203.613	65.8384	203.613	65.5711	203.613	66.5363
210.938	82.1484	210.938	82.0925	210.938	82.0861	210.938	81.9169	210.938	81.9026	210.938	81.6165	210.938	81.5909	210.938	81.1825	210.938	81.1394	210.938	80.6031	210.938	80.5323	210.938	79.8636	210.938	79.7493	210.938	78.946	210.938	78.7648	210.938	77.8264	210.938	77.5459	210.938	76.4683	210.938	76.045	210.938	74.8064	210.938	74.1833	210.938	72.7135	210.938	71.8109	210.938	69.9253	210.938	68.6041	210.938	65.8133	210.938	63.7182	210.938	58.1765	210.938	53.7852	210.938	49.0999	210.938	55.8329	210.938	61.0614	210.938	62.6629	210.938	64.718	210.938	65.2831	210.938	65.8759
218.262	82.3002	218.262	82.2504	218.262	82.23	218.262	82.0789	218.262	82.0367	218.262	81.7796	218.262	81.7129	218.262	81.3422	218.262	81.2466	218.262	80.7522	218.262	80.6218	218.262	79.991	218.262	79.8185	218.262	79.0358	218.262	78.8124	218.262	77.8571	218.262	77.5733	218.262	76.4119	218.262	76.0581	218.262	74.6278	218.262	74.1943	218.262	72.3671	218.262	71.8414	218.262	69.3458	218.262	68.698	218.262	64.9189	218.262	64.0401	218.262	57.8799	218.262	56.4124	218.262	58.2268	218.262	58.181	218.262	63.5882	218.262	63.6284	218.262	66.1354	218.262	66.1427	218.262	66.8876
225.586	82.478	225.586	82.4291	225.586	82.4019	225.586	82.2531	225.586	82.1973	225.586	81.9423	225.586	81.855	225.586	81.4837	225.586	81.3604	225.586	80.8587	225.586	80.6929	225.586	80.0434	225.586	79.826	225.586	79.0073	225.586	78.7266	225.586	77.7103	225.586	77.351	225.586	76.0946	225.586	75.6359	225.586	74.0628	225.586	73.4722	225.586	71.4262	225.586	70.6338	225.586	67.7713	225.586	66.5499	225.586	62.1497	225.586	59.1453	225.586	57.1958	225.586	50.426	225.586	62.9642	225.586	62.4794	225.586	66.8423	225.586	66.7368	225.586	68.7566	225.586	68.723	225.586	69.3338
232.91	82.4304	232.91	82.3467	232.91	82.388	232.91	82.1335	232.91	82.2168	232.91	81.7815	232.91	81.9087	232.91	81.2762	232.91	81.4494	232.91	80.5972	232.91	80.8194	232.91	79.7197	232.91	79.9934	232.91	78.614	232.91	78.9407	232.91	77.2447	232.91	77.6229	232.91	75.5644	232.91	75.9877	232.91	73.4942	232.91	73.9497	232.91	70.8681	232.91	71.3387	232.91	67.2768	232.91	67.7499	232.91	61.4584	232.91	61.9349	232.91	48.1062	232.91	45.6913	232.91	59.482	232.91	59.1317	232.91	64.7768	232.91	64.698	232.91	67.0945	232.91	67.0711	232.91	67.777
241.699	82.5168	241.699	82.4527	241.699	82.4504	241.699	82.2566	241.699	82.2489	241.699	81.9203	241.699	81.9012	241.699	81.4294	241.699	81.3898	241.699	80.7635	241.699	80.6911	241.699	79.8961	241.699	79.7748	241.699	78.7953	241.699	78.6043	241.699	77.4222	241.699	77.1353	241.699	75.7254	241.699	75.3107	241.699	73.6215	241.699	73.0439	241.699	70.9417	241.699	70.1641	241.699	67.2741	241.699	66.2407	241.699	61.331	241.699	59.8685	241.699	47.4489	241.699	49.9077	241.699	59.4927	241.699	60.2619	241.699	64.7251	241.699	64.913	241.699	67.0187	241.699	67.066	241.699	67.7086
250.488	82.5188	250.488	82.4454	250.488	82.4596	250.488	82.2365	250.488	82.2647	250.488	81.8831	250.488	81.9248	250.488	81.3703	250.488	81.4247	250.488	80.6766	250.488	80.744	250.488	79.7744	250.488	79.8576	250.488	78.6298	250.488	78.737	250.488	77.2011	250.488	77.3513	250.488	75.4335	250.488	75.6644	250.488	73.2434	250.488	73.6214	250.488	70.4727	250.488	71.1033	250.488	66.7781	250.488	67.8054	250.488	61.5055	250.488	62.8738	250.488	57.5867	250.488	54.1374	250.488	62.1035	250.488	58.2862	250.488	65.6108	250.488	64.0188	250.488	67.3274	250.488	66.6871	250.488	67.6703
259.277	83.1512	259.277	83.0572	259.277	83.1145	259.277	82.8285	259.277	82.9442	259.277	82.4539	259.277	82.6301	259.277	81.9151	259.277	82.1544	259.277	81.187	259.277	81.4925	259.277	80.2373	259.277	80.6124	259.277	79.0262	259.277	79.475	259.277	77.5034	259.277	78.0315	259.277	75.5996	259.277	76.216	259.277	73.1977	259.277	73.9224	259.277	70.0465	259.277	70.9339	259.277	65.4511	259.277	66.6978	259.277	56.3628	259.277	59.3217	259.277	54.438	259.277	54.2573	259.277	63.7197	259.277	63.2963	259.277	67.4644	259.277	67.2593	259.277	69.2617	259.277	69.1751	259.277	69.7869
268.066	83.8148	268.066	83.7325	268.066	83.7656	268.066	83.5155	268.066	83.5799	268.066	83.1527	268.066	83.245	268.066	82.6241	268.066	82.7394	268.066	81.9009	268.066	82.0321	268.066	80.9442	268.066	81.0808	268.066	79.703	268.066	79.828	268.066	78.1098	268.066	78.1943	268.066	76.0679	268.066	76.0617	268.066	73.4185	268.066	73.2271	268.066	69.8371	268.066	69.2506	268.066	64.451	268.066	62.7371	268.066	54.7124	268.066	46.2191	268.066	59.8977	268.066	61.5162	268.066	65.7373	268.066	66.6808	268.066	68.7201	268.066	69.2582	268.066	70.2959	268.066	70.5447	268.066	70.8697
276.855	83.2196	276.855	83.0978	276.855	83.2079	276.855	82.8355	276.855	83.0598	276.855	82.4156	276.855	82.7627	276.855	81.81	276.855	82.2943	276.855	80.979	276.855	81.6231	276.855	79.869	276.855	80.7083	276.855	78.4108	276.855	79.501	276.855	76.5165	276.855	77.9458	276.855	74.079	276.855	75.9849	276.855	70.9893	276.855	73.5664	276.855	67.2501	276.855	70.6567	276.855	63.4851	276.855	67.2501	276.855	61.4844	276.855	63.3636	276.855	61.5436	276.855	59.3373	276.855	62.2112	276.855	57.7274	276.855	62.9228	276.855	59.8445	276.855	63.3729	276.855	62.0371	276.855	63.1804
287.109	82.4571	287.109	82.3917	287.109	82.3928	287.109	82.1902	287.109	82.1963	287.109	81.8372	287.109	81.8554	287.109	81.3084	287.109	81.3487	287.109	80.571	287.109	80.6444	287.109	79.5842	287.109	79.6993	287.109	78.3012	287.109	78.4581	287.109	76.6732	287.109	76.8508	287.109	74.6562	287.109	74.7903	287.109	72.2167	287.109	72.1652	287.109	69.3153	287.109	68.8184	287.109	65.8	287.109	64.4526	287.109	61.0461	287.109	58.15	287.109	52.5831	287.109	44.6945	287.109	51.5284	287.109	53.2947	287.109	58.9607	287.109	59.2436	287.109	61.9032	287.109	61.881	287.109	62.7109
297.363	82.5745	297.363	82.5444	297.363	82.4822	297.363	82.3864	297.363	82.2619	297.363	82.0854	297.363	81.8983	297.363	81.6159	297.363	81.3656	297.363	80.9437	297.363	80.6282	297.363	80.0267	297.363	79.641	297.363	78.8169	297.363	78.3502	297.363	77.2635	297.363	76.6947	297.363	75.319	297.363	74.6099	297.363	72.9512	297.363	72.0344	297.363	70.1567	297.363	68.9192	297.363	66.9436	297.363	65.2149	297.363	63.2022	297.363	60.8135	297.363	58.5825	297.363	56.2649	297.363	55.1269	297.363	56.5842	297.363	58.199	297.363	59.9706	297.363	61.2446	297.363	62.0304	297.363	62.4629
307.617	82.6683	307.617	82.6333	307.617	82.5696	307.617	82.4624	307.617	82.3292	307.617	82.1439	307.617	81.9294	307.617	81.6562	307.617	81.3426	307.617	80.9693	307.617	80.5306	307.617	80.0449	307.617	79.444	307.617	78.8388	307.617	78.0193	307.617	77.303	307.617	76.1747	307.617	75.3908	307.617	73.8026	307.617	73.0659	307.617	70.7558	307.617	70.3253	307.617	66.835	307.617	67.2663	307.617	61.9208	307.617	64.346	307.617	57.7771	307.617	62.8737	307.617	59.0915	307.617	63.6372	307.617	62.1091	307.617	65.1692	307.617	64.4395	307.617	66.2533	307.617	65.9216	307.617	66.5281
319.336	82.438	319.336	82.3806	319.336	82.3623	319.336	82.184	319.336	82.1483	319.336	81.8308	319.336	81.7787	319.336	81.2924	319.336	81.2234	319.336	80.5274	319.336	80.4383	319.336	79.4802	319.336	79.363	319.336	78.0764	319.336	77.9175	319.336	76.2146	319.336	75.9927	319.336	73.7482	319.336	73.4306	319.336	70.4375	319.336	69.9727	319.336	65.8004	319.336	65.0915	319.336	58.4412	319.336	57.1252	319.336	48.2121	319.336	41.4662	319.336	57.3973	319.336	55.9398	319.336	61.6073	319.336	60.412	319.336	63.9136	319.336	63.0661	319.336	65.1452	319.336	64.7187	319.336	65.415
329.59	82.3945	329.59	82.3046	329.59	82.3389	329.59	82.0631	329.59	82.1325	329.59	81.6527	329.59	81.7582	329.59	81.0437	329.59	81.1869	329.59	80.1928	329.59	80.3749	329.59	79.0406	329.59	79.2618	329.59	77.5062	329.59	77.764	329.59	75.4773	329.59	75.7635	329.59	72.7878	329.59	73.0814	329.59	69.1696	329.59	69.4094	329.59	64.1596	329.59	64.084	329.59	57.5818	329.59	54.925	329.59	56.2331	329.59	48.5547	329.59	59.3483	329.59	56.2251	329.59	61.2535	329.59	58.9814	329.59	62.4018	329.59	60.7686	329.59	63.0204	329.59	62.183	329.59	62.9793
341.309	82.1389	341.309	82.0468	341.309	82.0897	341.309	81.803	341.309	81.8953	341.309	81.3829	341.309	81.5384	341.309	80.7469	341.309	80.9879	341.309	79.8391	341.309	80.2002	341.309	78.5831	341.309	79.118	341.309	76.8725	341.309	77.669	341.309	74.5501	341.309	75.7623	341.309	71.3568	341.309	73.2842	341.309	66.7909	341.309	70.1004	341.309	59.7022	341.309	66.1105	341.309	52.9591	341.309	61.5448	341.309	57.5633	341.309	57.5492	341.309	59.2817	341.309	54.5317	341.309	58.9738	341.309	50.2873	341.309	58.0436	341.309	48.1257	341.309	57.294	341.309	53.1845	341.309	56.1143
353.027	82.2999	353.027	82.2004	353.027	82.3145	353.027	82.007	353.027	82.2371	353.027	81.6942	353.027	82.0466	353.027	81.2204	353.027	81.7094	353.027	80.5296	353.027	81.1825	353.027	79.5531	353.027	80.4142	353.027	78.2121	353.027	79.3459	353.027	76.4218	353.027	77.9123	353.027	74.1111	353.027	76.0437	353.027	71.2976	353.027	73.673	353.027	68.306	353.027	70.7588	353.027	65.9216	353.027	67.3454	353.027	64.3987	353.027	63.6885	353.027	62.682	353.027	60.3992	353.027	59.5071	353.027	58.3141	353.027	53.402	353.027	57.5803	353.027	49.0849	353.027	56.9338	353.027	54.612
366.211	82.1372	366.211	82.2155	366.211	82.0036	366.211	82.2327	366.211	81.8059	366.211	82.1693	366.211	81.5205	366.211	81.9917	366.211	81.109	366.211	81.6536	366.211	80.5186	366.211	81.0979	366.211	79.6842	366.211	80.2592	366.211	78.5335	366.211	79.0676	366.211	76.9973	366.211	77.4549	366.211	75.0386	366.211	75.3674	366.211	72.7354	366.211	72.8028	366.211	70.448	366.211	69.9069	366.211	68.8275	366.211	67.1821	366.211	68.129	366.211	65.5906	366.211	67.9306	366.211	65.6758	366.211	67.9374	366.211	66.7064	366.211	68.128	366.211	67.7288	366.211	68.3513	366.211	68.2917
379.395	81.7685	379.395	81.7289	379.395	81.7371	379.395	81.6154	379.395	81.6257	379.395	81.4143	379.395	81.4111	379.395	81.0986	379.395	81.0521	379.395	80.6254	379.395	80.486	379.395	79.934	379.395	79.6254	379.395	78.944	379.395	78.3524	379.395	77.5569	379.395	76.5024	379.395	75.6594	379.395	73.8195	379.395	73.1475	379.395	69.8226	379.395	70.0463	379.395	63.3503	379.395	66.9744	379.395	55.487	379.395	65.4799	379.395	61.3521	379.395	65.6923	379.395	64.3712	379.395	66.2445	379.395	65.4023	379.395	66.6299	379.395	65.8076	379.395	66.7833	379.395	66.2284	379.395	66.6341
392.578	81.7221	392.578	81.6448	392.578	81.7172	392.578	81.483	392.578	81.6273	392.578	81.2298	392.578	81.4424	392.578	80.8706	392.578	81.1404	392.578	80.378	392.578	80.683	392.578	79.7047	392.578	80.0115	392.578	78.7768	392.578	79.0443	392.578	77.4872	392.578	77.6743	392.578	75.6846	392.578	75.7635	392.578	73.1461	392.578	73.1295	392.578	69.4999	392.578	69.5323	392.578	64.019	392.578	64.8104	392.578	56.3262	392.578	60.3668	392.578	57.652	392.578	60.0107	392.578	60.7536	392.578	61.0437	392.578	61.7417	392.578	61.5053	392.578	61.8764	392.578	61.6899	392.578	61.8105
405.762	81.3468	405.762	81.2084	405.762	81.2785	405.762	80.8502	405.762	81.0132	405.762	80.2562	405.762	80.5632	405.762	79.4158	405.762	79.9505	405.762	78.3449	405.762	79.2135	405.762	77.1193	405.762	78.4001	405.762	75.8979	405.762	77.5426	405.762	74.8541	405.762	76.6207	405.762	73.9894	405.762	75.5452	405.762	73.0566	405.762	74.1828	405.762	71.7211	405.762	72.4055	405.762	69.7466	405.762	70.1565	405.762	67.2026	405.762	67.5879	405.762	64.9955	405.762	65.3161	405.762	64.5037	405.762	64.2373	405.762	65.0579	405.762	64.336	405.762	65.4122	405.762	64.8535	405.762	65.2969
420.41	83.4268	420.41	83.3883	420.41	83.295	420.41	83.1663	420.41	82.9805	420.41	82.7224	420.41	82.4431	420.41	81.9919	420.41	81.6118	420.41	80.8786	420.41	80.3778	420.41	79.2432	420.41	78.5812	420.41	76.8792	420.41	75.9817	420.41	73.4784	420.41	72.2523	420.41	68.813	420.41	67.7112	420.41	65.378	420.41	66.9757	420.41	66.9375	420.41	69.4008	420.41	68.2329	420.41	70.5952	420.41	67.6271	420.41	70.1853	420.41	64.8116	420.41	68.1021	420.41	58.3889	420.41	63.6899	420.41	49.4937	420.41	53.3439	420.41	57.4326	420.41	51.8215	420.41	58.3077
435.059	83.0087	435.059	82.9501	435.059	82.9676	435.059	82.7813	435.059	82.8156	435.059	82.4707	435.059	82.5182	435.059	81.9644	435.059	82.0151	435.059	81.1827	435.059	81.2173	435.059	80.0121	435.059	80.0008	435.059	78.2867	435.059	78.1909	435.059	75.7401	435.059	75.5184	435.059	71.8643	435.059	71.5091	435.059	65.4198	435.059	65.4293	435.059	57.8207	435.059	61.91	435.059	63.9017	435.059	65.6057	435.059	66.4932	435.059	67.3117	435.059	66.4222	435.059	66.9905	435.059	64.4719	435.059	65.0671	435.059	61.1193	435.059	61.8982	435.059	58.0075	435.059	58.7071	435.059	57.3227
451.172	82.8471	451.172	82.8258	451.172	82.7683	451.172	82.7033	451.172	82.5775	451.172	82.4607	451.172	82.2521	451.172	82.0565	451.172	81.7565	451.172	81.4255	451.172	81.0353	451.172	80.4821	451.172	80.0039	451.172	79.1226	451.172	78.5365	451.172	77.2221	451.172	76.4442	451.172	74.6211	451.172	73.4274	451.172	71.0954	451.172	68.9789	451.172	66.3182	451.172	62.8079	451.172	60.1275	451.172	61.3558	451.172	55.7347	451.172	63.9801	451.172	56.3552	451.172	64.457	451.172	57.4805	451.172	63.0469	451.172	59.0203	451.172	60.924	451.172	60.4329	451.172	60.3227	451.172	60.7974
465.82	82.3846	465.82	82.3033	465.82	82.3756	465.82	82.1238	465.82	82.2685	465.82	81.8223	465.82	82.0373	465.82	81.3568	465.82	81.634	465.82	80.6644	465.82	80.984	465.82	79.6589	465.82	79.9795	465.82	78.234	465.82	78.4695	465.82	76.2792	465.82	76.2376	465.82	73.7534	465.82	72.9625	465.82	70.9666	465.82	68.3016	465.82	68.9965	465.82	64.0841	465.82	68.4082	465.82	65.267	465.82	67.9048	465.82	66.7045	465.82	66.2935	465.82	66.2486	465.82	62.8244	465.82	63.8897	465.82	56.2307	465.82	59.666	465.82	47.6688	465.82	55.0185	465.82	52.2517
483.398	82.657	483.398	82.6115	483.398	82.5959	483.398	82.4423	483.398	82.4305	483.398	82.1187	483.398	82.1469	483.398	81.594	483.398	81.7117	483.398	80.8022	483.398	81.0724	483.398	79.6556	483.398	80.1598	483.398	78.0443	483.398	78.8927	483.398	75.8448	483.398	77.1861	483.398	72.9698	483.398	74.9692	483.398	69.6135	483.398	72.2289	483.398	66.8725	483.398	69.103	483.398	65.8386	483.398	65.9359	483.398	65.2904	483.398	62.9944	483.398	64.1658	483.398	60.5251	483.398	63.1983	483.398	60.4976	483.398	63.8777	483.398	62.962	483.398	65.2317	483.398	65.0075	483.398	65.7603
499.512	82.0823	499.512	82.06	499.512	82.0118	499.512	81.9408	499.512	81.8374	499.512	81.701	499.512	81.5337	499.512	81.2902	499.512	81.0559	499.512	80.6242	499.512	80.3316	499.512	79.5803	499.512	79.2525	499.512	77.9869	499.512	77.6687	499.512	75.6013	499.512	75.3913	499.512	72.0725	499.512	72.2809	499.512	67.1896	499.512	68.9434	499.512	64.2084	499.512	68.0129	499.512	66.1908	499.512	69.185	499.512	67.4593	499.512	69.7256	499.512	67.0913	499.512	68.9414	499.512	65.5526	499.512	66.8348	499.512	63.7977	499.512	63.9358	499.512	62.8673	499.512	62.186	499.512	62.3758
517.09	82.7067	517.09	82.6305	517.09	82.6786	517.09	82.4466	517.09	82.5352	517.09	82.1368	517.09	82.251	517.09	81.6628	517.09	81.7843	517.09	80.9586	517.09	81.0744	517.09	79.9234	517.09	80.0378	517.09	78.4187	517.09	78.5594	517.09	76.2618	517.09	76.4778	517.09	73.211	517.09	73.5526	517.09	68.9981	517.09	69.4136	517.09	64.2102	517.09	63.9043	517.09	63.1734	517.09	61.5102	517.09	64.8895	517.09	64.1803	517.09	65.9624	517.09	66.15	517.09	66.6558	517.09	67.3839	517.09	67.571	517.09	68.3612	517.09	68.5632	517.09	69.0308	517.09	69.1296
536.133	82.4324	536.133	82.4331	536.133	82.3366	536.133	82.3268	536.133	82.1441	536.133	82.0868	536.133	81.8379	536.133	81.6689	536.133	81.3795	536.133	81.0092	536.133	80.7011	536.133	80.0242	536.133	79.7019	536.133	78.6163	536.133	78.2551	536.133	76.6912	536.133	76.2379	536.133	74.2111	536.133	73.6336	536.133	71.3327	536.133	70.8253	536.133	68.5414	536.133	68.7798	536.133	66.1335	536.133	67.6987	536.133	63.5216	536.133	66.5556	536.133	61.4075	536.133	65.2189	536.133	63.6213	536.133	65.3028	536.133	66.8903	536.133	67.07	536.133	68.7871	536.133	68.6842	536.133	69.3257
555.176	82.0849	555.176	82.0218	555.176	82.0293	555.176	81.8332	555.176	81.8495	555.176	81.4984	555.176	81.5268	555.176	80.9795	555.176	81.0221	555.176	80.2182	555.176	80.2643	555.176	79.1321	555.176	79.1404	555.176	77.6233	555.176	77.4992	555.176	75.6247	555.176	75.1943	555.176	73.2422	555.176	72.3044	555.176	70.9668	555.176	69.8645	555.176	69.2939	555.176	69.3402	555.176	67.6289	555.176	69.4458	555.176	64.6252	555.176	68.4682	555.176	59.2787	555.176	65.7057	555.176	60.0548	555.176	61.8029	555.176	64.8948	555.176	62.9638	555.176	67.1925	555.176	66.1608	555.176	67.5615
574.219	82.2619	574.219	82.1993	574.219	82.2722	574.219	82.0673	574.219	82.2246	574.219	81.8314	574.219	82.0842	574.219	81.4375	574.219	81.7858	574.219	80.8058	574.219	81.2394	574.219	79.8229	574.219	80.3385	574.219	78.3379	574.219	78.969	574.219	76.1661	574.219	77.017	574.219	73.1243	574.219	74.3813	574.219	69.2718	574.219	71.001	574.219	65.8337	574.219	66.8836	574.219	64.3983	574.219	62.1607	574.219	63.2714	574.219	59.2115	574.219	62.059	574.219	62.5702	574.219	64.0366	574.219	66.5025	574.219	67.4026	574.219	69.0741	574.219	69.6518	574.219	70.4098	574.219	70.6126
594.727	81.6896	594.727	81.6297	594.727	81.6579	594.727	81.4882	594.727	81.5201	594.727	81.261	594.727	81.2615	594.727	80.9207	594.727	80.8642	594.727	80.4103	594.727	80.2997	594.727	79.6445	594.727	79.5189	594.727	78.5187	594.727	78.4495	594.727	76.9239	594.727	77.0093	594.727	74.778	594.727	75.1489	594.727	72.1009	594.727	72.9427	594.727	69.1385	594.727	70.6749	594.727	66.2553	594.727	68.5872	594.727	63.3459	594.727	66.2951	594.727	60.886	594.727	63.1649	594.727	62.4669	594.727	61.5483	594.727	65.7252	594.727	64.5409	594.727	67.7151	594.727	67.1889	594.727	68.2092
615.234	82.7945	615.234	82.7511	615.234	82.7542	615.234	82.6092	615.234	82.6229	615.234	82.3333	615.234	82.3657	615.234	81.8629	615.234	81.9153	615.234	81.102	615.234	81.1634	615.234	79.9126	615.234	79.9517	615.234	78.1268	615.234	78.0704	615.234	75.6375	615.234	75.3266	615.234	72.8317	615.234	72.0694	615.234	71.3059	615.234	70.5859	615.234	71.4414	615.234	71.4021	615.234	71.2007	615.234	71.7252	615.234	69.3098	615.234	70.6186	615.234	64.9053	615.234	68.4461	615.234	61.5487	615.234	67.5289	615.234	66.7073	615.234	69.1999	615.234	69.9606	615.234	70.7888	615.234	71.1395
637.207	82.001	637.207	81.9835	637.207	81.9864	637.207	81.933	637.207	81.9339	637.207	81.8342	637.207	81.8306	637.207	81.6461	637.207	81.6422	637.207	81.2834	637.207	81.2871	637.207	80.6006	637.207	80.6165	637.207	79.3898	637.207	79.4162	637.207	77.3971	637.207	77.4188	637.207	74.3757	637.207	74.3376	637.207	70.4618	637.207	70.2004	637.207	67.5754	637.207	67.063	637.207	66.9531	637.207	66.7239	637.207	65.6495	637.207	65.9723	637.207	62.9931	637.207	64.8799	637.207	64.7594	637.207	67.1756	637.207	69.0377	637.207	70.4075	637.207	71.6628	637.207	72.2752	637.207	72.6835
659.18	82.1021	659.18	82.0666	659.18	82.0335	659.18	81.9247	659.18	81.8593	659.18	81.6707	659.18	81.5724	659.18	81.2883	659.18	81.1574	659.18	80.7388	659.18	80.5839	659.18	79.9486	659.18	79.7906	659.18	78.8068	659.18	78.6762	659.18	77.1985	659.18	77.1342	659.18	75.1322	659.18	75.1678	659.18	72.9883	659.18	73.0663	659.18	71.3668	659.18	71.2631	659.18	69.9106	659.18	69.4914	659.18	67.2388	659.18	66.5872	659.18	61.7027	659.18	61.3713	659.18	60.6909	659.18	62.0076	659.18	66.7792	659.18	67.3213	659.18	69.8007	659.18	70.018	659.18	70.7612
682.617	82.2507	682.617	82.2107	682.617	82.1808	682.617	82.0564	682.617	82.005	682.617	81.7795	682.617	81.7151	682.617	81.3551	682.617	81.2692	682.617	80.7229	682.617	80.5743	682.617	79.7685	682.617	79.486	682.617	78.3191	682.617	77.8294	682.617	76.2025	682.617	75.4953	682.617	73.5698	682.617	72.8838	682.617	71.7161	682.617	71.5549	682.617	71.6592	682.617	71.7675	682.617	71.5822	682.617	71.5565	682.617	69.9929	682.617	69.87	682.617	66.4449	682.617	66.7582	682.617	64.4006	682.617	65.7527	682.617	67.9533	682.617	68.667	682.617	70.6441	682.617	70.8938	682.617	71.5581
707.52	82.1219	707.52	82.1538	707.52	82.0434	707.52	82.1229	707.52	81.9305	707.52	82.0169	707.52	81.7836	707.52	81.82	707.52	81.5814	707.52	81.4813	707.52	81.2532	707.52	80.8754	707.52	80.6345	707.52	79.7869	707.52	79.4484	707.52	77.9337	707.52	77.3268	707.52	75.0793	707.52	73.9231	707.52	71.7026	707.52	69.9534	707.52	70.1312	707.52	69.0874	707.52	69.8724	707.52	69.4383	707.52	67.7068	707.52	67.407	707.52	62.3073	707.52	62.3031	707.52	65.5391	707.52	65.1027	707.52	70.644	707.52	70.1665	707.52	72.9366	707.52	72.6565	707.52	73.4943
732.422	82.1949	732.422	82.1111	732.422	82.1414	732.422	81.9129	732.422	81.9483	732.422	81.6359	732.422	81.634	732.422	81.3097	732.422	81.2309	732.422	80.9272	732.422	80.7605	732.422	80.4029	732.422	80.173	732.422	79.5395	732.422	79.2804	732.422	78.0365	732.422	77.7605	732.422	75.6038	732.422	75.2694	732.422	72.5772	732.422	71.9736	732.422	71.2945	732.422	70.1636	732.422	71.8628	732.422	70.5676	732.422	71.268	732.422	69.8867	732.422	68.0434	732.422	66.4199	732.422	61.3354	732.422	61.7412	732.422	64.8748	732.422	66.7767	732.422	69.5058	732.422	70.2522	732.422	71.0405
757.324	82.3969	757.324	82.3261	757.324	82.3221	757.324	82.0921	757.324	82.1098	757.324	81.6805	757.324	81.7495	757.324	81.0846	757.324	81.2161	757.324	80.2914	757.324	80.4752	757.324	79.2531	757.324	79.4656	757.324	77.8691	757.324	78.0578	757.324	76.0672	757.324	76.0878	757.324	74.1536	757.324	73.7729	757.324	73.1775	757.324	72.57	757.324	73.3791	757.324	72.9837	757.324	73.2894	757.324	72.8541	757.324	71.6515	757.324	70.6945	757.324	67.4799	757.324	65.6154	757.324	64.4203	757.324	65.0578	757.324	69.5631	757.324	70.2455	757.324	72.6583	757.324	72.8704	757.324	73.6032
785.156	82.3458	785.156	82.27	785.156	82.2603	785.156	82.0585	785.156	82.0111	785.156	81.7545	785.156	81.6442	785.156	81.4207	785.156	81.251	785.156	81.0853	785.156	80.8817	785.156	80.6322	785.156	80.4175	785.156	79.7509	785.156	79.5373	785.156	77.9847	785.156	77.7872	785.156	74.8157	785.156	74.6644	785.156	70.6369	785.156	70.498	785.156	70.2788	785.156	70.0347	785.156	71.8024	785.156	71.7864	785.156	71.0112	785.156	71.3716	785.156	67.2911	785.156	67.9514	785.156	64.534	785.156	64.2372	785.156	69.1527	785.156	69.1951	785.156	72.268	785.156	72.4672	785.156	73.3251
811.523	83.0113	811.523	82.9395	811.523	82.872	811.523	82.652	811.523	82.5551	811.523	82.1903	811.523	82.0997	811.523	81.6399	811.523	81.5469	811.523	81.0991	811.523	80.9586	811.523	80.5863	811.523	80.3753	811.523	79.9013	811.523	79.6361	811.523	78.586	811.523	78.2641	811.523	76.0274	811.523	75.587	811.523	71.9724	811.523	71.309	811.523	70.2701	811.523	69.4005	811.523	72.2184	811.523	70.9562	811.523	72.1921	811.523	70.1708	811.523	68.8422	811.523	65.3959	811.523	63.4358	811.523	64.0485	811.523	68.9608	811.523	70.5396	811.523	72.884	811.523	73.5294	811.523	74.2055
840.82	82.6414	840.82	82.6432	840.82	82.5522	840.82	82.52	840.82	82.3551	840.82	82.2006	840.82	81.9891	840.82	81.6228	840.82	81.3909	840.82	80.762	840.82	80.5238	840.82	79.6378	840.82	79.378	840.82	78.271	840.82	77.9262	840.82	76.5646	840.82	76.0411	840.82	74.4009	840.82	73.6557	840.82	72.7557	840.82	72.0422	840.82	73.4656	840.82	73.1008	840.82	74.5692	840.82	74.352	840.82	73.9696	840.82	73.7493	840.82	70.7369	840.82	70.29	840.82	64.4653	840.82	61.8861	840.82	67.3808	840.82	65.9362	840.82	71.4412	840.82	71.0031	840.82	72.4724
870.117	83.6914	870.117	83.6112	870.117	83.574	870.117	83.3391	870.117	83.2452	870.117	82.8743	870.117	82.6897	870.117	82.2331	870.117	81.9167	870.117	81.4801	870.117	81.0232	870.117	80.6922	870.117	80.2032	870.117	79.7792	870.117	79.467	870.117	78.2966	870.117	78.28	870.117	75.4605	870.117	75.659	870.117	70.8147	870.117	70.5506	870.117	70.3991	870.117	68.9312	870.117	73.3378	870.117	72.5824	870.117	73.4078	870.117	72.8781	870.117	69.8209	870.117	68.9763	870.117	62.3672	870.117	55.017	870.117	69.2719	870.117	68.7371	870.117	73.5608	870.117	73.5126	870.117	74.7654
900.879	83.0647	900.879	83.098	900.879	82.9521	900.879	82.9979	900.879	82.7381	900.879	82.6721	900.879	82.3283	900.879	82.0354	900.879	81.608	900.879	81.0734	900.879	80.5207	900.879	79.9542	900.879	79.2214	900.879	79.0224	900.879	78.1827	900.879	78.2735	900.879	77.5174	900.879	76.9433	900.879	76.2433	900.879	74.0228	900.879	73.0815	900.879	70.1252	900.879	69.2562	900.879	71.3952	900.879	71.839	900.879	73.0993	900.879	73.6509	900.879	71.5973	900.879	72.0478	900.879	66.1126	900.879	65.5961	900.879	65.3857	900.879	63.1902	900.879	70.2855	900.879	69.9489	900.879	71.6757
933.105	83.1482	933.105	83.1005	933.105	83.0778	933.105	82.9304	933.105	82.8416	933.105	82.5719	933.105	82.3796	933.105	81.9584	933.105	81.6477	933.105	81.095	933.105	80.6581	933.105	80.0592	933.105	79.5299	933.105	78.8675	933.105	78.3829	933.105	77.2113	933.105	76.9439	933.105	74.3041	933.105	74.3226	933.105	70.0296	933.105	69.6516	933.105	71.5472	933.105	69.8561	933.105	74.9671	933.105	73.9489	933.105	75.7124	933.105	75.0914	933.105	73.8354	933.105	73.265	933.105	69.223	933.105	67.7103	933.105	67.1642	933.105	65.431	933.105	71.1499	933.105	71.0067	933.105	72.6473
965.332	82.5122	965.332	82.4896	965.332	82.4742	965.332	82.3694	965.332	82.3458	965.332	82.0721	965.332	82.035	965.332	81.5152	965.332	81.4394	965.332	80.696	965.332	80.5343	965.332	79.7944	965.332	79.4872	965.332	79.0752	965.332	78.6123	965.332	78.3655	965.332	77.7671	965.332	76.7645	965.332	75.9664	965.332	72.8505	965.332	71.7943	965.332	67.1788	965.332	67.3912	965.332	71.5916	965.332	71.9067	965.332	73.8855	965.332	74.0026	965.332	72.2534	965.332	72.6141	965.332	66.2391	965.332	66.4873	965.332	65.6551	965.332	63.1776	965.332	70.98	965.332	70.6206	965.332	72.4691
1000.49	82.4603	1000.49	82.5428	1000.49	82.3723	1000.49	82.5616	1000.49	82.2765	1000.49	82.3919	1000.49	82.0773	1000.49	81.8578	1000.49	81.5684	1000.49	80.7776	1000.49	80.5217	1000.49	79.0608	1000.49	78.8474	1000.49	77.0513	1000.49	76.8997	1000.49	75.7807	1000.49	75.6562	1000.49	75.2219	1000.49	75.0499	1000.49	74.0414	1000.49	73.5277	1000.49	72.6384	1000.49	71.2629	1000.49	73.0581	1000.49	72.0511	1000.49	73.496	1000.49	73.2906	1000.49	71.5839	1000.49	71.6982	1000.49	66.3694	1000.49	65.728	1000.49	66.7456	1000.49	61.9531	1000.49	70.8452	1000.49	69.0448	1000.49	71.5183
1035.64	82.2724	1035.64	82.273	1035.64	82.2192	1035.64	82.1529	1035.64	82.1449	1035.64	81.8463	1035.64	81.9719	1035.64	81.2719	1035.64	81.54	1035.64	80.3727	1035.64	80.7335	1035.64	79.225	1035.64	79.5671	1035.64	78.0313	1035.64	78.1879	1035.64	76.8136	1035.64	76.7486	1035.64	74.9264	1035.64	74.875	1035.64	70.795	1035.64	71.1057	1035.64	66.749	1035.64	65.9529	1035.64	72.4721	1035.64	71.6087	1035.64	74.709	1035.64	74.634	1035.64	73.188	1035.64	73.9188	1035.64	67.6093	1035.64	69.1746	1035.64	64.6901	1035.64	61.2636	1035.64	69.7558	1035.64	68.5454	1035.64	71.0558
1072.27	82.4933	1072.27	82.3325	1072.27	82.5121	1072.27	82.1343	1072.27	82.3395	1072.27	81.9179	1072.27	82.0334	1072.27	81.5389	1072.27	81.6469	1072.27	80.7505	1072.27	81.026	1072.27	79.3265	1072.27	79.8126	1072.27	77.3835	1072.27	77.8939	1072.27	76.1231	1072.27	76.2874	1072.27	76.1191	1072.27	75.8527	1072.27	75.2081	1072.27	74.6721	1072.27	72.0991	1072.27	71.5539	1072.27	71.3881	1072.27	71.2084	1072.27	73.8683	1072.27	73.8271	1072.27	73.3761	1072.27	73.9536	1072.27	68.5772	1072.27	70.5087	1072.27	60.2089	1072.27	61.0528	1072.27	68.0358	1072.27	67.1331	1072.27	70.2157
1108.89	82.7526	1108.89	82.7756	1108.89	82.6508	1108.89	82.6613	1108.89	82.4994	1108.89	82.3656	1108.89	82.2387	1108.89	81.8346	1108.89	81.7358	1108.89	80.9694	1108.89	80.8899	1108.89	79.6831	1108.89	79.7172	1108.89	78.0358	1108.89	78.3483	1108.89	76.3057	1108.89	77.0126	1108.89	74.4977	1108.89	75.7627	1108.89	71.4858	1108.89	73.8107	1108.89	67.2362	1108.89	70.2398	1108.89	70.9336	1108.89	70.2254	1108.89	74.0136	1108.89	73.4627	1108.89	73.4686	1108.89	73.6607	1108.89	69.0364	1108.89	69.848	1108.89	64.9605	1108.89	63.4224	1108.89	69.9976	1108.89	69.3293	1108.89	71.6061
1148.44	82.8843	1148.44	82.7077	1148.44	82.8536	1148.44	82.4117	1148.44	82.5883	1148.44	82.1083	1148.44	82.136	1148.44	81.7811	1148.44	81.5471	1148.44	81.1299	1148.44	80.7468	1148.44	79.7566	1148.44	79.5094	1148.44	77.6067	1148.44	77.6371	1148.44	75.9718	1148.44	75.9018	1148.44	76.378	1148.44	75.8946	1148.44	76.4608	1148.44	75.6645	1148.44	74.1577	1148.44	73.1765	1148.44	71.247	1148.44	72.2398	1148.44	73.2649	1148.44	74.8277	1148.44	73.5204	1148.44	74.7782	1148.44	69.3501	1148.44	70.8483	1148.44	62.2981	1148.44	61.1811	1148.44	67.6801	1148.44	65.8007	1148.44	69.108
1189.45	82.7306	1189.45	82.7131	1189.45	82.598	1189.45	82.4959	1189.45	82.2998	1189.45	82.0506	1189.45	81.8002	1189.45	81.4298	1189.45	81.1804	1189.45	80.7139	1189.45	80.55	1189.45	79.8381	1189.45	79.7073	1189.45	78.4495	1189.45	78.1704	1189.45	76.2158	1189.45	75.8716	1189.45	73.8177	1189.45	74.3095	1189.45	72.3259	1189.45	73.9199	1189.45	70.4711	1189.45	72.1575	1189.45	71.3587	1189.45	70.6951	1189.45	74.4126	1189.45	73.3422	1189.45	74.5867	1189.45	74.1009	1189.45	70.6821	1189.45	71.0392	1189.45	60.3274	1189.45	62.2639	1189.45	67.1312	1189.45	66.0226	1189.45	69.5054
1230.47	82.6377	1230.47	82.488	1230.47	82.6348	1230.47	82.2212	1230.47	82.3912	1230.47	81.7769	1230.47	81.9097	1230.47	81.1499	1230.47	81.2868	1230.47	80.3913	1230.47	80.4666	1230.47	79.2757	1230.47	79.167	1230.47	77.4702	1230.47	77.2134	1230.47	75.7695	1230.47	75.0439	1230.47	75.9448	1230.47	74.3384	1230.47	76.2529	1230.47	74.5716	1230.47	74.3213	1230.47	72.8354	1230.47	71.4797	1230.47	70.5622	1230.47	73.8484	1230.47	73.4754	1230.47	74.6071	1230.47	74.4849	1230.47	70.9488	1230.47	71.4118	1230.47	60.9903	1230.47	60.9464	1230.47	66.8255	1230.47	66.1923	1230.47	69.5705
1274.41	82.2982	1274.41	82.2309	1274.41	82.1875	1274.41	81.9581	1274.41	81.9555	1274.41	81.5239	1274.41	81.5769	1274.41	80.9785	1274.41	80.9471	1274.41	80.275	1274.41	80.0107	1274.41	79.2465	1274.41	78.7913	1274.41	77.7172	1274.41	77.2354	1274.41	75.6383	1274.41	75.1075	1274.41	73.387	1274.41	73.0852	1274.41	71.9904	1274.41	73.013	1274.41	71.4601	1274.41	72.7086	1274.41	72.0515	1274.41	71.4403	1274.41	73.7693	1274.41	72.7506	1274.41	73.6558	1274.41	73.551	1274.41	69.7682	1274.41	71.0297	1274.41	61.1257	1274.41	64.076	1274.41	65.3225	1274.41	64.2129	1274.41	67.252
1319.82	82.0706	1319.82	82.053	1319.82	82.0258	1319.82	81.912	1319.82	81.8873	1319.82	81.5165	1319.82	81.543	1319.82	80.7905	1319.82	80.8552	1319.82	79.7764	1319.82	79.7164	1319.82	78.347	1319.82	78.2202	1319.82	76.1607	1319.82	76.643	1319.82	73.508	1319.82	74.7137	1319.82	73.1801	1319.82	72.9391	1319.82	74.7592	1319.82	73.3964	1319.82	74.1372	1319.82	73.0953	1319.82	70.8309	1319.82	70.7283	1319.82	72.2435	1319.82	72.0757	1319.82	73.8119	1319.82	73.8551	1319.82	70.7939	1319.82	72.0905	1319.82	58.9017	1319.82	64.7639	1319.82	62.9772	1319.82	57.0709	1319.82	65.6941
1366.7	82.2641	1366.7	82.1673	1366.7	82.1773	1366.7	81.9104	1366.7	81.9103	1366.7	81.5349	1366.7	81.4724	1366.7	80.9745	1366.7	80.791	1366.7	79.9863	1366.7	79.7889	1366.7	78.4895	1366.7	78.539	1366.7	76.8441	1366.7	76.998	1366.7	75.2846	1366.7	74.8862	1366.7	73.4683	1366.7	73.0678	1366.7	71.7465	1366.7	73.2607	1366.7	70.6458	1366.7	73.009	1366.7	70.4428	1366.7	71.3994	1366.7	72.6015	1366.7	72.6113	1366.7	73.5836	1366.7	73.8687	1366.7	71.0339	1366.7	71.6385	1366.7	61.5408	1366.7	63.8148	1366.7	61.5317	1366.7	61.2021	1366.7	66.0305
1413.57	82.2294	1413.57	82.1602	1413.57	82.1385	1413.57	81.9653	1413.57	81.9137	1413.57	81.6046	1413.57	81.5189	1413.57	80.8556	1413.57	80.8357	1413.57	79.7413	1413.57	79.8819	1413.57	78.6112	1413.57	78.7255	1413.57	77.0499	1413.57	77.2461	1413.57	74.1428	1413.57	75.2782	1413.57	71.4069	1413.57	73.0395	1413.57	73.0116	1413.57	72.5311	1413.57	73.9644	1413.57	73.1008	1413.57	71.9532	1413.57	72.1152	1413.57	71.8166	1413.57	72.4464	1413.57	73.8644	1413.57	73.7911	1413.57	72.1994	1413.57	71.8252	1413.57	65.1189	1413.57	64.0986	1413.57	59.2293	1413.57	62.8239	1413.57	65.2134
1463.38	82.4757	1463.38	82.4787	1463.38	82.429	1463.38	82.3811	1463.38	82.1906	1463.38	81.9943	1463.38	81.6427	1463.38	81.2684	1463.38	80.8297	1463.38	80.2742	1463.38	79.8167	1463.38	78.9995	1463.38	78.6194	1463.38	77.4251	1463.38	77.1555	1463.38	75.8092	1463.38	75.3774	1463.38	74.4967	1463.38	73.6262	1463.38	73.4584	1463.38	72.7551	1463.38	72.4507	1463.38	72.7013	1463.38	71.1402	1463.38	71.3492	1463.38	71.7769	1463.38	70.9384	1463.38	73.4659	1463.38	72.8791	1463.38	72.1376	1463.38	71.6909	1463.38	65.798	1463.38	64.8121	1463.38	58.8386	1463.38	59.4951	1463.38	63.4143
1516.11	82.457	1516.11	82.401	1516.11	82.3814	1516.11	82.1747	1516.11	82.0562	1516.11	81.7468	1516.11	81.4291	1516.11	81.0613	1516.11	80.525	1516.11	79.8795	1516.11	79.3598	1516.11	78.435	1516.11	77.998	1516.11	77.1079	1516.11	76.2288	1516.11	75.4559	1516.11	74.355	1516.11	73.4155	1516.11	73.0787	1516.11	72.0887	1516.11	71.7028	1516.11	72.8897	1516.11	71.7639	1516.11	72.3246	1516.11	70.8299	1516.11	71.0302	1516.11	68.6172	1516.11	72.523	1516.11	71.8248	1516.11	71.7625	1516.11	71.7287	1516.11	67.0705	1516.11	66.6737	1516.11	58.7812	1516.11	58.7403	1516.11	59.6236
1568.85	82.1698	1568.85	81.9402	1568.85	82.0425	1568.85	81.5944	1568.85	81.6748	1568.85	81.2524	1568.85	81.2393	1568.85	80.6379	1568.85	80.5837	1568.85	79.504	1568.85	79.5399	1568.85	77.9601	1568.85	78.0014	1568.85	76.2877	1568.85	75.9183	1568.85	74.5683	1568.85	73.9916	1568.85	73.2716	1568.85	72.7232	1568.85	73.2694	1568.85	71.9069	1568.85	73.1849	1568.85	71.9904	1568.85	71.0506	1568.85	70.9	1568.85	69.7255	1568.85	69.0084	1568.85	72.0035	1568.85	71.1398	1568.85	71.3547	1568.85	71.1823	1568.85	66.1512	1568.85	66.701	1568.85	61.1652	1568.85	61.6887	1568.85	63.5229
1624.51	82.3925	1624.51	82.2585	1624.51	82.2447	1624.51	81.8866	1624.51	81.8915	1624.51	81.3365	1624.51	81.4021	1624.51	80.6325	1624.51	80.7193	1624.51	79.5897	1624.51	79.6953	1624.51	78.0168	1624.51	78.2656	1624.51	76.2188	1624.51	76.5053	1624.51	74.5766	1624.51	74.574	1624.51	73.4445	1624.51	73.47	1624.51	72.3086	1624.51	73.1032	1624.51	71.2799	1624.51	72.2983	1624.51	70.9199	1624.51	70.763	1624.51	69.2321	1624.51	69.0528	1624.51	70.225	1624.51	70.5026	1624.51	70.1732	1624.51	70.3147	1624.51	64.0139	1624.51	64.4972	1624.51	61.5078	1624.51	60.3445	1624.51	64.8117
1681.64	82.5246	1681.64	82.5512	1681.64	82.3586	1681.64	82.3116	1681.64	82.0163	1681.64	81.6897	1681.64	81.4105	1681.64	80.8502	1681.64	80.4808	1681.64	79.7343	1681.64	79.3	1681.64	78.0888	1681.64	77.8225	1681.64	76.2561	1681.64	75.9738	1681.64	74.5922	1681.64	74.2797	1681.64	73.4251	1681.64	73.3127	1681.64	72.3665	1681.64	72.1516	1681.64	71.7074	1681.64	70.8978	1681.64	70.931	1681.64	70.7488	1681.64	68.4229	1681.64	68.8945	1681.64	69.5615	1681.64	69.6021	1681.64	70.047	1681.64	70.362	1681.64	66.5946	1681.64	65.8763	1681.64	61.7095	1681.64	60.141	1681.64	63.9033
1741.7	82.1806	1741.7	82.2192	1741.7	81.9306	1741.7	81.9848	1741.7	81.5114	1741.7	81.471	1741.7	80.8468	1741.7	80.701	1741.7	79.884	1741.7	79.6471	1741.7	78.7391	1741.7	78.2269	1741.7	77.2175	1741.7	76.5224	1741.7	75.2421	1741.7	74.9687	1741.7	73.2746	1741.7	73.3467	1741.7	71.0849	1741.7	71.9481	1741.7	70.904	1741.7	71.7964	1741.7	71.3438	1741.7	70.787	1741.7	70.2071	1741.7	67.9061	1741.7	68.5631	1741.7	68.7475	1741.7	67.6291	1741.7	70.0181	1741.7	69.0819	1741.7	65.9582	1741.7	65.3423	1741.7	63.8316	1741.7	61.7839	1741.7	65.7461
1803.22	81.9706	1803.22	81.9625	1803.22	81.7234	1803.22	81.6768	1803.22	81.285	1803.22	81.077	1803.22	80.6885	1803.22	80.194	1803.22	79.7996	1803.22	79.1393	1803.22	78.6701	1803.22	77.7137	1803.22	77.1219	1803.22	75.9307	1803.22	75.1963	1803.22	74.4825	1803.22	73.5872	1803.22	72.7274	1803.22	71.9353	1803.22	72.0325	1803.22	72.2727	1803.22	71.918	1803.22	71.5179	1803.22	70.317	1803.22	69.5695	1803.22	68.2677	1803.22	67.0875	1803.22	68.4168	1803.22	65.3356	1803.22	69.2786	1803.22	68.372	1803.22	65.1199	1803.22	64.0015	1803.22	62.4468	1803.22	57.2923	1803.22	65.3603
1866.21	82.3227	1866.21	82.2088	1866.21	82.222	1866.21	81.7482	1866.21	81.9033	1866.21	81.0706	1866.21	81.2428	1866.21	80.0755	1866.21	80.2401	1866.21	78.6856	1866.21	78.8219	1866.21	77.0936	1866.21	77.3647	1866.21	75.1685	1866.21	75.9596	1866.21	73.9987	1866.21	74.8264	1866.21	73.1305	1866.21	74.4436	1866.21	72.3539	1866.21	73.2294	1866.21	71.1518	1866.21	71.0739	1866.21	69.2756	1866.21	69.8941	1866.21	67.8141	1866.21	68.4045	1866.21	67.1971	1866.21	65.6992	1866.21	67.7479	1866.21	68.9346	1866.21	63.8995	1866.21	66.609	1866.21	60.6058	1866.21	59.674	1866.21	63.2362
1932.13	82.3623	1932.13	82.2566	1932.13	82.2589	1932.13	81.8752	1932.13	81.9265	1932.13	81.2992	1932.13	81.2343	1932.13	80.422	1932.13	80.2432	1932.13	78.9702	1932.13	78.8095	1932.13	77.231	1932.13	77.208	1932.13	75.2172	1932.13	75.5099	1932.13	73.87	1932.13	74.4189	1932.13	73.3426	1932.13	74.1492	1932.13	71.4823	1932.13	71.7187	1932.13	70.3439	1932.13	70.6981	1932.13	68.1374	1932.13	70.0065	1932.13	66.6078	1932.13	67.0435	1932.13	65.6244	1932.13	64.0111	1932.13	68.1934	1932.13	67.728	1932.13	64.6922	1932.13	65.1917	1932.13	59.7335	1932.13	60.9873	1932.13	63.7946
1999.51	81.9081	1999.51	81.8491	1999.51	81.6986	1999.51	81.6044	1999.51	81.3106	1999.51	81.2235	1999.51	80.72	1999.51	80.5076	1999.51	79.874	1999.51	79.0216	1999.51	78.561	1999.51	77.3226	1999.51	76.8982	1999.51	75.5717	1999.51	74.9012	1999.51	74.2809	1999.51	73.2981	1999.51	73.4667	1999.51	72.2962	1999.51	70.5734	1999.51	69.5503	1999.51	69.6434	1999.51	69.9389	1999.51	68.6178	1999.51	67.888	1999.51	67.4313	1999.51	66.3397	1999.51	64.3254	1999.51	63.6991	1999.51	67.5645	1999.51	66.6495	1999.51	64.8779	1999.51	65.1065	1999.51	59.4765	1999.51	53.905	1999.51	61.8818
2069.82	82.1781	2069.82	81.9687	2069.82	82.1136	2069.82	81.4669	2069.82	81.6437	2069.82	80.7922	2069.82	80.9258	2069.82	80.0977	2069.82	80.1822	2069.82	78.943	2069.82	79.0717	2069.82	77.2713	2069.82	77.4111	2069.82	75.6926	2069.82	75.3962	2069.82	74.2295	2069.82	73.2864	2069.82	72.606	2069.82	72.2312	2069.82	70.899	2069.82	71.4929	2069.82	70.4654	2069.82	70.5946	2069.82	68.1564	2069.82	67.5105	2069.82	66.8403	2069.82	66.2914	2069.82	65.5558	2069.82	64.8214	2069.82	67.7702	2069.82	66.1066	2069.82	65.4066	2069.82	65.848	2069.82	61.5069	2069.82	60.8753	2069.82	64.0054
2143.07	82.8158	2143.07	82.7535	2143.07	82.7434	2143.07	82.2957	2143.07	82.3642	2143.07	81.4428	2143.07	81.5162	2143.07	80.3326	2143.07	80.5123	2143.07	78.8552	2143.07	79.4353	2143.07	76.8517	2143.07	77.7545	2143.07	75.1615	2143.07	76.2952	2143.07	73.7981	2143.07	74.4091	2143.07	72.3589	2143.07	73.0486	2143.07	72.2179	2143.07	73.001	2143.07	70.1642	2143.07	71.2784	2143.07	67.9353	2143.07	68.4224	2143.07	67.0727	2143.07	67.1872	2143.07	64.3794	2143.07	66.5379	2143.07	67.1711	2143.07	67.35	2143.07	65.5455	2143.07	66.5802	2143.07	59.773	2143.07	60.9773	2143.07	63.7027
2219.24	82.5067	2219.24	82.4707	2219.24	82.288	2219.24	82.1487	2219.24	81.7693	2219.24	81.6278	2219.24	81.0756	2219.24	80.4989	2219.24	80.1429	2219.24	79.0969	2219.24	78.9712	2219.24	77.2797	2219.24	76.9588	2219.24	75.2273	2219.24	75.4273	2219.24	73.5933	2219.24	74.26	2219.24	72.4512	2219.24	73.0927	2219.24	72.6628	2219.24	72.7741	2219.24	69.8055	2219.24	68.3564	2219.24	67.9984	2219.24	67.7273	2219.24	66.4219	2219.24	66.1754	2219.24	66.6092	2219.24	65.9639	2219.24	66.6373	2219.24	66.7348	2219.24	66.9139	2219.24	66.1422	2219.24	61.6265	2219.24	63.9278	2219.24	64.9975
2296.88	82.311	2296.88	82.2215	2296.88	82.1773	2296.88	81.8019	2296.88	81.6983	2296.88	81.1701	2296.88	81.0032	2296.88	80.1073	2296.88	79.9787	2296.88	78.857	2296.88	78.7432	2296.88	77.3276	2296.88	77.3084	2296.88	75.3544	2296.88	75.2136	2296.88	73.9184	2296.88	74.0272	2296.88	72.6101	2296.88	72.8217	2296.88	72.5979	2296.88	72.4759	2296.88	68.7135	2296.88	68.1585	2296.88	67.4069	2296.88	66.7842	2296.88	66.206	2296.88	65.0492	2296.88	66.5743	2296.88	66.3259	2296.88	67.1167	2296.88	66.4958	2296.88	65.2603	2296.88	66.6716	2296.88	62.812	2296.88	61.0312	2296.88	64.0024
2378.91	82.8914	2378.91	82.6191	2378.91	82.7495	2378.91	82.0868	2378.91	82.2064	2378.91	81.4155	2378.91	81.5372	2378.91	80.553	2378.91	80.6515	2378.91	78.92	2378.91	79.3455	2378.91	77.3385	2378.91	77.9452	2378.91	75.4215	2378.91	76.0041	2378.91	74.1615	2378.91	74.4791	2378.91	72.4389	2378.91	73.725	2378.91	72.0742	2378.91	72.9184	2378.91	66.8292	2378.91	68.0103	2378.91	67.1158	2378.91	67.3403	2378.91	65.3506	2378.91	65.1072	2378.91	65.9732	2378.91	65.7186	2378.91	65.7442	2378.91	65.9082	2378.91	65.2316	2378.91	66.1264	2378.91	61.6733	2378.91	63.7071	2378.91	66.5797
2462.4	82.6964	2462.4	82.5166	2462.4	82.4909	2462.4	82.0909	2462.4	81.9431	2462.4	81.3548	2462.4	81.3051	2462.4	80.5605	2462.4	80.6152	2462.4	79.2914	2462.4	79.3228	2462.4	77.6835	2462.4	77.8807	2462.4	75.6079	2462.4	76.1349	2462.4	74.4946	2462.4	74.8158	2462.4	72.8072	2462.4	73.231	2462.4	70.4978	2462.4	71.516	2462.4	68.3252	2462.4	68.7573	2462.4	66.8769	2462.4	66.9514	2462.4	65.22	2462.4	65.0778	2462.4	66.6982	2462.4	66.4285	2462.4	65.5914	2462.4	65.0331	2462.4	65.6698	2462.4	66.4569	2462.4	63.8335	2462.4	62.7085	2462.4	66.2758
2548.83	82.6002	2548.83	82.4079	2548.83	82.4583	2548.83	81.9153	2548.83	81.9542	2548.83	81.0684	2548.83	81.1341	2548.83	80.1558	2548.83	80.1684	2548.83	79.0179	2548.83	79.026	2548.83	77.498	2548.83	77.4316	2548.83	75.7526	2548.83	76.0841	2548.83	74.1786	2548.83	74.4932	2548.83	72.9894	2548.83	73.2358	2548.83	70.8859	2548.83	70.7424	2548.83	67.9491	2548.83	68.2308	2548.83	66.8487	2548.83	66.3406	2548.83	65.9144	2548.83	65.6575	2548.83	66.3379	2548.83	66.2724	2548.83	65.4176	2548.83	65.8306	2548.83	66.5634	2548.83	65.9922	2548.83	61.4601	2548.83	62.3333	2548.83	65.8903
2639.65	82.6189	2639.65	82.4681	2639.65	82.5173	2639.65	81.943	2639.65	82.0817	2639.65	81.1726	2639.65	81.32	2639.65	80.0874	2639.65	80.2548	2639.65	79.0631	2639.65	79.1696	2639.65	77.4573	2639.65	77.5484	2639.65	75.6726	2639.65	75.9713	2639.65	74.2312	2639.65	74.515	2639.65	73.0085	2639.65	73.4472	2639.65	70.1506	2639.65	70.5017	2639.65	68.0022	2639.65	68.332	2639.65	65.1575	2639.65	65.7391	2639.65	64.3404	2639.65	64.8658	2639.65	66.4903	2639.65	66.3033	2639.65	65.9116	2639.65	65.4093	2639.65	64.9395	2639.65	66.5663	2639.65	61.8428	2639.65	61.0602	2639.65	65.9368
2731.93	82.8015	2731.93	82.6626	2731.93	82.7199	2731.93	82.1303	2731.93	82.3281	2731.93	81.5278	2731.93	81.5568	2731.93	80.4938	2731.93	80.5968	2731.93	79.3565	2731.93	79.447	2731.93	77.7139	2731.93	77.8168	2731.93	76.0696	2731.93	76.2047	2731.93	74.7349	2731.93	74.7411	2731.93	73.6378	2731.93	73.3218	2731.93	70.9636	2731.93	70.6627	2731.93	68.0498	2731.93	67.7568	2731.93	65.4368	2731.93	64.955	2731.93	63.8201	2731.93	65.267	2731.93	64.7607	2731.93	64.7767	2731.93	65.3462	2731.93	65.2638	2731.93	66.4339	2731.93	65.6874	2731.93	58.847	2731.93	61.2357	2731.93	64.9725
2828.61	82.8148	2828.61	82.7075	2828.61	82.6368	2828.61	82.2136	2828.61	82.1678	2828.61	81.598	2828.61	81.4013	2828.61	80.6036	2828.61	80.5437	2828.61	79.4158	2828.61	79.3231	2828.61	77.8252	2828.61	77.9003	2828.61	76.1373	2828.61	76.3932	2828.61	75.0775	2828.61	75.0471	2828.61	74.0093	2828.61	73.6909	2828.61	70.7156	2828.61	70.83	2828.61	68.7701	2828.61	68.5395	2828.61	66.8128	2828.61	65.5745	2828.61	64.4727	2828.61	64.4516	2828.61	62.8167	2828.61	65.0283	2828.61	65.9244	2828.61	65.6866	2828.61	64.6174	2828.61	66.6104	2828.61	60.9626	2828.61	60.7565	2828.61	65.3232
2928.22	81.9907	2928.22	81.9604	2928.22	81.8276	2928.22	81.6688	2928.22	81.6177	2928.22	80.9758	2928.22	80.9735	2928.22	80.1476	2928.22	79.9438	2928.22	78.9019	2928.22	78.6533	2928.22	77.5772	2928.22	77.1952	2928.22	76.2055	2928.22	75.4442	2928.22	75.2913	2928.22	74.8939	2928.22	73.9498	2928.22	73.8826	2928.22	71.3811	2928.22	70.8516	2928.22	68.1183	2928.22	67.5866	2928.22	65.1995	2928.22	66.3797	2928.22	65.3966	2928.22	64.9279	2928.22	62.0831	2928.22	60.2375	2928.22	63.3669	2928.22	64.0803	2928.22	65.6504	2928.22	63.498	2928.22	56.4375	2928.22	58.2354	2928.22	62.6786
3030.76	82.591	3030.76	82.5293	3030.76	82.483	3030.76	82.1616	3030.76	82.2305	3030.76	81.3734	3030.76	81.5089	3030.76	80.2142	3030.76	80.4541	3030.76	78.8744	3030.76	79.3088	3030.76	77.3231	3030.76	77.6837	3030.76	75.3439	3030.76	75.5487	3030.76	73.797	3030.76	74.4039	3030.76	72.615	3030.76	73.5557	3030.76	71.2212	3030.76	71.5254	3030.76	68.372	3030.76	67.8379	3030.76	67.1515	3030.76	65.9511	3030.76	65.3048	3030.76	64.612	3030.76	61.4545	3030.76	59.9202	3030.76	63.3264	3030.76	63.2937	3030.76	62.5832	3030.76	63.9286	3030.76	59.4831	3030.76	57.4165	3030.76	64.9044
3137.7	82.1108	3137.7	82.0886	3137.7	81.9797	3137.7	81.7448	3137.7	81.4951	3137.7	81.2174	3137.7	80.7408	3137.7	80.4739	3137.7	79.7332	3137.7	79.5442	3137.7	78.7327	3137.7	78.3249	3137.7	77.4562	3137.7	76.4752	3137.7	75.848	3137.7	74.3275	3137.7	74.3556	3137.7	72.7465	3137.7	72.4362	3137.7	71.4091	3137.7	70.8589	3137.7	68.915	3137.7	68.6085	3137.7	66.8914	3137.7	66.3294	3137.7	65.7668	3137.7	65.6936	3137.7	60.3589	3137.7	60.7166	3137.7	62.7328	3137.7	62.8704	3137.7	63.2821	3137.7	62.6313	3137.7	57.6934	3137.7	59.1687	3137.7	62.7771
3249.02	82.4324	3249.02	82.2089	3249.02	82.3293	3249.02	81.5295	3249.02	81.9127	3249.02	80.6385	3249.02	81.1689	3249.02	79.4178	3249.02	80.0952	3249.02	78.1532	3249.02	78.9977	3249.02	77.1879	3249.02	77.8696	3249.02	75.6718	3249.02	76.1322	3249.02	74.4279	3249.02	74.3463	3249.02	73.141	3249.02	72.9877	3249.02	71.0305	3249.02	70.8831	3249.02	69.6247	3249.02	68.9021	3249.02	67.9293	3249.02	68.2632	3249.02	66.7443	3249.02	66.4383	3249.02	62.7459	3249.02	62.719	3249.02	63.8203	3249.02	63.8698	3249.02	63.1807	3249.02	63.913	3249.02	57.4271	3249.02	57.9644	3249.02	62.368
3363.28	82.3489	3363.28	82.302	3363.28	82.1158	3363.28	81.9661	3363.28	81.5956	3363.28	81.3524	3363.28	80.9683	3363.28	80.4737	3363.28	79.9163	3363.28	79.0515	3363.28	78.6955	3363.28	77.5963	3363.28	77.1379	3363.28	75.5287	3363.28	75.4661	3363.28	73.5523	3363.28	74.0816	3363.28	72.1299	3363.28	72.5524	3363.28	69.681	3363.28	70.2339	3363.28	68.0321	3363.28	68.0476	3363.28	67.4306	3363.28	67.0331	3363.28	65.591	3363.28	65.6802	3363.28	61.8993	3363.28	61.3508	3363.28	62.2135	3363.28	61.3687	3363.28	62.2579	3363.28	62.551	3363.28	58.7551	3363.28	58.6618	3363.28	62.3725
3481.93	82.3592	3481.93	82.15	3481.93	82.2969	3481.93	81.6256	3481.93	81.9201	3481.93	80.7442	3481.93	81.2241	3481.93	79.8453	3481.93	80.255	3481.93	78.8958	3481.93	79.1173	3481.93	77.7914	3481.93	77.659	3481.93	76.4344	3481.93	75.8263	3481.93	75.0405	3481.93	74.676	3481.93	72.9035	3481.93	73.0308	3481.93	70.4576	3481.93	70.3836	3481.93	68.0406	3481.93	68.1992	3481.93	67.4009	3481.93	67.0891	3481.93	65.8411	3481.93	65.2757	3481.93	63.6341	3481.93	63.3799	3481.93	64.009	3481.93	63.7264	3481.93	64.0373	3481.93	63.1647	3481.93	58.2576	3481.93	57.6636	3481.93	61.0175
3604.98	82.6073	3604.98	82.4771	3604.98	82.3228	3604.98	82.0163	3604.98	81.6639	3604.98	81.2088	3604.98	80.7317	3604.98	80.209	3604.98	79.7461	3604.98	78.7465	3604.98	78.4045	3604.98	76.9751	3604.98	77.1202	3604.98	75.3314	3604.98	75.3349	3604.98	73.4544	3604.98	73.1704	3604.98	72.0735	3604.98	71.9892	3604.98	70.1905	3604.98	69.8235	3604.98	67.8056	3604.98	67.7352	3604.98	67.5559	3604.98	66.6377	3604.98	66.0717	3604.98	64.5331	3604.98	61.9536	3604.98	62.1946	3604.98	63.5702	3604.98	63.8669	3604.98	62.7323	3604.98	61.8386	3604.98	57.4352	3604.98	58.7377	3604.98	62.2457
3732.42	82.6848	3732.42	82.3261	3732.42	82.5551	3732.42	81.676	3732.42	82.1509	3732.42	80.9588	3732.42	81.4063	3732.42	80.0609	3732.42	80.3957	3732.42	79.0366	3732.42	79.1626	3732.42	77.9479	3732.42	77.708	3732.42	76.3274	3732.42	76.1617	3732.42	74.1975	3732.42	74.1293	3732.42	72.2018	3732.42	72.2836	3732.42	69.6895	3732.42	69.9704	3732.42	67.726	3732.42	67.8505	3732.42	65.7114	3732.42	66.4633	3732.42	63.9521	3732.42	64.5249	3732.42	62.4727	3732.42	61.8093	3732.42	62.7941	3732.42	63.9019	3732.42	63.2485	3732.42	62.695	3732.42	58.5394	3732.42	60.0737	3732.42	60.5998
3864.26	82.575	3864.26	82.5637	3864.26	82.2732	3864.26	82.2297	3864.26	81.8682	3864.26	81.497	3864.26	81.0438	3864.26	80.5133	3864.26	80.1509	3864.26	78.8619	3864.26	78.9289	3864.26	77.3354	3864.26	77.4488	3864.26	75.6591	3864.26	75.9278	3864.26	73.8533	3864.26	74.4523	3864.26	72.6057	3864.26	72.3134	3864.26	70.6165	3864.26	70.0888	3864.26	68.0445	3864.26	67.7969	3864.26	66.5771	3864.26	66.4919	3864.26	64.1255	3864.26	65.6019	3864.26	63.2409	3864.26	63.6254	3864.26	63.2738	3864.26	62.9801	3864.26	63.081	3864.26	63.116	3864.26	58.6336	3864.26	58.8259	3864.26	59.4729
4000.49	82.4981	4000.49	82.2654	4000.49	82.3808	4000.49	81.7258	4000.49	82.0349	4000.49	80.9236	4000.49	81.3133	4000.49	80.046	4000.49	80.4462	4000.49	79.1533	4000.49	79.2553	4000.49	77.8896	4000.49	77.8795	4000.49	76.2832	4000.49	75.8429	4000.49	74.0049	4000.49	74.0243	4000.49	71.9788	4000.49	72.1668	4000.49	69.5657	4000.49	70.0289	4000.49	67.932	4000.49	67.9948	4000.49	65.5022	4000.49	65.4555	4000.49	63.6984	4000.49	62.8595	4000.49	62.2643	4000.49	63.0168	4000.49	61.8281	4000.49	62.3728	4000.49	62.0278	4000.49	62.383	4000.49	57.3335	4000.49	58.204	4000.49	60.6725
4141.11	82.698	4141.11	82.7375	4141.11	82.5288	4141.11	82.308	4141.11	82.0537	4141.11	81.6528	4141.11	81.1896	4141.11	80.5637	4141.11	80.2782	4141.11	79.1932	4141.11	79.0841	4141.11	77.4585	4141.11	77.6281	4141.11	75.5988	4141.11	76.0942	4141.11	74.0731	4141.11	74.217	4141.11	72.2421	4141.11	72.2134	4141.11	70.0526	4141.11	70.1329	4141.11	67.9852	4141.11	67.6156	4141.11	65.3276	4141.11	65.9829	4141.11	62.8244	4141.11	62.3894	4141.11	63.2194	4141.11	62.2661	4141.11	61.679	4141.11	62.4949	4141.11	60.4503	4141.11	62.4897	4141.11	57.9734	4141.11	59.787	4141.11	60.5562
4287.6	82.423	4287.6	82.2179	4287.6	82.3507	4287.6	81.65	4287.6	82.0994	4287.6	80.8972	4287.6	81.321	4287.6	79.9737	4287.6	80.081	4287.6	78.8101	4287.6	78.6923	4287.6	77.7404	4287.6	77.3592	4287.6	76.0245	4287.6	75.576	4287.6	74.141	4287.6	73.7645	4287.6	71.7743	4287.6	71.8653	4287.6	70.4781	4287.6	70.0783	4287.6	67.6923	4287.6	67.833	4287.6	65.9089	4287.6	66.4026	4287.6	63.3202	4287.6	62.9646	4287.6	61.5484	4287.6	63.2673	4287.6	61.5983	4287.6	60.6535	4287.6	61.4812	4287.6	59.7159	4287.6	58.2652	4287.6	57.7373	4287.6	59.7943
4438.48	82.7563	4438.48	82.7	4438.48	82.5458	4438.48	82.2499	4438.48	81.9798	4438.48	81.436	4438.48	81.052	4438.48	80.152	4438.48	79.7942	4438.48	78.3947	4438.48	78.4122	4438.48	76.1226	4438.48	76.9441	4438.48	74.765	4438.48	75.0228	4438.48	72.5703	4438.48	72.733	4438.48	71.4945	4438.48	71.3896	4438.48	69.2575	4438.48	68.9943	4438.48	67.7476	4438.48	67.4948	4438.48	65.6204	4438.48	63.9081	4438.48	63.3149	4438.48	62.936	4438.48	62.0481	4438.48	62.1864	4438.48	62.0578	4438.48	61.6733	4438.48	58.7381	4438.48	60.973	4438.48	54.6984	4438.48	57.3127	4438.48	58.1261
4595.21	82.5893	4595.21	82.4653	4595.21	82.4861	4595.21	81.7953	4595.21	81.9973	4595.21	80.7034	4595.21	81.0273	4595.21	79.2732	4595.21	79.7368	4595.21	77.9834	4595.21	78.3107	4595.21	76.8206	4595.21	76.48	4595.21	75.2908	4595.21	74.9019	4595.21	73.3084	4595.21	73.1125	4595.21	70.9865	4595.21	70.9085	4595.21	69.9716	4595.21	70.1705	4595.21	66.9156	4595.21	66.9014	4595.21	63.9291	4595.21	65.7334	4595.21	62.0916	4595.21	60.9156	4595.21	62.113	4595.21	61.6649	4595.21	60.5531	4595.21	61.111	4595.21	60.3113	4595.21	61.3868	4595.21	58.4413	4595.21	58.1414	4595.21	58.5889
4756.35	82.2467	4756.35	82.0328	4756.35	82.1156	4756.35	81.5973	4756.35	81.6596	4756.35	81.0965	4756.35	80.8392	4756.35	79.9451	4756.35	79.4042	4756.35	78.3024	4756.35	77.7646	4756.35	76.3315	4756.35	76.1233	4756.35	74.482	4756.35	74.3043	4756.35	72.1145	4756.35	72.3191	4756.35	69.0532	4756.35	69.7342	4756.35	67.8257	4756.35	67.9737	4756.35	66.276	4756.35	66.6494	4756.35	64.2861	4756.35	64.0106	4756.35	61.8373	4756.35	62.2117	4756.35	60.9779	4756.35	61.1353	4756.35	60.0839	4756.35	58.4089	4756.35	58.9413	4756.35	59.5134	4756.35	55.6097	4756.35	58.7741	4756.35	57.9886
4924.8	82.2869	4924.8	82.2807	4924.8	82.0433	4924.8	81.6703	4924.8	81.3259	4924.8	80.671	4924.8	80.5509	4924.8	79.4754	4924.8	79.2518	4924.8	77.5024	4924.8	77.6157	4924.8	75.9974	4924.8	76.0544	4924.8	74.5307	4924.8	74.4593	4924.8	73.0312	4924.8	72.5944	4924.8	71.2452	4924.8	70.5983	4924.8	69.5741	4924.8	68.5674	4924.8	67.3183	4924.8	66.0854	4924.8	64.3512	4924.8	64.3501	4924.8	62.9259	4924.8	61.3595	4924.8	61.1767	4924.8	60.9668	4924.8	60.1183	4924.8	59.6929	4924.8	59.8925	4924.8	59.7849	4924.8	56.2583	4924.8	57.5004	4924.8	55.8225
5097.66	82.1763	5097.66	81.9636	5097.66	82.0494	5097.66	81.4105	5097.66	81.7413	5097.66	80.5204	5097.66	80.759	5097.66	79.0972	5097.66	79.4286	5097.66	78.0523	5097.66	77.9082	5097.66	76.3083	5097.66	76.2634	5097.66	74.648	5097.66	74.3313	5097.66	72.4356	5097.66	72.5285	5097.66	69.8439	5097.66	70.0152	5097.66	67.7689	5097.66	68.7273	5097.66	66.2216	5097.66	66.0714	5097.66	63.8054	5097.66	64.5464	5097.66	60.7209	5097.66	61.8676	5097.66	58.5685	5097.66	61.0662	5097.66	59.1994	5097.66	59.8128	5097.66	60.4444	5097.66	60.0638	5097.66	57.5057	5097.66	56.3793	5097.66	56.4496
5277.83	81.854	5277.83	81.787	5277.83	81.7813	5277.83	81.2579	5277.83	81.1103	5277.83	80.465	5277.83	80.2381	5277.83	79.4367	5277.83	78.9877	5277.83	77.4985	5277.83	77.1345	5277.83	75.5949	5277.83	75.45	5277.83	73.5235	5277.83	73.5629	5277.83	71.9765	5277.83	71.9177	5277.83	69.6329	5277.83	69.8163	5277.83	68.532	5277.83	67.4518	5277.83	65.9747	5277.83	65.6492	5277.83	64.7786	5277.83	62.6623	5277.83	62.0261	5277.83	60.2701	5277.83	59.5649	5277.83	58.3478	5277.83	58.8394	5277.83	57.2804	5277.83	59.426	5277.83	59.0286	5277.83	55.2475	5277.83	57.3438	5277.83	55.5137
5463.87	82.4502	5463.87	82.3071	5463.87	82.1442	5463.87	81.5731	5463.87	81.3316	5463.87	80.3572	5463.87	80.2336	5463.87	78.6931	5463.87	78.7451	5463.87	76.9207	5463.87	76.9265	5463.87	75.0079	5463.87	74.9403	5463.87	73.4895	5463.87	73.1196	5463.87	71.6216	5463.87	71.1451	5463.87	69.4064	5463.87	68.5765	5463.87	67.3699	5463.87	68.2883	5463.87	65.7235	5463.87	64.5977	5463.87	63.3988	5463.87	64.9161	5463.87	61.3297	5463.87	60.7383	5463.87	59.0207	5463.87	59.2347	5463.87	57.9954	5463.87	56.7681	5463.87	59.7947	5463.87	58.6	5463.87	55.3894	5463.87	55.9726	5463.87	52.4937
5657.23	82.3207	5657.23	82.0172	5657.23	82.1746	5657.23	81.0107	5657.23	81.2569	5657.23	79.6493	5657.23	79.9679	5657.23	78.1194	5657.23	78.3518	5657.23	76.4734	5657.23	76.3813	5657.23	74.7805	5657.23	74.4416	5657.23	73.0972	5657.23	72.7666	5657.23	71.0941	5657.23	71.1927	5657.23	68.484	5657.23	69.1785	5657.23	67.2969	5657.23	66.5294	5657.23	63.9462	5657.23	65.2338	5657.23	63.663	5657.23	62.5901	5657.23	60.7217	5657.23	61.275	5657.23	57.6524	5657.23	57.3816	5657.23	56.1809	5657.23	56.5448	5657.23	58.6526	5657.23	58.3826	5657.23	54.41	5657.23	56.7331	5657.23	55.677
5856.45	82.1303	5856.45	81.8776	5856.45	82.0305	5856.45	81.0306	5856.45	81.2809	5856.45	79.8023	5856.45	80.0016	5856.45	78.3775	5856.45	78.352	5856.45	76.7515	5856.45	76.3286	5856.45	74.3675	5856.45	74.3134	5856.45	72.4271	5856.45	72.2558	5856.45	70.6177	5856.45	70.8961	5856.45	68.5889	5856.45	68.5729	5856.45	66.8934	5856.45	67.432	5856.45	65.2864	5856.45	63.514	5856.45	63.3708	5856.45	64.0992	5856.45	61.3189	5856.45	61.2269	5856.45	56.4372	5856.45	58.0563	5856.45	54.6861	5856.45	55.8083	5856.45	58.5556	5856.45	58.7707	5856.45	53.1586	5856.45	55.8766	5856.45	53.8711
6062.99	82.2063	6062.99	81.8603	6062.99	81.9495	6062.99	81.1065	6062.99	81.0845	6062.99	79.7724	6062.99	79.713	6062.99	78.0313	6062.99	77.7602	6062.99	75.8199	6062.99	75.7709	6062.99	73.6854	6062.99	74.0055	6062.99	72.1226	6062.99	72.2184	6062.99	70.5667	6062.99	70.6631	6062.99	68.55	6062.99	68.9453	6062.99	67.0543	6062.99	66.9075	6062.99	64.8512	6062.99	65.518	6062.99	63.567	6062.99	62.266	6062.99	61.9112	6062.99	61.8392	6062.99	57.7947	6062.99	56.7116	6062.99	55.2907	6062.99	54.315	6062.99	58.713	6062.99	58.0793	6062.99	55.1118	6062.99	55.3268	6062.99	52.5565
6276.86	82.2419	6276.86	82.0191	6276.86	82.0058	6276.86	81.0393	6276.86	80.9101	6276.86	79.5133	6276.86	79.3707	6276.86	77.4664	6276.86	77.4821	6276.86	75.628	6276.86	75.6944	6276.86	73.7574	6276.86	74.0432	6276.86	72.342	6276.86	72.6973	6276.86	70.9887	6276.86	70.9126	6276.86	69.0014	6276.86	69.3021	6276.86	66.6685	6276.86	67.2272	6276.86	64.0817	6276.86	64.2313	6276.86	63.0845	6276.86	63.1421	6276.86	61.6863	6276.86	60.6313	6276.86	57.7437	6276.86	57.9042	6276.86	54.9929	6276.86	54.2423	6276.86	58.0716	6276.86	57.6023	6276.86	53.9115	6276.86	55.6934	6276.86	55.7042
6498.05	82.7985	6498.05	82.4826	6498.05	82.4636	6498.05	81.2768	6498.05	81.2052	6498.05	79.4662	6498.05	79.4135	6498.05	77.4924	6498.05	77.7439	6498.05	75.7769	6498.05	76.0052	6498.05	74.0874	6498.05	74.4467	6498.05	72.4342	6498.05	72.5868	6498.05	70.4929	6498.05	70.5531	6498.05	68.1247	6498.05	68.5791	6498.05	66.5258	6498.05	66.5194	6498.05	64.5176	6498.05	64.0834	6498.05	62.8152	6498.05	62.6544	6498.05	60.4779	6498.05	60.1343	6498.05	56.3763	6498.05	56.5181	6498.05	52.9668	6498.05	53.5654	6498.05	58.502	6498.05	57.6599	6498.05	55.8347	6498.05	55.5717	6498.05	53.9059
6726.56	82.9964	6726.56	82.5304	6726.56	82.4042	6726.56	81.2252	6726.56	80.9079	6726.56	79.1247	6726.56	79.1536	6726.56	77.2367	6726.56	77.4496	6726.56	75.7271	6726.56	75.667	6726.56	74.0153	6726.56	74.1151	6726.56	72.2907	6726.56	72.3285	6726.56	70.2485	6726.56	70.2984	6726.56	68.2304	6726.56	68.5392	6726.56	66.8437	6726.56	66.788	6726.56	63.9245	6726.56	64.3289	6726.56	62.6055	6726.56	62.1422	6726.56	60.6206	6726.56	60.6564	6726.56	57.4207	6726.56	55.9963	6726.56	52.3152	6726.56	53.1604	6726.56	56.3569	6726.56	56.9198	6726.56	52.6073	6726.56	53.7388	6726.56	54.2503
6963.87	82.6997	6963.87	82.3213	6963.87	82.1611	6963.87	80.8885	6963.87	80.588	6963.87	78.9806	6963.87	78.8337	6963.87	77.2737	6963.87	77.3426	6963.87	75.8395	6963.87	75.8837	6963.87	73.9196	6963.87	74.1762	6963.87	72.1819	6963.87	72.4506	6963.87	69.8804	6963.87	70.0876	6963.87	68.1905	6963.87	68.332	6963.87	66.2242	6963.87	66.1519	6963.87	63.1554	6963.87	63.5487	6963.87	61.5125	6963.87	61.5787	6963.87	60.6611	6963.87	60.1793	6963.87	57.1478	6963.87	56.9064	6963.87	53.4829	6963.87	52.5833	6963.87	56.3372	6963.87	56.6826	6963.87	52.7084	6963.87	54.2474	6963.87	52.7527
7209.96	83.1094	7209.96	82.6075	7209.96	82.4135	7209.96	81.0144	7209.96	80.6492	7209.96	79.0471	7209.96	79.0154	7209.96	77.5224	7209.96	77.6915	7209.96	75.9845	7209.96	76.2102	7209.96	73.9341	7209.96	74.1611	7209.96	71.952	7209.96	72.231	7209.96	69.7785	7209.96	69.9172	7209.96	67.0463	7209.96	67.5552	7209.96	65.6521	7209.96	65.5514	7209.96	62.8147	7209.96	63.2883	7209.96	60.9055	7209.96	60.8449	7209.96	59.3104	7209.96	59.2925	7209.96	56.7515	7209.96	56.0419	7209.96	50.5559	7209.96	50.396	7209.96	55.1223	7209.96	56.4636	7209.96	53.3277	7209.96	54.41	7209.96	52.3264
7464.84	83.226	7464.84	82.5888	7464.84	82.4385	7464.84	81.1089	7464.84	81.0178	7464.84	79.363	7464.84	79.6007	7464.84	77.7647	7464.84	77.9724	7464.84	76.0364	7464.84	76.1139	7464.84	73.7956	7464.84	73.9037	7464.84	71.7995	7464.84	71.9284	7464.84	69.1925	7464.84	69.3313	7464.84	66.9555	7464.84	67.0726	7464.84	65.3417	7464.84	65.6078	7464.84	62.315	7464.84	62.9121	7464.84	60.4821	7464.84	60.442	7464.84	58.8721	7464.84	58.4313	7464.84	56.5716	7464.84	55.1873	7464.84	50.9394	7464.84	51.4341	7464.84	54.7759	7464.84	55.3129	7464.84	50.388	7464.84	52.713	7464.84	53.085
7727.05	83.0577	7727.05	82.4572	7727.05	82.5655	7727.05	81.1261	7727.05	81.173	7727.05	79.5884	7727.05	79.7238	7727.05	77.8601	7727.05	78.0354	7727.05	76.1823	7727.05	76.1816	7727.05	73.6091	7727.05	73.8126	7727.05	71.4758	7727.05	71.6352	7727.05	69.1096	7727.05	69.1933	7727.05	66.4709	7727.05	66.8532	7727.05	65.0428	7727.05	65.503	7727.05	62.7851	7727.05	62.9522	7727.05	59.7294	7727.05	60.4353	7727.05	58.4259	7727.05	58.7456	7727.05	55.229	7727.05	56.9058	7727.05	51.0597	7727.05	51.4607	7727.05	53.1312	7727.05	54.6587	7727.05	50.9675	7727.05	53.6645	7727.05	52.6016
7999.51	83.0636	7999.51	82.4687	7999.51	82.5281	7999.51	81.0215	7999.51	81.1848	7999.51	79.636	7999.51	79.8612	7999.51	78.0346	7999.51	78.2176	7999.51	76.2252	7999.51	76.226	7999.51	73.8778	7999.51	74.1054	7999.51	71.6034	7999.51	71.7419	7999.51	69.4131	7999.51	69.5875	7999.51	66.7321	7999.51	67.2104	7999.51	65.3002	7999.51	65.4118	7999.51	63.0872	7999.51	63.5401	7999.51	60.3449	7999.51	60.9324	7999.51	58.6886	7999.51	58.0339	7999.51	56.6862	7999.51	56.7878	7999.51	51.0747	7999.51	52.7395	7999.51	52.6482	7999.51	55.1164	7999.51	50.1548	7999.51	53.6289	7999.51	52.8409
8282.23	82.8096	8282.23	82.3102	8282.23	82.4414	8282.23	81.0904	8282.23	81.1876	8282.23	79.8578	8282.23	79.9703	8282.23	78.4541	8282.23	78.4343	8282.23	76.3285	8282.23	76.5412	8282.23	74.2201	8282.23	74.4575	8282.23	72.0592	8282.23	71.8852	8282.23	69.7252	8282.23	70.0075	8282.23	67.2446	8282.23	67.4058	8282.23	65.5241	8282.23	65.1311	8282.23	63.3538	8282.23	63.7431	8282.23	61.2763	8282.23	60.8182	8282.23	58.3223	8282.23	58.6589	8282.23	57.1806	8282.23	56.5439	8282.23	52.7792	8282.23	53.2734	8282.23	53.749	8282.23	55.0599	8282.23	50.6918	8282.23	53.7041	8282.23	55.0049
8573.73	82.8235	8573.73	82.243	8573.73	82.3935	8573.73	81.1606	8573.73	81.2149	8573.73	79.9339	8573.73	80.0078	8573.73	78.5641	8573.73	78.5316	8573.73	76.5828	8573.73	76.545	8573.73	74.3698	8573.73	74.4464	8573.73	72.2229	8573.73	71.9117	8573.73	69.9941	8573.73	69.7184	8573.73	67.7948	8573.73	67.756	8573.73	65.5972	8573.73	65.2154	8573.73	63.6071	8573.73	63.7225	8573.73	60.6563	8573.73	60.8014	8573.73	57.9912	8573.73	58.2527	8573.73	56.7194	8573.73	57.1385	8573.73	52.5725	8573.73	53.3224	8573.73	51.3328	8573.73	53.9167	8573.73	51.5648	8573.73	52.9965	8573.73	54.7223
8876.95	82.7502	8876.95	82.2326	8876.95	82.3307	8876.95	81.1283	8876.95	81.1512	8876.95	79.8047	8876.95	79.958	8876.95	78.4033	8876.95	78.4789	8876.95	76.3527	8876.95	76.2622	8876.95	74.1747	8876.95	74.1867	8876.95	71.9896	8876.95	71.7263	8876.95	69.596	8876.95	69.6255	8876.95	67.3482	8876.95	67.6239	8876.95	65.2547	8876.95	65.1231	8876.95	63.1012	8876.95	63.6308	8876.95	60.5015	8876.95	60.8666	8876.95	57.7931	8876.95	56.4229	8876.95	56.853	8876.95	56.5672	8876.95	51.8196	8876.95	53.7008	8876.95	50.1332	8876.95	52.6309	8876.95	52.0791	8876.95	52.9011	8876.95	54.7663
9188.96	82.6796	9188.96	82.1175	9188.96	82.1935	9188.96	81.0557	9188.96	81.0132	9188.96	79.827	9188.96	79.9205	9188.96	78.1569	9188.96	78.1408	9188.96	75.9836	9188.96	76.0091	9188.96	73.79	9188.96	74.0556	9188.96	71.7958	9188.96	71.9045	9188.96	69.1267	9188.96	69.6102	9188.96	66.9168	9188.96	67.5002	9188.96	65.1255	9188.96	64.7969	9188.96	63.0793	9188.96	63.1857	9188.96	60.647	9188.96	61.0722	9188.96	56.777	9188.96	56.4872	9188.96	56.7015	9188.96	56.5215	9188.96	51.5311	9188.96	54.3736	9188.96	48.9523	9188.96	52.4589	9188.96	53.6151	9188.96	52.8799	9188.96	55.798
9514.16	82.5041	9514.16	81.9866	9514.16	82.0905	9514.16	81.1826	9514.16	81.2123	9514.16	79.9025	9514.16	80.1856	9514.16	78.0661	9514.16	78.2056	9514.16	75.8035	9514.16	76.0479	9514.16	73.6469	9514.16	74.0971	9514.16	72.0792	9514.16	72.1409	9514.16	69.4964	9514.16	69.5199	9514.16	67.4927	9514.16	67.775	9514.16	64.6534	9514.16	64.5904	9514.16	62.8308	9514.16	62.742	9514.16	60.3055	9514.16	61.0773	9514.16	56.1417	9514.16	56.5883	9514.16	55.8806	9514.16	56.1714	9514.16	51.4305	9514.16	54.9252	9514.16	49.0087	9514.16	52.1437	9514.16	54.2167	9514.16	53.7713	9514.16	54.7858
9849.61	82.2599	9849.61	81.9851	9849.61	81.9702	9849.61	81.1546	9849.61	81.3764	9849.61	80.124	9849.61	80.3161	9849.61	78.3072	9849.61	78.4227	9849.61	76.2323	9849.61	76.4387	9849.61	74.0172	9849.61	74.5674	9849.61	72.2087	9849.61	72.2728	9849.61	69.4621	9849.61	69.3711	9849.61	66.9093	9849.61	67.0255	9849.61	64.0116	9849.61	64.1089	9849.61	61.8398	9849.61	61.8483	9849.61	58.9013	9849.61	60.4509	9849.61	56.5735	9849.61	56.2747	9849.61	55.2609	9849.61	54.5568	9849.61	52.6233	9849.61	54.3676	9849.61	53.6416	9849.61	53.0726	9849.61	50.4591	9849.61	49.8933	9849.61	49.1605
10196.8	82.253	10196.8	82.0838	10196.8	82.0587	10196.8	81.6888	10196.8	81.7206	10196.8	80.5075	10196.8	80.5123	10196.8	78.7248	10196.8	78.9461	10196.8	76.7233	10196.8	76.879	10196.8	73.9853	10196.8	74.577	10196.8	71.7906	10196.8	71.997	10196.8	68.7438	10196.8	68.763	10196.8	65.9096	10196.8	66.4305	10196.8	63.935	10196.8	63.4297	10196.8	61.1785	10196.8	60.7845	10196.8	58.5783	10196.8	59.2241	10196.8	56.0453	10196.8	55.425	10196.8	55.2526	10196.8	54.6001	10196.8	52.6892	10196.8	53.8744	10196.8	53.3805	10196.8	52.1093	10196.8	51.3521	10196.8	48.0644	10196.8	47.9145
10555.7	82.1639	10555.7	82.0148	10555.7	82.0421	10555.7	81.6973	10555.7	81.7772	10555.7	80.7375	10555.7	80.7162	10555.7	78.9289	10555.7	79.0982	10555.7	76.6116	10555.7	76.858	10555.7	74.053	10555.7	74.49	10555.7	71.6324	10555.7	71.6196	10555.7	68.7493	10555.7	68.5373	10555.7	65.7623	10555.7	65.9469	10555.7	63.6707	10555.7	63.397	10555.7	61.1983	10555.7	60.6467	10555.7	58.9461	10555.7	59.1827	10555.7	55.4115	10555.7	55.7608	10555.7	54.505	10555.7	54.8242	10555.7	52.166	10555.7	53.7412	10555.7	52.9833	10555.7	51.0215	10555.7	50.5741	10555.7	49.4546	10555.7	47.0702
10927.7	82.0451	10927.7	81.8689	10927.7	82.0054	10927.7	81.668	10927.7	81.8579	10927.7	80.6259	10927.7	80.4954	10927.7	78.6115	10927.7	78.7497	10927.7	76.3764	10927.7	76.5672	10927.7	73.7127	10927.7	74.0416	10927.7	71.4666	10927.7	71.0521	10927.7	68.7305	10927.7	67.8669	10927.7	65.3171	10927.7	64.8194	10927.7	63.2782	10927.7	62.2173	10927.7	60.3667	10927.7	59.4706	10927.7	58.2458	10927.7	58.3304	10927.7	55.3085	10927.7	55.3378	10927.7	53.4407	10927.7	54.1483	10927.7	51.7052	10927.7	52.2755	10927.7	52.1137	10927.7	48.7272	10927.7	50.5581	10927.7	48.9597	10927.7	47.8343
11313	81.5254	11313	81.5826	11313	81.6117	11313	81.6472	11313	81.6429	11313	80.2913	11313	80.1082	11313	77.8305	11313	78.1094	11313	76.0881	11313	75.9374	11313	73.4005	11313	73.2953	11313	70.4875	11313	69.8648	11313	67.3214	11313	66.4309	11313	64.2312	11313	63.5218	11313	62.1686	11313	61.2143	11313	58.9065	11313	57.829	11313	56.6347	11313	57.203	11313	54.4713	11313	54.5412	11313	51.966	11313	53.0283	11313	51.5776	11313	51.4005	11313	50.4792	11313	48.1449	11313	51.5155	11313	47.9915	11313	48.4419
11712.9	80.9354	11712.9	81.2016	11712.9	81.491	11712.9	81.5817	11712.9	81.8458	11712.9	80.0004	11712.9	79.8549	11712.9	77.353	11712.9	77.7863	11712.9	75.6024	11712.9	75.6084	11712.9	72.343	11712.9	72.2764	11712.9	68.7209	11712.9	68.2312	11712.9	64.9895	11712.9	64.7127	11712.9	61.5713	11712.9	62.3582	11712.9	60.3213	11712.9	60.1627	11712.9	57.5531	11712.9	57.158	11712.9	55.2531	11712.9	56.7341	11712.9	53.607	11712.9	54.107	11712.9	49.8648	11712.9	52.6979	11712.9	48.9839	11712.9	50.6286	11712.9	49.2159	11712.9	48.0907	11712.9	52.4723	11712.9	48.2975	11712.9	50.1631
12126	80.016	12126	81.1896	12126	81.2222	12126	81.8123	12126	81.9089	12126	79.4558	12126	79.4721	12126	76.9718	12126	77.7828	12126	75.3304	12126	75.5476	12126	70.5044	12126	71.2305	12126	65.4072	12126	67.1199	12126	62.812	12126	64.7046	12126	61.6983	12126	63.3491	12126	59.6861	12126	60.8102	12126	57.1173	12126	59.0019	12126	54.1352	12126	56.8721	12126	52.4403	12126	54.5145	12126	48.7205	12126	52.9123	12126	47.8808	12126	49.8353	12126	48.213	12126	46.9627	12126	53.0613	12126	49.6696	12126	51.7203
12553.7	79.4926	12553.7	81.3603	12553.7	81.18	12553.7	81.8253	12553.7	81.8073	12553.7	79.1523	12553.7	79.2216	12553.7	77.1749	12553.7	77.8618	12553.7	74.274	12553.7	74.6857	12553.7	68.0402	12553.7	69.7706	12553.7	64.8851	12553.7	67.9799	12553.7	63.996	12553.7	66.1652	12553.7	63.1727	12553.7	64.6198	12553.7	60.3375	12553.7	61.6854	12553.7	58.1356	12553.7	59.4307	12553.7	54.6046	12553.7	57.36	12553.7	51.765	12553.7	55.1089	12553.7	48.287	12553.7	54.0561	12553.7	49.4112	12553.7	50.6158	12553.7	47.7581	12553.7	45.7237	12553.7	54.2806	12553.7	50.8677	12553.7	52.8701
12996.1	80.7126	12996.1	81.6463	12996.1	81.4141	12996.1	81.4961	12996.1	81.5765	12996.1	79.8166	12996.1	79.9694	12996.1	77.7721	12996.1	77.7995	12996.1	72.445	12996.1	72.4834	12996.1	65.9838	12996.1	68.8651	12996.1	65.897	12996.1	68.6568	12996.1	64.6468	12996.1	65.9966	12996.1	62.923	12996.1	64.1141	12996.1	60.0749	12996.1	60.9543	12996.1	57.6167	12996.1	58.8833	12996.1	53.6221	12996.1	56.2427	12996.1	50.6721	12996.1	54.937	12996.1	47.8481	12996.1	53.2998	12996.1	44.5106	12996.1	47.4834	12996.1	46.4993	12996.1	42.8622	12996.1	54.8581	12996.1	50.4454	12996.1	55.1323
13454.6	82.622	13454.6	81.9553	13454.6	81.4983	13454.6	80.4477	13454.6	81.3148	13454.6	80.4998	13454.6	80.7125	13454.6	77.6811	13454.6	77.129	13454.6	70.969	13454.6	71.3953	13454.6	69.045	13454.6	69.4119	13454.6	67.1474	13454.6	68.0384	13454.6	64.6797	13454.6	64.1186	13454.6	61.1381	13454.6	62.0187	13454.6	57.6509	13454.6	58.9109	13454.6	55.2122	13454.6	56.9823	13454.6	50.7233	13454.6	54.0657	13454.6	48.9414	13454.6	53.4461	13454.6	45.3189	13454.6	51.0316	13454.6	40.7008	13454.6	46.0644	13454.6	46.0932	13454.6	35.8875	13454.6	53.765	13454.6	49.0709	13454.6	55.7175
13929.2	83.2952	13929.2	81.6514	13929.2	81.1787	13929.2	80.3855	13929.2	81.3505	13929.2	80.8068	13929.2	81.0888	13929.2	76.4482	13929.2	76.7987	13929.2	72.2272	13929.2	72.7002	13929.2	70.8452	13929.2	70.1869	13929.2	66.5134	13929.2	67.1934	13929.2	62.1967	13929.2	63.1371	13929.2	57.9524	13929.2	61.0385	13929.2	56.4829	13929.2	58.4552	13929.2	52.8971	13929.2	55.8959	13929.2	50.3441	13929.2	52.9839	13929.2	49.7386	13929.2	52.4421	13929.2	42.119	13929.2	48.2531	13929.2	41.2717	13929.2	47.2788	13929.2	46.338	13929.2	33.5831	13929.2	50.7824	13929.2	48.4067	13929.2	55.0687
14419.9	83.2635	14419.9	80.9696	14419.9	80.9161	14419.9	81.1954	14419.9	81.4793	14419.9	80.9626	14419.9	81.2954	14419.9	75.8964	14419.9	77.092	14419.9	74.2834	14419.9	74.3983	14419.9	70.9056	14419.9	70.6414	14419.9	66.2827	14419.9	67.2893	14419.9	63.4518	14419.9	64.7177	14419.9	60.4735	14419.9	62.749	14419.9	60.41	14419.9	60.3855	14419.9	55.3091	14419.9	57.1981	14419.9	54.0372	14419.9	54.3029	14419.9	52.2846	14419.9	53.2076	14419.9	47.1314	14419.9	48.3096	14419.9	41.4234	14419.9	45.0439	14419.9	45.8213	14419.9	26.2613	14419.9	47.3239	14419.9	48.2509	14419.9	50.8732
14928.2	83.2378	14928.2	81.1243	14928.2	81.4529	14928.2	82.017	14928.2	81.8874	14928.2	80.7063	14928.2	80.9112	14928.2	76.9227	14928.2	77.4765	14928.2	75.2121	14928.2	75.2028	14928.2	70.3727	14928.2	71.0354	14928.2	68.8211	14928.2	69.0701	14928.2	66.6732	14928.2	66.8666	14928.2	63.5072	14928.2	64.4983	14928.2	61.987	14928.2	61.9214	14928.2	57.284	14928.2	58.679	14928.2	55.9699	14928.2	55.6471	14928.2	53.5497	14928.2	53.5033	14928.2	48.8331	14928.2	49.1643	14928.2	35.1293	14928.2	45.1821	14928.2	45.9893	14928.2	30.4144	14928.2	49.0928	14928.2	48.301	14928.2	42.2256
15455.6	82.7547	15455.6	81.4789	15455.6	82	15455.6	81.9262	15455.6	81.7685	15455.6	79.6541	15455.6	80.0432	15455.6	77.2272	15455.6	77.507	15455.6	74.609	15455.6	74.9363	15455.6	71.1849	15455.6	71.5041	15455.6	70.1588	15455.6	69.6352	15455.6	66.9699	15455.6	67.0686	15455.6	63.78	15455.6	63.8904	15455.6	61.7095	15455.6	61.0661	15455.6	56.8009	15455.6	57.4552	15455.6	55.3867	15455.6	55.7745	15455.6	51.8338	15455.6	51.8492	15455.6	47.1398	15455.6	47.9726	15455.6	33.366	15455.6	42.0407	15455.6	44.807	15455.6	42.0134	15455.6	50.6446	15455.6	49.0916	15455.6	47.3291
16000.5	82.2209	16000.5	81.562	16000.5	81.9396	16000.5	81.1957	16000.5	81.0548	16000.5	78.6868	16000.5	78.9755	16000.5	76.4681	16000.5	76.8657	16000.5	73.3256	16000.5	73.9727	16000.5	71.6077	16000.5	71.4585	16000.5	69.9158	16000.5	69.3034	16000.5	65.5851	16000.5	65.7803	16000.5	62.4207	16000.5	62.1206	16000.5	59.6871	16000.5	59.3091	16000.5	55.4179	16000.5	55.8504	16000.5	53.1584	16000.5	54.2106	16000.5	49.3514	16000.5	50.2848	16000.5	44.9648	16000.5	47.9927	16000.5	42.7731	16000.5	43.3098	16000.5	41.4342	16000.5	41.7202	16000.5	50.0168	16000.5	47.1808	16000.5	49.9911
16564.5	81.4709	16564.5	81.4835	16564.5	81.8243	16564.5	80.4031	16564.5	80.467	16564.5	78.1421	16564.5	78.3404	16564.5	75.8851	16564.5	76.0251	16564.5	73.2905	16564.5	73.7153	16564.5	71.6591	16564.5	71.4933	16564.5	68.5092	16564.5	68.2911	16564.5	64.1085	16564.5	64.3463	16564.5	60.8881	16564.5	60.5695	16564.5	57.878	16564.5	57.6974	16564.5	54.4221	16564.5	54.6728	16564.5	51.7016	16564.5	52.7317	16564.5	47.0129	16564.5	48.1217	16564.5	43.4283	16564.5	44.9216	16564.5	45.6225	16564.5	43.0426	16564.5	43.379	16564.5	45.2067	16564.5	47.7129	16564.5	44.2644	16564.5	50.4326
17148.9	81.2753	17148.9	81.2646	17148.9	81.6635	17148.9	80.0141	17148.9	80.2759	17148.9	77.4526	17148.9	78.0261	17148.9	75.0966	17148.9	75.3978	17148.9	73.1291	17148.9	73.5681	17148.9	71.1037	17148.9	71.058	17148.9	67.4246	17148.9	67.1616	17148.9	62.603	17148.9	63.326	17148.9	59.314	17148.9	59.2762	17148.9	56.5749	17148.9	56.1813	17148.9	52.67	17148.9	53.3555	17148.9	50.5774	17148.9	51.0378	17148.9	45.346	17148.9	46.1583	17148.9	43.1841	17148.9	41.2064	17148.9	49.558	17148.9	47.1205	17148.9	46.168	17148.9	49.476	17148.9	46.845	17148.9	40.6596	17148.9	48.9134
17752.4	81.0393	17752.4	81.0824	17752.4	81.4415	17752.4	79.5826	17752.4	79.6246	17752.4	76.8479	17752.4	77.2885	17752.4	74.6148	17752.4	74.5339	17752.4	72.5507	17752.4	72.8443	17752.4	69.3665	17752.4	69.5584	17752.4	65.1448	17752.4	64.8451	17752.4	59.7562	17752.4	60.3974	17752.4	56.0718	17752.4	55.6946	17752.4	52.0975	17752.4	51.6911	17752.4	47.0386	17752.4	51.2614	17752.4	47.6993	17752.4	47.7705	17752.4	43.2373	17752.4	43.7744	17752.4	41.925	17752.4	38.475	17752.4	50.8039	17752.4	46.7831	17752.4	48.7412	17752.4	52.5717	17752.4	51.2992	17752.4	47.2329	17752.4	46.8555
18379.4	80.6022	18379.4	80.3959	18379.4	80.8131	18379.4	79.1684	18379.4	79.0029	18379.4	76.4149	18379.4	76.9845	18379.4	74.4138	18379.4	74.5837	18379.4	71.5663	18379.4	71.7671	18379.4	66.8572	18379.4	67.0482	18379.4	60.9798	18379.4	59.6338	18379.4	55.0628	18379.4	55.3162	18379.4	51.3324	18379.4	50.6925	18379.4	49.3209	18379.4	47.1932	18379.4	42.7913	18379.4	48.783	18379.4	42.9089	18379.4	37.9739	18379.4	37.775	18379.4	40.786	18379.4	35.7501	18379.4	32.8826	18379.4	49.8612	18379.4	45.6443	18379.4	48.8424	18379.4	54.165	18379.4	53.9409	18379.4	50.4518	18379.4	49.4305
19026.9	80.2283	19026.9	79.8144	19026.9	80.4705	19026.9	78.7515	19026.9	78.6737	19026.9	76.061	19026.9	77.0696	19026.9	74.1007	19026.9	74.5455	19026.9	70.3438	19026.9	70.5305	19026.9	64.5858	19026.9	63.8737	19026.9	59.7331	19026.9	56.7453	19026.9	56.5861	19026.9	54.3099	19026.9	53.8452	19026.9	51.3609	19026.9	50.1987	19026.9	49.5936	19026.9	44.8979	19026.9	48.6963	19026.9	42.2939	19026.9	39.6287	19026.9	33.5868	19026.9	43.5895	19026.9	34.1888	19026.9	39.6239	19026.9	48.841	19026.9	44.2235	19026.9	47.2307	19026.9	54.979	19026.9	55.8585	19026.9	51.7511	19026.9	53.9639
19697.8	80.399	19697.8	79.5539	19697.8	80.3523	19697.8	78.8993	19697.8	78.3617	19697.8	76.0258	19697.8	77.2179	19697.8	74.0767	19697.8	74.4446	19697.8	69.2466	19697.8	69.3093	19697.8	64.2888	19697.8	63.5287	19697.8	59.4338	19697.8	59.7378	19697.8	57.1986	19697.8	56.6688	19697.8	54.4927	19697.8	52.9937	19697.8	52.0605	19697.8	51.8488	19697.8	47.7412	19697.8	48.0829	19697.8	44.9025	19697.8	46.0257	19697.8	42.0482	19697.8	46.1224	19697.8	40.6548	19697.8	44.4613	19697.8	50.1715	19697.8	47.7053	19697.8	47.6824	19697.8	56.7674	19697.8	57.8174	19697.8	53.4773	19697.8	57.2816
19999.5	79.8965	19999.5	79.7034	19999.5	80.4151	19999.5	79.1105	19999.5	77.9868	19999.5	76.0356	19999.5	77.1268	19999.5	73.9133	19999.5	74.3747	19999.5	67.8922	19999.5	68.8959	19999.5	63.6041	19999.5	64.038	19999.5	59.4127	19999.5	61.3061	19999.5	57.4236	19999.5	58.3257	19999.5	54	19999.5	52.47	19999.5	50.8568	19999.5	51.3974	19999.5	50.7468	19999.5	48.9309	19999.5	42.7606	19999.5	47.5028	19999.5	46.3205	19999.5	45.0703	19999.5	45.0393	19999.5	46.2218	19999.5	51.5949	19999.5	44.4151	19999.5	46.6832	19999.5	56.2868	19999.5	59.7395	19999.5	55.302	19999.5	56.9666
