"SPL Horizontal"
"On-Axis"		"10°"		"-10°"		"20°"		"-20°"		"30°"		"-30°"		"40°"		"-40°"		"50°"		"-50°"		"60°"		"-60°"		"70°"		"-70°"		"80°"		"-80°"		"90°"		"-90°"		"100°"		"-100°"		"110°"		"-110°"		"120°"		"-120°"		"130°"		"-130°"		"140°"		"-140°"		"150°"		"-150°"		"160°"		"-160°"		"170°"		"-170°"		"180°"
"Frequency / Hz"	"Sound Pressure Level / dB (re 20 µPa/V)  [2.83  V @ 1. m]"	"Frequency / Hz"	"Sound Pressure Level / dB (re 20 µPa/V)  [2.83  V @ 1. m]"	"Frequency / Hz"	"Sound Pressure Level / dB (re 20 µPa/V)  [2.83  V @ 1. m]"	"Frequency / Hz"	"Sound Pressure Level / dB (re 20 µPa/V)  [2.83  V @ 1. m]"	"Frequency / Hz"	"Sound Pressure Level / dB (re 20 µPa/V)  [2.83  V @ 1. m]"	"Frequency / Hz"	"Sound Pressure Level / dB (re 20 µPa/V)  [2.83  V @ 1. m]"	"Frequency / Hz"	"Sound Pressure Level / dB (re 20 µPa/V)  [2.83  V @ 1. m]"	"Frequency / Hz"	"Sound Pressure Level / dB (re 20 µPa/V)  [2.83  V @ 1. m]"	"Frequency / Hz"	"Sound Pressure Level / dB (re 20 µPa/V)  [2.83  V @ 1. m]"	"Frequency / Hz"	"Sound Pressure Level / dB (re 20 µPa/V)  [2.83  V @ 1. m]"	"Frequency / Hz"	"Sound Pressure Level / dB (re 20 µPa/V)  [2.83  V @ 1. m]"	"Frequency / Hz"	"Sound Pressure Level / dB (re 20 µPa/V)  [2.83  V @ 1. m]"	"Frequency / Hz"	"Sound Pressure Level / dB (re 20 µPa/V)  [2.83  V @ 1. m]"	"Frequency / Hz"	"Sound Pressure Level / dB (re 20 µPa/V)  [2.83  V @ 1. m]"	"Frequency / Hz"	"Sound Pressure Level / dB (re 20 µPa/V)  [2.83  V @ 1. m]"	"Frequency / Hz"	"Sound Pressure Level / dB (re 20 µPa/V)  [2.83  V @ 1. m]"	"Frequency / Hz"	"Sound Pressure Level / dB (re 20 µPa/V)  [2.83  V @ 1. m]"	"Frequency / Hz"	"Sound Pressure Level / dB (re 20 µPa/V)  [2.83  V @ 1. m]"	"Frequency / Hz"	"Sound Pressure Level / dB (re 20 µPa/V)  [2.83  V @ 1. m]"	"Frequency / Hz"	"Sound Pressure Level / dB (re 20 µPa/V)  [2.83  V @ 1. m]"	"Frequency / Hz"	"Sound Pressure Level / dB (re 20 µPa/V)  [2.83  V @ 1. m]"	"Frequency / Hz"	"Sound Pressure Level / dB (re 20 µPa/V)  [2.83  V @ 1. m]"	"Frequency / Hz"	"Sound Pressure Level / dB (re 20 µPa/V)  [2.83  V @ 1. m]"	"Frequency / Hz"	"Sound Pressure Level / dB (re 20 µPa/V)  [2.83  V @ 1. m]"	"Frequency / Hz"	"Sound Pressure Level / dB (re 20 µPa/V)  [2.83  V @ 1. m]"	"Frequency / Hz"	"Sound Pressure Level / dB (re 20 µPa/V)  [2.83  V @ 1. m]"	"Frequency / Hz"	"Sound Pressure Level / dB (re 20 µPa/V)  [2.83  V @ 1. m]"	"Frequency / Hz"	"Sound Pressure Level / dB (re 20 µPa/V)  [2.83  V @ 1. m]"	"Frequency / Hz"	"Sound Pressure Level / dB (re 20 µPa/V)  [2.83  V @ 1. m]"	"Frequency / Hz"	"Sound Pressure Level / dB (re 20 µPa/V)  [2.83  V @ 1. m]"	"Frequency / Hz"	"Sound Pressure Level / dB (re 20 µPa/V)  [2.83  V @ 1. m]"	"Frequency / Hz"	"Sound Pressure Level / dB (re 20 µPa/V)  [2.83  V @ 1. m]"	"Frequency / Hz"	"Sound Pressure Level / dB (re 20 µPa/V)  [2.83  V @ 1. m]"	"Frequency / Hz"	"Sound Pressure Level / dB (re 20 µPa/V)  [2.83  V @ 1. m]"	"Frequency / Hz"	"Sound Pressure Level / dB (re 20 µPa/V)  [2.83  V @ 1. m]"	"Frequency / Hz"	"Sound Pressure Level / dB (re 20 µPa/V)  [2.83  V @ 1. m]"
20.5078	61.1887	20.5078	61.1137	20.5078	61.2535	20.5078	61.028	20.5078	61.3087	20.5078	60.9312	20.5078	61.3545	20.5078	60.824	20.5078	61.3903	20.5078	60.7079	20.5078	61.4144	20.5078	60.5862	20.5078	61.4253	20.5078	60.4636	20.5078	61.4223	20.5078	60.3468	20.5078	61.4067	20.5078	60.2443	20.5078	61.382	20.5078	60.1646	20.5078	61.3532	20.5078	60.115	20.5078	61.3236	20.5078	60.1004	20.5078	61.2925	20.5078	60.1225	20.5078	61.2536	20.5078	60.1807	20.5078	61.1973	20.5078	60.2732	20.5078	61.1143	20.5078	60.3962	20.5078	61.0007	20.5078	60.543	20.5078	60.8598	20.5078	60.7023
21.9727	62.0237	21.9727	61.9647	21.9727	62.0694	21.9727	61.8943	21.9727	62.1	21.9727	61.814	21.9727	62.113	21.9727	61.7253	21.9727	62.1054	21.9727	61.6295	21.9727	62.0739	21.9727	61.5281	21.9727	62.0158	21.9727	61.4229	21.9727	61.9299	21.9727	61.3169	21.9727	61.8184	21.9727	61.2146	21.9727	61.6882	21.9727	61.1225	21.9727	61.5511	21.9727	61.0478	21.9727	61.4219	21.9727	60.9972	21.9727	61.3151	21.9727	60.9745	21.9727	61.2392	21.9727	60.9791	21.9727	61.1944	21.9727	61.0055	21.9727	61.1725	21.9727	61.0448	21.9727	61.1607	21.9727	61.0867	21.9727	61.1465	21.9727	61.1222
23.4375	64.1843	23.4375	64.1216	23.4375	64.238	23.4375	64.0508	23.4375	64.2816	23.4375	63.9726	23.4375	64.3133	23.4375	63.8877	23.4375	64.3311	23.4375	63.7962	23.4375	64.3324	23.4375	63.6984	23.4375	64.3145	23.4375	63.5949	23.4375	64.275	23.4375	63.4867	23.4375	64.2124	23.4375	63.3761	23.4375	64.127	23.4375	63.2669	23.4375	64.0213	23.4375	63.1646	23.4375	63.8998	23.4375	63.0754	23.4375	63.7687	23.4375	63.0057	23.4375	63.634	23.4375	62.9606	23.4375	63.5012	23.4375	62.9439	23.4375	63.3745	23.4375	62.9567	23.4375	63.2572	23.4375	62.998	23.4375	63.1526	23.4375	63.0647
24.9023	65.3578	24.9023	65.2665	24.9023	65.4373	24.9023	65.1652	24.9023	65.5028	24.9023	65.0557	24.9023	65.5521	24.9023	64.94	24.9023	65.5827	24.9023	64.8198	24.9023	65.5921	24.9023	64.6972	24.9023	65.578	24.9023	64.5746	24.9023	65.5392	24.9023	64.4547	24.9023	65.4756	24.9023	64.3411	24.9023	65.3891	24.9023	64.2381	24.9023	65.2833	24.9023	64.1505	24.9023	65.1633	24.9023	64.0833	24.9023	65.0343	24.9023	64.0412	24.9023	64.9009	24.9023	64.0278	24.9023	64.7662	24.9023	64.0449	24.9023	64.6325	24.9023	64.0921	24.9023	64.5019	24.9023	64.1667	24.9023	64.3775	24.9023	64.2638
26.3672	66.2785	26.3672	66.1871	26.3672	66.3617	26.3672	66.0896	26.3672	66.4343	26.3672	65.9883	26.3672	66.4942	26.3672	65.8856	26.3672	66.5392	26.3672	65.7837	26.3672	66.5673	26.3672	65.6851	26.3672	66.5766	26.3672	65.5922	26.3672	66.566	26.3672	65.5074	26.3672	66.5355	26.3672	65.4338	26.3672	66.4861	26.3672	65.3743	26.3672	66.4199	26.3672	65.3321	26.3672	66.3397	26.3672	65.3098	26.3672	66.2487	26.3672	65.3094	26.3672	66.1495	26.3672	65.3315	26.3672	66.0445	26.3672	65.3754	26.3672	65.9359	26.3672	65.4393	26.3672	65.826	26.3672	65.5201	26.3672	65.7176	26.3672	65.6143
27.832	66.8878	27.832	66.8057	27.832	66.9628	27.832	66.7188	27.832	67.0284	27.832	66.6291	27.832	67.0822	27.832	66.5387	27.832	67.1218	27.832	66.4496	27.832	67.1447	27.832	66.3636	27.832	67.1489	27.832	66.2823	27.832	67.1327	27.832	66.2074	27.832	67.0954	27.832	66.1405	27.832	67.0377	27.832	66.083	27.832	66.9615	27.832	66.0366	27.832	66.8698	27.832	66.0026	27.832	66.7667	27.832	65.9826	27.832	66.6563	27.832	65.9782	27.832	66.5429	27.832	65.9908	27.832	66.4304	27.832	66.0219	27.832	66.3232	27.832	66.072	27.832	66.2252	27.832	66.1404
29.2969	67.447	29.2969	67.37	29.2969	67.5176	29.2969	67.2888	29.2969	67.5794	29.2969	67.2055	29.2969	67.63	29.2969	67.1224	29.2969	67.667	29.2969	67.0413	29.2969	67.688	29.2969	66.964	29.2969	67.6911	29.2969	66.8922	29.2969	67.6749	29.2969	66.8273	29.2969	67.6386	29.2969	66.7703	29.2969	67.5828	29.2969	66.722	29.2969	67.5091	29.2969	66.6833	29.2969	67.4205	29.2969	66.6545	29.2969	67.3209	29.2969	66.6365	29.2969	67.2148	29.2969	66.6303	29.2969	67.1072	29.2969	66.6372	29.2969	67.0029	29.2969	66.6588	29.2969	66.9063	29.2969	66.6965	29.2969	66.8213	29.2969	66.7508
30.7617	68.8713	30.7617	68.7983	30.7617	68.9381	30.7617	68.721	30.7617	68.9969	30.7617	68.6413	30.7617	69.0457	30.7617	68.5612	30.7617	69.0829	30.7617	68.4825	30.7617	69.1069	30.7617	68.4073	30.7617	69.1165	30.7617	68.3373	30.7617	69.1108	30.7617	68.2746	30.7617	69.0894	30.7617	68.2211	30.7617	69.0526	30.7617	68.1786	30.7617	69.0011	30.7617	68.1487	30.7617	68.9365	30.7617	68.1328	30.7617	68.8608	30.7617	68.1315	30.7617	68.7766	30.7617	68.1452	30.7617	68.6869	30.7617	68.1737	30.7617	68.5952	30.7617	68.2164	30.7617	68.5048	30.7617	68.2726	30.7617	68.419	30.7617	68.3408
32.2266	69.2006	32.2266	69.1179	32.2266	69.2774	32.2266	69.0316	32.2266	69.3457	32.2266	68.9441	32.2266	69.4032	32.2266	68.8578	32.2266	69.4476	32.2266	68.7747	32.2266	69.4768	32.2266	68.6968	32.2266	69.4892	32.2266	68.626	32.2266	69.4835	32.2266	68.5638	32.2266	69.4592	32.2266	68.5113	32.2266	69.4164	32.2266	68.4693	32.2266	69.3561	32.2266	68.4386	32.2266	69.2798	32.2266	68.4195	32.2266	69.1902	32.2266	68.4127	32.2266	69.0907	32.2266	68.419	32.2266	68.9853	32.2266	68.4397	32.2266	68.8787	32.2266	68.476	32.2266	68.7756	32.2266	68.5285	32.2266	68.6805	32.2266	68.5972
33.6914	69.8553	33.6914	69.7723	33.6914	69.9313	33.6914	69.6845	33.6914	69.998	33.6914	69.5944	33.6914	70.0533	33.6914	69.5043	33.6914	70.0951	33.6914	69.4164	33.6914	70.1217	33.6914	69.3331	33.6914	70.1319	33.6914	69.2563	33.6914	70.1247	33.6914	69.1881	33.6914	70.1001	33.6914	69.1301	33.6914	70.0583	33.6914	69.0838	33.6914	70.0003	33.6914	69.0509	33.6914	69.9278	33.6914	69.0324	33.6914	69.8428	33.6914	69.0296	33.6914	69.7483	33.6914	69.0432	33.6914	69.6476	33.6914	69.0736	33.6914	69.5445	33.6914	69.1205	33.6914	69.4429	33.6914	69.1828	33.6914	69.3466	33.6914	69.2589
35.1562	70.5527	35.1562	70.4695	35.1562	70.6279	35.1562	70.3807	35.1562	70.6929	35.1562	70.2886	35.1562	70.7456	35.1562	70.1957	35.1562	70.784	35.1562	70.1042	35.1562	70.8064	35.1562	70.0164	35.1562	70.8115	35.1562	69.9345	35.1562	70.7987	35.1562	69.8606	35.1562	70.7681	35.1562	69.7968	35.1562	70.7204	35.1562	69.7449	35.1562	70.6572	35.1562	69.7067	35.1562	70.5806	35.1562	69.6839	35.1562	70.4932	35.1562	69.6777	35.1562	70.3978	35.1562	69.6893	35.1562	70.2974	35.1562	69.7189	35.1562	70.1948	35.1562	69.7663	35.1562	70.0935	35.1562	69.8299	35.1562	69.9966	35.1562	69.9077
36.6211	71.2573	36.6211	71.1832	36.6211	71.3241	36.6211	71.1038	36.6211	71.3812	36.6211	71.0215	36.6211	71.4268	36.6211	70.9385	36.6211	71.4589	36.6211	70.8568	36.6211	71.4761	36.6211	70.7785	36.6211	71.4772	36.6211	70.7056	36.6211	71.4616	36.6211	70.6397	36.6211	71.4295	36.6211	70.5825	36.6211	71.3816	36.6211	70.5352	36.6211	71.3194	36.6211	70.4991	36.6211	71.245	36.6211	70.4754	36.6211	71.1611	36.6211	70.4651	36.6211	71.0706	36.6211	70.4691	36.6211	70.9768	36.6211	70.4882	36.6211	70.883	36.6211	70.5225	36.6211	70.7926	36.6211	70.5715	36.6211	70.7087	36.6211	70.6342
38.0859	71.6639	38.0859	71.5727	38.0859	71.7441	38.0859	71.4733	38.0859	71.8108	38.0859	71.368	38.0859	71.8615	38.0859	71.2596	38.0859	71.8939	38.0859	71.1505	38.0859	71.9059	38.0859	71.0432	38.0859	71.8958	38.0859	70.9398	38.0859	71.8628	38.0859	70.8427	38.0859	71.8066	38.0859	70.7537	38.0859	71.7282	38.0859	70.6746	38.0859	71.6296	38.0859	70.6073	38.0859	71.5137	38.0859	70.5538	38.0859	71.3847	38.0859	70.5161	38.0859	71.2477	38.0859	70.4969	38.0859	71.1083	38.0859	70.4984	38.0859	70.9724	38.0859	70.5225	38.0859	70.846	38.0859	70.5702	38.0859	70.7343	38.0859	70.6414
39.5508	72.4841	39.5508	72.3999	39.5508	72.5613	39.5508	72.3109	39.5508	72.6291	39.5508	72.2196	39.5508	72.6853	39.5508	72.1282	39.5508	72.7276	39.5508	72.0391	39.5508	72.7544	39.5508	71.9541	39.5508	72.7643	39.5508	71.8754	39.5508	72.7561	39.5508	71.8046	39.5508	72.7296	39.5508	71.7432	39.5508	72.6845	39.5508	71.6925	39.5508	72.6214	39.5508	71.6538	39.5508	72.5415	39.5508	71.6282	39.5508	72.4467	39.5508	71.6168	39.5508	72.3404	39.5508	71.6209	39.5508	72.227	39.5508	71.6416	39.5508	72.1118	39.5508	71.6798	39.5508	72.0005	39.5508	71.7357	39.5508	71.8982	39.5508	71.809
41.0156	72.7369	41.0156	72.6463	41.0156	72.8214	41.0156	72.5523	41.0156	72.8972	41.0156	72.4573	41.0156	72.9617	41.0156	72.3638	41.0156	73.0127	41.0156	72.2743	41.0156	73.0481	41.0156	72.1909	41.0156	73.0664	41.0156	72.1155	41.0156	73.0664	41.0156	72.0501	41.0156	73.0476	41.0156	71.9961	41.0156	73.01	41.0156	71.9549	41.0156	72.9542	41.0156	71.9279	41.0156	72.8817	41.0156	71.9159	41.0156	72.7945	41.0156	71.9198	41.0156	72.6958	41.0156	71.9399	41.0156	72.5893	41.0156	71.9762	41.0156	72.4796	41.0156	72.0283	41.0156	72.3714	41.0156	72.0953	41.0156	72.2691	41.0156	72.1761
42.4805	73.4949	42.4805	73.4187	42.4805	73.567	42.4805	73.3409	42.4805	73.6329	42.4805	73.2639	42.4805	73.6904	42.4805	73.1903	42.4805	73.7378	42.4805	73.1223	42.4805	73.7736	42.4805	73.0623	42.4805	73.7967	42.4805	73.0121	42.4805	73.8067	42.4805	72.9736	42.4805	73.8035	42.4805	72.9479	42.4805	73.7873	42.4805	72.9359	42.4805	73.759	42.4805	72.9377	42.4805	73.7195	42.4805	72.9531	42.4805	73.67	42.4805	72.9812	42.4805	73.6122	42.4805	73.0208	42.4805	73.5477	42.4805	73.0704	42.4805	73.4784	42.4805	73.1282	42.4805	73.4064	42.4805	73.1926	42.4805	73.3335	42.4805	73.2616
43.9453	74.0265	43.9453	73.9567	43.9453	74.0892	43.9453	73.8824	43.9453	74.1427	43.9453	73.806	43.9453	74.1848	43.9453	73.7301	43.9453	74.214	43.9453	73.6571	43.9453	74.229	43.9453	73.5893	43.9453	74.2292	43.9453	73.5287	43.9453	74.2145	43.9453	73.477	43.9453	74.1856	43.9453	73.4354	43.9453	74.1435	43.9453	73.4047	43.9453	74.0899	43.9453	73.3851	43.9453	74.0269	43.9453	73.3767	43.9453	73.9568	43.9453	73.3791	43.9453	73.8823	43.9453	73.3915	43.9453	73.806	43.9453	73.4137	43.9453	73.7309	43.9453	73.4453	43.9453	73.6594	43.9453	73.4861	43.9453	73.5939	43.9453	73.5357
45.4102	74.4945	45.4102	74.4136	45.4102	74.5668	45.4102	74.3267	45.4102	74.6281	45.4102	74.2364	45.4102	74.6764	45.4102	74.1452	45.4102	74.7099	45.4102	74.056	45.4102	74.7271	45.4102	73.9713	45.4102	74.7271	45.4102	73.8934	45.4102	74.7096	45.4102	73.8244	45.4102	74.6749	45.4102	73.7658	45.4102	74.6238	45.4102	73.7188	45.4102	74.5577	45.4102	73.6841	45.4102	74.4788	45.4102	73.6624	45.4102	74.3895	45.4102	73.6541	45.4102	74.2929	45.4102	73.6599	45.4102	74.1926	45.4102	73.6802	45.4102	74.0924	45.4102	73.7155	45.4102	73.9963	45.4102	73.7658	45.4102	73.908	45.4102	73.8304
46.875	74.9748	46.875	74.89	46.875	75.0518	46.875	74.8	46.875	75.1185	46.875	74.7072	46.875	75.1725	46.875	74.6142	46.875	75.2117	46.875	74.5233	46.875	75.2341	46.875	74.4368	46.875	75.2383	46.875	74.3569	46.875	75.2235	46.875	74.2855	46.875	75.1894	46.875	74.2242	46.875	75.1366	46.875	74.1744	46.875	75.0666	46.875	74.1373	46.875	74.9817	46.875	74.1139	46.875	74.8852	46.875	74.1053	46.875	74.7811	46.875	74.112	46.875	74.6739	46.875	74.1346	46.875	74.5679	46.875	74.173	46.875	74.4672	46.875	74.2265	46.875	74.3752	46.875	74.2943
48.3398	75.3705	48.3398	75.2874	48.3398	75.4492	48.3398	75.2026	48.3398	75.5208	48.3398	75.119	48.3398	75.5829	48.3398	75.0393	48.3398	75.6335	48.3398	74.966	48.3398	75.6708	48.3398	74.9014	48.3398	75.6938	48.3398	74.8473	48.3398	75.7016	48.3398	74.8049	48.3398	75.6943	48.3398	74.7752	48.3398	75.672	48.3398	74.7584	48.3398	75.6354	48.3398	74.7547	48.3398	75.5858	48.3398	74.764	48.3398	75.5249	48.3398	74.7859	48.3398	75.4546	48.3398	74.82	48.3398	75.3777	48.3398	74.8653	48.3398	75.2968	48.3398	74.9209	48.3398	75.2147	48.3398	74.9852	48.3398	75.1339	48.3398	75.0568
51.2695	76.5523	51.2695	76.4899	51.2695	76.6063	51.2695	76.4214	51.2695	76.6497	51.2695	76.3491	51.2695	76.6807	51.2695	76.2755	51.2695	76.6977	51.2695	76.2028	51.2695	76.6997	51.2695	76.1332	51.2695	76.6862	51.2695	76.0685	51.2695	76.6577	51.2695	76.0105	51.2695	76.6152	51.2695	75.9607	51.2695	76.5605	51.2695	75.9202	51.2695	76.4961	51.2695	75.8898	51.2695	76.4247	51.2695	75.87	51.2695	76.3492	51.2695	75.8606	51.2695	76.2727	51.2695	75.8616	51.2695	76.198	51.2695	75.8724	51.2695	76.1277	51.2695	75.8926	51.2695	76.0638	51.2695	75.922	51.2695	76.0078	51.2695	75.9604
52.7344	77.0094	52.7344	76.9445	52.7344	77.0647	52.7344	76.8726	52.7344	77.1079	52.7344	76.7965	52.7344	77.1369	52.7344	76.719	52.7344	77.1501	52.7344	76.6428	52.7344	77.1465	52.7344	76.5706	52.7344	77.1261	52.7344	76.5047	52.7344	77.0896	52.7344	76.4471	52.7344	77.0389	52.7344	76.3993	52.7344	76.9767	52.7344	76.3624	52.7344	76.9065	52.7344	76.3369	52.7344	76.832	52.7344	76.3226	52.7344	76.7571	52.7344	76.3191	52.7344	76.6849	52.7344	76.3251	52.7344	76.618	52.7344	76.3394	52.7344	76.5578	52.7344	76.3606	52.7344	76.5051	52.7344	76.3878	52.7344	76.4596	52.7344	76.4207
54.1992	77.4068	54.1992	77.307	54.1992	77.4916	54.1992	77.1957	54.1992	77.558	54.1992	77.0766	54.1992	77.6033	54.1992	76.9535	54.1992	77.6251	54.1992	76.8305	54.1992	77.6218	54.1992	76.7113	54.1992	77.5925	54.1992	76.5996	54.1992	77.5379	54.1992	76.499	54.1992	77.4595	54.1992	76.4122	54.1992	77.3605	54.1992	76.3415	54.1992	77.2454	54.1992	76.2884	54.1992	77.1198	54.1992	76.2532	54.1992	76.9898	54.1992	76.2358	54.1992	76.8614	54.1992	76.235	54.1992	76.7398	54.1992	76.2497	54.1992	76.6289	54.1992	76.2787	54.1992	76.531	54.1992	76.3213	54.1992	76.4471	54.1992	76.3774
55.6641	77.653	55.6641	77.5594	55.6641	77.735	55.6641	77.4574	55.6641	77.8027	55.6641	77.35	55.6641	77.8538	55.6641	77.2407	55.6641	77.886	55.6641	77.1325	55.6641	77.898	55.6641	77.0288	55.6641	77.8887	55.6641	76.9324	55.6641	77.8579	55.6641	76.8461	55.6641	77.8064	55.6641	76.772	55.6641	77.7357	55.6641	76.7121	55.6641	77.6482	55.6641	76.6677	55.6641	77.5474	55.6641	76.6398	55.6641	77.4373	55.6641	76.6289	55.6641	77.3226	55.6641	76.635	55.6641	77.2078	55.6641	76.6578	55.6641	77.0972	55.6641	76.6968	55.6641	76.994	55.6641	76.751	55.6641	76.9008	55.6641	76.8194
58.5938	78.4408	58.5938	78.3433	58.5938	78.5281	58.5938	78.2384	58.5938	78.6027	58.5938	78.1287	58.5938	78.6623	58.5938	78.017	58.5938	78.7048	58.5938	77.9062	58.5938	78.7285	58.5938	77.7988	58.5938	78.732	58.5938	77.6977	58.5938	78.7144	58.5938	77.6055	58.5938	78.6754	58.5938	77.5247	58.5938	78.6155	58.5938	77.4575	58.5938	78.5359	58.5938	77.4063	58.5938	78.4386	58.5938	77.3731	58.5938	78.3266	58.5938	77.3593	58.5938	78.2039	58.5938	77.3661	58.5938	78.0752	58.5938	77.3941	58.5938	77.9454	58.5938	77.443	58.5938	77.8198	58.5938	77.512	58.5938	77.7032	58.5938	77.5995
60.0586	78.8238	60.0586	78.7343	60.0586	78.905	60.0586	78.6394	60.0586	78.9754	60.0586	78.5421	60.0586	79.0324	60.0586	78.4455	60.0586	79.0743	60.0586	78.3526	60.0586	79.0996	60.0586	78.2663	60.0586	79.1073	60.0586	78.1893	60.0586	79.0973	60.0586	78.1238	60.0586	79.0698	60.0586	78.0719	60.0586	79.0259	60.0586	78.0349	60.0586	78.9673	60.0586	78.0137	60.0586	78.8962	60.0586	78.0085	60.0586	78.815	60.0586	78.0192	60.0586	78.7265	60.0586	78.045	60.0586	78.6336	60.0586	78.0849	60.0586	78.5394	60.0586	78.1375	60.0586	78.4466	60.0586	78.2016	60.0586	78.3579	60.0586	78.2756
62.9883	79.4725	62.9883	79.3914	62.9883	79.5442	62.9883	79.3038	62.9883	79.6038	62.9883	79.2126	62.9883	79.6493	62.9883	79.1212	62.9883	79.6788	62.9883	79.0325	62.9883	79.6913	62.9883	78.9497	62.9883	79.6862	62.9883	78.8754	62.9883	79.6637	62.9883	78.812	62.9883	79.6249	62.9883	78.7613	62.9883	79.5716	62.9883	78.7245	62.9883	79.5061	62.9883	78.7022	62.9883	79.4314	62.9883	78.6944	62.9883	79.3508	62.9883	78.7003	62.9883	79.2673	62.9883	78.7189	62.9883	79.184	62.9883	78.7488	62.9883	79.1033	62.9883	78.7885	62.9883	79.0272	62.9883	78.837	62.9883	78.9569	62.9883	78.8933
64.4531	79.7838	64.4531	79.6975	64.4531	79.8611	64.4531	79.6051	64.4531	79.9266	64.4531	79.5098	64.4531	79.978	64.4531	79.4152	64.4531	80.0133	64.4531	79.3243	64.4531	80.0313	64.4531	79.2404	64.4531	80.0313	64.4531	79.1662	64.4531	80.0133	64.4531	79.1042	64.4531	79.9782	64.4531	79.0562	64.4531	79.9277	64.4531	79.0233	64.4531	79.8641	64.4531	79.0059	64.4531	79.7903	64.4531	79.0037	64.4531	79.7096	64.4531	79.0159	64.4531	79.6254	64.4531	79.0409	64.4531	79.5407	64.4531	79.0773	64.4531	79.4581	64.4531	79.1231	64.4531	79.3795	64.4531	79.1772	64.4531	79.306	64.4531	79.2384
67.3828	80.4447	67.3828	80.3548	67.3828	80.5254	67.3828	80.2591	67.3828	80.5942	67.3828	80.1609	67.3828	80.6487	67.3828	80.0638	67.3828	80.6867	67.3828	79.9711	67.3828	80.7071	67.3828	79.8864	67.3828	80.7091	67.3828	79.8125	67.3828	80.693	67.3828	79.752	67.3828	80.6597	67.3828	79.707	67.3828	80.6111	67.3828	79.6785	67.3828	80.5498	67.3828	79.667	67.3828	80.4787	67.3828	79.6718	67.3828	80.4014	67.3828	79.6916	67.3828	80.3209	67.3828	79.7245	67.3828	80.24	67.3828	79.7682	67.3828	80.1608	67.3828	79.8204	67.3828	80.0845	67.3828	79.8793	67.3828	80.012	67.3828	79.9434
68.8477	80.7471	68.8477	80.6565	68.8477	80.8285	68.8477	80.5598	68.8477	80.8978	68.8477	80.4608	68.8477	80.9525	68.8477	80.3629	68.8477	80.9908	68.8477	80.27	68.8477	81.0116	68.8477	80.1853	68.8477	81.0142	68.8477	80.1122	68.8477	80.9991	68.8477	80.053	68.8477	80.9673	68.8477	80.0099	68.8477	80.9207	68.8477	79.9838	68.8477	80.8618	68.8477	79.975	68.8477	80.7935	68.8477	79.9828	68.8477	80.7191	68.8477	80.0057	68.8477	80.6414	68.8477	80.0417	68.8477	80.5629	68.8477	80.0883	68.8477	80.4856	68.8477	80.1431	68.8477	80.4106	68.8477	80.2039	68.8477	80.3384	68.8477	80.2694
71.7773	81.4258	71.7773	81.3315	71.7773	81.5095	71.7773	81.2296	71.7773	81.5796	71.7773	81.124	71.7773	81.6338	71.7773	81.0185	71.7773	81.6705	71.7773	80.9172	71.7773	81.6888	71.7773	80.8239	71.7773	81.6882	71.7773	80.7423	71.7773	81.6693	71.7773	80.6756	71.7773	81.6332	71.7773	80.6259	71.7773	81.582	71.7773	80.5949	71.7773	81.5181	71.7773	80.5828	71.7773	81.4447	71.7773	80.5889	71.7773	81.365	71.7773	80.6114	71.7773	81.2821	71.7773	80.6481	71.7773	81.1986	71.7773	80.6964	71.7773	81.1163	71.7773	80.7536	71.7773	81.0365	71.7773	80.8176	71.7773	80.9599	71.7773	80.8867
74.707	82.0289	74.707	81.9306	74.707	82.1159	74.707	81.8245	74.707	82.1887	74.707	81.7145	74.707	82.2448	74.707	81.6048	74.707	82.2826	74.707	81.4996	74.707	82.301	74.707	81.403	74.707	82.2999	74.707	81.319	74.707	82.2799	74.707	81.2508	74.707	82.2426	74.707	81.201	74.707	82.1904	74.707	81.171	74.707	82.1262	74.707	81.1612	74.707	82.0533	74.707	81.1709	74.707	81.9749	74.707	81.198	74.707	81.8938	74.707	81.24	74.707	81.8121	74.707	81.2938	74.707	81.7313	74.707	81.3565	74.707	81.6518	74.707	81.4254	74.707	81.5741	74.707	81.4984
77.6367	82.4959	77.6367	82.3966	77.6367	82.583	77.6367	82.2886	77.6367	82.6547	77.6367	82.176	77.6367	82.7087	77.6367	82.0633	77.6367	82.7434	77.6367	81.9549	77.6367	82.7579	77.6367	81.8552	77.6367	82.7524	77.6367	81.7686	77.6367	82.7279	77.6367	81.6984	77.6367	82.6866	77.6367	81.6473	77.6367	82.6312	77.6367	81.6171	77.6367	82.5652	77.6367	81.6079	77.6367	82.4921	77.6367	81.6189	77.6367	82.4152	77.6367	81.6481	77.6367	82.337	77.6367	81.6925	77.6367	82.2591	77.6367	81.7486	77.6367	82.1822	77.6367	81.8132	77.6367	82.1062	77.6367	81.8833	77.6367	82.0309	77.6367	81.9563
79.1016	82.76	79.1016	82.663	79.1016	82.8438	79.1016	82.5565	79.1016	82.9114	79.1016	82.4445	79.1016	82.9605	79.1016	82.3315	79.1016	82.9894	79.1016	82.2223	79.1016	82.9976	79.1016	82.1212	79.1016	82.9855	79.1016	82.0327	79.1016	82.9544	79.1016	81.9604	79.1016	82.9066	79.1016	81.9072	79.1016	82.8454	79.1016	81.8747	79.1016	82.7745	79.1016	81.8631	79.1016	82.6978	79.1016	81.8715	79.1016	82.619	79.1016	81.8975	79.1016	82.5407	79.1016	81.9382	79.1016	82.4645	79.1016	81.9899	79.1016	82.3909	79.1016	82.0494	79.1016	82.3195	79.1016	82.1138	79.1016	82.2496	79.1016	82.181
82.0312	83.2528	82.0312	83.1583	82.0312	83.3337	82.0312	83.0539	82.0312	83.3978	82.0312	82.9436	82.0312	83.4428	82.0312	82.8321	82.0312	83.4671	82.0312	82.7241	82.0312	83.47	82.0312	82.6243	82.0312	83.452	82.0312	82.537	82.0312	83.4143	82.0312	82.466	82.0312	83.3596	82.0312	82.414	82.0312	83.2913	82.0312	82.3825	82.0312	83.2138	82.0312	82.3716	82.0312	83.1318	82.0312	82.3797	82.0312	83.0495	82.0312	82.4042	82.0312	82.9706	82.0312	82.4415	82.0312	82.8972	82.0312	82.488	82.0312	82.8298	82.0312	82.54	82.0312	82.7673	82.0312	82.5949	82.0312	82.7083	82.0312	82.6511
84.9609	83.5321	84.9609	83.4403	84.9609	83.6112	84.9609	83.3394	84.9609	83.6745	84.9609	83.2338	84.9609	83.7195	84.9609	83.1282	84.9609	83.7449	84.9609	83.0272	84.9609	83.7502	84.9609	82.9355	84.9609	83.7361	84.9609	82.8574	84.9609	83.7047	84.9609	82.7964	84.9609	83.6587	84.9609	82.7553	84.9609	83.6019	84.9609	82.7354	84.9609	83.5386	84.9609	82.7364	84.9609	83.4729	84.9609	82.7567	84.9609	83.408	84.9609	82.7932	84.9609	83.3463	84.9609	82.8419	84.9609	83.2885	84.9609	82.8982	84.9609	83.2341	84.9609	82.9577	84.9609	83.1816	84.9609	83.0172	84.9609	83.129	84.9609	83.0745
87.8906	84.0317	87.8906	83.945	87.8906	84.1024	87.8906	83.8465	87.8906	84.1539	87.8906	83.7412	87.8906	84.1836	87.8906	83.6343	87.8906	84.1904	87.8906	83.5314	87.8906	84.1742	87.8906	83.4379	87.8906	84.1367	87.8906	83.3587	87.8906	84.0809	87.8906	83.2979	87.8906	84.0114	87.8906	83.2582	87.8906	83.934	87.8906	83.2407	87.8906	83.855	87.8906	83.2444	87.8906	83.7805	87.8906	83.2664	87.8906	83.7152	87.8906	83.3023	87.8906	83.6618	87.8906	83.3466	87.8906	83.6205	87.8906	83.3937	87.8906	83.5889	87.8906	83.4387	87.8906	83.5632	87.8906	83.4784	87.8906	83.5387	87.8906	83.5114
90.8203	84.4301	90.8203	84.3274	90.8203	84.5155	90.8203	84.2121	90.8203	84.5799	90.8203	84.0895	90.8203	84.6207	90.8203	83.9653	90.8203	84.6361	90.8203	83.8458	90.8203	84.6261	90.8203	83.7369	90.8203	84.5919	90.8203	83.6442	90.8203	84.5364	90.8203	83.5724	90.8203	84.4642	90.8203	83.5246	90.8203	84.3812	90.8203	83.5022	90.8203	84.294	90.8203	83.5044	90.8203	84.2091	90.8203	83.5283	90.8203	84.1317	90.8203	83.5692	90.8203	84.0648	90.8203	83.6213	90.8203	84.0091	90.8203	83.6786	90.8203	83.9624	90.8203	83.736	90.8203	83.921	90.8203	83.7896	90.8203	83.8808	90.8203	83.8377
95.2148	85.0284	95.2148	84.9276	95.2148	85.1092	95.2148	84.811	95.2148	85.1668	95.2148	84.6834	95.2148	85.1987	95.2148	84.5504	95.2148	85.2038	95.2148	84.418	95.2148	85.1817	95.2148	84.2923	95.2148	85.1337	95.2148	84.1791	95.2148	85.0624	95.2148	84.0836	95.2148	84.9722	95.2148	84.0096	95.2148	84.8688	95.2148	83.9593	95.2148	84.7592	95.2148	83.9331	95.2148	84.6505	95.2148	83.9294	95.2148	84.5489	95.2148	83.9449	95.2148	84.4587	95.2148	83.9754	95.2148	84.3817	95.2148	84.0161	95.2148	84.3166	95.2148	84.0627	95.2148	84.2606	95.2148	84.1116	95.2148	84.2097	95.2148	84.1606
98.1445	85.2937	98.1445	85.1909	98.1445	85.3768	98.1445	85.0729	98.1445	85.4369	98.1445	84.9448	98.1445	85.4713	98.1445	84.8122	98.1445	85.4787	98.1445	84.6813	98.1445	85.459	98.1445	84.5582	98.1445	85.4134	98.1445	84.4489	98.1445	85.3448	98.1445	84.3583	98.1445	85.2575	98.1445	84.2901	98.1445	85.1575	98.1445	84.2465	98.1445	85.0516	98.1445	84.2272	98.1445	84.9472	98.1445	84.2306	98.1445	84.8503	98.1445	84.253	98.1445	84.7653	98.1445	84.2897	98.1445	84.6934	98.1445	84.3357	98.1445	84.6334	98.1445	84.3862	98.1445	84.5816	98.1445	84.4371	98.1445	84.5338	98.1445	84.4864
101.074	85.4726	101.074	85.363	101.074	85.563	101.074	85.239	101.074	85.6304	101.074	85.1059	101.074	85.6721	101.074	84.9698	101.074	85.6862	101.074	84.8371	101.074	85.6723	101.074	84.7143	101.074	85.6314	101.074	84.6071	101.074	85.5661	101.074	84.5208	101.074	85.4807	101.074	84.4586	101.074	85.3812	101.074	84.4222	101.074	85.2747	101.074	84.4111	101.074	85.1688	101.074	84.4227	101.074	85.0703	101.074	84.453	101.074	84.9839	101.074	84.4967	101.074	84.9114	101.074	84.5484	101.074	84.8515	101.074	84.6029	101.074	84.8004	101.074	84.6562	101.074	84.7535	101.074	84.7063
105.469	85.833	105.469	85.7118	105.469	85.931	105.469	85.5727	105.469	86.0017	105.469	85.4218	105.469	86.0422	105.469	85.266	105.469	86.0508	105.469	85.1129	105.469	86.0275	105.469	84.9698	105.469	85.9739	105.469	84.8438	105.469	85.8935	105.469	84.7408	105.469	85.7917	105.469	84.6648	105.469	85.6756	105.469	84.6179	105.469	85.5532	105.469	84.5997	105.469	85.4328	105.469	84.6073	105.469	85.3214	105.469	84.6363	105.469	85.2238	105.469	84.6808	105.469	85.1414	105.469	84.7349	105.469	85.0726	105.469	84.7929	105.469	85.0136	105.469	84.8507	105.469	84.9596	105.469	84.9062
108.398	86.1735	108.398	86.0593	108.398	86.2647	108.398	85.927	108.398	86.3294	108.398	85.7822	108.398	86.3648	108.398	85.6317	108.398	86.3696	108.398	85.4824	108.398	86.3439	108.398	85.3419	108.398	86.2894	108.398	85.2171	108.398	86.2095	108.398	85.1144	108.398	86.1096	108.398	85.0383	108.398	85.9965	108.398	84.9914	108.398	85.8783	108.398	84.9737	108.398	85.763	108.398	84.9824	108.398	85.6577	108.398	85.0128	108.398	85.567	108.398	85.0587	108.398	85.4919	108.398	85.1135	108.398	85.4305	108.398	85.1713	108.398	85.3781	108.398	85.2276	108.398	85.3295	108.398	85.2803
112.793	86.5566	112.793	86.4415	112.793	86.6461	112.793	86.3057	112.793	86.706	112.793	86.1557	112.793	86.7341	112.793	85.999	112.793	86.7295	112.793	85.8441	112.793	86.6931	112.793	85.6999	112.793	86.6275	112.793	85.575	112.793	86.5373	112.793	85.4767	112.793	86.4292	112.793	85.4102	112.793	86.3115	112.793	85.3777	112.793	86.1935	112.793	85.3781	112.793	86.0844	112.793	85.4068	112.793	85.9915	112.793	85.4567	112.793	85.9189	112.793	85.5192	112.793	85.8663	112.793	85.5855	112.793	85.8297	112.793	85.648	112.793	85.8021	112.793	85.7014	112.793	85.7756	112.793	85.7435
117.188	86.7738	117.188	86.6526	117.188	86.8689	117.188	86.5106	117.188	86.9337	117.188	86.3542	117.188	86.9653	117.188	86.1903	117.188	86.9621	117.188	86.0271	117.188	86.924	117.188	85.8726	117.188	86.8529	117.188	85.7354	117.188	86.7529	117.188	85.6231	117.188	86.6301	117.188	85.5416	117.188	86.4931	117.188	85.4943	117.188	86.3518	117.188	85.4811	117.188	86.2169	117.188	85.498	117.188	86.0979	117.188	85.5379	117.188	86.0012	117.188	85.5917	117.188	85.929	117.188	85.6498	117.188	85.8785	117.188	85.7043	117.188	85.8434	117.188	85.7502	117.188	85.8154	117.188	85.7863
120.117	86.9958	120.117	86.8671	120.117	87.0967	120.117	86.7162	120.117	87.1654	120.117	86.5497	120.117	87.1989	120.117	86.3752	120.117	87.1959	120.117	86.2009	120.117	87.1565	120.117	86.0353	120.117	87.0829	120.117	85.8867	120.117	86.9794	120.117	85.7627	120.117	86.8523	120.117	85.6694	120.117	86.7101	120.117	85.6103	120.117	86.5627	120.117	85.5861	120.117	86.4205	120.117	85.594	120.117	86.2925	120.117	85.6279	120.117	86.185	120.117	85.6795	120.117	86.1003	120.117	85.7396	120.117	86.0362	120.117	85.8	120.117	85.987	120.117	85.8551	120.117	85.945	120.117	85.9028
124.512	87.3671	124.512	87.2442	124.512	87.462	124.512	87.0984	124.512	87.525	124.512	86.9363	124.512	87.5532	124.512	86.7651	124.512	87.5455	124.512	86.593	124.512	87.5021	124.512	86.4287	124.512	87.4251	124.512	86.2805	124.512	87.3184	124.512	86.156	124.512	87.1883	124.512	86.061	124.512	87.043	124.512	85.999	124.512	86.8922	124.512	85.9702	124.512	86.7464	124.512	85.9718	124.512	86.6152	124.512	85.9981	124.512	86.5055	124.512	86.0414	124.512	86.4201	124.512	86.0933	124.512	86.3572	124.512	86.1462	124.512	86.3109	124.512	86.1945	124.512	86.2732	124.512	86.2362
128.906	87.4694	128.906	87.3508	128.906	87.5601	128.906	87.2091	128.906	87.6192	128.906	87.0508	128.906	87.6444	128.906	86.8832	128.906	87.6351	128.906	86.7145	128.906	87.5919	128.906	86.5533	128.906	87.5173	128.906	86.408	128.906	87.4154	128.906	86.2858	128.906	87.2921	128.906	86.1922	128.906	87.1549	128.906	86.1302	128.906	87.0125	128.906	86.0998	128.906	86.8737	128.906	86.098	128.906	86.747	128.906	86.1195	128.906	86.6383	128.906	86.1574	128.906	86.5503	128.906	86.2041	128.906	86.482	128.906	86.2532	128.906	86.4289	128.906	86.3001	128.906	86.3848	128.906	86.3434
133.301	87.4324	133.301	87.3154	133.301	87.5241	133.301	87.1789	133.301	87.5863	133.301	87.0297	133.301	87.6162	133.301	86.8754	133.301	87.6126	133.301	86.7242	133.301	87.5765	133.301	86.5845	133.301	87.5109	133.301	86.4642	133.301	87.4209	133.301	86.3698	133.301	87.3139	133.301	86.3059	133.301	87.1984	133.301	86.2745	133.301	87.084	133.301	86.2744	133.301	86.9791	133.301	86.3016	133.301	86.8903	133.301	86.3496	133.301	86.8207	133.301	86.4104	133.301	86.7696	133.301	86.476	133.301	86.7326	133.301	86.5389	133.301	86.7031	133.301	86.5941	133.301	86.6739	133.301	86.6388
139.16	87.5431	139.16	87.4006	139.16	87.6546	139.16	87.2348	139.16	87.7297	139.16	87.0552	139.16	87.7654	139.16	86.8732	139.16	87.7608	139.16	86.701	139.16	87.7178	139.16	86.5509	139.16	87.6409	139.16	86.4336	139.16	87.5376	139.16	86.3575	139.16	87.4181	139.16	86.3268	139.16	87.2945	139.16	86.3411	139.16	87.18	139.16	86.3953	139.16	87.0862	139.16	86.4804	139.16	87.0208	139.16	86.5844	139.16	86.9858	139.16	86.6945	139.16	86.9769	139.16	86.7982	139.16	86.9847	139.16	86.8855	139.16	86.9968	139.16	86.9494	139.16	87.001	139.16	86.9872
143.555	87.6682	143.555	87.5095	143.555	87.7895	143.555	87.3203	143.555	87.8686	143.555	87.1105	143.555	87.9032	143.555	86.892	143.555	87.8934	143.555	86.6791	143.555	87.8414	143.555	86.4873	143.555	87.7523	143.555	86.3318	143.555	87.6339	143.555	86.2249	143.555	87.4969	143.555	86.1745	143.555	87.3545	143.555	86.1814	143.555	87.2204	143.555	86.2396	143.555	87.1074	143.555	86.337	143.555	87.0243	143.555	86.4581	143.555	86.9738	143.555	86.5863	143.555	86.952	143.555	86.7066	143.555	86.9495	143.555	86.8077	143.555	86.9533	143.555	86.8826	143.555	86.9503	143.555	86.9292
147.949	87.8456	147.949	87.7101	147.949	87.9389	147.949	87.5379	147.949	87.9865	147.949	87.3367	147.949	87.9867	147.949	87.1163	147.949	87.9397	147.949	86.8889	147.949	87.8486	147.949	86.6688	147.949	87.7193	147.949	86.4715	147.949	87.5612	147.949	86.3119	147.949	87.3871	147.949	86.2019	147.949	87.2124	147.949	86.1481	147.949	87.053	147.949	86.1497	147.949	86.9223	147.949	86.1989	147.949	86.8282	147.949	86.2823	147.949	86.771	147.949	86.3835	147.949	86.7443	147.949	86.4867	147.949	86.7364	147.949	86.5786	147.949	86.7341	147.949	86.6507	147.949	86.7249	147.949	86.6991
153.809	87.7687	153.809	87.6196	153.809	87.8768	153.809	87.4363	153.809	87.9383	153.809	87.228	153.809	87.9498	153.809	87.0052	153.809	87.9099	153.809	86.7805	153.809	87.8198	153.809	86.5683	153.809	87.6842	153.809	86.3838	153.809	87.512	153.809	86.2416	153.809	87.3171	153.809	86.1532	153.809	87.1179	153.809	86.1245	153.809	86.9359	153.809	86.1535	153.809	86.7916	153.809	86.2303	153.809	86.6988	153.809	86.3388	153.809	86.6602	153.809	86.4604	153.809	86.6667	153.809	86.5767	153.809	86.7003	153.809	86.6729	153.809	86.7404	153.809	86.7389	153.809	86.7682	153.809	86.7702
159.668	88.0939	159.668	87.9241	159.668	88.2186	159.668	87.7169	159.668	88.2929	159.668	87.4818	159.668	88.3135	159.668	87.2308	159.668	88.279	159.668	86.9778	159.668	88.1904	159.668	86.738	159.668	88.0515	159.668	86.5269	159.668	87.8697	159.668	86.359	159.668	87.6568	159.668	86.2456	159.668	87.4294	159.668	86.1929	159.668	87.2082	159.668	86.2003	159.668	87.0152	159.668	86.2599	159.668	86.8687	159.668	86.3571	159.668	86.7784	159.668	86.4731	159.668	86.7416	159.668	86.5883	159.668	86.7446	159.668	86.6855	159.668	86.7666	159.668	86.7527	159.668	86.7861	159.668	86.7852
165.527	88.2625	165.527	88.0938	165.527	88.3864	165.527	87.8871	165.527	88.4606	165.527	87.6518	165.527	88.4821	165.527	87.3998	165.527	88.45	165.527	87.1458	165.527	88.3655	165.527	86.9065	165.527	88.2329	165.527	86.6997	165.527	88.0604	165.527	86.5413	165.527	87.8602	165.527	86.4431	165.527	87.6491	165.527	86.4104	165.527	87.4474	165.527	86.4401	165.527	87.2754	165.527	86.5213	165.527	87.1494	165.527	86.6376	165.527	87.0771	165.527	86.7693	165.527	87.0544	165.527	86.8967	165.527	87.067	165.527	87.0032	165.527	87.0946	165.527	87.0771	165.527	87.1159	165.527	87.1137
171.387	88.2006	171.387	88.0185	171.387	88.3339	171.387	87.7944	171.387	88.4133	171.387	87.5378	171.387	88.4355	171.387	87.2607	171.387	88.3994	171.387	86.9788	171.387	88.3061	171.387	86.7104	171.387	88.1596	171.387	86.4764	171.387	87.9684	171.387	86.2972	171.387	87.7461	171.387	86.1891	171.387	87.5122	171.387	86.1602	171.387	87.2905	171.387	86.2079	171.387	87.1058	171.387	86.3183	171.387	86.9777	171.387	86.4693	171.387	86.9142	171.387	86.6354	171.387	86.9089	171.387	86.7916	171.387	86.9431	171.387	86.918	171.387	86.9917	171.387	87.0014	171.387	87.0298	171.387	87.0373
177.246	88.2008	177.246	88.0294	177.246	88.3214	177.246	87.8129	177.246	88.387	177.246	87.5593	177.246	88.395	177.246	87.279	177.246	88.3444	177.246	86.9862	177.246	88.2365	177.246	86.6984	177.246	88.0752	177.246	86.4368	177.246	87.8689	177.246	86.2236	177.246	87.6311	177.246	86.0784	177.246	87.3813	177.246	86.0137	177.246	87.1441	177.246	86.0307	177.246	86.9453	177.246	86.1184	177.246	86.8055	177.246	86.2557	177.246	86.7338	177.246	86.4161	177.246	86.7235	177.246	86.573	177.246	86.7547	177.246	86.7041	177.246	86.8007	177.246	86.7943	177.246	86.835	177.246	86.837
183.105	88.2072	183.105	88.0421	183.105	88.3191	183.105	87.8296	183.105	88.3735	183.105	87.578	183.105	88.3681	183.105	87.2984	183.105	88.3023	183.105	87.0054	183.105	88.1777	183.105	86.7174	183.105	87.9996	183.105	86.4562	183.105	87.7775	183.105	86.2446	183.105	87.5271	183.105	86.1027	183.105	87.2704	183.105	86.043	183.105	87.0342	183.105	86.0663	183.105	86.8456	183.105	86.1606	183.105	86.725	183.105	86.3035	183.105	86.6782	183.105	86.4675	183.105	86.6946	183.105	86.6257	183.105	86.7504	183.105	86.7556	183.105	86.8165	183.105	86.842	183.105	86.8657	183.105	86.878
188.965	88.2487	188.965	88.0591	188.965	88.3808	188.965	87.8191	188.965	88.4496	188.965	87.5373	188.965	88.4504	188.965	87.2253	188.965	88.3796	188.965	86.8984	188.965	88.2364	188.965	86.5763	188.965	88.0236	188.965	86.2835	188.965	87.7502	188.965	86.0468	188.965	87.434	188.965	85.891	188.965	87.1033	188.965	85.8319	188.965	86.7957	188.965	85.8709	188.965	86.5518	188.965	85.9923	188.965	86.4032	188.965	86.1675	188.965	86.3605	188.965	86.3617	188.965	86.4081	188.965	86.5415	188.965	86.5117	188.965	86.6802	188.965	86.63	188.965	86.7605	188.965	86.7265	188.965	86.7748
196.289	88.5099	196.289	88.3282	196.289	88.6354	196.289	88.0961	196.289	88.6996	196.289	87.8204	196.289	88.6981	196.289	87.5099	196.289	88.6274	196.289	87.1768	196.289	88.486	196.289	86.8373	196.289	88.2753	196.289	86.513	196.289	88.0017	196.289	86.2299	196.289	87.6792	196.289	86.0155	196.289	87.3313	196.289	85.8928	196.289	86.992	196.289	85.8728	196.289	86.7018	196.289	85.9488	196.289	86.498	196.289	86.0962	196.289	86.4006	196.289	86.2788	196.289	86.4035	196.289	86.458	196.289	86.4762	196.289	86.6012	196.289	86.5765	196.289	86.6869	196.289	86.6634	196.289	86.7062
203.613	88.4874	203.613	88.2822	203.613	88.6321	203.613	88.0232	203.613	88.7107	203.613	87.7191	203.613	88.7191	203.613	87.3811	203.613	88.6542	203.613	87.0238	203.613	88.5142	203.613	86.6658	203.613	88.3002	203.613	86.3296	203.613	88.0168	203.613	86.0408	203.613	87.6757	203.613	85.8245	203.613	87.2983	203.613	85.7014	203.613	86.9185	203.613	85.6813	203.613	86.5812	203.613	85.7583	203.613	86.3329	203.613	85.9097	203.613	86.2046	203.613	86.1003	203.613	86.1964	203.613	86.2903	203.613	86.276	203.613	86.4438	203.613	86.3932	203.613	86.5351	203.613	86.4978	203.613	86.5519
210.938	88.5879	210.938	88.3834	210.938	88.7301	210.938	88.1227	210.938	88.8056	210.938	87.813	210.938	88.8114	210.938	87.4636	210.938	88.7457	210.938	87.0865	210.938	88.6084	210.938	86.6984	210.938	88.4013	210.938	86.3216	210.938	88.1293	210.938	85.9844	210.938	87.8025	210.938	85.7181	210.938	87.4386	210.938	85.5501	210.938	87.0655	210.938	85.4955	210.938	86.7202	210.938	85.55	210.938	86.4421	210.938	85.6888	210.938	86.2614	210.938	85.8731	210.938	86.1858	210.938	86.0606	210.938	86.1962	210.938	86.2147	210.938	86.254	210.938	86.3115	210.938	86.3153	210.938	86.3424
218.262	88.4621	218.262	88.2647	218.262	88.5988	218.262	88.0143	218.262	88.669	218.262	87.72	218.262	88.6682	218.262	87.3925	218.262	88.5938	218.262	87.0449	218.262	88.446	218.262	86.6935	218.262	88.2285	218.262	86.359	218.262	87.95	218.262	86.0669	218.262	87.6266	218.262	85.8453	218.262	87.2831	218.262	85.719	218.262	86.9531	218.262	85.7008	218.262	86.6746	218.262	85.7848	218.262	86.4797	218.262	85.9455	218.262	86.3841	218.262	86.1445	218.262	86.3797	218.262	86.3401	218.262	86.4386	218.262	86.4979	218.262	86.5229	218.262	86.5958	218.262	86.5954	218.262	86.6261
225.586	88.4692	225.586	88.2799	225.586	88.5905	225.586	88.0306	225.586	88.6374	225.586	87.7303	225.586	88.6044	225.586	87.3902	225.586	88.4875	225.586	87.0242	225.586	88.2851	225.586	86.6502	225.586	88	225.586	86.2916	225.586	87.642	225.586	85.9777	225.586	87.2326	225.586	85.7414	225.586	86.8092	225.586	85.6132	225.586	86.4253	225.586	85.6102	225.586	86.1421	225.586	85.7275	225.586	86.0059	225.586	85.9354	225.586	86.0245	225.586	86.1875	225.586	86.1627	225.586	86.4334	225.586	86.3602	225.586	86.63	225.586	86.5559	225.586	86.7476	225.586	86.7032	225.586	86.7719
232.91	88.6012	232.91	88.387	232.91	88.7446	232.91	88.1099	232.91	88.8107	232.91	87.7793	232.91	88.7933	232.91	87.4069	232.91	88.6861	232.91	87.007	232.91	88.4833	232.91	86.5968	232.91	88.1809	232.91	86.1981	232.91	87.7794	232.91	85.8378	232.91	87.289	232.91	85.548	232.91	86.7377	232.91	85.3614	232.91	86.1797	232.91	85.3018	232.91	85.6979	232.91	85.3726	232.91	85.3839	232.91	85.5505	232.91	85.2949	232.91	85.7895	232.91	85.4148	232.91	86.0329	232.91	85.6644	232.91	86.2263	232.91	85.9454	232.91	86.3275	232.91	86.1779	232.91	86.3124
241.699	88.531	241.699	88.3009	241.699	88.6982	241.699	88.0155	241.699	88.7957	241.699	87.684	241.699	88.8176	241.699	87.3173	241.699	88.7576	241.699	86.9284	241.699	88.6091	241.699	86.5332	241.699	88.3654	241.699	86.1515	241.699	88.0217	241.699	85.8079	241.699	87.5795	241.699	85.5304	241.699	87.0538	241.699	85.346	241.699	86.4823	241.699	85.2722	241.699	85.9316	241.699	85.308	241.699	85.4901	241.699	85.4309	241.699	85.236	241.699	85.6006	241.699	85.1934	241.699	85.7685	241.699	85.317	241.699	85.8894	241.699	85.5225	241.699	85.9295	241.699	85.7274	241.699	85.8734
250.488	88.6968	250.488	88.4471	250.488	88.8719	250.488	88.1302	250.488	88.966	250.488	87.7554	250.488	88.9735	250.488	87.3343	250.488	88.8887	250.488	86.8817	250.488	88.7066	250.488	86.4158	250.488	88.4233	250.488	85.9602	250.488	88.0375	250.488	85.5459	250.488	87.5544	250.488	85.2123	250.488	86.9919	250.488	85.0005	250.488	86.3892	250.488	84.9371	250.488	85.8144	250.488	85.017	250.488	85.3578	250.488	85.1991	250.488	85.099	250.488	85.4213	250.488	85.0604	250.488	85.6226	250.488	85.191	250.488	85.7581	250.488	85.4004	250.488	85.8025	250.488	85.6048	250.488	85.7484
259.277	88.8999	259.277	88.6445	259.277	89.091	259.277	88.3339	259.277	89.2095	259.277	87.9773	259.277	89.2474	259.277	87.5854	259.277	89.1973	259.277	87.1711	259.277	89.0523	259.277	86.7495	259.277	88.8065	259.277	86.3387	259.277	88.4552	259.277	85.9604	259.277	87.9979	259.277	85.6404	259.277	87.4451	259.277	85.4093	259.277	86.8284	259.277	85.2954	259.277	86.213	259.277	85.3121	259.277	85.6989	259.277	85.4447	259.277	85.3895	259.277	85.6497	259.277	85.3312	259.277	85.8676	259.277	85.4762	259.277	86.04	259.277	85.7165	259.277	86.1227	259.277	85.9451	259.277	86.091
268.066	88.6854	268.066	88.3905	268.066	88.9005	268.066	88.0263	268.066	89.0297	268.066	87.6087	268.066	89.0695	268.066	87.1586	268.066	89.0172	268.066	86.6999	268.066	88.8689	268.066	86.2573	268.066	88.6203	268.066	85.8557	268.066	88.2672	268.066	85.5202	268.066	87.8086	268.066	85.276	268.066	87.2514	268.066	85.1439	268.066	86.6197	268.066	85.1333	268.066	85.9672	268.066	85.235	268.066	85.3877	268.066	85.4188	268.066	85.0005	268.066	85.6388	268.066	84.8905	268.066	85.8417	268.066	85.0415	268.066	85.9763	268.066	85.342	268.066	86.0014	268.066	85.6585	268.066	85.8938
276.855	88.6196	276.855	88.3123	276.855	88.8576	276.855	87.939	276.855	89.0206	276.855	87.5029	276.855	89.1004	276.855	87.0118	276.855	89.0864	276.855	86.4841	276.855	88.9655	276.855	85.9526	276.855	88.7248	276.855	85.4618	276.855	88.3571	276.855	85.0594	276.855	87.8676	276.855	84.7857	276.855	87.2813	276.855	84.6663	276.855	86.6469	276.855	84.7058	276.855	86.0341	276.855	84.882	276.855	85.5226	276.855	85.1457	276.855	85.1824	276.855	85.4314	276.855	85.0496	276.855	85.6734	276.855	85.1101	276.855	85.8201	276.855	85.3023	276.855	85.8428	276.855	85.5397	276.855	85.7397
287.109	88.933	287.109	88.6829	287.109	89.1016	287.109	88.3525	287.109	89.19	287.109	87.9449	287.109	89.2021	287.109	87.464	287.109	89.1436	287.109	86.9178	287.109	89.0181	287.109	86.3237	287.109	88.8221	287.109	85.718	287.109	88.5413	287.109	85.1623	287.109	88.1524	287.109	84.7379	287.109	87.6349	287.109	84.5178	287.109	86.9924	287.109	84.5275	287.109	86.2783	287.109	84.7261	287.109	85.6093	287.109	85.0286	287.109	85.1349	287.109	85.3447	287.109	84.9507	287.109	85.605	287.109	85.0314	287.109	85.7663	287.109	85.263	287.109	85.806	287.109	85.5217	287.109	85.7188
297.363	88.9548	297.363	88.7085	297.363	89.125	297.363	88.4006	297.363	89.2063	297.363	88.0435	297.363	89.1889	297.363	87.6435	297.363	89.0658	297.363	87.1992	297.363	88.8332	297.363	86.7071	297.363	88.4936	297.363	86.1739	297.363	88.0566	297.363	85.6318	297.363	87.5394	297.363	85.1502	297.363	86.9645	297.363	84.8297	297.363	86.363	297.363	84.7608	297.363	85.7907	297.363	84.9629	297.363	85.3489	297.363	85.3625	297.363	85.1644	297.363	85.8365	297.363	85.2972	297.363	86.2698	297.363	85.6655	297.363	86.5819	297.363	86.1042	297.363	86.7278	297.363	86.4717	297.363	86.6898
307.617	89.0407	307.617	88.7204	307.617	89.2786	307.617	88.318	307.617	89.4364	307.617	87.8424	307.617	89.5143	307.617	87.3159	307.617	89.507	307.617	86.7744	307.617	89.4022	307.617	86.2601	307.617	89.1814	307.617	85.8074	307.617	88.8232	307.617	85.4327	307.617	88.3117	307.617	85.1401	307.617	87.6467	307.617	84.9445	307.617	86.856	307.617	84.8823	307.617	86.0057	307.617	84.9874	307.617	85.2056	307.617	85.244	307.617	84.6039	307.617	85.5718	307.617	84.3456	307.617	85.8623	307.617	84.4776	307.617	86.024	307.617	84.887	307.617	86.0014	307.617	85.3752	307.617	85.7764
319.336	88.7922	319.336	88.5295	319.336	88.9762	319.336	88.1894	319.336	89.0804	319.336	87.7735	319.336	89.1034	319.336	87.2847	319.336	89.0427	319.336	86.7292	319.336	88.8933	319.336	86.1226	319.336	88.6452	319.336	85.4993	319.336	88.2821	319.336	84.9197	319.336	87.7835	319.336	84.4655	319.336	87.1369	319.336	84.2183	319.336	86.3612	319.336	84.226	319.336	85.5397	319.336	84.4765	319.336	84.837	319.336	84.8951	319.336	84.4432	319.336	85.3677	319.336	84.4401	319.336	85.7779	319.336	84.74	319.336	86.0351	319.336	85.178	319.336	86.0902	319.336	85.6109	319.336	85.9374
329.59	88.7677	329.59	88.4307	329.59	89.0284	329.59	88.0271	329.59	89.2053	329.59	87.5665	329.59	89.2928	329.59	87.057	329.59	89.2877	329.59	86.5046	329.59	89.1861	329.59	85.9161	329.59	88.9812	329.59	85.3074	329.59	88.6596	329.59	84.7155	329.59	88.1997	329.59	84.208	329.59	87.5744	329.59	83.8797	329.59	86.7656	329.59	83.821	329.59	85.7978	329.59	84.0617	329.59	84.7984	329.59	84.533	329.59	84.043	329.59	85.0927	329.59	83.8278	329.59	85.5889	329.59	84.1669	329.59	85.9075	329.59	84.7786	329.59	85.9845	329.59	85.3764	329.59	85.801
341.309	88.9615	341.309	88.6768	341.309	89.1339	341.309	88.276	341.309	89.2082	341.309	87.7687	341.309	89.2044	341.309	87.1799	341.309	89.1415	341.309	86.5451	341.309	89.0293	341.309	85.8995	341.309	88.8609	341.309	85.2675	341.309	88.6129	341.309	84.6686	341.309	88.2526	341.309	84.1426	341.309	87.7516	341.309	83.7702	341.309	87.0984	341.309	83.6498	341.309	86.3149	341.309	83.8218	341.309	85.4804	341.309	84.2177	341.309	84.7592	341.309	84.6984	341.309	84.3636	341.309	85.1275	341.309	84.3922	341.309	85.4117	341.309	84.7162	341.309	85.5041	341.309	85.1061	341.309	85.3945
353.027	88.9147	353.027	88.5842	353.027	89.1475	353.027	88.1539	353.027	89.2802	353.027	87.6203	353.027	89.3081	353.027	86.9839	353.027	89.2304	353.027	86.2557	353.027	89.0537	353.027	85.4627	353.027	88.79	353.027	84.6576	353.027	88.445	353.027	83.9277	353.027	88.0058	353.027	83.3878	353.027	87.4377	353.027	83.1396	353.027	86.7022	353.027	83.22	353.027	85.7966	353.027	83.585	353.027	84.8116	353.027	84.1359	353.027	83.9857	353.027	84.7508	353.027	83.6411	353.027	85.3067	353.027	83.903	353.027	85.6949	353.027	84.5401	353.027	85.8315	353.027	85.2052	353.027	85.6669
366.211	89.4398	366.211	89.112	366.211	89.6455	366.211	88.6558	366.211	89.7353	366.211	88.0593	366.211	89.7189	366.211	87.3054	366.211	89.6061	366.211	86.3866	366.211	89.4041	366.211	85.3258	366.211	89.1159	366.211	84.1874	366.211	88.7404	366.211	83.0758	366.211	88.269	366.211	82.152	366.211	87.6788	366.211	81.6808	366.211	86.9336	366.211	81.9221	366.211	86.0049	366.211	82.7935	366.211	84.9257	366.211	83.8815	366.211	83.8724	366.211	84.8191	366.211	83.1931	366.211	85.432	366.211	83.177	366.211	85.6751	366.211	83.7225	366.211	85.5626	366.211	84.472	366.211	85.1363
379.395	89.8234	379.395	89.6681	379.395	89.9126	379.395	89.4383	379.395	89.9391	379.395	89.1191	379.395	89.9042	379.395	88.6883	379.395	89.8083	379.395	88.1156	379.395	89.6513	379.395	87.3657	379.395	89.4287	379.395	86.4068	379.395	89.1289	379.395	85.2229	379.395	88.7333	379.395	83.8316	379.395	88.2204	379.395	82.3268	379.395	87.5739	379.395	80.9876	379.395	86.7916	379.395	80.3469	379.395	85.899	379.395	80.745	379.395	84.9701	379.395	81.7889	379.395	84.1545	379.395	82.8678	379.395	83.6574	379.395	83.6512	379.395	83.5906	379.395	84.0377	379.395	83.8185	379.395	84.0501
392.578	89.1746	392.578	89.0751	392.578	89.1784	392.578	88.882	392.578	89.0977	392.578	88.6027	392.578	88.9552	392.578	88.2385	392.578	88.7752	392.578	87.7777	392.578	88.5745	392.578	87.2023	392.578	88.3561	392.578	86.5013	392.578	88.1088	392.578	85.6817	392.578	87.8123	392.578	84.7751	392.578	87.4423	392.578	83.8494	392.578	86.9781	392.578	83.0356	392.578	86.4139	392.578	82.5461	392.578	85.7804	392.578	82.5808	392.578	85.1682	392.578	83.113	392.578	84.721	392.578	83.8625	392.578	84.5579	392.578	84.5247	392.578	84.6645	392.578	84.9242	392.578	84.8851	392.578	85.022
405.762	88.902	405.762	88.7964	405.762	88.9148	405.762	88.595	405.762	88.8365	405.762	88.296	405.762	88.6701	405.762	87.9017	405.762	88.4241	405.762	87.4172	405.762	88.1132	405.762	86.8399	405.762	87.7518	405.762	86.1507	405.762	87.3471	405.762	85.322	405.762	86.8946	405.762	84.3594	405.762	86.384	405.762	83.3737	405.762	85.8159	405.762	82.632	405.762	85.2287	405.762	82.437	405.762	84.7159	405.762	82.8201	405.762	84.3954	405.762	83.4959	405.762	84.321	405.762	84.1515	405.762	84.4299	405.762	84.6132	405.762	84.6071	405.762	84.8384	405.762	84.7698	405.762	84.8668
420.41	89.603	420.41	89.3842	420.41	89.7068	420.41	89.0681	420.41	89.6904	420.41	88.678	420.41	89.5594	420.41	88.2285	420.41	89.3245	420.41	87.7157	420.41	88.997	420.41	87.1225	420.41	88.5866	420.41	86.4297	420.41	88.0959	420.41	85.6166	420.41	87.5094	420.41	84.6497	420.41	86.7824	420.41	83.5048	420.41	85.8451	420.41	82.2821	420.41	84.6427	420.41	81.4053	420.41	83.2399	420.41	81.4608	420.41	82.0118	420.41	82.3625	420.41	81.6274	420.41	83.4416	420.41	82.2545	420.41	84.2511	420.41	83.2724	420.41	84.6469	420.41	84.1276	420.41	84.6036
435.059	89.3079	435.059	89.1042	435.059	89.3688	435.059	88.7838	435.059	89.2708	435.059	88.3803	435.059	89.0139	435.059	87.9342	435.059	88.6229	435.059	87.4805	435.059	88.1467	435.059	87.0277	435.059	87.643	435.059	86.5452	435.059	87.1528	435.059	85.9791	435.059	86.6836	435.059	85.2826	435.059	86.2123	435.059	84.4421	435.059	85.6987	435.059	83.5045	435.059	85.1012	435.059	82.6264	435.059	84.4089	435.059	82.0956	435.059	83.7021	435.059	82.1511	435.059	83.1969	435.059	82.69	435.059	83.1221	435.059	83.3573	435.059	83.438	435.059	83.8497	435.059	83.8333	435.059	84.0143
451.172	90.318	451.172	89.9367	451.172	90.5847	451.172	89.4689	451.172	90.7111	451.172	88.9404	451.172	90.6702	451.172	88.3679	451.172	90.4311	451.172	87.7563	451.172	89.9634	451.172	87.108	451.172	89.2482	451.172	86.4376	451.172	88.2902	451.172	85.7754	451.172	87.1206	451.172	85.1484	451.172	85.7888	451.172	84.5551	451.172	84.3531	451.172	83.9743	451.172	82.8948	451.172	83.423	451.172	81.5718	451.172	83.003	451.172	80.6768	451.172	82.8457	451.172	80.5248	451.172	82.9624	451.172	81.0911	451.172	83.1901	451.172	81.9578	451.172	83.3134	451.172	82.7175	451.172	83.1789
465.82	89.625	465.82	89.2269	465.82	89.9327	465.82	88.7443	465.82	90.131	465.82	88.1793	465.82	90.1969	465.82	87.5544	465.82	90.1152	465.82	86.9214	465.82	89.8788	465.82	86.3254	465.82	89.4795	465.82	85.7539	465.82	88.8996	465.82	85.1557	465.82	88.1151	465.82	84.5357	465.82	87.1059	465.82	84.0208	465.82	85.8705	465.82	83.7908	465.82	84.4494	465.82	83.8965	465.82	82.9736	465.82	84.1977	465.82	81.7281	465.82	84.5071	465.82	81.1189	465.82	84.7032	465.82	81.3622	465.82	84.7184	465.82	82.2033	465.82	84.4963	465.82	83.1825	465.82	83.9858
483.398	89.4119	483.398	89.0362	483.398	89.6466	483.398	88.549	483.398	89.7502	483.398	88.0007	483.398	89.7555	483.398	87.4154	483.398	89.6893	483.398	86.7698	483.398	89.5543	483.398	86.0329	483.398	89.3307	483.398	85.2129	483.398	88.983	483.398	84.3474	483.398	88.462	483.398	83.4628	483.398	87.7006	483.398	82.6183	483.398	86.6194	483.398	82.0514	483.398	85.1551	483.398	82.1214	483.398	83.3478	483.398	82.833	483.398	81.5683	483.398	83.7497	483.398	80.6986	483.398	84.4719	483.398	81.2072	483.398	84.8202	483.398	82.3675	483.398	84.7543	483.398	83.4758	483.398	84.2932
499.512	89.297	499.512	88.9936	499.512	89.4412	499.512	88.4939	499.512	89.4724	499.512	87.806	499.512	89.4195	499.512	87.0027	499.512	89.2916	499.512	86.1956	499.512	89.0922	499.512	85.4569	499.512	88.8284	499.512	84.7599	499.512	88.5018	499.512	84.0116	499.512	88.0821	499.512	83.1406	499.512	87.4883	499.512	82.1861	499.512	86.6026	499.512	81.4172	499.512	85.3272	499.512	81.3296	499.512	83.6804	499.512	82.0806	499.512	81.9521	499.512	83.1659	499.512	80.8333	499.512	84.0705	499.512	80.9448	499.512	84.5764	499.512	81.9893	499.512	84.6126	499.512	83.216	499.512	84.1497
517.09	89.1258	517.09	88.9643	517.09	89.1922	517.09	88.6921	517.09	89.1722	517.09	88.2796	517.09	89.0865	517.09	87.7025	517.09	88.9717	517.09	86.9768	517.09	88.8547	517.09	86.1645	517.09	88.7144	517.09	85.3083	517.09	88.478	517.09	84.3614	517.09	88.0629	517.09	83.2369	517.09	87.4228	517.09	81.9617	517.09	86.5483	517.09	80.8213	517.09	85.4165	517.09	80.3617	517.09	83.9624	517.09	80.9593	517.09	82.2373	517.09	82.2649	517.09	80.8939	517.09	83.5537	517.09	81.0163	517.09	84.3507	517.09	82.2167	517.09	84.5388	517.09	83.4033	517.09	84.1961
536.133	88.8532	536.133	88.6256	536.133	88.8861	536.133	88.2293	536.133	88.7266	536.133	87.7043	536.133	88.406	536.133	87.083	536.133	87.9796	536.133	86.3784	536.133	87.5278	536.133	85.5999	536.133	87.1466	536.133	84.7781	536.133	86.8836	536.133	83.9303	536.133	86.6547	536.133	82.9716	536.133	86.2646	536.133	81.7424	536.133	85.5321	536.133	80.3353	536.133	84.4266	536.133	79.6221	536.133	83.1554	536.133	80.3945	536.133	82.1025	536.133	81.8158	536.133	81.5803	536.133	83.0477	536.133	81.7333	536.133	83.8981	536.133	82.5112	536.133	84.3042	536.133	83.4941	536.133	84.1724
555.176	89.4909	555.176	89.2731	555.176	89.4789	555.176	88.8065	555.176	89.293	555.176	88.1324	555.176	88.9954	555.176	87.3474	555.176	88.6364	555.176	86.5515	555.176	88.2494	555.176	85.7827	555.176	87.8512	555.176	85.0028	555.176	87.4362	555.176	84.1374	555.176	86.9662	555.176	83.094	555.176	86.3641	555.176	81.7519	555.176	85.5118	555.176	80.0585	555.176	84.2561	555.176	78.5278	555.176	82.4496	555.176	78.7104	555.176	80.1647	555.176	80.6511	555.176	78.5215	555.176	82.5922	555.176	79.4028	555.176	83.8013	555.176	81.5403	555.176	84.2734	555.176	83.2091	555.176	84.091
574.219	89.3035	574.219	89.1357	574.219	89.3339	574.219	88.8261	574.219	89.2108	574.219	88.3438	574.219	88.9322	574.219	87.6698	574.219	88.5395	574.219	86.8459	574.219	88.1075	574.219	85.967	574.219	87.7034	574.219	85.092	574.219	87.3528	574.219	84.1755	574.219	87.0117	574.219	83.1005	574.219	86.5491	574.219	81.731	574.219	85.7714	574.219	79.9829	574.219	84.4856	574.219	78.2367	574.219	82.5546	574.219	77.9874	574.219	79.979	574.219	79.6406	574.219	77.5	574.219	81.5135	574.219	77.4242	574.219	82.7193	574.219	79.4377	574.219	83.0691	574.219	81.3433	574.219	82.5814
594.727	88.8442	594.727	88.6917	594.727	88.802	594.727	88.3368	594.727	88.5817	594.727	87.7872	594.727	88.2148	594.727	87.0832	594.727	87.7604	594.727	86.3074	594.727	87.3125	594.727	85.5676	594.727	86.9828	594.727	84.941	594.727	86.8373	594.727	84.4168	594.727	86.8074	594.727	83.8779	594.727	86.6871	594.727	83.1196	594.727	86.2404	594.727	81.9273	594.727	85.2936	594.727	80.2881	594.727	83.7532	594.727	78.9098	594.727	81.683	594.727	79.1422	594.727	79.7615	594.727	80.5798	594.727	79.4255	594.727	81.8797	594.727	80.5506	594.727	82.5548	594.727	81.7879	594.727	82.5161
615.234	89.6731	615.234	89.4744	615.234	89.5977	615.234	89.0186	615.234	89.2945	615.234	88.3814	615.234	88.8154	615.234	87.6021	615.234	88.1879	615.234	86.6393	615.234	87.4692	615.234	85.5264	615.234	86.8068	615.234	84.5144	615.234	86.3482	615.234	83.7794	615.234	86.0617	615.234	83.0464	615.234	85.7596	615.234	81.9451	615.234	85.2639	615.234	80.551	615.234	84.4348	615.234	79.4977	615.234	83.1347	615.234	79.4734	615.234	81.3791	615.234	80.4968	615.234	79.8546	615.234	81.9528	615.234	79.9467	615.234	83.1853	615.234	81.4299	615.234	83.829	615.234	82.905	615.234	83.7452
637.207	90.112	637.207	89.9046	637.207	90.1355	637.207	89.496	637.207	89.9348	637.207	88.864	637.207	89.4585	637.207	88.0614	637.207	88.7415	637.207	87.213	637.207	87.9428	637.207	86.3878	637.207	87.2934	637.207	85.5342	637.207	86.9768	637.207	84.6544	637.207	86.9453	637.207	83.8388	637.207	86.8715	637.207	82.9037	637.207	86.3946	637.207	81.3627	637.207	85.3285	637.207	79.2009	637.207	83.5918	637.207	78.4809	637.207	81.0555	637.207	80.5361	637.207	78.4504	637.207	82.9037	637.207	79.2154	637.207	84.55	637.207	81.9452	637.207	85.2943	637.207	83.9611	637.207	85.0799
659.18	90.4401	659.18	90.1724	659.18	90.4373	659.18	89.6845	659.18	90.1395	659.18	89.0019	659.18	89.5864	659.18	88.1277	659.18	88.8512	659.18	87.1145	659.18	87.9926	659.18	86.1277	659.18	87.0907	659.18	85.3102	659.18	86.351	659.18	84.5533	659.18	86.0387	659.18	83.6128	659.18	86.0841	659.18	82.3823	659.18	86.0002	659.18	80.9174	659.18	85.3025	659.18	79.3796	659.18	83.7181	659.18	78.5636	659.18	81.1604	659.18	79.7221	659.18	78.043	659.18	81.8186	659.18	77.4896	659.18	83.3723	659.18	80.3831	659.18	84.066	659.18	82.7745	659.18	83.9173
682.617	90.8231	682.617	90.6148	682.617	90.7868	682.617	90.1152	682.617	90.5402	682.617	89.3227	682.617	90.047	682.617	88.3139	682.617	89.2416	682.617	87.2477	682.617	88.1508	682.617	86.271	682.617	86.9798	682.617	85.4701	682.617	86.1278	682.617	84.9248	682.617	85.9347	682.617	84.483	682.617	86.1716	682.617	83.6132	682.617	86.2162	682.617	81.7179	682.617	85.5433	682.617	78.3402	682.617	83.6795	682.617	75.0782	682.617	79.8723	682.617	78.0538	682.617	73.6088	682.617	81.9407	682.617	76.3864	682.617	84.3305	682.617	81.3962	682.617	85.4329	682.617	84.1308	682.617	85.3826
707.52	90.9944	707.52	90.75	707.52	91.0284	707.52	90.2938	707.52	90.8105	707.52	89.5911	707.52	90.2835	707.52	88.5776	707.52	89.4146	707.52	87.1824	707.52	88.2079	707.52	85.5448	707.52	86.7104	707.52	84.3134	707.52	85.1524	707.52	84.0559	707.52	84.2402	707.52	84.2975	707.52	84.5546	707.52	84.1755	707.52	85.3459	707.52	83.0581	707.52	85.6021	707.52	80.4594	707.52	84.7704	707.52	75.8664	707.52	82.2109	707.52	74.8805	707.52	76.0068	707.52	80.2025	707.52	69.0752	707.52	83.5141	707.52	79.4407	707.52	84.9825	707.52	83.3538	707.52	84.937
732.422	89.8018	732.422	89.6499	732.422	89.745	732.422	89.2394	732.422	89.5134	732.422	88.5222	732.422	89.1501	732.422	87.5358	732.422	88.6572	732.422	86.381	732.422	87.9416	732.422	85.086	732.422	86.8745	732.422	83.6338	732.422	85.4322	732.422	82.2683	732.422	83.9027	732.422	81.6481	732.422	82.9832	732.422	81.8429	732.422	83.0097	732.422	81.7613	732.422	83.4526	732.422	80.3969	732.422	83.5344	732.422	77.6916	732.422	82.4144	732.422	75.8476	732.422	79.2361	732.422	77.0306	732.422	72.472	732.422	79.0294	732.422	70.2939	732.422	80.1401	732.422	77.0777	732.422	79.7287
757.324	89.6855	757.324	89.4273	757.324	89.7153	757.324	88.9042	757.324	89.5375	757.324	88.1634	757.324	89.1112	757.324	87.32	757.324	88.3886	757.324	86.3824	757.324	87.38	757.324	85.2297	757.324	86.2021	757.324	83.9326	757.324	85.162	757.324	82.8683	757.324	84.5484	757.324	82.218	757.324	84.1827	757.324	81.6743	757.324	83.8713	757.324	80.8198	757.324	83.6853	757.324	79.3113	757.324	83.2723	757.324	76.7846	757.324	81.9256	757.324	74.7333	757.324	79.0101	757.324	77.2795	757.324	74.4607	757.324	80.1322	757.324	73.2007	757.324	81.0934	757.324	77.0514	757.324	80.0444
785.156	89.3513	785.156	89.0144	785.156	89.4479	785.156	88.4616	785.156	89.2594	785.156	87.7178	785.156	88.7844	785.156	86.7933	785.156	88.0878	785.156	85.6028	785.156	87.2203	785.156	84.0958	785.156	86.1002	785.156	82.4182	785.156	84.563	785.156	80.7087	785.156	82.8226	785.156	79.1317	785.156	81.8616	785.156	78.4725	785.156	82.0434	785.156	78.5885	785.156	82.3379	785.156	77.8187	785.156	82.0714	785.156	75.3173	785.156	80.9885	785.156	72.404	785.156	78.4268	785.156	74.57	785.156	73.353	785.156	78.3539	785.156	74.5491	785.156	80.5858	785.156	79.3235	785.156	81.0371
811.523	87.8834	811.523	87.373	811.523	88.1931	811.523	86.8448	811.523	88.177	811.523	86.3353	811.523	87.7969	811.523	85.6011	811.523	87.1391	811.523	84.4124	811.523	86.3317	811.523	82.7299	811.523	85.3754	811.523	80.777	811.523	84.1233	811.523	79.245	811.523	82.4388	811.523	78.5365	811.523	80.6363	811.523	78.2076	811.523	79.6545	811.523	77.9031	811.523	79.7464	811.523	77.0018	811.523	79.8501	811.523	74.2452	811.523	78.8377	811.523	69.8032	811.523	76.4785	811.523	71.7201	811.523	73.6758	811.523	75.1412	811.523	73.139	811.523	76.9484	811.523	75.542	811.523	77.1695
840.82	89.026	840.82	88.5015	840.82	89.0659	840.82	87.5938	840.82	88.6686	840.82	86.5248	840.82	87.992	840.82	85.5062	840.82	87.0955	840.82	84.353	840.82	85.9453	840.82	82.839	840.82	84.599	840.82	81.2873	840.82	83.1982	840.82	79.8382	840.82	81.841	840.82	78.146	840.82	80.6039	840.82	76.3528	840.82	79.9703	840.82	74.6095	840.82	80.2169	840.82	72.4858	840.82	80.3093	840.82	69.8576	840.82	79.3375	840.82	66.3281	840.82	76.6668	840.82	66.6687	840.82	72.5624	840.82	73.6746	840.82	71.6706	840.82	76.8701	840.82	74.5242	840.82	76.8191
870.117	88.3918	870.117	87.7967	870.117	88.6779	870.117	86.8565	870.117	88.6579	870.117	85.6229	870.117	88.2791	870.117	84.1727	870.117	87.519	870.117	82.5235	870.117	86.3763	870.117	80.5106	870.117	84.9217	870.117	77.8233	870.117	83.3395	870.117	75.4483	870.117	81.6246	870.117	75.0338	870.117	80.0325	870.117	75.2445	870.117	79.5551	870.117	75.578	870.117	79.6811	870.117	75.3318	870.117	79.5332	870.117	73.173	870.117	78.9205	870.117	68.6801	870.117	77.5588	870.117	69.3573	870.117	75.3988	870.117	74.5395	870.117	74.2289	870.117	76.7753	870.117	75.9207	870.117	77.0007
900.879	88.3224	900.879	87.6869	900.879	88.5963	900.879	86.6232	900.879	88.5493	900.879	85.2151	900.879	88.1693	900.879	83.9108	900.879	87.482	900.879	82.7016	900.879	86.6202	900.879	80.6566	900.879	85.6224	900.879	77.6515	900.879	84.3984	900.879	74.1468	900.879	83.1005	900.879	71.5142	900.879	81.9844	900.879	72.3136	900.879	81.0503	900.879	73.3289	900.879	80.2377	900.879	73.6418	900.879	79.6278	900.879	72.8382	900.879	78.871	900.879	69.3363	900.879	76.0956	900.879	62.3666	900.879	72.6774	900.879	71.0186	900.879	74.6657	900.879	75.6665	900.879	76.4779	900.879	77.0499
933.105	88.5513	933.105	87.8977	933.105	88.8671	933.105	86.8885	933.105	88.8391	933.105	85.3922	933.105	88.4521	933.105	83.3648	933.105	87.7112	933.105	81.1533	933.105	86.7507	933.105	79.0789	933.105	85.6251	933.105	76.9369	933.105	84.0586	933.105	74.7178	933.105	82.0258	933.105	73.0144	933.105	80.2951	933.105	71.677	933.105	79.5457	933.105	70.6556	933.105	79.6388	933.105	71.3613	933.105	79.5728	933.105	71.0955	933.105	78.4919	933.105	66.0852	933.105	76.7531	933.105	63.6504	933.105	74.2819	933.105	72.5324	933.105	72.6753	933.105	76.1338	933.105	75.4753	933.105	77.0324
965.332	88.7515	965.332	87.8364	965.332	89.1601	965.332	86.603	965.332	89.0023	965.332	85.1481	965.332	88.5146	965.332	83.5016	965.332	87.8861	965.332	81.6176	965.332	86.9146	965.332	78.9999	965.332	85.4254	965.332	75.2022	965.332	83.7593	965.332	72.0213	965.332	82.0447	965.332	70.218	965.332	80.141	965.332	67.3184	965.332	79.4808	965.332	67.4289	965.332	79.723	965.332	70.0903	965.332	79.1946	965.332	72.4358	965.332	77.8369	965.332	72.8506	965.332	76.1586	965.332	68.078	965.332	75.1919	965.332	62.2615	965.332	75.4162	965.332	73.0458	965.332	75.5086	965.332	75.3456
1,000.49	88.7324	1,000.49	87.8388	1,000.49	89.139	1,000.49	86.5088	1,000.49	89.2692	1,000.49	84.904	1,000.49	89.1264	1,000.49	82.7344	1,000.49	88.5872	1,000.49	79.8472	1,000.49	87.7201	1,000.49	77.3023	1,000.49	86.5157	1,000.49	75.8965	1,000.49	84.7132	1,000.49	74.4123	1,000.49	82.5301	1,000.49	71.8995	1,000.49	81.0385	1,000.49	69.3531	1,000.49	80.2585	1,000.49	68.8452	1,000.49	79.5224	1,000.49	70.7134	1,000.49	78.8254	1,000.49	71.5224	1,000.49	77.7562	1,000.49	67.9915	1,000.49	74.8806	1,000.49	54.7183	1,000.49	72.6741	1,000.49	66.4263	1,000.49	75.9317	1,000.49	73.8608	1,000.49	77.2933	1,000.49	76.4916
1,035.64	88.3893	1,035.64	87.256	1,035.64	89.001	1,035.64	85.8182	1,035.64	88.9727	1,035.64	83.8537	1,035.64	88.4976	1,035.64	81.1506	1,035.64	87.7449	1,035.64	78.7141	1,035.64	86.7553	1,035.64	76.8883	1,035.64	85.626	1,035.64	74.6109	1,035.64	84.2506	1,035.64	72.666	1,035.64	82.3368	1,035.64	72.3934	1,035.64	79.995	1,035.64	72.6097	1,035.64	79.2171	1,035.64	71.5797	1,035.64	80.0733	1,035.64	71.5274	1,035.64	79.407	1,035.64	73.7957	1,035.64	76.6475	1,035.64	74.6646	1,035.64	73.8013	1,035.64	72.1665	1,035.64	74.1453	1,035.64	61.5445	1,035.64	75.026	1,035.64	67.2771	1,035.64	75.6333	1,035.64	74.1209
1,072.27	88.701	1,072.27	87.5703	1,072.27	89.3202	1,072.27	85.8351	1,072.27	89.4417	1,072.27	83.8755	1,072.27	89.0352	1,072.27	81.9958	1,072.27	88.3012	1,072.27	79.9047	1,072.27	87.2731	1,072.27	78.1636	1,072.27	85.8179	1,072.27	76.9191	1,072.27	84.207	1,072.27	75.2276	1,072.27	82.255	1,072.27	73.4681	1,072.27	80.083	1,072.27	72.1945	1,072.27	79.0628	1,072.27	71.6149	1,072.27	78.5181	1,072.27	71.1705	1,072.27	77.8746	1,072.27	73.0817	1,072.27	76.0637	1,072.27	75.6575	1,072.27	74.0881	1,072.27	75.1389	1,072.27	74.2775	1,072.27	68.5421	1,072.27	76.9317	1,072.27	62.098	1,072.27	77.0693	1,072.27	73.3067
1,108.89	88.3167	1,108.89	86.9611	1,108.89	89.119	1,108.89	85.4839	1,108.89	89.2814	1,108.89	83.7914	1,108.89	88.9558	1,108.89	81.7349	1,108.89	88.2386	1,108.89	80.416	1,108.89	87.333	1,108.89	80.0539	1,108.89	86.3091	1,108.89	79.526	1,108.89	84.8757	1,108.89	78.3603	1,108.89	82.771	1,108.89	77.1978	1,108.89	79.9853	1,108.89	77.0075	1,108.89	78.1881	1,108.89	76.6171	1,108.89	78.2733	1,108.89	76.0361	1,108.89	77.8299	1,108.89	75.8839	1,108.89	75.7167	1,108.89	75.7413	1,108.89	72.2837	1,108.89	74.4994	1,108.89	74.18	1,108.89	70.9629	1,108.89	75.6646	1,108.89	66.5171	1,108.89	75.6021	1,108.89	73.0872
1,148.44	88.781	1,148.44	87.8643	1,148.44	89.6504	1,148.44	86.5282	1,148.44	90.1375	1,148.44	84.782	1,148.44	89.8837	1,148.44	83.5033	1,148.44	89.0107	1,148.44	82.6028	1,148.44	87.8243	1,148.44	81.5392	1,148.44	86.5939	1,148.44	80.7008	1,148.44	85.0629	1,148.44	80.105	1,148.44	83.1201	1,148.44	79.6477	1,148.44	80.9624	1,148.44	78.6781	1,148.44	79.0922	1,148.44	77.7156	1,148.44	79.582	1,148.44	77.1199	1,148.44	79.313	1,148.44	76.8717	1,148.44	76.7667	1,148.44	77.6699	1,148.44	71.9446	1,148.44	78.039	1,148.44	73.7787	1,148.44	75.6658	1,148.44	75.5516	1,148.44	66.8839	1,148.44	75.292	1,148.44	70.4864
1,189.45	89.6777	1,189.45	88.4574	1,189.45	90.4399	1,189.45	87.2084	1,189.45	90.6321	1,189.45	86.289	1,189.45	90.3664	1,189.45	85.3875	1,189.45	89.6621	1,189.45	84.3839	1,189.45	88.5703	1,189.45	83.55	1,189.45	87.4429	1,189.45	83.1304	1,189.45	86.285	1,189.45	82.2162	1,189.45	84.6214	1,189.45	79.7835	1,189.45	81.7072	1,189.45	78.5505	1,189.45	80.1178	1,189.45	79.1963	1,189.45	79.7571	1,189.45	78.7667	1,189.45	79.6773	1,189.45	78.7289	1,189.45	77.733	1,189.45	78.4915	1,189.45	71.1701	1,189.45	78.4599	1,189.45	74.6335	1,189.45	77.6938	1,189.45	78.0973	1,189.45	73.538	1,189.45	77.1147	1,189.45	72.02
1,230.47	89.27	1,230.47	88.876	1,230.47	89.9149	1,230.47	88.2555	1,230.47	90.349	1,230.47	87.3017	1,230.47	90.0564	1,230.47	86.5899	1,230.47	89.3066	1,230.47	85.972	1,230.47	88.3156	1,230.47	85.0205	1,230.47	87.0527	1,230.47	84.1069	1,230.47	85.551	1,230.47	83.2522	1,230.47	83.8365	1,230.47	81.6461	1,230.47	82.0848	1,230.47	79.2859	1,230.47	81.0002	1,230.47	79.6391	1,230.47	81.8077	1,230.47	80.547	1,230.47	80.9354	1,230.47	79.4719	1,230.47	78.4269	1,230.47	79.1547	1,230.47	75.1954	1,230.47	79.2142	1,230.47	76.9389	1,230.47	78.8302	1,230.47	77.872	1,230.47	74.085	1,230.47	75.4153	1,230.47	70.5157
1,274.41	89.6084	1,274.41	89.2273	1,274.41	89.7507	1,274.41	88.9235	1,274.41	89.8537	1,274.41	88.5683	1,274.41	89.7179	1,274.41	87.9817	1,274.41	89.0301	1,274.41	87.0682	1,274.41	87.7995	1,274.41	85.5863	1,274.41	86.4119	1,274.41	84.5493	1,274.41	85.4217	1,274.41	83.9885	1,274.41	84.3328	1,274.41	82.8138	1,274.41	81.4857	1,274.41	81.1482	1,274.41	79.5647	1,274.41	79.7672	1,274.41	79.8922	1,274.41	79.0726	1,274.41	79.7897	1,274.41	78.9579	1,274.41	77.4703	1,274.41	78.2869	1,274.41	70.3157	1,274.41	77.8427	1,274.41	74.5383	1,274.41	77.108	1,274.41	78.078	1,274.41	74.8811	1,274.41	76.7177	1,274.41	73.5538
1,319.82	88.8281	1,319.82	88.9395	1,319.82	88.7876	1,319.82	88.9216	1,319.82	88.9004	1,319.82	88.3686	1,319.82	88.7681	1,319.82	87.6738	1,319.82	88.2543	1,319.82	86.8274	1,319.82	87.3242	1,319.82	85.4365	1,319.82	85.8471	1,319.82	84.4463	1,319.82	84.4416	1,319.82	83.8397	1,319.82	83.0715	1,319.82	83.2759	1,319.82	81.3423	1,319.82	81.3607	1,319.82	79.5716	1,319.82	79.9091	1,319.82	79.9701	1,319.82	79.5899	1,319.82	80.585	1,319.82	79.782	1,319.82	78.1559	1,319.82	78.3038	1,319.82	73.584	1,319.82	78.1517	1,319.82	76.8396	1,319.82	78.804	1,319.82	77.7358	1,319.82	76.5674	1,319.82	74.9975	1,319.82	70.0918
1,366.7	88.7183	1,366.7	88.8823	1,366.7	88.3646	1,366.7	88.7108	1,366.7	87.9824	1,366.7	88.3447	1,366.7	87.8263	1,366.7	87.7163	1,366.7	87.6009	1,366.7	86.4044	1,366.7	86.7081	1,366.7	84.895	1,366.7	85.0403	1,366.7	83.6445	1,366.7	83.8154	1,366.7	82.8832	1,366.7	82.3117	1,366.7	82.3608	1,366.7	79.6285	1,366.7	80.7324	1,366.7	76.7926	1,366.7	77.527	1,366.7	77.5632	1,366.7	79.0545	1,366.7	79.4167	1,366.7	80.026	1,366.7	77.8349	1,366.7	78.5522	1,366.7	73.7201	1,366.7	77.0896	1,366.7	74.9718	1,366.7	77.8683	1,366.7	76.5366	1,366.7	76.072	1,366.7	74.7766	1,366.7	71.7947
1,413.57	88.2368	1,413.57	88.9573	1,413.57	87.5335	1,413.57	89.0867	1,413.57	87.303	1,413.57	88.6623	1,413.57	87.543	1,413.57	87.9247	1,413.57	87.3203	1,413.57	86.79	1,413.57	86.6512	1,413.57	85.6457	1,413.57	85.8981	1,413.57	84.061	1,413.57	84.4074	1,413.57	82.6642	1,413.57	82.8867	1,413.57	81.8283	1,413.57	80.9516	1,413.57	80.3362	1,413.57	78.0397	1,413.57	78.7018	1,413.57	78.6322	1,413.57	79.8915	1,413.57	80.0802	1,413.57	79.6321	1,413.57	78.1556	1,413.57	78.1142	1,413.57	71.6646	1,413.57	76.576	1,413.57	73.963	1,413.57	76.1677	1,413.57	77.317	1,413.57	73.6099	1,413.57	74.9186	1,413.57	69.9864
1,463.38	89.2978	1,463.38	89.2992	1,463.38	88.7302	1,463.38	89.1614	1,463.38	88.2344	1,463.38	88.914	1,463.38	88.1164	1,463.38	88.2256	1,463.38	87.9848	1,463.38	87.122	1,463.38	87.7248	1,463.38	85.9344	1,463.38	86.4741	1,463.38	84.3963	1,463.38	84.9971	1,463.38	82.5051	1,463.38	84.0032	1,463.38	81.4408	1,463.38	82.5357	1,463.38	81.0028	1,463.38	79.6072	1,463.38	78.7106	1,463.38	77.737	1,463.38	77.8612	1,463.38	78.7588	1,463.38	79.5892	1,463.38	78.2331	1,463.38	78.9958	1,463.38	73.4423	1,463.38	76.0657	1,463.38	72.8822	1,463.38	76.5676	1,463.38	76.3282	1,463.38	75.9307	1,463.38	74.1527	1,463.38	68.6951
1,516.11	89.4285	1,516.11	90.1919	1,516.11	88.7959	1,516.11	89.971	1,516.11	87.8877	1,516.11	89.3454	1,516.11	87.6151	1,516.11	88.2575	1,516.11	87.6645	1,516.11	86.9618	1,516.11	87.2043	1,516.11	85.9142	1,516.11	85.9446	1,516.11	84.0638	1,516.11	83.9918	1,516.11	82.8378	1,516.11	83.2689	1,516.11	81.5557	1,516.11	82.6522	1,516.11	81.4046	1,516.11	81.0602	1,516.11	79.4642	1,516.11	78.6946	1,516.11	77.0235	1,516.11	79.5045	1,516.11	80.1592	1,516.11	79.352	1,516.11	80.2055	1,516.11	77.1149	1,516.11	78.4468	1,516.11	74.2638	1,516.11	77.881	1,516.11	76.9006	1,516.11	77.5139	1,516.11	74.4827	1,516.11	69.5082
1,568.85	89.382	1,568.85	89.877	1,568.85	88.3908	1,568.85	89.8238	1,568.85	87.6132	1,568.85	88.8578	1,568.85	87.6926	1,568.85	87.9756	1,568.85	87.5434	1,568.85	86.9618	1,568.85	87.1354	1,568.85	85.6236	1,568.85	86.1289	1,568.85	84.1482	1,568.85	84.7047	1,568.85	81.9715	1,568.85	83.3256	1,568.85	81.6139	1,568.85	81.8301	1,568.85	82.1041	1,568.85	80.434	1,568.85	80.6439	1,568.85	78.0866	1,568.85	78.1673	1,568.85	79.0297	1,568.85	79.3611	1,568.85	79.7347	1,568.85	78.5832	1,568.85	74.1322	1,568.85	76.2878	1,568.85	73.1493	1,568.85	76.5549	1,568.85	77.2755	1,568.85	77.2988	1,568.85	71.9815	1,568.85	70.1853
1,624.51	88.7094	1,624.51	89.5376	1,624.51	87.4616	1,624.51	89.6209	1,624.51	86.747	1,624.51	88.9169	1,624.51	86.6815	1,624.51	87.7604	1,624.51	86.6719	1,624.51	86.0204	1,624.51	86.5248	1,624.51	84.8898	1,624.51	85.9623	1,624.51	83.8094	1,624.51	85.2462	1,624.51	82.8677	1,624.51	83.3027	1,624.51	81.5305	1,624.51	81.7762	1,624.51	80.7169	1,624.51	78.9535	1,624.51	78.9538	1,624.51	75.5537	1,624.51	77.2647	1,624.51	78.3682	1,624.51	77.8472	1,624.51	78.451	1,624.51	79.7767	1,624.51	76.0986	1,624.51	75.9908	1,624.51	74.2631	1,624.51	75.772	1,624.51	75.0528	1,624.51	76.8775	1,624.51	70.3838	1,624.51	72.9805
1,681.64	88.7588	1,681.64	89.3893	1,681.64	87.1381	1,681.64	89.11	1,681.64	85.966	1,681.64	88.2137	1,681.64	86.0133	1,681.64	86.5127	1,681.64	86.2593	1,681.64	84.779	1,681.64	85.8447	1,681.64	84.0172	1,681.64	85.9374	1,681.64	82.6856	1,681.64	84.202	1,681.64	81.3493	1,681.64	81.8805	1,681.64	79.2685	1,681.64	81.9647	1,681.64	78.1313	1,681.64	79.7418	1,681.64	76.9027	1,681.64	78.1577	1,681.64	75.0953	1,681.64	77.2031	1,681.64	76.7048	1,681.64	78.6337	1,681.64	77.5964	1,681.64	74.7237	1,681.64	76.2056	1,681.64	71.3452	1,681.64	76.8746	1,681.64	75.7687	1,681.64	77.5603	1,681.64	74.3704	1,681.64	65.7874
1,741.7	89.394	1,741.7	89.7259	1,741.7	88.3913	1,741.7	89.5379	1,741.7	86.8061	1,741.7	88.6899	1,741.7	86.327	1,741.7	86.7529	1,741.7	87.3052	1,741.7	85.0464	1,741.7	87.3287	1,741.7	83.0081	1,741.7	86.6087	1,741.7	81.2115	1,741.7	85.1756	1,741.7	79.4482	1,741.7	84.1154	1,741.7	77.0868	1,741.7	81.2962	1,741.7	77.4463	1,741.7	80.3329	1,741.7	77.6903	1,741.7	79.217	1,741.7	74.635	1,741.7	78.5176	1,741.7	72.7682	1,741.7	79.8557	1,741.7	78.6518	1,741.7	76.5496	1,741.7	73.2796	1,741.7	76.0295	1,741.7	67.7361	1,741.7	74.9994	1,741.7	71.7971	1,741.7	67.797	1,741.7	67.5744
1,803.22	90.0563	1,803.22	90.5899	1,803.22	88.6183	1,803.22	90.2576	1,803.22	86.8474	1,803.22	89.3839	1,803.22	87.2876	1,803.22	87.7062	1,803.22	87.4394	1,803.22	85.8394	1,803.22	86.7489	1,803.22	84.3311	1,803.22	86.8185	1,803.22	83.1153	1,803.22	86.0884	1,803.22	82.1603	1,803.22	84.6234	1,803.22	80.7727	1,803.22	82.421	1,803.22	78.9292	1,803.22	80.5667	1,803.22	79.2363	1,803.22	78.6022	1,803.22	76.5943	1,803.22	79.1188	1,803.22	72.3998	1,803.22	80.712	1,803.22	73.8982	1,803.22	78.0055	1,803.22	76.1099	1,803.22	74.7667	1,803.22	73.7004	1,803.22	77.5492	1,803.22	73.3393	1,803.22	72.4162	1,803.22	67.0928
1,866.21	90.057	1,866.21	90.5128	1,866.21	88.6649	1,866.21	90.0599	1,866.21	86.8061	1,866.21	89.011	1,866.21	86.3487	1,866.21	87.3794	1,866.21	86.5829	1,866.21	85.9823	1,866.21	86.7133	1,866.21	83.7354	1,866.21	86.9364	1,866.21	82.4532	1,866.21	85.5726	1,866.21	81.5487	1,866.21	83.6832	1,866.21	80.2192	1,866.21	81.6402	1,866.21	78.2933	1,866.21	80.1094	1,866.21	77.6685	1,866.21	78.1374	1,866.21	77.86	1,866.21	78.08	1,866.21	73.257	1,866.21	79.0967	1,866.21	76.7816	1,866.21	76.6796	1,866.21	76.3176	1,866.21	74.9934	1,866.21	72.0111	1,866.21	76.5967	1,866.21	75.2589	1,866.21	67.0456	1,866.21	72.7964
1,932.13	89.7981	1,932.13	89.9989	1,932.13	87.9992	1,932.13	89.2833	1,932.13	85.7971	1,932.13	88.0502	1,932.13	85.2056	1,932.13	86.0024	1,932.13	85.9027	1,932.13	84.38	1,932.13	86.0661	1,932.13	82.7909	1,932.13	85.7467	1,932.13	81.7438	1,932.13	84.8882	1,932.13	80.3637	1,932.13	82.9022	1,932.13	80.1497	1,932.13	80.8282	1,932.13	78.5635	1,932.13	79.0226	1,932.13	77.1899	1,932.13	77.6947	1,932.13	76.918	1,932.13	76.4681	1,932.13	74.5198	1,932.13	78.684	1,932.13	75.2119	1,932.13	75.8043	1,932.13	76.2019	1,932.13	73.3074	1,932.13	72.799	1,932.13	75.6175	1,932.13	73.0152	1,932.13	71.0128	1,932.13	66.7189
1,999.51	90.0931	1,999.51	90.0775	1,999.51	88.5863	1,999.51	89.1472	1,999.51	86.5897	1,999.51	87.5174	1,999.51	85.9075	1,999.51	85.5774	1,999.51	86.6157	1,999.51	83.8497	1,999.51	86.9944	1,999.51	82.6705	1,999.51	86.4011	1,999.51	80.6474	1,999.51	85.451	1,999.51	79.676	1,999.51	83.9734	1,999.51	78.5305	1,999.51	82.1499	1,999.51	77.9353	1,999.51	80.5298	1,999.51	75.981	1,999.51	77.8708	1,999.51	76.2388	1,999.51	77.2635	1,999.51	72.9458	1,999.51	79.0777	1,999.51	72.9461	1,999.51	77.1596	1,999.51	75.1155	1,999.51	74.2344	1,999.51	70.3382	1,999.51	75.0803	1,999.51	73.4279	1,999.51	69.0757	1,999.51	70.5499
2,069.82	90.8119	2,069.82	91.0023	2,069.82	89.4689	2,069.82	89.8713	2,069.82	87.1254	2,069.82	88.0154	2,069.82	86.452	2,069.82	86.3941	2,069.82	87.506	2,069.82	84.6476	2,069.82	87.8469	2,069.82	83.3742	2,069.82	87.345	2,069.82	82.4362	2,069.82	85.9562	2,069.82	80.5944	2,069.82	84.7055	2,069.82	79.1158	2,069.82	82.6173	2,069.82	78.1698	2,069.82	81.3029	2,069.82	77.6296	2,069.82	78.7015	2,069.82	75.1905	2,069.82	78.0425	2,069.82	74.3632	2,069.82	79.7794	2,069.82	72.388	2,069.82	77.704	2,069.82	75.9775	2,069.82	75.6097	2,069.82	70.2998	2,069.82	76.7341	2,069.82	73.3438	2,069.82	67.1082	2,069.82	71.5974
2,143.07	90.8516	2,143.07	90.7596	2,143.07	89.3966	2,143.07	89.4604	2,143.07	86.7769	2,143.07	87.4837	2,143.07	85.3477	2,143.07	85.6688	2,143.07	86.6533	2,143.07	84.3202	2,143.07	87.4424	2,143.07	83.5191	2,143.07	86.9936	2,143.07	82.698	2,143.07	85.5132	2,143.07	81.9957	2,143.07	83.9727	2,143.07	80.572	2,143.07	82.3012	2,143.07	79.5704	2,143.07	80.4692	2,143.07	78.974	2,143.07	78.345	2,143.07	76.7799	2,143.07	76.1928	2,143.07	76.5752	2,143.07	78.9793	2,143.07	73.5177	2,143.07	77.7181	2,143.07	75.8466	2,143.07	75.1596	2,143.07	73.679	2,143.07	76.0744	2,143.07	71.7033	2,143.07	67.3351	2,143.07	71.8013
2,219.24	90.1451	2,219.24	89.5914	2,219.24	88.9871	2,219.24	87.9147	2,219.24	86.5196	2,219.24	85.669	2,219.24	84.1035	2,219.24	83.4838	2,219.24	85.3473	2,219.24	83.5321	2,219.24	86.6001	2,219.24	83.1816	2,219.24	86.5201	2,219.24	82.5109	2,219.24	85.4888	2,219.24	82.3657	2,219.24	83.7189	2,219.24	80.1821	2,219.24	81.487	2,219.24	79.2985	2,219.24	79.7999	2,219.24	79.3827	2,219.24	78.5028	2,219.24	77.1656	2,219.24	74.941	2,219.24	75.9128	2,219.24	76.7315	2,219.24	73.7504	2,219.24	76.6435	2,219.24	74.9973	2,219.24	72.2886	2,219.24	71.7906	2,219.24	76.0325	2,219.24	70.1232	2,219.24	68.9256	2,219.24	70.6739
2,296.88	90.5988	2,296.88	89.6893	2,296.88	89.8676	2,296.88	87.7154	2,296.88	87.621	2,296.88	85.6925	2,296.88	85.1626	2,296.88	84.6115	2,296.88	85.9397	2,296.88	83.7919	2,296.88	87.0714	2,296.88	82.9933	2,296.88	87.0346	2,296.88	82.028	2,296.88	86.1228	2,296.88	80.9068	2,296.88	84.3483	2,296.88	80.1738	2,296.88	82.1396	2,296.88	77.6273	2,296.88	79.9441	2,296.88	77.912	2,296.88	78.928	2,296.88	75.9701	2,296.88	75.3923	2,296.88	75.0143	2,296.88	77.4165	2,296.88	74.4584	2,296.88	77.2902	2,296.88	75.4044	2,296.88	74.7224	2,296.88	72.3057	2,296.88	75.6563	2,296.88	68.9441	2,296.88	65.5197	2,296.88	71.9882
2,378.91	90.8786	2,378.91	89.8895	2,378.91	90.3712	2,378.91	87.8691	2,378.91	87.8904	2,378.91	86.1962	2,378.91	85.4322	2,378.91	85.6524	2,378.91	85.533	2,378.91	85.2403	2,378.91	86.9831	2,378.91	84.4681	2,378.91	87.0496	2,378.91	83.788	2,378.91	85.9895	2,378.91	81.8234	2,378.91	83.9695	2,378.91	81.0738	2,378.91	81.6977	2,378.91	79.8337	2,378.91	79.6577	2,378.91	78.2229	2,378.91	78.5338	2,378.91	77.7817	2,378.91	74.4916	2,378.91	75.6996	2,378.91	77.1977	2,378.91	75.4248	2,378.91	77.2515	2,378.91	74.006	2,378.91	73.0302	2,378.91	75.7473	2,378.91	75.9039	2,378.91	65.6717	2,378.91	58.7194	2,378.91	69.3966
2,462.4	90.1371	2,462.4	88.5572	2,462.4	90.0287	2,462.4	86.5951	2,462.4	87.9005	2,462.4	85.9055	2,462.4	85.1664	2,462.4	86.1194	2,462.4	84.5796	2,462.4	85.5284	2,462.4	85.8619	2,462.4	84.3257	2,462.4	86.1892	2,462.4	83.9408	2,462.4	85.1762	2,462.4	82.0059	2,462.4	83.5122	2,462.4	81.6731	2,462.4	80.9257	2,462.4	80.4438	2,462.4	78.9248	2,462.4	79.3554	2,462.4	76.7433	2,462.4	78.2189	2,462.4	74.3642	2,462.4	77.0503	2,462.4	74.0707	2,462.4	76.7487	2,462.4	76.409	2,462.4	74.9416	2,462.4	70.0499	2,462.4	74.9292	2,462.4	74.3757	2,462.4	67.0747	2,462.4	62.865	2,462.4	71.6129
2,548.83	89.916	2,548.83	87.8899	2,548.83	90.1143	2,548.83	86.6067	2,548.83	88.6382	2,548.83	86.4125	2,548.83	86.0439	2,548.83	86.5855	2,548.83	85.3903	2,548.83	85.9035	2,548.83	86.3063	2,548.83	84.7145	2,548.83	86.8182	2,548.83	83.6872	2,548.83	85.6068	2,548.83	82.8028	2,548.83	84.1301	2,548.83	81.1488	2,548.83	81.8028	2,548.83	80.0475	2,548.83	79.7793	2,548.83	77.5212	2,548.83	77.0552	2,548.83	78.2712	2,548.83	76.4941	2,548.83	75.7138	2,548.83	75.5393	2,548.83	76.4608	2,548.83	76.7378	2,548.83	75.4455	2,548.83	72.9646	2,548.83	76.2811	2,548.83	74.7635	2,548.83	67.8336	2,548.83	60.9118	2,548.83	71.9988
2,639.65	89.6901	2,639.65	88.0066	2,639.65	90.257	2,639.65	86.9362	2,639.65	88.7828	2,639.65	87.3223	2,639.65	85.9627	2,639.65	87.0877	2,639.65	85.2891	2,639.65	86.9207	2,639.65	86.1601	2,639.65	86.2435	2,639.65	86.4644	2,639.65	84.4473	2,639.65	85.2585	2,639.65	83.525	2,639.65	83.8552	2,639.65	80.8699	2,639.65	81.6058	2,639.65	80.412	2,639.65	78.9781	2,639.65	77.4407	2,639.65	77.0068	2,639.65	77.5954	2,639.65	76.1873	2,639.65	75.5096	2,639.65	74.1613	2,639.65	76.4116	2,639.65	77.0476	2,639.65	74.7981	2,639.65	71.1496	2,639.65	76.2056	2,639.65	74.1394	2,639.65	69.9029	2,639.65	59.9213	2,639.65	73.3457
2,731.93	88.759	2,731.93	87.7037	2,731.93	89.9441	2,731.93	87.1847	2,731.93	89.1103	2,731.93	87.7488	2,731.93	86.3563	2,731.93	87.3657	2,731.93	84.9315	2,731.93	87.2121	2,731.93	85.9065	2,731.93	86.4838	2,731.93	85.9377	2,731.93	85.1027	2,731.93	84.8597	2,731.93	83.7162	2,731.93	83.0523	2,731.93	81.4802	2,731.93	80.8548	2,731.93	80.1639	2,731.93	77.7461	2,731.93	78.3538	2,731.93	75.8769	2,731.93	78.0632	2,731.93	73.977	2,731.93	76.1731	2,731.93	70.7036	2,731.93	76.1823	2,731.93	75.4777	2,731.93	76.3928	2,731.93	69.067	2,731.93	77.1713	2,731.93	71.2006	2,731.93	71.9725	2,731.93	65.5257	2,731.93	73.4229
2,828.61	89.0777	2,828.61	88.0298	2,828.61	90.0278	2,828.61	88.7846	2,828.61	89.8216	2,828.61	88.8315	2,828.61	87.8304	2,828.61	88.2123	2,828.61	86.2423	2,828.61	86.9052	2,828.61	86.8225	2,828.61	85.7016	2,828.61	87.2369	2,828.61	84.0705	2,828.61	86.2064	2,828.61	82.4997	2,828.61	83.766	2,828.61	81.434	2,828.61	81.8466	2,828.61	78.5872	2,828.61	79.6971	2,828.61	78.3237	2,828.61	77.7305	2,828.61	76.8901	2,828.61	75.0378	2,828.61	76.0965	2,828.61	73.6803	2,828.61	75.4561	2,828.61	77.1064	2,828.61	76.1958	2,828.61	69.7052	2,828.61	76.4354	2,828.61	72.025	2,828.61	71.0594	2,828.61	62.1828	2,828.61	73.2655
2,928.22	89.0323	2,928.22	88.6874	2,928.22	90.0513	2,928.22	89.4735	2,928.22	89.7421	2,928.22	89.5704	2,928.22	87.9229	2,928.22	88.847	2,928.22	86.4813	2,928.22	87.4167	2,928.22	86.8333	2,928.22	85.6524	2,928.22	86.9535	2,928.22	84.2677	2,928.22	86.2993	2,928.22	82.6528	2,928.22	83.8423	2,928.22	81.5867	2,928.22	81.8083	2,928.22	79.5014	2,928.22	79.3013	2,928.22	78.4113	2,928.22	77.7063	2,928.22	75.8171	2,928.22	75.2761	2,928.22	75.8022	2,928.22	73.6656	2,928.22	73.1249	2,928.22	76.5414	2,928.22	76.6992	2,928.22	71.4037	2,928.22	76.409	2,928.22	72.1941	2,928.22	73.9797	2,928.22	65.7577	2,928.22	74.1126
3,030.76	88.7118	3,030.76	88.6618	3,030.76	89.7735	3,030.76	89.7067	3,030.76	89.9509	3,030.76	89.2641	3,030.76	88.2324	3,030.76	88.0722	3,030.76	86.3827	3,030.76	86.4099	3,030.76	86.881	3,030.76	85.0034	3,030.76	87.097	3,030.76	82.5003	3,030.76	86.0291	3,030.76	81.1313	3,030.76	84.2526	3,030.76	79.7398	3,030.76	80.8096	3,030.76	79.096	3,030.76	78.7132	3,030.76	77.0346	3,030.76	75.3733	3,030.76	74.48	3,030.76	73.9661	3,030.76	74.9913	3,030.76	72.0546	3,030.76	72.4897	3,030.76	71.8618	3,030.76	76.4462	3,030.76	70.1331	3,030.76	74.876	3,030.76	71.1173	3,030.76	72.6158	3,030.76	69.8691	3,030.76	73.1951
3,137.7	88.9822	3,137.7	89.877	3,137.7	90.3607	3,137.7	90.3024	3,137.7	90.4296	3,137.7	89.5763	3,137.7	89.4447	3,137.7	88.4764	3,137.7	87.4822	3,137.7	87.7236	3,137.7	87.7316	3,137.7	85.4436	3,137.7	87.8766	3,137.7	84.0325	3,137.7	87.1235	3,137.7	81.7564	3,137.7	84.822	3,137.7	80.2806	3,137.7	81.9279	3,137.7	78.949	3,137.7	78.8551	3,137.7	75.2393	3,137.7	77.2711	3,137.7	74.7244	3,137.7	75.3927	3,137.7	72.8374	3,137.7	70.4254	3,137.7	72.6605	3,137.7	74.68	3,137.7	75.2057	3,137.7	68.9514	3,137.7	75.0137	3,137.7	68.1763	3,137.7	75.6978	3,137.7	71.754	3,137.7	73.3268
3,249.02	89.2197	3,249.02	90.3209	3,249.02	89.5213	3,249.02	90.325	3,249.02	90.2224	3,249.02	89.4705	3,249.02	89.1901	3,249.02	88.1241	3,249.02	87.862	3,249.02	87.0731	3,249.02	87.7534	3,249.02	85.7305	3,249.02	87.9528	3,249.02	84.5514	3,249.02	86.951	3,249.02	82.0074	3,249.02	84.5554	3,249.02	80.7941	3,249.02	82.3564	3,249.02	78.3389	3,249.02	79.0476	3,249.02	78.1666	3,249.02	78.1904	3,249.02	76.4589	3,249.02	76.828	3,249.02	75.0631	3,249.02	73.9314	3,249.02	72.249	3,249.02	73.7791	3,249.02	73.5697	3,249.02	71.3816	3,249.02	74.3572	3,249.02	60.9597	3,249.02	75.5238	3,249.02	72.7085	3,249.02	75.5522
3,363.28	89.0962	3,363.28	90.2	3,363.28	89.0338	3,363.28	89.6122	3,363.28	89.8467	3,363.28	88.564	3,363.28	89.1826	3,363.28	87.8723	3,363.28	87.7897	3,363.28	86.7937	3,363.28	87.813	3,363.28	85.2569	3,363.28	87.8992	3,363.28	84.2986	3,363.28	87.0071	3,363.28	81.674	3,363.28	84.709	3,363.28	80.4252	3,363.28	82.2394	3,363.28	78.2555	3,363.28	78.8104	3,363.28	78.5339	3,363.28	77.5468	3,363.28	75.0721	3,363.28	74.9396	3,363.28	74.7955	3,363.28	75.1097	3,363.28	71.1553	3,363.28	73.3737	3,363.28	74.7848	3,363.28	72.1667	3,363.28	75.402	3,363.28	69.3172	3,363.28	75.3418	3,363.28	73.2124	3,363.28	75.5589
3,481.93	90.1526	3,481.93	90.9501	3,481.93	88.4471	3,481.93	90.434	3,481.93	89.9954	3,481.93	89.1068	3,481.93	89.3907	3,481.93	88.0911	3,481.93	88.3344	3,481.93	85.9756	3,481.93	87.7408	3,481.93	86.1978	3,481.93	88.3861	3,481.93	84.6721	3,481.93	87.3295	3,481.93	83.6342	3,481.93	85.8896	3,481.93	81.5388	3,481.93	83.6496	3,481.93	79.5701	3,481.93	80.0519	3,481.93	77.4615	3,481.93	77.3251	3,481.93	77.0174	3,481.93	74.9802	3,481.93	75.4558	3,481.93	76.7228	3,481.93	70.1963	3,481.93	73.118	3,481.93	73.5317	3,481.93	71.1856	3,481.93	75.0461	3,481.93	65.2835	3,481.93	70.9369	3,481.93	76.7591	3,481.93	72.9409
3,604.98	89.8898	3,604.98	90.3179	3,604.98	88.8722	3,604.98	89.5898	3,604.98	89.2677	3,604.98	89.0714	3,604.98	88.8487	3,604.98	88.0336	3,604.98	87.0332	3,604.98	87.6834	3,604.98	87.5664	3,604.98	86.3792	3,604.98	88.1059	3,604.98	85.6469	3,604.98	87.079	3,604.98	84.7838	3,604.98	85.8703	3,604.98	82.2211	3,604.98	82.476	3,604.98	81.7951	3,604.98	79.5646	3,604.98	78.5407	3,604.98	77.3397	3,604.98	75.9313	3,604.98	75.5549	3,604.98	76.171	3,604.98	72.2831	3,604.98	72.7898	3,604.98	73.4512	3,604.98	72.5212	3,604.98	70.8539	3,604.98	73.498	3,604.98	68.1694	3,604.98	74.172	3,604.98	75.0622	3,604.98	73.2002
3,732.42	89.715	3,732.42	90.1924	3,732.42	88.2386	3,732.42	89.6898	3,732.42	88.8689	3,732.42	89.2468	3,732.42	89.3716	3,732.42	88.5404	3,732.42	87.5366	3,732.42	88.0889	3,732.42	87.4771	3,732.42	87.1969	3,732.42	88.3495	3,732.42	85.5753	3,732.42	87.9091	3,732.42	85.2297	3,732.42	85.1715	3,732.42	82.0038	3,732.42	82.5508	3,732.42	81.096	3,732.42	79.3657	3,732.42	78.1542	3,732.42	76.836	3,732.42	75.9687	3,732.42	75.9402	3,732.42	75.3701	3,732.42	75.8932	3,732.42	72.9518	3,732.42	75.7183	3,732.42	71.7375	3,732.42	67.4272	3,732.42	71.8403	3,732.42	63.3367	3,732.42	74.6502	3,732.42	74.1677	3,732.42	69.6539
3,864.26	89.361	3,864.26	89.4576	3,864.26	89.455	3,864.26	88.387	3,864.26	88.7606	3,864.26	88.6255	3,864.26	89.7761	3,864.26	88.8284	3,864.26	87.9389	3,864.26	89.6489	3,864.26	87.4995	3,864.26	87.6803	3,864.26	87.7027	3,864.26	86.506	3,864.26	87.4707	3,864.26	84.4841	3,864.26	85.8114	3,864.26	82.5199	3,864.26	82.6048	3,864.26	79.7329	3,864.26	79.338	3,864.26	77.7278	3,864.26	75.6785	3,864.26	74.584	3,864.26	73.6221	3,864.26	73.0925	3,864.26	70.8514	3,864.26	73.1107	3,864.26	75.1313	3,864.26	64.0118	3,864.26	73.3535	3,864.26	72.0606	3,864.26	67.3076	3,864.26	74.3762	3,864.26	73.8856	3,864.26	70.4637
4,000.49	88.705	4,000.49	88.12	4,000.49	88.4265	4,000.49	87.6632	4,000.49	88.7169	4,000.49	88.1168	4,000.49	89.8714	4,000.49	88.724	4,000.49	87.7947	4,000.49	89.0736	4,000.49	86.6334	4,000.49	87.06	4,000.49	87.1917	4,000.49	84.983	4,000.49	86.6844	4,000.49	82.3937	4,000.49	83.7967	4,000.49	80.1833	4,000.49	80.8562	4,000.49	77.9462	4,000.49	79.221	4,000.49	77.8444	4,000.49	75.2801	4,000.49	74.1806	4,000.49	74.6594	4,000.49	69.9867	4,000.49	69.165	4,000.49	71.6929	4,000.49	73.7361	4,000.49	68.3454	4,000.49	72.9172	4,000.49	71.4099	4,000.49	67.0601	4,000.49	72.8003	4,000.49	72.013	4,000.49	71.3949
4,141.11	88.2458	4,141.11	87.7171	4,141.11	86.6348	4,141.11	87.9678	4,141.11	88.1688	4,141.11	88.4362	4,141.11	89.6206	4,141.11	90.0819	4,141.11	89.1767	4,141.11	87.8811	4,141.11	86.4422	4,141.11	85.9699	4,141.11	86.6636	4,141.11	82.9966	4,141.11	86.6333	4,141.11	81.5411	4,141.11	83.464	4,141.11	79.1869	4,141.11	80.8149	4,141.11	75.9165	4,141.11	76.6003	4,141.11	75.823	4,141.11	75.2111	4,141.11	72.7143	4,141.11	72.5602	4,141.11	73.4201	4,141.11	74.1856	4,141.11	71.2289	4,141.11	71.2527	4,141.11	57.6748	4,141.11	69.0542	4,141.11	67.1228	4,141.11	64.7545	4,141.11	69.6441	4,141.11	69.7093	4,141.11	69.3788
4,287.6	88.8156	4,287.6	89.0769	4,287.6	87.5063	4,287.6	88.9731	4,287.6	87.7923	4,287.6	89.8103	4,287.6	89.1456	4,287.6	89.7628	4,287.6	88.4992	4,287.6	86.4635	4,287.6	85.7626	4,287.6	84.1726	4,287.6	86.2107	4,287.6	81.6943	4,287.6	84.8064	4,287.6	79.0015	4,287.6	83.5707	4,287.6	77.0355	4,287.6	82.076	4,287.6	73.2928	4,287.6	76.4806	4,287.6	70.4941	4,287.6	75.3851	4,287.6	73.8949	4,287.6	71.3479	4,287.6	68.9535	4,287.6	72.2833	4,287.6	60.3544	4,287.6	72.5439	4,287.6	65.2029	4,287.6	68.9018	4,287.6	62.9829	4,287.6	67.6911	4,287.6	62.9669	4,287.6	71.1293	4,287.6	66.9208
4,438.48	88.9051	4,438.48	88.6004	4,438.48	89.7288	4,438.48	89.5773	4,438.48	87.0285	4,438.48	89.6896	4,438.48	88.4126	4,438.48	86.6146	4,438.48	86.8442	4,438.48	84.3404	4,438.48	84.5125	4,438.48	82.4626	4,438.48	85.1483	4,438.48	81.2841	4,438.48	84.4652	4,438.48	79.6683	4,438.48	82.4193	4,438.48	76.5871	4,438.48	78.8879	4,438.48	77.5418	4,438.48	77.8901	4,438.48	74.3781	4,438.48	71.5531	4,438.48	75.7872	4,438.48	69.7079	4,438.48	70.6375	4,438.48	71.9762	4,438.48	72.5662	4,438.48	72.7706	4,438.48	65.6251	4,438.48	67.3474	4,438.48	60.0845	4,438.48	69.0504	4,438.48	63.931	4,438.48	68.7156	4,438.48	60.6817
4,595.21	89.9691	4,595.21	88.8134	4,595.21	90.8286	4,595.21	90.5419	4,595.21	87.6251	4,595.21	88.6395	4,595.21	88.8848	4,595.21	85.4634	4,595.21	88.0571	4,595.21	84.56	4,595.21	85.7701	4,595.21	80.8661	4,595.21	86.2356	4,595.21	79.4511	4,595.21	85.1107	4,595.21	77.2092	4,595.21	81.6927	4,595.21	74.6575	4,595.21	79.4051	4,595.21	73.8809	4,595.21	76.4051	4,595.21	76.8435	4,595.21	73.2271	4,595.21	73.6599	4,595.21	71.944	4,595.21	75.985	4,595.21	67.9421	4,595.21	67.5614	4,595.21	70.873	4,595.21	66.7978	4,595.21	69.7198	4,595.21	68.2399	4,595.21	66.3437	4,595.21	59.3395	4,595.21	67.4411	4,595.21	54.4069
4,756.35	89.3664	4,756.35	90.0039	4,756.35	88.3177	4,756.35	88.8781	4,756.35	87.6703	4,756.35	87.9038	4,756.35	87.7799	4,756.35	86.8398	4,756.35	88.368	4,756.35	84.0695	4,756.35	86.7229	4,756.35	83.8975	4,756.35	83.8043	4,756.35	80.7199	4,756.35	83.6696	4,756.35	78.2499	4,756.35	82.7005	4,756.35	80.5589	4,756.35	77.6712	4,756.35	77.538	4,756.35	76.2121	4,756.35	76.065	4,756.35	73.4341	4,756.35	74.0863	4,756.35	72.4047	4,756.35	76.9443	4,756.35	67.5281	4,756.35	73.5652	4,756.35	65.7563	4,756.35	73.1228	4,756.35	69.3452	4,756.35	67.1944	4,756.35	51.1544	4,756.35	69.7186	4,756.35	61.124	4,756.35	60.8528
4,924.8	89.806	4,924.8	90.7845	4,924.8	88.2856	4,924.8	89.7833	4,924.8	88.1874	4,924.8	89.9395	4,924.8	88.1083	4,924.8	89.1537	4,924.8	88.7827	4,924.8	86.6719	4,924.8	86.3332	4,924.8	85.2162	4,924.8	84.8431	4,924.8	82.4176	4,924.8	83.7474	4,924.8	82.5913	4,924.8	83.1636	4,924.8	80.2647	4,924.8	79.7009	4,924.8	80.7552	4,924.8	77.8132	4,924.8	71.4	4,924.8	72.663	4,924.8	68.0818	4,924.8	73.332	4,924.8	66.2618	4,924.8	69.4751	4,924.8	74.9454	4,924.8	70.1369	4,924.8	70.2359	4,924.8	67.9225	4,924.8	65.9929	4,924.8	61.8747	4,924.8	70.2078	4,924.8	62.9063	4,924.8	60.5069
5,097.66	89.2083	5,097.66	89.5721	5,097.66	90.076	5,097.66	89.8692	5,097.66	87.415	5,097.66	88.0296	5,097.66	88.5979	5,097.66	86.2593	5,097.66	86.9636	5,097.66	85.2713	5,097.66	83.9097	5,097.66	84.2355	5,097.66	84.5703	5,097.66	82.2672	5,097.66	84.6977	5,097.66	82.102	5,097.66	81.6144	5,097.66	77.8495	5,097.66	79.2606	5,097.66	78.5301	5,097.66	74.9065	5,097.66	72.9027	5,097.66	73.1916	5,097.66	74.0227	5,097.66	71.6434	5,097.66	67.7808	5,097.66	70.1098	5,097.66	70.4106	5,097.66	70.2188	5,097.66	69.5627	5,097.66	69.1551	5,097.66	73.888	5,097.66	60.9287	5,097.66	67.7247	5,097.66	64.2978	5,097.66	61.284
5,277.83	89.6613	5,277.83	89.7738	5,277.83	89.4397	5,277.83	89.6001	5,277.83	87.7115	5,277.83	87.981	5,277.83	86.9681	5,277.83	86.2079	5,277.83	87.1626	5,277.83	85.9683	5,277.83	84.3482	5,277.83	85.2178	5,277.83	83.9391	5,277.83	83.6758	5,277.83	85.0678	5,277.83	80.387	5,277.83	82.6437	5,277.83	78.594	5,277.83	79.2741	5,277.83	68.5141	5,277.83	74.308	5,277.83	75.5684	5,277.83	72.5841	5,277.83	73.3778	5,277.83	69.133	5,277.83	73.3783	5,277.83	71.6484	5,277.83	66.009	5,277.83	70.0422	5,277.83	69.9748	5,277.83	67.6473	5,277.83	71.2836	5,277.83	63.5107	5,277.83	66.4704	5,277.83	66.3521	5,277.83	63.6056
5,463.87	88.7974	5,463.87	88.6144	5,463.87	88.5757	5,463.87	87.6347	5,463.87	88.2243	5,463.87	86.181	5,463.87	85.7079	5,463.87	86.2112	5,463.87	87.8738	5,463.87	84.7898	5,463.87	85.9692	5,463.87	82.9652	5,463.87	83.6852	5,463.87	81.7188	5,463.87	83.7485	5,463.87	78.8138	5,463.87	82.5134	5,463.87	79.0226	5,463.87	78.4461	5,463.87	75.8403	5,463.87	74.4943	5,463.87	75.472	5,463.87	71.1328	5,463.87	72.4081	5,463.87	69.7277	5,463.87	73.2757	5,463.87	69.0229	5,463.87	73.2411	5,463.87	67.3991	5,463.87	71.2945	5,463.87	66.0547	5,463.87	69.7352	5,463.87	64.0167	5,463.87	67.288	5,463.87	63.3463	5,463.87	61.5307
5,657.23	88.123	5,657.23	88.2766	5,657.23	88.7271	5,657.23	88.0192	5,657.23	88.2005	5,657.23	86.1412	5,657.23	86.8818	5,657.23	86.7499	5,657.23	87.561	5,657.23	84.6434	5,657.23	85.7145	5,657.23	82.2575	5,657.23	84.4639	5,657.23	81.4138	5,657.23	83.9085	5,657.23	81.4501	5,657.23	80.6269	5,657.23	80.1717	5,657.23	79.3365	5,657.23	80.1373	5,657.23	75.5568	5,657.23	75.3153	5,657.23	71.6919	5,657.23	74.5221	5,657.23	70.3434	5,657.23	70.8943	5,657.23	70.2686	5,657.23	73.7338	5,657.23	67.9294	5,657.23	70.1584	5,657.23	66.0795	5,657.23	68.3693	5,657.23	63.2902	5,657.23	70.859	5,657.23	63.8974	5,657.23	66.3267
5,856.45	88.0837	5,856.45	88.2828	5,856.45	87.92	5,856.45	87.5525	5,856.45	87.4511	5,856.45	87.3317	5,856.45	85.8702	5,856.45	86.1774	5,856.45	86.5269	5,856.45	84.8145	5,856.45	84.6825	5,856.45	84.6436	5,856.45	83.2342	5,856.45	82.6903	5,856.45	83.053	5,856.45	81.3155	5,856.45	81.5976	5,856.45	77.7924	5,856.45	78.9762	5,856.45	77.4262	5,856.45	74.5544	5,856.45	73.9088	5,856.45	69.8812	5,856.45	69.9897	5,856.45	68.4302	5,856.45	70.7893	5,856.45	69.8375	5,856.45	68.7644	5,856.45	65.4511	5,856.45	65.6009	5,856.45	65.6811	5,856.45	67.1219	5,856.45	62.3688	5,856.45	68.7987	5,856.45	61.3567	5,856.45	66.0523
6,062.99	88.2096	6,062.99	87.986	6,062.99	87.1759	6,062.99	86.3951	6,062.99	87.6463	6,062.99	87.187	6,062.99	85.1143	6,062.99	84.9059	6,062.99	86.5866	6,062.99	84.9283	6,062.99	86.096	6,062.99	85.1098	6,062.99	83.6896	6,062.99	83.4584	6,062.99	83.7281	6,062.99	80.1398	6,062.99	83.0555	6,062.99	77.3211	6,062.99	79.2686	6,062.99	73.3268	6,062.99	75.1394	6,062.99	72.5739	6,062.99	71.8873	6,062.99	72.1256	6,062.99	68.6344	6,062.99	73.4159	6,062.99	70.0235	6,062.99	68.8275	6,062.99	66.0832	6,062.99	62.1409	6,062.99	64.637	6,062.99	67.0838	6,062.99	58.7369	6,062.99	67.489	6,062.99	57.1692	6,062.99	66.2266
6,276.86	88.9716	6,276.86	87.8107	6,276.86	88.5119	6,276.86	86.8762	6,276.86	88.4485	6,276.86	86.9482	6,276.86	86.9273	6,276.86	85.9456	6,276.86	86.6385	6,276.86	85.9896	6,276.86	86.9002	6,276.86	84.7364	6,276.86	85.7436	6,276.86	82.4895	6,276.86	85.9886	6,276.86	78.6646	6,276.86	83.0276	6,276.86	77.129	6,276.86	80.0389	6,276.86	74.2869	6,276.86	74.3045	6,276.86	74.1183	6,276.86	73.6881	6,276.86	69.5079	6,276.86	67.7646	6,276.86	72.9264	6,276.86	69.6454	6,276.86	64.4322	6,276.86	65.3838	6,276.86	65.4541	6,276.86	64.6209	6,276.86	67.4867	6,276.86	65.0249	6,276.86	68.3321	6,276.86	56.4732	6,276.86	65.9944
6,498.05	89.0178	6,498.05	87.3773	6,498.05	89.0573	6,498.05	87.4655	6,498.05	88.7744	6,498.05	86.162	6,498.05	88.0082	6,498.05	87.3053	6,498.05	86.4191	6,498.05	86.075	6,498.05	86.0897	6,498.05	83.5971	6,498.05	85.3508	6,498.05	81.5182	6,498.05	85.002	6,498.05	79.8965	6,498.05	81.7236	6,498.05	77.4156	6,498.05	79.8789	6,498.05	76.0105	6,498.05	75.2864	6,498.05	73.7995	6,498.05	72.583	6,498.05	69.9496	6,498.05	66.3736	6,498.05	72.7388	6,498.05	70.1187	6,498.05	69.3353	6,498.05	66.2791	6,498.05	69.2589	6,498.05	65.2275	6,498.05	66.3023	6,498.05	63.8932	6,498.05	65.7489	6,498.05	54.1268	6,498.05	64.7504
6,726.56	89.4013	6,726.56	88.2643	6,726.56	89.9607	6,726.56	88.3342	6,726.56	89.1458	6,726.56	86.8012	6,726.56	88.5979	6,726.56	88.3996	6,726.56	86.9781	6,726.56	86.6919	6,726.56	87.3112	6,726.56	85.133	6,726.56	85.0522	6,726.56	82.8784	6,726.56	83.9341	6,726.56	81.4621	6,726.56	83.2392	6,726.56	79.0395	6,726.56	79.2157	6,726.56	76.2985	6,726.56	75.9296	6,726.56	73.078	6,726.56	71.8998	6,726.56	73.0763	6,726.56	69.1729	6,726.56	67.3632	6,726.56	68.3132	6,726.56	67.6248	6,726.56	68.4697	6,726.56	69.9889	6,726.56	42.2683	6,726.56	69.357	6,726.56	50.6964	6,726.56	66.1799	6,726.56	42.5817	6,726.56	63.7903
6,963.87	89.7223	6,963.87	89.2359	6,963.87	90.4779	6,963.87	88.5201	6,963.87	89.5989	6,963.87	88.8561	6,963.87	89.446	6,963.87	88.4946	6,963.87	87.6137	6,963.87	87.589	6,963.87	87.9155	6,963.87	86.3565	6,963.87	86.2303	6,963.87	83.5083	6,963.87	86.373	6,963.87	80.6668	6,963.87	83.5536	6,963.87	78.55	6,963.87	79.6219	6,963.87	75.5668	6,963.87	75.496	6,963.87	73.7329	6,963.87	72.3836	6,963.87	70.4989	6,963.87	69.936	6,963.87	64.0721	6,963.87	68.0217	6,963.87	66.2926	6,963.87	65.5198	6,963.87	62.4134	6,963.87	66.2446	6,963.87	66.3553	6,963.87	59.8847	6,963.87	63.6245	6,963.87	47.7992	6,963.87	62.0112
7,209.96	89.3378	7,209.96	89.2749	7,209.96	90.5154	7,209.96	88.1599	7,209.96	89.1772	7,209.96	89.2913	7,209.96	89.5645	7,209.96	88.4889	7,209.96	87.9978	7,209.96	87.3897	7,209.96	87.2761	7,209.96	85.5482	7,209.96	86.5661	7,209.96	83.2911	7,209.96	85.8045	7,209.96	80.2797	7,209.96	83.1645	7,209.96	77.8322	7,209.96	79.3173	7,209.96	75.9644	7,209.96	76.3104	7,209.96	73.4167	7,209.96	70.5641	7,209.96	71.474	7,209.96	69.9192	7,209.96	70.2969	7,209.96	67.1579	7,209.96	71.1873	7,209.96	62.6927	7,209.96	68.3811	7,209.96	67.346	7,209.96	62.1053	7,209.96	61.411	7,209.96	62.9874	7,209.96	56.2941	7,209.96	62.2461
7,464.84	88.6923	7,464.84	88.5731	7,464.84	90.0646	7,464.84	88.5303	7,464.84	89.091	7,464.84	89.3254	7,464.84	88.8753	7,464.84	88.5059	7,464.84	88.3216	7,464.84	87.1515	7,464.84	87.477	7,464.84	85.1694	7,464.84	86.1623	7,464.84	83.3121	7,464.84	85.1977	7,464.84	80.725	7,464.84	82.9448	7,464.84	77.2948	7,464.84	79.4058	7,464.84	76.8195	7,464.84	72.5132	7,464.84	72.3565	7,464.84	71.7954	7,464.84	71.4263	7,464.84	69.4326	7,464.84	69.1508	7,464.84	64.906	7,464.84	69.6911	7,464.84	66.3295	7,464.84	69.1478	7,464.84	56.5501	7,464.84	66.1429	7,464.84	66.4266	7,464.84	67.1895	7,464.84	57.5875	7,464.84	63.7058
7,727.05	88.4019	7,727.05	88.3833	7,727.05	89.9741	7,727.05	88.8709	7,727.05	88.7608	7,727.05	89.1977	7,727.05	88.9823	7,727.05	88.7274	7,727.05	88.2936	7,727.05	87.1129	7,727.05	87.6371	7,727.05	85.4342	7,727.05	86.1153	7,727.05	83.2977	7,727.05	85.0413	7,727.05	80.3221	7,727.05	83.0588	7,727.05	77.4508	7,727.05	79.1283	7,727.05	73.6699	7,727.05	74.3533	7,727.05	72.717	7,727.05	71.0757	7,727.05	72.7324	7,727.05	64.814	7,727.05	69.1565	7,727.05	65.891	7,727.05	66.7828	7,727.05	62.5849	7,727.05	65.7575	7,727.05	65.791	7,727.05	63.0396	7,727.05	58.437	7,727.05	67.6206	7,727.05	58.2761	7,727.05	60.8001
7,999.51	88.2955	7,999.51	88.1162	7,999.51	89.6141	7,999.51	89.0372	7,999.51	89.6676	7,999.51	88.5024	7,999.51	88.9027	7,999.51	88.5114	7,999.51	88.4916	7,999.51	86.5813	7,999.51	87.1936	7,999.51	85.4113	7,999.51	86.003	7,999.51	81.5234	7,999.51	84.8607	7,999.51	79.162	7,999.51	82.8359	7,999.51	76.5881	7,999.51	79.5218	7,999.51	74.0782	7,999.51	74.6463	7,999.51	73.3121	7,999.51	70.3814	7,999.51	67.3509	7,999.51	65.9898	7,999.51	65.4053	7,999.51	61.5662	7,999.51	65.6296	7,999.51	63.0732	7,999.51	68.9695	7,999.51	63.0053	7,999.51	65.485	7,999.51	47.8981	7,999.51	65.8148	7,999.51	54.0417	7,999.51	58.6219
8,282.23	88.4193	8,282.23	88.0853	8,282.23	88.9836	8,282.23	88.8584	8,282.23	89.4443	8,282.23	88.4195	8,282.23	88.3863	8,282.23	87.8621	8,282.23	88.105	8,282.23	86.3704	8,282.23	87.581	8,282.23	84.1045	8,282.23	85.3118	8,282.23	80.2711	8,282.23	84.301	8,282.23	77.5266	8,282.23	82.2859	8,282.23	74.6931	8,282.23	79.1966	8,282.23	72.6462	8,282.23	74.6919	8,282.23	73.0641	8,282.23	71.1475	8,282.23	67.0529	8,282.23	70.1421	8,282.23	66.5472	8,282.23	58.2786	8,282.23	64.9783	8,282.23	62.1934	8,282.23	67.0001	8,282.23	63.8883	8,282.23	63.4858	8,282.23	56.3343	8,282.23	62.665	8,282.23	60.4163	8,282.23	54.6871
8,573.73	88.3199	8,573.73	88.216	8,573.73	88.2577	8,573.73	88.7737	8,573.73	89.2376	8,573.73	88.3474	8,573.73	88.6848	8,573.73	87.6902	8,573.73	87.823	8,573.73	85.6232	8,573.73	86.6548	8,573.73	82.6277	8,573.73	85.5896	8,573.73	80.7596	8,573.73	84.3262	8,573.73	78.4528	8,573.73	81.2886	8,573.73	73.1502	8,573.73	78.9101	8,573.73	72.514	8,573.73	74.0519	8,573.73	70.0956	8,573.73	71.1439	8,573.73	63.856	8,573.73	65.2518	8,573.73	68.3225	8,573.73	63.7941	8,573.73	65.3355	8,573.73	58.6633	8,573.73	64.2086	8,573.73	61.712	8,573.73	56.0575	8,573.73	33.388	8,573.73	60.1709	8,573.73	59.8374	8,573.73	46.4998
8,876.95	88.1227	8,876.95	88.4107	8,876.95	88.4721	8,876.95	88.3609	8,876.95	88.8707	8,876.95	88.2721	8,876.95	88.2852	8,876.95	87.0242	8,876.95	88.0866	8,876.95	84.5924	8,876.95	87.0587	8,876.95	82.815	8,876.95	85.4608	8,876.95	79.4037	8,876.95	83.4594	8,876.95	76.4255	8,876.95	80.568	8,876.95	72.2362	8,876.95	78.0892	8,876.95	70.3202	8,876.95	73.5869	8,876.95	66.4494	8,876.95	69.4476	8,876.95	68.5171	8,876.95	68.2879	8,876.95	65.5672	8,876.95	64.3515	8,876.95	61.1848	8,876.95	52.8502	8,876.95	61.4856	8,876.95	63.9312	8,876.95	38.6031	8,876.95	51.4511	8,876.95	60.4744	8,876.95	54.7717	8,876.95	50.875
9,188.96	88.2043	9,188.96	89.2053	9,188.96	88.8235	9,188.96	88.6665	9,188.96	89.2068	9,188.96	88.5144	9,188.96	89.141	9,188.96	86.8725	9,188.96	87.386	9,188.96	85.4571	9,188.96	86.2948	9,188.96	82.8255	9,188.96	84.8722	9,188.96	79.4269	9,188.96	82.3569	9,188.96	75.6859	9,188.96	80.2104	9,188.96	74.4075	9,188.96	76.9301	9,188.96	70.0096	9,188.96	73.0278	9,188.96	68.1952	9,188.96	70.4289	9,188.96	65.5054	9,188.96	68.5182	9,188.96	66.0379	9,188.96	67.5158	9,188.96	49.3105	9,188.96	61.4372	9,188.96	56.6587	9,188.96	64.3078	9,188.96	56.9685	9,188.96	35.6644	9,188.96	56.7125	9,188.96	57.3175	9,188.96	56.6955
9,514.16	89.2436	9,514.16	89.5193	9,514.16	89.2066	9,514.16	88.3601	9,514.16	89.4093	9,514.16	87.3676	9,514.16	89.152	9,514.16	87.3852	9,514.16	87.7899	9,514.16	83.9536	9,514.16	85.9913	9,514.16	81.0623	9,514.16	84.3001	9,514.16	76.4736	9,514.16	80.5921	9,514.16	75.4233	9,514.16	78.7855	9,514.16	73.402	9,514.16	75.2444	9,514.16	70.6129	9,514.16	71.1853	9,514.16	67.4691	9,514.16	66.9821	9,514.16	64.09	9,514.16	61.9721	9,514.16	63.0777	9,514.16	65.6962	9,514.16	59.7453	9,514.16	60.9728	9,514.16	62.2487	9,514.16	61.5721	9,514.16	56.7049	9,514.16	56.9769	9,514.16	61.4522	9,514.16	59.148	9,514.16	44.4203
9,849.61	90.2393	9,849.61	89.3273	9,849.61	89.2686	9,849.61	88.8061	9,849.61	90.1198	9,849.61	88.2475	9,849.61	89.1666	9,849.61	86.4556	9,849.61	87.5142	9,849.61	83.3954	9,849.61	85.3866	9,849.61	81.2551	9,849.61	83.3415	9,849.61	78.6281	9,849.61	80.3599	9,849.61	76.2207	9,849.61	76.5691	9,849.61	72.2603	9,849.61	72.4205	9,849.61	69.193	9,849.61	68.7487	9,849.61	65.5429	9,849.61	63.9709	9,849.61	65.2187	9,849.61	61.0246	9,849.61	63.1392	9,849.61	61.3324	9,849.61	58.7397	9,849.61	58.462	9,849.61	61.3885	9,849.61	56.2863	9,849.61	59.6183	9,849.61	62.301	9,849.61	59.9429	9,849.61	59.0845	9,849.61	58.5486
10,196.8	90.1851	10,196.8	89.8138	10,196.8	90.2628	10,196.8	88.8553	10,196.8	89.9563	10,196.8	87.652	10,196.8	89.6727	10,196.8	85.9141	10,196.8	87.6711	10,196.8	83.0143	10,196.8	85.2342	10,196.8	80.586	10,196.8	82.5163	10,196.8	76.437	10,196.8	78.6041	10,196.8	72.7454	10,196.8	75.4006	10,196.8	72.677	10,196.8	71.1388	10,196.8	67.6538	10,196.8	66.2577	10,196.8	67.6646	10,196.8	60.0258	10,196.8	62.574	10,196.8	60.1787	10,196.8	61.2005	10,196.8	64.2723	10,196.8	59.2723	10,196.8	53.162	10,196.8	59.9385	10,196.8	56.0159	10,196.8	60.8669	10,196.8	59.4366	10,196.8	59.1303	10,196.8	62.4921	10,196.8	57.9776
10,555.7	90.9219	10,555.7	90.4517	10,555.7	90.6838	10,555.7	89.3044	10,555.7	90.7108	10,555.7	87.3283	10,555.7	89.6323	10,555.7	85.0845	10,555.7	87.4095	10,555.7	81.8828	10,555.7	84.8677	10,555.7	79.7524	10,555.7	81.062	10,555.7	74.4626	10,555.7	77.2617	10,555.7	71.1899	10,555.7	74.8577	10,555.7	69.5122	10,555.7	67.1473	10,555.7	67.7107	10,555.7	63.5484	10,555.7	63.9352	10,555.7	57.0596	10,555.7	61.4764	10,555.7	60.8961	10,555.7	50.7722	10,555.7	60.6327	10,555.7	53.8877	10,555.7	48.1967	10,555.7	53.5342	10,555.7	45.2533	10,555.7	64.0273	10,555.7	62.3238	10,555.7	58.4905	10,555.7	63.0493	10,555.7	51.4472
10,927.7	91.3043	10,927.7	90.4931	10,927.7	91.3618	10,927.7	88.9357	10,927.7	91.0246	10,927.7	87.0313	10,927.7	89.6878	10,927.7	84.6834	10,927.7	87.4288	10,927.7	80.3072	10,927.7	84.1239	10,927.7	78.1423	10,927.7	79.6409	10,927.7	72.7776	10,927.7	74.9956	10,927.7	69.1618	10,927.7	72.4999	10,927.7	63.3673	10,927.7	66.5487	10,927.7	64.4341	10,927.7	57.0971	10,927.7	59.2987	10,927.7	57.2164	10,927.7	56.9079	10,927.7	58.0893	10,927.7	60.3312	10,927.7	57.6977	10,927.7	55.2106	10,927.7	56.5363	10,927.7	57.9556	10,927.7	53.5332	10,927.7	66.2557	10,927.7	63.8014	10,927.7	58.1517	10,927.7	65.6842	10,927.7	63.6997
11,313	91.1695	11,313	90.4941	11,313	91.216	11,313	88.9806	11,313	90.621	11,313	86.7054	11,313	89.4368	11,313	83.909	11,313	86.8706	11,313	79.8014	11,313	83.7167	11,313	77.358	11,313	78.6413	11,313	69.093	11,313	74.3267	11,313	63.7215	11,313	72.0436	11,313	66.5299	11,313	68.7	11,313	59.4693	11,313	61.4207	11,313	58.9257	11,313	57.4032	11,313	61.3372	11,313	58.6164	11,313	62.7338	11,313	62.7733	11,313	58.0285	11,313	56.8572	11,313	55.3432	11,313	57.2362	11,313	66.4024	11,313	62.4414	11,313	61.6009	11,313	65.8884	11,313	60.7049
11,712.9	90.998	11,712.9	90.0517	11,712.9	90.9215	11,712.9	88.3589	11,712.9	90.3942	11,712.9	85.8114	11,712.9	88.9751	11,712.9	83.3989	11,712.9	86.3155	11,712.9	78.6876	11,712.9	83.0574	11,712.9	76.0663	11,712.9	78.1688	11,712.9	69.5729	11,712.9	75.4432	11,712.9	61.4851	11,712.9	70.7632	11,712.9	67.4762	11,712.9	67.7265	11,712.9	61.7892	11,712.9	62.9738	11,712.9	61.694	11,712.9	54.1881	11,712.9	64.5211	11,712.9	57.9004	11,712.9	66.6264	11,712.9	59.223	11,712.9	59.3149	11,712.9	58.4908	11,712.9	56.8761	11,712.9	55.1052	11,712.9	66.3037	11,712.9	64.2844	11,712.9	60.6896	11,712.9	65.9645	11,712.9	63.725
12,126	90.8124	12,126	89.7692	12,126	90.3349	12,126	87.9678	12,126	89.8495	12,126	85.422	12,126	88.4914	12,126	82.7083	12,126	85.7844	12,126	78.1018	12,126	82.3382	12,126	76.0139	12,126	77.6117	12,126	71.546	12,126	73.6305	12,126	63.7954	12,126	69.7312	12,126	66.1271	12,126	64.6995	12,126	64.7994	12,126	60.0744	12,126	63.0616	12,126	51.1614	12,126	63.4872	12,126	53.6465	12,126	65.8746	12,126	57.7034	12,126	61.761	12,126	57.2845	12,126	55.6311	12,126	54.2098	12,126	65.9623	12,126	61.6684	12,126	61.0266	12,126	66.8802	12,126	63.8891
12,553.7	90.2536	12,553.7	88.9246	12,553.7	89.8429	12,553.7	87.2937	12,553.7	89.2792	12,553.7	84.6729	12,553.7	87.9325	12,553.7	82.6222	12,553.7	85.1247	12,553.7	76.5427	12,553.7	81.449	12,553.7	74.7488	12,553.7	76.4385	12,553.7	71.7157	12,553.7	71.7918	12,553.7	65.0928	12,553.7	66.9491	12,553.7	65.9448	12,553.7	60.6503	12,553.7	63.7958	12,553.7	56.887	12,553.7	61.3526	12,553.7	49.3385	12,553.7	63.6592	12,553.7	52.7756	12,553.7	65.6032	12,553.7	55.7559	12,553.7	61.7718	12,553.7	57.2132	12,553.7	57.061	12,553.7	54.3838	12,553.7	64.7262	12,553.7	59.3973	12,553.7	58.8648	12,553.7	65.5559	12,553.7	63.3939
12,996.1	90.0584	12,996.1	88.4838	12,996.1	89.2734	12,996.1	86.5941	12,996.1	89.0699	12,996.1	84.0129	12,996.1	87.1159	12,996.1	80.951	12,996.1	84.2496	12,996.1	75.1607	12,996.1	80.421	12,996.1	73.2323	12,996.1	75.1506	12,996.1	70.6932	12,996.1	69.3465	12,996.1	66.6768	12,996.1	66.4014	12,996.1	66.4266	12,996.1	61.3609	12,996.1	62.1864	12,996.1	56.5681	12,996.1	62.695	12,996.1	49.7661	12,996.1	61.2204	12,996.1	51.016	12,996.1	61.3812	12,996.1	56.9645	12,996.1	59.8748	12,996.1	58.0529	12,996.1	59.2051	12,996.1	53.6177	12,996.1	63.3638	12,996.1	55.3404	12,996.1	54.1244	12,996.1	64.3911	12,996.1	62.6696
13,454.6	89.72	13,454.6	87.9992	13,454.6	88.9762	13,454.6	86.2258	13,454.6	88.5839	13,454.6	83.7116	13,454.6	86.6401	13,454.6	80.2484	13,454.6	83.4384	13,454.6	73.2436	13,454.6	79.4761	13,454.6	72.7688	13,454.6	74.027	13,454.6	70.1811	13,454.6	66.8085	13,454.6	67.3641	13,454.6	65.0535	13,454.6	65.5806	13,454.6	63.2499	13,454.6	61.1986	13,454.6	58.6353	13,454.6	62.2705	13,454.6	48.6547	13,454.6	56.8288	13,454.6	50.0399	13,454.6	55.9105	13,454.6	57.3536	13,454.6	58.8685	13,454.6	57.3713	13,454.6	60.8557	13,454.6	54.1987	13,454.6	60.4167	13,454.6	51.0274	13,454.6	55.2315	13,454.6	63.3314	13,454.6	61.0347
13,929.2	89.5203	13,929.2	87.9273	13,929.2	88.6111	13,929.2	85.4843	13,929.2	88.2251	13,929.2	83.0041	13,929.2	86.0515	13,929.2	78.8673	13,929.2	82.6178	13,929.2	72.1015	13,929.2	77.9541	13,929.2	70.8935	13,929.2	71.9113	13,929.2	67.8411	13,929.2	63.7606	13,929.2	65.5608	13,929.2	66.1535	13,929.2	65.9508	13,929.2	64.6161	13,929.2	62.009	13,929.2	59.5169	13,929.2	62.5468	13,929.2	51.8947	13,929.2	56.4024	13,929.2	54.2747	13,929.2	44.9002	13,929.2	56.9764	13,929.2	53.3363	13,929.2	56.2574	13,929.2	61.7189	13,929.2	53.4469	13,929.2	59.0203	13,929.2	50.0431	13,929.2	58.7258	13,929.2	62.1881	13,929.2	57.2884
14,419.9	88.8343	14,419.9	87.4028	14,419.9	87.9718	14,419.9	84.8796	14,419.9	87.6231	14,419.9	81.9954	14,419.9	84.9549	14,419.9	77.4676	14,419.9	81.6174	14,419.9	71.5282	14,419.9	76.3927	14,419.9	68.9966	14,419.9	70.6407	14,419.9	65.7147	14,419.9	65.4142	14,419.9	65.8356	14,419.9	67.8803	14,419.9	66.4715	14,419.9	65.5144	14,419.9	62.8336	14,419.9	59.2237	14,419.9	63.1526	14,419.9	55.3633	14,419.9	52.0878	14,419.9	55.1318	14,419.9	57.1969	14,419.9	55.6054	14,419.9	41.7689	14,419.9	55.7547	14,419.9	59.7094	14,419.9	52.5118	14,419.9	58.1024	14,419.9	55.3242	14,419.9	58.2306	14,419.9	62.117	14,419.9	55.7228
14,928.2	87.9637	14,928.2	86.5058	14,928.2	87.1562	14,928.2	83.6466	14,928.2	86.6868	14,928.2	80.8315	14,928.2	83.8177	14,928.2	76.312	14,928.2	80.7137	14,928.2	70.8929	14,928.2	75.0871	14,928.2	65.5323	14,928.2	69.0395	14,928.2	65.449	14,928.2	63.9544	14,928.2	64.5527	14,928.2	68.4472	14,928.2	65.6471	14,928.2	65.9777	14,928.2	63.2533	14,928.2	56.183	14,928.2	61.0338	14,928.2	56.433	14,928.2	53.472	14,928.2	53.8976	14,928.2	59.3995	14,928.2	56.5482	14,928.2	48.3449	14,928.2	54.277	14,928.2	58.4437	14,928.2	52.8642	14,928.2	54.3269	14,928.2	54.3705	14,928.2	59.0041	14,928.2	61.7705	14,928.2	54.9769
15,455.6	87.3531	15,455.6	85.7436	15,455.6	86.3429	15,455.6	82.4607	15,455.6	85.9969	15,455.6	79.7494	15,455.6	82.8074	15,455.6	75.8104	15,455.6	79.8516	15,455.6	69.5123	15,455.6	74.7345	15,455.6	64.6029	15,455.6	67.3806	15,455.6	65.4037	15,455.6	65.8205	15,455.6	64.1828	15,455.6	67.9466	15,455.6	64.8911	15,455.6	65.7781	15,455.6	61.0545	15,455.6	54.2781	15,455.6	58.7744	15,455.6	56.7371	15,455.6	54.3135	15,455.6	55.5844	15,455.6	59.5779	15,455.6	58.4402	15,455.6	53.6847	15,455.6	51.1349	15,455.6	54.8816	15,455.6	49.9165	15,455.6	52.7787	15,455.6	53.2026	15,455.6	57.7087	15,455.6	60.0695	15,455.6	53.634
16,000.5	86.7105	16,000.5	84.963	16,000.5	85.4699	16,000.5	81.0672	16,000.5	85.1291	16,000.5	78.9212	16,000.5	81.5932	16,000.5	74.5218	16,000.5	78.4395	16,000.5	66.7868	16,000.5	73.4536	16,000.5	63.5116	16,000.5	64.5506	16,000.5	65.2451	16,000.5	65.4911	16,000.5	61.3795	16,000.5	66.4172	16,000.5	60.9783	16,000.5	64.0134	16,000.5	58.2112	16,000.5	48.6802	16,000.5	56.7456	16,000.5	56.1841	16,000.5	53.5296	16,000.5	56.0893	16,000.5	57.8004	16,000.5	60.8528	16,000.5	55.972	16,000.5	47.677	16,000.5	50.6986	16,000.5	45.8534	16,000.5	53.7953	16,000.5	53.1559	16,000.5	56.8384	16,000.5	58.4144	16,000.5	52.2126
16,564.5	86.1344	16,564.5	84.5497	16,564.5	84.7598	16,564.5	80.1002	16,564.5	84.4244	16,564.5	78.1568	16,564.5	80.5711	16,564.5	72.5224	16,564.5	77.0392	16,564.5	63.6804	16,564.5	71.0344	16,564.5	62.0185	16,564.5	60.313	16,564.5	63.0031	16,564.5	64.5124	16,564.5	58.4005	16,564.5	63.3354	16,564.5	56.9184	16,564.5	61.8356	16,564.5	50.46	16,564.5	46.4012	16,564.5	53.8189	16,564.5	55.7126	16,564.5	52.7893	16,564.5	55.6017	16,564.5	55.0885	16,564.5	62.0357	16,564.5	54.9368	16,564.5	46.1851	16,564.5	48.2007	16,564.5	45.8127	16,564.5	53.4378	16,564.5	52.8112	16,564.5	55.858	16,564.5	57.5061	16,564.5	50.4579
17,148.9	85.9838	17,148.9	84.5163	17,148.9	84.5726	17,148.9	79.3596	17,148.9	84.2239	17,148.9	77.3189	17,148.9	79.5722	17,148.9	69.4188	17,148.9	75.462	17,148.9	60.3495	17,148.9	66.9036	17,148.9	61.7725	17,148.9	58.4882	17,148.9	61.8101	17,148.9	62.7002	17,148.9	61.2877	17,148.9	59.1404	17,148.9	60.6813	17,148.9	58.7718	17,148.9	39.5394	17,148.9	41.9943	17,148.9	51.0539	17,148.9	54.5194	17,148.9	52.2647	17,148.9	56.049	17,148.9	52.1389	17,148.9	62.1283	17,148.9	51.4643	17,148.9	49.6565	17,148.9	43.0645	17,148.9	48.1959	17,148.9	54.1635	17,148.9	53.442	17,148.9	54.3097	17,148.9	58.7139	17,148.9	49.0564
17,752.4	85.3844	17,752.4	84.0456	17,752.4	83.9209	17,752.4	78.0866	17,752.4	83.4773	17,752.4	75.7315	17,752.4	77.7994	17,752.4	64.2758	17,752.4	73.4566	17,752.4	62.7643	17,752.4	62.2316	17,752.4	63.5166	17,752.4	62.1202	17,752.4	62.7572	17,752.4	62.0463	17,752.4	63.8278	17,752.4	55.212	17,752.4	64.3506	17,752.4	56.4961	17,752.4	47.2118	17,752.4	32.4324	17,752.4	55.3741	17,752.4	54.6312	17,752.4	52.1447	17,752.4	56.7172	17,752.4	52.4967	17,752.4	62.5684	17,752.4	45.147	17,752.4	50.7115	17,752.4	40.802	17,752.4	50.9048	17,752.4	56.3897	17,752.4	51.2252	17,752.4	49.9292	17,752.4	59.0323	17,752.4	50.7088
18,379.4	84.64	18,379.4	83.2828	18,379.4	83.2123	18,379.4	76.4591	18,379.4	82.3819	18,379.4	73.588	18,379.4	76.2359	18,379.4	45.1641	18,379.4	70.6903	18,379.4	62.8655	18,379.4	63.6641	18,379.4	63.427	18,379.4	63.2904	18,379.4	63.4163	18,379.4	61.9804	18,379.4	64.785	18,379.4	53.9007	18,379.4	65.7413	18,379.4	55.0143	18,379.4	48.0942	18,379.4	30.2561	18,379.4	56.2795	18,379.4	54.2696	18,379.4	51.3956	18,379.4	56.2641	18,379.4	55.7072	18,379.4	61.8888	18,379.4	47.3546	18,379.4	49.9711	18,379.4	49.364	18,379.4	51.1814	18,379.4	57.9729	18,379.4	48.9315	18,379.4	48.5301	18,379.4	58.0159	18,379.4	52.9027
19,026.9	83.6074	19,026.9	82.174	19,026.9	82.3987	19,026.9	74.6604	19,026.9	80.9777	19,026.9	70.9149	19,026.9	74.7815	19,026.9	57.5193	19,026.9	65.834	19,026.9	61.559	19,026.9	66.0617	19,026.9	63.8601	19,026.9	63.5551	19,026.9	63.4574	19,026.9	59.6011	19,026.9	64.6111	19,026.9	53.4485	19,026.9	65.68	19,026.9	53.7178	19,026.9	47.7184	19,026.9	43.0533	19,026.9	57.323	19,026.9	52.8381	19,026.9	49.8811	19,026.9	55.1192	19,026.9	58.5272	19,026.9	60.0999	19,026.9	52.1021	19,026.9	48.9679	19,026.9	52.0939	19,026.9	49.0653	19,026.9	57.8393	19,026.9	41.4701	19,026.9	54.5412	19,026.9	56.9226	19,026.9	54.1554
19,697.8	82.566	19,697.8	80.8965	19,697.8	81.796	19,697.8	72.5115	19,697.8	79.5294	19,697.8	67.7313	19,697.8	73.436	19,697.8	60.6524	19,697.8	55.7745	19,697.8	62.2494	19,697.8	66.805	19,697.8	64.2425	19,697.8	63.9958	19,697.8	62.1787	19,697.8	58.0524	19,697.8	63.5312	19,697.8	51.9572	19,697.8	65.1454	19,697.8	51.3822	19,697.8	52.9629	19,697.8	48.5962	19,697.8	56.8358	19,697.8	50.8445	19,697.8	52.1621	19,697.8	53.7005	19,697.8	59.8511	19,697.8	57.4161	19,697.8	53.6205	19,697.8	46.2992	19,697.8	54.1323	19,697.8	47.4658	19,697.8	57.386	19,697.8	44.7402	19,697.8	57.883	19,697.8	55.9939	19,697.8	53.5078
19,999.5	82.2467	19,999.5	80.4979	19,999.5	81.3379	19,999.5	71.4794	19,999.5	78.8188	19,999.5	66.5938	19,999.5	72.3912	19,999.5	61.7892	19,999.5	56.2529	19,999.5	63.553	19,999.5	67.13	19,999.5	63.1754	19,999.5	63.7894	19,999.5	61.7916	19,999.5	54.7881	19,999.5	64.3189	19,999.5	53.0825	19,999.5	65.739	19,999.5	50.4188	19,999.5	55.2729	19,999.5	45.7849	19,999.5	56.8452	19,999.5	51.873	19,999.5	52.6892	19,999.5	57.7083	19,999.5	61.0427	19,999.5	57.5266	19,999.5	54.0782	19,999.5	52.4196	19,999.5	55.7353	19,999.5	48.7527	19,999.5	56.3726	19,999.5	46.6642	19,999.5	59.1305	19,999.5	55.7828	19,999.5	54.9883
