"SPL Vertical"
"On-Axis"		"10°"		"-10°"		"20°"		"-20°"		"30°"		"-30°"		"40°"		"-40°"		"50°"		"-50°"		"60°"		"-60°"		"70°"		"-70°"		"80°"		"-80°"		"90°"		"-90°"		"100°"		"-100°"		"110°"		"-110°"		"120°"		"-120°"		"130°"		"-130°"		"140°"		"-140°"		"150°"		"-150°"		"160°"		"-160°"		"170°"		"-170°"		"180°"
"Frequency / Hz"	"Sound Pressure Level / dB (re 20 µPa/V)  [2.83  V @ 1. m]"	"Frequency / Hz"	"Sound Pressure Level / dB (re 20 µPa/V)  [2.83  V @ 1. m]"	"Frequency / Hz"	"Sound Pressure Level / dB (re 20 µPa/V)  [2.83  V @ 1. m]"	"Frequency / Hz"	"Sound Pressure Level / dB (re 20 µPa/V)  [2.83  V @ 1. m]"	"Frequency / Hz"	"Sound Pressure Level / dB (re 20 µPa/V)  [2.83  V @ 1. m]"	"Frequency / Hz"	"Sound Pressure Level / dB (re 20 µPa/V)  [2.83  V @ 1. m]"	"Frequency / Hz"	"Sound Pressure Level / dB (re 20 µPa/V)  [2.83  V @ 1. m]"	"Frequency / Hz"	"Sound Pressure Level / dB (re 20 µPa/V)  [2.83  V @ 1. m]"	"Frequency / Hz"	"Sound Pressure Level / dB (re 20 µPa/V)  [2.83  V @ 1. m]"	"Frequency / Hz"	"Sound Pressure Level / dB (re 20 µPa/V)  [2.83  V @ 1. m]"	"Frequency / Hz"	"Sound Pressure Level / dB (re 20 µPa/V)  [2.83  V @ 1. m]"	"Frequency / Hz"	"Sound Pressure Level / dB (re 20 µPa/V)  [2.83  V @ 1. m]"	"Frequency / Hz"	"Sound Pressure Level / dB (re 20 µPa/V)  [2.83  V @ 1. m]"	"Frequency / Hz"	"Sound Pressure Level / dB (re 20 µPa/V)  [2.83  V @ 1. m]"	"Frequency / Hz"	"Sound Pressure Level / dB (re 20 µPa/V)  [2.83  V @ 1. m]"	"Frequency / Hz"	"Sound Pressure Level / dB (re 20 µPa/V)  [2.83  V @ 1. m]"	"Frequency / Hz"	"Sound Pressure Level / dB (re 20 µPa/V)  [2.83  V @ 1. m]"	"Frequency / Hz"	"Sound Pressure Level / dB (re 20 µPa/V)  [2.83  V @ 1. m]"	"Frequency / Hz"	"Sound Pressure Level / dB (re 20 µPa/V)  [2.83  V @ 1. m]"	"Frequency / Hz"	"Sound Pressure Level / dB (re 20 µPa/V)  [2.83  V @ 1. m]"	"Frequency / Hz"	"Sound Pressure Level / dB (re 20 µPa/V)  [2.83  V @ 1. m]"	"Frequency / Hz"	"Sound Pressure Level / dB (re 20 µPa/V)  [2.83  V @ 1. m]"	"Frequency / Hz"	"Sound Pressure Level / dB (re 20 µPa/V)  [2.83  V @ 1. m]"	"Frequency / Hz"	"Sound Pressure Level / dB (re 20 µPa/V)  [2.83  V @ 1. m]"	"Frequency / Hz"	"Sound Pressure Level / dB (re 20 µPa/V)  [2.83  V @ 1. m]"	"Frequency / Hz"	"Sound Pressure Level / dB (re 20 µPa/V)  [2.83  V @ 1. m]"	"Frequency / Hz"	"Sound Pressure Level / dB (re 20 µPa/V)  [2.83  V @ 1. m]"	"Frequency / Hz"	"Sound Pressure Level / dB (re 20 µPa/V)  [2.83  V @ 1. m]"	"Frequency / Hz"	"Sound Pressure Level / dB (re 20 µPa/V)  [2.83  V @ 1. m]"	"Frequency / Hz"	"Sound Pressure Level / dB (re 20 µPa/V)  [2.83  V @ 1. m]"	"Frequency / Hz"	"Sound Pressure Level / dB (re 20 µPa/V)  [2.83  V @ 1. m]"	"Frequency / Hz"	"Sound Pressure Level / dB (re 20 µPa/V)  [2.83  V @ 1. m]"	"Frequency / Hz"	"Sound Pressure Level / dB (re 20 µPa/V)  [2.83  V @ 1. m]"	"Frequency / Hz"	"Sound Pressure Level / dB (re 20 µPa/V)  [2.83  V @ 1. m]"	"Frequency / Hz"	"Sound Pressure Level / dB (re 20 µPa/V)  [2.83  V @ 1. m]"	"Frequency / Hz"	"Sound Pressure Level / dB (re 20 µPa/V)  [2.83  V @ 1. m]"
20.5078	61.1887	20.5078	61.1643	20.5078	61.1985	20.5078	61.1252	20.5078	61.1949	20.5078	61.0724	20.5078	61.1796	20.5078	61.0079	20.5078	61.1546	20.5078	60.9347	20.5078	61.1219	20.5078	60.8561	20.5078	61.0832	20.5078	60.7762	20.5078	61.0404	20.5078	60.6995	20.5078	60.9956	20.5078	60.6307	20.5078	60.9507	20.5078	60.575	20.5078	60.908	20.5078	60.5368	20.5078	60.8697	20.5078	60.5193	20.5078	60.8372	20.5078	60.523	20.5078	60.8111	20.5078	60.5452	20.5078	60.7905	20.5078	60.5808	20.5078	60.7729	20.5078	60.623	20.5078	60.7547	20.5078	60.6652	20.5078	60.732	20.5078	60.7023
21.9727	62.0237	21.9727	61.9943	21.9727	62.0395	21.9727	61.9537	21.9727	62.0404	21.9727	61.9041	21.9727	62.0252	21.9727	61.8482	21.9727	61.9934	21.9727	61.7884	21.9727	61.9451	21.9727	61.7265	21.9727	61.8807	21.9727	61.6639	21.9727	61.8015	21.9727	61.6015	21.9727	61.7096	21.9727	61.54	21.9727	61.6083	21.9727	61.4801	21.9727	61.5022	21.9727	61.4228	21.9727	61.397	21.9727	61.369	21.9727	61.2995	21.9727	61.3192	21.9727	61.2162	21.9727	61.2732	21.9727	61.1528	21.9727	61.2304	21.9727	61.1129	21.9727	61.1902	21.9727	61.0967	21.9727	61.1533	21.9727	61.1015	21.9727	61.1222
23.4375	64.1843	23.4375	64.1813	23.4375	64.1766	23.4375	64.1678	23.4375	64.158	23.4375	64.1441	23.4375	64.1284	23.4375	64.1104	23.4375	64.0876	23.4375	64.0665	23.4375	64.0354	23.4375	64.0123	23.4375	63.972	23.4375	63.9474	23.4375	63.8977	23.4375	63.8718	23.4375	63.8132	23.4375	63.7859	23.4375	63.7199	23.4375	63.6909	23.4375	63.6198	23.4375	63.5892	23.4375	63.5162	23.4375	63.4843	23.4375	63.4128	23.4375	63.3808	23.4375	63.3144	23.4375	63.284	23.4375	63.226	23.4375	63.1993	23.4375	63.1528	23.4375	63.1319	23.4375	63.0994	23.4375	63.086	23.4375	63.0693	23.4375	63.0647
24.9023	65.3578	24.9023	65.3461	24.9023	65.3567	24.9023	65.3212	24.9023	65.3432	24.9023	65.2831	24.9023	65.3178	24.9023	65.2322	24.9023	65.2809	24.9023	65.1693	24.9023	65.2326	24.9023	65.0956	24.9023	65.1733	24.9023	65.0126	24.9023	65.1033	24.9023	64.9224	24.9023	65.0235	24.9023	64.8274	24.9023	64.9351	24.9023	64.7303	24.9023	64.84	24.9023	64.6344	24.9023	64.7411	24.9023	64.543	24.9023	64.6417	24.9023	64.4595	24.9023	64.5459	24.9023	64.3872	24.9023	64.4581	24.9023	64.3291	24.9023	64.3827	24.9023	64.2878	24.9023	64.3234	24.9023	64.2655	24.9023	64.2832	24.9023	64.2638
26.3672	66.2785	26.3672	66.2664	26.3672	66.2809	26.3672	66.2449	26.3672	66.2735	26.3672	66.2148	26.3672	66.2564	26.3672	66.1772	26.3672	66.23	26.3672	66.1334	26.3672	66.1949	26.3672	66.0846	26.3672	66.1518	26.3672	66.0324	26.3672	66.1015	26.3672	65.9783	26.3672	66.0453	26.3672	65.9239	26.3672	65.9846	26.3672	65.8706	26.3672	65.9215	26.3672	65.8199	26.3672	65.8582	26.3672	65.773	26.3672	65.7973	26.3672	65.7308	26.3672	65.7418	26.3672	65.694	26.3672	65.6942	26.3672	65.6631	26.3672	65.6568	26.3672	65.6388	26.3672	65.6308	26.3672	65.6221	26.3672	65.6168	26.3672	65.6143
27.832	66.8878	27.832	66.8732	27.832	66.8935	27.832	66.8496	27.832	66.89	27.832	66.8176	27.832	66.8774	27.832	66.7777	27.832	66.8559	27.832	66.7304	27.832	66.8257	27.832	66.6767	27.832	66.7871	27.832	66.6176	27.832	66.7404	27.832	66.5542	27.832	66.6866	27.832	66.4883	27.832	66.6265	27.832	66.4218	27.832	66.5616	27.832	66.357	27.832	66.4938	27.832	66.2964	27.832	66.4252	27.832	66.2423	27.832	66.3584	27.832	66.1971	27.832	66.2961	27.832	66.163	27.832	66.2409	27.832	66.1415	27.832	66.1952	27.832	66.1338	27.832	66.1612	27.832	66.1404
29.2969	67.447	29.2969	67.4232	29.2969	67.4639	29.2969	67.393	29.2969	67.4732	29.2969	67.357	29.2969	67.4742	29.2969	67.3156	29.2969	67.4662	29.2969	67.2691	29.2969	67.4486	29.2969	67.2182	29.2969	67.4212	29.2969	67.1634	29.2969	67.3837	29.2969	67.1056	29.2969	67.3366	29.2969	67.0461	29.2969	67.2806	29.2969	66.9864	29.2969	67.2172	29.2969	66.9284	29.2969	67.1483	29.2969	66.8743	29.2969	67.0764	29.2969	66.8262	29.2969	67.0043	29.2969	66.7865	29.2969	66.9353	29.2969	66.7574	29.2969	66.8727	29.2969	66.7409	29.2969	66.8194	29.2969	66.7384	29.2969	66.7781	29.2969	66.7508
30.7617	68.8713	30.7617	68.8583	30.7617	68.8769	30.7617	68.8381	30.7617	68.8747	30.7617	68.8115	30.7617	68.8648	30.7617	68.7793	30.7617	68.8472	30.7617	68.7423	30.7617	68.8223	30.7617	68.7018	30.7617	68.7906	30.7617	68.6588	30.7617	68.7528	30.7617	68.6144	30.7617	68.7097	30.7617	68.57	30.7617	68.6627	30.7617	68.5266	30.7617	68.6132	30.7617	68.4855	30.7617	68.5631	30.7617	68.4477	30.7617	68.5142	30.7617	68.4142	30.7617	68.4685	30.7617	68.386	30.7617	68.4278	30.7617	68.3638	30.7617	68.3937	30.7617	68.3484	30.7617	68.3675	30.7617	68.3405	30.7617	68.3497	30.7617	68.3408
32.2266	69.2006	32.2266	69.1833	32.2266	69.2105	32.2266	69.1589	32.2266	69.2126	32.2266	69.1279	32.2266	69.2068	32.2266	69.091	32.2266	69.1929	32.2266	69.0486	32.2266	69.1712	32.2266	69.0017	32.2266	69.1419	32.2266	68.9511	32.2266	69.1054	32.2266	68.898	32.2266	69.0625	32.2266	68.8439	32.2266	69.014	32.2266	68.7904	32.2266	68.9613	32.2266	68.7393	32.2266	68.9059	32.2266	68.6925	32.2266	68.8495	32.2266	68.6521	32.2266	68.794	32.2266	68.6199	32.2266	68.7413	32.2266	68.5973	32.2266	68.6935	32.2266	68.5857	32.2266	68.6525	32.2266	68.5857	32.2266	68.6199	32.2266	68.5972
33.6914	69.8553	33.6914	69.8459	33.6914	69.8567	33.6914	69.8286	33.6914	69.8503	33.6914	69.8036	33.6914	69.836	33.6914	69.7713	33.6914	69.8143	33.6914	69.7323	33.6914	69.7853	33.6914	69.6875	33.6914	69.7496	33.6914	69.6381	33.6914	69.7078	33.6914	69.5855	33.6914	69.661	33.6914	69.5314	33.6914	69.6104	33.6914	69.4778	33.6914	69.5575	33.6914	69.4265	33.6914	69.504	33.6914	69.3796	33.6914	69.4519	33.6914	69.3386	33.6914	69.4029	33.6914	69.305	33.6914	69.359	33.6914	69.2796	33.6914	69.3216	33.6914	69.2633	33.6914	69.292	33.6914	69.2564	33.6914	69.2709	33.6914	69.2589
35.1562	70.5527	35.1562	70.542	35.1562	70.5554	35.1562	70.5237	35.1562	70.5501	35.1562	70.4978	35.1562	70.5369	35.1562	70.4649	35.1562	70.5158	35.1562	70.4255	35.1562	70.4868	35.1562	70.3804	35.1562	70.4505	35.1562	70.3306	35.1562	70.4071	35.1562	70.2773	35.1562	70.3577	35.1562	70.2219	35.1562	70.3033	35.1562	70.1662	35.1562	70.2454	35.1562	70.1117	35.1562	70.1859	35.1562	70.0603	35.1562	70.1269	35.1562	70.0138	35.1562	70.0709	35.1562	69.9738	35.1562	70.02	35.1562	69.9419	35.1562	69.9766	35.1562	69.9196	35.1562	69.9426	35.1562	69.9079	35.1562	69.9193	35.1562	69.9077
36.6211	71.2573	36.6211	71.2492	36.6211	71.2571	36.6211	71.2327	36.6211	71.2485	36.6211	71.2082	36.6211	71.2316	36.6211	71.1761	36.6211	71.2066	36.6211	71.1369	36.6211	71.1741	36.6211	71.0916	36.6211	71.1346	36.6211	71.0414	36.6211	71.0889	36.6211	70.9878	36.6211	71.0383	36.6211	70.9325	36.6211	70.9842	36.6211	70.8774	36.6211	70.9283	36.6211	70.8244	36.6211	70.8726	36.6211	70.7752	36.6211	70.8191	36.6211	70.7315	36.6211	70.7696	36.6211	70.6947	36.6211	70.7259	36.6211	70.6658	36.6211	70.6896	36.6211	70.6458	36.6211	70.6618	36.6211	70.6351	36.6211	70.6431	36.6211	70.6342
38.0859	71.6639	38.0859	71.647	38.0859	71.6687	38.0859	71.6188	38.0859	71.6614	38.0859	71.5798	38.0859	71.6416	38.0859	71.5306	38.0859	71.6095	38.0859	71.4723	38.0859	71.5654	38.0859	71.4057	38.0859	71.5099	38.0859	71.3319	38.0859	71.4437	38.0859	71.2523	38.0859	71.368	38.0859	71.1685	38.0859	71.2844	38.0859	71.0821	38.0859	71.1948	38.0859	70.9956	38.0859	71.1018	38.0859	70.9115	38.0859	71.0083	38.0859	70.8328	38.0859	70.9178	38.0859	70.763	38.0859	70.8339	38.0859	70.7058	38.0859	70.7608	38.0859	70.6646	38.0859	70.7023	38.0859	70.6425	38.0859	70.6616	38.0859	70.6414
39.5508	72.4841	39.5508	72.4748	39.5508	72.4859	39.5508	72.458	39.5508	72.4798	39.5508	72.4342	39.5508	72.4657	39.5508	72.4037	39.5508	72.4436	39.5508	72.3669	39.5508	72.4138	39.5508	72.3243	39.5508	72.3764	39.5508	72.2766	39.5508	72.3321	39.5508	72.2247	39.5508	72.2816	39.5508	72.1697	39.5508	72.2261	39.5508	72.1127	39.5508	72.1669	39.5508	72.0552	39.5508	72.1056	39.5508	71.9989	39.5508	72.0443	39.5508	71.9458	39.5508	71.9851	39.5508	71.898	39.5508	71.9305	39.5508	71.8582	39.5508	71.8833	39.5508	71.8288	39.5508	71.8458	39.5508	71.8119	39.5508	71.8205	39.5508	71.809
41.0156	72.7369	41.0156	72.734	41.0156	72.734	41.0156	72.7255	41.0156	72.725	41.0156	72.7117	41.0156	72.7095	41.0156	72.6928	41.0156	72.6875	41.0156	72.6688	41.0156	72.6587	41.0156	72.6401	41.0156	72.6235	41.0156	72.6067	41.0156	72.5821	41.0156	72.5691	41.0156	72.5355	41.0156	72.5279	41.0156	72.4847	41.0156	72.4837	41.0156	72.4314	41.0156	72.4375	41.0156	72.3774	41.0156	72.3901	41.0156	72.3252	41.0156	72.3429	41.0156	72.2769	41.0156	72.2974	41.0156	72.2353	41.0156	72.2556	41.0156	72.2027	41.0156	72.2198	41.0156	72.1811	41.0156	72.1926	41.0156	72.1721	41.0156	72.1761
42.4805	73.4949	42.4805	73.4816	42.4805	73.5035	42.4805	73.4639	42.4805	73.5073	42.4805	73.4422	42.4805	73.5063	42.4805	73.4174	42.4805	73.5006	42.4805	73.3902	42.4805	73.4903	42.4805	73.3618	42.4805	73.476	42.4805	73.3335	42.4805	73.458	42.4805	73.3065	42.4805	73.4372	42.4805	73.2823	42.4805	73.4147	42.4805	73.262	42.4805	73.3915	42.4805	73.2466	42.4805	73.3688	42.4805	73.2365	42.4805	73.3474	42.4805	73.2319	42.4805	73.328	42.4805	73.2321	42.4805	73.311	42.4805	73.2362	42.4805	73.2963	42.4805	73.2431	42.4805	73.2835	42.4805	73.2519	42.4805	73.2721	42.4805	73.2616
43.9453	74.0265	43.9453	74.024	43.9453	74.0212	43.9453	74.0137	43.9453	74.0086	43.9453	73.9956	43.9453	73.9892	43.9453	73.9699	43.9453	73.9635	43.9453	73.9375	43.9453	73.9324	43.9453	73.8992	43.9453	73.8965	43.9453	73.8565	43.9453	73.8571	43.9453	73.8108	43.9453	73.8151	43.9453	73.7641	43.9453	73.7721	43.9453	73.7182	43.9453	73.7295	43.9453	73.675	43.9453	73.6887	43.9453	73.6362	43.9453	73.6512	43.9453	73.603	43.9453	73.618	43.9453	73.5764	43.9453	73.5901	43.9453	73.5565	43.9453	73.5678	43.9453	73.5434	43.9453	73.5514	43.9453	73.5366	43.9453	73.5407	43.9453	73.5357
45.4102	74.4945	45.4102	74.4942	45.4102	74.4855	45.4102	74.4846	45.4102	74.4676	45.4102	74.4656	45.4102	74.4413	45.4102	74.4376	45.4102	74.4073	45.4102	74.4012	45.4102	74.3664	45.4102	74.3572	45.4102	74.3197	45.4102	74.3067	45.4102	74.2681	45.4102	74.2512	45.4102	74.2131	45.4102	74.1923	45.4102	74.1563	45.4102	74.1319	45.4102	74.0993	45.4102	74.0722	45.4102	74.0439	45.4102	74.0153	45.4102	73.9919	45.4102	73.9632	45.4102	73.9451	45.4102	73.918	45.4102	73.9048	45.4102	73.8812	45.4102	73.8723	45.4102	73.8539	45.4102	73.8486	45.4102	73.8368	45.4102	73.8344	45.4102	73.8304
46.875	74.9748	46.875	74.9637	46.875	74.9776	46.875	74.9448	46.875	74.9718	46.875	74.9186	46.875	74.9573	46.875	74.8854	46.875	74.9342	46.875	74.8458	46.875	74.9027	46.875	74.8002	46.875	74.8634	46.875	74.7494	46.875	74.8172	46.875	74.6941	46.875	74.765	46.875	74.6357	46.875	74.7083	46.875	74.5757	46.875	74.6487	46.875	74.516	46.875	74.588	46.875	74.4589	46.875	74.5281	46.875	74.4068	46.875	74.471	46.875	74.362	46.875	74.4187	46.875	74.3268	46.875	74.3731	46.875	74.3031	46.875	74.336	46.875	74.2922	46.875	74.3093	46.875	74.2943
48.3398	75.3705	48.3398	75.3545	48.3398	75.3817	48.3398	75.335	48.3398	75.3872	48.3398	75.3129	48.3398	75.3863	48.3398	75.2891	48.3398	75.3785	48.3398	75.2642	48.3398	75.3639	48.3398	75.2386	48.3398	75.3431	48.3398	75.2129	48.3398	75.3171	48.3398	75.1873	48.3398	75.2869	48.3398	75.1626	48.3398	75.2543	48.3398	75.1391	48.3398	75.2208	48.3398	75.1176	48.3398	75.1879	48.3398	75.0986	48.3398	75.1572	48.3398	75.0827	48.3398	75.1298	48.3398	75.0702	48.3398	75.1064	48.3398	75.0613	48.3398	75.0875	48.3398	75.0561	48.3398	75.073	48.3398	75.0546	48.3398	75.0629	48.3398	75.0568
51.2695	76.5523	51.2695	76.5473	51.2695	76.5469	51.2695	76.5318	51.2695	76.5317	51.2695	76.5061	51.2695	76.5074	51.2695	76.471	51.2695	76.4748	51.2695	76.428	51.2695	76.4351	51.2695	76.379	51.2695	76.3894	51.2695	76.3262	51.2695	76.3392	51.2695	76.2721	51.2695	76.2863	51.2695	76.2189	51.2695	76.2323	51.2695	76.1687	51.2695	76.1794	51.2695	76.1227	51.2695	76.1293	51.2695	76.0821	51.2695	76.0838	51.2695	76.0472	51.2695	76.0444	51.2695	76.0182	51.2695	76.0121	51.2695	75.9949	51.2695	75.9875	51.2695	75.9774	51.2695	75.9709	51.2695	75.9658	51.2695	75.962	51.2695	75.9604
52.7344	77.0094	52.7344	77.0093	52.7344	76.997	52.7344	76.9961	52.7344	76.9729	52.7344	76.9703	52.7344	76.9387	52.7344	76.933	52.7344	76.8961	52.7344	76.8859	52.7344	76.8471	52.7344	76.8318	52.7344	76.7939	52.7344	76.7735	52.7344	76.7386	52.7344	76.7141	52.7344	76.6837	52.7344	76.6567	52.7344	76.6311	52.7344	76.6036	52.7344	76.5828	52.7344	76.5566	52.7344	76.5404	52.7344	76.517	52.7344	76.5046	52.7344	76.485	52.7344	76.4758	52.7344	76.4604	52.7344	76.4539	52.7344	76.4425	52.7344	76.4382	52.7344	76.4304	52.7344	76.4278	52.7344	76.4234	52.7344	76.4222	52.7344	76.4207
54.1992	77.4068	54.1992	77.4036	54.1992	77.3919	54.1992	77.3821	54.1992	77.3597	54.1992	77.3429	54.1992	77.3116	54.1992	77.2873	54.1992	77.2497	54.1992	77.2174	54.1992	77.1763	54.1992	77.1359	54.1992	77.0943	54.1992	77.0459	54.1992	77.0066	54.1992	76.9508	54.1992	76.9165	54.1992	76.8544	54.1992	76.827	54.1992	76.7603	54.1992	76.7412	54.1992	76.6719	54.1992	76.6616	54.1992	76.592	54.1992	76.5903	54.1992	76.5232	54.1992	76.5286	54.1992	76.467	54.1992	76.4773	54.1992	76.4244	54.1992	76.4364	54.1992	76.3956	54.1992	76.406	54.1992	76.3802	54.1992	76.3862	54.1992	76.3774
55.6641	77.653	55.6641	77.6501	55.6641	77.6425	55.6641	77.6339	55.6641	77.6191	55.6641	77.6049	55.6641	77.5836	55.6641	77.5638	55.6641	77.5369	55.6641	77.512	55.6641	77.4807	55.6641	77.4509	55.6641	77.4167	55.6641	77.3827	55.6641	77.347	55.6641	77.3097	55.6641	77.2741	55.6641	77.2344	55.6641	77.2003	55.6641	77.1595	55.6641	77.1282	55.6641	77.0875	55.6641	77.0602	55.6641	77.021	55.6641	76.9985	55.6641	76.9618	55.6641	76.9446	55.6641	76.9118	55.6641	76.8996	55.6641	76.872	55.6641	76.8643	55.6641	76.8432	55.6641	76.839	55.6641	76.8257	55.6641	76.8239	55.6641	76.8194
58.5938	78.4408	58.5938	78.4244	58.5938	78.4456	58.5938	78.3971	58.5938	78.4388	58.5938	78.3597	58.5938	78.4202	58.5938	78.313	58.5938	78.3902	58.5938	78.2581	58.5938	78.3495	58.5938	78.1963	58.5938	78.299	58.5938	78.129	58.5938	78.24	58.5938	78.0577	58.5938	78.1742	58.5938	77.9844	58.5938	78.1033	58.5938	77.9111	58.5938	78.0296	58.5938	77.84	58.5938	77.9551	58.5938	77.7738	58.5938	77.8823	58.5938	77.715	58.5938	77.8133	58.5938	77.6658	58.5938	77.7505	58.5938	77.6284	58.5938	77.6958	58.5938	77.6043	58.5938	77.6513	58.5938	77.5946	58.5938	77.6188	58.5938	77.5995
60.0586	78.8238	60.0586	78.8088	60.0586	78.8295	60.0586	78.7852	60.0586	78.8256	60.0586	78.7539	60.0586	78.812	60.0586	78.7161	60.0586	78.7893	60.0586	78.6731	60.0586	78.758	60.0586	78.6263	60.0586	78.7194	60.0586	78.5774	60.0586	78.6751	60.0586	78.528	60.0586	78.6268	60.0586	78.4798	60.0586	78.5763	60.0586	78.4342	60.0586	78.5258	60.0586	78.3928	60.0586	78.4769	60.0586	78.3565	60.0586	78.4313	60.0586	78.3263	60.0586	78.3902	60.0586	78.3026	60.0586	78.3546	60.0586	78.2857	60.0586	78.3251	60.0586	78.2756	60.0586	78.302	60.0586	78.2723	60.0586	78.2855	60.0586	78.2756
62.9883	79.4725	62.9883	79.4615	62.9883	79.472	62.9883	79.4393	62.9883	79.4601	62.9883	79.4067	62.9883	79.4376	62.9883	79.3651	62.9883	79.4055	62.9883	79.3161	62.9883	79.3652	62.9883	79.262	62.9883	79.3186	62.9883	79.2051	62.9883	79.2677	62.9883	79.1479	62.9883	79.2148	62.9883	79.0928	62.9883	79.1621	62.9883	79.042	62.9883	79.1116	62.9883	78.9972	62.9883	79.065	62.9883	78.9598	62.9883	79.0237	62.9883	78.9305	62.9883	78.9882	62.9883	78.9092	62.9883	78.9587	62.9883	78.8958	62.9883	78.9349	62.9883	78.8892	62.9883	78.9164	62.9883	78.8887	62.9883	78.9026	62.9883	78.8933
64.4531	79.7838	64.4531	79.7718	64.4531	79.7847	64.4531	79.749	64.4531	79.7745	64.4531	79.7163	64.4531	79.7539	64.4531	79.675	64.4531	79.7238	64.4531	79.6269	64.4531	79.6859	64.4531	79.5741	64.4531	79.6418	64.4531	79.5188	64.4531	79.5936	64.4531	79.4635	64.4531	79.5435	64.4531	79.4106	64.4531	79.4939	64.4531	79.3622	64.4531	79.4465	64.4531	79.3201	64.4531	79.4031	64.4531	79.2856	64.4531	79.3647	64.4531	79.2594	64.4531	79.3319	64.4531	79.2416	64.4531	79.3045	64.4531	79.2317	64.4531	79.282	64.4531	79.2286	64.4531	79.2638	64.4531	79.2312	64.4531	79.2493	64.4531	79.2384
67.3828	80.4447	67.3828	80.4314	67.3828	80.4466	67.3828	80.4073	67.3828	80.4374	67.3828	80.3733	67.3828	80.4176	67.3828	80.3308	67.3828	80.3883	67.3828	80.2818	67.3828	80.3512	67.3828	80.2287	67.3828	80.3082	67.3828	80.1739	67.3828	80.2616	67.3828	80.1202	67.3828	80.2136	67.3828	80.0701	67.3828	80.1667	67.3828	80.0258	67.3828	80.1229	67.3828	79.9891	67.3828	80.0837	67.3828	79.961	67.3828	80.0501	67.3828	79.9417	67.3828	80.0223	67.3828	79.9307	67.3828	79.9997	67.3828	79.9269	67.3828	79.9815	67.3828	79.9288	67.3828	79.9666	67.3828	79.9347	67.3828	79.9541	67.3828	79.9434
68.8477	80.7471	68.8477	80.7351	68.8477	80.7475	68.8477	80.712	68.8477	80.7365	68.8477	80.6788	68.8477	80.7148	68.8477	80.6371	68.8477	80.6837	68.8477	80.5888	68.8477	80.6448	68.8477	80.5365	68.8477	80.6006	68.8477	80.4829	68.8477	80.5533	68.8477	80.4306	68.8477	80.5056	68.8477	80.3824	68.8477	80.4601	68.8477	80.3404	68.8477	80.4187	68.8477	80.3062	68.8477	80.383	68.8477	80.2807	68.8477	80.3537	68.8477	80.2639	68.8477	80.3306	68.8477	80.2551	68.8477	80.3128	68.8477	80.2529	68.8477	80.299	68.8477	80.2556	68.8477	80.2878	68.8477	80.2616	68.8477	80.2782	68.8477	80.2694
71.7773	81.4258	71.7773	81.4142	71.7773	81.4245	71.7773	81.3901	71.7773	81.4102	71.7773	81.3547	71.7773	81.384	71.7773	81.3097	71.7773	81.3472	71.7773	81.2573	71.7773	81.302	71.7773	81.2002	71.7773	81.2509	71.7773	81.1412	71.7773	81.1969	71.7773	81.0832	71.7773	81.1429	71.7773	81.029	71.7773	81.0918	71.7773	80.9812	71.7773	81.0458	71.7773	80.9414	71.7773	81.0066	71.7773	80.9109	71.7773	80.9748	71.7773	80.8898	71.7773	80.9501	71.7773	80.8776	71.7773	80.9314	71.7773	80.8729	71.7773	80.917	71.7773	80.8741	71.7773	80.9055	71.7773	80.8792	71.7773	80.8956	71.7773	80.8867
74.707	82.0289	74.707	82.0198	74.707	82.0243	74.707	81.9977	74.707	82.0063	74.707	81.9638	74.707	81.9758	74.707	81.9198	74.707	81.9344	74.707	81.8682	74.707	81.8844	74.707	81.8117	74.707	81.8288	74.707	81.7533	74.707	81.7707	74.707	81.6961	74.707	81.7136	74.707	81.6429	74.707	81.6607	74.707	81.5963	74.707	81.6146	74.707	81.558	74.707	81.5771	74.707	81.529	74.707	81.5488	74.707	81.5091	74.707	81.5293	74.707	81.4976	74.707	81.5169	74.707	81.4928	74.707	81.5096	74.707	81.4926	74.707	81.5051	74.707	81.495	74.707	81.5017	74.707	81.4984
77.6367	82.4959	77.6367	82.4862	77.6367	82.4912	77.6367	82.4625	77.6367	82.4722	77.6367	82.4262	77.6367	82.44	77.6367	82.3792	77.6367	82.3963	77.6367	82.3241	77.6367	82.3436	77.6367	82.264	77.6367	82.285	77.6367	82.2021	77.6367	82.2241	77.6367	82.1418	77.6367	82.1645	77.6367	82.0865	77.6367	82.1096	77.6367	82.0387	77.6367	82.0624	77.6367	82.0005	77.6367	82.0248	77.6367	81.9727	77.6367	81.9973	77.6367	81.9552	77.6367	81.9794	77.6367	81.9467	77.6367	81.9691	77.6367	81.945	77.6367	81.9641	77.6367	81.9476	77.6367	81.9616	77.6367	81.952	77.6367	81.9595	77.6367	81.9563
79.1016	82.76	79.1016	82.7491	79.1016	82.7556	79.1016	82.7236	79.1016	82.7361	79.1016	82.6847	79.1016	82.7025	79.1016	82.6345	79.1016	82.6566	79.1016	82.5759	79.1016	82.6011	79.1016	82.5119	79.1016	82.5392	79.1016	82.446	79.1016	82.4746	79.1016	82.3818	79.1016	82.4112	79.1016	82.3227	79.1016	82.3526	79.1016	82.2715	79.1016	82.302	79.1016	82.2303	79.1016	82.2613	79.1016	82.2001	79.1016	82.2312	79.1016	82.1808	79.1016	82.211	79.1016	82.171	79.1016	82.1989	79.1016	82.1687	79.1016	82.1923	79.1016	82.1712	79.1016	82.1884	79.1016	82.176	79.1016	82.1851	79.1016	82.181
82.0312	83.2528	82.0312	83.2394	82.0312	83.2498	82.0312	83.2102	82.0312	83.2305	82.0312	83.1668	82.0312	83.1961	82.0312	83.1115	82.0312	83.1486	82.0312	83.0476	82.0312	83.0909	82.0312	82.9785	82.0312	83.0265	82.0312	82.9082	82.0312	82.9593	82.0312	82.8406	82.0312	82.8934	82.0312	82.7793	82.0312	82.8326	82.0312	82.7273	82.0312	82.7802	82.0312	82.6865	82.0312	82.738	82.0312	82.6576	82.0312	82.7068	82.0312	82.6403	82.0312	82.6858	82.0312	82.633	82.0312	82.673	82.0312	82.633	82.0312	82.6656	82.0312	82.6378	82.0312	82.6609	82.0312	82.6445	82.0312	82.6566	82.0312	82.6511
84.9609	83.5321	84.9609	83.5171	84.9609	83.5321	84.9609	83.4877	84.9609	83.517	84.9609	83.4457	84.9609	83.4881	84.9609	83.3935	84.9609	83.4471	84.9609	83.3343	84.9609	83.3969	84.9609	83.2719	84.9609	83.341	84.9609	83.2103	84.9609	83.2833	84.9609	83.1535	84.9609	83.2278	84.9609	83.1051	84.9609	83.1782	84.9609	83.0677	84.9609	83.1376	84.9609	83.0427	84.9609	83.1075	84.9609	83.0297	84.9609	83.0882	84.9609	83.0275	84.9609	83.0783	84.9609	83.0332	84.9609	83.0755	84.9609	83.0438	84.9609	83.0766	84.9609	83.0559	84.9609	83.0783	84.9609	83.0668	84.9609	83.0782	84.9609	83.0745
87.8906	84.0317	87.8906	84.0156	87.8906	84.0283	87.8906	83.9811	87.8906	84.0057	87.8906	83.93	87.8906	83.9653	87.8906	83.8655	87.8906	83.9098	87.8906	83.7915	87.8906	83.8428	87.8906	83.7125	87.8906	83.7693	87.8906	83.6339	87.8906	83.6947	87.8906	83.5609	87.8906	83.6248	87.8906	83.4988	87.8906	83.5647	87.8906	83.4515	87.8906	83.5187	87.8906	83.4216	87.8906	83.4889	87.8906	83.4095	87.8906	83.4753	87.8906	83.4134	87.8906	83.4754	87.8906	83.4296	87.8906	83.4848	87.8906	83.4528	87.8906	83.4981	87.8906	83.4775	87.8906	83.5097	87.8906	83.4983	87.8906	83.515	87.8906	83.5114
90.8203	84.4301	90.8203	84.414	90.8203	84.4255	90.8203	84.3781	90.8203	84.4004	90.8203	84.3245	90.8203	84.3563	90.8203	84.2563	90.8203	84.2959	90.8203	84.1775	90.8203	84.2228	90.8203	84.0929	90.8203	84.1419	90.8203	84.0082	90.8203	84.0588	90.8203	83.9288	90.8203	83.9794	90.8203	83.8602	90.8203	83.9093	90.8203	83.8069	90.8203	83.8535	90.8203	83.7718	90.8203	83.8149	90.8203	83.7553	90.8203	83.7943	90.8203	83.7559	90.8203	83.7899	90.8203	83.7693	90.8203	83.7977	90.8203	83.7901	90.8203	83.8121	90.8203	83.8118	90.8203	83.8268	90.8203	83.829	90.8203	83.8366	90.8203	83.8377
95.2148	85.0284	95.2148	85.0121	95.2148	85.0208	95.2148	84.9727	95.2148	84.9896	95.2148	84.9125	95.2148	84.9365	95.2148	84.8346	95.2148	84.8644	95.2148	84.7433	95.2148	84.7773	95.2148	84.6435	95.2148	84.6804	95.2148	84.5409	95.2148	84.5794	95.2148	84.4412	95.2148	84.4804	95.2148	84.3499	95.2148	84.3893	95.2148	84.272	95.2148	84.3111	95.2148	84.2109	95.2148	84.2495	95.2148	84.1684	95.2148	84.2056	95.2148	84.144	95.2148	84.1787	95.2148	84.1349	95.2148	84.1657	95.2148	84.1369	95.2148	84.1621	95.2148	84.1449	95.2148	84.1628	95.2148	84.154	95.2148	84.1633	95.2148	84.1606
98.1445	85.2937	98.1445	85.2848	98.1445	85.2787	98.1445	85.2527	98.1445	85.2407	98.1445	85.1992	98.1445	85.1817	98.1445	85.1273	98.1445	85.1051	98.1445	85.0411	98.1445	85.0151	98.1445	84.9457	98.1445	84.9174	98.1445	84.8468	98.1445	84.8179	98.1445	84.7506	98.1445	84.7229	98.1445	84.6629	98.1445	84.6382	98.1445	84.5887	98.1445	84.5685	98.1445	84.5315	98.1445	84.5168	98.1445	84.4928	98.1445	84.4836	98.1445	84.4716	98.1445	84.4673	98.1445	84.4649	98.1445	84.4643	98.1445	84.468	98.1445	84.4695	98.1445	84.4757	98.1445	84.4777	98.1445	84.483	98.1445	84.4843	98.1445	84.4864
101.074	85.4726	101.074	85.4586	101.074	85.4606	101.074	85.4197	101.074	85.4233	101.074	85.3581	101.074	85.3629	101.074	85.2776	101.074	85.283	101.074	85.1831	101.074	85.1885	101.074	85.0807	101.074	85.0857	101.074	84.9769	101.074	84.9816	101.074	84.8785	101.074	84.8835	101.074	84.7918	101.074	84.7983	101.074	84.722	101.074	84.7313	101.074	84.6725	101.074	84.6856	101.074	84.6443	101.074	84.6616	101.074	84.6358	101.074	84.6563	101.074	84.643	101.074	84.6648	101.074	84.66	101.074	84.6802	101.074	84.6801	101.074	84.6957	101.074	84.697	101.074	84.7056	101.074	84.7063
105.469	85.833	105.469	85.8167	105.469	85.821	105.469	85.7736	105.469	85.7809	105.469	85.7065	105.469	85.7141	105.469	85.6194	105.469	85.624	105.469	85.5173	105.469	85.5154	105.469	85.4063	105.469	85.3948	105.469	85.2933	105.469	85.2699	105.469	85.1852	105.469	85.1491	105.469	85.0885	105.469	85.0407	105.469	85.0087	105.469	84.9519	105.469	84.9493	105.469	84.8874	105.469	84.9113	105.469	84.8488	105.469	84.8928	105.469	84.8343	105.469	84.8896	105.469	84.8388	105.469	84.8955	105.469	84.8553	105.469	84.9038	105.469	84.8762	105.469	84.9087	105.469	84.8947	105.469	84.9062
108.398	86.1735	108.398	86.1622	108.398	86.157	108.398	86.1245	108.398	86.1132	108.398	86.0631	108.398	86.0436	108.398	85.9818	108.398	85.9519	108.398	85.8857	108.398	85.843	108.398	85.7806	108.398	85.7234	108.398	85.6731	108.398	85.6007	108.398	85.5698	108.398	85.483	108.398	85.4771	108.398	85.3784	108.398	85.4	108.398	85.2935	108.398	85.342	108.398	85.2328	108.398	85.304	108.398	85.1981	108.398	85.2843	108.398	85.1873	108.398	85.2788	108.398	85.1957	108.398	85.2817	108.398	85.2163	108.398	85.2864	108.398	85.2414	108.398	85.2873	108.398	85.2644	108.398	85.2803
112.793	86.5566	112.793	86.5389	112.793	86.5449	112.793	86.493	112.793	86.504	112.793	86.4218	112.793	86.4358	112.793	86.3298	112.793	86.344	112.793	86.2228	112.793	86.234	112.793	86.1079	112.793	86.1128	112.793	85.993	112.793	85.9886	112.793	85.8861	112.793	85.8707	112.793	85.7948	112.793	85.7681	112.793	85.7248	112.793	85.6883	112.793	85.6797	112.793	85.6364	112.793	85.6594	112.793	85.6136	112.793	85.6608	112.793	85.6167	112.793	85.6777	112.793	85.6391	112.793	85.7022	112.793	85.6718	112.793	85.7258	112.793	85.7051	112.793	85.7413	112.793	85.7308	112.793	85.7435
117.188	86.7738	117.188	86.7499	117.188	86.7657	117.188	86.6956	117.188	86.7257	117.188	86.6141	117.188	86.6554	117.188	86.5101	117.188	86.5583	117.188	86.3895	117.188	86.4398	117.188	86.2597	117.188	86.3066	117.188	86.1291	117.188	86.1673	117.188	86.006	117.188	86.0315	117.188	85.8989	117.188	85.9089	117.188	85.8143	117.188	85.8083	117.188	85.7563	117.188	85.736	117.188	85.7255	117.188	85.6947	117.188	85.719	117.188	85.6826	117.188	85.7302	117.188	85.6937	117.188	85.7509	117.188	85.719	117.188	85.7719	117.188	85.7486	117.188	85.7854	117.188	85.7732	117.188	85.7863
120.117	86.9958	120.117	86.9723	120.117	86.9869	120.117	86.918	120.117	86.9452	120.117	86.8362	120.117	86.8719	120.117	86.7313	120.117	86.77	120.117	86.6089	120.117	86.6444	120.117	86.4763	120.117	86.5017	120.117	86.3412	120.117	86.3505	120.117	86.2124	120.117	86.2006	120.117	86.0982	120.117	86.0626	120.117	86.0056	120.117	85.9462	120.117	85.9391	120.117	85.8592	120.117	85.8995	120.117	85.8056	120.117	85.8839	120.117	85.7847	120.117	85.8859	120.117	85.7913	120.117	85.897	120.117	85.8164	120.117	85.9081	120.117	85.8496	120.117	85.9116	120.117	85.8809	120.117	85.9028
124.512	87.3671	124.512	87.3388	124.512	87.3622	124.512	87.2791	124.512	87.3238	124.512	87.1914	124.512	87.2533	124.512	87.0804	124.512	87.1541	124.512	86.952	124.512	87.0312	124.512	86.8136	124.512	86.8914	124.512	86.6734	124.512	86.7431	124.512	86.5403	124.512	86.5957	124.512	86.4226	124.512	86.4589	124.512	86.3276	124.512	86.3415	124.512	86.2598	124.512	86.2506	124.512	86.2203	124.512	86.1899	124.512	86.2057	124.512	86.1595	124.512	86.2095	124.512	86.1554	124.512	86.2226	124.512	86.1701	124.512	86.2359	124.512	86.1945	124.512	86.2418	124.512	86.219	124.512	86.2362
128.906	87.4694	128.906	87.4437	128.906	87.4589	128.906	87.3834	128.906	87.4127	128.906	87.292	128.906	87.3332	128.906	87.1749	128.906	87.2253	128.906	87.0389	128.906	87.0952	128.906	86.8924	128.906	86.9513	128.906	86.7443	128.906	86.8029	128.906	86.6043	128.906	86.6598	128.906	86.4812	128.906	86.5314	128.906	86.3826	128.906	86.4256	128.906	86.3132	128.906	86.3478	128.906	86.2744	128.906	86.2998	128.906	86.2632	128.906	86.2797	128.906	86.2731	128.906	86.2818	128.906	86.2951	128.906	86.2981	128.906	86.3193	128.906	86.3192	128.906	86.3372	128.906	86.3365	128.906	86.3434
133.301	87.4324	133.301	87.4016	133.301	87.4285	133.301	87.3379	133.301	87.3905	133.301	87.2456	133.301	87.3218	133.301	87.1315	133.301	87.2277	133.301	87.0038	133.301	87.1156	133.301	86.8724	133.301	86.9943	133.301	86.7471	133.301	86.8734	133.301	86.6371	133.301	86.7624	133.301	86.5501	133.301	86.6697	133.301	86.4908	133.301	86.6011	133.301	86.4609	133.301	86.5595	133.301	86.4585	133.301	86.5439	133.301	86.4786	133.301	86.5499	133.301	86.5138	133.301	86.5706	133.301	86.5553	133.301	86.5975	133.301	86.5944	133.301	86.6223	133.301	86.6239	133.301	86.6377	133.301	86.6388
139.16	87.5431	139.16	87.502	139.16	87.5467	139.16	87.4261	139.16	87.5125	139.16	87.3204	139.16	87.4431	139.16	87.1924	139.16	87.3433	139.16	87.0517	139.16	87.2209	139.16	86.9099	139.16	87.0862	139.16	86.7794	139.16	86.9514	139.16	86.6724	139.16	86.8298	139.16	86.5992	139.16	86.7341	139.16	86.5661	139.16	86.6741	139.16	86.5738	139.16	86.6547	139.16	86.6177	139.16	86.6742	139.16	86.6877	139.16	86.7248	139.16	86.771	139.16	86.7941	139.16	86.8538	139.16	86.8675	139.16	86.9234	139.16	86.931	139.16	86.97	139.16	86.9734	139.16	86.9872
143.555	87.6682	143.555	87.6208	143.555	87.6736	143.555	87.5336	143.555	87.637	143.555	87.4113	143.555	87.5609	143.555	87.261	143.555	87.4503	143.555	87.0925	143.555	87.3128	143.555	86.9184	143.555	87.1585	143.555	86.7531	143.555	87.0003	143.555	86.6119	143.555	86.8525	143.555	86.5087	143.555	86.7296	143.555	86.4534	143.555	86.6441	143.555	86.4491	143.555	86.6036	143.555	86.4914	143.555	86.6087	143.555	86.5691	143.555	86.6525	143.555	86.666	143.555	86.7217	143.555	86.7648	143.555	86.7995	143.555	86.8491	143.555	86.8688	143.555	86.9065	143.555	86.9153	143.555	86.9292
147.949	87.8456	147.949	87.7922	147.949	87.8518	147.949	87.6936	147.949	87.8113	147.949	87.554	147.949	87.7267	147.949	87.3799	147.949	87.6031	147.949	87.181	147.949	87.4481	147.949	86.9694	147.949	87.2721	147.949	86.7601	147.949	87.0878	147.949	86.5699	147.949	86.9096	147.949	86.4153	147.949	86.7522	147.949	86.3102	147.949	86.6287	147.949	86.2623	147.949	86.5483	147.949	86.2711	147.949	86.5139	147.949	86.3271	147.949	86.5213	147.949	86.414	147.949	86.5595	147.949	86.5118	147.949	86.6128	147.949	86.6012	147.949	86.6637	147.949	86.6667	147.949	86.6963	147.949	86.6991
153.809	87.7687	153.809	87.7118	153.809	87.7724	153.809	87.6037	153.809	87.7237	153.809	87.4493	153.809	87.6266	153.809	87.2569	153.809	87.4879	153.809	87.0379	153.809	87.3177	153.809	86.807	153.809	87.1291	153.809	86.5824	153.809	86.9378	153.809	86.384	153.809	86.761	153.809	86.2316	153.809	86.6155	153.809	86.1407	153.809	86.5149	153.809	86.1186	153.809	86.4669	153.809	86.162	153.809	86.4708	153.809	86.257	153.809	86.5173	153.809	86.3829	153.809	86.5901	153.809	86.5161	153.809	86.6695	153.809	86.6351	153.809	86.736	153.809	86.7232	153.809	86.7731	153.809	86.7702
159.668	88.0939	159.668	88.0454	159.668	88.0894	159.668	87.9448	159.668	88.0334	159.668	87.7956	159.668	87.9299	159.668	87.6037	159.668	87.7856	159.668	87.3777	159.668	87.6101	159.668	87.1297	159.668	87.4154	159.668	86.8749	159.668	87.2162	159.668	86.6323	159.668	87.0285	159.668	86.4228	159.668	86.8679	159.668	86.2671	159.668	86.7476	159.668	86.181	159.668	86.6754	159.668	86.1704	159.668	86.6517	159.668	86.2288	159.668	86.6688	159.668	86.3377	159.668	86.7122	159.668	86.4718	159.668	86.7633	159.668	86.6044	159.668	86.8026	159.668	86.7137	159.668	86.8136	159.668	86.7852
165.527	88.2625	165.527	88.2293	165.527	88.2425	165.527	88.1445	165.527	88.1703	165.527	88.0123	165.527	88.0499	165.527	87.8392	165.527	87.8884	165.527	87.6348	165.527	87.6961	165.527	87.4112	165.527	87.4871	165.527	87.1832	165.527	87.278	165.527	86.9683	165.527	87.0876	165.527	86.7849	165.527	86.9341	165.527	86.6504	165.527	86.8317	165.527	86.5776	165.527	86.7878	165.527	86.5711	165.527	86.8	165.527	86.6249	165.527	86.8565	165.527	86.7234	165.527	86.9384	165.527	86.8439	165.527	87.0236	165.527	86.9623	165.527	87.0912	165.527	87.0573	165.527	87.1244	165.527	87.1137
171.387	88.2006	171.387	88.1553	171.387	88.1873	171.387	88.0537	171.387	88.1157	171.387	87.901	171.387	87.989	171.387	87.7049	171.387	87.8139	171.387	87.4762	171.387	87.6006	171.387	87.229	171.387	87.3636	171.387	86.9805	171.387	87.1214	171.387	86.751	171.387	86.8959	171.387	86.562	171.387	86.71	171.387	86.4329	171.387	86.5838	171.387	86.3771	171.387	86.5298	171.387	86.3969	171.387	86.548	171.387	86.4819	171.387	86.6258	171.387	86.611	171.387	86.7398	171.387	86.7564	171.387	86.862	171.387	86.8903	171.387	86.9653	171.387	86.9892	171.387	87.0281	171.387	87.0373
177.246	88.2008	177.246	88.1497	177.246	88.1922	177.246	88.041	177.246	88.1242	177.246	87.8795	177.246	87.9996	177.246	87.6723	177.246	87.8245	177.246	87.4292	177.246	87.6085	177.246	87.1636	177.246	87.3651	177.246	86.8923	177.246	87.1117	177.246	86.6362	177.246	86.8695	177.246	86.4183	177.246	86.6614	177.246	86.2611	177.246	86.5086	177.246	86.1814	177.246	86.4259	177.246	86.1845	177.246	86.4168	177.246	86.2611	177.246	86.4714	177.246	86.3891	177.246	86.568	177.246	86.5385	177.246	86.6786	177.246	86.6786	177.246	86.7745	177.246	86.7837	177.246	86.8323	177.246	86.837
183.105	88.2072	183.105	88.16	183.105	88.1923	183.105	88.0525	183.105	88.1163	183.105	87.8889	183.105	87.983	183.105	87.6765	183.105	87.7994	183.105	87.4255	183.105	87.5761	183.105	87.1499	183.105	87.3275	183.105	86.8678	183.105	87.0722	183.105	86.6012	183.105	86.832	183.105	86.3753	183.105	86.6299	183.105	86.2143	183.105	86.4869	183.105	86.1363	183.105	86.4166	183.105	86.1471	183.105	86.4212	183.105	86.2366	183.105	86.489	183.105	86.3805	183.105	86.5972	183.105	86.5461	183.105	86.7164	183.105	86.7007	183.105	86.8175	183.105	86.8172	183.105	86.8765	183.105	86.878
188.965	88.2487	188.965	88.1921	188.965	88.2374	188.965	88.0698	188.965	88.1585	188.965	87.8866	188.965	88.0152	188.965	87.6497	188.965	87.8139	188.965	87.3693	188.965	87.5653	188.965	87.0593	188.965	87.2846	188.965	86.7384	188.965	86.9923	188.965	86.431	188.965	86.7136	188.965	86.1659	188.965	86.4768	188.965	85.9731	188.965	86.3084	188.965	85.8769	188.965	86.2268	188.965	85.8868	188.965	86.2352	188.965	85.9924	188.965	86.3196	188.965	86.1651	188.965	86.451	188.965	86.3655	188.965	86.5936	188.965	86.5537	188.965	86.7119	188.965	86.6973	188.965	86.7781	188.965	86.7748
196.289	88.5099	196.289	88.4707	196.289	88.4803	196.289	88.3639	196.289	88.3828	196.289	88.193	196.289	88.2212	196.289	87.9638	196.289	88.0021	196.289	87.6846	196.289	87.7363	196.289	87.3676	196.289	87.4384	196.289	87.0294	196.289	87.1282	196.289	86.6925	196.289	86.8294	196.289	86.3851	196.289	86.5687	196.289	86.139	196.289	86.372	196.289	85.983	196.289	86.2589	196.289	85.9344	196.289	86.2362	196.289	85.9906	196.289	86.2937	196.289	86.1277	196.289	86.4056	196.289	86.3072	196.289	86.5363	196.289	86.4862	196.289	86.6485	196.289	86.6276	196.289	86.7115	196.289	86.7062
203.613	88.4874	203.613	88.4529	203.613	88.4475	203.613	88.3459	203.613	88.3333	203.613	88.1706	203.613	88.1479	203.613	87.9335	203.613	87.8978	203.613	87.6439	203.613	87.5935	203.613	87.3144	203.613	87.2511	203.613	86.9622	203.613	86.893	203.613	86.6106	203.613	86.5477	203.613	86.2888	203.613	86.248	203.613	86.0303	203.613	86.0262	203.613	85.8658	203.613	85.9059	203.613	85.8134	203.613	85.8943	203.613	85.8698	203.613	85.9776	203.613	86.0086	203.613	86.1237	203.613	86.1878	203.613	86.2911	203.613	86.3617	203.613	86.4385	203.613	86.4917	203.613	86.5323	203.613	86.5519
210.938	88.5879	210.938	88.5419	210.938	88.5584	210.938	88.4235	210.938	88.4529	210.938	88.2376	210.938	88.2735	210.938	87.9915	210.938	88.0258	210.938	87.694	210.938	87.7194	210.938	87.3567	210.938	87.369	210.938	86.9946	210.938	86.9954	210.938	86.6275	210.938	86.626	210.938	86.2811	210.938	86.2931	210.938	85.987	210.938	86.0306	210.938	85.778	210.938	85.8657	210.938	85.6788	210.938	85.8104	210.938	85.6947	210.938	85.8554	210.938	85.8058	210.938	85.9712	210.938	85.9712	210.938	86.1165	210.938	86.1422	210.938	86.2483	210.938	86.2756	210.938	86.3312	210.938	86.3424
218.262	88.4621	218.262	88.4092	218.262	88.441	218.262	88.2868	218.262	88.3444	218.262	88.1015	218.262	88.1735	218.262	87.862	218.262	87.9336	218.262	87.5793	218.262	87.6349	218.262	87.267	218.262	87.2936	218.262	86.9418	218.262	86.9331	218.262	86.6243	218.262	86.5839	218.262	86.3394	218.262	86.2816	218.262	86.1139	218.262	86.0609	218.262	85.9727	218.262	85.9465	218.262	85.9302	218.262	85.9447	218.262	85.9842	218.262	86.0386	218.262	86.1128	218.262	86.1932	218.262	86.2798	218.262	86.3653	218.262	86.4437	218.262	86.5138	218.262	86.5678	218.262	86.6069	218.262	86.6261
225.586	88.4692	225.586	88.4012	225.586	88.4513	225.586	88.253	225.586	88.3452	225.586	88.0324	225.586	88.1517	225.586	87.75	225.586	87.8764	225.586	87.4189	225.586	87.5303	225.586	87.0552	225.586	87.1323	225.586	86.6797	225.586	86.7107	225.586	86.3189	225.586	86.3046	225.586	86.0055	225.586	85.9616	225.586	85.7761	225.586	85.7301	225.586	85.6625	225.586	85.6441	225.586	85.68	225.586	85.7081	225.586	85.818	225.586	85.8924	225.586	86.0397	225.586	86.1433	225.586	86.2933	225.586	86.4007	225.586	86.5263	225.586	86.613	225.586	86.6953	225.586	86.7433	225.586	86.7719
232.91	88.6012	232.91	88.5235	232.91	88.5913	232.91	88.3636	232.91	88.4908	232.91	88.1283	232.91	88.2987	232.91	87.8262	232.91	88.0172	232.91	87.4675	232.91	87.6526	232.91	87.0649	232.91	87.2171	232.91	86.6355	232.91	86.7314	232.91	86.2029	232.91	86.229	232.91	85.7999	232.91	85.7592	232.91	85.4686	232.91	85.3849	232.91	85.2544	232.91	85.1681	232.91	85.191	232.91	85.1431	232.91	85.2823	232.91	85.2944	232.91	85.4949	232.91	85.5598	232.91	85.7671	232.91	85.8574	232.91	86.0301	232.91	86.1128	232.91	86.2251	232.91	86.2736	232.91	86.3124
241.699	88.531	241.699	88.4457	241.699	88.5335	241.699	88.283	241.699	88.4503	241.699	88.0501	241.699	88.2808	241.699	87.7564	241.699	88.0271	241.699	87.4131	241.699	87.6942	241.699	87.0334	241.699	87.2907	241.699	86.6337	241.699	86.8311	241.699	86.2346	241.699	86.3384	241.699	85.8623	241.699	85.8483	241.699	85.5487	241.699	85.4117	241.699	85.3268	241.699	85.0888	241.699	85.2225	241.699	84.9312	241.699	85.2418	241.699	84.955	241.699	85.3633	241.699	85.1259	241.699	85.5413	241.699	85.3728	241.699	85.7187	241.699	85.6169	241.699	85.8421	241.699	85.7956	241.699	85.8734
250.488	88.6968	250.488	88.571	250.488	88.7304	250.488	88.3577	250.488	88.669	250.488	88.0636	250.488	88.5124	250.488	87.6971	250.488	88.2631	250.488	87.2682	250.488	87.9271	250.488	86.7901	250.488	87.5145	250.488	86.282	250.488	87.0411	250.488	85.7724	250.488	86.5311	250.488	85.303	250.488	86.0203	250.488	84.926	250.488	85.558	250.488	84.6938	250.488	85.2025	250.488	84.6374	250.488	85.0049	250.488	84.7482	250.488	84.9843	250.488	84.9773	250.488	85.1128	250.488	85.2535	250.488	85.3242	250.488	85.5066	250.488	85.5404	250.488	85.6824	250.488	85.6957	250.488	85.7484
259.277	88.8999	259.277	88.8145	259.277	88.9019	259.277	88.6492	259.277	88.8193	259.277	88.4094	259.277	88.6535	259.277	88.1021	259.277	88.4085	259.277	87.7355	259.277	88.0909	259.277	87.3196	259.277	87.7103	259.277	86.8681	259.277	87.28	259.277	86.4012	259.277	86.8197	259.277	85.9492	259.277	86.3587	259.277	85.5543	259.277	85.9393	259.277	85.2659	259.277	85.6141	259.277	85.1263	259.277	85.4319	259.277	85.1507	259.277	85.4143	259.277	85.3138	259.277	85.537	259.277	85.5561	259.277	85.7364	259.277	85.8055	259.277	85.9347	259.277	85.9983	259.277	86.0662	259.277	86.091
268.066	88.6854	268.066	88.5798	268.066	88.6936	268.066	88.3793	268.066	88.6055	268.066	88.0908	268.066	88.4262	268.066	87.7246	268.066	88.164	268.066	87.294	268.066	87.8301	268.066	86.8156	268.066	87.4374	268.066	86.3106	268.066	87.0012	268.066	85.8071	268.066	86.5401	268.066	85.3436	268.066	86.0789	268.066	84.9697	268.066	85.6531	268.066	84.7389	268.066	85.31	268.066	84.6889	268.066	85.1005	268.066	84.8175	268.066	85.0578	268.066	85.075	268.066	85.173	268.066	85.3817	268.066	85.3908	268.066	85.6568	268.066	85.6307	268.066	85.8389	268.066	85.8162	268.066	85.8938
276.855	88.6196	276.855	88.5086	276.855	88.6395	276.855	88.3108	276.855	88.5647	276.855	88.0321	276.855	88.394	276.855	87.6787	276.855	88.1292	276.855	87.2578	276.855	87.7776	276.855	86.7777	276.855	87.3541	276.855	86.2499	276.855	86.883	276.855	85.6945	276.855	86.3979	276.855	85.1484	276.855	85.9396	276.855	84.672	276.855	85.5504	276.855	84.3441	276.855	85.267	276.855	84.2341	276.855	85.1141	276.855	84.3582	276.855	85.0978	276.855	84.6598	276.855	85.2005	276.855	85.0363	276.855	85.3791	276.855	85.3847	276.855	85.5709	276.855	85.6313	276.855	85.7093	276.855	85.7397
287.109	88.933	287.109	88.8758	287.109	88.892	287.109	88.7224	287.109	88.755	287.109	88.4776	287.109	88.5277	287.109	88.1489	287.109	88.2194	287.109	87.7456	287.109	87.8416	287.109	87.2785	287.109	87.4082	287.109	86.7606	287.109	86.9364	287.109	86.2082	287.109	86.4508	287.109	85.6451	287.109	85.9882	287.109	85.1098	287.109	85.6	287.109	84.6621	287.109	85.3421	287.109	84.3778	287.109	85.2499	287.109	84.3174	287.109	85.3128	287.109	84.4822	287.109	85.4735	287.109	84.8018	287.109	85.654	287.109	85.171	287.109	85.7837	287.109	85.4963	287.109	85.8139	287.109	85.7188
297.363	88.9548	297.363	88.9146	297.363	88.8902	297.363	88.7745	297.363	88.7186	297.363	88.5405	297.363	88.4425	297.363	88.2184	297.363	88.0701	297.363	87.813	297.363	87.6169	297.363	87.3295	297.363	87.1068	297.363	86.7773	297.363	86.573	297.363	86.1777	297.363	86.059	297.363	85.5733	297.363	85.619	297.363	85.0373	297.363	85.3148	297.363	84.6684	297.363	85.2015	297.363	84.5565	297.363	85.3014	297.363	84.7274	297.363	85.581	297.363	85.1177	297.363	85.9571	297.363	85.61	297.363	86.3283	297.363	86.0878	297.363	86.6075	297.363	86.4652	297.363	86.7371	297.363	86.6898
307.617	89.0407	307.617	88.9338	307.617	89.0432	307.617	88.7341	307.617	88.9328	307.617	88.456	307.617	88.7049	307.617	88.1145	307.617	88.3586	307.617	87.7226	307.617	87.8984	307.617	87.2888	307.617	87.3355	307.617	86.8163	307.617	86.6909	307.617	86.3052	307.617	86.0001	307.617	85.7597	307.617	85.3201	307.617	85.2003	307.617	84.7363	307.617	84.681	307.617	84.3542	307.617	84.2971	307.617	84.259	307.617	84.1571	307.617	84.4536	307.617	84.3091	307.617	84.8414	307.617	84.6866	307.617	85.276	307.617	85.1447	307.617	85.6263	307.617	85.5403	307.617	85.8062	307.617	85.7764
319.336	88.7922	319.336	88.6859	319.336	88.7984	319.336	88.4906	319.336	88.6957	319.336	88.2176	319.336	88.4785	319.336	87.8773	319.336	88.1457	319.336	87.4776	319.336	87.7006	319.336	87.0246	319.336	87.1521	319.336	86.5268	319.336	86.515	319.336	86.0011	319.336	85.8149	319.336	85.4794	319.336	85.0993	319.336	85.0106	319.336	84.4536	319.336	84.6566	319.336	84.0059	319.336	84.4768	319.336	83.8849	319.336	84.5046	319.336	84.1247	319.336	84.7258	319.336	84.615	319.336	85.0759	319.336	85.1699	319.336	85.4588	319.336	85.6281	319.336	85.7739	319.336	85.8945	319.336	85.9374
329.59	88.7677	329.59	88.638	329.59	88.7994	329.59	88.4218	329.59	88.7257	329.59	88.1327	329.59	88.5429	329.59	87.7836	329.59	88.2498	329.59	87.3827	329.59	87.8471	329.59	86.9314	329.59	87.3363	329.59	86.4259	329.59	86.7211	329.59	85.8654	329.59	86.0116	329.59	85.2668	329.59	85.2362	329.59	84.6841	329.59	84.4624	329.59	84.2204	329.59	83.8176	329.59	84.0047	329.59	83.474	329.59	84.1109	329.59	83.5498	329.59	84.4868	329.59	83.994	329.59	84.9817	329.59	84.6126	329.59	85.4354	329.59	85.2004	329.59	85.7311	329.59	85.6191	329.59	85.801
341.309	88.9615	341.309	88.8383	341.309	88.9676	341.309	88.6031	341.309	88.8575	341.309	88.2681	341.309	88.637	341.309	87.8526	341.309	88.3145	341.309	87.38	341.309	87.899	341.309	86.8744	341.309	87.3979	341.309	86.3543	341.309	86.8156	341.309	85.8303	341.309	86.1564	341.309	85.3086	341.309	85.4329	341.309	84.8045	341.309	84.6865	341.309	84.3608	341.309	84.0139	341.309	84.0574	341.309	83.5739	341.309	83.9838	341.309	83.5142	341.309	84.171	341.309	83.8366	341.309	84.5452	341.309	84.3707	341.309	84.962	341.309	84.899	341.309	85.2781	341.309	85.2652	341.309	85.3945
353.027	88.9147	353.027	88.7696	353.027	88.9328	353.027	88.509	353.027	88.8164	353.027	88.1474	353.027	88.5639	353.027	87.7	353.027	88.1802	353.027	87.1805	353.027	87.6781	353.027	86.6001	353.027	87.077	353.027	85.9678	353.027	86.4018	353.027	85.296	353.027	85.6817	353.027	84.6118	353.027	84.9546	353.027	83.9779	353.027	84.2791	353.027	83.5095	353.027	83.7478	353.027	83.3497	353.027	83.4787	353.027	83.5713	353.027	83.5546	353.027	84.0897	353.027	83.9456	353.027	84.7114	353.027	84.5083	353.027	85.2507	353.027	85.0666	353.027	85.5878	353.027	85.4811	353.027	85.6669
366.211	89.4398	366.211	89.3201	366.211	89.4309	366.211	89.0809	366.211	89.2859	366.211	88.7337	366.211	88.9991	366.211	88.2904	366.211	88.5684	366.211	87.7605	366.211	87.9979	366.211	87.1474	366.211	87.3007	366.211	86.446	366.211	86.4996	366.211	85.6465	366.211	85.6259	366.211	84.7451	366.211	84.7208	366.211	83.7705	366.211	83.8477	366.211	82.8322	366.211	83.1192	366.211	82.1662	366.211	82.7088	366.211	82.0556	366.211	82.7696	366.211	82.5567	366.211	83.2733	366.211	83.3981	366.211	83.9884	366.211	84.2375	366.211	84.6457	366.211	84.852	366.211	85.0592	366.211	85.1363
379.395	89.8234	379.395	89.6979	379.395	89.8438	379.395	89.4814	379.395	89.7481	379.395	89.1894	379.395	89.5297	379.395	88.8367	379.395	89.187	379.395	88.4338	379.395	88.7231	379.395	87.9834	379.395	88.1431	379.395	87.4794	379.395	87.4489	379.395	86.9071	379.395	86.6361	379.395	86.2462	379.395	85.7008	379.395	85.4793	379.395	84.6666	379.395	84.6135	379.395	83.6343	379.395	83.7205	379.395	82.8261	379.395	82.9778	379.395	82.5081	379.395	82.6271	379.395	82.7365	379.395	82.7728	379.395	83.2644	379.395	83.2423	379.395	83.7751	379.395	83.7414	379.395	84.0646	379.395	84.0501
392.578	89.1746	392.578	89.0239	392.578	89.2071	392.578	88.7692	392.578	89.1141	392.578	88.4313	392.578	88.8962	392.578	88.0374	392.578	88.5633	392.578	87.6189	392.578	88.1316	392.578	87.2036	392.578	87.6171	392.578	86.8032	392.578	87.0273	392.578	86.4039	392.578	86.3565	392.578	85.9703	392.578	85.5928	392.578	85.4651	392.578	84.7425	392.578	84.8848	392.578	83.8742	392.578	84.3007	392.578	83.1676	392.578	83.8742	392.578	82.8812	392.578	83.78	392.578	83.1378	392.578	84.0413	392.578	83.7546	392.578	84.4822	392.578	84.4104	392.578	84.8664	392.578	84.8682	392.578	85.022
405.762	88.902	405.762	88.7798	405.762	88.8705	405.762	88.5147	405.762	88.6882	405.762	88.1279	405.762	88.373	405.762	87.6487	405.762	87.9581	405.762	87.1127	405.762	87.4848	405.762	86.5581	405.762	86.9884	405.762	86.02	405.762	86.4818	405.762	85.5209	405.762	85.945	405.762	85.0632	405.762	85.3336	405.762	84.6302	405.762	84.6092	405.762	84.2069	405.762	83.7934	405.762	83.8178	405.762	83.0405	405.762	83.5559	405.762	82.6512	405.762	83.5493	405.762	82.8494	405.762	83.8392	405.762	83.4895	405.762	84.2963	405.762	84.2008	405.762	84.7002	405.762	84.7002	405.762	84.8668
420.41	89.603	420.41	89.419	420.41	89.6146	420.41	89.0724	420.41	89.4524	420.41	88.5836	420.41	89.1226	420.41	87.9859	420.41	88.6404	420.41	87.3235	420.41	88.0313	420.41	86.6431	420.41	87.3286	420.41	85.9817	420.41	86.5641	420.41	85.3564	420.41	85.7546	420.41	84.766	420.41	84.894	420.41	84.2046	420.41	83.9659	420.41	83.684	420.41	82.9916	420.41	83.2616	420.41	82.1171	420.41	83.0482	420.41	81.6682	420.41	83.1513	420.41	81.9266	420.41	83.5554	420.41	82.7374	420.41	84.0816	420.41	83.65	420.41	84.4927	420.41	84.3204	420.41	84.6036
435.059	89.3079	435.059	89.1223	435.059	89.3023	435.059	88.7518	435.059	89.1142	435.059	88.2187	435.059	88.7666	435.059	87.564	435.059	88.2978	435.059	86.8505	435.059	87.7591	435.059	86.1583	435.059	87.2061	435.059	85.5654	435.059	86.6794	435.059	85.1126	435.059	86.1827	435.059	84.7819	435.059	85.6756	435.059	84.5124	435.059	85.0908	435.059	84.2434	435.059	84.3753	435.059	83.9565	435.059	83.5471	435.059	83.7012	435.059	82.7642	435.059	83.5803	435.059	82.3325	435.059	83.6648	435.059	82.4769	435.059	83.8898	435.059	83.042	435.059	84.0682	435.059	83.6461	435.059	84.0143
451.172	90.318	451.172	90.1705	451.172	90.2734	451.172	89.8398	451.172	90.0239	451.172	89.326	451.172	89.559	451.172	88.6192	451.172	88.8791	451.172	87.7039	451.172	88.0055	451.172	86.5715	451.172	86.9915	451.172	85.242	451.172	85.9311	451.172	83.7975	451.172	84.9508	451.172	82.4267	451.172	84.1615	451.172	81.4282	451.172	83.5843	451.172	81.045	451.172	83.14	451.172	81.2231	451.172	82.7425	451.172	81.6865	451.172	82.4039	451.172	82.2	451.172	82.2411	451.172	82.6502	451.172	82.3481	451.172	82.9886	451.172	82.6572	451.172	83.1771	451.172	82.9852	451.172	83.1789
465.82	89.625	465.82	89.5158	465.82	89.5837	465.82	89.261	465.82	89.3874	465.82	88.8618	465.82	89.0349	465.82	88.3141	465.82	88.5295	465.82	87.6119	465.82	87.8767	465.82	86.7559	465.82	87.0806	465.82	85.7594	465.82	86.1411	465.82	84.6534	465.82	85.0633	465.82	83.4987	465.82	83.8902	465.82	82.4171	465.82	82.7549	465.82	81.6101	465.82	81.9046	465.82	81.2817	465.82	81.5872	465.82	81.4783	465.82	81.8249	465.82	82.043	465.82	82.3929	465.82	82.7397	465.82	83.0296	465.82	83.3696	465.82	83.5622	465.82	83.8056	465.82	83.8975	465.82	83.9858
483.398	89.4119	483.398	89.2756	483.398	89.3633	483.398	88.9742	483.398	89.1303	483.398	88.5474	483.398	88.7318	483.398	88.0452	483.398	88.2023	483.398	87.5083	483.398	87.5866	483.398	86.945	483.398	86.9277	483.398	86.3204	483.398	86.2474	483.398	85.5676	483.398	85.5302	483.398	84.6213	483.398	84.7262	483.398	83.4721	483.398	83.7844	483.398	82.2482	483.398	82.7286	483.398	81.289	483.398	81.7791	483.398	81.022	483.398	81.3832	483.398	81.5314	483.398	81.8016	483.398	82.4505	483.398	82.703	483.398	83.3632	483.398	83.58	483.398	84.0176	483.398	84.1438	483.398	84.2932
499.512	89.297	499.512	89.1073	499.512	89.2651	499.512	88.7046	499.512	89.0144	499.512	88.1153	499.512	88.5563	499.512	87.3886	499.512	87.9141	499.512	86.5912	499.512	87.1295	499.512	85.7856	499.512	86.2648	499.512	84.9977	499.512	85.3925	499.512	84.204	499.512	84.5708	499.512	83.3649	499.512	83.8176	499.512	82.4917	499.512	83.1106	499.512	81.7047	499.512	82.4433	499.512	81.225	499.512	81.9152	499.512	81.2427	499.512	81.7542	499.512	81.7442	499.512	82.1161	499.512	82.5161	499.512	82.8366	499.512	83.2967	499.512	83.5655	499.512	83.8828	499.512	84.0405	499.512	84.1497
517.09	89.1258	517.09	88.9629	517.09	89.1188	517.09	88.6422	517.09	88.9421	517.09	88.1876	517.09	88.6082	517.09	87.6337	517.09	88.1416	517.09	87.0179	517.09	87.5737	517.09	86.3646	517.09	86.9288	517.09	85.6624	517.09	86.2042	517.09	84.8542	517.09	85.3577	517.09	83.8505	517.09	84.3178	517.09	82.579	517.09	83.0294	517.09	81.1053	517.09	81.5689	517.09	79.865	517.09	80.3696	517.09	79.6374	517.09	80.1987	517.09	80.5536	517.09	81.1563	517.09	81.8766	517.09	82.4564	517.09	83.0387	517.09	83.5021	517.09	83.8337	517.09	84.092	517.09	84.1961
536.133	88.8532	536.133	88.5841	536.133	88.8369	536.133	88.0608	536.133	88.5125	536.133	87.3238	536.133	87.8792	536.133	86.4355	536.133	86.9833	536.133	85.4942	536.133	85.9455	536.133	84.6307	536.133	84.9666	536.133	83.956	536.133	84.2589	536.133	83.4712	536.133	83.8848	536.133	83.0401	536.133	83.6586	536.133	82.4809	536.133	83.274	536.133	81.7036	536.133	82.513	536.133	80.8426	536.133	81.4317	536.133	80.3449	536.133	80.6183	536.133	80.684	536.133	80.9324	536.133	81.7191	536.133	82.1495	536.133	82.88	536.133	83.3417	536.133	83.7579	536.133	84.0447	536.133	84.1724
555.176	89.4909	555.176	89.2954	555.176	89.4012	555.176	88.8079	555.176	89.0363	555.176	88.0309	555.176	88.4128	555.176	86.996	555.176	87.5574	555.176	85.7917	555.176	86.51	555.176	84.5694	555.176	85.3269	555.176	83.4815	555.176	84.0936	555.176	82.5673	555.176	82.9397	555.176	81.7101	555.176	82.002	555.176	80.7501	555.176	81.3017	555.176	79.6855	555.176	80.6969	555.176	78.8855	555.176	80.083	555.176	79.0003	555.176	79.7114	555.176	80.1294	555.176	80.1614	555.176	81.6274	555.176	81.4451	555.176	82.9328	555.176	82.8321	555.176	83.7909	555.176	83.772	555.176	84.091
574.219	89.3035	574.219	89.0935	574.219	89.2926	574.219	88.688	574.219	89.0342	574.219	88.0984	574.219	88.5189	574.219	87.3253	574.219	87.7663	574.219	86.3731	574.219	86.821	574.219	85.2669	574.219	85.7371	574.219	84.0556	574.219	84.563	574.219	82.7867	574.219	83.3317	574.219	81.4664	574.219	82.0498	574.219	80.0438	574.219	80.6892	574.219	78.4788	574.219	79.2469	574.219	76.9644	574.219	78.0145	574.219	76.2678	574.219	77.861	574.219	77.1353	574.219	79.1277	574.219	78.9247	574.219	80.7917	574.219	80.6547	574.219	82.0342	574.219	81.9107	574.219	82.6323	574.219	82.5814
594.727	88.8442	594.727	88.6497	594.727	88.7411	594.727	88.1806	594.727	88.3375	594.727	87.4745	594.727	87.6672	594.727	86.5961	594.727	86.8082	594.727	85.6485	594.727	85.8663	594.727	84.7485	594.727	84.9354	594.727	83.9535	594.727	84.0513	594.727	83.1966	594.727	83.1683	594.727	82.3057	594.727	82.1827	594.727	81.11	594.727	80.9905	594.727	79.586	594.727	79.5786	594.727	78.0411	594.727	78.2505	594.727	77.2378	594.727	77.9072	594.727	77.7777	594.727	79.0556	594.727	79.1938	594.727	80.7229	594.727	80.6903	594.727	81.9926	594.727	81.8519	594.727	82.5889	594.727	82.5161
615.234	89.6731	615.234	89.3495	615.234	89.6482	615.234	88.7095	615.234	89.2704	615.234	87.8241	615.234	88.5553	615.234	86.8037	615.234	87.5402	615.234	85.7756	615.234	86.2972	615.234	84.8507	615.234	84.9578	615.234	84.0942	615.234	83.7264	615.234	83.491	615.234	82.7931	615.234	82.9093	615.234	82.121	615.234	82.1226	615.234	81.4059	615.234	80.9221	615.234	80.2915	615.234	79.3245	615.234	78.5612	615.234	78.0512	615.234	76.7298	615.234	78.4585	615.234	77.2158	615.234	80.2142	615.234	79.9146	615.234	81.9775	615.234	82.2176	615.234	83.2056	615.234	83.4681	615.234	83.7452
637.207	90.112	637.207	89.8055	637.207	90.1054	637.207	89.2214	637.207	89.7728	637.207	88.3986	637.207	89.1352	637.207	87.3689	637.207	88.2426	637.207	86.1843	637.207	87.1567	637.207	84.9658	637.207	85.9369	637.207	83.889	637.207	84.6619	637.207	83.0439	637.207	83.4628	637.207	82.3104	637.207	82.4364	637.207	81.4269	637.207	81.4435	637.207	80.1542	637.207	80.1235	637.207	78.4321	637.207	78.2716	637.207	76.9244	637.207	76.9463	637.207	77.69	637.207	78.496	637.207	80.4377	637.207	81.3375	637.207	82.9296	637.207	83.523	637.207	84.4845	637.207	84.7602	637.207	85.0799
659.18	90.4401	659.18	90.1624	659.18	90.3807	659.18	89.5574	659.18	89.98	659.18	88.6435	659.18	89.2591	659.18	87.4857	659.18	88.2806	659.18	86.2323	659.18	87.1353	659.18	85.0579	659.18	85.9078	659.18	83.9935	659.18	84.6791	659.18	82.8473	659.18	83.5327	659.18	81.4088	659.18	82.4465	659.18	79.7973	659.18	81.2121	659.18	78.5073	659.18	79.5397	659.18	77.7806	659.18	77.2228	659.18	77.5092	659.18	75.1161	659.18	78.1277	659.18	76.4809	659.18	79.9021	659.18	79.7882	659.18	81.8924	659.18	82.2745	659.18	83.3124	659.18	83.6106	659.18	83.9173
682.617	90.8231	682.617	90.5327	682.617	90.7363	682.617	89.871	682.617	90.258	682.617	88.8332	682.617	89.39	682.617	87.4517	682.617	88.1631	682.617	85.8908	682.617	86.6375	682.617	84.5214	682.617	84.9513	682.617	83.7317	682.617	83.4577	682.617	83.3824	682.617	82.6472	682.617	82.8323	682.617	82.5192	682.617	81.5783	682.617	82.45	682.617	79.3925	682.617	81.7845	682.617	76.2959	682.617	79.8797	682.617	74.4062	682.617	75.4635	682.617	76.9674	682.617	69.1843	682.617	80.4454	682.617	77.5974	682.617	83.0992	682.617	82.469	682.617	84.7737	682.617	84.741	682.617	85.3826
707.52	90.9944	707.52	90.7346	707.52	90.82	707.52	90.0269	707.52	90.2728	707.52	88.8985	707.52	89.4549	707.52	87.4058	707.52	88.4353	707.52	85.5987	707.52	87.1331	707.52	83.584	707.52	85.32	707.52	81.927	707.52	82.8025	707.52	81.5786	707.52	79.8846	707.52	82.1183	707.52	78.3287	707.52	82.1763	707.52	79.1196	707.52	80.9501	707.52	80.1307	707.52	77.987	707.52	80.0311	707.52	72.1654	707.52	78.0708	707.52	68.0522	707.52	73.8586	707.52	76.7504	707.52	76.2194	707.52	81.5626	707.52	81.4686	707.52	84.0951	707.52	84.1619	707.52	84.937
732.422	89.8018	732.422	89.6012	732.422	89.6843	732.422	89.1044	732.422	89.2635	732.422	88.3472	732.422	88.5749	732.422	87.3371	732.422	87.6449	732.422	86.0641	732.422	86.4835	732.422	84.5813	732.422	85.0939	732.422	83.0356	732.422	83.4237	732.422	81.6602	732.422	81.2945	732.422	80.8505	732.422	78.6584	732.422	80.6878	732.422	76.6046	732.422	80.4158	732.422	76.787	732.422	79.202	732.422	77.7089	732.422	76.2253	732.422	77.3635	732.422	70.4861	732.422	74.881	732.422	70.813	732.422	72.5212	732.422	76.0994	732.422	75.9275	732.422	78.8404	732.422	78.8519	732.422	79.7287
757.324	89.6855	757.324	89.408	757.324	89.6114	757.324	88.8388	757.324	89.1492	757.324	87.9972	757.324	88.3353	757.324	86.8641	757.324	87.2441	757.324	85.4525	757.324	85.8965	757.324	83.8548	757.324	84.2285	757.324	82.199	757.324	82.1821	757.324	80.617	757.324	79.8914	757.324	79.2839	757.324	77.853	757.324	78.4323	757.324	76.7505	757.324	78.2417	757.324	76.8081	757.324	78.2297	757.324	77.3008	757.324	77.0699	757.324	77.0797	757.324	73.8092	757.324	75.4192	757.324	73.4862	757.324	73.6396	757.324	77.4653	757.324	75.9021	757.324	79.6625	757.324	78.7871	757.324	80.0444
785.156	89.3513	785.156	89.1093	785.156	89.222	785.156	88.5931	785.156	88.6919	785.156	87.8762	785.156	87.8535	785.156	86.9419	785.156	86.8736	785.156	85.6842	785.156	85.8617	785.156	83.9916	785.156	84.7678	785.156	81.8998	785.156	83.3896	785.156	79.722	785.156	81.4978	785.156	77.8822	785.156	79.0572	785.156	76.7219	785.156	76.3781	785.156	76.4044	785.156	73.8666	785.156	76.234	785.156	72.1251	785.156	74.8425	785.156	72.3838	785.156	70.9753	785.156	73.487	785.156	70.4209	785.156	74.8592	785.156	76.4167	785.156	77.6373	785.156	79.8746	785.156	80.1894	785.156	81.0371
811.523	87.8834	811.523	87.8651	811.523	87.7887	811.523	87.5051	811.523	87.6188	811.523	86.6651	811.523	87.1972	811.523	85.4486	811.523	86.3402	811.523	84.0972	811.523	84.8899	811.523	82.7271	811.523	82.6995	811.523	81.2776	811.523	79.9238	811.523	79.7831	811.523	77.2684	811.523	78.5424	811.523	75.3652	811.523	77.9651	811.523	74.3351	811.523	77.9947	811.523	74.3593	811.523	77.7904	811.523	75.7582	811.523	76.3714	811.523	75.9776	811.523	73.3525	811.523	72.7676	811.523	70.9034	811.523	70.0793	811.523	72.9433	811.523	75.0661	811.523	75.6043	811.523	77.2796	811.523	77.1695
840.82	89.026	840.82	88.7811	840.82	88.6761	840.82	88.1054	840.82	87.7771	840.82	87.2151	840.82	86.6203	840.82	86.1345	840.82	85.5471	840.82	84.5848	840.82	84.5535	840.82	82.2226	840.82	83.3201	840.82	79.1385	840.82	81.7621	840.82	76.4298	840.82	80.0773	840.82	75.3085	840.82	78.217	840.82	75.0665	840.82	76.1277	840.82	75.2881	840.82	74.9087	840.82	75.874	840.82	74.8852	840.82	75.6537	840.82	73.9202	840.82	73.7548	840.82	71.2255	840.82	72.3326	840.82	69.8119	840.82	74.5121	840.82	72.7507	840.82	76.4824	840.82	75.5407	840.82	76.8191
870.117	88.3918	870.117	88.2959	870.117	87.9569	870.117	87.6489	870.117	87.1076	870.117	86.5077	870.117	86.0183	870.117	84.9662	870.117	84.8636	870.117	83.0922	870.117	83.7914	870.117	80.8232	870.117	82.7791	870.117	77.9633	870.117	81.5459	870.117	74.7502	870.117	79.7724	870.117	73.0159	870.117	77.6225	870.117	73.257	870.117	75.8579	870.117	73.7787	870.117	74.4668	870.117	74.5992	870.117	72.6028	870.117	74.9251	870.117	70.8861	870.117	73.4033	870.117	70.2041	870.117	69.8306	870.117	69.2827	870.117	71.0726	870.117	72.2915	870.117	75.3386	870.117	75.9665	870.117	77.0007
900.879	88.3224	900.879	88.0767	900.879	88.0219	900.879	87.2818	900.879	87.2657	900.879	86.0738	900.879	86.1728	900.879	84.6192	900.879	84.8399	900.879	82.9427	900.879	83.2358	900.879	80.9574	900.879	81.2104	900.879	78.6077	900.879	78.7776	900.879	76.1657	900.879	76.3427	900.879	74.5865	900.879	74.2839	900.879	74.0398	900.879	72.444	900.879	73.9313	900.879	72.3016	900.879	74.1049	900.879	73.7923	900.879	73.3658	900.879	73.286	900.879	69.3034	900.879	70.0663	900.879	67.879	900.879	63.413	900.879	74.4053	900.879	66.5715	900.879	77.185	900.879	73.9814	900.879	77.0499
933.105	88.5513	933.105	87.9121	933.105	88.5492	933.105	86.8396	933.105	87.8107	933.105	85.469	933.105	86.3702	933.105	83.8701	933.105	84.3008	933.105	82.2083	933.105	81.953	933.105	80.5528	933.105	79.9244	933.105	78.5128	933.105	78.0903	933.105	75.3829	933.105	75.7542	933.105	70.8032	933.105	73.107	933.105	68.3508	933.105	71.5676	933.105	72.0267	933.105	71.0166	933.105	74.375	933.105	70.5689	933.105	74.7667	933.105	70.8313	933.105	73.4229	933.105	70.9132	933.105	69.2193	933.105	69.8489	933.105	64.2743	933.105	72.7431	933.105	73.7905	933.105	76.4188	933.105	77.0324
965.332	88.7515	965.332	88.7049	965.332	88.046	965.332	87.7185	965.332	86.9043	965.332	85.8668	965.332	85.6327	965.332	83.6249	965.332	84.3123	965.332	81.6297	965.332	82.807	965.332	80.0717	965.332	80.9717	965.332	78.6383	965.332	78.6843	965.332	76.8129	965.332	75.8706	965.332	74.355	965.332	73.1606	965.332	72.2543	965.332	71.6958	965.332	71.1951	965.332	70.5549	965.332	69.1955	965.332	70.4408	965.332	67.3478	965.332	71.938	965.332	69.3201	965.332	72.448	965.332	70.7003	965.332	72.4946	965.332	71.6478	965.332	73.8494	965.332	74.0419	965.332	75.1526	965.332	75.3456
1,000.49	88.7324	1,000.49	88.0911	1,000.49	88.6853	1,000.49	87.047	1,000.49	87.8697	1,000.49	85.7651	1,000.49	86.3787	1,000.49	84.0843	1,000.49	84.261	1,000.49	81.7079	1,000.49	81.6574	1,000.49	78.4323	1,000.49	79.1846	1,000.49	74.6461	1,000.49	77.2906	1,000.49	72.0521	1,000.49	75.2144	1,000.49	70.1575	1,000.49	72.2134	1,000.49	64.6221	1,000.49	67.9684	1,000.49	64.6271	1,000.49	65.0141	1,000.49	70.5191	1,000.49	66.9258	1,000.49	73.2787	1,000.49	68.5273	1,000.49	74.1113	1,000.49	69.1676	1,000.49	72.7473	1,000.49	69.6344	1,000.49	69.6633	1,000.49	74.0375	1,000.49	72.8622	1,000.49	76.8866	1,000.49	76.4916
1,035.64	88.3893	1,035.64	88.2395	1,035.64	88.0873	1,035.64	87.5223	1,035.64	87.4123	1,035.64	86.3112	1,035.64	86.216	1,035.64	84.7206	1,035.64	84.2408	1,035.64	82.6513	1,035.64	81.5053	1,035.64	80.0453	1,035.64	78.7248	1,035.64	77.3535	1,035.64	76.8787	1,035.64	75.0031	1,035.64	75.8415	1,035.64	73.3674	1,035.64	74.8205	1,035.64	72.129	1,035.64	73.4544	1,035.64	71.012	1,035.64	72.7889	1,035.64	68.3313	1,035.64	73.6029	1,035.64	61.7367	1,035.64	72.9093	1,035.64	54.4421	1,035.64	69.446	1,035.64	67.7357	1,035.64	66.2392	1,035.64	71.7413	1,035.64	71.1517	1,035.64	73.3214	1,035.64	73.8676	1,035.64	74.1209
1,072.27	88.701	1,072.27	88.6454	1,072.27	88.1449	1,072.27	87.8373	1,072.27	87.2356	1,072.27	86.1289	1,072.27	86.1435	1,072.27	83.3762	1,072.27	84.6946	1,072.27	80.1084	1,072.27	82.6818	1,072.27	78.3704	1,072.27	80.1578	1,072.27	78.0743	1,072.27	77.2133	1,072.27	76.3968	1,072.27	74.3775	1,072.27	72.5834	1,072.27	72.1316	1,072.27	69.8657	1,072.27	69.7642	1,072.27	70.0105	1,072.27	67.4117	1,072.27	69.4663	1,072.27	67.4329	1,072.27	68.0137	1,072.27	69.9226	1,072.27	66.3243	1,072.27	70.3693	1,072.27	66.5557	1,072.27	64.9648	1,072.27	70.0739	1,072.27	63.7321	1,072.27	72.6532	1,072.27	71.3142	1,072.27	73.3067
1,108.89	88.3167	1,108.89	87.8496	1,108.89	88.2602	1,108.89	87.0535	1,108.89	87.529	1,108.89	85.7719	1,108.89	85.9672	1,108.89	83.6966	1,108.89	83.3617	1,108.89	81.1513	1,108.89	80.1163	1,108.89	78.8484	1,108.89	77.2789	1,108.89	76.3561	1,108.89	74.6587	1,108.89	72.4788	1,108.89	71.1737	1,108.89	69.1319	1,108.89	67.0973	1,108.89	69.264	1,108.89	62.1895	1,108.89	68.0342	1,108.89	50.1265	1,108.89	65.0487	1,108.89	59.5662	1,108.89	66.149	1,108.89	67.1724	1,108.89	69.3519	1,108.89	68.4214	1,108.89	68.2387	1,108.89	66.3091	1,108.89	63.4796	1,108.89	68.6166	1,108.89	69.6562	1,108.89	72.5904	1,108.89	73.0872
1,148.44	88.781	1,148.44	88.682	1,148.44	88.3703	1,148.44	87.7931	1,148.44	87.5407	1,148.44	85.9503	1,148.44	86.0612	1,148.44	83.2818	1,148.44	83.689	1,148.44	80.367	1,148.44	80.5297	1,148.44	77.6692	1,148.44	76.8928	1,148.44	74.1589	1,148.44	73.1415	1,148.44	69.5142	1,148.44	70.3269	1,148.44	68.2708	1,148.44	70.2849	1,148.44	69.9259	1,148.44	71.2139	1,148.44	68.9964	1,148.44	71.1145	1,148.44	66.0959	1,148.44	69.3805	1,148.44	63.5383	1,148.44	69.7498	1,148.44	56.9571	1,148.44	72.4067	1,148.44	64.2702	1,148.44	69.7059	1,148.44	69.9878	1,148.44	64.9419	1,148.44	71.4256	1,148.44	68.3128	1,148.44	70.4864
1,189.45	89.6777	1,189.45	89.1057	1,189.45	88.9914	1,189.45	87.2711	1,189.45	87.319	1,189.45	84.6695	1,189.45	85.0703	1,189.45	82.4344	1,189.45	82.6203	1,189.45	80.6265	1,189.45	80.2399	1,189.45	77.2733	1,189.45	77.9844	1,189.45	71.3538	1,189.45	75.3112	1,189.45	66.8649	1,189.45	72.074	1,189.45	66.2225	1,189.45	69.4215	1,189.45	65.4121	1,189.45	66.4211	1,189.45	67.4054	1,189.45	58.7627	1,189.45	69.9353	1,189.45	57.0493	1,189.45	69.4785	1,189.45	63.4329	1,189.45	70.064	1,189.45	63.5505	1,189.45	70.0838	1,189.45	63.2543	1,189.45	64.0767	1,189.45	67.6022	1,189.45	68.2442	1,189.45	71.8394	1,189.45	72.02
1,230.47	89.27	1,230.47	88.8783	1,230.47	89.0245	1,230.47	87.8584	1,230.47	87.9246	1,230.47	85.8955	1,230.47	85.6494	1,230.47	82.8929	1,230.47	81.9694	1,230.47	79.125	1,230.47	77.4717	1,230.47	74.1143	1,230.47	72.883	1,230.47	65.8897	1,230.47	67.2099	1,230.47	53.7622	1,230.47	63.7457	1,230.47	53.6493	1,230.47	67.9575	1,230.47	60.748	1,230.47	69.5965	1,230.47	61.8037	1,230.47	65.6225	1,230.47	67.6812	1,230.47	59.742	1,230.47	69.802	1,230.47	58.7976	1,230.47	67.1527	1,230.47	64.9397	1,230.47	62.4188	1,230.47	68.9063	1,230.47	61.9511	1,230.47	66.002	1,230.47	68.7343	1,230.47	65.5506	1,230.47	70.5157
1,274.41	89.6084	1,274.41	89.237	1,274.41	89.158	1,274.41	87.8794	1,274.41	87.8765	1,274.41	85.6249	1,274.41	85.5348	1,274.41	82.8154	1,274.41	82.1948	1,274.41	79.0766	1,274.41	78.4485	1,274.41	72.9169	1,274.41	74.369	1,274.41	62.1374	1,274.41	69.5684	1,274.41	57.376	1,274.41	65.767	1,274.41	64.8131	1,274.41	64.0432	1,274.41	65.3979	1,274.41	64.3774	1,274.41	57.8666	1,274.41	64.1288	1,274.41	50.0875	1,274.41	56.0764	1,274.41	62.9296	1,274.41	53.5003	1,274.41	67.282	1,274.41	59.0716	1,274.41	65.7091	1,274.41	61.5057	1,274.41	56.1058	1,274.41	67.4113	1,274.41	68.4911	1,274.41	72.63	1,274.41	73.5538
1,319.82	88.8281	1,319.82	88.5127	1,319.82	88.3702	1,319.82	87.2285	1,319.82	87.1031	1,319.82	84.9072	1,319.82	84.5857	1,319.82	81.8442	1,319.82	80.9106	1,319.82	78.0995	1,319.82	76.8581	1,319.82	72.8064	1,319.82	72.476	1,319.82	64.7164	1,319.82	69.8473	1,319.82	59.6332	1,319.82	70.8102	1,319.82	63.4869	1,319.82	71.705	1,319.82	67.2559	1,319.82	71.4196	1,319.82	70.0897	1,319.82	70.6537	1,319.82	68.7014	1,319.82	67.177	1,319.82	60.9921	1,319.82	60.6644	1,319.82	57.6578	1,319.82	65.8404	1,319.82	67.9314	1,319.82	67.3247	1,319.82	67.1607	1,319.82	68.0193	1,319.82	65.2232	1,319.82	70.1408	1,319.82	70.0918
1,366.7	88.7183	1,366.7	88.4048	1,366.7	88.1497	1,366.7	87.0723	1,366.7	86.6693	1,366.7	84.4698	1,366.7	84.2369	1,366.7	80.6179	1,366.7	80.7882	1,366.7	75.8939	1,366.7	75.7885	1,366.7	71.1919	1,366.7	68.9778	1,366.7	69.5865	1,366.7	66.0671	1,366.7	71.5874	1,366.7	67.9332	1,366.7	72.2608	1,366.7	69.8231	1,366.7	69.8291	1,366.7	70.7974	1,366.7	67.5752	1,366.7	70.5702	1,366.7	67.431	1,366.7	67.4786	1,366.7	57.49	1,366.7	57.0236	1,366.7	65.1589	1,366.7	63.1809	1,366.7	69.722	1,366.7	70.0817	1,366.7	67.0676	1,366.7	71.5349	1,366.7	69.8542	1,366.7	70.4636	1,366.7	71.7947
1,413.57	88.2368	1,413.57	87.9266	1,413.57	87.475	1,413.57	86.2914	1,413.57	85.9466	1,413.57	83.3575	1,413.57	83.403	1,413.57	78.6303	1,413.57	79.0746	1,413.57	69.8999	1,413.57	71.0662	1,413.57	62.2993	1,413.57	52.8078	1,413.57	70.5478	1,413.57	53.9922	1,413.57	73.6122	1,413.57	60.5419	1,413.57	74.9495	1,413.57	69.7126	1,413.57	74.2223	1,413.57	71.7411	1,413.57	69.6119	1,413.57	71.1785	1,413.57	66.6157	1,413.57	68.3444	1,413.57	68.1142	1,413.57	62.6188	1,413.57	64.6408	1,413.57	65.688	1,413.57	68.2721	1,413.57	67.5764	1,413.57	66.8942	1,413.57	68.9542	1,413.57	65.6432	1,413.57	71.5275	1,413.57	69.9864
1,463.38	89.2978	1,463.38	88.6012	1,463.38	88.2758	1,463.38	86.2326	1,463.38	85.8056	1,463.38	83.075	1,463.38	82.0885	1,463.38	78.6036	1,463.38	77.1638	1,463.38	68.4026	1,463.38	70.5174	1,463.38	67.3847	1,463.38	58.6365	1,463.38	72.9529	1,463.38	64.1176	1,463.38	74.6769	1,463.38	67.521	1,463.38	74.7927	1,463.38	67.1515	1,463.38	73.9603	1,463.38	68.9232	1,463.38	71.1897	1,463.38	71.4198	1,463.38	70.1253	1,463.38	70.3059	1,463.38	71.2823	1,463.38	67.0624	1,463.38	65.1861	1,463.38	66.36	1,463.38	62.0569	1,463.38	70.7317	1,463.38	68.498	1,463.38	69.5801	1,463.38	67.6537	1,463.38	69.0437	1,463.38	68.6951
1,516.11	89.4285	1,516.11	88.6984	1,516.11	88.5807	1,516.11	86.2488	1,516.11	86.0766	1,516.11	81.0605	1,516.11	82.5213	1,516.11	74.2869	1,516.11	77.6206	1,516.11	74.3373	1,516.11	70.7955	1,516.11	73.1814	1,516.11	71.6444	1,516.11	64.4273	1,516.11	74.2334	1,516.11	63.3104	1,516.11	73.1613	1,516.11	67.0831	1,516.11	69.6681	1,516.11	69.7695	1,516.11	71.0229	1,516.11	72.3702	1,516.11	71.8752	1,516.11	69.0425	1,516.11	72.939	1,516.11	65.0495	1,516.11	68.1724	1,516.11	69.1198	1,516.11	60.5404	1,516.11	68.6618	1,516.11	66.2435	1,516.11	64.0558	1,516.11	67.0501	1,516.11	65.3097	1,516.11	68.0338	1,516.11	69.5082
1,568.85	89.382	1,568.85	88.6547	1,568.85	88.7266	1,568.85	86.3726	1,568.85	86.4181	1,568.85	81.81	1,568.85	82.3288	1,568.85	75.4479	1,568.85	76.0797	1,568.85	67.5442	1,568.85	67.7213	1,568.85	67.7289	1,568.85	71.0244	1,568.85	70.0019	1,568.85	72.1216	1,568.85	67.9462	1,568.85	72.4516	1,568.85	64.2531	1,568.85	71.3879	1,568.85	68.0749	1,568.85	71.78	1,568.85	67.9554	1,568.85	73.4055	1,568.85	72.9425	1,568.85	74.4427	1,568.85	75.0809	1,568.85	72.4652	1,568.85	70.0177	1,568.85	69.8424	1,568.85	63.0944	1,568.85	72.4426	1,568.85	70.4989	1,568.85	73.4388	1,568.85	71.4593	1,568.85	70.4889	1,568.85	70.1853
1,624.51	88.7094	1,624.51	88.0995	1,624.51	88.061	1,624.51	85.9569	1,624.51	85.9102	1,624.51	82.4358	1,624.51	81.9986	1,624.51	76.1416	1,624.51	76.7008	1,624.51	64.215	1,624.51	70.6158	1,624.51	74.1734	1,624.51	73.0444	1,624.51	75.7457	1,624.51	74.2044	1,624.51	75.1111	1,624.51	76.2102	1,624.51	72.2822	1,624.51	78.0711	1,624.51	71.8954	1,624.51	76.8602	1,624.51	73.5004	1,624.51	74.735	1,624.51	65.2382	1,624.51	74.8864	1,624.51	69.0198	1,624.51	67.9108	1,624.51	65.1502	1,624.51	65.9465	1,624.51	68.4152	1,624.51	66.4796	1,624.51	67.0872	1,624.51	66.9937	1,624.51	69.5084	1,624.51	71.384	1,624.51	72.9805
1,681.64	88.7588	1,681.64	87.5363	1,681.64	87.5219	1,681.64	84.5554	1,681.64	85.0292	1,681.64	82.2126	1,681.64	81.6529	1,681.64	77.2336	1,681.64	76.7598	1,681.64	68.9657	1,681.64	74.2417	1,681.64	71.4048	1,681.64	74.3419	1,681.64	75.1955	1,681.64	76.0116	1,681.64	75.0168	1,681.64	73.7418	1,681.64	74.5373	1,681.64	69.161	1,681.64	71.106	1,681.64	72.2918	1,681.64	67.5779	1,681.64	74.2297	1,681.64	63.8179	1,681.64	73.3145	1,681.64	69.542	1,681.64	73.9881	1,681.64	73.8765	1,681.64	71.851	1,681.64	69.077	1,681.64	62.984	1,681.64	72.24	1,681.64	71.0554	1,681.64	70.6796	1,681.64	70.8651	1,681.64	65.7874
1,741.7	89.394	1,741.7	88.3825	1,741.7	88.4179	1,741.7	85.4761	1,741.7	85.7019	1,741.7	81.5972	1,741.7	81.094	1,741.7	73.5981	1,741.7	74.7562	1,741.7	75.9069	1,741.7	73.6131	1,741.7	75.9821	1,741.7	76.3834	1,741.7	74.2341	1,741.7	76.0674	1,741.7	74.4915	1,741.7	74.9727	1,741.7	74.8195	1,741.7	74.1904	1,741.7	72.4249	1,741.7	73.1248	1,741.7	69.6377	1,741.7	72.1771	1,741.7	73.776	1,741.7	70.4034	1,741.7	71.0597	1,741.7	71.9093	1,741.7	66.1716	1,741.7	69.0694	1,741.7	61.1286	1,741.7	67.1977	1,741.7	71.7426	1,741.7	64.7335	1,741.7	68.5591	1,741.7	68.0199	1,741.7	67.5744
1,803.22	90.0563	1,803.22	89.0883	1,803.22	89.1554	1,803.22	86.1519	1,803.22	85.8334	1,803.22	79.906	1,803.22	79.509	1,803.22	75.2887	1,803.22	70.6702	1,803.22	77.4997	1,803.22	71.6995	1,803.22	73.6678	1,803.22	73.3682	1,803.22	76.3905	1,803.22	72.2248	1,803.22	75.3289	1,803.22	72.4533	1,803.22	74.3432	1,803.22	72.7597	1,803.22	75.6307	1,803.22	70.6729	1,803.22	74.017	1,803.22	71.0061	1,803.22	70.8328	1,803.22	69.9029	1,803.22	66.6468	1,803.22	72.0407	1,803.22	69.4895	1,803.22	66.96	1,803.22	68.416	1,803.22	72.8403	1,803.22	71.4635	1,803.22	69.9632	1,803.22	71.0658	1,803.22	67.4409	1,803.22	67.0928
1,866.21	90.057	1,866.21	88.9891	1,866.21	89.5638	1,866.21	86.4972	1,866.21	86.971	1,866.21	79.5946	1,866.21	81.4152	1,866.21	74.9722	1,866.21	73.3078	1,866.21	76.8759	1,866.21	71.1715	1,866.21	75.6041	1,866.21	74.0561	1,866.21	76.6808	1,866.21	75.7511	1,866.21	74.3782	1,866.21	74.7356	1,866.21	70.8288	1,866.21	73.5449	1,866.21	74.706	1,866.21	73.9208	1,866.21	73.1397	1,866.21	75.2106	1,866.21	73.9862	1,866.21	73.1613	1,866.21	68.9222	1,866.21	72.5087	1,866.21	67.6306	1,866.21	68.5175	1,866.21	69.4513	1,866.21	72.2857	1,866.21	64.8064	1,866.21	68.2864	1,866.21	71.0586	1,866.21	68.6136	1,866.21	72.7964
1,932.13	89.7981	1,932.13	88.5681	1,932.13	88.8648	1,932.13	85.6989	1,932.13	86.3152	1,932.13	82.8453	1,932.13	81.6277	1,932.13	76.1967	1,932.13	77.2489	1,932.13	75.9053	1,932.13	78.3736	1,932.13	77.6874	1,932.13	77.8691	1,932.13	76.1952	1,932.13	77.2723	1,932.13	76.341	1,932.13	72.6165	1,932.13	72.2887	1,932.13	64.6645	1,932.13	70.5431	1,932.13	69.4572	1,932.13	69.7456	1,932.13	74.0392	1,932.13	70.8287	1,932.13	71.2697	1,932.13	70.7653	1,932.13	73.1884	1,932.13	61.7457	1,932.13	70.3798	1,932.13	64.8627	1,932.13	61.2729	1,932.13	72.0729	1,932.13	72.245	1,932.13	72.3737	1,932.13	70.5987	1,932.13	66.7189
1,999.51	90.0931	1,999.51	88.4656	1,999.51	89.0185	1,999.51	85.4333	1,999.51	85.6163	1,999.51	81.7706	1,999.51	80.8365	1,999.51	75.4878	1,999.51	77.3852	1,999.51	78.1671	1,999.51	79.5434	1,999.51	77.9531	1,999.51	78.2218	1,999.51	78.1078	1,999.51	77.1368	1,999.51	76.5561	1,999.51	74.9663	1,999.51	75.5452	1,999.51	69.0509	1,999.51	74.4091	1,999.51	71.41	1,999.51	71.4691	1,999.51	73.888	1,999.51	67.07	1,999.51	73.6758	1,999.51	70.4518	1,999.51	67.7166	1,999.51	67.6699	1,999.51	69.3976	1,999.51	69.1253	1,999.51	70.92	1,999.51	71.0055	1,999.51	70.1583	1,999.51	71.2056	1,999.51	71.5379	1,999.51	70.5499
2,069.82	90.8119	2,069.82	89.429	2,069.82	90.0885	2,069.82	86.3342	2,069.82	86.2131	2,069.82	79.3513	2,069.82	80.0852	2,069.82	77.8523	2,069.82	76.573	2,069.82	79.4285	2,069.82	79.4025	2,069.82	79.0452	2,069.82	78.5738	2,069.82	77.8331	2,069.82	76.214	2,069.82	74.8368	2,069.82	73.3661	2,069.82	73.0991	2,069.82	70.0286	2,069.82	67.0103	2,069.82	70.7183	2,069.82	71.8923	2,069.82	73.9694	2,069.82	69.263	2,069.82	72.708	2,069.82	69.7729	2,069.82	69.1576	2,069.82	69.8551	2,069.82	64.3538	2,069.82	63.5168	2,069.82	69.6865	2,069.82	70.9136	2,069.82	73.1023	2,069.82	72.267	2,069.82	71.6486	2,069.82	71.5974
2,143.07	90.8516	2,143.07	90.1617	2,143.07	90.4542	2,143.07	86.9732	2,143.07	87.4596	2,143.07	79.7855	2,143.07	80.979	2,143.07	79.6092	2,143.07	78.5802	2,143.07	79.3927	2,143.07	79.2528	2,143.07	77.8982	2,143.07	79.7091	2,143.07	76.7592	2,143.07	77.8596	2,143.07	76.4524	2,143.07	75.2277	2,143.07	73.6591	2,143.07	74.4061	2,143.07	72.3767	2,143.07	72.463	2,143.07	69.163	2,143.07	73.6654	2,143.07	70.732	2,143.07	72.6951	2,143.07	66.8263	2,143.07	67.644	2,143.07	70.5022	2,143.07	67.1049	2,143.07	65.9257	2,143.07	67.4363	2,143.07	72.299	2,143.07	71.1895	2,143.07	73.3553	2,143.07	71.3283	2,143.07	71.8013
2,219.24	90.1451	2,219.24	89.5383	2,219.24	89.6402	2,219.24	86.1321	2,219.24	87.2606	2,219.24	82.3342	2,219.24	82.7244	2,219.24	79.1229	2,219.24	80.53	2,219.24	79.4612	2,219.24	80.1595	2,219.24	80.2202	2,219.24	79.752	2,219.24	78.5475	2,219.24	77.39	2,219.24	73.7484	2,219.24	70.1179	2,219.24	70.9558	2,219.24	72.3177	2,219.24	70.9839	2,219.24	73.7859	2,219.24	69.3956	2,219.24	75.5179	2,219.24	69.9733	2,219.24	73.421	2,219.24	67.5085	2,219.24	67.975	2,219.24	69.4642	2,219.24	65.3942	2,219.24	66.056	2,219.24	69.7272	2,219.24	71.9698	2,219.24	70.3534	2,219.24	73.8757	2,219.24	70.2628	2,219.24	70.6739
2,296.88	90.5988	2,296.88	89.12	2,296.88	89.2101	2,296.88	85.4291	2,296.88	86.1845	2,296.88	81.7087	2,296.88	82.3621	2,296.88	79.5167	2,296.88	81.7252	2,296.88	81.5795	2,296.88	82.1297	2,296.88	81.48	2,296.88	80.8414	2,296.88	78.8166	2,296.88	78.4717	2,296.88	77.4369	2,296.88	72.4187	2,296.88	74.3291	2,296.88	72.0485	2,296.88	70.6509	2,296.88	73.4856	2,296.88	68.4008	2,296.88	74.9059	2,296.88	70.1194	2,296.88	73.5689	2,296.88	68.2551	2,296.88	67.9846	2,296.88	68.4934	2,296.88	67.894	2,296.88	67.0541	2,296.88	66.0947	2,296.88	70.4532	2,296.88	70.9048	2,296.88	72.4332	2,296.88	70.1251	2,296.88	71.9882
2,378.91	90.8786	2,378.91	89.6124	2,378.91	89.7372	2,378.91	85.585	2,378.91	86.0298	2,378.91	80.1676	2,378.91	80.9227	2,378.91	80.5464	2,378.91	81.6552	2,378.91	81.5056	2,378.91	82.018	2,378.91	81.5308	2,378.91	80.1299	2,378.91	79.6094	2,378.91	78.7843	2,378.91	75.6907	2,378.91	75.4449	2,378.91	73.0163	2,378.91	72.1947	2,378.91	69.6647	2,378.91	73.9749	2,378.91	67.2636	2,378.91	70.9379	2,378.91	66.146	2,378.91	72.5373	2,378.91	68.6821	2,378.91	71.629	2,378.91	66.5049	2,378.91	68.1141	2,378.91	66.2624	2,378.91	63.2632	2,378.91	68.1714	2,378.91	67.3458	2,378.91	72.0868	2,378.91	68.1826	2,378.91	69.3966
2,462.4	90.1371	2,462.4	89.2031	2,462.4	89.2821	2,462.4	86.0394	2,462.4	86.0415	2,462.4	79.9465	2,462.4	81.8117	2,462.4	81.2141	2,462.4	82.7588	2,462.4	81.9731	2,462.4	82.22	2,462.4	81.1882	2,462.4	81.5218	2,462.4	76.2047	2,462.4	77.9894	2,462.4	76.5362	2,462.4	73.4296	2,462.4	73.0424	2,462.4	70.2783	2,462.4	69.2413	2,462.4	71.8419	2,462.4	66.6715	2,462.4	70.8881	2,462.4	65.8707	2,462.4	67.0631	2,462.4	68.419	2,462.4	69.0386	2,462.4	64.825	2,462.4	66.4628	2,462.4	67.0201	2,462.4	61.7877	2,462.4	66.8767	2,462.4	68.6562	2,462.4	72.8634	2,462.4	71.171	2,462.4	71.6129
2,548.83	89.916	2,548.83	88.5355	2,548.83	88.4322	2,548.83	85.0056	2,548.83	84.6247	2,548.83	80.9794	2,548.83	80.8722	2,548.83	81.8105	2,548.83	82.1974	2,548.83	82.354	2,548.83	82.6049	2,548.83	81.1576	2,548.83	82.0841	2,548.83	79.1507	2,548.83	78.6247	2,548.83	76.0681	2,548.83	74.4125	2,548.83	68.8437	2,548.83	73.5563	2,548.83	69.5445	2,548.83	73.7391	2,548.83	67.7599	2,548.83	69.446	2,548.83	67.4506	2,548.83	68.9523	2,548.83	66.3785	2,548.83	66.0588	2,548.83	64.4553	2,548.83	68.3993	2,548.83	65.7489	2,548.83	64.4714	2,548.83	65.5867	2,548.83	62.8332	2,548.83	72.4064	2,548.83	69.6968	2,548.83	71.9988
2,639.65	89.6901	2,639.65	88.3157	2,639.65	88.2579	2,639.65	83.4295	2,639.65	83.9813	2,639.65	80.2775	2,639.65	79.9636	2,639.65	81.2093	2,639.65	80.8845	2,639.65	82.6757	2,639.65	82.5543	2,639.65	80.8877	2,639.65	82.7855	2,639.65	80.2063	2,639.65	78.9145	2,639.65	76.3419	2,639.65	77.2421	2,639.65	74.468	2,639.65	74.071	2,639.65	71.3064	2,639.65	73.2636	2,639.65	69.369	2,639.65	68.9203	2,639.65	70.0719	2,639.65	68.7095	2,639.65	64.7978	2,639.65	67.1423	2,639.65	65.928	2,639.65	65.6961	2,639.65	64.0403	2,639.65	62.9107	2,639.65	66.0904	2,639.65	65.0431	2,639.65	70.799	2,639.65	71.604	2,639.65	73.3457
2,731.93	88.759	2,731.93	87.1695	2,731.93	87.6054	2,731.93	82.9395	2,731.93	83.3378	2,731.93	78.8591	2,731.93	79.7302	2,731.93	81.403	2,731.93	80.0955	2,731.93	81.9073	2,731.93	82.3574	2,731.93	81.648	2,731.93	82.6861	2,731.93	79.6799	2,731.93	77.7618	2,731.93	75.1877	2,731.93	77.254	2,731.93	74.7907	2,731.93	73.6298	2,731.93	70.5903	2,731.93	69.1243	2,731.93	71.199	2,731.93	68.0479	2,731.93	68.9759	2,731.93	65.0805	2,731.93	67.095	2,731.93	68.8289	2,731.93	66.038	2,731.93	62.327	2,731.93	63.9184	2,731.93	55.6076	2,731.93	61.317	2,731.93	62.0606	2,731.93	68.0071	2,731.93	67.9104	2,731.93	73.4229
2,828.61	89.0777	2,828.61	87.2834	2,828.61	87.5942	2,828.61	81.8989	2,828.61	82.2758	2,828.61	79.351	2,828.61	78.1964	2,828.61	81.4103	2,828.61	81.5408	2,828.61	81.9851	2,828.61	81.977	2,828.61	81.657	2,828.61	79.8644	2,828.61	79.7582	2,828.61	78.8612	2,828.61	77.9123	2,828.61	78.6917	2,828.61	74.1904	2,828.61	74.5893	2,828.61	72.6071	2,828.61	63.7937	2,828.61	71.3967	2,828.61	55.2827	2,828.61	71.6011	2,828.61	69.2136	2,828.61	69.1187	2,828.61	68.6292	2,828.61	67.687	2,828.61	58.0575	2,828.61	61.4397	2,828.61	60.483	2,828.61	61.4388	2,828.61	58.442	2,828.61	65.5028	2,828.61	69.1687	2,828.61	73.2655
2,928.22	89.0323	2,928.22	86.7277	2,928.22	87.3259	2,928.22	81.0361	2,928.22	82.229	2,928.22	78.9507	2,928.22	79.382	2,928.22	81.1286	2,928.22	81.4269	2,928.22	81.3918	2,928.22	81.796	2,928.22	82.5806	2,928.22	80.9403	2,928.22	79.8491	2,928.22	80.0299	2,928.22	79.6415	2,928.22	79.1941	2,928.22	77.453	2,928.22	69.795	2,928.22	77.2152	2,928.22	66.0085	2,928.22	75.4685	2,928.22	73.389	2,928.22	73.2324	2,928.22	70.7503	2,928.22	71.3401	2,928.22	69.5104	2,928.22	67.1884	2,928.22	62.1276	2,928.22	63.6322	2,928.22	61.5862	2,928.22	54.4416	2,928.22	63.2353	2,928.22	65.7292	2,928.22	66.6178	2,928.22	74.1126
3,030.76	88.7118	3,030.76	86.0772	3,030.76	86.2895	3,030.76	80.3426	3,030.76	81.2805	3,030.76	79.4078	3,030.76	79.6267	3,030.76	79.5007	3,030.76	79.6735	3,030.76	81.4521	3,030.76	81.7286	3,030.76	81.1955	3,030.76	82.4687	3,030.76	82.8251	3,030.76	82.935	3,030.76	81.566	3,030.76	80.0798	3,030.76	80.5914	3,030.76	77.1932	3,030.76	78.292	3,030.76	73.3391	3,030.76	76.6217	3,030.76	77.4356	3,030.76	75.8541	3,030.76	72.0273	3,030.76	72.1648	3,030.76	63.0844	3,030.76	70.4757	3,030.76	63.7268	3,030.76	67.5845	3,030.76	65.4933	3,030.76	61.0124	3,030.76	63.1061	3,030.76	53.9183	3,030.76	69.0428	3,030.76	73.1951
3,137.7	88.9822	3,137.7	86.1181	3,137.7	87.1524	3,137.7	81.0017	3,137.7	81.6962	3,137.7	79.0438	3,137.7	79.052	3,137.7	76.3701	3,137.7	75.8545	3,137.7	80.9453	3,137.7	81.8753	3,137.7	82.7928	3,137.7	83.8566	3,137.7	84.4706	3,137.7	84.6796	3,137.7	82.1806	3,137.7	82.3978	3,137.7	78.6503	3,137.7	82.7384	3,137.7	77.6291	3,137.7	79.4887	3,137.7	76.9833	3,137.7	76.4217	3,137.7	77.2893	3,137.7	73.6085	3,137.7	74.4729	3,137.7	68.9301	3,137.7	71.4789	3,137.7	67.3747	3,137.7	68.9882	3,137.7	61.9924	3,137.7	64.6743	3,137.7	69.2321	3,137.7	64.2507	3,137.7	65.8259	3,137.7	73.3268
3,249.02	89.2197	3,249.02	86.6139	3,249.02	87.426	3,249.02	82.8495	3,249.02	81.3015	3,249.02	76.1657	3,249.02	79.2287	3,249.02	75.8073	3,249.02	74.9607	3,249.02	81.2202	3,249.02	80.1194	3,249.02	85.021	3,249.02	84.3886	3,249.02	84.9366	3,249.02	86.8201	3,249.02	83.0896	3,249.02	86.1265	3,249.02	82.571	3,249.02	85.9773	3,249.02	80.4011	3,249.02	82.1087	3,249.02	79.1084	3,249.02	74.3386	3,249.02	78.5674	3,249.02	75.7023	3,249.02	75.8131	3,249.02	70.514	3,249.02	74.9653	3,249.02	62.8964	3,249.02	70.6235	3,249.02	63.8304	3,249.02	68.3733	3,249.02	70.1298	3,249.02	67.7274	3,249.02	66.0112	3,249.02	75.5522
3,363.28	89.0962	3,363.28	87.5745	3,363.28	87.6585	3,363.28	83.5635	3,363.28	83.803	3,363.28	77.6683	3,363.28	79.042	3,363.28	74.7542	3,363.28	75.0825	3,363.28	80.4076	3,363.28	80.4821	3,363.28	86.4454	3,363.28	85.1152	3,363.28	85.1842	3,363.28	88.7347	3,363.28	85.8445	3,363.28	87.7724	3,363.28	84.5365	3,363.28	87.5954	3,363.28	82.167	3,363.28	83.3769	3,363.28	79.7833	3,363.28	74.7822	3,363.28	78.7986	3,363.28	77.3496	3,363.28	77.9281	3,363.28	72.3792	3,363.28	73.9187	3,363.28	68.1058	3,363.28	71.5512	3,363.28	69.442	3,363.28	69.5198	3,363.28	64.9796	3,363.28	68.2259	3,363.28	58.6434	3,363.28	75.5589
3,481.93	90.1526	3,481.93	89.0597	3,481.93	87.8163	3,481.93	81.7648	3,481.93	83.4829	3,481.93	79.8769	3,481.93	80.0334	3,481.93	71.2096	3,481.93	67.7441	3,481.93	83.3899	3,481.93	79.9	3,481.93	85.5012	3,481.93	87.5738	3,481.93	86.7665	3,481.93	88.5334	3,481.93	86.54	3,481.93	89.5522	3,481.93	81.5461	3,481.93	86.9072	3,481.93	80.1618	3,481.93	77.6025	3,481.93	79.6585	3,481.93	80.1219	3,481.93	78.9415	3,481.93	75.921	3,481.93	77.622	3,481.93	71.0821	3,481.93	74.3339	3,481.93	67.6562	3,481.93	72.3574	3,481.93	63.3889	3,481.93	67.1599	3,481.93	68.3318	3,481.93	70.67	3,481.93	68.86	3,481.93	72.9409
3,604.98	89.8898	3,604.98	88.4097	3,604.98	88.2028	3,604.98	82.6998	3,604.98	83.6862	3,604.98	80.7047	3,604.98	77.9986	3,604.98	64.5031	3,604.98	72.5056	3,604.98	83.3381	3,604.98	80.9436	3,604.98	85.9921	3,604.98	89.3493	3,604.98	87.4716	3,604.98	88.8463	3,604.98	81.9881	3,604.98	89.0978	3,604.98	84.3792	3,604.98	82.4476	3,604.98	81.8407	3,604.98	66.4481	3,604.98	80.2405	3,604.98	77.3017	3,604.98	79.322	3,604.98	77.0586	3,604.98	78.4576	3,604.98	73.0599	3,604.98	76.7864	3,604.98	65.5937	3,604.98	71.757	3,604.98	64.8043	3,604.98	69.3483	3,604.98	63.1623	3,604.98	72.8865	3,604.98	67.329	3,604.98	73.2002
3,732.42	89.715	3,732.42	87.4029	3,732.42	88.0062	3,732.42	83.2463	3,732.42	83.5693	3,732.42	78.8447	3,732.42	79.6099	3,732.42	58.0558	3,732.42	71.0089	3,732.42	82.6272	3,732.42	80.5316	3,732.42	87.5887	3,732.42	89.3933	3,732.42	86.6583	3,732.42	88.4348	3,732.42	86.9747	3,732.42	86.4391	3,732.42	84.5764	3,732.42	80.8534	3,732.42	81.6588	3,732.42	77.93	3,732.42	80.7736	3,732.42	70.7897	3,732.42	78.9668	3,732.42	70.5598	3,732.42	78.7242	3,732.42	70.1485	3,732.42	76.6925	3,732.42	46.41	3,732.42	74.919	3,732.42	63.5936	3,732.42	73.367	3,732.42	68.2497	3,732.42	74.2661	3,732.42	68.829	3,732.42	69.6539
3,864.26	89.361	3,864.26	86.9894	3,864.26	87.6314	3,864.26	83.069	3,864.26	83.1758	3,864.26	81.7788	3,864.26	79.7353	3,864.26	53.0917	3,864.26	61.7137	3,864.26	82.7238	3,864.26	83.9271	3,864.26	87.6644	3,864.26	88.0841	3,864.26	87.7199	3,864.26	87.9541	3,864.26	87.1153	3,864.26	86.2228	3,864.26	83.4588	3,864.26	84.0353	3,864.26	81.2955	3,864.26	80.2091	3,864.26	80.2931	3,864.26	77.4446	3,864.26	78.7402	3,864.26	75.5142	3,864.26	78.4087	3,864.26	72.2075	3,864.26	74.7658	3,864.26	60.7186	3,864.26	74.6074	3,864.26	66.4274	3,864.26	72.3719	3,864.26	62.7177	3,864.26	73.8368	3,864.26	67.2603	3,864.26	70.4637
4,000.49	88.705	4,000.49	85.8885	4,000.49	87.3217	4,000.49	84.4753	4,000.49	81.1646	4,000.49	82.5605	4,000.49	82.0459	4,000.49	69.9394	4,000.49	74.6778	4,000.49	85.5194	4,000.49	85.4563	4,000.49	88.0316	4,000.49	88.4045	4,000.49	88.6531	4,000.49	87.3946	4,000.49	84.141	4,000.49	84.0416	4,000.49	82.6346	4,000.49	83.0685	4,000.49	80.0037	4,000.49	81.248	4,000.49	79.1775	4,000.49	82.4654	4,000.49	79.0798	4,000.49	78.7804	4,000.49	79.1624	4,000.49	72.9243	4,000.49	75.1875	4,000.49	70.3093	4,000.49	73.2023	4,000.49	56.8205	4,000.49	72.0435	4,000.49	64.5546	4,000.49	73.9817	4,000.49	68.5446	4,000.49	71.3949
4,141.11	88.2458	4,141.11	88.3735	4,141.11	87.7158	4,141.11	82.6049	4,141.11	82.1447	4,141.11	81.63	4,141.11	82.6855	4,141.11	77.523	4,141.11	76.9983	4,141.11	86.2867	4,141.11	87.29	4,141.11	89.0273	4,141.11	88.9527	4,141.11	87.3379	4,141.11	84.7541	4,141.11	86.1502	4,141.11	82.7361	4,141.11	84.1147	4,141.11	85.7185	4,141.11	80.5526	4,141.11	85.3814	4,141.11	79.4582	4,141.11	84.0437	4,141.11	78.4137	4,141.11	77.696	4,141.11	78.3422	4,141.11	73.4283	4,141.11	74.2482	4,141.11	72.3236	4,141.11	72.8291	4,141.11	61.9335	4,141.11	72.1875	4,141.11	65.9218	4,141.11	69.1078	4,141.11	70.2342	4,141.11	69.3788
4,287.6	88.8156	4,287.6	87.1747	4,287.6	87.0891	4,287.6	78.9073	4,287.6	83.0865	4,287.6	83.1613	4,287.6	85.1277	4,287.6	78.5409	4,287.6	78.3909	4,287.6	85.8286	4,287.6	89.0644	4,287.6	88.6217	4,287.6	87.2296	4,287.6	87.1605	4,287.6	85.0076	4,287.6	86.1977	4,287.6	85.6522	4,287.6	77.3792	4,287.6	86.2606	4,287.6	78.2564	4,287.6	82.551	4,287.6	77.1633	4,287.6	78.8282	4,287.6	77.9112	4,287.6	75.0322	4,287.6	78.0659	4,287.6	74.9323	4,287.6	74.7285	4,287.6	74.2179	4,287.6	72.8094	4,287.6	59.2531	4,287.6	72.0231	4,287.6	66.498	4,287.6	71.2352	4,287.6	70.1596	4,287.6	66.9208
4,438.48	88.9051	4,438.48	83.5613	4,438.48	86.6803	4,438.48	83.1141	4,438.48	83.2559	4,438.48	85.3314	4,438.48	84.607	4,438.48	77.7149	4,438.48	81.0206	4,438.48	86.9597	4,438.48	89.1264	4,438.48	88.2738	4,438.48	83.5095	4,438.48	88.1296	4,438.48	86.2121	4,438.48	82.3793	4,438.48	87.4347	4,438.48	84.3056	4,438.48	86.1555	4,438.48	80.0297	4,438.48	76.5664	4,438.48	76.9828	4,438.48	68.834	4,438.48	75.6476	4,438.48	73.2595	4,438.48	77.2903	4,438.48	74.1104	4,438.48	73.9573	4,438.48	61.1953	4,438.48	71.7629	4,438.48	61.2383	4,438.48	70.1844	4,438.48	63.5401	4,438.48	72.4976	4,438.48	65.631	4,438.48	60.6817
4,595.21	89.9691	4,595.21	86.6007	4,595.21	86.8115	4,595.21	83.546	4,595.21	82.3724	4,595.21	84.5615	4,595.21	81.7031	4,595.21	78.4221	4,595.21	81.8348	4,595.21	85.8664	4,595.21	87.09	4,595.21	87.7957	4,595.21	86.2835	4,595.21	85.7191	4,595.21	88.648	4,595.21	86.4984	4,595.21	86.8795	4,595.21	78.9114	4,595.21	83.3568	4,595.21	77.8577	4,595.21	74.5807	4,595.21	76.3423	4,595.21	74.8208	4,595.21	76.913	4,595.21	78.9743	4,595.21	76.4658	4,595.21	73.4227	4,595.21	73.3033	4,595.21	71.6954	4,595.21	73.8659	4,595.21	54.8177	4,595.21	73.946	4,595.21	68.7811	4,595.21	73.9575	4,595.21	68.1988	4,595.21	54.4069
4,756.35	89.3664	4,756.35	85.7991	4,756.35	85.6763	4,756.35	81.9325	4,756.35	82.3402	4,756.35	77.9096	4,756.35	80.9445	4,756.35	79.2192	4,756.35	82.1634	4,756.35	85.0219	4,756.35	84.2097	4,756.35	87.6774	4,756.35	87.8945	4,756.35	87.0639	4,756.35	88.3725	4,756.35	81.076	4,756.35	84.6127	4,756.35	80.1709	4,756.35	78.3546	4,756.35	76.4287	4,756.35	75.802	4,756.35	74.2038	4,756.35	76.1262	4,756.35	74.1453	4,756.35	76.7191	4,756.35	75.1674	4,756.35	67.3024	4,756.35	72.6506	4,756.35	74.0878	4,756.35	71.6769	4,756.35	66.7162	4,756.35	72.7717	4,756.35	66.4654	4,756.35	70.2085	4,756.35	68.676	4,756.35	60.8528
4,924.8	89.806	4,924.8	84.6422	4,924.8	86.9972	4,924.8	81.103	4,924.8	83.045	4,924.8	81.3323	4,924.8	79.7512	4,924.8	81.0129	4,924.8	80.9997	4,924.8	85.8881	4,924.8	81.4003	4,924.8	86.5467	4,924.8	88.3975	4,924.8	83.3533	4,924.8	85.0025	4,924.8	80.2425	4,924.8	81.1398	4,924.8	76.702	4,924.8	75.3758	4,924.8	71.9871	4,924.8	73.9404	4,924.8	69.4466	4,924.8	74.088	4,924.8	71.7057	4,924.8	76.6987	4,924.8	71.5701	4,924.8	67.8911	4,924.8	71.2973	4,924.8	67.3045	4,924.8	66.6482	4,924.8	61.2626	4,924.8	68.4419	4,924.8	64.3884	4,924.8	65.2146	4,924.8	63.1659	4,924.8	60.5069
5,097.66	89.2083	5,097.66	83.9565	5,097.66	85.2313	5,097.66	83.2486	5,097.66	80.9593	5,097.66	80.563	5,097.66	78.6947	5,097.66	82.7243	5,097.66	80.7969	5,097.66	85.3561	5,097.66	84.4118	5,097.66	84.0025	5,097.66	88.2287	5,097.66	81.1608	5,097.66	80.3381	5,097.66	76.0255	5,097.66	76.4592	5,097.66	70.2613	5,097.66	71.9057	5,097.66	68.7115	5,097.66	64.785	5,097.66	65.67	5,097.66	72.149	5,097.66	69.1153	5,097.66	77.5501	5,097.66	71.1809	5,097.66	66.1417	5,097.66	69.1203	5,097.66	69.7059	5,097.66	65.573	5,097.66	65.925	5,097.66	67.9658	5,097.66	64.551	5,097.66	61.2772	5,097.66	61.1729	5,097.66	61.284
5,277.83	89.6613	5,277.83	86.597	5,277.83	85.8404	5,277.83	81.4589	5,277.83	79.5125	5,277.83	79.1912	5,277.83	79.1392	5,277.83	82.7628	5,277.83	80.6749	5,277.83	84.0769	5,277.83	86.0419	5,277.83	83.0331	5,277.83	85.7551	5,277.83	78.1952	5,277.83	77.3625	5,277.83	72.6418	5,277.83	73.3119	5,277.83	71.0506	5,277.83	74.6695	5,277.83	67.066	5,277.83	65.9853	5,277.83	67.0383	5,277.83	67.6243	5,277.83	65.8561	5,277.83	74.7211	5,277.83	69.4962	5,277.83	68.1497	5,277.83	69.0757	5,277.83	67.6645	5,277.83	60.5445	5,277.83	61.4401	5,277.83	66.8494	5,277.83	65.4215	5,277.83	65.4969	5,277.83	64.0642	5,277.83	63.6056
5,463.87	88.7974	5,463.87	85.3448	5,463.87	85.8619	5,463.87	79.4433	5,463.87	81.2462	5,463.87	81.3389	5,463.87	80.1867	5,463.87	83.0402	5,463.87	82.5785	5,463.87	83.8304	5,463.87	85.8263	5,463.87	79.2334	5,463.87	81.2368	5,463.87	75.4457	5,463.87	75.1115	5,463.87	72.0095	5,463.87	70.3907	5,463.87	68.4854	5,463.87	72.8376	5,463.87	65.1089	5,463.87	71.1753	5,463.87	67.4858	5,463.87	58.2896	5,463.87	66.2707	5,463.87	66.3413	5,463.87	68.0815	5,463.87	65.9986	5,463.87	69.0485	5,463.87	58.2243	5,463.87	59.5915	5,463.87	59.4797	5,463.87	60.2415	5,463.87	67.429	5,463.87	63.5076	5,463.87	60.8092	5,463.87	61.5307
5,657.23	88.123	5,657.23	84.2158	5,657.23	86.0152	5,657.23	81.3076	5,657.23	82.1688	5,657.23	81.948	5,657.23	81.3484	5,657.23	82.9296	5,657.23	84.6141	5,657.23	81.167	5,657.23	83.8347	5,657.23	78.4919	5,657.23	77.4894	5,657.23	72.7941	5,657.23	74.7414	5,657.23	72.0406	5,657.23	73.4442	5,657.23	70.5575	5,657.23	71.5529	5,657.23	68.3446	5,657.23	69.3014	5,657.23	65.671	5,657.23	56.1656	5,657.23	64.6319	5,657.23	66.9966	5,657.23	68.8665	5,657.23	67.3016	5,657.23	67.2087	5,657.23	69.7071	5,657.23	61.6704	5,657.23	52.4391	5,657.23	62.7305	5,657.23	64.0755	5,657.23	63.5363	5,657.23	63.6882	5,657.23	66.3267
5,856.45	88.0837	5,856.45	84.9725	5,856.45	85.5078	5,856.45	80.7827	5,856.45	81.3664	5,856.45	81.7038	5,856.45	83.052	5,856.45	83.3565	5,856.45	84.4638	5,856.45	78.1451	5,856.45	80.2897	5,856.45	74.1495	5,856.45	75.1172	5,856.45	73.268	5,856.45	74.584	5,856.45	72.7318	5,856.45	75.4526	5,856.45	69.3447	5,856.45	74.627	5,856.45	68.2377	5,856.45	71.8082	5,856.45	65.6705	5,856.45	62.4476	5,856.45	66.8351	5,856.45	62.3228	5,856.45	67.9899	5,856.45	59.6809	5,856.45	66.5108	5,856.45	63.5511	5,856.45	60.9163	5,856.45	55.8431	5,856.45	67.6758	5,856.45	62.0634	5,856.45	57.6814	5,856.45	61.548	5,856.45	66.0523
6,062.99	88.2096	6,062.99	84.322	6,062.99	85.1059	6,062.99	79.3888	6,062.99	80.1394	6,062.99	83.3822	6,062.99	83.7001	6,062.99	83.095	6,062.99	84.7196	6,062.99	75.6161	6,062.99	76.5831	6,062.99	67.9794	6,062.99	72.4769	6,062.99	73.8741	6,062.99	74.3847	6,062.99	72.5778	6,062.99	77.5837	6,062.99	73.1158	6,062.99	77.3249	6,062.99	70.02	6,062.99	75.3916	6,062.99	67.6551	6,062.99	68.2158	6,062.99	68.1551	6,062.99	64.8534	6,062.99	67.4481	6,062.99	59.1378	6,062.99	67.8388	6,062.99	62.3207	6,062.99	62.8588	6,062.99	61.3452	6,062.99	66.0268	6,062.99	53.3655	6,062.99	48.1405	6,062.99	52.2919	6,062.99	66.2266
6,276.86	88.9716	6,276.86	83.1178	6,276.86	83.4278	6,276.86	80.2287	6,276.86	79.1096	6,276.86	83.8505	6,276.86	83.5024	6,276.86	83.0091	6,276.86	84.3615	6,276.86	75.5412	6,276.86	74.5972	6,276.86	63.0125	6,276.86	69.0378	6,276.86	71.8962	6,276.86	76.1488	6,276.86	72.5397	6,276.86	77.3397	6,276.86	71.9724	6,276.86	78.4514	6,276.86	71.6012	6,276.86	75.7974	6,276.86	68.4627	6,276.86	72.9701	6,276.86	69.5135	6,276.86	65.4308	6,276.86	68.3752	6,276.86	51.3884	6,276.86	67.4517	6,276.86	62.1499	6,276.86	66.621	6,276.86	67.0292	6,276.86	64.4808	6,276.86	59.2508	6,276.86	49.8657	6,276.86	49.5938	6,276.86	65.9944
6,498.05	89.0178	6,498.05	82.0938	6,498.05	81.7424	6,498.05	80.981	6,498.05	78.5071	6,498.05	84.1135	6,498.05	83.1234	6,498.05	84.3206	6,498.05	85.1476	6,498.05	75.1603	6,498.05	75.0294	6,498.05	55.6471	6,498.05	65.7615	6,498.05	73.9362	6,498.05	77.1577	6,498.05	76.601	6,498.05	77.1637	6,498.05	75.4528	6,498.05	78.0686	6,498.05	74.4395	6,498.05	76.7727	6,498.05	69.0592	6,498.05	77.4195	6,498.05	70.3207	6,498.05	66.1464	6,498.05	69.7045	6,498.05	59.2469	6,498.05	67.5954	6,498.05	61.452	6,498.05	64.8037	6,498.05	65.4092	6,498.05	69.4893	6,498.05	61.6072	6,498.05	58.5308	6,498.05	59.2455	6,498.05	64.7504
6,726.56	89.4013	6,726.56	82.2738	6,726.56	82.2424	6,726.56	81.2559	6,726.56	78.5626	6,726.56	83.8485	6,726.56	82.394	6,726.56	84.4199	6,726.56	84.8678	6,726.56	78.0926	6,726.56	77.745	6,726.56	64.1109	6,726.56	70.8867	6,726.56	74.7419	6,726.56	79.1643	6,726.56	78.4162	6,726.56	74.0225	6,726.56	76.9334	6,726.56	71.4894	6,726.56	74.7211	6,726.56	78.0313	6,726.56	72.7373	6,726.56	76.8324	6,726.56	71.0669	6,726.56	69.64	6,726.56	69.2164	6,726.56	62.7563	6,726.56	67.7521	6,726.56	54.2473	6,726.56	65.3461	6,726.56	55.8505	6,726.56	65.6587	6,726.56	60.9726	6,726.56	57.7735	6,726.56	64.6943	6,726.56	63.7903
6,963.87	89.7223	6,963.87	82.66	6,963.87	82.9247	6,963.87	80.5368	6,963.87	75.6253	6,963.87	84.3309	6,963.87	84.0074	6,963.87	84.9618	6,963.87	84.8552	6,963.87	77.7285	6,963.87	78.1468	6,963.87	60.9129	6,963.87	72.6718	6,963.87	77.695	6,963.87	79.4681	6,963.87	79.7118	6,963.87	80.8253	6,963.87	77.6092	6,963.87	78.9384	6,963.87	74.6876	6,963.87	76.7595	6,963.87	73.152	6,963.87	71.2658	6,963.87	71.019	6,963.87	62.1461	6,963.87	70.1351	6,963.87	62.6611	6,963.87	68.445	6,963.87	53.0604	6,963.87	70.421	6,963.87	65.1575	6,963.87	67.9132	6,963.87	49.0296	6,963.87	57.4788	6,963.87	55.8061	6,963.87	62.0112
7,209.96	89.3378	7,209.96	82.1383	7,209.96	82.7022	7,209.96	80.4878	7,209.96	79.7227	7,209.96	85.9014	7,209.96	85.9155	7,209.96	84.7402	7,209.96	85.6219	7,209.96	78.2542	7,209.96	78.0477	7,209.96	68.4673	7,209.96	73.5821	7,209.96	79.7452	7,209.96	76.0894	7,209.96	80.0024	7,209.96	84.8542	7,209.96	77.1856	7,209.96	82.7611	7,209.96	75.1776	7,209.96	75.6646	7,209.96	73.1266	7,209.96	74.1472	7,209.96	71.9612	7,209.96	60.7682	7,209.96	71.1309	7,209.96	68.9774	7,209.96	68.6691	7,209.96	57.6841	7,209.96	69.0281	7,209.96	67.3326	7,209.96	68.0289	7,209.96	59.9529	7,209.96	51.9004	7,209.96	57.0811	7,209.96	62.2461
7,464.84	88.6923	7,464.84	82.076	7,464.84	82.6418	7,464.84	79.9462	7,464.84	79.7047	7,464.84	87.8961	7,464.84	87.54	7,464.84	83.8196	7,464.84	85.405	7,464.84	77.8399	7,464.84	78.1906	7,464.84	69.0609	7,464.84	71.6461	7,464.84	80.2851	7,464.84	82.9288	7,464.84	80.5857	7,464.84	85.4035	7,464.84	77.3722	7,464.84	80.4466	7,464.84	74.1097	7,464.84	78.3805	7,464.84	73.196	7,464.84	76.387	7,464.84	71.9451	7,464.84	65.6352	7,464.84	70.8088	7,464.84	66.9171	7,464.84	67.3566	7,464.84	51.3374	7,464.84	70.5729	7,464.84	69.6056	7,464.84	65.0626	7,464.84	60.1501	7,464.84	59.6298	7,464.84	55.8795	7,464.84	63.7058
7,727.05	88.4019	7,727.05	80.905	7,727.05	80.998	7,727.05	80.6709	7,727.05	78.6703	7,727.05	88.4265	7,727.05	88.765	7,727.05	82.3084	7,727.05	83.4914	7,727.05	76.1	7,727.05	76.9728	7,727.05	62.1435	7,727.05	67.734	7,727.05	80.4074	7,727.05	83.6285	7,727.05	80.5289	7,727.05	82.2772	7,727.05	77.7775	7,727.05	77.5501	7,727.05	72.1775	7,727.05	79.343	7,727.05	72.7908	7,727.05	73.209	7,727.05	69.4783	7,727.05	63.6176	7,727.05	67.7804	7,727.05	60.336	7,727.05	69.8387	7,727.05	44.8296	7,727.05	68.4061	7,727.05	67.0406	7,727.05	68.5499	7,727.05	50.4229	7,727.05	55.9544	7,727.05	60.84	7,727.05	60.8001
7,999.51	88.2955	7,999.51	80.6087	7,999.51	80.1779	7,999.51	81.4531	7,999.51	78.1571	7,999.51	88.5885	7,999.51	88.7967	7,999.51	82.1931	7,999.51	82.7354	7,999.51	77.3874	7,999.51	76.0696	7,999.51	65.8543	7,999.51	69.7522	7,999.51	80.0402	7,999.51	82.916	7,999.51	79.638	7,999.51	78.8741	7,999.51	75.8274	7,999.51	75.2131	7,999.51	69.5252	7,999.51	74.7457	7,999.51	69.9991	7,999.51	65.1658	7,999.51	68.4733	7,999.51	54.2617	7,999.51	68.5973	7,999.51	54.8297	7,999.51	68.02	7,999.51	47.9959	7,999.51	65.1432	7,999.51	59.8937	7,999.51	60.8622	7,999.51	57.2588	7,999.51	59.0213	7,999.51	57.7036	7,999.51	58.6219
8,282.23	88.4193	8,282.23	80.2106	8,282.23	81.9365	8,282.23	82.546	8,282.23	81.3531	8,282.23	87.7751	8,282.23	88.0996	8,282.23	79.8005	8,282.23	82.0375	8,282.23	77.009	8,282.23	76.2113	8,282.23	72.0016	8,282.23	76.1776	8,282.23	78.0862	8,282.23	76.5087	8,282.23	77.2868	8,282.23	75.2847	8,282.23	72.8885	8,282.23	73.1558	8,282.23	66.7519	8,282.23	65.6334	8,282.23	65.4665	8,282.23	68.8363	8,282.23	62.9039	8,282.23	52.5052	8,282.23	68.0646	8,282.23	57.5127	8,282.23	63.8278	8,282.23	46.0339	8,282.23	60.4327	8,282.23	52.2049	8,282.23	62.6073	8,282.23	61.8161	8,282.23	55.8115	8,282.23	42.2685	8,282.23	54.6871
8,573.73	88.3199	8,573.73	82.3708	8,573.73	81.0348	8,573.73	83.8471	8,573.73	82.1008	8,573.73	86.7115	8,573.73	86.896	8,573.73	79.334	8,573.73	81.4563	8,573.73	78.3048	8,573.73	78.6331	8,573.73	74.6015	8,573.73	78.4563	8,573.73	74.9877	8,573.73	69.3858	8,573.73	71.0865	8,573.73	76.3822	8,573.73	67.1485	8,573.73	69.5026	8,573.73	60.3778	8,573.73	67.8519	8,573.73	59.495	8,573.73	63.648	8,573.73	56.4774	8,573.73	61.5649	8,573.73	65.5627	8,573.73	54.6839	8,573.73	50.3704	8,573.73	60.34	8,573.73	57.2893	8,573.73	54.6971	8,573.73	56.1981	8,573.73	48.3783	8,573.73	48.9993	8,573.73	47.8371	8,573.73	46.4998
8,876.95	88.1227	8,876.95	81.431	8,876.95	82.3886	8,876.95	85.2669	8,876.95	83.8397	8,876.95	85.8605	8,876.95	85.5193	8,876.95	79.424	8,876.95	78.7579	8,876.95	79.9482	8,876.95	82.7396	8,876.95	77.5654	8,876.95	77.4041	8,876.95	72.1813	8,876.95	75.0065	8,876.95	66.1428	8,876.95	73.5306	8,876.95	58.6889	8,876.95	60.6482	8,876.95	52.9553	8,876.95	66.6799	8,876.95	55.6433	8,876.95	55.6498	8,876.95	55.6024	8,876.95	66.3553	8,876.95	61.3748	8,876.95	63.4934	8,876.95	52.1975	8,876.95	56.7572	8,876.95	55.0826	8,876.95	57.4907	8,876.95	45.3766	8,876.95	51.6033	8,876.95	53.7916	8,876.95	45.2511	8,876.95	50.875
9,188.96	88.2043	9,188.96	82.9324	9,188.96	82.7161	9,188.96	86.6236	9,188.96	85.765	9,188.96	84.4055	9,188.96	85.7746	9,188.96	78.2086	9,188.96	75.8991	9,188.96	81.5669	9,188.96	84.6971	9,188.96	79.9446	9,188.96	77.9805	9,188.96	70.4269	9,188.96	73.1834	9,188.96	64.322	9,188.96	70.0073	9,188.96	61.7413	9,188.96	67.6038	9,188.96	55.8608	9,188.96	67.9132	9,188.96	55.8761	9,188.96	60.9074	9,188.96	53.705	9,188.96	63.7694	9,188.96	59.9878	9,188.96	66.8324	9,188.96	51.9341	9,188.96	57.9385	9,188.96	49.1821	9,188.96	50.9433	9,188.96	31.84	9,188.96	58.1303	9,188.96	51.0931	9,188.96	49.0816	9,188.96	56.6955
9,514.16	89.2436	9,514.16	81.8013	9,514.16	80.9532	9,514.16	87.4991	9,514.16	86.4571	9,514.16	84.2973	9,514.16	85.2696	9,514.16	77.9927	9,514.16	76.1262	9,514.16	83.165	9,514.16	84.5697	9,514.16	79.9687	9,514.16	80.5051	9,514.16	66.8166	9,514.16	65.6898	9,514.16	59.0427	9,514.16	66.9022	9,514.16	63.8445	9,514.16	68.1705	9,514.16	57.4581	9,514.16	66.3218	9,514.16	58.7333	9,514.16	63.6122	9,514.16	55.8166	9,514.16	68.6857	9,514.16	58.2467	9,514.16	68.3484	9,514.16	50.4478	9,514.16	57.0982	9,514.16	60.2575	9,514.16	55.5304	9,514.16	57.5322	9,514.16	35.5752	9,514.16	56.3904	9,514.16	56.131	9,514.16	44.4203
9,849.61	90.2393	9,849.61	82.1701	9,849.61	82.7745	9,849.61	88.271	9,849.61	86.1425	9,849.61	83.5194	9,849.61	83.3549	9,849.61	78.6192	9,849.61	78.523	9,849.61	84.2768	9,849.61	82.9278	9,849.61	79.6105	9,849.61	82.3928	9,849.61	68.2884	9,849.61	62.876	9,849.61	57.1549	9,849.61	64.4464	9,849.61	65.9425	9,849.61	63.8711	9,849.61	57.0891	9,849.61	69.0192	9,849.61	64.083	9,849.61	56.9041	9,849.61	57.2444	9,849.61	68.9775	9,849.61	62.4669	9,849.61	65.7185	9,849.61	56.9999	9,849.61	61.5259	9,849.61	64.002	9,849.61	60.9947	9,849.61	60.863	9,849.61	60.1436	9,849.61	59.5883	9,849.61	62.2023	9,849.61	58.5486
10,196.8	90.1851	10,196.8	81.515	10,196.8	81.8403	10,196.8	88.6356	10,196.8	87.9241	10,196.8	82.789	10,196.8	82.9607	10,196.8	80.2329	10,196.8	79.2006	10,196.8	84.8774	10,196.8	85.1612	10,196.8	79.2326	10,196.8	81.6184	10,196.8	67.269	10,196.8	60.6884	10,196.8	61.3515	10,196.8	67.3903	10,196.8	67.5048	10,196.8	68.8553	10,196.8	63.0687	10,196.8	70.871	10,196.8	64.1267	10,196.8	51.3923	10,196.8	60.4022	10,196.8	64.7222	10,196.8	63.3974	10,196.8	62.2449	10,196.8	52.9813	10,196.8	64.5784	10,196.8	62.1752	10,196.8	59.8873	10,196.8	51.1178	10,196.8	61.5529	10,196.8	59.717	10,196.8	61.8463	10,196.8	57.9776
10,555.7	90.9219	10,555.7	81.7224	10,555.7	82.1464	10,555.7	89.1513	10,555.7	89.3862	10,555.7	82.1297	10,555.7	84.1217	10,555.7	81.9771	10,555.7	78.1736	10,555.7	84.9478	10,555.7	86.6527	10,555.7	78.5208	10,555.7	78.9098	10,555.7	60.52	10,555.7	40.9521	10,555.7	69.2854	10,555.7	71.6344	10,555.7	70.0732	10,555.7	71.2839	10,555.7	65.8994	10,555.7	71.5298	10,555.7	64.7075	10,555.7	67.029	10,555.7	59.9475	10,555.7	62.9321	10,555.7	64.4491	10,555.7	63.1258	10,555.7	58.3692	10,555.7	62.0708	10,555.7	63.9464	10,555.7	58.3141	10,555.7	59.6531	10,555.7	60.0026	10,555.7	63.3316	10,555.7	63.6603	10,555.7	51.4472
10,927.7	91.3043	10,927.7	81.7647	10,927.7	82.2889	10,927.7	89.6596	10,927.7	88.9614	10,927.7	81.2437	10,927.7	83.1681	10,927.7	83.326	10,927.7	79.8133	10,927.7	84.2195	10,927.7	86.1717	10,927.7	76.6123	10,927.7	77.3171	10,927.7	58.6494	10,927.7	64.4818	10,927.7	71.0017	10,927.7	70.6746	10,927.7	72.3962	10,927.7	65.4492	10,927.7	65.8613	10,927.7	73.5095	10,927.7	66.4654	10,927.7	58.5532	10,927.7	60.0229	10,927.7	58.892	10,927.7	65.5296	10,927.7	63.2428	10,927.7	62.0118	10,927.7	63.2099	10,927.7	68.0387	10,927.7	62.2652	10,927.7	62.852	10,927.7	63.8277	10,927.7	67.5171	10,927.7	65.9581	10,927.7	63.6997
11,313	91.1695	11,313	82.6679	11,313	83.215	11,313	89.7533	11,313	89.4613	11,313	80.6593	11,313	80.45	11,313	84.2966	11,313	82.5178	11,313	82.8396	11,313	84.7941	11,313	74.7152	11,313	75.6443	11,313	66.7454	11,313	70.0355	11,313	70.9147	11,313	73.0684	11,313	71.4065	11,313	68.1786	11,313	65.5224	11,313	73.7172	11,313	66.5973	11,313	65.4093	11,313	55.6371	11,313	57.2138	11,313	65.9037	11,313	62.1847	11,313	60.185	11,313	62.9062	11,313	69.0648	11,313	63.7546	11,313	62.6924	11,313	65.4917	11,313	65.6973	11,313	65.9509	11,313	60.7049
11,712.9	90.998	11,712.9	83.7538	11,712.9	84.7787	11,712.9	89.8346	11,712.9	89.859	11,712.9	80.8165	11,712.9	78.5849	11,712.9	84.7646	11,712.9	83.6628	11,712.9	80.5045	11,712.9	82.9	11,712.9	72.8473	11,712.9	73.5428	11,712.9	71.534	11,712.9	71.279	11,712.9	69.7114	11,712.9	74.0069	11,712.9	69.134	11,712.9	67.3531	11,712.9	64.4296	11,712.9	73.4902	11,712.9	63.8503	11,712.9	62.3506	11,712.9	47.7011	11,712.9	60.8321	11,712.9	65.7887	11,712.9	61.4369	11,712.9	60.0481	11,712.9	60.4956	11,712.9	67.3751	11,712.9	62.5028	11,712.9	62.5258	11,712.9	65.9854	11,712.9	65.3226	11,712.9	67.041	11,712.9	63.725
12,126	90.8124	12,126	84.5332	12,126	85.6206	12,126	89.6449	12,126	90.4844	12,126	81.6334	12,126	78.9159	12,126	84.745	12,126	83.9171	12,126	77.4762	12,126	80.422	12,126	72.6076	12,126	73.2367	12,126	74.4562	12,126	75.6044	12,126	66.2861	12,126	73.3746	12,126	65.6142	12,126	59.2811	12,126	59.469	12,126	70.833	12,126	62.6212	12,126	59.7351	12,126	43.1835	12,126	63.7529	12,126	64.2175	12,126	63.1586	12,126	57.5493	12,126	61.3696	12,126	66.8895	12,126	61.4091	12,126	63.1418	12,126	66.7015	12,126	65.3998	12,126	66.4583	12,126	63.8891
12,553.7	90.2536	12,553.7	85.1314	12,553.7	86.0776	12,553.7	89.1021	12,553.7	90.3067	12,553.7	82.4619	12,553.7	79.4667	12,553.7	83.7574	12,553.7	84.0889	12,553.7	75.1077	12,553.7	77.9934	12,553.7	73.6423	12,553.7	72.725	12,553.7	75.0525	12,553.7	75.5118	12,553.7	59.525	12,553.7	70.9685	12,553.7	60.8152	12,553.7	47.8332	12,553.7	57.8545	12,553.7	68.4097	12,553.7	59.507	12,553.7	61.1299	12,553.7	53.7781	12,553.7	63.5435	12,553.7	62.9849	12,553.7	63.6385	12,553.7	57.7612	12,553.7	58.4669	12,553.7	65.9946	12,553.7	62.0206	12,553.7	62.2349	12,553.7	66.3185	12,553.7	62.513	12,553.7	65.6663	12,553.7	63.3939
12,996.1	90.0584	12,996.1	85.8381	12,996.1	86.5817	12,996.1	88.6592	12,996.1	89.6136	12,996.1	83.4131	12,996.1	80.0289	12,996.1	82.5719	12,996.1	83.3339	12,996.1	74.9177	12,996.1	78.6195	12,996.1	74.4484	12,996.1	71.2972	12,996.1	73.8752	12,996.1	75.0334	12,996.1	59.5598	12,996.1	67.4458	12,996.1	59.3475	12,996.1	41.6197	12,996.1	57.8271	12,996.1	66.349	12,996.1	59.9138	12,996.1	61.6403	12,996.1	57.0817	12,996.1	62.283	12,996.1	63.3546	12,996.1	60.3766	12,996.1	56.9257	12,996.1	57.0925	12,996.1	64.6543	12,996.1	58.5823	12,996.1	59.8576	12,996.1	66.0398	12,996.1	60.6243	12,996.1	63.7171	12,996.1	62.6696
13,454.6	89.72	13,454.6	86.2951	13,454.6	86.8582	13,454.6	88.179	13,454.6	89.1803	13,454.6	83.8539	13,454.6	79.6662	13,454.6	81.064	13,454.6	82.3193	13,454.6	75.4463	13,454.6	76.7617	13,454.6	73.4305	13,454.6	72.4801	13,454.6	71.1565	13,454.6	73.4186	13,454.6	60.0766	13,454.6	65.4641	13,454.6	59.4049	13,454.6	57	13,454.6	55.145	13,454.6	63.7521	13,454.6	58.5228	13,454.6	59.771	13,454.6	52.0045	13,454.6	60.9284	13,454.6	58.8116	13,454.6	61.467	13,454.6	52.8821	13,454.6	54.813	13,454.6	62.0616	13,454.6	55.9745	13,454.6	57.8393	13,454.6	63.2303	13,454.6	58.2174	13,454.6	60.124	13,454.6	61.0347
13,929.2	89.5203	13,929.2	86.3206	13,929.2	86.9876	13,929.2	87.6901	13,929.2	88.7663	13,929.2	83.7553	13,929.2	79.7057	13,929.2	79.2653	13,929.2	81.58	13,929.2	75.9991	13,929.2	76.7832	13,929.2	71.6582	13,929.2	71.2349	13,929.2	66.9361	13,929.2	69.527	13,929.2	60.5006	13,929.2	57.2547	13,929.2	57.4943	13,929.2	55.5893	13,929.2	55.8689	13,929.2	56.7267	13,929.2	56.9449	13,929.2	62.2339	13,929.2	50.78	13,929.2	61.6223	13,929.2	55.3655	13,929.2	60.7444	13,929.2	50.8943	13,929.2	50.6692	13,929.2	57.4493	13,929.2	53.4125	13,929.2	54.4585	13,929.2	60.1491	13,929.2	53.9918	13,929.2	56.0138	13,929.2	57.2884
14,419.9	88.8343	14,419.9	86.0934	14,419.9	86.8426	14,419.9	86.8633	14,419.9	88.2007	14,419.9	82.8524	14,419.9	80.6512	14,419.9	77.6429	14,419.9	79.0797	14,419.9	76.4898	14,419.9	75.4686	14,419.9	67.2855	14,419.9	69.3171	14,419.9	62.0148	14,419.9	65.3145	14,419.9	57.3296	14,419.9	52.9356	14,419.9	53.9047	14,419.9	56.8804	14,419.9	56.3979	14,419.9	47.6396	14,419.9	48.4023	14,419.9	61.652	14,419.9	49.3027	14,419.9	62.6728	14,419.9	51.5191	14,419.9	60.4391	14,419.9	45.782	14,419.9	46.1019	14,419.9	57.0578	14,419.9	51.9825	14,419.9	54.5536	14,419.9	57.5516	14,419.9	54.951	14,419.9	54.1263	14,419.9	55.7228
14,928.2	87.9637	14,928.2	85.7178	14,928.2	86.1948	14,928.2	85.6031	14,928.2	87.118	14,928.2	81.3333	14,928.2	79.7487	14,928.2	74.4477	14,928.2	76.2198	14,928.2	76.0218	14,928.2	72.55	14,928.2	61.977	14,928.2	68.1572	14,928.2	59.8878	14,928.2	60.5199	14,928.2	59.899	14,928.2	51	14,928.2	49.4354	14,928.2	58.9308	14,928.2	55.269	14,928.2	50.0663	14,928.2	47.9829	14,928.2	59.12	14,928.2	52.1882	14,928.2	60.8592	14,928.2	49.901	14,928.2	58.0836	14,928.2	42.2853	14,928.2	38.8397	14,928.2	55.2839	14,928.2	51.8231	14,928.2	56.5302	14,928.2	51.2832	14,928.2	56.6807	14,928.2	53.3488	14,928.2	54.9769
15,455.6	87.3531	15,455.6	85.5528	15,455.6	86.1216	15,455.6	84.4487	15,455.6	86.0292	15,455.6	79.8014	15,455.6	79.064	15,455.6	71.7888	15,455.6	73.7853	15,455.6	74.1386	15,455.6	69.6533	15,455.6	59.0036	15,455.6	66.1327	15,455.6	56.8716	15,455.6	59.0685	15,455.6	60.9113	15,455.6	53.2259	15,455.6	52.0248	15,455.6	54.4405	15,455.6	50.6297	15,455.6	46.9549	15,455.6	54.9407	15,455.6	56.9898	15,455.6	51.3829	15,455.6	59.0102	15,455.6	51.8809	15,455.6	59.0782	15,455.6	47.6622	15,455.6	44.9501	15,455.6	54.46	15,455.6	49.6113	15,455.6	56.4054	15,455.6	35.9138	15,455.6	59.0407	15,455.6	54.7333	15,455.6	53.634
16,000.5	86.7105	16,000.5	85.399	16,000.5	85.794	16,000.5	83.5203	16,000.5	85.392	16,000.5	78.3993	16,000.5	78.7235	16,000.5	71.2378	16,000.5	72.1785	16,000.5	70.9428	16,000.5	67.7991	16,000.5	57.3177	16,000.5	60.7758	16,000.5	47.0561	16,000.5	56.918	16,000.5	59.9725	16,000.5	56.5772	16,000.5	49.797	16,000.5	48.5009	16,000.5	48.3915	16,000.5	39.9976	16,000.5	54.6855	16,000.5	54.9259	16,000.5	49.7403	16,000.5	57.7002	16,000.5	54.1913	16,000.5	57.6214	16,000.5	50.0384	16,000.5	48.1923	16,000.5	51.5723	16,000.5	48.7213	16,000.5	55.3272	16,000.5	43.2686	16,000.5	59.5794	16,000.5	55.7682	16,000.5	52.2126
16,564.5	86.1344	16,564.5	85.2533	16,564.5	85.5361	16,564.5	82.757	16,564.5	84.7424	16,564.5	77.5828	16,564.5	78.2745	16,564.5	71.3616	16,564.5	71.5694	16,564.5	67.6019	16,564.5	67.8267	16,564.5	54.2673	16,564.5	61.861	16,564.5	47.2768	16,564.5	51.3361	16,564.5	55.9158	16,564.5	53.1359	16,564.5	45.7051	16,564.5	47.4579	16,564.5	48.5292	16,564.5	53.3634	16,564.5	53.8051	16,564.5	53.0768	16,564.5	50.3956	16,564.5	58.2391	16,564.5	55.7242	16,564.5	57.0813	16,564.5	52.5218	16,564.5	49.8747	16,564.5	48.6487	16,564.5	48.8681	16,564.5	53.5229	16,564.5	49.0825	16,564.5	59.2927	16,564.5	55.7491	16,564.5	50.4579
17,148.9	85.9838	17,148.9	85.235	17,148.9	85.4165	17,148.9	82.0908	17,148.9	84.5809	17,148.9	76.8012	17,148.9	77.5693	17,148.9	71.6195	17,148.9	72.43	17,148.9	63.2073	17,148.9	65.6178	17,148.9	55.5751	17,148.9	60.8195	17,148.9	50.1276	17,148.9	54.4938	17,148.9	44.5877	17,148.9	53.6205	17,148.9	51.8521	17,148.9	43.3349	17,148.9	44.8363	17,148.9	55.7692	17,148.9	56.7929	17,148.9	29.5654	17,148.9	52.0613	17,148.9	57.4527	17,148.9	57.8409	17,148.9	55.1109	17,148.9	54.6768	17,148.9	49.6109	17,148.9	47.5263	17,148.9	44.796	17,148.9	50.9861	17,148.9	50.9918	17,148.9	58.4948	17,148.9	54.6014	17,148.9	49.0564
17,752.4	85.3844	17,752.4	84.7811	17,752.4	84.6469	17,752.4	81.1429	17,752.4	83.7307	17,752.4	75.4751	17,752.4	76.0137	17,752.4	70.7451	17,752.4	71.2533	17,752.4	59.4342	17,752.4	62.0867	17,752.4	52.3058	17,752.4	58.9854	17,752.4	53.7189	17,752.4	54.7185	17,752.4	45.6686	17,752.4	51.3433	17,752.4	54.3581	17,752.4	48.7879	17,752.4	48.6894	17,752.4	51.5956	17,752.4	58.4759	17,752.4	44.2771	17,752.4	52.3763	17,752.4	54.2575	17,752.4	56.9999	17,752.4	54.2558	17,752.4	55.9507	17,752.4	45.5968	17,752.4	48.7532	17,752.4	41.2253	17,752.4	50.9249	17,752.4	50.9842	17,752.4	56.5643	17,752.4	51.9994	17,752.4	50.7088
18,379.4	84.64	18,379.4	84.12	18,379.4	83.8278	18,379.4	80.0091	18,379.4	82.8754	18,379.4	74.6301	18,379.4	73.9433	18,379.4	68.5868	18,379.4	68.1421	18,379.4	61.7741	18,379.4	49.5608	18,379.4	54.9679	18,379.4	57.8551	18,379.4	53.1052	18,379.4	54.4844	18,379.4	47.314	18,379.4	50.8987	18,379.4	50.7523	18,379.4	51.8413	18,379.4	53.7581	18,379.4	46.5547	18,379.4	56.0268	18,379.4	47.505	18,379.4	51.4737	18,379.4	50.8635	18,379.4	54.6981	18,379.4	51.6444	18,379.4	55.0341	18,379.4	40.2773	18,379.4	45.039	18,379.4	43.4846	18,379.4	50.8544	18,379.4	52.1405	18,379.4	53.9521	18,379.4	50.1184	18,379.4	52.9027
19,026.9	83.6074	19,026.9	83.2246	19,026.9	82.5544	19,026.9	78.711	19,026.9	81.6422	19,026.9	74.1442	19,026.9	71.6612	19,026.9	65.2747	19,026.9	62.4156	19,026.9	62.4689	19,026.9	50.0888	19,026.9	59.4703	19,026.9	58.6592	19,026.9	53.4323	19,026.9	55.86	19,026.9	38.6334	19,026.9	44.7972	19,026.9	38.8326	19,026.9	52.7186	19,026.9	52.4791	19,026.9	48.3315	19,026.9	53.4034	19,026.9	33.5792	19,026.9	50.6202	19,026.9	46.9869	19,026.9	52.5558	19,026.9	44.5715	19,026.9	52.4834	19,026.9	34.0434	19,026.9	37.0608	19,026.9	45.6831	19,026.9	48.4813	19,026.9	50.4318	19,026.9	49.8426	19,026.9	43.7673	19,026.9	54.1554
19,697.8	82.566	19,697.8	81.9445	19,697.8	81.0657	19,697.8	77.096	19,697.8	80.1188	19,697.8	73.0246	19,697.8	69.4406	19,697.8	62.832	19,697.8	53.2183	19,697.8	62.3192	19,697.8	52.0682	19,697.8	58.9763	19,697.8	55.906	19,697.8	56.7449	19,697.8	57.1876	19,697.8	45.845	19,697.8	48.9031	19,697.8	39.8589	19,697.8	50.6679	19,697.8	49.8695	19,697.8	43.1592	19,697.8	51.1376	19,697.8	34.8013	19,697.8	49.5772	19,697.8	47.7271	19,697.8	51.7432	19,697.8	38.2218	19,697.8	47.3441	19,697.8	40.7071	19,697.8	23.1522	19,697.8	44.0154	19,697.8	40.3603	19,697.8	46.7474	19,697.8	44.6966	19,697.8	40.4657	19,697.8	53.5078
19,999.5	82.2467	19,999.5	81.3388	19,999.5	80.2723	19,999.5	76.29	19,999.5	79.3096	19,999.5	72.5454	19,999.5	69.4074	19,999.5	63.506	19,999.5	54.9783	19,999.5	61.7262	19,999.5	55.3005	19,999.5	59.3354	19,999.5	56.3936	19,999.5	59.1451	19,999.5	57.2785	19,999.5	51.8076	19,999.5	54.7113	19,999.5	41.3084	19,999.5	45.8017	19,999.5	42.4377	19,999.5	39.7739	19,999.5	47.0046	19,999.5	43.0678	19,999.5	45.2178	19,999.5	47.5547	19,999.5	50.6124	19,999.5	29.4824	19,999.5	48.8	19,999.5	49.2779	19,999.5	36.9962	19,999.5	42.4823	19,999.5	35.0024	19,999.5	41.7771	19,999.5	46.9663	19,999.5	44.8018	19,999.5	54.9883
