"SPL Horizontal"
"On-Axis"		"10°"		"-10°"		"20°"		"-20°"		"30°"		"-30°"		"40°"		"-40°"		"50°"		"-50°"		"60°"		"-60°"		"70°"		"-70°"		"80°"		"-80°"		"90°"		"-90°"		"100°"		"-100°"		"110°"		"-110°"		"120°"		"-120°"		"130°"		"-130°"		"140°"		"-140°"		"150°"		"-150°"		"160°"		"-160°"		"170°"		"-170°"		"180°"
"Frequency / Hz"	"Sound Pressure Level / dB (re 20 µPa/V)  [2.83  V @ 1. m]"	"Frequency / Hz"	"Sound Pressure Level / dB (re 20 µPa/V)  [2.83  V @ 1. m]"	"Frequency / Hz"	"Sound Pressure Level / dB (re 20 µPa/V)  [2.83  V @ 1. m]"	"Frequency / Hz"	"Sound Pressure Level / dB (re 20 µPa/V)  [2.83  V @ 1. m]"	"Frequency / Hz"	"Sound Pressure Level / dB (re 20 µPa/V)  [2.83  V @ 1. m]"	"Frequency / Hz"	"Sound Pressure Level / dB (re 20 µPa/V)  [2.83  V @ 1. m]"	"Frequency / Hz"	"Sound Pressure Level / dB (re 20 µPa/V)  [2.83  V @ 1. m]"	"Frequency / Hz"	"Sound Pressure Level / dB (re 20 µPa/V)  [2.83  V @ 1. m]"	"Frequency / Hz"	"Sound Pressure Level / dB (re 20 µPa/V)  [2.83  V @ 1. m]"	"Frequency / Hz"	"Sound Pressure Level / dB (re 20 µPa/V)  [2.83  V @ 1. m]"	"Frequency / Hz"	"Sound Pressure Level / dB (re 20 µPa/V)  [2.83  V @ 1. m]"	"Frequency / Hz"	"Sound Pressure Level / dB (re 20 µPa/V)  [2.83  V @ 1. m]"	"Frequency / Hz"	"Sound Pressure Level / dB (re 20 µPa/V)  [2.83  V @ 1. m]"	"Frequency / Hz"	"Sound Pressure Level / dB (re 20 µPa/V)  [2.83  V @ 1. m]"	"Frequency / Hz"	"Sound Pressure Level / dB (re 20 µPa/V)  [2.83  V @ 1. m]"	"Frequency / Hz"	"Sound Pressure Level / dB (re 20 µPa/V)  [2.83  V @ 1. m]"	"Frequency / Hz"	"Sound Pressure Level / dB (re 20 µPa/V)  [2.83  V @ 1. m]"	"Frequency / Hz"	"Sound Pressure Level / dB (re 20 µPa/V)  [2.83  V @ 1. m]"	"Frequency / Hz"	"Sound Pressure Level / dB (re 20 µPa/V)  [2.83  V @ 1. m]"	"Frequency / Hz"	"Sound Pressure Level / dB (re 20 µPa/V)  [2.83  V @ 1. m]"	"Frequency / Hz"	"Sound Pressure Level / dB (re 20 µPa/V)  [2.83  V @ 1. m]"	"Frequency / Hz"	"Sound Pressure Level / dB (re 20 µPa/V)  [2.83  V @ 1. m]"	"Frequency / Hz"	"Sound Pressure Level / dB (re 20 µPa/V)  [2.83  V @ 1. m]"	"Frequency / Hz"	"Sound Pressure Level / dB (re 20 µPa/V)  [2.83  V @ 1. m]"	"Frequency / Hz"	"Sound Pressure Level / dB (re 20 µPa/V)  [2.83  V @ 1. m]"	"Frequency / Hz"	"Sound Pressure Level / dB (re 20 µPa/V)  [2.83  V @ 1. m]"	"Frequency / Hz"	"Sound Pressure Level / dB (re 20 µPa/V)  [2.83  V @ 1. m]"	"Frequency / Hz"	"Sound Pressure Level / dB (re 20 µPa/V)  [2.83  V @ 1. m]"	"Frequency / Hz"	"Sound Pressure Level / dB (re 20 µPa/V)  [2.83  V @ 1. m]"	"Frequency / Hz"	"Sound Pressure Level / dB (re 20 µPa/V)  [2.83  V @ 1. m]"	"Frequency / Hz"	"Sound Pressure Level / dB (re 20 µPa/V)  [2.83  V @ 1. m]"	"Frequency / Hz"	"Sound Pressure Level / dB (re 20 µPa/V)  [2.83  V @ 1. m]"	"Frequency / Hz"	"Sound Pressure Level / dB (re 20 µPa/V)  [2.83  V @ 1. m]"	"Frequency / Hz"	"Sound Pressure Level / dB (re 20 µPa/V)  [2.83  V @ 1. m]"	"Frequency / Hz"	"Sound Pressure Level / dB (re 20 µPa/V)  [2.83  V @ 1. m]"	"Frequency / Hz"	"Sound Pressure Level / dB (re 20 µPa/V)  [2.83  V @ 1. m]"
20.5078	35.5933	20.5078	35.4003	20.5078	35.4957	20.5078	34.9594	20.5078	35.0877	20.5078	34.3555	20.5078	34.3604	20.5078	33.7582	20.5078	33.2994	20.5078	33.4701	20.5078	31.8647	20.5078	33.8528	20.5078	30.032	20.5078	35.0178	20.5078	28.3202	20.5078	36.6861	20.5078	29.0746	20.5078	38.4817	20.5078	32.653	20.5078	40.1632	20.5078	36.4123	20.5078	41.6266	20.5078	39.5135	20.5078	42.8496	20.5078	41.9403	20.5078	43.8518	20.5078	43.7743	20.5078	44.6689	20.5078	45.0918	20.5078	45.3361	20.5078	45.9615	20.5078	45.8753	20.5078	46.4502	20.5078	46.2878	20.5078	46.6251	20.5078	46.5518
21.9727	42.3004	21.9727	42.3903	21.9727	42.3294	21.9727	42.6116	21.9727	42.4572	21.9727	42.9643	21.9727	42.661	21.9727	43.4355	21.9727	42.9206	21.9727	44.0037	21.9727	43.2226	21.9727	44.6432	21.9727	43.5657	21.9727	45.3265	21.9727	43.9647	21.9727	46.0252	21.9727	44.448	21.9727	46.7096	21.9727	45.0443	21.9727	47.3527	21.9727	45.7604	21.9727	47.934	21.9727	46.566	21.9727	48.4428	21.9727	47.3971	21.9727	48.8773	21.9727	48.1787	21.9727	49.2409	21.9727	48.8477	21.9727	49.5371	21.9727	49.3654	21.9727	49.7645	21.9727	49.7186	21.9727	49.9146	21.9727	49.9143	21.9727	49.9718
23.4375	48.1975	23.4375	48.0712	23.4375	48.3205	23.4375	47.9489	23.4375	48.4352	23.4375	47.8396	23.4375	48.5386	23.4375	47.7523	23.4375	48.6277	23.4375	47.6943	23.4375	48.6974	23.4375	47.6695	23.4375	48.739	23.4375	47.6783	23.4375	48.7411	23.4375	47.718	23.4375	48.6938	23.4375	47.7836	23.4375	48.5943	23.4375	47.8686	23.4375	48.4531	23.4375	47.965	23.4375	48.295	23.4375	48.064	23.4375	48.1549	23.4375	48.1567	23.4375	48.0646	23.4375	48.2349	23.4375	48.0393	23.4375	48.2915	23.4375	48.0721	23.4375	48.3202	23.4375	48.1404	23.4375	48.3168	23.4375	48.2173	23.4375	48.2807
24.9023	49.2608	24.9023	49.2369	24.9023	49.283	24.9023	49.2167	24.9023	49.2991	24.9023	49.2044	24.9023	49.3056	24.9023	49.202	24.9023	49.2999	24.9023	49.2085	24.9023	49.2782	24.9023	49.2198	24.9023	49.2349	24.9023	49.2307	24.9023	49.1628	24.9023	49.2361	24.9023	49.056	24.9023	49.2323	24.9023	48.9132	24.9023	49.2169	24.9023	48.7425	24.9023	49.1881	24.9023	48.5619	24.9023	49.1441	24.9023	48.3972	24.9023	49.083	24.9023	48.2747	24.9023	49.0031	24.9023	48.2131	24.9023	48.9039	24.9023	48.2176	24.9023	48.7866	24.9023	48.2809	24.9023	48.655	24.9023	48.3871	24.9023	48.5175
26.3672	53.5799	26.3672	53.5966	26.3672	53.5505	26.3672	53.6009	26.3672	53.5096	26.3672	53.593	26.3672	53.4593	26.3672	53.5731	26.3672	53.4023	26.3672	53.5404	26.3672	53.3402	26.3672	53.4935	26.3672	53.2721	26.3672	53.431	26.3672	53.1949	26.3672	53.353	26.3672	53.1043	26.3672	53.2614	26.3672	52.9974	26.3672	53.1607	26.3672	52.8753	26.3672	53.0566	26.3672	52.7449	26.3672	52.9545	26.3672	52.618	26.3672	52.8581	26.3672	52.509	26.3672	52.7688	26.3672	52.4305	26.3672	52.6858	26.3672	52.3898	26.3672	52.6078	26.3672	52.3871	26.3672	52.5345	26.3672	52.4165	26.3672	52.4686
27.832	57.0596	27.832	57.0738	27.832	57.0371	27.832	57.0794	27.832	57.0076	27.832	57.0766	27.832	56.973	27.832	57.0656	27.832	56.9356	27.832	57.0464	27.832	56.897	27.832	57.0182	27.832	56.8567	27.832	56.9802	27.832	56.8122	27.832	56.9318	27.832	56.7593	27.832	56.8737	27.832	56.6939	27.832	56.8079	27.832	56.6144	27.832	56.7373	27.832	56.5232	27.832	56.665	27.832	56.4275	27.832	56.5929	27.832	56.3382	27.832	56.5219	27.832	56.2669	27.832	56.4519	27.832	56.2225	27.832	56.3837	27.832	56.2091	27.832	56.3195	27.832	56.225	27.832	56.2643
29.2969	58.9002	29.2969	58.8807	29.2969	58.9154	29.2969	58.857	29.2969	58.9263	29.2969	58.8291	29.2969	58.9327	29.2969	58.7971	29.2969	58.9342	29.2969	58.7609	29.2969	58.9297	29.2969	58.7203	29.2969	58.9172	29.2969	58.6749	29.2969	58.8945	29.2969	58.625	29.2969	58.8591	29.2969	58.5714	29.2969	58.8102	29.2969	58.5171	29.2969	58.749	29.2969	58.4663	29.2969	58.6797	29.2969	58.4239	29.2969	58.6088	29.2969	58.3937	29.2969	58.543	29.2969	58.3767	29.2969	58.4878	29.2969	58.3709	29.2969	58.446	29.2969	58.3726	29.2969	58.417	29.2969	58.3782	29.2969	58.3984	29.2969	58.3865
30.7617	62.3772	30.7617	62.3784	30.7617	62.3749	30.7617	62.3787	30.7617	62.3715	30.7617	62.3782	30.7617	62.367	30.7617	62.377	30.7617	62.3615	30.7617	62.3748	30.7617	62.355	30.7617	62.3713	30.7617	62.3472	30.7617	62.3659	30.7617	62.3372	30.7617	62.3579	30.7617	62.3243	30.7617	62.3473	30.7617	62.308	30.7617	62.3344	30.7617	62.2888	30.7617	62.3206	30.7617	62.2687	30.7617	62.3079	30.7617	62.2505	30.7617	62.2979	30.7617	62.237	30.7617	62.2909	30.7617	62.2304	30.7617	62.2855	30.7617	62.2312	30.7617	62.2798	30.7617	62.2383	30.7617	62.272	30.7617	62.2493	30.7617	62.2614
32.2266	65.1337	32.2266	65.1353	32.2266	65.1296	32.2266	65.1342	32.2266	65.1234	32.2266	65.1305	32.2266	65.1155	32.2266	65.1241	32.2266	65.1062	32.2266	65.1152	32.2266	65.0958	32.2266	65.1039	32.2266	65.084	32.2266	65.0904	32.2266	65.0706	32.2266	65.0748	32.2266	65.055	32.2266	65.0577	32.2266	65.0374	32.2266	65.0402	32.2266	65.0185	32.2266	65.0237	32.2266	64.9999	32.2266	65.0099	32.2266	64.9839	32.2266	64.9999	32.2266	64.9721	32.2266	64.9937	32.2266	64.9658	32.2266	64.9902	32.2266	64.9647	32.2266	64.9876	32.2266	64.9678	32.2266	64.9843	32.2266	64.9734	32.2266	64.9793
33.6914	67.279	33.6914	67.281	33.6914	67.2727	33.6914	67.2786	33.6914	67.2625	33.6914	67.2718	33.6914	67.2488	33.6914	67.2608	33.6914	67.2323	33.6914	67.2458	33.6914	67.2133	33.6914	67.2271	33.6914	67.192	33.6914	67.205	33.6914	67.1687	33.6914	67.1801	33.6914	67.1431	33.6914	67.1527	33.6914	67.1154	33.6914	67.1239	33.6914	67.0859	33.6914	67.0948	33.6914	67.0557	33.6914	67.0669	33.6914	67.0264	33.6914	67.0412	33.6914	67	33.6914	67.0184	33.6914	66.9784	33.6914	66.9985	33.6914	66.963	33.6914	66.9816	33.6914	66.9547	33.6914	66.9679	33.6914	66.9533	33.6914	66.9581
35.1562	69.9941	35.1562	69.9886	35.1562	69.9951	35.1562	69.9785	35.1562	69.9917	35.1562	69.9637	35.1562	69.9841	35.1562	69.9443	35.1562	69.9723	35.1562	69.9204	35.1562	69.9565	35.1562	69.8926	35.1562	69.9368	35.1562	69.8613	35.1562	69.9131	35.1562	69.8274	35.1562	69.8855	35.1562	69.7922	35.1562	69.8542	35.1562	69.7569	35.1562	69.8196	35.1562	69.723	35.1562	69.7827	35.1562	69.6918	35.1562	69.745	35.1562	69.6645	35.1562	69.7083	35.1562	69.6415	35.1562	69.6747	35.1562	69.6234	35.1562	69.6462	35.1562	69.6105	35.1562	69.6243	35.1562	69.6035	35.1562	69.6099	35.1562	69.6031
36.6211	72.1777	36.6211	72.1681	36.6211	72.1838	36.6211	72.1555	36.6211	72.1863	36.6211	72.14	36.6211	72.1852	36.6211	72.1223	36.6211	72.1805	36.6211	72.103	36.6211	72.1725	36.6211	72.0827	36.6211	72.1616	36.6211	72.0622	36.6211	72.1484	36.6211	72.0424	36.6211	72.1334	36.6211	72.0242	36.6211	72.1173	36.6211	72.0083	36.6211	72.1006	36.6211	71.9956	36.6211	72.0836	36.6211	71.9862	36.6211	72.0667	36.6211	71.9803	36.6211	72.0502	36.6211	71.9773	36.6211	72.0344	36.6211	71.9769	36.6211	72.0198	36.6211	71.9786	36.6211	72.007	36.6211	71.9823	36.6211	71.9964	36.6211	71.9882
38.0859	72.9554	38.0859	72.9506	38.0859	72.9575	38.0859	72.9429	38.0859	72.9572	38.0859	72.9326	38.0859	72.9548	38.0859	72.9199	38.0859	72.9508	38.0859	72.9054	38.0859	72.9457	38.0859	72.8899	38.0859	72.94	38.0859	72.8743	38.0859	72.9343	38.0859	72.8597	38.0859	72.9291	38.0859	72.8471	38.0859	72.9246	38.0859	72.8372	38.0859	72.9207	38.0859	72.8305	38.0859	72.9172	38.0859	72.8272	38.0859	72.9133	38.0859	72.8271	38.0859	72.9083	38.0859	72.8299	38.0859	72.9017	38.0859	72.8351	38.0859	72.8933	38.0859	72.8425	38.0859	72.8835	38.0859	72.8515	38.0859	72.8727	38.0859	72.8618
39.5508	74.7733	39.5508	74.768	39.5508	74.7725	39.5508	74.7568	39.5508	74.7656	39.5508	74.7401	39.5508	74.7526	39.5508	74.7182	39.5508	74.7338	39.5508	74.6917	39.5508	74.7095	39.5508	74.6613	39.5508	74.6802	39.5508	74.6278	39.5508	74.6468	39.5508	74.5921	39.5508	74.6101	39.5508	74.5549	39.5508	74.5712	39.5508	74.5172	39.5508	74.5311	39.5508	74.4797	39.5508	74.491	39.5508	74.4433	39.5508	74.4522	39.5508	74.4092	39.5508	74.416	39.5508	74.3786	39.5508	74.3837	39.5508	74.3529	39.5508	74.3565	39.5508	74.3335	39.5508	74.3359	39.5508	74.3215	39.5508	74.3227	39.5508	74.3178
41.0156	76.7013	41.0156	76.6938	41.0156	76.7026	41.0156	76.6803	41.0156	76.6976	41.0156	76.6612	41.0156	76.6863	41.0156	76.6369	41.0156	76.6687	41.0156	76.6078	41.0156	76.6451	41.0156	76.5748	41.0156	76.6161	41.0156	76.5387	41.0156	76.5823	41.0156	76.5001	41.0156	76.5448	41.0156	76.4603	41.0156	76.5046	41.0156	76.4201	41.0156	76.463	41.0156	76.3807	41.0156	76.4212	41.0156	76.343	41.0156	76.3805	41.0156	76.3084	41.0156	76.342	41.0156	76.2782	41.0156	76.3071	41.0156	76.2538	41.0156	76.2769	41.0156	76.2365	41.0156	76.2528	41.0156	76.2275	41.0156	76.236	41.0156	76.2274
42.4805	78.2134	42.4805	78.2021	42.4805	78.2183	42.4805	78.1846	42.4805	78.2168	42.4805	78.1612	42.4805	78.2088	42.4805	78.1325	42.4805	78.1946	42.4805	78.099	42.4805	78.1744	42.4805	78.0615	42.4805	78.149	42.4805	78.0209	42.4805	78.1191	42.4805	77.9784	42.4805	78.0856	42.4805	77.9351	42.4805	78.0496	42.4805	77.8923	42.4805	78.0122	42.4805	77.8517	42.4805	77.9742	42.4805	77.8148	42.4805	77.9363	42.4805	77.7834	42.4805	77.8993	42.4805	77.7593	42.4805	77.8636	42.4805	77.7438	42.4805	77.8301	42.4805	77.7379	42.4805	77.7998	42.4805	77.7415	42.4805	77.7739	42.4805	77.754
43.9453	79.1886	43.9453	79.1783	43.9453	79.192	43.9453	79.1617	43.9453	79.1884	43.9453	79.1391	43.9453	79.178	43.9453	79.1114	43.9453	79.1609	43.9453	79.0794	43.9453	79.1378	43.9453	79.0443	43.9453	79.1097	43.9453	79.0072	43.9453	79.0775	43.9453	78.9694	43.9453	79.0426	43.9453	78.9322	43.9453	79.0064	43.9453	78.8968	43.9453	78.9702	43.9453	78.8643	43.9453	78.9352	43.9453	78.8354	43.9453	78.9022	43.9453	78.8112	43.9453	78.8719	43.9453	78.7922	43.9453	78.8448	43.9453	78.779	43.9453	78.8213	43.9453	78.7719	43.9453	78.8017	43.9453	78.771	43.9453	78.7865	43.9453	78.776
45.4102	79.7627	45.4102	79.7544	45.4102	79.7623	45.4102	79.7378	45.4102	79.7534	45.4102	79.7135	45.4102	79.7362	45.4102	79.6824	45.4102	79.7112	45.4102	79.6454	45.4102	79.6795	45.4102	79.6039	45.4102	79.6422	45.4102	79.5597	45.4102	79.6007	45.4102	79.5142	45.4102	79.5566	45.4102	79.4693	45.4102	79.5116	45.4102	79.4264	45.4102	79.4673	45.4102	79.3867	45.4102	79.4248	45.4102	79.351	45.4102	79.3853	45.4102	79.3199	45.4102	79.3496	45.4102	79.2939	45.4102	79.3185	45.4102	79.2734	45.4102	79.2925	45.4102	79.2592	45.4102	79.2723	45.4102	79.2518	45.4102	79.2585	45.4102	79.2515
46.875	80.5183	46.875	80.5081	46.875	80.5199	46.875	80.4897	46.875	80.5128	46.875	80.4635	46.875	80.4972	46.875	80.4305	46.875	80.4736	46.875	80.3916	46.875	80.4428	46.875	80.3482	46.875	80.4056	46.875	80.3016	46.875	80.3635	46.875	80.2533	46.875	80.3179	46.875	80.205	46.875	80.2703	46.875	80.1581	46.875	80.2223	46.875	80.1139	46.875	80.1754	46.875	80.0738	46.875	80.1308	46.875	80.0388	46.875	80.0897	46.875	80.0099	46.875	80.0533	46.875	79.9879	46.875	80.0222	46.875	79.9736	46.875	79.9975	46.875	79.9674	46.875	79.9797	46.875	79.9695
48.3398	81.1937	48.3398	81.184	48.3398	81.1958	48.3398	81.167	48.3398	81.1903	48.3398	81.1434	48.3398	81.1773	48.3398	81.114	48.3398	81.1576	48.3398	81.08	48.3398	81.1317	48.3398	81.0427	48.3398	81.1008	48.3398	81.0035	48.3398	81.066	48.3398	80.9638	48.3398	81.0288	48.3398	80.9252	48.3398	80.9903	48.3398	80.8888	48.3398	80.9521	48.3398	80.8558	48.3398	80.9152	48.3398	80.8268	48.3398	80.8806	48.3398	80.8024	48.3398	80.8492	48.3398	80.7828	48.3398	80.8216	48.3398	80.7684	48.3398	80.7983	48.3398	80.7595	48.3398	80.7798	48.3398	80.7561	48.3398	80.7664	48.3398	80.7584
51.2695	82.0626	51.2695	82.0553	51.2695	82.0617	51.2695	82.0402	51.2695	82.0525	51.2695	82.0178	51.2695	82.0354	51.2695	81.9891	51.2695	82.011	51.2695	81.9553	51.2695	81.9804	51.2695	81.9176	51.2695	81.9447	51.2695	81.8775	51.2695	81.9055	51.2695	81.8364	51.2695	81.8643	51.2695	81.7958	51.2695	81.8228	51.2695	81.7569	51.2695	81.7823	51.2695	81.7211	51.2695	81.7444	51.2695	81.6892	51.2695	81.7101	51.2695	81.662	51.2695	81.6801	51.2695	81.6399	51.2695	81.655	51.2695	81.6232	51.2695	81.6349	51.2695	81.6119	51.2695	81.62	51.2695	81.606	51.2695	81.6101	51.2695	81.6055
52.7344	82.3669	52.7344	82.3611	52.7344	82.3648	52.7344	82.348	52.7344	82.355	52.7344	82.3281	52.7344	82.3377	52.7344	82.3025	52.7344	82.3136	52.7344	82.2722	52.7344	82.284	52.7344	82.2385	52.7344	82.2501	52.7344	82.2031	52.7344	82.2136	52.7344	82.1672	52.7344	82.1762	52.7344	82.1323	52.7344	82.1396	52.7344	82.0998	52.7344	82.1055	52.7344	82.0709	52.7344	82.0751	52.7344	82.0462	52.7344	82.0491	52.7344	82.0261	52.7344	82.028	52.7344	82.0107	52.7344	82.0118	52.7344	81.9994	52.7344	82	52.7344	81.9919	52.7344	81.9921	52.7344	81.9876	52.7344	81.9876	52.7344	81.9862
54.1992	82.6529	54.1992	82.6496	54.1992	82.6468	54.1992	82.6368	54.1992	82.6313	54.1992	82.6151	54.1992	82.6074	54.1992	82.5855	54.1992	82.576	54.1992	82.5491	54.1992	82.5386	54.1992	82.5077	54.1992	82.4971	54.1992	82.4629	54.1992	82.4534	54.1992	82.417	54.1992	82.4096	54.1992	82.372	54.1992	82.3677	54.1992	82.33	54.1992	82.3296	54.1992	82.2928	54.1992	82.2963	54.1992	82.2618	54.1992	82.2688	54.1992	82.2375	54.1992	82.2469	54.1992	82.2199	54.1992	82.2302	54.1992	82.2083	54.1992	82.218	54.1992	82.2019	54.1992	82.2093	54.1992	82.1994	54.1992	82.2034	54.1992	82.2001
55.6641	82.9436	55.6641	82.9478	55.6641	82.9241	55.6641	82.9368	55.6641	82.8899	55.6641	82.9111	55.6641	82.8419	55.6641	82.8716	55.6641	82.7815	55.6641	82.82	55.6641	82.7109	55.6641	82.7583	55.6641	82.6322	55.6641	82.6891	55.6641	82.5484	55.6641	82.6152	55.6641	82.4625	55.6641	82.5394	55.6641	82.3779	55.6641	82.4645	55.6641	82.2978	55.6641	82.3928	55.6641	82.2253	55.6641	82.3261	55.6641	82.1634	55.6641	82.2655	55.6641	82.1139	55.6641	82.2116	55.6641	82.0782	55.6641	82.1644	55.6641	82.0564	55.6641	82.1243	55.6641	82.048	55.6641	82.0916	55.6641	82.0521	55.6641	82.0671
58.5938	83.1239	58.5938	83.0965	58.5938	83.1353	58.5938	83.054	58.5938	83.1305	58.5938	82.9973	58.5938	83.1096	58.5938	82.9283	58.5938	83.0732	58.5938	82.8487	58.5938	83.0223	58.5938	82.7607	58.5938	82.9584	58.5938	82.6666	58.5938	82.883	58.5938	82.569	58.5938	82.7981	58.5938	82.4706	58.5938	82.706	58.5938	82.374	58.5938	82.6091	58.5938	82.2821	58.5938	82.5099	58.5938	82.198	58.5938	82.4114	58.5938	82.1246	58.5938	82.3164	58.5938	82.0647	58.5938	82.2282	58.5938	82.0208	58.5938	82.1498	58.5938	81.995	58.5938	82.0842	58.5938	81.9886	58.5938	82.0341	58.5938	82.0018
60.0586	83.0106	60.0586	82.9943	60.0586	83.0112	60.0586	82.9629	60.0586	82.9961	60.0586	82.9168	60.0586	82.9652	60.0586	82.8569	60.0586	82.9192	60.0586	82.7843	60.0586	82.8589	60.0586	82.7002	60.0586	82.7857	60.0586	82.6064	60.0586	82.7016	60.0586	82.5051	60.0586	82.6087	60.0586	82.3992	60.0586	82.5099	60.0586	82.2921	60.0586	82.408	60.0586	82.1879	60.0586	82.3062	60.0586	82.0908	60.0586	82.2074	60.0586	82.0047	60.0586	82.1148	60.0586	81.9333	60.0586	82.0311	60.0586	81.8793	60.0586	81.9589	60.0586	81.8444	60.0586	81.9008	60.0586	81.8295	60.0586	81.8587	60.0586	81.8345
62.9883	82.7848	62.9883	82.7768	62.9883	82.7822	62.9883	82.7587	62.9883	82.7691	62.9883	82.7313	62.9883	82.7457	62.9883	82.6957	62.9883	82.7129	62.9883	82.6533	62.9883	82.6719	62.9883	82.6055	62.9883	82.624	62.9883	82.5539	62.9883	82.5712	62.9883	82.5003	62.9883	82.5152	62.9883	82.4463	62.9883	82.4581	62.9883	82.3933	62.9883	82.4018	62.9883	82.3431	62.9883	82.3482	62.9883	82.2968	62.9883	82.2989	62.9883	82.2556	62.9883	82.2552	62.9883	82.2203	62.9883	82.2182	62.9883	82.1918	62.9883	82.1888	62.9883	82.1706	62.9883	82.1678	62.9883	82.1571	62.9883	82.1554	62.9883	82.1519
64.4531	82.7043	64.4531	82.6967	64.4531	82.7022	64.4531	82.6799	64.4531	82.6905	64.4531	82.6546	64.4531	82.6696	64.4531	82.6218	64.4531	82.6403	64.4531	82.583	64.4531	82.6038	64.4531	82.5396	64.4531	82.5614	64.4531	82.4934	64.4531	82.5147	64.4531	82.4461	64.4531	82.4653	64.4531	82.3993	64.4531	82.415	64.4531	82.3544	64.4531	82.3655	64.4531	82.3127	64.4531	82.3184	64.4531	82.275	64.4531	82.2753	64.4531	82.2419	64.4531	82.2374	64.4531	82.2137	64.4531	82.2058	64.4531	82.1906	64.4531	82.1815	64.4531	82.1728	64.4531	82.1648	64.4531	82.1606	64.4531	82.1561	64.4531	82.1548
67.3828	82.6216	67.3828	82.6007	67.3828	82.6334	67.3828	82.5715	67.3828	82.6361	67.3828	82.535	67.3828	82.6298	67.3828	82.4929	67.3828	82.615	67.3828	82.4467	67.3828	82.5929	67.3828	82.3987	67.3828	82.5645	67.3828	82.351	67.3828	82.5314	67.3828	82.3055	67.3828	82.4949	67.3828	82.2644	67.3828	82.4567	67.3828	82.229	67.3828	82.4179	67.3828	82.2007	67.3828	82.3799	67.3828	82.18	67.3828	82.3435	67.3828	82.167	67.3828	82.3096	67.3828	82.1611	67.3828	82.2786	67.3828	82.1614	67.3828	82.2511	67.3828	82.1669	67.3828	82.2272	67.3828	82.1766	67.3828	82.2068	67.3828	82.19
68.8477	82.6457	68.8477	82.6247	68.8477	82.6565	68.8477	82.5941	68.8477	82.657	68.8477	82.5549	68.8477	82.6476	68.8477	82.5087	68.8477	82.6292	68.8477	82.4574	68.8477	82.6029	68.8477	82.4031	68.8477	82.5704	68.8477	82.3484	68.8477	82.5333	68.8477	82.2957	68.8477	82.4933	68.8477	82.2472	68.8477	82.4521	68.8477	82.2051	68.8477	82.4111	68.8477	82.1708	68.8477	82.3714	68.8477	82.1455	68.8477	82.3338	68.8477	82.1295	68.8477	82.2985	68.8477	82.1225	68.8477	82.2659	68.8477	82.1236	68.8477	82.2359	68.8477	82.1316	68.8477	82.2087	68.8477	82.1451	68.8477	82.1843	68.8477	82.1629
71.7773	82.7207	71.7773	82.7025	71.7773	82.7268	71.7773	82.6727	71.7773	82.7209	71.7773	82.6321	71.7773	82.7037	71.7773	82.5824	71.7773	82.676	71.7773	82.5254	71.7773	82.6396	71.7773	82.4634	71.7773	82.596	71.7773	82.3991	71.7773	82.5475	71.7773	82.3353	71.7773	82.4959	71.7773	82.2745	71.7773	82.4434	71.7773	82.2194	71.7773	82.3916	71.7773	82.1719	71.7773	82.342	71.7773	82.1336	71.7773	82.2955	71.7773	82.1052	71.7773	82.2527	71.7773	82.0871	71.7773	82.214	71.7773	82.0787	71.7773	82.1794	71.7773	82.0792	71.7773	82.1491	71.7773	82.0876	71.7773	82.1234	71.7773	82.1026
74.707	82.6975	74.707	82.6807	74.707	82.7014	74.707	82.6514	74.707	82.6925	74.707	82.6107	74.707	82.6715	74.707	82.5602	74.707	82.6397	74.707	82.5019	74.707	82.5989	74.707	82.4384	74.707	82.5511	74.707	82.3725	74.707	82.4989	74.707	82.307	74.707	82.4447	74.707	82.2449	74.707	82.3908	74.707	82.1889	74.707	82.3389	74.707	82.1411	74.707	82.2906	74.707	82.103	74.707	82.2465	74.707	82.0752	74.707	82.2071	74.707	82.0578	74.707	82.1721	74.707	82.05	74.707	82.1414	74.707	82.0508	74.707	82.1146	74.707	82.0589	74.707	82.0916	74.707	82.0728
77.6367	82.6619	77.6367	82.6402	77.6367	82.6705	77.6367	82.6059	77.6367	82.6659	77.6367	82.5606	77.6367	82.6487	77.6367	82.506	77.6367	82.6201	77.6367	82.4446	77.6367	82.5818	77.6367	82.3793	77.6367	82.5361	77.6367	82.313	77.6367	82.4854	77.6367	82.2489	77.6367	82.4323	77.6367	82.1898	77.6367	82.3792	77.6367	82.1381	77.6367	82.328	77.6367	82.0958	77.6367	82.2803	77.6367	82.0637	77.6367	82.2369	77.6367	82.0422	77.6367	82.1981	77.6367	82.0308	77.6367	82.1637	77.6367	82.0285	77.6367	82.1333	77.6367	82.0339	77.6367	82.1063	77.6367	82.0456	77.6367	82.0826	77.6367	82.0621
79.1016	82.6932	79.1016	82.6717	79.1016	82.7015	79.1016	82.6375	79.1016	82.6963	79.1016	82.5922	79.1016	82.6783	79.1016	82.5376	79.1016	82.6488	79.1016	82.4762	79.1016	82.6094	79.1016	82.4108	79.1016	82.5624	79.1016	82.3445	79.1016	82.5104	79.1016	82.2803	79.1016	82.4559	79.1016	82.221	79.1016	82.4013	79.1016	82.1691	79.1016	82.3489	79.1016	82.1262	79.1016	82.3	79.1016	82.0934	79.1016	82.2556	79.1016	82.0708	79.1016	82.2161	79.1016	82.058	79.1016	82.1814	79.1016	82.054	79.1016	82.151	79.1016	82.0576	79.1016	82.1245	79.1016	82.0675	79.1016	82.1017	79.1016	82.0825
82.0312	82.6708	82.0312	82.6534	82.0312	82.6738	82.0312	82.6224	82.0312	82.6623	82.0312	82.579	82.0312	82.6369	82.0312	82.5252	82.0312	82.5988	82.0312	82.4635	82.0312	82.55	82.0312	82.3967	82.0312	82.4928	82.0312	82.3279	82.0312	82.43	82.0312	82.2601	82.0312	82.3646	82.0312	82.1961	82.0312	82.2996	82.0312	82.1385	82.0312	82.2375	82.0312	82.0888	82.0312	82.1806	82.0312	82.048	82.0312	82.1304	82.0312	82.0164	82.0312	82.0876	82.0312	81.9937	82.0312	82.0526	82.0312	81.9792	82.0312	82.0247	82.0312	81.9722	82.0312	82.0032	82.0312	81.9717	82.0312	81.9874	82.0312	81.9769
84.9609	82.4034	84.9609	82.3691	84.9609	82.4286	84.9609	82.3267	84.9609	82.4445	84.9609	82.2775	84.9609	82.4516	84.9609	82.2238	84.9609	82.4507	84.9609	82.1682	84.9609	82.4432	84.9609	82.1138	84.9609	82.4307	84.9609	82.0638	84.9609	82.4148	84.9609	82.021	84.9609	82.397	84.9609	81.9881	84.9609	82.3783	84.9609	81.9668	84.9609	82.3593	84.9609	81.9578	84.9609	82.3399	84.9609	81.9608	84.9609	82.3198	84.9609	81.9747	84.9609	82.2982	84.9609	81.9978	84.9609	82.2739	84.9609	82.0282	84.9609	82.2462	84.9609	82.0636	84.9609	82.2146	84.9609	82.102	84.9609	82.1793	84.9609	82.1412
87.8906	82.4844	87.8906	82.4651	87.8906	82.4887	87.8906	82.4314	87.8906	82.4788	87.8906	82.3846	87.8906	82.4566	87.8906	82.3274	87.8906	82.4247	87.8906	82.2637	87.8906	82.3865	87.8906	82.198	87.8906	82.3457	87.8906	82.1355	87.8906	82.3063	87.8906	82.0813	87.8906	82.2719	87.8906	82.04	87.8906	82.2453	87.8906	82.0147	87.8906	82.2284	87.8906	82.0069	87.8906	82.2212	87.8906	82.016	87.8906	82.2225	87.8906	82.0394	87.8906	82.2295	87.8906	82.073	87.8906	82.2381	87.8906	82.1121	87.8906	82.2441	87.8906	82.1516	87.8906	82.2438	87.8906	82.1872	87.8906	82.2346	87.8906	82.2156
90.8203	82.5081	90.8203	82.5117	90.8203	82.4863	90.8203	82.4969	90.8203	82.4478	90.8203	82.4647	90.8203	82.3955	90.8203	82.4172	90.8203	82.3332	90.8203	82.3578	90.8203	82.2656	90.8203	82.291	90.8203	82.1979	90.8203	82.2217	90.8203	82.1352	90.8203	82.1554	90.8203	82.0817	90.8203	82.097	90.8203	82.0405	90.8203	82.0507	90.8203	82.013	90.8203	82.0191	90.8203	81.999	90.8203	82.0027	90.8203	81.9967	90.8203	82	90.8203	82.0034	90.8203	82.0073	90.8203	82.0156	90.8203	82.0203	90.8203	82.0296	90.8203	82.0343	90.8203	82.0418	90.8203	82.0453	90.8203	82.0495	90.8203	82.0508
95.2148	82.7714	95.2148	82.7706	95.2148	82.7466	95.2148	82.7456	95.2148	82.6957	95.2148	82.699	95.2148	82.6196	95.2148	82.6345	95.2148	82.521	95.2148	82.5561	95.2148	82.404	95.2148	82.4685	95.2148	82.2746	95.2148	82.3765	95.2148	82.1404	95.2148	82.2849	95.2148	82.0101	95.2148	82.1977	95.2148	81.892	95.2148	82.1181	95.2148	81.7934	95.2148	82.0479	95.2148	81.719	95.2148	81.9877	95.2148	81.6706	95.2148	81.9364	95.2148	81.6468	95.2148	81.8926	95.2148	81.6444	95.2148	81.8538	95.2148	81.6583	95.2148	81.818	95.2148	81.6833	95.2148	81.7832	95.2148	81.7146	95.2148	81.7485
98.1445	82.8167	98.1445	82.7862	98.1445	82.8231	98.1445	82.733	98.1445	82.805	98.1445	82.6595	98.1445	82.7628	98.1445	82.5689	98.1445	82.6983	98.1445	82.4653	98.1445	82.6141	98.1445	82.3536	98.1445	82.5143	98.1445	82.239	98.1445	82.404	98.1445	82.1272	98.1445	82.2887	98.1445	82.0232	98.1445	82.1747	98.1445	81.9315	98.1445	82.0677	98.1445	81.8551	98.1445	81.9723	98.1445	81.7952	98.1445	81.8919	98.1445	81.7516	98.1445	81.8278	98.1445	81.7224	98.1445	81.7796	98.1445	81.7051	98.1445	81.7454	98.1445	81.6969	98.1445	81.7223	98.1445	81.6954	98.1445	81.7077	98.1445	81.6991
101.074	82.5802	101.074	82.5581	101.074	82.5828	101.074	82.5169	101.074	82.5662	101.074	82.4578	101.074	82.5314	101.074	82.383	101.074	82.4803	101.074	82.2954	101.074	82.4152	101.074	82.1988	101.074	82.3396	101.074	82.0977	101.074	82.2572	101.074	81.997	101.074	82.1725	101.074	81.9017	101.074	82.0901	101.074	81.8167	101.074	82.0141	101.074	81.746	101.074	81.9472	101.074	81.6927	101.074	81.8907	101.074	81.6579	101.074	81.8443	101.074	81.641	101.074	81.8062	101.074	81.6397	101.074	81.7739	101.074	81.6505	101.074	81.7451	101.074	81.6693	101.074	81.7182	101.074	81.6926
105.469	82.528	105.469	82.5197	105.469	82.5145	105.469	82.4896	105.469	82.4805	105.469	82.4387	105.469	82.4283	105.469	82.3694	105.469	82.3608	105.469	82.285	105.469	82.2818	105.469	82.1901	105.469	82.1954	105.469	82.0896	105.469	82.1058	105.469	81.9889	105.469	82.0174	105.469	81.8933	105.469	81.9341	105.469	81.8071	105.469	81.8593	105.469	81.7339	105.469	81.7953	105.469	81.6758	105.469	81.7433	105.469	81.6337	105.469	81.7029	105.469	81.6068	105.469	81.6725	105.469	81.5932	105.469	81.6496	105.469	81.5904	105.469	81.6318	105.469	81.5951	105.469	81.617	105.469	81.6046
108.398	82.5991	108.398	82.578	108.398	82.5975	108.398	82.5353	108.398	82.5732	108.398	82.4728	108.398	82.527	108.398	82.3932	108.398	82.4607	108.398	82.2997	108.398	82.3774	108.398	82.1965	108.398	82.2811	108.398	82.088	108.398	82.1767	108.398	81.9792	108.398	82.0698	108.398	81.8754	108.398	81.9662	108.398	81.7813	108.398	81.8714	108.398	81.7011	108.398	81.7895	108.398	81.6375	108.398	81.7228	108.398	81.5914	108.398	81.6714	108.398	81.5622	108.398	81.6337	108.398	81.5475	108.398	81.6065	108.398	81.5441	108.398	81.5864	108.398	81.5486	108.398	81.5707	108.398	81.558
112.793	82.6764	112.793	82.6547	112.793	82.6733	112.793	82.6085	112.793	82.6469	112.793	82.5398	112.793	82.6004	112.793	82.4526	112.793	82.5385	112.793	82.3523	112.793	82.4666	112.793	82.2458	112.793	82.3906	112.793	82.1407	112.793	82.3159	112.793	82.0447	112.793	82.2473	112.793	81.9644	112.793	82.188	112.793	81.9045	112.793	82.1398	112.793	81.8673	112.793	82.1028	112.793	81.8522	112.793	82.076	112.793	81.856	112.793	82.057	112.793	81.8738	112.793	82.0432	112.793	81.9001	112.793	82.0314	112.793	81.9297	112.793	82.0188	112.793	81.9583	112.793	82.0032	112.793	81.9831
117.188	82.4913	117.188	82.4793	117.188	82.4748	117.188	82.4396	117.188	82.4303	117.188	82.3744	117.188	82.3597	117.188	82.2869	117.188	82.2661	117.188	82.1818	117.188	82.1547	117.188	82.0651	117.188	82.0321	117.188	81.9441	117.188	81.9064	117.188	81.8268	117.188	81.7864	117.188	81.7213	117.188	81.6806	117.188	81.6347	117.188	81.5961	117.188	81.5718	117.188	81.537	117.188	81.5341	117.188	81.5038	117.188	81.5194	117.188	81.4937	117.188	81.5222	117.188	81.5008	117.188	81.535	117.188	81.5179	117.188	81.5498	117.188	81.5376	117.188	81.5601	117.188	81.5537	117.188	81.5618
120.117	82.4977	120.117	82.4951	120.117	82.4738	120.117	82.4669	120.117	82.4236	120.117	82.4146	120.117	82.3481	120.117	82.3405	120.117	82.2499	120.117	82.2476	120.117	82.1327	120.117	82.1396	120.117	82.0021	120.117	82.0212	120.117	81.8648	120.117	81.8978	120.117	81.729	120.117	81.7753	120.117	81.603	120.117	81.6603	120.117	81.4945	120.117	81.5588	120.117	81.4094	120.117	81.4758	120.117	81.3501	120.117	81.4138	120.117	81.3157	120.117	81.3726	120.117	81.3018	120.117	81.3487	120.117	81.3021	120.117	81.3369	120.117	81.3096	120.117	81.3309	120.117	81.3186	120.117	81.3258
124.512	82.5277	124.512	82.5241	124.512	82.5072	124.512	82.4978	124.512	82.463	124.512	82.4507	124.512	82.3961	124.512	82.3861	124.512	82.3094	124.512	82.3076	124.512	82.2065	124.512	82.2194	124.512	82.0925	124.512	82.1257	124.512	81.9734	124.512	82.0307	124.512	81.8559	124.512	81.9383	124.512	81.7471	124.512	81.852	124.512	81.6537	124.512	81.7748	124.512	81.5806	124.512	81.7091	124.512	81.5307	124.512	81.6563	124.512	81.5033	124.512	81.6164	124.512	81.495	124.512	81.5881	124.512	81.5002	124.512	81.5684	124.512	81.5125	124.512	81.5538	124.512	81.527	124.512	81.5408
128.906	82.7215	128.906	82.6984	128.906	82.7146	128.906	82.6469	128.906	82.6775	128.906	82.5698	128.906	82.6116	128.906	82.4711	128.906	82.5194	128.906	82.3557	128.906	82.4052	128.906	82.2294	128.906	82.2744	128.906	82.0983	128.906	82.1334	128.906	81.9685	128.906	81.9894	128.906	81.8455	128.906	81.8501	128.906	81.7337	128.906	81.7224	128.906	81.6365	128.906	81.6125	128.906	81.5555	128.906	81.5243	128.906	81.4914	128.906	81.4591	128.906	81.4434	128.906	81.4154	128.906	81.4099	128.906	81.3892	128.906	81.3883	128.906	81.3756	128.906	81.376	128.906	81.3702	128.906	81.3705
133.301	82.6408	133.301	82.6175	133.301	82.6367	133.301	82.5682	133.301	82.6046	133.301	82.4953	133.301	82.5452	133.301	82.4021	133.301	82.4603	133.301	82.2929	133.301	82.3529	133.301	82.1725	133.301	82.2277	133.301	82.0464	133.301	82.0904	133.301	81.9203	133.301	81.9478	133.301	81.7991	133.301	81.807	133.301	81.6872	133.301	81.6749	133.301	81.5877	133.301	81.5574	133.301	81.5021	133.301	81.4587	133.301	81.4309	133.301	81.3808	133.301	81.3734	133.301	81.3238	133.301	81.3286	133.301	81.2859	133.301	81.2953	133.301	81.2644	133.301	81.2724	133.301	81.2562	133.301	81.2593
139.16	82.0671	139.16	82.0395	139.16	82.0727	139.16	81.9912	139.16	82.0569	139.16	81.9249	139.16	82.0214	139.16	81.845	139.16	81.9693	139.16	81.7571	139.16	81.9046	139.16	81.6683	139.16	81.8323	139.16	81.5856	139.16	81.7576	139.16	81.5162	139.16	81.6865	139.16	81.4657	139.16	81.6245	139.16	81.4376	139.16	81.5763	139.16	81.4325	139.16	81.5455	139.16	81.4477	139.16	81.5332	139.16	81.4782	139.16	81.5377	139.16	81.517	139.16	81.555	139.16	81.5568	139.16	81.5789	139.16	81.591	139.16	81.6023	139.16	81.6142	139.16	81.6189	139.16	81.6236
143.555	82.1376	143.555	82.0915	143.555	82.1515	143.555	82.0146	143.555	82.1345	143.555	81.911	143.555	82.0903	143.555	81.7869	143.555	82.0245	143.555	81.6509	143.555	81.944	143.555	81.5129	143.555	81.8562	143.555	81.3842	143.555	81.7683	143.555	81.2761	143.555	81.6863	143.555	81.1984	143.555	81.6156	143.555	81.1582	143.555	81.5603	143.555	81.1575	143.555	81.5229	143.555	81.1928	143.555	81.5047	143.555	81.2553	143.555	81.5042	143.555	81.3326	143.555	81.5176	143.555	81.4115	143.555	81.5383	143.555	81.4806	143.555	81.5579	143.555	81.5315	143.555	81.5677	143.555	81.5604
147.949	82.5654	147.949	82.5516	147.949	82.5361	147.949	82.4952	147.949	82.4648	147.949	82.3988	147.949	82.3551	147.949	82.2665	147.949	82.2126	147.949	82.1047	147.949	82.0454	147.949	81.9214	147.949	81.8641	147.949	81.7267	147.949	81.6808	147.949	81.5322	147.949	81.5081	147.949	81.3503	147.949	81.3574	147.949	81.1928	147.949	81.2368	147.949	81.0698	147.949	81.15	147.949	80.9871	147.949	81.0958	147.949	80.9447	147.949	81.0689	147.949	80.9373	147.949	81.061	147.949	80.9547	147.949	81.0626	147.949	80.9852	147.949	81.0646	147.949	81.0178	147.949	81.0598	147.949	81.0441
153.809	82.2125	153.809	82.2026	153.809	82.1884	153.809	82.1593	153.809	82.1311	153.809	82.0842	153.809	82.0429	153.809	81.9806	153.809	81.9277	153.809	81.8531	153.809	81.7907	153.809	81.7076	153.809	81.639	153.809	81.5516	153.809	81.4808	153.809	81.3933	153.809	81.3255	153.809	81.2416	153.809	81.1825	153.809	81.1046	153.809	81.0599	153.809	80.9897	153.809	80.9632	153.809	80.9016	153.809	80.894	153.809	80.842	153.809	80.8504	153.809	80.8087	153.809	80.8271	153.809	80.7963	153.809	80.8175	153.809	80.7972	153.809	80.8148	153.809	80.8037	153.809	80.8135	153.809	80.81
159.668	82.2474	159.668	82.2229	159.668	82.2375	159.668	82.1654	159.668	82.1934	159.668	82.0774	159.668	82.1166	159.668	81.9628	159.668	82.0103	159.668	81.8268	159.668	81.88	159.668	81.6763	159.668	81.7331	159.668	81.5196	159.668	81.5786	159.668	81.366	159.668	81.4269	159.668	81.2253	159.668	81.2885	159.668	81.1061	159.668	81.173	159.668	81.0153	159.668	81.0874	159.668	80.9567	159.668	81.0343	159.668	80.9303	159.668	81.0116	159.668	80.9321	159.668	81.0121	159.668	80.9543	159.668	81.0253	159.668	80.9865	159.668	81.04	159.668	81.0177	159.668	81.0465	159.668	81.0393
165.527	82.3195	165.527	82.3023	165.527	82.3008	165.527	82.2503	165.527	82.2466	165.527	82.1666	165.527	82.1598	165.527	82.056	165.527	82.0448	165.527	81.9247	165.527	81.9085	165.527	81.7798	165.527	81.7593	165.527	81.6295	165.527	81.6068	165.527	81.4824	165.527	81.4611	165.527	81.3471	165.527	81.3314	165.527	81.2312	165.527	81.2252	165.527	81.1406	165.527	81.1473	165.527	81.0783	165.527	81.0988	165.527	81.0441	165.527	81.077	165.527	81.0344	165.527	81.0758	165.527	81.0433	165.527	81.086	165.527	81.0625	165.527	81.098	165.527	81.0835	165.527	81.1037	165.527	81.0988
171.387	82.1946	171.387	82.165	171.387	82.1858	171.387	82.0987	171.387	82.139	171.387	81.9998	171.387	82.0567	171.387	81.8745	171.387	81.9437	171.387	81.7308	171.387	81.8067	171.387	81.5786	171.387	81.6548	171.387	81.4285	171.387	81.4986	171.387	81.2908	171.387	81.3498	171.387	81.1744	171.387	81.2194	171.387	81.0857	171.387	81.1165	171.387	81.0273	171.387	81.0464	171.387	80.9987	171.387	81.0096	171.387	80.9956	171.387	81.0021	171.387	81.0114	171.387	81.0161	171.387	81.0374	171.387	81.0416	171.387	81.0648	171.387	81.0684	171.387	81.0857	171.387	81.0878	171.387	81.0941
177.246	82.1213	177.246	82.09	177.246	82.1145	177.246	82.0225	177.246	82.0698	177.246	81.9226	177.246	81.9896	177.246	81.796	177.246	81.8784	177.246	81.6506	177.246	81.7428	177.246	81.4959	177.246	81.5915	177.246	81.3429	177.246	81.4349	177.246	81.203	177.246	81.2842	177.246	81.0869	177.246	81.1507	177.246	81.0024	177.246	81.0436	177.246	80.9527	177.246	80.9691	177.246	80.9357	177.246	80.9286	177.246	80.9446	177.246	80.9192	177.246	80.9696	177.246	80.9338	177.246	81	177.246	80.963	177.246	81.0262	177.246	80.9965	177.246	81.0411	177.246	81.0247	177.246	81.0407
183.105	82.0891	183.105	82.0625	183.105	82.0745	183.105	81.9959	183.105	82.0196	183.105	81.8928	183.105	81.9274	183.105	81.7588	183.105	81.8027	183.105	81.6022	183.105	81.6525	183.105	81.4337	183.105	81.4863	183.105	81.2657	183.105	81.3155	183.105	81.1118	183.105	81.1535	183.105	80.9847	183.105	81.0136	183.105	80.8945	183.105	80.9073	183.105	80.8461	183.105	80.8412	183.105	80.8376	183.105	80.8158	183.105	80.8606	183.105	80.8252	183.105	80.902	183.105	80.8589	183.105	80.9479	183.105	80.9049	183.105	80.986	183.105	80.9512	183.105	81.0074	183.105	80.988	183.105	81.0081
188.965	81.9592	188.965	81.9517	188.965	81.9226	188.965	81.8999	188.965	81.8449	188.965	81.8062	188.965	81.731	188.965	81.6762	188.965	81.588	188.965	81.518	188.965	81.4237	188.965	81.3419	188.965	81.2472	188.965	81.1604	188.965	81.0688	188.965	80.9871	188.965	80.8998	188.965	80.8362	188.965	80.7525	188.965	80.7208	188.965	80.6389	188.965	80.6501	188.965	80.5676	188.965	80.6266	188.965	80.5418	188.965	80.644	188.965	80.5571	188.965	80.6885	188.965	80.6029	188.965	80.742	188.965	80.6647	188.965	80.7873	188.965	80.7279	188.965	80.8117	188.965	80.7792	188.965	80.809
196.289	82.2312	196.289	82.2112	196.289	82.199	196.289	82.1395	196.289	82.1169	196.289	82.0193	196.289	81.9897	196.289	81.8568	196.289	81.8256	196.289	81.6615	196.289	81.6357	196.289	81.4454	196.289	81.4337	196.289	81.2219	196.289	81.2354	196.289	81.0052	196.289	81.0564	196.289	80.809	196.289	80.9103	196.289	80.646	196.289	80.8063	196.289	80.5282	196.289	80.7482	196.289	80.4643	196.289	80.7331	196.289	80.4574	196.289	80.7517	196.289	80.5017	196.289	80.79	196.289	80.5821	196.289	80.8316	196.289	80.6773	196.289	80.8599	196.289	80.7658	196.289	80.8619	196.289	80.8304
203.613	82.1275	203.613	82.1032	203.613	82.1012	203.613	82.0302	203.613	82.0244	203.613	81.9128	203.613	81.8993	203.613	81.7579	203.613	81.7306	203.613	81.575	203.613	81.5257	203.613	81.3762	203.613	81.2958	203.613	81.1751	203.613	81.0557	203.613	80.9849	203.613	80.8243	203.613	80.8171	203.613	80.6222	203.613	80.6802	203.613	80.4682	203.613	80.5795	203.613	80.3742	203.613	80.517	203.613	80.3409	203.613	80.4915	203.613	80.3581	203.613	80.497	203.613	80.4075	203.613	80.5226	203.613	80.4693	203.613	80.5545	203.613	80.5263	203.613	80.5786	203.613	80.5668	203.613	80.5844
210.938	82.0742	210.938	82.0361	210.938	82.058	210.938	81.9453	210.938	81.9888	210.938	81.807	210.938	81.8711	210.938	81.6297	210.938	81.7122	210.938	81.4251	210.938	81.522	210.938	81.2074	210.938	81.3124	210.938	80.9922	210.938	81.0966	210.938	80.7942	210.938	80.8895	210.938	80.6255	210.938	80.7063	210.938	80.4943	210.938	80.5609	210.938	80.4051	210.938	80.4635	210.938	80.3586	210.938	80.4172	210.938	80.352	210.938	80.4161	210.938	80.3779	210.938	80.4466	210.938	80.4248	210.938	80.4905	210.938	80.4782	210.938	80.5304	210.938	80.5241	210.938	80.553	210.938	80.551
218.262	82.0486	218.262	82.0085	218.262	82.0329	218.262	81.9159	218.262	81.9612	218.262	81.7765	218.262	81.8368	218.262	81.5981	218.262	81.6669	218.262	81.3915	218.262	81.4626	218.262	81.1712	218.262	81.238	218.262	80.955	218.262	81.0092	218.262	80.7624	218.262	80.7933	218.262	80.6097	218.262	80.6074	218.262	80.5062	218.262	80.4663	218.262	80.4529	218.262	80.3802	218.262	80.4435	218.262	80.3515	218.262	80.4672	218.262	80.3725	218.262	80.5113	218.262	80.4274	218.262	80.5621	218.262	80.4968	218.262	80.6066	218.262	80.5625	218.262	80.6336	218.262	80.6115	218.262	80.636
225.586	82.0119	225.586	81.9815	225.586	81.9841	225.586	81.8959	225.586	81.898	225.586	81.76	225.586	81.7566	225.586	81.5808	225.586	81.5675	225.586	81.3679	225.586	81.3424	225.586	81.1343	225.586	81.0975	225.586	80.8974	225.586	80.8524	225.586	80.6782	225.586	80.6272	225.586	80.4981	225.586	80.4409	225.586	80.3742	225.586	80.3086	225.586	80.3143	225.586	80.2393	225.586	80.3149	225.586	80.2338	225.586	80.3631	225.586	80.2837	225.586	80.4401	225.586	80.3714	225.586	80.5256	225.586	80.4738	225.586	80.6005	225.586	80.5674	225.586	80.6496	225.586	80.6338	225.586	80.6622
232.91	82.0352	232.91	81.9991	232.91	82.0077	232.91	81.9024	232.91	81.9164	232.91	81.751	232.91	81.7641	232.91	81.5538	232.91	81.5578	232.91	81.3229	232.91	81.3088	232.91	81.0735	232.91	81.0335	232.91	80.8247	232.91	80.7529	232.91	80.5974	232.91	80.4913	232.91	80.4117	232.91	80.2728	232.91	80.2823	232.91	80.1172	232.91	80.2146	232.91	80.0364	232.91	80.2044	232.91	80.0305	232.91	80.2405	232.91	80.088	232.91	80.3073	232.91	80.1876	232.91	80.3866	232.91	80.3029	232.91	80.4595	232.91	80.4085	232.91	80.5078	232.91	80.4842	232.91	80.5182
241.699	82.0366	241.699	82.0014	241.699	82.0056	241.699	81.9013	241.699	81.9102	241.699	81.7407	241.699	81.7547	241.699	81.527	241.699	81.5463	241.699	81.2702	241.699	81.295	241.699	80.9837	241.699	81.0142	241.699	80.6852	241.699	80.7208	241.699	80.3986	241.699	80.4347	241.699	80.1532	241.699	80.1781	241.699	79.9778	241.699	79.972	241.699	79.8903	241.699	79.8342	241.699	79.8893	241.699	79.7747	241.699	79.954	241.699	79.7926	241.699	80.0533	241.699	79.8735	241.699	80.1561	241.699	79.9913	241.699	80.2373	241.699	80.1145	241.699	80.2794	241.699	80.2147	241.699	80.2724
250.488	82.162	250.488	82.1257	250.488	82.1235	250.488	82.0163	250.488	82.0117	250.488	81.8389	250.488	81.8313	250.488	81.6021	250.488	81.5913	250.488	81.3178	250.488	81.3057	250.488	81.0017	250.488	80.9936	250.488	80.6728	250.488	80.6793	250.488	80.3546	250.488	80.3902	250.488	80.0744	250.488	80.1531	250.488	79.8608	250.488	79.9883	250.488	79.7363	250.488	79.9047	250.488	79.7077	250.488	79.8973	250.488	79.7624	250.488	79.9495	250.488	79.8722	250.488	80.0374	250.488	80.0039	250.488	80.1349	250.488	80.1276	250.488	80.2179	250.488	80.2206	250.488	80.2666	250.488	80.2687
259.277	82.3396	259.277	82.3094	259.277	82.3064	259.277	82.2185	259.277	82.2082	259.277	82.0712	259.277	82.0465	259.277	81.8731	259.277	81.8262	259.277	81.6317	259.277	81.5572	259.277	81.3564	259.277	81.2554	259.277	81.0591	259.277	80.9417	259.277	80.7542	259.277	80.6409	259.277	80.4609	259.277	80.3787	259.277	80.2036	259.277	80.1779	259.277	80.0106	259.277	80.0539	259.277	79.905	259.277	80.0111	259.277	79.8939	259.277	80.0408	259.277	79.9632	259.277	80.1219	259.277	80.0812	259.277	80.225	259.277	80.2103	259.277	80.3182	259.277	80.3162	259.277	80.3738	259.277	80.3744
268.066	82.1386	268.066	82.0812	268.066	82.1164	268.066	81.9482	268.066	82.014	268.066	81.7482	268.066	81.8333	268.066	81.4959	268.066	81.5808	268.066	81.2131	268.066	81.2691	268.066	80.9263	268.066	80.919	268.066	80.6616	268.066	80.5611	268.066	80.4373	268.066	80.2333	268.066	80.2611	268.066	79.9734	268.066	80.1332	268.066	79.809	268.066	80.0535	268.066	79.7478	268.066	80.0245	268.066	79.7767	268.066	80.0471	268.066	79.8691	268.066	80.113	268.066	79.9953	268.066	80.2023	268.066	80.128	268.066	80.2887	268.066	80.2444	268.066	80.3476	268.066	80.3265	268.066	80.3622
276.855	82.1798	276.855	82.1299	276.855	82.1533	276.855	82.002	276.855	82.0519	276.855	81.7962	276.855	81.8767	276.855	81.5165	276.855	81.6297	276.855	81.1758	276.855	81.3156	276.855	80.7994	276.855	80.9458	276.855	80.4279	276.855	80.5421	276.855	80.1098	276.855	80.1401	276.855	79.8861	276.855	79.789	276.855	79.7708	276.855	79.5407	276.855	79.7474	276.855	79.4281	276.855	79.784	276.855	79.4467	276.855	79.8529	276.855	79.5573	276.855	79.9378	276.855	79.7104	276.855	80.0274	276.855	79.8669	276.855	80.1062	276.855	80.0029	276.855	80.1543	276.855	80.1029	276.855	80.1552
287.109	82.3007	287.109	82.2395	287.109	82.2829	287.109	82.1022	287.109	82.1832	287.109	81.8904	287.109	82.0019	287.109	81.6063	287.109	81.7462	287.109	81.2566	287.109	81.4323	287.109	80.8587	287.109	81.0836	287.109	80.4445	287.109	80.7244	287.109	80.0623	287.109	80.3731	287.109	79.7681	287.109	80.0423	287.109	79.6072	287.109	79.7491	287.109	79.5901	287.109	79.5247	287.109	79.6843	287.109	79.4075	287.109	79.8305	287.109	79.4151	287.109	79.9705	287.109	79.5238	287.109	80.0671	287.109	79.6805	287.109	80.108	287.109	79.8346	287.109	80.098	287.109	79.9589	287.109	80.0467
297.363	82.261	297.363	82.2438	297.363	82.2024	297.363	82.1526	297.363	82.068	297.363	81.9923	297.363	81.858	297.363	81.7691	297.363	81.5707	297.363	81.4898	297.363	81.2051	297.363	81.1611	297.363	80.7712	297.363	80.7931	297.363	80.3019	297.363	80.4057	297.363	79.8586	297.363	80.038	297.363	79.5148	297.363	79.7522	297.363	79.3249	297.363	79.6184	297.363	79.302	297.363	79.6771	297.363	79.4249	297.363	79.9054	297.363	79.6566	297.363	80.2237	297.363	79.9533	297.363	80.5372	297.363	80.2668	297.363	80.7727	297.363	80.5505	297.363	80.8921	297.363	80.7664	297.363	80.8868
307.617	82.2555	307.617	82.1515	307.617	82.2641	307.617	81.957	307.617	82.1756	307.617	81.6821	307.617	81.9928	307.617	81.3442	307.617	81.7239	307.617	80.9722	307.617	81.3833	307.617	80.6051	307.617	80.9888	307.617	80.2841	307.617	80.562	307.617	80.0374	307.617	80.1309	307.617	79.8671	307.617	79.7365	307.617	79.7536	307.617	79.432	307.617	79.6752	307.617	79.2663	307.617	79.6306	307.617	79.2598	307.617	79.6409	307.617	79.39	307.617	79.7282	307.617	79.6035	307.617	79.8836	307.617	79.84	307.617	80.0598	307.617	80.0492	307.617	80.1952	307.617	80.1927	307.617	80.2447
319.336	82.1309	319.336	82.0546	319.336	82.1079	319.336	81.8808	319.336	81.984	319.336	81.6104	319.336	81.7595	319.336	81.2434	319.336	81.4383	319.336	80.7833	319.336	81.0315	319.336	80.2489	319.336	80.5635	319.336	79.6889	319.336	80.0764	319.336	79.1888	319.336	79.6274	319.336	78.8499	319.336	79.2741	319.336	78.736	319.336	79.0543	319.336	78.8311	319.336	78.977	319.336	79.056	319.336	79.0312	319.336	79.3252	319.336	79.1962	319.336	79.584	319.336	79.4384	319.336	79.8088	319.336	79.707	319.336	79.9892	319.336	79.9431	319.336	80.1112	319.336	80.0994	319.336	80.1542
329.59	81.9529	329.59	81.8844	329.59	81.9492	329.59	81.7457	329.59	81.8689	329.59	81.5339	329.59	81.7058	329.59	81.24	329.59	81.4525	329.59	80.851	329.59	81.103	329.59	80.3604	329.59	80.6563	329.59	79.7867	329.59	80.1271	329.59	79.1952	329.59	79.5572	329.59	78.7011	329.59	79.025	329.59	78.4258	329.59	78.6337	329.59	78.4178	329.59	78.4678	329.59	78.6215	329.59	78.5414	329.59	78.9334	329.59	78.7916	329.59	79.2652	329.59	79.1212	329.59	79.5614	329.59	79.4451	329.59	79.788	329.59	79.7086	329.59	79.9234	329.59	79.883	329.59	79.956
341.309	82.1554	341.309	82.0544	341.309	82.1327	341.309	81.8337	341.309	81.9871	341.309	81.503	341.309	81.726	341.309	81.0796	341.309	81.3663	341.309	80.5892	341.309	80.9333	341.309	80.0602	341.309	80.4566	341.309	79.5143	341.309	79.9646	341.309	78.9662	341.309	79.4848	341.309	78.4457	341.309	79.0508	341.309	78.0285	341.309	78.7083	341.309	77.8249	341.309	78.5093	341.309	77.8958	341.309	78.487	341.309	78.183	341.309	78.6277	341.309	78.5568	341.309	78.8678	341.309	78.9084	341.309	79.1237	341.309	79.1839	341.309	79.3274	341.309	79.3672	341.309	79.4415	341.309	79.4543
353.027	82.0758	353.027	82.0361	353.027	82.0148	353.027	81.8899	353.027	81.8595	353.027	81.633	353.027	81.6152	353.027	81.2652	353.027	81.2845	353.027	80.7909	353.027	80.8651	353.027	80.2194	353.027	80.3506	353.027	79.5729	353.027	79.7421	353.027	78.9014	353.027	79.067	353.027	78.2931	353.027	78.3975	353.027	77.8591	353.027	77.8457	353.027	77.6859	353.027	77.52	353.027	77.7881	353.027	77.4708	353.027	78.1038	353.027	77.6758	353.027	78.5297	353.027	78.0643	353.027	78.9594	353.027	78.5394	353.027	79.3053	353.027	78.9965	353.027	79.5052	353.027	79.3442	353.027	79.5216
366.211	82.4852	366.211	82.4291	366.211	82.4208	366.211	82.2437	366.211	82.239	366.211	81.9205	366.211	81.9343	366.211	81.4557	366.211	81.5008	366.211	80.8551	366.211	80.9497	366.211	80.1444	366.211	80.3234	366.211	79.3857	366.211	79.688	366.211	78.6851	366.211	79.1049	366.211	78.1658	366.211	78.6087	366.211	77.9077	366.211	78.2259	366.211	77.9114	366.211	78.0014	366.211	78.1205	366.211	77.9775	366.211	78.4566	366.211	78.1377	366.211	78.8334	366.211	78.4035	366.211	79.1659	366.211	78.6959	366.211	79.3864	366.211	78.9736	366.211	79.4605	366.211	79.2158	366.211	79.3923
379.395	83.4406	379.395	83.4154	379.395	83.3738	379.395	83.2939	379.395	83.2127	379.395	83.0611	379.395	82.9511	379.395	82.6941	379.395	82.5771	379.395	82.1723	379.395	82.0742	379.395	81.4911	379.395	81.432	379.395	80.6746	379.395	80.6718	379.395	79.7854	379.395	79.8738	379.395	78.9354	379.395	79.1796	379.395	78.2842	379.395	78.7338	379.395	77.9861	379.395	78.5905	379.395	78.0871	379.395	78.6962	379.395	78.4869	379.395	78.9621	379.395	79.0207	379.395	79.3161	379.395	79.5484	379.395	79.6962	379.395	79.9774	379.395	80.0359	379.395	80.2534	379.395	80.2704	379.395	80.3512
392.578	83.081	392.578	83.0184	392.578	83.0358	392.578	82.8583	392.578	82.8719	392.578	82.6027	392.578	82.5828	392.578	82.2395	392.578	82.1665	392.578	81.7452	392.578	81.6219	392.578	81.0964	392.578	80.9502	392.578	80.2924	392.578	80.1638	392.578	79.3891	392.578	79.3066	392.578	78.5362	392.578	78.4794	392.578	77.9575	392.578	77.8545	392.578	77.8128	392.578	77.6303	392.578	78.066	392.578	77.8854	392.578	78.5561	392.578	78.4793	392.578	79.1336	392.578	79.1679	392.578	79.6923	392.578	79.7705	392.578	80.1496	392.578	80.2106	392.578	80.4457	392.578	80.4726	392.578	80.5535
405.762	82.6148	405.762	82.5427	405.762	82.6286	405.762	82.4154	405.762	82.5641	405.762	82.2171	405.762	82.3947	405.762	81.9183	405.762	82.0965	405.762	81.4849	405.762	81.6515	405.762	80.8853	405.762	81.0447	405.762	80.0958	405.762	80.2664	405.762	79.1174	405.762	79.3295	405.762	78.0256	405.762	78.3075	405.762	77.0563	405.762	77.3824	405.762	76.5974	405.762	76.8383	405.762	76.8534	405.762	76.8899	405.762	77.5715	405.762	77.4577	405.762	78.3616	405.762	78.2357	405.762	79.0059	405.762	78.9466	405.762	79.4498	405.762	79.4524	405.762	79.7086	405.762	79.7281	405.762	79.803
420.41	83.0557	420.41	83.0045	420.41	83.0118	420.41	82.8477	420.41	82.8877	420.41	82.5875	420.41	82.6882	420.41	82.2351	420.41	82.3996	420.41	81.7963	420.41	81.9922	420.41	81.2571	420.41	81.4284	420.41	80.5784	420.41	80.6744	420.41	79.7024	420.41	79.7196	420.41	78.5798	420.41	78.6084	420.41	77.2477	420.41	77.4742	420.41	76.0005	420.41	76.5394	420.41	75.4647	420.41	76.0394	420.41	75.9511	420.41	76.1029	420.41	76.9483	420.41	76.6638	420.41	77.892	420.41	77.473	420.41	78.5698	420.41	78.2438	420.41	78.9481	420.41	78.786	420.41	79.0236
435.059	82.5475	435.059	82.5052	435.059	82.4903	435.059	82.3679	435.059	82.3373	435.059	82.1414	435.059	82.101	435.059	81.8245	435.059	81.796	435.059	81.4074	435.059	81.4301	435.059	80.8765	435.059	80.9958	435.059	80.2253	435.059	80.4669	435.059	79.4652	435.059	79.8055	435.059	78.638	435.059	78.9933	435.059	77.8275	435.059	78.0988	435.059	77.1691	435.059	77.3472	435.059	76.8303	435.059	77.0364	435.059	76.9182	435.059	77.2369	435.059	77.3708	435.059	77.7198	435.059	77.9878	435.059	78.2391	435.059	78.5599	435.059	78.6755	435.059	78.9451	435.059	78.9743	435.059	79.0808
451.172	82.5073	451.172	82.4594	451.172	82.4615	451.172	82.326	451.172	82.3185	451.172	82.109	451.172	82.0802	451.172	81.7923	451.172	81.7433	451.172	81.3405	451.172	81.2892	451.172	80.7075	451.172	80.6899	451.172	79.852	451.172	79.9261	451.172	78.7563	451.172	78.9966	451.172	77.4509	451.172	77.9203	451.172	76.065	451.172	76.7636	451.172	74.9232	451.172	75.7305	451.172	74.5531	451.172	75.2204	451.172	75.205	451.172	75.5337	451.172	76.4354	451.172	76.4513	451.172	77.6521	451.172	77.4984	451.172	78.5488	451.172	78.3638	451.172	79.0468	451.172	78.9291	451.172	79.1629
465.82	82.8129	465.82	82.8184	465.82	82.7699	465.82	82.7653	465.82	82.679	465.82	82.6161	465.82	82.5091	465.82	82.3484	465.82	82.2315	465.82	81.9699	465.82	81.8289	465.82	81.4969	465.82	81.2867	465.82	80.914	465.82	80.5876	465.82	80.1635	465.82	79.7234	465.82	79.1938	465.82	78.7133	465.82	78.0389	465.82	77.6175	465.82	76.8831	465.82	76.5639	465.82	76.0298	465.82	75.8016	465.82	75.7331	465.82	75.6164	465.82	76.0225	465.82	76.0008	465.82	76.6691	465.82	76.6253	465.82	77.3259	465.82	77.2055	465.82	77.7383	465.82	77.6249	465.82	77.8252
483.398	82.4691	483.398	82.3843	483.398	82.4946	483.398	82.2616	483.398	82.4378	483.398	82.1071	483.398	82.2785	483.398	81.8974	483.398	81.9998	483.398	81.5828	483.398	81.5912	483.398	81.1139	483.398	81.0534	483.398	80.4717	483.398	80.3993	483.398	79.6729	483.398	79.6408	483.398	78.7392	483.398	78.7737	483.398	77.6862	483.398	77.8057	483.398	76.6186	483.398	76.8619	483.398	75.8708	483.398	76.2716	483.398	75.831	483.398	76.3345	483.398	76.4223	483.398	76.9107	483.398	77.2089	483.398	77.6083	483.398	77.89	483.398	78.1709	483.398	78.3554	483.398	78.501	483.398	78.5647
499.512	82.6596	499.512	82.5941	499.512	82.5805	499.512	82.397	499.512	82.3917	499.512	82.1244	499.512	82.1498	499.512	81.8314	499.512	81.8936	499.512	81.5189	499.512	81.6099	499.512	81.122	499.512	81.227	499.512	80.5577	499.512	80.649	499.512	79.7845	499.512	79.8167	499.512	78.8348	499.512	78.7591	499.512	77.8118	499.512	77.6137	499.512	76.8738	499.512	76.5904	499.512	76.233	499.512	75.9084	499.512	76.1146	499.512	75.7692	499.512	76.5612	499.512	76.2327	499.512	77.3186	499.512	77.0569	499.512	78.0498	499.512	77.8765	499.512	78.5342	499.512	78.4489	499.512	78.6755
517.09	82.4023	517.09	82.4482	517.09	82.317	517.09	82.4247	517.09	82.1903	517.09	82.2844	517.09	82.0036	517.09	81.9974	517.09	81.7492	517.09	81.5689	517.09	81.4332	517.09	81.0095	517.09	81.0389	517.09	80.2898	517.09	80.4926	517.09	79.3486	517.09	79.6906	517.09	78.1693	517.09	78.5945	517.09	76.8862	517.09	77.3428	517.09	75.8554	517.09	76.2753	517.09	75.499	517.09	75.7599	517.09	75.9096	517.09	75.9496	517.09	76.7876	517.09	76.7047	517.09	77.7491	517.09	77.6684	517.09	78.5235	517.09	78.4892	517.09	78.9951	517.09	78.9909	517.09	79.1515
536.133	81.9407	536.133	81.866	536.133	81.9303	536.133	81.7217	536.133	81.8161	536.133	81.5119	536.133	81.5852	536.133	81.2339	536.133	81.2373	536.133	80.894	536.133	80.788	536.133	80.4943	536.133	80.2531	536.133	79.9882	536.133	79.6199	536.133	79.2726	536.133	78.8458	536.133	78.264	536.133	77.8855	536.133	77.0007	536.133	76.7275	536.133	75.7218	536.133	75.5086	536.133	74.8728	536.133	74.7276	536.133	74.824	536.133	74.9161	536.133	75.4681	536.133	75.7752	536.133	76.4224	536.133	76.7067	536.133	77.369	536.133	77.4959	536.133	78.0561	536.133	78.0749	536.133	78.302
555.176	82.5392	555.176	82.4235	555.176	82.5592	555.176	82.2597	555.176	82.4616	555.176	82.0844	555.176	82.2507	555.176	81.8679	555.176	81.9332	555.176	81.5137	555.176	81.4961	555.176	80.9465	555.176	80.9142	555.176	80.1846	555.176	80.1627	555.176	79.2656	555.176	79.2016	555.176	78.1044	555.176	77.9639	555.176	76.5388	555.176	76.423	555.176	74.6361	555.176	74.7405	555.176	73.1839	555.176	73.4036	555.176	73.4424	555.176	73.1273	555.176	74.9868	555.176	74.1474	555.176	76.4795	555.176	75.7206	555.176	77.4187	555.176	77.0153	555.176	77.861	555.176	77.7366	555.176	77.9665
574.219	82.4887	574.219	82.5197	574.219	82.3643	574.219	82.4213	574.219	82.1939	574.219	82.2019	574.219	82.0027	574.219	81.9067	574.219	81.7823	574.219	81.5571	574.219	81.4942	574.219	81.1101	574.219	81.0826	574.219	80.502	574.219	80.4958	574.219	79.7103	574.219	79.6987	574.219	78.7286	574.219	78.6669	574.219	77.478	574.219	77.3799	574.219	75.8733	574.219	75.8737	574.219	74.2221	574.219	74.4862	574.219	73.5222	574.219	74.0486	574.219	74.2265	574.219	74.8092	574.219	75.5465	574.219	75.9271	574.219	76.7765	574.219	76.8489	574.219	77.5594	574.219	77.4837	574.219	77.7692
594.727	82.2042	594.727	82.1492	594.727	82.1735	594.727	81.9934	594.727	82.067	594.727	81.7603	594.727	81.8671	594.727	81.5132	594.727	81.5608	594.727	81.295	594.727	81.17	594.727	81.0408	594.727	80.7267	594.727	80.5744	594.727	80.2198	594.727	79.7575	594.727	79.5612	594.727	78.6327	594.727	78.589	594.727	77.3843	594.727	77.1305	594.727	76.1554	594.727	75.1894	594.727	75.0801	594.727	73.4367	594.727	74.6446	594.727	73.2758	594.727	75.2342	594.727	74.5878	594.727	76.2644	594.727	76.1058	594.727	77.1612	594.727	77.2956	594.727	77.8202	594.727	78.0027	594.727	78.156
615.234	82.2597	615.234	82.1515	615.234	82.2811	615.234	82.0007	615.234	82.1799	615.234	81.8022	615.234	81.9872	615.234	81.5146	615.234	81.7619	615.234	81.104	615.234	81.5088	615.234	80.5932	615.234	81.1623	615.234	80.0377	615.234	80.6279	615.234	79.3782	615.234	79.8261	615.234	78.391	615.234	78.7155	615.234	76.8564	615.234	77.2938	615.234	74.7582	615.234	75.6019	615.234	72.6302	615.234	73.8788	615.234	71.9821	615.234	72.9171	615.234	73.2806	615.234	73.4595	615.234	75.0869	615.234	74.8532	615.234	76.5346	615.234	76.1889	615.234	77.365	615.234	77.1182	615.234	77.5378
637.207	82.0975	637.207	82.0027	637.207	82.0887	637.207	81.8498	637.207	81.9975	637.207	81.7191	637.207	81.8439	637.207	81.6055	637.207	81.6241	637.207	81.4149	637.207	81.3284	637.207	81.0612	637.207	80.9445	637.207	80.5174	637.207	80.4591	637.207	79.8035	637.207	79.8326	637.207	78.9053	637.207	78.9429	637.207	77.6795	637.207	77.5928	637.207	75.9597	637.207	75.6249	637.207	74.0584	637.207	73.2628	637.207	73.3298	637.207	72.058	637.207	74.3243	637.207	73.384	637.207	75.7538	637.207	75.4116	637.207	76.8722	637.207	76.8813	637.207	77.5597	637.207	77.644	637.207	77.8282
659.18	82.1603	659.18	82.0488	659.18	82.1529	659.18	81.856	659.18	81.9968	659.18	81.5902	659.18	81.7371	659.18	81.2796	659.18	81.4748	659.18	80.9792	659.18	81.274	659.18	80.6682	659.18	81.0903	659.18	80.2158	659.18	80.7816	659.18	79.4865	659.18	80.1967	659.18	78.4416	659.18	79.2343	659.18	77.1342	659.18	77.8111	659.18	75.5644	659.18	75.8647	659.18	73.7198	659.18	73.5409	659.18	72.4916	659.18	71.7199	659.18	73.4843	659.18	72.0981	659.18	75.4282	659.18	74.2822	659.18	76.8665	659.18	76.3946	659.18	77.7026	659.18	77.6586	659.18	78.0218
682.617	82.2445	682.617	82.1885	682.617	82.155	682.617	81.9766	682.617	81.9641	682.617	81.6786	682.617	81.7105	682.617	81.3985	682.617	81.4165	682.617	81.1778	682.617	81.0969	682.617	80.979	682.617	80.7723	682.617	80.6897	682.617	80.4327	682.617	80.1587	682.617	79.9877	682.617	79.3038	682.617	79.2917	682.617	78.0763	682.617	78.1689	682.617	76.304	682.617	76.414	682.617	73.8316	682.617	73.9659	682.617	71.6561	682.617	71.7374	682.617	72.5064	682.617	72.2165	682.617	74.918	682.617	74.4977	682.617	76.6544	682.617	76.2926	682.617	77.4675	682.617	77.2497	682.617	77.605
707.52	82.4839	707.52	82.3526	707.52	82.4538	707.52	82.0642	707.52	82.3102	707.52	81.6888	707.52	82.0696	707.52	81.3042	707.52	81.7233	707.52	80.9676	707.52	81.3535	707.52	80.7004	707.52	81.1005	707.52	80.4802	707.52	80.9624	707.52	80.2181	707.52	80.7465	707.52	79.6605	707.52	80.1763	707.52	78.4814	707.52	78.9652	707.52	76.6041	707.52	76.8575	707.52	74.2737	707.52	73.6893	707.52	72.0027	707.52	70.3692	707.52	71.9454	707.52	71.1123	707.52	74.2561	707.52	74.1133	707.52	76.2328	707.52	76.2833	707.52	77.4306	707.52	77.5121	707.52	77.8857
732.422	81.8752	732.422	81.8168	732.422	81.8022	732.422	81.6274	732.422	81.5294	732.422	81.2319	732.422	81.1094	732.422	80.7117	732.422	80.6979	732.422	80.3192	732.422	80.3825	732.422	80.1533	732.422	80.1637	732.422	79.9992	732.422	80.0048	732.422	79.5786	732.422	79.7888	732.422	78.8344	732.422	79.3186	732.422	77.7599	732.422	78.3918	732.422	75.9254	732.422	76.9018	732.422	72.7757	732.422	74.8181	732.422	69.8697	732.422	72.2157	732.422	71.3699	732.422	71.1912	732.422	74.2973	732.422	73.3827	732.422	76.4766	732.422	75.514	732.422	77.5733	732.422	76.8747	732.422	77.6221
757.324	82.1461	757.324	81.9986	757.324	82.0145	757.324	81.5359	757.324	81.7253	757.324	80.9574	757.324	81.2474	757.324	80.4187	757.324	80.5919	757.324	79.8723	757.324	80.0281	757.324	79.4172	757.324	79.8084	757.324	79.3215	757.324	79.82	757.324	79.4003	757.324	79.7289	757.324	79.1622	757.324	79.295	757.324	78.3601	757.324	78.3928	757.324	76.8735	757.324	76.7692	757.324	74.2251	757.324	73.962	757.324	70.0507	757.324	70.1197	757.324	69.4323	757.324	69.4229	757.324	72.8356	757.324	72.4509	757.324	75.1917	757.324	74.863	757.324	76.5071	757.324	76.2576	757.324	76.8381
785.156	82.0152	785.156	82.0341	785.156	81.7387	785.156	81.7847	785.156	81.2675	785.156	81.2455	785.156	80.7234	785.156	80.4284	785.156	80.1282	785.156	79.5428	785.156	79.3957	785.156	79.0556	785.156	78.7449	785.156	79.2266	785.156	78.6559	785.156	79.5705	785.156	78.9123	785.156	79.4024	785.156	78.97	785.156	78.5562	785.156	78.4452	785.156	77.1225	785.156	76.9332	785.156	74.8244	785.156	74.3341	785.156	71.0839	785.156	70.556	785.156	68.5933	785.156	66.5728	785.156	72.259	785.156	71.0622	785.156	74.9151	785.156	75.0914	785.156	75.8753	785.156	76.3798	785.156	76.2737
811.523	82.2465	811.523	81.8627	811.523	82.2609	811.523	81.3163	811.523	81.8867	811.523	80.7449	811.523	81.2506	811.523	80.0351	811.523	80.3909	811.523	79.1494	811.523	79.285	811.523	78.403	811.523	78.1928	811.523	77.9773	811.523	77.6599	811.523	77.7755	811.523	77.7563	811.523	77.5451	811.523	77.7781	811.523	76.9406	811.523	77.1783	811.523	75.8512	811.523	75.7786	811.523	74.0154	811.523	73.364	811.523	71.0278	811.523	69.4155	811.523	67.5511	811.523	64.5858	811.523	68.7885	811.523	69.0276	811.523	72.5442	811.523	73.099	811.523	74.2235	811.523	74.5043	811.523	74.6302
840.82	81.4834	840.82	81.4336	840.82	81.4273	840.82	81.2603	840.82	81.0258	840.82	80.6512	840.82	80.2994	840.82	79.6271	840.82	79.5036	840.82	78.6184	840.82	78.7293	840.82	77.9198	840.82	78.0483	840.82	77.6611	840.82	77.723	840.82	77.7804	840.82	77.6501	840.82	77.9874	840.82	77.5891	840.82	77.9729	840.82	77.4957	840.82	77.3789	840.82	76.9948	840.82	75.6178	840.82	75.2759	840.82	71.618	840.82	72.0454	840.82	67.2724	840.82	69.0469	840.82	69.4606	840.82	68.8701	840.82	71.8002	840.82	71.2854	840.82	73.8173	840.82	73.8112	840.82	74.7888
870.117	81.7583	870.117	81.6267	870.117	81.4395	870.117	81.0206	870.117	80.9407	870.117	80.2736	870.117	80.2849	870.117	79.5353	870.117	79.3557	870.117	78.6087	870.117	78.3086	870.117	77.427	870.117	77.2214	870.117	76.7376	870.117	76.3979	870.117	77.1011	870.117	76.7918	870.117	77.3192	870.117	77.6371	870.117	76.8512	870.117	77.679	870.117	75.7519	870.117	76.6681	870.117	73.4193	870.117	74.398	870.117	69.7348	870.117	70.8156	870.117	66.7358	870.117	67.7701	870.117	68.2985	870.117	70.0165	870.117	72.1205	870.117	72.8211	870.117	74.26	870.117	74.1935	870.117	74.6994
900.879	82.2981	900.879	82.3072	900.879	82.1739	900.879	82.0934	900.879	81.8289	900.879	81.4389	900.879	81.2186	900.879	80.4075	900.879	80.3522	900.879	79.1727	900.879	79.1714	900.879	77.746	900.879	77.7888	900.879	76.279	900.879	76.5186	900.879	75.4726	900.879	75.4444	900.879	75.7742	900.879	75.3217	900.879	75.9852	900.879	76.0657	900.879	75.7458	900.879	76.1414	900.879	74.7904	900.879	75.1428	900.879	71.6723	900.879	72.696	900.879	66.2269	900.879	67.9356	900.879	66.9898	900.879	66.2027	900.879	70.9284	900.879	70.7419	900.879	73.3031	900.879	73.2097	900.879	73.9454
933.105	81.5841	933.105	81.4019	933.105	81.4756	933.105	80.969	933.105	81.1483	933.105	80.5127	933.105	80.5347	933.105	79.9582	933.105	79.7335	933.105	79.0589	933.105	79.0464	933.105	78.0573	933.105	78.1934	933.105	77.5255	933.105	77.0634	933.105	77.3786	933.105	76.6938	933.105	77.2952	933.105	76.7749	933.105	77.1951	933.105	76.4709	933.105	76.4922	933.105	75.8744	933.105	74.8374	933.105	74.2424	933.105	71.8771	933.105	71.0903	933.105	68.0002	933.105	67.848	933.105	68.7777	933.105	67.6089	933.105	71.4172	933.105	70.4388	933.105	72.8481	933.105	72.374	933.105	73.0974
965.332	82.2552	965.332	82.1932	965.332	82.1294	965.332	81.9046	965.332	81.9129	965.332	81.2252	965.332	81.5485	965.332	80.1852	965.332	80.6565	965.332	79.2104	965.332	79.0803	965.332	78.1369	965.332	77.2555	965.332	76.9187	965.332	75.7395	965.332	76.3786	965.332	74.7695	965.332	76.549	965.332	74.8881	965.332	76.4745	965.332	75.8211	965.332	75.3889	965.332	75.9714	965.332	73.7449	965.332	74.6981	965.332	71.0766	965.332	71.8169	965.332	66.2257	965.332	65.6606	965.332	67.6295	965.332	65.1672	965.332	71.1378	965.332	71.6092	965.332	73.3884	965.332	74.0285	965.332	74.364
1,000.49	82.1815	1,000.49	81.95	1,000.49	81.9392	1,000.49	81.4625	1,000.49	81.4385	1,000.49	81.1085	1,000.49	80.8909	1,000.49	80.3695	1,000.49	80.2083	1,000.49	79.0178	1,000.49	79.2149	1,000.49	78.1157	1,000.49	78.0021	1,000.49	77.1638	1,000.49	76.75	1,000.49	76.1195	1,000.49	75.7477	1,000.49	76.3431	1,000.49	75.4302	1,000.49	76.7696	1,000.49	75.6319	1,000.49	76.2689	1,000.49	76.0242	1,000.49	75.0402	1,000.49	75.7123	1,000.49	73.4112	1,000.49	73.7338	1,000.49	69.6528	1,000.49	70.0307	1,000.49	65.2666	1,000.49	64.3964	1,000.49	69.5166	1,000.49	68.6978	1,000.49	71.2254	1,000.49	71.9111	1,000.49	72.0346
1,035.64	81.652	1,035.64	81.3297	1,035.64	81.5392	1,035.64	81.0767	1,035.64	81.0091	1,035.64	80.8047	1,035.64	80.5548	1,035.64	80.1609	1,035.64	80.0588	1,035.64	78.988	1,035.64	79.1276	1,035.64	77.3433	1,035.64	77.4983	1,035.64	75.7734	1,035.64	75.3395	1,035.64	74.3678	1,035.64	73.7552	1,035.64	73.3979	1,035.64	73.2078	1,035.64	74.2159	1,035.64	74.2752	1,035.64	74.6547	1,035.64	74.9504	1,035.64	73.4355	1,035.64	74.2542	1,035.64	70.4108	1,035.64	72.2047	1,035.64	65.5031	1,035.64	68.3655	1,035.64	65.2718	1,035.64	64.3925	1,035.64	68.9654	1,035.64	69.1885	1,035.64	72.2231	1,035.64	71.8475	1,035.64	72.6018
1,072.27	81.5433	1,072.27	81.5683	1,072.27	81.7382	1,072.27	81.3183	1,072.27	81.7151	1,072.27	80.7412	1,072.27	81.2664	1,072.27	79.997	1,072.27	80.8058	1,072.27	79.0429	1,072.27	80.0809	1,072.27	78.0124	1,072.27	78.8114	1,072.27	76.2574	1,072.27	76.8773	1,072.27	74.481	1,072.27	74.9837	1,072.27	74.2245	1,072.27	73.888	1,072.27	74.324	1,072.27	73.5173	1,072.27	74.5647	1,072.27	74.4489	1,072.27	73.6633	1,072.27	74.5492	1,072.27	72.6016	1,072.27	72.5873	1,072.27	70.8167	1,072.27	69.7985	1,072.27	68.2342	1,072.27	66.2899	1,072.27	70.3038	1,072.27	67.311	1,072.27	71.8769	1,072.27	70.3598	1,072.27	71.5888
1,108.89	81.3155	1,108.89	81.2215	1,108.89	81.1053	1,108.89	80.8198	1,108.89	80.8834	1,108.89	80.1922	1,108.89	80.4213	1,108.89	79.4979	1,108.89	79.364	1,108.89	78.4898	1,108.89	78.1915	1,108.89	77.0701	1,108.89	77.3901	1,108.89	75.8318	1,108.89	76.3458	1,108.89	74.8093	1,108.89	74.4998	1,108.89	73.8064	1,108.89	73.0362	1,108.89	73.7945	1,108.89	72.2256	1,108.89	74.016	1,108.89	72.1309	1,108.89	72.5771	1,108.89	71.4123	1,108.89	69.2778	1,108.89	70.0933	1,108.89	65.8487	1,108.89	67.5261	1,108.89	63.8502	1,108.89	65.0249	1,108.89	67.8202	1,108.89	68.3947	1,108.89	70.8474	1,108.89	71.3941	1,108.89	72.1839
1,148.44	81.5479	1,148.44	81.5499	1,148.44	81.5889	1,148.44	81.1893	1,148.44	81.3859	1,148.44	80.4029	1,148.44	80.7863	1,148.44	79.7316	1,148.44	80.0583	1,148.44	78.5968	1,148.44	79.2367	1,148.44	76.6122	1,148.44	77.9547	1,148.44	74.7178	1,148.44	76.4391	1,148.44	72.8667	1,148.44	74.5169	1,148.44	71.8912	1,148.44	72.6567	1,148.44	73.2225	1,148.44	73.2836	1,148.44	74.1212	1,148.44	73.7521	1,148.44	74.0551	1,148.44	73.8735	1,148.44	73.4084	1,148.44	72.5956	1,148.44	69.7093	1,148.44	70.0266	1,148.44	67.0145	1,148.44	66.3722	1,148.44	69.1005	1,148.44	65.8187	1,148.44	70.9455	1,148.44	68.992	1,148.44	70.8074
1,189.45	81.7097	1,189.45	81.4573	1,189.45	81.9276	1,189.45	81.408	1,189.45	81.5311	1,189.45	80.8321	1,189.45	80.93	1,189.45	79.9468	1,189.45	80.3242	1,189.45	78.7457	1,189.45	79.3583	1,189.45	77.3787	1,189.45	78.1398	1,189.45	75.6895	1,189.45	77.0445	1,189.45	73.1855	1,189.45	76.1434	1,189.45	72.8127	1,189.45	74.8728	1,189.45	73.502	1,189.45	73.5667	1,189.45	74.3499	1,189.45	73.9115	1,189.45	73.4199	1,189.45	73.637	1,189.45	71.5316	1,189.45	70.5748	1,189.45	67.3212	1,189.45	65.5693	1,189.45	62.9829	1,189.45	62.3557	1,189.45	68.4001	1,189.45	67.1292	1,189.45	71.1287	1,189.45	72.1362	1,189.45	72.7304
1,230.47	82.3041	1,230.47	82.1236	1,230.47	82.042	1,230.47	81.2768	1,230.47	81.8754	1,230.47	80.6996	1,230.47	81.3997	1,230.47	80.3579	1,230.47	80.4952	1,230.47	79.3142	1,230.47	79.4403	1,230.47	77.8351	1,230.47	78.2633	1,230.47	76.2877	1,230.47	76.4155	1,230.47	74.0662	1,230.47	74.6392	1,230.47	72.2029	1,230.47	73.1606	1,230.47	73.3285	1,230.47	72.6481	1,230.47	74.0023	1,230.47	73.4098	1,230.47	74.1124	1,230.47	72.5615	1,230.47	72.8251	1,230.47	71.1977	1,230.47	69.0758	1,230.47	69.543	1,230.47	65.5748	1,230.47	66.6814	1,230.47	70.9404	1,230.47	69.4039	1,230.47	73.769	1,230.47	72.0702	1,230.47	73.7299
1,274.41	82.0299	1,274.41	81.8496	1,274.41	81.8871	1,274.41	81.4296	1,274.41	81.3795	1,274.41	80.6213	1,274.41	80.5256	1,274.41	79.9382	1,274.41	79.5625	1,274.41	79.3431	1,274.41	78.5113	1,274.41	77.6778	1,274.41	77.5556	1,274.41	76.0819	1,274.41	76.212	1,274.41	74.6182	1,274.41	75.1064	1,274.41	73.1646	1,274.41	73.8548	1,274.41	72.2893	1,274.41	72.6162	1,274.41	72.8556	1,274.41	72.043	1,274.41	73.4589	1,274.41	73.0699	1,274.41	71.9603	1,274.41	72.6169	1,274.41	66.8197	1,274.41	67.8894	1,274.41	62.5571	1,274.41	60.1166	1,274.41	67.4298	1,274.41	66.1049	1,274.41	71.5789	1,274.41	70.5031	1,274.41	72.6666
1,319.82	81.9427	1,319.82	81.9132	1,319.82	81.616	1,319.82	81.1388	1,319.82	81.1093	1,319.82	80.082	1,319.82	80.4586	1,319.82	79.3003	1,319.82	79.3932	1,319.82	78.6297	1,319.82	78.4418	1,319.82	78.1117	1,319.82	77.0002	1,319.82	77.3612	1,319.82	75.4679	1,319.82	75.3602	1,319.82	73.8277	1,319.82	72.3819	1,319.82	73.5111	1,319.82	70.541	1,319.82	72.5941	1,319.82	71.825	1,319.82	72.4376	1,319.82	73.8064	1,319.82	72.778	1,319.82	72.2066	1,319.82	71.6312	1,319.82	66.3912	1,319.82	66.441	1,319.82	62.053	1,319.82	57.7213	1,319.82	67.1141	1,319.82	64.7001	1,319.82	71.6133	1,319.82	68.1389	1,319.82	71.0969
1,366.7	81.721	1,366.7	81.7256	1,366.7	81.5574	1,366.7	81.2623	1,366.7	81.1744	1,366.7	80.525	1,366.7	80.3275	1,366.7	79.3186	1,366.7	79.3547	1,366.7	78.5785	1,366.7	78.3946	1,366.7	77.4641	1,366.7	77.229	1,366.7	75.6505	1,366.7	75.5768	1,366.7	74.0796	1,366.7	74.4548	1,366.7	70.6987	1,366.7	73.4357	1,366.7	70.0718	1,366.7	72.5174	1,366.7	70.4356	1,366.7	71.7625	1,366.7	71.7669	1,366.7	71.8602	1,366.7	71.0873	1,366.7	71.3219	1,366.7	66.6686	1,366.7	68.8194	1,366.7	54.5608	1,366.7	58.6605	1,366.7	67.5084	1,366.7	64.9956	1,366.7	69.5605	1,366.7	69.8985	1,366.7	69.7922
1,413.57	81.6028	1,413.57	81.4802	1,413.57	81.6275	1,413.57	80.7489	1,413.57	81.1046	1,413.57	80.0022	1,413.57	80.244	1,413.57	78.8323	1,413.57	79.3224	1,413.57	77.4372	1,413.57	77.9433	1,413.57	76.4414	1,413.57	77.4071	1,413.57	75.5875	1,413.57	76.0858	1,413.57	74.3216	1,413.57	74.2954	1,413.57	72.3747	1,413.57	72.4561	1,413.57	69.7871	1,413.57	70.4412	1,413.57	69.827	1,413.57	70.5706	1,413.57	69.7073	1,413.57	71.6357	1,413.57	69.8464	1,413.57	70.9401	1,413.57	64.529	1,413.57	70.0862	1,413.57	43.4018	1,413.57	62.357	1,413.57	62.0358	1,413.57	60.8296	1,413.57	67.6266	1,413.57	66.9695	1,413.57	69.476
1,463.38	82.1158	1,463.38	81.826	1,463.38	82.1026	1,463.38	81.4556	1,463.38	81.6461	1,463.38	80.659	1,463.38	81.0243	1,463.38	79.481	1,463.38	80.1254	1,463.38	78.0822	1,463.38	78.9515	1,463.38	75.6208	1,463.38	77.8017	1,463.38	74.6036	1,463.38	76.0202	1,463.38	74.7998	1,463.38	74.5308	1,463.38	73.2246	1,463.38	72.6046	1,463.38	71.8682	1,463.38	71.4105	1,463.38	70.2297	1,463.38	71.592	1,463.38	70.1995	1,463.38	71.771	1,463.38	71.3204	1,463.38	70.2819	1,463.38	69.2103	1,463.38	69.5088	1,463.38	64.7691	1,463.38	62.4154	1,463.38	56.9164	1,463.38	62.8995	1,463.38	67.1763	1,463.38	67.8584	1,463.38	68.7872
1,516.11	82.448	1,516.11	82.5807	1,516.11	82.1605	1,516.11	82.0021	1,516.11	81.8354	1,516.11	81.4396	1,516.11	80.9578	1,516.11	80.26	1,516.11	79.68	1,516.11	79.239	1,516.11	78.4836	1,516.11	78.3097	1,516.11	77.3614	1,516.11	76.8617	1,516.11	75.9701	1,516.11	75.9328	1,516.11	74.027	1,516.11	74.7295	1,516.11	72.4006	1,516.11	72.4778	1,516.11	70.8173	1,516.11	71.8832	1,516.11	70.4781	1,516.11	72.4784	1,516.11	71.9782	1,516.11	72.9766	1,516.11	71.1631	1,516.11	71.5389	1,516.11	68.6738	1,516.11	66.3853	1,516.11	65.7827	1,516.11	60.5502	1,516.11	60.5002	1,516.11	65.9798	1,516.11	65.3804	1,516.11	68.6858
1,568.85	82.6166	1,568.85	82.4401	1,568.85	82.395	1,568.85	81.9949	1,568.85	81.7151	1,568.85	81.3486	1,568.85	80.801	1,568.85	80.2512	1,568.85	79.8083	1,568.85	78.9243	1,568.85	78.0542	1,568.85	77.631	1,568.85	76.0244	1,568.85	76.6431	1,568.85	75.2033	1,568.85	74.6002	1,568.85	73.3307	1,568.85	72.8512	1,568.85	71.4563	1,568.85	69.9047	1,568.85	70.0935	1,568.85	70.3526	1,568.85	68.7641	1,568.85	71.3374	1,568.85	66.3538	1,568.85	72.7127	1,568.85	68.1604	1,568.85	72.1535	1,568.85	68.8875	1,568.85	66.2675	1,568.85	61.1546	1,568.85	64.273	1,568.85	58.7527	1,568.85	66.2739	1,568.85	67.7933	1,568.85	68.0959
1,624.51	81.7101	1,624.51	81.6531	1,624.51	81.5196	1,624.51	81.2764	1,624.51	81.1828	1,624.51	80.5459	1,624.51	80.0987	1,624.51	79.5642	1,624.51	78.6858	1,624.51	77.958	1,624.51	77.1679	1,624.51	76.2342	1,624.51	76.5999	1,624.51	74.604	1,624.51	74.7918	1,624.51	73.5793	1,624.51	73.6187	1,624.51	72.7613	1,624.51	71.7713	1,624.51	71.6479	1,624.51	69.7082	1,624.51	70.554	1,624.51	67.9325	1,624.51	70.8361	1,624.51	68.9578	1,624.51	71.3139	1,624.51	69.9232	1,624.51	68.2869	1,624.51	69.7455	1,624.51	59.1291	1,624.51	66.619	1,624.51	61.1791	1,624.51	51.4102	1,624.51	66.7822	1,624.51	65.4658	1,624.51	68.4472
1,681.64	81.0344	1,681.64	81.0242	1,681.64	81.3803	1,681.64	80.5702	1,681.64	80.8689	1,681.64	79.7915	1,681.64	80.0594	1,681.64	78.6764	1,681.64	78.8275	1,681.64	77.0305	1,681.64	78.0043	1,681.64	75.9925	1,681.64	76.559	1,681.64	73.5189	1,681.64	74.031	1,681.64	73.0783	1,681.64	73.3579	1,681.64	72.3977	1,681.64	71.7806	1,681.64	70.3695	1,681.64	71.421	1,681.64	66.5733	1,681.64	67.7465	1,681.64	67.1091	1,681.64	68.0667	1,681.64	69.6021	1,681.64	70.8041	1,681.64	69.566	1,681.64	71.5903	1,681.64	66.5741	1,681.64	67.2116	1,681.64	59.9643	1,681.64	62.1822	1,681.64	65.7382	1,681.64	62.621	1,681.64	66.033
1,741.7	81.9114	1,741.7	81.7332	1,741.7	81.7876	1,741.7	80.8496	1,741.7	81.5857	1,741.7	79.675	1,741.7	81.1286	1,741.7	78.2782	1,741.7	80.2402	1,741.7	77.5525	1,741.7	78.8362	1,741.7	75.8838	1,741.7	77.2431	1,741.7	74.1671	1,741.7	75.875	1,741.7	71.5425	1,741.7	73.6266	1,741.7	70.5795	1,741.7	73.2353	1,741.7	69.7127	1,741.7	70.7965	1,741.7	69.121	1,741.7	69.9752	1,741.7	67.8123	1,741.7	68.1665	1,741.7	67.9618	1,741.7	70.3168	1,741.7	68.424	1,741.7	69.5747	1,741.7	66.3039	1,741.7	68.8817	1,741.7	60.8812	1,741.7	64.387	1,741.7	63.6763	1,741.7	63.8706	1,741.7	65.0011
1,803.22	82.8966	1,803.22	82.6583	1,803.22	82.7085	1,803.22	81.974	1,803.22	82.1536	1,803.22	80.9436	1,803.22	81.2752	1,803.22	79.7908	1,803.22	80.1649	1,803.22	78.5021	1,803.22	78.7532	1,803.22	76.8605	1,803.22	77.4648	1,803.22	75.2685	1,803.22	75.7402	1,803.22	73.8137	1,803.22	73.7627	1,803.22	72.1756	1,803.22	72.5947	1,803.22	70.4935	1,803.22	71.7499	1,803.22	69.3555	1,803.22	69.9797	1,803.22	67.6839	1,803.22	68.9208	1,803.22	69.4249	1,803.22	69.8924	1,803.22	69.7416	1,803.22	69.996	1,803.22	67.5695	1,803.22	67.3609	1,803.22	60.8558	1,803.22	63.1068	1,803.22	64.2801	1,803.22	64.524	1,803.22	67.3101
1,866.21	82.7981	1,866.21	82.5938	1,866.21	82.3683	1,866.21	81.9767	1,866.21	81.7872	1,866.21	81.1007	1,866.21	80.8226	1,866.21	79.732	1,866.21	79.2411	1,866.21	78.3923	1,866.21	77.9572	1,866.21	77.1044	1,866.21	76.2013	1,866.21	75.2302	1,866.21	74.9225	1,866.21	73.5623	1,866.21	72.8441	1,866.21	71.7348	1,866.21	71.1691	1,866.21	70.6468	1,866.21	70.0251	1,866.21	69.3731	1,866.21	68.9976	1,866.21	69.5386	1,866.21	67.9439	1,866.21	69.2399	1,866.21	69.1628	1,866.21	70.0093	1,866.21	69.6733	1,866.21	68.5314	1,866.21	66.7651	1,866.21	64.3701	1,866.21	61.3105	1,866.21	64.8235	1,866.21	64.3524	1,866.21	65.3573
1,932.13	82.0316	1,932.13	81.6644	1,932.13	81.743	1,932.13	81.1762	1,932.13	81.0383	1,932.13	80.0721	1,932.13	79.9524	1,932.13	78.8766	1,932.13	78.4873	1,932.13	77.6969	1,932.13	77.0046	1,932.13	75.7049	1,932.13	75.4106	1,932.13	74.8472	1,932.13	74.189	1,932.13	73.1757	1,932.13	72.6106	1,932.13	71.0369	1,932.13	70.37	1,932.13	69.8535	1,932.13	69.5347	1,932.13	68.9505	1,932.13	67.8503	1,932.13	67.5141	1,932.13	66.7589	1,932.13	68.4051	1,932.13	67.8433	1,932.13	69.0404	1,932.13	68.1393	1,932.13	66.513	1,932.13	67.3261	1,932.13	62.7939	1,932.13	62.4628	1,932.13	63.6948	1,932.13	61.9174	1,932.13	64.5691
1,999.51	82.1441	1,999.51	82.1256	1,999.51	81.9847	1,999.51	81.3163	1,999.51	81.4149	1,999.51	80.132	1,999.51	80.4069	1,999.51	78.4007	1,999.51	79.2476	1,999.51	76.4811	1,999.51	77.4955	1,999.51	75.5695	1,999.51	75.8591	1,999.51	73.8779	1,999.51	73.8608	1,999.51	72.6078	1,999.51	72.5539	1,999.51	70.7036	1,999.51	71.3587	1,999.51	69.4431	1,999.51	70.1844	1,999.51	67.3462	1,999.51	67.9862	1,999.51	67.2447	1,999.51	68.5752	1,999.51	67.9915	1,999.51	67.7408	1,999.51	68.2459	1,999.51	69.0277	1,999.51	66.8216	1,999.51	68.0422	1,999.51	62.5624	1,999.51	64.6028	1,999.51	64.0749	1,999.51	63.9656	1,999.51	65.6238
2,069.82	83.4766	2,069.82	83.235	2,069.82	83.3072	2,069.82	82.5424	2,069.82	82.7362	2,069.82	81.4645	2,069.82	81.7553	2,069.82	79.8249	2,069.82	80.295	2,069.82	78.1808	2,069.82	78.5324	2,069.82	76.0557	2,069.82	76.9088	2,069.82	74.5873	2,069.82	74.9018	2,069.82	73.1045	2,069.82	73.5026	2,069.82	71.2628	2,069.82	71.5855	2,069.82	69.6827	2,069.82	69.5824	2,069.82	69.5289	2,069.82	68.9303	2,069.82	68.9852	2,069.82	67.6184	2,069.82	67.2721	2,069.82	68.9023	2,069.82	68.4728	2,069.82	69.3168	2,069.82	66.9393	2,069.82	69.0019	2,069.82	63.7101	2,069.82	65.5238	2,069.82	67.2028	2,069.82	65.9898	2,069.82	67.2486
2,143.07	83.836	2,143.07	83.4273	2,143.07	83.5558	2,143.07	82.969	2,143.07	82.8584	2,143.07	81.839	2,143.07	81.7991	2,143.07	80.5733	2,143.07	80.4389	2,143.07	78.535	2,143.07	78.6945	2,143.07	76.7529	2,143.07	76.8572	2,143.07	74.8851	2,143.07	75.1917	2,143.07	73.8544	2,143.07	73.3277	2,143.07	72.4994	2,143.07	71.6263	2,143.07	71.0436	2,143.07	69.7868	2,143.07	69.1369	2,143.07	66.8507	2,143.07	67.0112	2,143.07	66.4081	2,143.07	69.6351	2,143.07	67.6941	2,143.07	69.6574	2,143.07	69.6508	2,143.07	68.0026	2,143.07	67.6507	2,143.07	64.5173	2,143.07	64.8042	2,143.07	62.1689	2,143.07	64.7629	2,143.07	66.0507
2,219.24	82.7075	2,219.24	82.7255	2,219.24	82.5347	2,219.24	81.9627	2,219.24	81.9007	2,219.24	80.7143	2,219.24	80.9055	2,219.24	79.3865	2,219.24	79.5643	2,219.24	77.9562	2,219.24	78.0139	2,219.24	76.6558	2,219.24	76.2303	2,219.24	74.1985	2,219.24	74.2955	2,219.24	73.7466	2,219.24	72.8789	2,219.24	71.3097	2,219.24	72.2292	2,219.24	69.6542	2,219.24	69.7436	2,219.24	69.6612	2,219.24	67.575	2,219.24	66.2876	2,219.24	66.1569	2,219.24	67.1352	2,219.24	66.3434	2,219.24	68.7526	2,219.24	68.0597	2,219.24	69.7716	2,219.24	68.5626	2,219.24	64.4773	2,219.24	62.3621	2,219.24	65.7925	2,219.24	58.4913	2,219.24	66.9621
2,296.88	82.5538	2,296.88	82.3912	2,296.88	82.2661	2,296.88	81.4902	2,296.88	81.8001	2,296.88	80.7173	2,296.88	80.9293	2,296.88	79.2295	2,296.88	79.6556	2,296.88	77.2931	2,296.88	78.1099	2,296.88	75.619	2,296.88	76.6563	2,296.88	73.5259	2,296.88	74.4429	2,296.88	70.424	2,296.88	73.6544	2,296.88	70.5537	2,296.88	70.91	2,296.88	68.8064	2,296.88	69.5156	2,296.88	66.4462	2,296.88	69.5438	2,296.88	67.2629	2,296.88	68.2449	2,296.88	63.6161	2,296.88	66.9629	2,296.88	68.014	2,296.88	69.8017	2,296.88	67.7331	2,296.88	69.2733	2,296.88	64.6352	2,296.88	65.7488	2,296.88	58.3182	2,296.88	64.3441	2,296.88	60.5035
2,378.91	82.8585	2,378.91	82.5756	2,378.91	82.4973	2,378.91	82.1553	2,378.91	82.0511	2,378.91	81.0453	2,378.91	80.9147	2,378.91	79.4117	2,378.91	79.561	2,378.91	78.2771	2,378.91	78.2048	2,378.91	76.6011	2,378.91	76.1674	2,378.91	74.3432	2,378.91	74.2896	2,378.91	72.6255	2,378.91	72.4066	2,378.91	70.9916	2,378.91	72.1187	2,378.91	69.7269	2,378.91	70.871	2,378.91	66.1188	2,378.91	68.5983	2,378.91	67.2864	2,378.91	64.6709	2,378.91	65.6867	2,378.91	65.4985	2,378.91	67.1327	2,378.91	67.8462	2,378.91	66.8636	2,378.91	68.3084	2,378.91	63.155	2,378.91	64.5423	2,378.91	61.5749	2,378.91	63.7035	2,378.91	64.356
2,462.4	82.5933	2,462.4	82.252	2,462.4	82.1276	2,462.4	81.4746	2,462.4	81.5553	2,462.4	80.6698	2,462.4	80.281	2,462.4	79.4555	2,462.4	79.0272	2,462.4	77.4114	2,462.4	77.3285	2,462.4	75.6072	2,462.4	76.0255	2,462.4	73.8868	2,462.4	73.6138	2,462.4	71.5304	2,462.4	71.1718	2,462.4	70.676	2,462.4	69.3043	2,462.4	67.7503	2,462.4	69.4961	2,462.4	66.8393	2,462.4	66.8831	2,462.4	66.0588	2,462.4	66.5791	2,462.4	65.0293	2,462.4	64.1575	2,462.4	67.2488	2,462.4	65.088	2,462.4	67.7041	2,462.4	65.9917	2,462.4	62.2154	2,462.4	63.1663	2,462.4	62.7439	2,462.4	57.9926	2,462.4	64.0161
2,548.83	82.662	2,548.83	81.9229	2,548.83	82.4766	2,548.83	81.2284	2,548.83	81.5382	2,548.83	79.9274	2,548.83	80.7729	2,548.83	78.9347	2,548.83	78.9161	2,548.83	76.8137	2,548.83	77.3436	2,548.83	74.2017	2,548.83	75.6465	2,548.83	71.4921	2,548.83	73.8901	2,548.83	71.3821	2,548.83	70.8697	2,548.83	68.594	2,548.83	69.7508	2,548.83	67.48	2,548.83	68.7542	2,548.83	67.6087	2,548.83	66.6728	2,548.83	65.0504	2,548.83	67.0483	2,548.83	64.4059	2,548.83	64.0537	2,548.83	62.9983	2,548.83	64.5784	2,548.83	64.9787	2,548.83	66.567	2,548.83	62.2538	2,548.83	65.8635	2,548.83	58.484	2,548.83	62.7121	2,548.83	61.4797
2,639.65	82.7491	2,639.65	82.2915	2,639.65	82.7515	2,639.65	81.6998	2,639.65	81.8947	2,639.65	80.3778	2,639.65	81.0306	2,639.65	79.1836	2,639.65	79.3676	2,639.65	78.1757	2,639.65	77.5925	2,639.65	75.6171	2,639.65	75.3175	2,639.65	74.23	2,639.65	73.7989	2,639.65	73.1013	2,639.65	71.2374	2,639.65	68.4736	2,639.65	70.0745	2,639.65	67.776	2,639.65	66.4015	2,639.65	67.8115	2,639.65	67.1151	2,639.65	66.8167	2,639.65	66.855	2,639.65	65.0373	2,639.65	65.1941	2,639.65	64.4788	2,639.65	65.0778	2,639.65	65.8582	2,639.65	66.3257	2,639.65	64.5295	2,639.65	63.9824	2,639.65	63.0358	2,639.65	59.6671	2,639.65	62.8222
2,731.93	82.0618	2,731.93	81.9529	2,731.93	81.9466	2,731.93	80.8039	2,731.93	81.406	2,731.93	79.8389	2,731.93	79.9401	2,731.93	78.0684	2,731.93	78.5265	2,731.93	77.4903	2,731.93	76.9714	2,731.93	75.4786	2,731.93	74.8882	2,731.93	73.8828	2,731.93	73.4004	2,731.93	71.9172	2,731.93	70.952	2,731.93	69.2992	2,731.93	68.5685	2,731.93	67.8868	2,731.93	66.7811	2,731.93	65.942	2,731.93	66.8124	2,731.93	67.39	2,731.93	65.7037	2,731.93	66.2695	2,731.93	64.2496	2,731.93	65.0762	2,731.93	64.4118	2,731.93	66.5571	2,731.93	65.0692	2,731.93	65.9185	2,731.93	63.1983	2,731.93	57.7684	2,731.93	58.6168	2,731.93	58.9364
2,828.61	82.7454	2,828.61	82.5834	2,828.61	82.1642	2,828.61	81.6853	2,828.61	82.0635	2,828.61	80.7686	2,828.61	80.4826	2,828.61	78.3213	2,828.61	79.2626	2,828.61	75.7829	2,828.61	77.5513	2,828.61	75.0196	2,828.61	76.0181	2,828.61	73.0891	2,828.61	74.3289	2,828.61	68.8837	2,828.61	71.7554	2,828.61	68.8645	2,828.61	69.2217	2,828.61	67.4504	2,828.61	68.3664	2,828.61	63.3399	2,828.61	65.7905	2,828.61	65.6473	2,828.61	65.321	2,828.61	65.0208	2,828.61	65.8601	2,828.61	63.501	2,828.61	62.7945	2,828.61	64.6071	2,828.61	65.7899	2,828.61	63.5103	2,828.61	64.9623	2,828.61	60.0432	2,828.61	59.8521	2,828.61	61.2154
2,928.22	82.8111	2,928.22	82.6906	2,928.22	82.6731	2,928.22	81.9335	2,928.22	82.0218	2,928.22	80.7048	2,928.22	80.809	2,928.22	78.9881	2,928.22	79.4484	2,928.22	76.6061	2,928.22	77.7982	2,928.22	75.0976	2,928.22	75.5373	2,928.22	73.0873	2,928.22	73.3571	2,928.22	70.0201	2,928.22	72.0916	2,928.22	69.4124	2,928.22	69.8869	2,928.22	68.5515	2,928.22	67.2713	2,928.22	65.5628	2,928.22	65.1493	2,928.22	64.7381	2,928.22	64.7732	2,928.22	65.1624	2,928.22	66.1826	2,928.22	64.4284	2,928.22	61.8494	2,928.22	65.7362	2,928.22	65.5056	2,928.22	63.3615	2,928.22	64.6028	2,928.22	59.0128	2,928.22	63.6216	2,928.22	62.284
3,030.76	82.5115	3,030.76	82.3751	3,030.76	82.158	3,030.76	81.6771	3,030.76	81.2337	3,030.76	80.3254	3,030.76	80.3763	3,030.76	78.6132	3,030.76	78.7157	3,030.76	76.0442	3,030.76	76.9217	3,030.76	74.1575	3,030.76	75.1879	3,030.76	71.7021	3,030.76	72.4496	3,030.76	70.1001	3,030.76	70.689	3,030.76	68.5598	3,030.76	68.2429	3,030.76	67.104	3,030.76	67.2859	3,030.76	65.9178	3,030.76	66.5256	3,030.76	63.6821	3,030.76	63.7262	3,030.76	64.7382	3,030.76	65.4134	3,030.76	65.0657	3,030.76	64.8186	3,030.76	63.9538	3,030.76	63.869	3,030.76	61.8545	3,030.76	65.2615	3,030.76	64.3141	3,030.76	60.398	3,030.76	63.3187
3,137.7	82.8855	3,137.7	82.3849	3,137.7	83.1974	3,137.7	81.8093	3,137.7	81.8123	3,137.7	80.351	3,137.7	80.9192	3,137.7	78.461	3,137.7	79.2843	3,137.7	77.8006	3,137.7	77.4556	3,137.7	74.7622	3,137.7	75.1321	3,137.7	72.8568	3,137.7	73.0376	3,137.7	71.6787	3,137.7	71.2133	3,137.7	69.5026	3,137.7	70.1078	3,137.7	68.1239	3,137.7	68.2305	3,137.7	67.4653	3,137.7	66.8862	3,137.7	65.0588	3,137.7	65.8411	3,137.7	67.2445	3,137.7	66.1433	3,137.7	64.982	3,137.7	65.1614	3,137.7	65.8149	3,137.7	65.315	3,137.7	65.7861	3,137.7	64.5187	3,137.7	62.903	3,137.7	62.0389	3,137.7	64.1722
3,249.02	82.0825	3,249.02	81.7042	3,249.02	82.4125	3,249.02	81.4558	3,249.02	81.5842	3,249.02	80.0615	3,249.02	80.5822	3,249.02	78.8882	3,249.02	79.3624	3,249.02	78.5524	3,249.02	77.2368	3,249.02	75.83	3,249.02	75.2327	3,249.02	74.3743	3,249.02	73.3442	3,249.02	72.2657	3,249.02	71.7792	3,249.02	70.4281	3,249.02	70.5175	3,249.02	67.9294	3,249.02	68.2828	3,249.02	67.4397	3,249.02	66.8977	3,249.02	66.0673	3,249.02	65.5729	3,249.02	66.889	3,249.02	66.9155	3,249.02	64.7518	3,249.02	66.5836	3,249.02	66.5903	3,249.02	65.3053	3,249.02	66.4455	3,249.02	65.4396	3,249.02	63.9779	3,249.02	60.6913	3,249.02	64.3707
3,363.28	82.086	3,363.28	82.2458	3,363.28	81.8757	3,363.28	81.3901	3,363.28	81.6933	3,363.28	80.5262	3,363.28	80.4411	3,363.28	79.5576	3,363.28	79.4924	3,363.28	77.5118	3,363.28	77.3039	3,363.28	75.8252	3,363.28	75.7411	3,363.28	74.2904	3,363.28	72.9086	3,363.28	71.561	3,363.28	70.9584	3,363.28	70.2158	3,363.28	69.4786	3,363.28	68.0795	3,363.28	67.318	3,363.28	67.2419	3,363.28	67.1307	3,363.28	64.1261	3,363.28	64.0691	3,363.28	65.8147	3,363.28	65.2606	3,363.28	66.635	3,363.28	66.659	3,363.28	65.7468	3,363.28	66.2222	3,363.28	65.323	3,363.28	65.4153	3,363.28	59.573	3,363.28	60.6903	3,363.28	61.4222
3,481.93	82.5297	3,481.93	82.7215	3,481.93	82.2025	3,481.93	82.1099	3,481.93	82.0474	3,481.93	81.1582	3,481.93	80.9921	3,481.93	80.2206	3,481.93	79.4938	3,481.93	77.6394	3,481.93	77.8062	3,481.93	76.2752	3,481.93	76.3425	3,481.93	74.2177	3,481.93	74.3323	3,481.93	71.5617	3,481.93	72.0588	3,481.93	69.381	3,481.93	69.3453	3,481.93	68.5046	3,481.93	68.4424	3,481.93	66.9891	3,481.93	67.4947	3,481.93	65.2608	3,481.93	66.3253	3,481.93	65.0913	3,481.93	65.4851	3,481.93	66.3046	3,481.93	67.0052	3,481.93	66.9846	3,481.93	65.5054	3,481.93	65.8932	3,481.93	65.9616	3,481.93	60.9643	3,481.93	59.9235	3,481.93	62.4862
3,604.98	82.4733	3,604.98	82.4069	3,604.98	82.6924	3,604.98	82.3188	3,604.98	81.7542	3,604.98	81.4404	3,604.98	81.0614	3,604.98	79.739	3,604.98	79.7768	3,604.98	77.8291	3,604.98	78.4881	3,604.98	75.8783	3,604.98	76.3564	3,604.98	73.9369	3,604.98	73.9113	3,604.98	72.0178	3,604.98	71.8622	3,604.98	69.103	3,604.98	69.4149	3,604.98	67.9413	3,604.98	67.7256	3,604.98	67.4481	3,604.98	66.3653	3,604.98	65.0572	3,604.98	65.6054	3,604.98	64.4362	3,604.98	64.2185	3,604.98	66.003	3,604.98	66.8269	3,604.98	66.0358	3,604.98	66.4065	3,604.98	65.1532	3,604.98	65.8755	3,604.98	60.4953	3,604.98	60.1917	3,604.98	62.3524
3,732.42	82.5072	3,732.42	82.3991	3,732.42	82.3987	3,732.42	81.8896	3,732.42	81.8285	3,732.42	81.2456	3,732.42	81.0961	3,732.42	79.9454	3,732.42	79.7394	3,732.42	77.9773	3,732.42	78.024	3,732.42	75.4043	3,732.42	76.1873	3,732.42	73.3947	3,732.42	73.4801	3,732.42	71.6575	3,732.42	72.2541	3,732.42	68.1387	3,732.42	68.5631	3,732.42	67.8625	3,732.42	66.4742	3,732.42	65.2946	3,732.42	65.9803	3,732.42	64.3668	3,732.42	64.561	3,732.42	64.5204	3,732.42	63.6212	3,732.42	65.094	3,732.42	65.9577	3,732.42	63.2334	3,732.42	65.9411	3,732.42	64.899	3,732.42	65.167	3,732.42	56.5003	3,732.42	59.7388	3,732.42	59.5496
3,864.26	82.8271	3,864.26	82.4215	3,864.26	82.8497	3,864.26	81.8841	3,864.26	82.053	3,864.26	81.4307	3,864.26	81.3621	3,864.26	79.5032	3,864.26	80.0672	3,864.26	78.123	3,864.26	78.4806	3,864.26	75.6843	3,864.26	75.7712	3,864.26	73.1102	3,864.26	73.3994	3,864.26	71.0499	3,864.26	71.0336	3,864.26	69.1522	3,864.26	68.4497	3,864.26	67.0919	3,864.26	66.1879	3,864.26	64.904	3,864.26	65.4722	3,864.26	64.2029	3,864.26	63.963	3,864.26	63.9264	3,864.26	62.0613	3,864.26	64.4036	3,864.26	64.7563	3,864.26	63.7928	3,864.26	64.0527	3,864.26	64.2828	3,864.26	64.5364	3,864.26	58.6249	3,864.26	59.7585	3,864.26	61.2753
4,000.49	82.2531	4,000.49	82.0472	4,000.49	82.2075	4,000.49	81.7252	4,000.49	81.7758	4,000.49	80.4651	4,000.49	80.7706	4,000.49	79.1175	4,000.49	79.359	4,000.49	77.3205	4,000.49	77.5998	4,000.49	75.0798	4,000.49	74.9413	4,000.49	72.5975	4,000.49	72.7707	4,000.49	69.5027	4,000.49	70.4769	4,000.49	67.9292	4,000.49	68.2301	4,000.49	64.2729	4,000.49	65.3785	4,000.49	63.206	4,000.49	61.997	4,000.49	63.0911	4,000.49	62.0382	4,000.49	61.5135	4,000.49	62.8538	4,000.49	63.8267	4,000.49	62.8925	4,000.49	61.6215	4,000.49	61.7028	4,000.49	62.8104	4,000.49	63.3565	4,000.49	56.1406	4,000.49	57.3935	4,000.49	57.6534
4,141.11	82.1433	4,141.11	82.4148	4,141.11	82.1194	4,141.11	81.4203	4,141.11	81.887	4,141.11	80.4361	4,141.11	80.6628	4,141.11	79.2569	4,141.11	79.2946	4,141.11	77.0105	4,141.11	77.0191	4,141.11	74.0391	4,141.11	74.5356	4,141.11	71.7807	4,141.11	72.7538	4,141.11	69.0688	4,141.11	69.4087	4,141.11	67.8783	4,141.11	66.3537	4,141.11	65.3244	4,141.11	65.1014	4,141.11	63.8907	4,141.11	62.4196	4,141.11	62.1054	4,141.11	61.4602	4,141.11	59.7049	4,141.11	60.8354	4,141.11	62.8095	4,141.11	62.5471	4,141.11	61.8582	4,141.11	61.747	4,141.11	63.2827	4,141.11	64.1821	4,141.11	57.6086	4,141.11	56.776	4,141.11	57.7931
4,287.6	82.4669	4,287.6	82.4452	4,287.6	82.5549	4,287.6	81.8374	4,287.6	81.7505	4,287.6	80.485	4,287.6	80.802	4,287.6	78.606	4,287.6	78.797	4,287.6	76.5664	4,287.6	75.9474	4,287.6	73.5098	4,287.6	74.6638	4,287.6	71.388	4,287.6	72.967	4,287.6	68.8792	4,287.6	68.834	4,287.6	67.2528	4,287.6	68.2123	4,287.6	64.1586	4,287.6	64.3676	4,287.6	60.9211	4,287.6	64.1847	4,287.6	62.5059	4,287.6	61.096	4,287.6	58.986	4,287.6	61.9671	4,287.6	61.9787	4,287.6	62.3351	4,287.6	62.093	4,287.6	62.0288	4,287.6	62.2125	4,287.6	62.6647	4,287.6	52.2865	4,287.6	57.8274	4,287.6	56.4037
4,438.48	82.5477	4,438.48	82.1618	4,438.48	82.2277	4,438.48	82.0088	4,438.48	81.4894	4,438.48	80.0694	4,438.48	79.9985	4,438.48	77.76	4,438.48	78.493	4,438.48	75.5983	4,438.48	76.2447	4,438.48	73.7373	4,438.48	73.6735	4,438.48	71.3784	4,438.48	71.7347	4,438.48	69.1847	4,438.48	68.8227	4,438.48	65.5344	4,438.48	67.0893	4,438.48	63.022	4,438.48	64.7208	4,438.48	62.9778	4,438.48	62.224	4,438.48	62.4525	4,438.48	61.0566	4,438.48	62.5761	4,438.48	60.6889	4,438.48	62.6484	4,438.48	61.3954	4,438.48	62.0399	4,438.48	61.0724	4,438.48	63.3322	4,438.48	61.8816	4,438.48	53.3557	4,438.48	56.1914	4,438.48	54.9933
4,595.21	82.993	4,595.21	82.9501	4,595.21	82.8386	4,595.21	81.6397	4,595.21	82.1719	4,595.21	80.4508	4,595.21	80.5469	4,595.21	78.2489	4,595.21	79.0399	4,595.21	75.6287	4,595.21	77.1523	4,595.21	73.5678	4,595.21	74.9593	4,595.21	71.8629	4,595.21	71.6982	4,595.21	68.1935	4,595.21	69.8881	4,595.21	66.6761	4,595.21	67.9939	4,595.21	65.748	4,595.21	66.1804	4,595.21	63.05	4,595.21	64.4451	4,595.21	59.9841	4,595.21	62.9681	4,595.21	63.1869	4,595.21	61.4692	4,595.21	62.8363	4,595.21	62.4527	4,595.21	61.5095	4,595.21	63.3157	4,595.21	62.9386	4,595.21	64.6595	4,595.21	57.0248	4,595.21	55.7468	4,595.21	54.9924
4,756.35	82.2612	4,756.35	81.9728	4,756.35	82.616	4,756.35	81.3147	4,756.35	81.4518	4,756.35	79.8189	4,756.35	80.369	4,756.35	78.0429	4,756.35	78.4205	4,756.35	76.2475	4,756.35	76.1235	4,756.35	73.6817	4,756.35	74.612	4,756.35	71.6584	4,756.35	72.1053	4,756.35	70.2434	4,756.35	69.6161	4,756.35	67.2122	4,756.35	67.8768	4,756.35	68.169	4,756.35	65.5216	4,756.35	63.8444	4,756.35	62.794	4,756.35	62.7156	4,756.35	61.8974	4,756.35	62.0725	4,756.35	61.7156	4,756.35	64.2467	4,756.35	62.5675	4,756.35	63.8827	4,756.35	62.8747	4,756.35	64.3013	4,756.35	62.1417	4,756.35	56.8327	4,756.35	55.7333	4,756.35	55.1424
4,924.8	83.3303	4,924.8	82.9862	4,924.8	83.1517	4,924.8	82.5171	4,924.8	82.1988	4,924.8	80.8214	4,924.8	80.9667	4,924.8	79.7262	4,924.8	79.1372	4,924.8	77.5726	4,924.8	77.5063	4,924.8	75.7854	4,924.8	75.4146	4,924.8	73.3538	4,924.8	73.2361	4,924.8	70.9463	4,924.8	72.1644	4,924.8	66.8125	4,924.8	68.6063	4,924.8	65.4631	4,924.8	66.6805	4,924.8	65.4735	4,924.8	64.0669	4,924.8	62.864	4,924.8	63.1552	4,924.8	62.8162	4,924.8	61.9385	4,924.8	62.0869	4,924.8	61.9504	4,924.8	63.747	4,924.8	63.538	4,924.8	64.5625	4,924.8	62.3224	4,924.8	57.0573	4,924.8	57.9697	4,924.8	52.9013
5,097.66	82.2212	5,097.66	82.0317	5,097.66	81.9302	5,097.66	80.8131	5,097.66	81.1322	5,097.66	79.8177	5,097.66	79.6532	5,097.66	77.9823	5,097.66	78.5452	5,097.66	76.5171	5,097.66	77.2161	5,097.66	74.8025	5,097.66	75.3697	5,097.66	73.7183	5,097.66	72.9232	5,097.66	70.1879	5,097.66	70.5396	5,097.66	68.8029	5,097.66	67.3867	5,097.66	63.0437	5,097.66	65.3159	5,097.66	65.1487	5,097.66	63.8863	5,097.66	63.1199	5,097.66	60.2142	5,097.66	63.2197	5,097.66	60.4285	5,097.66	63.4801	5,097.66	60.857	5,097.66	64.2035	5,097.66	62.8843	5,097.66	62.5137	5,097.66	61.8789	5,097.66	57.2375	5,097.66	56.9031	5,097.66	53.7988
5,277.83	83.2339	5,277.83	82.988	5,277.83	82.8673	5,277.83	81.7198	5,277.83	81.6729	5,277.83	80.617	5,277.83	80.5045	5,277.83	79.2697	5,277.83	79.0172	5,277.83	77.6822	5,277.83	77.1483	5,277.83	76.1962	5,277.83	75.7678	5,277.83	74.0708	5,277.83	73.408	5,277.83	70.3419	5,277.83	68.7065	5,277.83	68.954	5,277.83	67.597	5,277.83	67.4148	5,277.83	64.2715	5,277.83	63.7156	5,277.83	62.9986	5,277.83	59.4676	5,277.83	61.8209	5,277.83	59.5536	5,277.83	59.9516	5,277.83	63.1215	5,277.83	61.0315	5,277.83	63.2286	5,277.83	63.2062	5,277.83	62.905	5,277.83	60.9261	5,277.83	57.4894	5,277.83	57.6656	5,277.83	53.5931
5,463.87	82.4723	5,463.87	82.1921	5,463.87	82.583	5,463.87	80.7683	5,463.87	81.3135	5,463.87	79.2595	5,463.87	80.1104	5,463.87	78.9563	5,463.87	78.9023	5,463.87	76.8198	5,463.87	77.4673	5,463.87	74.7879	5,463.87	75.1012	5,463.87	69.3656	5,463.87	72.1556	5,463.87	68.7563	5,463.87	70.3054	5,463.87	63.9745	5,463.87	65.6514	5,463.87	65.6861	5,463.87	64.2899	5,463.87	60.6034	5,463.87	61.4343	5,463.87	60.5256	5,463.87	60.3861	5,463.87	55.1744	5,463.87	60.816	5,463.87	57.1902	5,463.87	59.6969	5,463.87	61.6915	5,463.87	62.4129	5,463.87	60.5886	5,463.87	60.8089	5,463.87	54.2949	5,463.87	56.4109	5,463.87	51.2249
5,657.23	82.324	5,657.23	81.905	5,657.23	82.0192	5,657.23	80.9366	5,657.23	81.2779	5,657.23	80.157	5,657.23	79.6877	5,657.23	79.1908	5,657.23	79.2006	5,657.23	77.4254	5,657.23	77.7297	5,657.23	74.3689	5,657.23	74.8984	5,657.23	72.5037	5,657.23	72.8805	5,657.23	69.3119	5,657.23	68.7368	5,657.23	66.295	5,657.23	65.3127	5,657.23	58.0354	5,657.23	62.4112	5,657.23	59.0514	5,657.23	60.0421	5,657.23	59.3433	5,657.23	59.9001	5,657.23	59.9053	5,657.23	55.7336	5,657.23	58.9159	5,657.23	57.7061	5,657.23	62.8196	5,657.23	61.6222	5,657.23	60.5339	5,657.23	59.2888	5,657.23	57.7067	5,657.23	56.4044	5,657.23	54.1758
5,856.45	82.7203	5,856.45	82.355	5,856.45	82.4911	5,856.45	81.6953	5,856.45	81.4522	5,856.45	80.6901	5,856.45	80.7788	5,856.45	79.0171	5,856.45	79.1934	5,856.45	76.5175	5,856.45	76.4729	5,856.45	72.8562	5,856.45	74.2277	5,856.45	71.3446	5,856.45	70.9801	5,856.45	65.6713	5,856.45	65.3881	5,856.45	64.361	5,856.45	65.5934	5,856.45	62.4984	5,856.45	61.5571	5,856.45	59.2914	5,856.45	60.9297	5,856.45	59.4269	5,856.45	60.2849	5,856.45	58.097	5,856.45	58.5525	5,856.45	59.3459	5,856.45	60.2787	5,856.45	62.3326	5,856.45	61.9575	5,856.45	59.7073	5,856.45	60.4444	5,856.45	56.5451	5,856.45	58.6684	5,856.45	50.7928
6,062.99	83.0299	6,062.99	82.7434	6,062.99	82.8592	6,062.99	81.8117	6,062.99	81.7089	6,062.99	80.1724	6,062.99	80.7581	6,062.99	78.6779	6,062.99	79.3506	6,062.99	75.2323	6,062.99	76.6311	6,062.99	72.2775	6,062.99	73.5365	6,062.99	66.8074	6,062.99	69.4559	6,062.99	66.5245	6,062.99	67.9951	6,062.99	63.0537	6,062.99	66.4553	6,062.99	63.6841	6,062.99	61.903	6,062.99	60.6078	6,062.99	61.6397	6,062.99	60.6574	6,062.99	59.2663	6,062.99	58.868	6,062.99	58.4339	6,062.99	57.5678	6,062.99	58.5101	6,062.99	61.5739	6,062.99	62.0337	6,062.99	58.6147	6,062.99	59.8648	6,062.99	55.7654	6,062.99	56.9698	6,062.99	52.5111
6,276.86	83.0948	6,276.86	82.5903	6,276.86	82.6235	6,276.86	81.3737	6,276.86	81.9372	6,276.86	79.9058	6,276.86	80.2182	6,276.86	78.392	6,276.86	78.9054	6,276.86	75.898	6,276.86	76.8969	6,276.86	72.9393	6,276.86	74.1298	6,276.86	70.2569	6,276.86	72.3779	6,276.86	67.4806	6,276.86	68.2151	6,276.86	65.9649	6,276.86	66.0972	6,276.86	62.0756	6,276.86	63.6195	6,276.86	61.3296	6,276.86	61.1177	6,276.86	59.8313	6,276.86	57.3839	6,276.86	62.4096	6,276.86	56.6948	6,276.86	59.7104	6,276.86	58.2081	6,276.86	62.1113	6,276.86	61.2951	6,276.86	59.4279	6,276.86	58.8259	6,276.86	56.9346	6,276.86	58.2861	6,276.86	53.0373
6,498.05	82.5629	6,498.05	82.0191	6,498.05	82.438	6,498.05	80.7703	6,498.05	81.1269	6,498.05	79.984	6,498.05	80.5458	6,498.05	78.4772	6,498.05	78.5684	6,498.05	76.3521	6,498.05	75.7401	6,498.05	72.7546	6,498.05	73.1587	6,498.05	71.5023	6,498.05	69.5096	6,498.05	67.484	6,498.05	67.7358	6,498.05	65.7108	6,498.05	65.1548	6,498.05	63.0454	6,498.05	63.0452	6,498.05	60.1172	6,498.05	60.1821	6,498.05	58.7536	6,498.05	58.9788	6,498.05	57.0669	6,498.05	59.1584	6,498.05	58.9491	6,498.05	59.095	6,498.05	61.9443	6,498.05	59.339	6,498.05	59.6928	6,498.05	60.0102	6,498.05	56.3191	6,498.05	57.7034	6,498.05	52.4527
6,726.56	82.9407	6,726.56	82.2454	6,726.56	82.3829	6,726.56	81.4647	6,726.56	81.5857	6,726.56	80.2615	6,726.56	80.4459	6,726.56	79.2655	6,726.56	79.4056	6,726.56	75.4691	6,726.56	76.9577	6,726.56	73.7503	6,726.56	73.4144	6,726.56	69.6369	6,726.56	70.703	6,726.56	67.6883	6,726.56	67.938	6,726.56	64.6823	6,726.56	65.5582	6,726.56	63.0062	6,726.56	63.9557	6,726.56	61.4996	6,726.56	62.6488	6,726.56	57.8073	6,726.56	58.4665	6,726.56	56.7855	6,726.56	57.0138	6,726.56	59.3664	6,726.56	57.7565	6,726.56	60.5684	6,726.56	60.8574	6,726.56	59.3465	6,726.56	59.1357	6,726.56	56.1275	6,726.56	57.2299	6,726.56	51.7439
6,963.87	82.6232	6,963.87	82.3646	6,963.87	82.4867	6,963.87	81.363	6,963.87	81.7886	6,963.87	80.4671	6,963.87	80.8863	6,963.87	78.633	6,963.87	79.1911	6,963.87	76.0043	6,963.87	76.8701	6,963.87	73.2569	6,963.87	74.685	6,963.87	70.4287	6,963.87	71.9818	6,963.87	67.9973	6,963.87	69.1126	6,963.87	65.1468	6,963.87	66.4542	6,963.87	61.9726	6,963.87	63.2753	6,963.87	61.2826	6,963.87	61.6903	6,963.87	57.1049	6,963.87	59.345	6,963.87	58.2627	6,963.87	58.7526	6,963.87	58.4188	6,963.87	60.3736	6,963.87	60.6557	6,963.87	60.0065	6,963.87	59.3017	6,963.87	60.5486	6,963.87	55.3548	6,963.87	57.8837	6,963.87	54.8624
7,209.96	82.133	7,209.96	81.9483	7,209.96	82.4811	7,209.96	81.2062	7,209.96	81.5468	7,209.96	80.1683	7,209.96	80.9974	7,209.96	78.5213	7,209.96	79.209	7,209.96	76.0319	7,209.96	76.4867	7,209.96	72.7339	7,209.96	74.0283	7,209.96	70.2274	7,209.96	71.5696	7,209.96	67.8477	7,209.96	67.9139	7,209.96	65.173	7,209.96	66.1247	7,209.96	63.3554	7,209.96	61.8084	7,209.96	59.2911	7,209.96	60.9929	7,209.96	58.1319	7,209.96	59.0168	7,209.96	57.3781	7,209.96	56.1987	7,209.96	59.3006	7,209.96	57.4868	7,209.96	60.6037	7,209.96	60.845	7,209.96	58.0868	7,209.96	59.9218	7,209.96	53.3695	7,209.96	55.8416	7,209.96	56.2363
7,464.84	82.5866	7,464.84	82.0404	7,464.84	82.3099	7,464.84	81.4247	7,464.84	81.7556	7,464.84	80.588	7,464.84	80.7068	7,464.84	78.6955	7,464.84	79.205	7,464.84	75.206	7,464.84	76.7013	7,464.84	74.0913	7,464.84	73.4608	7,464.84	71.8437	7,464.84	71.9352	7,464.84	68.0093	7,464.84	67.8383	7,464.84	65.185	7,464.84	66.251	7,464.84	63.2932	7,464.84	63.2952	7,464.84	60.1617	7,464.84	62.5156	7,464.84	59.7717	7,464.84	56.4517	7,464.84	57.8942	7,464.84	57.143	7,464.84	57.5456	7,464.84	59.6423	7,464.84	58.627	7,464.84	60.3787	7,464.84	59.2317	7,464.84	60.0463	7,464.84	52.8717	7,464.84	55.0909	7,464.84	57.0383
7,727.05	82.6918	7,727.05	82.4495	7,727.05	82.7045	7,727.05	81.9544	7,727.05	82.2702	7,727.05	80.6936	7,727.05	81.2258	7,727.05	78.8708	7,727.05	79.1296	7,727.05	76.4834	7,727.05	76.7189	7,727.05	73.8788	7,727.05	74.4977	7,727.05	71.4532	7,727.05	72.0015	7,727.05	68.1692	7,727.05	68.3756	7,727.05	66.0937	7,727.05	66.4065	7,727.05	63.5917	7,727.05	64.1122	7,727.05	60.6815	7,727.05	61.2008	7,727.05	59.4301	7,727.05	58.4888	7,727.05	56.2166	7,727.05	59.3083	7,727.05	57.2818	7,727.05	57.9777	7,727.05	59.9221	7,727.05	60.3804	7,727.05	59.8966	7,727.05	60.2729	7,727.05	54.9098	7,727.05	54.8696	7,727.05	56.1096
7,999.51	82.5379	7,999.51	82.548	7,999.51	82.6799	7,999.51	82.1246	7,999.51	82.5055	7,999.51	80.5502	7,999.51	81.2067	7,999.51	78.9497	7,999.51	79.4026	7,999.51	75.9644	7,999.51	77.1556	7,999.51	73.6287	7,999.51	74.7951	7,999.51	69.6257	7,999.51	71.8832	7,999.51	67.0208	7,999.51	67.3476	7,999.51	64.8545	7,999.51	65.2936	7,999.51	61.3328	7,999.51	62.7927	7,999.51	59.4185	7,999.51	60.4279	7,999.51	58.4234	7,999.51	59.2122	7,999.51	57.1104	7,999.51	54.2092	7,999.51	57.324	7,999.51	56.5001	7,999.51	59.0811	7,999.51	58.6953	7,999.51	58.4749	7,999.51	58.1312	7,999.51	51.8336	7,999.51	55.2194	7,999.51	55.3383
8,282.23	82.557	8,282.23	82.6376	8,282.23	82.7048	8,282.23	82.0193	8,282.23	82.491	8,282.23	80.4955	8,282.23	81.259	8,282.23	78.5763	8,282.23	79.1966	8,282.23	75.8039	8,282.23	76.9787	8,282.23	72.7609	8,282.23	74.2788	8,282.23	68.4886	8,282.23	70.9822	8,282.23	65.7871	8,282.23	67.5819	8,282.23	63.5788	8,282.23	64.6117	8,282.23	60.1389	8,282.23	62.064	8,282.23	58.3826	8,282.23	59.4063	8,282.23	54.7622	8,282.23	57.0533	8,282.23	57.53	8,282.23	55.8917	8,282.23	58.1508	8,282.23	57.3893	8,282.23	59.3024	8,282.23	59.0575	8,282.23	58.0328	8,282.23	57.6698	8,282.23	47.8487	8,282.23	51.3052	8,282.23	54.7488
8,573.73	82.6101	8,573.73	82.404	8,573.73	82.8159	8,573.73	82.1852	8,573.73	82.2943	8,573.73	80.4731	8,573.73	81.2648	8,573.73	78.4446	8,573.73	79.1341	8,573.73	75.6748	8,573.73	76.767	8,573.73	72.6982	8,573.73	73.7741	8,573.73	69.4808	8,573.73	70.7065	8,573.73	66.239	8,573.73	66.7659	8,573.73	63.8708	8,573.73	65.0192	8,573.73	61.2842	8,573.73	61.9069	8,573.73	59.0556	8,573.73	59.1014	8,573.73	54.2471	8,573.73	57.6778	8,573.73	52.332	8,573.73	54.1232	8,573.73	56.9883	8,573.73	54.4978	8,573.73	59.3205	8,573.73	57.8813	8,573.73	57.0493	8,573.73	58.0738	8,573.73	45.207	8,573.73	49.331	8,573.73	53.3695
8,876.95	82.4065	8,876.95	82.6599	8,876.95	82.9609	8,876.95	82.2024	8,876.95	82.6814	8,876.95	80.3515	8,876.95	81.0732	8,876.95	78.589	8,876.95	79.2633	8,876.95	75.4683	8,876.95	76.4727	8,876.95	72.6878	8,876.95	73.1676	8,876.95	69.6494	8,876.95	70.1368	8,876.95	65.9782	8,876.95	66.5636	8,876.95	62.892	8,876.95	64.3639	8,876.95	61.3173	8,876.95	61.1495	8,876.95	56.9882	8,876.95	58.6876	8,876.95	54.6948	8,876.95	55.5507	8,876.95	50.0993	8,876.95	52.7975	8,876.95	54.9735	8,876.95	54.4424	8,876.95	57.8069	8,876.95	58.6522	8,876.95	57.9382	8,876.95	57.7279	8,876.95	47.6363	8,876.95	45.8492	8,876.95	54.4752
9,188.96	82.8082	9,188.96	82.9052	9,188.96	83.1531	9,188.96	82.1569	9,188.96	82.6652	9,188.96	80.5259	9,188.96	81.3496	9,188.96	78.6463	9,188.96	79.3656	9,188.96	75.226	9,188.96	76.7158	9,188.96	71.8632	9,188.96	72.8311	9,188.96	67.8343	9,188.96	69.4327	9,188.96	65.0693	9,188.96	65.4113	9,188.96	63.1422	9,188.96	63.8613	9,188.96	60.7669	9,188.96	61.6872	9,188.96	57.6639	9,188.96	59.574	9,188.96	57.2075	9,188.96	55.5212	9,188.96	51.9896	9,188.96	53.5885	9,188.96	52.0822	9,188.96	53.4743	9,188.96	57.3356	9,188.96	56.7187	9,188.96	57.2656	9,188.96	57.1977	9,188.96	48.5678	9,188.96	46.4958	9,188.96	54.3926
9,514.16	82.5111	9,514.16	82.8476	9,514.16	83.0257	9,514.16	82.3465	9,514.16	82.8204	9,514.16	80.3761	9,514.16	81.2138	9,514.16	78.7112	9,514.16	79.1062	9,514.16	74.7213	9,514.16	76.5083	9,514.16	71.8031	9,514.16	72.9493	9,514.16	67.5931	9,514.16	70.4514	9,514.16	65.2692	9,514.16	66.9836	9,514.16	64.0992	9,514.16	64.0564	9,514.16	58.9447	9,514.16	60.643	9,514.16	57.5934	9,514.16	58.739	9,514.16	55.8024	9,514.16	55.7728	9,514.16	52.3483	9,514.16	50.0202	9,514.16	52.1604	9,514.16	53.19	9,514.16	56.9537	9,514.16	56.3782	9,514.16	56.0903	9,514.16	57.1392	9,514.16	47.6969	9,514.16	47.1815	9,514.16	54.3077
9,849.61	82.6803	9,849.61	82.9377	9,849.61	83.168	9,849.61	82.1814	9,849.61	82.6532	9,849.61	80.161	9,849.61	81.1335	9,849.61	77.831	9,849.61	78.7257	9,849.61	74.2136	9,849.61	75.7417	9,849.61	70.8079	9,849.61	72.3971	9,849.61	67.4603	9,849.61	69.9816	9,849.61	64.1637	9,849.61	65.4331	9,849.61	62.2073	9,849.61	62.6488	9,849.61	58.6097	9,849.61	59.892	9,849.61	57.3086	9,849.61	58.3063	9,849.61	52.6407	9,849.61	54.5698	9,849.61	50.6848	9,849.61	51.25	9,849.61	50.7583	9,849.61	52.56	9,849.61	55.9787	9,849.61	55.8297	9,849.61	55.5864	9,849.61	56.0697	9,849.61	45.7909	9,849.61	44.1354	9,849.61	53.1511
10,196.8	82.6078	10,196.8	82.9248	10,196.8	83.0018	10,196.8	81.9817	10,196.8	82.4019	10,196.8	79.9907	10,196.8	80.6569	10,196.8	77.5263	10,196.8	78.2691	10,196.8	73.2931	10,196.8	74.7798	10,196.8	70.2939	10,196.8	71.5612	10,196.8	66.8772	10,196.8	68.3455	10,196.8	63.8272	10,196.8	64.4102	10,196.8	59.781	10,196.8	61.5641	10,196.8	57.1506	10,196.8	59.1584	10,196.8	52.9978	10,196.8	56.4814	10,196.8	49.9812	10,196.8	50.989	10,196.8	49.1098	10,196.8	48.587	10,196.8	51.6548	10,196.8	50.4921	10,196.8	55.6883	10,196.8	54.4172	10,196.8	54.013	10,196.8	54.0996	10,196.8	44.4768	10,196.8	45.7332	10,196.8	52.1085
10,555.7	82.5259	10,555.7	82.8195	10,555.7	82.8775	10,555.7	81.729	10,555.7	82.051	10,555.7	79.671	10,555.7	80.3738	10,555.7	76.987	10,555.7	77.8603	10,555.7	72.6499	10,555.7	74.201	10,555.7	69.3147	10,555.7	69.8807	10,555.7	65.4941	10,555.7	65.5648	10,555.7	61.738	10,555.7	63.1412	10,555.7	59.619	10,555.7	59.5423	10,555.7	56.62	10,555.7	58.1232	10,555.7	53.8717	10,555.7	55.2061	10,555.7	50.0232	10,555.7	50.5296	10,555.7	48.1564	10,555.7	47.7147	10,555.7	49.4701	10,555.7	48.0384	10,555.7	54.1856	10,555.7	52.6097	10,555.7	53.3033	10,555.7	53.9926	10,555.7	46.6908	10,555.7	45.2502	10,555.7	51.4418
10,927.7	82.4321	10,927.7	82.5909	10,927.7	82.7107	10,927.7	81.6485	10,927.7	81.8307	10,927.7	79.5998	10,927.7	80.1784	10,927.7	76.9292	10,927.7	77.3768	10,927.7	72.3112	10,927.7	73.937	10,927.7	69.3387	10,927.7	69.3669	10,927.7	64.4876	10,927.7	66.3252	10,927.7	61.7426	10,927.7	63.1695	10,927.7	59.6002	10,927.7	59.5511	10,927.7	55.7774	10,927.7	56.5974	10,927.7	55.4688	10,927.7	53.0355	10,927.7	50.3667	10,927.7	50.4139	10,927.7	48.706	10,927.7	48.5481	10,927.7	48.3599	10,927.7	46.9735	10,927.7	54.9594	10,927.7	51.6351	10,927.7	51.2493	10,927.7	53.7475	10,927.7	40.6104	10,927.7	43.7775	10,927.7	52.1278
11,313	82.645	11,313	82.5584	11,313	82.8315	11,313	81.5172	11,313	81.7322	11,313	79.262	11,313	79.9568	11,313	76.6349	11,313	77.0188	11,313	71.9964	11,313	73.1327	11,313	68.4054	11,313	69.0969	11,313	64.9985	11,313	65.9496	11,313	61.6697	11,313	61.6394	11,313	58.0981	11,313	57.8293	11,313	55.3603	11,313	56.1672	11,313	52.5566	11,313	55.1432	11,313	46.0763	11,313	50.244	11,313	45.73	11,313	46.9409	11,313	45.4928	11,313	46.117	11,313	54.3333	11,313	52.1315	11,313	52.2252	11,313	52.5857	11,313	42.0519	11,313	42.1489	11,313	49.9074
11,712.9	82.3432	11,712.9	82.6679	11,712.9	82.6856	11,712.9	81.4911	11,712.9	81.703	11,712.9	79.4624	11,712.9	80.0357	11,712.9	76.3479	11,712.9	76.492	11,712.9	71.5128	11,712.9	72.4152	11,712.9	68.3567	11,712.9	68.3473	11,712.9	64.6868	11,712.9	63.6798	11,712.9	61.23	11,712.9	60.4287	11,712.9	58.6193	11,712.9	57.4584	11,712.9	55.3988	11,712.9	56.5928	11,712.9	53.6564	11,712.9	52.2857	11,712.9	47.7687	11,712.9	49.1004	11,712.9	44.7527	11,712.9	48.027	11,712.9	46.2957	11,712.9	45.8062	11,712.9	52.7941	11,712.9	50.9604	11,712.9	51.1355	11,712.9	53.2416	11,712.9	35.1775	11,712.9	39.1163	11,712.9	49.7501
12,126	82.4278	12,126	82.5359	12,126	82.8065	12,126	81.6616	12,126	81.6415	12,126	79.5278	12,126	79.6877	12,126	76.0892	12,126	76.3179	12,126	71.3754	12,126	72.4599	12,126	68.9484	12,126	67.4821	12,126	63.5464	12,126	62.6261	12,126	61.5563	12,126	60.3626	12,126	58.717	12,126	56.8149	12,126	56.6659	12,126	55.3373	12,126	54.4175	12,126	51.6613	12,126	48.0035	12,126	50.9558	12,126	50.4696	12,126	48.8245	12,126	46.6953	12,126	40.4811	12,126	50.6675	12,126	50.0929	12,126	51.327	12,126	53.2663	12,126	41.8111	12,126	37.9699	12,126	49.1432
12,553.7	82.7285	12,553.7	82.666	12,553.7	82.7637	12,553.7	81.7242	12,553.7	81.6524	12,553.7	79.1613	12,553.7	79.7052	12,553.7	76.3176	12,553.7	76.0044	12,553.7	71.7301	12,553.7	72.318	12,553.7	68.9163	12,553.7	67.9724	12,553.7	65.0137	12,553.7	64.903	12,553.7	61.9837	12,553.7	61.167	12,553.7	59.446	12,553.7	58.1876	12,553.7	57.1042	12,553.7	54.9837	12,553.7	53.0028	12,553.7	53.5955	12,553.7	49.7898	12,553.7	52.0392	12,553.7	50.2872	12,553.7	49	12,553.7	50.1162	12,553.7	43.8517	12,553.7	53.1618	12,553.7	49.9887	12,553.7	52.1333	12,553.7	50.6133	12,553.7	45.1438	12,553.7	40.1012	12,553.7	49.5182
12,996.1	82.5459	12,996.1	82.4776	12,996.1	82.6168	12,996.1	81.6402	12,996.1	81.6003	12,996.1	79.4582	12,996.1	79.8175	12,996.1	77.1209	12,996.1	76.3988	12,996.1	72.2168	12,996.1	72.5925	12,996.1	69.8175	12,996.1	68.7664	12,996.1	65.642	12,996.1	63.7322	12,996.1	62.585	12,996.1	60.3949	12,996.1	59.8198	12,996.1	58.8261	12,996.1	57.8307	12,996.1	55.6468	12,996.1	54.3055	12,996.1	54.9246	12,996.1	50.8158	12,996.1	51.2647	12,996.1	51.4628	12,996.1	49.6733	12,996.1	49.083	12,996.1	42.3633	12,996.1	53.2427	12,996.1	50.1564	12,996.1	51.1795	12,996.1	52.9452	12,996.1	43.4091	12,996.1	42.5795	12,996.1	48.0566
13,454.6	82.6509	13,454.6	82.522	13,454.6	82.6669	13,454.6	81.7639	13,454.6	81.7731	13,454.6	80.1618	13,454.6	80.2822	13,454.6	77.592	13,454.6	76.9567	13,454.6	73.3567	13,454.6	73.4597	13,454.6	70.5656	13,454.6	69.2627	13,454.6	66.6826	13,454.6	64.8487	13,454.6	63.8375	13,454.6	61.8936	13,454.6	60.9901	13,454.6	59.6853	13,454.6	58.1051	13,454.6	55.9705	13,454.6	55.6427	13,454.6	55.0076	13,454.6	52.3356	13,454.6	53.4456	13,454.6	52.3154	13,454.6	52.7734	13,454.6	49.6496	13,454.6	43.1885	13,454.6	53.1564	13,454.6	49.8524	13,454.6	50.9663	13,454.6	52.8912	13,454.6	41.4411	13,454.6	41.9231	13,454.6	48.1973
13,929.2	82.795	13,929.2	82.4762	13,929.2	82.5584	13,929.2	82.0929	13,929.2	81.8463	13,929.2	80.4429	13,929.2	80.3236	13,929.2	78.021	13,929.2	77.1768	13,929.2	73.8294	13,929.2	73.7619	13,929.2	70.8474	13,929.2	69.4945	13,929.2	66.7453	13,929.2	66.1451	13,929.2	63.5514	13,929.2	62.2993	13,929.2	61.3303	13,929.2	60.5612	13,929.2	58.2149	13,929.2	56.0729	13,929.2	55.0501	13,929.2	56.1005	13,929.2	52.1078	13,929.2	53.5531	13,929.2	53.6788	13,929.2	50.3208	13,929.2	50.3745	13,929.2	40.8	13,929.2	51.6541	13,929.2	49.4221	13,929.2	50.3395	13,929.2	54.4137	13,929.2	46.3427	13,929.2	39.0825	13,929.2	47.1959
14,419.9	82.8159	14,419.9	82.3737	14,419.9	82.5845	14,419.9	82.2148	14,419.9	81.8529	14,419.9	80.5021	14,419.9	80.2863	14,419.9	78.1435	14,419.9	76.835	14,419.9	73.6639	14,419.9	73.3848	14,419.9	71.0148	14,419.9	69.8924	14,419.9	67.6164	14,419.9	66.8588	14,419.9	64.1737	14,419.9	62.1808	14,419.9	60.8943	14,419.9	60.6467	14,419.9	59.2958	14,419.9	57.375	14,419.9	54.4862	14,419.9	55.9242	14,419.9	53.7631	14,419.9	52.363	14,419.9	52.7997	14,419.9	51.5146	14,419.9	50.6715	14,419.9	44.3101	14,419.9	53.3432	14,419.9	47.7944	14,419.9	49.3443	14,419.9	53.3563	14,419.9	48.2008	14,419.9	40.1047	14,419.9	44.7554
14,928.2	82.4639	14,928.2	81.9815	14,928.2	82.0755	14,928.2	81.7653	14,928.2	81.4348	14,928.2	80.3781	14,928.2	80.2346	14,928.2	78.0399	14,928.2	76.9068	14,928.2	73.2625	14,928.2	73.5273	14,928.2	70.5719	14,928.2	69.7819	14,928.2	67.2406	14,928.2	66.4583	14,928.2	63.5719	14,928.2	63.0754	14,928.2	60.2415	14,928.2	60.3826	14,928.2	59.0174	14,928.2	56.7051	14,928.2	56.0362	14,928.2	55.3876	14,928.2	52.7525	14,928.2	53.1618	14,928.2	52.3034	14,928.2	49.6741	14,928.2	48.87	14,928.2	40.9215	14,928.2	51.4427	14,928.2	47.4031	14,928.2	47.5235	14,928.2	51.6633	14,928.2	46.2378	14,928.2	43.0763	14,928.2	47.0623
15,455.6	82.5667	15,455.6	82.1164	15,455.6	82.2256	15,455.6	81.5369	15,455.6	81.3537	15,455.6	80.1955	15,455.6	80.049	15,455.6	77.4854	15,455.6	76.7391	15,455.6	72.628	15,455.6	73.3317	15,455.6	69.8033	15,455.6	69.6842	15,455.6	65.7647	15,455.6	66.7633	15,455.6	63.0001	15,455.6	62.304	15,455.6	59.5006	15,455.6	59.7512	15,455.6	57.3733	15,455.6	56.8259	15,455.6	53.1547	15,455.6	55.0427	15,455.6	52.3175	15,455.6	52.5842	15,455.6	52.6999	15,455.6	45.7913	15,455.6	47.6904	15,455.6	39.7816	15,455.6	49.8377	15,455.6	45.3207	15,455.6	46.5139	15,455.6	51.527	15,455.6	49.1507	15,455.6	40.4249	15,455.6	44.497
16,000.5	82.6721	16,000.5	82.029	16,000.5	82.3252	16,000.5	81.6851	16,000.5	81.3669	16,000.5	79.8716	16,000.5	79.8977	16,000.5	77.1061	16,000.5	76.6026	16,000.5	71.5287	16,000.5	73.2733	16,000.5	69.1392	16,000.5	69.9775	16,000.5	65.5741	16,000.5	66.5413	16,000.5	62.2542	16,000.5	62.4885	16,000.5	59.4119	16,000.5	59.5891	16,000.5	56.3704	16,000.5	57.5984	16,000.5	53.2429	16,000.5	54.4747	16,000.5	52.6889	16,000.5	51.515	16,000.5	50.2938	16,000.5	39.5999	16,000.5	47.8047	16,000.5	39.7054	16,000.5	49.9253	16,000.5	42.317	16,000.5	47.5907	16,000.5	49.9324	16,000.5	50.2411	16,000.5	41.8422	16,000.5	42.1985
16,564.5	82.5348	16,564.5	81.9125	16,564.5	82.1274	16,564.5	81.3808	16,564.5	81.1267	16,564.5	79.411	16,564.5	79.7558	16,564.5	76.2585	16,564.5	76.5591	16,564.5	70.9049	16,564.5	73.4562	16,564.5	68.4436	16,564.5	69.9729	16,564.5	64.7994	16,564.5	66.7119	16,564.5	62.1235	16,564.5	63.2215	16,564.5	59.9795	16,564.5	59.3463	16,564.5	55.5739	16,564.5	57.4968	16,564.5	53.7763	16,564.5	54.0232	16,564.5	53.1514	16,564.5	51.9149	16,564.5	51.3459	16,564.5	38.3297	16,564.5	44.1594	16,564.5	37.7243	16,564.5	48.7274	16,564.5	44.3595	16,564.5	45.7144	16,564.5	48.7235	16,564.5	50.8863	16,564.5	43.2973	16,564.5	45.1732
17,148.9	82.2395	17,148.9	81.728	17,148.9	81.8377	17,148.9	80.6815	17,148.9	80.7398	17,148.9	78.6838	17,148.9	79.2666	17,148.9	75.454	17,148.9	76.1775	17,148.9	71.0213	17,148.9	73.4178	17,148.9	68.7798	17,148.9	70.0431	17,148.9	64.9505	17,148.9	66.3552	17,148.9	62.4092	17,148.9	62.3918	17,148.9	60.5947	17,148.9	58.3942	17,148.9	54.707	17,148.9	57.7817	17,148.9	54.6243	17,148.9	52.2209	17,148.9	51.9384	17,148.9	51.3483	17,148.9	50.2525	17,148.9	37.4969	17,148.9	43.792	17,148.9	35.9902	17,148.9	48.9476	17,148.9	40.5775	17,148.9	45.9288	17,148.9	46.788	17,148.9	49.9819	17,148.9	45.0467	17,148.9	43.9696
17,752.4	81.9355	17,752.4	81.2114	17,752.4	81.5996	17,752.4	80.252	17,752.4	80.444	17,752.4	78.0119	17,752.4	78.934	17,752.4	75.7392	17,752.4	76.008	17,752.4	72.3399	17,752.4	73.4615	17,752.4	70.516	17,752.4	69.79	17,752.4	66.2275	17,752.4	65.3086	17,752.4	63.5141	17,752.4	62.3021	17,752.4	60.6548	17,752.4	58.7651	17,752.4	56.0731	17,752.4	56.1178	17,752.4	55.271	17,752.4	51.717	17,752.4	52.2492	17,752.4	51.4362	17,752.4	50.9502	17,752.4	40.1314	17,752.4	44.2799	17,752.4	42.3129	17,752.4	48.4929	17,752.4	36.9766	17,752.4	46.2458	17,752.4	46.2513	17,752.4	50.6701	17,752.4	46.2792	17,752.4	43.925
18,379.4	81.6495	18,379.4	80.3689	18,379.4	81.535	18,379.4	79.2687	18,379.4	80.6427	18,379.4	77.6238	18,379.4	79.2581	18,379.4	76.7447	18,379.4	75.9157	18,379.4	73.8886	18,379.4	73.0281	18,379.4	71.8669	18,379.4	69.1408	18,379.4	66.8183	18,379.4	65.4514	18,379.4	64.1406	18,379.4	61.6965	18,379.4	61.8676	18,379.4	58.8448	18,379.4	55.8713	18,379.4	54.4449	18,379.4	56.0348	18,379.4	51.1815	18,379.4	52.9677	18,379.4	50.3739	18,379.4	51.1267	18,379.4	45.2088	18,379.4	43.6353	18,379.4	43.9819	18,379.4	48.6174	18,379.4	31.6304	18,379.4	46.192	18,379.4	46.7786	18,379.4	50.8556	18,379.4	46.884	18,379.4	42.7027
19,026.9	81.0568	19,026.9	79.7291	19,026.9	81.4649	19,026.9	77.5789	19,026.9	80.694	19,026.9	77.0268	19,026.9	78.9727	19,026.9	77.661	19,026.9	75.3541	19,026.9	74.7318	19,026.9	72.6266	19,026.9	72.2159	19,026.9	69.1521	19,026.9	66.5625	19,026.9	65.0101	19,026.9	64.1951	19,026.9	61.0742	19,026.9	61.4305	19,026.9	59.6488	19,026.9	56.5184	19,026.9	51.0357	19,026.9	55.7165	19,026.9	52.8174	19,026.9	51.9082	19,026.9	50.7802	19,026.9	47.9794	19,026.9	50.5492	19,026.9	43.7937	19,026.9	47.0884	19,026.9	47.6317	19,026.9	40.2534	19,026.9	47.5395	19,026.9	46.0241	19,026.9	51.5433	19,026.9	48.6792	19,026.9	41.9793
19,697.8	80.2569	19,697.8	78.2985	19,697.8	80.8071	19,697.8	76.7632	19,697.8	80.3328	19,697.8	76.7215	19,697.8	78.2686	19,697.8	78.0689	19,697.8	74.6917	19,697.8	74.543	19,697.8	72.1553	19,697.8	71.8641	19,697.8	69.1068	19,697.8	65.8319	19,697.8	66.2457	19,697.8	62.1699	19,697.8	59.6226	19,697.8	60.4074	19,697.8	59.3944	19,697.8	55.4413	19,697.8	51.0684	19,697.8	55.7212	19,697.8	54.0324	19,697.8	52.9476	19,697.8	50.6835	19,697.8	49.1678	19,697.8	52.7247	19,697.8	41.4832	19,697.8	50.2997	19,697.8	45.3884	19,697.8	45.5868	19,697.8	44.6258	19,697.8	45.4003	19,697.8	50.9659	19,697.8	50.812	19,697.8	43.4969
19,999.5	79.5568	19,999.5	77.5854	19,999.5	80.1342	19,999.5	76.4186	19,999.5	80.3104	19,999.5	76.2629	19,999.5	78.2425	19,999.5	77.872	19,999.5	74.7208	19,999.5	74.7314	19,999.5	71.9948	19,999.5	70.3039	19,999.5	68.3177	19,999.5	64.9485	19,999.5	64.8013	19,999.5	61.1544	19,999.5	60.0192	19,999.5	55.2821	19,999.5	55.9681	19,999.5	55.8529	19,999.5	56.5119	19,999.5	60.9277	19,999.5	56.9084	19,999.5	51.8466	19,999.5	47.9784	19,999.5	51.4622	19,999.5	59.3074	19,999.5	47.0981	19,999.5	50.5651	19,999.5	42.6808	19,999.5	48.7123	19,999.5	53.1228	19,999.5	49.7316	19,999.5	51.9436	19,999.5	52.644	19,999.5	47.4707
