"SPL Vertical"
"On-Axis"		"10°"		"-10°"		"20°"		"-20°"		"30°"		"-30°"		"40°"		"-40°"		"50°"		"-50°"		"60°"		"-60°"		"70°"		"-70°"		"80°"		"-80°"		"90°"		"-90°"		"100°"		"-100°"		"110°"		"-110°"		"120°"		"-120°"		"130°"		"-130°"		"140°"		"-140°"		"150°"		"-150°"		"160°"		"-160°"		"170°"		"-170°"		"180°"
"Frequency / Hz"	"Sound Pressure Level / dB (re 20 µPa/V)  [2.83  V @ 1. m]"	"Frequency / Hz"	"Sound Pressure Level / dB (re 20 µPa/V)  [2.83  V @ 1. m]"	"Frequency / Hz"	"Sound Pressure Level / dB (re 20 µPa/V)  [2.83  V @ 1. m]"	"Frequency / Hz"	"Sound Pressure Level / dB (re 20 µPa/V)  [2.83  V @ 1. m]"	"Frequency / Hz"	"Sound Pressure Level / dB (re 20 µPa/V)  [2.83  V @ 1. m]"	"Frequency / Hz"	"Sound Pressure Level / dB (re 20 µPa/V)  [2.83  V @ 1. m]"	"Frequency / Hz"	"Sound Pressure Level / dB (re 20 µPa/V)  [2.83  V @ 1. m]"	"Frequency / Hz"	"Sound Pressure Level / dB (re 20 µPa/V)  [2.83  V @ 1. m]"	"Frequency / Hz"	"Sound Pressure Level / dB (re 20 µPa/V)  [2.83  V @ 1. m]"	"Frequency / Hz"	"Sound Pressure Level / dB (re 20 µPa/V)  [2.83  V @ 1. m]"	"Frequency / Hz"	"Sound Pressure Level / dB (re 20 µPa/V)  [2.83  V @ 1. m]"	"Frequency / Hz"	"Sound Pressure Level / dB (re 20 µPa/V)  [2.83  V @ 1. m]"	"Frequency / Hz"	"Sound Pressure Level / dB (re 20 µPa/V)  [2.83  V @ 1. m]"	"Frequency / Hz"	"Sound Pressure Level / dB (re 20 µPa/V)  [2.83  V @ 1. m]"	"Frequency / Hz"	"Sound Pressure Level / dB (re 20 µPa/V)  [2.83  V @ 1. m]"	"Frequency / Hz"	"Sound Pressure Level / dB (re 20 µPa/V)  [2.83  V @ 1. m]"	"Frequency / Hz"	"Sound Pressure Level / dB (re 20 µPa/V)  [2.83  V @ 1. m]"	"Frequency / Hz"	"Sound Pressure Level / dB (re 20 µPa/V)  [2.83  V @ 1. m]"	"Frequency / Hz"	"Sound Pressure Level / dB (re 20 µPa/V)  [2.83  V @ 1. m]"	"Frequency / Hz"	"Sound Pressure Level / dB (re 20 µPa/V)  [2.83  V @ 1. m]"	"Frequency / Hz"	"Sound Pressure Level / dB (re 20 µPa/V)  [2.83  V @ 1. m]"	"Frequency / Hz"	"Sound Pressure Level / dB (re 20 µPa/V)  [2.83  V @ 1. m]"	"Frequency / Hz"	"Sound Pressure Level / dB (re 20 µPa/V)  [2.83  V @ 1. m]"	"Frequency / Hz"	"Sound Pressure Level / dB (re 20 µPa/V)  [2.83  V @ 1. m]"	"Frequency / Hz"	"Sound Pressure Level / dB (re 20 µPa/V)  [2.83  V @ 1. m]"	"Frequency / Hz"	"Sound Pressure Level / dB (re 20 µPa/V)  [2.83  V @ 1. m]"	"Frequency / Hz"	"Sound Pressure Level / dB (re 20 µPa/V)  [2.83  V @ 1. m]"	"Frequency / Hz"	"Sound Pressure Level / dB (re 20 µPa/V)  [2.83  V @ 1. m]"	"Frequency / Hz"	"Sound Pressure Level / dB (re 20 µPa/V)  [2.83  V @ 1. m]"	"Frequency / Hz"	"Sound Pressure Level / dB (re 20 µPa/V)  [2.83  V @ 1. m]"	"Frequency / Hz"	"Sound Pressure Level / dB (re 20 µPa/V)  [2.83  V @ 1. m]"	"Frequency / Hz"	"Sound Pressure Level / dB (re 20 µPa/V)  [2.83  V @ 1. m]"	"Frequency / Hz"	"Sound Pressure Level / dB (re 20 µPa/V)  [2.83  V @ 1. m]"	"Frequency / Hz"	"Sound Pressure Level / dB (re 20 µPa/V)  [2.83  V @ 1. m]"	"Frequency / Hz"	"Sound Pressure Level / dB (re 20 µPa/V)  [2.83  V @ 1. m]"	"Frequency / Hz"	"Sound Pressure Level / dB (re 20 µPa/V)  [2.83  V @ 1. m]"
20.5078	35.5933	20.5078	37.8295	20.5078	32.6361	20.5078	39.5461	20.5078	28.7729	20.5078	40.8642	20.5078	25.709	20.5078	41.8586	20.5078	28.1506	20.5078	42.5797	20.5078	31.9647	20.5078	43.0669	20.5078	34.975	20.5078	43.3559	20.5078	37.3495	20.5078	43.4856	20.5078	39.3095	20.5078	43.5048	20.5078	40.9787	20.5078	43.4779	20.5078	42.4184	20.5078	43.4865	20.5078	43.6549	20.5078	43.6154	20.5078	44.6951	20.5078	43.9215	20.5078	45.5361	20.5078	44.4022	20.5078	46.1706	20.5078	44.9945	20.5078	46.5907	20.5078	45.6058	20.5078	46.7917	20.5078	46.1473	20.5078	46.775	20.5078	46.5518
21.9727	42.3004	21.9727	41.1478	21.9727	43.4085	21.9727	39.9887	21.9727	44.4496	21.9727	38.8822	21.9727	45.4126	21.9727	37.9152	21.9727	46.2935	21.9727	37.2096	21.9727	47.0926	21.9727	36.9158	21.9727	47.8126	21.9727	37.1647	21.9727	48.4564	21.9727	37.9776	21.9727	49.0268	21.9727	39.2304	21.9727	49.5256	21.9727	40.7281	21.9727	49.953	21.9727	42.2988	21.9727	50.3068	21.9727	43.8283	21.9727	50.5824	21.9727	45.2503	21.9727	50.7717	21.9727	46.5291	21.9727	50.8634	21.9727	47.6464	21.9727	50.8439	21.9727	48.5934	21.9727	50.6983	21.9727	49.3678	21.9727	50.412	21.9727	49.9718
23.4375	48.1975	23.4375	48.045	23.4375	48.4035	23.4375	47.9466	23.4375	48.6529	23.4375	47.8927	23.4375	48.9296	23.4375	47.8657	23.4375	49.2147	23.4375	47.8443	23.4375	49.4901	23.4375	47.8079	23.4375	49.7401	23.4375	47.7405	23.4375	49.952	23.4375	47.6327	23.4375	50.1163	23.4375	47.4842	23.4375	50.2259	23.4375	47.3049	23.4375	50.2761	23.4375	47.1177	23.4375	50.2633	23.4375	46.9585	23.4375	50.1848	23.4375	46.8732	23.4375	50.0378	23.4375	46.9063	23.4375	49.8195	23.4375	47.0836	23.4375	49.5284	23.4375	47.3992	23.4375	49.1665	23.4375	47.8158	23.4375	48.7433	23.4375	48.2807
24.9023	49.2608	24.9023	48.9872	24.9023	49.5772	24.9023	48.7629	24.9023	49.9225	24.9023	48.5855	24.9023	50.2776	24.9023	48.4448	24.9023	50.6216	24.9023	48.3259	24.9023	50.9346	24.9023	48.2125	24.9023	51.1988	24.9023	48.0905	24.9023	51.3999	24.9023	47.9502	24.9023	51.5269	24.9023	47.7885	24.9023	51.5723	24.9023	47.6107	24.9023	51.5318	24.9023	47.432	24.9023	51.4038	24.9023	47.2792	24.9023	51.1892	24.9023	47.1882	24.9023	50.8914	24.9023	47.1983	24.9023	50.5164	24.9023	47.34	24.9023	50.0734	24.9023	47.6223	24.9023	49.5765	24.9023	48.0275	24.9023	49.0475	24.9023	48.5175
26.3672	53.5799	26.3672	53.345	26.3672	53.8287	26.3672	53.1288	26.3672	54.0832	26.3672	52.9325	26.3672	54.3326	26.3672	52.754	26.3672	54.5645	26.3672	52.5889	26.3672	54.7666	26.3672	52.4319	26.3672	54.9271	26.3672	52.2786	26.3672	55.0356	26.3672	52.1265	26.3672	55.0841	26.3672	51.9763	26.3672	55.0669	26.3672	51.833	26.3672	54.981	26.3672	51.7061	26.3672	54.8266	26.3672	51.6101	26.3672	54.6068	26.3672	51.5626	26.3672	54.3275	26.3672	51.582	26.3672	53.9977	26.3672	51.6822	26.3672	53.6295	26.3672	51.8687	26.3672	53.2386	26.3672	52.1361	26.3672	52.8441	26.3672	52.4686
27.832	57.0596	27.832	56.8662	27.832	57.2627	27.832	56.6877	27.832	57.468	27.832	56.5272	27.832	57.6668	27.832	56.3857	27.832	57.849	27.832	56.2623	27.832	58.0047	27.832	56.1552	27.832	58.1241	27.832	56.0621	27.832	58.1988	27.832	55.9809	27.832	58.2221	27.832	55.9107	27.832	58.1899	27.832	55.8518	27.832	58.1012	27.832	55.806	27.832	57.9583	27.832	55.777	27.832	57.7668	27.832	55.7699	27.832	57.536	27.832	55.7908	27.832	57.2778	27.832	55.8463	27.832	57.0066	27.832	55.942	27.832	56.7378	27.832	56.0814	27.832	56.4861	27.832	56.2643
29.2969	58.9002	29.2969	58.7239	29.2969	59.0911	29.2969	58.5647	29.2969	59.2916	29.2969	58.4225	29.2969	59.4938	29.2969	58.2959	29.2969	59.6877	29.2969	58.1828	29.2969	59.8619	29.2969	58.0813	29.2969	60.0051	29.2969	57.9904	29.2969	60.107	29.2969	57.9098	29.2969	60.1594	29.2969	57.8408	29.2969	60.1572	29.2969	57.786	29.2969	60.0984	29.2969	57.7494	29.2969	59.9846	29.2969	57.7361	29.2969	59.8211	29.2969	57.7516	29.2969	59.6161	29.2969	57.8013	29.2969	59.3804	29.2969	57.8892	29.2969	59.1267	29.2969	58.017	29.2969	58.8682	29.2969	58.1841	29.2969	58.6176	29.2969	58.3865
30.7617	62.3772	30.7617	62.2184	30.7617	62.5511	30.7617	62.0782	30.7617	62.7342	30.7617	61.9582	30.7617	62.9184	30.7617	61.8584	30.7617	63.0945	30.7617	61.7776	30.7617	63.2526	30.7617	61.7143	30.7617	63.3833	30.7617	61.6672	30.7617	63.4784	30.7617	61.6352	30.7617	63.5317	30.7617	61.6181	30.7617	63.5397	30.7617	61.616	30.7617	63.5018	30.7617	61.6295	30.7617	63.4205	30.7617	61.66	30.7617	63.301	30.7617	61.7088	30.7617	63.1509	30.7617	61.7774	30.7617	62.9792	30.7617	61.8669	30.7617	62.7958	30.7617	61.9778	30.7617	62.6099	30.7617	62.1098	30.7617	62.4296	30.7617	62.2614
32.2266	65.1337	32.2266	64.9624	32.2266	65.3153	32.2266	64.8061	32.2266	65.501	32.2266	64.6677	32.2266	65.683	32.2266	64.5489	32.2266	65.8531	32.2266	64.4501	32.2266	66.0026	32.2266	64.3711	32.2266	66.1235	32.2266	64.3116	32.2266	66.209	32.2266	64.2713	32.2266	66.2541	32.2266	64.25	32.2266	66.2562	32.2266	64.248	32.2266	66.2152	32.2266	64.2657	32.2266	66.1336	32.2266	64.304	32.2266	66.0162	32.2266	64.3637	32.2266	65.8699	32.2266	64.4453	32.2266	65.7023	32.2266	64.5489	32.2266	65.5219	32.2266	64.6736	32.2266	65.3367	32.2266	64.818	32.2266	65.1538	32.2266	64.9793
33.6914	67.279	33.6914	67.0979	33.6914	67.466	33.6914	66.9278	33.6914	67.6527	33.6914	66.7727	33.6914	67.8318	33.6914	66.6352	33.6914	67.9955	33.6914	66.517	33.6914	68.136	33.6914	66.419	33.6914	68.2461	33.6914	66.3418	33.6914	68.3196	33.6914	66.2857	33.6914	68.3522	33.6914	66.2509	33.6914	68.3415	33.6914	66.2377	33.6914	68.2877	33.6914	66.2467	33.6914	68.1933	33.6914	66.2784	33.6914	68.0632	33.6914	66.3335	33.6914	67.904	33.6914	66.4125	33.6914	67.7239	33.6914	66.5155	33.6914	67.5312	33.6914	66.642	33.6914	67.3344	33.6914	66.7904	33.6914	67.1412	33.6914	66.9581
35.1562	69.9941	35.1562	69.8255	35.1562	70.1658	35.1562	69.6644	35.1562	70.3351	35.1562	69.5145	35.1562	70.496	35.1562	69.3783	35.1562	70.6419	35.1562	69.258	35.1562	70.766	35.1562	69.1551	35.1562	70.8622	35.1562	69.0708	35.1562	70.9249	35.1562	69.0061	35.1562	70.9504	35.1562	68.9619	35.1562	70.9363	35.1562	68.939	35.1562	70.8828	35.1562	68.9384	35.1562	70.7918	35.1562	68.9611	35.1562	70.6675	35.1562	69.0079	35.1562	70.5157	35.1562	69.0795	35.1562	70.3434	35.1562	69.176	35.1562	70.1583	35.1562	69.2968	35.1562	69.9684	35.1562	69.4402	35.1562	69.781	35.1562	69.6031
36.6211	72.1777	36.6211	72.0269	36.6211	72.3312	36.6211	71.8832	36.6211	72.4828	36.6211	71.7502	36.6211	72.627	36.6211	71.6308	36.6211	72.7581	36.6211	71.5274	36.6211	72.8705	36.6211	71.4418	36.6211	72.9591	36.6211	71.3754	36.6211	73.0193	36.6211	71.3294	36.6211	73.0482	36.6211	71.3043	36.6211	73.0441	36.6211	71.3008	36.6211	73.0072	36.6211	71.3189	36.6211	72.9395	36.6211	71.3584	36.6211	72.8445	36.6211	71.419	36.6211	72.7269	36.6211	71.4995	36.6211	72.5919	36.6211	71.5989	36.6211	72.4451	36.6211	71.7151	36.6211	72.2922	36.6211	71.8459	36.6211	72.1383	36.6211	71.9882
38.0859	72.9554	38.0859	72.8049	38.0859	73.1094	38.0859	72.6624	38.0859	73.2617	38.0859	72.5316	38.0859	73.407	38.0859	72.4157	38.0859	73.5392	38.0859	72.3172	38.0859	73.6526	38.0859	72.2383	38.0859	73.7418	38.0859	72.1806	38.0859	73.8023	38.0859	72.1452	38.0859	73.8312	38.0859	72.1326	38.0859	73.8273	38.0859	72.1428	38.0859	73.7914	38.0859	72.175	38.0859	73.7263	38.0859	72.2282	38.0859	73.6363	38.0859	72.3004	38.0859	73.5267	38.0859	72.3894	38.0859	73.403	38.0859	72.4926	38.0859	73.2706	38.0859	72.6074	38.0859	73.134	38.0859	72.7313	38.0859	72.9968	38.0859	72.8618
39.5508	74.7733	39.5508	74.5933	39.5508	74.9544	39.5508	74.4199	39.5508	75.1303	39.5508	74.2579	39.5508	75.2942	39.5508	74.111	39.5508	75.4394	39.5508	73.9819	39.5508	75.5593	39.5508	73.8728	39.5508	75.648	39.5508	73.7849	39.5508	75.701	39.5508	73.7192	39.5508	75.7149	39.5508	73.6762	39.5508	75.6888	39.5508	73.6562	39.5508	75.6233	39.5508	73.6594	39.5508	75.5215	39.5508	73.6857	39.5508	75.388	39.5508	73.7351	39.5508	75.2292	39.5508	73.8077	39.5508	75.0524	39.5508	73.9031	39.5508	74.8654	39.5508	74.0209	39.5508	74.6761	39.5508	74.1598	39.5508	74.4915	39.5508	74.3178
41.0156	76.7013	41.0156	76.549	41.0156	76.8533	41.0156	76.4007	41.0156	76.9998	41.0156	76.2603	41.0156	77.1356	41.0156	76.1307	41.0156	77.255	41.0156	76.0147	41.0156	77.3524	41.0156	75.9144	41.0156	77.4228	41.0156	75.8313	41.0156	77.4623	41.0156	75.7667	41.0156	77.4682	41.0156	75.7215	41.0156	77.4395	41.0156	75.6963	41.0156	77.3769	41.0156	75.6915	41.0156	77.2833	41.0156	75.7074	41.0156	77.1628	41.0156	75.7438	41.0156	77.0212	41.0156	75.8009	41.0156	76.8649	41.0156	75.8784	41.0156	76.7009	41.0156	75.9761	41.0156	76.536	41.0156	76.093	41.0156	76.3764	41.0156	76.2274
42.4805	78.2134	42.4805	78.0601	42.4805	78.3658	42.4805	77.9104	42.4805	78.5122	42.4805	77.7684	42.4805	78.6474	42.4805	77.6372	42.4805	78.7658	42.4805	77.5195	42.4805	78.8625	42.4805	77.4173	42.4805	78.9328	42.4805	77.3321	42.4805	78.9732	42.4805	77.2654	42.4805	78.9813	42.4805	77.2179	42.4805	78.9562	42.4805	77.1906	42.4805	78.8985	42.4805	77.1843	42.4805	78.8105	42.4805	77.1995	42.4805	78.6957	42.4805	77.2371	42.4805	78.5589	42.4805	77.2973	42.4805	78.4058	42.4805	77.3803	42.4805	78.2425	42.4805	77.4854	42.4805	78.0753	42.4805	77.6109	42.4805	77.9105	42.4805	77.754
43.9453	79.1886	43.9453	79.0505	43.9453	79.3237	43.9453	78.9137	43.9453	79.4514	43.9453	78.7822	43.9453	79.5672	43.9453	78.6595	43.9453	79.6667	43.9453	78.549	43.9453	79.7457	43.9453	78.4531	43.9453	79.8008	43.9453	78.3742	43.9453	79.8292	43.9453	78.3138	43.9453	79.8293	43.9453	78.273	43.9453	79.8008	43.9453	78.2527	43.9453	79.745	43.9453	78.253	43.9453	79.6645	43.9453	78.2739	43.9453	79.5629	43.9453	78.3148	43.9453	79.4448	43.9453	78.3749	43.9453	79.3153	43.9453	78.4528	43.9453	79.1793	43.9453	78.5471	43.9453	79.0413	43.9453	78.6556	43.9453	78.9057	43.9453	78.776
45.4102	79.7627	45.4102	79.6227	45.4102	79.8991	45.4102	79.4833	45.4102	80.0277	45.4102	79.3483	45.4102	80.1436	45.4102	79.2211	45.4102	80.2424	45.4102	79.1044	45.4102	80.3197	45.4102	79.001	45.4102	80.3718	45.4102	78.913	45.4102	80.396	45.4102	78.8424	45.4102	80.3905	45.4102	78.7908	45.4102	80.3553	45.4102	78.7594	45.4102	80.2915	45.4102	78.7492	45.4102	80.2021	45.4102	78.7607	45.4102	80.0909	45.4102	78.7938	45.4102	79.9629	45.4102	78.8483	45.4102	79.8233	45.4102	78.9231	45.4102	79.6775	45.4102	79.0166	45.4102	79.5306	45.4102	79.127	45.4102	79.3873	45.4102	79.2515
46.875	80.5183	46.875	80.3794	46.875	80.6533	46.875	80.241	46.875	80.78	46.875	80.107	46.875	80.8937	46.875	79.9808	46.875	80.9896	46.875	79.8653	46.875	81.0638	46.875	79.7629	46.875	81.1125	46.875	79.6756	46.875	81.1331	46.875	79.605	46.875	81.1241	46.875	79.5525	46.875	81.0854	46.875	79.5191	46.875	81.0185	46.875	79.5054	46.875	80.9261	46.875	79.5122	46.875	80.8122	46.875	79.5396	46.875	80.6818	46.875	79.5876	46.875	80.5403	46.875	79.6558	46.875	80.3932	46.875	79.7433	46.875	80.2458	46.875	79.8485	46.875	80.1031	46.875	79.9695
48.3398	81.1937	48.3398	81.0648	48.3398	81.3196	48.3398	80.9371	48.3398	81.4381	48.3398	80.8143	48.3398	81.545	48.3398	80.6997	48.3398	81.6359	48.3398	80.5962	48.3398	81.7069	48.3398	80.506	48.3398	81.7546	48.3398	80.4309	48.3398	81.7766	48.3398	80.3725	48.3398	81.7716	48.3398	80.3315	48.3398	81.7398	48.3398	80.3088	48.3398	81.6823	48.3398	80.3045	48.3398	81.602	48.3398	80.3186	48.3398	81.5025	48.3398	80.3511	48.3398	81.3882	48.3398	80.4013	48.3398	81.264	48.3398	80.4685	48.3398	81.1346	48.3398	80.5515	48.3398	81.0046	48.3398	80.6487	48.3398	80.878	48.3398	80.7584
51.2695	82.0626	51.2695	81.9434	51.2695	82.1783	51.2695	81.8244	51.2695	82.2863	51.2695	81.7092	51.2695	82.3826	51.2695	81.601	51.2695	82.4631	51.2695	81.5025	51.2695	82.5241	51.2695	81.4161	51.2695	82.5626	51.2695	81.3437	51.2695	82.5766	51.2695	81.2869	51.2695	82.5651	51.2695	81.2467	51.2695	82.5285	51.2695	81.2234	51.2695	82.4684	51.2695	81.2173	51.2695	82.3878	51.2695	81.2281	51.2695	82.2904	51.2695	81.2551	51.2695	82.1807	51.2695	81.2976	51.2695	82.0636	51.2695	81.3548	51.2695	81.9435	51.2695	81.4259	51.2695	81.8249	51.2695	81.5098	51.2695	81.7112	51.2695	81.6055
52.7344	82.3669	52.7344	82.2449	52.7344	82.485	52.7344	82.1235	52.7344	82.595	52.7344	82.0066	52.7344	82.6926	52.7344	81.8978	52.7344	82.7736	52.7344	81.8004	52.7344	82.8347	52.7344	81.7169	52.7344	82.8732	52.7344	81.6495	52.7344	82.8875	52.7344	81.5993	52.7344	82.8772	52.7344	81.5673	52.7344	82.843	52.7344	81.5536	52.7344	82.787	52.7344	81.5577	52.7344	82.7121	52.7344	81.5788	52.7344	82.6223	52.7344	81.6156	52.7344	82.5215	52.7344	81.6669	52.7344	82.4141	52.7344	81.731	52.7344	82.3038	52.7344	81.8065	52.7344	82.194	52.7344	81.8921	52.7344	82.0874	52.7344	81.9862
54.1992	82.6529	54.1992	82.5359	54.1992	82.764	54.1992	82.4171	54.1992	82.8648	54.1992	82.3008	54.1992	82.9513	54.1992	82.1907	54.1992	83.0201	54.1992	82.0905	54.1992	83.0682	54.1992	82.003	54.1992	83.0935	54.1992	81.9307	54.1992	83.0952	54.1992	81.8751	54.1992	83.0733	54.1992	81.8375	54.1992	83.0294	54.1992	81.8181	54.1992	82.9659	54.1992	81.8168	54.1992	82.8864	54.1992	81.8326	54.1992	82.795	54.1992	81.8643	54.1992	82.696	54.1992	81.9101	54.1992	82.5931	54.1992	81.9684	54.1992	82.4899	54.1992	82.0372	54.1992	82.3889	54.1992	82.1149	54.1992	82.2918	54.1992	82.2001
55.6641	82.9436	55.6641	82.8352	55.6641	83.0404	55.6641	82.7188	55.6641	83.1221	55.6641	82.5981	55.6641	83.1856	55.6641	82.4767	55.6641	83.2281	55.6641	82.3583	55.6641	83.2473	55.6641	82.2463	55.6641	83.2418	55.6641	82.1439	55.6641	83.2109	55.6641	82.0538	55.6641	83.1552	55.6641	81.9784	55.6641	83.0766	55.6641	81.9193	55.6641	82.9783	55.6641	81.8779	55.6641	82.8647	55.6641	81.8545	55.6641	82.7412	55.6641	81.8492	55.6641	82.6134	55.6641	81.8613	55.6641	82.4868	55.6641	81.89	55.6641	82.3659	55.6641	81.9344	55.6641	82.2542	55.6641	81.9937	55.6641	82.1542	55.6641	82.0671
58.5938	83.1239	58.5938	83.0273	58.5938	83.2074	58.5938	82.9206	58.5938	83.2751	58.5938	82.8066	58.5938	83.3246	58.5938	82.6886	58.5938	83.3535	58.5938	82.5694	58.5938	83.3601	58.5938	82.452	58.5938	83.343	58.5938	82.3392	58.5938	83.3015	58.5938	82.2335	58.5938	83.2358	58.5938	82.1371	58.5938	83.1472	58.5938	82.0521	58.5938	83.0379	58.5938	81.9805	58.5938	82.9115	58.5938	81.9239	58.5938	82.7727	58.5938	81.8842	58.5938	82.6268	58.5938	81.8634	58.5938	82.4801	58.5938	81.8633	58.5938	82.3386	58.5938	81.8857	58.5938	82.2085	58.5938	81.9317	58.5938	82.0949	58.5938	82.0018
60.0586	83.0106	60.0586	82.9112	60.0586	83.096	60.0586	82.8008	60.0586	83.1648	60.0586	82.6827	60.0586	83.2145	60.0586	82.5599	60.0586	83.243	60.0586	82.4358	60.0586	83.2485	60.0586	82.3134	60.0586	83.2299	60.0586	82.1956	60.0586	83.1864	60.0586	82.085	60.0586	83.1181	60.0586	81.9839	60.0586	83.0261	60.0586	81.8945	60.0586	82.9129	60.0586	81.8188	60.0586	82.7819	60.0586	81.7588	60.0586	82.6376	60.0586	81.7163	60.0586	82.4859	60.0586	81.6935	60.0586	82.333	60.0586	81.6923	60.0586	82.1855	60.0586	81.7147	60.0586	82.0498	60.0586	81.7619	60.0586	81.9313	60.0586	81.8345
62.9883	82.7848	62.9883	82.6938	62.9883	82.8682	62.9883	82.5981	62.9883	82.9413	62.9883	82.5005	62.9883	83.0018	62.9883	82.4039	62.9883	83.0472	62.9883	82.3112	62.9883	83.0755	62.9883	82.225	62.9883	83.0851	62.9883	82.1475	62.9883	83.0748	62.9883	82.0807	62.9883	83.0445	62.9883	82.0257	62.9883	82.9947	62.9883	81.9836	62.9883	82.9272	62.9883	81.955	62.9883	82.8443	62.9883	81.9402	62.9883	82.7496	62.9883	81.9394	62.9883	82.6468	62.9883	81.9528	62.9883	82.5399	62.9883	81.9808	62.9883	82.4333	62.9883	82.0234	62.9883	82.3308	62.9883	82.0806	62.9883	82.236	62.9883	82.1519
64.4531	82.7043	64.4531	82.6127	64.4531	82.7894	64.4531	82.5175	64.4531	82.8654	64.4531	82.4215	64.4531	82.9295	64.4531	82.3275	64.4531	82.9793	64.4531	82.2382	64.4531	83.0125	64.4531	82.1562	64.4531	83.027	64.4531	82.0838	64.4531	83.0219	64.4531	82.0227	64.4531	82.9969	64.4531	81.9741	64.4531	82.9527	64.4531	81.939	64.4531	82.891	64.4531	81.9178	64.4531	82.8144	64.4531	81.9106	64.4531	82.7262	64.4531	81.9174	64.4531	82.6301	64.4531	81.9382	64.4531	82.5297	64.4531	81.9728	64.4531	82.4287	64.4531	82.0208	64.4531	82.3306	64.4531	82.0818	64.4531	82.2384	64.4531	82.1548
67.3828	82.6216	67.3828	82.5239	67.3828	82.7138	67.3828	82.4242	67.3828	82.797	67.3828	82.326	67.3828	82.868	67.3828	82.2324	67.3828	82.9235	67.3828	82.1464	67.3828	82.961	67.3828	82.0706	67.3828	82.9788	67.3828	82.007	67.3828	82.976	67.3828	81.957	67.3828	82.953	67.3828	81.9216	67.3828	82.9112	67.3828	81.901	67.3828	82.8533	67.3828	81.895	67.3828	82.7823	67.3828	81.903	67.3828	82.702	67.3828	81.9241	67.3828	82.6156	67.3828	81.9573	67.3828	82.5266	67.3828	82.0016	67.3828	82.4375	67.3828	82.0559	67.3828	82.3506	67.3828	82.119	67.3828	82.2676	67.3828	82.19
68.8477	82.6457	68.8477	82.5438	68.8477	82.7407	68.8477	82.439	68.8477	82.8251	68.8477	82.335	68.8477	82.8952	68.8477	82.2354	68.8477	82.948	68.8477	82.1433	68.8477	82.9811	68.8477	82.0615	68.8477	82.9929	68.8477	81.9924	68.8477	82.9832	68.8477	81.9377	68.8477	82.9528	68.8477	81.8983	68.8477	82.9036	68.8477	81.8748	68.8477	82.8388	68.8477	81.8669	68.8477	82.7619	68.8477	81.8741	68.8477	82.6769	68.8477	81.8954	68.8477	82.5875	68.8477	81.9293	68.8477	82.4968	68.8477	81.9744	68.8477	82.4075	68.8477	82.0293	68.8477	82.3213	68.8477	82.0925	68.8477	82.2395	68.8477	82.1629
71.7773	82.7207	71.7773	82.6265	71.7773	82.8056	71.7773	82.5268	71.7773	82.8775	71.7773	82.4255	71.7773	82.9332	71.7773	82.3262	71.7773	82.9702	71.7773	82.2322	71.7773	82.9868	71.7773	82.1466	71.7773	82.982	71.7773	82.0716	71.7773	82.9563	71.7773	82.0092	71.7773	82.9111	71.7773	81.9604	71.7773	82.8488	71.7773	81.926	71.7773	82.7729	71.7773	81.9059	71.7773	82.6872	71.7773	81.8996	71.7773	82.5959	71.7773	81.9065	71.7773	82.5028	71.7773	81.9254	71.7773	82.4113	71.7773	81.9553	71.7773	82.324	71.7773	81.9954	71.7773	82.2428	71.7773	82.0447	71.7773	82.1688	71.7773	82.1026
74.707	82.6975	74.707	82.6064	74.707	82.7783	74.707	82.5085	74.707	82.8452	74.707	82.4079	74.707	82.8955	74.707	82.3083	74.707	82.9269	74.707	82.2134	74.707	82.9382	74.707	82.1264	74.707	82.9289	74.707	82.0499	74.707	82.8998	74.707	81.9861	74.707	82.8526	74.707	81.9362	74.707	82.79	74.707	81.9009	74.707	82.7152	74.707	81.8803	74.707	82.6322	74.707	81.8738	74.707	82.5446	74.707	81.8805	74.707	82.4558	74.707	81.8992	74.707	82.3688	74.707	81.9288	74.707	82.2857	74.707	81.9681	74.707	82.2081	74.707	82.0164	74.707	82.1369	74.707	82.0728
77.6367	82.6619	77.6367	82.5701	77.6367	82.743	77.6367	82.4713	77.6367	82.81	77.6367	82.3695	77.6367	82.8603	77.6367	82.2686	77.6367	82.8918	77.6367	82.1725	77.6367	82.9033	77.6367	82.0845	77.6367	82.8946	77.6367	82.0077	77.6367	82.8665	77.6367	81.9441	77.6367	82.8207	77.6367	81.8954	77.6367	82.7599	77.6367	81.8621	77.6367	82.6876	77.6367	81.8444	77.6367	82.6072	77.6367	81.8415	77.6367	82.5226	77.6367	81.8523	77.6367	82.437	77.6367	81.8755	77.6367	82.3531	77.6367	81.9095	77.6367	82.2727	77.6367	81.9527	77.6367	82.197	77.6367	82.0039	77.6367	82.1266	77.6367	82.0621
79.1016	82.6932	79.1016	82.6026	79.1016	82.7729	79.1016	82.5046	79.1016	82.8384	79.1016	82.4034	79.1016	82.8869	79.1016	82.3028	79.1016	82.9167	79.1016	82.2068	79.1016	82.9265	79.1016	82.1187	79.1016	82.9163	79.1016	82.0415	79.1016	82.8867	79.1016	81.9774	79.1016	82.8398	79.1016	81.9279	79.1016	82.7782	79.1016	81.8936	79.1016	82.7052	79.1016	81.8746	79.1016	82.6246	79.1016	81.8702	79.1016	82.54	79.1016	81.8795	79.1016	82.4546	79.1016	81.9011	79.1016	82.371	79.1016	81.9335	79.1016	82.291	79.1016	81.9753	79.1016	82.2158	79.1016	82.0253	79.1016	82.1462	79.1016	82.0825
82.0312	82.6708	82.0312	82.58	82.0312	82.7498	82.0312	82.4807	82.0312	82.8137	82.0312	82.3769	82.0312	82.8601	82.0312	82.2728	82.0312	82.887	82.0312	82.1721	82.0312	82.8933	82.0312	82.0787	82.0312	82.8791	82.0312	81.9957	82.0312	82.8449	82.0312	81.9254	82.0312	82.7926	82.0312	81.8696	82.0312	82.725	82.0312	81.8289	82.0312	82.6454	82.0312	81.8036	82.0312	82.5575	82.0312	81.7928	82.0312	82.4651	82.0312	81.7958	82.0312	82.3719	82.0312	81.8111	82.0312	82.2807	82.0312	81.8378	82.0312	82.1941	82.0312	81.8748	82.0312	82.1139	82.0312	81.9213	82.0312	82.0413	82.0312	81.9769
84.9609	82.4034	84.9609	82.308	84.9609	82.4927	84.9609	82.2106	84.9609	82.5721	84.9609	82.1155	84.9609	82.6383	84.9609	82.0264	84.9609	82.6889	84.9609	81.9469	84.9609	82.7223	84.9609	81.8799	84.9609	82.7384	84.9609	81.8275	84.9609	82.7378	84.9609	81.7908	84.9609	82.7225	84.9609	81.7704	84.9609	82.6947	84.9609	81.7656	84.9609	82.6567	84.9609	81.7755	84.9609	82.6107	84.9609	81.7989	84.9609	82.558	84.9609	81.8341	84.9609	82.4994	84.9609	81.8799	84.9609	82.4353	84.9609	81.9349	84.9609	82.3662	84.9609	81.9979	84.9609	82.2929	84.9609	82.0674	84.9609	82.2172	84.9609	82.1412
87.8906	82.4844	87.8906	82.3812	87.8906	82.5756	87.8906	82.2714	87.8906	82.6501	87.8906	82.1609	87.8906	82.7044	87.8906	82.0555	87.8906	82.7363	87.8906	81.9606	87.8906	82.7456	87.8906	81.8812	87.8906	82.7337	87.8906	81.8212	87.8906	82.7037	87.8906	81.7832	87.8906	82.66	87.8906	81.7683	87.8906	82.6081	87.8906	81.7757	87.8906	82.5533	87.8906	81.8034	87.8906	82.5003	87.8906	81.8477	87.8906	82.4521	87.8906	81.9043	87.8906	82.4099	87.8906	81.9684	87.8906	82.3727	87.8906	82.0353	87.8906	82.3378	87.8906	82.1008	87.8906	82.302	87.8906	82.1616	87.8906	82.2621	87.8906	82.2156
90.8203	82.5081	90.8203	82.4068	90.8203	82.5951	90.8203	82.2958	90.8203	82.6636	90.8203	82.1803	90.8203	82.7104	90.8203	82.0656	90.8203	82.7336	90.8203	81.9572	90.8203	82.7327	90.8203	81.8604	90.8203	82.7088	90.8203	81.7798	90.8203	82.6647	90.8203	81.7196	90.8203	82.6051	90.8203	81.6823	90.8203	82.5357	90.8203	81.6689	90.8203	82.4625	90.8203	81.6786	90.8203	82.3915	90.8203	81.7086	90.8203	82.3268	90.8203	81.7546	90.8203	82.2706	90.8203	81.8117	90.8203	82.2226	90.8203	81.8744	90.8203	82.1804	90.8203	81.9375	90.8203	82.1402	90.8203	81.9971	90.8203	82.098	90.8203	82.0508
95.2148	82.7714	95.2148	82.6644	95.2148	82.8561	95.2148	82.5403	95.2148	82.9143	95.2148	82.4049	95.2148	82.9433	95.2148	82.2646	95.2148	82.942	95.2148	82.1256	95.2148	82.9107	95.2148	81.9936	95.2148	82.8517	95.2148	81.874	95.2148	82.7685	95.2148	81.7709	95.2148	82.6662	95.2148	81.6878	95.2148	82.5509	95.2148	81.6264	95.2148	82.4296	95.2148	81.5874	95.2148	82.309	95.2148	81.5697	95.2148	82.1951	95.2148	81.5712	95.2148	82.092	95.2148	81.5887	95.2148	82.0019	95.2148	81.6183	95.2148	81.9248	95.2148	81.6566	95.2148	81.8586	95.2148	81.7005	95.2148	81.8007	95.2148	81.7485
98.1445	82.8167	98.1445	82.7244	98.1445	82.8876	98.1445	82.6145	98.1445	82.9342	98.1445	82.4913	98.1445	82.9547	98.1445	82.3597	98.1445	82.948	98.1445	82.225	98.1445	82.9146	98.1445	82.0926	98.1445	82.8558	98.1445	81.9678	98.1445	82.7743	98.1445	81.8553	98.1445	82.6736	98.1445	81.7594	98.1445	82.5587	98.1445	81.6831	98.1445	82.4351	98.1445	81.6278	98.1445	82.3089	98.1445	81.5937	98.1445	82.186	98.1445	81.5791	98.1445	82.0718	98.1445	81.5814	98.1445	81.9699	98.1445	81.5971	98.1445	81.8825	98.1445	81.6232	98.1445	81.8094	98.1445	81.6574	98.1445	81.749	98.1445	81.6991
101.074	82.5802	101.074	82.4832	101.074	82.6574	101.074	82.3705	101.074	82.7117	101.074	82.2467	101.074	82.7415	101.074	82.1174	101.074	82.7461	101.074	81.9882	101.074	82.7263	101.074	81.8645	101.074	82.6838	101.074	81.7517	101.074	82.6216	101.074	81.6542	101.074	82.5435	101.074	81.5755	101.074	82.4539	101.074	81.518	101.074	82.3573	101.074	81.4826	101.074	82.2582	101.074	81.4688	101.074	82.1605	101.074	81.4747	101.074	82.067	101.074	81.4976	101.074	81.9795	101.074	81.5339	101.074	81.8988	101.074	81.5803	101.074	81.8246	101.074	81.6338	101.074	81.7562	101.074	81.6926
105.469	82.528	105.469	82.4195	105.469	82.6133	105.469	82.2927	105.469	82.672	105.469	82.1535	105.469	82.7024	105.469	82.0089	105.469	82.704	105.469	81.8663	105.469	82.678	105.469	81.7328	105.469	82.6269	105.469	81.6148	105.469	82.5544	105.469	81.5172	105.469	82.4653	105.469	81.4433	105.469	82.3649	105.469	81.3943	105.469	82.259	105.469	81.3694	105.469	82.1528	105.469	81.3663	105.469	82.0508	105.469	81.3817	105.469	81.9561	105.469	81.4114	105.469	81.8703	105.469	81.4515	105.469	81.7937	105.469	81.4985	105.469	81.725	105.469	81.55	105.469	81.6626	105.469	81.6046
108.398	82.5991	108.398	82.4935	108.398	82.6818	108.398	82.3693	108.398	82.7386	108.398	82.232	108.398	82.7678	108.398	82.0878	108.398	82.7693	108.398	81.9432	108.398	82.744	108.398	81.8047	108.398	82.6939	108.398	81.6782	108.398	82.6223	108.398	81.5687	108.398	82.533	108.398	81.48	108.398	82.4304	108.398	81.4141	108.398	82.3194	108.398	81.3718	108.398	82.2047	108.398	81.3521	108.398	82.0907	108.398	81.3528	108.398	81.9811	108.398	81.3709	108.398	81.8787	108.398	81.4031	108.398	81.785	108.398	81.4464	108.398	81.7006	108.398	81.4984	108.398	81.6253	108.398	81.558
112.793	82.6764	112.793	82.5831	112.793	82.7475	112.793	82.4721	112.793	82.7937	112.793	82.3492	112.793	82.8139	112.793	82.2213	112.793	82.8085	112.793	82.0957	112.793	82.7796	112.793	81.9798	112.793	82.7307	112.793	81.8799	112.793	82.6667	112.793	81.8009	112.793	82.593	112.793	81.7454	112.793	82.5155	112.793	81.714	112.793	82.4391	112.793	81.705	112.793	82.3676	112.793	81.7155	112.793	82.3027	112.793	81.7417	112.793	82.2441	112.793	81.7795	112.793	82.1904	112.793	81.8253	112.793	82.1391	112.793	81.8761	112.793	82.0881	112.793	81.9293	112.793	82.0363	112.793	81.9831
117.188	82.4913	117.188	82.3773	117.188	82.5783	117.188	82.2411	117.188	82.635	117.188	82.0889	117.188	82.6594	117.188	81.9281	117.188	82.651	117.188	81.7673	117.188	82.6106	117.188	81.6152	117.188	82.541	117.188	81.4807	117.188	82.4467	117.188	81.3713	117.188	82.3343	117.188	81.2923	117.188	82.2117	117.188	81.2466	117.188	82.088	117.188	81.2335	117.188	81.972	117.188	81.2492	117.188	81.8708	117.188	81.2875	117.188	81.7884	117.188	81.3406	117.188	81.7249	117.188	81.4006	117.188	81.6768	117.188	81.4604	117.188	81.638	117.188	81.515	117.188	81.6016	117.188	81.5618
120.117	82.4977	120.117	82.3862	120.117	82.5834	120.117	82.2533	120.117	82.6398	120.117	82.1041	120.117	82.6646	120.117	81.9446	120.117	82.6565	120.117	81.7815	120.117	82.6158	120.117	81.622	120.117	82.5443	120.117	81.4737	120.117	82.4458	120.117	81.3438	120.117	82.3255	120.117	81.2386	120.117	82.1905	120.117	81.1626	120.117	82.0486	120.117	81.1173	120.117	81.9084	120.117	81.1017	120.117	81.7778	120.117	81.1117	120.117	81.6627	120.117	81.141	120.117	81.5664	120.117	81.1826	120.117	81.4887	120.117	81.2299	120.117	81.4262	120.117	81.2782	120.117	81.3737	120.117	81.3258
124.512	82.5277	124.512	82.421	124.512	82.6134	124.512	82.2983	124.512	82.6737	124.512	82.1652	124.512	82.7054	124.512	82.0272	124.512	82.7068	124.512	81.8899	124.512	82.6777	124.512	81.7588	124.512	82.62	124.512	81.6393	124.512	82.5375	124.512	81.5359	124.512	82.4355	124.512	81.4527	124.512	82.3205	124.512	81.3923	124.512	82.1995	124.512	81.3556	124.512	82.0795	124.512	81.3419	124.512	81.9667	124.512	81.3487	124.512	81.8657	124.512	81.3719	124.512	81.7786	124.512	81.4067	124.512	81.7053	124.512	81.4485	124.512	81.6435	124.512	81.4938	124.512	81.5899	124.512	81.5408
128.906	82.7215	128.906	82.615	128.906	82.8013	128.906	82.4873	128.906	82.8498	128.906	82.3444	128.906	82.8638	128.906	82.1923	128.906	82.8422	128.906	82.037	128.906	82.7855	128.906	81.8841	128.906	82.6963	128.906	81.7394	128.906	82.5792	128.906	81.6081	128.906	82.44	128.906	81.4951	128.906	82.2862	128.906	81.4043	128.906	82.126	128.906	81.3382	128.906	81.9684	128.906	81.297	128.906	81.8221	128.906	81.2786	128.906	81.6944	128.906	81.279	128.906	81.5897	128.906	81.2928	128.906	81.5088	128.906	81.3148	128.906	81.449	128.906	81.341	128.906	81.4049	128.906	81.3705
133.301	82.6408	133.301	82.5478	133.301	82.7065	133.301	82.4317	133.301	82.7423	133.301	82.2983	133.301	82.7477	133.301	82.154	133.301	82.7241	133.301	82.0051	133.301	82.6741	133.301	81.8575	133.301	82.6011	133.301	81.7164	133.301	82.509	133.301	81.5858	133.301	82.4013	133.301	81.469	133.301	82.2814	133.301	81.3687	133.301	82.1525	133.301	81.287	133.301	82.0177	133.301	81.2253	133.301	81.8809	133.301	81.1842	133.301	81.7466	133.301	81.1636	133.301	81.6198	133.301	81.1621	133.301	81.5051	133.301	81.1783	133.301	81.406	133.301	81.2109	133.301	81.3241	133.301	81.2593
139.16	82.0671	139.16	81.9486	139.16	82.1602	139.16	81.8109	139.16	82.2248	139.16	81.6625	139.16	82.2597	139.16	81.5139	139.16	82.2662	139.16	81.3765	139.16	82.2473	139.16	81.2608	139.16	82.2075	139.16	81.1751	139.16	82.1528	139.16	81.1243	139.16	82.09	139.16	81.1086	139.16	82.0254	139.16	81.1245	139.16	81.9647	139.16	81.1657	139.16	81.911	139.16	81.2244	139.16	81.8652	139.16	81.2932	139.16	81.826	139.16	81.3658	139.16	81.7903	139.16	81.4374	139.16	81.7548	139.16	81.5053	139.16	81.7165	139.16	81.5676	139.16	81.6731	139.16	81.6236
143.555	82.1376	143.555	82.0076	143.555	82.2389	143.555	81.8557	143.555	82.3068	143.555	81.6903	143.555	82.3387	143.555	81.5214	143.555	82.3343	143.555	81.3602	143.555	82.2953	143.555	81.2179	143.555	82.2265	143.555	81.105	143.555	82.1349	143.555	81.0294	143.555	82.03	143.555	80.9952	143.555	81.9226	143.555	81.0019	143.555	81.8235	143.555	81.0441	143.555	81.7416	143.555	81.1131	143.555	81.6818	143.555	81.1983	143.555	81.6443	143.555	81.289	143.555	81.6245	143.555	81.3762	143.555	81.6146	143.555	81.453	143.555	81.6056	143.555	81.5151	143.555	81.5895	143.555	81.5604
147.949	82.5654	147.949	82.4496	147.949	82.648	147.949	82.305	147.949	82.6937	147.949	82.1365	147.949	82.6997	147.949	81.9497	147.949	82.6645	147.949	81.751	147.949	82.5886	147.949	81.5483	147.949	82.4747	147.949	81.3509	147.949	82.3277	147.949	81.1697	147.949	82.1551	147.949	81.0157	147.949	81.9671	147.949	80.8986	147.949	81.7758	147.949	80.8245	147.949	81.5942	147.949	80.7943	147.949	81.4347	147.949	80.8028	147.949	81.3063	147.949	80.8401	147.949	81.2124	147.949	80.8936	147.949	81.1496	147.949	80.9509	147.949	81.1085	147.949	81.0026	147.949	81.077	147.949	81.0441
153.809	82.2125	153.809	82.0944	153.809	82.2946	153.809	81.946	153.809	82.3373	153.809	81.7746	153.809	82.3399	153.809	81.5885	153.809	82.304	153.809	81.397	153.809	82.2339	153.809	81.2091	153.809	82.1353	153.809	81.0334	153.809	82.0151	153.809	80.8777	153.809	81.8802	153.809	80.7486	153.809	81.7375	153.809	80.6507	153.809	81.5934	153.809	80.5868	153.809	81.4535	153.809	80.5568	153.809	81.3228	153.809	80.5579	153.809	81.2051	153.809	80.5847	153.809	81.1027	153.809	80.6301	153.809	81.0152	153.809	80.6865	153.809	80.9402	153.809	80.7477	153.809	80.8733	153.809	80.81
159.668	82.2474	159.668	82.1286	159.668	82.3332	159.668	81.9825	159.668	82.3822	159.668	81.8165	159.668	82.393	159.668	81.6389	159.668	82.3662	159.668	81.4584	159.668	82.3047	159.668	81.2833	159.668	82.2134	159.668	81.1216	159.668	82.0991	159.668	80.9802	159.668	81.9695	159.668	80.8649	159.668	81.8333	159.668	80.7802	159.668	81.6989	159.668	80.7288	159.668	81.5737	159.668	80.7112	159.668	81.463	159.668	80.7252	159.668	81.369	159.668	80.7657	159.668	81.2909	159.668	80.8253	159.668	81.2247	159.668	80.8957	159.668	81.1644	159.668	80.969	159.668	81.104	159.668	81.0393
165.527	82.3195	165.527	82.2089	165.527	82.396	165.527	82.0707	165.527	82.4344	165.527	81.9133	165.527	82.4331	165.527	81.746	165.527	82.3936	165.527	81.5784	165.527	82.3197	165.527	81.4192	165.527	82.2175	165.527	81.2755	165.527	82.0941	165.527	81.1527	165.527	81.9576	165.527	81.0542	165.527	81.8162	165.527	80.9816	165.527	81.6776	165.527	80.9355	165.527	81.5488	165.527	80.9149	165.527	81.4356	165.527	80.9174	165.527	81.3418	165.527	80.9391	165.527	81.2686	165.527	80.9743	165.527	81.2135	165.527	81.0162	165.527	81.1713	165.527	81.059	165.527	81.1351	165.527	81.0988
171.387	82.1946	171.387	82.0703	171.387	82.2802	171.387	81.9145	171.387	82.3235	171.387	81.7374	171.387	82.3243	171.387	81.551	171.387	82.2854	171.387	81.3684	171.387	82.2119	171.387	81.2013	171.387	82.1107	171.387	81.0593	171.387	81.9896	171.387	80.9485	171.387	81.8569	171.387	80.8713	171.387	81.7211	171.387	80.8271	171.387	81.59	171.387	80.8127	171.387	81.471	171.387	80.8237	171.387	81.3696	171.387	80.8547	171.387	81.2891	171.387	80.8996	171.387	81.2295	171.387	80.9519	171.387	81.1872	171.387	81.0051	171.387	81.1556	171.387	81.0536	171.387	81.1268	171.387	81.0941
177.246	82.1213	177.246	81.9982	177.246	82.2065	177.246	81.8421	177.246	82.2519	177.246	81.6612	177.246	82.2579	177.246	81.4664	177.246	82.2275	177.246	81.2713	177.246	82.1658	177.246	81.0901	177.246	82.079	177.246	80.9364	177.246	81.9744	177.246	80.8204	177.246	81.8592	177.246	80.7473	177.246	81.7398	177.246	80.7166	177.246	81.621	177.246	80.7223	177.246	81.5067	177.246	80.7554	177.246	81.4003	177.246	80.8052	177.246	81.3049	177.246	80.8619	177.246	81.2239	177.246	80.9174	177.246	81.1593	177.246	80.9664	177.246	81.1102	177.246	81.0069	177.246	81.0729	177.246	81.0407
183.105	82.0891	183.105	81.9679	183.105	82.1711	183.105	81.8132	183.105	82.2107	183.105	81.6326	183.105	82.2073	183.105	81.4356	183.105	82.1632	183.105	81.2337	183.105	82.0837	183.105	81.0391	183.105	81.9766	183.105	80.8649	183.105	81.8521	183.105	80.723	183.105	81.7215	183.105	80.6225	183.105	81.5953	183.105	80.5679	183.105	81.4818	183.105	80.558	183.105	81.3858	183.105	80.5863	183.105	81.3081	183.105	80.6427	183.105	81.2463	183.105	80.716	183.105	81.196	183.105	80.7957	183.105	81.1518	183.105	80.8739	183.105	81.1085	183.105	80.9455	183.105	81.0617	183.105	81.0081
188.965	81.9592	188.965	81.8351	188.965	82.0394	188.965	81.6729	188.965	82.0727	188.965	81.4813	188.965	82.0595	188.965	81.2704	188.965	82.0035	188.965	81.0519	188.965	81.9117	188.965	80.8384	188.965	81.794	188.965	80.6423	188.965	81.6622	188.965	80.4757	188.965	81.5284	188.965	80.349	188.965	81.4037	188.965	80.2696	188.965	81.296	188.965	80.2403	188.965	81.209	188.965	80.259	188.965	81.1414	188.965	80.3178	188.965	81.0884	188.965	80.4054	188.965	81.0432	188.965	80.509	188.965	80.9983	188.965	80.6166	188.965	80.9473	188.965	80.7186	188.965	80.8851	188.965	80.809
196.289	82.2312	196.289	82.0994	196.289	82.3142	196.289	81.9267	196.289	82.3428	196.289	81.7231	196.289	82.3149	196.289	81.4996	196.289	82.2319	196.289	81.2683	196.289	82.0993	196.289	81.0413	196.289	81.9267	196.289	80.8311	196.289	81.7274	196.289	80.6496	196.289	81.5178	196.289	80.5076	196.289	81.316	196.289	80.4131	196.289	81.1397	196.289	80.3697	196.289	81.0032	196.289	80.3756	196.289	80.9137	196.289	80.4235	196.289	80.8695	196.289	80.5013	196.289	80.8596	196.289	80.5946	196.289	80.867	196.289	80.6886	196.289	80.8735	196.289	80.7703	196.289	80.8642	196.289	80.8304
203.613	82.1275	203.613	82.014	203.613	82.1931	203.613	81.8577	203.613	82.2085	203.613	81.6663	203.613	82.1744	203.613	81.4502	203.613	82.0941	203.613	81.2212	203.613	81.9735	203.613	80.9923	203.613	81.821	203.613	80.7763	203.613	81.647	203.613	80.5852	203.613	81.4636	203.613	80.4294	203.613	81.2828	203.613	80.3162	203.613	81.116	203.613	80.2496	203.613	80.9724	203.613	80.2291	203.613	80.858	203.613	80.2497	203.613	80.775	203.613	80.3019	203.613	80.72	203.613	80.3738	203.613	80.6849	203.613	80.4521	203.613	80.6581	203.613	80.525	203.613	80.6276	203.613	80.5844
210.938	82.0742	210.938	81.9392	210.938	82.1602	210.938	81.7626	210.938	82.192	210.938	81.5549	210.938	82.1683	210.938	81.3277	210.938	82.0908	210.938	81.0941	210.938	81.9653	210.938	80.8669	210.938	81.801	210.938	80.6581	210.938	81.6102	210.938	80.4784	210.938	81.4075	210.938	80.3365	210.938	81.2081	210.938	80.2388	210.938	81.0258	210.938	80.1883	210.938	80.872	210.938	80.1835	210.938	80.7537	210.938	80.2184	210.938	80.673	210.938	80.2817	210.938	80.626	210.938	80.3597	210.938	80.6034	210.938	80.4377	210.938	80.5921	210.938	80.5038	210.938	80.5784	210.938	80.551
218.262	82.0486	218.262	81.9137	218.262	82.1356	218.262	81.7395	218.262	82.1702	218.262	81.5368	218.262	82.1511	218.262	81.3187	218.262	82.0813	218.262	81.0989	218.262	81.9672	218.262	80.8902	218.262	81.8183	218.262	80.7038	218.262	81.6464	218.262	80.5479	218.262	81.4643	218.262	80.428	218.262	81.2847	218.262	80.347	218.262	81.1193	218.262	80.3053	218.262	80.9774	218.262	80.3007	218.262	80.8656	218.262	80.3288	218.262	80.7864	218.262	80.3818	218.262	80.737	218.262	80.4497	218.262	80.7093	218.262	80.5212	218.262	80.6911	218.262	80.5857	218.262	80.6698	218.262	80.636
225.586	82.0119	225.586	81.869	225.586	82.1005	225.586	81.6806	225.586	82.1302	225.586	81.459	225.586	82.1005	225.586	81.219	225.586	82.0154	225.586	80.9767	225.586	81.8833	225.586	80.7482	225.586	81.7163	225.586	80.5475	225.586	81.5293	225.586	80.3852	225.586	81.3377	225.586	80.2684	225.586	81.1558	225.586	80.2001	225.586	80.9954	225.586	80.1798	225.586	80.865	225.586	80.2037	225.586	80.7699	225.586	80.2638	225.586	80.7113	225.586	80.349	225.586	80.6854	225.586	80.4451	225.586	80.6824	225.586	80.5372	225.586	80.6876	225.586	80.6124	225.586	80.6852	225.586	80.6622
232.91	82.0352	232.91	81.8911	232.91	82.1204	232.91	81.6976	232.91	82.1411	232.91	81.4682	232.91	82.0968	232.91	81.219	232.91	81.9919	232.91	80.9673	232.91	81.8356	232.91	80.7297	232.91	81.6413	232.91	80.5203	232.91	81.4249	232.91	80.3497	232.91	81.2031	232.91	80.2242	232.91	80.992	232.91	80.1463	232.91	80.8049	232.91	80.1155	232.91	80.6526	232.91	80.1282	232.91	80.5432	232.91	80.1776	232.91	80.4803	232.91	80.2529	232.91	80.4609	232.91	80.3397	232.91	80.4738	232.91	80.4218	232.91	80.5006	232.91	80.4846	232.91	80.5209	232.91	80.5182
241.699	82.0366	241.699	81.8802	241.699	82.1296	241.699	81.6687	241.699	82.1551	241.699	81.4145	241.699	82.1129	241.699	81.134	241.699	82.0075	241.699	80.8472	241.699	81.8474	241.699	80.5755	241.699	81.6453	241.699	80.3399	241.699	81.4173	241.699	80.1567	241.699	81.1804	241.699	80.0344	241.699	80.9507	241.699	79.9726	241.699	80.7405	241.699	79.9631	241.699	80.5589	241.699	79.9933	241.699	80.4124	241.699	80.0492	241.699	80.3064	241.699	80.1172	241.699	80.2444	241.699	80.1839	241.699	80.2238	241.699	80.2372	241.699	80.2337	241.699	80.2678	241.699	80.2564	241.699	80.2724
250.488	82.162	250.488	81.981	250.488	82.2796	250.488	81.7467	250.488	82.3276	250.488	81.473	250.488	82.3043	250.488	81.1759	250.488	82.2128	250.488	80.8731	250.488	82.0609	250.488	80.582	250.488	81.8607	250.488	80.3198	250.488	81.6284	250.488	80.102	250.488	81.3821	250.488	79.9416	250.488	81.1399	250.488	79.8466	250.488	80.9169	250.488	79.8173	250.488	80.7236	250.488	79.8455	250.488	80.5663	250.488	79.9153	250.488	80.4474	250.488	80.0068	250.488	80.3663	250.488	80.1001	250.488	80.3189	250.488	80.1796	250.488	80.296	250.488	80.2361	250.488	80.2843	250.488	80.2687
259.277	82.3396	259.277	82.1786	259.277	82.4439	259.277	81.9721	259.277	82.4842	259.277	81.734	259.277	82.4575	259.277	81.4792	259.277	82.3662	259.277	81.2222	259.277	82.2179	259.277	80.9747	259.277	82.0248	259.277	80.7455	259.277	81.8028	259.277	80.5405	259.277	81.568	259.277	80.3647	259.277	81.3349	259.277	80.2236	259.277	81.1147	259.277	80.1237	259.277	80.916	259.277	80.0707	259.277	80.7464	259.277	80.0659	259.277	80.6129	259.277	80.1039	259.277	80.5197	259.277	80.1711	259.277	80.4636	259.277	80.2494	259.277	80.4325	259.277	80.3209	259.277	80.4084	259.277	80.3744
268.066	82.1386	268.066	81.9617	268.066	82.246	268.066	81.7262	268.066	82.2782	268.066	81.4472	268.066	82.2353	268.066	81.144	268.066	82.1236	268.066	80.838	268.066	81.9558	268.066	80.5512	268.066	81.7505	268.066	80.3028	268.066	81.5298	268.066	80.1071	268.066	81.3152	268.066	79.9715	268.066	81.1229	268.066	79.8966	268.066	80.9603	268.066	79.878	268.066	80.8258	268.066	79.907	268.066	80.7134	268.066	79.9723	268.066	80.6182	268.066	80.0601	268.066	80.5392	268.066	80.1548	268.066	80.4779	268.066	80.2421	268.066	80.4334	268.066	80.312	268.066	80.3988	268.066	80.3622
276.855	82.1798	276.855	82.0021	276.855	82.2811	276.855	81.7607	276.855	82.2999	276.855	81.474	276.855	82.2364	276.855	81.1643	276.855	82.0965	276.855	80.8547	276.855	81.8921	276.855	80.5652	276.855	81.6408	276.855	80.3096	276.855	81.3658	276.855	80.0947	276.855	81.0947	276.855	79.9222	276.855	80.8549	276.855	79.7919	276.855	80.6668	276.855	79.7053	276.855	80.5372	276.855	79.6661	276.855	80.4579	276.855	79.677	276.855	80.4115	276.855	79.7351	276.855	80.3787	276.855	79.8292	276.855	80.3443	276.855	79.9418	276.855	80.2987	276.855	80.0548	276.855	80.2366	276.855	80.1552
287.109	82.3007	287.109	82.1324	287.109	82.3905	287.109	81.8931	287.109	82.399	287.109	81.5962	287.109	82.328	287.109	81.2614	287.109	82.1847	287.109	80.9154	287.109	81.9819	287.109	80.5889	287.109	81.7381	287.109	80.3108	287.109	81.4761	287.109	80.1004	287.109	81.2189	287.109	79.9608	287.109	80.9863	287.109	79.8799	287.109	80.7903	287.109	79.8382	287.109	80.6348	287.109	79.8183	287.109	80.5157	287.109	79.8119	287.109	80.4244	287.109	79.8197	287.109	80.3497	287.109	79.8468	287.109	80.2806	287.109	79.8963	287.109	80.2086	287.109	79.9656	287.109	80.13	287.109	80.0467
297.363	82.261	297.363	82.095	297.363	82.3412	297.363	81.8563	297.363	82.3283	297.363	81.5631	297.363	82.2215	297.363	81.2373	297.363	82.0267	297.363	80.9032	297.363	81.7572	297.363	80.5864	297.363	81.4356	297.363	80.312	297.363	81.0949	297.363	80.1024	297.363	80.7778	297.363	79.9731	297.363	80.5298	297.363	79.9293	297.363	80.3863	297.363	79.9643	297.363	80.359	297.363	80.0619	297.363	80.4303	297.363	80.2014	297.363	80.5613	297.363	80.3622	297.363	80.7069	297.363	80.5259	297.363	80.8294	297.363	80.6767	297.363	80.905	297.363	80.801	297.363	80.9238	297.363	80.8868
307.617	82.2555	307.617	82.0449	307.617	82.3854	307.617	81.77	307.617	82.4245	307.617	81.4547	307.617	82.3686	307.617	81.1285	307.617	82.2194	307.617	80.8215	307.617	81.9846	307.617	80.5572	307.617	81.6791	307.617	80.3446	307.617	81.3247	307.617	80.177	307.617	80.9486	307.617	80.0387	307.617	80.5825	307.617	79.9172	307.617	80.2614	307.617	79.8132	307.617	80.0215	307.617	79.7423	307.617	79.8916	307.617	79.726	307.617	79.8798	307.617	79.777	307.617	79.9621	307.617	79.887	307.617	80.0886	307.617	80.0274	307.617	80.2025	307.617	80.1588	307.617	80.2609	307.617	80.2447
319.336	82.1309	319.336	81.9151	319.336	82.2488	319.336	81.6082	319.336	82.2656	319.336	81.2225	319.336	82.1817	319.336	80.7802	319.336	82.0017	319.336	80.3192	319.336	81.7369	319.336	79.8966	319.336	81.4062	319.336	79.5802	319.336	81.0377	319.336	79.4223	319.336	80.6667	319.336	79.4277	319.336	80.3309	319.336	79.5481	319.336	80.0617	319.336	79.712	319.336	79.8768	319.336	79.8622	319.336	79.7794	319.336	79.974	319.336	79.7622	319.336	80.0504	319.336	79.8106	319.336	80.1051	319.336	79.9025	319.336	80.1458	319.336	80.0088	319.336	80.1666	319.336	80.0998	319.336	80.1542
329.59	81.9529	329.59	81.7426	329.59	82.0728	329.59	81.4515	329.59	82.0964	329.59	81.0924	329.59	82.0208	329.59	80.6828	329.59	81.8468	329.59	80.2455	329.59	81.5813	329.59	79.8121	329.59	81.2406	329.59	79.4254	329.59	80.8511	329.59	79.1367	329.59	80.4489	329.59	78.9892	329.59	80.0736	329.59	78.9949	329.59	79.7613	329.59	79.1239	329.59	79.5389	329.59	79.3197	329.59	79.4211	329.59	79.5273	329.59	79.4078	329.59	79.7102	329.59	79.482	329.59	79.8506	329.59	79.6112	329.59	79.9412	329.59	79.7553	329.59	79.9774	329.59	79.8783	329.59	79.956
341.309	82.1554	341.309	81.9218	341.309	82.2827	341.309	81.5944	341.309	82.297	341.309	81.1922	341.309	82.1977	341.309	80.7419	341.309	81.9895	341.309	80.2771	341.309	81.6837	341.309	79.8354	341.309	81.2987	341.309	79.4531	341.309	80.8621	341.309	79.1586	341.309	80.4109	341.309	78.9655	341.309	79.99	341.309	78.8703	341.309	79.6431	341.309	78.8558	341.309	79.4007	341.309	78.8996	341.309	79.2692	341.309	78.9825	341.309	79.2325	341.309	79.0908	341.309	79.2617	341.309	79.2109	341.309	79.3259	341.309	79.3251	341.309	79.3962	341.309	79.4121	341.309	79.4459	341.309	79.4543
353.027	82.0758	353.027	81.8316	353.027	82.2087	353.027	81.4837	353.027	82.222	353.027	81.0409	353.027	82.1086	353.027	80.5162	353.027	81.8672	353.027	79.9338	353.027	81.5091	353.027	79.3369	353.027	81.0625	353.027	78.7954	353.027	80.5721	353.027	78.399	353.027	80.0929	353.027	78.2234	353.027	79.679	353.027	78.2808	353.027	79.37	353.027	78.5068	353.027	79.1823	353.027	78.8022	353.027	79.108	353.027	79.0845	353.027	79.1218	353.027	79.3073	353.027	79.1905	353.027	79.4556	353.027	79.2834	353.027	79.5327	353.027	79.378	353.027	79.55	353.027	79.4607	353.027	79.5216
366.211	82.4852	366.211	82.2131	366.211	82.6283	366.211	81.825	366.211	82.6311	366.211	81.3346	366.211	82.4873	366.211	80.7591	366.211	82.2003	366.211	80.1266	366.211	81.788	366.211	79.4867	366.211	81.2864	366.211	78.913	366.211	80.7515	366.211	78.4863	366.211	80.2519	366.211	78.2547	366.211	79.8511	366.211	78.2061	366.211	79.5833	366.211	78.2822	366.211	79.442	366.211	78.4211	366.211	79.3938	366.211	78.5849	366.211	79.4006	366.211	78.7597	366.211	79.4326	366.211	78.9404	366.211	79.4668	366.211	79.1173	366.211	79.4826	366.211	79.2738	366.211	79.4617	366.211	79.3923
379.395	83.4406	379.395	83.2108	379.395	83.5466	379.395	82.8674	379.395	83.518	379.395	82.4192	379.395	83.345	379.395	81.8755	379.395	83.0224	379.395	81.2501	379.395	82.5525	379.395	80.5695	379.395	81.9489	379.395	79.8853	379.395	81.2431	379.395	79.2815	379.395	80.4977	379.395	78.857	379.395	79.821	379.395	78.6735	379.395	79.3559	379.395	78.7123	379.395	79.2097	379.395	78.8951	379.395	79.3665	379.395	79.1445	379.395	79.6936	379.395	79.4154	379.395	80.0378	379.395	79.6878	379.395	80.2979	379.395	79.9479	379.395	80.4335	379.395	80.177	379.395	80.4449	379.395	80.3512
392.578	83.081	392.578	82.8526	392.578	83.1952	392.578	82.5284	392.578	83.1792	392.578	82.1253	392.578	83.0223	392.578	81.6567	392.578	82.7215	392.578	81.1311	392.578	82.2823	392.578	80.5559	392.578	81.7177	392.578	79.9491	392.578	81.0515	392.578	79.3575	392.578	80.3266	392.578	78.8679	392.578	79.6209	392.578	78.5852	392.578	79.0538	392.578	78.57	392.578	78.7559	392.578	78.7915	392.578	78.7915	392.578	79.1546	392.578	79.1013	392.578	79.5612	392.578	79.5421	392.578	79.9418	392.578	79.9742	392.578	80.2528	392.578	80.3081	392.578	80.4642	392.578	80.5041	392.578	80.5535
405.762	82.6148	405.762	82.4355	405.762	82.695	405.762	82.1687	405.762	82.6667	405.762	81.8259	405.762	82.525	405.762	81.4168	405.762	82.2685	405.762	80.9484	405.762	81.8968	405.762	80.428	405.762	81.4079	405.762	79.8693	405.762	80.8005	405.762	79.3013	405.762	80.0833	405.762	78.7748	405.762	79.2949	405.762	78.357	405.762	78.5337	405.762	78.112	405.762	77.9751	405.762	78.0765	405.762	77.8074	405.762	78.2437	405.762	78.0704	405.762	78.5633	405.762	78.595	405.762	78.9571	405.762	79.1469	405.762	79.3406	405.762	79.5659	405.762	79.641	405.762	79.7862	405.762	79.803
420.41	83.0557	420.41	82.8421	420.41	83.1702	420.41	82.5358	420.41	83.177	420.41	82.1392	420.41	83.0661	420.41	81.651	420.41	82.8275	420.41	81.0699	420.41	82.4524	420.41	80.4053	420.41	81.9348	420.41	79.6957	420.41	81.2734	420.41	79.0236	420.41	80.4771	420.41	78.4999	420.41	79.5771	420.41	78.2037	420.41	78.644	420.41	78.1234	420.41	77.8068	420.41	78.1786	420.41	77.2443	420.41	78.2986	420.41	77.1037	420.41	78.4599	420.41	77.3776	420.41	78.6596	420.41	77.8916	420.41	78.8684	420.41	78.4276	420.41	79.0174	420.41	78.8284	420.41	79.0236
435.059	82.5475	435.059	82.3596	435.059	82.6356	435.059	82.078	435.059	82.6196	435.059	81.7104	435.059	82.4978	435.059	81.2672	435.059	82.2738	435.059	80.7616	435.059	81.9553	435.059	80.2079	435.059	81.5493	435.059	79.6289	435.059	81.0593	435.059	79.0721	435.059	80.4874	435.059	78.6217	435.059	79.8464	435.059	78.3684	435.059	79.1781	435.059	78.3402	435.059	78.5698	435.059	78.4747	435.059	78.1446	435.059	78.6749	435.059	77.996	435.059	78.8706	435.059	78.1098	435.059	79.0275	435.059	78.3746	435.059	79.1266	435.059	78.6691	435.059	79.1496	435.059	78.9165	435.059	79.0808
451.172	82.5073	451.172	82.2765	451.172	82.6279	451.172	81.953	451.172	82.6224	451.172	81.5453	451.172	82.4835	451.172	81.0431	451.172	82.2129	451.172	80.4162	451.172	81.8182	451.172	79.6269	451.172	81.3087	451.172	78.663	451.172	80.695	451.172	77.5963	451.172	79.9897	451.172	76.655	451.172	79.2116	451.172	76.1892	451.172	78.3975	451.172	76.3724	451.172	77.6292	451.172	76.9957	451.172	77.0599	451.172	77.7308	451.172	76.8737	451.172	78.3789	451.172	77.1345	451.172	78.8654	451.172	77.6954	451.172	79.1672	451.172	78.3217	451.172	79.2708	451.172	78.8387	451.172	79.1629
465.82	82.8129	465.82	82.6133	465.82	82.89	465.82	82.2998	465.82	82.8495	465.82	81.8945	465.82	82.7031	465.82	81.4271	465.82	82.4616	465.82	80.9197	465.82	82.1305	465.82	80.3705	465.82	81.7101	465.82	79.7476	465.82	81.1982	465.82	79.0087	465.82	80.5908	465.82	78.1443	465.82	79.8865	465.82	77.2364	465.82	79.1039	465.82	76.4922	465.82	78.3155	465.82	76.156	465.82	77.6698	465.82	76.2898	465.82	77.3263	465.82	76.711	465.82	77.3091	465.82	77.1801	465.82	77.4754	465.82	77.5459	465.82	77.6614	465.82	77.7567	465.82	77.7858	465.82	77.8252
483.398	82.4691	483.398	82.2876	483.398	82.5408	483.398	82.0051	483.398	82.4939	483.398	81.6307	483.398	82.3227	483.398	81.1748	483.398	82.0312	483.398	80.6471	483.398	81.6368	483.398	80.0497	483.398	81.1674	483.398	79.3757	483.398	80.6536	483.398	78.6247	483.398	80.1206	483.398	77.8368	483.398	79.5824	483.398	77.1219	483.398	79.044	483.398	76.634	483.398	78.526	483.398	76.4769	483.398	78.1048	483.398	76.6342	483.398	77.9058	483.398	77.0039	483.398	77.991	483.398	77.4697	483.398	78.2589	483.398	77.9327	483.398	78.5202	483.398	78.3165	483.398	78.6374	483.398	78.5647
499.512	82.6596	499.512	82.4995	499.512	82.7012	499.512	82.2323	499.512	82.6149	499.512	81.8676	499.512	82.3963	499.512	81.41	499.512	82.0468	499.512	80.8591	499.512	81.5722	499.512	80.2143	499.512	80.9818	499.512	79.4832	499.512	80.2923	499.512	78.6927	499.512	79.5379	499.512	77.8997	499.512	78.7794	499.512	77.1958	499.512	78.1002	499.512	76.6927	499.512	77.59	499.512	76.4801	499.512	77.3303	499.512	76.5811	499.512	77.3723	499.512	76.9388	499.512	77.686	499.512	77.4423	499.512	78.1311	499.512	77.9673	499.512	78.5212	499.512	78.406	499.512	78.7196	499.512	78.6755
517.09	82.4023	517.09	82.3106	517.09	82.416	517.09	82.1494	517.09	82.3464	517.09	81.9263	517.09	82.1875	517.09	81.6343	517.09	81.9287	517.09	81.2403	517.09	81.5574	517.09	80.6902	517.09	81.0667	517.09	79.9366	517.09	80.4579	517.09	78.9802	517.09	79.7354	517.09	77.912	517.09	78.9043	517.09	76.9396	517.09	77.995	517.09	76.3323	517.09	77.1313	517.09	76.2449	517.09	76.5882	517.09	76.6012	517.09	76.6429	517.09	77.2042	517.09	77.2375	517.09	77.8764	517.09	78.0195	517.09	78.488	517.09	78.6804	517.09	78.9392	517.09	79.0713	517.09	79.1515
536.133	81.9407	536.133	81.7421	536.133	81.9926	536.133	81.4396	536.133	81.8664	536.133	81.0769	536.133	81.563	536.133	80.6915	536.133	81.1316	536.133	80.2995	536.133	80.6564	536.133	79.8789	536.133	80.2121	536.133	79.3795	536.133	79.8215	536.133	78.7609	536.133	79.4503	536.133	78.0349	536.133	79.0258	536.133	77.2877	536.133	78.4651	536.133	76.6629	536.133	77.7333	536.133	76.3026	536.133	76.9443	536.133	76.2882	536.133	76.4284	536.133	76.6089	536.133	76.5032	536.133	77.1497	536.133	77.0568	536.133	77.7233	536.133	77.6961	536.133	78.1466	536.133	78.146	536.133	78.302
555.176	82.5392	555.176	82.3565	555.176	82.5327	555.176	81.9946	555.176	82.3484	555.176	81.4812	555.176	82.02	555.176	80.8647	555.176	81.5877	555.176	80.2102	555.176	81.0761	555.176	79.5658	555.176	80.4896	555.176	78.9192	555.176	79.8269	555.176	78.2024	555.176	79.0958	555.176	77.3653	555.176	78.3245	555.176	76.5079	555.176	77.5754	555.176	75.9498	555.176	76.9425	555.176	75.9566	555.176	76.5046	555.176	76.3879	555.176	76.2922	555.176	76.9301	555.176	76.3353	555.176	77.4113	555.176	76.6658	555.176	77.7767	555.176	77.1905	555.176	77.9828	555.176	77.6853	555.176	77.9665
574.219	82.4887	574.219	82.2625	574.219	82.5541	574.219	81.8825	574.219	82.4543	574.219	81.3627	574.219	82.1942	574.219	80.7434	574.219	81.7933	574.219	80.1057	574.219	81.2772	574.219	79.5391	574.219	80.6648	574.219	79.0515	574.219	79.9703	574.219	78.5165	574.219	79.2147	574.219	77.7754	574.219	78.4255	574.219	76.8297	574.219	77.6242	574.219	75.9566	574.219	76.8322	574.219	75.5427	574.219	76.1256	574.219	75.6858	574.219	75.7059	574.219	76.1613	574.219	75.8052	574.219	76.7328	574.219	76.3764	574.219	77.2597	574.219	77.0737	574.219	77.6378	574.219	77.5821	574.219	77.7692
594.727	82.2042	594.727	82.081	594.727	82.1656	594.727	81.8014	594.727	81.9686	594.727	81.3656	594.727	81.6404	594.727	80.7747	594.727	81.2224	594.727	80.0602	594.727	80.7434	594.727	79.3094	594.727	80.2106	594.727	78.632	594.727	79.6332	594.727	78.0523	594.727	79.0424	594.727	77.446	594.727	78.4646	594.727	76.6614	594.727	77.8761	594.727	75.7539	594.727	77.2274	594.727	75.1056	594.727	76.5669	594.727	75.1399	594.727	76.1589	594.727	75.8092	594.727	76.3018	594.727	76.7016	594.727	76.8978	594.727	77.4771	594.727	77.5573	594.727	77.9779	594.727	78.0084	594.727	78.156
615.234	82.2597	615.234	81.9862	615.234	82.3353	615.234	81.5472	615.234	82.2008	615.234	80.9827	615.234	81.8643	615.234	80.3289	615.234	81.3503	615.234	79.6329	615.234	80.7003	615.234	78.9852	615.234	79.9613	615.234	78.495	615.234	79.1666	615.234	78.1515	615.234	78.3516	615.234	77.7322	615.234	77.591	615.234	76.9795	615.234	76.9678	615.234	75.9237	615.234	76.4802	615.234	75.0896	615.234	76.0504	615.234	75.0928	615.234	75.6897	615.234	75.7748	615.234	75.6057	615.234	76.5674	615.234	75.9758	615.234	77.175	615.234	76.6307	615.234	77.5129	615.234	77.2246	615.234	77.5378
637.207	82.0975	637.207	81.7957	637.207	82.2271	637.207	81.348	637.207	82.1743	637.207	80.7864	637.207	81.9573	637.207	80.144	637.207	81.6134	637.207	79.4474	637.207	81.1565	637.207	78.7184	637.207	80.5488	637.207	78.0139	637.207	79.7429	637.207	77.4321	637.207	78.761	637.207	76.9481	637.207	77.7262	637.207	76.3012	637.207	76.7928	637.207	75.3027	637.207	76.0307	637.207	74.2664	637.207	75.4508	637.207	74.0164	637.207	75.1964	637.207	74.8531	637.207	75.4993	637.207	76.074	637.207	76.2577	637.207	77.0688	637.207	77.0624	637.207	77.6542	637.207	77.6199	637.207	77.8282
659.18	82.1603	659.18	81.858	659.18	82.2524	659.18	81.3866	659.18	82.1302	659.18	80.8067	659.18	81.8324	659.18	80.1777	659.18	81.4302	659.18	79.5406	659.18	80.9811	659.18	78.9008	659.18	80.4782	659.18	78.206	659.18	79.8697	659.18	77.3841	659.18	79.1242	659.18	76.498	659.18	78.264	659.18	75.782	659.18	77.3497	659.18	75.3081	659.18	76.435	659.18	74.9158	659.18	75.5617	659.18	74.6782	659.18	74.9333	659.18	75.0039	659.18	75.052	659.18	75.9369	659.18	76.0164	659.18	76.9663	659.18	77.137	659.18	77.7041	659.18	77.8501	659.18	78.0218
682.617	82.2445	682.617	81.8677	682.617	82.3775	682.617	81.3183	682.617	82.2495	682.617	80.6683	682.617	81.9131	682.617	79.9414	682.617	81.4561	682.617	79.1532	682.617	80.9285	682.617	78.3977	682.617	80.3214	682.617	77.7856	682.617	79.6551	682.617	77.227	682.617	79.0393	682.617	76.4514	682.617	78.5331	682.617	75.3865	682.617	77.971	682.617	74.3963	682.617	77.1412	682.617	73.978	682.617	76.17	682.617	74.2166	682.617	75.4854	682.617	74.9086	682.617	75.1486	682.617	75.8963	682.617	75.0866	682.617	76.9184	682.617	75.728	682.617	77.5926	682.617	76.8577	682.617	77.605
707.52	82.4839	707.52	82.1771	707.52	82.4034	707.52	81.4229	707.52	82.0817	707.52	80.2899	707.52	81.6866	707.52	79.0307	707.52	81.29	707.52	78.0281	707.52	80.8456	707.52	77.5299	707.52	80.2993	707.52	77.4313	707.52	79.6191	707.52	77.358	707.52	78.7443	707.52	76.8885	707.52	77.6784	707.52	75.7783	707.52	76.7925	707.52	74.2463	707.52	76.5879	707.52	73.2157	707.52	76.5364	707.52	73.4449	707.52	75.8406	707.52	74.4389	707.52	75.2096	707.52	75.5764	707.52	76.0699	707.52	76.6152	707.52	77.3503	707.52	77.4126	707.52	77.942	707.52	77.8857
732.422	81.8752	732.422	81.7263	732.422	81.8114	732.422	81.2747	732.422	81.6146	732.422	80.4937	732.422	81.3039	732.422	79.4635	732.422	80.875	732.422	78.3904	732.422	80.3538	732.422	77.5539	732.422	79.7674	732.422	77.0843	732.422	79.1038	732.422	76.8641	732.422	78.3609	732.422	76.7285	732.422	77.5784	732.422	76.4159	732.422	76.8202	732.422	75.5511	732.422	76.2153	732.422	74.0988	732.422	75.8914	732.422	73.0105	732.422	75.6908	732.422	73.5429	732.422	75.427	732.422	74.9789	732.422	75.5534	732.422	76.3132	732.422	76.4165	732.422	77.2459	732.422	77.3143	732.422	77.6221
757.324	82.1461	757.324	81.7547	757.324	82.3372	757.324	81.2958	757.324	82.2298	757.324	80.7814	757.324	81.8441	757.324	80.0959	757.324	81.2844	757.324	79.1895	757.324	80.6317	757.324	78.2248	757.324	79.8478	757.324	77.4905	757.324	78.8488	757.324	77.0675	757.324	77.721	757.324	76.6808	757.324	76.757	757.324	76.1074	757.324	76.0973	757.324	75.3592	757.324	75.484	757.324	74.4415	757.324	74.8192	757.324	73.4521	757.324	74.556	757.324	73.267	757.324	74.6617	757.324	74.4394	757.324	74.7301	757.324	75.8884	757.324	75.1708	757.324	76.7714	757.324	76.1331	757.324	76.8381
785.156	82.0152	785.156	81.4661	785.156	82.3173	785.156	80.9877	785.156	82.0799	785.156	80.5606	785.156	81.3057	785.156	80.0285	785.156	80.2653	785.156	79.4619	785.156	79.27	785.156	78.8654	785.156	78.4562	785.156	77.7425	785.156	77.8118	785.156	75.8532	785.156	77.2344	785.156	74.5333	785.156	76.5189	785.156	74.3504	785.156	75.5304	785.156	73.9112	785.156	74.686	785.156	72.7595	785.156	74.588	785.156	71.6114	785.156	74.6245	785.156	71.5382	785.156	74.3473	785.156	72.6524	785.156	74.515	785.156	74.4544	785.156	75.1505	785.156	75.92	785.156	75.7862	785.156	76.2737
811.523	82.2465	811.523	82.1338	811.523	82.0451	811.523	81.5993	811.523	81.7121	811.523	80.7486	811.523	81.3296	811.523	79.8487	811.523	80.7865	811.523	79.0969	811.523	79.856	811.523	78.5482	811.523	78.4861	811.523	77.9173	811.523	77.0912	811.523	76.4393	811.523	76.2787	811.523	74.1421	811.523	76.0448	811.523	73.2703	811.523	75.9175	811.523	73.7635	811.523	75.6562	811.523	73.5485	811.523	75.1376	811.523	72.6464	811.523	74.0124	811.523	72.9542	811.523	72.6284	811.523	74.3953	811.523	73.045	811.523	75.0314	811.523	74.4013	811.523	74.8386	811.523	74.7689	811.523	74.6302
840.82	81.4834	840.82	81.1151	840.82	81.7151	840.82	80.8663	840.82	81.6188	840.82	80.767	840.82	81.1658	840.82	80.5828	840.82	80.3923	840.82	79.9854	840.82	79.38	840.82	78.7686	840.82	78.3651	840.82	77.2692	840.82	77.5683	840.82	76.0715	840.82	76.7829	840.82	74.8745	840.82	75.5424	840.82	73.7458	840.82	74.0342	840.82	73.859	840.82	73.2627	840.82	74.3718	840.82	72.8293	840.82	73.5185	840.82	72.0176	840.82	72.1632	840.82	71.7973	840.82	73.0138	840.82	71.9591	840.82	74.6368	840.82	72.1023	840.82	75.3045	840.82	73.3307	840.82	74.7888
870.117	81.7583	870.117	81.8776	870.117	81.3948	870.117	81.6822	870.117	80.8325	870.117	81.1248	870.117	80.1757	870.117	80.1823	870.117	79.6259	870.117	78.9343	870.117	79.1672	870.117	77.8115	870.117	78.4918	870.117	77.186	870.117	77.377	870.117	76.5568	870.117	75.9277	870.117	75.3678	870.117	74.7073	870.117	74.0654	870.117	74.3424	870.117	73.3213	870.117	74.1514	870.117	72.6475	870.117	73.1417	870.117	71.8816	870.117	71.5608	870.117	71.6133	870.117	70.1567	870.117	72.2009	870.117	70.3272	870.117	73.3395	870.117	72.5137	870.117	74.3188	870.117	74.2127	870.117	74.6994
900.879	82.2981	900.879	82.1494	900.879	82.0032	900.879	81.7938	900.879	81.2343	900.879	81.3132	900.879	80.2906	900.879	80.5337	900.879	79.3906	900.879	79.1884	900.879	78.4153	900.879	77.1752	900.879	77.3782	900.879	75.3142	900.879	76.5904	900.879	74.7724	900.879	76.0598	900.879	74.0914	900.879	75.1701	900.879	72.8669	900.879	73.4912	900.879	73.0722	900.879	72.4471	900.879	74.0642	900.879	73.2445	900.879	73.4958	900.879	73.431	900.879	71.2856	900.879	71.7592	900.879	70.561	900.879	68.8696	900.879	72.3225	900.879	69.4187	900.879	73.7727	900.879	72.448	900.879	73.9454
933.105	81.5841	933.105	81.8136	933.105	81.1577	933.105	81.6549	933.105	80.5841	933.105	80.9544	933.105	79.8148	933.105	79.8199	933.105	78.8823	933.105	78.6587	933.105	77.9916	933.105	77.6118	933.105	77.3521	933.105	76.2336	933.105	76.7706	933.105	74.7908	933.105	75.8876	933.105	74.5323	933.105	74.9071	933.105	74.7014	933.105	74.4173	933.105	73.9071	933.105	74.2067	933.105	72.997	933.105	73.6832	933.105	73.2505	933.105	73.1397	933.105	72.7736	933.105	72.6369	933.105	71.3969	933.105	71.2601	933.105	71.134	933.105	70.4597	933.105	72.3607	933.105	72.2025	933.105	73.0974
965.332	82.2552	965.332	81.7303	965.332	82.0259	965.332	81.2301	965.332	80.9422	965.332	81.1489	965.332	79.906	965.332	80.8915	965.332	79.5401	965.332	79.8524	965.332	79.0366	965.332	77.9849	965.332	77.9779	965.332	75.7544	965.332	76.7909	965.332	74.098	965.332	75.9652	965.332	73.6408	965.332	75.2418	965.332	73.6371	965.332	74.2275	965.332	73.1546	965.332	73.5137	965.332	72.3774	965.332	73.2432	965.332	72.071	965.332	72.5475	965.332	72.1027	965.332	72.1232	965.332	72.0234	965.332	72.0095	965.332	72.3149	965.332	71.3996	965.332	73.7521	965.332	72.8789	965.332	74.364
1,000.49	82.1815	1,000.49	82.6543	1,000.49	80.9689	1,000.49	81.9987	1,000.49	80.1754	1,000.49	80.8153	1,000.49	80.0246	1,000.49	80.1942	1,000.49	79.6957	1,000.49	79.954	1,000.49	78.9677	1,000.49	79.0116	1,000.49	77.9388	1,000.49	77.0308	1,000.49	76.6793	1,000.49	74.1722	1,000.49	75.4115	1,000.49	71.2421	1,000.49	74.3007	1,000.49	71.8212	1,000.49	73.3559	1,000.49	73.695	1,000.49	72.9452	1,000.49	73.2403	1,000.49	73.2884	1,000.49	71.1025	1,000.49	72.9942	1,000.49	71.1905	1,000.49	70.7312	1,000.49	72.6026	1,000.49	68.628	1,000.49	73.1678	1,000.49	68.9073	1,000.49	73.0449	1,000.49	70.0308	1,000.49	72.0346
1,035.64	81.652	1,035.64	82.3504	1,035.64	81.0364	1,035.64	82.7148	1,035.64	80.5335	1,035.64	82.4881	1,035.64	79.8721	1,035.64	81.5775	1,035.64	79.1662	1,035.64	79.8409	1,035.64	78.7907	1,035.64	77.401	1,035.64	78.4578	1,035.64	75.4209	1,035.64	77.4586	1,035.64	75.0854	1,035.64	75.8326	1,035.64	75.3051	1,035.64	73.9313	1,035.64	75.18	1,035.64	72.0589	1,035.64	75.2598	1,035.64	71.5218	1,035.64	74.4104	1,035.64	71.878	1,035.64	72.169	1,035.64	72.4662	1,035.64	71.5362	1,035.64	72.999	1,035.64	73.0617	1,035.64	71.9231	1,035.64	73.87	1,035.64	70.0628	1,035.64	73.6157	1,035.64	70.7273	1,035.64	72.6018
1,072.27	81.5433	1,072.27	82.0915	1,072.27	80.9206	1,072.27	82.4787	1,072.27	80.2274	1,072.27	82.3906	1,072.27	79.9224	1,072.27	81.721	1,072.27	79.8563	1,072.27	80.5459	1,072.27	79.2294	1,072.27	78.9559	1,072.27	77.8794	1,072.27	77.2099	1,072.27	76.3571	1,072.27	75.7537	1,072.27	75.4885	1,072.27	75.6314	1,072.27	74.9463	1,072.27	74.3339	1,072.27	72.9984	1,072.27	71.1971	1,072.27	70.3132	1,072.27	71.5585	1,072.27	72.2081	1,072.27	72.7807	1,072.27	73.4756	1,072.27	72.4918	1,072.27	72.1458	1,072.27	72.867	1,072.27	70.4013	1,072.27	73.1317	1,072.27	70.0499	1,072.27	72.6527	1,072.27	70.3669	1,072.27	71.5888
1,108.89	81.3155	1,108.89	81.9237	1,108.89	80.9604	1,108.89	82.5188	1,108.89	80.517	1,108.89	82.3897	1,108.89	79.5291	1,108.89	81.2516	1,108.89	78.1875	1,108.89	79.6814	1,108.89	77.7572	1,108.89	78.4523	1,108.89	78.1583	1,108.89	77.4292	1,108.89	77.9658	1,108.89	76.1814	1,108.89	76.906	1,108.89	74.6195	1,108.89	75.4958	1,108.89	73.2546	1,108.89	74.2115	1,108.89	72.6349	1,108.89	73.0161	1,108.89	71.8879	1,108.89	70.8049	1,108.89	70.7934	1,108.89	70.7519	1,108.89	70.7184	1,108.89	72.7899	1,108.89	71.7018	1,108.89	72.5525	1,108.89	72.6402	1,108.89	70.6142	1,108.89	73.0495	1,108.89	70.182	1,108.89	72.1839
1,148.44	81.5479	1,148.44	82.3687	1,148.44	80.3364	1,148.44	82.271	1,148.44	79.8631	1,148.44	81.5181	1,148.44	79.8768	1,148.44	80.8638	1,148.44	79.1843	1,148.44	80.5608	1,148.44	77.9866	1,148.44	80.2498	1,148.44	76.8108	1,148.44	79.1566	1,148.44	75.555	1,148.44	76.3346	1,148.44	74.5317	1,148.44	73.2625	1,148.44	73.8757	1,148.44	73.4769	1,148.44	73.0159	1,148.44	73.1601	1,148.44	72.3515	1,148.44	70.7649	1,148.44	72.8411	1,148.44	69.892	1,148.44	72.6335	1,148.44	70.8209	1,148.44	71.8097	1,148.44	71.9245	1,148.44	71.2963	1,148.44	71.7388	1,148.44	70.926	1,148.44	70.5895	1,148.44	71.1311	1,148.44	70.8074
1,189.45	81.7097	1,189.45	82.3914	1,189.45	81.3475	1,189.45	82.5631	1,189.45	80.6343	1,189.45	81.4457	1,189.45	78.8655	1,189.45	79.4669	1,189.45	77.6501	1,189.45	78.4261	1,189.45	78.1417	1,189.45	78.5908	1,189.45	78.0659	1,189.45	77.998	1,189.45	76.9969	1,189.45	76.3784	1,189.45	75.818	1,189.45	74.9629	1,189.45	74.6899	1,189.45	74.235	1,189.45	73.2756	1,189.45	73.7506	1,189.45	71.5947	1,189.45	72.393	1,189.45	69.7238	1,189.45	69.9988	1,189.45	68.6497	1,189.45	66.6808	1,189.45	69.3112	1,189.45	67.4099	1,189.45	71.0462	1,189.45	70.7379	1,189.45	71.6512	1,189.45	72.7869	1,189.45	71.4814	1,189.45	72.7304
1,230.47	82.3041	1,230.47	82.573	1,230.47	81.3632	1,230.47	82.28	1,230.47	80.1602	1,230.47	81.2809	1,230.47	78.9771	1,230.47	79.7159	1,230.47	77.7756	1,230.47	78.9745	1,230.47	77.6296	1,230.47	79.0383	1,230.47	78.0335	1,230.47	77.8902	1,230.47	77.3622	1,230.47	75.83	1,230.47	75.3173	1,230.47	74.0489	1,230.47	72.9449	1,230.47	73.0269	1,230.47	71.7554	1,230.47	73.9265	1,230.47	71.2251	1,230.47	74.1869	1,230.47	70.7823	1,230.47	72.8736	1,230.47	69.8307	1,230.47	69.7779	1,230.47	67.7175	1,230.47	68.1661	1,230.47	68.8836	1,230.47	71.2586	1,230.47	70.0862	1,230.47	74.1536	1,230.47	70.2309	1,230.47	73.7299
1,274.41	82.0299	1,274.41	82.3468	1,274.41	81.0915	1,274.41	82.1662	1,274.41	79.6951	1,274.41	81.5851	1,274.41	78.4681	1,274.41	80.6471	1,274.41	78.175	1,274.41	79.4751	1,274.41	78.0949	1,274.41	78.1161	1,274.41	77.4011	1,274.41	76.3618	1,274.41	76.4964	1,274.41	75.5668	1,274.41	74.9909	1,274.41	75.2058	1,274.41	73.4046	1,274.41	71.7097	1,274.41	72.2545	1,274.41	69.9808	1,274.41	70.8898	1,274.41	73.1332	1,274.41	69.1015	1,274.41	73.197	1,274.41	67.216	1,274.41	69.6233	1,274.41	67.3562	1,274.41	64.9419	1,274.41	69.7928	1,274.41	67.7243	1,274.41	70.627	1,274.41	72.2084	1,274.41	69.841	1,274.41	72.6666
1,319.82	81.9427	1,319.82	82.3479	1,319.82	80.9479	1,319.82	82.0272	1,319.82	80.2445	1,319.82	81.5271	1,319.82	79.0888	1,319.82	80.7275	1,319.82	77.5557	1,319.82	78.8338	1,319.82	76.9112	1,319.82	77.0369	1,319.82	76.2425	1,319.82	76.6417	1,319.82	75.5187	1,319.82	75.4986	1,319.82	74.2217	1,319.82	74.5054	1,319.82	72.4023	1,319.82	72.9206	1,319.82	70.7203	1,319.82	67.8481	1,319.82	67.4669	1,319.82	67.6908	1,319.82	66.9434	1,319.82	70.4288	1,319.82	68.9922	1,319.82	69.885	1,319.82	71.6288	1,319.82	69.5769	1,319.82	70.2203	1,319.82	71.8536	1,319.82	70.056	1,319.82	72.6575	1,319.82	70.7095	1,319.82	71.0969
1,366.7	81.721	1,366.7	82.5385	1,366.7	80.9757	1,366.7	82.6911	1,366.7	79.8712	1,366.7	81.7366	1,366.7	77.8936	1,366.7	79.8928	1,366.7	77.2433	1,366.7	78.1077	1,366.7	77.2287	1,366.7	76.6823	1,366.7	76.3624	1,366.7	74.4142	1,366.7	76.0058	1,366.7	72.4126	1,366.7	75.4144	1,366.7	70.0004	1,366.7	74.0129	1,366.7	67.8367	1,366.7	72.0135	1,366.7	68.3544	1,366.7	69.7422	1,366.7	69.0893	1,366.7	67.9331	1,366.7	70.6329	1,366.7	69.2809	1,366.7	70.5968	1,366.7	69.8484	1,366.7	68.4651	1,366.7	68.3071	1,366.7	68.4034	1,366.7	69.4309	1,366.7	69.8434	1,366.7	69.7982	1,366.7	69.7922
1,413.57	81.6028	1,413.57	82.0045	1,413.57	80.9772	1,413.57	81.7677	1,413.57	79.7328	1,413.57	80.4512	1,413.57	78.0147	1,413.57	79.1219	1,413.57	76.9126	1,413.57	78.8252	1,413.57	75.5884	1,413.57	77.1754	1,413.57	75.6421	1,413.57	71.8958	1,413.57	75.9866	1,413.57	65.8709	1,413.57	75.1947	1,413.57	65.3337	1,413.57	74.127	1,413.57	62.8921	1,413.57	71.8246	1,413.57	60.3181	1,413.57	69.2834	1,413.57	65.6198	1,413.57	67.7614	1,413.57	70.2091	1,413.57	65.8117	1,413.57	69.519	1,413.57	64.9822	1,413.57	67.0867	1,413.57	68.8209	1,413.57	68.0846	1,413.57	70.521	1,413.57	71.1501	1,413.57	68.6641	1,413.57	69.476
1,463.38	82.1158	1,463.38	82.2845	1,463.38	80.9827	1,463.38	81.5711	1,463.38	79.4456	1,463.38	80.6	1,463.38	78.1985	1,463.38	79.5864	1,463.38	76.7565	1,463.38	77.5284	1,463.38	73.9998	1,463.38	75.0105	1,463.38	72.687	1,463.38	72.9758	1,463.38	74.1571	1,463.38	69.8494	1,463.38	74.2213	1,463.38	67.8562	1,463.38	72.3154	1,463.38	67.7198	1,463.38	70.9878	1,463.38	63.3208	1,463.38	69.794	1,463.38	54.4489	1,463.38	65.9691	1,463.38	60.1589	1,463.38	55.985	1,463.38	68.9165	1,463.38	64.0329	1,463.38	68.2198	1,463.38	67.7897	1,463.38	66.8559	1,463.38	66.2772	1,463.38	67.2568	1,463.38	68.4305	1,463.38	68.7872
1,516.11	82.448	1,516.11	82.4772	1,516.11	81.1585	1,516.11	81.4154	1,516.11	79.2073	1,516.11	80.1227	1,516.11	77.6	1,516.11	78.3057	1,516.11	75.4467	1,516.11	75.3243	1,516.11	72.1325	1,516.11	73.7786	1,516.11	72.4336	1,516.11	73.5191	1,516.11	73.6697	1,516.11	70.8297	1,516.11	73.2912	1,516.11	66.6546	1,516.11	71.5615	1,516.11	66.141	1,516.11	69.0179	1,516.11	66.4653	1,516.11	66.4831	1,516.11	61.4196	1,516.11	66.5385	1,516.11	62.7722	1,516.11	61.5655	1,516.11	64.9292	1,516.11	63.5266	1,516.11	66.9511	1,516.11	65.6551	1,516.11	65.7741	1,516.11	66.523	1,516.11	66.5616	1,516.11	69.7047	1,516.11	68.6858
1,568.85	82.6166	1,568.85	82.4329	1,568.85	81.616	1,568.85	81.5393	1,568.85	79.522	1,568.85	79.7768	1,568.85	77.1927	1,568.85	77.1238	1,568.85	74.6194	1,568.85	74.896	1,568.85	71.0838	1,568.85	72.2688	1,568.85	69.4272	1,568.85	67.5666	1,568.85	70.3422	1,568.85	64.4664	1,568.85	71.6825	1,568.85	57.0918	1,568.85	70.7891	1,568.85	63.6762	1,568.85	67.6441	1,568.85	68.7789	1,568.85	67.7496	1,568.85	63.8444	1,568.85	63.8532	1,568.85	54.0917	1,568.85	65.3664	1,568.85	63.1795	1,568.85	64.1313	1,568.85	63.7444	1,568.85	59.6485	1,568.85	61.7616	1,568.85	67.3282	1,568.85	65.7194	1,568.85	68.4141	1,568.85	68.0959
1,624.51	81.7101	1,624.51	82.108	1,624.51	80.7854	1,624.51	81.2177	1,624.51	79.4459	1,624.51	79.1993	1,624.51	76.7866	1,624.51	76.3441	1,624.51	71.8343	1,624.51	70.8276	1,624.51	68.0728	1,624.51	68.8252	1,624.51	69.9541	1,624.51	69.3011	1,624.51	70.1552	1,624.51	64.634	1,624.51	69.0291	1,624.51	62.5739	1,624.51	68.1687	1,624.51	55.2613	1,624.51	67.8819	1,624.51	65.9274	1,624.51	65.4373	1,624.51	63.7707	1,624.51	68.1241	1,624.51	48.5292	1,624.51	64.6123	1,624.51	62.0858	1,624.51	58.4652	1,624.51	63.191	1,624.51	65.5565	1,624.51	57.8636	1,624.51	66.6737	1,624.51	63.915	1,624.51	67.6312	1,624.51	68.4472
1,681.64	81.0344	1,681.64	81.6935	1,681.64	80.0929	1,681.64	80.8204	1,681.64	78.1685	1,681.64	78.1309	1,681.64	75.405	1,681.64	74.9347	1,681.64	72.7347	1,681.64	71.7158	1,681.64	64.0236	1,681.64	65.8809	1,681.64	65.8427	1,681.64	55.6449	1,681.64	67.405	1,681.64	63.4822	1,681.64	67.7519	1,681.64	63.4564	1,681.64	69.3366	1,681.64	61.9618	1,681.64	67.9292	1,681.64	61.7448	1,681.64	64.8994	1,681.64	64.878	1,681.64	64.5155	1,681.64	60.2691	1,681.64	54.7981	1,681.64	54.9999	1,681.64	57.2576	1,681.64	60.3273	1,681.64	57.0765	1,681.64	61.0237	1,681.64	66.4107	1,681.64	62.4869	1,681.64	68.2332	1,681.64	66.033
1,741.7	81.9114	1,741.7	81.6355	1,741.7	80.5981	1,741.7	80.1875	1,741.7	77.5917	1,741.7	77.5223	1,741.7	73.7431	1,741.7	73.714	1,741.7	68.3982	1,741.7	68.3007	1,741.7	61.7126	1,741.7	57.0247	1,741.7	55.2804	1,741.7	55.1104	1,741.7	65.5078	1,741.7	65.8762	1,741.7	68.8998	1,741.7	66.8088	1,741.7	67.7936	1,741.7	65.8776	1,741.7	67.0814	1,741.7	66.615	1,741.7	62.7523	1,741.7	65.1419	1,741.7	60.068	1,741.7	62.1776	1,741.7	57.9	1,741.7	60.4604	1,741.7	54.5203	1,741.7	55.2243	1,741.7	50.6644	1,741.7	60.2312	1,741.7	66.8966	1,741.7	63.0263	1,741.7	68.2688	1,741.7	65.0011
1,803.22	82.8966	1,803.22	82.6054	1,803.22	81.4309	1,803.22	80.3525	1,803.22	78.0438	1,803.22	76.1392	1,803.22	72.4098	1,803.22	70.3639	1,803.22	67.271	1,803.22	56.9739	1,803.22	67.0524	1,803.22	63.193	1,803.22	64.6278	1,803.22	64.043	1,803.22	63.3095	1,803.22	65.3248	1,803.22	67.9836	1,803.22	68.8591	1,803.22	69.4875	1,803.22	66.2373	1,803.22	68.0096	1,803.22	63.9329	1,803.22	67.1552	1,803.22	67.3705	1,803.22	65.34	1,803.22	63.8656	1,803.22	62.6621	1,803.22	60.4565	1,803.22	60.0069	1,803.22	60.0411	1,803.22	51.908	1,803.22	45.7013	1,803.22	62.5345	1,803.22	60.793	1,803.22	68.6186	1,803.22	67.3101
1,866.21	82.7981	1,866.21	82.4644	1,866.21	81.8624	1,866.21	80.3731	1,866.21	79.1307	1,866.21	75.3538	1,866.21	74.3365	1,866.21	67.8059	1,866.21	70.898	1,866.21	67.1427	1,866.21	71.2393	1,866.21	65.3197	1,866.21	70.6588	1,866.21	67.241	1,866.21	67.039	1,866.21	68.5602	1,866.21	64.8845	1,866.21	68.2946	1,866.21	68.2605	1,866.21	69.5348	1,866.21	68.7241	1,866.21	65.374	1,866.21	68.6693	1,866.21	68.1082	1,866.21	68.7441	1,866.21	67.6442	1,866.21	66.2642	1,866.21	60.3958	1,866.21	64.5986	1,866.21	60.2293	1,866.21	57.3299	1,866.21	48.6778	1,866.21	64.4755	1,866.21	55.3301	1,866.21	68.2034	1,866.21	65.3573
1,932.13	82.0316	1,932.13	82.1312	1,932.13	81.1327	1,932.13	80.2595	1,932.13	79.0532	1,932.13	75.6504	1,932.13	75.2797	1,932.13	72.3961	1,932.13	73.3966	1,932.13	68.1976	1,932.13	73.8121	1,932.13	69.2926	1,932.13	72.6116	1,932.13	69.0019	1,932.13	71.6799	1,932.13	71.2153	1,932.13	67.3976	1,932.13	72.3402	1,932.13	64.321	1,932.13	69.6599	1,932.13	69.2123	1,932.13	67.7764	1,932.13	70.2235	1,932.13	67.8656	1,932.13	68.0016	1,932.13	68.1345	1,932.13	65.6635	1,932.13	63.1362	1,932.13	61.9575	1,932.13	63.9496	1,932.13	59.8587	1,932.13	51.6126	1,932.13	63.1854	1,932.13	59.3781	1,932.13	67.8382	1,932.13	64.5691
1,999.51	82.1441	1,999.51	81.7019	1,999.51	80.7906	1,999.51	78.7432	1,999.51	78.9743	1,999.51	76.1515	1,999.51	76.6524	1,999.51	73.139	1,999.51	75.0037	1,999.51	70.5858	1,999.51	74.7869	1,999.51	71.2042	1,999.51	73.6524	1,999.51	71.7492	1,999.51	73.3611	1,999.51	70.5059	1,999.51	71.3034	1,999.51	69.9156	1,999.51	67.5917	1,999.51	71.2584	1,999.51	69.011	1,999.51	68.8452	1,999.51	70.3427	1,999.51	66.2395	1,999.51	68.4659	1,999.51	70.1834	1,999.51	65.7455	1,999.51	65.1292	1,999.51	62.7668	1,999.51	63.3629	1,999.51	60.0428	1,999.51	61.5646	1,999.51	60.0859	1,999.51	56.2714	1,999.51	66.9892	1,999.51	65.6238
2,069.82	83.4766	2,069.82	82.2282	2,069.82	81.5987	2,069.82	78.8635	2,069.82	78.872	2,069.82	76.1334	2,069.82	77.4534	2,069.82	73.2124	2,069.82	77.0473	2,069.82	73.1351	2,069.82	76.2458	2,069.82	74.0677	2,069.82	75.1294	2,069.82	74.5851	2,069.82	73.9174	2,069.82	73.622	2,069.82	73.4465	2,069.82	70.9849	2,069.82	71.0955	2,069.82	68.9539	2,069.82	68.3865	2,069.82	71.4119	2,069.82	67.7156	2,069.82	67.4446	2,069.82	69.4354	2,069.82	68.9728	2,069.82	65.2519	2,069.82	67.2254	2,069.82	64.4134	2,069.82	59.5801	2,069.82	59.324	2,069.82	63.2374	2,069.82	62.6594	2,069.82	55.4326	2,069.82	69.2268	2,069.82	67.2486
2,143.07	83.836	2,143.07	82.4718	2,143.07	82.6009	2,143.07	80.3914	2,143.07	79.7465	2,143.07	76.3358	2,143.07	77.5976	2,143.07	73.4775	2,143.07	76.9559	2,143.07	76.0964	2,143.07	77.1009	2,143.07	76.0904	2,143.07	75.7743	2,143.07	73.2025	2,143.07	73.8608	2,143.07	73.188	2,143.07	73.8954	2,143.07	73.9073	2,143.07	73.7347	2,143.07	68.9777	2,143.07	70.1874	2,143.07	69.0444	2,143.07	69.6913	2,143.07	70.2183	2,143.07	69.925	2,143.07	67.1836	2,143.07	66.845	2,143.07	69.599	2,143.07	60.8332	2,143.07	61.6119	2,143.07	60.3543	2,143.07	64.5064	2,143.07	64.7202	2,143.07	60.5902	2,143.07	69.3976	2,143.07	66.0507
2,219.24	82.7075	2,219.24	81.6781	2,219.24	82.3155	2,219.24	80.1338	2,219.24	80.1995	2,219.24	76.537	2,219.24	79.0639	2,219.24	77.2017	2,219.24	78.0945	2,219.24	76.7741	2,219.24	77.1928	2,219.24	74.5992	2,219.24	76.8473	2,219.24	74.3991	2,219.24	75.5842	2,219.24	72.5557	2,219.24	73.3242	2,219.24	69.1538	2,219.24	72.0064	2,219.24	70.9155	2,219.24	68.8826	2,219.24	67.7588	2,219.24	69.8236	2,219.24	69.8014	2,219.24	69.9623	2,219.24	66.4989	2,219.24	67.7929	2,219.24	69.2966	2,219.24	65.3846	2,219.24	66.6563	2,219.24	57.6425	2,219.24	62.7241	2,219.24	64.7725	2,219.24	61.512	2,219.24	69.5028	2,219.24	66.9621
2,296.88	82.5538	2,296.88	81.3655	2,296.88	82.3437	2,296.88	78.7775	2,296.88	79.8789	2,296.88	78.1056	2,296.88	78.6294	2,296.88	78.0281	2,296.88	78.0696	2,296.88	76.5091	2,296.88	77.5369	2,296.88	76.3069	2,296.88	77.1756	2,296.88	74.2348	2,296.88	74.0579	2,296.88	73.1519	2,296.88	70.4911	2,296.88	73.2901	2,296.88	69.5426	2,296.88	71.8308	2,296.88	68.8719	2,296.88	68.1962	2,296.88	70.0084	2,296.88	69.6724	2,296.88	68.6974	2,296.88	68.579	2,296.88	68.9748	2,296.88	67.0327	2,296.88	64.581	2,296.88	66.2423	2,296.88	62.1503	2,296.88	57.824	2,296.88	67.024	2,296.88	60.1847	2,296.88	68.065	2,296.88	60.5035
2,378.91	82.8585	2,378.91	81.8205	2,378.91	82.5047	2,378.91	79.4107	2,378.91	79.9425	2,378.91	79.0141	2,378.91	78.8277	2,378.91	77.7272	2,378.91	78.9947	2,378.91	78.4503	2,378.91	78.0846	2,378.91	77.5261	2,378.91	76.2177	2,378.91	77.5267	2,378.91	73.6641	2,378.91	74.1283	2,378.91	72.135	2,378.91	72.9064	2,378.91	71.0442	2,378.91	71.0588	2,378.91	69.9678	2,378.91	69.4333	2,378.91	65.4216	2,378.91	66.3699	2,378.91	67.7784	2,378.91	69.8962	2,378.91	69.4823	2,378.91	64.8635	2,378.91	64.0375	2,378.91	66.1193	2,378.91	57.5235	2,378.91	60.8705	2,378.91	62.3515	2,378.91	65.3595	2,378.91	67.7845	2,378.91	64.356
2,462.4	82.5933	2,462.4	81.7742	2,462.4	82.2204	2,462.4	80.9949	2,462.4	80.7477	2,462.4	78.9918	2,462.4	78.4472	2,462.4	79.2798	2,462.4	78.7009	2,462.4	78.829	2,462.4	78.3443	2,462.4	78.6383	2,462.4	77.5696	2,462.4	74.8491	2,462.4	75.597	2,462.4	72.5996	2,462.4	71.565	2,462.4	72.4141	2,462.4	71.3297	2,462.4	66.8929	2,462.4	72.2244	2,462.4	69.3432	2,462.4	69.8328	2,462.4	65.7479	2,462.4	68.6597	2,462.4	67.4524	2,462.4	70.4697	2,462.4	65.182	2,462.4	64.5235	2,462.4	63.1562	2,462.4	58.853	2,462.4	60.739	2,462.4	63.0899	2,462.4	64.6812	2,462.4	68.3699	2,462.4	64.0161
2,548.83	82.662	2,548.83	81.408	2,548.83	81.8838	2,548.83	80.4737	2,548.83	80.0079	2,548.83	79.7184	2,548.83	78.23	2,548.83	80.1095	2,548.83	78.0171	2,548.83	79.1848	2,548.83	77.9118	2,548.83	76.7115	2,548.83	77.1963	2,548.83	73.0182	2,548.83	73.6547	2,548.83	71.3875	2,548.83	70.8549	2,548.83	63.3765	2,548.83	72.5727	2,548.83	68.8505	2,548.83	71.5946	2,548.83	67.2043	2,548.83	71.1322	2,548.83	66.8577	2,548.83	69.6924	2,548.83	63.6731	2,548.83	68.7614	2,548.83	65.9789	2,548.83	64.8454	2,548.83	58.911	2,548.83	60.9847	2,548.83	61.3505	2,548.83	63.5024	2,548.83	60.4024	2,548.83	67.5494	2,548.83	61.4797
2,639.65	82.7491	2,639.65	81.4952	2,639.65	82.8656	2,639.65	80.0457	2,639.65	79.5833	2,639.65	80.7978	2,639.65	77.1577	2,639.65	80.1026	2,639.65	77.9542	2,639.65	77.6783	2,639.65	78.3342	2,639.65	74.6376	2,639.65	76.3004	2,639.65	72.8211	2,639.65	73.041	2,639.65	72.5988	2,639.65	74.6703	2,639.65	71.1951	2,639.65	73.8298	2,639.65	68.6347	2,639.65	69.457	2,639.65	65.0491	2,639.65	62.3505	2,639.65	65.7267	2,639.65	68.8041	2,639.65	64.2638	2,639.65	65.395	2,639.65	63.0311	2,639.65	64.9103	2,639.65	60.5051	2,639.65	62.7702	2,639.65	52.9514	2,639.65	64.8023	2,639.65	63.3846	2,639.65	67.4489	2,639.65	62.8222
2,731.93	82.0618	2,731.93	81.2606	2,731.93	83.111	2,731.93	80.8587	2,731.93	81.1435	2,731.93	81.1796	2,731.93	77.2714	2,731.93	78.9009	2,731.93	77.9863	2,731.93	77.4823	2,731.93	79.1786	2,731.93	74.1001	2,731.93	77.3012	2,731.93	73.0114	2,731.93	71.4418	2,731.93	67.7882	2,731.93	71.8494	2,731.93	70.212	2,731.93	72.351	2,731.93	67.4817	2,731.93	66.888	2,731.93	68.6978	2,731.93	63.9195	2,731.93	65.4362	2,731.93	66.5937	2,731.93	64.8838	2,731.93	68.1523	2,731.93	64.3019	2,731.93	63.4761	2,731.93	62.111	2,731.93	57.0294	2,731.93	57.9028	2,731.93	63.8978	2,731.93	57.3606	2,731.93	66.8498	2,731.93	58.9364
2,828.61	82.7454	2,828.61	81.9402	2,828.61	83.2088	2,828.61	82.4966	2,828.61	82.5739	2,828.61	80.3318	2,828.61	79.1085	2,828.61	78.6105	2,828.61	79.0705	2,828.61	76.4576	2,828.61	79.4752	2,828.61	75.158	2,828.61	76.5218	2,828.61	71.9171	2,828.61	73.3752	2,828.61	71.6539	2,828.61	70.6311	2,828.61	69.4703	2,828.61	70.3799	2,828.61	70.6464	2,828.61	64.6149	2,828.61	68.16	2,828.61	67.614	2,828.61	67.9037	2,828.61	67.7726	2,828.61	66.5669	2,828.61	66.0029	2,828.61	65.2226	2,828.61	61.6596	2,828.61	61.6026	2,828.61	59.3907	2,828.61	57.6442	2,828.61	65.2233	2,828.61	58.9866	2,828.61	66.2458	2,828.61	61.2154
2,928.22	82.8111	2,928.22	82.5709	2,928.22	83.1868	2,928.22	82.4095	2,928.22	82.7523	2,928.22	80.417	2,928.22	80.0211	2,928.22	78.8031	2,928.22	78.1418	2,928.22	76.3407	2,928.22	78.4662	2,928.22	74.9096	2,928.22	76.7208	2,928.22	72.7114	2,928.22	75.6699	2,928.22	73.5956	2,928.22	69.702	2,928.22	72.157	2,928.22	62.4639	2,928.22	69.1971	2,928.22	71.2376	2,928.22	66.7689	2,928.22	72.8775	2,928.22	67.276	2,928.22	67.3542	2,928.22	67.4458	2,928.22	65.1372	2,928.22	66.6081	2,928.22	50.3263	2,928.22	62.2405	2,928.22	51.7818	2,928.22	61.0602	2,928.22	64.8625	2,928.22	59.7538	2,928.22	65.5083	2,928.22	62.284
3,030.76	82.5115	3,030.76	82.6897	3,030.76	83.1724	3,030.76	81.5426	3,030.76	82.6074	3,030.76	79.9143	3,030.76	80.6067	3,030.76	77.7169	3,030.76	77.3904	3,030.76	76.7054	3,030.76	77.604	3,030.76	74.1676	3,030.76	75.6269	3,030.76	75.1858	3,030.76	74.6828	3,030.76	71.979	3,030.76	65.3868	3,030.76	70.2014	3,030.76	61.1254	3,030.76	69.7701	3,030.76	72.3792	3,030.76	70.0679	3,030.76	73.7175	3,030.76	67.5791	3,030.76	66.4522	3,030.76	67.308	3,030.76	67.734	3,030.76	66.5277	3,030.76	55.4379	3,030.76	64.3255	3,030.76	56.3943	3,030.76	53.292	3,030.76	65.9394	3,030.76	60.8704	3,030.76	66.3302	3,030.76	63.3187
3,137.7	82.8855	3,137.7	82.7037	3,137.7	83.5207	3,137.7	81.8823	3,137.7	82.0389	3,137.7	80.2892	3,137.7	80.027	3,137.7	78.4701	3,137.7	78.4806	3,137.7	76.8624	3,137.7	78.0108	3,137.7	76.6037	3,137.7	75.8268	3,137.7	74.9522	3,137.7	73.8487	3,137.7	72.2129	3,137.7	65.3042	3,137.7	72.1109	3,137.7	67.9769	3,137.7	70.7111	3,137.7	71.2865	3,137.7	68.6926	3,137.7	68.9831	3,137.7	66.3559	3,137.7	64.0608	3,137.7	66.6894	3,137.7	67.2207	3,137.7	64.2066	3,137.7	54.8813	3,137.7	63.6932	3,137.7	54.2042	3,137.7	58.4552	3,137.7	66.9866	3,137.7	54.4787	3,137.7	64.3628	3,137.7	64.1722
3,249.02	82.0825	3,249.02	82.9507	3,249.02	83.712	3,249.02	81.9638	3,249.02	82.5006	3,249.02	80.6096	3,249.02	79.9979	3,249.02	78.235	3,249.02	78.7202	3,249.02	77.3612	3,249.02	77.9064	3,249.02	76.7041	3,249.02	75.3529	3,249.02	73.8913	3,249.02	74.9132	3,249.02	74.105	3,249.02	71.475	3,249.02	71.1299	3,249.02	70.0928	3,249.02	68.6399	3,249.02	70.6889	3,249.02	65.8224	3,249.02	66.3823	3,249.02	65.872	3,249.02	65.6918	3,249.02	65.6541	3,249.02	67.1155	3,249.02	65.9582	3,249.02	58.9271	3,249.02	63.0869	3,249.02	57.3752	3,249.02	59.8497	3,249.02	65.2521	3,249.02	55.6653	3,249.02	63.384	3,249.02	64.3707
3,363.28	82.086	3,363.28	82.6607	3,363.28	82.5637	3,363.28	82.103	3,363.28	83.0876	3,363.28	80.2934	3,363.28	80.6108	3,363.28	78.5876	3,363.28	78.0352	3,363.28	77.6214	3,363.28	76.7161	3,363.28	76.6692	3,363.28	76.0465	3,363.28	74.1923	3,363.28	75.8548	3,363.28	71.3002	3,363.28	72.7783	3,363.28	65.6741	3,363.28	69.8304	3,363.28	67.9272	3,363.28	71.2166	3,363.28	66.7813	3,363.28	67.2808	3,363.28	65.1928	3,363.28	68.8101	3,363.28	63.3248	3,363.28	65.2286	3,363.28	63.9834	3,363.28	61.3312	3,363.28	60.3292	3,363.28	57.0077	3,363.28	56.215	3,363.28	65.3519	3,363.28	49.354	3,363.28	62.8523	3,363.28	61.4222
3,481.93	82.5297	3,481.93	82.8758	3,481.93	82.0878	3,481.93	82.1273	3,481.93	82.5913	3,481.93	79.7271	3,481.93	80.8549	3,481.93	78.7914	3,481.93	77.5576	3,481.93	77.8189	3,481.93	75.6476	3,481.93	75.0741	3,481.93	77.5585	3,481.93	71.5872	3,481.93	75.3336	3,481.93	66.6846	3,481.93	74.8867	3,481.93	69.186	3,481.93	67.7781	3,481.93	66.2355	3,481.93	67.5581	3,481.93	66.8839	3,481.93	69.9916	3,481.93	62.2752	3,481.93	69.479	3,481.93	64.9679	3,481.93	63.4439	3,481.93	62.4925	3,481.93	60.4605	3,481.93	59.6201	3,481.93	54.7619	3,481.93	53.0666	3,481.93	64.8923	3,481.93	48.2281	3,481.93	63.8771	3,481.93	62.4862
3,604.98	82.4733	3,604.98	82.8396	3,604.98	81.891	3,604.98	81.9214	3,604.98	82.2203	3,604.98	79.6337	3,604.98	80.7517	3,604.98	78.4476	3,604.98	76.0796	3,604.98	76.5914	3,604.98	75.6698	3,604.98	73.4021	3,604.98	78.1381	3,604.98	69.8055	3,604.98	75.7746	3,604.98	71.4145	3,604.98	73.9255	3,604.98	65.8778	3,604.98	59.9554	3,604.98	67.0817	3,604.98	63.8684	3,604.98	66.2047	3,604.98	68.7149	3,604.98	65.8727	3,604.98	67.5791	3,604.98	62.3997	3,604.98	61.9119	3,604.98	64.1897	3,604.98	58.0436	3,604.98	62.2038	3,604.98	54.0152	3,604.98	57.9994	3,604.98	63.7511	3,604.98	46.6558	3,604.98	62.8477	3,604.98	62.3524
3,732.42	82.5072	3,732.42	82.3823	3,732.42	81.4409	3,732.42	81.3867	3,732.42	81.3797	3,732.42	79.326	3,732.42	80.4332	3,732.42	78.2129	3,732.42	76.3213	3,732.42	76.1173	3,732.42	75.0868	3,732.42	72.54	3,732.42	76.7029	3,732.42	71.4902	3,732.42	75.0365	3,732.42	70.014	3,732.42	69.8897	3,732.42	69.0779	3,732.42	63.6457	3,732.42	69.5886	3,732.42	53.0396	3,732.42	66.021	3,732.42	65.2782	3,732.42	66.2409	3,732.42	61.1157	3,732.42	63.6902	3,732.42	60.0311	3,732.42	64.6397	3,732.42	53.865	3,732.42	61.2101	3,732.42	55.9785	3,732.42	56.5739	3,732.42	64.0019	3,732.42	47.7164	3,732.42	63.1883	3,732.42	59.5496
3,864.26	82.8271	3,864.26	82.5608	3,864.26	81.4212	3,864.26	81.2404	3,864.26	79.9538	3,864.26	79.1761	3,864.26	79.2633	3,864.26	78.5456	3,864.26	75.4665	3,864.26	75.3641	3,864.26	74.5962	3,864.26	73.8668	3,864.26	75.1689	3,864.26	72.4821	3,864.26	73.2563	3,864.26	71.3756	3,864.26	69.9159	3,864.26	69.4704	3,864.26	67.8001	3,864.26	67.0019	3,864.26	60.1865	3,864.26	66.8449	3,864.26	55.4887	3,864.26	64.5589	3,864.26	58.4149	3,864.26	63.6358	3,864.26	58.3219	3,864.26	64.0152	3,864.26	58.5915	3,864.26	61.3316	3,864.26	53.5177	3,864.26	54.2312	3,864.26	63.4622	3,864.26	53.404	3,864.26	62.467	3,864.26	61.2753
4,000.49	82.2531	4,000.49	82.2036	4,000.49	81.4225	4,000.49	80.9856	4,000.49	80.0781	4,000.49	79.27	4,000.49	77.997	4,000.49	77.0206	4,000.49	76.0996	4,000.49	75.4998	4,000.49	74.5764	4,000.49	74.3561	4,000.49	74.3796	4,000.49	72.6359	4,000.49	71.5979	4,000.49	71.1683	4,000.49	67.293	4,000.49	67.648	4,000.49	64.2853	4,000.49	65.3891	4,000.49	65.5752	4,000.49	63.9276	4,000.49	50.4979	4,000.49	63.2316	4,000.49	60.9884	4,000.49	61.1244	4,000.49	58.5201	4,000.49	61.9838	4,000.49	60.0407	4,000.49	60.4259	4,000.49	51.5155	4,000.49	55.1333	4,000.49	63.3406	4,000.49	52.0099	4,000.49	62.3674	4,000.49	57.6534
4,141.11	82.1433	4,141.11	82.0654	4,141.11	81.7788	4,141.11	79.7457	4,141.11	80.1448	4,141.11	78.4922	4,141.11	78.4982	4,141.11	77.1685	4,141.11	75.9431	4,141.11	75.9603	4,141.11	74.5094	4,141.11	73.6288	4,141.11	74.1089	4,141.11	71.7732	4,141.11	69.1026	4,141.11	67.1301	4,141.11	66.1301	4,141.11	66.8795	4,141.11	69.3513	4,141.11	64.2189	4,141.11	67.9583	4,141.11	63.5952	4,141.11	58.1339	4,141.11	61.4151	4,141.11	59.1977	4,141.11	60.0313	4,141.11	57.4349	4,141.11	61.3691	4,141.11	61.009	4,141.11	60.0809	4,141.11	49.5266	4,141.11	53.5209	4,141.11	61.8786	4,141.11	51.2517	4,141.11	61.3532	4,141.11	57.7931
4,287.6	82.4669	4,287.6	81.3756	4,287.6	81.6839	4,287.6	80.2876	4,287.6	80.7032	4,287.6	79.6953	4,287.6	78.9265	4,287.6	77.098	4,287.6	76.2436	4,287.6	74.9516	4,287.6	74.5585	4,287.6	74.1073	4,287.6	72.7429	4,287.6	68.3108	4,287.6	66.6584	4,287.6	68.3481	4,287.6	68.7475	4,287.6	61.0401	4,287.6	69.5668	4,287.6	63.4026	4,287.6	63.8974	4,287.6	61.7174	4,287.6	54.3702	4,287.6	62.2528	4,287.6	61.4355	4,287.6	58.5998	4,287.6	61.0278	4,287.6	60.1651	4,287.6	59.4501	4,287.6	58.0754	4,287.6	51.3068	4,287.6	55.9161	4,287.6	60.9529	4,287.6	43.9651	4,287.6	62.3259	4,287.6	56.4037
4,438.48	82.5477	4,438.48	81.8862	4,438.48	81.7333	4,438.48	80.7914	4,438.48	80.4941	4,438.48	79.1997	4,438.48	79.0629	4,438.48	75.8817	4,438.48	75.8351	4,438.48	75.2078	4,438.48	73.8523	4,438.48	70.9128	4,438.48	68.8724	4,438.48	69.1774	4,438.48	69.6507	4,438.48	64.9932	4,438.48	70.6569	4,438.48	67.4947	4,438.48	67.9511	4,438.48	64.2735	4,438.48	55.9683	4,438.48	63.6273	4,438.48	52.1833	4,438.48	62.436	4,438.48	60.5041	4,438.48	61.2965	4,438.48	61.7758	4,438.48	61.1475	4,438.48	59.4143	4,438.48	58.6226	4,438.48	52.5703	4,438.48	56.2425	4,438.48	61.0702	4,438.48	47.5188	4,438.48	61.4365	4,438.48	54.9933
4,595.21	82.993	4,595.21	81.8086	4,595.21	81.5843	4,595.21	81.8127	4,595.21	79.7682	4,595.21	78.7898	4,595.21	78.7362	4,595.21	76.988	4,595.21	76.6703	4,595.21	74.4072	4,595.21	70.0713	4,595.21	71.8567	4,595.21	66.4827	4,595.21	68.2857	4,595.21	70.1214	4,595.21	69.1431	4,595.21	71.2067	4,595.21	65.3572	4,595.21	64.9661	4,595.21	65.5889	4,595.21	59.9031	4,595.21	63.4965	4,595.21	59.3191	4,595.21	63.0533	4,595.21	56.084	4,595.21	61.2238	4,595.21	59.8335	4,595.21	62.7037	4,595.21	59.3625	4,595.21	60.7398	4,595.21	51.1072	4,595.21	58.6451	4,595.21	60.8591	4,595.21	48.9332	4,595.21	61.3383	4,595.21	54.9924
4,756.35	82.2612	4,756.35	81.636	4,756.35	82.5099	4,756.35	81.4628	4,756.35	80.2901	4,756.35	78.1522	4,756.35	78.1481	4,756.35	76.4077	4,756.35	76.9585	4,756.35	73.7506	4,756.35	68.5225	4,756.35	71.4068	4,756.35	69.3587	4,756.35	71.7643	4,756.35	71.472	4,756.35	67.9016	4,756.35	68.6511	4,756.35	66.5986	4,756.35	64.7603	4,756.35	63.9519	4,756.35	61.7793	4,756.35	62.9793	4,756.35	41.5648	4,756.35	61.8128	4,756.35	53.9365	4,756.35	61.5143	4,756.35	56.4407	4,756.35	61.3994	4,756.35	53.1854	4,756.35	61.341	4,756.35	53.4082	4,756.35	53.3413	4,756.35	60.4685	4,756.35	35.3165	4,756.35	61.1659	4,756.35	55.1424
4,924.8	83.3303	4,924.8	82.7338	4,924.8	82.6761	4,924.8	81.1276	4,924.8	79.8994	4,924.8	77.4726	4,924.8	78.8215	4,924.8	76.262	4,924.8	75.1917	4,924.8	74.3655	4,924.8	68.9111	4,924.8	71.9056	4,924.8	71.2192	4,924.8	68.6525	4,924.8	70.5428	4,924.8	66.1032	4,924.8	65.3589	4,924.8	62.0323	4,924.8	65.4117	4,924.8	61.7033	4,924.8	61.9733	4,924.8	60.4539	4,924.8	55.0185	4,924.8	60.2478	4,924.8	46.8045	4,924.8	59.4335	4,924.8	51.6971	4,924.8	59.7504	4,924.8	56.7923	4,924.8	61.4238	4,924.8	55.4828	4,924.8	58.097	4,924.8	59.6767	4,924.8	51.3333	4,924.8	60.9503	4,924.8	52.9013
5,097.66	82.2212	5,097.66	82.1216	5,097.66	83.0589	5,097.66	80.5582	5,097.66	80.9795	5,097.66	78.2879	5,097.66	77.6655	5,097.66	76.9072	5,097.66	73.9454	5,097.66	73.5045	5,097.66	68.738	5,097.66	70.0014	5,097.66	71.5002	5,097.66	67.5761	5,097.66	68.1992	5,097.66	62.9067	5,097.66	64.204	5,097.66	64.123	5,097.66	62.8895	5,097.66	61.5319	5,097.66	59.5409	5,097.66	62.8226	5,097.66	58.3419	5,097.66	61.7836	5,097.66	56.4923	5,097.66	59.464	5,097.66	56.6461	5,097.66	59.6555	5,097.66	61.1306	5,097.66	61.7741	5,097.66	54.4501	5,097.66	59.3307	5,097.66	58.7165	5,097.66	54.4793	5,097.66	61.1954	5,097.66	53.7988
5,277.83	83.2339	5,277.83	82.6456	5,277.83	82.8502	5,277.83	80.463	5,277.83	80.7508	5,277.83	78.7819	5,277.83	77.2253	5,277.83	76.1414	5,277.83	73.3585	5,277.83	73.1704	5,277.83	69.6788	5,277.83	69.7937	5,277.83	70.4378	5,277.83	67.0115	5,277.83	66.2761	5,277.83	67.4653	5,277.83	63.321	5,277.83	65.803	5,277.83	58.2347	5,277.83	64.0673	5,277.83	59.7355	5,277.83	63.3059	5,277.83	55.4753	5,277.83	61.6558	5,277.83	55.8072	5,277.83	61.6673	5,277.83	55.6977	5,277.83	61.3104	5,277.83	61.8246	5,277.83	62.5562	5,277.83	52.005	5,277.83	60.7074	5,277.83	59.8187	5,277.83	55.3753	5,277.83	58.9142	5,277.83	53.5931
5,463.87	82.4723	5,463.87	81.8652	5,463.87	82.5542	5,463.87	80.3935	5,463.87	80.674	5,463.87	78.9042	5,463.87	75.9802	5,463.87	76.0107	5,463.87	72.8976	5,463.87	72.7001	5,463.87	70.1153	5,463.87	70.0899	5,463.87	66.5472	5,463.87	70.1915	5,463.87	66.577	5,463.87	66.4799	5,463.87	64.3214	5,463.87	65.6875	5,463.87	63.6573	5,463.87	63.1197	5,463.87	60.3464	5,463.87	63.3416	5,463.87	53.3315	5,463.87	62.1227	5,463.87	54.198	5,463.87	59.9477	5,463.87	51.5604	5,463.87	60.4995	5,463.87	58.2028	5,463.87	61.6197	5,463.87	55.1433	5,463.87	61.3388	5,463.87	58.4503	5,463.87	56.5394	5,463.87	58.0937	5,463.87	51.2249
5,657.23	82.324	5,657.23	82.2372	5,657.23	82.6912	5,657.23	80.8858	5,657.23	80.1033	5,657.23	78.3013	5,657.23	76.5401	5,657.23	74.7932	5,657.23	75.9576	5,657.23	73.7862	5,657.23	71.3344	5,657.23	71.3409	5,657.23	64.1427	5,657.23	69.4425	5,657.23	65.0463	5,657.23	67.2939	5,657.23	61.4552	5,657.23	64.8234	5,657.23	64.1834	5,657.23	61.7538	5,657.23	65.4824	5,657.23	61.0914	5,657.23	61.6406	5,657.23	59.5599	5,657.23	52.031	5,657.23	59.8521	5,657.23	55.6923	5,657.23	61.3218	5,657.23	56.9532	5,657.23	60.9451	5,657.23	55.8496	5,657.23	61.3011	5,657.23	58.2697	5,657.23	55.7425	5,657.23	57.4633	5,657.23	54.1758
5,856.45	82.7203	5,856.45	82.2281	5,856.45	82.1912	5,856.45	80.7056	5,856.45	80.7436	5,856.45	77.4811	5,856.45	76.8596	5,856.45	76.436	5,856.45	76.4336	5,856.45	73.8076	5,856.45	71.0444	5,856.45	70.8097	5,856.45	64.91	5,856.45	68.7847	5,856.45	64.5785	5,856.45	64.2364	5,856.45	62.7994	5,856.45	63.9494	5,856.45	60.3366	5,856.45	62.6071	5,856.45	62.8172	5,856.45	61.1867	5,856.45	61.6372	5,856.45	60.9848	5,856.45	51.9375	5,856.45	59.053	5,856.45	49.3502	5,856.45	60.1127	5,856.45	52.175	5,856.45	61.8135	5,856.45	54.7589	5,856.45	60.101	5,856.45	58.5927	5,856.45	57.5162	5,856.45	58.8714	5,856.45	50.7928
6,062.99	83.0299	6,062.99	81.7289	6,062.99	82.1857	6,062.99	80.935	6,062.99	81.7485	6,062.99	78.1435	6,062.99	77.9045	6,062.99	76.6532	6,062.99	76.0445	6,062.99	73.4621	6,062.99	71.4152	6,062.99	70.9584	6,062.99	64.7877	6,062.99	69.8698	6,062.99	64.8584	6,062.99	67.1491	6,062.99	65.1383	6,062.99	65.8011	6,062.99	60.9224	6,062.99	63.8893	6,062.99	62.3799	6,062.99	62.5294	6,062.99	63.7587	6,062.99	61.8695	6,062.99	55.1805	6,062.99	61.328	6,062.99	46.7219	6,062.99	60.2352	6,062.99	54.3066	6,062.99	61.5667	6,062.99	53.9339	6,062.99	61.9208	6,062.99	57.3017	6,062.99	58.5632	6,062.99	55.9462	6,062.99	52.5111
6,276.86	83.0948	6,276.86	82.0046	6,276.86	81.9252	6,276.86	81.0153	6,276.86	81.3012	6,276.86	78.4937	6,276.86	78.165	6,276.86	75.9714	6,276.86	74.7655	6,276.86	73.8465	6,276.86	70.6943	6,276.86	71.73	6,276.86	64.8451	6,276.86	70.4425	6,276.86	66.2351	6,276.86	67.9791	6,276.86	65.7465	6,276.86	64.8865	6,276.86	59.0137	6,276.86	63.3981	6,276.86	61.1279	6,276.86	61.4401	6,276.86	62.2471	6,276.86	59.6019	6,276.86	56.4297	6,276.86	60.8418	6,276.86	42.9266	6,276.86	59.7422	6,276.86	56.2179	6,276.86	61.5553	6,276.86	54.0359	6,276.86	60.8742	6,276.86	54.008	6,276.86	58.6419	6,276.86	53.9526	6,276.86	53.0373
6,498.05	82.5629	6,498.05	81.8502	6,498.05	81.6939	6,498.05	81.0418	6,498.05	79.8792	6,498.05	78.4097	6,498.05	77.3476	6,498.05	75.2459	6,498.05	73.2896	6,498.05	74.6822	6,498.05	70.796	6,498.05	72.2278	6,498.05	65.592	6,498.05	70.1447	6,498.05	65.2549	6,498.05	65.0888	6,498.05	65.0316	6,498.05	62.1863	6,498.05	58.6207	6,498.05	60.8698	6,498.05	60.4289	6,498.05	59.2473	6,498.05	56.9597	6,498.05	58.2822	6,498.05	52.3676	6,498.05	57.4947	6,498.05	49.0643	6,498.05	59.1171	6,498.05	51.4241	6,498.05	60.4213	6,498.05	56.8542	6,498.05	60.2785	6,498.05	53.519	6,498.05	59.9644	6,498.05	55.6465	6,498.05	52.4527
6,726.56	82.9407	6,726.56	82.2252	6,726.56	82.2388	6,726.56	81.134	6,726.56	80.2582	6,726.56	78.0289	6,726.56	75.7016	6,726.56	75.8789	6,726.56	72.9945	6,726.56	74.6072	6,726.56	71.9136	6,726.56	71.3552	6,726.56	66.0438	6,726.56	68.2644	6,726.56	65.7442	6,726.56	64.5512	6,726.56	58.2683	6,726.56	62.2197	6,726.56	58.9324	6,726.56	60.0796	6,726.56	61.6701	6,726.56	58.8936	6,726.56	56.859	6,726.56	59.1867	6,726.56	44.6895	6,726.56	57.5374	6,726.56	48.6951	6,726.56	57.3933	6,726.56	53.1512	6,726.56	60.4332	6,726.56	55.7423	6,726.56	60.2345	6,726.56	53.9179	6,726.56	59.9591	6,726.56	54.5144	6,726.56	51.7439
6,963.87	82.6232	6,963.87	82.3853	6,963.87	82.6591	6,963.87	80.8287	6,963.87	81.1586	6,963.87	78.1072	6,963.87	76.6167	6,963.87	76.71	6,963.87	73.906	6,963.87	73.3672	6,963.87	72.3574	6,963.87	71.7798	6,963.87	68.2415	6,963.87	67.7281	6,963.87	65.2109	6,963.87	64.8031	6,963.87	56.8633	6,963.87	62.649	6,963.87	59.6527	6,963.87	60.9392	6,963.87	59.8531	6,963.87	59.3109	6,963.87	59.5853	6,963.87	58.5434	6,963.87	47.6396	6,963.87	58.5362	6,963.87	44.0983	6,963.87	56.7524	6,963.87	51.9474	6,963.87	60.2073	6,963.87	52.3058	6,963.87	61.4989	6,963.87	53.4341	6,963.87	59.222	6,963.87	53.0738	6,963.87	54.8624
7,209.96	82.133	7,209.96	82.3856	7,209.96	81.5205	7,209.96	80.5628	7,209.96	79.913	7,209.96	78.4722	7,209.96	78.2238	7,209.96	76.1638	7,209.96	75.6128	7,209.96	74.1255	7,209.96	71.8282	7,209.96	71.4682	7,209.96	69.9763	7,209.96	68.1355	7,209.96	58.2234	7,209.96	62.6864	7,209.96	63.2455	7,209.96	60.2478	7,209.96	59.0421	7,209.96	57.6982	7,209.96	56.196	7,209.96	57.0269	7,209.96	62.1701	7,209.96	56.2672	7,209.96	54.9859	7,209.96	56.8893	7,209.96	50.0222	7,209.96	56.5192	7,209.96	50.1063	7,209.96	58.5749	7,209.96	54.8933	7,209.96	60.1892	7,209.96	51.1042	7,209.96	58.1255	7,209.96	50.491	7,209.96	56.2363
7,464.84	82.5866	7,464.84	82.2849	7,464.84	81.1694	7,464.84	80.9844	7,464.84	79.5021	7,464.84	78.322	7,464.84	78.7245	7,464.84	76.5199	7,464.84	76.5148	7,464.84	74.53	7,464.84	73.2845	7,464.84	70.0155	7,464.84	68.0485	7,464.84	66.7615	7,464.84	60.5864	7,464.84	61.8678	7,464.84	64.0041	7,464.84	61.3399	7,464.84	52.0353	7,464.84	57.992	7,464.84	56.7374	7,464.84	58.9704	7,464.84	62.9266	7,464.84	58.3079	7,464.84	55.1892	7,464.84	56.5712	7,464.84	35.6905	7,464.84	56.4409	7,464.84	51.3193	7,464.84	57.6119	7,464.84	55.5421	7,464.84	58.5203	7,464.84	53.7895	7,464.84	59.0319	7,464.84	49.5792	7,464.84	57.0383
7,727.05	82.6918	7,727.05	82.1869	7,727.05	81.9737	7,727.05	80.9774	7,727.05	80.1997	7,727.05	78.2388	7,727.05	78.1797	7,727.05	76.966	7,727.05	76.2569	7,727.05	73.8094	7,727.05	74.7853	7,727.05	69.6919	7,727.05	64.8827	7,727.05	67.0051	7,727.05	65.8036	7,727.05	63.4728	7,727.05	58.9376	7,727.05	61.2238	7,727.05	51.9699	7,727.05	58.0231	7,727.05	57.0235	7,727.05	58.5413	7,727.05	61.0698	7,727.05	57.6503	7,727.05	53.7052	7,727.05	57.2509	7,727.05	45.9719	7,727.05	57.1569	7,727.05	53.3614	7,727.05	57.241	7,727.05	54.2799	7,727.05	58.4453	7,727.05	51.7021	7,727.05	60.2487	7,727.05	46.1512	7,727.05	56.1096
7,999.51	82.5379	7,999.51	82.2719	7,999.51	81.5094	7,999.51	80.9058	7,999.51	80.0584	7,999.51	78.2777	7,999.51	77.731	7,999.51	77.1509	7,999.51	76.3049	7,999.51	72.9632	7,999.51	74.4085	7,999.51	70.1436	7,999.51	66.0642	7,999.51	66.0119	7,999.51	63.5869	7,999.51	63.1504	7,999.51	56.9269	7,999.51	60.4952	7,999.51	53.5368	7,999.51	59.5489	7,999.51	49.4535	7,999.51	57.4353	7,999.51	57.9419	7,999.51	56.9408	7,999.51	47.9364	7,999.51	57.4808	7,999.51	47.3424	7,999.51	56.6079	7,999.51	49.2685	7,999.51	56.6766	7,999.51	54.5567	7,999.51	58.2872	7,999.51	45.789	7,999.51	58.8665	7,999.51	50.2514	7,999.51	55.3383
8,282.23	82.557	8,282.23	82.0941	8,282.23	81.5386	8,282.23	80.9164	8,282.23	80.0207	8,282.23	78.7551	8,282.23	77.8295	8,282.23	76.4865	8,282.23	76.8789	8,282.23	73.8002	8,282.23	72.6878	8,282.23	68.5436	8,282.23	69.2015	8,282.23	65.2822	8,282.23	55.0941	8,282.23	63.9631	8,282.23	57.0919	8,282.23	59.88	8,282.23	46.8847	8,282.23	61.0108	8,282.23	38.9174	8,282.23	57.5554	8,282.23	54.8251	8,282.23	57.952	8,282.23	41.2389	8,282.23	55.7639	8,282.23	46.7572	8,282.23	55.6595	8,282.23	48.2738	8,282.23	57.1107	8,282.23	54.131	8,282.23	57.8001	8,282.23	44.8261	8,282.23	58.6951	8,282.23	48.9305	8,282.23	54.7488
8,573.73	82.6101	8,573.73	82.1042	8,573.73	81.5841	8,573.73	80.9177	8,573.73	80.3092	8,573.73	78.8647	8,573.73	78.3838	8,573.73	76.5844	8,573.73	76.8467	8,573.73	73.2482	8,573.73	70.602	8,573.73	68.6974	8,573.73	70.7774	8,573.73	66.3174	8,573.73	51.2952	8,573.73	64.2599	8,573.73	58.1147	8,573.73	60.4787	8,573.73	42.8688	8,573.73	60.5185	8,573.73	30.8522	8,573.73	56.9977	8,573.73	54.0319	8,573.73	57.1508	8,573.73	46.8241	8,573.73	55.7883	8,573.73	47.3819	8,573.73	54.6573	8,573.73	49.678	8,573.73	57.0582	8,573.73	52.2112	8,573.73	57.7765	8,573.73	49.1892	8,573.73	57.5298	8,573.73	46.9736	8,573.73	53.3695
8,876.95	82.4065	8,876.95	82.2217	8,876.95	81.4667	8,876.95	81.0958	8,876.95	80.418	8,876.95	78.6908	8,876.95	78.695	8,876.95	76.519	8,876.95	75.9354	8,876.95	72.6061	8,876.95	72.5488	8,876.95	69.0123	8,876.95	67.8827	8,876.95	66.2424	8,876.95	62.1591	8,876.95	63.6823	8,876.95	55.3271	8,876.95	61.0742	8,876.95	52.3258	8,876.95	59.0156	8,876.95	44.8001	8,876.95	57.8661	8,876.95	52.6743	8,876.95	56.7747	8,876.95	43.3445	8,876.95	56.5063	8,876.95	41.8762	8,876.95	53.3965	8,876.95	52.6033	8,876.95	55.2529	8,876.95	49.7631	8,876.95	56.3013	8,876.95	48.9234	8,876.95	55.3142	8,876.95	45.0318	8,876.95	54.4752
9,188.96	82.8082	9,188.96	82.3026	9,188.96	81.7911	9,188.96	81.0984	9,188.96	79.8841	9,188.96	78.7724	9,188.96	78.0952	9,188.96	76.257	9,188.96	75.3178	9,188.96	72.3841	9,188.96	74.0134	9,188.96	69.1669	9,188.96	64.7044	9,188.96	66.8788	9,188.96	62.6686	9,188.96	63.7829	9,188.96	52.3943	9,188.96	61.0038	9,188.96	49.7753	9,188.96	58.3134	9,188.96	49.0348	9,188.96	57.4131	9,188.96	55.4654	9,188.96	57.2821	9,188.96	47.7774	9,188.96	56.6419	9,188.96	32.95	9,188.96	52.8254	9,188.96	50.8836	9,188.96	52.6017	9,188.96	47.4147	9,188.96	55.2476	9,188.96	49.6352	9,188.96	54.7807	9,188.96	43.3677	9,188.96	54.3926
9,514.16	82.5111	9,514.16	82.4183	9,514.16	81.8922	9,514.16	81.3066	9,514.16	80.1947	9,514.16	78.7551	9,514.16	77.0137	9,514.16	75.9259	9,514.16	76.4929	9,514.16	71.9743	9,514.16	73.0411	9,514.16	68.8968	9,514.16	66.4757	9,514.16	66.2643	9,514.16	64.68	9,514.16	62.7283	9,514.16	48.3022	9,514.16	59.416	9,514.16	47.1394	9,514.16	58.0464	9,514.16	48.5561	9,514.16	56.0213	9,514.16	54.7331	9,514.16	55.8715	9,514.16	45.7819	9,514.16	56.2941	9,514.16	39.4093	9,514.16	53.2589	9,514.16	47.9023	9,514.16	51.4375	9,514.16	45.2814	9,514.16	54.2533	9,514.16	47.2814	9,514.16	52.9185	9,514.16	41.6599	9,514.16	54.3077
9,849.61	82.6803	9,849.61	82.3738	9,849.61	82.0943	9,849.61	81.5772	9,849.61	80.6075	9,849.61	78.6867	9,849.61	77.8899	9,849.61	75.566	9,849.61	75.7485	9,849.61	71.763	9,849.61	70.8676	9,849.61	68.6889	9,849.61	67.8616	9,849.61	65.6363	9,849.61	62.6883	9,849.61	63.0452	9,849.61	53.3649	9,849.61	58.4814	9,849.61	49.9949	9,849.61	56.9957	9,849.61	45.9322	9,849.61	55.4943	9,849.61	50.7389	9,849.61	54.8346	9,849.61	43.6059	9,849.61	56.0114	9,849.61	42.3251	9,849.61	52.3444	9,849.61	38.0893	9,849.61	53.8981	9,849.61	46.2549	9,849.61	50.7277	9,849.61	46.2273	9,849.61	50.5773	9,849.61	37.6432	9,849.61	53.1511
10,196.8	82.6078	10,196.8	82.269	10,196.8	81.66	10,196.8	81.5769	10,196.8	80.5805	10,196.8	78.5567	10,196.8	78.7842	10,196.8	75.2859	10,196.8	74.3468	10,196.8	71.2613	10,196.8	70.8325	10,196.8	68.9224	10,196.8	68.9696	10,196.8	65.0595	10,196.8	64.3895	10,196.8	60.3656	10,196.8	53.6231	10,196.8	57.3419	10,196.8	46.2056	10,196.8	55.477	10,196.8	46.0965	10,196.8	55.7692	10,196.8	49.7163	10,196.8	54.8468	10,196.8	37.5289	10,196.8	55.1796	10,196.8	39.6472	10,196.8	52.3971	10,196.8	41.812	10,196.8	52.6902	10,196.8	44.2733	10,196.8	45.599	10,196.8	47.2147	10,196.8	47.6411	10,196.8	40.5445	10,196.8	52.1085
10,555.7	82.5259	10,555.7	82.3828	10,555.7	81.6947	10,555.7	81.3198	10,555.7	80.443	10,555.7	78.5437	10,555.7	77.9023	10,555.7	74.7796	10,555.7	74.352	10,555.7	71.6919	10,555.7	71.0685	10,555.7	68.7239	10,555.7	68.3575	10,555.7	63.9841	10,555.7	65.6138	10,555.7	61.082	10,555.7	57.1665	10,555.7	58.7189	10,555.7	51.9366	10,555.7	55.4007	10,555.7	40.8779	10,555.7	55.8646	10,555.7	49.0431	10,555.7	55.2241	10,555.7	31.8117	10,555.7	54.8869	10,555.7	32.5195	10,555.7	53.5077	10,555.7	45.6058	10,555.7	53.0298	10,555.7	43.6651	10,555.7	47.6735	10,555.7	47.7728	10,555.7	48.1933	10,555.7	43.2068	10,555.7	51.4418
10,927.7	82.4321	10,927.7	82.5087	10,927.7	81.6488	10,927.7	81.2485	10,927.7	80.2153	10,927.7	78.362	10,927.7	76.9311	10,927.7	74.8811	10,927.7	74.143	10,927.7	71.6924	10,927.7	70.8176	10,927.7	68.3974	10,927.7	66.7728	10,927.7	63.4476	10,927.7	67.44	10,927.7	60.002	10,927.7	55.1064	10,927.7	58.3236	10,927.7	48.053	10,927.7	55.4683	10,927.7	49.3136	10,927.7	56.5699	10,927.7	52.905	10,927.7	54.5698	10,927.7	33.3233	10,927.7	54.9288	10,927.7	31.9193	10,927.7	53.7534	10,927.7	44.3107	10,927.7	53.1053	10,927.7	41.409	10,927.7	48.1295	10,927.7	48.7802	10,927.7	49.1359	10,927.7	41.373	10,927.7	52.1278
11,313	82.645	11,313	82.4019	11,313	81.5433	11,313	81.5506	11,313	80.4682	11,313	78.094	11,313	76.6709	11,313	74.7089	11,313	73.7076	11,313	72.4315	11,313	70.2939	11,313	67.9577	11,313	68.5932	11,313	63.5097	11,313	65.8864	11,313	62.5865	11,313	57.2503	11,313	59.1891	11,313	50.9656	11,313	55.2731	11,313	53.0341	11,313	56.3802	11,313	54.7597	11,313	55.2019	11,313	31.7374	11,313	55.8891	11,313	34.931	11,313	53.3645	11,313	27.3915	11,313	53.5687	11,313	45.8243	11,313	48.8035	11,313	46.9138	11,313	47.59	11,313	32.4812	11,313	49.9074
11,712.9	82.3432	11,712.9	82.6698	11,712.9	81.6864	11,712.9	81.6552	11,712.9	80.6804	11,712.9	78.1607	11,712.9	77.7946	11,712.9	74.6102	11,712.9	73.9136	11,712.9	72.55	11,712.9	70.432	11,712.9	67.4363	11,712.9	68.5933	11,712.9	63.7813	11,712.9	65.3222	11,712.9	61.5818	11,712.9	60.6997	11,712.9	58.9276	11,712.9	52.9424	11,712.9	55.1645	11,712.9	54.3405	11,712.9	56.1975	11,712.9	54.2175	11,712.9	54.7978	11,712.9	41.6426	11,712.9	54.6178	11,712.9	34.6959	11,712.9	53.3345	11,712.9	34.0561	11,712.9	52.3094	11,712.9	45.2717	11,712.9	46.1999	11,712.9	45.4657	11,712.9	45.0553	11,712.9	32.7501	11,712.9	49.7501
12,126	82.4278	12,126	82.6433	12,126	81.495	12,126	81.6382	12,126	80.626	12,126	77.9524	12,126	77.4161	12,126	75.2935	12,126	72.7839	12,126	71.7024	12,126	70.4827	12,126	67.635	12,126	68.7291	12,126	64.1609	12,126	64.7708	12,126	62.6395	12,126	59.5801	12,126	58.6661	12,126	49.4741	12,126	54.8024	12,126	55.9551	12,126	55.2046	12,126	55.1923	12,126	54.2741	12,126	14.6649	12,126	53.7362	12,126	33.4458	12,126	52.791	12,126	42.5314	12,126	51.5586	12,126	41.684	12,126	49.0366	12,126	45.4405	12,126	46.2517	12,126	34.5864	12,126	49.1432
12,553.7	82.7285	12,553.7	82.4941	12,553.7	81.5037	12,553.7	81.7225	12,553.7	80.4602	12,553.7	77.7968	12,553.7	76.4633	12,553.7	75.1992	12,553.7	73.3275	12,553.7	71.8691	12,553.7	68.8774	12,553.7	67.3396	12,553.7	67.7729	12,553.7	64.4538	12,553.7	64.2631	12,553.7	60.5542	12,553.7	58.3728	12,553.7	57.3793	12,553.7	52.0052	12,553.7	52.9481	12,553.7	58.9237	12,553.7	55.9642	12,553.7	59.2623	12,553.7	53.215	12,553.7	31.018	12,553.7	54.3362	12,553.7	34.3981	12,553.7	52.5448	12,553.7	32.4534	12,553.7	53.0581	12,553.7	41.9057	12,553.7	45.5784	12,553.7	44.8523	12,553.7	45.095	12,553.7	36.5678	12,553.7	49.5182
12,996.1	82.5459	12,996.1	82.6286	12,996.1	81.6565	12,996.1	81.8029	12,996.1	80.5365	12,996.1	77.8909	12,996.1	77.6866	12,996.1	75.787	12,996.1	72.7294	12,996.1	71.2798	12,996.1	70.9018	12,996.1	68.1335	12,996.1	66.5671	12,996.1	64.1424	12,996.1	64.3567	12,996.1	60.3307	12,996.1	59.1708	12,996.1	57.2394	12,996.1	47.0518	12,996.1	50.8854	12,996.1	59.3827	12,996.1	55.1872	12,996.1	58.4499	12,996.1	52.5709	12,996.1	37.6919	12,996.1	54.4245	12,996.1	38.8907	12,996.1	52.3853	12,996.1	45.8298	12,996.1	51.3742	12,996.1	39.864	12,996.1	47.5185	12,996.1	44.1086	12,996.1	45.2058	12,996.1	41.8318	12,996.1	48.0566
13,454.6	82.6509	13,454.6	82.7074	13,454.6	81.7275	13,454.6	81.811	13,454.6	80.7688	13,454.6	77.8745	13,454.6	77.1649	13,454.6	75.7621	13,454.6	73.7773	13,454.6	71.556	13,454.6	70.9098	13,454.6	68.2704	13,454.6	65.1773	13,454.6	63.0994	13,454.6	61.3086	13,454.6	59.4926	13,454.6	61.1597	13,454.6	56.7341	13,454.6	46.7704	13,454.6	51.8178	13,454.6	59.3762	13,454.6	54.2996	13,454.6	58.1584	13,454.6	52.2519	13,454.6	41.4966	13,454.6	53.5535	13,454.6	39.5214	13,454.6	52.2254	13,454.6	44.5624	13,454.6	50.4417	13,454.6	42.4006	13,454.6	48.138	13,454.6	45.3798	13,454.6	42.8066	13,454.6	39.8576	13,454.6	48.1973
13,929.2	82.795	13,929.2	82.8146	13,929.2	82.0633	13,929.2	81.762	13,929.2	80.4559	13,929.2	78.3615	13,929.2	76.996	13,929.2	75.7011	13,929.2	74.7234	13,929.2	70.9053	13,929.2	69.6589	13,929.2	67.8878	13,929.2	65.8053	13,929.2	61.9439	13,929.2	60.9195	13,929.2	57.3396	13,929.2	61.401	13,929.2	55.4959	13,929.2	42.6571	13,929.2	51.061	13,929.2	61.348	13,929.2	53.0008	13,929.2	60.1759	13,929.2	52.5912	13,929.2	37.803	13,929.2	53.1255	13,929.2	35.4689	13,929.2	51.2665	13,929.2	44.5543	13,929.2	51.131	13,929.2	46.023	13,929.2	48.2041	13,929.2	17.8976	13,929.2	44.602	13,929.2	41.7307	13,929.2	47.1959
14,419.9	82.8159	14,419.9	83.0225	14,419.9	82.356	14,419.9	81.4885	14,419.9	80.752	14,419.9	77.9526	14,419.9	77.448	14,419.9	74.9134	14,419.9	74.2027	14,419.9	70.2951	14,419.9	70.0988	14,419.9	66.5508	14,419.9	63.1602	14,419.9	59.74	14,419.9	61.7059	14,419.9	58.3796	14,419.9	57.6288	14,419.9	54.9089	14,419.9	42.7684	14,419.9	49.7185	14,419.9	62.6374	14,419.9	52.1035	14,419.9	61.8707	14,419.9	50.3525	14,419.9	37.1844	14,419.9	52.3785	14,419.9	35.9641	14,419.9	49.9571	14,419.9	47.4583	14,419.9	51.0835	14,419.9	40.5223	14,419.9	43.9289	14,419.9	45.0081	14,419.9	39.5009	14,419.9	47.5825	14,419.9	44.7554
14,928.2	82.4639	14,928.2	82.6813	14,928.2	81.8766	14,928.2	80.9889	14,928.2	80.0194	14,928.2	78.1677	14,928.2	77.4442	14,928.2	74.2248	14,928.2	74.9723	14,928.2	69.9613	14,928.2	69.5258	14,928.2	65.5364	14,928.2	63.5137	14,928.2	58.9553	14,928.2	59.7608	14,928.2	56.8351	14,928.2	59.918	14,928.2	53.524	14,928.2	35.5822	14,928.2	51.1528	14,928.2	62.5676	14,928.2	50.8499	14,928.2	61.355	14,928.2	50.345	14,928.2	34.5058	14,928.2	52.2999	14,928.2	38.9293	14,928.2	49.3724	14,928.2	44.7858	14,928.2	48.2648	14,928.2	41.1575	14,928.2	46.0429	14,928.2	43.1364	14,928.2	40.0831	14,928.2	44.9721	14,928.2	47.0623
15,455.6	82.5667	15,455.6	82.5914	15,455.6	82.0108	15,455.6	80.6126	15,455.6	80.2816	15,455.6	77.3912	15,455.6	77.4298	15,455.6	73.2237	15,455.6	75.285	15,455.6	68.7247	15,455.6	68.9845	15,455.6	62.5521	15,455.6	62.4039	15,455.6	59.5772	15,455.6	59.8548	15,455.6	55.4224	15,455.6	58.3704	15,455.6	51.8895	15,455.6	37.2354	15,455.6	46.4691	15,455.6	63.3854	15,455.6	49.0524	15,455.6	62.0678	15,455.6	48.0733	15,455.6	32.7956	15,455.6	49.9428	15,455.6	34.326	15,455.6	46.1084	15,455.6	46.9927	15,455.6	49.4024	15,455.6	40.3022	15,455.6	41.8209	15,455.6	41.7221	15,455.6	32.3827	15,455.6	43.3666	15,455.6	44.497
16,000.5	82.6721	16,000.5	82.7943	16,000.5	82.0643	16,000.5	80.2307	16,000.5	79.8715	16,000.5	76.9469	16,000.5	77.7128	16,000.5	72.0975	16,000.5	73.8805	16,000.5	67.2717	16,000.5	68.3289	16,000.5	63.1149	16,000.5	60.5328	16,000.5	58.3834	16,000.5	58.189	16,000.5	55.9076	16,000.5	53.7912	16,000.5	50.1316	16,000.5	37.5026	16,000.5	48.5748	16,000.5	64.0517	16,000.5	46.289	16,000.5	62.8638	16,000.5	47.1908	16,000.5	40.6421	16,000.5	51.0804	16,000.5	36.2533	16,000.5	45.4614	16,000.5	43.6153	16,000.5	44.8209	16,000.5	39.1816	16,000.5	41.3278	16,000.5	47.063	16,000.5	34.4145	16,000.5	46.5595	16,000.5	42.1985
16,564.5	82.5348	16,564.5	82.6325	16,564.5	82.1004	16,564.5	80.129	16,564.5	80.2793	16,564.5	76.308	16,564.5	77.0455	16,564.5	71.9343	16,564.5	73.5917	16,564.5	67.1209	16,564.5	67.4707	16,564.5	64.5844	16,564.5	62.284	16,564.5	58.8768	16,564.5	57.6145	16,564.5	54.4347	16,564.5	54.328	16,564.5	50.6375	16,564.5	44.4665	16,564.5	49.7637	16,564.5	65.1569	16,564.5	46.4479	16,564.5	63.5063	16,564.5	49.3276	16,564.5	35.7938	16,564.5	51.9298	16,564.5	38.4191	16,564.5	46.4945	16,564.5	40.58	16,564.5	45.4605	16,564.5	32.3212	16,564.5	45.9167	16,564.5	48.4653	16,564.5	41.0146	16,564.5	45.5352	16,564.5	45.1732
17,148.9	82.2395	17,148.9	82.0346	17,148.9	82.2711	17,148.9	79.6918	17,148.9	80.4874	17,148.9	76.1233	17,148.9	77.5407	17,148.9	72.7786	17,148.9	72.2552	17,148.9	67.7828	17,148.9	66.8079	17,148.9	66.2425	17,148.9	62.2129	17,148.9	59.7232	17,148.9	55.6337	17,148.9	56.6054	17,148.9	51.7799	17,148.9	53.0398	17,148.9	48.1057	17,148.9	51.2534	17,148.9	65.3359	17,148.9	47.0527	17,148.9	63.6446	17,148.9	50.8668	17,148.9	21.9836	17,148.9	53.0975	17,148.9	36.0216	17,148.9	46.5607	17,148.9	41.551	17,148.9	47.8845	17,148.9	37.1893	17,148.9	46.0873	17,148.9	46.631	17,148.9	42.6464	17,148.9	43.6614	17,148.9	43.9696
17,752.4	81.9355	17,752.4	81.4374	17,752.4	82.3279	17,752.4	79.4141	17,752.4	80.2788	17,752.4	76.6489	17,752.4	77.2874	17,752.4	74.4137	17,752.4	71.7568	17,752.4	69.5734	17,752.4	66.9921	17,752.4	67.3323	17,752.4	62.1863	17,752.4	60.9313	17,752.4	55.7874	17,752.4	58.4157	17,752.4	52.7885	17,752.4	53.0775	17,752.4	50.819	17,752.4	51.3886	17,752.4	65.7384	17,752.4	47.5047	17,752.4	63.4335	17,752.4	52.2915	17,752.4	29.0628	17,752.4	53.5871	17,752.4	33.6696	17,752.4	46.7804	17,752.4	37.6627	17,752.4	48.3402	17,752.4	29.4455	17,752.4	45.3324	17,752.4	47.1309	17,752.4	44.3427	17,752.4	45.364	17,752.4	43.925
18,379.4	81.6495	18,379.4	80.9567	18,379.4	82.3411	18,379.4	79.9458	18,379.4	80.1132	18,379.4	77.4826	18,379.4	76.9222	18,379.4	75.7064	18,379.4	71.5391	18,379.4	71.0775	18,379.4	66.651	18,379.4	67.775	18,379.4	63.397	18,379.4	61.8618	18,379.4	56.9356	18,379.4	57.9235	18,379.4	53.1018	18,379.4	54.1568	18,379.4	52.9854	18,379.4	51.7507	18,379.4	66.1323	18,379.4	46.9243	18,379.4	63.0184	18,379.4	52.6573	18,379.4	37.6892	18,379.4	53.9878	18,379.4	38.5322	18,379.4	46.8539	18,379.4	36.7807	18,379.4	49.533	18,379.4	31.8922	18,379.4	43.8271	18,379.4	46.768	18,379.4	42.6989	18,379.4	46.5638	18,379.4	42.7027
19,026.9	81.0568	19,026.9	80.3648	19,026.9	81.8437	19,026.9	80.9429	19,026.9	80.1988	19,026.9	78.5026	19,026.9	77.093	19,026.9	76.3612	19,026.9	71.6054	19,026.9	72.0232	19,026.9	68.5549	19,026.9	68.3887	19,026.9	64.1565	19,026.9	62.2714	19,026.9	58.3018	19,026.9	57.5807	19,026.9	52.851	19,026.9	53.352	19,026.9	53.0488	19,026.9	52.349	19,026.9	66.8372	19,026.9	45.3889	19,026.9	63.1916	19,026.9	52.9235	19,026.9	41.9593	19,026.9	53.968	19,026.9	35.3812	19,026.9	46.4653	19,026.9	35.6284	19,026.9	48.7267	19,026.9	33.199	19,026.9	44.6963	19,026.9	46.2975	19,026.9	45.917	19,026.9	45.6806	19,026.9	41.9793
19,697.8	80.2569	19,697.8	79.6329	19,697.8	81.3047	19,697.8	81.3169	19,697.8	79.8977	19,697.8	79.1145	19,697.8	77.0199	19,697.8	76.6365	19,697.8	74.3385	19,697.8	72.5892	19,697.8	69.4703	19,697.8	68.515	19,697.8	65.0224	19,697.8	62.0321	19,697.8	58.7966	19,697.8	56.4156	19,697.8	53.1215	19,697.8	52.0115	19,697.8	55.5753	19,697.8	52.4756	19,697.8	67.1102	19,697.8	43.8806	19,697.8	62.9385	19,697.8	53.9897	19,697.8	45.3335	19,697.8	52.1705	19,697.8	39.6721	19,697.8	42.5244	19,697.8	22.1932	19,697.8	47.7743	19,697.8	38.2869	19,697.8	47.2988	19,697.8	47.256	19,697.8	47.2237	19,697.8	47.2575	19,697.8	43.4969
19,999.5	79.5568	19,999.5	78.9932	19,999.5	80.7155	19,999.5	80.9863	19,999.5	79.2399	19,999.5	79.1223	19,999.5	77.3617	19,999.5	76.6352	19,999.5	73.6432	19,999.5	72.4133	19,999.5	69.3921	19,999.5	68.5372	19,999.5	65.0715	19,999.5	62.2735	19,999.5	62.9014	19,999.5	56.0432	19,999.5	41.2809	19,999.5	54.4185	19,999.5	55.7814	19,999.5	51.6471	19,999.5	66.6944	19,999.5	50.3317	19,999.5	60.6134	19,999.5	55.9675	19,999.5	47.4702	19,999.5	54.3852	19,999.5	52.1377	19,999.5	38.6907	19,999.5	44.5316	19,999.5	56.2994	19,999.5	52.0996	19,999.5	44.8014	19,999.5	37.0364	19,999.5	32.0912	19,999.5	52.443	19,999.5	47.4707
