"SPL Horizontal"
"On-Axis"		"10°"		"-10°"		"20°"		"-20°"		"30°"		"-30°"		"40°"		"-40°"		"50°"		"-50°"		"60°"		"-60°"		"70°"		"-70°"		"80°"		"-80°"		"90°"		"-90°"		"100°"		"-100°"		"110°"		"-110°"		"120°"		"-120°"		"130°"		"-130°"		"140°"		"-140°"		"150°"		"-150°"		"160°"		"-160°"		"170°"		"-170°"		"180°"
"Frequency / Hz"	"Sound Pressure Level / dB (re 20 µPa/V)  [2.83  V @ 1. m]"	"Frequency / Hz"	"Sound Pressure Level / dB (re 20 µPa/V)  [2.83  V @ 1. m]"	"Frequency / Hz"	"Sound Pressure Level / dB (re 20 µPa/V)  [2.83  V @ 1. m]"	"Frequency / Hz"	"Sound Pressure Level / dB (re 20 µPa/V)  [2.83  V @ 1. m]"	"Frequency / Hz"	"Sound Pressure Level / dB (re 20 µPa/V)  [2.83  V @ 1. m]"	"Frequency / Hz"	"Sound Pressure Level / dB (re 20 µPa/V)  [2.83  V @ 1. m]"	"Frequency / Hz"	"Sound Pressure Level / dB (re 20 µPa/V)  [2.83  V @ 1. m]"	"Frequency / Hz"	"Sound Pressure Level / dB (re 20 µPa/V)  [2.83  V @ 1. m]"	"Frequency / Hz"	"Sound Pressure Level / dB (re 20 µPa/V)  [2.83  V @ 1. m]"	"Frequency / Hz"	"Sound Pressure Level / dB (re 20 µPa/V)  [2.83  V @ 1. m]"	"Frequency / Hz"	"Sound Pressure Level / dB (re 20 µPa/V)  [2.83  V @ 1. m]"	"Frequency / Hz"	"Sound Pressure Level / dB (re 20 µPa/V)  [2.83  V @ 1. m]"	"Frequency / Hz"	"Sound Pressure Level / dB (re 20 µPa/V)  [2.83  V @ 1. m]"	"Frequency / Hz"	"Sound Pressure Level / dB (re 20 µPa/V)  [2.83  V @ 1. m]"	"Frequency / Hz"	"Sound Pressure Level / dB (re 20 µPa/V)  [2.83  V @ 1. m]"	"Frequency / Hz"	"Sound Pressure Level / dB (re 20 µPa/V)  [2.83  V @ 1. m]"	"Frequency / Hz"	"Sound Pressure Level / dB (re 20 µPa/V)  [2.83  V @ 1. m]"	"Frequency / Hz"	"Sound Pressure Level / dB (re 20 µPa/V)  [2.83  V @ 1. m]"	"Frequency / Hz"	"Sound Pressure Level / dB (re 20 µPa/V)  [2.83  V @ 1. m]"	"Frequency / Hz"	"Sound Pressure Level / dB (re 20 µPa/V)  [2.83  V @ 1. m]"	"Frequency / Hz"	"Sound Pressure Level / dB (re 20 µPa/V)  [2.83  V @ 1. m]"	"Frequency / Hz"	"Sound Pressure Level / dB (re 20 µPa/V)  [2.83  V @ 1. m]"	"Frequency / Hz"	"Sound Pressure Level / dB (re 20 µPa/V)  [2.83  V @ 1. m]"	"Frequency / Hz"	"Sound Pressure Level / dB (re 20 µPa/V)  [2.83  V @ 1. m]"	"Frequency / Hz"	"Sound Pressure Level / dB (re 20 µPa/V)  [2.83  V @ 1. m]"	"Frequency / Hz"	"Sound Pressure Level / dB (re 20 µPa/V)  [2.83  V @ 1. m]"	"Frequency / Hz"	"Sound Pressure Level / dB (re 20 µPa/V)  [2.83  V @ 1. m]"	"Frequency / Hz"	"Sound Pressure Level / dB (re 20 µPa/V)  [2.83  V @ 1. m]"	"Frequency / Hz"	"Sound Pressure Level / dB (re 20 µPa/V)  [2.83  V @ 1. m]"	"Frequency / Hz"	"Sound Pressure Level / dB (re 20 µPa/V)  [2.83  V @ 1. m]"	"Frequency / Hz"	"Sound Pressure Level / dB (re 20 µPa/V)  [2.83  V @ 1. m]"	"Frequency / Hz"	"Sound Pressure Level / dB (re 20 µPa/V)  [2.83  V @ 1. m]"	"Frequency / Hz"	"Sound Pressure Level / dB (re 20 µPa/V)  [2.83  V @ 1. m]"	"Frequency / Hz"	"Sound Pressure Level / dB (re 20 µPa/V)  [2.83  V @ 1. m]"	"Frequency / Hz"	"Sound Pressure Level / dB (re 20 µPa/V)  [2.83  V @ 1. m]"	"Frequency / Hz"	"Sound Pressure Level / dB (re 20 µPa/V)  [2.83  V @ 1. m]"
20.5078	55.6955	20.5078	55.954	20.5078	55.3348	20.5078	56.1065	20.5078	54.8847	20.5078	56.1549	20.5078	54.3726	20.5078	56.1039	20.5078	53.8476	20.5078	55.9588	20.5078	53.3843	20.5078	55.7228	20.5078	53.0761	20.5078	55.3952	20.5078	53.0085	20.5078	54.9726	20.5078	53.2187	20.5078	54.4549	20.5078	53.6728	20.5078	53.861	20.5078	54.2819	20.5078	53.2548	20.5078	54.9403	20.5078	52.7745	20.5078	55.5569	20.5078	52.6168	20.5078	56.0653	20.5078	52.9141	20.5078	56.4221	20.5078	53.5966	20.5078	56.6003	20.5078	54.4457	20.5078	56.5817	20.5078	55.256	20.5078	56.3532	20.5078	55.908
21.9727	60.0796	21.9727	59.908	21.9727	60.2593	21.9727	59.7466	21.9727	60.446	21.9727	59.6	21.9727	60.6396	21.9727	59.4745	21.9727	60.8395	21.9727	59.3786	21.9727	61.0448	21.9727	59.3227	21.9727	61.2542	21.9727	59.319	21.9727	61.4662	21.9727	59.3821	21.9727	61.6795	21.9727	59.5274	21.9727	61.8925	21.9727	59.7671	21.9727	62.1031	21.9727	60.1047	21.9727	62.3082	21.9727	60.5284	21.9727	62.5039	21.9727	61.0101	21.9727	62.6844	21.9727	61.5089	21.9727	62.8407	21.9727	61.9809	21.9727	62.9595	21.9727	62.3871	21.9727	63.0233	21.9727	62.7006	21.9727	63.0124	21.9727	62.9087
23.4375	65.6744	23.4375	65.6799	23.4375	65.6862	23.4375	65.7026	23.4375	65.7166	23.4375	65.7431	23.4375	65.7672	23.4375	65.8031	23.4375	65.8396	23.4375	65.8842	23.4375	65.9346	23.4375	65.9879	23.4375	66.0524	23.4375	66.115	23.4375	66.1921	23.4375	66.2654	23.4375	66.3519	23.4375	66.438	23.4375	66.5298	23.4375	66.6305	23.4375	66.7226	23.4375	66.8381	23.4375	66.9256	23.4375	67.0538	23.4375	67.1317	23.4375	67.2671	23.4375	67.3319	23.4375	67.4657	23.4375	67.5155	23.4375	67.6367	23.4375	67.6718	23.4375	67.7689	23.4375	67.7906	23.4375	67.8534	23.4375	67.8637	23.4375	67.8855
24.9023	68.6688	24.9023	68.6749	24.9023	68.6803	24.9023	68.6983	24.9023	68.7094	24.9023	68.7395	24.9023	68.7567	24.9023	68.7986	24.9023	68.822	24.9023	68.8755	24.9023	68.9049	24.9023	68.9692	24.9023	69.0042	24.9023	69.0781	24.9023	69.1181	24.9023	69.1998	24.9023	69.244	24.9023	69.3314	24.9023	69.3789	24.9023	69.4694	24.9023	69.5192	24.9023	69.6102	24.9023	69.6606	24.9023	69.7497	24.9023	69.7985	24.9023	69.8831	24.9023	69.9277	24.9023	70.005	24.9023	70.043	24.9023	70.1095	24.9023	70.1392	24.9023	70.1908	24.9023	70.211	24.9023	70.2439	24.9023	70.2542	24.9023	70.2655
26.3672	70.9253	26.3672	70.9452	26.3672	70.9183	26.3672	70.9777	26.3672	70.9244	26.3672	71.0226	26.3672	70.9439	26.3672	71.0798	26.3672	70.9769	26.3672	71.1488	26.3672	71.0233	26.3672	71.2284	26.3672	71.0826	26.3672	71.3169	26.3672	71.1541	26.3672	71.4121	26.3672	71.2369	26.3672	71.5117	26.3672	71.3296	26.3672	71.613	26.3672	71.4305	26.3672	71.714	26.3672	71.5371	26.3672	71.8122	26.3672	71.6466	26.3672	71.9046	26.3672	71.7554	26.3672	71.987	26.3672	71.859	26.3672	72.0545	26.3672	71.9523	26.3672	72.1016	26.3672	72.0301	26.3672	72.124	26.3672	72.0871	26.3672	72.1192
27.832	72.9949	27.832	72.9983	27.832	72.9979	27.832	73.0085	27.832	73.0072	27.832	73.0256	27.832	73.023	27.832	73.05	27.832	73.045	27.832	73.0818	27.832	73.073	27.832	73.1209	27.832	73.1068	27.832	73.1665	27.832	73.1459	27.832	73.2173	27.832	73.19	27.832	73.2719	27.832	73.2387	27.832	73.3288	27.832	73.2917	27.832	73.3866	27.832	73.3482	27.832	73.4438	27.832	73.407	27.832	73.4989	27.832	73.4657	27.832	73.5494	27.832	73.5214	27.832	73.5926	27.832	73.5708	27.832	73.6252	27.832	73.6103	27.832	73.6445	27.832	73.6369	27.832	73.6486
29.2969	75.8072	29.2969	75.8288	29.2969	75.8018	29.2969	75.8654	29.2969	75.8131	29.2969	75.9163	29.2969	75.8417	29.2969	75.9801	29.2969	75.8876	29.2969	76.0558	29.2969	75.9506	29.2969	76.1419	29.2969	76.0297	29.2969	76.237	29.2969	76.1235	29.2969	76.3393	29.2969	76.2297	29.2969	76.4472	29.2969	76.3458	29.2969	76.5589	29.2969	76.4685	29.2969	76.6722	29.2969	76.5945	29.2969	76.7845	29.2969	76.7197	29.2969	76.8923	29.2969	76.8397	29.2969	76.9909	29.2969	76.9496	29.2969	77.0749	29.2969	77.0441	29.2969	77.1386	29.2969	77.1181	29.2969	77.1771	29.2969	77.1667	29.2969	77.1868
30.7617	79.0819	30.7617	79.0849	30.7617	79.0891	30.7617	79.098	30.7617	79.1064	30.7617	79.1211	30.7617	79.1339	30.7617	79.1542	30.7617	79.1717	30.7617	79.197	30.7617	79.2197	30.7617	79.2492	30.7617	79.2774	30.7617	79.3102	30.7617	79.3439	30.7617	79.3792	30.7617	79.4181	30.7617	79.455	30.7617	79.4982	30.7617	79.5361	30.7617	79.5822	30.7617	79.6203	30.7617	79.6676	30.7617	79.7053	30.7617	79.7515	30.7617	79.7878	30.7617	79.8306	30.7617	79.8643	30.7617	79.9012	30.7617	79.9306	30.7617	79.9597	30.7617	79.9829	30.7617	80.0028	30.7617	80.0177	30.7617	80.0278	30.7617	80.033
32.2266	80.122	32.2266	80.1333	32.2266	80.119	32.2266	80.1525	32.2266	80.1244	32.2266	80.1794	32.2266	80.1382	32.2266	80.2132	32.2266	80.1601	32.2266	80.2534	32.2266	80.1897	32.2266	80.2988	32.2266	80.2263	32.2266	80.3482	32.2266	80.2691	32.2266	80.4002	32.2266	80.3168	32.2266	80.4534	32.2266	80.3682	32.2266	80.5064	32.2266	80.4219	32.2266	80.5579	32.2266	80.4766	32.2266	80.6067	32.2266	80.5307	32.2266	80.6512	32.2266	80.5826	32.2266	80.6897	32.2266	80.6306	32.2266	80.7203	32.2266	80.6728	32.2266	80.7409	32.2266	80.7074	32.2266	80.7501	32.2266	80.7328	32.2266	80.7473
33.6914	81.6219	33.6914	81.6338	33.6914	81.6173	33.6914	81.6527	33.6914	81.6204	33.6914	81.678	33.6914	81.6312	33.6914	81.7091	33.6914	81.6496	33.6914	81.7452	33.6914	81.675	33.6914	81.7852	33.6914	81.7068	33.6914	81.8281	33.6914	81.7442	33.6914	81.8728	33.6914	81.7859	33.6914	81.918	33.6914	81.8308	33.6914	81.9625	33.6914	81.8776	33.6914	82.0054	33.6914	81.9251	33.6914	82.0455	33.6914	81.9719	33.6914	82.0817	33.6914	82.0167	33.6914	82.1128	33.6914	82.058	33.6914	82.1374	33.6914	82.0944	33.6914	82.1539	33.6914	82.1242	33.6914	82.1611	33.6914	82.146	33.6914	82.1585
35.1562	82.5614	35.1562	82.5685	35.1562	82.5606	35.1562	82.5815	35.1562	82.5659	35.1562	82.6003	35.1562	82.5772	35.1562	82.6244	35.1562	82.594	35.1562	82.653	35.1562	82.6158	35.1562	82.6855	35.1562	82.6419	35.1562	82.7209	35.1562	82.6717	35.1562	82.7581	35.1562	82.7043	35.1562	82.7959	35.1562	82.7389	35.1562	82.8333	35.1562	82.7747	35.1562	82.8691	35.1562	82.811	35.1562	82.9022	35.1562	82.8467	35.1562	82.9316	35.1562	82.8809	35.1562	82.9564	35.1562	82.9125	35.1562	82.9753	35.1562	82.9403	35.1562	82.9876	35.1562	82.9632	35.1562	82.9926	35.1562	82.9801	35.1562	82.9901
36.6211	82.9176	36.6211	82.9232	36.6211	82.9174	36.6211	82.9341	36.6211	82.9224	36.6211	82.9501	36.6211	82.9324	36.6211	82.9709	36.6211	82.947	36.6211	82.9958	36.6211	82.9656	36.6211	83.0242	36.6211	82.9877	36.6211	83.0552	36.6211	83.0126	36.6211	83.0877	36.6211	83.0397	36.6211	83.1206	36.6211	83.0681	36.6211	83.1529	36.6211	83.0974	36.6211	83.1833	36.6211	83.1267	36.6211	83.211	36.6211	83.1555	36.6211	83.2349	36.6211	83.1829	36.6211	83.2542	36.6211	83.2084	36.6211	83.2681	36.6211	83.231	36.6211	83.2762	36.6211	83.25	36.6211	83.2783	36.6211	83.2647	36.6211	83.2743
38.0859	83.5658	38.0859	83.573	38.0859	83.5616	38.0859	83.583	38.0859	83.5605	38.0859	83.5955	38.0859	83.5625	38.0859	83.61	38.0859	83.5674	38.0859	83.6259	38.0859	83.5749	38.0859	83.6428	38.0859	83.5848	38.0859	83.6598	38.0859	83.5967	38.0859	83.6765	38.0859	83.61	38.0859	83.6923	38.0859	83.6244	38.0859	83.7065	38.0859	83.6393	38.0859	83.7188	38.0859	83.6543	38.0859	83.7287	38.0859	83.6689	38.0859	83.7361	38.0859	83.6828	38.0859	83.7408	38.0859	83.6958	38.0859	83.7428	38.0859	83.7075	38.0859	83.7423	38.0859	83.7179	38.0859	83.7393	38.0859	83.7268	38.0859	83.734
39.5508	83.6383	39.5508	83.6447	39.5508	83.6343	39.5508	83.6531	39.5508	83.6328	39.5508	83.6631	39.5508	83.6342	39.5508	83.6743	39.5508	83.6383	39.5508	83.6861	39.5508	83.6452	39.5508	83.6982	39.5508	83.6546	39.5508	83.71	39.5508	83.666	39.5508	83.7213	39.5508	83.6788	39.5508	83.7317	39.5508	83.6925	39.5508	83.7411	39.5508	83.7063	39.5508	83.7492	39.5508	83.7194	39.5508	83.7561	39.5508	83.7315	39.5508	83.7617	39.5508	83.742	39.5508	83.766	39.5508	83.7508	39.5508	83.769	39.5508	83.7578	39.5508	83.7706	39.5508	83.7631	39.5508	83.7708	39.5508	83.7671	39.5508	83.7696
41.0156	83.7003	41.0156	83.7059	41.0156	83.6964	41.0156	83.7128	41.0156	83.6942	41.0156	83.7207	41.0156	83.6939	41.0156	83.7292	41.0156	83.6955	41.0156	83.7381	41.0156	83.6989	41.0156	83.7467	41.0156	83.7037	41.0156	83.755	41.0156	83.7099	41.0156	83.7624	41.0156	83.7169	41.0156	83.7688	41.0156	83.7243	41.0156	83.774	41.0156	83.7318	41.0156	83.778	41.0156	83.739	41.0156	83.7808	41.0156	83.7455	41.0156	83.7823	41.0156	83.7513	41.0156	83.7827	41.0156	83.7564	41.0156	83.7819	41.0156	83.7609	41.0156	83.78	41.0156	83.7652	41.0156	83.777	41.0156	83.7693	41.0156	83.7733
42.4805	83.5892	42.4805	83.5954	42.4805	83.5838	42.4805	83.6021	42.4805	83.5792	42.4805	83.6093	42.4805	83.5756	42.4805	83.6167	42.4805	83.5729	42.4805	83.624	42.4805	83.5712	42.4805	83.6311	42.4805	83.5704	42.4805	83.6376	42.4805	83.5704	42.4805	83.6433	42.4805	83.5712	42.4805	83.6479	42.4805	83.5727	42.4805	83.6511	42.4805	83.5748	42.4805	83.6526	42.4805	83.5774	42.4805	83.6524	42.4805	83.5806	42.4805	83.6503	42.4805	83.5845	42.4805	83.6463	42.4805	83.5891	42.4805	83.6405	42.4805	83.5947	42.4805	83.6334	42.4805	83.6012	42.4805	83.6253	42.4805	83.6087	42.4805	83.6169
43.9453	83.7393	43.9453	83.7506	43.9453	83.7275	43.9453	83.761	43.9453	83.7154	43.9453	83.7703	43.9453	83.703	43.9453	83.7781	43.9453	83.6905	43.9453	83.784	43.9453	83.6781	43.9453	83.7878	43.9453	83.6659	43.9453	83.7891	43.9453	83.6541	43.9453	83.7879	43.9453	83.6431	43.9453	83.7842	43.9453	83.6331	43.9453	83.7779	43.9453	83.6246	43.9453	83.7691	43.9453	83.6179	43.9453	83.7577	43.9453	83.6137	43.9453	83.744	43.9453	83.6124	43.9453	83.7282	43.9453	83.6145	43.9453	83.7108	43.9453	83.6202	43.9453	83.6925	43.9453	83.6294	43.9453	83.6742	43.9453	83.6419	43.9453	83.6571
45.4102	83.7925	45.4102	83.809	45.4102	83.7753	45.4102	83.8244	45.4102	83.7576	45.4102	83.8385	45.4102	83.7396	45.4102	83.8508	45.4102	83.7216	45.4102	83.8609	45.4102	83.704	45.4102	83.8684	45.4102	83.6872	45.4102	83.8729	45.4102	83.6715	45.4102	83.8742	45.4102	83.6575	45.4102	83.8722	45.4102	83.6458	45.4102	83.8666	45.4102	83.6368	45.4102	83.8574	45.4102	83.6311	45.4102	83.8445	45.4102	83.6293	45.4102	83.8279	45.4102	83.6319	45.4102	83.808	45.4102	83.6392	45.4102	83.7852	45.4102	83.6512	45.4102	83.7606	45.4102	83.6675	45.4102	83.7353	45.4102	83.6876	45.4102	83.7105
46.875	83.7968	46.875	83.8094	46.875	83.7828	46.875	83.8202	46.875	83.7675	46.875	83.8292	46.875	83.7512	46.875	83.8361	46.875	83.7342	46.875	83.8408	46.875	83.7169	46.875	83.8431	46.875	83.6997	46.875	83.843	46.875	83.6832	46.875	83.8405	46.875	83.6679	46.875	83.8356	46.875	83.6543	46.875	83.8284	46.875	83.643	46.875	83.8185	46.875	83.6345	46.875	83.806	46.875	83.6293	46.875	83.7906	46.875	83.6281	46.875	83.7726	46.875	83.6312	46.875	83.7522	46.875	83.639	46.875	83.7303	46.875	83.6512	46.875	83.7081	46.875	83.6674	46.875	83.6867
48.3398	83.7988	48.3398	83.8049	48.3398	83.7911	48.3398	83.8096	48.3398	83.7819	48.3398	83.8129	48.3398	83.7712	48.3398	83.815	48.3398	83.7592	48.3398	83.816	48.3398	83.7462	48.3398	83.816	48.3398	83.7327	48.3398	83.815	48.3398	83.7192	48.3398	83.8131	48.3398	83.7062	48.3398	83.8101	48.3398	83.6944	48.3398	83.806	48.3398	83.6842	48.3398	83.8003	48.3398	83.6762	48.3398	83.7928	48.3398	83.6709	48.3398	83.7831	48.3398	83.6687	48.3398	83.7711	48.3398	83.6701	48.3398	83.7571	48.3398	83.6751	48.3398	83.7415	48.3398	83.6837	48.3398	83.7254	48.3398	83.6955	48.3398	83.7097
51.2695	83.9702	51.2695	83.9865	51.2695	83.9518	51.2695	84.0002	51.2695	83.9316	51.2695	84.011	51.2695	83.9103	51.2695	84.019	51.2695	83.8883	51.2695	84.0239	51.2695	83.8663	51.2695	84.0261	51.2695	83.8448	51.2695	84.0255	51.2695	83.8247	51.2695	84.0224	51.2695	83.8064	51.2695	84.0168	51.2695	83.7907	51.2695	84.0088	51.2695	83.7784	51.2695	83.9983	51.2695	83.7701	51.2695	83.985	51.2695	83.7666	51.2695	83.9687	51.2695	83.7684	51.2695	83.9494	51.2695	83.7757	51.2695	83.9271	51.2695	83.7884	51.2695	83.9027	51.2695	83.806	51.2695	83.8771	51.2695	83.8274	51.2695	83.8515
52.7344	84.0985	52.7344	84.1112	52.7344	84.0811	52.7344	84.119	52.7344	84.0594	52.7344	84.1218	52.7344	84.0339	52.7344	84.1198	52.7344	84.0052	52.7344	84.1133	52.7344	83.9741	52.7344	84.1027	52.7344	83.9415	52.7344	84.0883	52.7344	83.9081	52.7344	84.0706	52.7344	83.875	52.7344	84.0498	52.7344	83.8431	52.7344	84.0261	52.7344	83.8135	52.7344	83.9996	52.7344	83.7875	52.7344	83.9704	52.7344	83.7661	52.7344	83.9387	52.7344	83.7506	52.7344	83.9052	52.7344	83.7418	52.7344	83.871	52.7344	83.7404	52.7344	83.8376	52.7344	83.7465	52.7344	83.807	52.7344	83.7602	52.7344	83.7807
54.1992	84.0442	54.1992	84.0485	54.1992	84.0363	54.1992	84.0494	54.1992	84.0245	54.1992	84.0472	54.1992	84.0087	54.1992	84.0421	54.1992	83.989	54.1992	84.0344	54.1992	83.9655	54.1992	84.0242	54.1992	83.9389	54.1992	84.0116	54.1992	83.9098	54.1992	83.9968	54.1992	83.8792	54.1992	83.9799	54.1992	83.8485	54.1992	83.9609	54.1992	83.8189	54.1992	83.9399	54.1992	83.792	54.1992	83.917	54.1992	83.7694	54.1992	83.8924	54.1992	83.7525	54.1992	83.8664	54.1992	83.7423	54.1992	83.84	54.1992	83.7392	54.1992	83.8142	54.1992	83.7431	54.1992	83.7903	54.1992	83.7536	54.1992	83.7697
55.6641	84.1354	55.6641	84.1385	55.6641	84.1321	55.6641	84.1418	55.6641	84.1282	55.6641	84.1453	55.6641	84.1234	55.6641	84.1494	55.6641	84.1174	55.6641	84.1539	55.6641	84.1099	55.6641	84.1585	55.6641	84.1008	55.6641	84.1629	55.6641	84.0903	55.6641	84.1667	55.6641	84.0787	55.6641	84.1693	55.6641	84.0663	55.6641	84.17	55.6641	84.0541	55.6641	84.1684	55.6641	84.0429	55.6641	84.1638	55.6641	84.034	55.6641	84.1558	55.6641	84.0286	55.6641	84.1443	55.6641	84.0279	55.6641	84.1294	55.6641	84.0324	55.6641	84.1118	55.6641	84.0421	55.6641	84.0927	55.6641	84.0563	55.6641	84.0737
58.5938	84.4492	58.5938	84.4474	58.5938	84.4496	58.5938	84.4446	58.5938	84.4484	58.5938	84.4413	58.5938	84.4452	58.5938	84.4376	58.5938	84.4398	58.5938	84.4339	58.5938	84.4321	58.5938	84.4303	58.5938	84.4221	58.5938	84.4267	58.5938	84.4098	58.5938	84.4231	58.5938	84.3957	58.5938	84.419	58.5938	84.3802	58.5938	84.4142	58.5938	84.3641	58.5938	84.4082	58.5938	84.3482	58.5938	84.4006	58.5938	84.3338	58.5938	84.3913	58.5938	84.3219	58.5938	84.38	58.5938	84.3138	58.5938	84.3672	58.5938	84.3102	58.5938	84.3534	58.5938	84.3116	58.5938	84.3397	58.5938	84.3176	58.5938	84.3273
60.0586	84.485	60.0586	84.4812	60.0586	84.4882	60.0586	84.477	60.0586	84.4906	60.0586	84.4728	60.0586	84.492	60.0586	84.4687	60.0586	84.4921	60.0586	84.465	60.0586	84.4907	60.0586	84.4618	60.0586	84.4879	60.0586	84.4591	60.0586	84.4833	60.0586	84.457	60.0586	84.4772	60.0586	84.4554	60.0586	84.4695	60.0586	84.454	60.0586	84.4606	60.0586	84.4524	60.0586	84.4511	60.0586	84.4505	60.0586	84.4416	60.0586	84.4479	60.0586	84.433	60.0586	84.4443	60.0586	84.4261	60.0586	84.4398	60.0586	84.4217	60.0586	84.4346	60.0586	84.42	60.0586	84.4292	60.0586	84.4211	60.0586	84.4244
62.9883	84.5837	62.9883	84.5709	62.9883	84.5943	62.9883	84.5563	62.9883	84.6022	62.9883	84.5405	62.9883	84.6073	62.9883	84.524	62.9883	84.6093	62.9883	84.5077	62.9883	84.6082	62.9883	84.492	62.9883	84.6039	62.9883	84.4776	62.9883	84.5966	62.9883	84.4649	62.9883	84.5864	62.9883	84.4544	62.9883	84.5737	62.9883	84.4461	62.9883	84.5589	62.9883	84.4402	62.9883	84.5427	62.9883	84.4366	62.9883	84.526	62.9883	84.4351	62.9883	84.5094	62.9883	84.4355	62.9883	84.4939	62.9883	84.4374	62.9883	84.4801	62.9883	84.4406	62.9883	84.4684	62.9883	84.4452	62.9883	84.4588	62.9883	84.4512
64.4531	84.6033	64.4531	84.5879	64.4531	84.6153	64.4531	84.5698	64.4531	84.6236	64.4531	84.5496	64.4531	84.6281	64.4531	84.528	64.4531	84.6285	64.4531	84.5058	64.4531	84.625	64.4531	84.4839	64.4531	84.6175	64.4531	84.4632	64.4531	84.6063	64.4531	84.4444	64.4531	84.5918	64.4531	84.428	64.4531	84.5745	64.4531	84.4145	64.4531	84.555	64.4531	84.4042	64.4531	84.534	64.4531	84.3971	64.4531	84.5125	64.4531	84.3932	64.4531	84.4913	64.4531	84.3923	64.4531	84.4713	64.4531	84.394	64.4531	84.4532	64.4531	84.3982	64.4531	84.4375	64.4531	84.4046	64.4531	84.4241	64.4531	84.4132
67.3828	84.7042	67.3828	84.6865	67.3828	84.7174	67.3828	84.6649	67.3828	84.7256	67.3828	84.6401	67.3828	84.7287	67.3828	84.6132	67.3828	84.7267	67.3828	84.5854	67.3828	84.7197	67.3828	84.5579	67.3828	84.708	67.3828	84.5318	67.3828	84.6922	67.3828	84.5083	67.3828	84.6728	67.3828	84.4881	67.3828	84.6507	67.3828	84.472	67.3828	84.6267	67.3828	84.4601	67.3828	84.6019	67.3828	84.4525	67.3828	84.5774	67.3828	84.449	67.3828	84.5541	67.3828	84.4491	67.3828	84.5328	67.3828	84.452	67.3828	84.5142	67.3828	84.4574	67.3828	84.4982	67.3828	84.4647	67.3828	84.4849	67.3828	84.4738
68.8477	84.7806	68.8477	84.7579	68.8477	84.7984	68.8477	84.7309	68.8477	84.8109	68.8477	84.7008	68.8477	84.8178	68.8477	84.6685	68.8477	84.8191	68.8477	84.6354	68.8477	84.8148	68.8477	84.6031	68.8477	84.8051	68.8477	84.5729	68.8477	84.7905	68.8477	84.5463	68.8477	84.7716	68.8477	84.5243	68.8477	84.7492	68.8477	84.5079	68.8477	84.7243	68.8477	84.4974	68.8477	84.6981	68.8477	84.493	68.8477	84.6716	68.8477	84.4941	68.8477	84.6462	68.8477	84.4999	68.8477	84.6226	68.8477	84.5094	68.8477	84.6013	68.8477	84.5213	68.8477	84.5824	68.8477	84.5349	68.8477	84.5653	68.8477	84.5496
71.7773	84.9347	71.7773	84.9027	71.7773	84.959	71.7773	84.8635	71.7773	84.9753	71.7773	84.8181	71.7773	84.9835	71.7773	84.7679	71.7773	84.9838	71.7773	84.7145	71.7773	84.9766	71.7773	84.6598	71.7773	84.9621	71.7773	84.6062	71.7773	84.9411	71.7773	84.5559	71.7773	84.914	71.7773	84.5112	71.7773	84.8818	71.7773	84.4742	71.7773	84.8451	71.7773	84.4465	71.7773	84.8051	71.7773	84.4294	71.7773	84.7629	71.7773	84.423	71.7773	84.7197	71.7773	84.4271	71.7773	84.6766	71.7773	84.4406	71.7773	84.6346	71.7773	84.4618	71.7773	84.5944	71.7773	84.4891	71.7773	84.5563	71.7773	84.521
74.707	85.1213	74.707	85.0957	74.707	85.1384	74.707	85.0619	74.707	85.1472	74.707	85.0203	74.707	85.1481	74.707	84.9719	74.707	85.1418	74.707	84.918	74.707	85.1287	74.707	84.8605	74.707	85.1096	74.707	84.8014	74.707	85.0852	74.707	84.7431	74.707	85.0562	74.707	84.6885	74.707	85.0231	74.707	84.64	74.707	84.9866	74.707	84.6002	74.707	84.947	74.707	84.5712	74.707	84.9051	74.707	84.5544	74.707	84.8612	74.707	84.5504	74.707	84.8162	74.707	84.5587	74.707	84.7708	74.707	84.5781	74.707	84.7258	74.707	84.6066	74.707	84.6824	74.707	84.6421
77.6367	85.2297	77.6367	85.2162	77.6367	85.235	77.6367	85.1947	77.6367	85.2325	77.6367	85.1655	77.6367	85.2228	77.6367	85.1294	77.6367	85.2067	77.6367	85.0876	77.6367	85.1852	77.6367	85.0418	77.6367	85.1595	77.6367	84.9937	77.6367	85.1309	77.6367	84.9456	77.6367	85.1005	77.6367	84.8997	77.6367	85.0696	77.6367	84.8584	77.6367	85.0391	77.6367	84.8239	77.6367	85.0098	77.6367	84.798	77.6367	84.982	77.6367	84.7819	77.6367	84.9557	77.6367	84.7761	77.6367	84.9305	77.6367	84.7799	77.6367	84.9059	77.6367	84.792	77.6367	84.8813	77.6367	84.8103	77.6367	84.8566	77.6367	84.8325
79.1016	85.2814	79.1016	85.2703	79.1016	85.2835	79.1016	85.2505	79.1016	85.277	79.1016	85.2225	79.1016	85.2624	79.1016	85.1873	79.1016	85.2408	79.1016	85.1463	79.1016	85.2134	79.1016	85.1012	79.1016	85.1817	79.1016	85.0541	79.1016	85.1476	79.1016	85.0072	79.1016	85.1128	79.1016	84.9629	79.1016	85.0789	79.1016	84.9234	79.1016	85.0474	79.1016	84.8909	79.1016	85.0193	79.1016	84.8668	79.1016	84.9949	79.1016	84.8521	79.1016	84.9741	79.1016	84.8468	79.1016	84.9561	79.1016	84.85	79.1016	84.9398	79.1016	84.8597	79.1016	84.9238	79.1016	84.874	79.1016	84.9073	79.1016	84.8904
82.0312	85.4325	82.0312	85.4187	82.0312	85.4356	82.0312	85.3945	82.0312	85.4283	82.0312	85.3608	82.0312	85.411	82.0312	85.3189	82.0312	85.3848	82.0312	85.2704	82.0312	85.3511	82.0312	85.2176	82.0312	85.3116	82.0312	85.1628	82.0312	85.2684	82.0312	85.1087	82.0312	85.2235	82.0312	85.0579	82.0312	85.1793	82.0312	85.0131	82.0312	85.1377	82.0312	84.9762	82.0312	85.1003	82.0312	84.949	82.0312	85.0683	82.0312	84.9321	82.0312	85.0419	82.0312	84.925	82.0312	85.0205	82.0312	84.9265	82.0312	85.003	82.0312	84.9343	82.0312	84.9878	82.0312	84.946	82.0312	84.9736	82.0312	84.9595
84.9609	85.5748	84.9609	85.5649	84.9609	85.5733	84.9609	85.5439	84.9609	85.5609	84.9609	85.5125	84.9609	85.5381	84.9609	85.4718	84.9609	85.5063	84.9609	85.4236	84.9609	85.467	84.9609	85.3699	84.9609	85.4222	84.9609	85.3133	84.9609	85.3741	84.9609	85.2565	84.9609	85.3252	84.9609	85.2025	84.9609	85.2778	84.9609	85.1541	84.9609	85.2342	84.9609	85.1139	84.9609	85.196	84.9609	85.0837	84.9609	85.1645	84.9609	85.0643	84.9609	85.14	84.9609	85.0552	84.9609	85.1218	84.9609	85.0546	84.9609	85.1085	84.9609	85.0602	84.9609	85.098	84.9609	85.0691	84.9609	85.0886	84.9609	85.0789
87.8906	85.6352	87.8906	85.633	87.8906	85.6251	87.8906	85.6186	87.8906	85.6031	87.8906	85.5927	87.8906	85.5702	87.8906	85.5566	87.8906	85.5279	87.8906	85.5121	87.8906	85.4783	87.8906	85.4613	87.8906	85.4238	87.8906	85.407	87.8906	85.3674	87.8906	85.3519	87.8906	85.3123	87.8906	85.299	87.8906	85.2613	87.8906	85.2512	87.8906	85.2173	87.8906	85.211	87.8906	85.1823	87.8906	85.1799	87.8906	85.1574	87.8906	85.1587	87.8906	85.1425	87.8906	85.1466	87.8906	85.136	87.8906	85.1417	87.8906	85.1357	87.8906	85.1413	87.8906	85.1385	87.8906	85.1426	87.8906	85.1415	87.8906	85.143
90.8203	85.6814	90.8203	85.6789	90.8203	85.6707	90.8203	85.6634	90.8203	85.6473	90.8203	85.6358	90.8203	85.6124	90.8203	85.5978	90.8203	85.5677	90.8203	85.5514	90.8203	85.5158	90.8203	85.4996	90.8203	85.4595	90.8203	85.4456	90.8203	85.4023	90.8203	85.3928	90.8203	85.3478	90.8203	85.3448	90.8203	85.2994	90.8203	85.3045	90.8203	85.2602	90.8203	85.2744	90.8203	85.2326	90.8203	85.2555	90.8203	85.2173	90.8203	85.2473	90.8203	85.214	90.8203	85.2479	90.8203	85.2203	90.8203	85.2539	90.8203	85.2326	90.8203	85.2611	90.8203	85.2467	90.8203	85.2659	90.8203	85.2586	90.8203	85.2654
95.2148	85.8778	95.2148	85.8763	95.2148	85.8612	95.2148	85.8571	95.2148	85.827	95.2148	85.8213	95.2148	85.7765	95.2148	85.7707	95.2148	85.7118	95.2148	85.7081	95.2148	85.6359	95.2148	85.637	95.2148	85.5527	95.2148	85.5616	95.2148	85.4669	95.2148	85.4865	95.2148	85.3837	95.2148	85.4167	95.2148	85.3086	95.2148	85.3565	95.2148	85.2468	95.2148	85.3095	95.2148	85.2021	95.2148	85.2776	95.2148	85.1767	95.2148	85.2603	95.2148	85.17	95.2148	85.2553	95.2148	85.1791	95.2148	85.2577	95.2148	85.1985	95.2148	85.2622	95.2148	85.2218	95.2148	85.2634	95.2148	85.2429	95.2148	85.2573
98.1445	85.8981	98.1445	85.8974	98.1445	85.8791	98.1445	85.8776	98.1445	85.8407	98.1445	85.8399	98.1445	85.784	98.1445	85.7864	98.1445	85.711	98.1445	85.72	98.1445	85.6248	98.1445	85.6441	98.1445	85.5293	98.1445	85.5633	98.1445	85.4296	98.1445	85.4823	98.1445	85.3319	98.1445	85.4064	98.1445	85.2427	98.1445	85.3402	98.1445	85.1682	98.1445	85.2878	98.1445	85.1139	98.1445	85.251	98.1445	85.0827	98.1445	85.2295	98.1445	85.0748	98.1445	85.2204	98.1445	85.0868	98.1445	85.2187	98.1445	85.1126	98.1445	85.218	98.1445	85.1446	98.1445	85.2127	98.1445	85.1752	98.1445	85.1987
101.074	85.9392	101.074	85.9408	101.074	85.9145	101.074	85.9201	101.074	85.8665	101.074	85.8788	101.074	85.7963	101.074	85.8195	101.074	85.7058	101.074	85.7456	101.074	85.5982	101.074	85.6611	101.074	85.4778	101.074	85.571	101.074	85.3505	101.074	85.4803	101.074	85.2235	101.074	85.3944	101.074	85.1052	101.074	85.3183	101.074	85.0041	101.074	85.2559	101.074	84.928	101.074	85.2089	101.074	84.8823	101.074	85.1766	101.074	84.8686	101.074	85.1556	101.074	84.8839	101.074	85.1402	101.074	84.9209	101.074	85.1237	101.074	84.97	101.074	85.1001	101.074	85.021	101.074	85.0658
105.469	86.4049	105.469	86.3692	105.469	86.4124	105.469	86.3056	105.469	86.3917	105.469	86.2153	105.469	86.3436	105.469	86.1005	105.469	86.2692	105.469	85.9644	105.469	86.1705	105.469	85.8113	105.469	86.0499	105.469	85.6473	105.469	85.9112	105.469	85.4799	105.469	85.7589	105.469	85.3176	105.469	85.5995	105.469	85.1696	105.469	85.4405	105.469	85.0443	105.469	85.2905	105.469	84.9476	105.469	85.1578	105.469	84.8818	105.469	85.0493	105.469	84.8445	105.469	84.9684	105.469	84.83	105.469	84.9138	105.469	84.8303	105.469	84.8805	105.469	84.8379	105.469	84.861	105.469	84.8482
108.398	86.8723	108.398	86.8474	108.398	86.8721	108.398	86.7976	108.398	86.8472	108.398	86.7235	108.398	86.7983	108.398	86.6261	108.398	86.7266	108.398	86.5074	108.398	86.6338	108.398	86.3702	108.398	86.5224	108.398	86.219	108.398	86.396	108.398	86.0595	108.398	86.2588	108.398	85.8989	108.398	86.1161	108.398	85.7457	108.398	85.9739	108.398	85.6084	108.398	85.8388	108.398	85.4942	108.398	85.7165	108.398	85.4082	108.398	85.6116	108.398	85.3516	108.398	85.5264	108.398	85.3223	108.398	85.4603	108.398	85.3151	108.398	85.4103	108.398	85.324	108.398	85.3725	108.398	85.344
112.793	86.9986	112.793	86.99	112.793	86.9831	112.793	86.9576	112.793	86.9442	112.793	86.9022	112.793	86.8829	112.793	86.8252	112.793	86.8011	112.793	86.7289	112.793	86.7013	112.793	86.6168	112.793	86.5871	112.793	86.4933	112.793	86.4629	112.793	86.3639	112.793	86.3339	112.793	86.2352	112.793	86.2064	112.793	86.1141	112.793	86.0868	112.793	86.0073	112.793	85.9816	112.793	85.92	112.793	85.8958	112.793	85.8549	112.793	85.8323	112.793	85.8115	112.793	85.7911	112.793	85.7862	112.793	85.7692	112.793	85.7734	112.793	85.761	112.793	85.7672	112.793	85.7607	112.793	85.7635
117.188	87.0433	117.188	87.031	117.188	87.03	117.188	86.9938	117.188	86.991	117.188	86.933	117.188	86.9268	117.188	86.8505	117.188	86.8387	117.188	86.7491	117.188	86.7288	117.188	86.6325	117.188	86.6005	117.188	86.5052	117.188	86.4583	117.188	86.3729	117.188	86.3086	117.188	86.2419	117.188	86.1591	117.188	86.119	117.188	86.0186	117.188	86.0103	117.188	85.8961	117.188	85.9208	117.188	85.799	117.188	85.8525	117.188	85.7317	117.188	85.8046	117.188	85.6941	117.188	85.773	117.188	85.6818	117.188	85.7519	117.188	85.6871	117.188	85.7353	117.188	85.7017	117.188	85.7189
120.117	87.1919	120.117	87.166	120.117	87.1923	120.117	87.1157	120.117	87.1664	120.117	87.0427	120.117	87.1141	120.117	86.9492	120.117	87.0356	120.117	86.838	120.117	86.9321	120.117	86.713	120.117	86.8058	120.117	86.5788	120.117	86.6603	120.117	86.4412	120.117	86.501	120.117	86.3065	120.117	86.3349	120.117	86.1811	120.117	86.1712	120.117	86.0705	120.117	86.02	120.117	85.9785	120.117	85.8913	120.117	85.906	120.117	85.7927	120.117	85.8512	120.117	85.7279	120.117	85.8101	120.117	85.6954	120.117	85.7775	120.117	85.6893	120.117	85.7491	120.117	85.7012	120.117	85.723
124.512	87.4021	124.512	87.3517	124.512	87.4308	124.512	87.2803	124.512	87.4375	124.512	87.1894	124.512	87.4223	124.512	87.0815	124.512	87.386	124.512	86.9602	124.512	87.3296	124.512	86.8305	124.512	87.2547	124.512	86.6991	124.512	87.1639	124.512	86.5736	124.512	87.0606	124.512	86.4624	124.512	86.9497	124.512	86.3729	124.512	86.8369	124.512	86.3104	124.512	86.7291	124.512	86.2764	124.512	86.6328	124.512	86.2686	124.512	86.5533	124.512	86.281	124.512	86.4931	124.512	86.3056	124.512	86.4512	124.512	86.3344	124.512	86.4233	124.512	86.3614	124.512	86.403	124.512	86.3839
128.906	87.3089	128.906	87.2725	128.906	87.3225	128.906	87.2122	128.906	87.315	128.906	87.1282	128.906	87.2889	128.906	87.022	128.906	87.2472	128.906	86.8969	128.906	87.1932	128.906	86.7579	128.906	87.1303	128.906	86.6126	128.906	87.062	128.906	86.4709	128.906	86.9917	128.906	86.344	128.906	86.9225	128.906	86.2435	128.906	86.8577	128.906	86.1791	128.906	86.7999	128.906	86.156	128.906	86.7509	128.906	86.1733	128.906	86.7109	128.906	86.224	128.906	86.678	128.906	86.2965	128.906	86.6483	128.906	86.3776	128.906	86.6163	128.906	86.4558	128.906	86.576	128.906	86.5229
133.301	87.1246	133.301	87.1307	133.301	87.0941	133.301	87.1113	133.301	87.0418	133.301	87.0666	133.301	86.9714	133.301	86.998	133.301	86.8882	133.301	86.9086	133.301	86.7986	133.301	86.803	133.301	86.7096	133.301	86.6875	133.301	86.6289	133.301	86.5704	133.301	86.5633	133.301	86.4616	133.301	86.5183	133.301	86.3717	133.301	86.4969	133.301	86.3103	133.301	86.4988	133.301	86.2841	133.301	86.5201	133.301	86.2947	133.301	86.5539	133.301	86.3376	133.301	86.5913	133.301	86.4028	133.301	86.6222	133.301	86.477	133.301	86.6378	133.301	86.5466	133.301	86.6315	133.301	86.6004
139.16	86.6282	139.16	86.6476	139.16	86.5799	139.16	86.6398	139.16	86.5027	139.16	86.6076	139.16	86.3986	139.16	86.5556	139.16	86.2714	139.16	86.4895	139.16	86.1277	139.16	86.4157	139.16	85.9767	139.16	86.3417	139.16	85.8307	139.16	86.2747	139.16	85.7041	139.16	86.2217	139.16	85.6119	139.16	86.1881	139.16	85.5668	139.16	86.1767	139.16	85.5758	139.16	86.1874	139.16	85.6375	139.16	86.2161	139.16	85.7419	139.16	86.255	139.16	85.8721	139.16	86.2936	139.16	86.0085	139.16	86.3201	139.16	86.1328	139.16	86.3234	139.16	86.231	139.16	86.295
143.555	86.1245	143.555	86.0933	143.555	86.1207	143.555	86.03	143.555	86.0813	143.555	85.9399	143.555	86.0079	143.555	85.8308	143.555	85.9041	143.555	85.7132	143.555	85.7761	143.555	85.5996	143.555	85.6326	143.555	85.5036	143.555	85.4854	143.555	85.438	143.555	85.3493	143.555	85.4128	143.555	85.2409	143.555	85.4326	143.555	85.1764	143.555	85.495	143.555	85.1678	143.555	85.5905	143.555	85.2192	143.555	85.7043	143.555	85.324	143.555	85.8185	143.555	85.4659	143.555	85.9154	143.555	85.6229	143.555	85.9796	143.555	85.7716	143.555	85.9999	143.555	85.8922	143.555	85.9707
147.949	85.6486	147.949	85.5926	147.949	85.6585	147.949	85.492	147.949	85.6235	147.949	85.351	147.949	85.547	147.949	85.1771	147.949	85.4351	147.949	84.9821	147.949	85.2964	147.949	84.7818	147.949	85.1427	147.949	84.597	147.949	84.9883	147.949	84.4513	147.949	84.8502	147.949	84.3672	147.949	84.746	147.949	84.3611	147.949	84.6917	147.949	84.4364	147.949	84.6971	147.949	84.5817	147.949	84.7628	147.949	84.7726	147.949	84.8786	147.949	84.9784	147.949	85.0249	147.949	85.1686	147.949	85.1772	147.949	85.3185	147.949	85.3104	147.949	85.4114	147.949	85.4029	147.949	85.4394
153.809	86.0549	153.809	86.0102	153.809	86.0379	153.809	85.9055	153.809	85.959	153.809	85.7438	153.809	85.8195	153.809	85.5301	153.809	85.6229	153.809	85.2719	153.809	85.3758	153.809	84.9811	153.809	85.0895	153.809	84.675	153.809	84.7819	153.809	84.3786	153.809	84.4784	153.809	84.1231	153.809	84.2115	153.809	83.942	153.809	84.0157	153.809	83.8615	153.809	83.9186	153.809	83.8899	153.809	83.9301	153.809	84.0118	153.809	84.0366	153.809	84.1923	153.809	84.2048	153.809	84.3879	153.809	84.3923	153.809	84.5581	153.809	84.5584	153.809	84.6721	153.809	84.6714	153.809	84.7117
159.668	86.5891	159.668	86.5301	159.668	86.5869	159.668	86.4114	159.668	86.5225	159.668	86.2353	159.668	86.3949	159.668	86.0051	159.668	86.2043	159.668	85.7264	159.668	85.9525	159.668	85.4083	159.668	85.6442	159.668	85.0654	159.668	85.2895	159.668	84.7194	159.668	84.9061	159.668	84.3998	159.668	84.5218	159.668	84.1404	159.668	84.1748	159.668	83.9715	159.668	83.9076	159.668	83.909	159.668	83.7553	159.668	83.9455	159.668	83.7304	159.668	84.0509	159.668	83.8148	159.668	84.1825	159.668	83.9665	159.668	84.297	159.668	84.1346	159.668	84.3606	159.668	84.274	159.668	84.354
165.527	86.7756	165.527	86.7518	165.527	86.7408	165.527	86.6674	165.527	86.6499	165.527	86.5208	165.527	86.5054	165.527	86.3113	165.527	86.3099	165.527	86.04	165.527	86.0667	165.527	85.7111	165.527	85.7803	165.527	85.3335	165.527	85.4586	165.527	84.924	165.527	85.1144	165.527	84.5091	165.527	84.7676	165.527	84.126	165.527	84.4451	165.527	83.8182	165.527	84.1778	165.527	83.6234	165.527	83.9923	165.527	83.5577	165.527	83.9006	165.527	83.606	165.527	83.8935	165.527	83.7269	165.527	83.9425	165.527	83.8684	165.527	84.0084	165.527	83.9854	165.527	84.0534	165.527	84.0497
171.387	86.817	171.387	86.7526	171.387	86.8311	171.387	86.64	171.387	86.7923	171.387	86.4813	171.387	86.698	171.387	86.2794	171.387	86.545	171.387	86.0384	171.387	86.3314	171.387	85.7644	171.387	86.0567	171.387	85.4671	171.387	85.7245	171.387	85.1605	171.387	85.3449	171.387	84.8635	171.387	84.9377	171.387	84.5986	171.387	84.5351	171.387	84.3881	171.387	84.1805	171.387	84.248	171.387	83.9196	171.387	84.1819	171.387	83.7842	171.387	84.1776	171.387	83.7761	171.387	84.2095	171.387	83.864	171.387	84.2453	171.387	83.9973	171.387	84.2548	171.387	84.1265	171.387	84.217
177.246	86.6952	177.246	86.6274	177.246	86.7099	177.246	86.505	177.246	86.6739	177.246	86.3271	177.246	86.59	177.246	86.0947	177.246	86.4617	177.246	85.8109	177.246	86.2933	177.246	85.4825	177.246	86.0899	177.246	85.1228	177.246	85.859	177.246	84.7534	177.246	85.6114	177.246	84.4064	177.246	85.3623	177.246	84.1219	177.246	85.1315	177.246	83.9389	177.246	84.9406	177.246	83.8815	177.246	84.808	177.246	83.9464	177.246	84.7414	177.246	84.1025	177.246	84.7333	177.246	84.3028	177.246	84.7613	177.246	84.5003	177.246	84.7946	177.246	84.6595	177.246	84.8024	177.246	84.7612
183.105	86.6179	183.105	86.5982	183.105	86.5755	183.105	86.5167	183.105	86.4714	183.105	86.3733	183.105	86.3062	183.105	86.1692	183.105	86.0813	183.105	85.9073	183.105	85.8006	183.105	85.5942	183.105	85.4717	183.105	85.2423	183.105	85.109	183.105	84.8735	183.105	84.7365	183.105	84.5201	183.105	84.3894	183.105	84.2241	183.105	84.1116	183.105	84.0282	183.105	83.9454	183.105	83.9606	183.105	83.9142	183.105	84.0205	183.105	84.0094	183.105	84.1752	183.105	84.1908	183.105	84.3732	183.105	84.402	183.105	84.5608	183.105	84.5892	183.105	84.6954	183.105	84.7126	183.105	84.7497
188.965	86.9889	188.965	86.9231	188.965	86.9847	188.965	86.7876	188.965	86.9095	188.965	86.5829	188.965	86.7619	188.965	86.3096	188.965	86.5399	188.965	85.9692	188.965	86.2412	188.965	85.566	188.965	85.8646	188.965	85.11	188.965	85.4131	188.965	84.6216	188.965	84.8987	188.965	84.1373	188.965	84.3494	188.965	83.7106	188.965	83.8161	188.965	83.404	188.965	83.372	188.965	83.2648	188.965	83.0943	188.965	83.2981	188.965	83.027	188.965	83.4585	188.965	83.1501	188.965	83.6711	188.965	83.3887	188.965	83.8613	188.965	83.6511	188.965	83.9732	188.965	83.8622	188.965	83.9757
196.289	87.6169	196.289	87.5776	196.289	87.6048	196.289	87.4863	196.289	87.5409	196.289	87.3407	196.289	87.4238	196.289	87.1375	196.289	87.2509	196.289	86.8721	196.289	87.0193	196.289	86.5405	196.289	86.7263	196.289	86.141	196.289	86.3711	196.289	85.6788	196.289	85.9578	196.289	85.1712	196.289	85.4996	196.289	84.6526	196.289	85.0237	196.289	84.1764	196.289	84.5731	196.289	83.8058	196.289	84.2009	196.289	83.5903	196.289	83.9523	196.289	83.5391	196.289	83.8412	196.289	83.6128	196.289	83.8402	196.289	83.7439	196.289	83.893	196.289	83.8663	196.289	83.9395	196.289	83.9362
203.613	87.3248	203.613	87.2607	203.613	87.3394	203.613	87.1475	203.613	87.303	203.613	86.9848	203.613	87.2133	203.613	86.772	203.613	87.0673	203.613	86.5083	203.613	86.8609	203.613	86.195	203.613	86.5908	203.613	85.8377	203.613	86.2561	203.613	85.4501	203.613	85.8615	203.613	85.0574	203.613	85.4223	203.613	84.697	203.613	84.9689	203.613	84.412	203.613	84.5491	203.613	84.2369	203.613	84.2202	203.613	84.1817	203.613	84.0294	203.613	84.2241	203.613	83.9891	203.613	84.3176	203.613	84.0681	203.613	84.4095	203.613	84.2072	203.613	84.4568	203.613	84.345	203.613	84.4357
210.938	87.149	210.938	87.0978	210.938	87.144	210.938	86.9865	210.938	87.0848	210.938	86.8099	210.938	86.971	210.938	86.5617	210.938	86.801	210.938	86.236	210.938	86.5717	210.938	85.8298	210.938	86.2811	210.938	85.3472	210.938	85.9302	210.938	84.8073	210.938	85.528	210.938	84.2537	210.938	85.097	210.938	83.7625	210.938	84.6785	210.938	83.4303	210.938	84.3317	210.938	83.3335	210.938	84.1186	210.938	83.4765	210.938	84.0739	210.938	83.7837	210.938	84.1818	210.938	84.1453	210.938	84.3796	210.938	84.4662	210.938	84.5875	210.938	84.6856	210.938	84.7353	210.938	84.7757
218.262	87.0345	218.262	87.052	218.262	86.9729	218.262	87.0203	218.262	86.8707	218.262	86.9319	218.262	86.7284	218.262	86.7769	218.262	86.5441	218.262	86.5439	218.262	86.3117	218.262	86.2203	218.262	86.0224	218.262	85.7949	218.262	85.6664	218.262	85.2629	218.262	85.2373	218.262	84.6347	218.262	84.7403	218.262	83.949	218.262	84.2015	218.262	83.289	218.262	83.6777	218.262	82.7795	218.262	83.2539	218.262	82.5389	218.262	83.0151	218.262	82.5944	218.262	82.9938	218.262	82.8534	218.262	83.1391	218.262	83.1695	218.262	83.3444	218.262	83.4201	218.262	83.5014	218.262	83.5364
225.586	86.8271	225.586	86.8733	225.586	86.7383	225.586	86.8733	225.586	86.6103	225.586	86.8233	225.586	86.4468	225.586	86.7181	225.586	86.2513	225.586	86.5508	225.586	86.0258	225.586	86.313	225.586	85.7698	225.586	85.9967	225.586	85.4807	225.586	85.5971	225.586	85.1573	225.586	85.1186	225.586	84.8042	225.586	84.5828	225.586	84.4382	225.586	84.0373	225.586	84.0919	225.586	83.5575	225.586	83.8079	225.586	83.228	225.586	83.6238	225.586	83.0997	225.586	83.5506	225.586	83.1532	225.586	83.5631	225.586	83.3097	225.586	83.6096	225.586	83.4781	225.586	83.6338	225.586	83.5942
232.91	86.9901	232.91	87.0571	232.91	86.8589	232.91	87.0613	232.91	86.6623	232.91	87.0037	232.91	86.3996	232.91	86.8842	232.91	86.0704	232.91	86.7005	232.91	85.6752	232.91	86.4485	232.91	85.2163	232.91	86.1236	232.91	84.7003	232.91	85.7246	232.91	84.1437	232.91	85.2589	232.91	83.5812	232.91	84.7504	232.91	83.0724	232.91	84.246	232.91	82.6973	232.91	83.8139	232.91	82.5276	232.91	83.5233	232.91	82.5823	232.91	83.408	232.91	82.8082	232.91	83.4417	232.91	83.1088	232.91	83.5502	232.91	83.3901	232.91	83.649	232.91	83.588	232.91	83.6731
241.699	86.8443	241.699	86.7471	241.699	86.8992	241.699	86.6123	241.699	86.9052	241.699	86.4433	241.699	86.8526	241.699	86.2423	241.699	86.7288	241.699	86.0105	241.699	86.5182	241.699	85.7475	241.699	86.204	241.699	85.453	241.699	85.7709	241.699	85.1295	241.699	85.2101	241.699	84.7859	241.699	84.5288	241.699	84.4426	241.699	83.7651	241.699	84.1321	241.699	83.0071	241.699	83.8921	241.699	82.3983	241.699	83.7491	241.699	82.0893	241.699	83.7022	241.699	82.1354	241.699	83.716	241.699	82.4476	241.699	83.7318	241.699	82.8652	241.699	83.6868	241.699	83.2523	241.699	83.5333
250.488	86.4652	250.488	86.3404	250.488	86.5303	250.488	86.1548	250.488	86.5372	250.488	85.907	250.488	86.4868	250.488	85.5954	250.488	86.3777	250.488	85.2186	250.488	86.2041	250.488	84.7787	250.488	85.9551	250.488	84.2871	250.488	85.6162	250.488	83.7719	250.488	85.1743	250.488	83.2843	250.488	84.6266	250.488	82.8962	250.488	83.995	250.488	82.6795	250.488	83.3443	250.488	82.6693	250.488	82.7918	250.488	82.8381	250.488	82.4762	250.488	83.1072	250.488	82.4712	250.488	83.3841	250.488	82.7194	250.488	83.5912	250.488	83.076	250.488	83.6768	250.488	83.4025	250.488	83.6142
259.277	87.2774	259.277	87.2225	259.277	87.2772	259.277	87.1079	259.277	87.2242	259.277	86.924	259.277	87.1186	259.277	86.6551	259.277	86.9595	259.277	86.2792	259.277	86.743	259.277	85.7692	259.277	86.4611	259.277	85.0981	259.277	86.1009	259.277	84.2486	259.277	85.6488	259.277	83.2352	259.277	85.0978	259.277	82.1471	259.277	84.4611	259.277	81.2026	259.277	83.7891	259.277	80.7196	259.277	83.1798	259.277	80.8644	259.277	82.7587	259.277	81.4514	259.277	82.611	259.277	82.1493	259.277	82.7119	259.277	82.729	259.277	82.939	259.277	83.0922	259.277	83.1468	259.277	83.2214
268.066	86.7754	268.066	86.8447	268.066	86.6745	268.066	86.8751	268.066	86.5468	268.066	86.857	268.066	86.3942	268.066	86.7772	268.066	86.2155	268.066	86.6191	268.066	86.0056	268.066	86.3625	268.066	85.7559	268.066	85.9862	268.066	85.4566	268.066	85.4722	268.066	85.1007	268.066	84.8165	268.066	84.6919	268.066	84.0462	268.066	84.2536	268.066	83.2449	268.066	83.8359	268.066	82.5683	268.066	83.5099	268.066	82.1994	268.066	83.3387	268.066	82.22	268.066	83.3347	268.066	82.5333	268.066	83.4429	268.066	82.9507	268.066	83.5695	268.066	83.3165	268.066	83.6249	268.066	83.5483
276.855	86.0157	276.855	86.0233	276.855	85.979	276.855	86.0015	276.855	85.9115	276.855	85.9487	276.855	85.8062	276.855	85.8592	276.855	85.6481	276.855	85.7191	276.855	85.4138	276.855	85.5049	276.855	85.0748	276.855	85.1872	276.855	84.6026	276.855	84.7392	276.855	83.9787	276.855	84.1518	276.855	83.2127	276.855	83.4587	276.855	82.3744	276.855	82.7673	276.855	81.6331	276.855	82.2665	276.855	81.2395	276.855	82.1401	276.855	81.3592	276.855	82.4073	276.855	81.8976	276.855	82.8951	276.855	82.5932	276.855	83.3839	276.855	83.2186	276.855	83.7175	276.855	83.6443	276.855	83.8141
287.109	86.5642	287.109	86.5318	287.109	86.52	287.109	86.4329	287.109	86.3956	287.109	86.2796	287.109	86.1971	287.109	86.08	287.109	85.94	287.109	85.8323	287.109	85.6423	287.109	85.5202	287.109	85.3112	287.109	85.1146	287.109	84.9282	287.109	84.5802	287.109	84.4464	287.109	83.8914	287.109	83.8056	287.109	83.0559	287.109	82.9661	287.109	82.1497	287.109	81.9625	287.109	81.3522	287.109	80.9795	287.109	80.911	287.109	80.3683	287.109	80.9589	287.109	80.3973	287.109	81.3628	287.109	80.9245	287.109	81.8489	287.109	81.5729	287.109	82.1946	287.109	82.0652	287.109	82.2806
297.363	87.093	297.363	87.0517	297.363	87.0622	297.363	86.942	297.363	86.957	297.363	86.7684	297.363	86.7746	297.363	86.5332	297.363	86.507	297.363	86.234	297.363	86.1381	297.363	85.8613	297.363	85.6498	297.363	85.396	297.363	85.0322	297.363	84.811	297.363	84.295	297.363	84.0808	297.363	83.4692	297.363	83.2043	297.363	82.6079	297.363	82.2454	297.363	81.7992	297.363	81.3878	297.363	81.1903	297.363	80.9179	297.363	80.9568	297.363	81.0083	297.363	81.1592	297.363	81.5053	297.363	81.6477	297.363	82.0876	297.363	82.1766	297.363	82.5155	297.363	82.5544	297.363	82.679
307.617	87.7011	307.617	87.5624	307.617	87.7855	307.617	87.3677	307.617	87.8173	307.617	87.1165	307.617	87.7968	307.617	86.8082	307.617	87.7206	307.617	86.4385	307.617	87.5784	307.617	85.9964	307.617	87.3459	307.617	85.4644	307.617	86.9798	307.617	84.8242	307.617	86.4194	307.617	84.0683	307.617	85.5996	307.617	83.2183	307.617	84.4725	307.617	82.3538	307.617	83.0441	307.617	81.6331	307.617	81.4517	307.617	81.2434	307.617	80.0927	307.617	81.254	307.617	79.5441	307.617	81.5288	307.617	79.9231	307.617	81.8359	307.617	80.7118	307.617	81.9848	307.617	81.4265	307.617	81.8632
319.336	87.0943	319.336	87.0282	319.336	87.1252	319.336	86.9224	319.336	87.1263	319.336	86.77	319.336	87.1037	319.336	86.5589	319.336	87.0609	319.336	86.2689	319.336	86.992	319.336	85.8709	319.336	86.8744	319.336	85.3285	319.336	86.6657	319.336	84.6025	319.336	86.3081	319.336	83.6675	319.336	85.74	319.336	82.5562	319.336	84.9135	319.336	81.4455	319.336	83.8244	319.336	80.7167	319.336	82.5717	319.336	80.7189	319.336	81.4482	319.336	81.3335	319.336	80.9066	319.336	82.1215	319.336	81.1448	319.336	82.7455	319.336	81.8364	319.336	83.0466	319.336	82.5328	319.336	82.9707
329.59	87.1804	329.59	87.2766	329.59	87.0322	329.59	87.3122	329.59	86.847	329.59	87.2841	329.59	86.642	329.59	87.1891	329.59	86.4315	329.59	87.0142	329.59	86.2219	329.59	86.7276	329.59	86.0066	329.59	86.2768	329.59	85.7628	329.59	85.5932	329.59	85.4517	329.59	84.6019	329.59	85.025	329.59	83.2424	329.59	84.446	329.59	81.5279	329.59	83.7256	329.59	79.741	329.59	82.9693	329.59	78.7298	329.59	82.3891	329.59	79.2087	329.59	82.1868	329.59	80.5016	329.59	82.3558	329.59	81.7103	329.59	82.6793	329.59	82.5163	329.59	82.9154	329.59	82.8964
341.309	87.1067	341.309	87.0838	341.309	87.1038	341.309	87.0579	341.309	87.0571	341.309	87.0468	341.309	86.9609	341.309	87.0553	341.309	86.8205	341.309	87.0689	341.309	86.6418	341.309	87.0488	341.309	86.4151	341.309	86.9302	341.309	86.103	341.309	86.6288	341.309	85.6398	341.309	86.0519	341.309	84.9426	341.309	85.112	341.309	83.9358	341.309	83.7496	341.309	82.6018	341.309	82.0166	341.309	81.1093	341.309	80.3174	341.309	80.0147	341.309	79.5823	341.309	79.9879	341.309	80.1966	341.309	80.8304	341.309	81.3005	341.309	81.7835	341.309	82.1585	341.309	82.4003	341.309	82.5364
353.027	87.5498	353.027	87.5209	353.027	87.5438	353.027	87.4627	353.027	87.5009	353.027	87.3846	353.027	87.4189	353.027	87.2968	353.027	87.2924	353.027	87.2001	353.027	87.1106	353.027	87.0755	353.027	86.8541	353.027	86.8784	353.027	86.4911	353.027	86.5394	353.027	85.9718	353.027	85.9729	353.027	85.2272	353.027	85.0899	353.027	84.1769	353.027	83.821	353.027	82.7571	353.027	82.1789	353.027	81.01	353.027	80.433	353.027	79.3309	353.027	79.3309	353.027	78.6449	353.027	79.4968	353.027	79.3151	353.027	80.3922	353.027	80.4395	353.027	81.1902	353.027	81.2547	353.027	81.5131
366.211	86.8685	366.211	86.6884	366.211	86.9478	366.211	86.432	366.211	86.9385	366.211	86.16	366.211	86.8784	366.211	85.9511	366.211	86.8123	366.211	85.8613	366.211	86.7696	366.211	85.8812	366.211	86.7437	366.211	85.9262	366.211	86.682	366.211	85.8721	366.211	86.4932	366.211	85.6006	366.211	86.0623	366.211	85.0261	366.211	85.2631	366.211	84.1157	366.211	83.9663	366.211	82.9385	366.211	82.0704	366.211	81.7652	366.211	79.6713	366.211	81.0784	366.211	77.6804	366.211	81.1321	366.211	77.7623	366.211	81.557	366.211	79.3012	366.211	81.8119	366.211	80.7348	366.211	81.5798
379.395	87.5485	379.395	87.5123	379.395	87.4565	379.395	87.3512	379.395	87.2556	379.395	87.0864	379.395	86.9912	379.395	86.7545	379.395	86.7311	379.395	86.4001	379.395	86.5441	379.395	86.0561	379.395	86.4641	379.395	85.7136	379.395	86.4617	379.395	85.3027	379.395	86.4456	379.395	84.7041	379.395	86.2911	379.395	83.7814	379.395	85.8738	379.395	82.4136	379.395	85.0876	379.395	80.5602	379.395	83.8557	379.395	78.4962	379.395	82.1716	379.395	77.2541	379.395	80.2719	379.395	77.7031	379.395	78.9434	379.395	78.8884	379.395	78.9302	379.395	79.7648	379.395	79.5998	379.395	79.9998
392.578	87.1526	392.578	87.0957	392.578	87.092	392.578	86.9378	392.578	86.9098	392.578	86.7051	392.578	86.6207	392.578	86.4337	392.578	86.2659	392.578	86.1659	392.578	85.9109	392.578	85.9325	392.578	85.6256	392.578	85.7236	392.578	85.4468	392.578	85.4721	392.578	85.3475	392.578	85.0675	392.578	85.2349	392.578	84.3866	392.578	84.9764	392.578	83.3155	392.578	84.4357	392.578	81.7707	392.578	83.5112	392.578	79.7828	392.578	82.1925	392.578	77.7967	392.578	80.6602	392.578	76.9328	392.578	79.3812	392.578	77.5242	392.578	78.8331	392.578	78.413	392.578	78.8622	392.578	78.8625
405.762	87.7532	405.762	87.6516	405.762	87.7401	405.762	87.461	405.762	87.5922	405.762	87.2127	405.762	87.3037	405.762	86.9494	405.762	86.8926	405.762	86.719	405.762	86.4039	405.762	86.5491	405.762	85.9026	405.762	86.4199	405.762	85.4472	405.762	86.2619	405.762	85.0508	405.762	85.9777	405.762	84.6554	405.762	85.4724	405.762	84.1511	405.762	84.6791	405.762	83.4299	405.762	83.5821	405.762	82.4553	405.762	82.2604	405.762	81.3614	405.762	80.9614	405.762	80.5341	405.762	80.0988	405.762	80.341	405.762	79.9434	405.762	80.599	405.762	80.288	405.762	80.8039	405.762	80.6817
420.41	88.3494	420.41	88.2538	420.41	88.3312	420.41	88.0119	420.41	88.2275	420.41	87.6182	420.41	88.046	420.41	87.1174	420.41	87.7813	420.41	86.596	420.41	87.4361	420.41	86.1303	420.41	87.0319	420.41	85.725	420.41	86.5924	420.41	85.3039	420.41	86.1039	420.41	84.7596	420.41	85.4851	420.41	84.0012	420.41	84.5998	420.41	82.9877	420.41	83.3091	420.41	81.8071	420.41	81.5531	420.41	80.8088	420.41	79.5227	420.41	80.4801	420.41	77.9601	420.41	80.8066	420.41	77.801	420.41	81.2215	420.41	78.7609	420.41	81.2735	420.41	79.927	420.41	80.8249
435.059	88.729	435.059	88.6118	435.059	88.6678	435.059	88.3026	435.059	88.4621	435.059	87.8074	435.059	88.1638	435.059	87.1546	435.059	87.8367	435.059	86.408	435.059	87.5433	435.059	85.6787	435.059	87.3207	435.059	85.0932	435.059	87.1515	435.059	84.693	435.059	86.9503	435.059	84.3625	435.059	86.5819	435.059	83.8897	435.059	85.8956	435.059	83.0961	435.059	84.76	435.059	81.9474	435.059	83.1092	435.059	80.6767	435.059	81.0716	435.059	79.8667	435.059	79.2941	435.059	79.9797	435.059	78.8746	435.059	80.6546	435.059	79.7328	435.059	81.2158	435.059	80.7425	435.059	81.2814
451.172	88.1525	451.172	88.1448	451.172	88.0768	451.172	88.0934	451.172	87.8699	451.172	88.0125	451.172	87.5103	451.172	87.9004	451.172	87.0395	451.172	87.7707	451.172	86.5767	451.172	87.6634	451.172	86.2732	451.172	87.5974	451.172	86.207	451.172	87.498	451.172	86.3068	451.172	87.1934	451.172	86.3885	451.172	86.4833	451.172	86.2497	451.172	85.2088	451.172	85.7385	451.172	83.3008	451.172	84.7949	451.172	80.9166	451.172	83.5215	451.172	78.9373	451.172	82.3125	451.172	78.8902	451.172	81.7582	451.172	80.2749	451.172	81.9424	451.172	81.5668	451.172	82.2794	451.172	82.2352
465.82	88.669	465.82	88.473	465.82	88.6376	465.82	88.0788	465.82	88.3733	465.82	87.5317	465.82	87.904	465.82	86.9026	465.82	87.2891	465.82	86.307	465.82	86.6101	465.82	85.8909	465.82	85.9637	465.82	85.7518	465.82	85.4448	465.82	85.8386	465.82	85.0834	465.82	85.9499	465.82	84.774	465.82	85.8366	465.82	84.3002	465.82	85.2943	465.82	83.4364	465.82	84.1999	465.82	82.0436	465.82	82.5611	465.82	80.2333	465.82	80.7187	465.82	78.7676	465.82	79.5721	465.82	78.7452	465.82	79.6662	465.82	79.6898	465.82	80.2744	465.82	80.4551	465.82	80.6374
483.398	89.3673	483.398	89.1379	483.398	89.3858	483.398	88.7035	483.398	89.1907	483.398	88.0749	483.398	88.7834	483.398	87.2777	483.398	88.1779	483.398	86.3803	483.398	87.428	483.398	85.5214	483.398	86.6616	483.398	84.8626	483.398	86.0633	483.398	84.4373	483.398	85.7344	483.398	84.0826	483.398	85.5486	483.398	83.5604	483.398	85.2189	483.398	82.6806	483.398	84.4658	483.398	81.366	483.398	83.0996	483.398	79.8438	483.398	81.0843	483.398	78.9525	483.398	78.859	483.398	79.3728	483.398	77.8912	483.398	80.372	483.398	78.8452	483.398	81.0309	483.398	80.1984	483.398	80.9923
499.512	89.2226	499.512	89.1631	499.512	89.0732	499.512	88.9157	499.512	88.7158	499.512	88.5016	499.512	88.1791	499.512	87.9377	499.512	87.5153	499.512	87.2766	499.512	86.8106	499.512	86.6556	499.512	86.2051	499.512	86.2389	499.512	85.8588	499.512	86.0297	499.512	85.8139	499.512	85.8024	499.512	85.888	499.512	85.273	499.512	85.7721	499.512	84.233	499.512	85.1933	499.512	82.5381	499.512	83.984	499.512	80.1247	499.512	82.1229	499.512	77.4658	499.512	79.9529	499.512	76.5339	499.512	78.5901	499.512	77.8689	499.512	78.8355	499.512	79.2987	499.512	79.6267	499.512	79.9011
517.09	89.0304	517.09	88.9123	517.09	88.9777	517.09	88.5656	517.09	88.7662	517.09	87.9477	517.09	88.3575	517.09	87.0972	517.09	87.7188	517.09	86.1755	517.09	86.893	517.09	85.4597	517.09	86.0436	517.09	85.2114	517.09	85.4362	517.09	85.4206	517.09	85.2518	517.09	85.7562	517.09	85.3385	517.09	85.8186	517.09	85.2887	517.09	85.3251	517.09	84.7044	517.09	84.1446	517.09	83.3091	517.09	82.372	517.09	81.0466	517.09	80.6593	517.09	78.6933	517.09	80.2518	517.09	78.3339	517.09	81.0577	517.09	79.72	517.09	81.7641	517.09	81.0498	517.09	81.7728
536.133	90.102	536.133	89.9916	536.133	90.0375	536.133	89.7204	536.133	89.7781	536.133	89.2679	536.133	89.3214	536.133	88.5916	536.133	88.672	536.133	87.6816	536.133	87.8178	536.133	86.6298	536.133	86.7611	536.133	85.6629	536.133	85.6446	536.133	85.0254	536.133	84.8507	536.133	84.7159	536.133	84.6757	536.133	84.4237	536.133	84.8289	536.133	83.7402	536.133	84.7393	536.133	82.3491	536.133	84.0198	536.133	80.2375	536.133	82.5222	536.133	78.3938	536.133	80.4311	536.133	78.7015	536.133	78.7976	536.133	80.2535	536.133	79.1258	536.133	81.3107	536.133	80.5075	536.133	81.3952
555.176	88.9457	555.176	88.7841	555.176	88.9918	555.176	88.5342	555.176	88.8793	555.176	88.1796	555.176	88.5689	555.176	87.6443	555.176	88.0401	555.176	86.832	555.176	87.3088	555.176	85.7535	555.176	86.4634	555.176	84.7004	555.176	85.6983	555.176	84.1656	555.176	85.2557	555.176	84.2008	555.176	85.1901	555.176	84.258	555.176	85.2112	555.176	83.8553	555.176	84.8904	555.176	82.8071	555.176	83.9189	555.176	81.159	555.176	82.2041	555.176	79.4835	555.176	80.1594	555.176	79.1538	555.176	79.3229	555.176	80.288	555.176	80.3454	555.176	81.465	555.176	81.5342	555.176	81.943
574.219	89.1351	574.219	89.0802	574.219	89.0764	574.219	88.9001	574.219	88.9159	574.219	88.5855	574.219	88.6332	574.219	88.1045	574.219	88.1679	574.219	87.4068	574.219	87.4428	574.219	86.4826	574.219	86.3962	574.219	85.4405	574.219	85.0611	574.219	84.5381	574.219	83.7439	574.219	84.0206	574.219	83.0253	574.219	83.8049	574.219	82.994	574.219	83.4482	574.219	82.9781	574.219	82.4134	574.219	82.3697	574.219	80.2268	574.219	80.88	574.219	76.7739	574.219	78.5964	574.219	74.7909	574.219	76.7735	574.219	76.8822	574.219	77.1312	574.219	78.642	574.219	78.3523	574.219	79.02
594.727	90.2103	594.727	89.9823	594.727	90.2422	594.727	89.5708	594.727	90.0441	594.727	88.9704	594.727	89.5778	594.727	88.1551	594.727	88.8236	594.727	87.0824	594.727	87.7965	594.727	85.825	594.727	86.6123	594.727	84.8279	594.727	85.6062	594.727	84.6728	594.727	85.2115	594.727	85.1298	594.727	85.3953	594.727	85.4158	594.727	85.5767	594.727	85.0134	594.727	85.1672	594.727	83.6592	594.727	83.7335	594.727	81.2565	594.727	80.8955	594.727	78.7425	594.727	77.0425	594.727	79.0419	594.727	77.1216	594.727	81.1584	594.727	80.3357	594.727	82.6927	594.727	82.4282	594.727	83.1592
615.234	88.6578	615.234	88.7401	615.234	88.5751	615.234	88.7745	615.234	88.4993	615.234	88.6887	615.234	88.3953	615.234	88.427	615.234	88.1821	615.234	87.9538	615.234	87.7535	615.234	87.2033	615.234	87.0282	615.234	86.0924	615.234	86.0023	615.234	84.7232	615.234	84.8214	615.234	83.6181	615.234	83.819	615.234	83.1445	615.234	83.2544	615.234	82.6706	615.234	82.9277	615.234	81.4029	615.234	82.3713	615.234	79.1453	615.234	81.2798	615.234	76.6722	615.234	79.7738	615.234	76.3245	615.234	78.595	615.234	77.9067	615.234	78.5076	615.234	79.1209	615.234	79.0818	615.234	79.4464
637.207	90.6198	637.207	90.539	637.207	90.4846	637.207	90.218	637.207	90.1635	637.207	89.6461	637.207	89.6756	637.207	88.809	637.207	89.039	637.207	87.7147	637.207	88.27	637.207	86.4939	637.207	87.3426	637.207	85.4892	637.207	86.2375	637.207	85.092	637.207	85.2239	637.207	85.2677	637.207	84.9426	637.207	85.4944	637.207	85.4008	637.207	85.2496	637.207	85.6664	637.207	84.1867	637.207	84.9735	637.207	81.9115	637.207	82.9256	637.207	77.9477	637.207	79.1494	637.207	75.4788	637.207	74.3279	637.207	79.1539	637.207	76.6597	637.207	81.7318	637.207	80.5426	637.207	82.1652
659.18	89.4547	659.18	89.4772	659.18	89.398	659.18	89.4278	659.18	89.2897	659.18	89.2248	659.18	89.0905	659.18	88.7905	659.18	88.7426	659.18	88.0467	659.18	88.1643	659.18	86.8997	659.18	87.2671	659.18	85.3377	659.18	85.9904	659.18	83.6681	659.18	84.4347	659.18	82.6574	659.18	83.1011	659.18	82.6853	659.18	82.6548	659.18	82.8833	659.18	82.8486	659.18	82.2467	659.18	82.6571	659.18	80.3897	659.18	81.2161	659.18	77.7544	659.18	78.0539	659.18	77.1242	659.18	75.6537	659.18	79.6247	659.18	78.41	659.18	81.6064	659.18	81.0007	659.18	82.0439
682.617	89.5423	682.617	89.5139	682.617	89.4834	682.617	89.2883	682.617	89.3378	682.617	88.7816	682.617	88.993	682.617	88.0766	682.617	88.3353	682.617	87.3551	682.617	87.3826	682.617	86.6193	682.617	86.3206	682.617	85.6344	682.617	85.3591	682.617	84.3645	682.617	84.5663	682.617	83.4594	682.617	83.9365	682.617	83.4957	682.617	83.4955	682.617	83.6871	682.617	83.061	682.617	83.0529	682.617	82.2497	682.617	81.1529	682.617	80.894	682.617	78.1693	682.617	79.1271	682.617	76.4675	682.617	77.7713	682.617	77.8112	682.617	78.4414	682.617	79.5432	682.617	79.9557	682.617	80.4036
707.52	89.2724	707.52	89.1842	707.52	89.2694	707.52	88.9576	707.52	89.1634	707.52	88.5838	707.52	88.8743	707.52	88.0829	707.52	88.3555	707.52	87.3778	707.52	87.5956	707.52	86.2619	707.52	86.5522	707.52	84.6455	707.52	85.1483	707.52	83.0367	707.52	83.4158	707.52	82.5348	707.52	82.0469	707.52	83.0563	707.52	82.1996	707.52	83.4075	707.52	83.0836	707.52	82.8947	707.52	83.1649	707.52	80.9951	707.52	81.7057	707.52	76.6328	707.52	77.9283	707.52	71.1167	707.52	70.2304	707.52	76.0911	707.52	72.4812	707.52	78.8645	707.52	77.3013	707.52	79.0618
732.422	89.0543	732.422	88.8939	732.422	89.018	732.422	88.6168	732.422	88.8376	732.422	88.2862	732.422	88.6371	732.422	87.8636	732.422	88.3853	732.422	87.2655	732.422	87.9174	732.422	86.4105	732.422	87.136	732.422	85.1712	732.422	85.9271	732.422	83.4495	732.422	84.0478	732.422	81.8899	732.422	81.829	732.422	82.0375	732.422	81.3474	732.422	82.8933	732.422	82.5319	732.422	82.6152	732.422	82.9278	732.422	80.6002	732.422	81.5852	732.422	76.7405	732.422	77.8775	732.422	73.437	732.422	72.4163	732.422	76.409	732.422	75.7129	732.422	79.519	732.422	79.2878	732.422	80.4632
757.324	88.7328	757.324	88.798	757.324	88.5822	757.324	88.6065	757.324	88.4495	757.324	88.161	757.324	88.2274	757.324	87.6237	757.324	87.7741	757.324	87.0434	757.324	87.1204	757.324	86.2016	757.324	86.3337	757.324	84.8789	757.324	85.2063	757.324	83.369	757.324	83.5274	757.324	82.5572	757.324	82.0039	757.324	82.4234	757.324	81.8701	757.324	82.0053	757.324	82.3515	757.324	80.7887	757.324	82.1463	757.324	78.4608	757.324	80.6259	757.324	73.9324	757.324	77.0663	757.324	70.1973	757.324	71.5321	757.324	77.029	757.324	74.2347	757.324	80.2094	757.324	78.664	757.324	80.5426
785.156	89.1308	785.156	88.9467	785.156	89.0535	785.156	88.534	785.156	88.6943	785.156	87.9199	785.156	88.1095	785.156	87.1925	785.156	87.4288	785.156	86.3759	785.156	86.7984	785.156	85.3281	785.156	86.1323	785.156	83.8921	785.156	84.9541	785.156	81.9498	785.156	82.773	785.156	79.7979	785.156	79.9405	785.156	79.5735	785.156	79.0465	785.156	81.3496	785.156	80.3421	785.156	82.0889	785.156	81.0965	785.156	80.6465	785.156	80.3874	785.156	76.1567	785.156	77.5253	785.156	65.3886	785.156	70.0963	785.156	72.4573	785.156	68.6284	785.156	76.9291	785.156	75.5647	785.156	77.6516
811.523	87.3118	811.523	87.3674	811.523	87.0855	811.523	87.1199	811.523	86.8666	811.523	86.6667	811.523	86.7233	811.523	86.2844	811.523	86.5285	811.523	86.0174	811.523	86.0606	811.523	85.4577	811.523	85.2487	811.523	84.1729	811.523	84.1511	811.523	82.1677	811.523	82.6341	811.523	80.132	811.523	80.3502	811.523	79.3775	811.523	78.1589	811.523	80.0586	811.523	78.9905	811.523	80.6184	811.523	80.5822	811.523	79.6886	811.523	80.4047	811.523	76.1332	811.523	77.8142	811.523	68.0552	811.523	71.8984	811.523	70.5581	811.523	67.1769	811.523	74.7692	811.523	72.5874	811.523	75.0208
840.82	87.5008	840.82	87.2799	840.82	87.4178	840.82	86.6772	840.82	87.1613	840.82	85.9285	840.82	86.6921	840.82	85.3889	840.82	86.0367	840.82	85.0355	840.82	85.3769	840.82	84.5029	840.82	84.7193	840.82	83.6269	840.82	83.9254	840.82	82.3068	840.82	82.7329	840.82	80.2492	840.82	80.6798	840.82	78.0935	840.82	78.2723	840.82	78.3254	840.82	77.9987	840.82	79.4605	840.82	79.3864	840.82	78.9015	840.82	80.1301	840.82	75.8069	840.82	78.82	840.82	70.4788	840.82	73.9472	840.82	70.9056	840.82	67.4616	840.82	74.7894	840.82	73.3479	840.82	75.851
870.117	86.9178	870.117	86.4146	870.117	86.931	870.117	85.8872	870.117	86.2293	870.117	85.498	870.117	85.348	870.117	85.0711	870.117	85.0014	870.117	84.5378	870.117	84.8926	870.117	84.1251	870.117	84.5069	870.117	83.7791	870.117	83.7594	870.117	82.7575	870.117	82.6589	870.117	80.1906	870.117	81.2221	870.117	77.1129	870.117	79.1706	870.117	78.0819	870.117	77.3371	870.117	79.4277	870.117	78.3692	870.117	78.9209	870.117	78.8653	870.117	76.9784	870.117	76.3105	870.117	73.5737	870.117	70.1319	870.117	73.502	870.117	71.1219	870.117	75.6476	870.117	74.5655	870.117	75.8369
900.879	86.9301	900.879	86.7895	900.879	87.035	900.879	86.7044	900.879	86.8793	900.879	86.3308	900.879	86.3664	900.879	85.4174	900.879	85.651	900.879	84.5262	900.879	84.9931	900.879	84.1578	900.879	84.4409	900.879	83.5339	900.879	83.8469	900.879	82.1041	900.879	82.9853	900.879	79.6541	900.879	81.2455	900.879	76.6566	900.879	77.8279	900.879	76.7201	900.879	76.0375	900.879	78.6892	900.879	78.8536	900.879	79.0105	900.879	80.7634	900.879	76.3727	900.879	80.4881	900.879	70.2449	900.879	77.1197	900.879	68.1285	900.879	71.0237	900.879	69.0583	900.879	70.8105	900.879	70.8814
933.105	88.0367	933.105	87.7026	933.105	88.047	933.105	86.9992	933.105	87.6826	933.105	85.8473	933.105	86.7583	933.105	84.2453	933.105	85.5107	933.105	82.82	933.105	84.5018	933.105	82.6077	933.105	83.6339	933.105	83.3114	933.105	82.9754	933.105	83.4554	933.105	82.8284	933.105	81.8455	933.105	82.5446	933.105	78.5096	933.105	81.4969	933.105	77.1412	933.105	79.9582	933.105	78.4413	933.105	79.3297	933.105	78.7866	933.105	79.9615	933.105	77.0413	933.105	78.8833	933.105	73.6145	933.105	74.8415	933.105	73.8847	933.105	71.4445	933.105	76.6556	933.105	73.9497	933.105	76.7838
965.332	87.8795	965.332	87.3173	965.332	88.049	965.332	86.8726	965.332	87.6142	965.332	86.3407	965.332	86.9057	965.332	85.2243	965.332	85.9811	965.332	83.9757	965.332	84.8233	965.332	83.5741	965.332	83.7622	965.332	83.388	965.332	83.0608	965.332	82.705	965.332	82.3535	965.332	81.4138	965.332	80.7547	965.332	79.032	965.332	78.358	965.332	76.9446	965.332	76.8003	965.332	78.035	965.332	77.1064	965.332	78.6484	965.332	77.8441	965.332	76.5293	965.332	77.0768	965.332	72.8012	965.332	74.0893	965.332	74.3658	965.332	73.3543	965.332	77.9892	965.332	77.0623	965.332	78.7686
1,000.49	85.4017	1,000.49	86.1077	1,000.49	84.9251	1,000.49	86.2113	1,000.49	84.5447	1,000.49	85.3612	1,000.49	83.6924	1,000.49	84.4135	1,000.49	82.5349	1,000.49	83.9586	1,000.49	81.8584	1,000.49	82.7548	1,000.49	81.2952	1,000.49	80.4162	1,000.49	80.5048	1,000.49	80.1262	1,000.49	80.3552	1,000.49	80.7875	1,000.49	80.5256	1,000.49	80.2192	1,000.49	80.7598	1,000.49	79.2522	1,000.49	80.7853	1,000.49	80.2813	1,000.49	80.0027	1,000.49	81.1429	1,000.49	79.4694	1,000.49	80.1098	1,000.49	78.5551	1,000.49	76.7331	1,000.49	74.2134	1,000.49	70.6	1,000.49	71.1274	1,000.49	63.0094	1,000.49	69.9298	1,000.49	65.7176
1,035.64	88.2474	1,035.64	88.2701	1,035.64	88.0713	1,035.64	87.612	1,035.64	87.8293	1,035.64	86.5365	1,035.64	87.0818	1,035.64	85.3336	1,035.64	85.5115	1,035.64	83.7392	1,035.64	83.7337	1,035.64	82.2112	1,035.64	83.4297	1,035.64	81.5238	1,035.64	83.2703	1,035.64	81.5055	1,035.64	81.8356	1,035.64	80.2102	1,035.64	80.1016	1,035.64	76.4964	1,035.64	78.4431	1,035.64	75.832	1,035.64	79.1017	1,035.64	76.3045	1,035.64	82.317	1,035.64	75.3679	1,035.64	83.8808	1,035.64	68.9815	1,035.64	81.928	1,035.64	67.9109	1,035.64	74.7193	1,035.64	78.0433	1,035.64	77.5948	1,035.64	82.2631	1,035.64	81.4385	1,035.64	83.1261
1,072.27	88.2594	1,072.27	86.8215	1,072.27	88.3458	1,072.27	86.2059	1,072.27	86.9499	1,072.27	86.3198	1,072.27	86.2497	1,072.27	85.4143	1,072.27	86.1033	1,072.27	83.4536	1,072.27	84.0552	1,072.27	81.2885	1,072.27	79.6245	1,072.27	79.6441	1,072.27	77.5549	1,072.27	78.7414	1,072.27	79.591	1,072.27	76.5164	1,072.27	79.6321	1,072.27	74.0676	1,072.27	76.0756	1,072.27	75.3389	1,072.27	73.6136	1,072.27	79.6054	1,072.27	78.3282	1,072.27	81.2328	1,072.27	80.3537	1,072.27	79.5396	1,072.27	79.4066	1,072.27	73.3601	1,072.27	76.51	1,072.27	68.9527	1,072.27	68.7425	1,072.27	75.7275	1,072.27	69.0451	1,072.27	75.8862
1,108.89	86.5838	1,108.89	87.3897	1,108.89	86.7149	1,108.89	87.6328	1,108.89	87.0974	1,108.89	86.6103	1,108.89	86.0453	1,108.89	85.5771	1,108.89	83.7707	1,108.89	85.22	1,108.89	82.2688	1,108.89	83.6854	1,108.89	81.9971	1,108.89	80.5077	1,108.89	81.5936	1,108.89	79.4553	1,108.89	80.6319	1,108.89	79.623	1,108.89	79.1329	1,108.89	78.0344	1,108.89	77.254	1,108.89	75.7626	1,108.89	73.2512	1,108.89	74.2648	1,108.89	68.6544	1,108.89	75.8081	1,108.89	71.1073	1,108.89	76.828	1,108.89	70.5058	1,108.89	69.3237	1,108.89	64.6226	1,108.89	68.9534	1,108.89	64.9845	1,108.89	69.1638	1,108.89	70.7464	1,108.89	70.1513
1,148.44	86.6807	1,148.44	87.1438	1,148.44	86.6885	1,148.44	86.5737	1,148.44	87.3577	1,148.44	85.2962	1,148.44	87.3624	1,148.44	84.779	1,148.44	86.3833	1,148.44	83.9115	1,148.44	85.0902	1,148.44	80.6717	1,148.44	83.6813	1,148.44	77.3689	1,148.44	82.3462	1,148.44	77.4838	1,148.44	80.5861	1,148.44	78.8092	1,148.44	78.756	1,148.44	77.4636	1,148.44	76.8512	1,148.44	73.4299	1,148.44	74.0359	1,148.44	67.0172	1,148.44	73.6245	1,148.44	70.8292	1,148.44	74.0671	1,148.44	72.5759	1,148.44	74.2654	1,148.44	68.1476	1,148.44	71.0935	1,148.44	57.8422	1,148.44	68.6678	1,148.44	57.551	1,148.44	59.6466	1,148.44	60.5338
1,189.45	88.1161	1,189.45	87.1966	1,189.45	88.654	1,189.45	86.0674	1,189.45	88.2793	1,189.45	85.3764	1,189.45	87.038	1,189.45	84.7911	1,189.45	85.9966	1,189.45	82.9472	1,189.45	85.5909	1,189.45	80.9901	1,189.45	84.1811	1,189.45	79.1372	1,189.45	81.269	1,189.45	77.6455	1,189.45	79.5797	1,189.45	77.5484	1,189.45	79.0222	1,189.45	76.5996	1,189.45	77.7738	1,189.45	74.3425	1,189.45	75.5749	1,189.45	72.5256	1,189.45	73.7412	1,189.45	75.0582	1,189.45	75.543	1,189.45	73.4468	1,189.45	75.9852	1,189.45	70.0024	1,189.45	73.9373	1,189.45	61.8495	1,189.45	65.6204	1,189.45	69.0434	1,189.45	70.4604	1,189.45	73.2756
1,230.47	88.367	1,230.47	86.94	1,230.47	88.0689	1,230.47	85.0328	1,230.47	87.1385	1,230.47	84.037	1,230.47	86.3626	1,230.47	83.358	1,230.47	85.6287	1,230.47	82.7156	1,230.47	84.6087	1,230.47	81.4821	1,230.47	83.3754	1,230.47	80.2603	1,230.47	81.6697	1,230.47	79.0585	1,230.47	78.5784	1,230.47	79.4444	1,230.47	78.3018	1,230.47	79.8458	1,230.47	79.126	1,230.47	77.4405	1,230.47	75.8118	1,230.47	76.1631	1,230.47	72.4407	1,230.47	75.6408	1,230.47	75.5614	1,230.47	75.9322	1,230.47	77.7503	1,230.47	76.2521	1,230.47	76.5112	1,230.47	73.6353	1,230.47	71.7188	1,230.47	69.8404	1,230.47	70.1814	1,230.47	71.4876
1,274.41	87.1077	1,274.41	86.2874	1,274.41	86.8982	1,274.41	85.5828	1,274.41	85.5171	1,274.41	85.3431	1,274.41	84.5478	1,274.41	84.5985	1,274.41	84.1849	1,274.41	83.8061	1,274.41	82.9887	1,274.41	82.9658	1,274.41	81.9399	1,274.41	80.9709	1,274.41	80.1937	1,274.41	79.301	1,274.41	78.6599	1,274.41	78.8741	1,274.41	78.9213	1,274.41	78.7435	1,274.41	78.9148	1,274.41	78.2837	1,274.41	77.2461	1,274.41	76.7814	1,274.41	74.3043	1,274.41	75.8138	1,274.41	75.3688	1,274.41	75.8615	1,274.41	77.3239	1,274.41	73.8887	1,274.41	72.0441	1,274.41	66.9414	1,274.41	61.0241	1,274.41	68.7216	1,274.41	65.4471	1,274.41	73.8786
1,319.82	86.0998	1,319.82	85.1323	1,319.82	86.4363	1,319.82	84.4425	1,319.82	86.2162	1,319.82	83.7727	1,319.82	86.4397	1,319.82	82.1944	1,319.82	86.049	1,319.82	81.2461	1,319.82	84.7024	1,319.82	80.0646	1,319.82	83.4883	1,319.82	77.8603	1,319.82	81.3832	1,319.82	76.5306	1,319.82	79.4218	1,319.82	75.7337	1,319.82	76.8496	1,319.82	78.2143	1,319.82	75.753	1,319.82	75.2684	1,319.82	72.0744	1,319.82	73.4032	1,319.82	70.728	1,319.82	78.7922	1,319.82	74.0031	1,319.82	79.4417	1,319.82	73.1292	1,319.82	77.919	1,319.82	73.3352	1,319.82	75.5323	1,319.82	73.2875	1,319.82	71.794	1,319.82	69.1985	1,319.82	67.8702
1,366.7	86.2598	1,366.7	86.0002	1,366.7	86.4558	1,366.7	86.2267	1,366.7	86.2142	1,366.7	85.0066	1,366.7	85.6134	1,366.7	83.1024	1,366.7	83.8888	1,366.7	82.3018	1,366.7	82.6043	1,366.7	80.3873	1,366.7	82.2399	1,366.7	78.9369	1,366.7	80.5242	1,366.7	78.6105	1,366.7	80.337	1,366.7	77.471	1,366.7	79.4037	1,366.7	77.7466	1,366.7	77.6312	1,366.7	77.1088	1,366.7	77.1671	1,366.7	74.951	1,366.7	73.6974	1,366.7	76.5359	1,366.7	73.7576	1,366.7	76.0222	1,366.7	74.5928	1,366.7	71.3999	1,366.7	71.7279	1,366.7	66.2964	1,366.7	63.0044	1,366.7	70.3947	1,366.7	63.0327	1,366.7	70.9133
1,413.57	85.2115	1,413.57	85.249	1,413.57	84.6853	1,413.57	84.8427	1,413.57	84.9492	1,413.57	83.8856	1,413.57	85.1529	1,413.57	82.1698	1,413.57	83.9025	1,413.57	81.3476	1,413.57	83.2131	1,413.57	80.9135	1,413.57	82.7543	1,413.57	79.2081	1,413.57	81.1564	1,413.57	78.2184	1,413.57	79.9698	1,413.57	76.1938	1,413.57	77.4695	1,413.57	75.4776	1,413.57	75.8182	1,413.57	74.2417	1,413.57	75.7942	1,413.57	72.5661	1,413.57	75.2527	1,413.57	73.1567	1,413.57	70.3151	1,413.57	77.1633	1,413.57	68.5405	1,413.57	77.0756	1,413.57	70.5331	1,413.57	71.0756	1,413.57	69.6482	1,413.57	69.4776	1,413.57	71.577	1,413.57	71.8232
1,463.38	87.2321	1,463.38	87.5762	1,463.38	86.9281	1,463.38	87.1243	1,463.38	86.444	1,463.38	85.7428	1,463.38	85.1798	1,463.38	83.5865	1,463.38	84.3032	1,463.38	81.5152	1,463.38	83.0933	1,463.38	78.9256	1,463.38	82.6936	1,463.38	78.6459	1,463.38	81.6295	1,463.38	75.6385	1,463.38	79.5199	1,463.38	74.599	1,463.38	77.3668	1,463.38	74.7551	1,463.38	74.0927	1,463.38	76.3864	1,463.38	73.3513	1,463.38	75.754	1,463.38	69.3403	1,463.38	68.5773	1,463.38	65.2149	1,463.38	71.3545	1,463.38	59.4745	1,463.38	69.5805	1,463.38	62.6998	1,463.38	56.6592	1,463.38	67.8423	1,463.38	62.6199	1,463.38	69.7583	1,463.38	64.5292
1,516.11	87.5432	1,516.11	86.8339	1,516.11	87.548	1,516.11	86.4462	1,516.11	86.4806	1,516.11	85.0402	1,516.11	85.6751	1,516.11	83.7286	1,516.11	84.2746	1,516.11	83.3321	1,516.11	83.6022	1,516.11	81.4613	1,516.11	81.3386	1,516.11	81.4441	1,516.11	79.9318	1,516.11	79.9911	1,516.11	78.0365	1,516.11	77.2288	1,516.11	75.264	1,516.11	74.5522	1,516.11	78.3294	1,516.11	74.1167	1,516.11	79.7073	1,516.11	68.8402	1,516.11	77.8125	1,516.11	69.4955	1,516.11	77.0761	1,516.11	71.9087	1,516.11	74.8361	1,516.11	76.9294	1,516.11	77.3327	1,516.11	69.2313	1,516.11	76.2667	1,516.11	62.6279	1,516.11	69.9662	1,516.11	64.7212
1,568.85	87.0759	1,568.85	86.7383	1,568.85	87.1199	1,568.85	86.6004	1,568.85	86.968	1,568.85	86.0956	1,568.85	86.5305	1,568.85	84.201	1,568.85	84.7676	1,568.85	82.6585	1,568.85	83.2503	1,568.85	81.7626	1,568.85	81.3006	1,568.85	80.1191	1,568.85	79.2197	1,568.85	78.4847	1,568.85	78.1859	1,568.85	78.6295	1,568.85	77.7764	1,568.85	75.0303	1,568.85	76.8882	1,568.85	76.4118	1,568.85	76.7089	1,568.85	77.3732	1,568.85	72.169	1,568.85	76.2818	1,568.85	70.7228	1,568.85	75.1577	1,568.85	75.8261	1,568.85	67.7364	1,568.85	76.4373	1,568.85	67.9663	1,568.85	68.8909	1,568.85	63.8424	1,568.85	62.1333	1,568.85	67.5919
1,624.51	87.5779	1,624.51	86.8139	1,624.51	87.4095	1,624.51	85.195	1,624.51	86.1374	1,624.51	85.0743	1,624.51	84.9574	1,624.51	82.4894	1,624.51	83.5995	1,624.51	80.8605	1,624.51	81.2007	1,624.51	81.01	1,624.51	80.0812	1,624.51	79.8252	1,624.51	79.0676	1,624.51	79.6315	1,624.51	76.9108	1,624.51	77.4023	1,624.51	76.2639	1,624.51	77.2682	1,624.51	74.3119	1,624.51	76.6829	1,624.51	73.5762	1,624.51	72.5171	1,624.51	71.4777	1,624.51	69.7894	1,624.51	70.959	1,624.51	73.6732	1,624.51	74.7981	1,624.51	76.1151	1,624.51	74.889	1,624.51	67.4258	1,624.51	73.9418	1,624.51	61.9989	1,624.51	66.5437	1,624.51	71.5426
1,681.64	86.2925	1,681.64	86.1562	1,681.64	86.9116	1,681.64	85.264	1,681.64	86.1019	1,681.64	83.8689	1,681.64	85.0048	1,681.64	81.8475	1,681.64	83.3826	1,681.64	80.4704	1,681.64	81.1885	1,681.64	78.955	1,681.64	78.4975	1,681.64	78.3294	1,681.64	77.6007	1,681.64	77.6137	1,681.64	76.9381	1,681.64	75.9519	1,681.64	72.8283	1,681.64	72.4202	1,681.64	72.8499	1,681.64	75.6603	1,681.64	69.8945	1,681.64	69.5862	1,681.64	56.3055	1,681.64	70.5771	1,681.64	46.513	1,681.64	73.0107	1,681.64	67.3869	1,681.64	72.5377	1,681.64	71.6448	1,681.64	66.5064	1,681.64	64.3674	1,681.64	66.6519	1,681.64	68.7431	1,681.64	73.2216
1,741.7	86.4417	1,741.7	86.3723	1,741.7	85.9343	1,741.7	85.6192	1,741.7	85.4	1,741.7	83.8358	1,741.7	84.9972	1,741.7	82.6756	1,741.7	83.6138	1,741.7	81.6394	1,741.7	82.7451	1,741.7	80.016	1,741.7	81.3545	1,741.7	77.9725	1,741.7	80.2048	1,741.7	75.988	1,741.7	77.8926	1,741.7	74.9621	1,741.7	73.8629	1,741.7	70.7222	1,741.7	71.8139	1,741.7	74.7078	1,741.7	70.1093	1,741.7	73.6788	1,741.7	71.1174	1,741.7	70.714	1,741.7	71.99	1,741.7	73.5436	1,741.7	70.611	1,741.7	75.1896	1,741.7	71.6469	1,741.7	52.9676	1,741.7	69.3384	1,741.7	63.6894	1,741.7	64.3222	1,741.7	66.214
1,803.22	86.6062	1,803.22	86.8802	1,803.22	86.1093	1,803.22	86.5058	1,803.22	86.8059	1,803.22	85.0368	1,803.22	86.2672	1,803.22	83.7811	1,803.22	85.0306	1,803.22	81.7975	1,803.22	84.1442	1,803.22	79.3273	1,803.22	80.8619	1,803.22	78.985	1,803.22	77.7069	1,803.22	76.1167	1,803.22	77.6813	1,803.22	74.846	1,803.22	75.6153	1,803.22	71.4883	1,803.22	72.7399	1,803.22	73.6339	1,803.22	69.6391	1,803.22	74.2815	1,803.22	70.0887	1,803.22	71.3949	1,803.22	72.457	1,803.22	74.4299	1,803.22	72.4039	1,803.22	73.3583	1,803.22	70.8947	1,803.22	71.7468	1,803.22	71.1616	1,803.22	72.2736	1,803.22	70.1853	1,803.22	74.8404
1,866.21	86.0626	1,866.21	85.9059	1,866.21	86.7338	1,866.21	85.4915	1,866.21	85.7444	1,866.21	84.035	1,866.21	84.9365	1,866.21	83.3416	1,866.21	84.1788	1,866.21	82.3917	1,866.21	83.0181	1,866.21	81.1082	1,866.21	81.8046	1,866.21	77.3192	1,866.21	80.0714	1,866.21	77.1805	1,866.21	78.4337	1,866.21	75.593	1,866.21	75.4472	1,866.21	75.0232	1,866.21	70.1213	1,866.21	75.1767	1,866.21	70.1641	1,866.21	72.8724	1,866.21	71.4368	1,866.21	71.1146	1,866.21	67.6348	1,866.21	71.5081	1,866.21	69.7626	1,866.21	74.2466	1,866.21	73.7148	1,866.21	63.0975	1,866.21	71.44	1,866.21	54.9845	1,866.21	69.0421	1,866.21	60.6594
1,932.13	85.6186	1,932.13	84.8308	1,932.13	85.3636	1,932.13	85.1631	1,932.13	84.4835	1,932.13	83.6163	1,932.13	84.2632	1,932.13	82.4785	1,932.13	83.4924	1,932.13	80.891	1,932.13	82.085	1,932.13	80.591	1,932.13	80.571	1,932.13	78.4728	1,932.13	78.1132	1,932.13	74.8791	1,932.13	76.3581	1,932.13	73.5252	1,932.13	76.5727	1,932.13	74.5646	1,932.13	71.6208	1,932.13	77.9097	1,932.13	71.8547	1,932.13	74.9532	1,932.13	70.2827	1,932.13	71.1111	1,932.13	65.6421	1,932.13	67.1087	1,932.13	62.5607	1,932.13	72.2987	1,932.13	71.7388	1,932.13	69.4847	1,932.13	69.4455	1,932.13	71.3804	1,932.13	65.7051	1,932.13	73.5705
1,999.51	85.1632	1,999.51	84.8291	1,999.51	85.0124	1,999.51	84.7096	1,999.51	84.8362	1,999.51	83.5409	1,999.51	83.794	1,999.51	82.6779	1,999.51	82.895	1,999.51	80.9651	1,999.51	81.7053	1,999.51	80.1461	1,999.51	80.6432	1,999.51	78.1312	1,999.51	78.4288	1,999.51	76.1688	1,999.51	77.0107	1,999.51	74.5727	1,999.51	76.0268	1,999.51	70.6473	1,999.51	73.0847	1,999.51	72.6995	1,999.51	73.2178	1,999.51	69.1432	1,999.51	71.9313	1,999.51	68.4152	1,999.51	68.8439	1,999.51	65.6219	1,999.51	70.4813	1,999.51	70.5983	1,999.51	69.0025	1,999.51	61.0898	1,999.51	67.7693	1,999.51	67.3565	1,999.51	52.285	1,999.51	69.6497
2,069.82	85.8147	2,069.82	86.0034	2,069.82	85.9242	2,069.82	85.3916	2,069.82	85.2084	2,069.82	85.0005	2,069.82	84.7243	2,069.82	83.7389	2,069.82	83.6098	2,069.82	82.7357	2,069.82	82.181	2,069.82	81.1332	2,069.82	81.0916	2,069.82	79.1988	2,069.82	79.6682	2,069.82	77.1912	2,069.82	77.0875	2,069.82	75.5547	2,069.82	75.8717	2,069.82	75.1009	2,069.82	73.7435	2,069.82	72.1297	2,069.82	71.9903	2,069.82	71.102	2,069.82	70.9707	2,069.82	69.2624	2,069.82	71.3727	2,069.82	69.1222	2,069.82	69.1662	2,069.82	73.0242	2,069.82	71.2981	2,069.82	65.7692	2,069.82	72.6	2,069.82	49.0678	2,069.82	68.0881	2,069.82	65.282
2,143.07	85.6139	2,143.07	85.2773	2,143.07	85.2361	2,143.07	84.9899	2,143.07	85.2167	2,143.07	84.5234	2,143.07	84.553	2,143.07	83.6133	2,143.07	83.7902	2,143.07	82.5399	2,143.07	82.9	2,143.07	81.1075	2,143.07	81.2228	2,143.07	79.9856	2,143.07	80.0426	2,143.07	77.9137	2,143.07	78.0882	2,143.07	77.4561	2,143.07	76.3803	2,143.07	73.5766	2,143.07	74.6002	2,143.07	74.0014	2,143.07	73.2353	2,143.07	70.9571	2,143.07	71.4732	2,143.07	70.2805	2,143.07	66.6691	2,143.07	71.854	2,143.07	67.8872	2,143.07	69.2679	2,143.07	72.2236	2,143.07	72.8339	2,143.07	65.3924	2,143.07	69.9472	2,143.07	64.4219	2,143.07	72.2869
2,219.24	84.7234	2,219.24	84.5864	2,219.24	84.7747	2,219.24	84.5252	2,219.24	84.006	2,219.24	83.405	2,219.24	83.8893	2,219.24	83.1212	2,219.24	82.9651	2,219.24	81.5065	2,219.24	81.7573	2,219.24	80.5656	2,219.24	80.2588	2,219.24	78.2902	2,219.24	78.4936	2,219.24	76.5495	2,219.24	76.0604	2,219.24	74.0454	2,219.24	75.0434	2,219.24	74.1011	2,219.24	73.5856	2,219.24	72.6266	2,219.24	71.7907	2,219.24	71.2868	2,219.24	71.0785	2,219.24	68.8732	2,219.24	68.2302	2,219.24	68.0507	2,219.24	68.589	2,219.24	71.0092	2,219.24	68.1984	2,219.24	62.0021	2,219.24	69.8036	2,219.24	68.4281	2,219.24	44.8768	2,219.24	70.7054
2,296.88	84.4823	2,296.88	84.6901	2,296.88	84.6235	2,296.88	84.5248	2,296.88	84.4491	2,296.88	84.5227	2,296.88	83.4874	2,296.88	83.5073	2,296.88	82.9304	2,296.88	82.5599	2,296.88	82.223	2,296.88	80.617	2,296.88	80.7485	2,296.88	79.2668	2,296.88	79.2304	2,296.88	76.6271	2,296.88	77.836	2,296.88	75.7073	2,296.88	74.7342	2,296.88	72.7037	2,296.88	74.0866	2,296.88	71.1211	2,296.88	70.9651	2,296.88	70.9173	2,296.88	73.8364	2,296.88	66.1609	2,296.88	69.3453	2,296.88	68.1973	2,296.88	68.9902	2,296.88	69.1453	2,296.88	67.7719	2,296.88	63.8212	2,296.88	70.1604	2,296.88	50.7022	2,296.88	65.1813	2,296.88	63.0449
2,378.91	85.2877	2,378.91	85.4231	2,378.91	84.8229	2,378.91	85.318	2,378.91	84.9972	2,378.91	84.6024	2,378.91	85.0917	2,378.91	83.6681	2,378.91	84.2661	2,378.91	82.8408	2,378.91	83.1916	2,378.91	81.3166	2,378.91	81.7818	2,378.91	79.6415	2,378.91	79.8254	2,378.91	77.9132	2,378.91	78.1647	2,378.91	75.065	2,378.91	75.59	2,378.91	74.8776	2,378.91	74.5279	2,378.91	73.0982	2,378.91	72.3346	2,378.91	73.1117	2,378.91	71.2099	2,378.91	68.5147	2,378.91	66.8291	2,378.91	71.3448	2,378.91	70.0067	2,378.91	68.8947	2,378.91	70.0606	2,378.91	71.268	2,378.91	67.9935	2,378.91	57.8963	2,378.91	65.7453	2,378.91	69.1067
2,462.4	84.0994	2,462.4	84.3895	2,462.4	84.5837	2,462.4	84.7181	2,462.4	84.3669	2,462.4	84.8377	2,462.4	84.0827	2,462.4	84.1989	2,462.4	83.4443	2,462.4	82.6677	2,462.4	82.18	2,462.4	81.2041	2,462.4	80.5346	2,462.4	78.8563	2,462.4	78.3735	2,462.4	77.4289	2,462.4	76.2993	2,462.4	74.0489	2,462.4	73.6842	2,462.4	74.0092	2,462.4	74.0057	2,462.4	70.8115	2,462.4	70.0781	2,462.4	71.3627	2,462.4	71.8743	2,462.4	67.9501	2,462.4	68.7392	2,462.4	68.5277	2,462.4	67.9394	2,462.4	69.3198	2,462.4	64.6003	2,462.4	67.2787	2,462.4	66.8775	2,462.4	67.8516	2,462.4	60.0618	2,462.4	71.467
2,548.83	84.048	2,548.83	84.3824	2,548.83	83.7685	2,548.83	84.7793	2,548.83	84.1148	2,548.83	84.3177	2,548.83	84.2333	2,548.83	83.263	2,548.83	83.4592	2,548.83	82.3533	2,548.83	82.2132	2,548.83	80.211	2,548.83	81.208	2,548.83	78.7655	2,548.83	78.8205	2,548.83	76.3313	2,548.83	77.1403	2,548.83	74.6297	2,548.83	74.6527	2,548.83	72.6631	2,548.83	72.0964	2,548.83	71.5802	2,548.83	70.3752	2,548.83	70.8528	2,548.83	71.1461	2,548.83	60.7877	2,548.83	69.6797	2,548.83	71.5019	2,548.83	70.5514	2,548.83	63.3566	2,548.83	69.5885	2,548.83	68.7185	2,548.83	70.4513	2,548.83	64.8021	2,548.83	45.3063	2,548.83	69.9003
2,639.65	84.4761	2,639.65	84.2623	2,639.65	84.2329	2,639.65	84.2865	2,639.65	84.2133	2,639.65	84.6871	2,639.65	84.2963	2,639.65	83.7532	2,639.65	83.5765	2,639.65	82.3018	2,639.65	82.471	2,639.65	81.6026	2,639.65	80.3257	2,639.65	77.9515	2,639.65	79.0006	2,639.65	77.3248	2,639.65	75.9955	2,639.65	73.4692	2,639.65	75.055	2,639.65	73.7374	2,639.65	73.5701	2,639.65	70.6065	2,639.65	71.741	2,639.65	72.6158	2,639.65	72.2219	2,639.65	70.8912	2,639.65	66.2349	2,639.65	68.7496	2,639.65	65.5772	2,639.65	68.8079	2,639.65	51.787	2,639.65	63.1572	2,639.65	67.1901	2,639.65	61.08	2,639.65	56.2858	2,639.65	62.8904
2,731.93	83.9345	2,731.93	84.5043	2,731.93	84.153	2,731.93	84.598	2,731.93	83.7694	2,731.93	83.7271	2,731.93	83.3109	2,731.93	83.4674	2,731.93	82.5518	2,731.93	81.2979	2,731.93	80.9895	2,731.93	79.0242	2,731.93	79.9491	2,731.93	79.0416	2,731.93	77.1955	2,731.93	75.7761	2,731.93	75.2158	2,731.93	74.5846	2,731.93	73.1371	2,731.93	71.5554	2,731.93	68.6647	2,731.93	69.6974	2,731.93	70.0065	2,731.93	68.1428	2,731.93	69.5478	2,731.93	63.2008	2,731.93	72.3863	2,731.93	67.439	2,731.93	71.2334	2,731.93	40.6897	2,731.93	67.5657	2,731.93	64.4639	2,731.93	68.276	2,731.93	52.0573	2,731.93	60.0639	2,731.93	63.3162
2,828.61	84.7498	2,828.61	84.3249	2,828.61	84.4532	2,828.61	83.7184	2,828.61	83.917	2,828.61	84.3933	2,828.61	83.7456	2,828.61	83.0993	2,828.61	83.1586	2,828.61	82.1462	2,828.61	81.8183	2,828.61	80.313	2,828.61	78.5506	2,828.61	77.4503	2,828.61	78.7533	2,828.61	74.2338	2,828.61	75.0174	2,828.61	73.1318	2,828.61	73.9827	2,828.61	72.1796	2,828.61	71.9262	2,828.61	71.5095	2,828.61	71.9794	2,828.61	72.8501	2,828.61	70.7227	2,828.61	72.2177	2,828.61	63.5279	2,828.61	69.7889	2,828.61	67.6385	2,828.61	67.2141	2,828.61	59.55	2,828.61	67.5637	2,828.61	66.9277	2,828.61	57.1425	2,828.61	53.84	2,828.61	62.4921
2,928.22	84.9751	2,928.22	85.5285	2,928.22	85.1567	2,928.22	84.547	2,928.22	85.0113	2,928.22	83.2651	2,928.22	83.5178	2,928.22	83.549	2,928.22	82.8874	2,928.22	81.6014	2,928.22	82.4613	2,928.22	78.7674	2,928.22	80.108	2,928.22	78.5517	2,928.22	76.8633	2,928.22	75.6989	2,928.22	76.1999	2,928.22	74.6236	2,928.22	73.3018	2,928.22	69.716	2,928.22	71.7265	2,928.22	69.0015	2,928.22	68.5773	2,928.22	63.5593	2,928.22	69.393	2,928.22	65.9289	2,928.22	71.5878	2,928.22	67.6879	2,928.22	70.1226	2,928.22	61.3771	2,928.22	63.6284	2,928.22	59.971	2,928.22	66.1641	2,928.22	59.158	2,928.22	65.3777	2,928.22	65.1369
3,030.76	84.6786	3,030.76	84.273	3,030.76	84.243	3,030.76	84.5354	3,030.76	83.9174	3,030.76	83.8343	3,030.76	83.9116	3,030.76	82.0026	3,030.76	82.2712	3,030.76	82.4943	3,030.76	80.7086	3,030.76	80.1062	3,030.76	79.3958	3,030.76	76.0884	3,030.76	78.4431	3,030.76	73.3118	3,030.76	76.0772	3,030.76	70.6694	3,030.76	72.3705	3,030.76	70.3693	3,030.76	69.8878	3,030.76	71.0221	3,030.76	70.407	3,030.76	69.8721	3,030.76	69.9333	3,030.76	68.7922	3,030.76	64.4897	3,030.76	69.7373	3,030.76	69.7373	3,030.76	65.5783	3,030.76	60.9184	3,030.76	64.0684	3,030.76	64.1084	3,030.76	61.0809	3,030.76	56.4009	3,030.76	64.6855
3,137.7	85.657	3,137.7	85.7266	3,137.7	86.1635	3,137.7	84.0564	3,137.7	85.3266	3,137.7	83.7856	3,137.7	84.0064	3,137.7	81.9499	3,137.7	83.3225	3,137.7	80.4451	3,137.7	82.6518	3,137.7	78.0333	3,137.7	80.9143	3,137.7	78.0088	3,137.7	77.0569	3,137.7	76.0864	3,137.7	75.9708	3,137.7	73.7736	3,137.7	73.105	3,137.7	69.2525	3,137.7	69.8911	3,137.7	65.6386	3,137.7	68.0303	3,137.7	66.3349	3,137.7	65.7821	3,137.7	66.8745	3,137.7	68.7652	3,137.7	66.9985	3,137.7	67.5482	3,137.7	53.5979	3,137.7	60.0267	3,137.7	65.7764	3,137.7	67.1977	3,137.7	59.5697	3,137.7	61.6387	3,137.7	65.2614
3,249.02	87.2072	3,249.02	86.5628	3,249.02	86.3561	3,249.02	86.2029	3,249.02	86.3092	3,249.02	84.5985	3,249.02	85.2243	3,249.02	83.0166	3,249.02	81.8019	3,249.02	81.6611	3,249.02	80.8654	3,249.02	80.7814	3,249.02	78.9972	3,249.02	75.6526	3,249.02	77.8604	3,249.02	73.3087	3,249.02	75.035	3,249.02	72.5512	3,249.02	72.2778	3,249.02	67.7567	3,249.02	70.2623	3,249.02	71.9043	3,249.02	70.3963	3,249.02	68.225	3,249.02	68.165	3,249.02	68.135	3,249.02	66.8782	3,249.02	60.4948	3,249.02	66.5772	3,249.02	60.5632	3,249.02	57.6425	3,249.02	61.4809	3,249.02	63.2399	3,249.02	62.9476	3,249.02	58.925	3,249.02	63.8628
3,363.28	87.0957	3,363.28	86.8899	3,363.28	87.0297	3,363.28	85.7117	3,363.28	85.2751	3,363.28	84.7255	3,363.28	84.2686	3,363.28	82.0109	3,363.28	84.612	3,363.28	79.5964	3,363.28	80.0227	3,363.28	77.5551	3,363.28	80.0206	3,363.28	76.84	3,363.28	76.0973	3,363.28	75.7236	3,363.28	74.4328	3,363.28	72.3659	3,363.28	70.715	3,363.28	70.4614	3,363.28	69.1821	3,363.28	67.6582	3,363.28	69.166	3,363.28	68.0921	3,363.28	68.2451	3,363.28	69.6134	3,363.28	68.5275	3,363.28	65.0963	3,363.28	64.9882	3,363.28	47.5454	3,363.28	57.1839	3,363.28	58.5857	3,363.28	60.5923	3,363.28	63.0696	3,363.28	51.2076	3,363.28	59.154
3,481.93	88.6619	3,481.93	87.7099	3,481.93	87.8657	3,481.93	86.4781	3,481.93	86.8072	3,481.93	85.5692	3,481.93	85.4158	3,481.93	84.7074	3,481.93	83.0677	3,481.93	80.997	3,481.93	80.7232	3,481.93	79.6383	3,481.93	78.8919	3,481.93	76.497	3,481.93	75.284	3,481.93	73.1649	3,481.93	74.3604	3,481.93	71.6211	3,481.93	72.0673	3,481.93	69.961	3,481.93	71.2498	3,481.93	71.3442	3,481.93	68.1444	3,481.93	68.7421	3,481.93	69.332	3,481.93	70.8933	3,481.93	69.6036	3,481.93	63.2253	3,481.93	65.6064	3,481.93	58.0904	3,481.93	61.2742	3,481.93	58.0259	3,481.93	62.2717	3,481.93	61.7939	3,481.93	55.8548	3,481.93	55.7797
3,604.98	88.1487	3,604.98	87.7081	3,604.98	87.6806	3,604.98	86.2169	3,604.98	86.7763	3,604.98	84.8894	3,604.98	83.627	3,604.98	82.9669	3,604.98	83.3128	3,604.98	81.0352	3,604.98	81.5691	3,604.98	78.1305	3,604.98	77.0511	3,604.98	76.3895	3,604.98	75.9926	3,604.98	74.4018	3,604.98	72.3775	3,604.98	72.242	3,604.98	72.1946	3,604.98	69.1781	3,604.98	68.9689	3,604.98	70.4424	3,604.98	69.3987	3,604.98	69.9561	3,604.98	67.6434	3,604.98	70.6165	3,604.98	70.9163	3,604.98	63.3477	3,604.98	67.2235	3,604.98	56.1262	3,604.98	63.482	3,604.98	55.1549	3,604.98	59.2413	3,604.98	63.82	3,604.98	55.2302	3,604.98	59.8704
3,732.42	87.6217	3,732.42	87.297	3,732.42	87.1376	3,732.42	85.9492	3,732.42	85.4469	3,732.42	83.6906	3,732.42	84.5711	3,732.42	83.0952	3,732.42	82.2906	3,732.42	81.0666	3,732.42	81.4016	3,732.42	78.4264	3,732.42	79.1015	3,732.42	76.1065	3,732.42	76.3186	3,732.42	73.1605	3,732.42	74.1051	3,732.42	71.2186	3,732.42	71.2846	3,732.42	70.1833	3,732.42	70.8368	3,732.42	69.5594	3,732.42	66.8954	3,732.42	67.3215	3,732.42	70.1157	3,732.42	70.504	3,732.42	69.9327	3,732.42	62.5281	3,732.42	65.1192	3,732.42	56.4518	3,732.42	63.6833	3,732.42	55.2175	3,732.42	60.2514	3,732.42	64.7858	3,732.42	60.7815	3,732.42	68.5474
3,864.26	87.9402	3,864.26	86.9877	3,864.26	87.3921	3,864.26	86.6484	3,864.26	86.2777	3,864.26	84.7666	3,864.26	84.7818	3,864.26	82.3572	3,864.26	81.983	3,864.26	81.7436	3,864.26	81.2411	3,864.26	79.5887	3,864.26	80.0788	3,864.26	77.2495	3,864.26	77.8662	3,864.26	73.602	3,864.26	74.3139	3,864.26	71.8906	3,864.26	72.3905	3,864.26	69.021	3,864.26	68.4685	3,864.26	69.3039	3,864.26	67.2553	3,864.26	66.633	3,864.26	64.0802	3,864.26	70.6205	3,864.26	69.0757	3,864.26	59.4716	3,864.26	66.261	3,864.26	62.8803	3,864.26	64.3868	3,864.26	65.9961	3,864.26	65.043	3,864.26	57.8042	3,864.26	60.6171	3,864.26	66.9378
4,000.49	87.2421	4,000.49	86.8017	4,000.49	87.0338	4,000.49	85.0275	4,000.49	85.2057	4,000.49	84.4781	4,000.49	83.4311	4,000.49	81.6367	4,000.49	83.0239	4,000.49	80.6828	4,000.49	80.6688	4,000.49	79.7252	4,000.49	79.9498	4,000.49	76.4829	4,000.49	77.851	4,000.49	75.6991	4,000.49	75.2304	4,000.49	72.4725	4,000.49	72.0791	4,000.49	70.1731	4,000.49	70.7673	4,000.49	69.112	4,000.49	67.6091	4,000.49	67.347	4,000.49	65.7904	4,000.49	69.29	4,000.49	68.9096	4,000.49	61.4229	4,000.49	63.6012	4,000.49	52.4976	4,000.49	64.4008	4,000.49	64.2335	4,000.49	64.5248	4,000.49	60.8882	4,000.49	53.9381	4,000.49	49.0108
4,141.11	88.1911	4,141.11	87.0994	4,141.11	87.4645	4,141.11	85.4855	4,141.11	85.9729	4,141.11	83.7825	4,141.11	83.8244	4,141.11	82.8454	4,141.11	82.4608	4,141.11	81.3742	4,141.11	80.9439	4,141.11	80.2263	4,141.11	80.2952	4,141.11	77.9879	4,141.11	78.5814	4,141.11	74.9264	4,141.11	75.5195	4,141.11	71.8389	4,141.11	73.5496	4,141.11	71.4483	4,141.11	71.5729	4,141.11	70.5023	4,141.11	71.0685	4,141.11	67.7671	4,141.11	67.9434	4,141.11	70.2006	4,141.11	69.5968	4,141.11	57.0662	4,141.11	61.512	4,141.11	65.2101	4,141.11	65.2541	4,141.11	62.753	4,141.11	67.5341	4,141.11	67.0803	4,141.11	58.1335	4,141.11	65.6846
4,287.6	87.6286	4,287.6	86.6765	4,287.6	87.1788	4,287.6	84.9532	4,287.6	85.5474	4,287.6	83.6285	4,287.6	83.8953	4,287.6	82.6599	4,287.6	82.6158	4,287.6	81.3703	4,287.6	81.5843	4,287.6	80.0249	4,287.6	80.6817	4,287.6	78.1317	4,287.6	78.6175	4,287.6	75.5792	4,287.6	74.9275	4,287.6	72.2496	4,287.6	73.6107	4,287.6	70.5342	4,287.6	69.052	4,287.6	67.7218	4,287.6	69.1332	4,287.6	65.9969	4,287.6	67.8539	4,287.6	66.8043	4,287.6	68.1231	4,287.6	62.6463	4,287.6	62.8016	4,287.6	65.4664	4,287.6	68.6096	4,287.6	64.8704	4,287.6	64.4069	4,287.6	62.3446	4,287.6	64.3274	4,287.6	63.2398
4,438.48	87.527	4,438.48	86.5855	4,438.48	86.8519	4,438.48	84.2568	4,438.48	85.2495	4,438.48	83.7486	4,438.48	83.5481	4,438.48	82.7238	4,438.48	82.9492	4,438.48	81.6237	4,438.48	82.7982	4,438.48	79.4011	4,438.48	80.1696	4,438.48	77.1276	4,438.48	78.4181	4,438.48	74.0538	4,438.48	75.4019	4,438.48	73.2035	4,438.48	72.4771	4,438.48	70.448	4,438.48	70.3375	4,438.48	68.4669	4,438.48	70.6763	4,438.48	65.3844	4,438.48	61.751	4,438.48	65.5325	4,438.48	65.6168	4,438.48	60.375	4,438.48	51.4535	4,438.48	64.1649	4,438.48	65.4494	4,438.48	61.9998	4,438.48	67.2348	4,438.48	66.6602	4,438.48	48.7733	4,438.48	57.2307
4,595.21	87.5566	4,595.21	86.7131	4,595.21	87.2496	4,595.21	85.1419	4,595.21	85.8906	4,595.21	84.2671	4,595.21	84.3536	4,595.21	82.9851	4,595.21	83.2461	4,595.21	82.1532	4,595.21	82.643	4,595.21	80.376	4,595.21	80.8696	4,595.21	77.441	4,595.21	77.5956	4,595.21	74.749	4,595.21	75.4025	4,595.21	70.858	4,595.21	72.3446	4,595.21	67.7575	4,595.21	69.6604	4,595.21	69.7205	4,595.21	67.0774	4,595.21	65.6394	4,595.21	63.1299	4,595.21	69.4013	4,595.21	69.4432	4,595.21	54.0854	4,595.21	57.1856	4,595.21	65.7086	4,595.21	61.5495	4,595.21	63.5414	4,595.21	64.517	4,595.21	61.209	4,595.21	63.1897	4,595.21	66.3102
4,756.35	87.4459	4,756.35	86.25	4,756.35	86.7192	4,756.35	85.0973	4,756.35	85.6989	4,756.35	83.7868	4,756.35	84.056	4,756.35	83.1179	4,756.35	83.1602	4,756.35	81.7337	4,756.35	81.179	4,756.35	79.7737	4,756.35	80.4763	4,756.35	77.1531	4,756.35	77.9343	4,756.35	74.543	4,756.35	74.3948	4,756.35	72.2881	4,756.35	70.9887	4,756.35	70.0317	4,756.35	69.9078	4,756.35	71.0745	4,756.35	68.706	4,756.35	67.6295	4,756.35	67.1696	4,756.35	64.1164	4,756.35	65.1609	4,756.35	59.0313	4,756.35	56.8324	4,756.35	62.8134	4,756.35	63.4268	4,756.35	62.1537	4,756.35	64.3358	4,756.35	68.9264	4,756.35	54.0672	4,756.35	55.459
4,924.8	88.0972	4,924.8	87.0856	4,924.8	87.5575	4,924.8	85.843	4,924.8	85.9311	4,924.8	84.6004	4,924.8	84.8323	4,924.8	83.8512	4,924.8	83.6538	4,924.8	81.5337	4,924.8	82.1682	4,924.8	80.1333	4,924.8	79.9708	4,924.8	77.5083	4,924.8	77.758	4,924.8	75.0502	4,924.8	74.6343	4,924.8	72.7913	4,924.8	71.3267	4,924.8	69.9038	4,924.8	67.8183	4,924.8	69.0015	4,924.8	69.2854	4,924.8	64.423	4,924.8	66.7237	4,924.8	67.1331	4,924.8	67.0371	4,924.8	64.4722	4,924.8	42.9117	4,924.8	60.0998	4,924.8	65.5075	4,924.8	63.4028	4,924.8	64.4626	4,924.8	62.5769	4,924.8	54.0201	4,924.8	65.3373
5,097.66	87.6224	5,097.66	86.3493	5,097.66	87.2157	5,097.66	84.7049	5,097.66	85.4135	5,097.66	83.8161	5,097.66	83.7879	5,097.66	83.1872	5,097.66	83.1037	5,097.66	80.9136	5,097.66	81.3933	5,097.66	78.6823	5,097.66	79.626	5,097.66	76.8072	5,097.66	77.9375	5,097.66	74.2026	5,097.66	74.2564	5,097.66	71.2456	5,097.66	72.5183	5,097.66	70.032	5,097.66	67.8513	5,097.66	68.782	5,097.66	68.5447	5,097.66	64.567	5,097.66	65.9051	5,097.66	63.5395	5,097.66	67.9505	5,097.66	62.4177	5,097.66	56.6865	5,097.66	65.0802	5,097.66	63.2025	5,097.66	49.7345	5,097.66	64.8042	5,097.66	65.5545	5,097.66	56.3403	5,097.66	57.3791
5,277.83	88.217	5,277.83	87.4314	5,277.83	87.6637	5,277.83	85.7146	5,277.83	86.2487	5,277.83	84.3157	5,277.83	84.6679	5,277.83	83.3607	5,277.83	83.3028	5,277.83	81.9394	5,277.83	82.358	5,277.83	79.8894	5,277.83	80.2838	5,277.83	77.2038	5,277.83	78.4892	5,277.83	74.7882	5,277.83	74.9535	5,277.83	71.1473	5,277.83	72.5572	5,277.83	69.5193	5,277.83	68.4546	5,277.83	67.5806	5,277.83	69.2807	5,277.83	66.7676	5,277.83	65.4419	5,277.83	64.6406	5,277.83	67.7484	5,277.83	60.2764	5,277.83	50.9681	5,277.83	66.2262	5,277.83	62.7087	5,277.83	61.1738	5,277.83	57.9361	5,277.83	65.2901	5,277.83	50.6225	5,277.83	61.7355
5,463.87	87.7521	5,463.87	86.6875	5,463.87	87.2743	5,463.87	85.0496	5,463.87	86.0697	5,463.87	83.8262	5,463.87	84.3978	5,463.87	82.554	5,463.87	83.1388	5,463.87	81.1254	5,463.87	81.5427	5,463.87	79.3458	5,463.87	79.9891	5,463.87	76.8625	5,463.87	77.3637	5,463.87	74.3888	5,463.87	74.9482	5,463.87	69.7869	5,463.87	71.0765	5,463.87	66.9781	5,463.87	68.7153	5,463.87	67.8468	5,463.87	69.1183	5,463.87	62.4391	5,463.87	65.3792	5,463.87	65.3027	5,463.87	66.4454	5,463.87	63.0672	5,463.87	50.2101	5,463.87	62.9562	5,463.87	62.2561	5,463.87	53.9395	5,463.87	62.8453	5,463.87	55.086	5,463.87	60.485	5,463.87	59.9709
5,657.23	87.0201	5,657.23	86.408	5,657.23	86.7063	5,657.23	84.7071	5,657.23	85.9504	5,657.23	83.3848	5,657.23	84.0524	5,657.23	82.1782	5,657.23	82.4555	5,657.23	80.9114	5,657.23	81.6434	5,657.23	78.5851	5,657.23	80.017	5,657.23	76.9971	5,657.23	77.677	5,657.23	72.8627	5,657.23	74.7141	5,657.23	70.7876	5,657.23	72.4601	5,657.23	68.8065	5,657.23	65.9525	5,657.23	67.0945	5,657.23	67.598	5,657.23	66.3991	5,657.23	64.7908	5,657.23	63.9589	5,657.23	63.4604	5,657.23	62.1651	5,657.23	63.036	5,657.23	64.3808	5,657.23	63.5536	5,657.23	56.7152	5,657.23	59.5472	5,657.23	61.638	5,657.23	64.176	5,657.23	58.9125
5,856.45	86.8746	5,856.45	86.3086	5,856.45	86.6072	5,856.45	84.9625	5,856.45	86.1684	5,856.45	83.2522	5,856.45	84.1784	5,856.45	82.4192	5,856.45	83.0378	5,856.45	81.1766	5,856.45	81.9181	5,856.45	79.636	5,856.45	80.3763	5,856.45	77.1168	5,856.45	78.2667	5,856.45	74.7716	5,856.45	74.5139	5,856.45	70.5985	5,856.45	72.1781	5,856.45	69.4448	5,856.45	66.244	5,856.45	65.864	5,856.45	66.8618	5,856.45	67.2306	5,856.45	65.6637	5,856.45	65.1712	5,856.45	66.8746	5,856.45	61.5501	5,856.45	57.3279	5,856.45	64.3173	5,856.45	64.315	5,856.45	58.4516	5,856.45	61.7186	5,856.45	67.1176	5,856.45	61.6613	5,856.45	58.6618
6,062.99	86.3399	6,062.99	86.2037	6,062.99	86.3774	6,062.99	85.275	6,062.99	86.1613	6,062.99	83.3558	6,062.99	84.3012	6,062.99	82.7314	6,062.99	83.1883	6,062.99	81.3677	6,062.99	81.8556	6,062.99	79.0684	6,062.99	79.9145	6,062.99	76.696	6,062.99	77.2213	6,062.99	73.1987	6,062.99	73.4062	6,062.99	69.7136	6,062.99	70.8642	6,062.99	68.3692	6,062.99	67.3629	6,062.99	64.7203	6,062.99	65.5216	6,062.99	65.0939	6,062.99	64.7312	6,062.99	62.4319	6,062.99	66.6181	6,062.99	64.043	6,062.99	60.6973	6,062.99	64.5971	6,062.99	63.6966	6,062.99	61.247	6,062.99	65.2716	6,062.99	65.5689	6,062.99	53.1318	6,062.99	54.4384
6,276.86	86.3605	6,276.86	86.7757	6,276.86	86.5964	6,276.86	85.4612	6,276.86	86.6964	6,276.86	83.982	6,276.86	84.656	6,276.86	83.1218	6,276.86	83.1702	6,276.86	81.7945	6,276.86	82.2296	6,276.86	79.4449	6,276.86	80.599	6,276.86	76.4851	6,276.86	77.8105	6,276.86	73.6817	6,276.86	74.9701	6,276.86	70.3999	6,276.86	71.5283	6,276.86	69.0756	6,276.86	70.2206	6,276.86	66.2158	6,276.86	65.8934	6,276.86	64.7104	6,276.86	66.1533	6,276.86	61.9709	6,276.86	63.3305	6,276.86	65.6084	6,276.86	63.9662	6,276.86	64.7636	6,276.86	63.5402	6,276.86	62.0126	6,276.86	65.4818	6,276.86	60.6801	6,276.86	58.8754	6,276.86	55.2632
6,498.05	86.3956	6,498.05	86.5816	6,498.05	87.0141	6,498.05	85.6838	6,498.05	86.8096	6,498.05	83.673	6,498.05	84.3834	6,498.05	82.7749	6,498.05	83.392	6,498.05	81.3126	6,498.05	82.6358	6,498.05	79.1943	6,498.05	80.3476	6,498.05	75.5732	6,498.05	77.7774	6,498.05	74.1442	6,498.05	74.6976	6,498.05	71.1557	6,498.05	71.6952	6,498.05	68.7056	6,498.05	70.0549	6,498.05	66.8972	6,498.05	65.0609	6,498.05	64.5614	6,498.05	65.384	6,498.05	62.6586	6,498.05	66.1458	6,498.05	63.076	6,498.05	61.6348	6,498.05	61.0277	6,498.05	60.5695	6,498.05	64.4221	6,498.05	63.8113	6,498.05	57.382	6,498.05	61.4684	6,498.05	57.4699
6,726.56	86.6069	6,726.56	86.8796	6,726.56	87.072	6,726.56	86.0472	6,726.56	86.9774	6,726.56	83.9651	6,726.56	84.7936	6,726.56	83.1636	6,726.56	83.3402	6,726.56	81.2628	6,726.56	82.431	6,726.56	79.1263	6,726.56	80.2474	6,726.56	76.3147	6,726.56	77.644	6,726.56	73.89	6,726.56	74.7531	6,726.56	71.5339	6,726.56	72.3031	6,726.56	68.5925	6,726.56	69.3975	6,726.56	64.7866	6,726.56	67.2083	6,726.56	65.0309	6,726.56	65.1863	6,726.56	63.1491	6,726.56	65.7539	6,726.56	60.6037	6,726.56	61.372	6,726.56	62.9974	6,726.56	64.3289	6,726.56	62.4146	6,726.56	65.9501	6,726.56	60.5981	6,726.56	59.5772	6,726.56	52.5145
6,963.87	87.2737	6,963.87	87.5623	6,963.87	87.6928	6,963.87	86.4077	6,963.87	87.5953	6,963.87	84.6763	6,963.87	85.3786	6,963.87	83.3149	6,963.87	83.9088	6,963.87	81.1854	6,963.87	82.7969	6,963.87	79.1075	6,963.87	80.5567	6,963.87	76.3178	6,963.87	78.0643	6,963.87	74.1916	6,963.87	75.0072	6,963.87	70.9409	6,963.87	72.8263	6,963.87	68.2448	6,963.87	69.2601	6,963.87	66.5124	6,963.87	66.766	6,963.87	64.0373	6,963.87	66.0611	6,963.87	61.7808	6,963.87	65.9864	6,963.87	62.7174	6,963.87	62.9145	6,963.87	60.391	6,963.87	63.0867	6,963.87	63.5262	6,963.87	64.2806	6,963.87	49.8699	6,963.87	61.5594	6,963.87	56.4648
7,209.96	87.7758	7,209.96	87.4678	7,209.96	88.0074	7,209.96	86.5865	7,209.96	87.4728	7,209.96	84.5387	7,209.96	85.5264	7,209.96	82.879	7,209.96	83.5106	7,209.96	80.697	7,209.96	81.8983	7,209.96	78.7154	7,209.96	80.3702	7,209.96	76.1859	7,209.96	78.4421	7,209.96	74.1579	7,209.96	75.0772	7,209.96	71.2958	7,209.96	73.1288	7,209.96	68.0301	7,209.96	70.2996	7,209.96	65.9206	7,209.96	67.1784	7,209.96	64.1705	7,209.96	64.8285	7,209.96	62.1999	7,209.96	63.3845	7,209.96	63.096	7,209.96	62.862	7,209.96	59.9595	7,209.96	61.3281	7,209.96	59.0229	7,209.96	62.985	7,209.96	60.7337	7,209.96	58.3811	7,209.96	52.4706
7,464.84	87.5118	7,464.84	87.318	7,464.84	87.5842	7,464.84	86.368	7,464.84	87.2292	7,464.84	84.4352	7,464.84	85.1416	7,464.84	82.1588	7,464.84	82.996	7,464.84	80.534	7,464.84	80.978	7,464.84	78.5385	7,464.84	79.7725	7,464.84	76.0114	7,464.84	78.4708	7,464.84	73.4347	7,464.84	75.8925	7,464.84	69.6232	7,464.84	72.1429	7,464.84	68.6374	7,464.84	69.9329	7,464.84	64.3857	7,464.84	66.6095	7,464.84	60.7093	7,464.84	65.3399	7,464.84	61.8297	7,464.84	60.7366	7,464.84	64.1325	7,464.84	64.4699	7,464.84	59.8033	7,464.84	58.5237	7,464.84	57.3599	7,464.84	59.4877	7,464.84	57.9836	7,464.84	60.9564	7,464.84	60.136
7,727.05	87.7914	7,727.05	87.2809	7,727.05	87.5302	7,727.05	86.5346	7,727.05	87.1029	7,727.05	84.1374	7,727.05	84.8537	7,727.05	81.2648	7,727.05	82.1576	7,727.05	79.9355	7,727.05	80.8504	7,727.05	79.0648	7,727.05	79.9092	7,727.05	75.9794	7,727.05	78.0449	7,727.05	72.7972	7,727.05	74.3327	7,727.05	69.6196	7,727.05	71.8244	7,727.05	66.0949	7,727.05	66.9138	7,727.05	65.5228	7,727.05	64.5457	7,727.05	61.3106	7,727.05	64.2926	7,727.05	62.2542	7,727.05	63.6902	7,727.05	58.5055	7,727.05	62.2165	7,727.05	54.681	7,727.05	63.1558	7,727.05	63.0417	7,727.05	61.4634	7,727.05	53.7139	7,727.05	55.3633	7,727.05	43.7277
7,999.51	87.838	7,999.51	87.2469	7,999.51	87.3501	7,999.51	86.5758	7,999.51	86.9842	7,999.51	83.932	7,999.51	84.7214	7,999.51	81.396	7,999.51	81.4424	7,999.51	79.6902	7,999.51	80.7642	7,999.51	78.3783	7,999.51	80.1499	7,999.51	75.6627	7,999.51	77.7983	7,999.51	73.3207	7,999.51	74.1124	7,999.51	70.0343	7,999.51	71.9031	7,999.51	67.9206	7,999.51	68.2608	7,999.51	63.7113	7,999.51	65.1553	7,999.51	62.449	7,999.51	62.6803	7,999.51	63.896	7,999.51	61.4976	7,999.51	60.6869	7,999.51	61.0749	7,999.51	59.6115	7,999.51	56.6837	7,999.51	58.9459	7,999.51	62.7753	7,999.51	52.7996	7,999.51	55.5094	7,999.51	52.37
8,282.23	88.2714	8,282.23	87.2672	8,282.23	87.6656	8,282.23	86.6993	8,282.23	86.8301	8,282.23	83.7364	8,282.23	84.9134	8,282.23	80.926	8,282.23	82.009	8,282.23	80.4502	8,282.23	80.8341	8,282.23	78.3641	8,282.23	79.8211	8,282.23	76.1526	8,282.23	77.8793	8,282.23	73.7565	8,282.23	74.3945	8,282.23	69.7543	8,282.23	71.9198	8,282.23	67.2859	8,282.23	68.362	8,282.23	65.4212	8,282.23	65.1311	8,282.23	63.5765	8,282.23	62.6187	8,282.23	58.4821	8,282.23	61.766	8,282.23	58.0807	8,282.23	58.3032	8,282.23	56.96	8,282.23	60.5548	8,282.23	60.783	8,282.23	62.094	8,282.23	57.8006	8,282.23	53.0841	8,282.23	40.3519
8,573.73	88.5676	8,573.73	87.4296	8,573.73	87.9004	8,573.73	86.4593	8,573.73	87.1758	8,573.73	83.4257	8,573.73	84.8704	8,573.73	81.4133	8,573.73	82.2015	8,573.73	80.6286	8,573.73	80.8493	8,573.73	79.0695	8,573.73	79.9524	8,573.73	76.8415	8,573.73	78.2585	8,573.73	73.291	8,573.73	74.3604	8,573.73	69.5511	8,573.73	71.8465	8,573.73	66.1632	8,573.73	66.9587	8,573.73	60.1306	8,573.73	64.8137	8,573.73	62.1909	8,573.73	64.0179	8,573.73	61.2324	8,573.73	57.5911	8,573.73	57.3397	8,573.73	60.8735	8,573.73	50.418	8,573.73	60.7491	8,573.73	59.9702	8,573.73	53.8984	8,573.73	59.1142	8,573.73	55.9907	8,573.73	54.9572
8,876.95	88.782	8,876.95	87.7153	8,876.95	88.146	8,876.95	86.1223	8,876.95	87.4781	8,876.95	83.388	8,876.95	84.9977	8,876.95	81.8454	8,876.95	82.8314	8,876.95	80.8488	8,876.95	81.577	8,876.95	79.1228	8,876.95	80.0192	8,876.95	76.519	8,876.95	77.8855	8,876.95	73.5596	8,876.95	73.676	8,876.95	69.3742	8,876.95	70.8777	8,876.95	66.3163	8,876.95	67.3101	8,876.95	64.1467	8,876.95	64.8798	8,876.95	58.1198	8,876.95	60.7775	8,876.95	61.4564	8,876.95	57.9345	8,876.95	56.8664	8,876.95	62.1613	8,876.95	57.2221	8,876.95	56.4965	8,876.95	57.9362	8,876.95	60.5061	8,876.95	51.6615	8,876.95	58.3091	8,876.95	54.7002
9,188.96	88.7602	9,188.96	87.4789	9,188.96	88.1984	9,188.96	86.031	9,188.96	87.4447	9,188.96	83.912	9,188.96	85.0205	9,188.96	82.2634	9,188.96	83.2693	9,188.96	81.1306	9,188.96	81.684	9,188.96	79.2267	9,188.96	79.9111	9,188.96	75.8157	9,188.96	77.1957	9,188.96	72.2295	9,188.96	72.6549	9,188.96	67.9117	9,188.96	68.6674	9,188.96	63.5736	9,188.96	65.42	9,188.96	63.1093	9,188.96	61.9695	9,188.96	57.3852	9,188.96	59.1489	9,188.96	61.303	9,188.96	59.9206	9,188.96	60.5855	9,188.96	58.2673	9,188.96	61.6736	9,188.96	54.9438	9,188.96	58.8959	9,188.96	62.7912	9,188.96	53.5589	9,188.96	61.3351	9,188.96	52.865
9,514.16	88.4737	9,514.16	87.4325	9,514.16	88.2716	9,514.16	85.8022	9,514.16	87.2655	9,514.16	83.9154	9,514.16	85.1901	9,514.16	81.9666	9,514.16	83.1663	9,514.16	80.6941	9,514.16	81.5104	9,514.16	78.3184	9,514.16	79.7776	9,514.16	73.9559	9,514.16	76.5417	9,514.16	70.7545	9,514.16	71.8652	9,514.16	66.0682	9,514.16	69.3174	9,514.16	64.7924	9,514.16	65.7247	9,514.16	62.1264	9,514.16	63.0241	9,514.16	55.4025	9,514.16	58.7846	9,514.16	57.8321	9,514.16	57.0941	9,514.16	59.9299	9,514.16	60.5474	9,514.16	58.2225	9,514.16	56.7962	9,514.16	54.8446	9,514.16	63.5676	9,514.16	51.9085	9,514.16	53.3751	9,514.16	48.3976
9,849.61	88.2514	9,849.61	87.1326	9,849.61	88.0804	9,849.61	85.4371	9,849.61	86.8037	9,849.61	83.8475	9,849.61	85.0248	9,849.61	81.8564	9,849.61	83.0848	9,849.61	80.6566	9,849.61	81.5124	9,849.61	77.3302	9,849.61	79.3566	9,849.61	73.2021	9,849.61	76.2283	9,849.61	70.9371	9,849.61	72.0844	9,849.61	67.2754	9,849.61	69.5665	9,849.61	63.923	9,849.61	66.839	9,849.61	64.0282	9,849.61	63.9807	9,849.61	57.8344	9,849.61	62.3492	9,849.61	56.9831	9,849.61	58.2039	9,849.61	55.5947	9,849.61	61.4517	9,849.61	59.4404	9,849.61	51.9667	9,849.61	60.251	9,849.61	58.6641	9,849.61	54.4315	9,849.61	58.5458	9,849.61	51.3051
10,196.8	88.0897	10,196.8	87.1046	10,196.8	87.9974	10,196.8	85.1676	10,196.8	86.5739	10,196.8	84.0383	10,196.8	85.1947	10,196.8	81.7636	10,196.8	82.8773	10,196.8	80.1074	10,196.8	81.4963	10,196.8	76.915	10,196.8	79.2152	10,196.8	73.7425	10,196.8	76.5622	10,196.8	71.7337	10,196.8	73.105	10,196.8	67.7429	10,196.8	69.6681	10,196.8	64.3989	10,196.8	67.2225	10,196.8	64.0641	10,196.8	63.1376	10,196.8	58.8353	10,196.8	61.7583	10,196.8	55.1013	10,196.8	59.5558	10,196.8	57.8009	10,196.8	61.9087	10,196.8	54.7838	10,196.8	57.0837	10,196.8	51.7381	10,196.8	54.9597	10,196.8	57.489	10,196.8	51.3554	10,196.8	50.3077
10,555.7	87.7816	10,555.7	86.9407	10,555.7	87.8844	10,555.7	85.3624	10,555.7	86.4451	10,555.7	84.0353	10,555.7	85.0691	10,555.7	81.6878	10,555.7	82.9532	10,555.7	79.5678	10,555.7	81.0444	10,555.7	77.3312	10,555.7	78.5495	10,555.7	75.2025	10,555.7	76.8304	10,555.7	72.453	10,555.7	73.369	10,555.7	68.8759	10,555.7	69.9281	10,555.7	65.7334	10,555.7	67.3229	10,555.7	60.1251	10,555.7	62.1196	10,555.7	59.8614	10,555.7	62.8877	10,555.7	61.0917	10,555.7	60.8552	10,555.7	57.4045	10,555.7	58.6481	10,555.7	58.4708	10,555.7	60.1407	10,555.7	53.6967	10,555.7	58.2881	10,555.7	51.8198	10,555.7	59.9726	10,555.7	51.5201
10,927.7	87.424	10,927.7	86.4386	10,927.7	87.5705	10,927.7	85.1255	10,927.7	85.8379	10,927.7	83.8754	10,927.7	84.8167	10,927.7	81.6279	10,927.7	83.081	10,927.7	78.6472	10,927.7	80.3077	10,927.7	77.8251	10,927.7	77.9922	10,927.7	75.2458	10,927.7	77.2882	10,927.7	72.4749	10,927.7	74.0845	10,927.7	68.2105	10,927.7	70.3912	10,927.7	66.091	10,927.7	66.9362	10,927.7	64.1385	10,927.7	62.9152	10,927.7	60.1354	10,927.7	61.2955	10,927.7	62.6096	10,927.7	61.0093	10,927.7	55.9683	10,927.7	56.7178	10,927.7	60.7186	10,927.7	54.4512	10,927.7	62.9132	10,927.7	54.555	10,927.7	54.547	10,927.7	56.7817	10,927.7	48.8822
11,313	87.0254	11,313	86.0457	11,313	86.9091	11,313	84.922	11,313	85.715	11,313	84.0218	11,313	84.8215	11,313	81.6136	11,313	83.0364	11,313	79.0845	11,313	79.9825	11,313	78.1801	11,313	78.131	11,313	76.0133	11,313	77.4197	11,313	73.0698	11,313	73.6495	11,313	68.6622	11,313	70.1693	11,313	65.9255	11,313	67.0264	11,313	64.343	11,313	64.3067	11,313	61.5709	11,313	62.7622	11,313	58.2382	11,313	59.6212	11,313	59.6697	11,313	58.245	11,313	57.4834	11,313	58.2061	11,313	52.3397	11,313	56.9997	11,313	52.8077	11,313	59.104	11,313	53.5957
11,712.9	86.5343	11,712.9	85.9542	11,712.9	86.3792	11,712.9	84.9783	11,712.9	85.7431	11,712.9	84.1974	11,712.9	84.6392	11,712.9	81.3572	11,712.9	82.9271	11,712.9	79.3224	11,712.9	79.5421	11,712.9	77.8181	11,712.9	77.8308	11,712.9	76.0202	11,712.9	76.7443	11,712.9	73.116	11,712.9	73.9906	11,712.9	67.7086	11,712.9	70.5872	11,712.9	66.9366	11,712.9	65.2185	11,712.9	61.7503	11,712.9	62.836	11,712.9	61.0236	11,712.9	59.4831	11,712.9	59.7188	11,712.9	60.8427	11,712.9	57.7657	11,712.9	54.285	11,712.9	57.0303	11,712.9	51.7356	11,712.9	58.2889	11,712.9	53.215	11,712.9	54.044	11,712.9	52.6496	11,712.9	48.0381
12,126	86.1757	12,126	85.7933	12,126	85.8687	12,126	85.0851	12,126	85.6577	12,126	84.0577	12,126	84.6557	12,126	81.1335	12,126	82.2938	12,126	79.1742	12,126	79.734	12,126	77.3763	12,126	77.4241	12,126	75.1456	12,126	76.3632	12,126	72.3481	12,126	73.0851	12,126	67.6949	12,126	67.8267	12,126	64.2775	12,126	64.3149	12,126	63.5533	12,126	62.5795	12,126	58.7261	12,126	60.4729	12,126	59.7501	12,126	55.7842	12,126	50.056	12,126	52.638	12,126	54.1753	12,126	56.722	12,126	50.6755	12,126	45.0191	12,126	46.7308	12,126	46.5677	12,126	50.894
12,553.7	86.0754	12,553.7	85.8341	12,553.7	85.8903	12,553.7	85.5026	12,553.7	85.7727	12,553.7	84.0053	12,553.7	84.5591	12,553.7	81.1346	12,553.7	81.9288	12,553.7	78.9212	12,553.7	79.6138	12,553.7	77.0511	12,553.7	76.968	12,553.7	74.3902	12,553.7	75.5464	12,553.7	71.2545	12,553.7	72.4107	12,553.7	65.5576	12,553.7	67.6691	12,553.7	61.8586	12,553.7	62.7327	12,553.7	62.0543	12,553.7	59.535	12,553.7	57.293	12,553.7	57.8174	12,553.7	55.5128	12,553.7	53.3703	12,553.7	46.8231	12,553.7	59.5759	12,553.7	46.9659	12,553.7	56.3942	12,553.7	49.339	12,553.7	47.9654	12,553.7	51.5575	12,553.7	47.5732	12,553.7	55.178
12,996.1	85.8464	12,996.1	85.7781	12,996.1	85.7194	12,996.1	85.5512	12,996.1	85.7842	12,996.1	83.4532	12,996.1	84.1839	12,996.1	80.6201	12,996.1	81.6145	12,996.1	78.5213	12,996.1	79.212	12,996.1	76.1984	12,996.1	76.13	12,996.1	72.7036	12,996.1	73.6114	12,996.1	69.1397	12,996.1	69.818	12,996.1	63.626	12,996.1	65.3239	12,996.1	60.9427	12,996.1	61.1969	12,996.1	60.2331	12,996.1	60.0552	12,996.1	53.9723	12,996.1	55.215	12,996.1	51.2577	12,996.1	51.7871	12,996.1	47.5664	12,996.1	56.8044	12,996.1	50.4031	12,996.1	58.6178	12,996.1	48.5862	12,996.1	54.5363	12,996.1	43.3426	12,996.1	50.874	12,996.1	53.6974
13,454.6	85.7126	13,454.6	85.7109	13,454.6	85.6549	13,454.6	85.5396	13,454.6	85.4802	13,454.6	83.2276	13,454.6	83.7351	13,454.6	80.6946	13,454.6	81.2556	13,454.6	78.7013	13,454.6	78.7453	13,454.6	75.2916	13,454.6	75.3423	13,454.6	71.1016	13,454.6	71.7777	13,454.6	68.6628	13,454.6	69.2202	13,454.6	63.5698	13,454.6	64.5598	13,454.6	60.374	13,454.6	59.2248	13,454.6	60.6604	13,454.6	58.9703	13,454.6	50.9739	13,454.6	53.4368	13,454.6	54.9347	13,454.6	50.8645	13,454.6	55.3374	13,454.6	47.3513	13,454.6	49.6957	13,454.6	58.9326	13,454.6	44.7041	13,454.6	50.5065	13,454.6	51.5906	13,454.6	52.6306	13,454.6	48.5715
13,929.2	85.4577	13,929.2	85.5712	13,929.2	85.524	13,929.2	85.5303	13,929.2	85.5589	13,929.2	83.0509	13,929.2	83.8437	13,929.2	80.8062	13,929.2	81.3704	13,929.2	78.7721	13,929.2	79.0589	13,929.2	74.4203	13,929.2	74.9264	13,929.2	70.5225	13,929.2	71.9575	13,929.2	68.063	13,929.2	69.2518	13,929.2	63.389	13,929.2	63.9408	13,929.2	59.3612	13,929.2	57.6835	13,929.2	59.9024	13,929.2	56.5683	13,929.2	54.8155	13,929.2	53.8944	13,929.2	50.9451	13,929.2	48.785	13,929.2	56.7744	13,929.2	50.1438	13,929.2	40.1928	13,929.2	50.0339	13,929.2	49.2881	13,929.2	51.4395	13,929.2	41.5223	13,929.2	49.7336	13,929.2	54.9106
14,419.9	84.5378	14,419.9	84.9627	14,419.9	84.7785	14,419.9	84.9822	14,419.9	85.1598	14,419.9	82.5496	14,419.9	83.4021	14,419.9	80.7204	14,419.9	81.1384	14,419.9	78.1511	14,419.9	78.831	14,419.9	73.2304	14,419.9	73.6245	14,419.9	69.5368	14,419.9	70.5788	14,419.9	68.5249	14,419.9	68.4867	14,419.9	64.7904	14,419.9	64.0958	14,419.9	59.9315	14,419.9	60.2179	14,419.9	59.0538	14,419.9	57.5671	14,419.9	51.8788	14,419.9	53.9694	14,419.9	53.8132	14,419.9	51.7836	14,419.9	46.1556	14,419.9	56.7899	14,419.9	53.4344	14,419.9	53.7841	14,419.9	49.3498	14,419.9	50.1845	14,419.9	50.0489	14,419.9	48.1111	14,419.9	52.3987
14,928.2	83.7922	14,928.2	84.307	14,928.2	83.9786	14,928.2	84.2358	14,928.2	84.4987	14,928.2	81.9592	14,928.2	82.8755	14,928.2	80.2379	14,928.2	80.8273	14,928.2	76.5555	14,928.2	77.6541	14,928.2	72.0743	14,928.2	72.106	14,928.2	69.689	14,928.2	69.3064	14,928.2	68.7597	14,928.2	68.8611	14,928.2	64.3971	14,928.2	64.943	14,928.2	57.2946	14,928.2	59.7028	14,928.2	60.1378	14,928.2	57.0411	14,928.2	54.3802	14,928.2	54.1571	14,928.2	52.898	14,928.2	53.8988	14,928.2	55.0172	14,928.2	45.8708	14,928.2	44.9416	14,928.2	53.8523	14,928.2	50.7118	14,928.2	53.9231	14,928.2	48.0218	14,928.2	52.907	14,928.2	55.0002
15,455.6	83.5764	15,455.6	83.9473	15,455.6	83.5942	15,455.6	83.5019	15,455.6	83.8151	15,455.6	81.475	15,455.6	82.2898	15,455.6	79.3107	15,455.6	80.4122	15,455.6	74.6734	15,455.6	76.751	15,455.6	70.743	15,455.6	70.5492	15,455.6	68.8463	15,455.6	68.1414	15,455.6	66.6191	15,455.6	67.825	15,455.6	60.8972	15,455.6	62.1087	15,455.6	54.9632	15,455.6	56.2955	15,455.6	56.7454	15,455.6	54.9312	15,455.6	49.4407	15,455.6	51.057	15,455.6	54.7133	15,455.6	55.3724	15,455.6	53.0723	15,455.6	37.7263	15,455.6	42.7225	15,455.6	52.7079	15,455.6	42.7779	15,455.6	52.3124	15,455.6	49.6196	15,455.6	50.3024	15,455.6	56.5318
16,000.5	83.6135	16,000.5	83.8701	16,000.5	83.4138	16,000.5	82.8752	16,000.5	83.1124	16,000.5	80.848	16,000.5	81.4135	16,000.5	77.9859	16,000.5	79.0833	16,000.5	73.6707	16,000.5	74.5533	16,000.5	69.7907	16,000.5	68.6215	16,000.5	66.8151	16,000.5	66.7507	16,000.5	65.2268	16,000.5	66.3	16,000.5	60.2895	16,000.5	60.4453	16,000.5	52.3047	16,000.5	54.4611	16,000.5	55.1323	16,000.5	51.7626	16,000.5	44.5891	16,000.5	49.1667	16,000.5	54.8372	16,000.5	54.0832	16,000.5	50.7801	16,000.5	42.8587	16,000.5	44.1848	16,000.5	48.9254	16,000.5	37.6699	16,000.5	49.7937	16,000.5	54.4591	16,000.5	54.0321	16,000.5	59.3048
16,564.5	83.7964	16,564.5	83.843	16,564.5	83.6402	16,564.5	82.3055	16,564.5	82.5678	16,564.5	79.868	16,564.5	80.5648	16,564.5	76.4692	16,564.5	77.5355	16,564.5	71.8473	16,564.5	72.9929	16,564.5	68.036	16,564.5	67.7948	16,564.5	65.1914	16,564.5	64.4419	16,564.5	63.8089	16,564.5	62.2856	16,564.5	58.6191	16,564.5	59.2388	16,564.5	38.7816	16,564.5	53.3942	16,564.5	51.737	16,564.5	41.2846	16,564.5	49.835	16,564.5	50.1002	16,564.5	53.3373	16,564.5	53.2786	16,564.5	41.8239	16,564.5	43.1675	16,564.5	50.1109	16,564.5	50.5322	16,564.5	46.0842	16,564.5	45.8269	16,564.5	55.0397	16,564.5	52.1675	16,564.5	59.7478
17,148.9	84.5928	17,148.9	84.4139	17,148.9	84.5596	17,148.9	82.3607	17,148.9	82.7472	17,148.9	79.3781	17,148.9	80.2847	17,148.9	74.8868	17,148.9	76.301	17,148.9	70.6574	17,148.9	71.104	17,148.9	65.8373	17,148.9	65.9976	17,148.9	61.2159	17,148.9	62.5039	17,148.9	59.7668	17,148.9	60.9436	17,148.9	55.4574	17,148.9	56.9612	17,148.9	43.835	17,148.9	52.2606	17,148.9	45.0678	17,148.9	36.4017	17,148.9	48.0803	17,148.9	47.0267	17,148.9	50.0169	17,148.9	48.919	17,148.9	37.0726	17,148.9	49.9133	17,148.9	53.5003	17,148.9	51.0775	17,148.9	50.6353	17,148.9	53.5837	17,148.9	53.1561	17,148.9	54.0473	17,148.9	59.0538
17,752.4	86.117	17,752.4	85.4497	17,752.4	85.869	17,752.4	83.0158	17,752.4	83.4587	17,752.4	78.9579	17,752.4	80.0088	17,752.4	73.2568	17,752.4	75.0697	17,752.4	67.7047	17,752.4	69.3199	17,752.4	63.1399	17,752.4	64.0604	17,752.4	58.0213	17,752.4	61.1709	17,752.4	56.5647	17,752.4	58.8501	17,752.4	51.4595	17,752.4	51.5433	17,752.4	48.9065	17,752.4	49.8835	17,752.4	35.1223	17,752.4	47.2527	17,752.4	45.747	17,752.4	42.7508	17,752.4	45.4912	17,752.4	44.959	17,752.4	34.116	17,752.4	42.5254	17,752.4	47.5153	17,752.4	45.4099	17,752.4	46.9171	17,752.4	40.916	17,752.4	58.5485	17,752.4	53.0526	17,752.4	58.9972
18,379.4	87.2838	18,379.4	86.0894	18,379.4	86.8978	18,379.4	83.2466	18,379.4	83.9936	18,379.4	77.8026	18,379.4	79.0501	18,379.4	70.8259	18,379.4	72.6573	18,379.4	64.3175	18,379.4	65.7644	18,379.4	58.6034	18,379.4	60.4563	18,379.4	52.8737	18,379.4	57.555	18,379.4	45.2223	18,379.4	56.7149	18,379.4	43.576	18,379.4	54.831	18,379.4	45.3561	18,379.4	51.6282	18,379.4	43.0022	18,379.4	49.458	18,379.4	50.6947	18,379.4	48.8871	18,379.4	33.4289	18,379.4	50.8988	18,379.4	46.7618	18,379.4	44.3265	18,379.4	54.3051	18,379.4	50.4985	18,379.4	42.9853	18,379.4	45.5846	18,379.4	42.477	18,379.4	54.8666	18,379.4	57.2538
19,026.9	87.6911	19,026.9	86.0255	19,026.9	86.9029	19,026.9	82.5964	19,026.9	83.8556	19,026.9	75.409	19,026.9	77.5128	19,026.9	66.4537	19,026.9	69.521	19,026.9	60.799	19,026.9	61.1362	19,026.9	55.6823	19,026.9	54.1355	19,026.9	54.9624	19,026.9	55.7169	19,026.9	52.135	19,026.9	60.4395	19,026.9	49.0578	19,026.9	57.9216	19,026.9	47.6258	19,026.9	54.7507	19,026.9	54.2031	19,026.9	54.5454	19,026.9	48.5787	19,026.9	41.0119	19,026.9	46.016	19,026.9	46.939	19,026.9	46.2048	19,026.9	51.4784	19,026.9	47.0532	19,026.9	39.712	19,026.9	49.4443	19,026.9	41.4977	19,026.9	52.484	19,026.9	53.0213	19,026.9	53.569
19,697.8	87.2049	19,697.8	85.1253	19,697.8	86.151	19,697.8	80.8609	19,697.8	82.7632	19,697.8	72.4287	19,697.8	74.4876	19,697.8	62.5436	19,697.8	64.9846	19,697.8	60.4105	19,697.8	58.0152	19,697.8	51.0207	19,697.8	56.6516	19,697.8	55.1863	19,697.8	59.4707	19,697.8	56.9566	19,697.8	63.6106	19,697.8	54.3684	19,697.8	60.2186	19,697.8	54.6806	19,697.8	57.3325	19,697.8	55.672	19,697.8	55.8106	19,697.8	43.5629	19,697.8	35.2565	19,697.8	41.9428	19,697.8	50.7469	19,697.8	51.2606	19,697.8	47.2827	19,697.8	44.1143	19,697.8	48.1156	19,697.8	44.528	19,697.8	41.1716	19,697.8	49.9795	19,697.8	54.2713	19,697.8	54.3478
19,999.5	87.0092	19,999.5	84.7032	19,999.5	85.796	19,999.5	80.6425	19,999.5	82.3815	19,999.5	72.5693	19,999.5	72.8736	19,999.5	62.2354	19,999.5	61.462	19,999.5	59.3429	19,999.5	60.1641	19,999.5	51.1247	19,999.5	58.5061	19,999.5	56.1275	19,999.5	61.9117	19,999.5	55.1118	19,999.5	65.4191	19,999.5	59.1191	19,999.5	58.8451	19,999.5	59.1556	19,999.5	54.1961	19,999.5	55.4876	19,999.5	51.7938	19,999.5	53.2093	19,999.5	54.7814	19,999.5	48.4329	19,999.5	59.3646	19,999.5	48.2062	19,999.5	54.8963	19,999.5	57.6732	19,999.5	57.4454	19,999.5	55.1076	19,999.5	45.4248	19,999.5	45.7652	19,999.5	46.6175	19,999.5	55.3543
