"SPL Vertical"
"On-Axis"		"10°"		"-10°"		"20°"		"-20°"		"30°"		"-30°"		"40°"		"-40°"		"50°"		"-50°"		"60°"		"-60°"		"70°"		"-70°"		"80°"		"-80°"		"90°"		"-90°"		"100°"		"-100°"		"110°"		"-110°"		"120°"		"-120°"		"130°"		"-130°"		"140°"		"-140°"		"150°"		"-150°"		"160°"		"-160°"		"170°"		"-170°"		"180°"
"Frequency / Hz"	"Sound Pressure Level / dB (re 20 µPa/V)  [2.83  V @ 1. m]"	"Frequency / Hz"	"Sound Pressure Level / dB (re 20 µPa/V)  [2.83  V @ 1. m]"	"Frequency / Hz"	"Sound Pressure Level / dB (re 20 µPa/V)  [2.83  V @ 1. m]"	"Frequency / Hz"	"Sound Pressure Level / dB (re 20 µPa/V)  [2.83  V @ 1. m]"	"Frequency / Hz"	"Sound Pressure Level / dB (re 20 µPa/V)  [2.83  V @ 1. m]"	"Frequency / Hz"	"Sound Pressure Level / dB (re 20 µPa/V)  [2.83  V @ 1. m]"	"Frequency / Hz"	"Sound Pressure Level / dB (re 20 µPa/V)  [2.83  V @ 1. m]"	"Frequency / Hz"	"Sound Pressure Level / dB (re 20 µPa/V)  [2.83  V @ 1. m]"	"Frequency / Hz"	"Sound Pressure Level / dB (re 20 µPa/V)  [2.83  V @ 1. m]"	"Frequency / Hz"	"Sound Pressure Level / dB (re 20 µPa/V)  [2.83  V @ 1. m]"	"Frequency / Hz"	"Sound Pressure Level / dB (re 20 µPa/V)  [2.83  V @ 1. m]"	"Frequency / Hz"	"Sound Pressure Level / dB (re 20 µPa/V)  [2.83  V @ 1. m]"	"Frequency / Hz"	"Sound Pressure Level / dB (re 20 µPa/V)  [2.83  V @ 1. m]"	"Frequency / Hz"	"Sound Pressure Level / dB (re 20 µPa/V)  [2.83  V @ 1. m]"	"Frequency / Hz"	"Sound Pressure Level / dB (re 20 µPa/V)  [2.83  V @ 1. m]"	"Frequency / Hz"	"Sound Pressure Level / dB (re 20 µPa/V)  [2.83  V @ 1. m]"	"Frequency / Hz"	"Sound Pressure Level / dB (re 20 µPa/V)  [2.83  V @ 1. m]"	"Frequency / Hz"	"Sound Pressure Level / dB (re 20 µPa/V)  [2.83  V @ 1. m]"	"Frequency / Hz"	"Sound Pressure Level / dB (re 20 µPa/V)  [2.83  V @ 1. m]"	"Frequency / Hz"	"Sound Pressure Level / dB (re 20 µPa/V)  [2.83  V @ 1. m]"	"Frequency / Hz"	"Sound Pressure Level / dB (re 20 µPa/V)  [2.83  V @ 1. m]"	"Frequency / Hz"	"Sound Pressure Level / dB (re 20 µPa/V)  [2.83  V @ 1. m]"	"Frequency / Hz"	"Sound Pressure Level / dB (re 20 µPa/V)  [2.83  V @ 1. m]"	"Frequency / Hz"	"Sound Pressure Level / dB (re 20 µPa/V)  [2.83  V @ 1. m]"	"Frequency / Hz"	"Sound Pressure Level / dB (re 20 µPa/V)  [2.83  V @ 1. m]"	"Frequency / Hz"	"Sound Pressure Level / dB (re 20 µPa/V)  [2.83  V @ 1. m]"	"Frequency / Hz"	"Sound Pressure Level / dB (re 20 µPa/V)  [2.83  V @ 1. m]"	"Frequency / Hz"	"Sound Pressure Level / dB (re 20 µPa/V)  [2.83  V @ 1. m]"	"Frequency / Hz"	"Sound Pressure Level / dB (re 20 µPa/V)  [2.83  V @ 1. m]"	"Frequency / Hz"	"Sound Pressure Level / dB (re 20 µPa/V)  [2.83  V @ 1. m]"	"Frequency / Hz"	"Sound Pressure Level / dB (re 20 µPa/V)  [2.83  V @ 1. m]"	"Frequency / Hz"	"Sound Pressure Level / dB (re 20 µPa/V)  [2.83  V @ 1. m]"	"Frequency / Hz"	"Sound Pressure Level / dB (re 20 µPa/V)  [2.83  V @ 1. m]"	"Frequency / Hz"	"Sound Pressure Level / dB (re 20 µPa/V)  [2.83  V @ 1. m]"	"Frequency / Hz"	"Sound Pressure Level / dB (re 20 µPa/V)  [2.83  V @ 1. m]"	"Frequency / Hz"	"Sound Pressure Level / dB (re 20 µPa/V)  [2.83  V @ 1. m]"
20.5078	55.6955	20.5078	56.9982	20.5078	54.144	20.5078	57.9408	20.5078	53.2097	20.5078	58.5783	20.5078	54.4956	20.5078	58.9733	20.5078	57.4149	20.5078	59.1715	20.5078	60.382	20.5078	59.2012	20.5078	62.8785	20.5078	59.0769	20.5078	64.8469	20.5078	58.8011	20.5078	66.3072	20.5078	58.3661	20.5078	67.2791	20.5078	57.7536	20.5078	67.7752	20.5078	56.9327	20.5078	67.8053	20.5078	55.8586	20.5078	67.3799	20.5078	54.4791	20.5078	66.512	20.5078	52.7894	20.5078	65.2164	20.5078	51.1169	20.5078	63.5054	20.5078	50.7808	20.5078	61.3832	20.5078	52.8363	20.5078	58.8443	20.5078	55.908
21.9727	60.0796	21.9727	60.1724	21.9727	60.3938	21.9727	60.4507	21.9727	61.284	21.9727	60.7623	21.9727	62.7009	21.9727	61.0311	21.9727	64.4062	21.9727	61.2264	21.9727	66.1468	21.9727	61.3383	21.9727	67.746	21.9727	61.3646	21.9727	69.097	21.9727	61.3062	21.9727	70.1362	21.9727	61.1658	21.9727	70.8256	21.9727	60.9495	21.9727	71.1454	21.9727	60.6709	21.9727	71.0907	21.9727	60.36	21.9727	70.6711	21.9727	60.0756	21.9727	69.9104	21.9727	59.9207	21.9727	68.8466	21.9727	60.0403	21.9727	67.5326	21.9727	60.5724	21.9727	66.038	21.9727	61.5593	21.9727	64.4552	21.9727	62.9087
23.4375	65.6744	23.4375	65.221	23.4375	66.3921	23.4375	64.9676	23.4375	67.3951	23.4375	64.8413	23.4375	68.6384	23.4375	64.7832	23.4375	70.0224	23.4375	64.7543	23.4375	71.4256	23.4375	64.7323	23.4375	72.7319	23.4375	64.7063	23.4375	73.8438	23.4375	64.6733	23.4375	74.6861	23.4375	64.6363	23.4375	75.2071	23.4375	64.6038	23.4375	75.3786	23.4375	64.5913	23.4375	75.1967	23.4375	64.6227	23.4375	74.6808	23.4375	64.7327	23.4375	73.8725	23.4375	64.9666	23.4375	72.8323	23.4375	65.3736	23.4375	71.6337	23.4375	65.9935	23.4375	70.3566	23.4375	66.8385	23.4375	69.0814	23.4375	67.8855
24.9023	68.6688	24.9023	68.2106	24.9023	69.3266	24.9023	67.9089	24.9023	70.2027	24.9023	67.716	24.9023	71.275	24.9023	67.592	24.9023	72.4781	24.9023	67.5084	24.9023	73.7178	24.9023	67.4477	24.9023	74.8907	24.9023	67.4003	24.9023	75.9008	24.9023	67.3627	24.9023	76.6685	24.9023	67.3364	24.9023	77.1367	24.9023	67.3271	24.9023	77.2732	24.9023	67.3454	24.9023	77.0716	24.9023	67.408	24.9023	76.5517	24.9023	67.5383	24.9023	75.7583	24.9023	67.7674	24.9023	74.7569	24.9023	68.1305	24.9023	73.6265	24.9023	68.6597	24.9023	72.4508	24.9023	69.3729	24.9023	71.3082	24.9023	70.2655
26.3672	70.9253	26.3672	70.4452	26.3672	71.5899	26.3672	70.1148	26.3672	72.4517	26.3672	69.8933	26.3672	73.4883	26.3672	69.7447	26.3672	74.6403	26.3672	69.642	26.3672	75.8215	26.3672	69.5671	26.3672	76.9357	26.3672	69.5094	26.3672	77.8908	26.3672	69.4637	26.3672	78.6095	26.3672	69.4298	26.3672	79.0352	26.3672	69.4115	26.3672	79.1354	26.3672	69.4176	26.3672	78.904	26.3672	69.4629	26.3672	78.3608	26.3672	69.57	26.3672	77.5515	26.3672	69.7695	26.3672	76.5426	26.3672	70.0975	26.3672	75.4146	26.3672	70.5882	26.3672	74.2517	26.3672	71.2626	26.3672	73.1315	26.3672	72.1192
27.832	72.9949	27.832	72.5597	27.832	73.5838	27.832	72.2454	27.832	74.3459	27.832	72.0182	27.832	75.2728	27.832	71.8497	27.832	76.321	27.832	71.7195	27.832	77.4157	27.832	71.6137	27.832	78.4651	27.832	71.5242	27.832	79.3761	27.832	71.4473	27.832	80.0674	27.832	71.3827	27.832	80.4774	27.832	71.3339	27.832	80.5692	27.832	71.3086	27.832	80.3327	27.832	71.3199	27.832	79.7857	27.832	71.3881	27.832	78.9731	27.832	71.5416	27.832	77.9635	27.832	71.8153	27.832	76.8417	27.832	72.2441	27.832	75.6969	27.832	72.8533	27.832	74.6109	27.832	73.6486
29.2969	75.8072	29.2969	75.2791	29.2969	76.4673	29.2969	74.8674	29.2969	77.2632	29.2969	74.5524	29.2969	78.1797	29.2969	74.3152	29.2969	79.1786	29.2969	74.1405	29.2969	80.201	29.2969	74.0169	29.2969	81.1734	29.2969	73.9373	29.2969	82.0189	29.2969	73.8978	29.2969	82.6674	29.2969	73.898	29.2969	83.0646	29.2969	73.941	29.2969	83.178	29.2969	74.0335	29.2969	83	29.2969	74.1859	29.2969	82.5488	29.2969	74.4126	29.2969	81.8657	29.2969	74.7311	29.2969	81.0103	29.2969	75.1588	29.2969	80.0515	29.2969	75.7093	29.2969	79.0576	29.2969	76.3876	29.2969	78.0875	29.2969	77.1868
30.7617	79.0819	30.7617	78.6535	30.7617	79.6192	30.7617	78.3188	30.7617	80.2726	30.7617	78.0609	30.7617	81.0352	30.7617	77.8642	30.7617	81.88	30.7617	77.7169	30.7617	82.7585	30.7617	77.6104	30.7617	83.6051	30.7617	77.5396	30.7617	84.3465	30.7617	77.5019	30.7617	84.9135	30.7617	77.4974	30.7617	85.2513	30.7617	77.5278	30.7617	85.3275	30.7617	77.5975	30.7617	85.1358	30.7617	77.7134	30.7617	84.6971	30.7617	77.8854	30.7617	84.0569	30.7617	78.1263	30.7617	83.2781	30.7617	78.4505	30.7617	82.4298	30.7617	78.8717	30.7617	81.5756	30.7617	79.3988	30.7617	80.7654	30.7617	80.033
32.2266	80.122	32.2266	79.6773	32.2266	80.6634	32.2266	79.3183	32.2266	81.3069	32.2266	79.0321	32.2266	82.046	32.2266	78.8072	32.2266	82.8572	32.2266	78.6341	32.2266	83.6969	32.2266	78.5058	32.2266	84.5039	32.2266	78.4173	32.2266	85.208	32.2266	78.3661	32.2266	85.7412	32.2266	78.3512	32.2266	86.0487	32.2266	78.3734	32.2266	86.0974	32.2266	78.4359	32.2266	85.8803	32.2266	78.544	32.2266	85.4184	32.2266	78.7059	32.2266	84.7582	32.2266	78.933	32.2266	83.9646	32.2266	79.2387	32.2266	83.109	32.2266	79.6369	32.2266	82.2572	32.2266	80.1383	32.2266	81.4593	32.2266	80.7473
33.6914	81.6219	33.6914	81.1826	33.6914	82.1446	33.6914	80.8191	33.6914	82.7536	33.6914	80.5228	33.6914	83.4428	33.6914	80.2854	33.6914	84.192	33.6914	80.1001	33.6914	84.9637	33.6914	79.9618	33.6914	85.7043	33.6914	79.8671	33.6914	86.3501	33.6914	79.8136	33.6914	86.8379	33.6914	79.8007	33.6914	87.1157	33.6914	79.8288	33.6914	87.1516	33.6914	79.8999	33.6914	86.9393	33.6914	80.0179	33.6914	86.4997	33.6914	80.1887	33.6914	85.8785	33.6914	80.421	33.6914	85.1376	33.6914	80.7249	33.6914	84.344	33.6914	81.111	33.6914	83.5568	33.6914	81.5878	33.6914	82.8194	33.6914	82.1585
35.1562	82.5614	35.1562	82.1447	35.1562	83.0512	35.1562	81.795	35.1562	83.6167	35.1562	81.5056	35.1562	84.2534	35.1562	81.2707	35.1562	84.9447	35.1562	81.0855	35.1562	85.658	35.1562	80.9463	35.1562	86.3447	35.1562	80.8507	35.1562	86.9452	35.1562	80.797	35.1562	87.3987	35.1562	80.7844	35.1562	87.6543	35.1562	80.8131	35.1562	87.6806	35.1562	80.884	35.1562	87.4716	35.1562	80.9997	35.1562	87.0485	35.1562	81.1645	35.1562	86.4565	35.1562	81.3848	35.1562	85.7564	35.1562	81.6691	35.1562	85.0126	35.1562	82.0267	35.1562	84.2802	35.1562	82.4656	35.1562	83.5984	35.1562	82.9901
36.6211	82.9176	36.6211	82.5035	36.6211	83.3987	36.6211	82.1524	36.6211	83.9482	36.6211	81.8593	36.6211	84.5608	36.6211	81.6198	36.6211	85.221	36.6211	81.4303	36.6211	85.8983	36.6211	81.2881	36.6211	86.5475	36.6211	81.1909	36.6211	87.1126	36.6211	81.1375	36.6211	87.5357	36.6211	81.1267	36.6211	87.7684	36.6211	81.1581	36.6211	87.781	36.6211	81.2322	36.6211	87.5683	36.6211	81.3504	36.6211	87.1523	36.6211	81.5159	36.6211	86.5778	36.6211	81.7338	36.6211	85.9045	36.6211	82.0112	36.6211	85.1939	36.6211	82.356	36.6211	84.4977	36.6211	82.7757	36.6211	83.8512	36.6211	83.2743
38.0859	83.5658	38.0859	83.1353	38.0859	84.0591	38.0859	82.765	38.0859	84.6164	38.0859	82.452	38.0859	85.2339	38.0859	82.1941	38.0859	85.8981	38.0859	81.989	38.0859	86.58	38.0859	81.8347	38.0859	87.2336	38.0859	81.7294	38.0859	87.7996	38.0859	81.6713	38.0859	88.2156	38.0859	81.659	38.0859	88.4297	38.0859	81.6914	38.0859	88.4115	38.0859	81.7677	38.0859	88.1593	38.0859	81.8879	38.0859	87.7005	38.0859	82.0531	38.0859	87.0865	38.0859	82.2659	38.0859	86.3817	38.0859	82.5314	38.0859	85.6499	38.0859	82.8578	38.0859	84.9435	38.0859	83.2554	38.0859	84.2985	38.0859	83.734
39.5508	83.6383	39.5508	83.2148	39.5508	84.1193	39.5508	82.8472	39.5508	84.6578	39.5508	82.5339	39.5508	85.2499	39.5508	82.2737	39.5508	85.8825	39.5508	82.0653	39.5508	86.529	39.5508	81.9077	39.5508	87.1463	39.5508	81.7997	39.5508	87.6788	39.5508	81.7402	39.5508	88.0673	39.5508	81.7279	39.5508	88.2622	39.5508	81.7616	39.5508	88.2349	39.5508	81.8404	39.5508	87.9844	39.5508	81.9638	39.5508	87.5387	39.5508	82.1319	39.5508	86.9482	39.5508	82.346	39.5508	86.2755	39.5508	82.6097	39.5508	85.581	39.5508	82.9292	39.5508	84.9133	39.5508	83.313	39.5508	84.3042	39.5508	83.7696
41.0156	83.7003	41.0156	83.2799	41.0156	84.172	41.0156	82.911	41.0156	84.6938	41.0156	82.5936	41.0156	85.2613	41.0156	82.3279	41.0156	85.8623	41.0156	82.114	41.0156	86.4727	41.0156	81.9514	41.0156	87.0534	41.0156	81.8398	41.0156	87.5524	41.0156	81.778	41.0156	87.9143	41.0156	81.7651	41.0156	88.0915	41.0156	81.7995	41.0156	88.0568	41.0156	81.8799	41.0156	87.8096	41.0156	82.0052	41.0156	87.3772	41.0156	82.1746	41.0156	86.809	41.0156	82.3886	41.0156	86.1647	41.0156	82.6495	41.0156	85.5018	41.0156	82.9623	41.0156	84.8654	41.0156	83.3342	41.0156	84.2845	41.0156	83.7733
42.4805	83.5892	42.4805	83.1693	42.4805	84.0555	42.4805	82.7974	42.4805	84.5659	42.4805	82.4748	42.4805	85.1156	42.4805	82.2031	42.4805	85.6929	42.4805	81.9836	42.4805	86.2753	42.4805	81.8168	42.4805	86.8264	42.4805	81.7026	42.4805	87.2972	42.4805	81.6403	42.4805	87.6348	42.4805	81.6287	42.4805	87.7938	42.4805	81.6661	42.4805	87.7483	42.4805	81.7505	42.4805	87.4988	42.4805	81.88	42.4805	87.0732	42.4805	82.053	42.4805	86.5206	42.4805	82.2687	42.4805	85.8994	42.4805	82.5282	42.4805	85.2644	42.4805	82.8351	42.4805	84.6575	42.4805	83.1955	42.4805	84.1045	42.4805	83.6169
43.9453	83.7393	43.9453	83.3289	43.9453	84.1898	43.9453	82.9607	43.9453	84.6775	43.9453	82.6373	43.9453	85.1976	43.9453	82.3611	43.9453	85.7398	43.9453	82.1343	43.9453	86.2838	43.9453	81.9585	43.9453	86.7965	43.9453	81.8345	43.9453	87.2328	43.9453	81.7624	43.9453	87.5432	43.9453	81.7414	43.9453	87.6845	43.9453	81.7703	43.9453	87.6319	43.9453	81.8473	43.9453	87.386	43.9453	81.9702	43.9453	86.9738	43.9453	82.1372	43.9453	86.4423	43.9453	82.3471	43.9453	85.847	43.9453	82.6002	43.9453	85.2392	43.9453	82.8993	43.9453	84.6579	43.9453	83.2494	43.9453	84.1269	43.9453	83.6571
45.4102	83.7925	45.4102	83.3935	45.4102	84.2277	45.4102	83.0336	45.4102	84.6961	45.4102	82.7159	45.4102	85.1929	45.4102	82.4434	45.4102	85.7087	45.4102	82.2191	45.4102	86.2247	45.4102	82.0452	45.4102	86.71	45.4102	81.9231	45.4102	87.1221	45.4102	81.8532	45.4102	87.4135	45.4102	81.8349	45.4102	87.5431	45.4102	81.8669	45.4102	87.4871	45.4102	81.9472	45.4102	87.2467	45.4102	82.073	45.4102	86.8489	45.4102	82.2417	45.4102	86.3399	45.4102	82.4509	45.4102	85.7737	45.4102	82.6997	45.4102	85.1991	45.4102	82.9894	45.4102	84.6518	45.4102	83.3244	45.4102	84.1529	45.4102	83.7105
46.875	83.7968	46.875	83.401	46.875	84.2258	46.875	83.0418	46.875	84.6843	46.875	82.7233	46.875	85.1669	46.875	82.4492	46.875	85.6644	46.875	82.2228	46.875	86.159	46.875	82.0468	46.875	86.6218	46.875	81.9229	46.875	87.0127	46.875	81.8518	46.875	87.2868	46.875	81.8331	46.875	87.4047	46.875	81.8654	46.875	87.3438	46.875	81.9464	46.875	87.1058	46.875	82.0731	46.875	86.7173	46.875	82.2423	46.875	86.2235	46.875	82.4512	46.875	85.6765	46.875	82.698	46.875	85.1227	46.875	82.9835	46.875	84.5957	46.875	83.3113	46.875	84.1146	46.875	83.6867
48.3398	83.7988	48.3398	83.4024	48.3398	84.2257	48.3398	83.041	48.3398	84.6786	48.3398	82.7194	48.3398	85.152	48.3398	82.4422	48.3398	85.6365	48.3398	82.2135	48.3398	86.1155	48.3398	82.0365	48.3398	86.5617	48.3398	81.9132	48.3398	86.9372	48.3398	81.8445	48.3398	87.1994	48.3398	81.8297	48.3398	87.3104	48.3398	81.8672	48.3398	87.2489	48.3398	81.9542	48.3398	87.0167	48.3398	82.0873	48.3398	86.6402	48.3398	82.2627	48.3398	86.1634	48.3398	82.4767	48.3398	85.6362	48.3398	82.7271	48.3398	85.1026	48.3398	83.014	48.3398	84.5938	48.3398	83.34	48.3398	84.1273	48.3398	83.7097
51.2695	83.9702	51.2695	83.5801	51.2695	84.3849	51.2695	83.2205	51.2695	84.8184	51.2695	82.8975	51.2695	85.264	51.2695	82.6171	51.2695	85.7124	51.2695	82.3845	51.2695	86.1482	51.2695	82.204	51.2695	86.5476	51.2695	82.0783	51.2695	86.8772	51.2695	82.0089	51.2695	87.0995	51.2695	81.9954	51.2695	87.1817	51.2695	82.036	51.2695	87.1059	51.2695	82.1278	51.2695	86.8764	51.2695	82.2664	51.2695	86.52	51.2695	82.4469	51.2695	86.0784	51.2695	82.6644	51.2695	85.5974	51.2695	82.9146	51.2695	85.115	51.2695	83.1951	51.2695	84.6564	51.2695	83.5065	51.2695	84.2341	51.2695	83.8515
52.7344	84.0985	52.7344	83.7239	52.7344	84.4922	52.7344	83.3741	52.7344	84.8993	52.7344	83.0556	52.7344	85.314	52.7344	82.7745	52.7344	85.7281	52.7344	82.5366	52.7344	86.1284	52.7344	82.3465	52.7344	86.4932	52.7344	82.208	52.7344	86.7918	52.7344	82.123	52.7344	86.9886	52.7344	82.092	52.7344	87.0519	52.7344	82.1139	52.7344	86.9643	52.7344	82.1862	52.7344	86.7298	52.7344	82.3053	52.7344	86.3745	52.7344	82.4665	52.7344	85.9393	52.7344	82.6649	52.7344	85.4683	52.7344	82.8966	52.7344	84.9983	52.7344	83.159	52.7344	84.5538	52.7344	83.4527	52.7344	84.1469	52.7344	83.7807
54.1992	84.0442	54.1992	83.6645	54.1992	84.4428	54.1992	83.3102	54.1992	84.8539	54.1992	82.9884	54.1992	85.2708	54.1992	82.7057	54.1992	85.685	54.1992	82.4681	54.1992	86.0826	54.1992	82.2806	54.1992	86.4421	54.1992	82.1466	54.1992	86.7331	54.1992	82.068	54.1992	86.9211	54.1992	82.045	54.1992	86.9757	54.1992	82.076	54.1992	86.8811	54.1992	82.1579	54.1992	86.6434	54.1992	82.2864	54.1992	86.2898	54.1992	82.4559	54.1992	85.8617	54.1992	82.6608	54.1992	85.4026	54.1992	82.8961	54.1992	84.9474	54.1992	83.1589	54.1992	84.5181	54.1992	83.4491	54.1992	84.125	54.1992	83.7697
55.6641	84.1354	55.6641	83.7506	55.6641	84.542	55.6641	83.3937	55.6641	84.9642	55.6641	83.0706	55.6641	85.3953	55.6641	82.7871	55.6641	85.827	55.6641	82.5485	55.6641	86.2467	55.6641	82.3596	55.6641	86.6336	55.6641	82.2243	55.6641	86.9575	55.6641	82.1452	55.6641	87.1811	55.6641	82.1236	55.6641	87.2696	55.6641	82.159	55.6641	87.2031	55.6641	82.2497	55.6641	86.9846	55.6641	82.3924	55.6641	86.642	55.6641	82.5829	55.6641	86.2184	55.6641	82.8161	55.6641	85.7598	55.6641	83.0864	55.6641	85.3016	55.6641	83.3885	55.6641	84.8643	55.6641	83.7183	55.6641	84.455	55.6641	84.0737
58.5938	84.4492	58.5938	84.0788	58.5938	84.8385	58.5938	83.734	58.5938	85.2395	58.5938	83.4212	58.5938	85.6447	58.5938	83.1459	58.5938	86.0452	58.5938	82.9133	58.5938	86.4291	58.5938	82.7281	58.5938	86.7784	58.5938	82.594	58.5938	87.0668	58.5938	82.5135	58.5938	87.2617	58.5938	82.4879	58.5938	87.3322	58.5938	82.517	58.5938	87.2607	58.5938	82.5991	58.5938	87.0509	58.5938	82.7312	58.5938	86.7291	58.5938	82.9094	58.5938	86.3353	58.5938	83.1292	58.5938	85.9103	58.5938	83.3854	58.5938	85.4849	58.5938	83.6732	58.5938	85.076	58.5938	83.9881	58.5938	84.6899	58.5938	84.3273
60.0586	84.485	60.0586	84.1025	60.0586	84.8836	60.0586	83.7445	60.0586	85.2901	60.0586	83.4188	60.0586	85.696	60.0586	83.1325	60.0586	86.0924	60.0586	82.892	60.0586	86.4681	60.0586	82.7027	60.0586	86.8066	60.0586	82.5687	60.0586	87.0838	60.0586	82.4924	60.0586	87.2695	60.0586	82.4748	60.0586	87.3351	60.0586	82.515	60.0586	87.2643	60.0586	82.6106	60.0586	87.0615	60.0586	82.758	60.0586	86.7524	60.0586	82.9521	60.0586	86.3752	60.0586	83.1876	60.0586	85.9683	60.0586	83.4583	60.0586	85.5595	60.0586	83.7581	60.0586	85.1635	60.0586	84.0815	60.0586	84.785	60.0586	84.4244
62.9883	84.5837	62.9883	84.2053	62.9883	84.9739	62.9883	83.8478	62.9883	85.3671	62.9883	83.5196	62.9883	85.7543	62.9883	83.2289	62.9883	86.1268	62.9883	82.9829	62.9883	86.4737	62.9883	82.7879	62.9883	86.7801	62.9883	82.6487	62.9883	87.0246	62.9883	82.5683	62.9883	87.1802	62.9883	82.5478	62.9883	87.2218	62.9883	82.5864	62.9883	87.136	62.9883	82.6814	62.9883	86.9293	62.9883	82.8284	62.9883	86.6281	62.9883	83.022	62.9883	86.2694	62.9883	83.2554	62.9883	85.8885	62.9883	83.5216	62.9883	85.5092	62.9883	83.8136	62.9883	85.1424	62.9883	84.125	62.9883	84.7901	62.9883	84.4512
64.4531	84.6033	64.4531	84.2214	64.4531	84.9946	64.4531	83.8585	64.4531	85.386	64.4531	83.5237	64.4531	85.7681	64.4531	83.2256	64.4531	86.1318	64.4531	82.9722	64.4531	86.4665	64.4531	82.77	64.4531	86.758	64.4531	82.6244	64.4531	86.9863	64.4531	82.5388	64.4531	87.1265	64.4531	82.5145	64.4531	87.1551	64.4531	82.5508	64.4531	87.0603	64.4531	82.6449	64.4531	86.8495	64.4531	82.7921	64.4531	86.549	64.4531	82.9865	64.4531	86.1952	64.4531	83.2209	64.4531	85.8219	64.4531	83.488	64.4531	85.4513	64.4531	83.7799	64.4531	85.0928	64.4531	84.09	64.4531	84.7473	64.4531	84.4132
67.3828	84.7042	67.3828	84.3197	67.3828	85.0941	67.3828	83.9509	67.3828	85.4792	67.3828	83.6079	67.3828	85.8497	67.3828	83.3002	67.3828	86.1963	67.3828	83.0365	67.3828	86.5093	67.3828	82.8244	67.3828	86.7764	67.3828	82.6701	67.3828	86.9806	67.3828	82.5776	67.3828	87.1003	67.3828	82.5487	67.3828	87.1156	67.3828	82.5828	67.3828	87.0166	67.3828	82.6772	67.3828	86.8112	67.3828	82.827	67.3828	86.5244	67.3828	83.0257	67.3828	86.1897	67.3828	83.2658	67.3828	85.8371	67.3828	83.5388	67.3828	85.4852	67.3828	83.8361	67.3828	85.141	67.3828	84.1499	67.3828	84.8043	67.3828	84.4738
68.8477	84.7806	68.8477	84.3955	68.8477	85.169	68.8477	84.0245	68.8477	85.5502	68.8477	83.6783	68.8477	85.9142	68.8477	83.3669	68.8477	86.2516	68.8477	83.0997	68.8477	86.5532	68.8477	82.8848	68.8477	86.8074	68.8477	82.7287	68.8477	86.9987	68.8477	82.6357	68.8477	87.1072	68.8477	82.6077	68.8477	87.1146	68.8477	82.6442	68.8477	87.0126	68.8477	82.742	68.8477	86.8097	68.8477	82.8958	68.8477	86.5307	68.8477	83.0988	68.8477	86.208	68.8477	83.3427	68.8477	85.8695	68.8477	83.6184	68.8477	85.5317	68.8477	83.9168	68.8477	85.2	68.8477	84.2295	68.8477	84.8732	68.8477	84.5496
71.7773	84.9347	71.7773	84.552	71.7773	85.3158	71.7773	84.1789	71.7773	85.6844	71.7773	83.8264	71.7773	86.0302	71.7773	83.5051	71.7773	86.3437	71.7773	83.225	71.7773	86.6161	71.7773	82.9951	71.7773	86.8368	71.7773	82.8227	71.7773	86.9921	71.7773	82.7132	71.7773	87.0655	71.7773	82.6693	71.7773	87.0419	71.7773	82.6912	71.7773	86.9163	71.7773	82.7761	71.7773	86.6997	71.7773	82.9191	71.7773	86.4178	71.7773	83.1129	71.7773	86.1019	71.7773	83.3488	71.7773	85.777	71.7773	83.6172	71.7773	85.4563	71.7773	83.9081	71.7773	85.1419	71.7773	84.2118	71.7773	84.8311	71.7773	84.521
74.707	85.1213	74.707	84.7434	74.707	85.495	74.707	84.373	74.707	85.8529	74.707	84.0216	74.707	86.1843	74.707	83.7002	74.707	86.4792	74.707	83.4192	74.707	86.7289	74.707	83.1877	74.707	86.924	74.707	83.0132	74.707	87.053	74.707	82.9012	74.707	87.1023	74.707	82.8543	74.707	87.0605	74.707	82.8726	74.707	86.9253	74.707	82.9535	74.707	86.7091	74.707	83.0916	74.707	86.4369	74.707	83.2797	74.707	86.1372	74.707	83.5089	74.707	85.8317	74.707	83.7695	74.707	85.5305	74.707	84.0512	74.707	85.234	74.707	84.3447	74.707	84.9388	74.707	84.6421
77.6367	85.2297	77.6367	84.853	77.6367	85.6003	77.6367	84.4828	77.6367	85.9525	77.6367	84.1315	77.6367	86.2746	77.6367	83.8109	77.6367	86.5566	77.6367	83.5318	77.6367	86.7898	77.6367	83.3039	77.6367	86.9662	77.6367	83.135	77.6367	87.0766	77.6367	83.0302	77.6367	87.1108	77.6367	82.9923	77.6367	87.061	77.6367	83.0208	77.6367	86.9278	77.6367	83.1124	77.6367	86.7251	77.6367	83.2613	77.6367	86.4768	77.6367	83.4594	77.6367	86.2081	77.6367	83.6971	77.6367	85.9357	77.6367	83.9639	77.6367	85.6652	77.6367	84.2487	77.6367	85.3939	77.6367	84.5411	77.6367	85.1172	77.6367	84.8325
79.1016	85.2814	79.1016	84.9038	79.1016	85.6512	79.1016	84.5314	79.1016	86.0005	79.1016	84.177	79.1016	86.3174	79.1016	83.8531	79.1016	86.5917	79.1016	83.5709	79.1016	86.8151	79.1016	83.3406	79.1016	86.9801	79.1016	83.1702	79.1016	87.0788	79.1016	83.0654	79.1016	87.1025	79.1016	83.0288	79.1016	87.0452	79.1016	83.0601	79.1016	86.9092	79.1016	83.1556	79.1016	86.7091	79.1016	83.309	79.1016	86.4688	79.1016	83.5119	79.1016	86.2121	79.1016	83.7539	79.1016	85.9537	79.1016	84.0238	79.1016	85.6967	79.1016	84.3102	79.1016	85.4371	79.1016	84.6021	79.1016	85.1693	79.1016	84.8904
82.0312	85.4325	82.0312	85.0551	82.0312	85.7988	82.0312	84.6801	82.0312	86.1409	82.0312	84.3209	82.0312	86.4465	82.0312	83.9903	82.0312	86.7051	82.0312	83.7004	82.0312	86.9084	82.0312	83.4617	82.0312	87.0497	82.0312	83.2831	82.0312	87.1224	82.0312	83.1707	82.0312	87.1206	82.0312	83.1275	82.0312	87.0416	82.0312	83.1534	82.0312	86.8911	82.0312	83.245	82.0312	86.6862	82.0312	83.3957	82.0312	86.4511	82.0312	83.5967	82.0312	86.2075	82.0312	83.8372	82.0312	85.9665	82.0312	84.1056	82.0312	85.7276	82.0312	84.3896	82.0312	85.484	82.0312	84.6776	82.0312	85.229	82.0312	84.9595
84.9609	85.5748	84.9609	85.1935	84.9609	85.9425	84.9609	84.8132	84.9609	86.2826	84.9609	84.4484	84.9609	86.5818	84.9609	84.1127	84.9609	86.8292	84.9609	83.8191	84.9609	87.0162	84.9609	83.5788	84.9609	87.1368	84.9609	83.4009	84.9609	87.1863	84.9609	83.2915	84.9609	87.1616	84.9609	83.2532	84.9609	87.063	84.9609	83.2854	84.9609	86.899	84.9609	83.3834	84.9609	86.6891	84.9609	83.5399	84.9609	86.4582	84.9609	83.745	84.9609	86.2273	84.9609	83.987	84.9609	86.0051	84.9609	84.2535	84.9609	85.788	84.9609	84.5319	84.9609	85.5664	84.9609	84.8103	84.9609	85.3315	84.9609	85.0789
87.8906	85.6352	87.8906	85.2504	87.8906	86.0037	87.8906	84.8642	87.8906	86.3412	87.8906	84.4917	87.8906	86.6348	87.8906	84.1478	87.8906	86.8737	87.8906	83.846	87.8906	87.05	87.8906	83.5988	87.8906	87.1592	87.8906	83.4159	87.8906	87.1986	87.8906	83.304	87.8906	87.1669	87.8906	83.2661	87.8906	87.0665	87.8906	83.3012	87.8906	86.9067	87.8906	83.4045	87.8906	86.7058	87.8906	83.5679	87.8906	86.4868	87.8906	83.7807	87.8906	86.268	87.8906	84.0306	87.8906	86.0561	87.8906	84.3043	87.8906	85.8463	87.8906	84.5888	87.8906	85.6292	87.8906	84.8717	87.8906	85.3961	87.8906	85.143
90.8203	85.6814	90.8203	85.2928	90.8203	86.0519	90.8203	84.9016	90.8203	86.3895	90.8203	84.5235	90.8203	86.6809	90.8203	84.1737	90.8203	86.9151	90.8203	83.8669	90.8203	87.0847	90.8203	83.616	90.8203	87.1862	90.8203	83.4314	90.8203	87.2185	90.8203	83.3206	90.8203	87.1829	90.8203	83.2866	90.8203	87.0844	90.8203	83.3287	90.8203	86.9341	90.8203	83.4416	90.8203	86.7505	90.8203	83.6167	90.8203	86.554	90.8203	83.8426	90.8203	86.3582	90.8203	84.1062	90.8203	86.1655	90.8203	84.3936	90.8203	85.9687	90.8203	84.6909	90.8203	85.7573	90.8203	84.9852	90.8203	85.5238	90.8203	85.2654
95.2148	85.8778	95.2148	85.4815	95.2148	86.2482	95.2148	85.0756	95.2148	86.5772	95.2148	84.6767	95.2148	86.8512	95.2148	84.3015	95.2148	87.0595	95.2148	83.9662	95.2148	87.1954	95.2148	83.6856	95.2148	87.2571	95.2148	83.4723	95.2148	87.2468	95.2148	83.3356	95.2148	87.1698	95.2148	83.2805	95.2148	87.0361	95.2148	83.3073	95.2148	86.8615	95.2148	83.4112	95.2148	86.6674	95.2148	83.5833	95.2148	86.4735	95.2148	83.8111	95.2148	86.2901	95.2148	84.0799	95.2148	86.1144	95.2148	84.3741	95.2148	85.9343	95.2148	84.6778	95.2148	85.7366	95.2148	84.9764	95.2148	85.5119	95.2148	85.2573
98.1445	85.8981	98.1445	85.4965	98.1445	86.2705	98.1445	85.0829	98.1445	86.5977	98.1445	84.6748	98.1445	86.8655	98.1445	84.2897	98.1445	87.0629	98.1445	83.9447	98.1445	87.1833	98.1445	83.6554	98.1445	87.2254	98.1445	83.4349	98.1445	87.1927	98.1445	83.2929	98.1445	87.0934	98.1445	83.2345	98.1445	86.9406	98.1445	83.2594	98.1445	86.7537	98.1445	83.3627	98.1445	86.5557	98.1445	83.5348	98.1445	86.3658	98.1445	83.7626	98.1445	86.1914	98.1445	84.031	98.1445	86.0261	98.1445	84.3241	98.1445	85.8558	98.1445	84.6259	98.1445	85.6663	98.1445	84.9216	98.1445	85.4482	98.1445	85.1987
101.074	85.9392	101.074	85.5302	101.074	86.3133	101.074	85.1041	101.074	86.6357	101.074	84.6795	101.074	86.8918	101.074	84.2752	101.074	87.0705	101.074	83.9098	101.074	87.1652	101.074	83.6006	101.074	87.1753	101.074	83.3622	101.074	87.1063	101.074	83.2056	101.074	86.9691	101.074	83.1365	101.074	86.7817	101.074	83.1548	101.074	86.5683	101.074	83.2549	101.074	86.3553	101.074	83.4259	101.074	86.1624	101.074	83.6535	101.074	85.9942	101.074	83.9213	101.074	85.8403	101.074	84.2122	101.074	85.6837	101.074	84.5095	101.074	85.5083	101.074	84.7983	101.074	85.3035	101.074	85.0658
105.469	86.4049	105.469	85.9837	105.469	86.7779	105.469	85.5329	105.469	87.0849	105.469	85.0721	105.469	87.3104	105.469	84.6217	105.469	87.4418	105.469	84.2021	105.469	87.4717	105.469	83.8329	105.469	87.3993	105.469	83.5321	105.469	87.2319	105.469	83.3138	105.469	86.9865	105.469	83.1867	105.469	86.691	105.469	83.1534	105.469	86.3829	105.469	83.2094	105.469	86.101	105.469	83.344	105.469	85.8704	105.469	83.5419	105.469	85.6918	105.469	83.7849	105.469	85.5458	105.469	84.0541	105.469	85.4058	105.469	84.3314	105.469	85.2501	105.469	84.6005	105.469	85.0657	105.469	84.8482
108.398	86.8723	108.398	86.4456	108.398	87.2487	108.398	85.9874	108.398	87.557	108.398	85.5175	108.398	87.7814	108.398	85.0566	108.398	87.9095	108.398	84.6256	108.398	87.9339	108.398	84.2451	108.398	87.8544	108.398	83.9337	108.398	87.6796	108.398	83.7069	108.398	87.4274	108.398	83.5748	108.398	87.1267	108.398	83.5407	108.398	86.8159	108.398	83.601	108.398	86.5355	108.398	83.7447	108.398	86.3127	108.398	83.956	108.398	86.1485	108.398	84.2157	108.398	86.0203	108.398	84.5032	108.398	85.8963	108.398	84.7987	108.398	85.7504	108.398	85.084	108.398	85.5676	108.398	85.344
112.793	86.9986	112.793	86.5548	112.793	87.3938	112.793	86.0817	112.793	87.7227	112.793	85.5995	112.793	87.9695	112.793	85.1292	112.793	88.1222	112.793	84.692	112.793	88.1744	112.793	84.3091	112.793	88.127	112.793	83.9999	112.793	87.989	112.793	83.7804	112.793	87.7776	112.793	83.6617	112.793	87.5185	112.793	83.6478	112.793	87.2458	112.793	83.735	112.793	86.9961	112.793	83.9121	112.793	86.7945	112.793	84.1623	112.793	86.6419	112.793	84.4647	112.793	86.5162	112.793	84.7971	112.793	86.3861	112.793	85.1374	112.793	86.2253	112.793	85.4653	112.793	86.0188	112.793	85.7635
117.188	87.0433	117.188	86.5865	117.188	87.4483	117.188	86.0976	117.188	87.7831	117.188	85.5973	117.188	88.0316	117.188	85.1073	117.188	88.1813	117.188	84.65	117.188	88.2256	117.188	84.2477	117.188	88.1656	117.188	83.9209	117.188	88.0106	117.188	83.6875	117.188	87.7792	117.188	83.5594	117.188	87.4996	117.188	83.5417	117.188	87.209	117.188	83.6308	117.188	86.9465	117.188	83.8149	117.188	86.738	117.188	84.0754	117.188	86.5835	117.188	84.3898	117.188	86.4592	117.188	84.7338	117.188	86.3327	117.188	85.0837	117.188	86.1763	117.188	85.4181	117.188	85.9733	117.188	85.7189
120.117	87.1919	120.117	86.7131	120.117	87.6162	120.117	86.2006	120.117	87.9666	120.117	85.6762	120.117	88.2256	120.117	85.1623	120.117	88.3794	120.117	84.682	120.117	88.4202	120.117	84.2583	120.117	88.3478	120.117	83.9127	120.117	88.1712	120.117	83.6638	120.117	87.9097	120.117	83.5248	120.117	87.5935	120.117	83.5014	120.117	87.2646	120.117	83.5903	120.117	86.9682	120.117	83.7793	120.117	86.7356	120.117	84.0485	120.117	86.5684	120.117	84.3733	120.117	86.4414	120.117	84.7274	120.117	86.3185	120.117	85.085	120.117	86.1687	120.117	85.4231	120.117	85.9727	120.117	85.723
124.512	87.4021	124.512	86.8814	124.512	87.8709	124.512	86.331	124.512	88.267	124.512	85.7744	124.512	88.5723	124.512	85.2362	124.512	88.7729	124.512	84.7414	124.512	88.8612	124.512	84.3145	124.512	88.8381	124.512	83.9783	124.512	88.7134	124.512	83.7518	124.512	88.5058	124.512	83.6481	124.512	88.2428	124.512	83.6715	124.512	87.9616	124.512	83.8168	124.512	87.703	124.512	84.0691	124.512	87.496	124.512	84.4053	124.512	87.3424	124.512	84.7979	124.512	87.2167	124.512	85.2179	124.512	87.0823	124.512	85.6376	124.512	86.9086	124.512	86.0328	124.512	86.6775	124.512	86.3839
128.906	87.3089	128.906	86.7338	128.906	87.8331	128.906	86.1315	128.906	88.2844	128.906	85.5271	128.906	88.644	128.906	84.9465	128.906	88.8976	128.906	84.4159	128.906	89.0379	128.906	83.9613	128.906	89.0658	128.906	83.6069	128.906	88.9899	128.906	83.3733	128.906	88.8254	128.906	83.2751	128.906	88.5951	128.906	83.3184	128.906	88.3317	128.906	83.4985	128.906	88.0747	128.906	83.7993	128.906	87.8559	128.906	84.1956	128.906	87.6818	128.906	84.6565	128.906	87.5299	128.906	85.1491	128.906	87.364	128.906	85.6419	128.906	87.1516	128.906	86.1074	128.906	86.8731	128.906	86.5229
133.301	87.1246	133.301	86.4828	133.301	87.7161	133.301	85.8165	133.301	88.2343	133.301	85.153	133.301	88.6597	133.301	84.5207	133.301	88.9782	133.301	83.9484	133.301	89.1829	133.301	83.464	133.301	89.2746	133.301	83.0934	133.301	89.2602	133.301	82.8583	133.301	89.1516	133.301	82.7745	133.301	88.9661	133.301	82.8482	133.301	88.7303	133.301	83.074	133.301	88.4792	133.301	83.4342	133.301	88.2442	133.301	83.9001	133.301	88.036	133.301	84.4368	133.301	87.8387	133.301	85.0074	133.301	87.6211	133.301	85.5771	133.301	87.3529	133.301	86.116	133.301	87.0147	133.301	86.6004
139.16	86.6282	139.16	85.9055	139.16	87.3028	139.16	85.1615	139.16	87.9052	139.16	84.425	139.16	88.4154	139.16	83.7257	139.16	88.8192	139.16	83.0934	139.16	89.1093	139.16	82.5571	139.16	89.2852	139.16	82.1442	139.16	89.3506	139.16	81.879	139.16	89.3119	139.16	81.7808	139.16	89.179	139.16	81.8604	139.16	88.9712	139.16	82.1155	139.16	88.7184	139.16	82.5291	139.16	88.4517	139.16	83.0703	139.16	88.1867	139.16	83.699	139.16	87.9154	139.16	84.3728	139.16	87.6128	139.16	85.0517	139.16	87.2519	139.16	85.7014	139.16	86.8143	139.16	86.295
143.555	86.1245	143.555	85.3609	143.555	86.8483	143.555	84.5845	143.555	87.5076	143.555	83.8234	143.555	88.082	143.555	83.1054	143.555	88.5563	143.555	82.4572	143.555	88.9224	143.555	81.9042	143.555	89.1777	143.555	81.4709	143.555	89.3225	143.555	81.1808	143.555	89.3574	143.555	81.0562	143.555	89.2848	143.555	81.1141	143.555	89.1153	143.555	81.3606	143.555	88.8714	143.555	81.7858	143.555	88.5814	143.555	82.3614	143.555	88.2656	143.555	83.0458	143.555	87.925	143.555	83.7914	143.555	87.5437	143.555	84.5523	143.555	87.0999	143.555	85.2889	143.555	86.5771	143.555	85.9707
147.949	85.6486	147.949	84.911	147.949	86.3568	147.949	84.1687	147.949	87.0124	147.949	83.4457	147.949	87.5954	147.949	82.7644	147.949	88.091	147.949	82.1452	147.949	88.4909	147.949	81.6073	147.949	88.792	147.949	81.1693	147.949	88.9928	147.949	80.8516	147.949	89.0906	147.949	80.6761	147.949	89.0817	147.949	80.6649	147.949	88.9672	147.949	80.8347	147.949	88.7569	147.949	81.189	147.949	88.4683	147.949	81.7126	147.949	88.1183	147.949	82.3716	147.949	87.7147	147.949	83.1199	147.949	87.2539	147.949	83.9089	147.949	86.7256	147.949	84.6939	147.949	86.1207	147.949	85.4394
153.809	86.0549	153.809	85.4249	153.809	86.6358	153.809	84.766	153.809	87.1497	153.809	84.0989	153.809	87.5827	153.809	83.4444	153.809	87.9273	153.809	82.8229	153.809	88.183	153.809	82.2547	153.809	88.3556	153.809	81.7601	153.809	88.453	153.809	81.3604	153.809	88.4812	153.809	81.0771	153.809	88.4414	153.809	80.9316	153.809	88.3311	153.809	80.9421	153.809	88.1461	153.809	81.1193	153.809	87.8831	153.809	81.4617	153.809	87.5409	153.809	81.9527	153.809	87.1204	153.809	82.5626	153.809	86.623	153.809	83.2528	153.809	86.0507	153.809	83.9821	153.809	85.4091	153.809	84.7117
159.668	86.5891	159.668	85.9978	159.668	87.1141	159.668	85.3611	159.668	87.5544	159.668	84.7011	159.668	87.896	159.668	84.0405	159.668	88.1312	159.668	83.4016	159.668	88.2599	159.668	82.8065	159.668	88.2904	159.668	82.2768	159.668	88.2379	159.668	81.8345	159.668	88.1215	159.668	81.5017	159.668	87.9601	159.668	81.2994	159.668	87.7662	159.668	81.2448	159.668	87.5402	159.668	81.3472	159.668	87.2706	159.668	81.6034	159.668	86.9429	159.668	81.9974	159.668	86.5482	159.668	82.5025	159.668	86.0854	159.668	83.0862	159.668	85.5585	159.668	83.7143	159.668	84.9764	159.668	84.354
165.527	86.7756	165.527	86.2015	165.527	87.2859	165.527	85.585	165.527	87.7122	165.527	84.947	165.527	88.0366	165.527	84.3076	165.527	88.2464	165.527	83.6863	165.527	88.3361	165.527	83.1017	165.527	88.3095	165.527	82.573	165.527	88.1793	165.527	82.1197	165.527	87.9671	165.527	81.7628	165.527	87.7007	165.527	81.5236	165.527	87.4069	165.527	81.4203	165.527	87.1006	165.527	81.4645	165.527	86.7793	165.527	81.6563	165.527	86.4293	165.527	81.9824	165.527	86.0388	165.527	82.4174	165.527	85.6029	165.527	82.9293	165.527	85.1224	165.527	83.4838	165.527	84.6015	165.527	84.0497
171.387	86.817	171.387	86.275	171.387	87.2958	171.387	85.6935	171.387	87.6882	171.387	85.0956	171.387	87.9744	171.387	84.502	171.387	88.1412	171.387	83.9312	171.387	88.1847	171.387	83.3997	171.387	88.1121	171.387	82.923	171.387	87.9425	171.387	82.517	171.387	87.7052	171.387	82.1992	171.387	87.4346	171.387	81.9877	171.387	87.1599	171.387	81.899	171.387	86.8915	171.387	81.9431	171.387	86.6174	171.387	82.1189	171.387	86.3161	171.387	82.4122	171.387	85.9721	171.387	82.798	171.387	85.5833	171.387	83.2462	171.387	85.1555	171.387	83.7274	171.387	84.6971	171.387	84.217
177.246	86.6952	177.246	86.1408	177.246	87.1776	177.246	85.5393	177.246	87.5652	177.246	84.9166	177.246	87.84	177.246	84.298	177.246	87.9913	177.246	83.7077	177.246	88.0191	177.246	83.1692	177.246	87.9355	177.246	82.7046	177.246	87.7658	177.246	82.3349	177.246	87.546	177.246	82.0788	177.246	87.3162	177.246	81.9513	177.246	87.1085	177.246	81.9609	177.246	86.9317	177.246	82.1074	177.246	86.7678	177.246	82.3798	177.246	86.5842	177.246	82.7579	177.246	86.3513	177.246	83.2144	177.246	86.0519	177.246	83.7195	177.246	85.6818	177.246	84.2441	177.246	85.247	177.246	84.7612
183.105	86.6179	183.105	86.0867	183.105	87.0666	183.105	85.4967	183.105	87.4122	183.105	84.8729	183.105	87.6395	183.105	84.2408	183.105	87.7418	183.105	83.6266	183.105	87.7253	183.105	83.0569	183.105	87.6112	183.105	82.5588	183.105	87.4348	183.105	82.1588	183.105	87.24	183.105	81.8817	183.105	87.0672	183.105	81.7465	183.105	86.9361	183.105	81.7629	183.105	86.8367	183.105	81.9279	183.105	86.7353	183.105	82.226	183.105	86.5938	183.105	82.6321	183.105	86.3842	183.105	83.1166	183.105	86.0921	183.105	83.6499	183.105	85.7151	183.105	84.2035	183.105	85.2616	183.105	84.7497
188.965	86.9889	188.965	86.4543	188.965	87.4119	188.965	85.8352	188.965	87.6998	188.965	85.1601	188.965	87.8355	188.965	84.4585	188.965	87.8128	188.965	83.7599	188.965	87.6415	188.965	83.0948	188.965	87.3518	188.965	82.4946	188.965	86.997	188.965	81.992	188.965	86.6481	188.965	81.6184	188.965	86.3727	188.965	81.3991	188.965	86.1989	188.965	81.3463	188.965	86.0967	188.965	81.4547	188.965	86.0012	188.965	81.7018	188.965	85.8551	188.965	82.0555	188.965	85.6291	188.965	82.4839	188.965	85.3171	188.965	82.9606	188.965	84.9259	188.965	83.4645	188.965	84.4712	188.965	83.9757
196.289	87.6169	196.289	87.0266	196.289	88.085	196.289	86.3464	196.289	88.4027	196.289	85.6101	196.289	88.5473	196.289	84.8519	196.289	88.504	196.289	84.1042	196.289	88.2695	196.289	83.3973	196.289	87.8573	196.289	82.7612	196.289	87.3056	196.289	82.2271	196.289	86.6872	196.289	81.8298	196.289	86.1044	196.289	81.6036	196.289	85.6484	196.289	81.5721	196.289	85.34	196.289	81.7328	196.289	85.1254	196.289	82.0494	196.289	84.9378	196.289	82.4601	196.289	84.7467	196.289	82.8971	196.289	84.5535	196.289	83.3057	196.289	84.3626	196.289	83.6543	196.289	84.1643	196.289	83.9362
203.613	87.3248	203.613	86.7136	203.613	87.8224	203.613	86.0222	203.613	88.175	203.613	85.2851	203.613	88.3549	203.613	84.536	203.613	88.3404	203.613	83.807	203.613	88.1201	203.613	83.1277	203.613	87.6996	203.613	82.5256	203.613	87.1139	203.613	82.0287	203.613	86.4409	203.613	81.667	203.613	85.8025	203.613	81.473	203.613	85.3226	203.613	81.4736	203.613	85.0533	203.613	81.6758	203.613	84.9512	203.613	82.054	203.613	84.9335	203.613	82.5507	203.613	84.9354	203.613	83.0942	203.613	84.9162	203.613	83.6184	203.613	84.8438	203.613	84.075	203.613	84.6901	203.613	84.4357
210.938	87.149	210.938	86.5425	210.938	87.6574	210.938	85.8729	210.938	88.0335	210.938	85.1741	210.938	88.2467	210.938	84.4769	210.938	88.2733	210.938	83.8071	210.938	88.102	210.938	83.1852	210.938	87.7413	210.938	82.6271	210.938	87.23	210.938	82.1477	210.938	86.6486	210.938	81.767	210.938	86.1196	210.938	81.5145	210.938	85.7672	210.938	81.4281	210.938	85.6384	210.938	81.5414	210.938	85.6688	210.938	81.8621	210.938	85.743	210.938	82.3587	210.938	85.7702	210.938	82.9676	210.938	85.7027	210.938	83.6145	210.938	85.5188	210.938	84.2336	210.938	85.2093	210.938	84.7757
218.262	87.0345	218.262	86.4447	218.262	87.5243	218.262	85.7905	218.262	87.8799	218.262	85.1061	218.262	88.0718	218.262	84.4222	218.262	88.0782	218.262	83.7636	218.262	87.8892	218.262	83.15	218.262	87.5109	218.262	82.597	218.262	86.9709	218.262	82.1195	218.262	86.3246	218.262	81.7351	218.262	85.6591	218.262	81.465	218.262	85.0797	218.262	81.3317	218.262	84.6673	218.262	81.3509	218.262	84.4355	218.262	81.5232	218.262	84.3336	218.262	81.8292	218.262	84.2854	218.262	82.2314	218.262	84.2209	218.262	82.6821	218.262	84.0887	218.262	83.132	218.262	83.8615	218.262	83.5364
225.586	86.8271	225.586	86.1201	225.586	87.4145	225.586	85.3439	225.586	87.838	225.586	84.5505	225.586	88.0633	225.586	83.7862	225.586	88.0699	225.586	83.085	225.586	87.8566	225.586	82.4657	225.586	87.4494	225.586	81.9352	225.586	86.9096	225.586	81.4981	225.586	86.3343	225.586	81.1672	225.586	85.8324	225.586	80.9683	225.586	85.4694	225.586	80.9326	225.586	85.2261	225.586	81.0779	225.586	85.0304	225.586	81.3899	225.586	84.8279	225.586	81.8204	225.586	84.6104	225.586	82.3052	225.586	84.3884	225.586	82.7856	225.586	84.1592	225.586	83.2216	225.586	83.9022	225.586	83.5942
232.91	86.9901	232.91	86.223	232.91	87.6205	232.91	85.3743	232.91	88.0648	232.91	84.5	232.91	88.2821	232.91	83.6506	232.91	88.2442	232.91	82.8646	232.91	87.9419	232.91	82.1647	232.91	87.3953	232.91	81.5615	232.91	86.6701	232.91	81.0629	232.91	85.8978	232.91	80.6853	232.91	85.2678	232.91	80.4596	232.91	84.9308	232.91	80.4234	232.91	84.8676	232.91	80.599	232.91	84.9172	232.91	80.9712	232.91	84.9327	232.91	81.4846	232.91	84.8542	232.91	82.0655	232.91	84.6799	232.91	82.6488	232.91	84.4209	232.91	83.1918	232.91	84.0841	232.91	83.6731
241.699	86.8443	241.699	86.0034	241.699	87.5634	241.699	85.1069	241.699	88.1007	241.699	84.2185	241.699	88.4061	241.699	83.3885	241.699	88.4427	241.699	82.6446	241.699	88.1899	241.699	81.9895	241.699	87.6491	241.699	81.4106	241.699	86.8586	241.699	80.8974	241.699	85.9209	241.699	80.4623	241.699	85.0249	241.699	80.1558	241.699	84.3872	241.699	80.0599	241.699	84.0811	241.699	80.2446	241.699	83.9823	241.699	80.7052	241.699	83.9393	241.699	81.3479	241.699	83.8994	241.699	82.0411	241.699	83.8684	241.699	82.6742	241.699	83.8319	241.699	83.1805	241.699	83.7388	241.699	83.5333
250.488	86.4652	250.488	85.5126	250.488	87.2641	250.488	84.478	250.488	87.8509	250.488	83.4402	250.488	88.1812	250.488	82.4725	250.488	88.2257	250.488	81.6271	250.488	87.9718	250.488	80.9252	250.488	87.4301	250.488	80.3588	250.488	86.646	250.488	79.9073	250.488	85.7221	250.488	79.5616	250.488	84.8394	250.488	79.3475	250.488	84.2206	250.488	79.3315	250.488	83.9797	250.488	79.59	250.488	84.0177	250.488	80.1419	250.488	84.1393	250.488	80.9074	250.488	84.2134	250.488	81.7449	250.488	84.2012	250.488	82.5213	250.488	84.1051	250.488	83.1535	250.488	83.9193	250.488	83.6142
259.277	87.2774	259.277	86.4336	259.277	87.9839	259.277	85.5234	259.277	88.4875	259.277	84.6131	259.277	88.7323	259.277	83.7511	259.277	88.6761	259.277	82.9597	259.277	88.2946	259.277	82.2379	259.277	87.5894	259.277	81.572	259.277	86.6052	259.277	80.9477	259.277	85.4663	259.277	80.3626	259.277	84.4266	259.277	79.8448	259.277	83.813	259.277	79.4719	259.277	83.7387	259.277	79.3625	259.277	83.9745	259.277	79.6076	259.277	84.2359	259.277	80.1821	259.277	84.3784	259.277	80.9531	259.277	84.3546	259.277	81.774	259.277	84.1494	259.277	82.5471	259.277	83.765	259.277	83.2214
268.066	86.7754	268.066	85.76	268.066	87.7066	268.066	84.7795	268.066	88.4482	268.066	83.9356	268.066	88.9205	268.066	83.2714	268.066	89.0705	268.066	82.7584	268.066	88.8712	268.066	82.3223	268.066	88.3195	268.066	81.8834	268.066	87.4366	268.066	81.3842	268.066	86.2845	268.066	80.808	268.066	85.0214	268.066	80.2016	268.066	83.9603	268.066	79.7032	268.066	83.4281	268.066	79.5278	268.066	83.4163	268.066	79.8326	268.066	83.6282	268.066	80.5541	268.066	83.8362	268.066	81.4589	268.066	83.9626	268.066	82.3283	268.066	83.9797	268.066	83.0397	268.066	83.8537	268.066	83.5483
276.855	86.0157	276.855	85.2028	276.855	86.9118	276.855	84.5759	276.855	87.7486	276.855	84.1485	276.855	88.4006	276.855	83.8577	276.855	88.7862	276.855	83.6204	276.855	88.8681	276.855	83.3687	276.855	88.6461	276.855	83.0516	276.855	88.1464	276.855	82.6235	276.855	87.4136	276.855	82.0406	276.855	86.5244	276.855	81.273	276.855	85.629	276.855	80.3426	276.855	84.9489	276.855	79.4108	276.855	84.6368	276.855	78.877	276.855	84.6398	276.855	79.1824	276.855	84.7785	276.855	80.2577	276.855	84.878	276.855	81.6067	276.855	84.8039	276.855	82.846	276.855	84.4648	276.855	83.8141
287.109	86.5642	287.109	86.0997	287.109	87.0943	287.109	85.7144	287.109	87.6337	287.109	85.3868	287.109	88.1025	287.109	85.086	287.109	88.4279	287.109	84.7908	287.109	88.5679	287.109	84.4933	287.109	88.5169	287.109	84.189	287.109	88.2956	287.109	83.8652	287.109	87.936	287.109	83.4953	287.109	87.4828	287.109	83.0406	287.109	87.005	287.109	82.461	287.109	86.5721	287.109	81.7359	287.109	86.1972	287.109	80.907	287.109	85.8293	287.109	80.1496	287.109	85.4082	287.109	79.8056	287.109	84.8879	287.109	80.1666	287.109	84.2185	287.109	81.1208	287.109	83.3507	287.109	82.2806
297.363	87.093	297.363	86.6695	297.363	87.5445	297.363	86.2776	297.363	87.9745	297.363	85.8944	297.363	88.302	297.363	85.5022	297.363	88.4511	297.363	85.105	297.363	88.3822	297.363	84.7194	297.363	88.105	297.363	84.3518	297.363	87.6747	297.363	83.9876	297.363	87.1869	297.363	83.5992	297.363	86.7705	297.363	83.1655	297.363	86.5164	297.363	82.6879	297.363	86.3625	297.363	82.2009	297.363	86.1337	297.363	81.7745	297.363	85.7233	297.363	81.5	297.363	85.1692	297.363	81.4547	297.363	84.5655	297.363	81.6651	297.363	83.9519	297.363	82.0982	297.363	83.3184	297.363	82.679
307.617	87.7011	307.617	87.1886	307.617	88.1573	307.617	86.6239	307.617	88.5279	307.617	85.998	307.617	88.7648	307.617	85.3127	307.617	88.8217	307.617	84.5974	307.617	88.6723	307.617	83.9102	307.617	88.3139	307.617	83.3163	307.617	87.7638	307.617	82.8566	307.617	87.071	307.617	82.5282	307.617	86.3501	307.617	82.2919	307.617	85.7602	307.617	82.0956	307.617	85.3614	307.617	81.8978	307.617	85.0407	307.617	81.6824	307.617	84.6648	307.617	81.4666	307.617	84.2019	307.617	81.3027	307.617	83.6699	307.617	81.2714	307.617	83.0745	307.617	81.4509	307.617	82.4428	307.617	81.8632
319.336	87.0943	319.336	86.6443	319.336	87.505	319.336	86.156	319.336	87.8475	319.336	85.614	319.336	88.0727	319.336	85.0071	319.336	88.1308	319.336	84.3478	319.336	87.9889	319.336	83.6779	319.336	87.6332	319.336	83.0567	319.336	87.069	319.336	82.5352	319.336	86.3498	319.336	82.1361	319.336	85.6438	319.336	81.8565	319.336	85.2031	319.336	81.6887	319.336	85.0888	319.336	81.6372	319.336	85.0509	319.336	81.7107	319.336	84.8444	319.336	81.8978	319.336	84.4492	319.336	82.1564	319.336	83.992	319.336	82.4363	319.336	83.5841	319.336	82.7073	319.336	83.2517	319.336	82.9707
329.59	87.1804	329.59	86.706	329.59	87.6166	329.59	86.1938	329.59	87.9777	329.59	85.6241	329.59	88.2001	329.59	84.9851	329.59	88.2206	329.59	84.2895	329.59	88.0011	329.59	83.5746	329.59	87.5374	329.59	82.8866	329.59	86.8616	329.59	82.2629	329.59	86.0649	329.59	81.725	329.59	85.3309	329.59	81.2857	329.59	84.8647	329.59	80.9678	329.59	84.6758	329.59	80.8155	329.59	84.5646	329.59	80.8753	329.59	84.3792	329.59	81.1485	329.59	84.1235	329.59	81.5687	329.59	83.8497	329.59	82.0403	329.59	83.5659	329.59	82.492	329.59	83.2525	329.59	82.8964
341.309	87.1067	341.309	86.7305	341.309	87.4196	341.309	86.2635	341.309	87.6729	341.309	85.6767	341.309	87.8388	341.309	84.9639	341.309	87.8713	341.309	84.1588	341.309	87.7285	341.309	83.3369	341.309	87.3791	341.309	82.5898	341.309	86.7954	341.309	81.9768	341.309	85.9849	341.309	81.4905	341.309	85.1069	341.309	81.069	341.309	84.5349	341.309	80.6481	341.309	84.4862	341.309	80.2295	341.309	84.6518	341.309	79.9303	341.309	84.6391	341.309	79.9403	341.309	84.3695	341.309	80.351	341.309	83.976	341.309	81.0491	341.309	83.5634	341.309	81.829	341.309	83.1075	341.309	82.5364
353.027	87.5498	353.027	87.1883	353.027	87.8102	353.027	86.6949	353.027	87.9803	353.027	86.0424	353.027	88.04	353.027	85.2309	353.027	87.9462	353.027	84.3032	353.027	87.6546	353.027	83.3433	353.027	87.1334	353.027	82.4495	353.027	86.3688	353.027	81.6873	353.027	85.3951	353.027	81.0581	353.027	84.3905	353.027	80.5138	353.027	83.717	353.027	80.0055	353.027	83.5701	353.027	79.5308	353.027	83.6712	353.027	79.1573	353.027	83.7009	353.027	79.0064	353.027	83.6061	353.027	79.1902	353.027	83.4054	353.027	79.738	353.027	83.0234	353.027	80.5676	353.027	82.3809	353.027	81.5131
366.211	86.8685	366.211	86.5149	366.211	87.0844	366.211	86.0164	366.211	87.1926	366.211	85.3955	366.211	87.2228	366.211	84.6954	366.211	87.1843	366.211	83.9691	366.211	87.0617	366.211	83.2774	366.211	86.8156	366.211	82.6917	366.211	86.3928	366.211	82.2799	366.211	85.785	366.211	82.0695	366.211	85.1365	366.211	82.0086	366.211	84.7121	366.211	81.9746	366.211	84.53	366.211	81.847	366.211	84.2242	366.211	81.5887	366.211	83.5087	366.211	81.2798	366.211	82.547	366.211	81.0785	366.211	81.863	366.211	81.1049	366.211	81.6903	366.211	81.3274	366.211	81.6979	366.211	81.5798
379.395	87.5485	379.395	86.9097	379.395	87.9242	379.395	86.0311	379.395	88.0394	379.395	84.9607	379.395	87.9226	379.395	83.7732	379.395	87.6224	379.395	82.5696	379.395	87.1912	379.395	81.4679	379.395	86.6616	379.395	80.5799	379.395	86.0454	379.395	79.9828	379.395	85.3959	379.395	79.6991	379.395	84.8899	379.395	79.6946	379.395	84.7097	379.395	79.8913	379.395	84.6997	379.395	80.182	379.395	84.4257	379.395	80.445	379.395	83.6206	379.395	80.5742	379.395	82.4188	379.395	80.5179	379.395	81.2792	379.395	80.311	379.395	80.5414	379.395	80.0824	379.395	80.1496	379.395	79.9998
392.578	87.1526	392.578	86.473	392.578	87.6214	392.578	85.5505	392.578	87.9034	392.578	84.3629	392.578	88.0079	392.578	82.9333	392.578	87.9311	392.578	81.3787	392.578	87.6536	392.578	79.9277	392.578	87.1233	392.578	78.8255	392.578	86.2538	392.578	78.1662	392.578	85.041	392.578	77.8663	392.578	83.9173	392.578	77.7891	392.578	83.7923	392.578	77.8558	392.578	84.531	392.578	78.0697	392.578	84.9716	392.578	78.4254	392.578	84.5109	392.578	78.8149	392.578	83.1738	392.578	79.0808	392.578	81.4016	392.578	79.1284	392.578	79.8803	392.578	78.9917	392.578	79.0556	392.578	78.8625
405.762	87.7532	405.762	87.3516	405.762	87.8029	405.762	86.4858	405.762	87.6359	405.762	85.0618	405.762	87.4048	405.762	83.021	405.762	87.2341	405.762	80.4167	405.762	87.1491	405.762	77.619	405.762	87.0341	405.762	75.5264	405.762	86.6572	405.762	74.9879	405.762	85.7584	405.762	75.7837	405.762	84.2289	405.762	77.0277	405.762	82.6208	405.762	78.0251	405.762	82.416	405.762	78.5683	405.762	83.4585	405.762	78.8418	405.762	84.1738	405.762	79.1765	405.762	84.0156	405.762	79.6976	405.762	83.13	405.762	80.215	405.762	81.9591	405.762	80.522	405.762	81.0617	405.762	80.6817
420.41	88.3494	420.41	87.8292	420.41	88.3331	420.41	86.7486	420.41	87.8477	420.41	85.0993	420.41	87.052	420.41	82.9131	420.41	86.2122	420.41	80.3511	420.41	85.5991	420.41	77.8012	420.41	85.2766	420.41	75.7198	420.41	85.0315	420.41	74.2827	420.41	84.589	420.41	73.5971	420.41	83.9095	420.41	73.8275	420.41	83.4705	420.41	74.7706	420.41	83.9889	420.41	76.0308	420.41	85.0879	420.41	77.3068	420.41	85.7755	420.41	78.3838	420.41	85.6457	420.41	79.1489	420.41	84.7821	420.41	79.6407	420.41	83.4609	420.41	80.085	420.41	82.0205	420.41	80.8249
435.059	88.729	435.059	88.0423	435.059	88.8966	435.059	86.8847	435.059	88.5646	435.059	85.3597	435.059	87.8358	435.059	83.6388	435.059	86.8828	435.059	81.9737	435.059	85.8929	435.059	80.5989	435.059	85.0145	435.059	79.5397	435.059	84.3114	435.059	78.6694	435.059	83.7199	435.059	77.9668	435.059	83.1347	435.059	77.5191	435.059	82.6894	435.059	77.3841	435.059	82.8538	435.059	77.6531	435.059	83.6078	435.059	78.4077	435.059	84.1828	435.059	79.4692	435.059	84.0809	435.059	80.4633	435.059	83.3438	435.059	81.0929	435.059	82.3353	435.059	81.2871	435.059	81.5494	435.059	81.2814
451.172	88.1525	451.172	87.5089	451.172	88.4806	451.172	86.6117	451.172	88.4824	451.172	85.5599	451.172	88.1911	451.172	84.46	451.172	87.6543	451.172	83.3887	451.172	86.8913	451.172	82.3726	451.172	85.8726	451.172	81.4062	451.172	84.5241	451.172	80.4937	451.172	82.7432	451.172	79.6601	451.172	80.6142	451.172	78.9076	451.172	79.2429	451.172	78.2301	451.172	79.7783	451.172	77.7951	451.172	80.5353	451.172	78.0542	451.172	80.2426	451.172	79.2331	451.172	79.1908	451.172	80.8124	451.172	78.6023	451.172	82.0848	451.172	79.415	451.172	82.6201	451.172	80.9931	451.172	82.2352
465.82	88.669	465.82	88.0954	465.82	88.7553	465.82	87.0858	465.82	88.3764	465.82	85.7415	465.82	87.6447	465.82	84.2004	465.82	86.7524	465.82	82.645	465.82	85.9075	465.82	81.2912	465.82	85.2257	465.82	80.2641	465.82	84.6622	465.82	79.4913	465.82	84.0542	465.82	78.8606	465.82	83.2166	465.82	78.3786	465.82	82.0888	465.82	78.0599	465.82	81.0601	465.82	77.8484	465.82	80.8579	465.82	77.7821	465.82	81.2549	465.82	78.0643	465.82	81.389	465.82	78.7887	465.82	81.0504	465.82	79.6919	465.82	80.6595	465.82	80.377	465.82	80.5946	465.82	80.6374
483.398	89.3673	483.398	88.5465	483.398	89.579	483.398	87.1814	483.398	89.1904	483.398	85.4453	483.398	88.2605	483.398	83.6574	483.398	86.8897	483.398	82.2179	483.398	85.2836	483.398	81.3462	483.398	83.8587	483.398	80.901	483.398	83.0342	483.398	80.562	483.398	82.7507	483.398	80.0928	483.398	82.6344	483.398	79.48	483.398	82.5926	483.398	78.9778	483.398	83.0827	483.398	78.9408	483.398	84.1577	483.398	79.4142	483.398	84.89	483.398	80.0593	483.398	84.6614	483.398	80.5271	483.398	83.6089	483.398	80.7126	483.398	82.3693	483.398	80.7804	483.398	81.487	483.398	80.9923
499.512	89.2226	499.512	88.3663	499.512	89.5397	499.512	87.0537	499.512	89.3117	499.512	85.4668	499.512	88.584	499.512	83.863	499.512	87.4321	499.512	82.4716	499.512	85.9621	499.512	81.4365	499.512	84.3903	499.512	80.8806	499.512	83.1904	499.512	80.7809	499.512	82.832	499.512	80.7652	499.512	83.0894	499.512	80.332	499.512	83.3997	499.512	79.1947	499.512	83.676	499.512	77.6529	499.512	84.0689	499.512	77.1808	499.512	84.2085	499.512	78.5171	499.512	83.558	499.512	80.0314	499.512	82.0954	499.512	80.737	499.512	80.4529	499.512	80.5618	499.512	79.6117	499.512	79.9011
517.09	89.0304	517.09	88.4325	517.09	89.1667	517.09	87.4085	517.09	88.8334	517.09	86.0573	517.09	88.0732	517.09	84.585	517.09	87.0201	517.09	83.2791	517.09	85.8353	517.09	82.3806	517.09	84.561	517.09	81.904	517.09	83.1196	517.09	81.589	517.09	81.6016	517.09	81.085	517.09	80.9673	517.09	80.1366	517.09	82.2938	517.09	78.6326	517.09	84.188	517.09	76.6787	517.09	85.2295	517.09	75.1054	517.09	85.2116	517.09	75.6357	517.09	84.5136	517.09	77.7016	517.09	83.6804	517.09	79.5685	517.09	83.0145	517.09	80.8643	517.09	82.4461	517.09	81.7728
536.133	90.102	536.133	88.6969	536.133	90.8743	536.133	86.9655	536.133	90.8966	536.133	85.3138	536.133	90.1586	536.133	83.8937	536.133	88.7053	536.133	82.5206	536.133	86.7126	536.133	81.1528	536.133	84.5279	536.133	80.2401	536.133	82.2382	536.133	80.1792	536.133	79.2002	536.133	80.5282	536.133	77.2451	536.133	80.5672	536.133	80.9559	536.133	79.8407	536.133	83.9453	536.133	78.2057	536.133	84.8163	536.133	76.5089	536.133	84.2528	536.133	77.2944	536.133	83.7378	536.133	79.6637	536.133	83.8235	536.133	81.2137	536.133	83.2738	536.133	81.5624	536.133	82.0231	536.133	81.3952
555.176	88.9457	555.176	88.1691	555.176	89.4403	555.176	87.3024	555.176	89.4653	555.176	86.367	555.176	88.9018	555.176	85.148	555.176	87.7372	555.176	83.3734	555.176	86.1755	555.176	80.9011	555.176	84.673	555.176	77.8609	555.176	83.483	555.176	75.2023	555.176	82.032	555.176	75.1729	555.176	79.0833	555.176	77.0189	555.176	73.9262	555.176	78.2695	555.176	76.9523	555.176	78.1341	555.176	80.7418	555.176	76.3584	555.176	80.948	555.176	74.4928	555.176	78.6739	555.176	77.4195	555.176	76.2791	555.176	80.7962	555.176	77.135	555.176	82.2777	555.176	79.9572	555.176	81.943
574.219	89.1351	574.219	88.2562	574.219	89.7307	574.219	87.3629	574.219	89.7544	574.219	86.451	574.219	89.0568	574.219	85.2938	574.219	87.6267	574.219	83.7365	574.219	85.7068	574.219	81.8588	574.219	84.0706	574.219	79.9225	574.219	83.3208	574.219	78.1849	574.219	82.4061	574.219	76.9809	574.219	79.3704	574.219	77.0272	574.219	73.1748	574.219	78.1718	574.219	78.5168	574.219	79.0943	574.219	82.7993	574.219	78.9819	574.219	83.7056	574.219	77.8567	574.219	82.2939	574.219	77.2476	574.219	79.32	574.219	78.5549	574.219	76.6002	574.219	79.6168	574.219	77.1115	574.219	79.02
594.727	90.2103	594.727	89.7898	594.727	90.1912	594.727	88.7081	594.727	89.8763	594.727	86.8712	594.727	89.231	594.727	84.4653	594.727	88.1048	594.727	82.0103	594.727	86.2594	594.727	80.1106	594.727	83.5215	594.727	78.812	594.727	80.6141	594.727	77.5488	594.727	79.4423	594.727	76.148	594.727	79.1732	594.727	75.6392	594.727	78.5902	594.727	76.7763	594.727	79.9943	594.727	78.3099	594.727	81.7263	594.727	79.0457	594.727	82.0042	594.727	78.5375	594.727	81.9034	594.727	77.5938	594.727	82.6122	594.727	78.9655	594.727	83.6407	594.727	81.528	594.727	83.8561	594.727	83.1592
615.234	88.6578	615.234	88.0976	615.234	89.0921	615.234	87.3828	615.234	89.2328	615.234	86.3347	615.234	88.8774	615.234	84.8284	615.234	87.9066	615.234	82.9418	615.234	86.3458	615.234	80.9489	615.234	84.4866	615.234	79.1622	615.234	82.6709	615.234	77.9064	615.234	80.4895	615.234	77.3621	615.234	76.9703	615.234	77.2572	615.234	74.395	615.234	77.2481	615.234	76.4333	615.234	77.1386	615.234	77.9758	615.234	76.8853	615.234	78.2281	615.234	77.0267	615.234	77.7688	615.234	78.0751	615.234	77.619	615.234	79.1839	615.234	77.988	615.234	79.6439	615.234	78.7135	615.234	79.4464
637.207	90.6198	637.207	89.8407	637.207	90.7929	637.207	88.4608	637.207	90.3955	637.207	86.5628	637.207	89.4515	637.207	84.3733	637.207	87.9328	637.207	82.2521	637.207	85.8267	637.207	80.3866	637.207	83.4014	637.207	78.6679	637.207	81.5127	637.207	77.011	637.207	80.4445	637.207	75.4104	637.207	78.5705	637.207	74.2922	637.207	74.6348	637.207	74.7468	637.207	73.1374	637.207	76.2061	637.207	76.7325	637.207	77.0522	637.207	79.6214	637.207	76.8412	637.207	80.5908	637.207	76.8154	637.207	80.0938	637.207	78.5853	637.207	80.7187	637.207	80.8535	637.207	82.06	637.207	82.1652
659.18	89.4547	659.18	89.0808	659.18	89.4619	659.18	88.0969	659.18	89.2881	659.18	86.4624	659.18	88.8253	659.18	84.548	659.18	87.6995	659.18	83.0174	659.18	85.5958	659.18	81.9883	659.18	82.7712	659.18	80.958	659.18	80.7498	659.18	79.6272	659.18	80.4503	659.18	77.7794	659.18	80.1589	659.18	74.8245	659.18	79.4426	659.18	71.5898	659.18	79.4986	659.18	73.9514	659.18	80.6672	659.18	76.9733	659.18	81.715	659.18	77.4654	659.18	81.4503	659.18	76.2099	659.18	79.9323	659.18	78.2906	659.18	79.1203	659.18	81.4451	659.18	80.5392	659.18	82.0439
682.617	89.5423	682.617	88.9709	682.617	89.6272	682.617	87.7246	682.617	89.4771	682.617	85.9962	682.617	89.1103	682.617	84.3799	682.617	88.215	682.617	83.2183	682.617	86.3092	682.617	82.3562	682.617	83.2164	682.617	81.6175	682.617	79.4123	682.617	80.8608	682.617	76.3578	682.617	80.0982	682.617	78.5151	682.617	79.118	682.617	82.1407	682.617	77.0028	682.617	83.1246	682.617	74.0303	682.617	82.4706	682.617	76.4255	682.617	82.2203	682.617	79.2155	682.617	81.8719	682.617	79.3466	682.617	79.5918	682.617	79.0881	682.617	77.2215	682.617	80.4479	682.617	78.4395	682.617	80.4036
707.52	89.2724	707.52	88.6762	707.52	89.0266	707.52	87.2913	707.52	88.4033	707.52	85.5989	707.52	87.8165	707.52	83.8967	707.52	86.9099	707.52	81.9817	707.52	85.0848	707.52	79.8008	707.52	82.7499	707.52	77.9009	707.52	81.5782	707.52	77.0548	707.52	80.7926	707.52	77.3057	707.52	76.2769	707.52	77.6969	707.52	55.912	707.52	77.314	707.52	72.8729	707.52	75.5816	707.52	73.9952	707.52	73.8316	707.52	75.7368	707.52	75.6609	707.52	77.1432	707.52	76.2131	707.52	78.3299	707.52	74.452	707.52	79.9871	707.52	75.8336	707.52	80.5384	707.52	79.0618
732.422	89.0543	732.422	88.1726	732.422	89.2277	732.422	86.9045	732.422	88.7657	732.422	85.6383	732.422	87.9086	732.422	84.2891	732.422	86.6912	732.422	82.582	732.422	84.8214	732.422	80.6353	732.422	82.112	732.422	78.8389	732.422	79.5576	732.422	77.5447	732.422	78.5424	732.422	77.3048	732.422	77.6376	732.422	77.8786	732.422	77.0727	732.422	77.678	732.422	77.4152	732.422	75.16	732.422	78.6799	732.422	73.5417	732.422	80.5033	732.422	76.5563	732.422	81.0366	732.422	76.8741	732.422	79.3507	732.422	75.5609	732.422	78.9406	732.422	77.5481	732.422	80.602	732.422	80.4632
757.324	88.7328	757.324	88.2072	757.324	88.5021	757.324	86.8282	757.324	88.1816	757.324	85.3168	757.324	88.0485	757.324	84.2658	757.324	87.3237	757.324	83.3327	757.324	85.006	757.324	82.1011	757.324	80.8104	757.324	80.185	757.324	78.0107	757.324	77.2466	757.324	78.7064	757.324	75.3703	757.324	77.5232	757.324	77.6227	757.324	76.3477	757.324	79.3592	757.324	77.6866	757.324	78.2549	757.324	79.4312	757.324	73.883	757.324	80.6604	757.324	74.8289	757.324	80.8396	757.324	78.3725	757.324	77.4245	757.324	77.7117	757.324	74.7325	757.324	78.2927	757.324	78.4002	757.324	80.5426
785.156	89.1308	785.156	88.1263	785.156	88.8553	785.156	86.7312	785.156	87.5292	785.156	85.4853	785.156	86.4027	785.156	84.1496	785.156	86.0297	785.156	83.0563	785.156	85.0201	785.156	82.5236	785.156	82.3766	785.156	81.7024	785.156	79.0441	785.156	79.3487	785.156	77.7125	785.156	75.0752	785.156	75.1308	785.156	74.7541	785.156	77.5315	785.156	78.5055	785.156	79.4084	785.156	79.9269	785.156	78.3885	785.156	77.7386	785.156	77.9376	785.156	72.4702	785.156	77.1313	785.156	79.2942	785.156	75.9168	785.156	80.2179	785.156	78.0758	785.156	75.771	785.156	79.115	785.156	77.6516
811.523	87.3118	811.523	86.4823	811.523	87.7376	811.523	86.244	811.523	86.885	811.523	85.7905	811.523	85.2553	811.523	84.615	811.523	84.4586	811.523	83.1399	811.523	83.9475	811.523	81.5353	811.523	80.8996	811.523	79.6313	811.523	76.5372	811.523	78.3777	811.523	78.1877	811.523	77.4976	811.523	77.5752	811.523	74.8301	811.523	76.4598	811.523	71.0746	811.523	77.2018	811.523	76.4874	811.523	77.8776	811.523	77.8462	811.523	77.0717	811.523	71.6045	811.523	74.9265	811.523	74.8323	811.523	76.5084	811.523	77.7512	811.523	79.2234	811.523	75.0717	811.523	79.531	811.523	75.0208
840.82	87.5008	840.82	87.3679	840.82	87.6428	840.82	86.6631	840.82	87.2181	840.82	84.8829	840.82	86.0045	840.82	82.9475	840.82	84.6755	840.82	81.6658	840.82	84.0977	840.82	80.3702	840.82	82.2787	840.82	78.4876	840.82	77.6498	840.82	77.1046	840.82	77.2349	840.82	76.905	840.82	76.9395	840.82	75.4297	840.82	76.4767	840.82	70.7822	840.82	80.7104	840.82	75.3529	840.82	81.7432	840.82	79.1771	840.82	80.1548	840.82	77.0962	840.82	78.4242	840.82	69.3199	840.82	77.0968	840.82	78.2126	840.82	79.6269	840.82	78.3519	840.82	78.8478	840.82	75.851
870.117	86.9178	870.117	86.4483	870.117	87.8671	870.117	86.03	870.117	88.2173	870.117	84.7054	870.117	86.8803	870.117	82.9034	870.117	84.7658	870.117	81.4294	870.117	84.0092	870.117	80.4491	870.117	82.9737	870.117	79.4872	870.117	79.2448	870.117	77.9338	870.117	76.2368	870.117	77.7575	870.117	76.7258	870.117	78.9067	870.117	77.0796	870.117	77.412	870.117	77.6611	870.117	70.9339	870.117	75.6631	870.117	76.0561	870.117	72.409	870.117	77.2123	870.117	63.7729	870.117	71.5194	870.117	71.0123	870.117	76.4022	870.117	77.2461	870.117	79.3818	870.117	75.8752	870.117	75.8369
900.879	86.9301	900.879	87.4971	900.879	86.3434	900.879	86.7515	900.879	86.2064	900.879	84.9281	900.879	85.4091	900.879	83.6441	900.879	83.5312	900.879	83.0391	900.879	83.3193	900.879	81.8332	900.879	82.5756	900.879	79.2797	900.879	78.3029	900.879	75.3231	900.879	73.9991	900.879	75.2123	900.879	78.0479	900.879	77.7632	900.879	81.0369	900.879	78.008	900.879	78.0855	900.879	73.7272	900.879	71.4163	900.879	69.4545	900.879	72.8021	900.879	78.8122	900.879	76.392	900.879	76.8723	900.879	78.552	900.879	72.4983	900.879	72.8426	900.879	77.9762	900.879	56.0558	900.879	70.8814
933.105	88.0367	933.105	88.2673	933.105	88.0174	933.105	87.2717	933.105	88.03	933.105	84.8448	933.105	85.8842	933.105	82.2228	933.105	82.4216	933.105	81.5359	933.105	82.7781	933.105	82.5209	933.105	82.8587	933.105	82.6398	933.105	78.5366	933.105	80.505	933.105	78.2228	933.105	76.1796	933.105	74.2305	933.105	76.0684	933.105	77.2195	933.105	78.8998	933.105	79.7209	933.105	77.8533	933.105	76.3088	933.105	68.3727	933.105	73.7152	933.105	75.8801	933.105	65.0742	933.105	79.1754	933.105	77.6466	933.105	72.2857	933.105	80.4037	933.105	78.7466	933.105	73.7269	933.105	76.7838
965.332	87.8795	965.332	86.8615	965.332	87.9159	965.332	85.8828	965.332	87.4283	965.332	84.7409	965.332	86.8827	965.332	83.5101	965.332	84.9364	965.332	82.0705	965.332	83.7573	965.332	79.6102	965.332	83.0198	965.332	77.0711	965.332	78.5501	965.332	74.5697	965.332	71.1926	965.332	70.7948	965.332	68.5245	965.332	62.633	965.332	76.4413	965.332	72.6127	965.332	79.2204	965.332	78.5312	965.332	72.9858	965.332	76.4483	965.332	70.2949	965.332	72.6939	965.332	77.6043	965.332	79.4562	965.332	75.591	965.332	72.2872	965.332	76.8549	965.332	73.7489	965.332	75.967	965.332	78.7686
1,000.49	85.4017	1,000.49	87.0017	1,000.49	87.5543	1,000.49	87.7827	1,000.49	85.7098	1,000.49	87.0596	1,000.49	82.6283	1,000.49	82.4668	1,000.49	85.4441	1,000.49	73.8672	1,000.49	83.4173	1,000.49	79.5872	1,000.49	84.2322	1,000.49	80.7746	1,000.49	80.9495	1,000.49	80.2453	1,000.49	78.3129	1,000.49	79.61	1,000.49	76.5008	1,000.49	76.9747	1,000.49	75.7984	1,000.49	78.4535	1,000.49	80.0071	1,000.49	79.9258	1,000.49	82.8846	1,000.49	64.5358	1,000.49	82.8795	1,000.49	77.8947	1,000.49	79.2464	1,000.49	81.6868	1,000.49	73.5975	1,000.49	80.4744	1,000.49	75.7094	1,000.49	79.9511	1,000.49	78.7657	1,000.49	65.7176
1,035.64	88.2474	1,035.64	86.3581	1,035.64	88.6508	1,035.64	86.3288	1,035.64	85.4454	1,035.64	85.9957	1,035.64	82.8111	1,035.64	81.027	1,035.64	83.5286	1,035.64	75.4338	1,035.64	84.9407	1,035.64	77.206	1,035.64	85.1301	1,035.64	79.2581	1,035.64	80.7772	1,035.64	78.8984	1,035.64	76.1725	1,035.64	77.9114	1,035.64	78.0213	1,035.64	79.6778	1,035.64	78.9111	1,035.64	81.3675	1,035.64	74.5203	1,035.64	79.1104	1,035.64	72.1259	1,035.64	82.3604	1,035.64	81.5725	1,035.64	80.7276	1,035.64	75.3538	1,035.64	81.623	1,035.64	81.0124	1,035.64	70.8488	1,035.64	73.96	1,035.64	69.9234	1,035.64	77.8493	1,035.64	83.1261
1,072.27	88.2594	1,072.27	84.7621	1,072.27	89.365	1,072.27	87.4941	1,072.27	85.9351	1,072.27	88.4092	1,072.27	86.0431	1,072.27	85.4269	1,072.27	86.3116	1,072.27	80.4719	1,072.27	80.973	1,072.27	77.8536	1,072.27	79.3316	1,072.27	78.993	1,072.27	80.1636	1,072.27	76.564	1,072.27	78.0749	1,072.27	66.4152	1,072.27	75.9903	1,072.27	67.0288	1,072.27	75.6608	1,072.27	75.2158	1,072.27	77.7924	1,072.27	76.8321	1,072.27	65.2571	1,072.27	73.1201	1,072.27	77.1322	1,072.27	72.2422	1,072.27	80.7583	1,072.27	77.7333	1,072.27	80.6247	1,072.27	79.9226	1,072.27	73.6278	1,072.27	75.744	1,072.27	81.1246	1,072.27	75.8862
1,108.89	86.5838	1,108.89	84.8616	1,108.89	86.747	1,108.89	85.8689	1,108.89	85.9266	1,108.89	86.4443	1,108.89	86.7367	1,108.89	84.1901	1,108.89	87.3427	1,108.89	80.3762	1,108.89	84.901	1,108.89	78.6463	1,108.89	81.452	1,108.89	80.7998	1,108.89	78.2996	1,108.89	81.7194	1,108.89	74.7225	1,108.89	81.7947	1,108.89	67.9367	1,108.89	81.7637	1,108.89	79.8306	1,108.89	82.4903	1,108.89	83.2272	1,108.89	82.1704	1,108.89	80.0418	1,108.89	80.2369	1,108.89	70.2859	1,108.89	76.208	1,108.89	67.4358	1,108.89	71.6257	1,108.89	81.1412	1,108.89	75.4355	1,108.89	80.7089	1,108.89	80.8548	1,108.89	69.6215	1,108.89	70.1513
1,148.44	86.6807	1,148.44	86.2579	1,148.44	84.7229	1,148.44	84.872	1,148.44	86.0451	1,148.44	85.1159	1,148.44	86.1846	1,148.44	85.421	1,148.44	83.0695	1,148.44	83.7056	1,148.44	77.985	1,148.44	77.0498	1,148.44	82.4243	1,148.44	74.6729	1,148.44	83.6393	1,148.44	77.6301	1,148.44	79.4303	1,148.44	77.6183	1,148.44	74.9033	1,148.44	75.4899	1,148.44	72.2189	1,148.44	77.7405	1,148.44	74.9241	1,148.44	80.1617	1,148.44	75.2881	1,148.44	73.9255	1,148.44	81.6543	1,148.44	73.1851	1,148.44	77.6252	1,148.44	64.6118	1,148.44	70.8412	1,148.44	75.5236	1,148.44	75.4055	1,148.44	77.3485	1,148.44	76.8768	1,148.44	60.5338
1,189.45	88.1161	1,189.45	87.9052	1,189.45	83.5364	1,189.45	83.2795	1,189.45	84.9213	1,189.45	84.7503	1,189.45	83.5947	1,189.45	85.1834	1,189.45	81.1767	1,189.45	82.8561	1,189.45	82.602	1,189.45	76.2204	1,189.45	84.7064	1,189.45	72.5851	1,189.45	83.7096	1,189.45	78.5109	1,189.45	79.0663	1,189.45	80.8057	1,189.45	72.8821	1,189.45	81.3054	1,189.45	70.2628	1,189.45	77.6803	1,189.45	75.5603	1,189.45	78.2418	1,189.45	80.1438	1,189.45	74.5823	1,189.45	78.9248	1,189.45	70.666	1,189.45	72.6155	1,189.45	73.4783	1,189.45	72.0177	1,189.45	58.8642	1,189.45	74.5363	1,189.45	74.918	1,189.45	69.0401	1,189.45	73.2756
1,230.47	88.367	1,230.47	87.4031	1,230.47	86.2922	1,230.47	83.8402	1,230.47	84.3095	1,230.47	83.0645	1,230.47	82.1218	1,230.47	83.4803	1,230.47	78.3528	1,230.47	80.4273	1,230.47	79.1359	1,230.47	77.6389	1,230.47	83.783	1,230.47	78.6445	1,230.47	84.1901	1,230.47	79.9236	1,230.47	81.6199	1,230.47	80.0095	1,230.47	78.135	1,230.47	81.8049	1,230.47	74.8555	1,230.47	82.8779	1,230.47	66.9246	1,230.47	78.4815	1,230.47	76.1067	1,230.47	73.531	1,230.47	77.9873	1,230.47	63.6108	1,230.47	77.7838	1,230.47	78.0496	1,230.47	71.2568	1,230.47	76.1412	1,230.47	67.2201	1,230.47	75.6226	1,230.47	76.3458	1,230.47	71.4876
1,274.41	87.1077	1,274.41	85.6299	1,274.41	88.237	1,274.41	84.7282	1,274.41	84.4916	1,274.41	82.8415	1,274.41	81.313	1,274.41	80.9288	1,274.41	84.8988	1,274.41	83.2416	1,274.41	85.7896	1,274.41	85.062	1,274.41	83.6161	1,274.41	82.9751	1,274.41	82.9576	1,274.41	78.8936	1,274.41	80.8016	1,274.41	77.4569	1,274.41	75.065	1,274.41	78.5416	1,274.41	59.8588	1,274.41	79.5672	1,274.41	77.3272	1,274.41	77.6777	1,274.41	80.3961	1,274.41	80.8042	1,274.41	78.4716	1,274.41	73.4339	1,274.41	68.2625	1,274.41	62.0857	1,274.41	71.4509	1,274.41	40.8098	1,274.41	78.585	1,274.41	76.1654	1,274.41	68.8131	1,274.41	73.8786
1,319.82	86.0998	1,319.82	86.1503	1,319.82	87.1271	1,319.82	84.4661	1,319.82	85.8986	1,319.82	83.3438	1,319.82	82.6802	1,319.82	83.4381	1,319.82	81.1547	1,319.82	81.4244	1,319.82	81.6292	1,319.82	80.4388	1,319.82	85.631	1,319.82	82.6082	1,319.82	86.4807	1,319.82	83.8418	1,319.82	81.6583	1,319.82	83.7702	1,319.82	82.6509	1,319.82	84.0139	1,319.82	83.7481	1,319.82	85.2074	1,319.82	75.3389	1,319.82	83.3107	1,319.82	79.7834	1,319.82	78.586	1,319.82	68.9773	1,319.82	60.8929	1,319.82	80.2017	1,319.82	72.7958	1,319.82	77.2711	1,319.82	76.6956	1,319.82	57.2257	1,319.82	73.9202	1,319.82	70.662	1,319.82	67.8702
1,366.7	86.2598	1,366.7	85.4475	1,366.7	87.9383	1,366.7	85.2595	1,366.7	85.434	1,366.7	82.3621	1,366.7	83.0448	1,366.7	81.1332	1,366.7	84.1979	1,366.7	83.2493	1,366.7	83.4486	1,366.7	84.4351	1,366.7	85.5203	1,366.7	83.5171	1,366.7	86.0551	1,366.7	83.626	1,366.7	83.1575	1,366.7	84.2805	1,366.7	80.8064	1,366.7	81.9959	1,366.7	76.3001	1,366.7	79.0793	1,366.7	74.4415	1,366.7	71.5161	1,366.7	71.0023	1,366.7	75.3127	1,366.7	76.1957	1,366.7	72.3937	1,366.7	61.9604	1,366.7	68.8939	1,366.7	71.0601	1,366.7	73.392	1,366.7	74.3886	1,366.7	61.3794	1,366.7	75.2328	1,366.7	70.9133
1,413.57	85.2115	1,413.57	85.8097	1,413.57	87.8171	1,413.57	83.7125	1,413.57	84.327	1,413.57	80.4462	1,413.57	80.7649	1,413.57	81.9145	1,413.57	84.5124	1,413.57	83.8448	1,413.57	83.7878	1,413.57	81.5499	1,413.57	83.9026	1,413.57	77.3334	1,413.57	84.0616	1,413.57	79.3251	1,413.57	80.1033	1,413.57	78.7977	1,413.57	76.5745	1,413.57	80.2427	1,413.57	78.865	1,413.57	81.6771	1,413.57	79.8761	1,413.57	79.9441	1,413.57	78.1535	1,413.57	76.3233	1,413.57	70.2884	1,413.57	67.1281	1,413.57	76.4947	1,413.57	72.9646	1,413.57	74.6113	1,413.57	74.6282	1,413.57	72.5556	1,413.57	65.9158	1,413.57	66.9853	1,413.57	71.8232
1,463.38	87.2321	1,463.38	84.513	1,463.38	88.2605	1,463.38	83.2455	1,463.38	84.1496	1,463.38	81.0671	1,463.38	81.4256	1,463.38	82.2012	1,463.38	83.0154	1,463.38	83.8227	1,463.38	83.2613	1,463.38	80.9618	1,463.38	85.3121	1,463.38	77.93	1,463.38	85.0823	1,463.38	73.4454	1,463.38	78.9777	1,463.38	69.7078	1,463.38	74.1791	1,463.38	74.3081	1,463.38	79.8317	1,463.38	70.4776	1,463.38	82.1239	1,463.38	73.9778	1,463.38	67.3418	1,463.38	77.3309	1,463.38	72.8328	1,463.38	75.5016	1,463.38	73.6399	1,463.38	72.961	1,463.38	70.5448	1,463.38	54.5355	1,463.38	77.654	1,463.38	68.5331	1,463.38	75.5054	1,463.38	64.5292
1,516.11	87.5432	1,516.11	84.3017	1,516.11	87.0133	1,516.11	81.7171	1,516.11	84.9446	1,516.11	81.9489	1,516.11	79.9901	1,516.11	82.4597	1,516.11	80.7274	1,516.11	81.1853	1,516.11	84.9429	1,516.11	82.4811	1,516.11	84.0806	1,516.11	83.0088	1,516.11	84.1358	1,516.11	82.0519	1,516.11	82.361	1,516.11	80.6912	1,516.11	74.0586	1,516.11	79.7676	1,516.11	73.3693	1,516.11	75.6083	1,516.11	78.4443	1,516.11	64.6856	1,516.11	74.4123	1,516.11	79.8854	1,516.11	64.5928	1,516.11	72.0204	1,516.11	76.4391	1,516.11	57.923	1,516.11	74.6093	1,516.11	59.2838	1,516.11	59.5999	1,516.11	77.3181	1,516.11	71.5722	1,516.11	64.7212
1,568.85	87.0759	1,568.85	85.8432	1,568.85	87.3858	1,568.85	81.8545	1,568.85	83.2938	1,568.85	80.7746	1,568.85	79.715	1,568.85	82.428	1,568.85	79.9115	1,568.85	83.0645	1,568.85	81.8013	1,568.85	81.3628	1,568.85	85.6203	1,568.85	75.7756	1,568.85	84.5196	1,568.85	75.1231	1,568.85	75.7919	1,568.85	73.2292	1,568.85	70.8079	1,568.85	60.1353	1,568.85	74.2369	1,568.85	75.3606	1,568.85	76.3157	1,568.85	67.0108	1,568.85	67.2254	1,568.85	70.6231	1,568.85	74.4601	1,568.85	73.1891	1,568.85	69.7438	1,568.85	56.9589	1,568.85	72.8417	1,568.85	70.1728	1,568.85	71.0146	1,568.85	56.7722	1,568.85	77.1765	1,568.85	67.5919
1,624.51	87.5779	1,624.51	84.5093	1,624.51	84.2693	1,624.51	82.2212	1,624.51	81.7193	1,624.51	78.8409	1,624.51	81.3587	1,624.51	79.14	1,624.51	77.6217	1,624.51	85.0299	1,624.51	84.0986	1,624.51	82.8658	1,624.51	85.8383	1,624.51	71.8787	1,624.51	80.2651	1,624.51	75.9528	1,624.51	73.07	1,624.51	79.4349	1,624.51	64.371	1,624.51	79.1899	1,624.51	74.6169	1,624.51	77.984	1,624.51	77.0255	1,624.51	65.3557	1,624.51	69.6456	1,624.51	70.4862	1,624.51	66.3703	1,624.51	74.9684	1,624.51	70.7729	1,624.51	69.0322	1,624.51	70.5417	1,624.51	64.739	1,624.51	64.52	1,624.51	61.4143	1,624.51	66.7981	1,624.51	71.5426
1,681.64	86.2925	1,681.64	84.2392	1,681.64	83.3512	1,681.64	82.5102	1,681.64	79.9424	1,681.64	78.7328	1,681.64	77.2467	1,681.64	79.7322	1,681.64	81.8448	1,681.64	82.073	1,681.64	82.5874	1,681.64	81.6622	1,681.64	82.8739	1,681.64	80.4177	1,681.64	82.7325	1,681.64	81.9635	1,681.64	72.5115	1,681.64	81.6094	1,681.64	71.2315	1,681.64	81.513	1,681.64	78.5151	1,681.64	77.7618	1,681.64	78.2449	1,681.64	78.492	1,681.64	75.6793	1,681.64	75.0137	1,681.64	74.8712	1,681.64	70.5082	1,681.64	71.6841	1,681.64	67.0008	1,681.64	69.4273	1,681.64	72.0761	1,681.64	63.5243	1,681.64	63.485	1,681.64	71.0726	1,681.64	73.2216
1,741.7	86.4417	1,741.7	85.0666	1,741.7	84.1753	1,741.7	79.3274	1,741.7	81.1164	1,741.7	78.2542	1,741.7	79.5689	1,741.7	80.1597	1,741.7	82.7747	1,741.7	81.1585	1,741.7	82.2574	1,741.7	80.1188	1,741.7	82.5471	1,741.7	79.9128	1,741.7	83.8481	1,741.7	80.6039	1,741.7	76.2142	1,741.7	74.6364	1,741.7	62.8969	1,741.7	72.4147	1,741.7	75.8966	1,741.7	75.8027	1,741.7	77.9893	1,741.7	75.1366	1,741.7	72.7598	1,741.7	70.944	1,741.7	53.3531	1,741.7	58.3828	1,741.7	75.436	1,741.7	57.6854	1,741.7	70.159	1,741.7	60.8008	1,741.7	72.1781	1,741.7	69.7894	1,741.7	68.9945	1,741.7	66.214
1,803.22	86.6062	1,803.22	84.7708	1,803.22	85.4797	1,803.22	81.3702	1,803.22	82.1132	1,803.22	79.7502	1,803.22	79.7414	1,803.22	79.8009	1,803.22	80.0256	1,803.22	81.9122	1,803.22	82.2275	1,803.22	81.4972	1,803.22	84.8981	1,803.22	79.267	1,803.22	82.8257	1,803.22	76.1862	1,803.22	77.5749	1,803.22	75.1292	1,803.22	72.6515	1,803.22	75.3189	1,803.22	65.3298	1,803.22	75.2024	1,803.22	75.382	1,803.22	72.1181	1,803.22	70.0452	1,803.22	69.8655	1,803.22	59.4745	1,803.22	66.9612	1,803.22	62.6719	1,803.22	68.3382	1,803.22	63.9713	1,803.22	71.9136	1,803.22	68.7323	1,803.22	48.6782	1,803.22	72.5569	1,803.22	74.8404
1,866.21	86.0626	1,866.21	85.596	1,866.21	85.2997	1,866.21	81.5672	1,866.21	81.4945	1,866.21	77.0276	1,866.21	75.4904	1,866.21	77.714	1,866.21	81.5854	1,866.21	79.9877	1,866.21	83.4973	1,866.21	78.4739	1,866.21	84.7775	1,866.21	78.216	1,866.21	84.3533	1,866.21	81.8457	1,866.21	79.5754	1,866.21	79.1879	1,866.21	74.9581	1,866.21	76.661	1,866.21	74.7859	1,866.21	77.9998	1,866.21	71.2058	1,866.21	71.49	1,866.21	75.2628	1,866.21	70.0612	1,866.21	65.8995	1,866.21	74.004	1,866.21	57.8726	1,866.21	65.9542	1,866.21	65.5346	1,866.21	70.4906	1,866.21	65.4266	1,866.21	68.7807	1,866.21	70.9644	1,866.21	60.6594
1,932.13	85.6186	1,932.13	85.0382	1,932.13	81.8767	1,932.13	82.283	1,932.13	74.2154	1,932.13	78.8803	1,932.13	78.0683	1,932.13	79.2332	1,932.13	81.2505	1,932.13	80.7837	1,932.13	81.8907	1,932.13	81.2474	1,932.13	80.1115	1,932.13	81.3137	1,932.13	81.537	1,932.13	76.8663	1,932.13	79.0359	1,932.13	69.669	1,932.13	76.1973	1,932.13	69.0639	1,932.13	64.7227	1,932.13	71.8336	1,932.13	77.6583	1,932.13	72.1292	1,932.13	73.1035	1,932.13	71.6176	1,932.13	66.3771	1,932.13	55.7626	1,932.13	57.5477	1,932.13	68.5401	1,932.13	60.73	1,932.13	68.2877	1,932.13	65.5224	1,932.13	69.4706	1,932.13	64.8122	1,932.13	73.5705
1,999.51	85.1632	1,999.51	84.726	1,999.51	81.8333	1,999.51	81.1588	1,999.51	76.8	1,999.51	75.3775	1,999.51	78.0643	1,999.51	73.4146	1,999.51	81.3368	1,999.51	78.1775	1,999.51	83.0522	1,999.51	80.2217	1,999.51	83.5912	1,999.51	80.3126	1,999.51	79.7501	1,999.51	75.9037	1,999.51	78.0653	1,999.51	69.8224	1,999.51	67.3973	1,999.51	68.1815	1,999.51	72.7155	1,999.51	73.6696	1,999.51	72.664	1,999.51	60.2485	1,999.51	63.073	1,999.51	68.5583	1,999.51	66.7575	1,999.51	62.6915	1,999.51	63.7172	1,999.51	68.1476	1,999.51	62.0913	1,999.51	58.791	1,999.51	65.8858	1,999.51	60.8015	1,999.51	67.1322	1,999.51	69.6497
2,069.82	85.8147	2,069.82	85.0742	2,069.82	81.9103	2,069.82	81.0337	2,069.82	76.4162	2,069.82	77.8183	2,069.82	77.8187	2,069.82	74.9159	2,069.82	82.3433	2,069.82	79.0282	2,069.82	83.6353	2,069.82	80.6314	2,069.82	81.6147	2,069.82	79.4762	2,069.82	82.6269	2,069.82	75.9443	2,069.82	74.3182	2,069.82	73.4962	2,069.82	74.2602	2,069.82	68.1956	2,069.82	69.9399	2,069.82	69.7432	2,069.82	67.8113	2,069.82	64.6668	2,069.82	67.9337	2,069.82	63.193	2,069.82	64.7638	2,069.82	62.374	2,069.82	66.7213	2,069.82	64.4219	2,069.82	64.9162	2,069.82	65.4843	2,069.82	58.976	2,069.82	71.2897	2,069.82	67.1724	2,069.82	65.282
2,143.07	85.6139	2,143.07	85.6031	2,143.07	80.7164	2,143.07	81.1257	2,143.07	75.6279	2,143.07	75.4047	2,143.07	77.9553	2,143.07	73.0692	2,143.07	82.3218	2,143.07	79.0813	2,143.07	83.736	2,143.07	80.8765	2,143.07	82.0272	2,143.07	79.6334	2,143.07	78.4753	2,143.07	79.0008	2,143.07	77.8071	2,143.07	77.8058	2,143.07	61.6625	2,143.07	75.0896	2,143.07	68.9945	2,143.07	68.123	2,143.07	68.6011	2,143.07	70.19	2,143.07	54.1176	2,143.07	65.4606	2,143.07	68.1394	2,143.07	63.3015	2,143.07	63.7508	2,143.07	57.5137	2,143.07	56.6171	2,143.07	67.154	2,143.07	58.7866	2,143.07	63.9542	2,143.07	63.2409	2,143.07	72.2869
2,219.24	84.7234	2,219.24	85.0543	2,219.24	78.7353	2,219.24	80.4387	2,219.24	74.3428	2,219.24	74.749	2,219.24	79.1073	2,219.24	72.9385	2,219.24	83.5101	2,219.24	78.6432	2,219.24	82.4514	2,219.24	80.6825	2,219.24	79.8939	2,219.24	79.746	2,219.24	81.1513	2,219.24	77.566	2,219.24	72.5233	2,219.24	69.7194	2,219.24	73.1178	2,219.24	67.6022	2,219.24	64.2316	2,219.24	70.8657	2,219.24	52.5817	2,219.24	59.6076	2,219.24	65.0834	2,219.24	64.5848	2,219.24	66.6271	2,219.24	58.1123	2,219.24	63.0907	2,219.24	65.3672	2,219.24	57.484	2,219.24	65.3198	2,219.24	56.5265	2,219.24	60.681	2,219.24	60.7999	2,219.24	70.7054
2,296.88	84.4823	2,296.88	84.3223	2,296.88	78.5546	2,296.88	80.0637	2,296.88	68.1788	2,296.88	75.3278	2,296.88	78.368	2,296.88	70.934	2,296.88	83.1577	2,296.88	79.4474	2,296.88	83.0386	2,296.88	79.9643	2,296.88	79.976	2,296.88	80.8919	2,296.88	76.8991	2,296.88	72.6024	2,296.88	75.6326	2,296.88	70.8843	2,296.88	65.5917	2,296.88	70.2858	2,296.88	64.4836	2,296.88	63.7718	2,296.88	62.8492	2,296.88	62.2319	2,296.88	58.3659	2,296.88	62.4622	2,296.88	67.4785	2,296.88	64.2419	2,296.88	63.2674	2,296.88	61.2258	2,296.88	56.2131	2,296.88	61.5421	2,296.88	59.2778	2,296.88	68.5171	2,296.88	56.2807	2,296.88	63.0449
2,378.91	85.2877	2,378.91	83.938	2,378.91	76.8796	2,378.91	79.1179	2,378.91	67.2358	2,378.91	77.3658	2,378.91	79.0743	2,378.91	69.0409	2,378.91	84.0648	2,378.91	80.929	2,378.91	81.589	2,378.91	81.5372	2,378.91	78.8184	2,378.91	76.7571	2,378.91	80.9424	2,378.91	78.5555	2,378.91	71.6025	2,378.91	75.5017	2,378.91	72.7974	2,378.91	68.2422	2,378.91	61.9704	2,378.91	70.354	2,378.91	59.8703	2,378.91	68.9562	2,378.91	68.7319	2,378.91	58.2537	2,378.91	64.6626	2,378.91	62.4725	2,378.91	65.178	2,378.91	62.3596	2,378.91	56.6404	2,378.91	64.246	2,378.91	45.7727	2,378.91	69.989	2,378.91	63.6203	2,378.91	69.1067
2,462.4	84.0994	2,462.4	84.8015	2,462.4	75.8318	2,462.4	79.3077	2,462.4	56.4937	2,462.4	69.993	2,462.4	79.487	2,462.4	72.859	2,462.4	83.5676	2,462.4	80.8619	2,462.4	81.8449	2,462.4	80.1948	2,462.4	79.2077	2,462.4	80.7304	2,462.4	77.3273	2,462.4	76.5619	2,462.4	75.1203	2,462.4	72.3845	2,462.4	63.8614	2,462.4	69.3671	2,462.4	67.9343	2,462.4	69.4712	2,462.4	61.4048	2,462.4	52.6274	2,462.4	59.7503	2,462.4	63.1354	2,462.4	68.083	2,462.4	50.9005	2,462.4	60.8894	2,462.4	53.8514	2,462.4	61.8575	2,462.4	64.0758	2,462.4	58.0405	2,462.4	64.5082	2,462.4	51.8372	2,462.4	71.467
2,548.83	84.048	2,548.83	83.3679	2,548.83	73.3214	2,548.83	81.1449	2,548.83	49.0465	2,548.83	77.6659	2,548.83	81.3514	2,548.83	73.103	2,548.83	83.7034	2,548.83	81.0891	2,548.83	80.8756	2,548.83	81.4285	2,548.83	77.5382	2,548.83	79.4737	2,548.83	79.5042	2,548.83	74.661	2,548.83	67.9087	2,548.83	71.3241	2,548.83	70.1211	2,548.83	67.8758	2,548.83	64.9287	2,548.83	62.5931	2,548.83	60.4238	2,548.83	63.3576	2,548.83	65.9279	2,548.83	60.5577	2,548.83	69.1068	2,548.83	61.6261	2,548.83	65.4186	2,548.83	56.8534	2,548.83	53.5471	2,548.83	60.9534	2,548.83	51.5975	2,548.83	60.8523	2,548.83	57.6187	2,548.83	69.9003
2,639.65	84.4761	2,639.65	83.6041	2,639.65	73.226	2,639.65	78.4781	2,639.65	66.4163	2,639.65	74.3343	2,639.65	81.7837	2,639.65	75.854	2,639.65	83.0804	2,639.65	82.1665	2,639.65	79.8465	2,639.65	82.1949	2,639.65	79.7876	2,639.65	78.0251	2,639.65	71.7512	2,639.65	79.442	2,639.65	72.5481	2,639.65	76.6167	2,639.65	47.507	2,639.65	74.8597	2,639.65	66.0373	2,639.65	58.2941	2,639.65	60.5795	2,639.65	60.7363	2,639.65	53.0341	2,639.65	56.4921	2,639.65	71.0873	2,639.65	55.9134	2,639.65	60.3309	2,639.65	61.4538	2,639.65	65.1889	2,639.65	61.3477	2,639.65	41.5131	2,639.65	66.9518	2,639.65	62.6103	2,639.65	62.8904
2,731.93	83.9345	2,731.93	83.0856	2,731.93	71.9225	2,731.93	79.2185	2,731.93	66.1012	2,731.93	73.754	2,731.93	83.0526	2,731.93	76.0066	2,731.93	82.3258	2,731.93	82.2813	2,731.93	79.1245	2,731.93	80.1811	2,731.93	76.2867	2,731.93	81.5189	2,731.93	74.8221	2,731.93	74.0227	2,731.93	71.3271	2,731.93	71.4414	2,731.93	70.1485	2,731.93	60.5735	2,731.93	51.85	2,731.93	69.3094	2,731.93	63.3514	2,731.93	57.4118	2,731.93	68.6282	2,731.93	58.7417	2,731.93	72.2702	2,731.93	49.5487	2,731.93	66.1711	2,731.93	54.4494	2,731.93	63.39	2,731.93	56.9384	2,731.93	59.7289	2,731.93	66.4928	2,731.93	63.0691	2,731.93	63.3162
2,828.61	84.7498	2,828.61	83.3469	2,828.61	70.7025	2,828.61	79.7786	2,828.61	72.7636	2,828.61	66.9238	2,828.61	83.3025	2,828.61	79.2825	2,828.61	80.7707	2,828.61	82.5591	2,828.61	78.5616	2,828.61	81.3463	2,828.61	77.3298	2,828.61	78.467	2,828.61	68.4654	2,828.61	79.2103	2,828.61	75.2617	2,828.61	75.7314	2,828.61	57.952	2,828.61	74.1526	2,828.61	57.5352	2,828.61	54.3408	2,828.61	65.4267	2,828.61	64.9856	2,828.61	56.3688	2,828.61	60.4964	2,828.61	70.517	2,828.61	58.5357	2,828.61	67.4959	2,828.61	54.2625	2,828.61	65.4925	2,828.61	63.1449	2,828.61	55.845	2,828.61	67.8312	2,828.61	60.4183	2,828.61	62.4921
2,928.22	84.9751	2,928.22	83.9252	2,928.22	71.8249	2,928.22	77.7299	2,928.22	75.1754	2,928.22	66.4827	2,928.22	84.4728	2,928.22	78.5177	2,928.22	79.3522	2,928.22	82.3214	2,928.22	78.9981	2,928.22	80.9428	2,928.22	73.9486	2,928.22	80.285	2,928.22	75.9186	2,928.22	77.4497	2,928.22	77.8362	2,928.22	73.3285	2,928.22	59.0922	2,928.22	68.4639	2,928.22	67.9063	2,928.22	70.3811	2,928.22	62.4835	2,928.22	54.6346	2,928.22	55.5476	2,928.22	55.3857	2,928.22	68.205	2,928.22	45.2359	2,928.22	57.721	2,928.22	62.1408	2,928.22	68.5693	2,928.22	59.745	2,928.22	61.9105	2,928.22	68.0258	2,928.22	62.4664	2,928.22	65.1369
3,030.76	84.6786	3,030.76	83.1516	3,030.76	67.2547	3,030.76	79.4549	3,030.76	76.2178	3,030.76	62.9854	3,030.76	85.2053	3,030.76	80.5169	3,030.76	79.2048	3,030.76	82.9526	3,030.76	78.8707	3,030.76	80.7822	3,030.76	73.3358	3,030.76	79.9396	3,030.76	77.9532	3,030.76	75.8755	3,030.76	72.1401	3,030.76	73.7384	3,030.76	70.9524	3,030.76	72.2564	3,030.76	65.9203	3,030.76	62.3352	3,030.76	65.9434	3,030.76	51.6428	3,030.76	64.1936	3,030.76	52.6764	3,030.76	67.0184	3,030.76	57.0711	3,030.76	66.3204	3,030.76	55.9415	3,030.76	70.9624	3,030.76	68.3818	3,030.76	57.9726	3,030.76	69.9338	3,030.76	54.2652	3,030.76	64.6855
3,137.7	85.657	3,137.7	84.5677	3,137.7	67.4762	3,137.7	77.6062	3,137.7	78.4323	3,137.7	64.9073	3,137.7	84.9939	3,137.7	79.709	3,137.7	77.9337	3,137.7	81.6322	3,137.7	78.5179	3,137.7	81.5406	3,137.7	74.3519	3,137.7	77.8642	3,137.7	78.0222	3,137.7	79.22	3,137.7	78.7817	3,137.7	74.5991	3,137.7	72.1591	3,137.7	68.7089	3,137.7	68.3869	3,137.7	67.3279	3,137.7	60.3189	3,137.7	53.4816	3,137.7	59.233	3,137.7	57.7551	3,137.7	66.3828	3,137.7	61.3621	3,137.7	67.0411	3,137.7	65.5974	3,137.7	68.4969	3,137.7	64.9535	3,137.7	63.2879	3,137.7	68.051	3,137.7	62.8861	3,137.7	65.2614
3,249.02	87.2072	3,249.02	84.3701	3,249.02	71.5739	3,249.02	79.0518	3,249.02	78.6491	3,249.02	72.9206	3,249.02	86.013	3,249.02	81.7661	3,249.02	77.247	3,249.02	81.8843	3,249.02	78.6748	3,249.02	80.3728	3,249.02	76.3801	3,249.02	81.4015	3,249.02	81.1083	3,249.02	75.1809	3,249.02	82.1834	3,249.02	72.5121	3,249.02	61.8668	3,249.02	66.7945	3,249.02	63.6752	3,249.02	64.8485	3,249.02	66.9624	3,249.02	53.9649	3,249.02	59.5673	3,249.02	56.6969	3,249.02	63.8664	3,249.02	60.8237	3,249.02	66.5635	3,249.02	62.686	3,249.02	67.9041	3,249.02	67.1245	3,249.02	61.4144	3,249.02	66.669	3,249.02	58.4002	3,249.02	63.8628
3,363.28	87.0957	3,363.28	84.387	3,363.28	74.0014	3,363.28	78.0535	3,363.28	80.1862	3,363.28	77.3934	3,363.28	85.846	3,363.28	82.144	3,363.28	78.5568	3,363.28	80.3547	3,363.28	77.3904	3,363.28	82.6551	3,363.28	79.7005	3,363.28	77.6592	3,363.28	83.4461	3,363.28	79.8175	3,363.28	80.0279	3,363.28	73.0794	3,363.28	72.9466	3,363.28	72.8922	3,363.28	64.9597	3,363.28	65.8515	3,363.28	62.8894	3,363.28	56.4657	3,363.28	46.6713	3,363.28	58.6761	3,363.28	63.9736	3,363.28	56.3329	3,363.28	61.3783	3,363.28	60.1718	3,363.28	67.5686	3,363.28	63.7988	3,363.28	61.283	3,363.28	67.0113	3,363.28	57.6596	3,363.28	59.154
3,481.93	88.6619	3,481.93	85.0012	3,481.93	75.7306	3,481.93	76.6669	3,481.93	80.5406	3,481.93	80.5733	3,481.93	85.7731	3,481.93	81.8356	3,481.93	78.9751	3,481.93	81.7937	3,481.93	75.7346	3,481.93	80.5017	3,481.93	81.8643	3,481.93	80.6928	3,481.93	82.9642	3,481.93	76.1074	3,481.93	80.6402	3,481.93	72.5871	3,481.93	66.7903	3,481.93	66.9885	3,481.93	64.5643	3,481.93	66.0114	3,481.93	67.4116	3,481.93	52.9782	3,481.93	60.0535	3,481.93	54.0692	3,481.93	53.7919	3,481.93	59.4972	3,481.93	56.7314	3,481.93	61.6912	3,481.93	62.8235	3,481.93	60.5958	3,481.93	63.7111	3,481.93	67.9426	3,481.93	59.9076	3,481.93	55.7797
3,604.98	88.1487	3,604.98	83.6914	3,604.98	80.2726	3,604.98	80.1168	3,604.98	81.8549	3,604.98	82.8478	3,604.98	85.388	3,604.98	81.5694	3,604.98	79.0986	3,604.98	81.2308	3,604.98	76.2888	3,604.98	82.1886	3,604.98	81.6332	3,604.98	78.0708	3,604.98	81.9029	3,604.98	77.8472	3,604.98	81.4029	3,604.98	71.2331	3,604.98	65.1218	3,604.98	63.992	3,604.98	68.014	3,604.98	63.0172	3,604.98	61.5821	3,604.98	57.8218	3,604.98	65.14	3,604.98	49.6899	3,604.98	55.87	3,604.98	55.7155	3,604.98	54.8324	3,604.98	57.7544	3,604.98	60.2305	3,604.98	61.497	3,604.98	66.0887	3,604.98	69.8747	3,604.98	61.3569	3,604.98	59.8704
3,732.42	87.6217	3,732.42	84.2242	3,732.42	80.1003	3,732.42	80.563	3,732.42	82.1203	3,732.42	82.9792	3,732.42	85.1639	3,732.42	81.7018	3,732.42	79.2455	3,732.42	81.799	3,732.42	76.438	3,732.42	80.3056	3,732.42	82.7609	3,732.42	79.5091	3,732.42	82.4972	3,732.42	75.5596	3,732.42	80.7548	3,732.42	71.2185	3,732.42	67.3832	3,732.42	70.3544	3,732.42	63.8619	3,732.42	59.3524	3,732.42	63.2755	3,732.42	57.4858	3,732.42	69.6945	3,732.42	48.8418	3,732.42	52.5936	3,732.42	60.4374	3,732.42	58.6982	3,732.42	62.5835	3,732.42	68.3477	3,732.42	64.9574	3,732.42	63.1414	3,732.42	67.6771	3,732.42	49.8181	3,732.42	68.5474
3,864.26	87.9402	3,864.26	85.1995	3,864.26	81.8556	3,864.26	83.2951	3,864.26	83.6022	3,864.26	83.6024	3,864.26	84.6358	3,864.26	82.31	3,864.26	80.4236	3,864.26	81.5379	3,864.26	77.355	3,864.26	81.4285	3,864.26	81.3322	3,864.26	77.6736	3,864.26	80.2569	3,864.26	75.5746	3,864.26	80.0997	3,864.26	71.9678	3,864.26	69.8872	3,864.26	64.3866	3,864.26	62.6648	3,864.26	66.2486	3,864.26	57.1395	3,864.26	56.6441	3,864.26	66.9488	3,864.26	60.2606	3,864.26	58.0787	3,864.26	55.1771	3,864.26	60.7387	3,864.26	64.0935	3,864.26	64.6645	3,864.26	67.6929	3,864.26	63.7393	3,864.26	65.6312	3,864.26	51.0349	3,864.26	66.9378
4,000.49	87.2421	4,000.49	85.8805	4,000.49	83.08	4,000.49	83.1548	4,000.49	84.1855	4,000.49	83.3029	4,000.49	84.6141	4,000.49	81.8957	4,000.49	80.0252	4,000.49	82.0593	4,000.49	75.1976	4,000.49	80.213	4,000.49	79.1738	4,000.49	76.9643	4,000.49	79.2072	4,000.49	75.9379	4,000.49	78.091	4,000.49	73.9983	4,000.49	70.6933	4,000.49	66.1463	4,000.49	58.5539	4,000.49	65.3598	4,000.49	47.2196	4,000.49	50.2008	4,000.49	66.4102	4,000.49	61.9247	4,000.49	57.2106	4,000.49	60.5284	4,000.49	63.9054	4,000.49	65.2257	4,000.49	60.1954	4,000.49	68.9586	4,000.49	62.4948	4,000.49	68.8854	4,000.49	64.8576	4,000.49	49.0108
4,141.11	88.1911	4,141.11	86.2688	4,141.11	83.8407	4,141.11	84.4249	4,141.11	84.5082	4,141.11	84.1596	4,141.11	84.0554	4,141.11	82.3165	4,141.11	80.9628	4,141.11	81.5606	4,141.11	78.2689	4,141.11	79.3984	4,141.11	80.4367	4,141.11	77.4729	4,141.11	75.7729	4,141.11	72.7621	4,141.11	74.5722	4,141.11	70.9486	4,141.11	72.3576	4,141.11	64.5133	4,141.11	54.9778	4,141.11	62.0857	4,141.11	56.4675	4,141.11	60.294	4,141.11	66.0553	4,141.11	56.5097	4,141.11	57.1338	4,141.11	62.9609	4,141.11	64.9839	4,141.11	65.061	4,141.11	60.3227	4,141.11	66.5424	4,141.11	64.5966	4,141.11	70.6415	4,141.11	61.5477	4,141.11	65.6846
4,287.6	87.6286	4,287.6	87.168	4,287.6	84.6155	4,287.6	84.3914	4,287.6	84.8196	4,287.6	84.014	4,287.6	83.7729	4,287.6	82.1468	4,287.6	80.91	4,287.6	82.1158	4,287.6	78.9407	4,287.6	78.1161	4,287.6	79.8756	4,287.6	75.4409	4,287.6	76.9239	4,287.6	77.0344	4,287.6	76.9646	4,287.6	71.0169	4,287.6	70.7735	4,287.6	67.4062	4,287.6	57.0092	4,287.6	64.9406	4,287.6	50.4155	4,287.6	59.2431	4,287.6	62.2595	4,287.6	66.9571	4,287.6	63.3316	4,287.6	61.8442	4,287.6	67.4086	4,287.6	65.6848	4,287.6	60.203	4,287.6	61.9523	4,287.6	59.8718	4,287.6	64.0335	4,287.6	64.3162	4,287.6	63.2398
4,438.48	87.527	4,438.48	86.9281	4,438.48	85.0687	4,438.48	85.1075	4,438.48	85.1057	4,438.48	85.0448	4,438.48	82.6806	4,438.48	83.0234	4,438.48	80.846	4,438.48	81.511	4,438.48	79.1398	4,438.48	78.4949	4,438.48	78.5082	4,438.48	77.8209	4,438.48	77.6618	4,438.48	76.8302	4,438.48	79.772	4,438.48	73.0387	4,438.48	67.2487	4,438.48	70.4238	4,438.48	60.1879	4,438.48	65.2168	4,438.48	65.7269	4,438.48	59.0212	4,438.48	67.729	4,438.48	62.3082	4,438.48	64.019	4,438.48	59.501	4,438.48	61.7986	4,438.48	64.2117	4,438.48	59.1214	4,438.48	66.4253	4,438.48	58.5203	4,438.48	66.3309	4,438.48	66.3935	4,438.48	57.2307
4,595.21	87.5566	4,595.21	87.7043	4,595.21	85.3952	4,595.21	85.2437	4,595.21	85.2762	4,595.21	84.7461	4,595.21	82.7243	4,595.21	82.4894	4,595.21	81.6263	4,595.21	80.4998	4,595.21	80.9654	4,595.21	79.1138	4,595.21	77.7193	4,595.21	78.6921	4,595.21	79.656	4,595.21	75.8593	4,595.21	80.3743	4,595.21	73.7071	4,595.21	66.9934	4,595.21	70.7504	4,595.21	56.0814	4,595.21	56.7791	4,595.21	69.3397	4,595.21	56.7228	4,595.21	63.3027	4,595.21	54.5328	4,595.21	62.7022	4,595.21	58.9977	4,595.21	66.6064	4,595.21	64.9624	4,595.21	62.6307	4,595.21	69.8031	4,595.21	62.45	4,595.21	64.6166	4,595.21	59.4798	4,595.21	66.3102
4,756.35	87.4459	4,756.35	87.3485	4,756.35	84.8685	4,756.35	85.0845	4,756.35	86.2582	4,756.35	85.4037	4,756.35	81.8942	4,756.35	83.1283	4,756.35	81.9724	4,756.35	79.4388	4,756.35	79.7	4,756.35	79.7512	4,756.35	79.0587	4,756.35	77.2485	4,756.35	82.1504	4,756.35	77.2776	4,756.35	82.0811	4,756.35	74.6061	4,756.35	63.1763	4,756.35	67.9442	4,756.35	52.2715	4,756.35	62.695	4,756.35	35.7663	4,756.35	56.7505	4,756.35	65.4696	4,756.35	67.455	4,756.35	64.1633	4,756.35	60.4013	4,756.35	59.8053	4,756.35	63.7008	4,756.35	62.0288	4,756.35	68.4895	4,756.35	59.9821	4,756.35	66.4371	4,756.35	64.0087	4,756.35	55.459
4,924.8	88.0972	4,924.8	87.8281	4,924.8	85.614	4,924.8	86.3328	4,924.8	85.6631	4,924.8	84.9336	4,924.8	82.0591	4,924.8	83.1007	4,924.8	82.2337	4,924.8	80.8751	4,924.8	79.359	4,924.8	78.8429	4,924.8	77.2589	4,924.8	77.7875	4,924.8	81.5706	4,924.8	76.6804	4,924.8	79.3429	4,924.8	73.6124	4,924.8	70.3134	4,924.8	69.0425	4,924.8	59.463	4,924.8	61.3211	4,924.8	56.3832	4,924.8	66.3116	4,924.8	56.2355	4,924.8	62.3232	4,924.8	62.1652	4,924.8	59.0018	4,924.8	57.9972	4,924.8	59.3738	4,924.8	64.8018	4,924.8	64.8494	4,924.8	47.6228	4,924.8	67.5521	4,924.8	60.3659	4,924.8	65.3373
5,097.66	87.6224	5,097.66	87.1165	5,097.66	84.9182	5,097.66	85.9654	5,097.66	86.3586	5,097.66	84.5251	5,097.66	81.9738	5,097.66	82.4071	5,097.66	82.3466	5,097.66	81.5902	5,097.66	78.9827	5,097.66	79.6354	5,097.66	74.6003	5,097.66	77.9374	5,097.66	79.5001	5,097.66	75.3354	5,097.66	79.4416	5,097.66	74.3144	5,097.66	72.555	5,097.66	70.7374	5,097.66	64.1895	5,097.66	62.8387	5,097.66	51.1989	5,097.66	60.1593	5,097.66	61.9493	5,097.66	67.4505	5,097.66	61.8228	5,097.66	61.6549	5,097.66	46.2375	5,097.66	58.5474	5,097.66	59.4262	5,097.66	66.4927	5,097.66	60.3944	5,097.66	63.7621	5,097.66	61.908	5,097.66	57.3791
5,277.83	88.217	5,277.83	87.5174	5,277.83	85.6879	5,277.83	86.4381	5,277.83	85.8383	5,277.83	84.7723	5,277.83	82.7259	5,277.83	82.3241	5,277.83	83.0456	5,277.83	80.6167	5,277.83	77.7463	5,277.83	79.8052	5,277.83	74.7571	5,277.83	78.8253	5,277.83	78.1846	5,277.83	76.8923	5,277.83	79.359	5,277.83	73.2262	5,277.83	73.1545	5,277.83	69.4835	5,277.83	64.9583	5,277.83	64.8422	5,277.83	56.7663	5,277.83	53.1883	5,277.83	59.9398	5,277.83	62.2005	5,277.83	63.8707	5,277.83	60.7349	5,277.83	63.0119	5,277.83	63.2703	5,277.83	56.1624	5,277.83	66.8261	5,277.83	56.918	5,277.83	62.8665	5,277.83	65.295	5,277.83	61.7355
5,463.87	87.7521	5,463.87	86.8255	5,463.87	85.2419	5,463.87	86.1489	5,463.87	86.3338	5,463.87	85.0676	5,463.87	83.0907	5,463.87	83.1926	5,463.87	83.0931	5,463.87	81.62	5,463.87	77.3717	5,463.87	80.039	5,463.87	76.2664	5,463.87	79.1355	5,463.87	75.8771	5,463.87	75.6114	5,463.87	77.1585	5,463.87	71.7277	5,463.87	70.4256	5,463.87	69.8098	5,463.87	51.275	5,463.87	60.8484	5,463.87	58.9722	5,463.87	62.3835	5,463.87	59.6619	5,463.87	63.3427	5,463.87	55.9935	5,463.87	53.3484	5,463.87	51.8932	5,463.87	64.525	5,463.87	63.0872	5,463.87	61.7443	5,463.87	59.6454	5,463.87	60.4232	5,463.87	64.9694	5,463.87	59.9709
5,657.23	87.0201	5,657.23	86.6966	5,657.23	86.0213	5,657.23	85.9694	5,657.23	86.1767	5,657.23	84.4809	5,657.23	83.4085	5,657.23	83.0246	5,657.23	83.0255	5,657.23	82.0866	5,657.23	78.3621	5,657.23	80.1725	5,657.23	75.7729	5,657.23	77.7298	5,657.23	76.3833	5,657.23	73.2783	5,657.23	75.7064	5,657.23	70.5274	5,657.23	71.3968	5,657.23	69.2708	5,657.23	55.002	5,657.23	56.1267	5,657.23	54.5826	5,657.23	63.81	5,657.23	63.2043	5,657.23	68.2992	5,657.23	55.745	5,657.23	52.267	5,657.23	54.466	5,657.23	61.1548	5,657.23	63.9084	5,657.23	66.0602	5,657.23	59.843	5,657.23	57.7775	5,657.23	61.7699	5,657.23	58.9125
5,856.45	86.8746	5,856.45	87.0274	5,856.45	86.2298	5,856.45	85.4499	5,856.45	85.4543	5,856.45	84.2511	5,856.45	83.8267	5,856.45	83.1914	5,856.45	83.731	5,856.45	81.4426	5,856.45	78.491	5,856.45	80.876	5,856.45	76.6168	5,856.45	77.4288	5,856.45	77.4781	5,856.45	73.3061	5,856.45	77.9405	5,856.45	71.6067	5,856.45	70.394	5,856.45	64.8821	5,856.45	49.049	5,856.45	62.3699	5,856.45	57.6673	5,856.45	63.4937	5,856.45	58.8861	5,856.45	66.7737	5,856.45	49.6303	5,856.45	35.421	5,856.45	56.8833	5,856.45	51.7959	5,856.45	62.5804	5,856.45	68.1314	5,856.45	63.7528	5,856.45	52.5315	5,856.45	59.7327	5,856.45	58.6618
6,062.99	86.3399	6,062.99	86.524	6,062.99	86.3289	6,062.99	85.322	6,062.99	85.4459	6,062.99	84.265	6,062.99	83.7153	6,062.99	82.5732	6,062.99	83.4623	6,062.99	82.7247	6,062.99	79.9622	6,062.99	79.9005	6,062.99	74.7865	6,062.99	76.7357	6,062.99	76.9856	6,062.99	73.619	6,062.99	79.3566	6,062.99	71.3998	6,062.99	71.2054	6,062.99	62.5684	6,062.99	57.8961	6,062.99	66.4699	6,062.99	53.5216	6,062.99	54.336	6,062.99	61.6248	6,062.99	60.9843	6,062.99	59.5875	6,062.99	52.9317	6,062.99	62.607	6,062.99	61.2887	6,062.99	61.0718	6,062.99	62.778	6,062.99	61.488	6,062.99	58.8697	6,062.99	55.5771	6,062.99	54.4384
6,276.86	86.3605	6,276.86	86.544	6,276.86	86.4561	6,276.86	85.3034	6,276.86	85.2157	6,276.86	84.3538	6,276.86	84.4918	6,276.86	83.0096	6,276.86	83.2479	6,276.86	81.3161	6,276.86	81.0822	6,276.86	79.7126	6,276.86	72.8062	6,276.86	76.7349	6,276.86	76.9474	6,276.86	71.9187	6,276.86	79.9137	6,276.86	71.1176	6,276.86	72.1987	6,276.86	63.9842	6,276.86	53.1041	6,276.86	66.7211	6,276.86	38.8417	6,276.86	60.2255	6,276.86	59.5977	6,276.86	63.5248	6,276.86	49.5552	6,276.86	59.4799	6,276.86	55.4084	6,276.86	61.146	6,276.86	63.8405	6,276.86	60.91	6,276.86	60.1004	6,276.86	59.4332	6,276.86	50.8858	6,276.86	55.2632
6,498.05	86.3956	6,498.05	86.2738	6,498.05	86.3869	6,498.05	85.3167	6,498.05	85.5292	6,498.05	84.1104	6,498.05	84.7176	6,498.05	83.0356	6,498.05	82.9415	6,498.05	81.7542	6,498.05	81.7395	6,498.05	78.8659	6,498.05	72.5511	6,498.05	76.1433	6,498.05	77.1843	6,498.05	71.3084	6,498.05	78.9129	6,498.05	71.4087	6,498.05	69.6683	6,498.05	66.7329	6,498.05	59.7214	6,498.05	66.1737	6,498.05	59.0632	6,498.05	62.2781	6,498.05	57.0258	6,498.05	65.7719	6,498.05	59.3516	6,498.05	58.0412	6,498.05	55.2634	6,498.05	63.8532	6,498.05	60.284	6,498.05	61.7345	6,498.05	57.3638	6,498.05	50.1607	6,498.05	44.2297	6,498.05	57.4699
6,726.56	86.6069	6,726.56	86.1539	6,726.56	86.8102	6,726.56	85.3465	6,726.56	85.4897	6,726.56	83.967	6,726.56	84.3517	6,726.56	82.8279	6,726.56	82.7174	6,726.56	81.4128	6,726.56	81.8174	6,726.56	79.1524	6,726.56	74.5321	6,726.56	75.7832	6,726.56	77.0777	6,726.56	73.2343	6,726.56	72.554	6,726.56	71.0016	6,726.56	67.2827	6,726.56	66.4903	6,726.56	62.4581	6,726.56	63.7688	6,726.56	57.7608	6,726.56	64.2197	6,726.56	63.4041	6,726.56	67.2648	6,726.56	54.849	6,726.56	54.5522	6,726.56	55.7353	6,726.56	57.0067	6,726.56	59.2227	6,726.56	59.2335	6,726.56	54.3673	6,726.56	54.6115	6,726.56	47.0964	6,726.56	52.5145
6,963.87	87.2737	6,963.87	86.5106	6,963.87	87.0431	6,963.87	85.8598	6,963.87	85.465	6,963.87	84.1891	6,963.87	84.5855	6,963.87	82.0995	6,963.87	82.3832	6,963.87	80.8133	6,963.87	81.4854	6,963.87	78.1538	6,963.87	75.0301	6,963.87	76.184	6,963.87	75.5373	6,963.87	71.5313	6,963.87	73.811	6,963.87	68.357	6,963.87	65.6185	6,963.87	65.3018	6,963.87	64.7694	6,963.87	64.0056	6,963.87	54.6816	6,963.87	61.9542	6,963.87	56.3578	6,963.87	63.937	6,963.87	58.6999	6,963.87	57.6307	6,963.87	57.4388	6,963.87	63.8227	6,963.87	53.6732	6,963.87	67.0041	6,963.87	56.6232	6,963.87	57.4498	6,963.87	48.6659	6,963.87	56.4648
7,209.96	87.7758	7,209.96	86.5812	7,209.96	87.0504	7,209.96	86.2119	7,209.96	85.7353	7,209.96	84.1771	7,209.96	84.5136	7,209.96	81.9581	7,209.96	82.0695	7,209.96	79.9062	7,209.96	80.3035	7,209.96	77.362	7,209.96	73.8068	7,209.96	75.9344	7,209.96	69.5956	7,209.96	70.9458	7,209.96	78.8106	7,209.96	66.4083	7,209.96	68.0298	7,209.96	64.4785	7,209.96	64.4265	7,209.96	50.4468	7,209.96	58.2346	7,209.96	64.2763	7,209.96	60.4597	7,209.96	66.6281	7,209.96	58.5308	7,209.96	49.0639	7,209.96	57.358	7,209.96	67.2176	7,209.96	50.3573	7,209.96	66.7239	7,209.96	55.4806	7,209.96	53.9248	7,209.96	55.6409	7,209.96	52.4706
7,464.84	87.5118	7,464.84	86.9985	7,464.84	87.2708	7,464.84	86.3457	7,464.84	85.8167	7,464.84	84.1656	7,464.84	84.2004	7,464.84	81.6615	7,464.84	81.7949	7,464.84	78.7905	7,464.84	80.4855	7,464.84	77.3319	7,464.84	74.4487	7,464.84	75.0183	7,464.84	72.3434	7,464.84	72.1856	7,464.84	78.7432	7,464.84	68.1207	7,464.84	64.9573	7,464.84	58.5643	7,464.84	53.512	7,464.84	62.9773	7,464.84	49.5383	7,464.84	62.2435	7,464.84	59.1971	7,464.84	66.223	7,464.84	55.3765	7,464.84	61.0027	7,464.84	56.3573	7,464.84	62.0167	7,464.84	55.1692	7,464.84	51.2429	7,464.84	53.809	7,464.84	56.8922	7,464.84	55.1411	7,464.84	60.136
7,727.05	87.7914	7,727.05	87.1863	7,727.05	87.6841	7,727.05	86.4091	7,727.05	85.8107	7,727.05	83.6795	7,727.05	84.1536	7,727.05	80.6807	7,727.05	81.4796	7,727.05	78.8641	7,727.05	80.0802	7,727.05	77.0298	7,727.05	76.3042	7,727.05	76.0438	7,727.05	74.8316	7,727.05	71.938	7,727.05	76.5053	7,727.05	69.8581	7,727.05	63.4143	7,727.05	67.9395	7,727.05	55.8944	7,727.05	64.202	7,727.05	50.9539	7,727.05	63.1371	7,727.05	43.3063	7,727.05	67.0976	7,727.05	57.0178	7,727.05	59.2542	7,727.05	55.0149	7,727.05	64.0174	7,727.05	55.0494	7,727.05	59.8434	7,727.05	55.6187	7,727.05	55.9689	7,727.05	55.6994	7,727.05	43.7277
7,999.51	87.838	7,999.51	87.3707	7,999.51	88.1378	7,999.51	86.6167	7,999.51	85.8886	7,999.51	83.5986	7,999.51	83.7088	7,999.51	80.4067	7,999.51	80.8659	7,999.51	78.2363	7,999.51	78.5495	7,999.51	77.154	7,999.51	75.9694	7,999.51	75.3475	7,999.51	74.0751	7,999.51	72.099	7,999.51	72.7614	7,999.51	63.9642	7,999.51	66.1833	7,999.51	61.8486	7,999.51	56.7016	7,999.51	53.6649	7,999.51	59.9856	7,999.51	65.7154	7,999.51	53.2975	7,999.51	61.2076	7,999.51	56.7113	7,999.51	64.0007	7,999.51	47.7687	7,999.51	67.914	7,999.51	59.2948	7,999.51	64.9719	7,999.51	49.7808	7,999.51	56.4964	7,999.51	54.1387	7,999.51	52.37
8,282.23	88.2714	8,282.23	87.6101	8,282.23	88.1773	8,282.23	86.9647	8,282.23	86.103	8,282.23	83.2777	8,282.23	83.5162	8,282.23	81.6031	8,282.23	80.615	8,282.23	78.0937	8,282.23	78.7965	8,282.23	77.1788	8,282.23	76.087	8,282.23	75.7313	8,282.23	72.1263	8,282.23	70.5898	8,282.23	74.1556	8,282.23	69.065	8,282.23	66.1252	8,282.23	65.9083	8,282.23	64.4864	8,282.23	56.0631	8,282.23	62.5182	8,282.23	64.6489	8,282.23	58.4996	8,282.23	70.3951	8,282.23	56.2382	8,282.23	65.1819	8,282.23	58.8671	8,282.23	67.2047	8,282.23	42.5036	8,282.23	63.7471	8,282.23	53.6671	8,282.23	47.9005	8,282.23	58.5116	8,282.23	40.3519
8,573.73	88.5676	8,573.73	88.1021	8,573.73	88.3706	8,573.73	87.2762	8,573.73	86.0386	8,573.73	83.6075	8,573.73	82.8577	8,573.73	81.8983	8,573.73	80.5284	8,573.73	78.8055	8,573.73	78.9034	8,573.73	77.4769	8,573.73	76.4278	8,573.73	75.4545	8,573.73	71.7397	8,573.73	71.9499	8,573.73	74.5918	8,573.73	67.4199	8,573.73	67.4378	8,573.73	51.0203	8,573.73	58.6947	8,573.73	58.4422	8,573.73	48.464	8,573.73	61.0262	8,573.73	58.8622	8,573.73	68.6529	8,573.73	42.0211	8,573.73	66.2897	8,573.73	57.295	8,573.73	62.9119	8,573.73	53.1152	8,573.73	59.253	8,573.73	53.4003	8,573.73	60.6322	8,573.73	51.7978	8,573.73	54.9572
8,876.95	88.782	8,876.95	88.6355	8,876.95	88.5924	8,876.95	87.3133	8,876.95	86.2673	8,876.95	84.2453	8,876.95	83.1542	8,876.95	82.0216	8,876.95	81.0937	8,876.95	79.8046	8,876.95	78.9055	8,876.95	77.9517	8,876.95	75.9628	8,876.95	76.3385	8,876.95	69.8685	8,876.95	71.9898	8,876.95	73.3659	8,876.95	65.9117	8,876.95	68.5341	8,876.95	66.5121	8,876.95	61.3919	8,876.95	64.5517	8,876.95	50.2197	8,876.95	65.5348	8,876.95	57.9358	8,876.95	65.9174	8,876.95	42.9323	8,876.95	69.0354	8,876.95	46.016	8,876.95	70.8347	8,876.95	55.9826	8,876.95	58.652	8,876.95	52.7366	8,876.95	54.7451	8,876.95	55.3978	8,876.95	54.7002
9,188.96	88.7602	9,188.96	88.6447	9,188.96	88.6195	9,188.96	87.4897	9,188.96	86.4439	9,188.96	84.6831	9,188.96	83.6656	9,188.96	83.0041	9,188.96	81.5301	9,188.96	80.5157	9,188.96	78.5092	9,188.96	78.1719	9,188.96	75.774	9,188.96	76.2931	9,188.96	71.8327	9,188.96	72.6943	9,188.96	72.2706	9,188.96	68.9002	9,188.96	67.1905	9,188.96	68.3276	9,188.96	62.1976	9,188.96	61.9013	9,188.96	58.7499	9,188.96	62.351	9,188.96	49.2072	9,188.96	70.6369	9,188.96	58.2796	9,188.96	70.3454	9,188.96	54.386	9,188.96	65.0738	9,188.96	51.8121	9,188.96	65.1445	9,188.96	48.1613	9,188.96	55.2028	9,188.96	58.4549	9,188.96	52.865
9,514.16	88.4737	9,514.16	88.3138	9,514.16	88.3805	9,514.16	87.3748	9,514.16	86.2575	9,514.16	85.075	9,514.16	83.7314	9,514.16	83.6097	9,514.16	81.5639	9,514.16	81.0972	9,514.16	78.4165	9,514.16	78.6969	9,514.16	75.2022	9,514.16	76.2284	9,514.16	70.5724	9,514.16	73.1014	9,514.16	69.6408	9,514.16	69.6283	9,514.16	64.0772	9,514.16	68.6666	9,514.16	62.6324	9,514.16	61.6404	9,514.16	54.6824	9,514.16	63.1368	9,514.16	54.1613	9,514.16	64.2076	9,514.16	55.5908	9,514.16	70.0511	9,514.16	53.7366	9,514.16	67.502	9,514.16	53.8142	9,514.16	57.9886	9,514.16	49.8963	9,514.16	54.7719	9,514.16	58.9346	9,514.16	48.3976
9,849.61	88.2514	9,849.61	88.0469	9,849.61	87.8796	9,849.61	86.9743	9,849.61	85.8287	9,849.61	85.1642	9,849.61	83.7653	9,849.61	84.1116	9,849.61	81.2531	9,849.61	80.2132	9,849.61	78.1915	9,849.61	77.7677	9,849.61	74.442	9,849.61	76.118	9,849.61	68.8085	9,849.61	71.7842	9,849.61	67.651	9,849.61	67.6085	9,849.61	63.2667	9,849.61	65.0685	9,849.61	63.8745	9,849.61	54.628	9,849.61	54.9047	9,849.61	63.4172	9,849.61	53.5667	9,849.61	68.4025	9,849.61	49.4001	9,849.61	71.2519	9,849.61	51.9624	9,849.61	67.6995	9,849.61	52.0022	9,849.61	61.6172	9,849.61	47.909	9,849.61	54.1317	9,849.61	56.483	9,849.61	51.3051
10,196.8	88.0897	10,196.8	87.8078	10,196.8	87.3423	10,196.8	86.7484	10,196.8	85.1465	10,196.8	84.7315	10,196.8	83.21	10,196.8	83.7411	10,196.8	80.9031	10,196.8	80.6015	10,196.8	77.4733	10,196.8	77.8992	10,196.8	73.2171	10,196.8	75.4768	10,196.8	65.1963	10,196.8	72.0002	10,196.8	68.4687	10,196.8	68.0038	10,196.8	65.9628	10,196.8	66.3969	10,196.8	66.3132	10,196.8	62.6948	10,196.8	57.4558	10,196.8	61.0356	10,196.8	53.1912	10,196.8	64.879	10,196.8	53.4293	10,196.8	72.0238	10,196.8	49.8913	10,196.8	66.0075	10,196.8	49.9366	10,196.8	68.7463	10,196.8	48.1684	10,196.8	40.5988	10,196.8	53.099	10,196.8	50.3077
10,555.7	87.7816	10,555.7	87.6028	10,555.7	86.786	10,555.7	86.5312	10,555.7	84.5884	10,555.7	84.3618	10,555.7	82.7517	10,555.7	83.5989	10,555.7	80.5973	10,555.7	80.2855	10,555.7	76.3653	10,555.7	77.7903	10,555.7	72.6072	10,555.7	74.9251	10,555.7	65.6793	10,555.7	71.8243	10,555.7	68.081	10,555.7	67.2443	10,555.7	67.5534	10,555.7	65.9034	10,555.7	65.4088	10,555.7	64.9269	10,555.7	51.7269	10,555.7	62.6657	10,555.7	51.6417	10,555.7	65.5784	10,555.7	48.1971	10,555.7	71.1656	10,555.7	50.3488	10,555.7	67.245	10,555.7	52.3906	10,555.7	63.7655	10,555.7	48.2253	10,555.7	54.4302	10,555.7	47.6054	10,555.7	51.5201
10,927.7	87.424	10,927.7	87.0945	10,927.7	85.8941	10,927.7	86.3439	10,927.7	84.3715	10,927.7	84.1997	10,927.7	82.5369	10,927.7	83.4018	10,927.7	79.692	10,927.7	80.0428	10,927.7	75.9434	10,927.7	77.4766	10,927.7	71.0248	10,927.7	74.8906	10,927.7	68.1735	10,927.7	71.9432	10,927.7	66.6611	10,927.7	66.6379	10,927.7	60.1379	10,927.7	62.9473	10,927.7	67.3891	10,927.7	66.1822	10,927.7	56.6749	10,927.7	55.7987	10,927.7	54.8826	10,927.7	64.4696	10,927.7	55.9033	10,927.7	72.571	10,927.7	50.1232	10,927.7	56.899	10,927.7	41.5383	10,927.7	67.4638	10,927.7	50.5812	10,927.7	53.644	10,927.7	31.2353	10,927.7	48.8822
11,313	87.0254	11,313	86.7825	11,313	85.2448	11,313	86.1025	11,313	83.8175	11,313	84.1574	11,313	81.6147	11,313	83.1949	11,313	78.3486	11,313	79.6367	11,313	75.0296	11,313	76.4883	11,313	71.0856	11,313	74.3286	11,313	68.9591	11,313	72.4239	11,313	59.6848	11,313	68.2033	11,313	64.5406	11,313	62.2338	11,313	64.3973	11,313	48.4899	11,313	54.8067	11,313	64.8617	11,313	53.3975	11,313	61.0984	11,313	41.1489	11,313	70.0549	11,313	46.9188	11,313	58.5127	11,313	50.1739	11,313	65.3694	11,313	44.3487	11,313	56.9465	11,313	47.8475	11,313	53.5957
11,712.9	86.5343	11,712.9	86.6716	11,712.9	85.2227	11,712.9	86.1007	11,712.9	83.6099	11,712.9	83.9858	11,712.9	81.1377	11,712.9	82.6166	11,712.9	77.4842	11,712.9	78.8538	11,712.9	74.13	11,712.9	75.5819	11,712.9	71.5538	11,712.9	74.0126	11,712.9	65.8725	11,712.9	70.8049	11,712.9	64.3524	11,712.9	64.7437	11,712.9	60.8002	11,712.9	63.0208	11,712.9	67.8537	11,712.9	65.2504	11,712.9	58.9803	11,712.9	55.0177	11,712.9	56.1604	11,712.9	63.5172	11,712.9	52.9874	11,712.9	69.4945	11,712.9	41.2464	11,712.9	52.0091	11,712.9	38.5332	11,712.9	64.1178	11,712.9	51.0257	11,712.9	49.1122	11,712.9	46.8577	11,712.9	48.0381
12,126	86.1757	12,126	86.5614	12,126	85.1961	12,126	86.0281	12,126	83.3992	12,126	83.8231	12,126	80.5358	12,126	82.2626	12,126	76.8815	12,126	77.8775	12,126	73.4436	12,126	75.0727	12,126	70.6505	12,126	72.9913	12,126	68.7177	12,126	69.9641	12,126	58.2032	12,126	66.125	12,126	57.8701	12,126	62.6071	12,126	64.7313	12,126	58.8304	12,126	53.7756	12,126	63.1446	12,126	45.2173	12,126	64.3155	12,126	35.8474	12,126	66.0351	12,126	45.6003	12,126	50.7189	12,126	50.1313	12,126	64.6732	12,126	35.8898	12,126	48.9087	12,126	51.5526	12,126	50.894
12,553.7	86.0754	12,553.7	86.2787	12,553.7	84.9559	12,553.7	85.6779	12,553.7	83.0183	12,553.7	83.3391	12,553.7	79.9257	12,553.7	81.6797	12,553.7	76.2847	12,553.7	76.7416	12,553.7	72.9575	12,553.7	73.9521	12,553.7	69.4336	12,553.7	71.3566	12,553.7	65.392	12,553.7	67.6942	12,553.7	57.6246	12,553.7	63.7345	12,553.7	56.1083	12,553.7	58.1634	12,553.7	62.3959	12,553.7	61.6788	12,553.7	51.1906	12,553.7	60.5743	12,553.7	49.593	12,553.7	62.6239	12,553.7	45.7637	12,553.7	65.7645	12,553.7	48.7907	12,553.7	59.8561	12,553.7	51.165	12,553.7	63.2212	12,553.7	49.3547	12,553.7	45.5291	12,553.7	51.1636	12,553.7	55.178
12,996.1	85.8464	12,996.1	86.1242	12,996.1	84.7222	12,996.1	85.3649	12,996.1	83.0594	12,996.1	82.9099	12,996.1	79.899	12,996.1	81.4051	12,996.1	75.895	12,996.1	75.7959	12,996.1	71.6543	12,996.1	73.5816	12,996.1	67.189	12,996.1	70.4221	12,996.1	62.5682	12,996.1	66.6037	12,996.1	54.186	12,996.1	61.9866	12,996.1	51.5385	12,996.1	53.7404	12,996.1	62.62	12,996.1	56.2365	12,996.1	52.0694	12,996.1	61.7409	12,996.1	50.1633	12,996.1	65.0199	12,996.1	38.9999	12,996.1	65.1614	12,996.1	51.2747	12,996.1	61.3885	12,996.1	52.8864	12,996.1	65.9151	12,996.1	49.4288	12,996.1	53.1078	12,996.1	48.2619	12,996.1	53.6974
13,454.6	85.7126	13,454.6	85.8776	13,454.6	84.8187	13,454.6	85.3259	13,454.6	82.8247	13,454.6	82.729	13,454.6	79.2649	13,454.6	80.8398	13,454.6	74.5902	13,454.6	75.255	13,454.6	70.3841	13,454.6	73.0948	13,454.6	64.6258	13,454.6	69.3841	13,454.6	61.9013	13,454.6	65.0836	13,454.6	57.5141	13,454.6	60.8742	13,454.6	49.0072	13,454.6	59.1253	13,454.6	61.7581	13,454.6	61.4644	13,454.6	53.8435	13,454.6	63.274	13,454.6	53.9932	13,454.6	61.4823	13,454.6	48.9667	13,454.6	65.6571	13,454.6	51.3512	13,454.6	60.7105	13,454.6	52.3658	13,454.6	65.1528	13,454.6	49.1888	13,454.6	53.7636	13,454.6	49.2699	13,454.6	48.5715
13,929.2	85.4577	13,929.2	85.3456	13,929.2	84.5284	13,929.2	84.971	13,929.2	82.5044	13,929.2	82.0242	13,929.2	78.4186	13,929.2	79.5083	13,929.2	73.2607	13,929.2	74.755	13,929.2	68.6266	13,929.2	71.9779	13,929.2	62.2408	13,929.2	68.1477	13,929.2	62.7016	13,929.2	63.6856	13,929.2	58.0935	13,929.2	58.4994	13,929.2	41.577	13,929.2	58.1856	13,929.2	60.8092	13,929.2	56.9281	13,929.2	50.035	13,929.2	57.8868	13,929.2	57.9719	13,929.2	60.901	13,929.2	51.3161	13,929.2	64.5089	13,929.2	50.9017	13,929.2	63.0947	13,929.2	53.7621	13,929.2	54.4119	13,929.2	42.6287	13,929.2	47.948	13,929.2	45.6379	13,929.2	54.9106
14,419.9	84.5378	14,419.9	84.3981	14,419.9	84.0308	14,419.9	84.4205	14,419.9	82.1922	14,419.9	81.7238	14,419.9	78.0199	14,419.9	79.1577	14,419.9	73.1092	14,419.9	75.3068	14,419.9	66.6155	14,419.9	71.7846	14,419.9	63.2394	14,419.9	67.4354	14,419.9	64.6647	14,419.9	63.9281	14,419.9	58.9946	14,419.9	57.4569	14,419.9	50.4002	14,419.9	48.3207	14,419.9	61.2853	14,419.9	63.4823	14,419.9	50.0557	14,419.9	64.0123	14,419.9	56.7911	14,419.9	57.3344	14,419.9	47.1813	14,419.9	65.9309	14,419.9	53.376	14,419.9	65.7749	14,419.9	52.0851	14,419.9	64.6961	14,419.9	40.5986	14,419.9	54.0179	14,419.9	46.566	14,419.9	52.3987
14,928.2	83.7922	14,928.2	83.5231	14,928.2	83.6833	14,928.2	84.2709	14,928.2	82.0622	14,928.2	81.2591	14,928.2	78.2066	14,928.2	79.1805	14,928.2	72.9837	14,928.2	75.7015	14,928.2	65.809	14,928.2	71.6545	14,928.2	66.3646	14,928.2	67.2264	14,928.2	66.2085	14,928.2	63.7299	14,928.2	60.8758	14,928.2	61.6459	14,928.2	48.0723	14,928.2	57.0642	14,928.2	60.9255	14,928.2	56.0731	14,928.2	52.8989	14,928.2	56.8848	14,928.2	59.5622	14,928.2	44.3304	14,928.2	47.3699	14,928.2	59.2414	14,928.2	53.8033	14,928.2	65.5311	14,928.2	52.7418	14,928.2	61.0696	14,928.2	44.2891	14,928.2	54.3869	14,928.2	50.7879	14,928.2	55.0002
15,455.6	83.5764	15,455.6	83.4552	15,455.6	84.0897	15,455.6	84.4134	15,455.6	82.3723	15,455.6	80.9081	15,455.6	78.7943	15,455.6	80.0025	15,455.6	74.5319	15,455.6	75.9172	15,455.6	69.1804	15,455.6	71.2348	15,455.6	66.881	15,455.6	67.8517	15,455.6	68.2581	15,455.6	65.2012	15,455.6	60.0912	15,455.6	62.6356	15,455.6	50.8387	15,455.6	51.9097	15,455.6	62.0654	15,455.6	61.0752	15,455.6	52.1942	15,455.6	53.9959	15,455.6	59.2827	15,455.6	60.6807	15,455.6	48.884	15,455.6	54.2048	15,455.6	49.7024	15,455.6	59.7333	15,455.6	47.6338	15,455.6	62.4341	15,455.6	46.9216	15,455.6	55.2835	15,455.6	54.2685	15,455.6	56.5318
16,000.5	83.6135	16,000.5	83.6947	16,000.5	84.2863	16,000.5	84.6668	16,000.5	82.2238	16,000.5	80.9273	16,000.5	79.3802	16,000.5	80.6003	16,000.5	75.5507	16,000.5	75.9956	16,000.5	70.9976	16,000.5	71.6556	16,000.5	68.03	16,000.5	67.7498	16,000.5	68.248	16,000.5	66.1172	16,000.5	61.9132	16,000.5	63.555	16,000.5	52.2858	16,000.5	56.7141	16,000.5	62.8436	16,000.5	63.2006	16,000.5	55.6098	16,000.5	54.0654	16,000.5	59.8566	16,000.5	62.8476	16,000.5	47.0165	16,000.5	59.2713	16,000.5	57.8322	16,000.5	60.2376	16,000.5	50.8833	16,000.5	61.8873	16,000.5	50.4934	16,000.5	58.3498	16,000.5	57.4282	16,000.5	59.3048
16,564.5	83.7964	16,564.5	84.0235	16,564.5	84.3439	16,564.5	84.7613	16,564.5	82.1758	16,564.5	81.2654	16,564.5	79.4032	16,564.5	80.757	16,564.5	75.2509	16,564.5	75.5925	16,564.5	70.925	16,564.5	70.5723	16,564.5	68.1025	16,564.5	67.6014	16,564.5	65.1987	16,564.5	64.8373	16,564.5	59.372	16,564.5	62.1402	16,564.5	53.2928	16,564.5	57.1201	16,564.5	62.7077	16,564.5	61.609	16,564.5	55.6337	16,564.5	46.7944	16,564.5	60.3515	16,564.5	63.789	16,564.5	38.3593	16,564.5	49.9579	16,564.5	59.5587	16,564.5	62.3279	16,564.5	51.166	16,564.5	61.9122	16,564.5	50.2757	16,564.5	54.613	16,564.5	59.4547	16,564.5	59.7478
17,148.9	84.5928	17,148.9	84.8428	17,148.9	84.6389	17,148.9	84.7237	17,148.9	82.5152	17,148.9	81.4015	17,148.9	79.2537	17,148.9	80.5496	17,148.9	73.3702	17,148.9	74.7662	17,148.9	69.0578	17,148.9	68.9266	17,148.9	66.4348	17,148.9	65.4986	17,148.9	63.8996	17,148.9	61.8203	17,148.9	56.8506	17,148.9	58.5276	17,148.9	51.3876	17,148.9	55.3515	17,148.9	61.8246	17,148.9	61.7109	17,148.9	52.5446	17,148.9	49.733	17,148.9	59.0422	17,148.9	65.3941	17,148.9	46.069	17,148.9	59.6232	17,148.9	57.8977	17,148.9	63.0586	17,148.9	47.4982	17,148.9	61.707	17,148.9	47.5435	17,148.9	52.2023	17,148.9	58.0639	17,148.9	59.0538
17,752.4	86.117	17,752.4	86.211	17,752.4	85.2968	17,752.4	85.0194	17,752.4	82.6159	17,752.4	81.2209	17,752.4	78.5383	17,752.4	79.6129	17,752.4	71.526	17,752.4	73.2218	17,752.4	67.169	17,752.4	67.3911	17,752.4	64.1255	17,752.4	62.2385	17,752.4	60.8018	17,752.4	56.8093	17,752.4	52.1657	17,752.4	57.1517	17,752.4	53.7901	17,752.4	44.0325	17,752.4	60.2707	17,752.4	62.9453	17,752.4	50.308	17,752.4	57.5927	17,752.4	60.3757	17,752.4	66.4384	17,752.4	47.2745	17,752.4	60.7465	17,752.4	57.8324	17,752.4	58.6022	17,752.4	46.8111	17,752.4	60.818	17,752.4	48.8333	17,752.4	52.0705	17,752.4	59.3211	17,752.4	58.9972
18,379.4	87.2838	18,379.4	87.235	18,379.4	85.941	18,379.4	85.3724	18,379.4	82.5112	18,379.4	80.8155	18,379.4	76.3625	18,379.4	78.6662	18,379.4	68.4019	18,379.4	71.2113	18,379.4	65.9463	18,379.4	63.1031	18,379.4	59.1017	18,379.4	54.5324	18,379.4	51.5191	18,379.4	49.768	18,379.4	50.1782	18,379.4	51.0381	18,379.4	49.1655	18,379.4	51.6251	18,379.4	59.9397	18,379.4	63.6986	18,379.4	47.4635	18,379.4	56.3551	18,379.4	54.0199	18,379.4	67.8745	18,379.4	50.0015	18,379.4	56.3204	18,379.4	50.9919	18,379.4	58.0558	18,379.4	51.541	18,379.4	55.3793	18,379.4	48.3432	18,379.4	54.406	18,379.4	51.3288	18,379.4	57.2538
19,026.9	87.6911	19,026.9	87.0637	19,026.9	85.8831	19,026.9	85.2848	19,026.9	81.7062	19,026.9	79.7153	19,026.9	74.3556	19,026.9	76.7171	19,026.9	64.3359	19,026.9	68.2491	19,026.9	62.8101	19,026.9	59.2219	19,026.9	53.4187	19,026.9	51.5923	19,026.9	47.3291	19,026.9	52.0606	19,026.9	55.344	19,026.9	44.7586	19,026.9	39.1198	19,026.9	36.3079	19,026.9	54.8132	19,026.9	60.7697	19,026.9	46.592	19,026.9	58.2859	19,026.9	55.3041	19,026.9	67.499	19,026.9	53.3715	19,026.9	57.6133	19,026.9	45.8907	19,026.9	67.2907	19,026.9	52.8272	19,026.9	60.7825	19,026.9	51.9157	19,026.9	51.0733	19,026.9	39.5976	19,026.9	53.569
19,697.8	87.2049	19,697.8	86.1155	19,697.8	85.157	19,697.8	84.5502	19,697.8	80.4664	19,697.8	78.0318	19,697.8	71.7476	19,697.8	73.8218	19,697.8	59.5541	19,697.8	64.6686	19,697.8	60.19	19,697.8	55.0793	19,697.8	52.3215	19,697.8	46.1802	19,697.8	51.1553	19,697.8	49.8582	19,697.8	57.6085	19,697.8	47.8089	19,697.8	45.1758	19,697.8	53.1028	19,697.8	51.3108	19,697.8	56.6708	19,697.8	51.8242	19,697.8	58.0821	19,697.8	54.5594	19,697.8	64.1589	19,697.8	51.7718	19,697.8	64.0452	19,697.8	49.781	19,697.8	69.8122	19,697.8	51.9222	19,697.8	64.1054	19,697.8	53.0589	19,697.8	50.7059	19,697.8	52.153	19,697.8	54.3478
19,999.5	87.0092	19,999.5	86.1599	19,999.5	84.3529	19,999.5	84.0307	19,999.5	79.8539	19,999.5	77.4019	19,999.5	70.1074	19,999.5	72.931	19,999.5	64.7674	19,999.5	59.0035	19,999.5	63.0072	19,999.5	54.9206	19,999.5	51.946	19,999.5	44.9457	19,999.5	48.8364	19,999.5	53.6877	19,999.5	53.1194	19,999.5	59.9653	19,999.5	54.0394	19,999.5	60.4375	19,999.5	50.1841	19,999.5	59.3743	19,999.5	49.2042	19,999.5	58.3077	19,999.5	37.089	19,999.5	67.2506	19,999.5	53.876	19,999.5	68.1095	19,999.5	48.4044	19,999.5	69.6181	19,999.5	49.4172	19,999.5	63.4431	19,999.5	31.2502	19,999.5	57.9561	19,999.5	33.3493	19,999.5	55.3543
