"SPL Horizontal"
"On-Axis"		"10°"		"-10°"		"20°"		"-20°"		"30°"		"-30°"		"40°"		"-40°"		"50°"		"-50°"		"60°"		"-60°"		"70°"		"-70°"		"80°"		"-80°"		"90°"		"-90°"		"100°"		"-100°"		"110°"		"-110°"		"120°"		"-120°"		"130°"		"-130°"		"140°"		"-140°"		"150°"		"-150°"		"160°"		"-160°"		"170°"		"-170°"		"180°"
"Frequency [Hz]"	"Sound Pessure Level [dB]   [0.3V at 1m]"	"Frequency [Hz]"	"Sound Pessure Level [dB]   [0.3V at 1m]"	"Frequency [Hz]"	"Sound Pessure Level [dB]   [0.3V at 1m]"	"Frequency [Hz]"	"Sound Pessure Level [dB]   [0.3V at 1m]"	"Frequency [Hz]"	"Sound Pessure Level [dB]   [0.3V at 1m]"	"Frequency [Hz]"	"Sound Pessure Level [dB]   [0.3V at 1m]"	"Frequency [Hz]"	"Sound Pessure Level [dB]   [0.3V at 1m]"	"Frequency [Hz]"	"Sound Pessure Level [dB]   [0.3V at 1m]"	"Frequency [Hz]"	"Sound Pessure Level [dB]   [0.3V at 1m]"	"Frequency [Hz]"	"Sound Pessure Level [dB]   [0.3V at 1m]"	"Frequency [Hz]"	"Sound Pessure Level [dB]   [0.3V at 1m]"	"Frequency [Hz]"	"Sound Pessure Level [dB]   [0.3V at 1m]"	"Frequency [Hz]"	"Sound Pessure Level [dB]   [0.3V at 1m]"	"Frequency [Hz]"	"Sound Pessure Level [dB]   [0.3V at 1m]"	"Frequency [Hz]"	"Sound Pessure Level [dB]   [0.3V at 1m]"	"Frequency [Hz]"	"Sound Pessure Level [dB]   [0.3V at 1m]"	"Frequency [Hz]"	"Sound Pessure Level [dB]   [0.3V at 1m]"	"Frequency [Hz]"	"Sound Pessure Level [dB]   [0.3V at 1m]"	"Frequency [Hz]"	"Sound Pessure Level [dB]   [0.3V at 1m]"	"Frequency [Hz]"	"Sound Pessure Level [dB]   [0.3V at 1m]"	"Frequency [Hz]"	"Sound Pessure Level [dB]   [0.3V at 1m]"	"Frequency [Hz]"	"Sound Pessure Level [dB]   [0.3V at 1m]"	"Frequency [Hz]"	"Sound Pessure Level [dB]   [0.3V at 1m]"	"Frequency [Hz]"	"Sound Pessure Level [dB]   [0.3V at 1m]"	"Frequency [Hz]"	"Sound Pessure Level [dB]   [0.3V at 1m]"	"Frequency [Hz]"	"Sound Pessure Level [dB]   [0.3V at 1m]"	"Frequency [Hz]"	"Sound Pessure Level [dB]   [0.3V at 1m]"	"Frequency [Hz]"	"Sound Pessure Level [dB]   [0.3V at 1m]"	"Frequency [Hz]"	"Sound Pessure Level [dB]   [0.3V at 1m]"	"Frequency [Hz]"	"Sound Pessure Level [dB]   [0.3V at 1m]"	"Frequency [Hz]"	"Sound Pessure Level [dB]   [0.3V at 1m]"	"Frequency [Hz]"	"Sound Pessure Level [dB]   [0.3V at 1m]"	"Frequency [Hz]"	"Sound Pessure Level [dB]   [0.3V at 1m]"	"Frequency [Hz]"	"Sound Pessure Level [dB]   [0.3V at 1m]"	"Frequency [Hz]"	"Sound Pessure Level [dB]   [0.3V at 1m]"	"Frequency [Hz]"	"Sound Pessure Level [dB]   [0.3V at 1m]"
20.5078	56.5782	20.5078	56.5869	20.5078	56.5602	20.5078	56.5866	20.5078	56.5333	20.5078	56.5775	20.5078	56.4982	20.5078	56.5605	20.5078	56.4558	20.5078	56.5365	20.5078	56.4074	20.5078	56.5071	20.5078	56.355	20.5078	56.4735	20.5078	56.3007	20.5078	56.4374	20.5078	56.2467	20.5078	56.3998	20.5078	56.1956	20.5078	56.3619	20.5078	56.1495	20.5078	56.3239	20.5078	56.1102	20.5078	56.2861	20.5078	56.0789	20.5078	56.2484	20.5078	56.0563	20.5078	56.2107	20.5078	56.0428	20.5078	56.1735	20.5078	56.0384	20.5078	56.1379	20.5078	56.043	20.5078	56.1052	20.5078	56.0563	20.5078	56.0775
21.9727	58.4695	21.9727	58.4484	21.9727	58.4766	21.9727	58.4139	21.9727	58.4697	21.9727	58.3664	21.9727	58.4489	21.9727	58.3071	21.9727	58.4144	21.9727	58.2371	21.9727	58.3666	21.9727	58.1581	21.9727	58.3061	21.9727	58.0724	21.9727	58.2339	21.9727	57.982	21.9727	58.1512	21.9727	57.8896	21.9727	58.0597	21.9727	57.7976	21.9727	57.9618	21.9727	57.7082	21.9727	57.8601	21.9727	57.624	21.9727	57.7581	21.9727	57.5472	21.9727	57.6598	21.9727	57.4803	21.9727	57.5695	21.9727	57.426	21.9727	57.4915	21.9727	57.3872	21.9727	57.4298	21.9727	57.3666	21.9727	57.3875	21.9727	57.3663
23.4375	60.0731	23.4375	60.0514	23.4375	60.0907	23.4375	60.0256	23.4375	60.1046	23.4375	59.9964	23.4375	60.1156	23.4375	59.9647	23.4375	60.1248	23.4375	59.9324	23.4375	60.1335	23.4375	59.9016	23.4375	60.1432	23.4375	59.875	23.4375	60.1555	23.4375	59.8553	23.4375	60.1715	23.4375	59.8454	23.4375	60.1919	23.4375	59.8478	23.4375	60.2169	23.4375	59.8641	23.4375	60.2452	23.4375	59.8952	23.4375	60.2744	23.4375	59.9405	23.4375	60.301	23.4375	59.9979	23.4375	60.3204	23.4375	60.0635	23.4375	60.3282	23.4375	60.132	23.4375	60.3205	23.4375	60.1974	23.4375	60.2955	23.4375	60.2535
24.9023	61.78	24.9023	61.7906	24.9023	61.7552	24.9023	61.7867	24.9023	61.7166	24.9023	61.7686	24.9023	61.6649	24.9023	61.7366	24.9023	61.6012	24.9023	61.6915	24.9023	61.527	24.9023	61.6342	24.9023	61.4441	24.9023	61.566	24.9023	61.3546	24.9023	61.4884	24.9023	61.2609	24.9023	61.403	24.9023	61.1656	24.9023	61.3117	24.9023	61.0713	24.9023	61.2165	24.9023	60.9809	24.9023	61.1199	24.9023	60.8969	24.9023	61.0246	24.9023	60.8223	24.9023	60.9337	24.9023	60.7601	24.9023	60.851	24.9023	60.7133	24.9023	60.7805	24.9023	60.6849	24.9023	60.7261	24.9023	60.6771	24.9023	60.6909
26.3672	62.8915	26.3672	62.8887	26.3672	62.8773	26.3672	62.8693	26.3672	62.8461	26.3672	62.8339	26.3672	62.7984	26.3672	62.7834	26.3672	62.735	26.3672	62.719	26.3672	62.657	26.3672	62.6424	26.3672	62.5663	26.3672	62.5556	26.3672	62.465	26.3672	62.4606	26.3672	62.3558	26.3672	62.3602	26.3672	62.2418	26.3672	62.2567	26.3672	62.1268	26.3672	62.1529	26.3672	62.0145	26.3672	62.0514	26.3672	61.9092	26.3672	61.9546	26.3672	61.8153	26.3672	61.8651	26.3672	61.737	26.3672	61.7856	26.3672	61.678	26.3672	61.7189	26.3672	61.641	26.3672	61.6684	26.3672	61.6273	26.3672	61.637
27.832	64.6757	27.832	64.6691	27.832	64.6677	27.832	64.6478	27.832	64.6454	27.832	64.6118	27.832	64.6096	27.832	64.5615	27.832	64.5612	27.832	64.4977	27.832	64.5012	27.832	64.4218	27.832	64.431	27.832	64.3356	27.832	64.3524	27.832	64.2417	27.832	64.2672	27.832	64.143	27.832	64.1779	27.832	64.0433	27.832	64.087	27.832	63.9465	27.832	63.9973	27.832	63.8566	27.832	63.9117	27.832	63.7773	27.832	63.8329	27.832	63.7115	27.832	63.7633	27.832	63.6613	27.832	63.7049	27.832	63.6278	27.832	63.6594	27.832	63.6114	27.832	63.6279	27.832	63.6117
29.2969	66.4236	29.2969	66.4045	29.2969	66.4263	29.2969	66.3692	29.2969	66.4126	29.2969	66.3182	29.2969	66.3828	29.2969	66.2522	29.2969	66.3373	29.2969	66.1725	29.2969	66.2768	29.2969	66.0806	29.2969	66.2023	29.2969	65.9786	29.2969	66.1151	29.2969	65.8689	29.2969	66.017	29.2969	65.7546	29.2969	65.9102	29.2969	65.639	29.2969	65.7974	29.2969	65.5259	29.2969	65.6819	29.2969	65.4195	29.2969	65.5675	29.2969	65.3238	29.2969	65.458	29.2969	65.2428	29.2969	65.3579	29.2969	65.18	29.2969	65.271	29.2969	65.1381	29.2969	65.2011	29.2969	65.119	29.2969	65.1512	29.2969	65.1234
30.7617	67.1313	30.7617	67.1182	30.7617	67.1322	30.7617	67.0932	30.7617	67.1204	30.7617	67.0574	30.7617	67.0961	30.7617	67.0117	30.7617	67.0596	30.7617	66.9575	30.7617	67.0118	30.7617	66.8959	30.7617	66.9537	30.7617	66.8285	30.7617	66.8868	30.7617	66.7566	30.7617	66.8128	30.7617	66.6815	30.7617	66.7336	30.7617	66.6049	30.7617	66.6515	30.7617	66.5285	30.7617	66.5687	30.7617	66.4543	30.7617	66.488	30.7617	66.3847	30.7617	66.4119	30.7617	66.3223	30.7617	66.3434	30.7617	66.2701	30.7617	66.2856	30.7617	66.231	30.7617	66.2411	30.7617	66.2074	30.7617	66.2124	30.7617	66.2009
32.2266	68.242	32.2266	68.2337	32.2266	68.2397	32.2266	68.2152	32.2266	68.2268	32.2266	68.1871	32.2266	68.2034	32.2266	68.1503	32.2266	68.1701	32.2266	68.1056	32.2266	68.1278	32.2266	68.0542	32.2266	68.0777	32.2266	67.9974	32.2266	68.0212	32.2266	67.9365	32.2266	67.9603	32.2266	67.8731	32.2266	67.8967	32.2266	67.8089	32.2266	67.8323	32.2266	67.7456	32.2266	67.7691	32.2266	67.6851	32.2266	67.7088	32.2266	67.6297	32.2266	67.6529	32.2266	67.5813	32.2266	67.6032	32.2266	67.5423	32.2266	67.5611	32.2266	67.5143	32.2266	67.5282	32.2266	67.4986	32.2266	67.5061	32.2266	67.4959
33.6914	69.3325	33.6914	69.337	33.6914	69.3153	33.6914	69.3288	33.6914	69.2858	33.6914	69.3082	33.6914	69.2446	33.6914	69.2756	33.6914	69.1928	33.6914	69.2319	33.6914	69.1318	33.6914	69.1781	33.6914	69.0631	33.6914	69.1153	33.6914	68.9887	33.6914	69.0449	33.6914	68.9107	33.6914	68.9688	33.6914	68.8313	33.6914	68.8889	33.6914	68.7528	33.6914	68.8075	33.6914	68.6775	33.6914	68.727	33.6914	68.6075	33.6914	68.6502	33.6914	68.5452	33.6914	68.5799	33.6914	68.4926	33.6914	68.5191	33.6914	68.4518	33.6914	68.4701	33.6914	68.4245	33.6914	68.4352	33.6914	68.4122	33.6914	68.4157
35.1562	70.4109	35.1562	70.416	35.1562	70.3902	35.1562	70.4057	35.1562	70.3543	35.1562	70.3801	35.1562	70.3039	35.1562	70.3399	35.1562	70.2402	35.1562	70.2861	35.1562	70.1647	35.1562	70.2198	35.1562	70.0795	35.1562	70.1426	35.1562	69.987	35.1562	70.0563	35.1562	69.8902	35.1562	69.9632	35.1562	69.7922	35.1562	69.8657	35.1562	69.6962	35.1562	69.767	35.1562	69.6054	35.1562	69.6703	35.1562	69.5228	35.1562	69.579	35.1562	69.4508	35.1562	69.4967	35.1562	69.3915	35.1562	69.4264	35.1562	69.3466	35.1562	69.3706	35.1562	69.3173	35.1562	69.3312	35.1562	69.3046	35.1562	69.3092
36.6211	71.4307	36.6211	71.4359	36.6211	71.4073	36.6211	71.4225	36.6211	71.3659	36.6211	71.3909	36.6211	71.3073	36.6211	71.3416	36.6211	71.2326	36.6211	71.2755	36.6211	71.1431	36.6211	71.1937	36.6211	71.0404	36.6211	71.0977	36.6211	70.9266	36.6211	70.9894	36.6211	70.8038	36.6211	70.8709	36.6211	70.6749	36.6211	70.7447	36.6211	70.5428	36.6211	70.6136	36.6211	70.4114	36.6211	70.481	36.6211	70.285	36.6211	70.3511	36.6211	70.1686	36.6211	70.2285	36.6211	70.0677	36.6211	70.1186	36.6211	69.9881	36.6211	70.027	36.6211	69.9347	36.6211	69.9592	36.6211	69.9113	36.6211	69.9197
38.0859	71.1858	38.0859	71.1708	38.0859	71.1946	38.0859	71.1497	38.0859	71.1969	38.0859	71.1234	38.0859	71.1929	38.0859	71.0927	38.0859	71.1832	38.0859	71.0588	38.0859	71.1683	38.0859	71.0231	38.0859	71.149	38.0859	70.9869	38.0859	71.126	38.0859	70.9517	38.0859	71.1003	38.0859	70.9188	38.0859	71.0728	38.0859	70.8894	38.0859	71.0442	38.0859	70.8644	38.0859	71.0153	38.0859	70.8446	38.0859	70.9866	38.0859	70.8305	38.0859	70.9587	38.0859	70.8224	38.0859	70.932	38.0859	70.8203	38.0859	70.9068	38.0859	70.8238	38.0859	70.8837	38.0859	70.8326	38.0859	70.8632	38.0859	70.8459
39.5508	72.7184	39.5508	72.7171	39.5508	72.7077	39.5508	72.704	39.5508	72.6853	39.5508	72.6793	39.5508	72.6519	39.5508	72.644	39.5508	72.6084	39.5508	72.5989	39.5508	72.5562	39.5508	72.5456	39.5508	72.497	39.5508	72.4854	39.5508	72.4326	39.5508	72.4202	39.5508	72.365	39.5508	72.3517	39.5508	72.2962	39.5508	72.2821	39.5508	72.2283	39.5508	72.2132	39.5508	72.1631	39.5508	72.1473	39.5508	72.1025	39.5508	72.0864	39.5508	72.0481	39.5508	72.0324	39.5508	72.0015	39.5508	71.9872	39.5508	71.9641	39.5508	71.9526	39.5508	71.9372	39.5508	71.9297	39.5508	71.9221	39.5508	71.9195
41.0156	73.5207	41.0156	73.5164	41.0156	73.5125	41.0156	73.4996	41.0156	73.4918	41.0156	73.471	41.0156	73.4592	41.0156	73.4312	41.0156	73.4158	41.0156	73.3816	41.0156	73.3628	41.0156	73.3236	41.0156	73.3018	41.0156	73.2588	41.0156	73.2346	41.0156	73.1892	41.0156	73.1635	41.0156	73.1167	41.0156	73.0904	41.0156	73.0435	41.0156	73.0176	41.0156	72.9718	41.0156	72.9473	41.0156	72.9036	41.0156	72.8814	41.0156	72.8411	41.0156	72.8221	41.0156	72.7863	41.0156	72.7709	41.0156	72.7411	41.0156	72.7295	41.0156	72.707	41.0156	72.6993	41.0156	72.6853	41.0156	72.6815	41.0156	72.6767
42.4805	74.3502	42.4805	74.3464	42.4805	74.3409	42.4805	74.3297	42.4805	74.3187	42.4805	74.3006	42.4805	74.2842	42.4805	74.26	42.4805	74.2383	42.4805	74.209	42.4805	74.1824	42.4805	74.149	42.4805	74.1181	42.4805	74.0819	42.4805	74.0473	42.4805	74.0094	42.4805	73.972	42.4805	73.9335	42.4805	73.8946	42.4805	73.8566	42.4805	73.8174	42.4805	73.7807	42.4805	73.7426	42.4805	73.7081	42.4805	73.6726	42.4805	73.6411	42.4805	73.6095	42.4805	73.5819	42.4805	73.5552	42.4805	73.5324	42.4805	73.5117	42.4805	73.4946	42.4805	73.4804	42.4805	73.4698	42.4805	73.4626	42.4805	73.459
43.9453	75.026	43.9453	75.0204	43.9453	75.0185	43.9453	75.0018	43.9453	74.9979	43.9453	74.9708	43.9453	74.9649	43.9453	74.9284	43.9453	74.9203	43.9453	74.8757	43.9453	74.8656	43.9453	74.8144	43.9453	74.8024	43.9453	74.7462	43.9453	74.7328	43.9453	74.6732	43.9453	74.6589	43.9453	74.5976	43.9453	74.5833	43.9453	74.5217	43.9453	74.5081	43.9453	74.4477	43.9453	74.4357	43.9453	74.3779	43.9453	74.3681	43.9453	74.3146	43.9453	74.3072	43.9453	74.2597	43.9453	74.2547	43.9453	74.2151	43.9453	74.2121	43.9453	74.1821	43.9453	74.1805	43.9453	74.1618	43.9453	74.1612	43.9453	74.1548
45.4102	75.9213	45.4102	75.9158	45.4102	75.9132	45.4102	75.8968	45.4102	75.8915	45.4102	75.8647	45.4102	75.8568	45.4102	75.8205	45.4102	75.81	45.4102	75.7653	45.4102	75.7521	45.4102	75.7006	45.4102	75.6849	45.4102	75.628	45.4102	75.6102	45.4102	75.5497	45.4102	75.5303	45.4102	75.4679	45.4102	75.4476	45.4102	75.3851	45.4102	75.3647	45.4102	75.3038	45.4102	75.2842	45.4102	75.2266	45.4102	75.2087	45.4102	75.156	45.4102	75.1405	45.4102	75.0943	45.4102	75.0817	45.4102	75.0437	45.4102	75.0342	45.4102	75.0058	45.4102	74.9996	45.4102	74.982	45.4102	74.9789	45.4102	74.9729
46.875	76.4797	46.875	76.4681	46.875	76.4794	46.875	76.4448	46.875	76.4672	46.875	76.4104	46.875	76.4432	46.875	76.3656	46.875	76.4081	46.875	76.3116	46.875	76.3627	46.875	76.2497	46.875	76.308	46.875	76.1815	46.875	76.2456	46.875	76.109	46.875	76.1771	46.875	76.0344	46.875	76.1045	46.875	75.96	46.875	76.0301	46.875	75.8881	46.875	75.9562	46.875	75.8213	46.875	75.885	46.875	75.7617	46.875	75.8191	46.875	75.7114	46.875	75.7603	46.875	75.6722	46.875	75.7108	46.875	75.6454	46.875	75.672	46.875	75.6318	46.875	75.6454	46.875	75.6318
48.3398	77.0221	48.3398	77.0183	48.3398	77.0156	48.3398	77.0045	48.3398	76.9993	48.3398	76.9808	48.3398	76.9737	48.3398	76.9481	48.3398	76.9399	48.3398	76.9076	48.3398	76.8991	48.3398	76.8606	48.3398	76.8527	48.3398	76.8088	48.3398	76.8022	48.3398	76.7542	48.3398	76.7493	48.3398	76.6986	48.3398	76.6957	48.3398	76.644	48.3398	76.6431	48.3398	76.5922	48.3398	76.5929	48.3398	76.5447	48.3398	76.5466	48.3398	76.5029	48.3398	76.5053	48.3398	76.4677	48.3398	76.4702	48.3398	76.4398	48.3398	76.4419	48.3398	76.4197	48.3398	76.4212	48.3398	76.4077	48.3398	76.4084	48.3398	76.4039
51.2695	78.6033	51.2695	78.5934	51.2695	78.5939	51.2695	78.5644	51.2695	78.5658	51.2695	78.5173	51.2695	78.5198	51.2695	78.4536	51.2695	78.4577	51.2695	78.3756	51.2695	78.3817	51.2695	78.286	51.2695	78.2946	51.2695	78.1881	51.2695	78.1993	51.2695	78.0855	51.2695	78.0993	51.2695	77.9818	51.2695	77.9977	51.2695	77.8806	51.2695	77.8979	51.2695	77.7851	51.2695	77.8027	51.2695	77.6981	51.2695	77.715	51.2695	77.6219	51.2695	77.637	51.2695	77.5581	51.2695	77.5706	51.2695	77.5078	51.2695	77.5172	51.2695	77.4719	51.2695	77.4781	51.2695	77.4507	51.2695	77.4538	51.2695	77.4446
52.7344	79.2225	52.7344	79.2186	52.7344	79.2069	52.7344	79.1953	52.7344	79.1722	52.7344	79.153	52.7344	79.1191	52.7344	79.0928	52.7344	79.0489	52.7344	79.0159	52.7344	78.9632	52.7344	78.9243	52.7344	78.864	52.7344	78.8202	52.7344	78.754	52.7344	78.7066	52.7344	78.6362	52.7344	78.5866	52.7344	78.5139	52.7344	78.4638	52.7344	78.3908	52.7344	78.342	52.7344	78.2707	52.7344	78.225	52.7344	78.1577	52.7344	78.1167	52.7344	78.0555	52.7344	78.0206	52.7344	77.968	52.7344	77.9401	52.7344	77.8981	52.7344	77.878	52.7344	77.8487	52.7344	77.8365	52.7344	77.8215	52.7344	77.8174
54.1992	79.6598	54.1992	79.6566	54.1992	79.6462	54.1992	79.6369	54.1992	79.6161	54.1992	79.6009	54.1992	79.5701	54.1992	79.5493	54.1992	79.5089	54.1992	79.4832	54.1992	79.4339	54.1992	79.4039	54.1992	79.3465	54.1992	79.3132	54.1992	79.2488	54.1992	79.2132	54.1992	79.1434	54.1992	79.1065	54.1992	79.0331	54.1992	78.9961	54.1992	78.9213	54.1992	78.8853	54.1992	78.8115	54.1992	78.7776	54.1992	78.7075	54.1992	78.6769	54.1992	78.6132	54.1992	78.5867	54.1992	78.532	54.1992	78.5105	54.1992	78.4672	54.1992	78.4514	54.1992	78.4213	54.1992	78.4116	54.1992	78.3963	54.1992	78.393
55.6641	79.9085	55.6641	79.9086	55.6641	79.8973	55.6641	79.8979	55.6641	79.8752	55.6641	79.8767	55.6641	79.8427	55.6641	79.8456	55.6641	79.8006	55.6641	79.8057	55.6641	79.75	55.6641	79.758	55.6641	79.6923	55.6641	79.7038	55.6641	79.6291	55.6641	79.6447	55.6641	79.5624	55.6641	79.5824	55.6641	79.4943	55.6641	79.5185	55.6641	79.4272	55.6641	79.4548	55.6641	79.3633	55.6641	79.3933	55.6641	79.305	55.6641	79.3356	55.6641	79.2543	55.6641	79.2836	55.6641	79.2128	55.6641	79.2387	55.6641	79.1821	55.6641	79.2024	55.6641	79.1628	55.6641	79.1758	55.6641	79.1555	55.6641	79.1599
58.5938	81.197	58.5938	81.1828	58.5938	81.1944	58.5938	81.1524	58.5938	81.175	58.5938	81.1066	58.5938	81.139	58.5938	81.0468	58.5938	81.0872	58.5938	80.9747	58.5938	81.0211	58.5938	80.8923	58.5938	80.9425	58.5938	80.8019	58.5938	80.8535	58.5938	80.7063	58.5938	80.7569	58.5938	80.6082	58.5938	80.6559	58.5938	80.5106	58.5938	80.5538	58.5938	80.4166	58.5938	80.454	58.5938	80.3289	58.5938	80.3599	58.5938	80.2503	58.5938	80.2748	58.5938	80.183	58.5938	80.2013	58.5938	80.1291	58.5938	80.1418	58.5938	80.0899	58.5938	80.0978	58.5938	80.0666	58.5938	80.0704	58.5938	80.06
60.0586	81.4278	60.0586	81.407	60.0586	81.4351	60.0586	81.3732	60.0586	81.4286	60.0586	81.3272	60.0586	81.4087	60.0586	81.2703	60.0586	81.3759	60.0586	81.204	60.0586	81.3311	60.0586	81.1301	60.0586	81.2758	60.0586	81.0509	60.0586	81.2114	60.0586	80.9686	60.0586	81.1401	60.0586	80.8858	60.0586	81.0638	60.0586	80.8053	60.0586	80.985	60.0586	80.7297	60.0586	80.9058	60.0586	80.6617	60.0586	80.8285	60.0586	80.6036	60.0586	80.7553	60.0586	80.5575	60.0586	80.6881	60.0586	80.5249	60.0586	80.6288	60.0586	80.507	60.0586	80.5793	60.0586	80.5039	60.0586	80.541	60.0586	80.5155
62.9883	82.2566	62.9883	82.2433	62.9883	82.2572	62.9883	82.2176	62.9883	82.2453	62.9883	82.1803	62.9883	82.2215	62.9883	82.1327	62.9883	82.1869	62.9883	82.0766	62.9883	82.1429	62.9883	82.014	62.9883	82.0914	62.9883	81.9475	62.9883	82.0342	62.9883	81.8797	62.9883	81.9734	62.9883	81.8132	62.9883	81.9114	62.9883	81.7506	62.9883	81.8502	62.9883	81.6941	62.9883	81.7918	62.9883	81.6453	62.9883	81.7378	62.9883	81.6057	62.9883	81.6894	62.9883	81.5757	62.9883	81.6474	62.9883	81.5556	62.9883	81.6122	62.9883	81.5448	62.9883	81.5841	62.9883	81.5429	62.9883	81.563	62.9883	81.5491
64.4531	82.7685	64.4531	82.7524	64.4531	82.7706	64.4531	82.7225	64.4531	82.7587	64.4531	82.6797	64.4531	82.7338	64.4531	82.6255	64.4531	82.6971	64.4531	82.5619	64.4531	82.6502	64.4531	82.4915	64.4531	82.5953	64.4531	82.4172	64.4531	82.5345	64.4531	82.3422	64.4531	82.4704	64.4531	82.2696	64.4531	82.4051	64.4531	82.2025	64.4531	82.3411	64.4531	82.1433	64.4531	82.2804	64.4531	82.0941	64.4531	82.2244	64.4531	82.0558	64.4531	82.1743	64.4531	82.0289	64.4531	82.1306	64.4531	82.0129	64.4531	82.0935	64.4531	82.007	64.4531	82.0628	64.4531	82.01	64.4531	82.0386	64.4531	82.0208
67.3828	83.5784	67.3828	83.5754	67.3828	83.565	67.3828	83.5558	67.3828	83.5356	67.3828	83.5201	67.3828	83.4912	67.3828	83.4694	67.3828	83.4333	67.3828	83.4051	67.3828	83.3636	67.3828	83.3294	67.3828	83.2846	67.3828	83.2445	67.3828	83.1985	67.3828	83.1533	67.3828	83.1081	67.3828	83.0589	67.3828	83.0162	67.3828	82.9644	67.3828	82.9255	67.3828	82.873	67.3828	82.8389	67.3828	82.7877	67.3828	82.7587	67.3828	82.7111	67.3828	82.6873	67.3828	82.6453	67.3828	82.6267	67.3828	82.5921	67.3828	82.5784	67.3828	82.5527	67.3828	82.5437	67.3828	82.5279	67.3828	82.5234	67.3828	82.5181
68.8477	83.9126	68.8477	83.909	68.8477	83.9014	68.8477	83.8907	68.8477	83.8757	68.8477	83.8584	68.8477	83.8363	68.8477	83.8131	68.8477	83.7844	68.8477	83.7562	68.8477	83.7216	68.8477	83.6897	68.8477	83.6499	68.8477	83.6157	68.8477	83.5717	68.8477	83.5365	68.8477	83.4894	68.8477	83.4549	68.8477	83.4058	68.8477	83.3733	68.8477	83.3235	68.8477	83.2943	68.8477	83.2452	68.8477	83.2202	68.8477	83.1735	68.8477	83.1532	68.8477	83.1104	68.8477	83.095	68.8477	83.0579	68.8477	83.0469	68.8477	83.0172	68.8477	83.0101	68.8477	82.9893	68.8477	82.9854	68.8477	82.9747	68.8477	82.9735
71.7773	84.5007	71.7773	84.4944	71.7773	84.4928	71.7773	84.4741	71.7773	84.4711	71.7773	84.4408	71.7773	84.4364	71.7773	84.3956	71.7773	84.3901	71.7773	84.3405	71.7773	84.3338	71.7773	84.2775	71.7773	84.2699	71.7773	84.2092	71.7773	84.2008	71.7773	84.1382	71.7773	84.129	71.7773	84.0671	71.7773	84.0571	71.7773	83.9984	71.7773	83.9877	71.7773	83.9342	71.7773	83.9229	71.7773	83.8763	71.7773	83.8647	71.7773	83.8259	71.7773	83.8145	71.7773	83.7838	71.7773	83.7733	71.7773	83.7506	71.7773	83.7416	71.7773	83.7262	71.7773	83.7197	71.7773	83.7108	71.7773	83.7074	71.7773	83.7045
74.707	85.0667	74.707	85.0609	74.707	85.0577	74.707	85.0406	74.707	85.0342	74.707	85.0067	74.707	84.9973	74.707	84.9605	74.707	84.9483	74.707	84.9042	74.707	84.8893	74.707	84.84	74.707	84.8227	74.707	84.7707	74.707	84.7512	74.707	84.6989	74.707	84.6776	74.707	84.6274	74.707	84.6048	74.707	84.5588	74.707	84.5353	74.707	84.4953	74.707	84.4715	74.707	84.4385	74.707	84.4151	74.707	84.3895	74.707	84.3675	74.707	84.3489	74.707	84.3293	74.707	84.3169	74.707	84.3008	74.707	84.2932	74.707	84.2818	74.707	84.2779	74.707	84.2719	74.707	84.2707
77.6367	85.5527	77.6367	85.5465	77.6367	85.5438	77.6367	85.5257	77.6367	85.5204	77.6367	85.4914	77.6367	85.4833	77.6367	85.445	77.6367	85.4341	77.6367	85.3887	77.6367	85.3751	77.6367	85.3252	77.6367	85.3088	77.6367	85.257	77.6367	85.238	77.6367	85.1872	77.6367	85.1658	77.6367	85.1184	77.6367	85.095	77.6367	85.0531	77.6367	85.0283	77.6367	84.9932	77.6367	84.9679	77.6367	84.9403	77.6367	84.9154	77.6367	84.8952	77.6367	84.8718	77.6367	84.8582	77.6367	84.8375	77.6367	84.8292	77.6367	84.8123	77.6367	84.8079	77.6367	84.796	77.6367	84.7939	77.6367	84.7878	77.6367	84.7872
79.1016	85.7578	79.1016	85.7507	79.1016	85.7495	79.1016	85.7285	79.1016	85.7261	79.1016	85.6925	79.1016	85.6886	79.1016	85.6442	79.1016	85.6388	79.1016	85.586	79.1016	85.5788	79.1016	85.5206	79.1016	85.5113	79.1016	85.451	79.1016	85.4394	79.1016	85.3801	79.1016	85.3662	79.1016	85.3108	79.1016	85.2947	79.1016	85.2456	79.1016	85.2276	79.1016	85.1864	79.1016	85.1671	79.1016	85.1347	79.1016	85.1149	79.1016	85.091	79.1016	85.0717	79.1016	85.0555	79.1016	85.038	79.1016	85.028	79.1016	85.0135	79.1016	85.008	79.1016	84.9976	79.1016	84.995	79.1016	84.9895	79.1016	84.9888
82.0312	86.157	82.0312	86.1474	82.0312	86.1503	82.0312	86.1219	82.0312	86.1276	82.0312	86.0816	82.0312	86.0898	82.0312	86.0285	82.0312	86.0389	82.0312	85.9649	82.0312	85.977	82.0312	85.8938	82.0312	85.9069	82.0312	85.8183	82.0312	85.8318	82.0312	85.7416	82.0312	85.755	82.0312	85.667	82.0312	85.6796	82.0312	85.597	82.0312	85.6083	82.0312	85.534	82.0312	85.5435	82.0312	85.4793	82.0312	85.4868	82.0312	85.4337	82.0312	85.4393	82.0312	85.3975	82.0312	85.4013	82.0312	85.3702	82.0312	85.3725	82.0312	85.3513	82.0312	85.3526	82.0312	85.3403	82.0312	85.3409	82.0312	85.3369
84.9609	86.5127	84.9609	86.503	84.9609	86.5057	84.9609	86.477	84.9609	86.4823	84.9609	86.436	84.9609	86.4436	84.9609	86.382	84.9609	86.3914	84.9609	86.3175	84.9609	86.3283	84.9609	86.2458	84.9609	86.2572	84.9609	86.17	84.9609	86.1815	84.9609	86.0937	84.9609	86.1045	84.9609	86.02	84.9609	86.0295	84.9609	85.9516	84.9609	85.9593	84.9609	85.8905	84.9609	85.8962	84.9609	85.8381	84.9609	85.8416	84.9609	85.7948	84.9609	85.7965	84.9609	85.7606	84.9609	85.7608	84.9609	85.7349	84.9609	85.7343	84.9609	85.717	84.9609	85.7162	84.9609	85.7065	84.9609	85.7059	84.9609	85.7027
87.8906	86.7596	87.8906	86.7516	87.8906	86.7503	87.8906	86.7268	87.8906	86.7243	87.8906	86.6866	87.8906	86.683	87.8906	86.6331	87.8906	86.6284	87.8906	86.5691	87.8906	86.5636	87.8906	86.498	87.8906	86.4918	87.8906	86.4237	87.8906	86.4168	87.8906	86.3498	87.8906	86.3425	87.8906	86.2799	87.8906	86.2724	87.8906	86.2169	87.8906	86.2092	87.8906	86.1629	87.8906	86.1551	87.8906	86.1188	87.8906	86.1112	87.8906	86.0847	87.8906	86.0775	87.8906	86.0597	87.8906	86.0532	87.8906	86.0423	87.8906	86.037	87.8906	86.0311	87.8906	86.0273	87.8906	86.0246	87.8906	86.0226	87.8906	86.0219
90.8203	87.0247	90.8203	87.0167	90.8203	87.0149	90.8203	86.9913	90.8203	86.9876	90.8203	86.95	90.8203	86.9443	90.8203	86.8952	90.8203	86.8871	90.8203	86.8299	90.8203	86.8192	90.8203	86.7578	90.8203	86.7441	90.8203	86.6828	90.8203	86.6661	90.8203	86.6089	90.8203	86.5893	90.8203	86.5399	90.8203	86.5176	90.8203	86.4788	90.8203	86.4544	90.8203	86.4275	90.8203	86.4021	90.8203	86.3871	90.8203	86.3617	90.8203	86.3572	90.8203	86.3332	90.8203	86.3365	90.8203	86.3152	90.8203	86.3229	90.8203	86.3057	90.8203	86.3144	90.8203	86.3022	90.8203	86.3088	90.8203	86.3025	90.8203	86.3049
95.2148	87.3347	95.2148	87.3239	95.2148	87.3258	95.2148	87.2939	95.2148	87.2977	95.2148	87.2464	95.2148	87.2517	95.2148	87.1838	95.2148	87.1901	95.2148	87.1094	95.2148	87.1163	95.2148	87.0273	95.2148	87.0341	95.2148	86.9417	95.2148	86.9478	95.2148	86.8572	95.2148	86.8618	95.2148	86.778	95.2148	86.7806	95.2148	86.7075	95.2148	86.7078	95.2148	86.6482	95.2148	86.6462	95.2148	86.6012	95.2148	86.5971	95.2148	86.5664	95.2148	86.5608	95.2148	86.5424	95.2148	86.5361	95.2148	86.527	95.2148	86.521	95.2148	86.5178	95.2148	86.5132	95.2148	86.5127	95.2148	86.5102	95.2148	86.5103
98.1445	87.4874	98.1445	87.4764	98.1445	87.478	98.1445	87.4456	98.1445	87.4487	98.1445	87.3967	98.1445	87.4011	98.1445	87.3322	98.1445	87.3376	98.1445	87.2556	98.1445	87.2617	98.1445	87.171	98.1445	87.1773	98.1445	87.083	98.1445	87.0891	98.1445	86.9963	98.1445	87.0016	98.1445	86.9152	98.1445	86.9193	98.1445	86.8433	98.1445	86.846	98.1445	86.7832	98.1445	86.7842	98.1445	86.736	98.1445	86.7354	98.1445	86.7014	98.1445	86.6995	98.1445	86.678	98.1445	86.6752	98.1445	86.6635	98.1445	86.6605	98.1445	86.6552	98.1445	86.6528	98.1445	86.651	98.1445	86.6496	98.1445	86.6493
101.074	87.6262	101.074	87.6152	101.074	87.6158	101.074	87.5834	101.074	87.5845	101.074	87.5326	101.074	87.5339	101.074	87.4654	101.074	87.4666	101.074	87.3856	101.074	87.3861	101.074	87.2975	101.074	87.297	101.074	87.2059	101.074	87.204	101.074	87.1158	101.074	87.1121	101.074	87.0319	101.074	87.0263	101.074	86.9579	101.074	86.9504	101.074	86.8965	101.074	86.8874	101.074	86.8489	101.074	86.8385	101.074	86.8145	101.074	86.8038	101.074	86.7917	101.074	86.7815	101.074	86.7778	101.074	86.7691	101.074	86.77	101.074	86.7636	101.074	86.7658	101.074	86.7624	101.074	86.7634
105.469	87.9144	105.469	87.9007	105.469	87.9049	105.469	87.8646	105.469	87.8728	105.469	87.8077	105.469	87.8195	105.469	87.7329	105.469	87.7477	105.469	87.6439	105.469	87.661	105.469	87.5453	105.469	87.5637	105.469	87.4422	105.469	87.4609	105.469	87.34	105.469	87.3579	105.469	87.2437	105.469	87.26	105.469	87.1578	105.469	87.1718	105.469	87.0855	105.469	87.0966	105.469	87.0283	105.469	87.0364	105.469	86.9862	105.469	86.9916	105.469	86.9578	105.469	86.9608	105.469	86.9402	105.469	86.9417	105.469	86.9306	105.469	86.931	105.469	86.926	105.469	86.9261	105.469	86.9247
108.398	88.0361	108.398	88.0238	108.398	88.0255	108.398	87.9893	108.398	87.9924	108.398	87.9341	108.398	87.9385	108.398	87.8612	108.398	87.8666	108.398	87.7744	108.398	87.7802	108.398	87.6781	108.398	87.6839	108.398	87.5775	108.398	87.5827	108.398	87.4778	108.398	87.4819	108.398	87.384	108.398	87.3867	108.398	87.3002	108.398	87.3014	108.398	87.2297	108.398	87.2293	108.398	87.1738	108.398	87.1722	108.398	87.1326	108.398	87.1301	108.398	87.1046	108.398	87.1017	108.398	87.0873	108.398	87.0845	108.398	87.0776	108.398	87.0754	108.398	87.0728	108.398	87.0716	108.398	87.071
112.793	88.1159	112.793	88.1038	112.793	88.1051	112.793	88.0692	112.793	88.072	112.793	88.0143	112.793	88.0184	112.793	87.9422	112.793	87.9475	112.793	87.857	112.793	87.8633	112.793	87.7639	112.793	87.7708	112.793	87.6683	112.793	87.6755	112.793	87.5759	112.793	87.5827	112.793	87.4917	112.793	87.4976	112.793	87.4198	112.793	87.4242	112.793	87.3626	112.793	87.3652	112.793	87.3209	112.793	87.3216	112.793	87.2937	112.793	87.2926	112.793	87.2784	112.793	87.2762	112.793	87.2717	112.793	87.269	112.793	87.2699	112.793	87.2676	112.793	87.2698	112.793	87.2685	112.793	87.2696
117.188	88.211	117.188	88.1989	117.188	88.1968	117.188	88.1613	117.188	88.1573	117.188	88.1002	117.188	88.0946	117.188	88.0191	117.188	88.0122	117.188	87.9226	117.188	87.915	117.188	87.8163	117.188	87.8087	117.188	87.7069	117.188	87.6999	117.188	87.6009	117.188	87.5954	117.188	87.5046	117.188	87.5012	117.188	87.4232	117.188	87.4224	117.188	87.36	117.188	87.3619	117.188	87.3161	117.188	87.3203	117.188	87.2901	117.188	87.2959	117.188	87.2789	117.188	87.2853	117.188	87.2778	117.188	87.2837	117.188	87.2819	117.188	87.2864	117.188	87.2869	117.188	87.2893	117.188	87.2898
120.117	88.4501	120.117	88.4342	120.117	88.4394	120.117	88.3928	120.117	88.4026	120.117	88.3278	120.117	88.3417	120.117	88.2428	120.117	88.2597	120.117	88.1426	120.117	88.1609	120.117	88.0326	120.117	88.0509	120.117	87.9194	120.117	87.9359	120.117	87.8093	120.117	87.8225	120.117	87.7084	120.117	87.7174	120.117	87.6218	120.117	87.6262	120.117	87.5528	120.117	87.5528	120.117	87.5025	120.117	87.4991	120.117	87.4699	120.117	87.4643	120.117	87.4521	120.117	87.4455	120.117	87.4447	120.117	87.4386	120.117	87.4433	120.117	87.4386	120.117	87.4437	120.117	87.4412	120.117	87.4433
124.512	88.5842	124.512	88.568	124.512	88.5741	124.512	88.526	124.512	88.5382	124.512	88.4604	124.512	88.479	124.512	88.3749	124.512	88.3998	124.512	88.2745	124.512	88.3055	124.512	88.1653	124.512	88.202	124.512	88.0543	124.512	88.0959	124.512	87.9487	124.512	87.9938	124.512	87.8553	124.512	87.9022	124.512	87.7794	124.512	87.8262	124.512	87.7241	124.512	87.7689	124.512	87.6901	124.512	87.7313	124.512	87.6755	124.512	87.7116	124.512	87.6759	124.512	87.706	124.512	87.6859	124.512	87.709	124.512	87.6995	124.512	87.7152	124.512	87.7116	124.512	87.7196	124.512	87.7187
128.906	88.6816	128.906	88.6697	128.906	88.6645	128.906	88.6295	128.906	88.6193	128.906	88.5632	128.906	88.5484	128.906	88.4745	128.906	88.4555	128.906	88.3687	128.906	88.3461	128.906	88.2525	128.906	88.2267	128.906	88.1334	128.906	88.1049	128.906	88.0195	128.906	87.9887	128.906	87.9185	128.906	87.8857	128.906	87.8364	128.906	87.8022	128.906	87.777	128.906	87.7423	128.906	87.741	128.906	87.7069	128.906	87.7257	128.906	87.6939	128.906	87.7262	128.906	87.6984	128.906	87.7359	128.906	87.7135	128.906	87.7478	128.906	87.7321	128.906	87.7559	128.906	87.7478	128.906	87.7563
133.301	88.8203	133.301	88.8048	133.301	88.805	133.301	88.759	133.301	88.7596	133.301	88.685	133.301	88.6861	133.301	88.5859	133.301	88.5875	133.301	88.4663	133.301	88.4686	133.301	88.3326	133.301	88.3352	133.301	88.192	133.301	88.1944	133.301	88.0529	133.301	88.0543	133.301	87.9239	133.301	87.9231	133.301	87.8124	133.301	87.8083	133.301	87.7242	133.301	87.7158	133.301	87.6615	133.301	87.6487	133.301	87.6232	133.301	87.6069	133.301	87.605	133.301	87.587	133.301	87.6004	133.301	87.5832	133.301	87.6022	133.301	87.5887	133.301	87.6043	133.301	87.5969	133.301	87.6028
139.16	88.7188	139.16	88.7068	139.16	88.7031	139.16	88.6677	139.16	88.6604	139.16	88.6035	139.16	88.5928	139.16	88.5176	139.16	88.5037	139.16	88.4145	139.16	88.3979	139.16	88.2997	139.16	88.281	139.16	88.1794	139.16	88.1594	139.16	88.0602	139.16	88.0401	139.16	87.9486	139.16	87.9293	139.16	87.8503	139.16	87.8328	139.16	87.7692	139.16	87.7544	139.16	87.7076	139.16	87.6959	139.16	87.6651	139.16	87.6566	139.16	87.6392	139.16	87.6337	139.16	87.6262	139.16	87.623	139.16	87.6212	139.16	87.6197	139.16	87.6202	139.16	87.6196	139.16	87.6201
143.555	88.5931	143.555	88.5751	143.555	88.5791	143.555	88.5261	143.555	88.5344	143.555	88.4488	143.555	88.4618	143.555	88.3479	143.555	88.3662	143.555	88.2297	143.555	88.2538	143.555	88.1019	143.555	88.1321	143.555	87.9732	143.555	88.0092	143.555	87.8521	143.555	87.8934	143.555	87.7464	143.555	87.7919	143.555	87.6621	143.555	87.7103	143.555	87.6024	143.555	87.6514	143.555	87.5675	143.555	87.6151	143.555	87.5546	143.555	87.5986	143.555	87.5583	143.555	87.5965	143.555	87.5722	143.555	87.6027	143.555	87.5895	143.555	87.6109	143.555	87.6048	143.555	87.6157	143.555	87.614
147.949	88.8362	147.949	88.8234	147.949	88.8116	147.949	88.7738	147.949	88.7508	147.949	88.6898	147.949	88.6571	147.949	88.5759	147.949	88.5352	147.949	88.4384	147.949	88.3922	147.949	88.2857	147.949	88.2365	147.949	88.1276	147.949	88.0783	147.949	87.9749	147.949	87.9285	147.949	87.8384	147.949	87.7977	147.949	87.7274	147.949	87.6949	147.949	87.6479	147.949	87.6255	147.949	87.6022	147.949	87.5904	147.949	87.5877	147.949	87.5855	147.949	87.5976	147.949	87.6024	147.949	87.6221	147.949	87.6305	147.949	87.6506	147.949	87.6588	147.949	87.6735	147.949	87.6785	147.949	87.6838
153.809	88.7284	153.809	88.7112	153.809	88.7124	153.809	88.6618	153.809	88.6637	153.809	88.5826	153.809	88.5846	153.809	88.4775	153.809	88.4785	153.809	88.352	153.809	88.3508	153.809	88.2128	153.809	88.208	153.809	88.0678	153.809	88.0581	153.809	87.9258	153.809	87.9099	153.809	87.7956	153.809	87.7725	153.809	87.6851	153.809	87.6546	153.809	87.6	153.809	87.5631	153.809	87.5432	153.809	87.5018	153.809	87.5131	153.809	87.4704	153.809	87.505	153.809	87.4648	153.809	87.5108	153.809	87.4769	153.809	87.5217	153.809	87.4971	153.809	87.5293	153.809	87.5164	153.809	87.5281
159.668	88.4491	159.668	88.43	159.668	88.4314	159.668	88.3754	159.668	88.3778	159.668	88.2888	159.668	88.2915	159.668	88.1759	159.668	88.1779	159.668	88.0437	159.668	88.044	159.668	87.9012	159.668	87.8987	159.668	87.7574	159.668	87.7511	159.668	87.6214	159.668	87.6103	159.668	87.5009	159.668	87.484	159.668	87.4013	159.668	87.3776	159.668	87.325	159.668	87.2942	159.668	87.2714	159.668	87.2342	159.668	87.2373	159.668	87.196	159.668	87.218	159.668	87.1761	159.668	87.208	159.668	87.1702	159.668	87.2022	159.668	87.1735	159.668	87.1968	159.668	87.1813	159.668	87.1897
165.527	88.4267	165.527	88.4012	165.527	88.4067	165.527	88.3315	165.527	88.3422	165.527	88.2213	165.527	88.237	165.527	88.0772	165.527	88.0972	165.527	87.9083	165.527	87.932	165.527	87.7263	165.527	87.7527	165.527	87.5446	165.527	87.5729	165.527	87.3778	165.527	87.407	165.527	87.2385	165.527	87.2675	165.527	87.1361	165.527	87.1636	165.527	87.0739	165.527	87.0985	165.527	87.0491	165.527	87.0693	165.527	87.0536	165.527	87.0685	165.527	87.0762	165.527	87.0858	165.527	87.1058	165.527	87.1108	165.527	87.1331	165.527	87.135	165.527	87.1516	165.527	87.1521	165.527	87.1581
171.387	88.815	171.387	88.7949	171.387	88.7929	171.387	88.7337	171.387	88.7288	171.387	88.6336	171.387	88.6241	171.387	88.4983	171.387	88.4819	171.387	88.333	171.387	88.3074	171.387	88.145	171.387	88.1078	171.387	87.9438	171.387	87.8934	171.387	87.7411	171.387	87.6774	171.387	87.5504	171.387	87.4749	171.387	87.3854	171.387	87.3018	171.387	87.2574	171.387	87.171	171.387	87.1729	171.387	87.0899	171.387	87.1313	171.387	87.0575	171.387	87.125	171.387	87.0646	171.387	87.1412	171.387	87.0962	171.387	87.1648	171.387	87.1356	171.387	87.1826	171.387	87.1683	171.387	87.185
177.246	88.6783	177.246	88.6471	177.246	88.6675	177.246	88.5755	177.246	88.6157	177.246	88.4669	177.246	88.5259	177.246	88.3273	177.246	88.4031	177.246	88.1647	177.246	88.2545	177.246	87.9889	177.246	88.0891	177.246	87.8113	177.246	87.9171	177.246	87.6438	177.246	87.7497	177.246	87.4978	177.246	87.5979	177.246	87.3824	177.246	87.4714	177.246	87.3036	177.246	87.377	177.246	87.2622	177.246	87.3175	177.246	87.254	177.246	87.2913	177.246	87.2703	177.246	87.2921	177.246	87.2999	177.246	87.3101	177.246	87.3309	177.246	87.3343	177.246	87.3536	177.246	87.3542	177.246	87.3618
183.105	88.7562	183.105	88.7352	183.105	88.7341	183.105	88.6723	183.105	88.67	183.105	88.5704	183.105	88.5667	183.105	88.4348	183.105	88.4293	183.105	88.2727	183.105	88.265	183.105	88.0935	183.105	88.0834	183.105	87.9084	183.105	87.8958	183.105	87.7297	183.105	87.7152	183.105	87.5698	183.105	87.5544	183.105	87.4393	183.105	87.4244	183.105	87.3454	183.105	87.3323	183.105	87.2901	183.105	87.2799	183.105	87.2701	183.105	87.2631	183.105	87.2772	183.105	87.2731	183.105	87.3002	183.105	87.2983	183.105	87.3273	183.105	87.3267	183.105	87.3483	183.105	87.3481	183.105	87.356
188.965	88.6628	188.965	88.6375	188.965	88.6413	188.965	88.5663	188.965	88.5743	188.965	88.4529	188.965	88.4651	188.965	88.3035	188.965	88.3196	188.965	88.127	188.965	88.1459	188.965	87.9349	188.965	87.9544	188.965	87.7408	188.965	87.7577	188.965	87.5592	188.965	87.5698	188.965	87.4043	188.965	87.4052	188.965	87.2871	188.965	87.2762	188.965	87.2137	188.965	87.1911	188.965	87.1838	188.965	87.1517	188.965	87.1904	188.965	87.1528	188.965	87.2217	188.965	87.1835	188.965	87.2637	188.965	87.2299	188.965	87.3027	188.965	87.2774	188.965	87.3277	188.965	87.3142	188.965	87.3321
196.289	88.6529	196.289	88.627	196.289	88.6289	196.289	88.5522	196.289	88.5562	196.289	88.4324	196.289	88.4387	196.289	88.2741	196.289	88.2829	196.289	88.087	196.289	88.0981	196.289	87.8833	196.289	87.8958	196.289	87.6778	196.289	87.6902	196.289	87.4866	196.289	87.4965	196.289	87.3253	196.289	87.3301	196.289	87.2062	196.289	87.204	196.289	87.1362	196.289	87.1266	196.289	87.1148	196.289	87.0991	196.289	87.1344	196.289	87.1155	196.289	87.1816	196.289	87.1628	196.289	87.2405	196.289	87.2246	196.289	87.2951	196.289	87.284	196.289	87.3325	196.289	87.3268	196.289	87.344
203.613	88.4608	203.613	88.422	203.613	88.4425	203.613	88.3265	203.613	88.3688	203.613	88.1779	203.613	88.2441	203.613	87.9824	203.613	88.0755	203.613	87.7501	203.613	87.8727	203.613	87.4954	203.613	87.649	203.613	87.2366	203.613	87.4202	203.613	86.9957	203.613	87.2045	203.613	86.7955	203.613	87.02	203.613	86.6555	203.613	86.8821	203.613	86.587	203.613	86.8003	203.613	86.5892	203.613	86.7753	203.613	86.649	203.613	86.7991	203.613	86.7448	203.613	86.8562	203.613	86.8519	203.613	86.9275	203.613	86.9478	203.613	86.9932	203.613	87.0156	203.613	87.0366	203.613	87.0459
210.938	88.7594	210.938	88.7462	210.938	88.7136	210.938	88.674	210.938	88.6101	210.938	88.5451	210.938	88.4524	210.938	88.3635	210.938	88.2461	210.938	88.1361	210.938	88	210.938	87.8734	210.938	87.7263	210.938	87.5895	210.938	87.4411	210.938	87.3023	210.938	87.164	210.938	87.033	210.938	86.9162	210.938	86.803	210.938	86.7174	210.938	86.6303	210.938	86.5815	210.938	86.5253	210.938	86.5128	210.938	86.4872	210.938	86.5046	210.938	86.5041	210.938	86.54	210.938	86.5555	210.938	86.5971	210.938	86.618	210.938	86.6533	210.938	86.6701	210.938	86.6901	210.938	86.6965
218.262	88.7099	218.262	88.6926	218.262	88.678	218.262	88.6275	218.262	88.5971	218.262	88.5173	218.262	88.4688	218.262	88.366	218.262	88.2966	218.262	88.1795	218.262	88.0867	218.262	87.9657	218.262	87.8478	218.262	87.7348	218.262	87.5923	218.262	87.4999	218.262	87.3359	218.262	87.2758	218.262	87.0968	218.262	87.0779	218.262	86.893	218.262	86.9191	218.262	86.7387	218.262	86.8071	218.262	86.6408	218.262	86.7422	218.262	86.5972	218.262	86.7166	218.262	86.5978	218.262	86.717	218.262	86.6268	218.262	86.7278	218.262	86.6673	218.262	86.7347	218.262	86.7044	218.262	86.728
225.586	88.3986	225.586	88.3817	225.586	88.3601	225.586	88.3106	225.586	88.2671	225.586	88.1898	225.586	88.1236	225.586	88.0261	225.586	87.9362	225.586	87.8292	225.586	87.7147	225.586	87.6117	225.586	87.4721	225.586	87.3886	225.586	87.2252	225.586	87.1769	225.586	86.9939	225.586	86.9943	225.586	86.7996	225.586	86.8559	225.586	86.6612	225.586	86.7719	225.586	86.5904	225.586	86.7438	225.586	86.5873	225.586	86.7642	225.586	86.64	225.586	86.8182	225.586	86.7276	225.586	86.8867	225.586	86.8264	225.586	86.9504	225.586	86.9149	225.586	86.9931	225.586	86.977	225.586	87.0036
232.91	88.3812	232.91	88.3351	232.91	88.3603	232.91	88.2236	232.91	88.2739	232.91	88.0512	232.91	88.1258	232.91	87.8258	232.91	87.9226	232.91	87.5591	232.91	87.6737	232.91	87.267	232.91	87.3921	232.91	86.97	232.91	87.0943	232.91	86.6921	232.91	86.8012	232.91	86.458	232.91	86.5371	232.91	86.2897	232.91	86.327	232.91	86.1999	232.91	86.1908	232.91	86.1882	232.91	86.1379	232.91	86.2402	232.91	86.1623	232.91	86.3318	232.91	86.2437	232.91	86.4347	232.91	86.3534	232.91	86.523	232.91	86.4617	232.91	86.5769	232.91	86.5443	232.91	86.5849
241.699	88.6219	241.699	88.6031	241.699	88.5742	241.699	88.5197	241.699	88.4601	241.699	88.3754	241.699	88.282	241.699	88.1758	241.699	88.0453	241.699	87.9293	241.699	87.7589	241.699	87.6472	241.699	87.4356	241.699	87.3452	241.699	87.0929	241.699	87.0432	241.699	86.7531	241.699	86.7644	241.699	86.4427	241.699	86.5321	241.699	86.19	241.699	86.3658	241.699	86.0192	241.699	86.2749	241.699	85.9432	241.699	86.2555	241.699	85.9575	241.699	86.2904	241.699	86.0407	241.699	86.3529	241.699	86.1608	241.699	86.414	241.699	86.2843	241.699	86.4487	241.699	86.3834	241.699	86.4403
250.488	88.3453	250.488	88.2769	250.488	88.3416	250.488	88.1393	250.488	88.2652	250.488	87.9377	250.488	88.1174	250.488	87.6796	250.488	87.9025	250.488	87.376	250.488	87.6283	250.488	87.0419	250.488	87.3073	250.488	86.697	250.488	86.9572	250.488	86.3656	250.488	86.6011	250.488	86.0746	250.488	86.2658	250.488	85.8483	250.488	85.9778	250.488	85.702	250.488	85.7593	250.488	85.6365	250.488	85.623	250.488	85.6375	250.488	85.5689	250.488	85.6813	250.488	85.5834	250.488	85.7417	250.488	85.6423	250.488	85.7955	250.488	85.7175	250.488	85.8257	250.488	85.7834	250.488	85.8222
259.277	88.766	259.277	88.7141	259.277	88.7444	259.277	88.589	259.277	88.6506	259.277	88.3937	259.277	88.4872	259.277	88.1337	259.277	88.2583	259.277	87.8183	259.277	87.9695	259.277	87.4605	259.277	87.6297	259.277	87.0784	259.277	87.2523	259.277	86.6957	259.277	86.8575	259.277	86.3408	259.277	86.4736	259.277	86.0447	259.277	86.1347	259.277	85.8344	259.277	85.8747	259.277	85.7239	259.277	85.7162	259.277	85.7075	259.277	85.6619	259.277	85.7602	259.277	85.6926	259.277	85.8463	259.277	85.7745	259.277	85.9298	259.277	85.8709	259.277	85.9831	259.277	85.9501	259.277	85.9908
268.066	88.8833	268.066	88.8468	268.066	88.8569	268.066	88.7475	268.066	88.7705	268.066	88.5883	268.066	88.6292	268.066	88.3754	268.066	88.4401	268.066	88.1181	268.066	88.2119	268.066	87.8284	268.066	87.9549	268.066	87.5216	268.066	87.6805	268.066	87.2154	268.066	87.4017	268.066	86.9296	268.066	87.1331	268.066	86.6847	268.066	86.8903	268.066	86.4986	268.066	86.6885	268.066	86.3824	268.066	86.5399	268.066	86.3358	268.066	86.45	268.066	86.3457	268.066	86.4151	268.066	86.3895	268.066	86.422	268.066	86.4415	268.066	86.4508	268.066	86.4802	268.066	86.4805	268.066	86.4935
276.855	88.3758	276.855	88.3127	276.855	88.3619	276.855	88.1742	276.855	88.2715	276.855	87.9647	276.855	88.1075	276.855	87.6914	276.855	87.8761	276.855	87.3652	276.855	87.5869	276.855	87.0021	276.855	87.255	276.855	86.6237	276.855	86.901	276.855	86.2578	276.855	86.5524	276.855	85.9374	276.855	86.2408	276.855	85.6966	276.855	85.9981	276.855	85.5624	276.855	85.8482	276.855	85.5451	276.855	85.7997	276.855	85.6312	276.855	85.8421	276.855	85.7867	276.855	85.9477	276.855	85.9675	276.855	86.0797	276.855	86.1318	276.855	86.2009	276.855	86.2484	276.855	86.2809	276.855	86.2995
287.109	88.407	287.109	88.4129	287.109	88.3336	287.109	88.3477	287.109	88.1991	287.109	88.2112	287.109	88.0128	287.109	88.007	287.109	87.7856	287.109	87.7425	287.109	87.5291	287.109	87.4299	287.109	87.2539	287.109	87.0852	287.109	86.9693	287.109	86.7268	287.109	86.6841	287.109	86.3743	287.109	86.4091	287.109	86.0476	287.109	86.159	287.109	85.7689	287.109	85.9517	287.109	85.5623	287.109	85.8029	287.109	85.4481	287.109	85.7201	287.109	85.4308	287.109	85.6976	287.109	85.4906	287.109	85.7161	287.109	85.5892	287.109	85.7481	287.109	85.6845	287.109	85.7655	287.109	85.7469
297.363	88.8269	297.363	88.7961	297.363	88.7742	297.363	88.6857	297.363	88.6378	297.363	88.5032	297.363	88.4217	297.363	88.2589	297.363	88.1345	297.363	87.9659	297.363	87.7906	297.363	87.6393	297.363	87.4096	297.363	87.2963	297.363	87.0161	297.363	86.955	297.363	86.6358	297.363	86.6317	297.363	86.2904	297.363	86.3378	297.363	85.994	297.363	86.0767	297.363	85.7513	297.363	85.8455	297.363	85.5613	297.363	85.642	297.363	85.4204	297.363	85.4696	297.363	85.324	297.363	85.3381	297.363	85.2649	297.363	85.2546	297.363	85.2323	297.363	85.2156	297.363	85.2148	297.363	85.2072
307.617	88.1507	307.617	88.1205	307.617	88.0882	307.617	87.9994	307.617	87.9372	307.617	87.7955	307.617	87.7088	307.617	87.5252	307.617	87.4224	307.617	87.2154	307.617	87.1073	307.617	86.9045	307.617	86.8016	307.617	86.6395	307.617	86.5476	307.617	86.4656	307.617	86.3803	307.617	86.4109	307.617	86.316	307.617	86.473	307.617	86.3462	307.617	86.6193	307.617	86.4425	307.617	86.8009	307.617	86.57	307.617	86.9712	307.617	86.6993	307.617	87.0985	307.617	86.8136	307.617	87.1698	307.617	86.9086	307.617	87.1881	307.617	86.9881	307.617	87.1661	307.617	87.0576	307.617	87.1187
319.336	88.2772	319.336	88.198	319.336	88.2443	319.336	88.0069	319.336	88.0986	319.336	87.7048	319.336	87.8394	319.336	87.2951	319.336	87.467	319.336	86.7871	319.336	86.9864	319.336	86.2015	319.336	86.4127	319.336	85.5785	319.336	85.7802	319.336	84.9873	319.336	85.1521	319.336	84.525	319.336	84.6238	319.336	84.2917	319.336	84.3032	319.336	84.3366	319.336	84.2589	319.336	84.6208	319.336	84.4744	319.336	85.0402	319.336	84.8578	319.336	85.4828	319.336	85.2972	319.336	85.867	319.336	85.7048	319.336	86.1475	319.336	86.0285	319.336	86.3055	319.336	86.2427	319.336	86.3367
329.59	88.2965	329.59	88.2231	329.59	88.2603	329.59	88.0384	329.59	88.119	329.59	87.7438	329.59	87.8784	329.59	87.3445	329.59	87.5446	329.59	86.8505	329.59	87.1255	329.59	86.2786	329.59	86.6324	329.59	85.6585	329.59	86.086	329.59	85.0421	329.59	85.522	329.59	84.5099	329.59	84.9957	329.59	84.1611	329.59	84.5788	329.59	84.0711	329.59	84.3409	329.59	84.2393	329.59	84.3177	329.59	84.583	329.59	84.4877	329.59	84.9863	329.59	84.782	329.59	85.3516	329.59	85.1169	329.59	85.6184	329.59	85.422	329.59	85.7588	329.59	85.6485	329.59	85.7665
341.309	88.5511	341.309	88.5215	341.309	88.4808	341.309	88.3874	341.309	88.315	341.309	88.1451	341.309	88.0593	341.309	87.7926	341.309	87.7214	341.309	87.3328	341.309	87.3125	341.309	86.7753	341.309	86.8501	341.309	86.1386	341.309	86.3592	341.309	85.452	341.309	85.8733	341.309	84.757	341.309	85.4305	341.309	84.1127	341.309	85.0652	341.309	83.5966	341.309	84.7988	341.309	83.2885	341.309	84.6344	341.309	83.2301	341.309	84.5589	341.309	83.3895	341.309	84.5474	341.309	83.6756	341.309	84.5666	341.309	83.9883	341.309	84.5788	341.309	84.2564	341.309	84.5475	341.309	84.4448
353.027	88.544	353.027	88.5243	353.027	88.4344	353.027	88.3731	353.027	88.1983	353.027	88.0886	353.027	87.8404	353.027	87.6699	353.027	87.3682	353.027	87.12	353.027	86.7949	353.027	86.4516	353.027	86.1431	353.027	85.6963	353.027	85.4512	353.027	84.9147	353.027	84.7797	353.027	84.1979	353.027	84.2092	353.027	83.6479	353.027	83.8196	353.027	83.333	353.027	83.6521	353.027	83.2546	353.027	83.686	353.027	83.3578	353.027	83.8513	353.027	83.5693	353.027	84.0654	353.027	83.8234	353.027	84.2603	353.027	84.0689	353.027	84.3921	353.027	84.2682	353.027	84.4394	353.027	84.3964
366.211	88.5868	366.211	88.5807	366.211	88.5076	366.211	88.4904	366.211	88.3418	366.211	88.3158	366.211	88.088	366.211	88.0558	366.211	87.7462	366.211	87.7087	366.211	87.3199	366.211	87.2746	366.211	86.8193	366.211	86.7596	366.211	86.2659	366.211	86.1827	366.211	85.6994	366.211	85.5844	366.211	85.1795	366.211	85.0287	366.211	84.7768	366.211	84.5899	366.211	84.5429	366.211	84.321	366.211	84.4791	366.211	84.227	366.211	84.5359	366.211	84.2685	366.211	84.6446	366.211	84.3893	366.211	84.7494	366.211	84.5389	366.211	84.8163	366.211	84.6786	366.211	84.8284	366.211	84.7807
379.395	88.9492	379.395	88.9604	379.395	88.8027	379.395	88.8397	379.395	88.5183	379.395	88.5921	379.395	88.0958	379.395	88.2245	379.395	87.539	379.395	87.7485	379.395	86.8595	379.395	87.1832	379.395	86.0809	379.395	86.5576	379.395	85.2472	379.395	85.9116	379.395	84.4312	379.395	85.2953	379.395	83.7386	379.395	84.7683	379.395	83.2888	379.395	84.3954	379.395	83.1565	379.395	84.2286	379.395	83.3148	379.395	84.2739	379.395	83.6521	379.395	84.4715	379.395	84.0459	379.395	84.7214	379.395	84.413	379.395	84.9306	379.395	84.7125	379.395	85.0431	379.395	84.9258	379.395	85.0401
392.578	88.8462	392.578	88.735	392.578	88.8231	392.578	88.4929	392.578	88.6622	392.578	88.1264	392.578	88.3576	392.578	87.6485	392.578	87.9019	392.578	87.0821	392.578	87.2911	392.578	86.463	392.578	86.5346	392.578	85.8443	392.578	85.6723	392.578	85.2965	392.578	84.795	392.578	84.8922	392.578	84.0545	392.578	84.6714	392.578	83.6224	392.578	84.6131	392.578	83.5862	392.578	84.6492	392.578	83.8751	392.578	84.7113	392.578	84.3171	392.578	84.7676	392.578	84.7472	392.578	84.8259	392.578	85.0617	392.578	84.9095	392.578	85.2213	392.578	85.0264	392.578	85.2369	392.578	85.1525
405.762	89.5177	405.762	89.4314	405.762	89.4865	405.762	89.2241	405.762	89.3314	405.762	88.8825	405.762	89.0372	405.762	88.3838	405.762	88.5803	405.762	87.6989	405.762	87.9308	405.762	86.8011	405.762	87.0565	405.762	85.6872	405.762	85.937	405.762	84.427	405.762	84.5987	405.762	83.2561	405.762	83.1996	405.762	82.6145	405.762	82.1407	405.762	82.8199	405.762	81.9169	405.762	83.649	405.762	82.5405	405.762	84.6342	405.762	83.5327	405.762	85.4812	405.762	84.5	405.762	86.0874	405.762	85.2908	405.762	86.4445	405.762	85.8812	405.762	86.5782	405.762	86.2859	405.762	86.5188
420.41	89.0777	420.41	89.0521	420.41	89.0275	420.41	88.9438	420.41	88.9015	420.41	88.7402	420.41	88.6906	420.41	88.4235	420.41	88.3762	420.41	87.9716	420.41	87.9307	420.41	87.3589	420.41	87.3197	420.41	86.562	420.41	86.5101	420.41	85.5732	420.41	85.4858	420.41	84.4348	420.41	84.2846	420.41	83.3045	420.41	83.0682	420.41	82.5152	420.41	82.1886	420.41	82.4232	420.41	82.0339	420.41	83.0154	420.41	82.6046	420.41	83.9124	420.41	83.515	420.41	84.7628	420.41	84.4128	420.41	85.392	420.41	85.1274	420.41	85.7426	420.41	85.5994	420.41	85.8085
435.059	88.8935	435.059	88.8628	435.059	88.8574	435.059	88.7576	435.059	88.7568	435.059	88.5659	435.059	88.5867	435.059	88.272	435.059	88.3335	435.059	87.8575	435.059	87.9741	435.059	87.302	435.059	87.4774	435.059	86.5856	435.059	86.8085	435.059	85.6969	435.059	85.9382	435.059	84.6545	435.059	84.8621	435.059	83.5535	435.059	83.6455	435.059	82.6265	435.059	82.5091	435.059	82.2085	435.059	81.8675	435.059	82.4578	435.059	82.0355	435.059	83.157	435.059	82.8152	435.059	83.9553	435.059	83.7445	435.059	84.6184	435.059	84.5132	435.059	85.0385	435.059	84.9985	435.059	85.1718
451.172	88.54	451.172	88.5225	451.172	88.4957	451.172	88.439	451.172	88.3889	451.172	88.2786	451.172	88.2152	451.172	88.0221	451.172	87.9654	451.172	87.6426	451.172	87.6238	451.172	87.1083	451.172	87.1655	451.172	86.3898	451.172	86.5579	451.172	85.4739	451.172	85.7674	451.172	84.3926	451.172	84.7816	451.172	83.2759	451.172	83.6559	451.172	82.4029	451.172	82.5921	451.172	82.1086	451.172	81.964	451.172	82.467	451.172	82.0611	451.172	83.1977	451.172	82.7355	451.172	83.9669	451.172	83.5876	451.172	84.5765	451.172	84.3252	451.172	84.9402	451.172	84.818	451.172	85.0246
465.82	88.798	465.82	88.7364	465.82	88.7592	465.82	88.5841	465.82	88.6159	465.82	88.3534	465.82	88.3689	465.82	88.0537	465.82	88.0209	465.82	87.6867	465.82	87.5704	465.82	87.2424	465.82	87.0092	465.82	86.6991	465.82	86.3218	465.82	86.0299	465.82	85.4926	465.82	85.2208	465.82	84.5219	465.82	84.308	465.82	83.4622	465.82	83.4304	465.82	82.472	465.82	82.8407	465.82	81.8343	465.82	82.7535	465.82	81.7916	465.82	83.114	465.82	82.2828	465.82	83.6522	465.82	83.0042	465.82	84.1223	465.82	83.6826	465.82	84.3929	465.82	84.1715	465.82	84.4132
483.398	89.029	483.398	88.9069	483.398	89.0736	483.398	88.7123	483.398	89.0355	483.398	88.4499	483.398	88.9052	483.398	88.1178	483.398	88.6646	483.398	87.6992	483.398	88.2866	483.398	87.161	483.398	87.7394	483.398	86.4661	483.398	86.9933	483.398	85.5968	483.398	86.031	483.398	84.5823	483.398	84.8669	483.398	83.5296	483.398	83.5921	483.398	82.6468	483.398	82.4564	483.398	82.2055	483.398	81.8684	483.398	82.3615	483.398	82.0565	483.398	82.9756	483.398	82.7612	483.398	83.7299	483.398	83.5654	483.398	84.3629	483.398	84.228	483.398	84.7453	483.398	84.6633	483.398	84.8424
499.512	89.0923	499.512	89.0338	499.512	89.0947	499.512	88.9072	499.512	89.0468	499.512	88.6971	499.512	88.9467	499.512	88.3861	499.512	88.7828	499.512	87.9547	499.512	88.532	499.512	87.3769	499.512	88.1587	499.512	86.6184	499.512	87.6202	499.512	85.6464	499.512	86.8767	499.512	84.4654	499.512	85.9085	499.512	83.1908	499.512	84.7437	499.512	82.1443	499.512	83.5146	499.512	81.7689	499.512	82.5274	499.512	82.1785	499.512	82.1797	499.512	83.0075	499.512	82.5653	499.512	83.8512	499.512	83.3376	499.512	84.495	499.512	84.1041	499.512	84.8569	499.512	84.6539	499.512	84.911
517.09	89.0478	517.09	89.0083	517.09	89.0072	517.09	88.8943	517.09	88.8837	517.09	88.71	517.09	88.6767	517.09	88.4515	517.09	88.3846	517.09	88.1009	517.09	87.9982	517.09	87.6253	517.09	87.4961	517.09	86.9804	517.09	86.8435	517.09	86.1191	517.09	86.0006	517.09	85.0096	517.09	84.9443	517.09	83.6852	517.09	83.7125	517.09	82.3612	517.09	82.4795	517.09	81.5366	517.09	81.6149	517.09	81.6437	517.09	81.5009	517.09	82.4424	517.09	82.1053	517.09	83.377	517.09	83.0132	517.09	84.1202	517.09	83.8492	517.09	84.5595	517.09	84.4219	517.09	84.663
536.133	88.9162	536.133	88.8174	536.133	88.9394	536.133	88.6525	536.133	88.8819	536.133	88.432	536.133	88.7393	536.133	88.157	536.133	88.5014	536.133	87.8079	536.133	88.1485	536.133	87.3403	536.133	87.6536	536.133	86.6959	536.133	86.989	536.133	85.8241	536.133	86.1354	536.133	84.7145	536.133	85.0954	536.133	83.4495	536.133	83.9302	536.133	82.2843	536.133	82.8444	536.133	81.6593	536.133	82.2324	536.133	81.8709	536.133	82.3848	536.133	82.685	536.133	83.0855	536.133	83.626	536.133	83.8885	536.133	84.3861	536.133	84.525	536.133	84.8555	536.133	84.9093	536.133	85.0239
555.176	89.0393	555.176	88.9891	555.176	89.0232	555.176	88.8731	555.176	88.9392	555.176	88.6905	555.176	88.7838	555.176	88.4373	555.176	88.5492	555.176	88.1021	555.176	88.2195	555.176	87.6589	555.176	87.7663	555.176	87.0602	555.176	87.1464	555.176	86.2379	555.176	86.309	555.176	85.1232	555.176	85.2168	555.176	83.7078	555.176	83.8901	555.176	82.2025	555.176	82.5035	555.176	81.2608	555.176	81.5253	555.176	81.5476	555.176	81.5283	555.176	82.6976	555.176	82.4404	555.176	83.9266	555.176	83.6249	555.176	84.8556	555.176	84.6236	555.176	85.3914	555.176	85.27	555.176	85.5276
574.219	89.372	574.219	89.2169	574.219	89.4352	574.219	88.9842	574.219	89.4029	574.219	88.6935	574.219	89.2775	574.219	88.3553	574.219	89.0565	574.219	87.952	574.219	88.7205	574.219	87.4264	574.219	88.2308	574.219	86.6866	574.219	87.5346	574.219	85.6278	574.219	86.5718	574.219	84.1692	574.219	85.2765	574.219	82.3375	574.219	83.5904	574.219	80.4963	574.219	81.5624	574.219	79.6039	574.219	79.7281	574.219	80.279	574.219	79.3965	574.219	81.7301	574.219	80.7563	574.219	83.1124	574.219	82.4559	574.219	84.1273	574.219	83.7676	574.219	84.7148	574.219	84.5626	574.219	84.866
594.727	89.1962	594.727	89.2631	594.727	89.1495	594.727	89.3119	594.727	89.1526	594.727	89.3083	594.727	89.2095	594.727	89.2271	594.727	89.2886	594.727	89.0446	594.727	89.3227	594.727	88.723	594.727	89.2209	594.727	88.2007	594.727	88.8866	594.727	87.3945	594.727	88.2322	594.727	86.2071	594.727	87.19	594.727	84.5432	594.727	85.7281	594.727	82.4048	594.727	83.915	594.727	80.3312	594.727	82.1199	594.727	79.9043	594.727	81.2039	594.727	81.3697	594.727	81.6855	594.727	83.0865	594.727	82.8721	594.727	84.3101	594.727	83.9983	594.727	84.9647	594.727	84.768	594.727	85.102
615.234	88.8615	615.234	88.8717	615.234	88.7693	615.234	88.815	615.234	88.6078	615.234	88.723	615.234	88.4154	615.234	88.6235	615.234	88.2384	615.234	88.5182	615.234	88.0982	615.234	88.3645	615.234	87.962	615.234	88.0702	615.234	87.7365	615.234	87.5042	615.234	87.2917	615.234	86.5198	615.234	86.4949	615.234	84.9816	615.234	85.2467	615.234	82.8372	615.234	83.5596	615.234	80.4866	615.234	81.8237	615.234	79.6747	615.234	81.1448	615.234	81.3476	615.234	82.1353	615.234	83.5427	615.234	83.7677	615.234	85.1806	615.234	85.1637	615.234	86.1159	615.234	86.0594	615.234	86.3907
637.207	89.4319	637.207	89.4404	637.207	89.3315	637.207	89.3697	637.207	89.1769	637.207	89.271	637.207	89.0417	637.207	89.197	637.207	88.9898	637.207	89.1528	637.207	89.0176	637.207	89.0755	637.207	89.0369	637.207	88.8594	637.207	88.9146	637.207	88.3931	637.207	88.5211	637.207	87.5672	637.207	87.7433	637.207	86.2494	637.207	86.4733	637.207	84.2613	637.207	84.6201	637.207	81.4843	637.207	82.2951	637.207	78.833	637.207	80.5693	637.207	79.4028	637.207	81.1806	637.207	81.954	637.207	83.0433	637.207	83.967	637.207	84.5727	637.207	85.1465	637.207	85.4229	637.207	85.6098
659.18	89.0436	659.18	88.9913	659.18	88.9817	659.18	88.861	659.18	88.8036	659.18	88.7094	659.18	88.5625	659.18	88.6088	659.18	88.3642	659.18	88.6255	659.18	88.3026	659.18	88.7612	659.18	88.3631	659.18	88.9062	659.18	88.4043	659.18	88.8698	659.18	88.238	659.18	88.4539	659.18	87.7015	659.18	87.4993	659.18	86.6784	659.18	85.9083	659.18	85.1119	659.18	83.7421	659.18	83.1208	659.18	81.6721	659.18	81.4137	659.18	81.356	659.18	81.3531	659.18	82.8658	659.18	82.8117	659.18	84.5279	659.18	84.4168	659.18	85.5894	659.18	85.5078	659.18	85.9146
682.617	89.7508	682.617	89.6636	682.617	89.5537	682.617	89.3014	682.617	89.1243	682.617	88.7524	682.617	88.5584	682.617	88.1809	682.617	87.984	682.617	87.7652	682.617	87.5443	682.617	87.5645	682.617	87.3334	682.617	87.446	682.617	87.301	682.617	87.1873	682.617	87.2495	682.617	86.618	682.617	86.9409	682.617	85.6607	682.617	86.1868	682.617	84.3119	682.617	84.8913	682.617	82.7221	682.617	83.1879	682.617	81.5868	682.617	81.9164	682.617	82.0333	682.617	82.4011	682.617	83.6803	682.617	84.0939	682.617	85.2883	682.617	85.6383	682.617	86.3507	682.617	86.551	682.617	86.7792
707.52	90.7133	707.52	90.634	707.52	90.6053	707.52	90.3725	707.52	90.3039	707.52	89.9403	707.52	89.8201	707.52	89.3832	707.52	89.2038	707.52	88.8018	707.52	88.5459	707.52	88.3139	707.52	87.9409	707.52	87.9433	707.52	87.4266	707.52	87.5531	707.52	86.9399	707.52	86.9149	707.52	86.3159	707.52	85.8021	707.52	85.3036	707.52	83.9911	707.52	83.5898	707.52	81.2734	707.52	80.9219	707.52	78.2644	707.52	78.128	707.52	78.63	707.52	78.7924	707.52	81.6062	707.52	81.6021	707.52	83.8924	707.52	83.756	707.52	85.1263	707.52	85.0079	707.52	85.4635
732.422	90.0145	732.422	89.882	732.422	89.9215	732.422	89.543	732.422	89.624	732.422	89.0632	732.422	89.176	732.422	88.5537	732.422	88.6597	732.422	88.1364	732.422	88.18	732.422	87.8575	732.422	87.8277	732.422	87.6259	732.422	87.5951	732.422	87.2733	732.422	87.33	732.422	86.6469	732.422	86.8027	732.422	85.6195	732.422	85.7969	732.422	84.053	732.422	84.137	732.422	81.8591	732.422	81.7201	732.422	79.5171	732.422	79.0213	732.422	79.0125	732.422	78.4692	732.422	80.7456	732.422	80.5597	732.422	82.5902	732.422	82.6034	732.422	83.7472	732.422	83.795	732.422	84.1528
757.324	90.4927	757.324	90.3557	757.324	90.3511	757.324	89.9643	757.324	89.9364	757.324	89.3697	757.324	89.3066	757.324	88.6638	757.324	88.6032	757.324	88.0021	757.324	88.0252	757.324	87.5814	757.324	87.6859	757.324	87.4846	757.324	87.4938	757.324	87.5142	757.324	87.2555	757.324	87.3007	757.324	86.8238	757.324	86.5289	757.324	86.0784	757.324	85.0058	757.324	84.8246	757.324	82.6299	757.324	82.7818	757.324	79.7251	757.324	79.9143	757.324	78.7996	757.324	78.2583	757.324	81.1484	757.324	80.3633	757.324	83.5275	757.324	82.9762	757.324	84.883	757.324	84.6032	757.324	85.2245
785.156	90.8064	785.156	90.7334	785.156	90.6639	785.156	90.4334	785.156	90.3239	785.156	89.9245	785.156	89.7945	785.156	89.2714	785.156	89.0851	785.156	88.5842	785.156	88.2489	785.156	87.9804	785.156	87.4317	785.156	87.5064	785.156	86.8415	785.156	87.0829	785.156	86.5412	785.156	86.5251	785.156	86.2799	785.156	85.5835	785.156	85.6537	785.156	83.9615	785.156	84.3068	785.156	81.3258	785.156	81.9541	785.156	77.6311	785.156	78.7111	785.156	76.0457	785.156	77.4461	785.156	79.1676	785.156	80.0642	785.156	82.0764	785.156	82.5944	785.156	83.7629	785.156	84.0084	785.156	84.3811
811.523	90.2793	811.523	90.0968	811.523	90.1833	811.523	89.6531	811.523	89.8133	811.523	88.98	811.523	89.2031	811.523	88.1346	811.523	88.4271	811.523	87.2445	811.523	87.6277	811.523	86.5641	811.523	87.0108	811.523	86.3542	811.523	86.693	811.523	86.5029	811.523	86.5337	811.523	86.5361	811.523	86.2556	811.523	86.0486	811.523	85.6304	811.523	84.8418	811.523	84.4635	811.523	82.7998	811.523	82.5008	811.523	79.9196	811.523	79.6208	811.523	77.6053	811.523	77.629	811.523	78.9644	811.523	79.596	811.523	81.5792	811.523	82.2013	811.523	83.3267	811.523	83.681	811.523	84.0262
840.82	91.0202	840.82	90.8307	840.82	90.8957	840.82	90.3408	840.82	90.4366	840.82	89.558	840.82	89.639	840.82	88.5256	840.82	88.5708	840.82	87.4175	840.82	87.4524	840.82	86.5867	840.82	86.6514	840.82	86.3157	840.82	86.4031	840.82	86.453	840.82	86.5162	840.82	86.568	840.82	86.5609	840.82	86.2737	840.82	86.1585	840.82	85.2693	840.82	85.0084	840.82	83.2658	840.82	82.8017	840.82	79.9959	840.82	79.3284	840.82	76.7763	840.82	76.787	840.82	78.7277	840.82	79.3114	840.82	81.9696	840.82	82.2035	840.82	83.8046	840.82	83.8359	840.82	84.3616
870.117	91.1134	870.117	90.9935	870.117	90.9532	870.117	90.5748	870.117	90.5282	870.117	89.8361	870.117	89.8621	870.117	88.7881	870.117	88.9867	870.117	87.5437	870.117	87.943	870.117	86.388	870.117	86.8314	870.117	85.6741	870.117	85.8898	870.117	85.4664	870.117	85.3967	870.117	85.4538	870.117	85.3149	870.117	85.2374	870.117	85.1979	870.117	84.4557	870.117	84.4856	870.117	82.7141	870.117	82.6402	870.117	79.4651	870.117	79.008	870.117	74.6707	870.117	73.8279	870.117	75.6153	870.117	76.2679	870.117	79.9047	870.117	80.5148	870.117	82.3223	870.117	82.6331	870.117	83.1688
900.879	92.0701	900.879	91.9802	900.879	91.9118	900.879	91.6335	900.879	91.5102	900.879	91.0189	900.879	90.856	900.879	90.1377	900.879	89.9266	900.879	89.0347	900.879	88.7436	900.879	87.8301	900.879	87.4994	900.879	86.773	900.879	86.6325	900.879	86.2154	900.879	86.4308	900.879	86.2011	900.879	86.4862	900.879	86.2204	900.879	86.1933	900.879	85.6823	900.879	85.2688	900.879	84.1921	900.879	83.5484	900.879	81.495	900.879	80.7128	900.879	78.2483	900.879	77.3206	900.879	78.6253	900.879	78.3766	900.879	81.4646	900.879	81.6292	900.879	83.3334	900.879	83.4916	900.879	83.994
933.105	92.5551	933.105	92.4664	933.105	92.3731	933.105	92.0898	933.105	91.9511	933.105	91.4505	933.105	91.2841	933.105	90.5616	933.105	90.323	933.105	89.3506	933.105	89.0142	933.105	87.7698	933.105	87.4051	933.105	86.1854	933.105	85.8549	933.105	85.45	933.105	85.0231	933.105	85.5971	933.105	85.0682	933.105	85.7151	933.105	85.3768	933.105	85.2472	933.105	85.2958	933.105	83.9543	933.105	84.315	933.105	81.489	933.105	81.9009	933.105	77.9965	933.105	77.5889	933.105	78.3609	933.105	76.5678	933.105	82.0521	933.105	81.285	933.105	84.3999	933.105	84.17	933.105	85.108
965.332	92.2437	965.332	92.1589	965.332	92.0776	965.332	91.8236	965.332	91.6878	965.332	91.2537	965.332	91.1027	965.332	90.4568	965.332	90.3144	965.332	89.4139	965.332	89.2776	965.332	88.0983	965.332	87.9537	965.332	86.6526	965.332	86.431	965.332	85.5986	965.332	85.1425	965.332	85.2746	965.332	84.6061	965.332	85.1262	965.332	84.5114	965.332	84.4598	965.332	84.0793	965.332	82.8786	965.332	82.7648	965.332	80.03	965.332	80.1216	965.332	76.3866	965.332	76.4904	965.332	77.2822	965.332	77.4326	965.332	80.7724	965.332	81.0916	965.332	82.909	965.332	83.1561	965.332	83.6818
1000.49	91.4079	1000.49	91.2938	1000.49	91.3682	1000.49	90.9892	1000.49	91.1326	1000.49	90.4044	1000.49	90.6267	1000.49	89.489	1000.49	89.7946	1000.49	88.2959	1000.49	88.618	1000.49	86.9484	1000.49	87.1497	1000.49	85.6449	1000.49	85.6363	1000.49	84.8518	1000.49	84.6118	1000.49	84.9811	1000.49	84.4574	1000.49	85.4438	1000.49	84.7548	1000.49	85.2701	1000.49	84.7356	1000.49	83.8806	1000.49	83.8326	1000.49	80.845	1000.49	81.5461	1000.49	75.5963	1000.49	77.2487	1000.49	73.1215	1000.49	74.092	1000.49	77.9886	1000.49	78.1807	1000.49	80.9322	1000.49	81.048	1000.49	81.8787
1035.64	91.7877	1035.64	91.6331	1035.64	91.6602	1035.64	91.2466	1035.64	91.2366	1035.64	90.6564	1035.64	90.574	1035.64	89.8404	1035.64	89.7577	1035.64	88.7372	1035.64	88.7816	1035.64	87.2769	1035.64	87.4962	1035.64	85.4896	1035.64	85.8081	1035.64	83.8111	1035.64	84.1839	1035.64	83.1254	1035.64	83.5534	1035.64	83.3637	1035.64	83.6248	1035.64	83.3834	1035.64	83.3863	1035.64	82.4309	1035.64	82.2901	1035.64	80.1316	1035.64	79.8579	1035.64	76.3321	1035.64	75.9814	1035.64	75.3716	1035.64	75.8654	1035.64	79.4851	1035.64	79.7296	1035.64	82.1249	1035.64	82.1276	1035.64	82.9028
1072.27	91.7399	1072.27	91.6057	1072.27	91.6937	1072.27	91.3241	1072.27	91.4467	1072.27	90.8925	1072.27	90.9736	1072.27	90.2072	1072.27	90.2314	1072.27	89.1264	1072.27	89.1724	1072.27	87.6411	1072.27	87.7939	1072.27	85.9392	1072.27	86.2837	1072.27	84.3814	1072.27	85.0467	1072.27	83.5883	1072.27	84.2634	1072.27	83.7894	1072.27	83.7486	1072.27	84.0367	1072.27	83.3043	1072.27	83.2509	1072.27	82.5026	1072.27	80.7434	1072.27	80.5485	1072.27	75.8535	1072.27	76.6456	1072.27	73.0523	1072.27	73.8875	1072.27	77.7832	1072.27	77.8411	1072.27	80.7403	1072.27	80.7645	1072.27	81.6687
1108.89	91.7535	1108.89	91.6353	1108.89	91.591	1108.89	91.2103	1108.89	91.1976	1108.89	90.4935	1108.89	90.6385	1108.89	89.5392	1108.89	89.9746	1108.89	88.375	1108.89	89.1841	1108.89	86.9417	1108.89	88.0595	1108.89	85.2148	1108.89	86.3063	1108.89	83.4982	1108.89	84.0939	1108.89	82.5795	1108.89	82.7119	1108.89	82.8675	1108.89	82.8458	1108.89	83.334	1108.89	83.2437	1108.89	82.7283	1108.89	82.9443	1108.89	80.3765	1108.89	81.3204	1108.89	75.9794	1108.89	77.2265	1108.89	72.6531	1108.89	72.8434	1108.89	76.9338	1108.89	79.112	1108.89	80.8265	1108.89	82.3833	1108.89	82.7094
1148.44	91.355	1148.44	91.323	1148.44	91.2777	1148.44	91.1227	1148.44	91.0493	1148.44	90.6444	1148.44	90.588	1148.44	89.8475	1148.44	89.8713	1148.44	88.8017	1148.44	88.9636	1148.44	87.5687	1148.44	87.8759	1148.44	86.1341	1148.44	86.4817	1148.44	84.6709	1148.44	84.8874	1148.44	83.8057	1148.44	83.798	1148.44	83.7198	1148.44	83.5225	1148.44	83.5366	1148.44	83.3912	1148.44	82.54	1148.44	82.8056	1148.44	80.2312	1148.44	81.2404	1148.44	75.5851	1148.44	77.8884	1148.44	70.5873	1148.44	74.4766	1148.44	76.6751	1148.44	78.069	1148.44	80.4322	1148.44	81.0403	1148.44	81.7308
1189.45	91.4444	1189.45	91.3682	1189.45	91.2099	1189.45	91.0186	1189.45	90.7118	1189.45	90.4822	1189.45	90.0303	1189.45	89.7581	1189.45	89.2446	1189.45	88.7126	1189.45	88.3918	1189.45	87.2013	1189.45	87.3447	1189.45	85.211	1189.45	85.773	1189.45	82.9453	1189.45	83.5623	1189.45	81.1515	1189.45	81.7097	1189.45	81.1171	1189.45	81.5828	1189.45	82.181	1189.45	82.1846	1189.45	82.5197	1189.45	82.1992	1189.45	81.1249	1189.45	80.942	1189.45	76.95	1189.45	77.3068	1189.45	69.9563	1189.45	70.8955	1189.45	76.3174	1189.45	76.5706	1189.45	80.5327	1189.45	80.7288	1189.45	81.8169
1230.47	90.7413	1230.47	90.5836	1230.47	90.5919	1230.47	90.1957	1230.47	90.1449	1230.47	89.6644	1230.47	89.4764	1230.47	88.9418	1230.47	88.6689	1230.47	87.8771	1230.47	87.729	1230.47	86.4574	1230.47	86.5748	1230.47	84.8641	1230.47	85.1124	1230.47	83.2784	1230.47	83.3498	1230.47	82.0127	1230.47	81.7626	1230.47	81.7074	1230.47	81.4071	1230.47	81.9109	1230.47	81.9905	1230.47	81.2522	1230.47	81.6801	1230.47	79.2407	1230.47	79.3686	1230.47	75.6343	1230.47	74.6476	1230.47	72.3419	1230.47	72.2421	1230.47	76.1763	1230.47	76.7586	1230.47	79.4534	1230.47	79.6515	1230.47	80.5103
1274.41	90.6243	1274.41	90.4597	1274.41	90.3205	1274.41	89.9114	1274.41	89.7309	1274.41	89.2507	1274.41	89.0984	1274.41	88.5539	1274.41	88.4603	1274.41	87.5548	1274.41	87.6247	1274.41	86.0515	1274.41	86.3759	1274.41	84.148	1274.41	84.682	1274.41	82.0619	1274.41	82.8721	1274.41	80.0876	1274.41	81.5488	1274.41	79.1976	1274.41	81.1592	1274.41	80.1735	1274.41	81.5583	1274.41	81.0443	1274.41	81.6537	1274.41	79.9356	1274.41	80.2157	1274.41	75.9291	1274.41	76.1874	1274.41	70.8845	1274.41	70.8761	1274.41	74.8368	1274.41	75.5974	1274.41	78.314	1274.41	78.8594	1274.41	79.6082
1319.82	90.1562	1319.82	89.9586	1319.82	90.0012	1319.82	89.4377	1319.82	89.5109	1319.82	88.6731	1319.82	88.79	1319.82	87.7781	1319.82	87.9596	1319.82	86.8401	1319.82	87.0232	1319.82	85.8228	1319.82	85.9105	1319.82	84.5451	1319.82	84.5177	1319.82	82.9708	1319.82	82.6932	1319.82	81.6796	1319.82	80.6842	1319.82	81.1193	1319.82	80.0861	1319.82	81.0873	1319.82	81.2976	1319.82	80.9909	1319.82	81.7839	1319.82	79.6657	1319.82	80.196	1319.82	75.383	1319.82	75.3247	1319.82	63.6757	1319.82	65.7579	1319.82	74.3981	1319.82	74.978	1319.82	78.8151	1319.82	78.8486	1319.82	79.8769
1366.7	90.2553	1366.7	90.1083	1366.7	90.1007	1366.7	89.5629	1366.7	89.6727	1366.7	88.6174	1366.7	88.9274	1366.7	87.5087	1366.7	87.8206	1366.7	86.5841	1366.7	86.4202	1366.7	85.7885	1366.7	85.0725	1366.7	84.5892	1366.7	83.9734	1366.7	82.7641	1366.7	82.6965	1366.7	80.8549	1366.7	81.041	1366.7	79.243	1366.7	79.8591	1366.7	78.3113	1366.7	79.7762	1366.7	78.5811	1366.7	79.8351	1366.7	78.0939	1366.7	79.1881	1366.7	74.8823	1366.7	76.342	1366.7	65.5668	1366.7	65.7686	1366.7	73.3181	1366.7	73.3651	1366.7	78.4689	1366.7	78.6755	1366.7	79.8623
1413.57	90.2021	1413.57	89.973	1413.57	89.8984	1413.57	89.3695	1413.57	89.131	1413.57	88.5406	1413.57	88.2227	1413.57	87.527	1413.57	87.3997	1413.57	86.3577	1413.57	86.4452	1413.57	85.2431	1413.57	85.0045	1413.57	84.1838	1413.57	83.3266	1413.57	82.5264	1413.57	82.0684	1413.57	80.386	1413.57	80.9942	1413.57	79.3867	1413.57	80.0011	1413.57	79.53	1413.57	80.3844	1413.57	80.0256	1413.57	80.5979	1413.57	79.9244	1413.57	79.3871	1413.57	77.4924	1413.57	76.1859	1413.57	69.7739	1413.57	68.4149	1413.57	72.4053	1413.57	71.3403	1413.57	77.4493	1413.57	76.8002	1413.57	78.4145
1463.38	89.2918	1463.38	89.2698	1463.38	88.9842	1463.38	88.8727	1463.38	88.444	1463.38	88.1547	1463.38	87.6884	1463.38	87.1382	1463.38	86.6874	1463.38	85.9072	1463.38	85.4203	1463.38	84.8739	1463.38	84.0136	1463.38	84.181	1463.38	82.6866	1463.38	83.1386	1463.38	81.3056	1463.38	81.342	1463.38	79.5892	1463.38	79.4481	1463.38	77.8992	1463.38	78.5894	1463.38	78.0621	1463.38	78.8803	1463.38	79.5209	1463.38	78.9245	1463.38	79.7773	1463.38	76.7169	1463.38	77.5496	1463.38	69.313	1463.38	70.9905	1463.38	71.699	1463.38	69.6345	1463.38	76.7504	1463.38	75.6375	1463.38	77.602
1516.11	88.9448	1516.11	88.8659	1516.11	88.8515	1516.11	88.6035	1516.11	88.4894	1516.11	87.9834	1516.11	87.7559	1516.11	86.9709	1516.11	86.5437	1516.11	85.6327	1516.11	84.9732	1516.11	84.0347	1516.11	83.5173	1516.11	82.7747	1516.11	82.4489	1516.11	81.8553	1516.11	81.4309	1516.11	80.1613	1516.11	80.0925	1516.11	78.3819	1516.11	78.3873	1516.11	78.3925	1516.11	78.0116	1516.11	79.1094	1516.11	79.1889	1516.11	79.2708	1516.11	79.3661	1516.11	77.4883	1516.11	77.29	1516.11	70.33	1516.11	70.3746	1516.11	69.1207	1516.11	67.7067	1516.11	75.66	1516.11	74.7603	1516.11	76.5453
1568.85	89.5816	1568.85	89.4997	1568.85	89.5061	1568.85	88.9972	1568.85	89.1663	1568.85	88.0102	1568.85	88.2486	1568.85	86.9467	1568.85	86.7778	1568.85	85.8605	1568.85	85.3584	1568.85	84.3708	1568.85	84.3464	1568.85	82.7255	1568.85	83.3424	1568.85	81.0356	1568.85	82.002	1568.85	79.3643	1568.85	80.07	1568.85	78.835	1568.85	78.2835	1568.85	78.9736	1568.85	78.8233	1568.85	79.3293	1568.85	79.9349	1568.85	79.2212	1568.85	79.4365	1568.85	77.0496	1568.85	76.8735	1568.85	69.6323	1568.85	69.1323	1568.85	68.9074	1568.85	70.4583	1568.85	76.3054	1568.85	77.015	1568.85	78.1898
1624.51	89.8732	1624.51	89.6162	1624.51	89.7929	1624.51	89.1024	1624.51	89.3198	1624.51	88.1646	1624.51	88.5156	1624.51	86.8521	1624.51	87.3125	1624.51	85.6511	1624.51	85.9002	1624.51	84.635	1624.51	84.8871	1624.51	83.4498	1624.51	84.0036	1624.51	81.881	1624.51	82.4379	1624.51	80.0496	1624.51	80.5151	1624.51	78.7918	1624.51	78.302	1624.51	78.2861	1624.51	77.3795	1624.51	79.0277	1624.51	79.8512	1624.51	79.5956	1624.51	80.6924	1624.51	77.716	1624.51	78.2486	1624.51	70.3193	1624.51	70.426	1624.51	68.3311	1624.51	69.8232	1624.51	76.6513	1624.51	77.0623	1624.51	78.4263
1681.64	89.8139	1681.64	89.6932	1681.64	89.5418	1681.64	89.2398	1681.64	88.9744	1681.64	88.2582	1681.64	88.3091	1681.64	86.9555	1681.64	87.3845	1681.64	86.0412	1681.64	86.0525	1681.64	85.0945	1681.64	84.8545	1681.64	83.4868	1681.64	84.1132	1681.64	81.8729	1681.64	82.8021	1681.64	80.044	1681.64	80.5122	1681.64	77.9771	1681.64	77.2648	1681.64	78.2321	1681.64	74.6097	1681.64	79.217	1681.64	79.3168	1681.64	80.0062	1681.64	81.8359	1681.64	79.2336	1681.64	80.5212	1681.64	74.638	1681.64	75.6349	1681.64	58.2908	1681.64	56.9055	1681.64	74.8259	1681.64	74.5627	1681.64	77.5244
1741.7	89.3399	1741.7	89.33	1741.7	89.2489	1741.7	88.9044	1741.7	88.8359	1741.7	87.8911	1741.7	87.8666	1741.7	86.8553	1741.7	86.5312	1741.7	85.9628	1741.7	85.2365	1741.7	84.665	1741.7	84.3122	1741.7	83.251	1741.7	83.6052	1741.7	82.1531	1741.7	82.2146	1741.7	80.1862	1741.7	79.6375	1741.7	77.7064	1741.7	77.1562	1741.7	76.6936	1741.7	75.2617	1741.7	77.9537	1741.7	77.5152	1741.7	79.8886	1741.7	80.0422	1741.7	79.6166	1741.7	79.4769	1741.7	75.8523	1741.7	75.9632	1741.7	68.357	1741.7	66.2736	1741.7	74.8377	1741.7	73.9427	1741.7	77.0202
1803.22	89.5098	1803.22	89.409	1803.22	89.3384	1803.22	88.71	1803.22	88.9357	1803.22	87.7191	1803.22	88.0514	1803.22	86.8247	1803.22	86.7751	1803.22	85.5333	1803.22	85.5137	1803.22	84.0303	1803.22	84.6395	1803.22	83.0919	1803.22	83.9176	1803.22	82.0888	1803.22	82.6996	1803.22	80.1186	1803.22	80.4501	1803.22	77.9855	1803.22	78.5755	1803.22	76.8173	1803.22	77.2049	1803.22	77.2585	1803.22	76.6827	1803.22	78.6735	1803.22	78.6329	1803.22	78.4385	1803.22	78.0154	1803.22	75.1439	1803.22	75.4697	1803.22	66.5806	1803.22	70.0867	1803.22	74.3327	1803.22	73.6447	1803.22	76.7789
1866.21	90.4215	1866.21	90.0967	1866.21	90.1094	1866.21	89.2622	1866.21	89.5078	1866.21	88.5978	1866.21	88.6668	1866.21	87.8023	1866.21	87.5383	1866.21	86.0018	1866.21	86.3462	1866.21	84.0708	1866.21	85.328	1866.21	83.4495	1866.21	84.2052	1866.21	83.034	1866.21	83.0482	1866.21	81.5428	1866.21	81.7463	1866.21	78.6829	1866.21	79.7506	1866.21	75.3234	1866.21	78.284	1866.21	75.459	1866.21	77.5463	1866.21	77.8806	1866.21	78.7894	1866.21	79.0037	1866.21	79.3183	1866.21	76.6913	1866.21	76.7568	1866.21	70.6939	1866.21	73.2122	1866.21	74.037	1866.21	75.8833	1866.21	77.6861
1932.13	90.4729	1932.13	90.078	1932.13	90.1867	1932.13	89.3878	1932.13	89.4451	1932.13	89.0559	1932.13	88.4647	1932.13	88.268	1932.13	87.3517	1932.13	86.4674	1932.13	85.8931	1932.13	84.9489	1932.13	84.4097	1932.13	84.1413	1932.13	83.0408	1932.13	83.5363	1932.13	81.6763	1932.13	82.4366	1932.13	80.8968	1932.13	79.9336	1932.13	79.6032	1932.13	77.0348	1932.13	77.1727	1932.13	75.6128	1932.13	75.6108	1932.13	77.077	1932.13	78.6456	1932.13	78.3158	1932.13	79.4599	1932.13	76.3759	1932.13	74.9495	1932.13	71.7652	1932.13	70.4494	1932.13	75.5939	1932.13	75.3913	1932.13	78.0043
1999.51	89.8458	1999.51	89.6747	1999.51	89.5137	1999.51	88.8586	1999.51	89.0382	1999.51	88.5435	1999.51	87.8301	1999.51	88.0895	1999.51	86.2439	1999.51	86.2019	1999.51	85.5607	1999.51	84.2535	1999.51	84.7891	1999.51	83.5089	1999.51	82.9786	1999.51	82.9833	1999.51	80.6607	1999.51	81.8838	1999.51	79.1564	1999.51	79.8318	1999.51	79.5224	1999.51	77.9758	1999.51	77.3794	1999.51	77.4398	1999.51	71.7801	1999.51	78.295	1999.51	76.4076	1999.51	78.2982	1999.51	79.6104	1999.51	75.3015	1999.51	75.9725	1999.51	72.181	1999.51	70.3178	1999.51	76.9056	1999.51	76.4865	1999.51	79.162
2069.82	90.1537	2069.82	89.5481	2069.82	90.2031	2069.82	89.0698	2069.82	89.7055	2069.82	88.8375	2069.82	88.8009	2069.82	87.7523	2069.82	87.8421	2069.82	86.2382	2069.82	87.45	2069.82	85.1823	2069.82	86.0656	2069.82	82.8643	2069.82	83.435	2069.82	81.1641	2069.82	81.8996	2069.82	81.0749	2069.82	80.9452	2069.82	80.435	2069.82	79.1043	2069.82	77.9792	2069.82	77.034	2069.82	76.4987	2069.82	75.1279	2069.82	77.3702	2069.82	76.6463	2069.82	78.0392	2069.82	78.9745	2069.82	74.5288	2069.82	74.8456	2069.82	65.9336	2069.82	61.169	2069.82	76.0128	2069.82	74.6693	2069.82	77.7623
2143.07	90.7732	2143.07	90.115	2143.07	90.754	2143.07	89.8239	2143.07	90.0779	2143.07	89.54	2143.07	89.3787	2143.07	88.66	2143.07	88.5085	2143.07	87.7906	2143.07	87.6696	2143.07	86.5245	2143.07	86.0027	2143.07	83.5151	2143.07	83.608	2143.07	80.8789	2143.07	83.407	2143.07	81.6695	2143.07	82.9899	2143.07	81.283	2143.07	80.4793	2143.07	77.7736	2143.07	77.8686	2143.07	73.6807	2143.07	77.5317	2143.07	76.0611	2143.07	78.7247	2143.07	79.2053	2143.07	78.7432	2143.07	77.5253	2143.07	75.5857	2143.07	63.9508	2143.07	62.8188	2143.07	73.1876	2143.07	74.3679	2143.07	77.5453
2219.24	89.7249	2219.24	89.9388	2219.24	89.4833	2219.24	89.519	2219.24	89.0961	2219.24	89.0473	2219.24	88.4326	2219.24	88.7325	2219.24	87.8592	2219.24	87.7424	2219.24	87.1393	2219.24	86.446	2219.24	85.7834	2219.24	85.2862	2219.24	83.7969	2219.24	83.5312	2219.24	82.8044	2219.24	81.5776	2219.24	81.9143	2219.24	80.9165	2219.24	80.5615	2219.24	78.7224	2219.24	77.9531	2219.24	77.864	2219.24	76.6306	2219.24	76.4539	2219.24	75.9611	2219.24	78.5073	2219.24	78.7812	2219.24	78.2464	2219.24	76.4196	2219.24	71.9188	2219.24	70.6114	2219.24	69.3868	2219.24	69.3334	2219.24	74.9757
2296.88	89.3357	2296.88	89.2006	2296.88	89.2079	2296.88	88.855	2296.88	88.8746	2296.88	88.4079	2296.88	88.3981	2296.88	87.7144	2296.88	87.7282	2296.88	86.6414	2296.88	86.9899	2296.88	85.5065	2296.88	86.0571	2296.88	84.3215	2296.88	84.2632	2296.88	83.0593	2296.88	82.4309	2296.88	81.2481	2296.88	81.4038	2296.88	79.1011	2296.88	79.8388	2296.88	78.4353	2296.88	77.4641	2296.88	77.9382	2296.88	76.9019	2296.88	76.5159	2296.88	75.9026	2296.88	78.7005	2296.88	78.393	2296.88	77.9451	2296.88	78.1902	2296.88	71.3322	2296.88	72.8983	2296.88	66.3464	2296.88	65.3983	2296.88	71.2727
2378.91	90.0012	2378.91	89.881	2378.91	90.3158	2378.91	89.8788	2378.91	90.0061	2378.91	89.5793	2378.91	89.3684	2378.91	88.7206	2378.91	88.6045	2378.91	87.5188	2378.91	87.7306	2378.91	86.5405	2378.91	87.0033	2378.91	85.1278	2378.91	85.262	2378.91	83.6288	2378.91	83.4972	2378.91	82.0986	2378.91	82.3744	2378.91	80.1402	2378.91	80.0661	2378.91	78.3849	2378.91	78.1035	2378.91	77.1579	2378.91	77.1594	2378.91	75.8212	2378.91	76.6322	2378.91	77.2926	2378.91	78.5835	2378.91	78.5336	2378.91	78.6445	2378.91	73.2392	2378.91	73.9119	2378.91	68.7558	2378.91	69.3538	2378.91	73.3897
2462.4	89.7925	2462.4	89.6952	2462.4	89.982	2462.4	89.6629	2462.4	89.6796	2462.4	89.4187	2462.4	89.0303	2462.4	88.8694	2462.4	88.5435	2462.4	88.1251	2462.4	87.5815	2462.4	87.022	2462.4	86.7511	2462.4	85.1358	2462.4	85.3456	2462.4	83.6918	2462.4	82.6781	2462.4	82.7648	2462.4	81.4085	2462.4	81.1072	2462.4	79.2051	2462.4	79.2025	2462.4	77.2736	2462.4	78.8874	2462.4	77.5062	2462.4	77.3332	2462.4	75.5767	2462.4	78.2829	2462.4	77.9788	2462.4	78.5838	2462.4	78.5657	2462.4	74.7484	2462.4	73.9972	2462.4	66.312	2462.4	65.8446	2462.4	71.1467
2548.83	89.2983	2548.83	89.1797	2548.83	89.4759	2548.83	89.2718	2548.83	89.5197	2548.83	89.1002	2548.83	89.161	2548.83	88.5734	2548.83	88.5022	2548.83	87.6796	2548.83	87.7433	2548.83	86.5952	2548.83	86.4152	2548.83	84.4975	2548.83	85.1958	2548.83	82.0402	2548.83	83.0697	2548.83	81.0943	2548.83	81.2877	2548.83	80.3964	2548.83	81.0597	2548.83	79.114	2548.83	78.1853	2548.83	78.4754	2548.83	76.758	2548.83	76.972	2548.83	72.9442	2548.83	76.7362	2548.83	75.534	2548.83	78.807	2548.83	79.2168	2548.83	75.1924	2548.83	75.1252	2548.83	67.5219	2548.83	69.4096	2548.83	71.8027
2639.65	89.7938	2639.65	89.9156	2639.65	89.8047	2639.65	90.0524	2639.65	89.9231	2639.65	89.8583	2639.65	89.7959	2639.65	89.4092	2639.65	89.3999	2639.65	88.6489	2639.65	88.5505	2639.65	87.2602	2639.65	86.9458	2639.65	85.3675	2639.65	85.5895	2639.65	82.4309	2639.65	83.2471	2639.65	80.6615	2639.65	80.3008	2639.65	79.5833	2639.65	80.7332	2639.65	77.8715	2639.65	79.2523	2639.65	77.9908	2639.65	78.6128	2639.65	76.3486	2639.65	76.7145	2639.65	76.5761	2639.65	77.009	2639.65	78.8735	2639.65	78.8173	2639.65	74.9187	2639.65	76.739	2639.65	62.9173	2639.65	63.2036	2639.65	72.4701
2731.93	89.8811	2731.93	90.1737	2731.93	89.7376	2731.93	90.0165	2731.93	89.8466	2731.93	89.9125	2731.93	89.7363	2731.93	89.7089	2731.93	89.1739	2731.93	88.8275	2731.93	88.0111	2731.93	87.4108	2731.93	86.6463	2731.93	85.9887	2731.93	85.1943	2731.93	83.851	2731.93	82.9262	2731.93	81.8553	2731.93	80.7851	2731.93	80.6489	2731.93	80.0189	2731.93	78.6956	2731.93	78.4044	2731.93	78.299	2731.93	78.3544	2731.93	77.3357	2731.93	77.3983	2731.93	76.6458	2731.93	75.2678	2731.93	78.3218	2731.93	79.1838	2731.93	76.8765	2731.93	76.4599	2731.93	67.7675	2731.93	70.6999	2731.93	67.7174
2828.61	89.9225	2828.61	89.8137	2828.61	90.0231	2828.61	89.8203	2828.61	90.0955	2828.61	89.7055	2828.61	89.9912	2828.61	89.3106	2828.61	89.5408	2828.61	88.5208	2828.61	88.3318	2828.61	87.3192	2828.61	87.0476	2828.61	85.8203	2828.61	85.5799	2828.61	83.6269	2828.61	83.95	2828.61	81.1053	2828.61	81.4317	2828.61	79.58	2828.61	80.0895	2828.61	77.9555	2828.61	78.2345	2828.61	77.971	2828.61	77.5028	2828.61	77.8087	2828.61	77.6643	2828.61	74.8427	2828.61	75.3285	2828.61	78.7777	2828.61	77.0956	2828.61	75.9826	2828.61	77.5039	2828.61	68.629	2828.61	66.8939	2828.61	70.3008
2928.22	89.9486	2928.22	89.9823	2928.22	90.0959	2928.22	90.1695	2928.22	90.3844	2928.22	90.115	2928.22	90.4276	2928.22	89.3628	2928.22	89.7998	2928.22	88.0941	2928.22	88.5091	2928.22	86.4812	2928.22	87.21	2928.22	85.6292	2928.22	85.6767	2928.22	83.6814	2928.22	83.305	2928.22	81.0142	2928.22	81.84	2928.22	80.9653	2928.22	80.6086	2928.22	77.5196	2928.22	78.3024	2928.22	75.4617	2928.22	77.5081	2928.22	77.4094	2928.22	78.7392	2928.22	76.7386	2928.22	76.251	2928.22	78.3195	2928.22	77.1893	2928.22	75.6294	2928.22	74.7517	2928.22	67.1961	2928.22	71.5021	2928.22	66.5919
3030.76	90.2391	3030.76	90.6454	3030.76	90.6081	3030.76	90.8755	3030.76	90.6856	3030.76	90.7511	3030.76	90.6246	3030.76	90.1789	3030.76	90.0947	3030.76	88.6981	3030.76	88.9144	3030.76	86.945	3030.76	87.0684	3030.76	86.104	3030.76	85.2741	3030.76	84.7196	3030.76	83.8963	3030.76	81.9855	3030.76	81.95	3030.76	80.4266	3030.76	80.0194	3030.76	77.8855	3030.76	78.1896	3030.76	76.7637	3030.76	76.4192	3030.76	79.7757	3030.76	78.7207	3030.76	77.0621	3030.76	76.3606	3030.76	76.8278	3030.76	77.8887	3030.76	76.6102	3030.76	76.0098	3030.76	69.8027	3030.76	65.9645	3030.76	69.8225
3137.7	89.7698	3137.7	90.117	3137.7	90.179	3137.7	90.2773	3137.7	90.5116	3137.7	90.4183	3137.7	90.3589	3137.7	89.9135	3137.7	89.8552	3137.7	88.7547	3137.7	88.8992	3137.7	86.6955	3137.7	87.0169	3137.7	84.8917	3137.7	84.9699	3137.7	83.6028	3137.7	83.5115	3137.7	81.4819	3137.7	81.3632	3137.7	78.9112	3137.7	79.4977	3137.7	78.8402	3137.7	78.3326	3137.7	75.1199	3137.7	76.2011	3137.7	78.1209	3137.7	77.7496	3137.7	75.7159	3137.7	76.9702	3137.7	76.4888	3137.7	76.0826	3137.7	76.8986	3137.7	77.2683	3137.7	66.4482	3137.7	68.7504	3137.7	67.9745
3249.02	89.9362	3249.02	90.1279	3249.02	90.1822	3249.02	90.3527	3249.02	90.525	3249.02	90.5516	3249.02	90.4421	3249.02	90.2043	3249.02	89.8345	3249.02	89.281	3249.02	89.0294	3249.02	87.3712	3249.02	87.1896	3249.02	84.7514	3249.02	84.899	3249.02	82.7372	3249.02	83.0764	3249.02	81.3439	3249.02	81.0041	3249.02	78.181	3249.02	79.1374	3249.02	77.6648	3249.02	78.4905	3249.02	76.3091	3249.02	76.353	3249.02	76.4576	3249.02	78.017	3249.02	74.7879	3249.02	76.7682	3249.02	76.9015	3249.02	74.695	3249.02	76.6907	3249.02	76.0824	3249.02	67.9939	3249.02	68.9478	3249.02	66.6421
3363.28	89.3275	3363.28	89.3472	3363.28	89.3363	3363.28	89.9035	3363.28	89.9192	3363.28	89.9139	3363.28	90.0239	3363.28	89.9125	3363.28	89.6243	3363.28	88.9866	3363.28	88.7108	3363.28	87.4941	3363.28	87.1231	3363.28	85.6102	3363.28	85.2645	3363.28	83.0931	3363.28	82.3216	3363.28	81.4834	3363.28	80.9282	3363.28	80.2657	3363.28	79.8727	3363.28	79.4278	3363.28	78.3447	3363.28	77.7242	3363.28	75.2186	3363.28	77.6655	3363.28	77.6838	3363.28	78.8343	3363.28	77.8011	3363.28	78.1948	3363.28	76.4807	3363.28	77.1367	3363.28	76.4824	3363.28	70.6566	3363.28	69.2751	3363.28	62.4605
3481.93	90.1302	3481.93	90.1933	3481.93	90.3959	3481.93	90.4414	3481.93	90.8179	3481.93	90.5635	3481.93	90.5872	3481.93	89.8852	3481.93	90.0683	3481.93	89.0028	3481.93	89.1194	3481.93	87.463	3481.93	87.4842	3481.93	85.5152	3481.93	85.4362	3481.93	82.5315	3481.93	83.271	3481.93	80.6361	3481.93	80.865	3481.93	78.7953	3481.93	79.2487	3481.93	77.9443	3481.93	79.0158	3481.93	76.4667	3481.93	77.0276	3481.93	76.8328	3481.93	77.4422	3481.93	78.6816	3481.93	78.6592	3481.93	75.4957	3481.93	78.2771	3481.93	76.5476	3481.93	77.5249	3481.93	68.3081	3481.93	72.0447	3481.93	63.0628
3604.98	89.1531	3604.98	89.3352	3604.98	89.5181	3604.98	89.9685	3604.98	90.1828	3604.98	90.2189	3604.98	90.1058	3604.98	89.7281	3604.98	89.5281	3604.98	88.6562	3604.98	88.272	3604.98	87.4236	3604.98	86.7535	3604.98	85.6549	3604.98	84.69	3604.98	83.5312	3604.98	82.6603	3604.98	81.4533	3604.98	80.9394	3604.98	79.1294	3604.98	77.5628	3604.98	78.4435	3604.98	77.6273	3604.98	77.3223	3604.98	76.9256	3604.98	76.8754	3604.98	75.9877	3604.98	78.5108	3604.98	77.2889	3604.98	76.0913	3604.98	76.705	3604.98	77.5235	3604.98	76.9404	3604.98	72.6579	3604.98	70.7933	3604.98	69.7213
3732.42	90.0594	3732.42	90.223	3732.42	90.2628	3732.42	90.7629	3732.42	90.6823	3732.42	90.6994	3732.42	90.5649	3732.42	89.9994	3732.42	89.705	3732.42	88.6447	3732.42	88.5652	3732.42	87.2988	3732.42	87.1926	3732.42	84.8565	3732.42	85.0586	3732.42	82.5667	3732.42	82.7407	3732.42	80.4539	3732.42	81.9238	3732.42	77.4589	3732.42	79.0909	3732.42	76.3046	3732.42	77.4097	3732.42	76.3808	3732.42	77.2028	3732.42	75.0317	3732.42	76.9133	3732.42	77.2315	3732.42	78.9703	3732.42	76.5975	3732.42	76.5978	3732.42	77.214	3732.42	77.2848	3732.42	70.5658	3732.42	71.9886	3732.42	66.6175
3864.26	89.3879	3864.26	89.8083	3864.26	89.6466	3864.26	90.3123	3864.26	90.2296	3864.26	90.3266	3864.26	90.3463	3864.26	89.8009	3864.26	89.3316	3864.26	88.3383	3864.26	87.985	3864.26	87.0514	3864.26	86.6801	3864.26	85.0138	3864.26	84.5452	3864.26	83.0303	3864.26	82.2779	3864.26	81.1174	3864.26	80.2482	3864.26	80.0146	3864.26	78.5151	3864.26	78.0045	3864.26	77.067	3864.26	77.1355	3864.26	75.3121	3864.26	75.5236	3864.26	75.5377	3864.26	77.7068	3864.26	77.7958	3864.26	75.2168	3864.26	75.2745	3864.26	75.4793	3864.26	77.2966	3864.26	66.2836	3864.26	71.3994	3864.26	60.6348
4000.49	89.862	4000.49	89.9823	4000.49	89.8068	4000.49	90.1467	4000.49	90.3834	4000.49	90.5033	4000.49	90.3996	4000.49	89.8415	4000.49	89.9371	4000.49	89.0259	4000.49	88.5226	4000.49	86.5697	4000.49	87.0069	4000.49	84.9098	4000.49	85.2538	4000.49	82.6117	4000.49	82.3845	4000.49	80.4743	4000.49	79.4175	4000.49	78.9203	4000.49	77.831	4000.49	78.0745	4000.49	78.0735	4000.49	75.6736	4000.49	76.2322	4000.49	75.8159	4000.49	75.4122	4000.49	77.2518	4000.49	78.1033	4000.49	75.5613	4000.49	77.0163	4000.49	76.174	4000.49	75.6442	4000.49	69.5471	4000.49	68.5258	4000.49	44.5626
4141.11	89.1847	4141.11	89.1361	4141.11	89.4031	4141.11	89.7894	4141.11	89.6158	4141.11	90.0566	4141.11	90.0091	4141.11	89.7105	4141.11	89.4013	4141.11	88.3445	4141.11	88.7349	4141.11	87.0954	4141.11	86.8953	4141.11	84.6105	4141.11	84.7464	4141.11	82.2382	4141.11	83.0165	4141.11	80.624	4141.11	80.5429	4141.11	77.6239	4141.11	77.7263	4141.11	76.5699	4141.11	77.6273	4141.11	75.7857	4141.11	77.5077	4141.11	75.8996	4141.11	75.611	4141.11	77.3015	4141.11	77.72	4141.11	76.0157	4141.11	76.8532	4141.11	75.529	4141.11	76.448	4141.11	66.8879	4141.11	71.0451	4141.11	62.419
4287.6	89.405	4287.6	89.1917	4287.6	89.4784	4287.6	89.4369	4287.6	89.802	4287.6	89.7637	4287.6	89.8578	4287.6	89.5133	4287.6	89.212	4287.6	88.1355	4287.6	88.2007	4287.6	86.5144	4287.6	86.8696	4287.6	84.7205	4287.6	84.3605	4287.6	82.1735	4287.6	82.1057	4287.6	79.9577	4287.6	81.3181	4287.6	77.8736	4287.6	78.0234	4287.6	76.1962	4287.6	77.5747	4287.6	76.4719	4287.6	75.4874	4287.6	75.7826	4287.6	75.762	4287.6	77.1413	4287.6	77.3198	4287.6	76.3383	4287.6	76.5327	4287.6	74.9424	4287.6	76.678	4287.6	71.3474	4287.6	69.9576	4287.6	56.186
4438.48	90.011	4438.48	89.705	4438.48	89.658	4438.48	89.5494	4438.48	89.5228	4438.48	89.4525	4438.48	89.7239	4438.48	89.3924	4438.48	88.9184	4438.48	88.3697	4438.48	88.2022	4438.48	86.8358	4438.48	86.5257	4438.48	84.9861	4438.48	85.0425	4438.48	83.4452	4438.48	82.6752	4438.48	79.8181	4438.48	78.6333	4438.48	77.9353	4438.48	78.7317	4438.48	76.8728	4438.48	74.8886	4438.48	75.4838	4438.48	74.0501	4438.48	76.411	4438.48	74.8222	4438.48	75.5013	4438.48	74.6341	4438.48	76.4522	4438.48	75.3615	4438.48	76.0627	4438.48	75.3585	4438.48	68.5265	4438.48	65.6821	4438.48	61.4747
4595.21	90.2422	4595.21	90.0095	4595.21	89.6314	4595.21	89.6773	4595.21	89.6989	4595.21	89.2973	4595.21	89.1983	4595.21	88.7337	4595.21	88.8579	4595.21	88.0007	4595.21	88.0185	4595.21	86.8133	4595.21	86.5405	4595.21	84.0898	4595.21	84.2379	4595.21	81.3711	4595.21	82.7006	4595.21	78.5646	4595.21	80.102	4595.21	78.4897	4595.21	78.725	4595.21	75.8218	4595.21	76.5817	4595.21	75.5779	4595.21	74.7115	4595.21	74.8512	4595.21	74.9136	4595.21	74.7874	4595.21	76.2689	4595.21	73.7114	4595.21	76.5424	4595.21	72.4276	4595.21	71.717	4595.21	63.8604	4595.21	67.0835	4595.21	66.3282
4756.35	90.275	4756.35	90.216	4756.35	90.413	4756.35	89.6562	4756.35	89.6937	4756.35	88.736	4756.35	89.5156	4756.35	88.9885	4756.35	88.9306	4756.35	88.0015	4756.35	88.4361	4756.35	86.6825	4756.35	87.0712	4756.35	84.5455	4756.35	85.0668	4756.35	82.9837	4756.35	82.6371	4756.35	80.9288	4756.35	80.1296	4756.35	78.015	4756.35	77.2522	4756.35	75.2324	4756.35	74.0727	4756.35	75.2317	4756.35	75.8405	4756.35	75.2127	4756.35	75.6487	4756.35	75.2168	4756.35	74.8287	4756.35	75.223	4756.35	74.3635	4756.35	72.8792	4756.35	72.432	4756.35	67.2521	4756.35	63.0017	4756.35	62.8094
4924.8	90.1364	4924.8	89.816	4924.8	89.748	4924.8	89.3252	4924.8	89.2281	4924.8	89.2115	4924.8	88.9734	4924.8	88.2975	4924.8	88.5869	4924.8	88.4343	4924.8	87.8033	4924.8	86.9513	4924.8	86.7447	4924.8	85.1149	4924.8	84.1783	4924.8	82.9354	4924.8	81.555	4924.8	78.984	4924.8	77.8935	4924.8	78.088	4924.8	78.0239	4924.8	74.8594	4924.8	75.3306	4924.8	73.7343	4924.8	73.4422	4924.8	74.2781	4924.8	74.3002	4924.8	73.4761	4924.8	74.1652	4924.8	74.4624	4924.8	76.3445	4924.8	72.4918	4924.8	71.5017	4924.8	61.5554	4924.8	69.4632	4924.8	62.5514
5097.66	90.2164	5097.66	89.7318	5097.66	89.8107	5097.66	89.4025	5097.66	89.4888	5097.66	89.4025	5097.66	89.2183	5097.66	88.9357	5097.66	88.9771	5097.66	87.8479	5097.66	88.5097	5097.66	86.5459	5097.66	86.8339	5097.66	83.9048	5097.66	84.7982	5097.66	81.4058	5097.66	82.9433	5097.66	78.8183	5097.66	80.2244	5097.66	76.4112	5097.66	76.5327	5097.66	75.313	5097.66	75.9037	5097.66	75.1721	5097.66	74.1224	5097.66	73.8565	5097.66	75.4938	5097.66	74.6482	5097.66	74.8647	5097.66	75.4281	5097.66	76.5179	5097.66	70.1786	5097.66	72.1483	5097.66	67.5983	5097.66	67.9862	5097.66	69.4513
5277.83	89.9082	5277.83	89.705	5277.83	89.6077	5277.83	89.1026	5277.83	89.2721	5277.83	88.941	5277.83	89.237	5277.83	88.5666	5277.83	88.3244	5277.83	88.1203	5277.83	87.6293	5277.83	86.0659	5277.83	86.336	5277.83	83.5516	5277.83	83.7907	5277.83	81.2564	5277.83	80.074	5277.83	78.9954	5277.83	77.735	5277.83	75.3742	5277.83	76.0063	5277.83	74.3928	5277.83	73.7484	5277.83	73.3466	5277.83	73.7712	5277.83	72.7012	5277.83	73.4737	5277.83	73.4965	5277.83	73.1312	5277.83	75.065	5277.83	74.5557	5277.83	70.2328	5277.83	70.6301	5277.83	69.7423	5277.83	62.8638	5277.83	65.6676
5463.87	90.3175	5463.87	89.6483	5463.87	89.6545	5463.87	89.1026	5463.87	88.992	5463.87	89.1914	5463.87	88.7399	5463.87	88.5813	5463.87	88.3885	5463.87	87.6056	5463.87	87.3025	5463.87	85.8183	5463.87	85.2378	5463.87	83.0541	5463.87	82.9177	5463.87	80.821	5463.87	81.0674	5463.87	77.3933	5463.87	77.7374	5463.87	75.1311	5463.87	75.2965	5463.87	72.3767	5463.87	72.6965	5463.87	72.1253	5463.87	72.3576	5463.87	72.7778	5463.87	73.6223	5463.87	71.9479	5463.87	74.2995	5463.87	73.675	5463.87	73.9017	5463.87	68.2701	5463.87	69.7175	5463.87	63.4081	5463.87	66.735	5463.87	66.5125
5657.23	90.2588	5657.23	89.8635	5657.23	89.6574	5657.23	89.0278	5657.23	88.8099	5657.23	88.3948	5657.23	88.4247	5657.23	87.81	5657.23	87.8256	5657.23	86.6686	5657.23	86.5214	5657.23	84.549	5657.23	84.9308	5657.23	82.3048	5657.23	82.0093	5657.23	79.7809	5657.23	78.4606	5657.23	76.9733	5657.23	76.4763	5657.23	74.2221	5657.23	75.1244	5657.23	73.8018	5657.23	73.6628	5657.23	72.6424	5657.23	72.8887	5657.23	73.1831	5657.23	70.9395	5657.23	72.6618	5657.23	72.2842	5657.23	73.3805	5657.23	72.0734	5657.23	66.2656	5657.23	67.2289	5657.23	58.6477	5657.23	64.1651	5657.23	66.7564
5856.45	90.6291	5856.45	89.9507	5856.45	90.044	5856.45	88.8155	5856.45	88.8867	5856.45	87.6173	5856.45	87.9531	5856.45	87.287	5856.45	87.5447	5856.45	86.4131	5856.45	86.5753	5856.45	84.2688	5856.45	84.4809	5856.45	82.104	5856.45	82.3273	5856.45	79.9496	5856.45	79.7623	5856.45	77.5902	5856.45	76.4296	5856.45	75.2955	5856.45	74.4603	5856.45	72.9029	5856.45	71.8885	5856.45	71.6016	5856.45	70.6081	5856.45	73.2028	5856.45	73.0899	5856.45	73.2229	5856.45	72.5496	5856.45	73.0729	5856.45	71.9036	5856.45	68.5037	5856.45	70.1786	5856.45	60.4767	5856.45	64.7817	5856.45	69.1707
6062.99	91.1066	6062.99	90.3763	6062.99	90.3469	6062.99	89.1073	6062.99	89.1181	6062.99	88.0939	6062.99	88.0293	6062.99	87.3132	6062.99	87.5913	6062.99	86.6619	6062.99	86.7188	6062.99	85.1563	6062.99	84.8932	6062.99	82.989	6062.99	82.5312	6062.99	80.3906	6062.99	80.1184	6062.99	77.1839	6062.99	77.3348	6062.99	73.3269	6062.99	74.323	6062.99	73.2676	6062.99	72.6483	6062.99	71.3705	6062.99	70.6091	6062.99	72.9359	6062.99	73.6541	6062.99	72.2939	6062.99	72.4186	6062.99	71.9693	6062.99	73.2822	6062.99	68.6932	6062.99	68.7437	6062.99	57.9164	6062.99	65.7722	6062.99	69.3314
6276.86	91.579	6276.86	90.9536	6276.86	91.0313	6276.86	89.614	6276.86	89.5476	6276.86	88.3826	6276.86	88.1335	6276.86	87.8291	6276.86	87.478	6276.86	87.411	6276.86	86.8702	6276.86	85.8181	6276.86	85.2624	6276.86	83.5616	6276.86	83.5063	6276.86	81.0142	6276.86	80.9563	6276.86	78.2665	6276.86	77.7228	6276.86	75.2312	6276.86	75.2736	6276.86	73.7414	6276.86	73.0571	6276.86	72.034	6276.86	69.7306	6276.86	73.0624	6276.86	72.4336	6276.86	72.3236	6276.86	73.2057	6276.86	71.9242	6276.86	71.525	6276.86	69.2177	6276.86	69.6853	6276.86	61.239	6276.86	59.4848	6276.86	69.8449
6498.05	92.2461	6498.05	91.7432	6498.05	91.6974	6498.05	90.4731	6498.05	90.2107	6498.05	89.5603	6498.05	89.0197	6498.05	88.8147	6498.05	88.5532	6498.05	88.1846	6498.05	87.8148	6498.05	86.7328	6498.05	86.7994	6498.05	84.4849	6498.05	83.9572	6498.05	81.825	6498.05	81.1336	6498.05	78.9931	6498.05	79.3668	6498.05	75.2405	6498.05	76.5955	6498.05	72.9253	6498.05	73.1006	6498.05	72.8532	6498.05	73.2591	6498.05	72.0333	6498.05	71.8273	6498.05	73.399	6498.05	72.1749	6498.05	72.7116	6498.05	73.734	6498.05	70.1512	6498.05	69.3085	6498.05	54.5506	6498.05	62.472	6498.05	70.3366
6726.56	92.307	6726.56	92.2329	6726.56	91.85	6726.56	91.3049	6726.56	90.7097	6726.56	90.4017	6726.56	89.473	6726.56	89.5991	6726.56	88.9427	6726.56	88.9943	6726.56	88.4818	6726.56	87.4244	6726.56	86.9686	6726.56	85.2331	6726.56	84.4437	6726.56	82.6627	6726.56	81.9053	6726.56	79.5992	6726.56	78.0823	6726.56	76.6755	6726.56	75.1411	6726.56	74.5098	6726.56	73.1988	6726.56	73.6903	6726.56	72.0527	6726.56	72.7429	6726.56	73.7725	6726.56	73.4499	6726.56	73.1305	6726.56	72.9861	6726.56	72.6021	6726.56	69.4021	6726.56	69.5101	6726.56	52.5374	6726.56	58.6888	6726.56	70.7462
6963.87	91.6197	6963.87	91.4475	6963.87	91.6415	6963.87	90.6801	6963.87	90.6671	6963.87	89.6694	6963.87	89.6933	6963.87	89.0445	6963.87	89.1824	6963.87	88.6289	6963.87	88.3217	6963.87	87.1475	6963.87	86.8985	6963.87	84.9919	6963.87	84.837	6963.87	82.2976	6963.87	81.2016	6963.87	78.9663	6963.87	78.3981	6963.87	76.3662	6963.87	75.6193	6963.87	73.6028	6963.87	73.4598	6963.87	73.0564	6963.87	72.7369	6963.87	73.4991	6963.87	72.2297	6963.87	72.6882	6963.87	73.0295	6963.87	72.8784	6963.87	72.5594	6963.87	69.9602	6963.87	67.479	6963.87	50.7914	6963.87	59.4629	6963.87	70.882
7209.96	91.5259	7209.96	91.43	7209.96	91.5185	7209.96	90.905	7209.96	90.8124	7209.96	89.6751	7209.96	89.6072	7209.96	88.8955	7209.96	88.9836	7209.96	88.4733	7209.96	88.5636	7209.96	86.8435	7209.96	86.9672	7209.96	84.6656	7209.96	84.2725	7209.96	81.8288	7209.96	81.3159	7209.96	78.8234	7209.96	78.513	7209.96	75.3529	7209.96	75.6271	7209.96	73.1974	7209.96	71.7857	7209.96	71.5825	7209.96	71.8672	7209.96	73.4838	7209.96	72.9183	7209.96	72.7672	7209.96	72.7075	7209.96	73.1042	7209.96	72.3182	7209.96	70.2792	7209.96	68.8136	7209.96	51.7014	7209.96	57.2747	7209.96	70.5179
7464.84	91.4528	7464.84	91.5915	7464.84	91.7723	7464.84	91.1288	7464.84	90.9792	7464.84	89.7167	7464.84	89.506	7464.84	88.6726	7464.84	88.961	7464.84	88.4077	7464.84	88.337	7464.84	86.8204	7464.84	86.9529	7464.84	84.4907	7464.84	84.5003	7464.84	81.5317	7464.84	81.2667	7464.84	78.1387	7464.84	78.5179	7464.84	75.3883	7464.84	75.473	7464.84	72.3496	7464.84	72.9377	7464.84	71.9697	7464.84	71.3461	7464.84	72.4661	7464.84	72.2293	7464.84	72.3623	7464.84	72.9394	7464.84	72.0055	7464.84	71.5995	7464.84	68.9358	7464.84	67.7469	7464.84	59.0381	7464.84	58.3501	7464.84	70.1172
7727.05	91.5383	7727.05	91.7338	7727.05	91.7643	7727.05	91.1332	7727.05	90.9874	7727.05	89.4318	7727.05	89.0377	7727.05	88.2125	7727.05	88.3456	7727.05	87.9729	7727.05	88.0067	7727.05	86.4527	7727.05	86.5061	7727.05	84.4061	7727.05	83.9811	7727.05	80.9366	7727.05	80.9798	7727.05	77.8534	7727.05	78.0082	7727.05	74.326	7727.05	74.7624	7727.05	72.1737	7727.05	71.5508	7727.05	71.8286	7727.05	69.5952	7727.05	71.1281	7727.05	71.8011	7727.05	72.1081	7727.05	71.291	7727.05	71.4003	7727.05	71.6192	7727.05	66.6256	7727.05	66.5862	7727.05	54.7813	7727.05	61.9583	7727.05	69.203
7999.51	90.9355	7999.51	91.4235	7999.51	91.5096	7999.51	90.6606	7999.51	90.5197	7999.51	88.7061	7999.51	88.3624	7999.51	87.4452	7999.51	87.7453	7999.51	87.5153	7999.51	87.3818	7999.51	85.9683	7999.51	86.0561	7999.51	83.8358	7999.51	83.746	7999.51	80.7255	7999.51	80.7677	7999.51	77.5241	7999.51	77.9795	7999.51	74.1274	7999.51	74.5046	7999.51	71.5031	7999.51	71.475	7999.51	70.5195	7999.51	71.8386	7999.51	70.6814	7999.51	66.5638	7999.51	70.5355	7999.51	71.0036	7999.51	70.5071	7999.51	71.3378	7999.51	65.7845	7999.51	67.4218	7999.51	59.5383	7999.51	60.7275	7999.51	68.7409
8282.23	90.7897	8282.23	91.0323	8282.23	90.898	8282.23	90.1145	8282.23	89.9001	8282.23	88.2138	8282.23	87.8572	8282.23	87.0867	8282.23	87.2224	8282.23	87.1786	8282.23	87.0296	8282.23	85.7726	8282.23	85.9121	8282.23	83.6143	8282.23	83.4302	8282.23	80.7307	8282.23	80.4975	8282.23	77.213	8282.23	77.3187	8282.23	74.2814	8282.23	73.9755	8282.23	70.9845	8282.23	70.706	8282.23	69.9062	8282.23	70.4045	8282.23	69.6211	8282.23	67.9665	8282.23	70.426	8282.23	71.0091	8282.23	71.2339	8282.23	69.7292	8282.23	65.3312	8282.23	66.2544	8282.23	61.3579	8282.23	63.4581	8282.23	66.5975
8573.73	90.575	8573.73	90.7174	8573.73	90.7845	8573.73	89.8873	8573.73	89.6432	8573.73	88.5212	8573.73	87.9117	8573.73	87.2828	8573.73	87.0533	8573.73	87.0349	8573.73	86.463	8573.73	85.5042	8573.73	85.3323	8573.73	83.564	8573.73	82.6618	8573.73	80.4191	8573.73	79.2342	8573.73	76.5366	8573.73	76.6085	8573.73	73.5316	8573.73	73.465	8573.73	71.2696	8573.73	69.6011	8573.73	69.3803	8573.73	69.2091	8573.73	68.3499	8573.73	66.8798	8573.73	69.9271	8573.73	69.4785	8573.73	70.5379	8573.73	69.7187	8573.73	64.8407	8573.73	64.3743	8573.73	61.5879	8573.73	62.463	8573.73	66.0039
8876.95	90.836	8876.95	90.8027	8876.95	90.9129	8876.95	90.0993	8876.95	90.1171	8876.95	88.8351	8876.95	88.455	8876.95	87.33	8876.95	87.1829	8876.95	86.4247	8876.95	86.3944	8876.95	85.1285	8876.95	85.1364	8876.95	83.2257	8876.95	82.5889	8876.95	79.6715	8876.95	79.3556	8876.95	76.472	8876.95	76.6554	8876.95	73.2314	8876.95	73.104	8876.95	70.5765	8876.95	69.3828	8876.95	68.0706	8876.95	69.1098	8876.95	67.8271	8876.95	68.8786	8876.95	69.0834	8876.95	69.7031	8876.95	70.187	8876.95	69.1128	8876.95	63.1212	8876.95	66.2968	8876.95	63.6188	8876.95	63.6823	8876.95	65.7819
9188.96	90.9307	9188.96	90.8901	9188.96	91.0325	9188.96	90.3113	9188.96	90.1746	9188.96	88.6594	9188.96	88.6222	9188.96	86.8198	9188.96	86.9472	9188.96	85.9312	9188.96	86.215	9188.96	84.8015	9188.96	85.1296	9188.96	82.9859	9188.96	82.9062	9188.96	79.3759	9188.96	79.6585	9188.96	75.9641	9188.96	76.8928	9188.96	72.7231	9188.96	72.6688	9188.96	70.0701	9188.96	69.7823	9188.96	67.5778	9188.96	69.1612	9188.96	68.0565	9188.96	67.5508	9188.96	70.5924	9188.96	68.9559	9188.96	69.2171	9188.96	69.3786	9188.96	63.1908	9188.96	64.365	9188.96	64.4493	9188.96	64.0225	9188.96	64.6379
9514.16	91.0661	9514.16	90.7458	9514.16	91.0607	9514.16	90.0682	9514.16	90.1653	9514.16	88.2836	9514.16	88.5439	9514.16	86.2294	9514.16	86.5843	9514.16	85.5254	9514.16	85.9166	9514.16	84.1777	9514.16	85.0787	9514.16	82.3865	9514.16	83.0277	9514.16	78.9145	9514.16	79.2098	9514.16	75.6456	9514.16	76.1922	9514.16	72.1172	9514.16	72.2395	9514.16	68.4358	9514.16	69.3937	9514.16	66.0742	9514.16	67.5222	9514.16	66.3647	9514.16	66.4967	9514.16	68.8108	9514.16	69.6513	9514.16	68.3669	9514.16	68.2605	9514.16	59.229	9514.16	63.4975	9514.16	65.5756	9514.16	63.488	9514.16	64.0674
9849.61	90.9571	9849.61	90.6167	9849.61	90.8305	9849.61	89.7641	9849.61	90.0397	9849.61	88.2656	9849.61	88.2823	9849.61	85.8467	9849.61	86.4879	9849.61	84.9441	9849.61	85.5044	9849.61	83.7142	9849.61	84.5679	9849.61	81.4437	9849.61	82.1913	9849.61	78.3127	9849.61	78.3935	9849.61	74.139	9849.61	75.5696	9849.61	71.1747	9849.61	72.0353	9849.61	68.1133	9849.61	68.8079	9849.61	65.7427	9849.61	65.8572	9849.61	64.5307	9849.61	66.8824	9849.61	68.4985	9849.61	69.7829	9849.61	68.331	9849.61	67.6991	9849.61	56.0775	9849.61	61.6023	9849.61	63.797	9849.61	63.2908	9849.61	62.2948
10196.8	90.5836	10196.8	90.3564	10196.8	90.5128	10196.8	89.5905	10196.8	90.0537	10196.8	88.1913	10196.8	88.3355	10196.8	85.7946	10196.8	86.4311	10196.8	84.6752	10196.8	85.0675	10196.8	83.5	10196.8	84.1189	10196.8	80.985	10196.8	81.6221	10196.8	77.3927	10196.8	78.1487	10196.8	73.3031	10196.8	74.9738	10196.8	70.0704	10196.8	71.2689	10196.8	67.2594	10196.8	67.9241	10196.8	66.0167	10196.8	64.8789	10196.8	64.5194	10196.8	66.8861	10196.8	67.6167	10196.8	68.6843	10196.8	66.2535	10196.8	67.1263	10196.8	58.1137	10196.8	60.1587	10196.8	64.7598	10196.8	61.9999	10196.8	62.1906
10555.7	90.757	10555.7	90.3302	10555.7	90.5619	10555.7	89.3993	10555.7	89.7988	10555.7	87.725	10555.7	88.1833	10555.7	85.3403	10555.7	85.9905	10555.7	84.1386	10555.7	84.2959	10555.7	82.6765	10555.7	83.2408	10555.7	80.6687	10555.7	80.8112	10555.7	76.9283	10555.7	77.0902	10555.7	73.116	10555.7	73.5832	10555.7	69.1819	10555.7	69.2977	10555.7	66.6544	10555.7	66.4899	10555.7	63.3641	10555.7	63.5946	10555.7	64.1427	10555.7	65.3264	10555.7	67.4688	10555.7	67.7617	10555.7	66.3113	10555.7	65.8327	10555.7	54.4465	10555.7	58.7905	10555.7	62.5988	10555.7	61.1454	10555.7	60.2344
10927.7	90.8155	10927.7	90.4344	10927.7	90.6882	10927.7	89.3604	10927.7	89.557	10927.7	87.7245	10927.7	87.9573	10927.7	85.3175	10927.7	85.7149	10927.7	83.4588	10927.7	83.7711	10927.7	81.7408	10927.7	82.1631	10927.7	79.4354	10927.7	79.4381	10927.7	75.6287	10927.7	75.9519	10927.7	71.5119	10927.7	72.3532	10927.7	69.2382	10927.7	68.7924	10927.7	65.2603	10927.7	66.3931	10927.7	60.5204	10927.7	61.4966	10927.7	62.0668	10927.7	62.8828	10927.7	66.0129	10927.7	66.3852	10927.7	64.7627	10927.7	65.0765	10927.7	52.5529	10927.7	59.0852	10927.7	61.7131	10927.7	60.3252	10927.7	59.3451
11313	90.853	11313	90.4387	11313	90.8294	11313	89.4299	11313	89.719	11313	87.9232	11313	88.0901	11313	85.5169	11313	85.8373	11313	82.9348	11313	83.2815	11313	81.0695	11313	81.6921	11313	77.9798	11313	78.657	11313	74.8696	11313	74.747	11313	70.2196	11313	71.1407	11313	67.9185	11313	68.6004	11313	62.9901	11313	63.5254	11313	58.2244	11313	59.8398	11313	60.6495	11313	62.2022	11313	65.0131	11313	65.3291	11313	63.579	11313	63.7634	11313	43.4642	11313	56.037	11313	61.2994	11313	59.2711	11313	57.155
11712.9	91.1794	11712.9	91.0385	11712.9	91.1111	11712.9	89.7175	11712.9	89.9652	11712.9	87.9845	11712.9	88.1134	11712.9	85.4107	11712.9	85.7707	11712.9	82.0965	11712.9	82.4454	11712.9	80.23	11712.9	80.8416	11712.9	77.4473	11712.9	77.8937	11712.9	73.744	11712.9	73.9763	11712.9	69.8188	11712.9	70.5998	11712.9	66.7538	11712.9	65.7242	11712.9	62.3251	11712.9	61.4463	11712.9	57.7961	11712.9	59.2403	11712.9	59.9105	11712.9	60.0119	11712.9	63.0002	11712.9	64.1175	11712.9	62.3148	11712.9	61.4844	11712.9	44.7839	11712.9	54.6758	11712.9	59.5588	11712.9	58.237	11712.9	53.5379
12126	91.4009	12126	91.2361	12126	91.3653	12126	89.8155	12126	90.1695	12126	88.1004	12126	88.3539	12126	85.5135	12126	85.7691	12126	81.9968	12126	82.2682	12126	79.7526	12126	79.943	12126	77.2262	12126	76.8235	12126	71.9279	12126	72.609	12126	67.9116	12126	69.1849	12126	64.7011	12126	63.6773	12126	61.2435	12126	62.0223	12126	55.0728	12126	59.1837	12126	57.4262	12126	55.8193	12126	61.8778	12126	62.1809	12126	60.5911	12126	58.3762	12126	45.7835	12126	51.7698	12126	59.1407	12126	57.0167	12126	52.8438
12553.7	91.5547	12553.7	91.4194	12553.7	91.5134	12553.7	90.0304	12553.7	90.14	12553.7	88.1737	12553.7	88.2449	12553.7	85.2562	12553.7	85.5469	12553.7	81.4629	12553.7	81.9685	12553.7	78.6262	12553.7	79.1018	12553.7	75.3088	12553.7	75.0522	12553.7	71.0789	12553.7	70.4653	12553.7	67.083	12553.7	67.0856	12553.7	64.6968	12553.7	63.8844	12553.7	60.0348	12553.7	60.2658	12553.7	53.6862	12553.7	57.6994	12553.7	57.075	12553.7	51.8709	12553.7	59.7818	12553.7	59.4234	12553.7	59.3174	12553.7	56.784	12553.7	44.0585	12553.7	49.9513	12553.7	56.6383	12553.7	53.9489	12553.7	48.2029
12996.1	91.6886	12996.1	91.4602	12996.1	91.6858	12996.1	89.9236	12996.1	90.2174	12996.1	87.8371	12996.1	88.0634	12996.1	84.8451	12996.1	85.2442	12996.1	80.8292	12996.1	81.2633	12996.1	77.749	12996.1	78.0473	12996.1	73.8161	12996.1	73.8692	12996.1	70.68	12996.1	68.7739	12996.1	66.4957	12996.1	65.5724	12996.1	63.4025	12996.1	61.7271	12996.1	58.9743	12996.1	58.1808	12996.1	54.9305	12996.1	56.8117	12996.1	57.9626	12996.1	50.26	12996.1	58.603	12996.1	56.6236	12996.1	57.0388	12996.1	54.5607	12996.1	44.6574	12996.1	48.5826	12996.1	54.4288	12996.1	50.5554	12996.1	39.0807
13454.6	91.6107	13454.6	91.1836	13454.6	91.4421	13454.6	89.5192	13454.6	90.0219	13454.6	87.1922	13454.6	87.5824	13454.6	84.1463	13454.6	84.529	13454.6	79.6806	13454.6	80.1144	13454.6	76.3496	13454.6	76.3869	13454.6	72.3057	13454.6	71.8031	13454.6	69.0372	13454.6	66.8691	13454.6	65.0666	13454.6	63.7397	13454.6	62.2157	13454.6	60.3522	13454.6	57.1123	13454.6	57.1401	13454.6	53.8754	13454.6	55.5802	13454.6	56.2875	13454.6	45.3784	13454.6	57.7961	13454.6	53.4614	13454.6	54.0479	13454.6	51.3438	13454.6	45.6345	13454.6	46.835	13454.6	52.6786	13454.6	46.1151	13454.6	40.7179
13929.2	91.3977	13929.2	90.9083	13929.2	91.1988	13929.2	89.1144	13929.2	89.6544	13929.2	86.5211	13929.2	86.9722	13929.2	83.1946	13929.2	83.5314	13929.2	78.0802	13929.2	78.5181	13929.2	74.7871	13929.2	74.2424	13929.2	70.7624	13929.2	69.4841	13929.2	68.1461	13929.2	65.4078	13929.2	64.5285	13929.2	62.2853	13929.2	61.6097	13929.2	59.9382	13929.2	55.4608	13929.2	56.3795	13929.2	52.0001	13929.2	54.6844	13929.2	55.2144	13929.2	46.5886	13929.2	56.8719	13929.2	52.0047	13929.2	53.1912	13929.2	50.4689	13929.2	45.8974	13929.2	47.598	13929.2	51.3578	13929.2	41.9506	13929.2	38.9005
14419.9	90.3861	14419.9	89.9667	14419.9	90.2669	14419.9	88.0872	14419.9	88.6935	14419.9	85.5387	14419.9	85.9044	14419.9	82.0239	14419.9	82.4745	14419.9	76.9143	14419.9	77.3823	14419.9	74.5322	14419.9	73.6417	14419.9	71.4178	14419.9	70.1684	14419.9	69.4691	14419.9	67.0827	14419.9	65.7775	14419.9	64.0066	14419.9	62.4366	14419.9	61.4035	14419.9	57.491	14419.9	57.2616	14419.9	55.0108	14419.9	54.8076	14419.9	55.0531	14419.9	46.1031	14419.9	57.1153	14419.9	53.0515	14419.9	53.1463	14419.9	52.2589	14419.9	48.2464	14419.9	50.2603	14419.9	52.0321	14419.9	45.881	14419.9	40.6267
14928.2	88.993	14928.2	88.605	14928.2	88.9946	14928.2	87.4436	14928.2	87.9926	14928.2	85.464	14928.2	85.9824	14928.2	83.4334	14928.2	83.6045	14928.2	79.1004	14928.2	79.4944	14928.2	76.9893	14928.2	76.4379	14928.2	74.0938	14928.2	73.4698	14928.2	71.0443	14928.2	69.1217	14928.2	67.3245	14928.2	65.8176	14928.2	63.4506	14928.2	62.057	14928.2	59.4635	14928.2	59.5141	14928.2	56.3311	14928.2	57.5282	14928.2	53.253	14928.2	46.107	14928.2	56.982	14928.2	53.4707	14928.2	54.9623	14928.2	54.6917	14928.2	50.0488	14928.2	48.5022	14928.2	54.3605	14928.2	49.2209	14928.2	33.5564
15455.6	92.6615	15455.6	91.8336	15455.6	92.3248	15455.6	89.6414	15455.6	90.5389	15455.6	86.2759	15455.6	87.1793	15455.6	82.4121	15455.6	83.1775	15455.6	76.3877	15455.6	77.1603	15455.6	70.9709	15455.6	70.6815	15455.6	63.7357	15455.6	61.0601	15455.6	59.1339	15455.6	49.6631	15455.6	54.8831	15455.6	48.0742	15455.6	50.7067	15455.6	45.4685	15455.6	36.1467	15455.6	42.3334	15455.6	44.6683	15455.6	40.9649	15455.6	46.0159	15455.6	37.0331	15455.6	46.3579	15455.6	37.8736	15455.6	35.4269	15455.6	44.8824	15455.6	40.814	15455.6	44.8862	15455.6	29.4491	15455.6	47.2423	15455.6	43.7283
16000.5	91.7496	16000.5	90.8522	16000.5	91.3943	16000.5	88.4716	16000.5	89.4481	16000.5	84.7488	16000.5	85.7107	16000.5	80.0904	16000.5	80.6947	16000.5	72.0657	16000.5	72.5742	16000.5	65.6294	16000.5	61.5539	16000.5	60.9399	16000.5	60.6257	16000.5	60.13	16000.5	60.8211	16000.5	57.9555	16000.5	60.1355	16000.5	53.0627	16000.5	54.6182	16000.5	51.6044	16000.5	52.1576	16000.5	48.8129	16000.5	46.1739	16000.5	47.1493	16000.5	42.6491	16000.5	50.1987	16000.5	46.5174	16000.5	44.1448	16000.5	48.2859	16000.5	45.1226	16000.5	45.6995	16000.5	43.2378	16000.5	46.7751	16000.5	44.4485
16564.5	90.8141	16564.5	89.8853	16564.5	90.4055	16564.5	87.4219	16564.5	88.2974	16564.5	83.3781	16564.5	84.3082	16564.5	78.2202	16564.5	78.5524	16564.5	69.2035	16564.5	68.1076	16564.5	64.7064	16564.5	60.7575	16564.5	63.072	16564.5	65.7427	16564.5	63.2891	16564.5	63.8653	16564.5	60.6507	16564.5	62.1846	16564.5	56.1497	16564.5	58.0686	16564.5	53.4251	16564.5	54.4995	16564.5	50.1277	16564.5	48.3177	16564.5	44.9067	16564.5	43.6856	16564.5	50.6927	16564.5	46.431	16564.5	43.9177	16564.5	48.5859	16564.5	43.4735	16564.5	46.1138	16564.5	44.2747	16564.5	45.1452	16564.5	44.4191
17148.9	89.7069	17148.9	88.7981	17148.9	89.2672	17148.9	86.2414	17148.9	87.0517	17148.9	82.0795	17148.9	82.8204	17148.9	76.6063	17148.9	76.3439	17148.9	67.0684	17148.9	64.6615	17148.9	66.0306	17148.9	64.6666	17148.9	65.2111	17148.9	67.7408	17148.9	65.0092	17148.9	65.1902	17148.9	61.8191	17148.9	63.1039	17148.9	57.3577	17148.9	58.2174	17148.9	55.4574	17148.9	54.948	17148.9	50.5296	17148.9	49.1884	17148.9	47.1245	17148.9	46.7119	17148.9	50.2753	17148.9	45.4524	17148.9	44.2653	17148.9	47.2461	17148.9	36.9638	17148.9	46.9365	17148.9	41.8742	17148.9	46.0009	17148.9	43.6567
17752.4	88.5907	17752.4	87.6787	17752.4	88.0148	17752.4	84.9397	17752.4	85.6068	17752.4	80.5462	17752.4	80.9246	17752.4	74.6216	17752.4	73.4863	17752.4	65.3681	17752.4	60.9459	17752.4	66.715	17752.4	66.5146	17752.4	66.351	17752.4	68.2038	17752.4	65.0623	17752.4	65.0474	17752.4	62.58	17752.4	62.73	17752.4	56.869	17752.4	57.6584	17752.4	54.9639	17752.4	53.5584	17752.4	50.5839	17752.4	49.3404	17752.4	44.1055	17752.4	44.8297	17752.4	48.0799	17752.4	44.6835	17752.4	42.8845	17752.4	44.5373	17752.4	38.9548	17752.4	45.697	17752.4	42.1011	17752.4	46.8385	17752.4	43.1966
18379.4	87.4116	18379.4	86.5153	18379.4	86.7458	18379.4	83.7135	18379.4	84.0949	18379.4	78.875	18379.4	78.7918	18379.4	71.858	18379.4	70.0726	18379.4	63.7825	18379.4	63.0541	18379.4	66.4628	18379.4	67.2476	18379.4	66.1197	18379.4	68.1435	18379.4	64.0171	18379.4	64.6626	18379.4	62.045	18379.4	61.9993	18379.4	55.1326	18379.4	56.4987	18379.4	53.0753	18379.4	53.1913	18379.4	49.5637	18379.4	47.5005	18379.4	43.6782	18379.4	47.8084	18379.4	45.3695	18379.4	41.1065	18379.4	38.6203	18379.4	43.2924	18379.4	40.3631	18379.4	44.4003	18379.4	42.842	18379.4	45.2262	18379.4	42.6126
19026.9	86.4178	19026.9	85.4323	19026.9	85.5421	19026.9	82.2685	19026.9	82.5963	19026.9	76.7445	19026.9	76.5786	19026.9	69.1287	19026.9	66.9846	19026.9	63.7172	19026.9	63.333	19026.9	66.7565	19026.9	66.7958	19026.9	65.9674	19026.9	67.1494	19026.9	63.522	19026.9	62.7917	19026.9	60.615	19026.9	60.1403	19026.9	53.1579	19026.9	54.2575	19026.9	52.7519	19026.9	51.744	19026.9	49.3944	19026.9	45.9291	19026.9	43.3186	19026.9	45.8096	19026.9	42.8629	19026.9	38.6938	19026.9	34.117	19026.9	41.8105	19026.9	37.4615	19026.9	38.0101	19026.9	35.5185	19026.9	41.7478	19026.9	41.0337
19697.8	85.4889	19697.8	84.4055	19697.8	84.4201	19697.8	80.9114	19697.8	81.0819	19697.8	74.684	19697.8	74.2667	19697.8	65.9494	19697.8	62.3648	19697.8	64.6834	19697.8	64.5642	19697.8	66.8468	19697.8	66.289	19697.8	65.7626	19697.8	65.9218	19697.8	62.157	19697.8	61.2447	19697.8	59.5476	19697.8	58.0042	19697.8	51.4872	19697.8	52.0312	19697.8	52.5331	19697.8	49.1672	19697.8	49.0098	19697.8	42.0227	19697.8	43.5487	19697.8	43.2284	19697.8	42.3278	19697.8	36.5543	19697.8	34.99	19697.8	37.8523	19697.8	29.2254	19697.8	29.8846	19697.8	34.6997	19697.8	36.5732	19697.8	38.2357
19999.5	84.8939	19999.5	83.701	19999.5	83.8934	19999.5	80.5448	19999.5	80.6741	19999.5	74.0358	19999.5	73.1379	19999.5	65.6565	19999.5	60.0373	19999.5	64.7182	19999.5	63.9339	19999.5	66.9461	19999.5	66.0915	19999.5	65.5216	19999.5	65.5827	19999.5	62.1183	19999.5	59.9311	19999.5	58.9659	19999.5	58.2055	19999.5	50.439	19999.5	47.6439	19999.5	51.2812	19999.5	46.1353	19999.5	52.273	19999.5	46.6316	19999.5	45.3397	19999.5	42.6454	19999.5	44.8134	19999.5	42.3511	19999.5	39.6728	19999.5	50.2311	19999.5	42.7957	19999.5	48.8497	19999.5	49.7169	19999.5	49.6673	19999.5	29.5599
