"SPL Vertical"
"On-Axis"		"10°"		"-10°"		"20°"		"-20°"		"30°"		"-30°"		"40°"		"-40°"		"50°"		"-50°"		"60°"		"-60°"		"70°"		"-70°"		"80°"		"-80°"		"90°"		"-90°"		"100°"		"-100°"		"110°"		"-110°"		"120°"		"-120°"		"130°"		"-130°"		"140°"		"-140°"		"150°"		"-150°"		"160°"		"-160°"		"170°"		"-170°"		"180°"
"Frequency [Hz]"	"Sound Pessure Level [dB]    /[0.3V at 1m]"	"Frequency [Hz]"	"Sound Pessure Level [dB]    /[0.3V at 1m]"	"Frequency [Hz]"	"Sound Pessure Level [dB]    /[0.3V at 1m]"	"Frequency [Hz]"	"Sound Pessure Level [dB]    /[0.3V at 1m]"	"Frequency [Hz]"	"Sound Pessure Level [dB]    /[0.3V at 1m]"	"Frequency [Hz]"	"Sound Pessure Level [dB]    /[0.3V at 1m]"	"Frequency [Hz]"	"Sound Pessure Level [dB]    /[0.3V at 1m]"	"Frequency [Hz]"	"Sound Pessure Level [dB]    /[0.3V at 1m]"	"Frequency [Hz]"	"Sound Pessure Level [dB]    /[0.3V at 1m]"	"Frequency [Hz]"	"Sound Pessure Level [dB]    /[0.3V at 1m]"	"Frequency [Hz]"	"Sound Pessure Level [dB]    /[0.3V at 1m]"	"Frequency [Hz]"	"Sound Pessure Level [dB]    /[0.3V at 1m]"	"Frequency [Hz]"	"Sound Pessure Level [dB]    /[0.3V at 1m]"	"Frequency [Hz]"	"Sound Pessure Level [dB]    /[0.3V at 1m]"	"Frequency [Hz]"	"Sound Pessure Level [dB]    /[0.3V at 1m]"	"Frequency [Hz]"	"Sound Pessure Level [dB]    /[0.3V at 1m]"	"Frequency [Hz]"	"Sound Pessure Level [dB]    /[0.3V at 1m]"	"Frequency [Hz]"	"Sound Pessure Level [dB]    /[0.3V at 1m]"	"Frequency [Hz]"	"Sound Pessure Level [dB]    /[0.3V at 1m]"	"Frequency [Hz]"	"Sound Pessure Level [dB]    /[0.3V at 1m]"	"Frequency [Hz]"	"Sound Pessure Level [dB]    /[0.3V at 1m]"	"Frequency [Hz]"	"Sound Pessure Level [dB]    /[0.3V at 1m]"	"Frequency [Hz]"	"Sound Pessure Level [dB]    /[0.3V at 1m]"	"Frequency [Hz]"	"Sound Pessure Level [dB]    /[0.3V at 1m]"	"Frequency [Hz]"	"Sound Pessure Level [dB]    /[0.3V at 1m]"	"Frequency [Hz]"	"Sound Pessure Level [dB]    /[0.3V at 1m]"	"Frequency [Hz]"	"Sound Pessure Level [dB]    /[0.3V at 1m]"	"Frequency [Hz]"	"Sound Pessure Level [dB]    /[0.3V at 1m]"	"Frequency [Hz]"	"Sound Pessure Level [dB]    /[0.3V at 1m]"	"Frequency [Hz]"	"Sound Pessure Level [dB]    /[0.3V at 1m]"	"Frequency [Hz]"	"Sound Pessure Level [dB]    /[0.3V at 1m]"	"Frequency [Hz]"	"Sound Pessure Level [dB]    /[0.3V at 1m]"	"Frequency [Hz]"	"Sound Pessure Level [dB]    /[0.3V at 1m]"	"Frequency [Hz]"	"Sound Pessure Level [dB]    /[0.3V at 1m]"	"Frequency [Hz]"	"Sound Pessure Level [dB]    /[0.3V at 1m]"	"Frequency [Hz]"	"Sound Pessure Level [dB]    /[0.3V at 1m]"
20.5078	56.5782	20.5078	56.4887	20.5078	56.659	20.5078	56.3928	20.5078	56.7291	20.5078	56.2929	20.5078	56.7867	20.5078	56.1914	20.5078	56.8303	20.5078	56.0908	20.5078	56.8592	20.5078	55.9938	20.5078	56.8731	20.5078	55.9034	20.5078	56.8722	20.5078	55.8227	20.5078	56.8572	20.5078	55.7549	20.5078	56.829	20.5078	55.7034	20.5078	56.7884	20.5078	55.6714	20.5078	56.736	20.5078	55.6617	20.5078	56.6722	20.5078	55.6762	20.5078	56.597	20.5078	55.7159	20.5078	56.5104	20.5078	55.7797	20.5078	56.413	20.5078	55.8646	20.5078	56.3061	20.5078	55.9659	20.5078	56.1928	20.5078	56.0775
21.9727	58.4695	21.9727	58.3973	21.9727	58.5289	21.9727	58.3143	21.9727	58.5736	21.9727	58.2227	21.9727	58.6019	21.9727	58.1243	21.9727	58.612	21.9727	58.0213	21.9727	58.6029	21.9727	57.9159	21.9727	58.5736	21.9727	57.8105	21.9727	58.5239	21.9727	57.7078	21.9727	58.4544	21.9727	57.6104	21.9727	58.3663	21.9727	57.521	21.9727	58.2619	21.9727	57.4423	21.9727	58.1442	21.9727	57.3769	21.9727	58.0177	21.9727	57.327	21.9727	57.8873	21.9727	57.2944	21.9727	57.7587	21.9727	57.2809	21.9727	57.6376	21.9727	57.2879	21.9727	57.5292	21.9727	57.3162	21.9727	57.4379	21.9727	57.3663
23.4375	60.0731	23.4375	60.0201	23.4375	60.1236	23.4375	59.9664	23.4375	60.17	23.4375	59.9144	23.4375	60.2112	23.4375	59.8662	23.4375	60.2464	23.4375	59.824	23.4375	60.2756	23.4375	59.7903	23.4375	60.2994	23.4375	59.7669	23.4375	60.3186	23.4375	59.7558	23.4375	60.3343	23.4375	59.7585	23.4375	60.3477	23.4375	59.7757	23.4375	60.3593	23.4375	59.8077	23.4375	60.3692	23.4375	59.8537	23.4375	60.3765	23.4375	59.9118	23.4375	60.3796	23.4375	59.9789	23.4375	60.3761	23.4375	60.0512	23.4375	60.3635	23.4375	60.124	23.4375	60.3396	23.4375	60.1929	23.4375	60.3029	23.4375	60.2535
24.9023	61.78	24.9023	61.6957	24.9023	61.8513	24.9023	61.6006	24.9023	61.9073	24.9023	61.497	24.9023	61.9461	24.9023	61.3871	24.9023	61.9659	24.9023	61.2732	24.9023	61.9654	24.9023	61.1575	24.9023	61.9441	24.9023	61.0426	24.9023	61.9019	24.9023	60.9311	24.9023	61.8397	24.9023	60.8262	24.9023	61.7588	24.9023	60.7309	24.9023	61.6615	24.9023	60.6489	24.9023	61.5504	24.9023	60.5837	24.9023	61.4286	24.9023	60.5389	24.9023	61.2994	24.9023	60.5176	24.9023	61.1667	24.9023	60.5219	24.9023	61.0347	24.9023	60.553	24.9023	60.9081	24.9023	60.6101	24.9023	60.7918	24.9023	60.6909
26.3672	62.8915	26.3672	62.7946	26.3672	62.9711	26.3672	62.683	26.3672	63.031	26.3672	62.5597	26.3672	63.0693	26.3672	62.4278	26.3672	63.0845	26.3672	62.2908	26.3672	63.076	26.3672	62.1521	26.3672	63.0436	26.3672	62.0153	26.3672	62.9882	26.3672	61.8842	26.3672	62.9112	26.3672	61.7628	26.3672	62.815	26.3672	61.6548	26.3672	62.7024	26.3672	61.5641	26.3672	62.5765	26.3672	61.4944	26.3672	62.4408	26.3672	61.4491	26.3672	62.2989	26.3672	61.4306	26.3672	62.1546	26.3672	61.4408	26.3672	62.0117	26.3672	61.4798	26.3672	61.8747	26.3672	61.5462	26.3672	61.7481	26.3672	61.637
27.832	64.6757	27.832	64.5966	27.832	64.7402	27.832	64.5058	27.832	64.7874	27.832	64.4064	27.832	64.8151	27.832	64.3014	27.832	64.8216	27.832	64.194	27.832	64.806	27.832	64.0871	27.832	64.7682	27.832	63.9836	27.832	64.7089	27.832	63.886	27.832	64.6301	27.832	63.7965	27.832	64.5349	27.832	63.7171	27.832	64.4269	27.832	63.6496	27.832	64.3105	27.832	63.5954	27.832	64.1903	27.832	63.5558	27.832	64.0709	27.832	63.532	27.832	63.9564	27.832	63.5251	27.832	63.8504	27.832	63.5358	27.832	63.7561	27.832	63.5647	27.832	63.6759	27.832	63.6117
29.2969	66.4236	29.2969	66.35	29.2969	66.4815	29.2969	66.263	29.2969	66.5214	29.2969	66.1651	29.2969	66.5412	29.2969	66.0588	29.2969	66.5393	29.2969	65.9466	29.2969	66.5145	29.2969	65.8309	29.2969	66.4663	29.2969	65.7145	29.2969	66.3952	29.2969	65.5997	29.2969	66.3026	29.2969	65.4893	29.2969	66.191	29.2969	65.386	29.2969	66.0641	29.2969	65.2925	29.2969	65.9266	29.2969	65.2115	29.2969	65.7839	29.2969	65.1458	29.2969	65.6419	29.2969	65.0979	29.2969	65.5064	29.2969	65.0701	29.2969	65.3828	29.2969	65.0644	29.2969	65.2757	29.2969	65.082	29.2969	65.1884	29.2969	65.1234
30.7617	67.1313	30.7617	67.0562	30.7617	67.1942	30.7617	66.9712	30.7617	67.2424	30.7617	66.8791	30.7617	67.2742	30.7617	66.7824	30.7617	67.2879	30.7617	66.6839	30.7617	67.2827	30.7617	66.5862	30.7617	67.2582	30.7617	66.4919	30.7617	67.2146	30.7617	66.4033	30.7617	67.1532	30.7617	66.3225	30.7617	67.0757	30.7617	66.2513	30.7617	66.9847	30.7617	66.1915	30.7617	66.8833	30.7617	66.1446	30.7617	66.7751	30.7617	66.1121	30.7617	66.6642	30.7617	66.0952	30.7617	66.5544	30.7617	66.0952	30.7617	66.4498	30.7617	66.1127	30.7617	66.354	30.7617	66.1481	30.7617	66.2702	30.7617	66.2009
32.2266	68.242	32.2266	68.1697	32.2266	68.3038	32.2266	68.0895	32.2266	68.3529	32.2266	68.0041	32.2266	68.3872	32.2266	67.9162	32.2266	68.4052	32.2266	67.8284	32.2266	68.4058	32.2266	67.7433	32.2266	68.3888	32.2266	67.6632	32.2266	68.3543	32.2266	67.5901	32.2266	68.3035	32.2266	67.5259	32.2266	68.2382	32.2266	67.472	32.2266	68.1609	32.2266	67.4295	32.2266	68.0747	32.2266	67.3993	32.2266	67.983	32.2266	67.382	32.2266	67.8894	32.2266	67.378	32.2266	67.7971	32.2266	67.3876	32.2266	67.7093	32.2266	67.4106	32.2266	67.6285	32.2266	67.4469	32.2266	67.5569	32.2266	67.4959
33.6914	69.3325	33.6914	69.2646	33.6914	69.3882	33.6914	69.1871	33.6914	69.4295	33.6914	69.1027	33.6914	69.454	33.6914	69.014	33.6914	69.4603	33.6914	68.9233	33.6914	69.4472	33.6914	68.833	33.6914	69.4143	33.6914	68.7454	33.6914	69.3623	33.6914	68.6624	33.6914	69.2928	33.6914	68.5861	33.6914	69.2084	33.6914	68.5179	33.6914	69.1125	33.6914	68.4597	33.6914	69.0092	33.6914	68.4126	33.6914	68.9032	33.6914	68.378	33.6914	68.7988	33.6914	68.3568	33.6914	68.7	33.6914	68.3496	33.6914	68.6103	33.6914	68.357	33.6914	68.5321	33.6914	68.379	33.6914	68.4669	33.6914	68.4157
35.1562	70.4109	35.1562	70.3434	35.1562	70.4638	35.1562	70.2638	35.1562	70.4997	35.1562	70.1748	35.1562	70.5168	35.1562	70.0788	35.1562	70.5135	35.1562	69.9787	35.1562	70.489	35.1562	69.877	35.1562	70.4433	35.1562	69.7762	35.1562	70.3772	35.1562	69.6789	35.1562	70.2925	35.1562	69.5873	35.1562	70.1923	35.1562	69.5038	35.1562	70.0802	35.1562	69.4301	35.1562	69.9609	35.1562	69.3682	35.1562	69.8394	35.1562	69.3194	35.1562	69.7207	35.1562	69.285	35.1562	69.6098	35.1562	69.266	35.1562	69.5106	35.1562	69.2632	35.1562	69.4263	35.1562	69.2774	35.1562	69.3588	35.1562	69.3092
36.6211	71.4307	36.6211	71.3687	36.6211	71.4756	36.6211	71.2911	36.6211	71.5015	36.6211	71.1998	36.6211	71.5072	36.6211	71.0968	36.6211	71.4914	36.6211	70.9839	36.6211	71.4535	36.6211	70.8633	36.6211	71.3934	36.6211	70.7373	36.6211	71.3117	36.6211	70.6083	36.6211	71.2097	36.6211	70.4791	36.6211	71.0893	36.6211	70.3528	36.6211	70.9537	36.6211	70.233	36.6211	70.8064	36.6211	70.1235	36.6211	70.6523	36.6211	70.0285	36.6211	70.4968	36.6211	69.9527	36.6211	70.3462	36.6211	69.9005	36.6211	70.207	36.6211	69.876	36.6211	70.0859	36.6211	69.8819	36.6211	69.9886	36.6211	69.9197
38.0859	71.1858	38.0859	71.1048	38.0859	71.261	38.0859	71.0212	38.0859	71.3273	38.0859	70.9384	38.0859	71.3819	38.0859	70.8598	38.0859	71.4227	38.0859	70.7884	38.0859	71.4483	38.0859	70.7266	38.0859	71.458	38.0859	70.6764	38.0859	71.4517	38.0859	70.639	38.0859	71.4302	38.0859	70.615	38.0859	71.3951	38.0859	70.604	38.0859	71.3482	38.0859	70.6054	38.0859	71.2922	38.0859	70.6178	38.0859	71.2295	38.0859	70.6397	38.0859	71.1628	38.0859	70.6695	38.0859	71.0948	38.0859	70.7058	38.0859	71.0276	38.0859	70.7476	38.0859	70.963	38.0859	70.7943	38.0859	70.9022	38.0859	70.8459
39.5508	72.7184	39.5508	72.6468	39.5508	72.7784	39.5508	72.5661	39.5508	72.8245	39.5508	72.479	39.5508	72.8551	39.5508	72.3882	39.5508	72.8688	39.5508	72.2966	39.5508	72.8647	39.5508	72.2069	39.5508	72.843	39.5508	72.1216	39.5508	72.8042	39.5508	72.0431	39.5508	72.7495	39.5508	71.9734	39.5508	72.6811	39.5508	71.9141	39.5508	72.6014	39.5508	71.8666	39.5508	72.5133	39.5508	71.8318	39.5508	72.4199	39.5508	71.8106	39.5508	72.3246	39.5508	71.8035	39.5508	72.2303	39.5508	71.8108	39.5508	72.1401	39.5508	71.8328	39.5508	72.0567	39.5508	71.8692	39.5508	71.9825	39.5508	71.9195
41.0156	73.5207	41.0156	73.4521	41.0156	73.5774	41.0156	73.3737	41.0156	73.6198	41.0156	73.2883	41.0156	73.6464	41.0156	73.1985	41.0156	73.6557	41.0156	73.107	41.0156	73.6472	41.0156	73.0164	41.0156	73.6207	41.0156	72.9292	41.0156	73.577	41.0156	72.8478	41.0156	73.5174	41.0156	72.7743	41.0156	73.4443	41.0156	72.7105	41.0156	73.3602	41.0156	72.6578	41.0156	73.2683	41.0156	72.6176	41.0156	73.1721	41.0156	72.5908	41.0156	73.0748	41.0156	72.5783	41.0156	72.9799	41.0156	72.5806	41.0156	72.8902	41.0156	72.5979	41.0156	72.8084	41.0156	72.6301	41.0156	72.7366	41.0156	72.6767
42.4805	74.3502	42.4805	74.2819	42.4805	74.4061	42.4805	74.2036	42.4805	74.4476	42.4805	74.1179	42.4805	74.4727	42.4805	74.0274	42.4805	74.4803	42.4805	73.9349	42.4805	74.4695	42.4805	73.8428	42.4805	74.4402	42.4805	73.7539	42.4805	74.3932	42.4805	73.6703	42.4805	74.3299	42.4805	73.5941	42.4805	74.2525	42.4805	73.527	42.4805	74.1637	42.4805	73.4706	42.4805	74.0671	42.4805	73.4261	42.4805	73.966	42.4805	73.3945	42.4805	73.8643	42.4805	73.377	42.4805	73.7656	42.4805	73.3742	42.4805	73.673	42.4805	73.3868	42.4805	73.5896	42.4805	73.4152	42.4805	73.5176	42.4805	73.459
43.9453	75.026	43.9453	74.9588	43.9453	75.0811	43.9453	74.8818	43.9453	75.1218	43.9453	74.7976	43.9453	75.1464	43.9453	74.7089	43.9453	75.1534	43.9453	74.6182	43.9453	75.142	43.9453	74.528	43.9453	75.1122	43.9453	74.4409	43.9453	75.0646	43.9453	74.359	43.9453	75.001	43.9453	74.2843	43.9453	74.9235	43.9453	74.2187	43.9453	74.8354	43.9453	74.1637	43.9453	74.74	43.9453	74.1205	43.9453	74.6412	43.9453	74.0903	43.9453	74.5425	43.9453	74.0739	43.9453	74.4474	43.9453	74.072	43.9453	74.3589	43.9453	74.0849	43.9453	74.2793	43.9453	74.1126	43.9453	74.2108	43.9453	74.1548
45.4102	75.9213	45.4102	75.8485	45.4102	75.9811	45.4102	75.7655	45.4102	76.0254	45.4102	75.675	45.4102	76.0522	45.4102	75.5798	45.4102	76.0597	45.4102	75.4828	45.4102	76.047	45.4102	75.3865	45.4102	76.0139	45.4102	75.2935	45.4102	75.9612	45.4102	75.2061	45.4102	75.8904	45.4102	75.1262	45.4102	75.8042	45.4102	75.0558	45.4102	75.7062	45.4102	74.9964	45.4102	75.6004	45.4102	74.9494	45.4102	75.4913	45.4102	74.9158	45.4102	75.3832	45.4102	74.8967	45.4102	75.2801	45.4102	74.8926	45.4102	75.1852	45.4102	74.9039	45.4102	75.1012	45.4102	74.9307	45.4102	75.03	45.4102	74.9729
46.875	76.4797	46.875	76.4094	46.875	76.5392	46.875	76.3308	46.875	76.5856	46.875	76.2464	46.875	76.6166	46.875	76.1588	46.875	76.6305	46.875	76.0705	46.875	76.6261	46.875	75.9836	46.875	76.6028	46.875	75.9003	46.875	76.5607	46.875	75.8224	46.875	76.501	46.875	75.7516	46.875	76.4255	46.875	75.6895	46.875	76.3371	46.875	75.6374	46.875	76.2396	46.875	75.5964	46.875	76.137	46.875	75.5676	46.875	76.0337	46.875	75.5519	46.875	75.9339	46.875	75.5501	46.875	75.8412	46.875	75.5626	46.875	75.7587	46.875	75.5898	46.875	75.6884	46.875	75.6318
48.3398	77.0221	48.3398	76.965	48.3398	77.0695	48.3398	76.9002	48.3398	77.1058	48.3398	76.8297	48.3398	77.1295	48.3398	76.7558	48.3398	77.1399	48.3398	76.6806	48.3398	77.1368	48.3398	76.6065	48.3398	77.1204	48.3398	76.5354	48.3398	77.0915	48.3398	76.4696	48.3398	77.0512	48.3398	76.4109	48.3398	77.0012	48.3398	76.3612	48.3398	76.9431	48.3398	76.3219	48.3398	76.8788	48.3398	76.2945	48.3398	76.8101	48.3398	76.28	48.3398	76.7386	48.3398	76.279	48.3398	76.6662	48.3398	76.2916	48.3398	76.5946	48.3398	76.3173	48.3398	76.5256	48.3398	76.3553	48.3398	76.4614	48.3398	76.4039
51.2695	78.6033	51.2695	78.5208	51.2695	78.6671	51.2695	78.4227	51.2695	78.7099	51.2695	78.3124	51.2695	78.7299	51.2695	78.1937	51.2695	78.7263	51.2695	78.0707	51.2695	78.699	51.2695	77.9473	51.2695	78.6492	51.2695	77.8276	51.2695	78.5788	51.2695	77.7153	51.2695	78.4907	51.2695	77.6136	51.2695	78.3883	51.2695	77.5254	51.2695	78.2755	51.2695	77.4528	51.2695	78.1564	51.2695	77.3973	51.2695	78.0351	51.2695	77.3599	51.2695	77.9151	51.2695	77.3408	51.2695	77.7999	51.2695	77.3401	51.2695	77.6927	51.2695	77.3575	51.2695	77.5963	51.2695	77.3925	51.2695	77.513	51.2695	77.4446
52.7344	79.2225	52.7344	79.1479	52.7344	79.2785	52.7344	79.0574	52.7344	79.3137	52.7344	78.9535	52.7344	79.3264	52.7344	78.8391	52.7344	79.3152	52.7344	78.7174	52.7344	79.2795	52.7344	78.5912	52.7344	79.2195	52.7344	78.4638	52.7344	79.1364	52.7344	78.3382	52.7344	79.0324	52.7344	78.2175	52.7344	78.9108	52.7344	78.1049	52.7344	78.7759	52.7344	78.0033	52.7344	78.6324	52.7344	77.9158	52.7344	78.4858	52.7344	77.8451	52.7344	78.3414	52.7344	77.7937	52.7344	78.2046	52.7344	77.7639	52.7344	78.0801	52.7344	77.7574	52.7344	77.9719	52.7344	77.7751	52.7344	77.8835	52.7344	77.8174
54.1992	79.6598	54.1992	79.5905	54.1992	79.7134	54.1992	79.508	54.1992	79.749	54.1992	79.415	54.1992	79.7645	54.1992	79.314	54.1992	79.7582	54.1992	79.2076	54.1992	79.729	54.1992	79.0981	54.1992	79.6767	54.1992	78.988	54.1992	79.602	54.1992	78.8796	54.1992	79.5067	54.1992	78.7752	54.1992	79.3938	54.1992	78.6771	54.1992	79.2674	54.1992	78.5877	54.1992	79.1325	54.1992	78.5092	54.1992	78.9947	54.1992	78.4441	54.1992	78.8597	54.1992	78.3946	54.1992	78.7331	54.1992	78.3631	54.1992	78.6197	54.1992	78.3514	54.1992	78.5236	54.1992	78.361	54.1992	78.4474	54.1992	78.393
55.6641	79.9085	55.6641	79.8423	55.6641	79.9645	55.6641	79.7683	55.6641	80.0081	55.6641	79.6891	55.6641	80.0374	55.6641	79.6072	55.6641	80.0509	55.6641	79.525	55.6641	80.0476	55.6641	79.4448	55.6641	80.0272	55.6641	79.3686	55.6641	79.99	55.6641	79.2983	55.6641	79.9372	55.6641	79.2353	55.6641	79.8706	55.6641	79.1811	55.6641	79.7929	55.6641	79.1368	55.6641	79.7071	55.6641	79.1032	55.6641	79.6167	55.6641	79.0813	55.6641	79.5255	55.6641	79.0715	55.6641	79.4367	55.6641	79.0743	55.6641	79.3536	55.6641	79.09	55.6641	79.2785	55.6641	79.1186	55.6641	79.2135	55.6641	79.1599
58.5938	81.197	58.5938	81.1295	58.5938	81.2485	58.5938	81.0484	58.5938	81.282	58.5938	80.9562	58.5938	81.2959	58.5938	80.8559	58.5938	81.2893	58.5938	80.7503	58.5938	81.2616	58.5938	80.6423	58.5938	81.2135	58.5938	80.535	58.5938	81.146	58.5938	80.4312	58.5938	81.0613	58.5938	80.3334	58.5938	80.9621	58.5938	80.2444	58.5938	80.8519	58.5938	80.1663	58.5938	80.7347	58.5938	80.1011	58.5938	80.6148	58.5938	80.0507	58.5938	80.4966	58.5938	80.0164	58.5938	80.3842	58.5938	79.9995	58.5938	80.2815	58.5938	80.0009	58.5938	80.1916	58.5938	80.021	58.5938	80.1172	58.5938	80.06
60.0586	81.4278	60.0586	81.3619	60.0586	81.4809	60.0586	81.2854	60.0586	81.5193	60.0586	81.2009	60.0586	81.5415	60.0586	81.1108	60.0586	81.5463	60.0586	81.0178	60.0586	81.5333	60.0586	80.9245	60.0586	81.5025	60.0586	80.8333	60.0586	81.455	60.0586	80.7466	60.0586	81.392	60.0586	80.6667	60.0586	81.3156	60.0586	80.5955	60.0586	81.2283	60.0586	80.535	60.0586	81.133	60.0586	80.4866	60.0586	81.0329	60.0586	80.4519	60.0586	80.9312	60.0586	80.4321	60.0586	80.8314	60.0586	80.4282	60.0586	80.737	60.0586	80.4407	60.0586	80.651	60.0586	80.4699	60.0586	80.5764	60.0586	80.5155
62.9883	82.2566	62.9883	82.1876	62.9883	82.3139	62.9883	82.1095	62.9883	82.3574	62.9883	82.0252	62.9883	82.3853	62.9883	81.9375	62.9883	82.3967	62.9883	81.8494	62.9883	82.3913	62.9883	81.7639	62.9883	82.3694	62.9883	81.6834	62.9883	82.3324	62.9883	81.6105	62.9883	82.2819	62.9883	81.5471	62.9883	82.2202	62.9883	81.4949	62.9883	82.1498	62.9883	81.4551	62.9883	82.0733	62.9883	81.4286	62.9883	81.9931	62.9883	81.4158	62.9883	81.9113	62.9883	81.4168	62.9883	81.8302	62.9883	81.4314	62.9883	81.7516	62.9883	81.4589	62.9883	81.6773	62.9883	81.4985	62.9883	81.6092	62.9883	81.5491
64.4531	82.7685	64.4531	82.6998	64.4531	82.8244	64.4531	82.6207	64.4531	82.8651	64.4531	82.5343	64.4531	82.8891	64.4531	82.4436	64.4531	82.8955	64.4531	82.3518	64.4531	82.8843	64.4531	82.2622	64.4531	82.8562	64.4531	82.1775	64.4531	82.8126	64.4531	82.1005	64.4531	82.7558	64.4531	82.0334	64.4531	82.6885	64.4531	81.9781	64.4531	82.6136	64.4531	81.9361	64.4531	82.5338	64.4531	81.908	64.4531	82.4519	64.4531	81.8941	64.4531	82.3701	64.4531	81.8944	64.4531	82.2903	64.4531	81.9083	64.4531	82.214	64.4531	81.9347	64.4531	82.1428	64.4531	81.9726	64.4531	82.078	64.4531	82.0208
67.3828	83.5784	67.3828	83.5149	67.3828	83.6263	67.3828	83.4383	67.3828	83.6562	67.3828	83.3511	67.3828	83.6668	67.3828	83.2564	67.3828	83.6571	67.3828	83.1572	67.3828	83.6268	67.3828	83.0561	67.3828	83.5768	67.3828	82.9562	67.3828	83.5088	67.3828	82.8599	67.3828	83.4251	67.3828	82.7697	67.3828	83.3292	67.3828	82.6878	67.3828	83.2248	67.3828	82.6163	67.3828	83.1161	67.3828	82.5569	67.3828	83.0069	67.3828	82.511	67.3828	82.901	67.3828	82.4801	67.3828	82.8016	67.3828	82.4649	67.3828	82.7116	67.3828	82.4661	67.3828	82.6332	67.3828	82.4839	67.3828	82.5682	67.3828	82.5181
68.8477	83.9126	68.8477	83.8451	68.8477	83.9662	68.8477	83.7664	68.8477	84.0038	68.8477	83.6794	68.8477	84.0234	68.8477	83.587	68.8477	84.024	68.8477	83.4921	68.8477	84.0051	68.8477	83.3973	68.8477	83.9672	68.8477	83.3053	68.8477	83.9115	68.8477	83.2184	68.8477	83.84	68.8477	83.1387	68.8477	83.7557	68.8477	83.0681	68.8477	83.6619	68.8477	83.0081	68.8477	83.5621	68.8477	82.9602	68.8477	83.4601	68.8477	82.9254	68.8477	83.3594	68.8477	82.9049	68.8477	83.2632	68.8477	82.8992	68.8477	83.1743	68.8477	82.9087	68.8477	83.0951	68.8477	82.9336	68.8477	83.0277	68.8477	82.9735
71.7773	84.5007	71.7773	84.4318	71.7773	84.5566	71.7773	84.3526	71.7773	84.5972	71.7773	84.2663	71.7773	84.6207	71.7773	84.1758	71.7773	84.6261	71.7773	84.0844	71.7773	84.6133	71.7773	83.9951	71.7773	84.5827	71.7773	83.9105	71.7773	84.536	71.7773	83.833	71.7773	84.4751	71.7773	83.7646	71.7773	84.4029	71.7773	83.7069	71.7773	84.3223	71.7773	83.6611	71.7773	84.2365	71.7773	83.628	71.7773	84.1485	71.7773	83.6081	71.7773	84.0609	71.7773	83.6016	71.7773	83.9763	71.7773	83.6084	71.7773	83.8966	71.7773	83.6282	71.7773	83.8238	71.7773	83.6605	71.7773	83.7593	71.7773	83.7045
74.707	85.0667	74.707	84.9973	74.707	85.1224	74.707	84.9171	74.707	85.1621	74.707	84.8293	74.707	85.1842	74.707	84.737	74.707	85.1878	74.707	84.6437	74.707	85.1729	74.707	84.5526	74.707	85.1403	74.707	84.4664	74.707	85.0917	74.707	84.3879	74.707	85.0297	74.707	84.3191	74.707	84.957	74.707	84.2616	74.707	84.8767	74.707	84.2166	74.707	84.792	74.707	84.1849	74.707	84.7057	74.707	84.1668	74.707	84.6203	74.707	84.1623	74.707	84.5379	74.707	84.171	74.707	84.4603	74.707	84.1926	74.707	84.389	74.707	84.2261	74.707	84.3254	74.707	84.2707
77.6367	85.5527	77.6367	85.4821	77.6367	85.6095	77.6367	85.4007	77.6367	85.6502	77.6367	85.3118	77.6367	85.6731	77.6367	85.219	77.6367	85.6774	77.6367	85.1256	77.6367	85.6631	77.6367	85.0351	77.6367	85.6312	77.6367	84.9505	77.6367	85.5835	77.6367	84.8743	77.6367	85.5226	77.6367	84.8085	77.6367	85.4515	77.6367	84.7547	77.6367	85.3733	77.6367	84.714	77.6367	85.2911	77.6367	84.6866	77.6367	85.2077	77.6367	84.6727	77.6367	85.1254	77.6367	84.672	77.6367	85.0462	77.6367	84.684	77.6367	84.9715	77.6367	84.7077	77.6367	84.9027	77.6367	84.7425	77.6367	84.841	77.6367	84.7872
79.1016	85.7578	79.1016	85.6859	79.1016	85.8155	79.1016	85.603	79.1016	85.8567	79.1016	85.5123	79.1016	85.8795	79.1016	85.4176	79.1016	85.8833	79.1016	85.3226	79.1016	85.8682	79.1016	85.2307	79.1016	85.8353	79.1016	85.145	79.1016	85.7865	79.1016	85.0683	79.1016	85.7245	79.1016	85.0025	79.1016	85.6525	79.1016	84.9492	79.1016	85.5735	79.1016	84.9092	79.1016	85.4909	79.1016	84.883	79.1016	85.4074	79.1016	84.8704	79.1016	85.3253	79.1016	84.8709	79.1016	85.2464	79.1016	84.884	79.1016	85.1722	79.1016	84.9086	79.1016	85.1039	79.1016	84.9439	79.1016	85.0425	79.1016	84.9888
82.0312	86.157	82.0312	86.0828	82.0312	86.2158	82.0312	85.9963	82.0312	86.257	82.0312	85.9009	82.0312	86.2789	82.0312	85.8006	82.0312	86.2809	82.0312	85.6992	82.0312	86.2634	82.0312	85.6005	82.0312	86.2277	82.0312	85.508	82.0312	86.1759	82.0312	85.4249	82.0312	86.1107	82.0312	85.3534	82.0312	86.0354	82.0312	85.2954	82.0312	85.9533	82.0312	85.2519	82.0312	85.8673	82.0312	85.2232	82.0312	85.7802	82.0312	85.2094	82.0312	85.6942	82.0312	85.2099	82.0312	85.6113	82.0312	85.2239	82.0312	85.5329	82.0312	85.2505	82.0312	85.4602	82.0312	85.2885	82.0312	85.3945	82.0312	85.3369
84.9609	86.5127	84.9609	86.4396	84.9609	86.5702	84.9609	86.3538	84.9609	86.6098	84.9609	86.2587	84.9609	86.6302	84.9609	86.1581	84.9609	86.6309	84.9609	86.0559	84.9609	86.6124	84.9609	85.956	84.9609	86.5761	84.9609	85.862	84.9609	86.5244	84.9609	85.7772	84.9609	86.4601	84.9609	85.7043	84.9609	86.3865	84.9609	85.6452	84.9609	86.3066	84.9609	85.6014	84.9609	86.2235	84.9609	85.5734	84.9609	86.1395	84.9609	85.5611	84.9609	86.0566	84.9609	85.5641	84.9609	85.9762	84.9609	85.5811	84.9609	85.8996	84.9609	85.6109	84.9609	85.8278	84.9609	85.652	84.9609	85.7618	84.9609	85.7027
87.8906	86.7596	87.8906	86.689	87.8906	86.8147	87.8906	86.6058	87.8906	86.8523	87.8906	86.5136	87.8906	86.8711	87.8906	86.416	87.8906	86.8707	87.8906	86.317	87.8906	86.8519	87.8906	86.2206	87.8906	86.8165	87.8906	86.1306	87.8906	86.767	87.8906	86.0501	87.8906	86.7064	87.8906	85.9821	87.8906	86.6381	87.8906	85.9286	87.8906	86.5652	87.8906	85.8908	87.8906	86.4905	87.8906	85.8692	87.8906	86.4159	87.8906	85.8634	87.8906	86.3427	87.8906	85.8725	87.8906	86.2719	87.8906	85.8949	87.8906	86.2039	87.8906	85.9285	87.8906	86.1391	87.8906	85.9715	87.8906	86.0782	87.8906	86.0219
90.8203	87.0247	90.8203	86.9548	90.8203	87.0788	90.8203	86.8722	90.8203	87.1146	90.8203	86.7806	90.8203	87.1308	90.8203	86.684	90.8203	87.1271	90.8203	86.5866	90.8203	87.1046	90.8203	86.4924	90.8203	87.0652	90.8203	86.4052	90.8203	87.012	90.8203	86.3281	90.8203	86.9485	90.8203	86.2636	90.8203	86.8786	90.8203	86.2137	90.8203	86.8057	90.8203	86.1792	90.8203	86.7328	90.8203	86.1603	90.8203	86.6618	90.8203	86.1563	90.8203	86.5938	90.8203	86.1661	90.8203	86.5292	90.8203	86.1878	90.8203	86.468	90.8203	86.2195	90.8203	86.4101	90.8203	86.2591	90.8203	86.3556	90.8203	86.3049
95.2148	87.3347	95.2148	87.2597	95.2148	87.3918	95.2148	87.1702	95.2148	87.4285	95.2148	87.07	95.2148	87.4435	95.2148	86.9638	95.2148	87.4366	95.2148	86.856	95.2148	87.4088	95.2148	86.7512	95.2148	87.3624	95.2148	86.6536	95.2148	87.3006	95.2148	86.5668	95.2148	87.2275	95.2148	86.4937	95.2148	87.1473	95.2148	86.4362	95.2148	87.064	95.2148	86.3955	95.2148	86.981	95.2148	86.3717	95.2148	86.9005	95.2148	86.364	95.2148	86.824	95.2148	86.3712	95.2148	86.7521	95.2148	86.3914	95.2148	86.6847	95.2148	86.4226	95.2148	86.6219	95.2148	86.4628	95.2148	86.5636	95.2148	86.5103
98.1445	87.4874	98.1445	87.4109	98.1445	87.5452	98.1445	87.3194	98.1445	87.5821	98.1445	87.2167	98.1445	87.5967	98.1445	87.1076	98.1445	87.5888	98.1445	86.9968	98.1445	87.5597	98.1445	86.8891	98.1445	87.5118	98.1445	86.7888	98.1445	87.4485	98.1445	86.6997	98.1445	87.374	98.1445	86.6249	98.1445	87.2927	98.1445	86.5665	98.1445	87.2085	98.1445	86.5255	98.1445	87.1248	98.1445	86.502	98.1445	87.0438	98.1445	86.4952	98.1445	86.967	98.1445	86.5037	98.1445	86.8947	98.1445	86.5255	98.1445	86.8268	98.1445	86.5584	98.1445	86.7632	98.1445	86.6003	98.1445	86.7039	98.1445	86.6493
101.074	87.6262	101.074	87.5486	101.074	87.6841	101.074	87.4549	101.074	87.72	101.074	87.3491	101.074	87.7326	101.074	87.2361	101.074	87.7219	101.074	87.1209	101.074	87.6895	101.074	87.0085	101.074	87.6379	101.074	86.9036	101.074	87.5709	101.074	86.8105	101.074	87.493	101.074	86.7325	101.074	87.4089	101.074	86.6717	101.074	87.3227	101.074	86.6296	101.074	87.2379	101.074	86.606	101.074	87.1567	101.074	86.6001	101.074	87.0802	101.074	86.6103	101.074	87.0086	101.074	86.6341	101.074	86.9414	101.074	86.6692	101.074	86.8782	101.074	86.713	101.074	86.8188	101.074	86.7634
105.469	87.9144	105.469	87.8383	105.469	87.9691	105.469	87.7441	105.469	88	105.469	87.636	105.469	88.0058	105.469	87.5188	105.469	87.9868	105.469	87.3976	105.469	87.9445	105.469	87.2774	105.469	87.8818	105.469	87.1634	105.469	87.8027	105.469	87.0598	105.469	87.7123	105.469	86.9704	105.469	87.6156	105.469	86.898	105.469	87.5175	105.469	86.8442	105.469	87.422	105.469	86.8096	105.469	87.3317	105.469	86.7935	105.469	87.2481	105.469	86.7945	105.469	87.1713	105.469	86.8106	105.469	87.1011	105.469	86.8392	105.469	87.0368	105.469	86.878	105.469	86.9779	105.469	86.9247
108.398	88.0361	108.398	87.9609	108.398	88.0909	108.398	87.8685	108.398	88.1225	108.398	87.7632	108.398	88.1297	108.398	87.6498	108.398	88.1124	108.398	87.5331	108.398	88.0718	108.398	87.418	108.398	88.0107	108.398	87.3092	108.398	87.9329	108.398	87.2109	108.398	87.8431	108.398	87.1262	108.398	87.7465	108.398	87.0578	108.398	87.6481	108.398	87.0069	108.398	87.5519	108.398	86.9738	108.398	87.4612	108.398	86.9578	108.398	87.3777	108.398	86.9576	108.398	87.3021	108.398	86.9709	108.398	87.2342	108.398	86.9955	108.398	87.1734	108.398	87.0295	108.398	87.1191	108.398	87.071
112.793	88.1159	112.793	88.0342	112.793	88.1776	112.793	87.9362	112.793	88.2163	112.793	87.8269	112.793	88.2305	112.793	87.7116	112.793	88.2203	112.793	87.5957	112.793	88.187	112.793	87.4845	112.793	88.1336	112.793	87.3828	112.793	88.0641	112.793	87.2944	112.793	87.9834	112.793	87.2223	112.793	87.8965	112.793	87.168	112.793	87.8081	112.793	87.1321	112.793	87.722	112.793	87.114	112.793	87.6406	112.793	87.1122	112.793	87.5653	112.793	87.1247	112.793	87.4962	112.793	87.149	112.793	87.4328	112.793	87.1827	112.793	87.3743	112.793	87.2234	112.793	87.32	112.793	87.2696
117.188	88.211	117.188	88.1193	117.188	88.278	117.188	88.0071	117.188	88.318	117.188	87.8794	117.188	88.3298	117.188	87.7425	117.188	88.3143	117.188	87.6031	117.188	88.2738	117.188	87.4683	117.188	88.2121	117.188	87.3447	117.188	88.1343	117.188	87.2381	117.188	88.0463	117.188	87.1529	117.188	87.9537	117.188	87.0918	117.188	87.8616	117.188	87.0554	117.188	87.7736	117.188	87.0429	117.188	87.6918	117.188	87.0519	117.188	87.6164	117.188	87.0788	117.188	87.5464	117.188	87.1198	117.188	87.4801	117.188	87.1709	117.188	87.4159	117.188	87.2286	117.188	87.3525	117.188	87.2898
120.117	88.4501	120.117	88.3674	120.117	88.5077	120.117	88.2634	120.117	88.5382	120.117	88.1424	120.117	88.5405	120.117	88.0101	120.117	88.5156	120.117	87.8727	120.117	88.4656	120.117	87.7366	120.117	88.3946	120.117	87.6082	120.117	88.3075	120.117	87.4936	120.117	88.2104	120.117	87.3978	120.117	88.1094	120.117	87.3243	120.117	88.0098	120.117	87.275	120.117	87.9158	120.117	87.2499	120.117	87.8298	120.117	87.2471	120.117	87.7523	120.117	87.2637	120.117	87.6825	120.117	87.2956	120.117	87.6185	120.117	87.3386	120.117	87.5581	120.117	87.3889	120.117	87.5	120.117	87.4433
124.512	88.5842	124.512	88.5027	124.512	88.6421	124.512	88.4014	124.512	88.6734	124.512	88.2855	124.512	88.6773	124.512	88.1608	124.512	88.6542	124.512	88.0336	124.512	88.6066	124.512	87.9103	124.512	88.5386	124.512	87.7969	124.512	88.4557	124.512	87.6986	124.512	88.3642	124.512	87.6196	124.512	88.2706	124.512	87.5624	124.512	88.1803	124.512	87.5281	124.512	88.0977	124.512	87.5158	124.512	88.0247	124.512	87.5231	124.512	87.9615	124.512	87.5466	124.512	87.9066	124.512	87.582	124.512	87.8574	124.512	87.6249	124.512	87.8111	124.512	87.6714	124.512	87.7653	124.512	87.7187
128.906	88.6816	128.906	88.5925	128.906	88.7439	128.906	88.4809	128.906	88.7766	128.906	88.3527	128.906	88.7786	128.906	88.2144	128.906	88.7509	128.906	88.0736	128.906	88.6962	128.906	87.9375	128.906	88.6194	128.906	87.8134	128.906	88.5268	128.906	87.7073	128.906	88.4255	128.906	87.624	128.906	88.3228	128.906	87.566	128.906	88.225	128.906	87.5339	128.906	88.1368	128.906	87.5262	128.906	88.0603	128.906	87.5395	128.906	87.9957	128.906	87.5693	128.906	87.9408	128.906	87.6105	128.906	87.8927	128.906	87.658	128.906	87.8478	128.906	87.7076	128.906	87.8029	128.906	87.7563
133.301	88.8203	133.301	88.7296	133.301	88.8812	133.301	88.613	133.301	88.9097	133.301	88.476	133.301	88.9048	133.301	88.3246	133.301	88.8672	133.301	88.1661	133.301	88.7995	133.301	88.0081	133.301	88.7063	133.301	87.8582	133.301	88.5937	133.301	87.7236	133.301	88.4693	133.301	87.6103	133.301	88.341	133.301	87.5226	133.301	88.2161	133.301	87.4626	133.301	88.1006	133.301	87.43	133.301	87.998	133.301	87.4225	133.301	87.9095	133.301	87.4359	133.301	87.8338	133.301	87.4653	133.301	87.7683	133.301	87.5056	133.301	87.7097	133.301	87.5525	133.301	87.6551	133.301	87.6028
139.16	88.7188	139.16	88.63	139.16	88.7821	139.16	88.5201	139.16	88.817	139.16	88.3943	139.16	88.8219	139.16	88.2587	139.16	88.7971	139.16	88.1193	139.16	88.7445	139.16	87.9827	139.16	88.6678	139.16	87.8546	139.16	88.5723	139.16	87.7404	139.16	88.464	139.16	87.6443	139.16	88.3495	139.16	87.5692	139.16	88.235	139.16	87.5165	139.16	88.1256	139.16	87.4859	139.16	88.025	139.16	87.4756	139.16	87.935	139.16	87.4827	139.16	87.8557	139.16	87.5039	139.16	87.7863	139.16	87.5357	139.16	87.7249	139.16	87.5751	139.16	87.6699	139.16	87.6201
143.555	88.5931	143.555	88.4905	143.555	88.6659	143.555	88.3631	143.555	88.7063	143.555	88.2172	143.555	88.7134	143.555	88.0606	143.555	88.6887	143.555	87.9018	143.555	88.6358	143.555	87.7495	143.555	88.5602	143.555	87.612	143.555	88.4687	143.555	87.496	143.555	88.3687	143.555	87.4065	143.555	88.2674	143.555	87.3461	143.555	88.1706	143.555	87.3148	143.555	88.0818	143.555	87.3108	143.555	88.0025	143.555	87.3302	143.555	87.9316	143.555	87.3686	143.555	87.8666	143.555	87.4207	143.555	87.8047	143.555	87.4818	143.555	87.7429	143.555	87.5473	143.555	87.6795	143.555	87.614
147.949	88.8362	147.949	88.7409	147.949	88.8981	147.949	88.616	147.949	88.9242	147.949	88.4672	147.949	88.9139	147.949	88.3013	147.949	88.8688	147.949	88.1264	147.949	88.7923	147.949	87.9514	147.949	88.6902	147.949	87.786	147.949	88.5703	147.949	87.6393	147.949	88.4416	147.949	87.5194	147.949	88.3136	147.949	87.4324	147.949	88.1948	147.949	87.3811	147.949	88.0915	147.949	87.3652	147.949	88.0065	147.949	87.3811	147.949	87.9389	147.949	87.4224	147.949	87.8848	147.949	87.4812	147.949	87.8381	147.949	87.5492	147.949	87.7921	147.949	87.6186	147.949	87.7417	147.949	87.6838
153.809	88.7284	153.809	88.6349	153.809	88.7914	153.809	88.515	153.809	88.8212	153.809	88.3741	153.809	88.8169	153.809	88.2185	153.809	88.7793	153.809	88.0555	153.809	88.7112	153.809	87.893	153.809	88.6173	153.809	87.739	153.809	88.504	153.809	87.6012	153.809	88.3789	153.809	87.4862	153.809	88.25	153.809	87.3988	153.809	88.1249	153.809	87.3417	153.809	88.0098	153.809	87.3145	153.809	87.9084	153.809	87.3145	153.809	87.8221	153.809	87.3367	153.809	87.7497	153.809	87.3749	153.809	87.6879	153.809	87.4229	153.809	87.6327	153.809	87.4751	153.809	87.5803	153.809	87.5281
159.668	88.4491	159.668	88.3496	159.668	88.5168	159.668	88.223	159.668	88.5497	159.668	88.0754	159.668	88.5468	159.668	87.9141	159.668	88.5093	159.668	87.747	159.668	88.4404	159.668	87.5823	159.668	88.3454	159.668	87.4279	159.668	88.2312	159.668	87.2909	159.668	88.1054	159.668	87.1769	159.668	87.9759	159.668	87.0899	159.668	87.8493	159.668	87.0312	159.668	87.731	159.668	87.0004	159.668	87.6243	159.668	86.9946	159.668	87.5301	159.668	87.0098	159.668	87.4477	159.668	87.0413	159.668	87.3749	159.668	87.0843	159.668	87.3091	159.668	87.1347	159.668	87.2478	159.668	87.1897
165.527	88.4267	165.527	88.3114	165.527	88.5039	165.527	88.1631	165.527	88.5398	165.527	87.9892	165.527	88.534	165.527	87.7988	165.527	88.4886	165.527	87.6022	165.527	88.4083	165.527	87.4105	165.527	88.3003	165.527	87.2344	165.527	88.1739	165.527	87.0836	165.527	88.0389	165.527	86.9654	165.527	87.9049	165.527	86.8837	165.527	87.7796	165.527	86.8393	165.527	87.668	165.527	86.8295	165.527	87.5716	165.527	86.8492	165.527	87.4894	165.527	86.8917	165.527	87.4179	165.527	86.95	165.527	87.3528	165.527	87.0173	165.527	87.2897	165.527	87.0881	165.527	87.2254	165.527	87.1581
171.387	88.815	171.387	88.7018	171.387	88.8892	171.387	88.5535	171.387	88.9216	171.387	88.3753	171.387	88.9111	171.387	88.1735	171.387	88.8586	171.387	87.9555	171.387	88.7674	171.387	87.7303	171.387	88.6431	171.387	87.5085	171.387	88.4939	171.387	87.3018	171.387	88.3297	171.387	87.1222	171.387	88.161	171.387	86.98	171.387	87.9983	171.387	86.8825	171.387	87.8495	171.387	86.8325	171.387	87.7194	171.387	86.8278	171.387	87.6088	171.387	86.8617	171.387	87.5146	171.387	86.9246	171.387	87.4311	171.387	87.0058	171.387	87.3517	171.387	87.0952	171.387	87.2706	171.387	87.185
177.246	88.6783	177.246	88.5635	177.246	88.7542	177.246	88.4149	177.246	88.7885	177.246	88.2396	177.246	88.781	177.246	88.0461	177.246	88.7343	177.246	87.8442	177.246	88.6535	177.246	87.6441	177.246	88.5461	177.246	87.4562	177.246	88.4209	177.246	87.2905	177.246	88.2873	177.246	87.1554	177.246	88.154	177.246	87.0572	177.246	88.0282	177.246	86.9992	177.246	87.9145	177.246	86.9811	177.246	87.8149	177.246	86.999	177.246	87.7287	177.246	87.0462	177.246	87.6526	177.246	87.1143	177.246	87.5822	177.246	87.1945	177.246	87.5126	177.246	87.2789	177.246	87.4398	177.246	87.3618
183.105	88.7562	183.105	88.6509	183.105	88.8209	183.105	88.5096	183.105	88.8428	183.105	88.3384	183.105	88.8221	183.105	88.145	183.105	88.7616	183.105	87.9381	183.105	88.667	183.105	87.7276	183.105	88.5466	183.105	87.5239	183.105	88.4102	183.105	87.338	183.105	88.2686	183.105	87.1801	183.105	88.1316	183.105	87.0594	183.105	88.0066	183.105	86.9819	183.105	87.8977	183.105	86.9497	183.105	87.8054	183.105	86.9602	183.105	87.7268	183.105	87.0067	183.105	87.6568	183.105	87.0798	183.105	87.5894	183.105	87.1686	183.105	87.5191	183.105	87.2634	183.105	87.4418	183.105	87.356
188.965	88.6628	188.965	88.5582	188.965	88.7232	188.965	88.4144	188.965	88.7368	188.965	88.2388	188.965	88.704	188.965	88.0404	188.965	88.6284	188.965	87.8296	188.965	88.5172	188.965	87.6177	188.965	88.3801	188.965	87.4164	188.965	88.2292	188.965	87.2369	188.965	88.0775	188.965	87.0896	188.965	87.937	188.965	86.9822	188.965	87.8166	188.965	86.9192	188.965	87.7209	188.965	86.901	188.965	87.6493	188.965	86.9238	188.965	87.5967	188.965	86.9799	188.965	87.5547	188.965	87.0595	188.965	87.5141	188.965	87.1514	188.965	87.4666	188.965	87.2451	188.965	87.4066	188.965	87.3321
196.289	88.6529	196.289	88.5518	196.289	88.709	196.289	88.4115	196.289	88.7169	196.289	88.2398	196.289	88.6769	196.289	88.0464	196.289	88.5925	196.289	87.8417	196.289	88.4709	196.289	87.6367	196.289	88.3226	196.289	87.442	196.289	88.1608	196.289	87.2678	196.289	87.9994	196.289	87.1234	196.289	87.8518	196.289	87.0164	196.289	87.728	196.289	86.9519	196.289	87.6335	196.289	86.9317	196.289	87.5682	196.289	86.9529	196.289	87.5268	196.289	87.0084	196.289	87.5002	196.289	87.0874	196.289	87.4775	196.289	87.1774	196.289	87.4484	196.289	87.2662	196.289	87.4051	196.289	87.344
203.613	88.4608	203.613	88.3454	203.613	88.522	203.613	88.1813	203.613	88.5262	203.613	87.9771	203.613	88.4742	203.613	87.7439	203.613	88.3704	203.613	87.4955	203.613	88.2237	203.613	87.2471	203.613	88.0467	203.613	87.0151	203.613	87.8556	203.613	86.8149	203.613	87.6682	203.613	86.6594	203.613	87.5011	203.613	86.5569	203.613	87.3668	203.613	86.5104	203.613	87.2713	203.613	86.5168	203.613	87.2129	203.613	86.5681	203.613	87.1835	203.613	86.6524	203.613	87.1709	203.613	86.7555	203.613	87.1614	203.613	86.8634	203.613	87.1428	203.613	86.9634	203.613	87.1058	203.613	87.0459
210.938	88.7594	210.938	88.6519	210.938	88.8106	210.938	88.4934	210.938	88.8019	210.938	88.2911	210.938	88.7324	210.938	88.0534	210.938	88.6044	210.938	87.7904	210.938	88.4241	210.938	87.514	210.938	88.2021	210.938	87.2379	210.938	87.9533	210.938	86.9774	210.938	87.6962	210.938	86.7478	210.938	87.4511	210.938	86.5633	210.938	87.237	210.938	86.434	210.938	87.0678	210.938	86.364	210.938	86.949	210.938	86.3506	210.938	86.8762	210.938	86.3844	210.938	86.8367	210.938	86.4516	210.938	86.8134	210.938	86.5359	210.938	86.7897	210.938	86.6217	210.938	86.7528	210.938	86.6965
218.262	88.7099	218.262	88.6022	218.262	88.7699	218.262	88.4528	218.262	88.7781	218.262	88.2689	218.262	88.7329	218.262	88.0588	218.262	88.6354	218.262	87.8316	218.262	88.4901	218.262	87.5974	218.262	88.3049	218.262	87.3664	218.262	88.0909	218.262	87.1494	218.262	87.8617	218.262	86.9569	218.262	87.6323	218.262	86.7978	218.262	87.4173	218.262	86.6786	218.262	87.2294	218.262	86.6024	218.262	87.0772	218.262	86.5675	218.262	86.9638	218.262	86.5683	218.262	86.8859	218.262	86.5953	218.262	86.8346	218.262	86.6376	218.262	86.7981	218.262	86.6844	218.262	86.7652	218.262	86.728
225.586	88.3986	225.586	88.2815	225.586	88.4646	225.586	88.1199	225.586	88.4756	225.586	87.9232	225.586	88.4313	225.586	87.7026	225.586	88.3351	225.586	87.4706	225.586	88.1948	225.586	87.2409	225.586	88.0219	225.586	87.0275	225.586	87.831	225.586	86.8441	225.586	87.6386	225.586	86.7021	225.586	87.4607	225.586	86.6094	225.586	87.3105	225.586	86.5686	225.586	87.1962	225.586	86.5766	225.586	87.1196	225.586	86.6244	225.586	87.0768	225.586	86.6995	225.586	87.0589	225.586	86.7875	225.586	87.0544	225.586	86.8745	225.586	87.0507	225.586	86.949	225.586	87.0364	225.586	87.0036
232.91	88.3812	232.91	88.2429	232.91	88.4556	232.91	88.048	232.91	88.4624	232.91	87.8066	232.91	88.4019	232.91	87.5313	232.91	88.2791	232.91	87.2365	232.91	88.104	232.91	86.9384	232.91	87.8914	232.91	86.6544	232.91	87.6597	232.91	86.4023	232.91	87.4289	232.91	86.1987	232.91	87.2182	232.91	86.0566	232.91	87.0426	232.91	85.9828	232.91	86.9107	232.91	85.9763	232.91	86.8227	232.91	86.0284	232.91	86.7716	232.91	86.124	232.91	86.7443	232.91	86.2445	232.91	86.7252	232.91	86.3714	232.91	86.6993	232.91	86.4886	232.91	86.6548	232.91	86.5849
241.699	88.6219	241.699	88.4868	241.699	88.695	241.699	88.2979	241.699	88.7008	241.699	88.0654	241.699	88.6371	241.699	87.8009	241.699	88.5056	241.699	87.5174	241.699	88.3124	241.699	87.2282	241.699	88.0687	241.699	86.9474	241.699	87.7905	241.699	86.6885	241.699	87.4979	241.699	86.4648	241.699	87.2132	241.699	86.2878	241.699	86.9584	241.699	86.1659	241.699	86.7517	241.699	86.103	241.699	86.6042	241.699	86.0968	241.699	86.5168	241.699	86.1381	241.699	86.48	241.699	86.2117	241.699	86.4753	241.699	86.2987	241.699	86.4797	241.699	86.3799	241.699	86.4726	241.699	86.4403
250.488	88.3453	250.488	88.2102	250.488	88.4092	250.488	88.0104	250.488	88.399	250.488	87.7547	250.488	88.3148	250.488	87.4542	250.488	88.1614	250.488	87.1223	250.488	87.9481	250.488	86.7748	250.488	87.6902	250.488	86.4294	250.488	87.4076	250.488	86.1053	250.488	87.124	250.488	85.8224	250.488	86.8627	250.488	85.5981	250.488	86.6415	250.488	85.4448	250.488	86.4687	250.488	85.3666	250.488	86.3407	250.488	85.3584	250.488	86.2454	250.488	85.4069	250.488	86.1669	250.488	85.4939	250.488	86.0917	250.488	85.6012	250.488	86.0113	250.488	85.7138	250.488	85.9218	250.488	85.8222
259.277	88.766	259.277	88.6241	259.277	88.8347	259.277	88.4149	259.277	88.8263	259.277	88.1457	259.277	88.7393	259.277	87.826	259.277	88.5758	259.277	87.4683	259.277	88.3424	259.277	87.089	259.277	88.0513	259.277	86.7087	259.277	87.7201	259.277	86.3514	259.277	87.372	259.277	86.0411	259.277	87.033	259.277	85.7974	259.277	86.7294	259.277	85.6324	259.277	86.4824	259.277	85.5483	259.277	86.304	259.277	85.5383	259.277	86.1932	259.277	85.5884	259.277	86.1362	259.277	85.6795	259.277	86.1102	259.277	85.7902	259.277	86.0898	259.277	85.8997	259.277	86.054	259.277	85.9908
268.066	88.8833	268.066	88.7607	268.066	88.949	268.066	88.5904	268.066	88.9514	268.066	88.3822	268.066	88.8878	268.066	88.1454	268.066	88.7601	268.066	87.8874	268.066	88.5751	268.066	87.6143	268.066	88.3447	268.066	87.3331	268.066	88.0849	268.066	87.0533	268.066	87.8148	268.066	86.7892	268.066	87.5539	268.066	86.5579	268.066	87.3193	268.066	86.3764	268.066	87.1225	268.066	86.2564	268.066	86.9677	268.066	86.2007	268.066	86.8516	268.066	86.2029	268.066	86.7652	268.066	86.2497	268.066	86.6969	268.066	86.3241	268.066	86.6346	268.066	86.4096	268.066	86.5686	268.066	86.4935
276.855	88.3758	276.855	88.2134	276.855	88.4667	276.855	87.9917	276.855	88.4778	276.855	87.7256	276.855	88.4055	276.855	87.4322	276.855	88.2509	276.855	87.1281	276.855	88.0209	276.855	86.8284	276.855	87.7288	276.855	86.5459	276.855	87.396	276.855	86.2913	276.855	87.0515	276.855	86.0753	276.855	86.7314	276.855	85.909	276.855	86.4722	276.855	85.8024	276.855	86.3011	276.855	85.7613	276.855	86.2247	276.855	85.7841	276.855	86.2259	276.855	85.8599	276.855	86.2715	276.855	85.9707	276.855	86.3247	276.855	86.0948	276.855	86.3565	276.855	86.2104	276.855	86.3498	276.855	86.2995
287.109	88.407	287.109	88.223	287.109	88.5122	287.109	87.9694	287.109	88.5348	287.109	87.6619	287.109	88.4759	287.109	87.3216	287.109	88.3414	287.109	86.9729	287.109	88.1402	287.109	86.6392	287.109	87.8838	287.109	86.3377	287.109	87.5847	287.109	86.0771	287.109	87.256	287.109	85.8587	287.109	86.9122	287.109	85.682	287.109	86.572	287.109	85.5485	287.109	86.2608	287.109	85.4634	287.109	86.0085	287.109	85.4314	287.109	85.8392	287.109	85.4523	287.109	85.7579	287.109	85.516	287.109	85.7443	287.109	85.6028	287.109	85.7608	287.109	85.6873	287.109	85.7696	287.109	85.7469
297.363	88.8269	297.363	88.6811	297.363	88.8985	297.363	88.466	297.363	88.8937	297.363	88.1893	297.363	88.8139	297.363	87.8624	297.363	88.6649	297.363	87.5021	297.363	88.4575	297.363	87.1308	297.363	88.2055	297.363	86.773	297.363	87.9229	297.363	86.449	297.363	87.6214	297.363	86.1687	297.363	87.3078	297.363	85.93	297.363	86.986	297.363	85.7246	297.363	86.6605	297.363	85.545	297.363	86.3409	297.363	85.3905	297.363	86.0426	297.363	85.2674	297.363	85.7826	297.363	85.1846	297.363	85.5717	297.363	85.1482	297.363	85.4104	297.363	85.1577	297.363	85.2913	297.363	85.2072
307.617	88.1507	307.617	87.9692	307.617	88.2464	307.617	87.7199	307.617	88.2454	307.617	87.4238	307.617	88.1468	307.617	87.1035	307.617	87.9639	307.617	86.7834	307.617	87.7262	307.617	86.494	307.617	87.4795	307.617	86.2721	307.617	87.2771	307.617	86.1538	307.617	87.1615	307.617	86.1572	307.617	87.1433	307.617	86.2693	307.617	87.1946	307.617	86.4494	307.617	87.2657	307.617	86.6482	307.617	87.3115	307.617	86.826	307.617	87.3111	307.617	86.9609	307.617	87.2704	307.617	87.0479	307.617	87.2126	307.617	87.0937	307.617	87.162	307.617	87.1117	307.617	87.1313	307.617	87.1187
319.336	88.2772	319.336	88.0351	319.336	88.4072	319.336	87.69	319.336	88.4207	319.336	87.2569	319.336	88.3157	319.336	86.7576	319.336	88.0922	319.336	86.2198	319.336	87.7532	319.336	85.6773	319.336	87.3088	319.336	85.1712	319.336	86.784	319.336	84.7536	319.336	86.2286	319.336	84.4832	319.336	85.7227	319.336	84.4066	319.336	85.3633	319.336	84.53	319.336	85.2213	319.336	84.8089	319.336	85.2957	319.336	85.1688	319.336	85.5149	319.336	85.5363	319.336	85.7845	319.336	85.8588	319.336	86.0312	319.336	86.1064	319.336	86.2147	319.336	86.2665	319.336	86.3184	319.336	86.3367
329.59	88.2965	329.59	88.0577	329.59	88.424	329.59	87.71	329.59	88.4422	329.59	87.2612	329.59	88.3552	329.59	86.7276	329.59	88.168	329.59	86.1353	329.59	87.8861	329.59	85.5223	329.59	87.5161	329.59	84.9391	329.59	87.0695	329.59	84.4478	329.59	86.5686	329.59	84.1147	329.59	86.0534	329.59	83.9895	329.59	85.5839	329.59	84.081	329.59	85.2293	329.59	84.346	329.59	85.0409	329.59	84.7071	329.59	85.0253	329.59	85.082	329.59	85.1421	329.59	85.4053	329.59	85.3282	329.59	85.6361	329.59	85.5233	329.59	85.7563	329.59	85.6808	329.59	85.7665
341.309	88.5511	341.309	88.329	341.309	88.6676	341.309	87.9965	341.309	88.6865	341.309	87.5556	341.309	88.6174	341.309	87.0188	341.309	88.4704	341.309	86.4126	341.309	88.2552	341.309	85.7762	341.309	87.9792	341.309	85.1551	341.309	87.6463	341.309	84.5925	341.309	87.2573	341.309	84.1234	341.309	86.8159	341.309	83.7752	341.309	86.3366	341.309	83.5682	341.309	85.8525	341.309	83.5081	341.309	85.413	341.309	83.5773	341.309	85.0666	341.309	83.736	341.309	84.8351	341.309	83.9358	341.309	84.7008	341.309	84.1353	341.309	84.619	341.309	84.3088	341.309	84.5438	341.309	84.4448
353.027	88.544	353.027	88.4071	353.027	88.5429	353.027	88.1181	353.027	88.4189	353.027	87.66	353.027	88.193	353.027	87.0148	353.027	87.8975	353.027	86.1709	353.027	87.5767	353.027	85.1402	353.027	87.2791	353.027	83.9858	353.027	87.0417	353.027	82.8559	353.027	86.8712	353.027	81.9819	353.027	86.7393	353.027	81.5674	353.027	86.5971	353.027	81.6252	353.027	86.3994	353.027	81.9897	353.027	86.1256	353.027	82.4773	353.027	85.7885	353.027	82.9747	353.027	85.4302	353.027	83.4299	353.027	85.1019	353.027	83.8214	353.027	84.8332	353.027	84.1415	353.027	84.6122	353.027	84.3964
366.211	88.5868	366.211	88.5372	366.211	88.5236	366.211	88.3765	366.211	88.3505	366.211	88.1077	366.211	88.0774	366.211	87.7302	366.211	87.7229	366.211	87.2355	366.211	87.3181	366.211	86.6076	366.211	86.9102	366.211	85.8296	366.211	86.5635	366.211	84.9005	366.211	86.3475	366.211	83.8598	366.211	86.3054	366.211	82.8184	366.211	86.4205	366.211	81.9713	366.211	86.6125	366.211	81.534	366.211	86.7748	366.211	81.5942	366.211	86.8181	366.211	82.0457	366.211	86.6935	366.211	82.7005	366.211	86.3951	366.211	83.4144	366.211	85.9496	366.211	84.1158	366.211	85.3989	366.211	84.7807
379.395	88.9492	379.395	88.9679	379.395	88.7962	379.395	88.861	379.395	88.497	379.395	88.6316	379.395	88.0414	379.395	88.2771	379.395	87.4277	379.395	87.7893	379.395	86.6768	379.395	87.1579	379.395	85.8516	379.395	86.3758	379.395	85.0793	379.395	85.4487	379.395	84.543	379.395	84.4091	379.395	84.3966	379.395	83.3378	379.395	84.6432	379.395	82.3829	379.395	85.1287	379.395	81.7436	379.395	85.6586	379.395	81.5796	379.395	86.0866	379.395	81.8988	379.395	86.3281	379.395	82.5634	379.395	86.3435	379.395	83.3969	379.395	86.1231	379.395	84.2561	379.395	85.6787	379.395	85.0401
392.578	88.8462	392.578	88.8572	392.578	88.7386	392.578	88.7864	392.578	88.5117	392.578	88.6396	392.578	88.1365	392.578	88.416	392.578	87.5816	392.578	88.1111	392.578	86.8194	392.578	87.7202	392.578	85.8388	392.578	87.2416	392.578	84.6778	392.578	86.679	392.578	83.492	392.578	86.0472	392.578	82.6319	392.578	85.38	392.578	82.5027	392.578	84.7384	392.578	83.1121	392.578	84.2094	392.578	84.0394	392.578	83.8818	392.578	84.8916	392.578	83.8047	392.578	85.4813	392.578	83.9628	392.578	85.7611	392.578	84.2924	392.578	85.7558	392.578	84.7149	392.578	85.5268	392.578	85.1525
405.762	89.5177	405.762	89.2339	405.762	89.7266	405.762	88.9175	405.762	89.8167	405.762	88.6007	405.762	89.7469	405.762	88.2963	405.762	89.4797	405.762	87.9929	405.762	88.9789	405.762	87.661	405.762	88.208	405.762	87.2692	405.762	87.1311	405.762	86.8032	405.762	85.7263	405.762	86.281	405.762	84.0432	405.762	85.7597	405.762	82.3721	405.762	85.3263	405.762	81.4501	405.762	85.0702	405.762	81.8748	405.762	85.044	405.762	83.135	405.762	85.2373	405.762	84.4504	405.762	85.5819	405.762	85.4811	405.762	85.9788	405.762	86.1538	405.762	86.3231	405.762	86.4841	405.762	86.5188
420.41	89.0777	420.41	88.8764	420.41	89.2089	420.41	88.6062	420.41	89.2678	420.41	88.2719	420.41	89.2469	420.41	87.8853	420.41	89.1297	420.41	87.4646	420.41	88.89	420.41	87.0299	420.41	88.4925	420.41	86.5962	420.41	87.895	420.41	86.1713	420.41	87.0539	420.41	85.7638	420.41	85.9398	420.41	85.3975	420.41	84.5805	420.41	85.1205	420.41	83.1711	420.41	84.9911	420.41	82.2093	420.41	85.0406	420.41	82.22	420.41	85.2415	420.41	83.0385	420.41	85.5128	420.41	84.0628	420.41	85.7542	420.41	84.9204	420.41	85.8757	420.41	85.5019	420.41	85.8085
435.059	88.8935	435.059	88.6434	435.059	89.0714	435.059	88.3429	435.059	89.1557	435.059	88.0081	435.059	89.1317	435.059	87.6456	435.059	88.993	435.059	87.2549	435.059	88.7399	435.059	86.8316	435.059	88.3718	435.059	86.3717	435.059	87.8805	435.059	85.8752	435.059	87.2493	435.059	85.3529	435.059	86.4633	435.059	84.8376	435.059	85.5363	435.059	84.3939	435.059	84.5576	435.059	84.1095	435.059	83.7351	435.059	84.0551	435.059	83.3424	435.059	84.2308	435.059	83.4901	435.059	84.5523	435.059	83.9926	435.059	84.8916	435.059	84.5568	435.059	85.1274	435.059	84.979	435.059	85.1718
451.172	88.54	451.172	88.2857	451.172	88.693	451.172	87.9519	451.172	88.7344	451.172	87.5679	451.172	88.6647	451.172	87.1615	451.172	88.4916	451.172	86.7453	451.172	88.2246	451.172	86.3103	451.172	87.8686	451.172	85.8332	451.172	87.4176	451.172	85.2964	451.172	86.8547	451.172	84.7122	451.172	86.1642	451.172	84.1394	451.172	85.3608	451.172	83.681	451.172	84.5348	451.172	83.4478	451.172	83.8807	451.172	83.4929	451.172	83.6207	451.172	83.773	451.172	83.8014	451.172	84.1768	451.172	84.2321	451.172	84.5818	451.172	84.6675	451.172	84.888	451.172	84.9517	451.172	85.0246
465.82	88.798	465.82	88.5809	465.82	88.919	465.82	88.2808	465.82	88.9319	465.82	87.9082	465.82	88.831	465.82	87.4712	465.82	88.6198	465.82	86.9799	465.82	88.3107	465.82	86.4502	465.82	87.9195	465.82	85.9027	465.82	87.4569	465.82	85.3563	465.82	86.9216	465.82	84.8241	465.82	86.3017	465.82	84.3212	465.82	85.5927	465.82	83.882	465.82	84.8315	465.82	83.5691	465.82	84.1341	465.82	83.4499	465.82	83.6827	465.82	83.5438	465.82	83.6	465.82	83.791	465.82	83.8136	465.82	84.0824	465.82	84.1196	465.82	84.3137	465.82	84.3457	465.82	84.4132
483.398	89.029	483.398	88.7383	483.398	89.1944	483.398	88.3419	483.398	89.224	483.398	87.8692	483.398	89.1167	483.398	87.357	483.398	88.8807	483.398	86.84	483.398	88.5336	483.398	86.3346	483.398	88.0981	483.398	85.829	483.398	87.594	483.398	85.2931	483.398	87.0277	483.398	84.7085	483.398	86.3929	483.398	84.1009	483.398	85.6898	483.398	83.5548	483.398	84.9635	483.398	83.1938	483.398	84.3368	483.398	83.1174	483.398	83.9823	483.398	83.3328	483.398	83.9949	483.398	83.7458	483.398	84.2806	483.398	84.2169	483.398	84.6258	483.398	84.6151	483.398	84.8439	483.398	84.8424
499.512	89.0923	499.512	88.9047	499.512	89.1899	499.512	88.6461	499.512	89.1795	499.512	88.3278	499.512	89.0527	499.512	87.9489	499.512	88.8121	499.512	87.5024	499.512	88.4682	499.512	86.9826	499.512	88.0331	499.512	86.3888	499.512	87.5154	499.512	85.7255	499.512	86.9178	499.512	85.0074	499.512	86.2429	499.512	84.2724	499.512	85.5149	499.512	83.5987	499.512	84.8119	499.512	83.1091	499.512	84.2802	499.512	82.9332	499.512	84.0697	499.512	83.1191	499.512	84.1987	499.512	83.5763	499.512	84.5177	499.512	84.1289	499.512	84.8268	499.512	84.6104	499.512	84.981	499.512	84.911
517.09	89.0478	517.09	88.8762	517.09	89.0982	517.09	88.5836	517.09	89.0378	517.09	88.1882	517.09	88.8806	517.09	87.7273	517.09	88.6406	517.09	87.248	517.09	88.3315	517.09	86.7866	517.09	87.9644	517.09	86.3458	517.09	87.5413	517.09	85.8873	517.09	87.049	517.09	85.3526	517.09	86.4645	517.09	84.7049	517.09	85.7774	517.09	83.9714	517.09	85.0299	517.09	83.2738	517.09	84.3573	517.09	82.819	517.09	83.965	517.09	82.7896	517.09	83.9672	517.09	83.1762	517.09	84.2491	517.09	83.7675	517.09	84.5716	517.09	84.317	517.09	84.7421	517.09	84.663
536.133	88.9162	536.133	88.6356	536.133	89.0811	536.133	88.2744	536.133	89.1055	536.133	87.874	536.133	88.979	536.133	87.4714	536.133	88.7116	536.133	87.0818	536.133	88.3356	536.133	86.6848	536.133	87.8972	536.133	86.2345	536.133	87.4314	536.133	85.6921	536.133	86.9364	536.133	85.0631	536.133	86.3765	536.133	84.4168	536.133	85.7256	536.133	83.8765	536.133	85.0276	536.133	83.5717	536.133	84.427	536.133	83.5642	536.133	84.1082	536.133	83.8082	536.133	84.1441	536.133	84.1863	536.133	84.4239	536.133	84.5747	536.133	84.7544	536.133	84.8764	536.133	84.9803	536.133	85.0239
555.176	89.0393	555.176	88.7913	555.176	89.1861	555.176	88.4677	555.176	89.2132	555.176	88.0927	555.176	89.1149	555.176	87.6791	555.176	88.899	555.176	87.2243	555.176	88.585	555.176	86.7174	555.176	88.2012	555.176	86.1527	555.176	87.7735	555.176	85.5398	555.176	87.3076	555.176	84.9023	555.176	86.7766	555.176	84.2771	555.176	86.1345	555.176	83.7242	555.176	85.3737	555.176	83.34	555.176	84.6188	555.176	83.2395	555.176	84.1696	555.176	83.4819	555.176	84.2721	555.176	84.0005	555.176	84.7759	555.176	84.6276	555.176	85.2974	555.176	85.1828	555.176	85.5749	555.176	85.5276
574.219	89.372	574.219	88.9838	574.219	89.5545	574.219	88.4366	574.219	89.5257	574.219	87.8152	574.219	89.3113	574.219	87.214	574.219	88.9568	574.219	86.6928	574.219	88.5203	574.219	86.2526	574.219	88.0672	574.219	85.8577	574.219	87.6522	574.219	85.4763	574.219	87.2852	574.219	85.0986	574.219	86.9083	574.219	84.7251	574.219	86.4221	574.219	84.3573	574.219	85.7527	574.219	84.0139	574.219	84.9306	574.219	83.7638	574.219	84.1555	574.219	83.7226	574.219	83.7497	574.219	83.9534	574.219	83.869	574.219	84.3578	574.219	84.3019	574.219	84.7237	574.219	84.7066	574.219	84.866
594.727	89.1962	594.727	88.9373	594.727	89.3382	594.727	88.5704	594.727	89.3518	594.727	88.1135	594.727	89.2215	594.727	87.6069	594.727	88.9381	594.727	87.1095	594.727	88.5124	594.727	86.6672	594.727	87.9839	594.727	86.2697	594.727	87.4155	594.727	85.8484	594.727	86.8689	594.727	85.3333	594.727	86.3756	594.727	84.7232	594.727	85.933	594.727	84.1214	594.727	85.5385	594.727	83.7015	594.727	85.2278	594.727	83.589	594.727	85.0623	594.727	83.7643	594.727	85.0608	594.727	84.1063	594.727	85.1572	594.727	84.4941	594.727	85.2436	594.727	84.8441	594.727	85.2366	594.727	85.102
615.234	88.8615	615.234	88.6216	615.234	88.9111	615.234	88.2107	615.234	88.7751	615.234	87.664	615.234	88.4873	615.234	87.0368	615.234	88.1049	615.234	86.4165	615.234	87.6975	615.234	85.9005	615.234	87.3265	615.234	85.5267	615.234	87.0138	615.234	85.236	615.234	86.7172	615.234	84.9297	615.234	86.3475	615.234	84.5544	615.234	85.8292	615.234	84.1433	615.234	85.1754	615.234	83.8187	615.234	84.5665	615.234	83.754	615.234	84.3449	615.234	84.0649	615.234	84.7079	615.234	84.6903	615.234	85.4122	615.234	85.4205	615.234	86.0559	615.234	86.0368	615.234	86.4041	615.234	86.3907
637.207	89.4319	637.207	89.0542	637.207	89.5586	637.207	88.4576	637.207	89.4571	637.207	87.754	637.207	89.1666	637.207	87.1068	637.207	88.7172	637.207	86.6311	637.207	88.1348	637.207	86.2998	637.207	87.4788	637.207	85.9792	637.207	86.8688	637.207	85.543	637.207	86.4219	637.207	84.9512	637.207	86.112	637.207	84.2664	637.207	85.7529	637.207	83.634	637.207	85.1664	637.207	83.24	637.207	84.36	637.207	83.2382	637.207	83.6259	637.207	83.6419	637.207	83.4369	637.207	84.2877	637.207	83.947	637.207	84.9482	637.207	84.7525	637.207	85.4353	637.207	85.3794	637.207	85.6098
659.18	89.0436	659.18	88.7965	659.18	89.0976	659.18	88.334	659.18	89.0038	659.18	87.6932	659.18	88.7937	659.18	86.9736	659.18	88.4723	659.18	86.2947	659.18	88.032	659.18	85.7437	659.18	87.4803	659.18	85.3538	659.18	86.8731	659.18	85.0932	659.18	86.335	659.18	84.8635	659.18	85.9963	659.18	84.555	659.18	85.8406	659.18	84.1325	659.18	85.6727	659.18	83.681	659.18	85.3117	659.18	83.3977	659.18	84.8206	659.18	83.507	659.18	84.5721	659.18	84.0644	659.18	84.8606	659.18	84.8506	659.18	85.4399	659.18	85.5437	659.18	85.8683	659.18	85.9146
682.617	89.7508	682.617	89.3573	682.617	89.8492	682.617	88.6699	682.617	89.6862	682.617	87.7545	682.617	89.3052	682.617	86.762	682.617	88.7462	682.617	85.8983	682.617	88.0504	682.617	85.2925	682.617	87.2779	682.617	84.8668	682.617	86.527	682.617	84.4292	682.617	85.9081	682.617	83.8762	682.617	85.439	682.617	83.2811	682.617	84.9947	682.617	82.8574	682.617	84.4514	682.617	82.8248	682.617	83.9185	682.617	83.2409	682.617	83.8006	682.617	83.9828	682.617	84.3589	682.617	84.8728	682.617	85.3008	682.617	85.7417	682.617	86.1718	682.617	86.4264	682.617	86.6994	682.617	86.7792
707.52	90.7133	707.52	90.3939	707.52	90.7563	707.52	89.8298	707.52	90.5383	707.52	89.076	707.52	90.1143	707.52	88.1843	707.52	89.5401	707.52	87.213	707.52	88.8386	707.52	86.254	707.52	88.0097	707.52	85.4096	707.52	87.0827	707.52	84.6947	707.52	86.1681	707.52	84.006	707.52	85.4183	707.52	83.2484	707.52	84.8534	707.52	82.4686	707.52	84.271	707.52	81.8553	707.52	83.4621	707.52	81.6421	707.52	82.6099	707.52	82.0024	707.52	82.5073	707.52	82.8972	707.52	83.4855	707.52	84.0078	707.52	84.6795	707.52	84.9515	707.52	85.3925	707.52	85.4635
732.422	90.0145	732.422	89.8557	732.422	89.9748	732.422	89.426	732.422	89.8026	732.422	88.7172	732.422	89.5084	732.422	87.8364	732.422	89.0521	732.422	86.992	732.422	88.3948	732.422	86.3643	732.422	87.5596	732.422	85.9531	732.422	86.6723	732.422	85.6154	732.422	85.9267	732.422	85.2114	732.422	85.4352	732.422	84.6556	732.422	85.1099	732.422	83.9089	732.422	84.745	732.422	83.0449	732.422	84.1725	732.422	82.3718	732.422	83.3804	732.422	82.2948	732.422	82.6461	732.422	82.8133	732.422	82.4954	732.422	83.5186	732.422	83.0568	732.422	84.0378	732.422	83.7783	732.422	84.1528
757.324	90.4927	757.324	90.3626	757.324	90.3656	757.324	89.946	757.324	90.0467	757.324	89.2678	757.324	89.5954	757.324	88.3944	757.324	89.0306	757.324	87.4195	757.324	88.33	757.324	86.4865	757.324	87.4658	757.324	85.785	757.324	86.4743	757.324	85.3845	757.324	85.5325	757.324	85.0892	757.324	84.8947	757.324	84.619	757.324	84.591	757.324	83.8593	757.324	84.3365	757.324	82.9664	757.324	83.8772	757.324	82.3796	757.324	83.294	757.324	82.5347	757.324	83.0635	757.324	83.3342	757.324	83.5457	757.324	84.2768	757.324	84.3757	757.324	84.9652	757.324	85.0133	757.324	85.2245
785.156	90.8064	785.156	90.7005	785.156	90.6935	785.156	90.3204	785.156	90.4332	785.156	89.6565	785.156	90.0596	785.156	88.7507	785.156	89.5458	785.156	87.7001	785.156	88.844	785.156	86.6544	785.156	87.946	785.156	85.7541	785.156	86.9088	785.156	85.0219	785.156	85.8474	785.156	84.343	785.156	84.9121	785.156	83.5623	785.156	84.1955	785.156	82.5766	785.156	83.5858	785.156	81.427	785.156	82.7935	785.156	80.4783	785.156	81.6559	785.156	80.4173	785.156	80.7256	785.156	81.4218	785.156	81.2514	785.156	82.8069	785.156	82.813	785.156	83.9121	785.156	84.0212	785.156	84.3811
811.523	90.2793	811.523	90.2017	811.523	90.0606	811.523	89.77	811.523	89.6419	811.523	89.0108	811.523	89.1215	811.523	88.0536	811.523	88.5531	811.523	87.0765	811.523	87.8977	811.523	86.2079	811.523	87.0556	811.523	85.5025	811.523	85.9998	811.523	84.9999	811.523	84.9454	811.523	84.7109	811.523	84.3154	811.523	84.5077	811.523	84.2019	811.523	84.1306	811.523	84.1306	811.523	83.3608	811.523	83.6978	811.523	82.2512	811.523	83.002	811.523	81.4129	811.523	82.5471	811.523	81.6827	811.523	82.6544	811.523	82.7584	811.523	83.164	811.523	83.6948	811.523	83.7507	811.523	84.0262
840.82	91.0202	840.82	90.8762	840.82	90.8098	840.82	90.3773	840.82	90.3089	840.82	89.565	840.82	89.6289	840.82	88.5163	840.82	88.8721	840.82	87.3535	840.82	88.0726	840.82	86.2086	840.82	87.1732	840.82	85.1839	840.82	86.073	840.82	84.41	840.82	84.7779	840.82	84.0187	840.82	83.5878	840.82	83.9071	840.82	82.9407	840.82	83.7417	840.82	82.7805	840.82	83.2564	840.82	82.5661	840.82	82.4532	840.82	81.915	840.82	81.7425	840.82	81.2132	840.82	81.8139	840.82	81.7252	840.82	82.7217	840.82	83.1941	840.82	83.7601	840.82	84.2181	840.82	84.3616
870.117	91.1134	870.117	91.0825	870.117	90.7702	870.117	90.583	870.117	90.2056	870.117	89.625	870.117	89.5461	870.117	88.3341	870.117	88.8304	870.117	86.9283	870.117	88.0316	870.117	85.6091	870.117	87.1143	870.117	84.4165	870.117	86.0485	870.117	83.3219	870.117	84.8236	870.117	82.4798	870.117	83.5698	870.117	82.0882	870.117	82.6562	870.117	81.9637	870.117	82.2914	870.117	81.6486	870.117	82.0537	870.117	80.8784	870.117	81.3889	870.117	80.026	870.117	80.3447	870.117	80.1683	870.117	80.139	870.117	81.4244	870.117	81.4098	870.117	82.6643	870.117	82.7158	870.117	83.1688
900.879	92.0701	900.879	92.0146	900.879	91.7637	900.879	91.5668	900.879	91.2054	900.879	90.7792	900.879	90.5207	900.879	89.7177	900.879	89.7936	900.879	88.4187	900.879	89.04	900.879	86.9902	900.879	88.1923	900.879	85.6874	900.879	87.1335	900.879	84.6134	900.879	85.8605	900.879	83.5189	900.879	84.7308	900.879	82.2928	900.879	84.2617	900.879	81.3326	900.879	84.2143	900.879	81.06	900.879	83.7948	900.879	81.1421	900.879	82.6336	900.879	81.1049	900.879	81.2456	900.879	81.2846	900.879	81.183	900.879	82.1759	900.879	82.5766	900.879	83.3256	900.879	83.7599	900.879	83.994
933.105	92.5551	933.105	92.5892	933.105	92.2655	933.105	92.2451	933.105	91.7166	933.105	91.3278	933.105	90.902	933.105	89.7434	933.105	89.9017	933.105	87.7335	933.105	88.7955	933.105	86.0753	933.105	87.5797	933.105	85.3481	933.105	86.2401	933.105	85.0138	933.105	84.8569	933.105	84.4524	933.105	83.6823	933.105	83.5648	933.105	83.1244	933.105	82.5255	933.105	83.2175	933.105	81.5374	933.105	83.3641	933.105	80.6088	933.105	82.9634	933.105	79.9157	933.105	81.8815	933.105	80.4353	933.105	81.2412	933.105	82.3363	933.105	82.67	933.105	84.2464	933.105	84.5092	933.105	85.108
965.332	92.2437	965.332	92.1637	965.332	91.9	965.332	91.5586	965.332	91.2976	965.332	90.5029	965.332	90.5397	965.332	89.1824	965.332	89.6662	965.332	87.6488	965.332	88.7069	965.332	85.8413	965.332	87.664	965.332	84.3229	965.332	86.4368	965.332	84.2855	965.332	84.9204	965.332	85.0389	965.332	83.3909	965.332	85.1707	965.332	82.542	965.332	84.2978	965.332	82.5069	965.332	82.7325	965.332	82.5628	965.332	81.2868	965.332	82.1196	965.332	80.645	965.332	81.3693	965.332	80.9485	965.332	81.2505	965.332	82.0514	965.332	82.1008	965.332	83.2246	965.332	83.184	965.332	83.6818
1000.49	91.4079	1000.49	91.4747	1000.49	91.0477	1000.49	91.2348	1000.49	90.372	1000.49	90.5541	1000.49	89.4899	1000.49	89.315	1000.49	88.6342	1000.49	87.5955	1000.49	87.9302	1000.49	85.6557	1000.49	87.2118	1000.49	83.7381	1000.49	86.2036	1000.49	82.2561	1000.49	84.8417	1000.49	82.1505	1000.49	83.3764	1000.49	83.0583	1000.49	82.1905	1000.49	83.413	1000.49	81.5042	1000.49	82.6275	1000.49	81.3495	1000.49	81.1592	1000.49	81.2604	1000.49	80.1562	1000.49	80.4041	1000.49	80.2321	1000.49	79.1551	1000.49	80.9426	1000.49	79.5735	1000.49	81.6868	1000.49	81.0889	1000.49	81.8787
1035.64	91.7877	1035.64	91.8516	1035.64	91.3556	1035.64	91.484	1035.64	90.6159	1035.64	90.6795	1035.64	89.6572	1035.64	89.5063	1035.64	88.673	1035.64	87.9858	1035.64	87.8758	1035.64	85.9437	1035.64	87.2038	1035.64	83.0795	1035.64	86.2459	1035.64	79.6443	1035.64	84.6776	1035.64	78.1983	1035.64	82.9054	1035.64	79.7213	1035.64	82.1198	1035.64	81.2609	1035.64	82.217	1035.64	81.6871	1035.64	81.9507	1035.64	80.9152	1035.64	80.9581	1035.64	79.6777	1035.64	79.5153	1035.64	79.7265	1035.64	79.1167	1035.64	81.2284	1035.64	80.7852	1035.64	82.5152	1035.64	82.3379	1035.64	82.9028
1072.27	91.7399	1072.27	91.5927	1072.27	91.3931	1072.27	91.0374	1072.27	90.5607	1072.27	90.1233	1072.27	89.4461	1072.27	88.8556	1072.27	88.3367	1072.27	87.2503	1072.27	87.305	1072.27	85.3409	1072.27	86.1888	1072.27	83.4718	1072.27	84.9022	1072.27	82.4481	1072.27	83.4514	1072.27	81.971	1072.27	81.7477	1072.27	80.927	1072.27	80.2339	1072.27	79.359	1072.27	80.2082	1072.27	79.151	1072.27	81.0318	1072.27	79.983	1072.27	81.4118	1072.27	79.8242	1072.27	80.7334	1072.27	79.2136	1072.27	78.8363	1072.27	79.8193	1072.27	78.5503	1072.27	81.1314	1072.27	80.6591	1072.27	81.6687
1108.89	91.7535	1108.89	91.4904	1108.89	91.3303	1108.89	90.5797	1108.89	90.3793	1108.89	89.3193	1108.89	89.1276	1108.89	88.0535	1108.89	87.8058	1108.89	86.7832	1108.89	86.6672	1108.89	85.2788	1108.89	85.81	1108.89	83.5366	1108.89	84.9667	1108.89	82.0026	1108.89	83.7675	1108.89	81.3819	1108.89	82.0971	1108.89	81.6969	1108.89	80.4777	1108.89	81.8954	1108.89	79.8154	1108.89	81.0443	1108.89	79.6727	1108.89	78.9974	1108.89	79.5261	1108.89	76.6465	1108.89	79.4802	1108.89	76.5074	1108.89	78.9694	1108.89	79.3579	1108.89	79.2024	1108.89	81.9559	1108.89	81.4069	1108.89	82.7094
1148.44	91.355	1148.44	91.1593	1148.44	91.1812	1148.44	90.5631	1148.44	90.5477	1148.44	89.5321	1148.44	89.401	1148.44	88.2295	1148.44	87.915	1148.44	86.9373	1148.44	86.4152	1148.44	85.7195	1148.44	85.0912	1148.44	84.3688	1148.44	83.8873	1148.44	82.7179	1148.44	82.558	1148.44	81.1543	1148.44	80.9234	1148.44	80.6587	1148.44	79.2688	1148.44	80.7365	1148.44	78.4001	1148.44	80.0291	1148.44	78.9244	1148.44	78.2803	1148.44	79.8161	1148.44	76.2983	1148.44	80.0023	1148.44	76.2328	1148.44	79.5256	1148.44	78.7054	1148.44	79.2852	1148.44	81.0373	1148.44	80.6344	1148.44	81.7308
1189.45	91.4444	1189.45	91.2624	1189.45	91.1095	1189.45	90.5918	1189.45	90.3089	1189.45	89.4927	1189.45	89.1413	1189.45	88.0491	1189.45	87.7935	1189.45	86.5297	1189.45	86.5041	1189.45	85.2264	1189.45	85.3181	1189.45	83.889	1189.45	83.9491	1189.45	82.109	1189.45	81.9418	1189.45	80.4082	1189.45	79.2133	1189.45	79.851	1189.45	77.5359	1189.45	80.0083	1189.45	78.467	1189.45	79.7327	1189.45	79.4821	1189.45	78.6945	1189.45	79.3628	1189.45	77.1338	1189.45	78.516	1189.45	76.0185	1189.45	78.252	1189.45	78.1523	1189.45	79.2314	1189.45	80.9668	1189.45	80.865	1189.45	81.8169
1230.47	90.7413	1230.47	90.6901	1230.47	90.4427	1230.47	90.2788	1230.47	89.6498	1230.47	89.2356	1230.47	88.4876	1230.47	87.4797	1230.47	87.3143	1230.47	85.4665	1230.47	86.2045	1230.47	83.9301	1230.47	84.9773	1230.47	82.8872	1230.47	83.7545	1230.47	81.5828	1230.47	82.6434	1230.47	79.7477	1230.47	80.8025	1230.47	78.8505	1230.47	77.4507	1230.47	80.2007	1230.47	75.1045	1230.47	81.176	1230.47	76.1478	1230.47	80.3083	1230.47	77.7666	1230.47	78.0332	1230.47	78.362	1230.47	75.9782	1230.47	78.4363	1230.47	76.839	1230.47	79.2371	1230.47	79.2893	1230.47	80.2404	1230.47	80.5103
1274.41	90.6243	1274.41	90.4562	1274.41	90.0893	1274.41	89.7625	1274.41	88.9331	1274.41	88.743	1274.41	87.4795	1274.41	87.4159	1274.41	86.0779	1274.41	85.6513	1274.41	84.7311	1274.41	83.2599	1274.41	83.2757	1274.41	80.3486	1274.41	82.0619	1274.41	77.8013	1274.41	81.3539	1274.41	75.8483	1274.41	80.1614	1274.41	73.0644	1274.41	77.7582	1274.41	74.4693	1274.41	76.8159	1274.41	77.8996	1274.41	77.2002	1274.41	78.3153	1274.41	77.0454	1274.41	76.7905	1274.41	76.3206	1274.41	75.3015	1274.41	75.7546	1274.41	76.91	1274.41	77.1075	1274.41	79.2219	1274.41	78.5868	1274.41	79.6082
1319.82	90.1562	1319.82	89.7905	1319.82	89.7996	1319.82	88.9534	1319.82	88.626	1319.82	87.8716	1319.82	86.8375	1319.82	86.5469	1319.82	84.9798	1319.82	84.851	1319.82	83.4436	1319.82	82.6869	1319.82	82.1227	1319.82	79.7906	1319.82	81.0634	1319.82	76.3728	1319.82	80.2088	1319.82	75.4248	1319.82	78.6889	1319.82	76.5255	1319.82	75.6502	1319.82	75.4672	1319.82	72.7937	1319.82	73.9591	1319.82	74.7934	1319.82	75.4703	1319.82	76.2205	1319.82	75.9975	1319.82	75.4012	1319.82	74.2015	1319.82	74.2727	1319.82	74.6353	1319.82	76.8491	1319.82	78.2632	1319.82	79.4195	1319.82	79.8769
1366.7	90.2553	1366.7	89.7834	1366.7	89.9411	1366.7	88.7413	1366.7	88.7027	1366.7	87.3873	1366.7	86.5994	1366.7	85.8542	1366.7	83.9897	1366.7	83.987	1366.7	81.5706	1366.7	81.5771	1366.7	80.1748	1366.7	78.9924	1366.7	79.8662	1366.7	76.858	1366.7	79.5751	1366.7	74.5673	1366.7	78.4113	1366.7	71.4981	1366.7	75.9724	1366.7	69.9882	1366.7	71.0664	1366.7	71.9192	1366.7	69.0164	1366.7	74.4228	1366.7	74.5669	1366.7	75.6088	1366.7	75.4378	1366.7	74.1595	1366.7	73.8986	1366.7	72.8117	1366.7	75.6374	1366.7	77.3295	1366.7	79.0779	1366.7	79.8623
1413.57	90.2021	1413.57	89.8747	1413.57	89.5623	1413.57	88.8012	1413.57	88.0019	1413.57	87.388	1413.57	85.7152	1413.57	85.7574	1413.57	82.9401	1413.57	83.808	1413.57	79.8586	1413.57	81.7646	1413.57	77.0582	1413.57	80.053	1413.57	76.5339	1413.57	78.9067	1413.57	78.2051	1413.57	77.614	1413.57	78.6365	1413.57	74.6383	1413.57	76.4273	1413.57	67.9193	1413.57	73.5415	1413.57	67.9937	1413.57	71.4639	1413.57	73.4761	1413.57	73.073	1413.57	75.4735	1413.57	74.6946	1413.57	76.0632	1413.57	73.8667	1413.57	75.5657	1413.57	75.1296	1413.57	76.6187	1413.57	77.7787	1413.57	78.4145
1463.38	89.2918	1463.38	89.4385	1463.38	88.3875	1463.38	88.7937	1463.38	86.7664	1463.38	87.5144	1463.38	84.1793	1463.38	85.8118	1463.38	80.5385	1463.38	83.8454	1463.38	76.9957	1463.38	81.9624	1463.38	75.6256	1463.38	80.4148	1463.38	76.1818	1463.38	78.6472	1463.38	77.211	1463.38	77.2592	1463.38	77.9278	1463.38	77.8552	1463.38	77.3101	1463.38	77.0765	1463.38	75.1021	1463.38	72.5497	1463.38	71.4759	1463.38	72.2439	1463.38	72.1262	1463.38	75.758	1463.38	74.3239	1463.38	75.9073	1463.38	72.7714	1463.38	74.4078	1463.38	74.3139	1463.38	75.8402	1463.38	77.123	1463.38	77.602
1516.11	88.9448	1516.11	89.5091	1516.11	87.7376	1516.11	89.251	1516.11	85.8511	1516.11	88.0981	1516.11	82.8201	1516.11	86.2678	1516.11	78.428	1516.11	84.1278	1516.11	75.1116	1516.11	81.8639	1516.11	75.8605	1516.11	79.8739	1516.11	77.518	1516.11	77.6937	1516.11	77.7886	1516.11	74.7623	1516.11	78.4705	1516.11	76.1836	1516.11	79.2113	1516.11	77.4033	1516.11	78.0343	1516.11	75.2649	1516.11	75.1487	1516.11	73.3318	1516.11	71.0714	1516.11	75.9901	1516.11	72.2086	1516.11	76.6915	1516.11	70.4988	1516.11	75.0108	1516.11	70.763	1516.11	75.2803	1516.11	75.3105	1516.11	76.5453
1568.85	89.5816	1568.85	89.8013	1568.85	88.3506	1568.85	89.3025	1568.85	85.7417	1568.85	88.2366	1568.85	81.7682	1568.85	86.4182	1568.85	78.0509	1568.85	83.9293	1568.85	76.4039	1568.85	81.4976	1568.85	77.5024	1568.85	79.5858	1568.85	78.9831	1568.85	78.3045	1568.85	78.8829	1568.85	74.508	1568.85	78.7549	1568.85	70.6389	1568.85	78.3276	1568.85	76.0291	1568.85	76.5755	1568.85	75.2027	1568.85	74.9737	1568.85	73.0736	1568.85	71.6514	1568.85	74.9631	1568.85	70.1821	1568.85	76.4069	1568.85	69.1011	1568.85	76.573	1568.85	71.9727	1568.85	77.1258	1568.85	77.0111	1568.85	78.1898
1624.51	89.8732	1624.51	90.3127	1624.51	88.2108	1624.51	89.7842	1624.51	85.3971	1624.51	88.7891	1624.51	81.4303	1624.51	87.0838	1624.51	76.6275	1624.51	84.2835	1624.51	74.7831	1624.51	81.5149	1624.51	78.3034	1624.51	79.3837	1624.51	80.6276	1624.51	77.9467	1624.51	80.5216	1624.51	77.1669	1624.51	79.5387	1624.51	70.3483	1624.51	78.3906	1624.51	65.6985	1624.51	77.3771	1624.51	73.4394	1624.51	74.9722	1624.51	75.0863	1624.51	72.316	1624.51	75.8931	1624.51	72.3769	1624.51	76.5165	1624.51	70.591	1624.51	76.2311	1624.51	72.3343	1624.51	76.9041	1624.51	77.5611	1624.51	78.4263
1681.64	89.8139	1681.64	90.6503	1681.64	88.0804	1681.64	90.5156	1681.64	85.0365	1681.64	89.2711	1681.64	79.8116	1681.64	86.961	1681.64	73.4277	1681.64	83.8628	1681.64	76.1814	1681.64	81.4023	1681.64	78.9163	1681.64	80.5937	1681.64	80.5947	1681.64	78.5544	1681.64	80.497	1681.64	74.6234	1681.64	80.4712	1681.64	71.1591	1681.64	80.5518	1681.64	57.9004	1681.64	79.0473	1681.64	66.8249	1681.64	76.6068	1681.64	73.3829	1681.64	73.2318	1681.64	74.5901	1681.64	70.757	1681.64	74.4169	1681.64	68.4827	1681.64	74.4716	1681.64	69.9761	1681.64	75.9421	1681.64	75.7686	1681.64	77.5244
1741.7	89.3399	1741.7	90.4117	1741.7	87.543	1741.7	90.4682	1741.7	84.3833	1741.7	89.1168	1741.7	77.7536	1741.7	87.0181	1741.7	72.7723	1741.7	85.2558	1741.7	78.0766	1741.7	83.2333	1741.7	78.8076	1741.7	79.6016	1741.7	79.8973	1741.7	73.626	1741.7	80.6587	1741.7	71.3004	1741.7	80.6488	1741.7	71.2989	1741.7	80.779	1741.7	70.6015	1741.7	78.5099	1741.7	63.0751	1741.7	75.4153	1741.7	64.9843	1741.7	72.9527	1741.7	70.2636	1741.7	72.7561	1741.7	68.4241	1741.7	68.659	1741.7	70.642	1741.7	70.2337	1741.7	75.0732	1741.7	75.1352	1741.7	77.0202
1803.22	89.5098	1803.22	90.4107	1803.22	87.4023	1803.22	90.4342	1803.22	82.8019	1803.22	89.0769	1803.22	72.8481	1803.22	87.259	1803.22	75.8272	1803.22	86.1206	1803.22	80.3441	1803.22	83.699	1803.22	80.6347	1803.22	79.5789	1803.22	80.6886	1803.22	75.1748	1803.22	81.825	1803.22	72.252	1803.22	81.388	1803.22	73.5039	1803.22	80.3897	1803.22	73.8247	1803.22	77.6266	1803.22	70.773	1803.22	76.0925	1803.22	43.5525	1803.22	74.3248	1803.22	70.2463	1803.22	75.7031	1803.22	72.3566	1803.22	72.1436	1803.22	71.1233	1803.22	71.4356	1803.22	74.3859	1803.22	75.2003	1803.22	76.7789
1866.21	90.4215	1866.21	90.9287	1866.21	87.9904	1866.21	90.4288	1866.21	82.2678	1866.21	89.2201	1866.21	71.4156	1866.21	87.8324	1866.21	78.9115	1866.21	86.3021	1866.21	82.1645	1866.21	82.9546	1866.21	81.6292	1866.21	77.2109	1866.21	81.8999	1866.21	76.5056	1866.21	83.3657	1866.21	78.3338	1866.21	83.0642	1866.21	76.897	1866.21	81.4813	1866.21	76.9601	1866.21	78.9209	1866.21	75.6461	1866.21	78.1994	1866.21	67.042	1866.21	75.9296	1866.21	66.1642	1866.21	76.1504	1866.21	71.8211	1866.21	75.0932	1866.21	72.7554	1866.21	72.7292	1866.21	75.3046	1866.21	76.722	1866.21	77.6861
1932.13	90.4729	1932.13	91.231	1932.13	87.4926	1932.13	90.1818	1932.13	81.4118	1932.13	88.3635	1932.13	67.5882	1932.13	87.083	1932.13	80.6822	1932.13	85.7274	1932.13	83.9346	1932.13	83.5694	1932.13	83.1593	1932.13	81.6746	1932.13	82.248	1932.13	79.2072	1932.13	83.2423	1932.13	74.6642	1932.13	83.0366	1932.13	73.3471	1932.13	81.6458	1932.13	75.1709	1932.13	79.201	1932.13	75.6701	1932.13	78.6567	1932.13	69.3885	1932.13	77.0144	1932.13	65.078	1932.13	75.7027	1932.13	72.5487	1932.13	73.3881	1932.13	72.9793	1932.13	70.344	1932.13	75.1472	1932.13	76.3444	1932.13	78.0043
1999.51	89.8458	1999.51	90.8392	1999.51	86.6382	1999.51	89.8208	1999.51	79.6611	1999.51	88.4595	1999.51	69.7676	1999.51	87.8677	1999.51	82.1043	1999.51	86.2388	1999.51	84.4085	1999.51	83.4201	1999.51	84.2235	1999.51	81.0913	1999.51	83.4984	1999.51	79.4523	1999.51	83.8469	1999.51	74.1875	1999.51	82.5177	1999.51	55.5176	1999.51	81.6384	1999.51	70.4249	1999.51	80.4087	1999.51	70.1905	1999.51	77.8783	1999.51	66.9161	1999.51	76.4487	1999.51	66.1272	1999.51	75.9523	1999.51	73.0445	1999.51	75.4674	1999.51	71.8182	1999.51	73.941	1999.51	74.9274	1999.51	77.8391	1999.51	79.162
2069.82	90.1537	2069.82	90.527	2069.82	86.7942	2069.82	90.1249	2069.82	77.0094	2069.82	89.9244	2069.82	74.6143	2069.82	87.8413	2069.82	82.9003	2069.82	83.8176	2069.82	85.4183	2069.82	79.1051	2069.82	85.6635	2069.82	76.0184	2069.82	84.114	2069.82	75.5608	2069.82	83.4508	2069.82	66.4625	2069.82	82.8686	2069.82	75.9984	2069.82	82.2218	2069.82	77.9453	2069.82	82.5436	2069.82	72.4425	2069.82	78.5863	2069.82	63.7548	2069.82	74.0464	2069.82	68.2744	2069.82	70.4439	2069.82	70.4902	2069.82	71.8752	2069.82	68.2827	2069.82	74.0542	2069.82	69.8778	2069.82	78.6302	2069.82	77.7623
2143.07	90.7732	2143.07	90.9516	2143.07	87.219	2143.07	90.5124	2143.07	74.2401	2143.07	90.2039	2143.07	77.1712	2143.07	87.4161	2143.07	83.8203	2143.07	82.3908	2143.07	86.3752	2143.07	80.0322	2143.07	87.0075	2143.07	74.6075	2143.07	85.0579	2143.07	69.5931	2143.07	82.3102	2143.07	73.6753	2143.07	82.6999	2143.07	69.4642	2143.07	81.4143	2143.07	77.9653	2143.07	82.1741	2143.07	73.1665	2143.07	81.2403	2143.07	64.0212	2143.07	76.3649	2143.07	68.82	2143.07	72.8863	2143.07	69.2176	2143.07	67.4957	2143.07	72.6635	2143.07	73.0152	2143.07	62.8905	2143.07	79.3553	2143.07	77.5453
2219.24	89.7249	2219.24	91.0175	2219.24	87.6119	2219.24	91.1954	2219.24	75.6739	2219.24	88.4785	2219.24	79.8795	2219.24	87.3045	2219.24	84.9179	2219.24	85.3418	2219.24	86.9902	2219.24	77.6582	2219.24	86.5876	2219.24	71.7262	2219.24	85.0302	2219.24	68.8571	2219.24	84.2132	2219.24	61.5219	2219.24	83.3725	2219.24	65.8418	2219.24	80.557	2219.24	64.2023	2219.24	81.5248	2219.24	72.3206	2219.24	80.4215	2219.24	71.8936	2219.24	76.2899	2219.24	56.8775	2219.24	77.7705	2219.24	70.4575	2219.24	74.5239	2219.24	74.0551	2219.24	71.7857	2219.24	64.4657	2219.24	79.4232	2219.24	74.9757
2296.88	89.3357	2296.88	90.6605	2296.88	86.9953	2296.88	89.9215	2296.88	74.8893	2296.88	88.6128	2296.88	82.0993	2296.88	87.6404	2296.88	86.4826	2296.88	82.6867	2296.88	87.855	2296.88	71.8829	2296.88	86.9114	2296.88	66.9132	2296.88	85.7006	2296.88	69.6213	2296.88	85.4276	2296.88	77.4062	2296.88	85.2477	2296.88	76.1219	2296.88	82.5763	2296.88	68.3227	2296.88	79.0556	2296.88	73.6269	2296.88	79.861	2296.88	74.9805	2296.88	78.3208	2296.88	66.2536	2296.88	77.8008	2296.88	67.0666	2296.88	68.6814	2296.88	68.836	2296.88	73.107	2296.88	68.9288	2296.88	75.8037	2296.88	71.2727
2378.91	90.0012	2378.91	90.9733	2378.91	87.5273	2378.91	90.1971	2378.91	78.6865	2378.91	89.4621	2378.91	82.0109	2378.91	85.2914	2378.91	87.2118	2378.91	75.6645	2378.91	88.5916	2378.91	65.5107	2378.91	88.4432	2378.91	74.1687	2378.91	86.5019	2378.91	79.2781	2378.91	85.2358	2378.91	75.5647	2378.91	85.6114	2378.91	76.8124	2378.91	82.7263	2378.91	77.2492	2378.91	79.4248	2378.91	68.3056	2378.91	77.3702	2378.91	76.9962	2378.91	79.4591	2378.91	71.3252	2378.91	77.8783	2378.91	66.3917	2378.91	72.0151	2378.91	68.0333	2378.91	68.6875	2378.91	66.9745	2378.91	75.3039	2378.91	73.3897
2462.4	89.7925	2462.4	90.961	2462.4	86.9803	2462.4	90.766	2462.4	80.2344	2462.4	88.6404	2462.4	80.4037	2462.4	82.1427	2462.4	87.8418	2462.4	66.7191	2462.4	89.3011	2462.4	68.11	2462.4	89.4033	2462.4	75.5336	2462.4	86.7181	2462.4	74.184	2462.4	83.4139	2462.4	79.0674	2462.4	81.8576	2462.4	77.2952	2462.4	80.3003	2462.4	76.8483	2462.4	79.9478	2462.4	76.0727	2462.4	80.4699	2462.4	74.6356	2462.4	79.1488	2462.4	75.3698	2462.4	78.2964	2462.4	69.1979	2462.4	73.7234	2462.4	65.3268	2462.4	67.4444	2462.4	65.7897	2462.4	75.4355	2462.4	71.1467
2548.83	89.2983	2548.83	90.7698	2548.83	85.4543	2548.83	90.6566	2548.83	78.8622	2548.83	86.6069	2548.83	82.2525	2548.83	77.598	2548.83	87.9797	2548.83	76.8298	2548.83	89.5564	2548.83	76.1519	2548.83	89.2927	2548.83	76.7285	2548.83	87.3771	2548.83	77.4036	2548.83	84.1818	2548.83	70.8157	2548.83	82.2746	2548.83	76.3107	2548.83	82.9247	2548.83	77.4131	2548.83	78.987	2548.83	76.8843	2548.83	81.2013	2548.83	75.4223	2548.83	80.433	2548.83	76.1811	2548.83	75.9601	2548.83	71.5102	2548.83	74.7652	2548.83	62.5732	2548.83	69.3572	2548.83	66.3512	2548.83	75.0936	2548.83	71.8027
2639.65	89.7938	2639.65	91.1123	2639.65	86.5776	2639.65	89.9987	2639.65	78.5482	2639.65	84.934	2639.65	83.8664	2639.65	79.9959	2639.65	88.6096	2639.65	70.7539	2639.65	90.0585	2639.65	75.0097	2639.65	89.6412	2639.65	78.0814	2639.65	87.2138	2639.65	78.6078	2639.65	82.7901	2639.65	82.1858	2639.65	80.1103	2639.65	81.3531	2639.65	80.2329	2639.65	73.9691	2639.65	82.4446	2639.65	78.0836	2639.65	79.02	2639.65	75.6717	2639.65	80.207	2639.65	75.0299	2639.65	76.5255	2639.65	73.9891	2639.65	75.2394	2639.65	62.8044	2639.65	63.3033	2639.65	63.7771	2639.65	78.063	2639.65	72.4701
2731.93	89.8811	2731.93	91.5619	2731.93	85.8321	2731.93	88.9494	2731.93	80.0827	2731.93	84.77	2731.93	84.6337	2731.93	79.1217	2731.93	88.919	2731.93	74.9218	2731.93	89.8062	2731.93	79.9265	2731.93	89.1074	2731.93	79.9256	2731.93	86.6641	2731.93	79.8015	2731.93	82.8062	2731.93	75.6193	2731.93	79.4978	2731.93	74.3761	2731.93	78.4236	2731.93	78.653	2731.93	80.4625	2731.93	75.9258	2731.93	80.3219	2731.93	78.4384	2731.93	79.0922	2731.93	75.514	2731.93	77.2668	2731.93	73.8184	2731.93	76.672	2731.93	66.3663	2731.93	67.6647	2731.93	64.436	2731.93	75.5094	2731.93	67.7174
2828.61	89.9225	2828.61	90.9572	2828.61	86.1382	2828.61	88.9828	2828.61	79.8208	2828.61	85.5056	2828.61	85.5901	2828.61	77.7832	2828.61	89.2495	2828.61	81.903	2828.61	89.4294	2828.61	80.1534	2828.61	88.4266	2828.61	79.5075	2828.61	86.3286	2828.61	81.0022	2828.61	83.2758	2828.61	79.9487	2828.61	81.1439	2828.61	81.1314	2828.61	82.7496	2828.61	76.2901	2828.61	82.3501	2828.61	75.6977	2828.61	78.7224	2828.61	77.3759	2828.61	77.3576	2828.61	77.3728	2828.61	76.9918	2828.61	74.1251	2828.61	76.0357	2828.61	70.3833	2828.61	69.2544	2828.61	68.7956	2828.61	78.0448	2828.61	70.3008
2928.22	89.9486	2928.22	90.177	2928.22	85.8493	2928.22	88.5481	2928.22	82.0337	2928.22	84.6658	2928.22	85.1385	2928.22	82.1794	2928.22	89.7742	2928.22	80.9794	2928.22	90.1351	2928.22	80.3495	2928.22	88.4357	2928.22	80.9419	2928.22	85.1694	2928.22	76.1681	2928.22	79.4814	2928.22	80.1189	2928.22	78.5768	2928.22	78.6662	2928.22	81.6596	2928.22	79.2531	2928.22	83.3176	2928.22	76.4561	2928.22	75.8859	2928.22	75.4394	2928.22	79.9521	2928.22	76.2234	2928.22	75.9025	2928.22	74.3878	2928.22	76.2714	2928.22	69.2487	2928.22	73.0504	2928.22	63.459	2928.22	72.5599	2928.22	66.5919
3030.76	90.2391	3030.76	90.676	3030.76	86.1236	3030.76	88.2697	3030.76	83.7135	3030.76	83.7321	3030.76	85.1874	3030.76	82.4242	3030.76	89.5465	3030.76	82.1814	3030.76	89.7977	3030.76	83.0949	3030.76	88.0755	3030.76	80.6454	3030.76	84.3576	3030.76	82.1589	3030.76	81.7737	3030.76	79.0836	3030.76	80.7317	3030.76	77.4514	3030.76	82.3709	3030.76	78.9438	3030.76	81.3595	3030.76	77.4656	3030.76	76.93	3030.76	76.8812	3030.76	78.2383	3030.76	76.5964	3030.76	78.7831	3030.76	74.1566	3030.76	75.9917	3030.76	71.305	3030.76	71.9383	3030.76	64.5081	3030.76	75.4102	3030.76	69.8225
3137.7	89.7698	3137.7	89.9668	3137.7	86.1771	3137.7	88.6485	3137.7	83.7624	3137.7	84.6591	3137.7	85.3706	3137.7	81.9825	3137.7	88.7568	3137.7	82.3877	3137.7	89.2884	3137.7	82.0954	3137.7	87.9255	3137.7	83.1409	3137.7	85.2888	3137.7	81.709	3137.7	84.0678	3137.7	81.761	3137.7	83.459	3137.7	81.6647	3137.7	77.9467	3137.7	78.5009	3137.7	75.4005	3137.7	78.4668	3137.7	77.3798	3137.7	78.8758	3137.7	77.1841	3137.7	78.3599	3137.7	76.7251	3137.7	77.0022	3137.7	75.8212	3137.7	72.7971	3137.7	72.1389	3137.7	64.3617	3137.7	75.9748	3137.7	67.9745
3249.02	89.9362	3249.02	90.5835	3249.02	86.9051	3249.02	88.1313	3249.02	84.4387	3249.02	85.4919	3249.02	86.3935	3249.02	84.4338	3249.02	87.941	3249.02	82.4957	3249.02	89.3782	3249.02	82.2905	3249.02	87.7787	3249.02	80.4839	3249.02	85.3128	3249.02	82.0839	3249.02	83.3724	3249.02	83.2645	3249.02	82.6903	3249.02	80.3198	3249.02	77.5869	3249.02	79.4156	3249.02	73.1574	3249.02	77.0547	3249.02	78.6218	3249.02	77.5454	3249.02	77.492	3249.02	78.0326	3249.02	75.9899	3249.02	78.0502	3249.02	76.5516	3249.02	75.1851	3249.02	72.48	3249.02	68.5065	3249.02	75.8836	3249.02	66.6421
3363.28	89.3275	3363.28	90.6654	3363.28	86.5043	3363.28	88.4033	3363.28	84.0659	3363.28	86.5254	3363.28	86.6527	3363.28	83.0923	3363.28	87.8524	3363.28	83.2632	3363.28	88.6518	3363.28	83.9883	3363.28	87.1129	3363.28	84.041	3363.28	84.1724	3363.28	82.5705	3363.28	81.3198	3363.28	80.1817	3363.28	78.5361	3363.28	78.2905	3363.28	77.3226	3363.28	81.2354	3363.28	73.2214	3363.28	78.2793	3363.28	75.8242	3363.28	77.6549	3363.28	76.8573	3363.28	78.0041	3363.28	75.4209	3363.28	77.2665	3363.28	76.1292	3363.28	75.1311	3363.28	75.0639	3363.28	66.4282	3363.28	73.5354	3363.28	62.4605
3481.93	90.1302	3481.93	90.0306	3481.93	86.7874	3481.93	88.8544	3481.93	85.6438	3481.93	87.0525	3481.93	87.0764	3481.93	83.6821	3481.93	87.4727	3481.93	83.9962	3481.93	87.5753	3481.93	84.9064	3481.93	86.2841	3481.93	84.3517	3481.93	83.5865	3481.93	82.374	3481.93	78.202	3481.93	80.8726	3481.93	69.9392	3481.93	81.6275	3481.93	74.4449	3481.93	78.9962	3481.93	73.2736	3481.93	78.8338	3481.93	75.8165	3481.93	77.6712	3481.93	77.6938	3481.93	77.935	3481.93	72.7526	3481.93	76.8468	3481.93	75.4052	3481.93	73.4866	3481.93	75.7928	3481.93	68.9552	3481.93	71.2058	3481.93	63.0628
3604.98	89.1531	3604.98	90.0729	3604.98	86.5946	3604.98	89.3337	3604.98	85.5728	3604.98	86.4545	3604.98	87.4339	3604.98	84.3324	3604.98	86.9025	3604.98	85.5187	3604.98	87.6582	3604.98	85.621	3604.98	85.7365	3604.98	84.1341	3604.98	83.0029	3604.98	83.4951	3604.98	79.3838	3604.98	82.9004	3604.98	70.8657	3604.98	80.4443	3604.98	61.2337	3604.98	78.5375	3604.98	73.007	3604.98	77.9465	3604.98	76.442	3604.98	77.408	3604.98	75.8236	3604.98	77.5662	3604.98	71.7973	3604.98	77.6199	3604.98	73.8231	3604.98	74.0756	3604.98	75.8633	3604.98	68.4372	3604.98	73.0582	3604.98	69.7213
3732.42	90.0594	3732.42	90.4053	3732.42	87.5002	3732.42	89.5768	3732.42	85.7919	3732.42	86.4571	3732.42	87.429	3732.42	85.3294	3732.42	86.9976	3732.42	87.0131	3732.42	86.8081	3732.42	85.4442	3732.42	86.372	3732.42	84.7597	3732.42	83.9601	3732.42	82.2103	3732.42	82.825	3732.42	82.2677	3732.42	77.6322	3732.42	79.7363	3732.42	74.2585	3732.42	78.6222	3732.42	72.8996	3732.42	78.9716	3732.42	76.7348	3732.42	77.266	3732.42	76.6295	3732.42	77.6467	3732.42	71.6138	3732.42	77.7696	3732.42	71.2828	3732.42	73.4241	3732.42	75.2242	3732.42	70.3583	3732.42	72.6409	3732.42	66.6175
3864.26	89.3879	3864.26	90.4615	3864.26	86.6398	3864.26	89.9526	3864.26	87.1445	3864.26	85.3141	3864.26	86.0021	3864.26	87.2799	3864.26	87.8127	3864.26	87.0305	3864.26	86.5222	3864.26	85.9861	3864.26	86.1278	3864.26	84.1703	3864.26	85.6914	3864.26	82.5761	3864.26	84.7814	3864.26	81.3764	3864.26	77.122	3864.26	79.1059	3864.26	79.7615	3864.26	77.9991	3864.26	79.2478	3864.26	76.4083	3864.26	76.1076	3864.26	75.9111	3864.26	75.3423	3864.26	78.3477	3864.26	70.9938	3864.26	77.0912	3864.26	68.1492	3864.26	74.2852	3864.26	77.8685	3864.26	71.7944	3864.26	68.5062	3864.26	60.6348
4000.49	89.862	4000.49	90.836	4000.49	86.9316	4000.49	89.4973	4000.49	88.0218	4000.49	86.5697	4000.49	86.345	4000.49	87.5955	4000.49	85.3763	4000.49	87.3918	4000.49	87.9808	4000.49	85.506	4000.49	87.638	4000.49	85.1232	4000.49	87.3526	4000.49	82.3659	4000.49	84.4646	4000.49	81.1555	4000.49	71.0061	4000.49	80.6897	4000.49	80.1879	4000.49	79.3709	4000.49	80.2664	4000.49	77.2997	4000.49	75.2348	4000.49	76.3497	4000.49	75.1129	4000.49	77.1753	4000.49	67.1099	4000.49	77.1873	4000.49	66.8785	4000.49	74.9464	4000.49	77.5049	4000.49	67.1648	4000.49	70.0651	4000.49	44.5626
4141.11	89.1847	4141.11	91.4024	4141.11	87.3651	4141.11	89.1232	4141.11	87.6344	4141.11	86.8515	4141.11	88.6385	4141.11	87.9678	4141.11	83.5049	4141.11	87.1917	4141.11	86.6883	4141.11	86.3572	4141.11	88.449	4141.11	84.9071	4141.11	87.2936	4141.11	83.4946	4141.11	82.4315	4141.11	78.6984	4141.11	78.6041	4141.11	78.8171	4141.11	81.3757	4141.11	77.2805	4141.11	78.5345	4141.11	76.987	4141.11	76.8347	4141.11	73.8912	4141.11	76.0088	4141.11	75.7106	4141.11	72.5774	4141.11	76.469	4141.11	66.9602	4141.11	74.0323	4141.11	76.7863	4141.11	66.7487	4141.11	69.618	4141.11	62.419
4287.6	89.405	4287.6	91.3199	4287.6	87.3941	4287.6	87.7694	4287.6	88.1581	4287.6	88.2276	4287.6	88.6015	4287.6	87.7503	4287.6	85.2296	4287.6	87.8016	4287.6	84.4228	4287.6	86.9845	4287.6	87.7686	4287.6	83.6041	4287.6	87.086	4287.6	81.0903	4287.6	83.1234	4287.6	80.0401	4287.6	80.4337	4287.6	79.8827	4287.6	81.6973	4287.6	74.9472	4287.6	71.7428	4287.6	76.1308	4287.6	71.6819	4287.6	73.8633	4287.6	77.1806	4287.6	74.8718	4287.6	69.1778	4287.6	75.1636	4287.6	65.5085	4287.6	73.1841	4287.6	74.6112	4287.6	69.6051	4287.6	70.1991	4287.6	56.186
4438.48	90.011	4438.48	90.7045	4438.48	86.6777	4438.48	88.4651	4438.48	88.5937	4438.48	88.0182	4438.48	89.0799	4438.48	87.8176	4438.48	85.4209	4438.48	87.4869	4438.48	84.2598	4438.48	84.2816	4438.48	87.3408	4438.48	81.5349	4438.48	86.4046	4438.48	79.705	4438.48	84.548	4438.48	73.9226	4438.48	79.3373	4438.48	75.6311	4438.48	77.4403	4438.48	75.1284	4438.48	70.6203	4438.48	75.9188	4438.48	73.6213	4438.48	71.8243	4438.48	74.8156	4438.48	74.8065	4438.48	58.7073	4438.48	74.8472	4438.48	49.367	4438.48	73.5027	4438.48	74.4982	4438.48	68.0876	4438.48	68.6096	4438.48	61.4747
4595.21	90.2422	4595.21	90.468	4595.21	87.0933	4595.21	88.7069	4595.21	88.5506	4595.21	88.2794	4595.21	89.529	4595.21	88.4426	4595.21	86.2534	4595.21	86.3232	4595.21	83.3043	4595.21	83.4969	4595.21	87.4234	4595.21	79.8298	4595.21	85.2983	4595.21	79.2973	4595.21	82.4211	4595.21	80.4189	4595.21	73.0522	4595.21	77.4677	4595.21	73.1048	4595.21	75.3972	4595.21	77.6114	4595.21	74.5876	4595.21	75.9378	4595.21	74.0925	4595.21	71.7454	4595.21	75.245	4595.21	67.6241	4595.21	75.3946	4595.21	57.4807	4595.21	74.8872	4595.21	75.8349	4595.21	70.1822	4595.21	67.8346	4595.21	66.3282
4756.35	90.275	4756.35	90.2139	4756.35	87.2593	4756.35	89.5023	4756.35	88.7464	4756.35	88.2154	4756.35	88.9378	4756.35	88.9061	4756.35	85.9538	4756.35	85.1548	4756.35	83.2042	4756.35	82.2747	4756.35	86.4658	4756.35	82.4271	4756.35	83.1993	4756.35	80.5422	4756.35	78.7387	4756.35	78.2834	4756.35	74.3914	4756.35	78.5749	4756.35	73.461	4756.35	75.3614	4756.35	77.3793	4756.35	74.1873	4756.35	75.3465	4756.35	73.7691	4756.35	71.3072	4756.35	75.0807	4756.35	69.3756	4756.35	76.4276	4756.35	54.9544	4756.35	75.3689	4756.35	75.5305	4756.35	69.1343	4756.35	62.7963	4756.35	62.8094
4924.8	90.1364	4924.8	90.3344	4924.8	86.2517	4924.8	89.4441	4924.8	89.3593	4924.8	88.6892	4924.8	89.1614	4924.8	88.0455	4924.8	86.1502	4924.8	84.6587	4924.8	80.3942	4924.8	83.2685	4924.8	85.5749	4924.8	82.5743	4924.8	83.7845	4924.8	80.7868	4924.8	81.4429	4924.8	79.9604	4924.8	79.4109	4924.8	76.4629	4924.8	73.2037	4924.8	76.9604	4924.8	74.7721	4924.8	74.6696	4924.8	75.6017	4924.8	73.0265	4924.8	73.9201	4924.8	74.6346	4924.8	71.2489	4924.8	76.7061	4924.8	61.1422	4924.8	76.4184	4924.8	75.1552	4924.8	69.1835	4924.8	66.0546	4924.8	62.5514
5097.66	90.2164	5097.66	90.5346	5097.66	87.1569	5097.66	89.1659	5097.66	88.9877	5097.66	89.0496	5097.66	90.006	5097.66	87.0596	5097.66	86.1667	5097.66	85.3293	5097.66	80.6588	5097.66	84.2221	5097.66	85.466	5097.66	83.3423	5097.66	84.8532	5097.66	80.0803	5097.66	84.9837	5097.66	77.5283	5097.66	78.7282	5097.66	76.2843	5097.66	78.1316	5097.66	73.6088	5097.66	77.2134	5097.66	72.6804	5097.66	76.4436	5097.66	71.6319	5097.66	73.8677	5097.66	72.3996	5097.66	71.5819	5097.66	75.9159	5097.66	47.8457	5097.66	74.4963	5097.66	74.3125	5097.66	70.6617	5097.66	64.217	5097.66	69.4513
5277.83	89.9082	5277.83	90.676	5277.83	87.2767	5277.83	88.7378	5277.83	88.95	5277.83	89	5277.83	89.494	5277.83	86.6721	5277.83	87.4772	5277.83	85.6848	5277.83	80.6906	5277.83	84.469	5277.83	86.4182	5277.83	81.61	5277.83	86.9411	5277.83	77.3575	5277.83	85.5704	5277.83	77.1283	5277.83	76.1593	5277.83	74.0957	5277.83	74.6467	5277.83	73.7247	5277.83	76.4413	5277.83	72.1945	5277.83	74.6143	5277.83	70.6886	5277.83	70.446	5277.83	69.2145	5277.83	69.5708	5277.83	73.9601	5277.83	48.6901	5277.83	74.4959	5277.83	72.8729	5277.83	67.8003	5277.83	66.1048	5277.83	65.6676
5463.87	90.3175	5463.87	90.7489	5463.87	87.7754	5463.87	89.1768	5463.87	88.552	5463.87	88.3819	5463.87	89.6049	5463.87	86.8686	5463.87	87.616	5463.87	85.6436	5463.87	81.5109	5463.87	82.436	5463.87	84.9193	5463.87	79.1417	5463.87	86.6693	5463.87	77.4517	5463.87	83.5145	5463.87	75.0934	5463.87	73.976	5463.87	74.1148	5463.87	67.1486	5463.87	74.0634	5463.87	74.467	5463.87	70.4819	5463.87	72.1396	5463.87	72.5214	5463.87	73.2685	5463.87	69.0961	5463.87	70.1258	5463.87	73.9885	5463.87	49.1585	5463.87	73.4526	5463.87	70.1611	5463.87	72.7014	5463.87	66.4696	5463.87	66.5125
5657.23	90.2588	5657.23	90.9863	5657.23	87.3474	5657.23	89.1069	5657.23	89.1306	5657.23	88.1996	5657.23	89.3111	5657.23	87.3678	5657.23	87.0836	5657.23	85.0443	5657.23	81.7605	5657.23	82.1327	5657.23	83.5791	5657.23	78.3494	5657.23	86.2548	5657.23	78.0182	5657.23	82.6771	5657.23	76.1947	5657.23	76.2025	5657.23	75.2589	5657.23	73.048	5657.23	73.7999	5657.23	73.4667	5657.23	72.059	5657.23	69.7843	5657.23	72.1144	5657.23	73.9295	5657.23	69.6664	5657.23	70.7371	5657.23	73.6258	5657.23	60.2786	5657.23	74.0691	5657.23	72.155	5657.23	72.8957	5657.23	65.3966	5657.23	66.7564
5856.45	90.6291	5856.45	91.0014	5856.45	87.5909	5856.45	88.8394	5856.45	89.2597	5856.45	88.4634	5856.45	89.5708	5856.45	87.7739	5856.45	87.2755	5856.45	84.5736	5856.45	83.0583	5856.45	82.3027	5856.45	84.6196	5856.45	80.9365	5856.45	86.1089	5856.45	78.6241	5856.45	82.9419	5856.45	76.2473	5856.45	77.6509	5856.45	75.4454	5856.45	76.9564	5856.45	74.1908	5856.45	73.356	5856.45	71.0916	5856.45	64.1985	5856.45	72.4401	5856.45	73.2271	5856.45	69.1093	5856.45	65.744	5856.45	74.6672	5856.45	64.9089	5856.45	73.9181	5856.45	72.3896	5856.45	72.3331	5856.45	64.4088	5856.45	69.1707
6062.99	91.1066	6062.99	91.0747	6062.99	87.215	6062.99	88.5499	6062.99	89.2891	6062.99	89.1857	6062.99	89.3907	6062.99	87.9172	6062.99	87.7704	6062.99	84.2276	6062.99	83.0922	6062.99	82.891	6062.99	83.0528	6062.99	80.3621	6062.99	83.8308	6062.99	78.8635	6062.99	80.2684	6062.99	75.5227	6062.99	74.814	6062.99	75.5892	6062.99	72.6605	6062.99	73.7934	6062.99	72.1785	6062.99	72.0514	6062.99	64.9865	6062.99	71.2074	6062.99	74.9241	6062.99	70.5901	6062.99	69.3069	6062.99	73.1125	6062.99	64.6263	6062.99	73.0637	6062.99	71.0494	6062.99	73.4471	6062.99	65.4733	6062.99	69.3314
6276.86	91.579	6276.86	90.9897	6276.86	87.3664	6276.86	88.5508	6276.86	89.2769	6276.86	89.5544	6276.86	89.1212	6276.86	87.2286	6276.86	87.6683	6276.86	84.6329	6276.86	83.7128	6276.86	82.5146	6276.86	82.8549	6276.86	80.8402	6276.86	83.4889	6276.86	76.9206	6276.86	77.7908	6276.86	76.8274	6276.86	74.6619	6276.86	75.7057	6276.86	73.8712	6276.86	72.922	6276.86	71.7102	6276.86	71.2921	6276.86	54.3752	6276.86	71.3773	6276.86	72.8766	6276.86	70.7097	6276.86	67.0866	6276.86	73.232	6276.86	63.8948	6276.86	73.8319	6276.86	70.7688	6276.86	72.5814	6276.86	60.4215	6276.86	69.8449
6498.05	92.2461	6498.05	90.4954	6498.05	87.7954	6498.05	88.8182	6498.05	89.4605	6498.05	90.2281	6498.05	89.4828	6498.05	86.9306	6498.05	87.2591	6498.05	84.806	6498.05	84.9562	6498.05	82.8614	6498.05	83.71	6498.05	81.684	6498.05	83.8134	6498.05	79.7536	6498.05	79.0663	6498.05	77.1215	6498.05	72.5893	6498.05	76.1045	6498.05	76.0653	6498.05	74.8126	6498.05	73.0333	6498.05	72.4264	6498.05	64.1806	6498.05	71.4901	6498.05	68.7789	6498.05	70.7132	6498.05	65.7225	6498.05	72.9812	6498.05	57.636	6498.05	74.3622	6498.05	69.8071	6498.05	73.5125	6498.05	62.3958	6498.05	70.3366
6726.56	92.307	6726.56	89.4655	6726.56	89.3346	6726.56	90.0421	6726.56	88.4381	6726.56	90.1139	6726.56	90.839	6726.56	86.6297	6726.56	87.4933	6726.56	84.9607	6726.56	84.8078	6726.56	84.2506	6726.56	83.1999	6726.56	82.0061	6726.56	83.3515	6726.56	79.5106	6726.56	82.8207	6726.56	76.5557	6726.56	75.2229	6726.56	76.2461	6726.56	73.7018	6726.56	74.2176	6726.56	72.3619	6726.56	72.0164	6726.56	64.5358	6726.56	71.361	6726.56	66.9028	6726.56	70.2701	6726.56	64.9914	6726.56	73.0009	6726.56	61.8256	6726.56	74.4445	6726.56	67.6269	6726.56	72.0847	6726.56	60.4884	6726.56	70.7462
6963.87	91.6197	6963.87	89.6371	6963.87	90.3012	6963.87	90.6634	6963.87	88.3597	6963.87	89.6223	6963.87	90.0605	6963.87	87.2932	6963.87	88.1332	6963.87	85.6229	6963.87	83.2534	6963.87	84.4128	6963.87	81.1849	6963.87	82.0641	6963.87	83.2546	6963.87	79.2063	6963.87	82.4439	6963.87	77.4668	6963.87	74.3875	6963.87	75.5275	6963.87	71.8436	6963.87	73.9768	6963.87	68.3451	6963.87	70.6933	6963.87	66.6684	6963.87	71.1808	6963.87	66.8211	6963.87	69.6413	6963.87	63.5446	6963.87	70.6171	6963.87	65.0049	6963.87	74.1491	6963.87	68.7622	6963.87	72.6096	6963.87	57.5184	6963.87	70.882
7209.96	91.5259	7209.96	89.8716	7209.96	90.7317	7209.96	90.8847	7209.96	89.1752	7209.96	89.2771	7209.96	89.4619	7209.96	87.4745	7209.96	88.6496	7209.96	86.1174	7209.96	83.0883	7209.96	84.1293	7209.96	79.5544	7209.96	82.2378	7209.96	84.0077	7209.96	78.893	7209.96	82.7129	7209.96	75.8134	7209.96	76.7623	7209.96	74.4182	7209.96	70.6877	7209.96	74.3268	7209.96	67.2465	7209.96	71.4887	7209.96	66.3619	7209.96	70.3073	7209.96	68.2577	7209.96	68.7308	7209.96	66.4561	7209.96	70.5414	7209.96	63.0045	7209.96	72.858	7209.96	66.9548	7209.96	70.8473	7209.96	62.3015	7209.96	70.5179
7464.84	91.4528	7464.84	89.9568	7464.84	90.5123	7464.84	90.9515	7464.84	89.6244	7464.84	89.0507	7464.84	88.8409	7464.84	87.9363	7464.84	89.3077	7464.84	86.4094	7464.84	84.2408	7464.84	83.9287	7464.84	80.8229	7464.84	81.4882	7464.84	83.09	7464.84	77.4497	7464.84	79.4042	7464.84	74.7383	7464.84	78.8919	7464.84	73.3579	7464.84	69.269	7464.84	71.7118	7464.84	66.6844	7464.84	70.4407	7464.84	61.5146	7464.84	69.3379	7464.84	65.0691	7464.84	69.9721	7464.84	62.2979	7464.84	68.0449	7464.84	63.4078	7464.84	70.4465	7464.84	68.5197	7464.84	71.1855	7464.84	59.4061	7464.84	70.1172
7727.05	91.5383	7727.05	90.2748	7727.05	90.4527	7727.05	90.6675	7727.05	90.1534	7727.05	89.2823	7727.05	88.429	7727.05	88.188	7727.05	88.8762	7727.05	86.3021	7727.05	84.3648	7727.05	83.6635	7727.05	79.8027	7727.05	79.8231	7727.05	81.669	7727.05	77.2343	7727.05	78.4437	7727.05	74.5141	7727.05	76.5209	7727.05	74.0069	7727.05	65.6923	7727.05	72.3106	7727.05	62.2708	7727.05	71.5552	7727.05	57.7954	7727.05	69.7376	7727.05	68.1433	7727.05	71.3512	7727.05	58.2497	7727.05	65.8299	7727.05	63.5681	7727.05	69.6111	7727.05	65.2576	7727.05	68.9926	7727.05	59.2705	7727.05	69.203
7999.51	90.9355	7999.51	90.2201	7999.51	90.762	7999.51	90.2828	7999.51	90.0161	7999.51	89.489	7999.51	89.1712	7999.51	88.2476	7999.51	88.5361	7999.51	86.2138	7999.51	84.5016	7999.51	82.9456	7999.51	80.5327	7999.51	80.1509	7999.51	79.501	7999.51	77.868	7999.51	76.9395	7999.51	73.3132	7999.51	75.2064	7999.51	74.1881	7999.51	67.2707	7999.51	71.9432	7999.51	60.618	7999.51	70.5626	7999.51	53.1982	7999.51	69.3501	7999.51	66.0294	7999.51	71.5732	7999.51	61.4134	7999.51	63.8797	7999.51	64.2916	7999.51	69.3398	7999.51	64.4331	7999.51	68.9469	7999.51	60.6981	7999.51	68.7409
8282.23	90.7897	8282.23	90.4438	8282.23	91.0747	8282.23	89.8495	8282.23	89.9186	8282.23	89.4371	8282.23	88.9755	8282.23	88.2716	8282.23	87.8326	8282.23	85.6287	8282.23	85.9307	8282.23	82.4062	8282.23	79.2703	8282.23	79.5516	8282.23	79.7278	8282.23	75.8052	8282.23	78.0785	8282.23	73.0107	8282.23	74.1578	8282.23	72.6946	8282.23	67.0368	8282.23	70.11	8282.23	57.4737	8282.23	68.698	8282.23	53.2258	8282.23	68.8485	8282.23	65.8748	8282.23	69.603	8282.23	65.1033	8282.23	64.0595	8282.23	64.1367	8282.23	67.4359	8282.23	62.8446	8282.23	66.19	8282.23	59.1882	8282.23	66.5975
8573.73	90.575	8573.73	90.2622	8573.73	91.0924	8573.73	89.5519	8573.73	89.8782	8573.73	89.0022	8573.73	88.9557	8573.73	88.2141	8573.73	87.2743	8573.73	84.2024	8573.73	86.3486	8573.73	82.0234	8573.73	78.8301	8573.73	77.7277	8573.73	81.7644	8573.73	75.7762	8573.73	79.3574	8573.73	75.3902	8573.73	76.1885	8573.73	71.8094	8573.73	60.4097	8573.73	71.5436	8573.73	65.9852	8573.73	67.1618	8573.73	53.9002	8573.73	70.8745	8573.73	57.6802	8573.73	69.5283	8573.73	54.1035	8573.73	64.1973	8573.73	57.9733	8573.73	67.3884	8573.73	56.6366	8573.73	63.8751	8573.73	60.4058	8573.73	66.0039
8876.95	90.836	8876.95	90.227	8876.95	91.1299	8876.95	89.52	8876.95	89.7751	8876.95	89.2548	8876.95	88.2936	8876.95	87.6619	8876.95	86.427	8876.95	84.3524	8876.95	85.5703	8876.95	81.2252	8876.95	78.1306	8876.95	80.1623	8876.95	81.5908	8876.95	75.7652	8876.95	79.2584	8876.95	75.154	8876.95	77.7159	8876.95	71.287	8876.95	63.1648	8876.95	71.5478	8876.95	65.4509	8876.95	68.1388	8876.95	53.1477	8876.95	69.8358	8876.95	58.8297	8876.95	69.7301	8876.95	64.7835	8876.95	64.117	8876.95	63.1347	8876.95	66.7877	8876.95	59.8737	8876.95	63.8058	8876.95	58.8774	8876.95	65.7819
9188.96	90.9307	9188.96	90.2661	9188.96	91.1699	9188.96	89.6967	9188.96	89.7707	9188.96	89.6325	9188.96	87.2166	9188.96	87.1474	9188.96	85.8909	9188.96	84.9592	9188.96	84.4021	9188.96	82.1153	9188.96	78.5956	9188.96	80.1019	9188.96	79.9294	9188.96	76.107	9188.96	76.4595	9188.96	73.9501	9188.96	75.7216	9188.96	71.5593	9188.96	65.8951	9188.96	71.6609	9188.96	62.9938	9188.96	69.666	9188.96	52.3852	9188.96	69.4705	9188.96	63.1532	9188.96	70.4053	9188.96	63.5685	9188.96	62.2964	9188.96	63.0001	9188.96	66.7533	9188.96	47.9391	9188.96	62.0221	9188.96	59.6435	9188.96	64.6379
9514.16	91.0661	9514.16	89.8862	9514.16	91.2199	9514.16	90.1007	9514.16	89.7404	9514.16	89.3969	9514.16	86.8799	9514.16	87.2329	9514.16	85.7766	9514.16	84.9996	9514.16	84.3386	9514.16	82.5246	9514.16	79.4818	9514.16	79.4568	9514.16	76.9838	9514.16	76.3513	9514.16	75.3762	9514.16	72.8313	9514.16	69.7666	9514.16	72.2325	9514.16	67.7817	9514.16	70.2358	9514.16	53.1052	9514.16	69.4511	9514.16	52.0377	9514.16	69.8999	9514.16	63.3666	9514.16	70.9105	9514.16	61.6035	9514.16	63.9943	9514.16	54.6577	9514.16	66.3461	9514.16	56.6181	9514.16	63.1691	9514.16	58.9832	9514.16	64.0674
9849.61	90.9571	9849.61	90.1861	9849.61	91.2136	9849.61	90.3074	9849.61	89.742	9849.61	89.1036	9849.61	87.0573	9849.61	87.6094	9849.61	85.8012	9849.61	84.8542	9849.61	84.3847	9849.61	82.6351	9849.61	78.7904	9849.61	79.7025	9849.61	77.1402	9849.61	76.8002	9849.61	76.3397	9849.61	74.0349	9849.61	70.1805	9849.61	71.5849	9849.61	67.1265	9849.61	70.0362	9849.61	58.1324	9849.61	67.9877	9849.61	56.6243	9849.61	69.4346	9849.61	60.3401	9849.61	70.8034	9849.61	60.5518	9849.61	65.777	9849.61	54.5656	9849.61	66.261	9849.61	54.108	9849.61	63.9215	9849.61	57.3193	9849.61	62.2948
10196.8	90.5836	10196.8	90.6066	10196.8	91.1141	10196.8	90.1137	10196.8	89.3199	10196.8	89.1661	10196.8	87.0948	10196.8	87.3544	10196.8	85.5962	10196.8	85.0435	10196.8	83.5073	10196.8	82.4229	10196.8	79.1316	10196.8	79.6161	10196.8	76.899	10196.8	76.0221	10196.8	73.79	10196.8	71.6835	10196.8	70.1865	10196.8	69.1207	10196.8	67.817	10196.8	68.7966	10196.8	58.0016	10196.8	66.9484	10196.8	56.657	10196.8	67.7973	10196.8	53.4874	10196.8	69.9504	10196.8	61.1646	10196.8	65.4102	10196.8	53.4939	10196.8	65.1189	10196.8	56.173	10196.8	61.4717	10196.8	57.4046	10196.8	62.1906
10555.7	90.757	10555.7	90.7675	10555.7	90.8488	10555.7	90.0558	10555.7	89.3117	10555.7	89.0254	10555.7	87.4325	10555.7	87.2365	10555.7	85.3868	10555.7	84.9814	10555.7	82.9004	10555.7	81.9811	10555.7	79.5543	10555.7	78.8546	10555.7	74.5398	10555.7	74.285	10555.7	73.6702	10555.7	69.8824	10555.7	67.3794	10555.7	68.6658	10555.7	63.3693	10555.7	67.8199	10555.7	51.4369	10555.7	65.5614	10555.7	53.7642	10555.7	67.6102	10555.7	43.8042	10555.7	68.7903	10555.7	54.8319	10555.7	64.6174	10555.7	53.7429	10555.7	64.813	10555.7	50.8664	10555.7	61.8043	10555.7	56.2777	10555.7	60.2344
10927.7	90.8155	10927.7	90.7321	10927.7	90.6814	10927.7	89.9698	10927.7	89.2448	10927.7	88.7571	10927.7	87.5139	10927.7	87.41	10927.7	85.1508	10927.7	84.4764	10927.7	82.6243	10927.7	81.6248	10927.7	77.4227	10927.7	77.1858	10927.7	74.5146	10927.7	73.4852	10927.7	74.6877	10927.7	70.3011	10927.7	61.7722	10927.7	67.6587	10927.7	53.7185	10927.7	66.1835	10927.7	54.8633	10927.7	62.9967	10927.7	58.1856	10927.7	66.581	10927.7	54.4454	10927.7	67.237	10927.7	54.1176	10927.7	63.7103	10927.7	49.2999	10927.7	64.9916	10927.7	58.047	10927.7	61.632	10927.7	57.2663	10927.7	59.3451
11313	90.853	11313	91.0083	11313	90.8198	11313	89.8922	11313	89.2159	11313	88.5973	11313	87.3651	11313	87.0402	11313	84.6589	11313	84.2478	11313	81.7163	11313	80.3624	11313	77.1456	11313	76.2786	11313	74.8345	11313	71.9132	11313	71.9732	11313	68.2595	11313	65.4939	11313	65.4215	11313	57.3722	11313	65.5786	11313	54.6227	11313	60.5847	11313	58.3486	11313	65.4743	11313	50.9218	11313	64.5813	11313	53.9085	11313	62.5878	11313	53.7524	11313	64.3724	11313	53.8381	11313	59.5679	11313	54.5629	11313	57.155
11712.9	91.1794	11712.9	91.2671	11712.9	90.7948	11712.9	89.9166	11712.9	89.1684	11712.9	88.5007	11712.9	87.0437	11712.9	86.814	11712.9	84.2872	11712.9	83.7082	11712.9	81.7416	11712.9	78.8963	11712.9	77.7452	11712.9	75.1959	11712.9	73.1505	11712.9	70.4985	11712.9	67.9584	11712.9	67.1851	11712.9	61.6879	11712.9	65.1976	11712.9	48.1957	11712.9	63.9591	11712.9	53.6878	11712.9	61.5056	11712.9	56.4831	11712.9	64.4673	11712.9	49.722	11712.9	63.1077	11712.9	46.3316	11712.9	61.2193	11712.9	48.6966	11712.9	64.1368	11712.9	51.9259	11712.9	60.1151	11712.9	55.19	11712.9	53.5379
12126	91.4009	12126	91.3991	12126	90.8211	12126	90.1487	12126	89.2024	12126	88.2037	12126	86.5915	12126	86.517	12126	83.6016	12126	82.503	12126	80.4512	12126	77.8858	12126	75.8655	12126	74.0464	12126	67.4877	12126	69.1213	12126	66.1812	12126	65.4889	12126	63.0499	12126	63.8206	12126	52.981	12126	61.8271	12126	51.5828	12126	60.3646	12126	55.0848	12126	62.6693	12126	43.9447	12126	61.0289	12126	31.5446	12126	58.9964	12126	47.978	12126	62.7328	12126	50.0117	12126	58.5412	12126	54.0955	12126	52.8438
12553.7	91.5547	12553.7	91.5286	12553.7	90.958	12553.7	90.1563	12553.7	89.2359	12553.7	88.1016	12553.7	86.3312	12553.7	85.8017	12553.7	83.2075	12553.7	81.5974	12553.7	78.5761	12553.7	76.457	12553.7	73.291	12553.7	73.2034	12553.7	66.3543	12553.7	67.1945	12553.7	66.3752	12553.7	64.6371	12553.7	58.8492	12553.7	61.3515	12553.7	28.5143	12553.7	59.8692	12553.7	40.092	12553.7	58.9145	12553.7	52.1623	12553.7	60.5269	12553.7	42.3822	12553.7	59.6193	12553.7	41.5628	12553.7	56.9406	12553.7	49.2726	12553.7	61.5091	12553.7	50.164	12553.7	56.6865	12553.7	50.7504	12553.7	48.2029
12996.1	91.6886	12996.1	91.5061	12996.1	90.9104	12996.1	90.0077	12996.1	89.2216	12996.1	87.8856	12996.1	85.8944	12996.1	84.9466	12996.1	82.5971	12996.1	80.2752	12996.1	77.8372	12996.1	75.0653	12996.1	71.962	12996.1	70.7252	12996.1	66.1587	12996.1	66.0722	12996.1	62.1497	12996.1	61.2172	12996.1	60.0433	12996.1	60.0452	12996.1	47.7601	12996.1	57.2864	12996.1	46.8641	12996.1	56.8498	12996.1	46.213	12996.1	58.4454	12996.1	43.0938	12996.1	57.4123	12996.1	34.1784	12996.1	54.1729	12996.1	47.938	12996.1	59.2858	12996.1	45.8204	12996.1	54.4149	12996.1	50.3499	12996.1	39.0807
13454.6	91.6107	13454.6	91.36	13454.6	90.842	13454.6	89.7491	13454.6	88.9971	13454.6	87.393	13454.6	85.5022	13454.6	84.1594	13454.6	81.447	13454.6	78.7952	13454.6	75.7079	13454.6	73.3273	13454.6	68.873	13454.6	68.392	13454.6	64.0411	13454.6	63.8293	13454.6	58.5045	13454.6	58.3743	13454.6	56.4467	13454.6	57.7221	13454.6	49.1131	13454.6	52.3583	13454.6	44.1536	13454.6	54.5606	13454.6	44.233	13454.6	57.3988	13454.6	30.4181	13454.6	54.6531	13454.6	38.4074	13454.6	50.9201	13454.6	46.3197	13454.6	57.217	13454.6	37.8959	13454.6	53.989	13454.6	50.2438	13454.6	40.7179
13929.2	91.3977	13929.2	91.0523	13929.2	90.523	13929.2	89.1997	13929.2	88.6327	13929.2	86.6952	13929.2	84.7366	13929.2	83.0172	13929.2	80.211	13929.2	77.5385	13929.2	74.4273	13929.2	71.0517	13929.2	66.6539	13929.2	66.6946	13929.2	59.4249	13929.2	61.1791	13929.2	58.4852	13929.2	53.5742	13929.2	53.2682	13929.2	55.3439	13929.2	57.1018	13929.2	50.2344	13929.2	46.1981	13929.2	52.9124	13929.2	38.8096	13929.2	54.3078	13929.2	38.5433	13929.2	53.2057	13929.2	39.9183	13929.2	50.5525	13929.2	43.3942	13929.2	55.2337	13929.2	40.6354	13929.2	52.8945	13929.2	47.6281	13929.2	38.9005
14419.9	90.3861	14419.9	90.005	14419.9	89.4805	14419.9	88.0477	14419.9	87.59	14419.9	85.3872	14419.9	83.6593	14419.9	81.3751	14419.9	78.3658	14419.9	75.7875	14419.9	73.6003	14419.9	69.7919	14419.9	66.1994	14419.9	63.9535	14419.9	60.0905	14419.9	60.2417	14419.9	59.2485	14419.9	53.7969	14419.9	54.7525	14419.9	55.5452	14419.9	57.7415	14419.9	46.8949	14419.9	49.4795	14419.9	52.3344	14419.9	39.7466	14419.9	53.6767	14419.9	42.7408	14419.9	51.7754	14419.9	44.1751	14419.9	52.4344	14419.9	47.7236	14419.9	55.4302	14419.9	47.3566	14419.9	52.7473	14419.9	51.6839	14419.9	40.6267
14928.2	88.993	14928.2	88.6455	14928.2	88.0217	14928.2	87.5935	14928.2	86.6406	14928.2	84.8351	14928.2	83.4536	14928.2	82.0838	14928.2	79.8114	14928.2	78.4859	14928.2	75.5909	14928.2	73.3962	14928.2	70.8393	14928.2	67.9127	14928.2	64.4628	14928.2	63.5252	14928.2	62.0259	14928.2	57.928	14928.2	58.8048	14928.2	57.7167	14928.2	55.2996	14928.2	52.4045	14928.2	47.1426	14928.2	55.7136	14928.2	48.4056	14928.2	56.0585	14928.2	37.2525	14928.2	55.536	14928.2	43.0982	14928.2	53.6175	14928.2	47.9518	14928.2	55.9784	14928.2	50.5816	14928.2	54.8105	14928.2	52.0854	14928.2	33.5564
15455.6	92.6615	15455.6	92.0532	15455.6	91.4811	15455.6	89.9662	15455.6	88.7804	15455.6	85.9776	15455.6	84.2017	15455.6	80.7856	15455.6	78.3925	15455.6	74.0179	15455.6	70.3239	15455.6	67.3419	15455.6	59.7453	15455.6	62.927	15455.6	53.8698	15455.6	56.3015	15455.6	46.1418	15455.6	54.6234	15455.6	43.0152	15455.6	45.1681	15455.6	42.885	15455.6	50.8063	15455.6	45.7094	15455.6	41.5567	15455.6	38.7203	15455.6	46.3365	15455.6	36.892	15455.6	49.8576	15455.6	38.5966	15455.6	46.662	15455.6	39.9517	15455.6	45.0134	15455.6	36.1994	15455.6	36.901	15455.6	41.3547	15455.6	43.7283
16000.5	91.7496	16000.5	90.9514	16000.5	90.3263	16000.5	88.6486	16000.5	87.5223	16000.5	84.362	16000.5	82.2202	16000.5	77.7604	16000.5	75.4936	16000.5	69.1683	16000.5	65.6262	16000.5	55.7967	16000.5	55.0007	16000.5	57.5612	16000.5	53.412	16000.5	54.409	16000.5	56.7134	16000.5	52.784	16000.5	46.8801	16000.5	49.3576	16000.5	46.8302	16000.5	52.6097	16000.5	47.1626	16000.5	45.0976	16000.5	43.9165	16000.5	49.6002	16000.5	39.5735	16000.5	48.3218	16000.5	43.4975	16000.5	49.0373	16000.5	38.3009	16000.5	51.9298	16000.5	40.2563	16000.5	48.2137	16000.5	46.8186	16000.5	44.4485
16564.5	90.8141	16564.5	89.8836	16564.5	89.3801	16564.5	87.506	16564.5	86.5049	16564.5	82.6533	16564.5	80.6145	16564.5	75.6909	16564.5	73.5488	16564.5	65.1943	16564.5	62.835	16564.5	58.5063	16564.5	60.0458	16564.5	58.8011	16564.5	59.6048	16564.5	56.3269	16564.5	56.8101	16564.5	54.9284	16564.5	50.3802	16564.5	48.6331	16564.5	48.4507	16564.5	51.7339	16564.5	51.9413	16564.5	45.5009	16564.5	41.8709	16564.5	50.6954	16564.5	30.8555	16564.5	48.3674	16564.5	40.4541	16564.5	49.7479	16564.5	31.2217	16564.5	52.9141	16564.5	43.1781	16564.5	49.9523	16564.5	48.2054	16564.5	44.4191
17148.9	89.7069	17148.9	88.7613	17148.9	88.3834	17148.9	86.2635	17148.9	85.6121	17148.9	80.7113	17148.9	79.1628	17148.9	73.733	17148.9	70.2304	17148.9	57.4985	17148.9	60.0491	17148.9	61.3116	17148.9	63.5279	17148.9	60.0662	17148.9	59.6722	17148.9	54.9116	17148.9	57.1491	17148.9	54.1851	17148.9	54.5132	17148.9	47.5951	17148.9	54.3587	17148.9	50.6242	17148.9	55.6053	17148.9	46.4288	17148.9	40.7552	17148.9	49.2996	17148.9	43.9643	17148.9	49.443	17148.9	40.2988	17148.9	50.4406	17148.9	41.5277	17148.9	53.2419	17148.9	41.0472	17148.9	48.9486	17148.9	46.3334	17148.9	43.6567
17752.4	88.5907	17752.4	87.532	17752.4	87.1848	17752.4	84.8806	17752.4	84.4003	17752.4	78.8652	17752.4	78.0084	17752.4	71.2161	17752.4	66.3747	17752.4	58.3247	17752.4	63.8016	17752.4	62.1253	17752.4	63.5152	17752.4	59.5985	17752.4	61.0995	17752.4	55.8011	17752.4	58.3676	17752.4	53.2399	17752.4	53.3895	17752.4	48.0346	17752.4	56.151	17752.4	50.5769	17752.4	56.1045	17752.4	46.06	17752.4	40.3517	17752.4	49.0377	17752.4	41.7803	17752.4	48.1868	17752.4	36.5085	17752.4	50.3285	17752.4	38.7459	17752.4	52.2104	17752.4	35.0663	17752.4	48.7892	17752.4	43.8741	17752.4	43.1966
18379.4	87.4116	18379.4	86.4445	18379.4	86.0821	18379.4	83.2778	18379.4	82.825	18379.4	77.2134	18379.4	76.3985	18379.4	67.3275	18379.4	65.3856	18379.4	61.1456	18379.4	62.4998	18379.4	60.9448	18379.4	62.9638	18379.4	60.5939	18379.4	61.987	18379.4	55.3741	18379.4	56.1	18379.4	52.6827	18379.4	47.9062	18379.4	47.024	18379.4	53.4244	18379.4	49.5582	18379.4	55.6172	18379.4	44.7769	18379.4	34.4465	18379.4	48.1535	18379.4	36.4232	18379.4	47.2702	18379.4	23.0666	18379.4	49.1334	18379.4	36.6611	18379.4	50.3373	18379.4	38.4011	18379.4	47.2262	18379.4	40.1547	18379.4	42.6126
19026.9	86.4178	19026.9	85.5576	19026.9	85.1478	19026.9	81.8449	19026.9	81.2165	19026.9	75.4692	19026.9	74.2769	19026.9	63.6905	19026.9	65.5426	19026.9	62.0498	19026.9	62.4797	19026.9	60.5752	19026.9	60.7572	19026.9	60.8534	19026.9	61.5935	19026.9	53.8991	19026.9	49.2734	19026.9	50.0962	19026.9	50.8783	19026.9	46.818	19026.9	49.3161	19026.9	44.9265	19026.9	52.1881	19026.9	45.1591	19026.9	35.6334	19026.9	48.0466	19026.9	32.2295	19026.9	44.9018	19026.9	33.4415	19026.9	46.6752	19026.9	32.4453	19026.9	48.0236	19026.9	38.3586	19026.9	45.9663	19026.9	39.8871	19026.9	41.0337
19697.8	85.4889	19697.8	84.5917	19697.8	84.1945	19697.8	80.5007	19697.8	79.9796	19697.8	73.3885	19697.8	72.2485	19697.8	61.9988	19697.8	62.2745	19697.8	61.4525	19697.8	61.9896	19697.8	59.6366	19697.8	61.8048	19697.8	58.9088	19697.8	58.7957	19697.8	50.7271	19697.8	52.1751	19697.8	45.8224	19697.8	46.0576	19697.8	43.9585	19697.8	47.8957	19697.8	42.3084	19697.8	47.9632	19697.8	40.6895	19697.8	39.0419	19697.8	45.5198	19697.8	36.2576	19697.8	42.9691	19697.8	30.4191	19697.8	40.5611	19697.8	32.0725	19697.8	44.0596	19697.8	40.1445	19697.8	40.0533	19697.8	37.8866	19697.8	38.2357
19999.5	84.8939	19999.5	84.1899	19999.5	83.8089	19999.5	79.9864	19999.5	78.8839	19999.5	72.2856	19999.5	71.9732	19999.5	61.7901	19999.5	62.6173	19999.5	62.1478	19999.5	62.1547	19999.5	60.6864	19999.5	60.3163	19999.5	59.7478	19999.5	61.0785	19999.5	50.8676	19999.5	44.7939	19999.5	44.3362	19999.5	51.0291	19999.5	44.5177	19999.5	51.0906	19999.5	43.3167	19999.5	52.7297	19999.5	41.9793	19999.5	38.0592	19999.5	52.2958	19999.5	32.5015	19999.5	45.5172	19999.5	54.7592	19999.5	42.7015	19999.5	43.3399	19999.5	46.4652	19999.5	50.5783	19999.5	48.3449	19999.5	36.7713	19999.5	29.5599
