"SPL Vertical"
"On-Axis"		"10°"		"-10°"		"20°"		"-20°"		"30°"		"-30°"		"40°"		"-40°"		"50°"		"-50°"		"60°"		"-60°"		"70°"		"-70°"		"80°"		"-80°"		"90°"		"-90°"		"100°"		"-100°"		"110°"		"-110°"		"120°"		"-120°"		"130°"		"-130°"		"140°"		"-140°"		"150°"		"-150°"		"160°"		"-160°"		"170°"		"-170°"		"180°"
"Frequency / Hz"	"Sound Pressure Level / dB (re 20 µPa/V)  [2.83  V @ 1. m]"	"Frequency / Hz"	"Sound Pressure Level / dB (re 20 µPa/V)  [2.83  V @ 1. m]"	"Frequency / Hz"	"Sound Pressure Level / dB (re 20 µPa/V)  [2.83  V @ 1. m]"	"Frequency / Hz"	"Sound Pressure Level / dB (re 20 µPa/V)  [2.83  V @ 1. m]"	"Frequency / Hz"	"Sound Pressure Level / dB (re 20 µPa/V)  [2.83  V @ 1. m]"	"Frequency / Hz"	"Sound Pressure Level / dB (re 20 µPa/V)  [2.83  V @ 1. m]"	"Frequency / Hz"	"Sound Pressure Level / dB (re 20 µPa/V)  [2.83  V @ 1. m]"	"Frequency / Hz"	"Sound Pressure Level / dB (re 20 µPa/V)  [2.83  V @ 1. m]"	"Frequency / Hz"	"Sound Pressure Level / dB (re 20 µPa/V)  [2.83  V @ 1. m]"	"Frequency / Hz"	"Sound Pressure Level / dB (re 20 µPa/V)  [2.83  V @ 1. m]"	"Frequency / Hz"	"Sound Pressure Level / dB (re 20 µPa/V)  [2.83  V @ 1. m]"	"Frequency / Hz"	"Sound Pressure Level / dB (re 20 µPa/V)  [2.83  V @ 1. m]"	"Frequency / Hz"	"Sound Pressure Level / dB (re 20 µPa/V)  [2.83  V @ 1. m]"	"Frequency / Hz"	"Sound Pressure Level / dB (re 20 µPa/V)  [2.83  V @ 1. m]"	"Frequency / Hz"	"Sound Pressure Level / dB (re 20 µPa/V)  [2.83  V @ 1. m]"	"Frequency / Hz"	"Sound Pressure Level / dB (re 20 µPa/V)  [2.83  V @ 1. m]"	"Frequency / Hz"	"Sound Pressure Level / dB (re 20 µPa/V)  [2.83  V @ 1. m]"	"Frequency / Hz"	"Sound Pressure Level / dB (re 20 µPa/V)  [2.83  V @ 1. m]"	"Frequency / Hz"	"Sound Pressure Level / dB (re 20 µPa/V)  [2.83  V @ 1. m]"	"Frequency / Hz"	"Sound Pressure Level / dB (re 20 µPa/V)  [2.83  V @ 1. m]"	"Frequency / Hz"	"Sound Pressure Level / dB (re 20 µPa/V)  [2.83  V @ 1. m]"	"Frequency / Hz"	"Sound Pressure Level / dB (re 20 µPa/V)  [2.83  V @ 1. m]"	"Frequency / Hz"	"Sound Pressure Level / dB (re 20 µPa/V)  [2.83  V @ 1. m]"	"Frequency / Hz"	"Sound Pressure Level / dB (re 20 µPa/V)  [2.83  V @ 1. m]"	"Frequency / Hz"	"Sound Pressure Level / dB (re 20 µPa/V)  [2.83  V @ 1. m]"	"Frequency / Hz"	"Sound Pressure Level / dB (re 20 µPa/V)  [2.83  V @ 1. m]"	"Frequency / Hz"	"Sound Pressure Level / dB (re 20 µPa/V)  [2.83  V @ 1. m]"	"Frequency / Hz"	"Sound Pressure Level / dB (re 20 µPa/V)  [2.83  V @ 1. m]"	"Frequency / Hz"	"Sound Pressure Level / dB (re 20 µPa/V)  [2.83  V @ 1. m]"	"Frequency / Hz"	"Sound Pressure Level / dB (re 20 µPa/V)  [2.83  V @ 1. m]"	"Frequency / Hz"	"Sound Pressure Level / dB (re 20 µPa/V)  [2.83  V @ 1. m]"	"Frequency / Hz"	"Sound Pressure Level / dB (re 20 µPa/V)  [2.83  V @ 1. m]"	"Frequency / Hz"	"Sound Pressure Level / dB (re 20 µPa/V)  [2.83  V @ 1. m]"	"Frequency / Hz"	"Sound Pressure Level / dB (re 20 µPa/V)  [2.83  V @ 1. m]"	"Frequency / Hz"	"Sound Pressure Level / dB (re 20 µPa/V)  [2.83  V @ 1. m]"	"Frequency / Hz"	"Sound Pressure Level / dB (re 20 µPa/V)  [2.83  V @ 1. m]"
20.5078	53.9839	20.5078	54.0346	20.5078	53.8461	20.5078	53.994	20.5078	53.625	20.5078	53.8581	20.5078	53.3253	20.5078	53.6236	20.5078	52.9533	20.5078	53.2899	20.5078	52.5186	20.5078	52.8628	20.5078	52.0367	20.5078	52.3596	20.5078	51.5326	20.5078	51.8175	20.5078	51.0451	20.5078	51.3007	20.5078	50.6289	20.5078	50.9001	20.5078	50.3483	20.5078	50.7087	20.5078	50.2588	20.5078	50.774	20.5078	50.3807	20.5078	51.0607	20.5078	50.6847	20.5078	51.4678	20.5078	51.102	20.5078	51.8796	20.5078	51.5495	20.5078	52.2044	20.5078	51.9514	20.5078	52.3861	20.5078	52.2486	20.5078	52.4006
21.9727	61.7579	21.9727	61.7585	21.9727	61.718	21.9727	61.7185	21.9727	61.6389	21.9727	61.6363	21.9727	61.5205	21.9727	61.5097	21.9727	61.3623	21.9727	61.3367	21.9727	61.1639	21.9727	61.1157	21.9727	60.9253	21.9727	60.8462	21.9727	60.6469	21.9727	60.5289	21.9727	60.3304	21.9727	60.1664	21.9727	59.9787	21.9727	59.7638	21.9727	59.5966	21.9727	59.3295	21.9727	59.1915	21.9727	58.8764	21.9727	58.774	21.9727	58.4228	21.9727	58.3586	21.9727	57.9932	21.9727	57.9638	21.9727	57.6164	21.9727	57.613	21.9727	57.3227	21.9727	57.332	21.9727	57.138	21.9727	57.1468	21.9727	57.0785
23.4375	65.4736	23.4375	65.4512	23.4375	65.4729	23.4375	65.4057	23.4375	65.4489	23.4375	65.3375	23.4375	65.4019	23.4375	65.2469	23.4375	65.3321	23.4375	65.1349	23.4375	65.2401	23.4375	65.0031	23.4375	65.1268	23.4375	64.8535	23.4375	64.9939	23.4375	64.6892	23.4375	64.8435	23.4375	64.5141	23.4375	64.6787	23.4375	64.333	23.4375	64.5035	23.4375	64.1517	23.4375	64.3228	23.4375	63.9768	23.4375	64.1426	23.4375	63.8154	23.4375	63.9693	23.4375	63.6751	23.4375	63.81	23.4375	63.5627	23.4375	63.6716	23.4375	63.4842	23.4375	63.5608	23.4375	63.4437	23.4375	63.4833	23.4375	63.4435
24.9023	68.1356	24.9023	68.1091	24.9023	68.1449	24.9023	68.0659	24.9023	68.1366	24.9023	68.007	24.9023	68.1105	24.9023	67.9333	24.9023	68.0667	24.9023	67.8464	24.9023	68.0055	24.9023	67.7481	24.9023	67.928	24.9023	67.6407	24.9023	67.8356	24.9023	67.5269	24.9023	67.7304	24.9023	67.4098	24.9023	67.6151	24.9023	67.2929	24.9023	67.4932	24.9023	67.1799	24.9023	67.3686	24.9023	67.0744	24.9023	67.2458	24.9023	66.9802	24.9023	67.1293	24.9023	66.9006	24.9023	67.0237	24.9023	66.8387	24.9023	66.933	24.9023	66.7971	24.9023	66.8608	24.9023	66.7779	24.9023	66.8099	24.9023	66.7821
26.3672	70.7228	26.3672	70.698	26.3672	70.7337	26.3672	70.6601	26.3672	70.7304	26.3672	70.6103	26.3672	70.7124	26.3672	70.5498	26.3672	70.6799	26.3672	70.4803	26.3672	70.6332	26.3672	70.4036	26.3672	70.5732	26.3672	70.3221	26.3672	70.5012	26.3672	70.2378	26.3672	70.4193	26.3672	70.1534	26.3672	70.3299	26.3672	70.0712	26.3672	70.2361	26.3672	69.9934	26.3672	70.1414	26.3672	69.9223	26.3672	70.0495	26.3672	69.8598	26.3672	69.9641	26.3672	69.8074	26.3672	69.8883	26.3672	69.7666	26.3672	69.825	26.3672	69.7387	26.3672	69.7762	26.3672	69.7248	26.3672	69.7431	26.3672	69.7261
27.832	72.7695	27.832	72.7401	27.832	72.7888	27.832	72.7016	27.832	72.7969	27.832	72.6553	27.832	72.793	27.832	72.6026	27.832	72.7766	27.832	72.5449	27.832	72.7478	27.832	72.4837	27.832	72.707	27.832	72.4208	27.832	72.6552	27.832	72.3578	27.832	72.5943	27.832	72.2968	27.832	72.5265	27.832	72.2393	27.832	72.4547	27.832	72.1873	27.832	72.382	27.832	72.1422	27.832	72.3114	27.832	72.105	27.832	72.246	27.832	72.0765	27.832	72.1881	27.832	72.057	27.832	72.1394	27.832	72.0467	27.832	72.1007	27.832	72.0457	27.832	72.0724	27.832	72.0542
29.2969	75.0118	29.2969	74.9827	29.2969	75.0276	29.2969	74.9413	29.2969	75.0294	29.2969	74.8889	29.2969	75.0167	29.2969	74.8271	29.2969	74.9894	29.2969	74.7575	29.2969	74.9479	29.2969	74.6822	29.2969	74.8927	29.2969	74.6035	29.2969	74.8254	29.2969	74.5234	29.2969	74.7479	29.2969	74.4443	29.2969	74.663	29.2969	74.3685	29.2969	74.5737	29.2969	74.2981	29.2969	74.4838	29.2969	74.2351	29.2969	74.3968	29.2969	74.1811	29.2969	74.3161	29.2969	74.1376	29.2969	74.2448	29.2969	74.1056	29.2969	74.1849	29.2969	74.0858	29.2969	74.138	29.2969	74.0788	29.2969	74.1046	29.2969	74.0849
30.7617	76.8317	30.7617	76.7989	30.7617	76.8508	30.7617	76.7539	30.7617	76.8554	30.7617	76.698	30.7617	76.8449	30.7617	76.6332	30.7617	76.8191	30.7617	76.5613	30.7617	76.7786	30.7617	76.4842	30.7617	76.724	30.7617	76.4041	30.7617	76.6568	30.7617	76.3229	30.7617	76.5788	30.7617	76.2425	30.7617	76.4926	30.7617	76.1647	30.7617	76.401	30.7617	76.0916	30.7617	76.3071	30.7617	76.0247	30.7617	76.2143	30.7617	75.9661	30.7617	76.1263	30.7617	75.9174	30.7617	76.0461	30.7617	75.8806	30.7617	75.977	30.7617	75.8572	30.7617	75.9212	30.7617	75.8488	30.7617	75.8807	30.7617	75.8565
32.2266	78.0225	32.2266	77.997	32.2266	78.0354	32.2266	77.9598	32.2266	78.0352	32.2266	77.9123	32.2266	78.0216	32.2266	77.8559	32.2266	77.9947	32.2266	77.7925	32.2266	77.955	32.2266	77.724	32.2266	77.9036	32.2266	77.6526	32.2266	77.8419	32.2266	77.5803	32.2266	77.772	32.2266	77.5092	32.2266	77.6962	32.2266	77.4412	32.2266	77.6174	32.2266	77.378	32.2266	77.5383	32.2266	77.3213	32.2266	77.462	32.2266	77.2723	32.2266	77.3911	32.2266	77.2324	32.2266	77.3278	32.2266	77.2027	32.2266	77.2742	32.2266	77.1841	32.2266	77.2316	32.2266	77.1773	32.2266	77.201	32.2266	77.1828
33.6914	79.1761	33.6914	79.1465	33.6914	79.1931	33.6914	79.1052	33.6914	79.1966	33.6914	79.0538	33.6914	79.1863	33.6914	78.9938	33.6914	79.1621	33.6914	78.9271	33.6914	79.1246	33.6914	78.8559	33.6914	79.0747	33.6914	78.7821	33.6914	79.0139	33.6914	78.7081	33.6914	78.9441	33.6914	78.6359	33.6914	78.8678	33.6914	78.5675	33.6914	78.7877	33.6914	78.5047	33.6914	78.7069	33.6914	78.4491	33.6914	78.6283	33.6914	78.4022	33.6914	78.5547	33.6914	78.365	33.6914	78.4885	33.6914	78.3385	33.6914	78.4317	33.6914	78.3234	33.6914	78.3857	33.6914	78.3203	33.6914	78.3515	33.6914	78.3297
35.1562	80.0792	35.1562	80.0494	35.1562	80.0957	35.1562	80.0074	35.1562	80.0982	35.1562	79.9547	35.1562	80.0863	35.1562	79.8929	35.1562	80.06	35.1562	79.8237	35.1562	80.0197	35.1562	79.7493	35.1562	79.9664	35.1562	79.6716	35.1562	79.9018	35.1562	79.5928	35.1562	79.8278	35.1562	79.5151	35.1562	79.7469	35.1562	79.4404	35.1562	79.6621	35.1562	79.3709	35.1562	79.5762	35.1562	79.3085	35.1562	79.4923	35.1562	79.2549	35.1562	79.4133	35.1562	79.2118	35.1562	79.3418	35.1562	79.1805	35.1562	79.2799	35.1562	79.1623	35.1562	79.2294	35.1562	79.1579	35.1562	79.1917	35.1562	79.1677
36.6211	80.7532	36.6211	80.724	36.6211	80.7686	36.6211	80.6822	36.6211	80.7696	36.6211	80.6291	36.6211	80.7558	36.6211	80.5663	36.6211	80.7274	36.6211	80.4955	36.6211	80.6849	36.6211	80.419	36.6211	80.6294	36.6211	80.3388	36.6211	80.5626	36.6211	80.2572	36.6211	80.4865	36.6211	80.1766	36.6211	80.4038	36.6211	80.0991	36.6211	80.3173	36.6211	80.0269	36.6211	80.23	36.6211	79.962	36.6211	80.1448	36.6211	79.9063	36.6211	80.0648	36.6211	79.8615	36.6211	79.9922	36.6211	79.829	36.6211	79.9293	36.6211	79.8099	36.6211	79.878	36.6211	79.8052	36.6211	79.8396	36.6211	79.8151
38.0859	81.2449	38.0859	81.2142	38.0859	81.2599	38.0859	81.169	38.0859	81.2586	38.0859	81.1105	38.0859	81.2406	38.0859	81.0405	38.0859	81.2061	38.0859	80.9609	38.0859	81.1557	38.0859	80.8739	38.0859	81.0905	38.0859	80.7816	38.0859	81.0123	38.0859	80.6865	38.0859	80.9231	38.0859	80.5909	38.0859	80.8256	38.0859	80.4971	38.0859	80.7228	38.0859	80.4077	38.0859	80.6181	38.0859	80.3251	38.0859	80.5149	38.0859	80.2518	38.0859	80.4166	38.0859	80.1905	38.0859	80.3267	38.0859	80.1437	38.0859	80.2485	38.0859	80.1137	38.0859	80.1849	38.0859	80.1023	38.0859	80.1383	38.0859	80.1105
39.5508	81.5985	39.5508	81.5686	39.5508	81.6158	39.5508	81.5271	39.5508	81.6197	39.5508	81.4754	39.5508	81.6097	39.5508	81.415	39.5508	81.5858	39.5508	81.3477	39.5508	81.5486	39.5508	81.2753	39.5508	81.4988	39.5508	81.1999	39.5508	81.438	39.5508	81.1233	39.5508	81.3681	39.5508	81.0476	39.5508	81.2911	39.5508	80.9746	39.5508	81.2096	39.5508	80.9063	39.5508	81.1264	39.5508	80.8445	39.5508	81.0441	39.5508	80.7912	39.5508	80.9653	39.5508	80.7481	39.5508	80.8927	39.5508	80.717	39.5508	80.8286	39.5508	80.6994	39.5508	80.7753	39.5508	80.6962	39.5508	80.7346	39.5508	80.708
41.0156	81.7965	41.0156	81.7684	41.0156	81.8119	41.0156	81.7287	41.0156	81.8141	41.0156	81.6786	41.0156	81.8029	41.0156	81.6196	41.0156	81.7784	41.0156	81.5537	41.0156	81.7413	41.0156	81.4829	41.0156	81.6927	41.0156	81.4093	41.0156	81.6342	41.0156	81.3349	41.0156	81.5678	41.0156	81.2621	41.0156	81.4958	41.0156	81.1928	41.0156	81.4204	41.0156	81.129	41.0156	81.3443	41.0156	81.0724	41.0156	81.2697	41.0156	81.0247	41.0156	81.1988	41.0156	80.9876	41.0156	81.1337	41.0156	80.9621	41.0156	81.076	41.0156	80.9493	41.0156	81.0274	41.0156	80.9496	41.0156	80.9893	41.0156	80.9631
42.4805	81.8497	42.4805	81.8212	42.4805	81.8644	42.4805	81.7799	42.4805	81.8647	42.4805	81.7275	42.4805	81.8505	42.4805	81.6656	42.4805	81.822	42.4805	81.5966	42.4805	81.7802	42.4805	81.5227	42.4805	81.7266	42.4805	81.4464	42.4805	81.6631	42.4805	81.3704	42.4805	81.5922	42.4805	81.2971	42.4805	81.5164	42.4805	81.2287	42.4805	81.4389	42.4805	81.1674	42.4805	81.3623	42.4805	81.1146	42.4805	81.2893	42.4805	81.0717	42.4805	81.2221	42.4805	81.0393	42.4805	81.1624	42.4805	81.0178	42.4805	81.1115	42.4805	81.0071	42.4805	81.0702	42.4805	81.0072	42.4805	81.0389	42.4805	81.0179
43.9453	81.8897	43.9453	81.8605	43.9453	81.9045	43.9453	81.8178	43.9453	81.9044	43.9453	81.763	43.9453	81.8894	43.9453	81.6978	43.9453	81.8598	43.9453	81.6244	43.9453	81.8167	43.9453	81.545	43.9453	81.7615	43.9453	81.4623	43.9453	81.6961	43.9453	81.379	43.9453	81.6228	43.9453	81.2978	43.9453	81.5441	43.9453	81.2216	43.9453	81.463	43.9453	81.1528	43.9453	81.382	43.9453	81.0936	43.9453	81.3039	43.9453	81.0456	43.9453	81.2309	43.9453	81.0099	43.9453	81.1648	43.9453	80.987	43.9453	81.1071	43.9453	80.9771	43.9453	81.059	43.9453	80.9798	43.9453	81.0213	43.9453	80.9947
45.4102	81.6915	45.4102	81.6595	45.4102	81.7096	45.4102	81.6146	45.4102	81.7131	45.4102	81.5581	45.4102	81.7017	45.4102	81.4917	45.4102	81.6757	45.4102	81.4172	45.4102	81.6358	45.4102	81.3368	45.4102	81.5834	45.4102	81.2528	45.4102	81.5202	45.4102	81.1679	45.4102	81.4486	45.4102	81.0848	45.4102	81.3712	45.4102	81.0064	45.4102	81.2908	45.4102	80.9356	45.4102	81.2099	45.4102	80.8747	45.4102	81.1311	45.4102	80.826	45.4102	81.0565	45.4102	80.791	45.4102	80.9876	45.4102	80.7706	45.4102	80.9258	45.4102	80.7649	45.4102	80.8723	45.4102	80.7733	45.4102	80.8283	45.4102	80.7948
46.875	81.605	46.875	81.5755	46.875	81.6231	46.875	81.5358	46.875	81.6287	46.875	81.4874	46.875	81.6214	46.875	81.4317	46.875	81.601	46.875	81.3702	46.875	81.5681	46.875	81.3047	46.875	81.5241	46.875	81.2369	46.875	81.4706	46.875	81.1689	46.875	81.4101	46.875	81.1029	46.875	81.3452	46.875	81.0411	46.875	81.2785	46.875	80.9858	46.875	81.2126	46.875	80.9389	46.875	81.1496	46.875	80.9024	46.875	81.0911	46.875	80.8771	46.875	81.0379	46.875	80.8637	46.875	80.9908	46.875	80.8618	46.875	80.95	46.875	80.8706	46.875	80.9158	46.875	80.889
48.3398	81.441	48.3398	81.4083	48.3398	81.4615	48.3398	81.3649	48.3398	81.4688	48.3398	81.3123	48.3398	81.4622	48.3398	81.2522	48.3398	81.4415	48.3398	81.1864	48.3398	81.4073	48.3398	81.1168	48.3398	81.3607	48.3398	81.0456	48.3398	81.3037	48.3398	80.9749	48.3398	81.2389	48.3398	80.907	48.3398	81.169	48.3398	80.8443	48.3398	81.0971	48.3398	80.7887	48.3398	81.0261	48.3398	80.7422	48.3398	80.9585	48.3398	80.7062	48.3398	80.8962	48.3398	80.6815	48.3398	80.8405	48.3398	80.6683	48.3398	80.7919	48.3398	80.6661	48.3398	80.7508	48.3398	80.6742	48.3398	80.7173	48.3398	80.6916
51.2695	81.6037	51.2695	81.5743	51.2695	81.6119	51.2695	81.5246	51.2695	81.5989	51.2695	81.4559	51.2695	81.5654	51.2695	81.3708	51.2695	81.5128	51.2695	81.2721	51.2695	81.4428	51.2695	81.1633	51.2695	81.358	51.2695	81.0481	51.2695	81.2612	51.2695	80.9305	51.2695	81.1557	51.2695	80.8141	51.2695	81.045	51.2695	80.7028	51.2695	80.9326	51.2695	80.6001	51.2695	80.822	51.2695	80.509	51.2695	80.7162	51.2695	80.4321	51.2695	80.6181	51.2695	80.3715	51.2695	80.5299	51.2695	80.3288	51.2695	80.4536	51.2695	80.3047	51.2695	80.3909	51.2695	80.2994	51.2695	80.3435	51.2695	80.3126
52.7344	81.333	52.7344	81.3032	52.7344	81.3428	52.7344	81.2543	52.7344	81.3324	52.7344	81.1883	52.7344	81.302	52.7344	81.1074	52.7344	81.2529	52.7344	81.0146	52.7344	81.1871	52.7344	80.9132	52.7344	81.107	52.7344	80.8067	52.7344	81.0157	52.7344	80.6986	52.7344	80.9166	52.7344	80.5926	52.7344	80.8133	52.7344	80.4919	52.7344	80.7092	52.7344	80.3997	52.7344	80.6077	52.7344	80.3187	52.7344	80.5117	52.7344	80.2511	52.7344	80.4233	52.7344	80.1985	52.7344	80.3446	52.7344	80.1621	52.7344	80.2769	52.7344	80.1423	52.7344	80.2215	52.7344	80.1389	52.7344	80.1794	52.7344	80.1515
54.1992	81.2615	54.1992	81.2306	54.1992	81.2725	54.1992	81.1809	54.1992	81.2632	54.1992	81.1139	54.1992	81.2339	54.1992	81.0319	54.1992	81.1857	54.1992	80.9376	54.1992	81.1204	54.1992	80.8342	54.1992	81.0403	54.1992	80.7249	54.1992	80.9485	54.1992	80.6132	54.1992	80.8482	54.1992	80.5028	54.1992	80.7431	54.1992	80.3971	54.1992	80.6365	54.1992	80.2995	54.1992	80.5316	54.1992	80.213	54.1992	80.4314	54.1992	80.1403	54.1992	80.338	54.1992	80.0835	54.1992	80.2535	54.1992	80.0443	54.1992	80.1795	54.1992	80.0234	54.1992	80.1176	54.1992	80.0211	54.1992	80.0695	54.1992	80.0368
55.6641	81.1015	55.6641	81.0741	55.6641	81.1114	55.6641	81.0302	55.6641	81.1033	55.6641	80.9709	55.6641	81.0774	55.6641	80.8981	55.6641	81.0344	55.6641	80.814	55.6641	80.9758	55.6641	80.7209	55.6641	80.9034	55.6641	80.6217	55.6641	80.8198	55.6641	80.5193	55.6641	80.7279	55.6641	80.417	55.6641	80.6309	55.6641	80.318	55.6641	80.5321	55.6641	80.2256	55.6641	80.4343	55.6641	80.1429	55.6641	80.3405	55.6641	80.0727	55.6641	80.2529	55.6641	80.0173	55.6641	80.1734	55.6641	79.9786	55.6641	80.1036	55.6641	79.9576	55.6641	80.0451	55.6641	79.9546	55.6641	79.9997	55.6641	79.969
58.5938	80.8391	58.5938	80.8007	58.5938	80.8612	58.5938	80.7472	58.5938	80.8659	58.5938	80.6804	58.5938	80.8529	58.5938	80.6024	58.5938	80.8227	58.5938	80.5157	58.5938	80.7761	58.5938	80.4228	58.5938	80.7148	58.5938	80.3267	58.5938	80.6411	58.5938	80.2304	58.5938	80.5575	58.5938	80.137	58.5938	80.4674	58.5938	80.0495	58.5938	80.3737	58.5938	79.9708	58.5938	80.2797	58.5938	79.9033	58.5938	80.1881	58.5938	79.8492	58.5938	80.1014	58.5938	79.8098	58.5938	80.0219	58.5938	79.7859	58.5938	79.9512	58.5938	79.7776	58.5938	79.8909	58.5938	79.7847	58.5938	79.8422	58.5938	79.8065
60.0586	80.7518	60.0586	80.7196	60.0586	80.7678	60.0586	80.6725	60.0586	80.7669	60.0586	80.6122	60.0586	80.7492	60.0586	80.541	60.0586	80.7154	60.0586	80.4616	60.0586	80.6671	60.0586	80.3767	60.0586	80.6063	60.0586	80.2898	60.0586	80.5358	60.0586	80.204	60.0586	80.4589	60.0586	80.1226	60.0586	80.3788	60.0586	80.0486	60.0586	80.2988	60.0586	79.9846	60.0586	80.2219	60.0586	79.9326	60.0586	80.1501	60.0586	79.8935	60.0586	80.0852	60.0586	79.8675	60.0586	80.0278	60.0586	79.854	60.0586	79.9784	60.0586	79.8521	60.0586	79.9369	60.0586	79.8603	60.0586	79.9033	60.0586	79.8776
62.9883	80.4966	62.9883	80.4638	62.9883	80.5109	62.9883	80.4136	62.9883	80.5064	62.9883	80.3478	62.9883	80.4834	62.9883	80.2687	62.9883	80.4429	62.9883	80.1791	62.9883	80.3866	62.9883	80.0825	62.9883	80.3169	62.9883	79.9824	62.9883	80.2369	62.9883	79.8826	62.9883	80.1499	62.9883	79.787	62.9883	80.0595	62.9883	79.6993	62.9883	79.9692	62.9883	79.6224	62.9883	79.8819	62.9883	79.559	62.9883	79.8002	62.9883	79.5104	62.9883	79.7257	62.9883	79.4773	62.9883	79.6595	62.9883	79.4593	62.9883	79.602	62.9883	79.4554	62.9883	79.5535	62.9883	79.464	62.9883	79.514	62.9883	79.4839
64.4531	80.3196	64.4531	80.2833	64.4531	80.3379	64.4531	80.2301	64.4531	80.3379	64.4531	80.1621	64.4531	80.3197	64.4531	80.0816	64.4531	80.2845	64.4531	79.9916	64.4531	80.2341	64.4531	79.8957	64.4531	80.1708	64.4531	79.7975	64.4531	80.0977	64.4531	79.7009	64.4531	80.018	64.4531	79.6096	64.4531	79.9351	64.4531	79.5272	64.4531	79.8521	64.4531	79.4568	64.4531	79.7717	64.4531	79.4005	64.4531	79.6957	64.4531	79.3598	64.4531	79.6254	64.4531	79.3349	64.4531	79.5614	64.4531	79.3253	64.4531	79.5039	64.4531	79.3296	64.4531	79.4531	64.4531	79.3463	64.4531	79.4094	64.4531	79.3733
67.3828	80.0972	67.3828	80.0598	67.3828	80.116	67.3828	80.0051	67.3828	80.1158	67.3828	79.9349	67.3828	80.0971	67.3828	79.8517	67.3828	80.061	67.3828	79.7586	67.3828	80.0096	67.3828	79.6591	67.3828	79.9456	67.3828	79.5572	67.3828	79.8723	67.3828	79.4572	67.3828	79.7934	67.3828	79.3632	67.3828	79.7125	67.3828	79.2793	67.3828	79.6328	67.3828	79.2089	67.3828	79.5567	67.3828	79.1547	67.3828	79.4857	67.3828	79.118	67.3828	79.4204	67.3828	79.0991	67.3828	79.3604	67.3828	79.0968	67.3828	79.3053	67.3828	79.1092	67.3828	79.2546	67.3828	79.1336	67.3828	79.2083	67.3828	79.1675
68.8477	80.0153	68.8477	79.9783	68.8477	80.0334	68.8477	79.9236	68.8477	80.0322	68.8477	79.853	68.8477	80.0119	68.8477	79.7693	68.8477	79.974	68.8477	79.6756	68.8477	79.9206	68.8477	79.5756	68.8477	79.8547	68.8477	79.4732	68.8477	79.7796	68.8477	79.3728	68.8477	79.6995	68.8477	79.2787	68.8477	79.6179	68.8477	79.1949	68.8477	79.5382	68.8477	79.1249	68.8477	79.463	68.8477	79.0713	68.8477	79.3935	68.8477	79.0355	68.8477	79.3301	68.8477	79.0174	68.8477	79.2724	68.8477	79.0159	68.8477	79.2196	68.8477	79.0287	68.8477	79.1709	68.8477	79.0532	68.8477	79.1263	68.8477	79.0865
71.7773	79.8574	71.7773	79.8225	71.7773	79.8712	71.7773	79.7676	71.7773	79.8634	71.7773	79.6948	71.7773	79.8349	71.7773	79.6067	71.7773	79.7871	71.7773	79.5069	71.7773	79.7227	71.7773	79.3994	71.7773	79.6451	71.7773	79.2888	71.7773	79.5584	71.7773	79.1799	71.7773	79.4673	71.7773	79.0776	71.7773	79.376	71.7773	78.9865	71.7773	79.2884	71.7773	78.9105	71.7773	79.2075	71.7773	78.8522	71.7773	79.1349	71.7773	78.8129	71.7773	79.071	71.7773	78.7923	71.7773	79.015	71.7773	78.7883	71.7773	78.9657	71.7773	78.7984	71.7773	78.9219	71.7773	78.8193	71.7773	78.8826	71.7773	78.848
74.707	79.8242	74.707	79.7936	74.707	79.8331	74.707	79.7424	74.707	79.8201	74.707	79.6726	74.707	79.7859	74.707	79.5867	74.707	79.7322	74.707	79.488	74.707	79.6616	74.707	79.3804	74.707	79.5778	74.707	79.2681	74.707	79.485	74.707	79.1559	74.707	79.3879	74.707	79.0485	74.707	79.2911	74.707	78.9507	74.707	79.1986	74.707	78.8666	74.707	79.1135	74.707	78.7991	74.707	79.0374	74.707	78.7501	74.707	78.9706	74.707	78.7197	74.707	78.9126	74.707	78.7068	74.707	78.8621	74.707	78.7091	74.707	78.8181	74.707	78.7238	74.707	78.78	74.707	78.7482
77.6367	79.7531	77.6367	79.7231	77.6367	79.7612	77.6367	79.6723	77.6367	79.7471	77.6367	79.6027	77.6367	79.7115	77.6367	79.5172	77.6367	79.6561	77.6367	79.419	77.6367	79.5838	77.6367	79.3122	77.6367	79.4985	77.6367	79.2011	77.6367	79.4048	77.6367	79.0905	77.6367	79.3079	77.6367	78.9852	77.6367	79.2126	77.6367	78.8901	77.6367	79.1233	77.6367	78.8091	77.6367	79.0429	77.6367	78.7453	77.6367	78.973	77.6367	78.7002	77.6367	78.9133	77.6367	78.674	77.6367	78.8624	77.6367	78.6651	77.6367	78.8184	77.6367	78.6709	77.6367	78.7794	77.6367	78.6881	77.6367	78.7444	77.6367	78.7134
79.1016	79.8007	79.1016	79.7694	79.1016	79.8094	79.1016	79.7168	79.1016	79.7953	79.1016	79.6451	79.1016	79.7589	79.1016	79.5571	79.1016	79.702	79.1016	79.4564	79.1016	79.6276	79.1016	79.3469	79.1016	79.5394	79.1016	79.2333	79.1016	79.4424	79.1016	79.1206	79.1016	79.3418	79.1016	79.0138	79.1016	79.2428	79.1016	78.9177	79.1016	79.1501	79.1016	78.8362	79.1016	79.067	79.1016	78.7724	79.1016	78.9951	79.1016	78.7277	79.1016	78.9344	79.1016	78.7018	79.1016	78.8834	79.1016	78.6931	79.1016	78.8401	79.1016	78.6986	79.1016	78.8023	79.1016	78.7151	79.1016	78.7687	79.1016	78.7392
82.0312	79.8852	82.0312	79.8498	82.0312	79.8966	82.0312	79.7919	82.0312	79.8837	82.0312	79.7137	82.0312	79.8472	82.0312	79.6182	82.0312	79.7888	82.0312	79.5092	82.0312	79.7115	82.0312	79.3912	82.0312	79.6193	82.0312	79.269	82.0312	79.5171	82.0312	79.1481	82.0312	79.4103	82.0312	79.0338	82.0312	79.3044	82.0312	78.9314	82.0312	79.2042	82.0312	78.8451	82.0312	79.1135	82.0312	78.7781	82.0312	79.0341	82.0312	78.7317	82.0312	78.9665	82.0312	78.7056	82.0312	78.9094	82.0312	78.6977	82.0312	78.861	82.0312	78.7048	82.0312	78.819	82.0312	78.7232	82.0312	78.7821	82.0312	78.7498
84.9609	80.0078	84.9609	79.975	84.9609	80.0174	84.9609	79.9202	84.9609	80.0037	84.9609	79.8457	84.9609	79.9674	84.9609	79.7545	84.9609	79.9104	84.9609	79.6503	84.9609	79.836	84.9609	79.5376	84.9609	79.7482	84.9609	79.4214	84.9609	79.6521	84.9609	79.3069	84.9609	79.5531	84.9609	79.1996	84.9609	79.4565	84.9609	79.1041	84.9609	79.3666	84.9609	79.0246	84.9609	79.2865	84.9609	78.9637	84.9609	79.2174	84.9609	78.9225	84.9609	79.1586	84.9609	78.9006	84.9609	79.1085	84.9609	78.8961	84.9609	79.0646	84.9609	78.906	84.9609	79.0249	84.9609	78.9268	84.9609	78.9883	84.9609	78.9551
87.8906	80.0756	87.8906	80.0352	87.8906	80.0902	87.8906	79.9705	87.8906	80.0787	87.8906	79.8841	87.8906	80.0419	87.8906	79.7796	87.8906	79.982	87.8906	79.6613	87.8906	79.9025	87.8906	79.5346	87.8906	79.8082	87.8906	79.4054	87.8906	79.7048	87.8906	79.28	87.8906	79.5986	87.8906	79.1649	87.8906	79.4957	87.8906	79.0656	87.8906	79.4011	87.8906	78.9869	87.8906	79.3183	87.8906	78.9315	87.8906	79.2487	87.8906	78.9	87.8906	79.1915	87.8906	78.8907	87.8906	79.144	87.8906	78.9	87.8906	79.103	87.8906	78.923	87.8906	79.0651	87.8906	78.9548	87.8906	79.0279	87.8906	78.9908
90.8203	80.0045	90.8203	79.9676	90.8203	80.0156	90.8203	79.9064	90.8203	80.0008	90.8203	79.8233	90.8203	79.9614	90.8203	79.722	90.8203	79.9	90.8203	79.6069	90.8203	79.8204	90.8203	79.4835	90.8203	79.7281	90.8203	79.3578	90.8203	79.6289	90.8203	79.2362	90.8203	79.5294	90.8203	79.1252	90.8203	79.4355	90.8203	79.0304	90.8203	79.3517	90.8203	78.9564	90.8203	79.2807	90.8203	78.9059	90.8203	79.2227	90.8203	78.8795	90.8203	79.1759	90.8203	78.8752	90.8203	79.1369	90.8203	78.8894	90.8203	79.1016	90.8203	78.9169	90.8203	79.0667	90.8203	78.9526	90.8203	79.0301	90.8203	78.9915
95.2148	80.333	95.2148	80.2996	95.2148	80.3387	95.2148	80.2399	95.2148	80.3163	95.2148	80.1565	95.2148	80.2671	95.2148	80.0531	95.2148	80.1939	95.2148	79.9342	95.2148	80.1012	95.2148	79.8054	95.2148	79.995	95.2148	79.6727	95.2148	79.8825	95.2148	79.5429	95.2148	79.7713	95.2148	79.4229	95.2148	79.6688	95.2148	79.3191	95.2148	79.5804	95.2148	79.2369	95.2148	79.5091	95.2148	79.1796	95.2148	79.4549	95.2148	79.1483	95.2148	79.4149	95.2148	79.1416	95.2148	79.3841	95.2148	79.1552	95.2148	79.357	95.2148	79.1836	95.2148	79.3287	95.2148	79.2204	95.2148	79.2963	95.2148	79.2594
98.1445	80.5448	98.1445	80.5182	98.1445	80.5408	98.1445	80.4625	98.1445	80.5059	98.1445	80.3808	98.1445	80.4418	98.1445	80.2769	98.1445	80.3518	98.1445	80.1559	98.1445	80.2412	98.1445	80.0237	98.1445	80.117	98.1445	79.8872	98.1445	79.9874	98.1445	79.7534	98.1445	79.8615	98.1445	79.6299	98.1445	79.7476	98.1445	79.5232	98.1445	79.652	98.1445	79.4386	98.1445	79.5784	98.1445	79.3792	98.1445	79.5268	98.1445	79.3453	98.1445	79.4939	98.1445	79.3343	98.1445	79.4741	98.1445	79.3416	98.1445	79.4608	98.1445	79.3609	98.1445	79.4481	98.1445	79.3858	98.1445	79.4319	98.1445	79.4107
101.074	80.4785	101.074	80.4612	101.074	80.4617	101.074	80.4107	101.074	80.4114	101.074	80.3294	101.074	80.3299	101.074	80.221	101.074	80.2212	101.074	80.0905	101.074	80.0916	101.074	79.9441	101.074	79.9488	101.074	79.7892	101.074	79.8021	101.074	79.6342	101.074	79.6615	101.074	79.4878	101.074	79.536	101.074	79.3585	101.074	79.4324	101.074	79.2531	101.074	79.3541	101.074	79.1764	101.074	79.3007	101.074	79.1294	101.074	79.2677	101.074	79.1101	101.074	79.2485	101.074	79.1131	101.074	79.2358	101.074	79.1313	101.074	79.223	101.074	79.1569	101.074	79.206	101.074	79.1833
105.469	80.6312	105.469	80.6135	105.469	80.6127	105.469	80.5617	105.469	80.5577	105.469	80.4797	105.469	80.468	105.469	80.3725	105.469	80.3477	105.469	80.2464	105.469	80.2036	105.469	80.1084	105.469	80.0451	105.469	79.9663	105.469	79.8835	105.469	79.8278	105.469	79.7317	105.469	79.7004	105.469	79.6019	105.469	79.5908	105.469	79.5034	105.469	79.5041	105.469	79.4407	105.469	79.4431	105.469	79.4123	105.469	79.4081	105.469	79.4111	105.469	79.3967	105.469	79.4264	105.469	79.4035	105.469	79.4468	105.469	79.4217	105.469	79.4625	105.469	79.4431	105.469	79.4676	105.469	79.4603
108.398	80.9643	108.398	80.9441	108.398	80.9468	108.398	80.8888	108.398	80.8909	108.398	80.802	108.398	80.7979	108.398	80.6889	108.398	80.6709	108.398	80.5559	108.398	80.5157	108.398	80.4103	108.398	80.3411	108.398	80.2605	108.398	80.1582	108.398	80.1149	108.398	79.9805	108.398	79.9818	108.398	79.8223	108.398	79.8684	108.398	79.696	108.398	79.7798	108.398	79.6101	108.398	79.7185	108.398	79.5665	108.398	79.6836	108.398	79.5603	108.398	79.671	108.398	79.5811	108.398	79.6739	108.398	79.6155	108.398	79.6839	108.398	79.6511	108.398	79.6923	108.398	79.6781	108.398	79.6918
112.793	80.968	112.793	80.9412	112.793	80.9565	112.793	80.8786	112.793	80.906	112.793	80.7841	112.793	80.8177	112.793	80.6631	112.793	80.6949	112.793	80.5224	112.793	80.5438	112.793	80.3703	112.793	80.3729	112.793	80.2158	112.793	80.1937	112.793	80.0684	112.793	80.0195	112.793	79.9372	112.793	79.8641	112.793	79.8297	112.793	79.7397	112.793	79.7507	112.793	79.6544	112.793	79.7016	112.793	79.6101	112.793	79.6798	112.793	79.6023	112.793	79.6795	112.793	79.6209	112.793	79.6927	112.793	79.6533	112.793	79.7101	112.793	79.6873	112.793	79.7232	112.793	79.713	112.793	79.7253
117.188	81.0758	117.188	81.05	117.188	81.0588	117.188	80.9836	117.188	80.9986	117.188	80.8802	117.188	80.8968	117.188	80.7452	117.188	80.7571	117.188	80.5858	117.188	80.5862	117.188	80.4108	117.188	80.3939	117.188	80.2309	117.188	80.1932	117.188	80.058	117.188	80	117.188	79.9042	117.188	79.831	117.188	79.7803	117.188	79.7011	117.188	79.694	117.188	79.6196	117.188	79.6479	117.188	79.5882	117.188	79.639	117.188	79.5995	117.188	79.6589	117.188	79.6397	117.188	79.6958	117.188	79.692	117.188	79.7363	117.188	79.7401	117.188	79.768	117.188	79.7722	117.188	79.7817
120.117	81.1879	120.117	81.1636	120.117	81.1702	120.117	81.1	120.117	81.1092	120.117	81.0011	120.117	81.0052	120.117	80.8721	120.117	80.8607	120.117	80.7195	120.117	80.6809	120.117	80.5513	120.117	80.4745	120.117	80.3768	120.117	80.254	120.117	80.2065	120.117	80.0356	120.117	80.0514	120.117	79.8381	120.117	79.9221	120.117	79.6797	120.117	79.8265	120.117	79.5745	120.117	79.7685	120.117	79.5282	120.117	79.7465	120.117	79.5362	120.117	79.7531	120.117	79.5844	120.117	79.7764	120.117	79.6535	120.117	79.8024	120.117	79.7239	120.117	79.8176	120.117	79.7797	120.117	79.8116
124.512	81.3189	124.512	81.2778	124.512	81.3155	124.512	81.1956	124.512	81.2662	124.512	81.077	124.512	81.1712	124.512	80.9281	124.512	81.0332	124.512	80.7569	124.512	80.8577	124.512	80.5725	124.512	80.6536	124.512	80.3859	124.512	80.4334	124.512	80.2089	124.512	80.2132	124.512	80.0536	124.512	80.0117	124.512	79.9305	124.512	79.8472	124.512	79.8468	124.512	79.7342	124.512	79.8049	124.512	79.6791	124.512	79.8007	124.512	79.6785	124.512	79.8248	124.512	79.7194	124.512	79.8636	124.512	79.7828	124.512	79.9022	124.512	79.8487	124.512	79.9267	124.512	79.9005	124.512	79.9275
128.906	81.4169	128.906	81.371	128.906	81.4156	128.906	81.2809	128.906	81.3658	128.906	81.1509	128.906	81.2678	128.906	80.9873	128.906	81.1245	128.906	80.7977	128.906	80.9409	128.906	80.5918	128.906	80.7256	128.906	80.3813	128.906	80.4908	128.906	80.1795	128.906	80.2523	128.906	80.0005	128.906	80.0291	128.906	79.8574	128.906	79.8411	128.906	79.7596	128.906	79.7053	128.906	79.7108	128.906	79.6314	128.906	79.7072	128.906	79.6181	128.906	79.7376	128.906	79.6533	128.906	79.7858	128.906	79.7168	128.906	79.8337	128.906	79.7859	128.906	79.8652	128.906	79.841	128.906	79.8689
133.301	81.4791	133.301	81.4282	133.301	81.481	133.301	81.331	133.301	81.4329	133.301	81.1918	133.301	81.3355	133.301	81.0164	133.301	81.1919	133.301	80.8127	133.301	81.0076	133.301	80.5905	133.301	80.7911	133.301	80.3617	133.301	80.5546	133.301	80.1405	133.301	80.3137	133.301	79.9424	133.301	80.0867	133.301	79.7822	133.301	79.8926	133.301	79.6712	133.301	79.7479	133.301	79.6145	133.301	79.6622	133.301	79.609	133.301	79.635	133.301	79.6429	133.301	79.6552	133.301	79.6989	133.301	79.7037	133.301	79.7571	133.301	79.7588	133.301	79.8002	133.301	79.8007	133.301	79.8161
139.16	81.4964	139.16	81.4508	139.16	81.4927	139.16	81.3574	139.16	81.4396	139.16	81.2198	139.16	81.3388	139.16	81.0429	139.16	81.1939	139.16	80.8334	139.16	81.0105	139.16	80.5994	139.16	80.7963	139.16	80.3512	139.16	80.5613	139.16	80.1011	139.16	80.3179	139.16	79.8628	139.16	80.0803	139.16	79.6512	139.16	79.8636	139.16	79.4797	139.16	79.6816	139.16	79.3585	139.16	79.5444	139.16	79.2906	139.16	79.4555	139.16	79.2712	139.16	79.4101	139.16	79.2878	139.16	79.3963	139.16	79.3235	139.16	79.3979	139.16	79.361	139.16	79.3989	139.16	79.3878
143.555	81.1759	143.555	81.1317	143.555	81.1739	143.555	81.0437	143.555	81.1253	143.555	80.9166	143.555	81.0322	143.555	80.7568	143.555	80.8994	143.555	80.5727	143.555	80.7348	143.555	80.375	143.555	80.5492	143.555	80.1756	143.555	80.3566	143.555	79.9878	143.555	80.1726	143.555	79.8246	143.555	80.0128	143.555	79.6971	143.555	79.8898	143.555	79.6126	143.555	79.8104	143.555	79.5732	143.555	79.7738	143.555	79.575	143.555	79.7718	143.555	79.6091	143.555	79.7912	143.555	79.6631	143.555	79.817	143.555	79.7238	143.555	79.8357	143.555	79.7788	143.555	79.8378	143.555	79.8186
147.949	81.2987	147.949	81.2527	147.949	81.2912	147.949	81.1552	147.949	81.2301	147.949	81.0098	147.949	81.1174	147.949	80.8224	147.949	80.9578	147.949	80.6015	147.949	80.7594	147.949	80.3583	147.949	80.534	147.949	80.108	147.949	80.298	147.949	79.8686	147.949	80.0713	147.949	79.66	147.949	79.8751	147.949	79.5008	147.949	79.7286	147.949	79.4043	147.949	79.6435	147.949	79.3748	147.949	79.6204	147.949	79.4061	147.949	79.6483	147.949	79.4826	147.949	79.7069	147.949	79.5834	147.949	79.7728	147.949	79.6867	147.949	79.8244	147.949	79.7732	147.949	79.8457	147.949	79.8287
153.809	81.2488	153.809	81.2143	153.809	81.2225	153.809	81.1207	153.809	81.1355	153.809	80.9719	153.809	80.9907	153.809	80.774	153.809	80.7937	153.809	80.5358	153.809	80.5541	153.809	80.2699	153.809	80.2858	153.809	79.9924	153.809	80.008	153.809	79.7239	153.809	79.744	153.809	79.4872	153.809	79.5197	153.809	79.3046	153.809	79.358	153.809	79.1926	153.809	79.2734	153.809	79.1573	153.809	79.2662	153.809	79.1917	153.809	79.3219	153.809	79.2774	153.809	79.415	153.809	79.3893	153.809	79.5162	153.809	79.5013	153.809	79.5988	153.809	79.5908	153.809	79.6437	153.809	79.6411
159.668	81.2878	159.668	81.2668	159.668	81.2476	159.668	81.1856	159.668	81.1472	159.668	81.0466	159.668	80.9895	159.668	80.8539	159.668	80.7802	159.668	80.6138	159.668	80.5287	159.668	80.3359	159.668	80.2487	159.668	80.034	159.668	79.9595	159.668	79.7278	159.668	79.685	159.668	79.4421	159.668	79.452	159.668	79.2054	159.668	79.2853	159.668	79.0433	159.668	79.2001	159.668	78.9716	159.668	79.1969	159.668	78.9899	159.668	79.2595	159.668	79.0804	159.668	79.3595	159.668	79.2136	159.668	79.4641	159.668	79.3558	159.668	79.5438	159.668	79.477	159.668	79.5776	159.668	79.5549
165.527	81.1162	165.527	81.0958	165.527	81.0738	165.527	81.0156	165.527	80.9672	165.527	80.8799	165.527	80.7977	165.527	80.6944	165.527	80.5695	165.527	80.4664	165.527	80.2915	165.527	80.2056	165.527	79.9784	165.527	79.9251	165.527	79.652	165.527	79.6423	165.527	79.3415	165.527	79.3794	165.527	79.0807	165.527	79.1613	165.527	78.9016	165.527	79.0111	165.527	78.8245	165.527	78.9436	165.527	78.8496	165.527	78.9592	165.527	78.9552	165.527	79.0422	165.527	79.1049	165.527	79.1646	165.527	79.2584	165.527	79.2937	165.527	79.3813	165.527	79.3985	165.527	79.4504	165.527	79.4554
171.387	80.9951	171.387	80.9604	171.387	80.9608	171.387	80.8599	171.387	80.8557	171.387	80.6978	171.387	80.6799	171.387	80.4802	171.387	80.4357	171.387	80.2146	171.387	80.1289	171.387	79.9118	171.387	79.7705	171.387	79.5867	171.387	79.3791	171.387	79.2597	171.387	78.9838	171.387	78.957	171.387	78.6249	171.387	78.7087	171.387	78.3494	171.387	78.5424	171.387	78.1988	171.387	78.4751	171.387	78.1911	171.387	78.5054	171.387	78.3094	171.387	78.6124	171.387	78.5069	171.387	78.7605	171.387	78.7248	171.387	78.9091	171.387	78.9112	171.387	79.0206	171.387	79.0305	171.387	79.0666
177.246	80.9462	177.246	80.9121	177.246	80.9116	177.246	80.8098	177.246	80.8083	177.246	80.6407	177.246	80.6376	177.246	80.4072	177.246	80.4016	177.246	80.1139	177.246	80.1042	177.246	79.7693	177.246	79.7524	177.246	79.3879	177.246	79.3578	177.246	78.993	177.246	78.9396	177.246	78.618	177.246	78.5283	177.246	78.3037	177.246	78.1663	177.246	78.0897	177.246	77.9032	177.246	78.0007	177.246	77.7796	177.246	78.0345	177.246	77.8069	177.246	78.1602	177.246	77.9568	177.246	78.3288	177.246	78.1708	177.246	78.4878	177.246	78.3837	177.246	78.5932	177.246	78.5424	177.246	78.6152
183.105	80.8005	183.105	80.8045	183.105	80.7411	183.105	80.7508	183.105	80.6284	183.105	80.6371	183.105	80.4651	183.105	80.4602	183.105	80.2544	183.105	80.2168	183.105	80	183.105	79.9045	183.105	79.7057	183.105	79.5245	183.105	79.3761	183.105	79.0852	183.105	79.0175	183.105	78.6071	183.105	78.6407	183.105	78.1271	183.105	78.2642	183.105	77.6981	183.105	77.9166	183.105	77.3784	183.105	77.6344	183.105	77.2085	183.105	77.4512	183.105	77.1889	183.105	77.3809	183.105	77.2768	183.105	77.4054	183.105	77.4065	183.105	77.4793	183.105	77.5163	183.105	77.5477	183.105	77.5666
188.965	80.2382	188.965	80.2624	188.965	80.1585	188.965	80.2325	188.965	80.0229	188.965	80.151	188.965	79.8341	188.965	80.0198	188.965	79.5983	188.965	79.8401	188.965	79.3259	188.965	79.6126	188.965	79.0316	188.965	79.3385	188.965	78.7334	188.965	79.0213	188.965	78.4503	188.965	78.6703	188.965	78.1998	188.965	78.3033	188.965	77.9945	188.965	77.9485	188.965	77.8408	188.965	77.6423	188.965	77.738	188.965	77.4199	188.965	77.6788	188.965	77.3022	188.965	77.6506	188.965	77.2848	188.965	77.6368	188.965	77.34	188.965	77.6191	188.965	77.4288	188.965	77.5816	188.965	77.5164
196.289	80.1796	196.289	80.2152	196.289	80.079	196.289	80.1882	196.289	79.9133	196.289	80.1021	196.289	79.6862	196.289	79.9609	196.289	79.4057	196.289	79.7681	196.289	79.0844	196.289	79.5267	196.289	78.7397	196.289	79.2399	196.289	78.3923	196.289	78.913	196.289	78.0646	196.289	78.556	196.289	77.7774	196.289	78.1869	196.289	77.5477	196.289	77.833	196.289	77.3863	196.289	77.5293	196.289	77.2964	196.289	77.3098	196.289	77.2716	196.289	77.1943	196.289	77.2957	196.289	77.1775	196.289	77.3439	196.289	77.2296	196.289	77.3875	196.289	77.308	196.289	77.4017	196.289	77.3735
203.613	80.0964	203.613	80.1387	203.613	79.9831	203.613	80.115	203.613	79.7959	203.613	80.0307	203.613	79.5346	203.613	79.8911	203.613	79.2032	203.613	79.7008	203.613	78.8113	203.613	79.464	203.613	78.375	203.613	79.1853	203.613	77.918	203.613	78.8711	203.613	77.471	203.613	78.532	203.613	77.0697	203.613	78.1837	203.613	76.7498	203.613	77.8482	203.613	76.5381	203.613	77.5511	203.613	76.4452	203.613	77.3163	203.613	76.4604	203.613	77.1571	203.613	76.5544	203.613	77.0703	203.613	76.6874	203.613	77.0348	203.613	76.8206	203.613	77.0184	203.613	76.9254	203.613	76.9893
210.938	79.9152	210.938	79.9727	210.938	79.7936	210.938	79.9711	210.938	79.6049	210.938	79.916	210.938	79.3494	210.938	79.8129	210.938	79.0322	210.938	79.6655	210.938	78.6641	210.938	79.4766	210.938	78.2632	210.938	79.2478	210.938	77.855	210.938	78.9813	210.938	77.4706	210.938	78.6828	210.938	77.1423	210.938	78.3639	210.938	76.8967	210.938	78.0437	210.938	76.7475	210.938	77.7484	210.938	76.6929	210.938	77.5049	210.938	76.7172	210.938	77.3318	210.938	76.7956	210.938	77.2307	210.938	76.8997	210.938	77.1841	210.938	77.0028	210.938	77.1625	210.938	77.0846	210.938	77.136
218.262	79.7619	218.262	79.7843	218.262	79.6613	218.262	79.7372	218.262	79.4759	218.262	79.631	218.262	79.2025	218.262	79.4771	218.262	78.8428	218.262	79.2878	218.262	78.4062	218.262	79.075	218.262	77.9139	218.262	78.851	218.262	77.4043	218.262	78.6279	218.262	76.9352	218.262	78.4177	218.262	76.5782	218.262	78.2325	218.262	76.3967	218.262	78.0839	218.262	76.4152	218.262	77.9809	218.262	76.6041	218.262	77.9274	218.262	76.8956	218.262	77.9193	218.262	77.2156	218.262	77.943	218.262	77.5074	218.262	77.9771	218.262	77.7373	218.262	77.9958	218.262	77.8923	218.262	77.9743
225.586	80.4362	225.586	80.446	225.586	80.3419	225.586	80.3789	225.586	80.156	225.586	80.2427	225.586	79.8729	225.586	80.045	225.586	79.489	225.586	79.7935	225.586	79.0049	225.586	79.4966	225.586	78.4284	225.586	79.1646	225.586	77.7805	225.586	78.8121	225.586	77.1048	225.586	78.4607	225.586	76.4781	225.586	78.1394	225.586	76.0099	225.586	77.8822	225.586	75.8087	225.586	77.7193	225.586	75.9165	225.586	77.6655	225.586	76.2724	225.586	77.7099	225.586	76.7496	225.586	77.8168	225.586	77.2245	225.586	77.9354	225.586	77.6136	225.586	78.013	225.586	77.876	225.586	78.0041
232.91	80.466	232.91	80.4761	232.91	80.3798	232.91	80.4188	232.91	80.2092	232.91	80.3021	232.91	79.9464	232.91	80.1333	232.91	79.5842	232.91	79.9188	232.91	79.1175	232.91	79.6633	232.91	78.5444	232.91	79.3718	232.91	77.8714	232.91	79.0502	232.91	77.1214	232.91	78.7088	232.91	76.3492	232.91	78.3647	232.91	75.6563	232.91	78.0436	232.91	75.1856	232.91	77.7766	232.91	75.0602	232.91	77.5909	232.91	75.2905	232.91	77.496	232.91	75.7571	232.91	77.4745	232.91	76.296	232.91	77.483	232.91	76.7802	232.91	77.4648	232.91	77.1424	232.91	77.3649
241.699	80.2586	241.699	80.2045	241.699	80.2371	241.699	80.0845	241.699	80.132	241.699	79.9101	241.699	79.9369	241.699	79.6941	241.699	79.6465	241.699	79.4496	241.699	79.2555	241.699	79.1887	241.699	78.7588	241.699	78.9222	241.699	78.1531	241.699	78.6591	241.699	77.4425	241.699	78.4081	241.699	76.649	241.699	78.1782	241.699	75.834	241.699	77.98	241.699	75.1205	241.699	77.8236	241.699	74.6842	241.699	77.7139	241.699	74.6615	241.699	77.644	241.699	75.0279	241.699	77.5911	241.699	75.6118	241.699	77.5179	241.699	76.2252	241.699	77.3794	241.699	76.7481	241.699	77.1326
250.488	81.1324	250.488	80.9978	250.488	81.1782	250.488	80.7774	250.488	81.1329	250.488	80.4751	250.488	80.9942	250.488	80.0972	250.488	80.76	250.488	79.6533	250.488	80.4274	250.488	79.1596	250.488	79.9923	250.488	78.641	250.488	79.4504	250.488	78.1334	250.488	78.7996	250.488	77.682	250.488	78.047	250.488	77.3321	250.488	77.2243	250.488	77.1153	250.488	76.4088	250.488	77.0359	250.488	75.7389	250.488	77.0666	250.488	75.3779	250.488	77.1574	250.488	75.4071	250.488	77.2492	250.488	75.7472	250.488	77.2852	250.488	76.2222	250.488	77.2185	250.488	76.6756	250.488	77.0179
259.277	80.9305	259.277	80.9042	259.277	80.8781	259.277	80.8	259.277	80.7479	259.277	80.6196	259.277	80.5423	259.277	80.3656	259.277	80.2647	259.277	80.0415	259.277	79.9179	259.277	79.6542	259.277	79.5032	259.277	79.2167	259.277	79.0197	259.277	78.7531	259.277	78.4673	259.277	78.3008	259.277	77.8541	259.277	77.9096	259.277	77.211	259.277	77.6298	259.277	76.6096	259.277	77.4921	259.277	76.1662	259.277	77.491	259.277	76.0002	259.277	77.5835	259.277	76.1481	259.277	77.7057	259.277	76.5223	259.277	77.7915	259.277	76.973	259.277	77.7857	259.277	77.3729	259.277	77.6508
268.066	81.0095	268.066	80.9325	268.066	80.9906	268.066	80.7569	268.066	80.8794	268.066	80.4811	268.066	80.6809	268.066	80.1049	268.066	80.4007	268.066	79.6309	268.066	80.0444	268.066	79.0694	268.066	79.6155	268.066	78.4453	268.066	79.1143	268.066	77.8083	268.066	78.5374	268.066	77.2389	268.066	77.8827	268.066	76.8362	268.066	77.164	268.066	76.6765	268.066	76.4372	268.066	76.7648	268.066	75.8296	268.066	77.0283	268.066	75.5233	268.066	77.357	268.066	75.6375	268.066	77.6486	268.066	76.1012	268.066	77.826	268.066	76.7064	268.066	77.8364	268.066	77.2592	268.066	77.649
276.855	81.2338	276.855	81.2063	276.855	81.1734	276.855	81.0903	276.855	81.0259	276.855	80.8842	276.855	80.7941	276.855	80.583	276.855	80.4823	276.855	80.177	276.855	80.0967	276.855	79.6526	276.855	79.6444	276.855	78.9977	276.855	79.1338	276.855	78.2131	276.855	78.5763	276.855	77.3352	276.855	77.9894	276.855	76.4658	276.855	77.4009	276.855	75.7866	276.855	76.8551	276.855	75.491	276.855	76.4149	276.855	75.6284	276.855	76.1527	276.855	76.048	276.855	76.1179	276.855	76.5294	276.855	76.2955	276.855	76.9087	276.855	76.5968	276.855	77.1029	276.855	76.8985	276.855	77.0907
287.109	81.2047	287.109	81.2408	287.109	81.0944	287.109	81.2002	287.109	80.9143	287.109	81.0813	287.109	80.6714	287.109	80.8811	287.109	80.3739	287.109	80.5937	287.109	80.0282	287.109	80.2101	287.109	79.6356	287.109	79.7199	287.109	79.191	287.109	79.117	287.109	78.6854	287.109	78.4103	287.109	78.1169	287.109	77.6422	287.109	77.5099	287.109	76.9085	287.109	76.936	287.109	76.3571	287.109	76.5129	287.109	76.1235	287.109	76.3505	287.109	76.2258	287.109	76.4613	287.109	76.5418	287.109	76.7402	287.109	76.9022	287.109	77.0406	287.109	77.1779	287.109	77.248	287.109	77.2999
297.363	81.5829	297.363	81.6534	297.363	81.4227	297.363	81.6423	297.363	81.1645	297.363	81.5528	297.363	80.8023	297.363	81.3809	297.363	80.3358	297.363	81.114	297.363	79.7714	297.363	80.7333	297.363	79.1237	297.363	80.2179	297.363	78.4148	297.363	79.5542	297.363	77.6736	297.363	78.7494	297.363	76.9382	297.363	77.8563	297.363	76.2668	297.363	77.0031	297.363	75.7564	297.363	76.3956	297.363	75.5379	297.363	76.2186	297.363	75.7017	297.363	76.4722	297.363	76.1942	297.363	76.9636	297.363	76.8303	297.363	77.4648	297.363	77.4107	297.363	77.8184	297.363	77.8019	297.363	77.9413
307.617	81.0264	307.617	80.9397	307.617	81.0495	307.617	80.8099	307.617	80.9913	307.617	80.6562	307.617	80.8374	307.617	80.49	307.617	80.5763	307.617	80.3086	307.617	80.1977	307.617	80.0931	307.617	79.6904	307.617	79.8123	307.617	79.0423	307.617	79.4323	307.617	78.2425	307.617	78.9289	307.617	77.2939	307.617	78.304	307.617	76.2432	307.617	77.6058	307.617	75.2365	307.617	76.9466	307.617	74.5569	307.617	76.4872	307.617	74.4826	307.617	76.3478	307.617	74.9844	307.617	76.5023	307.617	75.7371	307.617	76.7912	307.617	76.4289	307.617	77.0316	307.617	76.8966	307.617	77.0911
319.336	80.9477	319.336	80.8797	319.336	80.9398	319.336	80.7488	319.336	80.8471	319.336	80.5683	319.336	80.6671	319.336	80.3462	319.336	80.4023	319.336	80.0814	319.336	80.0553	319.336	79.7643	319.336	79.6221	319.336	79.3816	319.336	79.0859	319.336	78.9238	319.336	78.4147	319.336	78.3952	319.336	77.5669	319.336	77.8242	319.336	76.514	319.336	77.2711	319.336	75.2984	319.336	76.8247	319.336	74.1514	319.336	76.5711	319.336	73.558	319.336	76.5402	319.336	73.8627	319.336	76.6744	319.336	74.7611	319.336	76.8526	319.336	75.7146	319.336	76.9411	319.336	76.4279	319.336	76.8265
329.59	80.564	329.59	80.4464	329.59	80.5936	329.59	80.2625	329.59	80.5264	329.59	80.0423	329.59	80.365	329.59	79.8151	329.59	80.1213	329.59	79.5953	329.59	79.8112	329.59	79.3719	329.59	79.4469	329.59	79.1094	329.59	79.0285	329.59	78.763	329.59	78.5366	329.59	78.3019	329.59	77.9325	329.59	77.7349	329.59	77.1724	329.59	77.1347	329.59	76.2458	329.59	76.6415	329.59	75.2496	329.59	76.4062	329.59	74.4788	329.59	76.4755	329.59	74.3313	329.59	76.7376	329.59	74.8705	329.59	77.0035	329.59	75.7127	329.59	77.1076	329.59	76.4658	329.59	76.9433
341.309	80.8888	341.309	80.6973	341.309	80.9645	341.309	80.4067	341.309	80.922	341.309	80.0477	341.309	80.7703	341.309	79.6601	341.309	80.5263	341.309	79.2821	341.309	80.2099	341.309	78.9363	341.309	79.8383	341.309	78.6201	341.309	79.4171	341.309	78.3083	341.309	78.9325	341.309	77.9695	341.309	78.3494	341.309	77.5898	341.309	77.6242	341.309	77.1978	341.309	76.7381	341.309	76.8746	341.309	75.7653	341.309	76.7251	341.309	74.967	341.309	76.8018	341.309	74.7413	341.309	77.0433	341.309	75.215	341.309	77.3004	341.309	76.0366	341.309	77.4129	341.309	76.7889	341.309	77.2612
353.027	81.2317	353.027	81.1019	353.027	81.2284	353.027	80.8468	353.027	81.0912	353.027	80.4799	353.027	80.828	353.027	80.0202	353.027	80.4572	353.027	79.4883	353.027	80.0073	353.027	78.9012	353.027	79.5114	353.027	78.2659	353.027	78.9958	353.027	77.5823	353.027	78.4635	353.027	76.8605	353.027	77.8857	353.027	76.1528	353.027	77.2142	353.027	75.5836	353.027	76.4221	353.027	75.3252	353.027	75.5735	353.027	75.4731	353.027	74.8927	353.027	75.9312	353.027	74.6972	353.027	76.4752	353.027	75.0853	353.027	76.8968	353.027	75.7918	353.027	77.0662	353.027	76.4738	353.027	76.9247
366.211	82.1109	366.211	82.0083	366.211	82.098	366.211	81.7991	366.211	81.9618	366.211	81.491	366.211	81.6973	366.211	81.0869	366.211	81.3045	366.211	80.5812	366.211	80.7906	366.211	79.9581	366.211	80.1722	366.211	79.1935	366.211	79.4718	366.211	78.263	366.211	78.7088	366.211	77.1587	366.211	77.8854	366.211	75.9254	366.211	76.9831	366.211	74.7312	366.211	75.9911	366.211	73.929	366.211	74.989	366.211	73.8814	366.211	74.2573	366.211	74.5325	366.211	74.1881	366.211	75.448	366.211	74.8152	366.211	76.2433	366.211	75.704	366.211	76.7174	366.211	76.429	366.211	76.7856
379.395	81.5179	379.395	81.3517	379.395	81.6104	379.395	81.1486	379.395	81.6023	379.395	80.9463	379.395	81.4791	379.395	80.7676	379.395	81.2387	379.395	80.6054	379.395	80.8885	379.395	80.4185	379.395	80.44	379.395	80.1429	379.395	79.8988	379.395	79.7095	379.395	79.2532	379.395	79.0603	379.395	78.4694	379.395	78.165	379.395	77.501	379.395	77.0521	379.395	76.3256	379.395	75.8688	379.395	75.0319	379.395	74.9342	379.395	73.9592	379.395	74.6011	379.395	73.6322	379.395	74.8807	379.395	74.1458	379.395	75.4135	379.395	74.98	379.395	75.835	379.395	75.646	379.395	75.9396
392.578	81.3382	392.578	81.1392	392.578	81.3932	392.578	80.8149	392.578	81.303	392.578	80.4054	392.578	81.0828	392.578	79.9715	392.578	80.763	392.578	79.5781	392.578	80.3848	392.578	79.2613	392.578	79.9879	392.578	78.9975	392.578	79.5907	392.578	78.708	392.578	79.1724	392.578	78.2991	392.578	78.6691	392.578	77.7099	392.578	77.992	392.578	76.9552	392.578	77.0672	392.578	76.1708	392.578	75.9069	392.578	75.6203	392.578	74.7388	392.578	75.5415	392.578	74.0898	392.578	75.8854	392.578	74.3528	392.578	76.3451	392.578	75.196	392.578	76.6188	392.578	76.0295	392.578	76.5315
405.762	81.4622	405.762	81.2995	405.762	81.4472	405.762	80.9737	405.762	81.2574	405.762	80.516	405.762	80.9132	405.762	79.974	405.762	80.4516	405.762	79.4062	405.762	79.922	405.762	78.8668	405.762	79.3801	405.762	78.3797	405.762	78.8732	405.762	77.9208	405.762	78.4146	405.762	77.4305	405.762	77.96	405.762	76.8535	405.762	77.4157	405.762	76.1937	405.762	76.6913	405.762	75.5706	405.762	75.7909	405.762	75.2234	405.762	74.9353	405.762	75.3465	405.762	74.5739	405.762	75.8538	405.762	74.9558	405.762	76.4397	405.762	75.7494	405.762	76.8242	405.762	76.4687	405.762	76.85
420.41	81.8711	420.41	81.6597	420.41	81.9506	420.41	81.344	420.41	81.8935	420.41	80.9705	420.41	81.7144	420.41	80.5893	420.41	81.4402	420.41	80.2275	420.41	81.1007	420.41	79.868	420.41	80.7177	420.41	79.4519	420.41	80.29	420.41	78.9043	420.41	79.7785	420.41	78.1674	420.41	79.0976	420.41	77.2333	420.41	78.1227	420.41	76.1846	420.41	76.7166	420.41	75.2447	420.41	74.8181	420.41	74.7527	420.41	72.7873	420.41	74.9055	420.41	71.9997	420.41	75.5106	420.41	73.1693	420.41	76.1777	420.41	74.8248	420.41	76.5975	420.41	76.0133	420.41	76.5827
435.059	81.7268	435.059	81.5696	435.059	81.6854	435.059	81.2249	435.059	81.4565	435.059	80.7356	435.059	81.0693	435.059	80.1855	435.059	80.5757	435.059	79.6884	435.059	80.0621	435.059	79.3323	435.059	79.6486	435.059	79.1058	435.059	79.4346	435.059	78.8896	435.059	79.3976	435.059	78.5298	435.059	79.3663	435.059	77.9202	435.059	79.1156	435.059	77.0648	435.059	78.4702	435.059	76.1618	435.059	77.3721	435.059	75.6467	435.059	76.0126	435.059	75.8679	435.059	75.0509	435.059	76.6031	435.059	75.2105	435.059	77.3397	435.059	76.1663	435.059	77.7412	435.059	77.1184	435.059	77.6748
451.172	82.2645	451.172	81.9492	451.172	82.3899	451.172	81.4532	451.172	82.316	451.172	80.7938	451.172	82.0303	451.172	80.0081	451.172	81.5175	451.172	79.1644	451.172	80.7696	451.172	78.3529	451.172	79.8063	451.172	77.6372	451.172	78.7048	451.172	76.9943	451.172	77.6116	451.172	76.3142	451.172	76.6741	451.172	75.4778	451.172	75.8878	451.172	74.4699	451.172	75.0374	451.172	73.5262	451.172	73.8549	451.172	73.1829	451.172	72.3383	451.172	73.7599	451.172	71.339	451.172	74.8362	451.172	72.1347	451.172	75.8048	451.172	73.9414	451.172	76.3225	451.172	75.436	451.172	76.2296
465.82	81.8575	465.82	81.6893	465.82	81.8568	465.82	81.3425	465.82	81.701	465.82	80.8201	465.82	81.4	465.82	80.1454	465.82	80.9582	465.82	79.3645	465.82	80.384	465.82	78.5376	465.82	79.7077	465.82	77.7118	465.82	78.9891	465.82	76.885	465.82	78.2926	465.82	75.9923	465.82	77.6271	465.82	74.9424	465.82	76.8946	465.82	73.7229	465.82	75.902	465.82	72.6021	465.82	74.4366	465.82	72.244	465.82	72.4366	465.82	72.9852	465.82	70.5674	465.82	74.1913	465.82	70.6262	465.82	75.1467	465.82	72.4225	465.82	75.5261	465.82	74.1607	465.82	75.2137
483.398	81.6249	483.398	81.3957	483.398	81.6592	483.398	80.9941	483.398	81.5017	483.398	80.4725	483.398	81.1728	483.398	79.9113	483.398	80.7032	483.398	79.3986	483.398	80.1338	483.398	78.9853	483.398	79.5265	483.398	78.6387	483.398	78.9706	483.398	78.2379	483.398	78.548	483.398	77.6154	483.398	78.2489	483.398	76.6024	483.398	77.9189	483.398	75.0644	483.398	77.3189	483.398	73.016	483.398	76.2435	483.398	71.1213	483.398	74.6684	483.398	71.0162	483.398	73.0768	483.398	72.5612	483.398	72.6098	483.398	74.0815	483.398	73.4625	483.398	74.9354	483.398	74.5071	483.398	75.0595
499.512	81.5796	499.512	81.3505	499.512	81.6179	499.512	80.9412	499.512	81.4773	499.512	80.3999	499.512	81.1768	499.512	79.8146	499.512	80.736	499.512	79.2861	499.512	80.183	499.512	78.8693	499.512	79.5668	499.512	78.522	499.512	78.9565	499.512	78.1122	499.512	78.4063	499.512	77.4725	499.512	77.8917	499.512	76.4479	499.512	77.2736	499.512	74.9282	499.512	76.3328	499.512	72.9575	499.512	74.8614	499.512	71.1745	499.512	72.8948	499.512	71.0517	499.512	71.4278	499.512	72.5482	499.512	72.0534	499.512	74.1525	499.512	73.7529	499.512	75.1807	499.512	75.0154	499.512	75.4866
517.09	81.7626	517.09	81.3889	517.09	81.8753	517.09	80.7716	517.09	81.7215	517.09	79.9738	517.09	81.3021	517.09	79.1677	517.09	80.6439	517.09	78.6607	517.09	79.8481	517.09	78.6902	517.09	79.1454	517.09	79.104	517.09	78.8335	517.09	79.4891	517.09	78.9931	517.09	79.5082	517.09	79.3359	517.09	78.966	517.09	79.4496	517.09	77.7279	517.09	79.0052	517.09	75.6723	517.09	77.7514	517.09	72.8673	517.09	75.4734	517.09	70.7012	517.09	72.2828	517.09	71.6243	517.09	70.4977	517.09	73.6914	517.09	72.3078	517.09	74.9919	517.09	74.3223	517.09	75.2222
536.133	82.2379	536.133	81.8882	536.133	82.3111	536.133	81.236	536.133	82.0993	536.133	80.2212	536.133	81.5625	536.133	78.7707	536.133	80.6274	536.133	76.8985	536.133	79.1835	536.133	75.0587	536.133	77.1139	536.133	74.4969	536.133	74.5695	536.133	75.5487	536.133	73.0418	536.133	76.8704	536.133	74.2482	536.133	77.6037	536.133	76.1743	536.133	77.5154	536.133	77.2458	536.133	76.5826	536.133	77.1482	536.133	75.0288	536.133	75.8185	536.133	73.7981	536.133	73.4753	536.133	74.1394	536.133	71.9056	536.133	75.3713	536.133	73.2448	536.133	76.2165	536.133	75.1717	536.133	76.1973
555.176	81.7081	555.176	81.4866	555.176	81.8068	555.176	81.093	555.176	81.8012	555.176	80.4578	555.176	81.6713	555.176	79.5058	555.176	81.353	555.176	78.1772	555.176	80.7396	555.176	76.4757	555.176	79.6905	555.176	74.6244	555.176	78.0465	555.176	73.3517	555.176	75.6939	555.176	73.3807	555.176	72.9887	555.176	74.0866	555.176	71.8922	555.176	74.4377	555.176	73.204	555.176	74.0188	555.176	74.4807	555.176	72.993	555.176	74.6418	555.176	72.2937	555.176	73.7101	555.176	72.9625	555.176	72.5459	555.176	74.2979	555.176	72.8072	555.176	75.1688	555.176	74.1806	555.176	75.1413
574.219	82.2327	574.219	81.9075	574.219	82.3944	574.219	81.4278	574.219	82.3786	574.219	80.7957	574.219	82.1664	574.219	80.0108	574.219	81.7319	574.219	79.082	574.219	81.0489	574.219	78.0489	574.219	80.1098	574.219	77.01	574.219	78.9398	574.219	76.1105	574.219	77.6016	574.219	75.4228	574.219	76.2215	574.219	74.7939	574.219	74.9916	574.219	73.8746	574.219	73.9831	574.219	72.3367	574.219	72.9179	574.219	70.3543	574.219	71.3342	574.219	69.7242	574.219	69.2597	574.219	71.5581	574.219	68.8336	574.219	73.6053	574.219	71.2201	574.219	74.7126	574.219	73.5334	574.219	74.7072
594.727	82.0202	594.727	81.7472	594.727	82.0777	594.727	81.2716	594.727	81.9208	594.727	80.6048	594.727	81.5675	594.727	79.7474	594.727	81.0309	594.727	78.7016	594.727	80.2935	594.727	77.5167	594.727	79.3102	594.727	76.3678	594.727	78.0677	594.727	75.5596	594.727	76.7326	594.727	75.2317	594.727	75.7781	594.727	75.071	594.727	75.5245	594.727	74.5775	594.727	75.461	594.727	73.3925	594.727	74.76	594.727	71.4286	594.727	72.8245	594.727	69.5507	594.727	69.6183	594.727	70.1407	594.727	68.5213	594.727	72.3788	594.727	71.4178	594.727	74.0182	594.727	73.6793	594.727	74.4953
615.234	81.6071	615.234	81.467	615.234	81.5975	615.234	81.138	615.234	81.4921	615.234	80.5991	615.234	81.3139	615.234	79.8242	615.234	81.0036	615.234	78.7655	615.234	80.4386	615.234	77.3858	615.234	79.5019	615.234	75.7933	615.234	78.105	615.234	74.4599	615.234	76.1704	615.234	74.0089	615.234	73.8204	615.234	74.2332	615.234	72.2761	615.234	74.285	615.234	73.0941	615.234	73.6468	615.234	74.512	615.234	72.3932	615.234	74.7621	615.234	71.4762	615.234	73.2387	615.234	72.0193	615.234	69.7318	615.234	73.2086	615.234	67.6066	615.234	73.7709	615.234	70.7576	615.234	73.0971
637.207	81.4077	637.207	81.1662	637.207	81.5199	637.207	80.7916	637.207	81.5349	637.207	80.2942	637.207	81.4648	637.207	79.6442	637.207	81.2581	637.207	78.755	637.207	80.8171	637.207	77.5555	637.207	80.0366	637.207	76.1632	637.207	78.8158	637.207	75.0855	637.207	77.1148	637.207	74.8468	637.207	75.1803	637.207	75.0319	637.207	73.7795	637.207	74.7326	637.207	73.3325	637.207	73.3126	637.207	73.0285	637.207	70.3068	637.207	72.1299	637.207	66.3966	637.207	70.655	637.207	67.8657	637.207	69.4742	637.207	71.3083	637.207	70.0207	637.207	72.9759	637.207	71.7692	637.207	73.0148
659.18	81.4835	659.18	81.3545	659.18	81.4437	659.18	81.0521	659.18	81.2864	659.18	80.6202	659.18	81.0699	659.18	80.114	659.18	80.8094	659.18	79.5518	659.18	80.4457	659.18	78.8924	659.18	79.8622	659.18	78.069	659.18	78.9421	659.18	77.1101	659.18	77.6264	659.18	76.2681	659.18	76.0054	659.18	75.7832	659.18	74.6155	659.18	75.3718	659.18	74.2294	659.18	74.4007	659.18	74.1419	659.18	72.33	659.18	72.7107	659.18	69.2922	659.18	68.442	659.18	68.9311	659.18	64.0327	659.18	71.8916	659.18	70.0459	659.18	73.9743	659.18	73.4487	659.18	74.5304
682.617	82.0555	682.617	81.9841	682.617	81.8875	682.617	81.6593	682.617	81.5267	682.617	81.0949	682.617	81.0412	682.617	80.3062	682.617	80.4959	682.617	79.2712	682.617	79.906	682.617	77.9409	682.617	79.1943	682.617	76.4387	682.617	78.2308	682.617	75.4733	682.617	76.9656	682.617	75.8105	682.617	75.594	682.617	76.7673	682.617	74.7526	682.617	77.2695	682.617	75.2079	682.617	76.7759	682.617	76.4048	682.617	75.0052	682.617	76.9126	682.617	72.0541	682.617	75.667	682.617	70.3148	682.617	71.4512	682.617	72.114	682.617	64.1535	682.617	73.753	682.617	70.1606	682.617	73.4695
707.52	82.1195	707.52	81.8469	707.52	82.0173	707.52	81.2127	707.52	81.6381	707.52	80.3295	707.52	81.1078	707.52	79.3169	707.52	80.4827	707.52	78.2002	707.52	79.7687	707.52	76.927	707.52	78.9857	707.52	75.4796	707.52	78.1201	707.52	73.9469	707.52	76.9748	707.52	72.7749	707.52	75.0607	707.52	72.8389	707.52	71.615	707.52	73.9348	707.52	66.596	707.52	74.7681	707.52	68.2487	707.52	74.6073	707.52	72.1806	707.52	73.358	707.52	73.4919	707.52	71.6115	707.52	72.1142	707.52	70.9547	707.52	67.8642	707.52	71.2297	707.52	66.7022	707.52	70.1525
732.422	81.7237	732.422	81.6191	732.422	81.5769	732.422	81.3029	732.422	81.2069	732.422	80.886	732.422	80.632	732.422	80.4357	732.422	79.8419	732.422	79.8534	732.422	78.8579	732.422	78.88	732.422	77.7634	732.422	77.1865	732.422	76.745	732.422	74.4366	732.422	76.0617	732.422	71.2175	732.422	75.5892	732.422	71.7866	732.422	74.6665	732.422	74.0942	732.422	72.3561	732.422	74.6799	732.422	67.2717	732.422	73.5486	732.422	65.7276	732.422	71.437	732.422	71.1122	732.422	70.3319	732.422	73.2865	732.422	71.2537	732.422	73.4305	732.422	72.2242	732.422	72.8774	732.422	72.5667
757.324	81.2207	757.324	81.3791	757.324	80.9368	757.324	81.265	757.324	80.7177	757.324	80.8429	757.324	80.6723	757.324	80.22	757.324	80.7119	757.324	79.5938	757.324	80.5941	757.324	79.0426	757.324	80.0743	757.324	78.3185	757.324	78.9175	757.324	76.8074	757.324	76.7885	757.324	73.514	757.324	73.7544	757.324	67.7651	757.324	72.3717	757.324	69.0744	757.324	73.0496	757.324	72.9029	757.324	72.2665	757.324	74.3441	757.324	68.6014	757.324	74.7702	757.324	61.5681	757.324	75.378	757.324	68.9579	757.324	76.2999	757.324	74.1236	757.324	76.9925	757.324	76.3926	757.324	77.1271
785.156	80.7898	785.156	81.2423	785.156	80.2221	785.156	81.2585	785.156	79.7728	785.156	80.7616	785.156	79.3139	785.156	79.9456	785.156	78.7627	785.156	79.1665	785.156	78.4143	785.156	78.7487	785.156	78.4416	785.156	78.7098	785.156	78.3385	785.156	78.6034	785.156	77.3288	785.156	77.7437	785.156	75.044	785.156	75.4868	785.156	72.414	785.156	71.0595	785.156	71.7805	785.156	62.1779	785.156	72.0467	785.156	61.9386	785.156	71.0841	785.156	69.7378	785.156	68.6252	785.156	73.8655	785.156	67.2849	785.156	76.0212	785.156	70.2949	785.156	76.5708	785.156	73.6051	785.156	75.7235
811.523	80.0566	811.523	80.3076	811.523	79.5765	811.523	80.2379	811.523	78.9644	811.523	79.9029	811.523	78.2595	811.523	79.4983	811.523	77.5655	811.523	79.1104	811.523	77.1211	811.523	78.552	811.523	77.1249	811.523	77.8327	811.523	77.3876	811.523	77.3727	811.523	77.3527	811.523	77.0738	811.523	76.3348	811.523	76.4071	811.523	73.5079	811.523	75.1994	811.523	69.1026	811.523	73.3164	811.523	70.5127	811.523	69.5372	811.523	73.0991	811.523	57.4861	811.523	72.7001	811.523	64.209	811.523	69.3318	811.523	70.1667	811.523	65.5615	811.523	71.5273	811.523	68.1971	811.523	70.7438
840.82	79.5621	840.82	79.4673	840.82	79.4289	840.82	79.2303	840.82	78.9805	840.82	78.8778	840.82	78.1046	840.82	78.3772	840.82	76.7445	840.82	77.6792	840.82	75.2754	840.82	76.708	840.82	74.7698	840.82	75.7067	840.82	75.8387	840.82	75.4073	840.82	77.37	840.82	75.6769	840.82	78.0115	840.82	75.6728	840.82	77.1678	840.82	75.1951	840.82	74.6443	840.82	74.1758	840.82	70.0848	840.82	71.7564	840.82	66.1786	840.82	66.7856	840.82	68.4296	840.82	64.9151	840.82	68.4109	840.82	68.5251	840.82	64.224	840.82	69.2172	840.82	60.7046	840.82	66.721
870.117	79.5434	870.117	79.7591	870.117	78.9547	870.117	79.4914	870.117	78.2855	870.117	78.8323	870.117	77.5672	870.117	77.8757	870.117	76.5546	870.117	76.7747	870.117	75.1649	870.117	75.6559	870.117	73.336	870.117	74.1392	870.117	70.638	870.117	72.6131	870.117	68.0548	870.117	73.3367	870.117	70.2156	870.117	75.1629	870.117	73.1528	870.117	76.0372	870.117	74.7503	870.117	75.4104	870.117	75.49	870.117	72.3915	870.117	75.9055	870.117	64.6835	870.117	75.3097	870.117	60.4066	870.117	72.5587	870.117	66.0356	870.117	66.7933	870.117	67.1762	870.117	59.5588	870.117	64.7593
900.879	80.1062	900.879	80.08	900.879	79.8407	900.879	79.9739	900.879	79.2242	900.879	79.9316	900.879	78.3847	900.879	79.9005	900.879	77.5278	900.879	79.6868	900.879	76.7778	900.879	78.8837	900.879	76.0779	900.879	76.8796	900.879	75.3453	900.879	73.2669	900.879	74.3404	900.879	70.2319	900.879	72.4635	900.879	71.9313	900.879	69.9988	900.879	74.2366	900.879	67.7074	900.879	75.4399	900.879	65.6816	900.879	74.9115	900.879	71.6332	900.879	71.9059	900.879	74.7282	900.879	67.0065	900.879	73.4263	900.879	67.2098	900.879	67.1452	900.879	68.2821	900.879	57.1782	900.879	65.8921
933.105	80.6044	933.105	80.9054	933.105	79.8797	933.105	80.5987	933.105	79.2475	933.105	79.9369	933.105	78.7114	933.105	79.1984	933.105	77.927	933.105	78.5691	933.105	77.0338	933.105	78.1406	933.105	76.1825	933.105	77.3673	933.105	75.075	933.105	75.5319	933.105	73.5537	933.105	72.6472	933.105	72.2375	933.105	70.8796	933.105	72.3585	933.105	72.5314	933.105	73.0858	933.105	74.2644	933.105	73.2675	933.105	73.5069	933.105	73.8401	933.105	69.6193	933.105	74.4156	933.105	68.2451	933.105	73.4305	933.105	70.6759	933.105	69.8907	933.105	70.4833	933.105	60.6811	933.105	65.8773
965.332	80.6034	965.332	80.9106	965.332	79.8978	965.332	80.7462	965.332	79.1015	965.332	80.3108	965.332	78.3102	965.332	79.5332	965.332	77.6965	965.332	78.229	965.332	77.4853	965.332	77.0156	965.332	77.458	965.332	76.365	965.332	77.1953	965.332	75.4377	965.332	76.1913	965.332	74.1691	965.332	73.7458	965.332	73.4051	965.332	70.5062	965.332	73.1475	965.332	68.3818	965.332	73.9468	965.332	62.5827	965.332	74.3453	965.332	69.2656	965.332	72.0774	965.332	74.0636	965.332	65.8574	965.332	73.5643	965.332	67.4901	965.332	69.4048	965.332	69.7246	965.332	65.761	965.332	67.5903
1,000.49	79.5987	1,000.49	80.1335	1,000.49	78.7608	1,000.49	80.2523	1,000.49	77.9624	1,000.49	80.0751	1,000.49	77.4125	1,000.49	79.5629	1,000.49	77.0207	1,000.49	78.3471	1,000.49	76.3231	1,000.49	76.3733	1,000.49	75.1926	1,000.49	74.4577	1,000.49	74.5072	1,000.49	72.9639	1,000.49	74.6854	1,000.49	71.5306	1,000.49	74.6227	1,000.49	71.1034	1,000.49	73.697	1,000.49	72.4434	1,000.49	72.902	1,000.49	73.9198	1,000.49	72.7444	1,000.49	73.8401	1,000.49	71.768	1,000.49	71.5403	1,000.49	71.227	1,000.49	68.5978	1,000.49	70.9468	1,000.49	68.0315	1,000.49	66.712	1,000.49	68.3797	1,000.49	54.9361	1,000.49	66.3852
1,035.64	78.9434	1,035.64	79.8526	1,035.64	78.5571	1,035.64	80.6049	1,035.64	78.3692	1,035.64	80.7848	1,035.64	77.6311	1,035.64	80.2808	1,035.64	76.4757	1,035.64	79.1772	1,035.64	75.7301	1,035.64	77.9822	1,035.64	75.6764	1,035.64	76.7187	1,035.64	75.32	1,035.64	74.0241	1,035.64	73.3338	1,035.64	67.2555	1,035.64	69.1639	1,035.64	66.0469	1,035.64	70.1584	1,035.64	72.1812	1,035.64	72.0579	1,035.64	74.9714	1,035.64	67.5934	1,035.64	74.8997	1,035.64	67.1847	1,035.64	71.508	1,035.64	72.7018	1,035.64	65.7904	1,035.64	72.6018	1,035.64	66.1148	1,035.64	69.7625	1,035.64	68.3452	1,035.64	62.4653	1,035.64	64.0074
1,072.27	78.7705	1,072.27	79.4598	1,072.27	77.9951	1,072.27	79.9746	1,072.27	77.2825	1,072.27	80.2175	1,072.27	76.9511	1,072.27	79.901	1,072.27	77.3296	1,072.27	78.7513	1,072.27	77.7304	1,072.27	77.4848	1,072.27	77.3777	1,072.27	77.3057	1,072.27	76.3972	1,072.27	76.6316	1,072.27	75.1172	1,072.27	72.9393	1,072.27	73.3611	1,072.27	64.7623	1,072.27	69.9933	1,072.27	58.5236	1,072.27	70.0182	1,072.27	68.1213	1,072.27	72.8187	1,072.27	71.9278	1,072.27	71.8855	1,072.27	71.3304	1,072.27	70.2726	1,072.27	68.5805	1,072.27	70.6731	1,072.27	68.211	1,072.27	69.7755	1,072.27	68.6772	1,072.27	63.2234	1,072.27	63.6184
1,108.89	80.028	1,108.89	80.2579	1,108.89	79.7726	1,108.89	80.272	1,108.89	78.8729	1,108.89	79.5554	1,108.89	77.6234	1,108.89	78.4478	1,108.89	77.3451	1,108.89	77.4933	1,108.89	77.8039	1,108.89	76.8861	1,108.89	77.7815	1,108.89	77.2718	1,108.89	77.3385	1,108.89	77.7189	1,108.89	76.6642	1,108.89	76.4535	1,108.89	74.8275	1,108.89	72.1777	1,108.89	70.786	1,108.89	64.3578	1,108.89	68.3311	1,108.89	68.215	1,108.89	66.6795	1,108.89	70.0433	1,108.89	67.8938	1,108.89	69.077	1,108.89	72.5006	1,108.89	67.3208	1,108.89	72.4756	1,108.89	66.2147	1,108.89	70.7651	1,108.89	65.8791	1,108.89	68.5639	1,108.89	63.1679
1,148.44	81.9161	1,148.44	81.6105	1,148.44	81.3285	1,148.44	81.3034	1,148.44	80.1909	1,148.44	81.3538	1,148.44	79.2367	1,148.44	80.5344	1,148.44	78.6399	1,148.44	78.4346	1,148.44	78.5808	1,148.44	76.6109	1,148.44	78.8795	1,148.44	77.3809	1,148.44	78.9289	1,148.44	79.0687	1,148.44	78.4967	1,148.44	78.9416	1,148.44	77.3474	1,148.44	76.1725	1,148.44	73.0901	1,148.44	68.1954	1,148.44	66.7237	1,148.44	65.1476	1,148.44	71.1308	1,148.44	69.7552	1,148.44	71.5823	1,148.44	66.0571	1,148.44	71.4915	1,148.44	55.0182	1,148.44	72.9925	1,148.44	65.6747	1,148.44	73.9624	1,148.44	70.5858	1,148.44	69.779	1,148.44	68.7047
1,189.45	81.3093	1,189.45	81.4969	1,189.45	81.2354	1,189.45	81.652	1,189.45	80.6091	1,189.45	81.2292	1,189.45	79.5509	1,189.45	80.204	1,189.45	79.0498	1,189.45	78.8813	1,189.45	78.6971	1,189.45	76.9681	1,189.45	78.0888	1,189.45	74.9975	1,189.45	77.9763	1,189.45	76.8498	1,189.45	78.8564	1,189.45	78.5523	1,189.45	79.1815	1,189.45	77.9786	1,189.45	76.98	1,189.45	75.2568	1,189.45	70.844	1,189.45	70.0168	1,189.45	66.0117	1,189.45	69.2496	1,189.45	55.5334	1,189.45	71.0397	1,189.45	71.5882	1,189.45	68.5643	1,189.45	74.9781	1,189.45	65.0384	1,189.45	71.9461	1,189.45	65.5855	1,189.45	69.5667	1,189.45	67.8437
1,230.47	81.0897	1,230.47	81.3025	1,230.47	80.7958	1,230.47	81.1655	1,230.47	80.8212	1,230.47	80.9086	1,230.47	80.1356	1,230.47	80.6279	1,230.47	78.1199	1,230.47	80.0393	1,230.47	76.7536	1,230.47	78.6871	1,230.47	77.3941	1,230.47	76.3972	1,230.47	78.0453	1,230.47	74.1901	1,230.47	78.306	1,230.47	73.0878	1,230.47	78.4048	1,230.47	74.4877	1,230.47	77.1966	1,230.47	74.7271	1,230.47	74.4507	1,230.47	71.7562	1,230.47	68.3832	1,230.47	71.9294	1,230.47	62.3231	1,230.47	72.9901	1,230.47	72.6695	1,230.47	69.5324	1,230.47	73.6089	1,230.47	37.9058	1,230.47	73.2998	1,230.47	65.4803	1,230.47	71.0349	1,230.47	67.7214
1,274.41	80.844	1,274.41	81.4653	1,274.41	80.5409	1,274.41	81.8045	1,274.41	80.2567	1,274.41	81.6312	1,274.41	79.9473	1,274.41	80.9565	1,274.41	79.8083	1,274.41	79.643	1,274.41	79.4779	1,274.41	77.7768	1,274.41	78.9341	1,274.41	75.3311	1,274.41	78.1	1,274.41	74.5923	1,274.41	76.6351	1,274.41	74.1735	1,274.41	76.0676	1,274.41	71.3471	1,274.41	76.7937	1,274.41	69.6168	1,274.41	74.855	1,274.41	70.9629	1,274.41	72.1197	1,274.41	72.5547	1,274.41	73.117	1,274.41	73.4897	1,274.41	69.9554	1,274.41	70.2623	1,274.41	71.0872	1,274.41	61.3118	1,274.41	73.4927	1,274.41	67.0679	1,274.41	69.991	1,274.41	67.8846
1,319.82	80.3644	1,319.82	80.5899	1,319.82	80.8694	1,319.82	81.2781	1,319.82	80.9606	1,319.82	81.0282	1,319.82	80.4238	1,319.82	79.8314	1,319.82	79.4081	1,319.82	78.7446	1,319.82	78.5037	1,319.82	77.8938	1,319.82	78.3559	1,319.82	76.0258	1,319.82	78.1245	1,319.82	73.3352	1,319.82	78.032	1,319.82	74.3206	1,319.82	77.6564	1,319.82	75.1568	1,319.82	75.3757	1,319.82	72.8863	1,319.82	72.0611	1,319.82	68.5395	1,319.82	69.3141	1,319.82	68.2612	1,319.82	61.3753	1,319.82	71.0946	1,319.82	72.6674	1,319.82	70.1183	1,319.82	75.7983	1,319.82	62.2152	1,319.82	73.2312	1,319.82	58.7654	1,319.82	69.538	1,319.82	66.5156
1,366.7	80.3607	1,366.7	80.7126	1,366.7	80.0786	1,366.7	81.2663	1,366.7	80.0664	1,366.7	81.2801	1,366.7	80.011	1,366.7	80.4721	1,366.7	78.7527	1,366.7	79.458	1,366.7	77.4881	1,366.7	78.7965	1,366.7	78.0569	1,366.7	77.7443	1,366.7	78.5419	1,366.7	72.3502	1,366.7	77.3593	1,366.7	64.4792	1,366.7	77.3989	1,366.7	74.1999	1,366.7	78.5793	1,366.7	74.1251	1,366.7	76.392	1,366.7	68.6349	1,366.7	67.0224	1,366.7	67.1413	1,366.7	66.4027	1,366.7	71.3736	1,366.7	71.4069	1,366.7	67.0168	1,366.7	71.5606	1,366.7	50.5716	1,366.7	72.5608	1,366.7	65.5468	1,366.7	70.6615	1,366.7	69.7783
1,413.57	81.1072	1,413.57	81.4709	1,413.57	80.6366	1,413.57	81.7559	1,413.57	80.813	1,413.57	81.6549	1,413.57	81.0044	1,413.57	80.7196	1,413.57	79.6155	1,413.57	79.3554	1,413.57	77.5621	1,413.57	77.5896	1,413.57	76.8334	1,413.57	76.1719	1,413.57	77.3489	1,413.57	75.4529	1,413.57	77.4077	1,413.57	73.6361	1,413.57	76.0946	1,413.57	65.8835	1,413.57	73.7926	1,413.57	58.6736	1,413.57	73.185	1,413.57	67.6951	1,413.57	73.4502	1,413.57	72.3437	1,413.57	70.7544	1,413.57	75.061	1,413.57	61.3533	1,413.57	71.6196	1,413.57	69.5875	1,413.57	61.7344	1,413.57	72.6034	1,413.57	64.2421	1,413.57	68.5612	1,413.57	68.9816
1,463.38	82.251	1,463.38	82.449	1,463.38	81.9354	1,463.38	81.5634	1,463.38	81.1927	1,463.38	80.3867	1,463.38	80.5486	1,463.38	79.7972	1,463.38	80.1872	1,463.38	78.6788	1,463.38	78.7191	1,463.38	76.3691	1,463.38	76.573	1,463.38	72.953	1,463.38	76.5483	1,463.38	72.6852	1,463.38	76.0248	1,463.38	73.9297	1,463.38	72.2894	1,463.38	70.6795	1,463.38	71.0423	1,463.38	63.916	1,463.38	71.5418	1,463.38	53.9511	1,463.38	72.9999	1,463.38	64.3635	1,463.38	73.7954	1,463.38	72.487	1,463.38	61.2136	1,463.38	73.6996	1,463.38	69.6056	1,463.38	67.2474	1,463.38	71.0116	1,463.38	62.0441	1,463.38	68.7128	1,463.38	65.646
1,516.11	82.4829	1,516.11	82.4072	1,516.11	82.2878	1,516.11	81.4281	1,516.11	81.7488	1,516.11	80.354	1,516.11	80.6908	1,516.11	79.4477	1,516.11	79.7918	1,516.11	78.1186	1,516.11	78.6397	1,516.11	77.0525	1,516.11	77.7626	1,516.11	75.4941	1,516.11	77.4562	1,516.11	73.6296	1,516.11	77.5495	1,516.11	73.8026	1,516.11	77.7881	1,516.11	72.9967	1,516.11	75.8702	1,516.11	73.4278	1,516.11	72.7448	1,516.11	71.6643	1,516.11	72.4035	1,516.11	50.9256	1,516.11	68.9911	1,516.11	68.8976	1,516.11	72.5974	1,516.11	70.7208	1,516.11	67.436	1,516.11	67.6468	1,516.11	70.7582	1,516.11	52.0306	1,516.11	70.2757	1,516.11	62.9844
1,568.85	82.0288	1,568.85	81.6615	1,568.85	82.0153	1,568.85	80.5713	1,568.85	81.6869	1,568.85	79.5966	1,568.85	80.8214	1,568.85	78.7274	1,568.85	80.0489	1,568.85	77.0285	1,568.85	79.3556	1,568.85	75.1416	1,568.85	77.4146	1,568.85	74.9186	1,568.85	76.7712	1,568.85	73.5983	1,568.85	76.5541	1,568.85	67.0611	1,568.85	75.6891	1,568.85	70.4383	1,568.85	75.0976	1,568.85	74.0477	1,568.85	73.7065	1,568.85	71.2966	1,568.85	71.6346	1,568.85	63.82	1,568.85	71.0868	1,568.85	67.7981	1,568.85	68.8565	1,568.85	72.6049	1,568.85	67.187	1,568.85	67.6888	1,568.85	68.8373	1,568.85	61.9172	1,568.85	69.1521	1,568.85	66.0783
1,624.51	81.1119	1,624.51	81.657	1,624.51	81.4249	1,624.51	81.252	1,624.51	81.421	1,624.51	80.322	1,624.51	80.7929	1,624.51	79.1936	1,624.51	79.915	1,624.51	75.8881	1,624.51	78.6807	1,624.51	74.5002	1,624.51	76.7199	1,624.51	75.1533	1,624.51	74.6709	1,624.51	72.792	1,624.51	74.2789	1,624.51	72.2781	1,624.51	74.6974	1,624.51	69.7838	1,624.51	74.1535	1,624.51	63.1056	1,624.51	74.5327	1,624.51	72.2217	1,624.51	73.8049	1,624.51	72.5379	1,624.51	66.9717	1,624.51	63.6451	1,624.51	69.081	1,624.51	70.5827	1,624.51	65.4232	1,624.51	66.7853	1,624.51	70.653	1,624.51	46.0871	1,624.51	69.7835	1,624.51	65.7502
1,681.64	80.9594	1,681.64	80.7082	1,681.64	81.2512	1,681.64	80.8213	1,681.64	80.4007	1,681.64	80.5089	1,681.64	80.6325	1,681.64	77.8461	1,681.64	80.2889	1,681.64	74.864	1,681.64	78.2151	1,681.64	77.6096	1,681.64	77.0306	1,681.64	76.2835	1,681.64	73.5476	1,681.64	69.699	1,681.64	71.7355	1,681.64	71.4691	1,681.64	74.7026	1,681.64	72.9155	1,681.64	71.0013	1,681.64	72.6395	1,681.64	66.1846	1,681.64	68.0234	1,681.64	72.3327	1,681.64	69.0055	1,681.64	73.6412	1,681.64	60.7005	1,681.64	66.495	1,681.64	66.9717	1,681.64	66.5077	1,681.64	69.7179	1,681.64	68.2784	1,681.64	66.4557	1,681.64	62.5504	1,681.64	62.5368
1,741.7	81.534	1,741.7	80.3269	1,741.7	81.6861	1,741.7	79.2002	1,741.7	81.5509	1,741.7	79.2354	1,741.7	80.8309	1,741.7	78.2634	1,741.7	80.2098	1,741.7	77.422	1,741.7	78.4128	1,741.7	74.9031	1,741.7	76.8012	1,741.7	75.1245	1,741.7	73.7919	1,741.7	72.9982	1,741.7	73.6313	1,741.7	63.611	1,741.7	75.9852	1,741.7	61.2875	1,741.7	74.0361	1,741.7	71.4845	1,741.7	68.0814	1,741.7	70.7493	1,741.7	69.8585	1,741.7	58.3907	1,741.7	70.025	1,741.7	65.9282	1,741.7	59.8769	1,741.7	67.4288	1,741.7	67.4812	1,741.7	65.4918	1,741.7	68.3965	1,741.7	64.0103	1,741.7	62.958	1,741.7	56.9934
1,803.22	82.0948	1,803.22	80.9544	1,803.22	82.8502	1,803.22	79.2901	1,803.22	82.6926	1,803.22	77.0412	1,803.22	81.4114	1,803.22	77.2432	1,803.22	80.0698	1,803.22	76.8913	1,803.22	78.1271	1,803.22	75.0091	1,803.22	75.1754	1,803.22	74.9657	1,803.22	72.4781	1,803.22	70.5854	1,803.22	73.4014	1,803.22	68.5008	1,803.22	73.942	1,803.22	62.5234	1,803.22	71.5267	1,803.22	66.2964	1,803.22	69.6123	1,803.22	65.8396	1,803.22	68.5699	1,803.22	65.6209	1,803.22	66.0459	1,803.22	57.4506	1,803.22	70.9599	1,803.22	65.2962	1,803.22	68.9928	1,803.22	65.5853	1,803.22	68.9456	1,803.22	60.221	1,803.22	68.333	1,803.22	64.0718
1,866.21	81.3035	1,866.21	80.0743	1,866.21	82.4256	1,866.21	78.3946	1,866.21	82.9691	1,866.21	76.934	1,866.21	82.2039	1,866.21	77.6421	1,866.21	80.1911	1,866.21	76.0157	1,866.21	77.8372	1,866.21	73.3052	1,866.21	75.5952	1,866.21	73.6005	1,866.21	72.6415	1,866.21	68.9561	1,866.21	68.2975	1,866.21	69.4875	1,866.21	70.0235	1,866.21	66.684	1,866.21	70.6403	1,866.21	62.8888	1,866.21	70.1232	1,866.21	64.9989	1,866.21	69.4609	1,866.21	62.2988	1,866.21	62.6157	1,866.21	59.2854	1,866.21	67.7216	1,866.21	64.1561	1,866.21	66.9903	1,866.21	65.4209	1,866.21	68.7966	1,866.21	58.0015	1,866.21	67.013	1,866.21	58.583
1,932.13	80.026	1,932.13	77.8268	1,932.13	81.5786	1,932.13	77.0858	1,932.13	81.8677	1,932.13	77.8503	1,932.13	81.3426	1,932.13	76.699	1,932.13	80.0955	1,932.13	74.0803	1,932.13	78.0635	1,932.13	73.537	1,932.13	75.1681	1,932.13	72.0878	1,932.13	72.8924	1,932.13	70.2621	1,932.13	68.0418	1,932.13	70.0787	1,932.13	68.8915	1,932.13	67.7213	1,932.13	72.1372	1,932.13	64.428	1,932.13	70.9226	1,932.13	65.7463	1,932.13	67.059	1,932.13	66.3875	1,932.13	60.9391	1,932.13	61.6455	1,932.13	63.7779	1,932.13	59.7431	1,932.13	67.591	1,932.13	64.1198	1,932.13	68.8337	1,932.13	60.322	1,932.13	68.4968	1,932.13	62.5858
1,999.51	80.7195	1,999.51	78.0668	1,999.51	82.2573	1,999.51	77.2011	1,999.51	82.0401	1,999.51	77.2811	1,999.51	80.7786	1,999.51	75.3207	1,999.51	80.1018	1,999.51	73.1668	1,999.51	77.4179	1,999.51	71.6925	1,999.51	72.9486	1,999.51	69.8799	1,999.51	69.4249	1,999.51	68.3199	1,999.51	67.6975	1,999.51	64.2209	1,999.51	67.3604	1,999.51	64.9391	1,999.51	67.1622	1,999.51	63.5626	1,999.51	69.1309	1,999.51	63.7561	1,999.51	67.028	1,999.51	64.0914	1,999.51	58.9786	1,999.51	60.4381	1,999.51	58.9868	1,999.51	62.4069	1,999.51	65.777	1,999.51	62.5734	1,999.51	68.1424	1,999.51	50.8347	1,999.51	68.2469	1,999.51	61.5759
2,069.82	81.7968	2,069.82	79.7488	2,069.82	82.972	2,069.82	76.8833	2,069.82	82.9639	2,069.82	74.2933	2,069.82	81.2297	2,069.82	72.7176	2,069.82	79.4802	2,069.82	72.3385	2,069.82	76.5582	2,069.82	72.7108	2,069.82	73.0374	2,069.82	71.1761	2,069.82	67.1135	2,069.82	71.59	2,069.82	66.8076	2,069.82	67.5161	2,069.82	67.5336	2,069.82	66.7566	2,069.82	66.7496	2,069.82	64.4616	2,069.82	63.5288	2,069.82	63.5939	2,069.82	64.6516	2,069.82	66.9843	2,069.82	61.4536	2,069.82	63.6713	2,069.82	56.7274	2,069.82	57.2574	2,069.82	63.4126	2,069.82	62.4811	2,069.82	66.1054	2,069.82	51.472	2,069.82	66.8318	2,069.82	59.1293
2,143.07	81.2176	2,143.07	79.9229	2,143.07	82.8049	2,143.07	76.536	2,143.07	83.3615	2,143.07	72.0171	2,143.07	81.5561	2,143.07	72.6028	2,143.07	77.821	2,143.07	73.7544	2,143.07	74.5966	2,143.07	73.4298	2,143.07	72.0232	2,143.07	72.1986	2,143.07	64.403	2,143.07	69.5566	2,143.07	60.7117	2,143.07	67.6689	2,143.07	65.7505	2,143.07	63.5599	2,143.07	66.3372	2,143.07	66.3233	2,143.07	66.1451	2,143.07	62.955	2,143.07	63.9633	2,143.07	67.7587	2,143.07	64.1125	2,143.07	64.0724	2,143.07	53.8177	2,143.07	58.5506	2,143.07	60.0917	2,143.07	59.9043	2,143.07	63.7253	2,143.07	56.223	2,143.07	65.3065	2,143.07	60.3147
2,219.24	80.8909	2,219.24	78.3834	2,219.24	81.898	2,219.24	75.8337	2,219.24	82.1723	2,219.24	72.3501	2,219.24	81.1377	2,219.24	71.7813	2,219.24	77.305	2,219.24	72.8077	2,219.24	72.3558	2,219.24	72.1714	2,219.24	68.9245	2,219.24	71.9623	2,219.24	62.797	2,219.24	71.7327	2,219.24	51.843	2,219.24	69.354	2,219.24	60.991	2,219.24	66.0752	2,219.24	64.2881	2,219.24	65.8507	2,219.24	64.5617	2,219.24	61.938	2,219.24	63.2169	2,219.24	67.1032	2,219.24	64.5765	2,219.24	65.3709	2,219.24	56.5634	2,219.24	58.1897	2,219.24	56.7283	2,219.24	58.7499	2,219.24	61.4868	2,219.24	53.8912	2,219.24	65.0897	2,219.24	61.9755
2,296.88	81.9865	2,296.88	79.6005	2,296.88	82.5506	2,296.88	74.445	2,296.88	81.4668	2,296.88	69.769	2,296.88	79.064	2,296.88	70.5191	2,296.88	75.7865	2,296.88	73.0196	2,296.88	70.9001	2,296.88	72.6208	2,296.88	65.1034	2,296.88	72.8842	2,296.88	59.0564	2,296.88	71.5936	2,296.88	51.483	2,296.88	70.2268	2,296.88	44.9043	2,296.88	67.147	2,296.88	60.2861	2,296.88	65.5133	2,296.88	62.492	2,296.88	62.9153	2,296.88	64.2202	2,296.88	66.9898	2,296.88	65.4266	2,296.88	66.75	2,296.88	60.063	2,296.88	58.967	2,296.88	52.7878	2,296.88	61.6648	2,296.88	57.2045	2,296.88	55.8316	2,296.88	62.0919	2,296.88	55.4702
2,378.91	82.1382	2,378.91	80.2336	2,378.91	82.6102	2,378.91	74.2689	2,378.91	82.0399	2,378.91	65.0437	2,378.91	79.2888	2,378.91	70.5233	2,378.91	74.3144	2,378.91	73.0623	2,378.91	67.5034	2,378.91	73.2893	2,378.91	61.9177	2,378.91	72.1659	2,378.91	56.7735	2,378.91	70.6907	2,378.91	60.0402	2,378.91	70.3016	2,378.91	49.0544	2,378.91	67.2099	2,378.91	61.6305	2,378.91	67.4577	2,378.91	62.1226	2,378.91	65.7892	2,378.91	62.6991	2,378.91	64.3697	2,378.91	61.9928	2,378.91	66.7095	2,378.91	62.4134	2,378.91	58.5455	2,378.91	52.5786	2,378.91	60.2357	2,378.91	41.94	2,378.91	57.5692	2,378.91	59.6057	2,378.91	54.0415
2,462.4	81.8548	2,462.4	79.4683	2,462.4	82.2262	2,462.4	74.6004	2,462.4	81.5648	2,462.4	50.5864	2,462.4	79.2884	2,462.4	71.4126	2,462.4	73.098	2,462.4	73.2055	2,462.4	62.141	2,462.4	74.1679	2,462.4	60.6324	2,462.4	72.9646	2,462.4	60.4759	2,462.4	72.7235	2,462.4	64.5419	2,462.4	69.3752	2,462.4	56.9416	2,462.4	68.4307	2,462.4	58.1602	2,462.4	67.942	2,462.4	62.6673	2,462.4	67.2341	2,462.4	59.9382	2,462.4	64.1109	2,462.4	62.8654	2,462.4	66.9168	2,462.4	60.5995	2,462.4	60.2588	2,462.4	56.1917	2,462.4	60.7522	2,462.4	42.9998	2,462.4	57.5466	2,462.4	60.2359	2,462.4	59.3276
2,548.83	82.1692	2,548.83	79.2443	2,548.83	82.6192	2,548.83	73.0965	2,548.83	81.1671	2,548.83	59.0751	2,548.83	77.9912	2,548.83	71.3919	2,548.83	72.0397	2,548.83	74.4139	2,548.83	59.6884	2,548.83	75.511	2,548.83	66.9015	2,548.83	73.7689	2,548.83	63.8655	2,548.83	73.0297	2,548.83	66.4976	2,548.83	69.4788	2,548.83	62.5819	2,548.83	69.7951	2,548.83	60.9266	2,548.83	66.7219	2,548.83	64.1692	2,548.83	67.9456	2,548.83	59.896	2,548.83	64.7783	2,548.83	62.2394	2,548.83	67.2297	2,548.83	62.6251	2,548.83	63.8494	2,548.83	52.7089	2,548.83	59.0132	2,548.83	55.5346	2,548.83	60.2355	2,548.83	54.913	2,548.83	61.0504
2,639.65	81.4201	2,639.65	79.1495	2,639.65	82.345	2,639.65	72.0521	2,639.65	81.1549	2,639.65	68.1325	2,639.65	76.7766	2,639.65	72.7879	2,639.65	70.2193	2,639.65	76.5175	2,639.65	64.4247	2,639.65	75.9348	2,639.65	70.0057	2,639.65	75.5383	2,639.65	68.7989	2,639.65	74.4115	2,639.65	69.2229	2,639.65	71.3077	2,639.65	65.4288	2,639.65	70.6449	2,639.65	60.1566	2,639.65	66.1778	2,639.65	62.6508	2,639.65	68.5564	2,639.65	58.9592	2,639.65	64.9079	2,639.65	60.2777	2,639.65	67.1801	2,639.65	64.1136	2,639.65	64.5441	2,639.65	56.9837	2,639.65	58.1584	2,639.65	54.8455	2,639.65	61.9405	2,639.65	57.5814	2,639.65	61.5658
2,731.93	80.4093	2,731.93	77.3267	2,731.93	81.5708	2,731.93	70.8892	2,731.93	80.8454	2,731.93	71.6714	2,731.93	78.0084	2,731.93	75.7776	2,731.93	68.5626	2,731.93	76.8744	2,731.93	67.0937	2,731.93	76.8129	2,731.93	70.2297	2,731.93	75.7626	2,731.93	68.7394	2,731.93	72.9136	2,731.93	69.5742	2,731.93	71.9317	2,731.93	63.8452	2,731.93	67.6493	2,731.93	60.6445	2,731.93	66.7868	2,731.93	62.1284	2,731.93	67.7813	2,731.93	59.2561	2,731.93	65.6072	2,731.93	63.3211	2,731.93	65.9418	2,731.93	65.0595	2,731.93	65.1952	2,731.93	57.2862	2,731.93	58.9745	2,731.93	57.3808	2,731.93	62.7717	2,731.93	56.0026	2,731.93	60.9282
2,828.61	80.4942	2,828.61	76.8791	2,828.61	81.7436	2,828.61	73.9578	2,828.61	81.2985	2,828.61	74.6972	2,828.61	78.5282	2,828.61	77.091	2,828.61	69.8149	2,828.61	77.0312	2,828.61	66.0496	2,828.61	76.4192	2,828.61	70.4417	2,828.61	74.1921	2,828.61	71.9351	2,828.61	72.3793	2,828.61	71.2751	2,828.61	68.7243	2,828.61	58.9167	2,828.61	66.614	2,828.61	51.5383	2,828.61	65.6061	2,828.61	53.5253	2,828.61	66.6738	2,828.61	64.7884	2,828.61	64.6655	2,828.61	60.5333	2,828.61	65.9098	2,828.61	62.863	2,828.61	66.6767	2,828.61	58.0292	2,828.61	59.0591	2,828.61	57.2458	2,828.61	62.6047	2,828.61	57.6592	2,828.61	59.6367
2,928.22	79.6055	2,928.22	77.5405	2,928.22	81.1963	2,928.22	76.4471	2,928.22	81.4236	2,928.22	76.67	2,928.22	79.2729	2,928.22	77.5032	2,928.22	73.1686	2,928.22	76.5497	2,928.22	68.8054	2,928.22	76.2487	2,928.22	70.6052	2,928.22	72.8264	2,928.22	71.8022	2,928.22	71.9697	2,928.22	69.5212	2,928.22	69.8562	2,928.22	64.8282	2,928.22	66.9961	2,928.22	60.3698	2,928.22	65.2141	2,928.22	63.2578	2,928.22	65.2364	2,928.22	62.2025	2,928.22	63.9078	2,928.22	57.0447	2,928.22	62.4949	2,928.22	61.7788	2,928.22	66.0332	2,928.22	57.0636	2,928.22	54.6303	2,928.22	58.6996	2,928.22	64.1352	2,928.22	55.5056	2,928.22	58.7799
3,030.76	80.8205	3,030.76	79.4363	3,030.76	81.3725	3,030.76	77.7861	3,030.76	81.1822	3,030.76	77.3555	3,030.76	79.4549	3,030.76	77.5086	3,030.76	75.533	3,030.76	77.6348	3,030.76	73.3622	3,030.76	75.8455	3,030.76	73.7484	3,030.76	75.0078	3,030.76	73.6707	3,030.76	73.2703	3,030.76	69.2252	3,030.76	71.0183	3,030.76	70.0936	3,030.76	66.9613	3,030.76	65.2938	3,030.76	64.6971	3,030.76	64.4673	3,030.76	64.0062	3,030.76	53.3708	3,030.76	65.8929	3,030.76	53.5601	3,030.76	61.539	3,030.76	60.2771	3,030.76	66.2378	3,030.76	56.9111	3,030.76	58.2937	3,030.76	56.32	3,030.76	64.2393	3,030.76	56.7376	3,030.76	61.5117
3,137.7	81.3647	3,137.7	80.1572	3,137.7	82.1933	3,137.7	78.3841	3,137.7	81.6036	3,137.7	78.0983	3,137.7	79.7421	3,137.7	78.4152	3,137.7	77.4079	3,137.7	78.1847	3,137.7	75.3199	3,137.7	76.8394	3,137.7	75.7265	3,137.7	76.1657	3,137.7	75.2017	3,137.7	72.4111	3,137.7	73.3798	3,137.7	68.4292	3,137.7	72.372	3,137.7	67.6864	3,137.7	67.3059	3,137.7	67.1272	3,137.7	61.0087	3,137.7	63.895	3,137.7	55.6441	3,137.7	65.8608	3,137.7	53.5483	3,137.7	63.32	3,137.7	58.1789	3,137.7	65.0608	3,137.7	56.9483	3,137.7	60.5535	3,137.7	58.4121	3,137.7	65.8948	3,137.7	58.8612	3,137.7	61.3465
3,249.02	80.8973	3,249.02	79.5789	3,249.02	81.7057	3,249.02	77.2903	3,249.02	81.7389	3,249.02	79.0541	3,249.02	79.9982	3,249.02	79.1065	3,249.02	78.1925	3,249.02	78.2931	3,249.02	76.0825	3,249.02	77.0307	3,249.02	76.7848	3,249.02	74.6197	3,249.02	76.9307	3,249.02	72.3692	3,249.02	74.459	3,249.02	72.0767	3,249.02	73.8172	3,249.02	69.5425	3,249.02	67.7027	3,249.02	68.152	3,249.02	58.2945	3,249.02	64.992	3,249.02	65.5865	3,249.02	65.6715	3,249.02	47.2423	3,249.02	63.914	3,249.02	60.1362	3,249.02	64.7856	3,249.02	58.6504	3,249.02	62.0384	3,249.02	56.6821	3,249.02	64.7373	3,249.02	59.2187	3,249.02	61.5368
3,363.28	81.0289	3,363.28	78.5623	3,363.28	81.1728	3,363.28	78.7313	3,363.28	81.3576	3,363.28	79.2605	3,363.28	80.1708	3,363.28	79.6308	3,363.28	78.1495	3,363.28	78.1655	3,363.28	77.3077	3,363.28	77.4618	3,363.28	78.2232	3,363.28	74.007	3,363.28	77.7604	3,363.28	73.994	3,363.28	74.8543	3,363.28	69.7808	3,363.28	73.322	3,363.28	64.8001	3,363.28	65.4949	3,363.28	65.2597	3,363.28	64.8215	3,363.28	63.4239	3,363.28	63.5275	3,363.28	61.1366	3,363.28	53.3027	3,363.28	64.6235	3,363.28	57.4922	3,363.28	62.4368	3,363.28	59.7722	3,363.28	61.907	3,363.28	54.4254	3,363.28	63.8112	3,363.28	59.9381	3,363.28	61.1311
3,481.93	80.9398	3,481.93	79.0994	3,481.93	81.5665	3,481.93	78.8661	3,481.93	80.8601	3,481.93	79.4224	3,481.93	79.6686	3,481.93	79.0484	3,481.93	78.015	3,481.93	77.9189	3,481.93	77.9899	3,481.93	75.1627	3,481.93	80.2104	3,481.93	74.5436	3,481.93	76.1348	3,481.93	70.7647	3,481.93	75.7917	3,481.93	67.7275	3,481.93	69.5196	3,481.93	66.8032	3,481.93	51.1863	3,481.93	64.1786	3,481.93	65.7626	3,481.93	64.1457	3,481.93	66.0882	3,481.93	59.3476	3,481.93	47.2537	3,481.93	64.4554	3,481.93	58.0789	3,481.93	58.0358	3,481.93	60.1665	3,481.93	62.5271	3,481.93	54.7615	3,481.93	63.064	3,481.93	55.3741	3,481.93	63.2791
3,604.98	80.3936	3,604.98	78.5886	3,604.98	80.9746	3,604.98	79.4833	3,604.98	80.5779	3,604.98	79.7889	3,604.98	79.178	3,604.98	79.1324	3,604.98	78.0629	3,604.98	77.3066	3,604.98	78.3181	3,604.98	75.0517	3,604.98	80.0096	3,604.98	72.6016	3,604.98	76.1246	3,604.98	70.4989	3,604.98	72.6072	3,604.98	70.6587	3,604.98	61.4856	3,604.98	64.7439	3,604.98	60.5552	3,604.98	63.6401	3,604.98	64.3769	3,604.98	64.3144	3,604.98	65.0125	3,604.98	58.4986	3,604.98	57.406	3,604.98	62.8372	3,604.98	55.0283	3,604.98	59.3027	3,604.98	60.5931	3,604.98	64.502	3,604.98	59.3186	3,604.98	62.2116	3,604.98	59.1265	3,604.98	61.9351
3,732.42	80.6317	3,732.42	78.8443	3,732.42	81.5283	3,732.42	79.4823	3,732.42	80.2078	3,732.42	79.6749	3,732.42	78.4844	3,732.42	78.3476	3,732.42	77.0685	3,732.42	76.0373	3,732.42	78.903	3,732.42	73.8365	3,732.42	79.1344	3,732.42	71.905	3,732.42	75.5652	3,732.42	72.6112	3,732.42	72.3131	3,732.42	67.1325	3,732.42	69.0047	3,732.42	66.5164	3,732.42	64.6639	3,732.42	61.4253	3,732.42	59.7266	3,732.42	63.087	3,732.42	58.2888	3,732.42	60.8122	3,732.42	62.3931	3,732.42	60.5628	3,732.42	58.0995	3,732.42	55.9701	3,732.42	60.413	3,732.42	60.7798	3,732.42	56.3546	3,732.42	58.2922	3,732.42	58.6404	3,732.42	56.5408
3,864.26	79.9415	3,864.26	79.8944	3,864.26	82.1753	3,864.26	79.9064	3,864.26	80.5202	3,864.26	79.0891	3,864.26	77.6792	3,864.26	78.2078	3,864.26	75.5529	3,864.26	75.8898	3,864.26	79.421	3,864.26	74.2491	3,864.26	78.1034	3,864.26	74.1993	3,864.26	75.2883	3,864.26	70.1801	3,864.26	70.6729	3,864.26	69.6026	3,864.26	69.1533	3,864.26	67.7125	3,864.26	57.5225	3,864.26	66.2314	3,864.26	53.7498	3,864.26	62.723	3,864.26	58.7255	3,864.26	64.2474	3,864.26	60.2018	3,864.26	59.5858	3,864.26	57.1416	3,864.26	58.4759	3,864.26	55.2623	3,864.26	60.3717	3,864.26	55.5646	3,864.26	60.0514	3,864.26	57.3931	3,864.26	60.3326
4,000.49	80.0905	4,000.49	79.697	4,000.49	81.3096	4,000.49	79.6223	4,000.49	81.2757	4,000.49	79.9945	4,000.49	77.5522	4,000.49	77.1692	4,000.49	76.0682	4,000.49	76.1304	4,000.49	78.1018	4,000.49	75.5456	4,000.49	76.2287	4,000.49	73.6794	4,000.49	72.8107	4,000.49	71.9574	4,000.49	68.6272	4,000.49	70.1045	4,000.49	66.6383	4,000.49	67.4035	4,000.49	66.2762	4,000.49	66.2222	4,000.49	63.299	4,000.49	62.6515	4,000.49	61.8461	4,000.49	64.7775	4,000.49	56.0009	4,000.49	56.4891	4,000.49	53.3628	4,000.49	60.1924	4,000.49	53.106	4,000.49	60.8464	4,000.49	56.0176	4,000.49	58.8832	4,000.49	55.7303	4,000.49	57.8166
4,141.11	80.0868	4,141.11	80.6382	4,141.11	81.0014	4,141.11	79.3389	4,141.11	81.2963	4,141.11	78.4314	4,141.11	77.6034	4,141.11	77.1861	4,141.11	75.9577	4,141.11	76.1683	4,141.11	77.5644	4,141.11	75.1133	4,141.11	73.3374	4,141.11	73.7972	4,141.11	71.2374	4,141.11	72.7559	4,141.11	70.4216	4,141.11	68.6062	4,141.11	69.7709	4,141.11	65.087	4,141.11	67.0497	4,141.11	65.1573	4,141.11	63.7603	4,141.11	60.8728	4,141.11	53.5334	4,141.11	64.178	4,141.11	41.5169	4,141.11	58.9665	4,141.11	54.6666	4,141.11	58.0699	4,141.11	58.123	4,141.11	59.0784	4,141.11	55.9678	4,141.11	57.8359	4,141.11	56.401	4,141.11	60.5077
4,287.6	80.7995	4,287.6	79.4668	4,287.6	80.9994	4,287.6	78.4278	4,287.6	81.2411	4,287.6	78.1867	4,287.6	78.2903	4,287.6	76.409	4,287.6	74.7806	4,287.6	76.3275	4,287.6	74.7402	4,287.6	75.3525	4,287.6	71.3413	4,287.6	73.5375	4,287.6	71.447	4,287.6	68.7816	4,287.6	70.6299	4,287.6	69.1266	4,287.6	69.5901	4,287.6	65.7006	4,287.6	63.7753	4,287.6	64.7113	4,287.6	56.3377	4,287.6	62.745	4,287.6	49.4309	4,287.6	62.9424	4,287.6	55.6389	4,287.6	58.916	4,287.6	56.8299	4,287.6	57.7418	4,287.6	52.5056	4,287.6	59.6008	4,287.6	55.3547	4,287.6	56.6181	4,287.6	56.0586	4,287.6	58.9484
4,438.48	81.4356	4,438.48	79.3674	4,438.48	80.5775	4,438.48	79.8247	4,438.48	81.0154	4,438.48	78.3558	4,438.48	77.9513	4,438.48	76.9902	4,438.48	74.906	4,438.48	75.5057	4,438.48	71.5819	4,438.48	73.8814	4,438.48	70.3767	4,438.48	70.6268	4,438.48	73.5219	4,438.48	70.5859	4,438.48	72.1448	4,438.48	66.3751	4,438.48	66.8598	4,438.48	61.8846	4,438.48	47.2571	4,438.48	63.4341	4,438.48	58.6805	4,438.48	60.4319	4,438.48	56.709	4,438.48	62.9498	4,438.48	58.4305	4,438.48	57.6372	4,438.48	58.3253	4,438.48	56.362	4,438.48	54.9477	4,438.48	58.5733	4,438.48	53.5959	4,438.48	55.9461	4,438.48	45.7477	4,438.48	55.8943
4,595.21	81.992	4,595.21	81.1428	4,595.21	81.7299	4,595.21	79.7292	4,595.21	80.6517	4,595.21	76.9062	4,595.21	77.8678	4,595.21	75.241	4,595.21	73.6002	4,595.21	74.6454	4,595.21	70.682	4,595.21	72.668	4,595.21	74.4549	4,595.21	71.7513	4,595.21	74.9366	4,595.21	64.7134	4,595.21	71.7302	4,595.21	66.6156	4,595.21	62.0237	4,595.21	63.5559	4,595.21	59.3594	4,595.21	58.8351	4,595.21	62.9016	4,595.21	59.7478	4,595.21	57.9157	4,595.21	60.6223	4,595.21	57.3639	4,595.21	55.1188	4,595.21	54.9795	4,595.21	56.9689	4,595.21	51.5913	4,595.21	55.929	4,595.21	53.4972	4,595.21	52.4414	4,595.21	51.4735	4,595.21	54.2452
4,756.35	81.5784	4,756.35	80.7786	4,756.35	81.0475	4,756.35	78.8207	4,756.35	80.8581	4,756.35	76.6226	4,756.35	78.7868	4,756.35	75.4335	4,756.35	72.9703	4,756.35	73.6673	4,756.35	70.6213	4,756.35	70.6482	4,756.35	76.2532	4,756.35	67.0198	4,756.35	75.5659	4,756.35	67.8615	4,756.35	70.5291	4,756.35	62.1277	4,756.35	63.2957	4,756.35	61.7229	4,756.35	62.7753	4,756.35	57.3794	4,756.35	56.2627	4,756.35	56.3825	4,756.35	57.96	4,756.35	56.062	4,756.35	57.2971	4,756.35	50.2793	4,756.35	45.2048	4,756.35	57.064	4,756.35	35.1844	4,756.35	56.9664	4,756.35	39.7508	4,756.35	56.342	4,756.35	49.6654	4,756.35	56.8822
4,924.8	81.357	4,924.8	80.8056	4,924.8	81.2952	4,924.8	79.1611	4,924.8	80.3311	4,924.8	78.1788	4,924.8	79.3424	4,924.8	74.8161	4,924.8	73.5466	4,924.8	73.0635	4,924.8	73.5882	4,924.8	70.0028	4,924.8	77.372	4,924.8	69.7131	4,924.8	73.0565	4,924.8	61.7848	4,924.8	68.8808	4,924.8	62.3733	4,924.8	68.1177	4,924.8	60.2707	4,924.8	62.1609	4,924.8	55.8176	4,924.8	48.8611	4,924.8	56.9923	4,924.8	54.4046	4,924.8	53.1099	4,924.8	56.9571	4,924.8	49.5631	4,924.8	53.5806	4,924.8	50.7694	4,924.8	52.0339	4,924.8	52.5815	4,924.8	50.5577	4,924.8	55.4668	4,924.8	53.829	4,924.8	52.4201
5,097.66	81.4129	5,097.66	80.6275	5,097.66	80.1385	5,097.66	79.1122	5,097.66	79.2442	5,097.66	77.231	5,097.66	79.6984	5,097.66	75.0945	5,097.66	72.8797	5,097.66	72.927	5,097.66	76.3039	5,097.66	71.0021	5,097.66	76.3561	5,097.66	66.8041	5,097.66	71.4601	5,097.66	66.8034	5,097.66	69.0238	5,097.66	61.6559	5,097.66	66.8284	5,097.66	59.4504	5,097.66	65.1467	5,097.66	59.6491	5,097.66	52.3881	5,097.66	55.297	5,097.66	54.6492	5,097.66	57.9353	5,097.66	54.6727	5,097.66	50.9977	5,097.66	51.7801	5,097.66	46.4856	5,097.66	42.3542	5,097.66	53.6955	5,097.66	53.1171	5,097.66	50.6361	5,097.66	51.1789	5,097.66	41.7503
5,277.83	79.7375	5,277.83	80.0357	5,277.83	79.7721	5,277.83	79.0561	5,277.83	78.9077	5,277.83	79.0094	5,277.83	78.7268	5,277.83	75.7912	5,277.83	74.129	5,277.83	72.9523	5,277.83	75.7901	5,277.83	70.2908	5,277.83	73.6677	5,277.83	68.3359	5,277.83	71.2206	5,277.83	61.7713	5,277.83	69.5054	5,277.83	61.9037	5,277.83	66.8307	5,277.83	56.4049	5,277.83	62.3697	5,277.83	57.3642	5,277.83	41.3332	5,277.83	58.4795	5,277.83	51.158	5,277.83	57.2182	5,277.83	55.4008	5,277.83	53.2305	5,277.83	53.0201	5,277.83	45.928	5,277.83	49.8776	5,277.83	54.6938	5,277.83	52.1414	5,277.83	52.5606	5,277.83	50.7733	5,277.83	47.9884
5,463.87	80.2804	5,463.87	79.9179	5,463.87	80.1836	5,463.87	79.1923	5,463.87	78.6313	5,463.87	78.1332	5,463.87	78.1229	5,463.87	75.2517	5,463.87	76.6914	5,463.87	72.9336	5,463.87	75.9937	5,463.87	70.4062	5,463.87	71.8428	5,463.87	66.7966	5,463.87	71.3712	5,463.87	65.8299	5,463.87	68.1574	5,463.87	62.1687	5,463.87	65.114	5,463.87	59.2682	5,463.87	58.7153	5,463.87	58.577	5,463.87	49.3628	5,463.87	57.7762	5,463.87	49.5647	5,463.87	54.3037	5,463.87	47.9685	5,463.87	50.6408	5,463.87	51.7677	5,463.87	52.3382	5,463.87	47.6341	5,463.87	40.1727	5,463.87	49.4948	5,463.87	49.0981	5,463.87	45.7239	5,463.87	44.1025
5,657.23	80.1946	5,657.23	79.9496	5,657.23	80.4549	5,657.23	79.6483	5,657.23	78.7965	5,657.23	78.4952	5,657.23	78.2495	5,657.23	75.7321	5,657.23	77.2621	5,657.23	71.3936	5,657.23	74.409	5,657.23	69.5704	5,657.23	71.1524	5,657.23	67.1586	5,657.23	70.5937	5,657.23	62.3348	5,657.23	68.8882	5,657.23	61.7104	5,657.23	62.8677	5,657.23	58.0276	5,657.23	57.1348	5,657.23	55.4032	5,657.23	50.5119	5,657.23	56.087	5,657.23	47.892	5,657.23	56.5045	5,657.23	54.5449	5,657.23	54.8431	5,657.23	45.9202	5,657.23	51.4552	5,657.23	47.7997	5,657.23	43.1899	5,657.23	52.4081	5,657.23	45.7402	5,657.23	47.2067	5,657.23	46.2405
5,856.45	80.2467	5,856.45	80.1183	5,856.45	80.1314	5,856.45	79.3398	5,856.45	79.4871	5,856.45	78.4901	5,856.45	79.2362	5,856.45	74.5576	5,856.45	77.0403	5,856.45	72.103	5,856.45	70.2626	5,856.45	69.346	5,856.45	71.9632	5,856.45	68.1756	5,856.45	70.5104	5,856.45	65.2255	5,856.45	69.3487	5,856.45	60.8205	5,856.45	61.397	5,856.45	58.7463	5,856.45	54.973	5,856.45	54.5582	5,856.45	50.2953	5,856.45	57.2126	5,856.45	46.3829	5,856.45	55.9045	5,856.45	54.9118	5,856.45	52.7223	5,856.45	55.2867	5,856.45	49.8219	5,856.45	38.136	5,856.45	43.7752	5,856.45	51.3694	5,856.45	39.5778	5,856.45	46.0439	5,856.45	47.0001
6,062.99	80.9746	6,062.99	80.5232	6,062.99	80.3737	6,062.99	80.2587	6,062.99	81.2462	6,062.99	78.2857	6,062.99	79.9041	6,062.99	74.5636	6,062.99	75.8303	6,062.99	71.4204	6,062.99	66.5942	6,062.99	71.0895	6,062.99	71.6698	6,062.99	67.2636	6,062.99	70.8791	6,062.99	64.2422	6,062.99	69.4359	6,062.99	62.4938	6,062.99	66.7448	6,062.99	58.0287	6,062.99	59.827	6,062.99	56.6081	6,062.99	47.5515	6,062.99	56.3517	6,062.99	46.581	6,062.99	55.0552	6,062.99	51.4067	6,062.99	54.7233	6,062.99	56.8317	6,062.99	51.2517	6,062.99	24.4169	6,062.99	49.2586	6,062.99	48.3338	6,062.99	39.8587	6,062.99	42.1957	6,062.99	44.741
6,276.86	81.7829	6,276.86	81.059	6,276.86	81.5374	6,276.86	80.1593	6,276.86	80.1203	6,276.86	77.6283	6,276.86	79.3632	6,276.86	73.8553	6,276.86	72.8456	6,276.86	72.6507	6,276.86	70.3197	6,276.86	69.6139	6,276.86	71.3804	6,276.86	66.7552	6,276.86	72.43	6,276.86	63.26	6,276.86	67.4947	6,276.86	61.0476	6,276.86	64.7126	6,276.86	56.5852	6,276.86	60.603	6,276.86	54.7035	6,276.86	57.2912	6,276.86	54.5676	6,276.86	45.1247	6,276.86	55.6039	6,276.86	53.7176	6,276.86	55.396	6,276.86	56.2348	6,276.86	48.7219	6,276.86	46.5249	6,276.86	47.3519	6,276.86	52.9371	6,276.86	49.6165	6,276.86	29.5349	6,276.86	43.4623
6,498.05	81.4327	6,498.05	81.0596	6,498.05	81.0172	6,498.05	79.7987	6,498.05	78.7897	6,498.05	77.0303	6,498.05	78.7573	6,498.05	73.7091	6,498.05	72.7652	6,498.05	72.2693	6,498.05	71.7349	6,498.05	69.0586	6,498.05	70.6489	6,498.05	67.1364	6,498.05	72.051	6,498.05	63.5818	6,498.05	65.5233	6,498.05	62.1168	6,498.05	62.8481	6,498.05	58.759	6,498.05	58.7883	6,498.05	56.1223	6,498.05	55.62	6,498.05	55.9729	6,498.05	46.7407	6,498.05	55.8926	6,498.05	46.8299	6,498.05	52.8047	6,498.05	54.0947	6,498.05	49.5324	6,498.05	38.902	6,498.05	49.9708	6,498.05	47.7324	6,498.05	51.6138	6,498.05	42.4674	6,498.05	48.5414
6,726.56	81.1236	6,726.56	80.925	6,726.56	81.4391	6,726.56	79.8217	6,726.56	80.4669	6,726.56	76.7763	6,726.56	77.8015	6,726.56	73.3293	6,726.56	75.6777	6,726.56	71.9504	6,726.56	70.8884	6,726.56	69.7219	6,726.56	71.7151	6,726.56	67.3929	6,726.56	67.7448	6,726.56	64.6036	6,726.56	66.0232	6,726.56	61.1886	6,726.56	61.4476	6,726.56	59.6553	6,726.56	58.6062	6,726.56	54.22	6,726.56	53.5435	6,726.56	53.9347	6,726.56	47.3096	6,726.56	55.9923	6,726.56	48.2235	6,726.56	54.1969	6,726.56	53.3165	6,726.56	49.9674	6,726.56	43.655	6,726.56	50.8042	6,726.56	44.337	6,726.56	49.3799	6,726.56	47.1873	6,726.56	45.6298
6,963.87	80.8744	6,963.87	80.9377	6,963.87	81.6533	6,963.87	79.1038	6,963.87	80.5514	6,963.87	77.322	6,963.87	77.5425	6,963.87	73.7307	6,963.87	76.3947	6,963.87	71.9466	6,963.87	70.5176	6,963.87	70.6784	6,963.87	71.2357	6,963.87	68.1112	6,963.87	66.0311	6,963.87	64.8305	6,963.87	69.0247	6,963.87	61.7099	6,963.87	65.7099	6,963.87	58.7831	6,963.87	56.2728	6,963.87	53.6846	6,963.87	52.2894	6,963.87	54.7127	6,963.87	52.1307	6,963.87	55.2994	6,963.87	41.7619	6,963.87	55.03	6,963.87	50.2911	6,963.87	52.4866	6,963.87	37.4965	6,963.87	36.4269	6,963.87	38.2555	6,963.87	44.587	6,963.87	48.6195	6,963.87	46.8526
7,209.96	81.2048	7,209.96	80.8384	7,209.96	80.6882	7,209.96	79.1754	7,209.96	79.3418	7,209.96	77.4054	7,209.96	77.9562	7,209.96	73.5697	7,209.96	75.4736	7,209.96	72.1008	7,209.96	69.8841	7,209.96	71.191	7,209.96	68.5259	7,209.96	68.0121	7,209.96	70.4026	7,209.96	64.6693	7,209.96	69.0887	7,209.96	62.2986	7,209.96	64.1412	7,209.96	57.4878	7,209.96	54.8816	7,209.96	53.9851	7,209.96	48.9615	7,209.96	56.0683	7,209.96	51.9732	7,209.96	53.7909	7,209.96	43.0214	7,209.96	53.2301	7,209.96	47.7385	7,209.96	54.8232	7,209.96	39.8959	7,209.96	41.9364	7,209.96	43.6217	7,209.96	40.6841	7,209.96	45.628	7,209.96	46.9013
7,464.84	81.3625	7,464.84	81.0434	7,464.84	80.25	7,464.84	78.976	7,464.84	78.6626	7,464.84	76.9965	7,464.84	78.1475	7,464.84	74.3556	7,464.84	72.6062	7,464.84	72.5766	7,464.84	70.3804	7,464.84	70.449	7,464.84	65.1431	7,464.84	66.5925	7,464.84	71.0572	7,464.84	63.4023	7,464.84	63.5603	7,464.84	59.8996	7,464.84	58.9341	7,464.84	56.2224	7,464.84	55.2631	7,464.84	53.6188	7,464.84	51.2443	7,464.84	54.6655	7,464.84	48.7796	7,464.84	53.3216	7,464.84	42.2481	7,464.84	53.2494	7,464.84	46.6827	7,464.84	52.2743	7,464.84	33.5093	7,464.84	45.2702	7,464.84	47.2755	7,464.84	38.9715	7,464.84	34.3564	7,464.84	48.4095
7,727.05	80.9963	7,727.05	80.6759	7,727.05	80.5439	7,727.05	78.8863	7,727.05	78.3929	7,727.05	76.9005	7,727.05	77.716	7,727.05	74.1699	7,727.05	72.6376	7,727.05	72.1701	7,727.05	68.9724	7,727.05	69.2048	7,727.05	67.0646	7,727.05	65.5372	7,727.05	68.7922	7,727.05	62.5039	7,727.05	59.9307	7,727.05	59.0314	7,727.05	60.8582	7,727.05	57.3622	7,727.05	57.694	7,727.05	51.734	7,727.05	49.8326	7,727.05	52.907	7,727.05	51.4982	7,727.05	55.3567	7,727.05	45.2288	7,727.05	53.2222	7,727.05	48.1339	7,727.05	49.3384	7,727.05	40.1286	7,727.05	47.0143	7,727.05	37.8827	7,727.05	25.4695	7,727.05	44.2756	7,727.05	41.4688
7,999.51	80.7845	7,999.51	80.5219	7,999.51	80.0544	7,999.51	78.5071	7,999.51	78.291	7,999.51	76.82	7,999.51	75.8872	7,999.51	73.0038	7,999.51	74.2775	7,999.51	70.6979	7,999.51	67.036	7,999.51	68.2277	7,999.51	68.0655	7,999.51	64.2652	7,999.51	63.7924	7,999.51	61.007	7,999.51	63.3937	7,999.51	57.547	7,999.51	59.8225	7,999.51	55.6344	7,999.51	53.1169	7,999.51	48.7631	7,999.51	47.5184	7,999.51	53.3351	7,999.51	47.5397	7,999.51	54.2734	7,999.51	37.8772	7,999.51	51.8904	7,999.51	40.1241	7,999.51	47.9377	7,999.51	46.1598	7,999.51	46.1469	7,999.51	46.683	7,999.51	42.3439	7,999.51	45.5623	7,999.51	45.4808
8,282.23	81.0295	8,282.23	80.0014	8,282.23	79.9939	8,282.23	78.1354	8,282.23	78.3944	8,282.23	76.3329	8,282.23	75.6674	8,282.23	72.3854	8,282.23	74.2453	8,282.23	69.3571	8,282.23	67.3392	8,282.23	66.7113	8,282.23	65.6197	8,282.23	62.6746	8,282.23	63.2866	8,282.23	58.7284	8,282.23	64.9365	8,282.23	56.1999	8,282.23	60.933	8,282.23	52.3914	8,282.23	48.2391	8,282.23	51.209	8,282.23	51.0992	8,282.23	52.0475	8,282.23	46.7564	8,282.23	52.9397	8,282.23	35.8486	8,282.23	47.6298	8,282.23	40.6465	8,282.23	51.802	8,282.23	45.8513	8,282.23	47.5011	8,282.23	35.5275	8,282.23	36.3025	8,282.23	35.3328	8,282.23	41.6474
8,573.73	81.1721	8,573.73	80.0183	8,573.73	80.1084	8,573.73	78.2305	8,573.73	78.2936	8,573.73	75.2324	8,573.73	76.5313	8,573.73	71.4084	8,573.73	73.2987	8,573.73	68.1374	8,573.73	68.4234	8,573.73	64.5156	8,573.73	60.6434	8,573.73	60.7033	8,573.73	65.924	8,573.73	55.0323	8,573.73	61.218	8,573.73	52.1823	8,573.73	55.9017	8,573.73	47.5111	8,573.73	30.5917	8,573.73	47.1122	8,573.73	49.6031	8,573.73	49.3196	8,573.73	44.0737	8,573.73	46.1699	8,573.73	37.579	8,573.73	49.2984	8,573.73	27.113	8,573.73	49.5008	8,573.73	42.7581	8,573.73	47.8506	8,573.73	42.0367	8,573.73	35.6595	8,573.73	40.2601	8,573.73	45.4218
8,876.95	80.7258	8,876.95	79.7232	8,876.95	79.8988	8,876.95	77.7083	8,876.95	78.2184	8,876.95	74.2816	8,876.95	76.2515	8,876.95	69.3754	8,876.95	70.887	8,876.95	65.8077	8,876.95	67.6373	8,876.95	63.1018	8,876.95	56.7277	8,876.95	54.8936	8,876.95	64.3343	8,876.95	53.7548	8,876.95	52.0767	8,876.95	45.7407	8,876.95	53.3987	8,876.95	46.5817	8,876.95	48.361	8,876.95	39.7404	8,876.95	42.5619	8,876.95	42.8422	8,876.95	49.3179	8,876.95	42.722	8,876.95	43.1581	8,876.95	51.2106	8,876.95	41.0163	8,876.95	48.2165	8,876.95	33.7554	8,876.95	45.0233	8,876.95	38.8435	8,876.95	42.9128	8,876.95	42.8783	8,876.95	44.2097
9,188.96	80.2554	9,188.96	79.1682	9,188.96	79.7784	9,188.96	76.942	9,188.96	77.4843	9,188.96	73.6997	9,188.96	75.0797	9,188.96	68.348	9,188.96	70.2721	9,188.96	65.1481	9,188.96	65.2415	9,188.96	61.3305	9,188.96	59.7903	9,188.96	54.7893	9,188.96	59.0357	9,188.96	54.2221	9,188.96	57.2677	9,188.96	50.3618	9,188.96	55.2558	9,188.96	44.0065	9,188.96	48.2798	9,188.96	39.7023	9,188.96	45.5839	9,188.96	42.6252	9,188.96	46.1738	9,188.96	46.0767	9,188.96	42.1235	9,188.96	46.3527	9,188.96	39.0575	9,188.96	45.2166	9,188.96	31.4595	9,188.96	45.214	9,188.96	15.902	9,188.96	43.1508	9,188.96	41.0291	9,188.96	37.7135
9,514.16	80.2356	9,514.16	79.0724	9,514.16	79.5738	9,514.16	76.6087	9,514.16	77.2713	9,514.16	73.5999	9,514.16	73.653	9,514.16	67.7969	9,514.16	69.9551	9,514.16	64.5585	9,514.16	63.9557	9,514.16	61.4501	9,514.16	60.8253	9,514.16	57.75	9,514.16	61.0655	9,514.16	55.564	9,514.16	59.2758	9,514.16	50.5919	9,514.16	56.9484	9,514.16	47.2991	9,514.16	31.1259	9,514.16	44.5444	9,514.16	37.5777	9,514.16	45.5459	9,514.16	43.8512	9,514.16	39.0048	9,514.16	37.8805	9,514.16	41.5729	9,514.16	34.794	9,514.16	45.1706	9,514.16	29.1865	9,514.16	43.2985	9,514.16	39.5926	9,514.16	44.0708	9,514.16	43.8589	9,514.16	38.7876
9,849.61	80.1512	9,849.61	79.0119	9,849.61	79.4898	9,849.61	76.5816	9,849.61	77.4541	9,849.61	73.4285	9,849.61	73.4709	9,849.61	67.7201	9,849.61	70.6788	9,849.61	64.2286	9,849.61	65.2338	9,849.61	62.1367	9,849.61	57.7802	9,849.61	59.2954	9,849.61	59.7003	9,849.61	56.5678	9,849.61	57.9459	9,849.61	53.5765	9,849.61	53.5612	9,849.61	48.231	9,849.61	46.6547	9,849.61	44.433	9,849.61	47.234	9,849.61	47.2915	9,849.61	48.3787	9,849.61	41.5642	9,849.61	17.5511	9,849.61	45.9459	9,849.61	42.2767	9,849.61	45.1294	9,849.61	28.3666	9,849.61	43.3856	9,849.61	40.8604	9,849.61	34.7311	9,849.61	42.0938	9,849.61	39.5097
10,196.8	80.0246	10,196.8	79.1306	10,196.8	79.6313	10,196.8	76.4113	10,196.8	76.7719	10,196.8	72.9999	10,196.8	74.3377	10,196.8	67.5479	10,196.8	69.9696	10,196.8	63.2974	10,196.8	65.7618	10,196.8	62.4639	10,196.8	53.1091	10,196.8	59.654	10,196.8	59.7487	10,196.8	56.0178	10,196.8	57.939	10,196.8	55.0988	10,196.8	57.473	10,196.8	46.1994	10,196.8	45.2594	10,196.8	45.4417	10,196.8	47.6672	10,196.8	46.5732	10,196.8	43.0612	10,196.8	45.9661	10,196.8	42.1864	10,196.8	47.3248	10,196.8	41.1739	10,196.8	43.3683	10,196.8	32.4856	10,196.8	42.7068	10,196.8	34.3866	10,196.8	38.3169	10,196.8	42.488	10,196.8	39.6072
10,555.7	80.1629	10,555.7	79.0338	10,555.7	79.7142	10,555.7	76.3104	10,555.7	76.4077	10,555.7	72.6428	10,555.7	73.2915	10,555.7	67.2706	10,555.7	67.1647	10,555.7	62.1308	10,555.7	65.488	10,555.7	62.797	10,555.7	55.5066	10,555.7	59.605	10,555.7	60.362	10,555.7	56.2886	10,555.7	59.3476	10,555.7	53.4816	10,555.7	51.1594	10,555.7	48.7022	10,555.7	39.6713	10,555.7	45.1632	10,555.7	49.8343	10,555.7	40.9694	10,555.7	44.709	10,555.7	44.2297	10,555.7	34.0791	10,555.7	46.7452	10,555.7	43.1122	10,555.7	45.3299	10,555.7	37.0411	10,555.7	40.4753	10,555.7	27.4693	10,555.7	40.8427	10,555.7	46.1102	10,555.7	34.6975
10,927.7	79.9166	10,927.7	78.9827	10,927.7	79.6603	10,927.7	76.0619	10,927.7	76.6293	10,927.7	72.4155	10,927.7	71.6093	10,927.7	65.6061	10,927.7	66.1117	10,927.7	62.2101	10,927.7	63.8553	10,927.7	62.1646	10,927.7	58.7709	10,927.7	58.2865	10,927.7	55.3732	10,927.7	53.506	10,927.7	59.1521	10,927.7	50.0483	10,927.7	51.9584	10,927.7	48.5074	10,927.7	43.8154	10,927.7	41.1754	10,927.7	50.0602	10,927.7	43.1394	10,927.7	44.8381	10,927.7	45.0609	10,927.7	39.3514	10,927.7	46.1241	10,927.7	33.7061	10,927.7	42.6271	10,927.7	24.3475	10,927.7	39.5104	10,927.7	35.5034	10,927.7	41.6635	10,927.7	43.7003	10,927.7	40.3816
11,313	80.0917	11,313	79.1195	11,313	79.5074	11,313	76.2387	11,313	76.5664	11,313	71.8056	11,313	71.6979	11,313	63.859	11,313	66.7689	11,313	61.8278	11,313	61.7463	11,313	60.3509	11,313	54.554	11,313	55.022	11,313	51.4519	11,313	52.3566	11,313	58.1948	11,313	50.6416	11,313	55.0177	11,313	44.839	11,313	33.1998	11,313	39.1099	11,313	48.5424	11,313	44.7267	11,313	47.9109	11,313	45.9783	11,313	41.6069	11,313	44.5374	11,313	33.1519	11,313	43.3303	11,313	28.1973	11,313	40.6389	11,313	34.0615	11,313	39.5483	11,313	42.8138	11,313	39.7335
11,712.9	80.3027	11,712.9	79.2058	11,712.9	79.5321	11,712.9	76.051	11,712.9	76.352	11,712.9	70.7355	11,712.9	71.9914	11,712.9	63.3511	11,712.9	64.5769	11,712.9	61.4218	11,712.9	60.5315	11,712.9	61.2035	11,712.9	54.7145	11,712.9	57.4365	11,712.9	52.3991	11,712.9	53.6121	11,712.9	58.3272	11,712.9	51.146	11,712.9	50.1347	11,712.9	48.1695	11,712.9	33.8728	11,712.9	41.9141	11,712.9	48.2672	11,712.9	45.2105	11,712.9	47.4209	11,712.9	45.6309	11,712.9	39.9967	11,712.9	44.9733	11,712.9	26.2377	11,712.9	45.4021	11,712.9	21.79	11,712.9	43.7328	11,712.9	29.8267	11,712.9	37.4781	11,712.9	39.9469	11,712.9	37.8585
12,126	80.1038	12,126	79.0371	12,126	79.4094	12,126	75.8874	12,126	76.1065	12,126	69.6386	12,126	71.7291	12,126	64.4904	12,126	65.1988	12,126	62.9382	12,126	59.7337	12,126	61.5907	12,126	55.6211	12,126	58.9147	12,126	47.7303	12,126	55.4643	12,126	56.08	12,126	52.9835	12,126	52.3896	12,126	49.8071	12,126	37.5736	12,126	41.0464	12,126	47.1782	12,126	46.3618	12,126	50.2484	12,126	47.5531	12,126	40.7908	12,126	47.3236	12,126	35.5372	12,126	42.4399	12,126	30.1977	12,126	41.7046	12,126	30.0145	12,126	34.4723	12,126	40.8046	12,126	40.7226
12,553.7	79.9763	12,553.7	79.0325	12,553.7	79.3393	12,553.7	75.7296	12,553.7	76.4248	12,553.7	69.377	12,553.7	71.6793	12,553.7	66.3481	12,553.7	65.536	12,553.7	63.7358	12,553.7	60.7213	12,553.7	62.2459	12,553.7	54.5973	12,553.7	60.3575	12,553.7	52.7393	12,553.7	57.9403	12,553.7	56.3321	12,553.7	53.7299	12,553.7	53.9742	12,553.7	50.2811	12,553.7	38.1498	12,553.7	36.3452	12,553.7	47.4691	12,553.7	46.2253	12,553.7	53.0482	12,553.7	47.842	12,553.7	36.7247	12,553.7	47.9198	12,553.7	36.9094	12,553.7	44.7738	12,553.7	23.0728	12,553.7	40.0479	12,553.7	28.3252	12,553.7	33.1443	12,553.7	37.1315	12,553.7	38.0854
12,996.1	79.9712	12,996.1	78.9182	12,996.1	79.2906	12,996.1	75.4891	12,996.1	76.5733	12,996.1	70.1	12,996.1	72.5618	12,996.1	67.6132	12,996.1	64.9814	12,996.1	63.8458	12,996.1	62.1256	12,996.1	63.2265	12,996.1	57.8817	12,996.1	60.8396	12,996.1	53.7005	12,996.1	56.196	12,996.1	56.4173	12,996.1	51.9806	12,996.1	52.1934	12,996.1	48.9728	12,996.1	42.769	12,996.1	34.3704	12,996.1	50.4299	12,996.1	45.8984	12,996.1	53.9766	12,996.1	48.007	12,996.1	42.3846	12,996.1	47.2863	12,996.1	29.5397	12,996.1	44.3253	12,996.1	21.8734	12,996.1	39.4138	12,996.1	33.7672	12,996.1	34.1706	12,996.1	35.9288	12,996.1	37.3557
13,454.6	80.2189	13,454.6	79.0126	13,454.6	79.2012	13,454.6	75.4582	13,454.6	76.7555	13,454.6	71.3604	13,454.6	73.1863	13,454.6	66.9023	13,454.6	66.4902	13,454.6	63.4322	13,454.6	62.8518	13,454.6	63.2992	13,454.6	58.7554	13,454.6	60.6884	13,454.6	55.3633	13,454.6	56.9677	13,454.6	53.3658	13,454.6	52.6516	13,454.6	52.3216	13,454.6	46.8369	13,454.6	49.2618	13,454.6	38.4188	13,454.6	50.6228	13,454.6	45.6888	13,454.6	54.261	13,454.6	47.0338	13,454.6	42.4478	13,454.6	46.2543	13,454.6	34.1478	13,454.6	41.7444	13,454.6	22.3386	13,454.6	38.3978	13,454.6	36.8333	13,454.6	18.739	13,454.6	35.1728	13,454.6	35.4609
13,929.2	79.9596	13,929.2	79.1219	13,929.2	79.1412	13,929.2	75.416	13,929.2	76.639	13,929.2	72.1354	13,929.2	72.7386	13,929.2	66.1353	13,929.2	67.526	13,929.2	63.0873	13,929.2	63.8228	13,929.2	63.0747	13,929.2	57.3399	13,929.2	59.4661	13,929.2	53.867	13,929.2	53.8746	13,929.2	48.3402	13,929.2	49.7418	13,929.2	51.5873	13,929.2	46.119	13,929.2	48.3049	13,929.2	35.2572	13,929.2	51.6213	13,929.2	43.5818	13,929.2	53.8514	13,929.2	44.0966	13,929.2	37.4132	13,929.2	43.6743	13,929.2	34.8153	13,929.2	39.7237	13,929.2	16.0814	13,929.2	37.5496	13,929.2	28.6599	13,929.2	28.7355	13,929.2	27.7619	13,929.2	36.2096
14,419.9	79.7754	14,419.9	78.9112	14,419.9	78.7706	14,419.9	75.7075	14,419.9	76.9804	14,419.9	72.2166	14,419.9	73.0084	14,419.9	65.5921	14,419.9	67.9278	14,419.9	62.7798	14,419.9	61.9906	14,419.9	62.3324	14,419.9	58.4159	14,419.9	57.3652	14,419.9	51.2017	14,419.9	53.6753	14,419.9	48.5976	14,419.9	50.2535	14,419.9	49.8042	14,419.9	45.5986	14,419.9	50.3536	14,419.9	33.252	14,419.9	49.9142	14,419.9	41.8642	14,419.9	53.1833	14,419.9	44.1975	14,419.9	40.4505	14,419.9	42.7015	14,419.9	24.471	14,419.9	39.6439	14,419.9	21.7623	14,419.9	30.3292	14,419.9	33.3868	14,419.9	25.546	14,419.9	31.371	14,419.9	35.3148
14,928.2	79.8074	14,928.2	78.7394	14,928.2	78.6796	14,928.2	75.5877	14,928.2	76.5095	14,928.2	72.3608	14,928.2	72.9652	14,928.2	65.1158	14,928.2	65.8113	14,928.2	62.1899	14,928.2	61.7637	14,928.2	60.0354	14,928.2	57.2846	14,928.2	55.719	14,928.2	51.2378	14,928.2	50.4119	14,928.2	43.8288	14,928.2	47.8397	14,928.2	46.5619	14,928.2	43.8693	14,928.2	48.6449	14,928.2	32.2619	14,928.2	49.8223	14,928.2	39.0633	14,928.2	52.3647	14,928.2	42.2785	14,928.2	38.5144	14,928.2	41.018	14,928.2	33.0335	14,928.2	38.8736	14,928.2	28.0503	14,928.2	32.0156	14,928.2	23.884	14,928.2	15.3834	14,928.2	26.4833	14,928.2	25.7054
15,455.6	79.8218	15,455.6	78.8564	15,455.6	79.135	15,455.6	75.909	15,455.6	76.3695	15,455.6	71.5671	15,455.6	72.6937	15,455.6	65.3333	15,455.6	66.2001	15,455.6	61.4282	15,455.6	61.4949	15,455.6	57.349	15,455.6	55.6468	15,455.6	51.5693	15,455.6	51.0222	15,455.6	49.8725	15,455.6	44.7876	15,455.6	47.1042	15,455.6	47.1679	15,455.6	41.4347	15,455.6	49.1948	15,455.6	30.9536	15,455.6	49.0327	15,455.6	38.464	15,455.6	51.8114	15,455.6	41.547	15,455.6	38.4151	15,455.6	38.8697	15,455.6	26.1264	15,455.6	34.6729	15,455.6	24.9776	15,455.6	31.2156	15,455.6	22.8837	15,455.6	27.1248	15,455.6	32.7801	15,455.6	29.0799
16,000.5	79.797	16,000.5	78.892	16,000.5	79.2445	16,000.5	76.1007	16,000.5	76.2161	16,000.5	70.6846	16,000.5	72.5573	16,000.5	64.2926	16,000.5	65.4729	16,000.5	59.6021	16,000.5	60.4451	16,000.5	54.9743	16,000.5	54.1341	16,000.5	51.4138	16,000.5	49.4619	16,000.5	46.5632	16,000.5	43.8399	16,000.5	43.8707	16,000.5	43.3007	16,000.5	37.3575	16,000.5	47.2785	16,000.5	29.8333	16,000.5	47.0905	16,000.5	34.9875	16,000.5	50.8833	16,000.5	34.2912	16,000.5	35.8123	16,000.5	33.8707	16,000.5	33.2148	16,000.5	28.405	16,000.5	26.8454	16,000.5	22.9676	16,000.5	20.6906	16,000.5	22.3915	16,000.5	29.8694	16,000.5	22.5883
16,564.5	79.8171	16,564.5	78.8232	16,564.5	79.0527	16,564.5	75.6784	16,564.5	75.9728	16,564.5	69.8575	16,564.5	71.526	16,564.5	62.5806	16,564.5	63.6991	16,564.5	55.9597	16,564.5	56.9296	16,564.5	51.5856	16,564.5	49.295	16,564.5	47.1684	16,564.5	43.9086	16,564.5	42.901	16,564.5	32.5326	16,564.5	38.7943	16,564.5	36.4897	16,564.5	32.1658	16,564.5	44.9131	16,564.5	27.8367	16,564.5	43.5262	16,564.5	32.0134	16,564.5	48.0773	16,564.5	28.615	16,564.5	34.1697	16,564.5	32.7948	16,564.5	30.2523	16,564.5	28.922	16,564.5	24.9352	16,564.5	18.3665	16,564.5	24.674	16,564.5	30.6965	16,564.5	30.5986	16,564.5	16.9629
17,148.9	79.7898	17,148.9	78.6415	17,148.9	78.9412	17,148.9	74.8	17,148.9	75.4739	17,148.9	68.3534	17,148.9	70.4506	17,148.9	59.5307	17,148.9	61.3421	17,148.9	50.318	17,148.9	51.6366	17,148.9	37.3573	17,148.9	40.3483	17,148.9	40.4847	17,148.9	30.8455	17,148.9	35.4167	17,148.9	31.2785	17,148.9	33.7765	17,148.9	25.1321	17,148.9	22.0177	17,148.9	41.2867	17,148.9	30.7822	17,148.9	33.8592	17,148.9	25.942	17,148.9	44.4324	17,148.9	25.2422	17,148.9	30.5808	17,148.9	28.0214	17,148.9	30.4537	17,148.9	21.9573	17,148.9	23.7152	17,148.9	23.7731	17,148.9	30.4163	17,148.9	31.3921	17,148.9	30.3524	17,148.9	23.4273
17,752.4	79.9155	17,752.4	78.4232	17,752.4	78.8568	17,752.4	73.9201	17,752.4	74.76	17,752.4	66.3027	17,752.4	68.7553	17,752.4	55.6804	17,752.4	57.7152	17,752.4	44.0317	17,752.4	50.8079	17,752.4	46.8313	17,752.4	46.7777	17,752.4	40.5489	17,752.4	41.1534	17,752.4	36.8611	17,752.4	39.5772	17,752.4	31.4446	17,752.4	13.8918	17,752.4	27.9582	17,752.4	33.6928	17,752.4	32.6198	17,752.4	29.6967	17,752.4	28.9618	17,752.4	42.5737	17,752.4	29.6405	17,752.4	28.8443	17,752.4	27.7455	17,752.4	29.6051	17,752.4	13.4204	17,752.4	20.3498	17,752.4	26.4718	17,752.4	32.0699	17,752.4	31.6424	17,752.4	23.3967	17,752.4	28.5521
18,379.4	79.7446	18,379.4	78.028	18,379.4	78.5612	18,379.4	72.9014	18,379.4	74.021	18,379.4	63.7885	18,379.4	66.7812	18,379.4	52.2625	18,379.4	53.5462	18,379.4	52.1373	18,379.4	53.2018	18,379.4	53.2153	18,379.4	50.9132	18,379.4	46.0025	18,379.4	46.7963	18,379.4	42.8125	18,379.4	40.9437	18,379.4	38.9131	18,379.4	28.0272	18,379.4	30.9221	18,379.4	29.7136	18,379.4	26.0082	18,379.4	38.1923	18,379.4	31.0621	18,379.4	43.1883	18,379.4	31.3126	18,379.4	26.8789	18,379.4	29.4912	18,379.4	24.2823	18,379.4	23.9514	18,379.4	15.3402	18,379.4	30.8753	18,379.4	31.677	18,379.4	30.058	18,379.4	24.9331	18,379.4	29.437
19,026.9	79.3801	19,026.9	77.5426	19,026.9	78.0667	19,026.9	71.6944	19,026.9	73.1267	19,026.9	60.6722	19,026.9	64.3006	19,026.9	54.0152	19,026.9	53.0118	19,026.9	56.0378	19,026.9	56.8093	19,026.9	54.7461	19,026.9	52.8443	19,026.9	49.4013	19,026.9	49.9812	19,026.9	43.8316	19,026.9	43.8502	19,026.9	40.613	19,026.9	28.998	19,026.9	34.7539	19,026.9	32.6289	19,026.9	32.6081	19,026.9	41.2941	19,026.9	34.1445	19,026.9	44.5587	19,026.9	32.6305	19,026.9	24.0135	19,026.9	30.7694	19,026.9	23.3365	19,026.9	24.7158	19,026.9	13.2049	19,026.9	30.4883	19,026.9	29.9443	19,026.9	25.7518	19,026.9	28.9928	19,026.9	29.1249
19,697.8	79.0272	19,697.8	76.9893	19,697.8	77.7038	19,697.8	70.2841	19,697.8	72.2047	19,697.8	56.81	19,697.8	61.6557	19,697.8	57.0746	19,697.8	56.039	19,697.8	57.2696	19,697.8	57.2603	19,697.8	55.3924	19,697.8	53.1598	19,697.8	50.2387	19,697.8	48.2191	19,697.8	44.4171	19,697.8	43.0863	19,697.8	40.4414	19,697.8	32.1775	19,697.8	34.7824	19,697.8	32.5525	19,697.8	26.2323	19,697.8	42.8099	19,697.8	32.8171	19,697.8	45.2432	19,697.8	31.8455	19,697.8	28.1495	19,697.8	27.971	19,697.8	23.8502	19,697.8	23.5277	19,697.8	14.0571	19,697.8	30.8752	19,697.8	29.6531	19,697.8	28.8256	19,697.8	26.3161	19,697.8	28.3405
19,999.5	78.6885	19,999.5	76.7379	19,999.5	77.5723	19,999.5	69.7117	19,999.5	71.7584	19,999.5	54.2305	19,999.5	59.7861	19,999.5	59.6175	19,999.5	54.3455	19,999.5	56.5075	19,999.5	58.2021	19,999.5	55.7829	19,999.5	55.4963	19,999.5	53.2332	19,999.5	53.15	19,999.5	46.6049	19,999.5	35.8688	19,999.5	43.022	19,999.5	38.8381	19,999.5	43.0242	19,999.5	33.4401	19,999.5	39.5512	19,999.5	45.3038	19,999.5	23.7615	19,999.5	45.6453	19,999.5	40.2043	19,999.5	41.8278	19,999.5	39.0031	19,999.5	28.3174	19,999.5	44.4839	19,999.5	32.7799	19,999.5	27.8684	19,999.5	40.6614	19,999.5	24.3708	19,999.5	31.0306	19,999.5	35.011
