"SPL Horizontal"
"On-Axis"		"10°"		"-10°"		"20°"		"-20°"		"30°"		"-30°"		"40°"		"-40°"		"50°"		"-50°"		"60°"		"-60°"		"70°"		"-70°"		"80°"		"-80°"		"90°"		"-90°"		"100°"		"-100°"		"110°"		"-110°"		"120°"		"-120°"		"130°"		"-130°"		"140°"		"-140°"		"150°"		"-150°"		"160°"		"-160°"		"170°"		"-170°"		"180°"
"Frequency / Hz"	"Sound Pressure Level / dB (re 20 µPa/V)  [2.83  V @ 1. m]"	"Frequency / Hz"	"Sound Pressure Level / dB (re 20 µPa/V)  [2.83  V @ 1. m]"	"Frequency / Hz"	"Sound Pressure Level / dB (re 20 µPa/V)  [2.83  V @ 1. m]"	"Frequency / Hz"	"Sound Pressure Level / dB (re 20 µPa/V)  [2.83  V @ 1. m]"	"Frequency / Hz"	"Sound Pressure Level / dB (re 20 µPa/V)  [2.83  V @ 1. m]"	"Frequency / Hz"	"Sound Pressure Level / dB (re 20 µPa/V)  [2.83  V @ 1. m]"	"Frequency / Hz"	"Sound Pressure Level / dB (re 20 µPa/V)  [2.83  V @ 1. m]"	"Frequency / Hz"	"Sound Pressure Level / dB (re 20 µPa/V)  [2.83  V @ 1. m]"	"Frequency / Hz"	"Sound Pressure Level / dB (re 20 µPa/V)  [2.83  V @ 1. m]"	"Frequency / Hz"	"Sound Pressure Level / dB (re 20 µPa/V)  [2.83  V @ 1. m]"	"Frequency / Hz"	"Sound Pressure Level / dB (re 20 µPa/V)  [2.83  V @ 1. m]"	"Frequency / Hz"	"Sound Pressure Level / dB (re 20 µPa/V)  [2.83  V @ 1. m]"	"Frequency / Hz"	"Sound Pressure Level / dB (re 20 µPa/V)  [2.83  V @ 1. m]"	"Frequency / Hz"	"Sound Pressure Level / dB (re 20 µPa/V)  [2.83  V @ 1. m]"	"Frequency / Hz"	"Sound Pressure Level / dB (re 20 µPa/V)  [2.83  V @ 1. m]"	"Frequency / Hz"	"Sound Pressure Level / dB (re 20 µPa/V)  [2.83  V @ 1. m]"	"Frequency / Hz"	"Sound Pressure Level / dB (re 20 µPa/V)  [2.83  V @ 1. m]"	"Frequency / Hz"	"Sound Pressure Level / dB (re 20 µPa/V)  [2.83  V @ 1. m]"	"Frequency / Hz"	"Sound Pressure Level / dB (re 20 µPa/V)  [2.83  V @ 1. m]"	"Frequency / Hz"	"Sound Pressure Level / dB (re 20 µPa/V)  [2.83  V @ 1. m]"	"Frequency / Hz"	"Sound Pressure Level / dB (re 20 µPa/V)  [2.83  V @ 1. m]"	"Frequency / Hz"	"Sound Pressure Level / dB (re 20 µPa/V)  [2.83  V @ 1. m]"	"Frequency / Hz"	"Sound Pressure Level / dB (re 20 µPa/V)  [2.83  V @ 1. m]"	"Frequency / Hz"	"Sound Pressure Level / dB (re 20 µPa/V)  [2.83  V @ 1. m]"	"Frequency / Hz"	"Sound Pressure Level / dB (re 20 µPa/V)  [2.83  V @ 1. m]"	"Frequency / Hz"	"Sound Pressure Level / dB (re 20 µPa/V)  [2.83  V @ 1. m]"	"Frequency / Hz"	"Sound Pressure Level / dB (re 20 µPa/V)  [2.83  V @ 1. m]"	"Frequency / Hz"	"Sound Pressure Level / dB (re 20 µPa/V)  [2.83  V @ 1. m]"	"Frequency / Hz"	"Sound Pressure Level / dB (re 20 µPa/V)  [2.83  V @ 1. m]"	"Frequency / Hz"	"Sound Pressure Level / dB (re 20 µPa/V)  [2.83  V @ 1. m]"	"Frequency / Hz"	"Sound Pressure Level / dB (re 20 µPa/V)  [2.83  V @ 1. m]"	"Frequency / Hz"	"Sound Pressure Level / dB (re 20 µPa/V)  [2.83  V @ 1. m]"	"Frequency / Hz"	"Sound Pressure Level / dB (re 20 µPa/V)  [2.83  V @ 1. m]"	"Frequency / Hz"	"Sound Pressure Level / dB (re 20 µPa/V)  [2.83  V @ 1. m]"	"Frequency / Hz"	"Sound Pressure Level / dB (re 20 µPa/V)  [2.83  V @ 1. m]"	"Frequency / Hz"	"Sound Pressure Level / dB (re 20 µPa/V)  [2.83  V @ 1. m]"
20.5078	53.9839	20.5078	53.8974	20.5078	53.9741	20.5078	53.7188	20.5078	53.8655	20.5078	53.4528	20.5078	53.6589	20.5078	53.1041	20.5078	53.3609	20.5078	52.677	20.5078	52.9866	20.5078	52.1778	20.5078	52.5645	20.5078	51.6179	20.5078	52.1397	20.5078	51.0209	20.5078	51.7741	20.5078	50.4329	20.5078	51.5343	20.5078	49.9308	20.5078	51.469	20.5078	49.6172	20.5078	51.5837	20.5078	49.5816	20.5078	51.8347	20.5078	49.8427	20.5078	52.1463	20.5078	50.3282	20.5078	52.4378	20.5078	50.9192	20.5078	52.6429	20.5078	51.5066	20.5078	52.7171	20.5078	52.0154	20.5078	52.6378	20.5078	52.4006
21.9727	61.7579	21.9727	61.6749	21.9727	61.8026	21.9727	61.5589	21.9727	61.8026	21.9727	61.4146	21.9727	61.751	21.9727	61.2449	21.9727	61.641	21.9727	61.0511	21.9727	61.4664	21.9727	60.8334	21.9727	61.2226	21.9727	60.5908	21.9727	60.9076	21.9727	60.3222	21.9727	60.5238	21.9727	60.0264	21.9727	60.0789	21.9727	59.7033	21.9727	59.5865	21.9727	59.3544	21.9727	59.0666	21.9727	58.9841	21.9727	58.5452	21.9727	58.6008	21.9727	58.0533	21.9727	58.2171	21.9727	57.6255	21.9727	57.85	21.9727	57.2951	21.9727	57.5209	21.9727	57.0882	21.9727	57.2548	21.9727	57.0172	21.9727	57.0785
23.4375	65.4736	23.4375	65.33	23.4375	65.5972	23.4375	65.1717	23.4375	65.6954	23.4375	65.0037	23.4375	65.7629	23.4375	64.8306	23.4375	65.7948	23.4375	64.6565	23.4375	65.7868	23.4375	64.4847	23.4375	65.7355	23.4375	64.3178	23.4375	65.6392	23.4375	64.1579	23.4375	65.498	23.4375	64.0064	23.4375	65.3148	23.4375	63.8648	23.4375	65.0955	23.4375	63.7349	23.4375	64.8496	23.4375	63.6192	23.4375	64.5892	23.4375	63.5212	23.4375	64.3287	23.4375	63.4447	23.4375	64.0824	23.4375	63.3942	23.4375	63.8632	23.4375	63.3742	23.4375	63.6806	23.4375	63.3893	23.4375	63.5402	23.4375	63.4435
24.9023	68.1356	24.9023	67.9854	24.9023	68.2707	24.9023	67.8249	24.9023	68.3857	24.9023	67.6589	24.9023	68.4761	24.9023	67.4922	24.9023	68.5374	24.9023	67.3293	24.9023	68.5657	24.9023	67.1744	24.9023	68.5582	24.9023	67.0314	24.9023	68.5133	24.9023	66.9035	24.9023	68.4312	24.9023	66.7931	24.9023	68.3139	24.9023	66.7023	24.9023	68.1657	24.9023	66.6324	24.9023	67.9926	24.9023	66.5843	24.9023	67.8024	24.9023	66.5584	24.9023	67.6043	24.9023	66.5551	24.9023	67.4073	24.9023	66.5749	24.9023	67.2203	24.9023	66.6186	24.9023	67.0506	24.9023	66.6873	24.9023	66.9035	24.9023	66.7821
26.3672	70.7228	26.3672	70.5556	26.3672	70.8776	26.3672	70.3812	26.3672	71.0153	26.3672	70.2045	26.3672	71.1309	26.3672	70.0305	26.3672	71.2201	26.3672	69.8639	26.3672	71.2789	26.3672	69.7094	26.3672	71.3042	26.3672	69.5715	26.3672	71.2942	26.3672	69.4542	26.3672	71.2487	26.3672	69.361	26.3672	71.1687	26.3672	69.2945	26.3672	71.0571	26.3672	69.2564	26.3672	70.9185	26.3672	69.2472	26.3672	70.7587	26.3672	69.2663	26.3672	70.5843	26.3672	69.3123	26.3672	70.4025	26.3672	69.3831	26.3672	70.2203	26.3672	69.4769	26.3672	70.0436	26.3672	69.5918	26.3672	69.8776	26.3672	69.7261
27.832	72.7695	27.832	72.6126	27.832	72.9181	27.832	72.4524	27.832	73.0533	27.832	72.2935	27.832	73.1701	27.832	72.1406	27.832	73.2638	27.832	71.9977	27.832	73.3303	27.832	71.8687	27.832	73.3665	27.832	71.7571	27.832	73.3703	27.832	71.666	27.832	73.3413	27.832	71.598	27.832	73.2807	27.832	71.555	27.832	73.1913	27.832	71.5383	27.832	73.0776	27.832	71.5477	27.832	72.9447	27.832	71.5824	27.832	72.7988	27.832	71.6403	27.832	72.6455	27.832	71.7189	27.832	72.4904	27.832	71.8157	27.832	72.3378	27.832	71.9282	27.832	72.1915	27.832	72.0542
29.2969	75.0118	29.2969	74.8823	29.2969	75.1316	29.2969	74.7472	29.2969	75.2372	29.2969	74.6105	29.2969	75.3242	29.2969	74.4759	29.2969	75.3885	29.2969	74.3468	29.2969	75.4264	29.2969	74.2262	29.2969	75.435	29.2969	74.1169	29.2969	75.4128	29.2969	74.0214	29.2969	75.3596	29.2969	73.942	29.2969	75.2774	29.2969	73.8805	29.2969	75.1695	29.2969	73.8381	29.2969	75.0409	29.2969	73.8157	29.2969	74.898	29.2969	73.8134	29.2969	74.7475	29.2969	73.8308	29.2969	74.5962	29.2969	73.8673	29.2969	74.4501	29.2969	73.9222	29.2969	74.3141	29.2969	73.9949	29.2969	74.1917	29.2969	74.0849
30.7617	76.8317	30.7617	76.6907	30.7617	76.9629	30.7617	76.5444	30.7617	77.0799	30.7617	76.397	30.7617	77.1778	30.7617	76.2524	30.7617	77.2523	30.7617	76.1142	30.7617	77.2993	30.7617	75.9856	30.7617	77.3158	30.7617	75.8696	30.7617	77.2996	30.7617	75.7686	30.7617	77.2504	30.7617	75.6847	30.7617	77.1694	30.7617	75.6196	30.7617	77.0598	30.7617	75.5745	30.7617	76.9261	30.7617	75.5501	30.7617	76.7745	30.7617	75.547	30.7617	76.6116	30.7617	75.5655	30.7617	76.4445	30.7617	75.6057	30.7617	76.2799	30.7617	75.6677	30.7617	76.1238	30.7617	75.7515	30.7617	75.9814	30.7617	75.8565
32.2266	78.0225	32.2266	77.8823	32.2266	78.1543	32.2266	77.7383	32.2266	78.2731	32.2266	77.5948	32.2266	78.374	32.2266	77.4557	32.2266	78.4526	32.2266	77.3245	32.2266	78.5047	32.2266	77.2042	32.2266	78.5273	32.2266	77.0975	32.2266	78.5185	32.2266	77.0066	32.2266	78.4777	32.2266	76.9333	32.2266	78.4064	32.2266	76.8792	32.2266	78.3077	32.2266	76.8453	32.2266	78.1861	32.2266	76.8322	32.2266	78.0474	32.2266	76.8402	32.2266	77.8977	32.2266	76.8691	32.2266	77.7432	32.2266	76.9185	32.2266	77.5897	32.2266	76.9878	32.2266	77.4425	32.2266	77.0763	32.2266	77.3057	32.2266	77.1828
33.6914	79.1761	33.6914	79.0335	33.6914	79.3101	33.6914	78.8867	33.6914	79.4306	33.6914	78.7402	33.6914	79.533	33.6914	78.5979	33.6914	79.6126	33.6914	78.4634	33.6914	79.6655	33.6914	78.3399	33.6914	79.6887	33.6914	78.2302	33.6914	79.6803	33.6914	78.1368	33.6914	79.6399	33.6914	78.0616	33.6914	79.569	33.6914	78.0063	33.6914	79.4706	33.6914	77.972	33.6914	79.3492	33.6914	77.9594	33.6914	79.2104	33.6914	77.9688	33.6914	79.06	33.6914	77.9998	33.6914	78.9041	33.6914	78.0522	33.6914	78.7484	33.6914	78.1254	33.6914	78.5979	33.6914	78.2184	33.6914	78.4571	33.6914	78.3297
35.1562	80.0792	35.1562	79.9401	35.1562	80.2089	35.1562	79.7961	35.1562	80.3245	35.1562	79.6513	35.1562	80.4215	35.1562	79.5097	35.1562	80.4956	35.1562	79.3748	35.1562	80.5428	35.1562	79.2498	35.1562	80.5604	35.1562	79.1374	35.1562	80.5464	35.1562	79.0401	35.1562	80.5007	35.1562	78.9597	35.1562	80.4248	35.1562	78.898	35.1562	80.3218	35.1562	78.8562	35.1562	80.1962	35.1562	78.8354	35.1562	80.0535	35.1562	78.8363	35.1562	79.8999	35.1562	78.8593	35.1562	79.7415	35.1562	78.9045	35.1562	79.5842	35.1562	78.9716	35.1562	79.4332	35.1562	79.0598	35.1562	79.2931	35.1562	79.1677
36.6211	80.7532	36.6211	80.6135	36.6211	80.8834	36.6211	80.4689	36.6211	80.9993	36.6211	80.3235	36.6211	81.0963	36.6211	80.1814	36.6211	81.1699	36.6211	80.046	36.6211	81.2161	36.6211	79.9203	36.6211	81.2319	36.6211	79.8071	36.6211	81.2156	36.6211	79.7088	36.6211	81.1668	36.6211	79.6273	36.6211	81.0873	36.6211	79.5643	36.6211	80.9803	36.6211	79.5212	36.6211	80.8507	36.6211	79.499	36.6211	80.7043	36.6211	79.498	36.6211	80.5476	36.6211	79.5187	36.6211	80.387	36.6211	79.5611	36.6211	80.2285	36.6211	79.6251	36.6211	80.0774	36.6211	79.7101	36.6211	79.9385	36.6211	79.8151
38.0859	81.2449	38.0859	81.1028	38.0859	81.3762	38.0859	80.9543	38.0859	81.4921	38.0859	80.8036	38.0859	81.5879	38.0859	80.6544	38.0859	81.6589	38.0859	80.51	38.0859	81.7011	38.0859	80.3735	38.0859	81.7112	38.0859	80.2475	38.0859	81.6871	38.0859	80.1344	38.0859	81.6283	38.0859	80.0365	38.0859	81.5359	38.0859	79.9558	38.0859	81.413	38.0859	79.8941	38.0859	81.2647	38.0859	79.8532	38.0859	81.0975	38.0859	79.8344	38.0859	80.9187	38.0859	79.8392	38.0859	80.7364	38.0859	79.8687	38.0859	80.5581	38.0859	79.9237	38.0859	80.3909	38.0859	80.0044	38.0859	80.2402	38.0859	80.1105
39.5508	81.5985	39.5508	81.4538	39.5508	81.7346	39.5508	81.3047	39.5508	81.8573	39.5508	81.1555	39.5508	81.9621	39.5508	81.0099	39.5508	82.0445	39.5508	80.8715	39.5508	82.1006	39.5508	80.7433	39.5508	82.1271	39.5508	80.6282	39.5508	82.1221	39.5508	80.5287	39.5508	82.0846	39.5508	80.4471	39.5508	82.0155	39.5508	80.3853	39.5508	81.9171	39.5508	80.3451	39.5508	81.7933	39.5508	80.3274	39.5508	81.6493	39.5508	80.3331	39.5508	81.4911	39.5508	80.3624	39.5508	81.3252	39.5508	80.4154	39.5508	81.1582	39.5508	80.4913	39.5508	80.9963	39.5508	80.5894	39.5508	80.8448	39.5508	80.708
41.0156	81.7965	41.0156	81.6558	41.0156	81.928	41.0156	81.5106	41.0156	82.0457	41.0156	81.3653	41.0156	82.1449	41.0156	81.2242	41.0156	82.2214	41.0156	81.091	41.0156	82.2715	41.0156	80.969	41.0156	82.2924	41.0156	80.8612	41.0156	82.2827	41.0156	80.7698	41.0156	82.2421	41.0156	80.6967	41.0156	82.1722	41.0156	80.6432	41.0156	82.0761	41.0156	80.6101	41.0156	81.9581	41.0156	80.5979	41.0156	81.8233	41.0156	80.607	41.0156	81.6774	41.0156	80.6374	41.0156	81.5259	41.0156	80.689	41.0156	81.3742	41.0156	80.7612	41.0156	81.227	41.0156	80.8531	41.0156	81.0888	41.0156	80.9631
42.4805	81.8497	42.4805	81.7087	42.4805	81.9809	42.4805	81.5626	42.4805	82.0976	42.4805	81.4161	42.4805	82.1951	42.4805	81.2733	42.4805	82.2692	42.4805	81.1381	42.4805	82.3161	42.4805	81.0142	42.4805	82.3332	42.4805	80.9045	42.4805	82.3193	42.4805	80.8116	42.4805	82.2745	42.4805	80.7376	42.4805	82.201	42.4805	80.684	42.4805	82.1022	42.4805	80.6519	42.4805	81.983	42.4805	80.6418	42.4805	81.8491	42.4805	80.6538	42.4805	81.7062	42.4805	80.6875	42.4805	81.5597	42.4805	80.7422	42.4805	81.414	42.4805	80.8167	42.4805	81.273	42.4805	80.9093	42.4805	81.14	42.4805	81.0179
43.9453	81.8897	43.9453	81.749	43.9453	82.0201	43.9453	81.6025	43.9453	82.1352	43.9453	81.455	43.9453	82.2305	43.9453	81.3106	43.9453	82.3017	43.9453	81.1734	43.9453	82.3452	43.9453	81.0468	43.9453	82.3584	43.9453	80.9341	43.9453	82.3401	43.9453	80.8377	43.9453	82.2906	43.9453	80.7597	43.9453	82.212	43.9453	80.7014	43.9453	82.1081	43.9453	80.6639	43.9453	81.9837	43.9453	80.6477	43.9453	81.8446	43.9453	80.6532	43.9453	81.6965	43.9453	80.6805	43.9453	81.5451	43.9453	80.7292	43.9453	81.3953	43.9453	80.7988	43.9453	81.2513	43.9453	80.8879	43.9453	81.1167	43.9453	80.9947
45.4102	81.6915	45.4102	81.5477	45.4102	81.8249	45.4102	81.3984	45.4102	81.9428	45.4102	81.2482	45.4102	82.0406	45.4102	81.1017	45.4102	82.1137	45.4102	80.9629	45.4102	82.1586	45.4102	80.8353	45.4102	82.1726	45.4102	80.7219	45.4102	82.1546	45.4102	80.6252	45.4102	82.1052	45.4102	80.5469	45.4102	82.0265	45.4102	80.4885	45.4102	81.9224	45.4102	80.4508	45.4102	81.7979	45.4102	80.4347	45.4102	81.6584	45.4102	80.4408	45.4102	81.5095	45.4102	80.4693	45.4102	81.3567	45.4102	80.52	45.4102	81.2048	45.4102	80.5923	45.4102	81.0581	45.4102	80.6846	45.4102	80.9203	45.4102	80.7948
46.875	81.605	46.875	81.469	46.875	81.7325	46.875	81.3293	46.875	81.8465	46.875	81.1907	46.875	81.9422	46.875	81.0574	46.875	82.0155	46.875	80.9334	46.875	82.0626	46.875	80.8219	46.875	82.081	46.875	80.7257	46.875	82.0698	46.875	80.6467	46.875	82.0294	46.875	80.5862	46.875	81.962	46.875	80.5447	46.875	81.8716	46.875	80.5228	46.875	81.7629	46.875	80.5205	46.875	81.6413	46.875	80.5377	46.875	81.512	46.875	80.5741	46.875	81.3798	46.875	80.6289	46.875	81.2486	46.875	80.701	46.875	81.1214	46.875	80.7884	46.875	81.0008	46.875	80.889
48.3398	81.441	48.3398	81.3061	48.3398	81.5674	48.3398	81.1678	48.3398	81.6803	48.3398	81.0307	48.3398	81.7747	48.3398	80.899	48.3398	81.8459	48.3398	80.7766	48.3398	81.8901	48.3398	80.6666	48.3398	81.9047	48.3398	80.5713	48.3398	81.8885	48.3398	80.4927	48.3398	81.842	48.3398	80.4321	48.3398	81.7676	48.3398	80.39	48.3398	81.6697	48.3398	80.3669	48.3398	81.5538	48.3398	80.3627	48.3398	81.4261	48.3398	80.377	48.3398	81.2929	48.3398	80.4089	48.3398	81.1595	48.3398	80.4576	48.3398	81.0301	48.3398	80.5218	48.3398	80.9078	48.3398	80.6003	48.3398	80.7945	48.3398	80.6916
51.2695	81.6037	51.2695	81.4688	51.2695	81.7222	51.2695	81.3226	51.2695	81.8193	51.2695	81.1702	51.2695	81.8904	51.2695	81.0166	51.2695	81.9317	51.2695	80.8667	51.2695	81.94	51.2695	80.7245	51.2695	81.9137	51.2695	80.5939	51.2695	81.8524	51.2695	80.4775	51.2695	81.7579	51.2695	80.3776	51.2695	81.6338	51.2695	80.2953	51.2695	81.4857	51.2695	80.2313	51.2695	81.3208	51.2695	80.1859	51.2695	81.1474	51.2695	80.1591	51.2695	80.9737	51.2695	80.1509	51.2695	80.8073	51.2695	80.1615	51.2695	80.6545	51.2695	80.1915	51.2695	80.5196	51.2695	80.2416	51.2695	80.4053	51.2695	80.3126
52.7344	81.333	52.7344	81.1968	52.7344	81.4546	52.7344	81.0509	52.7344	81.5567	52.7344	80.9002	52.7344	81.6348	52.7344	80.7495	52.7344	81.6847	52.7344	80.6034	52.7344	81.7032	52.7344	80.4659	52.7344	81.6879	52.7344	80.3407	52.7344	81.6383	52.7344	80.2307	52.7344	81.5552	52.7344	80.138	52.7344	81.4418	52.7344	80.064	52.7344	81.3034	52.7344	80.0093	52.7344	81.1466	52.7344	79.9739	52.7344	80.9796	52.7344	79.9576	52.7344	80.8108	52.7344	79.9598	52.7344	80.6479	52.7344	79.9802	52.7344	80.497	52.7344	80.0187	52.7344	80.3626	52.7344	80.0756	52.7344	80.2472	52.7344	80.1515
54.1992	81.2615	54.1992	81.1247	54.1992	81.3846	54.1992	80.9787	54.1992	81.4892	54.1992	80.8281	54.1992	81.5707	54.1992	80.6773	54.1992	81.6248	54.1992	80.5302	54.1992	81.6479	54.1992	80.3905	54.1992	81.6375	54.1992	80.2616	54.1992	81.5924	54.1992	80.1463	54.1992	81.513	54.1992	80.0471	54.1992	81.4018	54.1992	79.9655	54.1992	81.2634	54.1992	79.903	54.1992	81.1038	54.1992	79.8602	54.1992	80.931	54.1992	79.8377	54.1992	80.7532	54.1992	79.8356	54.1992	80.579	54.1992	79.854	54.1992	80.4156	54.1992	79.8934	54.1992	80.2686	54.1992	79.9542	54.1992	80.1418	54.1992	80.0368
55.6641	81.1015	55.6641	80.9522	55.6641	81.2376	55.6641	80.7949	55.6641	81.3554	55.6641	80.6345	55.6641	81.45	55.6641	80.4756	55.6641	81.5169	55.6641	80.3226	55.6641	81.5526	55.6641	80.1792	55.6641	81.5545	55.6641	80.0487	55.6641	81.5214	55.6641	79.934	55.6641	81.4539	55.6641	79.8374	55.6641	81.3546	55.6641	79.7607	55.6641	81.2274	55.6641	79.7056	55.6641	81.0781	55.6641	79.6732	55.6641	80.9134	55.6641	79.6642	55.6641	80.7403	55.6641	79.6789	55.6641	80.5661	55.6641	79.7172	55.6641	80.3971	55.6641	79.7789	55.6641	80.2386	55.6641	79.8631	55.6641	80.0949	55.6641	79.969
58.5938	80.8391	58.5938	80.6749	58.5938	80.9901	58.5938	80.503	58.5938	81.1222	58.5938	80.3291	58.5938	81.2304	58.5938	80.1586	58.5938	81.3102	58.5938	79.9968	58.5938	81.358	58.5938	79.8482	58.5938	81.3713	58.5938	79.7168	58.5938	81.3492	58.5938	79.6055	58.5938	81.2922	58.5938	79.5166	58.5938	81.2028	58.5938	79.4514	58.5938	81.085	58.5938	79.4106	58.5938	80.944	58.5938	79.3947	58.5938	80.7859	58.5938	79.4037	58.5938	80.617	58.5938	79.4377	58.5938	80.4434	58.5938	79.4961	58.5938	80.2709	58.5938	79.5781	58.5938	80.1044	58.5938	79.6822	58.5938	79.9483	58.5938	79.8065
60.0586	80.7518	60.0586	80.5976	60.0586	80.8928	60.0586	80.4358	60.0586	81.0154	60.0586	80.2721	60.0586	81.1147	60.0586	80.1119	60.0586	81.1867	60.0586	79.9604	60.0586	81.2284	60.0586	79.8226	60.0586	81.2378	60.0586	79.7025	60.0586	81.2148	60.0586	79.6033	60.0586	81.1605	60.0586	79.5276	60.0586	81.0781	60.0586	79.4768	60.0586	80.9719	60.0586	79.4514	60.0586	80.8473	60.0586	79.451	60.0586	80.7099	60.0586	79.4743	60.0586	80.5655	60.0586	79.5195	60.0586	80.4187	60.0586	79.5847	60.0586	80.2738	60.0586	79.6675	60.0586	80.1336	60.0586	79.7658	60.0586	80.0009	60.0586	79.8776
62.9883	80.4966	62.9883	80.3426	62.9883	80.6362	62.9883	80.1798	62.9883	80.756	62.9883	80.0141	62.9883	80.8511	62.9883	79.8507	62.9883	80.9172	62.9883	79.6951	62.9883	80.9511	62.9883	79.5518	62.9883	80.9509	62.9883	79.4249	62.9883	80.9162	62.9883	79.3178	62.9883	80.8486	62.9883	79.2327	62.9883	80.7514	62.9883	79.1714	62.9883	80.6295	62.9883	79.1344	62.9883	80.4893	62.9883	79.1217	62.9883	80.3375	62.9883	79.1325	62.9883	80.1808	62.9883	79.1653	62.9883	80.0249	62.9883	79.2187	62.9883	79.8745	62.9883	79.2907	62.9883	79.7328	62.9883	79.3797	62.9883	79.6021	62.9883	79.4839
64.4531	80.3196	64.4531	80.1648	64.4531	80.4604	64.4531	80.0018	64.4531	80.5818	64.4531	79.8364	64.4531	80.6788	64.4531	79.6744	64.4531	80.7471	64.4531	79.5212	64.4531	80.7834	64.4531	79.3815	64.4531	80.786	64.4531	79.2596	64.4531	80.7545	64.4531	79.1587	64.4531	80.6904	64.4531	79.0809	64.4531	80.5972	64.4531	79.0275	64.4531	80.4797	64.4531	78.9986	64.4531	80.3444	64.4531	78.9936	64.4531	80.1978	64.4531	79.0113	64.4531	80.0465	64.4531	79.0497	64.4531	79.8963	64.4531	79.107	64.4531	79.7515	64.4531	79.1812	64.4531	79.6149	64.4531	79.2705	64.4531	79.4885	64.4531	79.3733
67.3828	80.0972	67.3828	79.9326	67.3828	80.2469	67.3828	79.7595	67.3828	80.3762	67.3828	79.5841	67.3828	80.4797	67.3828	79.4126	67.3828	80.553	67.3828	79.251	67.3828	80.593	67.3828	79.1048	67.3828	80.5979	67.3828	78.9785	67.3828	80.5676	67.3828	78.876	67.3828	80.5038	67.3828	78.7997	67.3828	80.4104	67.3828	78.7508	67.3828	80.2924	67.3828	78.7291	67.3828	80.1563	67.3828	78.7334	67.3828	80.0089	67.3828	78.7615	67.3828	79.8567	67.3828	78.8106	67.3828	79.705	67.3828	78.878	67.3828	79.558	67.3828	78.9612	67.3828	79.4184	67.3828	79.0582	67.3828	79.2878	67.3828	79.1675
68.8477	80.0153	68.8477	79.8468	68.8477	80.1684	68.8477	79.6689	68.8477	80.3001	68.8477	79.4884	68.8477	80.4054	68.8477	79.3115	68.8477	80.48	68.8477	79.1447	68.8477	80.5208	68.8477	78.9937	68.8477	80.5262	68.8477	78.8635	68.8477	80.4964	68.8477	78.758	68.8477	80.4331	68.8477	78.6801	68.8477	80.3401	68.8477	78.631	68.8477	80.2227	68.8477	78.6108	68.8477	80.0872	68.8477	78.618	68.8477	79.9403	68.8477	78.6504	68.8477	79.7881	68.8477	78.705	68.8477	79.6359	68.8477	78.7786	68.8477	79.4875	68.8477	78.8684	68.8477	79.3456	68.8477	78.9717	68.8477	79.2115	68.8477	79.0865
71.7773	79.8574	71.7773	79.6844	71.7773	80.0123	71.7773	79.4994	71.7773	80.1434	71.7773	79.3091	71.7773	80.2458	71.7773	79.12	71.7773	80.3156	71.7773	78.9391	71.7773	80.3502	71.7773	78.7726	71.7773	80.3483	71.7773	78.6265	71.7773	80.3107	71.7773	78.5058	71.7773	80.2397	71.7773	78.4142	71.7773	80.1396	71.7773	78.3543	71.7773	80.0161	71.7773	78.3267	71.7773	79.8759	71.7773	78.3309	71.7773	79.7257	71.7773	78.3647	71.7773	79.5714	71.7773	78.4248	71.7773	79.4176	71.7773	78.5073	71.7773	79.2672	71.7773	78.6079	71.7773	79.1216	71.7773	78.7226	71.7773	78.9816	71.7773	78.848
74.707	79.8242	74.707	79.6542	74.707	79.9756	74.707	79.4719	74.707	80.1029	74.707	79.2839	74.707	80.2011	74.707	79.0969	74.707	80.2662	74.707	78.9173	74.707	80.2956	74.707	78.7516	74.707	80.2881	74.707	78.6054	74.707	80.2444	74.707	78.4833	74.707	80.1669	74.707	78.3891	74.707	80.0602	74.707	78.3248	74.707	79.9301	74.707	78.2912	74.707	79.7835	74.707	78.2877	74.707	79.6273	74.707	78.3125	74.707	79.468	74.707	78.3625	74.707	79.3106	74.707	78.4346	74.707	79.1583	74.707	78.525	74.707	79.0132	74.707	78.6304	74.707	78.8762	74.707	78.7482
77.6367	79.7531	77.6367	79.5816	77.6367	79.905	77.6367	79.397	77.6367	80.0316	77.6367	79.2059	77.6367	80.128	77.6367	79.0156	77.6367	80.1905	77.6367	78.833	77.6367	80.2167	77.6367	78.6649	77.6367	80.2059	77.6367	78.5176	77.6367	80.1593	77.6367	78.3961	77.6367	80.08	77.6367	78.3044	77.6367	79.9731	77.6367	78.2447	77.6367	79.8451	77.6367	78.2176	77.6367	79.7029	77.6367	78.2219	77.6367	79.5534	77.6367	78.2549	77.6367	79.4023	77.6367	78.313	77.6367	79.2536	77.6367	78.3919	77.6367	79.1096	77.6367	78.4873	77.6367	78.9713	77.6367	78.5955	77.6367	78.8391	77.6367	78.7134
79.1016	79.8007	79.1016	79.6307	79.1016	79.9503	79.1016	79.447	79.1016	80.0741	79.1016	79.2563	79.1016	80.1669	79.1016	79.0658	79.1016	80.2252	79.1016	78.8828	79.1016	80.2466	79.1016	78.714	79.1016	80.2306	79.1016	78.5658	79.1016	80.1785	79.1016	78.4435	79.1016	80.0938	79.1016	78.3511	79.1016	79.982	79.1016	78.2907	79.1016	79.8499	79.1016	78.263	79.1016	79.7051	79.1016	78.2665	79.1016	79.5547	79.1016	78.2983	79.1016	79.4046	79.1016	78.3545	79.1016	79.2588	79.1016	78.4307	79.1016	79.119	79.1016	78.5226	79.1016	78.9859	79.1016	78.6264	79.1016	78.8593	79.1016	78.7392
82.0312	79.8852	82.0312	79.7121	82.0312	80.0369	82.0312	79.5241	82.0312	80.1614	82.0312	79.3282	82.0312	80.2537	82.0312	79.1317	82.0312	80.3102	82.0312	78.9421	82.0312	80.3284	82.0312	78.7665	82.0312	80.3079	82.0312	78.6116	82.0312	80.2499	82.0312	78.4829	82.0312	80.1581	82.0312	78.3846	82.0312	80.0381	82.0312	78.3192	82.0312	79.8972	82.0312	78.2872	82.0312	79.7434	82.0312	78.2873	82.0312	79.5845	82.0312	78.3165	82.0312	79.427	82.0312	78.3706	82.0312	79.2753	82.0312	78.445	82.0312	79.1318	82.0312	78.5354	82.0312	78.9966	82.0312	78.6379	82.0312	78.8695	82.0312	78.7498
84.9609	80.0078	84.9609	79.8348	84.9609	80.1603	84.9609	79.6483	84.9609	80.2862	84.9609	79.4555	84.9609	80.3803	84.9609	79.2642	84.9609	80.4385	84.9609	79.0817	84.9609	80.4586	84.9609	78.9149	84.9609	80.4402	84.9609	78.7701	84.9609	80.3849	84.9609	78.6523	84.9609	80.2967	84.9609	78.5649	84.9609	80.1814	84.9609	78.5096	84.9609	80.0464	84.9609	78.4862	84.9609	79.8998	84.9609	78.4928	84.9609	79.7491	84.9609	78.5263	84.9609	79.6002	84.9609	78.5826	84.9609	79.4568	84.9609	78.6575	84.9609	79.3208	84.9609	78.7467	84.9609	79.1921	84.9609	78.8467	84.9609	79.0704	84.9609	78.9551
87.8906	80.0756	87.8906	79.8987	87.8906	80.2287	87.8906	79.7051	87.8906	80.3521	87.8906	79.5025	87.8906	80.4409	87.8906	79.2992	87.8906	80.4916	87.8906	79.1037	87.8906	80.5024	87.8906	78.9244	87.8906	80.4736	87.8906	78.7687	87.8906	80.4074	87.8906	78.6432	87.8906	80.3086	87.8906	78.5521	87.8906	80.1837	87.8906	78.4978	87.8906	80.0412	87.8906	78.4797	87.8906	79.8898	87.8906	78.4952	87.8906	79.7379	87.8906	78.5396	87.8906	79.5916	87.8906	78.6069	87.8906	79.4547	87.8906	78.6908	87.8906	79.3279	87.8906	78.7854	87.8906	79.2099	87.8906	78.8863	87.8906	79.0982	87.8906	78.9908
90.8203	80.0045	90.8203	79.826	90.8203	80.1611	90.8203	79.633	90.8203	80.2895	90.8203	79.4332	90.8203	80.3842	90.8203	79.2345	90.8203	80.4415	90.8203	79.0448	90.8203	80.4591	90.8203	78.8716	90.8203	80.437	90.8203	78.7219	90.8203	80.3774	90.8203	78.6013	90.8203	80.2852	90.8203	78.5141	90.8203	80.1671	90.8203	78.4627	90.8203	80.0313	90.8203	78.447	90.8203	79.8866	90.8203	78.4651	90.8203	79.7408	90.8203	78.5127	90.8203	79.5996	90.8203	78.5841	90.8203	79.4658	90.8203	78.6731	90.8203	79.3397	90.8203	78.7736	90.8203	79.22	90.8203	78.8807	90.8203	79.1044	90.8203	78.9915
95.2148	80.333	95.2148	80.1358	95.2148	80.5037	95.2148	79.92	95.2148	80.6409	95.2148	79.6945	95.2148	80.7396	95.2148	79.4692	95.2148	80.7962	95.2148	79.254	95.2148	80.8093	95.2148	79.0586	95.2148	80.7796	95.2148	78.8917	95.2148	80.7105	95.2148	78.7603	95.2148	80.6077	95.2148	78.6693	95.2148	80.4793	95.2148	78.6205	95.2148	80.3346	95.2148	78.6131	95.2148	80.1831	95.2148	78.6434	95.2148	80.0328	95.2148	78.7059	95.2148	79.8891	95.2148	78.7935	95.2148	79.7539	95.2148	78.8989	95.2148	79.6261	95.2148	79.0152	95.2148	79.503	95.2148	79.1367	95.2148	79.3815	95.2148	79.2594
98.1445	80.5448	98.1445	80.3536	98.1445	80.7073	98.1445	80.1415	98.1445	80.8344	98.1445	79.9175	98.1445	80.9212	98.1445	79.6916	98.1445	80.9644	98.1445	79.4743	98.1445	80.9627	98.1445	79.2759	98.1445	80.9173	98.1445	79.1059	98.1445	80.8316	98.1445	78.9721	98.1445	80.7123	98.1445	78.8798	98.1445	80.5681	98.1445	78.831	98.1445	80.4099	98.1445	78.8244	98.1445	80.2487	98.1445	78.8554	98.1445	80.0941	98.1445	78.9171	98.1445	79.9527	98.1445	79.0011	98.1445	79.8265	98.1445	79.0989	98.1445	79.7139	98.1445	79.2031	98.1445	79.6103	98.1445	79.3081	98.1445	79.5107	98.1445	79.4107
101.074	80.4785	101.074	80.2812	101.074	80.646	101.074	80.0619	101.074	80.7775	101.074	79.8292	101.074	80.8678	101.074	79.5929	101.074	80.9134	101.074	79.3632	101.074	80.9125	101.074	79.1507	101.074	80.8656	101.074	78.9653	101.074	80.7754	101.074	78.8154	101.074	80.6476	101.074	78.7072	101.074	80.4905	101.074	78.6438	101.074	80.315	101.074	78.6244	101.074	80.1328	101.074	78.6451	101.074	79.9552	101.074	78.6989	101.074	79.7906	101.074	78.7773	101.074	79.6432	101.074	78.8715	101.074	79.5131	101.074	78.9738	101.074	79.3965	101.074	79.0786	101.074	79.2882	101.074	79.1833
105.469	80.6312	105.469	80.427	105.469	80.8048	105.469	80.2001	105.469	80.9417	105.469	79.9597	105.469	81.0371	105.469	79.7163	105.469	81.0885	105.469	79.4809	105.469	81.0954	105.469	79.2648	105.469	81.0596	105.469	79.0786	105.469	80.9853	105.469	78.9311	105.469	80.8789	105.469	78.8285	105.469	80.7483	105.469	78.7735	105.469	80.6024	105.469	78.7649	105.469	80.4495	105.469	78.7981	105.469	80.2962	105.469	78.8662	105.469	80.1466	105.469	78.9609	105.469	80.0023	105.469	79.0739	105.469	79.8629	105.469	79.1982	105.469	79.7271	105.469	79.3281	105.469	79.5933	105.469	79.4603
108.398	80.9643	108.398	80.7567	108.398	81.1375	108.398	80.5234	108.398	81.2696	108.398	80.2745	108.398	81.3554	108.398	80.0209	108.398	81.392	108.398	79.7748	108.398	81.3789	108.398	79.5483	108.398	81.3184	108.398	79.3526	108.398	81.2157	108.398	79.1975	108.398	81.079	108.398	79.0896	108.398	80.9191	108.398	79.032	108.398	80.7483	108.398	79.0233	108.398	80.5784	108.398	79.0582	108.398	80.4185	108.398	79.1285	108.398	80.2736	108.398	79.2244	108.398	80.144	108.398	79.3361	108.398	80.0262	108.398	79.4551	108.398	79.9148	108.398	79.5749	108.398	79.8046	108.398	79.6918
112.793	80.968	112.793	80.7485	112.793	81.1512	112.793	80.5014	112.793	81.2911	112.793	80.2374	112.793	81.3826	112.793	79.9683	112.793	81.4229	112.793	79.7071	112.793	81.4117	112.793	79.4672	112.793	81.3514	112.793	79.2614	112.793	81.2478	112.793	79.1003	112.793	81.1096	112.793	78.9916	112.793	80.9483	112.793	78.9385	112.793	80.7769	112.793	78.9394	112.793	80.6078	112.793	78.9883	112.793	80.4506	112.793	79.0758	112.793	80.3097	112.793	79.1909	112.793	80.1846	112.793	79.3223	112.793	80.0702	112.793	79.4599	112.793	79.9595	112.793	79.5959	112.793	79.846	112.793	79.7253
117.188	81.0758	117.188	80.8481	117.188	81.2643	117.188	80.5905	117.188	81.4063	117.188	80.3138	117.188	81.4963	117.188	80.0302	117.188	81.531	117.188	79.7532	117.188	81.5097	117.188	79.4969	117.188	81.4347	117.188	79.2753	117.188	81.312	117.188	79.1007	117.188	81.1515	117.188	78.9825	117.188	80.9668	117.188	78.9255	117.188	80.7741	117.188	78.9289	117.188	80.5896	117.188	78.9865	117.188	80.4257	117.188	79.0874	117.188	80.2885	117.188	79.2181	117.188	80.1763	117.188	79.3643	117.188	80.0805	117.188	79.5133	117.188	79.9895	117.188	79.6546	117.188	79.8924	117.188	79.7817
120.117	81.1879	120.117	80.9512	120.117	81.3848	120.117	80.6843	120.117	81.5341	120.117	80.3983	120.117	81.6303	120.117	80.1061	120.117	81.6699	120.117	79.8214	120.117	81.6516	120.117	79.5586	120.117	81.5773	120.117	79.3315	120.117	81.4521	120.117	79.1519	120.117	81.2849	120.117	79.0289	120.117	81.0886	120.117	78.9668	120.117	80.8795	120.117	78.9653	120.117	80.6748	120.117	79.0186	120.117	80.4898	120.117	79.1168	120.117	80.334	120.117	79.2467	120.117	80.2085	120.117	79.3938	120.117	80.1061	120.117	79.5441	120.117	80.0143	120.117	79.6858	120.117	79.9196	120.117	79.8116
124.512	81.3189	124.512	81.0764	124.512	81.5173	124.512	80.799	124.512	81.6646	124.512	80.4982	124.512	81.7563	124.512	80.1876	124.512	81.7899	124.512	79.8829	124.512	81.7655	124.512	79.6009	124.512	81.6859	124.512	79.3582	124.512	81.5573	124.512	79.1694	124.512	81.3893	124.512	79.0453	124.512	81.1947	124.512	78.9904	124.512	80.9893	124.512	79.0027	124.512	80.789	124.512	79.0737	124.512	80.6079	124.512	79.1902	124.512	80.4541	124.512	79.3364	124.512	80.3287	124.512	79.496	124.512	80.2251	124.512	79.6543	124.512	80.1318	124.512	79.8001	124.512	80.0361	124.512	79.9275
128.906	81.4169	128.906	81.1734	128.906	81.6143	128.906	80.8922	128.906	81.759	128.906	80.5839	128.906	81.8466	128.906	80.2616	128.906	81.8746	128.906	79.9402	128.906	81.8431	128.906	79.6366	128.906	81.7546	128.906	79.3685	128.906	81.6148	128.906	79.1525	128.906	81.4332	128.906	79.0021	128.906	81.2229	128.906	78.925	128.906	81.0001	128.906	78.9213	128.906	80.7826	128.906	78.9837	128.906	80.5859	128.906	79.0985	128.906	80.42	128.906	79.2484	128.906	80.2864	128.906	79.4149	128.906	80.1778	128.906	79.5814	128.906	80.0813	128.906	79.7351	128.906	79.9823	128.906	79.8689
133.301	81.4791	133.301	81.2355	133.301	81.6739	133.301	80.9517	133.301	81.8135	133.301	80.6384	133.301	81.8935	133.301	80.3088	133.301	81.9121	133.301	79.9782	133.301	81.8696	133.301	79.6638	133.301	81.7693	133.301	79.3838	133.301	81.6178	133.301	79.1557	133.301	81.4251	133.301	78.9935	133.301	81.2046	133.301	78.906	133.301	80.9727	133.301	78.8938	133.301	80.7469	133.301	78.9498	133.301	80.5427	133.301	79.0602	133.301	80.3703	133.301	79.207	133.301	80.2318	133.301	79.3709	133.301	80.1205	133.301	79.5348	133.301	80.0237	133.301	79.6856	133.301	79.9264	133.301	79.8161
139.16	81.4964	139.16	81.2512	139.16	81.6941	139.16	80.967	139.16	81.8376	139.16	80.6544	139.16	81.9222	139.16	80.3254	139.16	81.9453	139.16	79.9939	139.16	81.9064	139.16	79.6747	139.16	81.8073	139.16	79.3829	139.16	81.6523	139.16	79.1332	139.16	81.4488	139.16	78.938	139.16	81.2075	139.16	78.8058	139.16	80.9421	139.16	78.7399	139.16	80.6691	139.16	78.7372	139.16	80.4056	139.16	78.7888	139.16	80.1661	139.16	78.8815	139.16	79.9595	139.16	79.0001	139.16	79.7866	139.16	79.1302	139.16	79.6411	139.16	79.2611	139.16	79.5119	139.16	79.3878
143.555	81.1759	143.555	80.9025	143.555	81.4015	143.555	80.5916	143.555	81.5722	143.555	80.2563	143.555	81.6834	143.555	79.9125	143.555	81.7338	143.555	79.5784	143.555	81.7246	143.555	79.2736	143.555	81.6605	143.555	79.0168	143.555	81.5488	143.555	78.8243	143.555	81.3999	143.555	78.7065	143.555	81.2264	143.555	78.6665	143.555	81.0415	143.555	78.6993	143.555	80.8575	143.555	78.7936	143.555	80.6837	143.555	78.9342	143.555	80.5245	143.555	79.1045	143.555	80.3793	143.555	79.2891	143.555	80.2434	143.555	79.4752	143.555	80.1094	143.555	79.6535	143.555	79.9697	143.555	79.8186
147.949	81.2987	147.949	81.0221	147.949	81.5175	147.949	80.6972	147.949	81.6719	147.949	80.3368	147.949	81.7585	147.949	79.9572	147.949	81.7766	147.949	79.5783	147.949	81.7289	147.949	79.2229	147.949	81.6215	147.949	78.9155	147.949	81.4645	147.949	78.6792	147.949	81.2715	147.949	78.5317	147.949	81.0597	147.949	78.4809	147.949	80.8477	147.949	78.5235	147.949	80.6527	147.949	78.645	147.949	80.4869	147.949	78.8238	147.949	80.354	147.949	79.036	147.949	80.2487	147.949	79.2586	147.949	80.1584	147.949	79.4729	147.949	80.0674	147.949	79.6655	147.949	79.961	147.949	79.8287
153.809	81.2488	153.809	80.9745	153.809	81.4616	153.809	80.6488	153.809	81.6058	153.809	80.2848	153.809	81.6771	153.809	79.8984	153.809	81.6743	153.809	79.5089	153.809	81.5997	153.809	79.1386	153.809	81.4594	153.809	78.8119	153.809	81.2642	153.809	78.5531	153.809	81.0302	153.809	78.383	153.809	80.7783	153.809	78.3139	153.809	80.5327	153.809	78.3457	153.809	80.3162	153.809	78.4653	153.809	80.1448	153.809	78.6489	153.809	80.0229	153.809	78.8684	153.809	79.9416	153.809	79.0963	153.809	79.8828	153.809	79.3103	153.809	79.8251	153.809	79.4946	153.809	79.7491	153.809	79.6411
159.668	81.2878	159.668	80.9879	159.668	81.5232	159.668	80.6334	159.668	81.6875	159.668	80.2373	159.668	81.7766	159.668	79.8163	159.668	81.7889	159.668	79.3911	159.668	81.7257	159.668	78.9855	159.668	81.5914	159.668	78.6263	159.668	81.3946	159.668	78.3401	159.668	81.1488	159.668	78.1502	159.668	80.8735	159.668	78.0711	159.668	80.5933	159.668	78.1044	159.668	80.335	159.668	78.2369	159.668	80.1218	159.668	78.4437	159.668	79.9657	159.668	78.6927	159.668	79.8631	159.668	78.9519	159.668	79.796	159.668	79.1935	159.668	79.7386	159.668	79.3979	159.668	79.6649	159.668	79.5549
165.527	81.1162	165.527	80.7973	165.527	81.3646	165.527	80.417	165.527	81.5371	165.527	79.988	165.527	81.6308	165.527	79.5284	165.527	81.646	165.527	79.0615	165.527	81.5855	165.527	78.6164	165.527	81.4556	165.527	78.2258	165.527	81.2665	165.527	77.9225	165.527	81.0329	165.527	77.7332	165.527	80.7745	165.527	77.6718	165.527	80.5148	165.527	77.7362	165.527	80.2777	165.527	77.9077	165.527	80.0824	165.527	78.1566	165.527	79.9373	165.527	78.448	165.527	79.8364	165.527	78.7478	165.527	79.7616	165.527	79.0276	165.527	79.6884	165.527	79.267	165.527	79.5925	165.527	79.4554
171.387	80.9951	171.387	80.6624	171.387	81.2487	171.387	80.2571	171.387	81.4192	171.387	79.7883	171.387	81.5045	171.387	79.2697	171.387	81.5047	171.387	78.7211	171.387	81.4223	171.387	78.171	171.387	81.2632	171.387	77.6583	171.387	81.0373	171.387	77.2308	171.387	80.7605	171.387	76.9371	171.387	80.4559	171.387	76.8132	171.387	80.1528	171.387	76.8685	171.387	79.8832	171.387	77.0808	171.387	79.6727	171.387	77.4048	171.387	79.531	171.387	77.7865	171.387	79.4463	171.387	78.1759	171.387	79.3902	171.387	78.5341	171.387	79.3276	171.387	78.8353	171.387	79.2271	171.387	79.0666
177.246	80.9462	177.246	80.6402	177.246	81.174	177.246	80.2609	177.246	81.3204	177.246	79.8143	177.246	81.383	177.246	79.3086	177.246	81.3609	177.246	78.7556	177.246	81.2546	177.246	78.1737	177.246	81.067	177.246	77.591	177.246	80.8045	177.246	77.0501	177.246	80.4797	177.246	76.6076	177.246	80.115	177.246	76.3252	177.246	79.7441	177.246	76.2489	177.246	79.4097	177.246	76.3857	177.246	79.1524	177.246	76.6972	177.246	78.9935	177.246	77.1153	177.246	78.922	177.246	77.5672	177.246	78.8975	177.246	77.9927	177.246	78.8671	177.246	78.3498	177.246	78.7834	177.246	78.6152
183.105	80.8005	183.105	80.5176	183.105	81.0201	183.105	80.1769	183.105	81.1717	183.105	79.7845	183.105	81.2517	183.105	79.347	183.105	81.2571	183.105	78.8711	183.105	81.1855	183.105	78.3651	183.105	81.0352	183.105	77.8404	183.105	80.8053	183.105	77.3156	183.105	80.4972	183.105	76.8202	183.105	80.118	183.105	76.3974	183.105	79.6841	183.105	76.0996	183.105	79.2265	183.105	75.9741	183.105	78.79	183.105	76.0393	183.105	78.4237	183.105	76.2705	183.105	78.1589	183.105	76.6061	183.105	77.9897	183.105	76.9721	183.105	77.8725	183.105	77.3052	183.105	77.748	183.105	77.5666
188.965	80.2382	188.965	79.9248	188.965	80.4852	188.965	79.5553	188.965	80.6581	188.965	79.1428	188.965	80.753	188.965	78.7025	188.965	80.7691	188.965	78.2513	188.965	80.7091	188.965	77.8072	188.965	80.5791	188.965	77.3888	188.965	80.3875	188.965	77.0146	188.965	80.1449	188.965	76.7032	188.965	79.8631	188.965	76.4727	188.965	79.5554	188.965	76.3385	188.965	79.2364	188.965	76.3099	188.965	78.9216	188.965	76.3852	188.965	78.6265	188.965	76.5493	188.965	78.3624	188.965	76.7748	188.965	78.132	188.965	77.0291	188.965	77.9263	188.965	77.2825	188.965	77.7274	188.965	77.5164
196.289	80.1796	196.289	79.8173	196.289	80.4642	196.289	79.3879	196.289	80.6634	196.289	78.905	196.289	80.7733	196.289	78.3848	196.289	80.7928	196.289	77.8453	196.289	80.7238	196.289	77.3069	196.289	80.5706	196.289	76.7925	196.289	80.3401	196.289	76.3291	196.289	80.0423	196.289	75.9476	196.289	79.6921	196.289	75.6814	196.289	79.3108	196.289	75.559	196.289	78.9265	196.289	75.5938	196.289	78.5711	196.289	75.7754	196.289	78.2723	196.289	76.0683	196.289	78.0428	196.289	76.4217	196.289	77.8721	196.289	76.7827	196.289	77.7294	196.289	77.1083	196.289	77.5746	196.289	77.3735
203.613	80.0964	203.613	79.7033	203.613	80.4048	203.613	79.2357	203.613	80.6229	203.613	78.7085	203.613	80.7489	203.613	78.141	203.613	80.7846	203.613	77.5566	203.613	80.7343	203.613	76.9816	203.613	80.6038	203.613	76.4434	203.613	80.4001	203.613	75.9696	203.613	80.1312	203.613	75.5872	203.613	79.8078	203.613	75.3218	203.613	79.4447	203.613	75.1944	203.613	79.0617	203.613	75.2152	203.613	78.6825	203.613	75.3758	203.613	78.3294	203.613	75.6473	203.613	78.0165	203.613	75.9858	203.613	77.7441	203.613	76.3444	203.613	77.4982	203.613	76.6857	203.613	77.2549	203.613	76.9893
210.938	79.9152	210.938	79.5057	210.938	80.2381	210.938	79.0193	210.938	80.4693	210.938	78.471	210.938	80.6085	210.938	77.8804	210.938	80.66	210.938	77.2723	210.938	80.6314	210.938	76.6763	210.938	80.533	210.938	76.1245	210.938	80.376	210.938	75.6494	210.938	80.171	210.938	75.2797	210.938	79.9277	210.938	75.0388	210.938	79.6547	210.938	74.9426	210.938	79.3606	210.938	74.997	210.938	79.0543	210.938	75.1936	210.938	78.7446	210.938	75.5067	210.938	78.4375	210.938	75.8972	210.938	78.1328	210.938	76.3214	210.938	77.8227	210.938	76.7423	210.938	77.4945	210.938	77.136
218.262	79.7619	218.262	79.3168	218.262	80.0976	218.262	78.7707	218.262	80.3202	218.262	78.1372	218.262	80.4304	218.262	77.4368	218.262	80.4343	218.262	76.7001	218.262	80.3434	218.262	75.9713	218.262	80.1757	218.262	75.3097	218.262	79.956	218.262	74.7853	218.262	79.7145	218.262	74.4632	218.262	79.4829	218.262	74.3815	218.262	79.288	218.262	74.5361	218.262	79.1429	218.262	74.8855	218.262	79.0423	218.262	75.369	218.262	78.9643	218.262	75.9249	218.262	78.879	218.262	76.5	218.262	78.7566	218.262	77.0519	218.262	78.574	218.262	77.5499	218.262	78.3158	218.262	77.9743
225.586	80.4362	225.586	80.0175	225.586	80.7448	225.586	79.495	225.586	80.9394	225.586	78.8769	225.586	81.0189	225.586	78.1742	225.586	80.9851	225.586	77.4023	225.586	80.8432	225.586	76.585	225.586	80.6022	225.586	75.7612	225.586	80.2775	225.586	74.9933	225.586	79.8928	225.586	74.3714	225.586	79.4842	225.586	74.0017	225.586	79.0992	225.586	73.967	225.586	78.7898	225.586	74.2763	225.586	78.5927	225.586	74.8519	225.586	78.5094	225.586	75.5705	225.586	78.5004	225.586	76.3149	225.586	78.5018	225.586	76.9992	225.586	78.4491	225.586	77.5708	225.586	78.293	225.586	78.0041
232.91	80.466	232.91	80.0429	232.91	80.7869	232.91	79.5254	232.91	81.0011	232.91	78.9233	232.91	81.107	232.91	78.2484	232.91	81.1061	232.91	77.514	232.91	81.0028	232.91	76.7368	232.91	80.8039	232.91	75.9405	232.91	80.5196	232.91	75.1625	232.91	80.1646	232.91	74.4615	232.91	79.7611	232.91	73.9225	232.91	79.3408	232.91	73.646	232.91	78.9434	232.91	73.7069	232.91	78.6093	232.91	74.1027	232.91	78.3634	232.91	74.742	232.91	78.2	232.91	75.4905	232.91	78.0787	232.91	76.2262	232.91	77.9379	232.91	76.8655	232.91	77.7154	232.91	77.3649
241.699	80.2586	241.699	79.797	241.699	80.6088	241.699	79.2348	241.699	80.8416	241.699	78.5867	241.699	80.9569	241.699	77.8695	241.699	80.9605	241.699	77.1011	241.699	80.8632	241.699	76.3013	241.699	80.6801	241.699	75.4953	241.699	80.4286	241.699	74.7203	241.699	80.1273	241.699	74.0335	241.699	79.7951	241.699	73.5161	241.699	79.4514	241.699	73.2609	241.699	79.1162	241.699	73.336	241.699	78.8086	241.699	73.7383	241.699	78.541	241.699	74.3833	241.699	78.3114	241.699	75.1446	241.699	78.0977	241.699	75.9044	241.699	77.8603	241.699	76.5811	241.699	77.552	241.699	77.1326
250.488	81.1324	250.488	80.6523	250.488	81.4821	250.488	80.0513	250.488	81.6964	250.488	79.3436	250.488	81.7744	250.488	78.5476	250.488	81.7192	250.488	77.6845	250.488	81.5384	250.488	76.7774	250.488	81.2448	250.488	75.8513	250.488	80.8588	250.488	74.9376	250.488	80.4116	250.488	74.0834	250.488	79.9463	250.488	73.3651	250.488	79.5141	250.488	72.8935	250.488	79.159	250.488	72.7845	250.488	78.8968	250.488	73.0889	250.488	78.7043	250.488	73.7394	250.488	78.5295	250.488	74.5866	250.488	78.3142	250.488	75.4788	250.488	78.0102	250.488	76.3087	250.488	77.5843	250.488	77.0179
259.277	80.9305	259.277	80.465	259.277	81.2771	259.277	79.8883	259.277	81.5005	259.277	79.2113	259.277	81.6001	259.277	78.4481	259.277	81.5797	259.277	77.6173	259.277	81.4463	259.277	76.7434	259.277	81.2111	259.277	75.8589	259.277	80.8893	259.277	75.0073	259.277	80.5026	259.277	74.2477	259.277	80.0825	259.277	73.6605	259.277	79.6717	259.277	73.3423	259.277	79.3187	259.277	73.3766	259.277	79.0602	259.277	73.7803	259.277	78.8989	259.277	74.4764	259.277	78.794	259.277	75.3282	259.277	78.6768	259.277	76.2006	259.277	78.4775	259.277	76.9943	259.277	78.1446	259.277	77.6508
268.066	81.0095	268.066	80.5246	268.066	81.3589	268.066	79.9132	268.066	81.5681	268.066	79.1882	268.066	81.6367	268.066	78.3648	268.066	81.5693	268.066	77.4613	268.066	81.3738	268.066	76.4984	268.066	81.0623	268.066	75.5011	268.066	80.6511	268.066	74.5022	268.066	80.165	268.066	73.5551	268.066	79.6439	268.066	72.7576	268.066	79.1485	268.066	72.2709	268.066	78.7556	268.066	72.2741	268.066	78.5281	268.066	72.8246	268.066	78.4699	268.066	73.7779	268.066	78.5088	268.066	74.8954	268.066	78.5321	268.066	75.981	268.066	78.4364	268.066	76.918	268.066	78.1533	268.066	77.649
276.855	81.2338	276.855	80.7934	276.855	81.5593	276.855	80.2453	276.855	81.7636	276.855	79.5967	276.855	81.842	276.855	78.8527	276.855	81.7914	276.855	78.0155	276.855	81.6101	276.855	77.0874	276.855	81.2999	276.855	76.0764	276.855	80.87	276.855	75.0073	276.855	80.3443	276.855	73.9361	276.855	79.7674	276.855	72.9662	276.855	79.2033	276.855	72.2587	276.855	78.7219	276.855	72.0045	276.855	78.3741	276.855	72.3196	276.855	78.1717	276.855	73.1322	276.855	78.0798	276.855	74.2168	276.855	78.0213	276.855	75.336	276.855	77.8959	276.855	76.3238	276.855	77.6076	276.855	77.0907
287.109	81.2047	287.109	80.8551	287.109	81.4622	287.109	80.4231	287.109	81.6208	287.109	79.9186	287.109	81.6783	287.109	79.3494	287.109	81.638	287.109	78.7187	287.109	81.5073	287.109	78.0244	287.109	81.2941	287.109	77.2601	287.109	81.0023	287.109	76.4209	287.109	80.6311	287.109	75.5145	287.109	80.1841	287.109	74.5834	287.109	79.6867	287.109	73.7378	287.109	79.201	287.109	73.1782	287.109	78.8114	287.109	73.1304	287.109	78.5712	287.109	73.6581	287.109	78.4512	287.109	74.5754	287.109	78.3543	287.109	75.6058	287.109	78.1752	287.109	76.5468	287.109	77.8381	287.109	77.2999
297.363	81.5829	297.363	81.2115	297.363	81.8321	297.363	80.742	297.363	81.9428	297.363	80.203	297.363	81.9077	297.363	79.6227	297.363	81.7281	297.363	79.0213	297.363	81.4137	297.363	78.4023	297.363	80.9816	297.363	77.7467	297.363	80.4581	297.363	77.0141	297.363	79.8803	297.363	76.1574	297.363	79.2965	297.363	75.1565	297.363	78.7661	297.363	74.0853	297.363	78.3577	297.363	73.2132	297.363	78.1389	297.363	72.9921	297.363	78.1392	297.363	73.6394	297.363	78.3036	297.363	74.8263	297.363	78.4976	297.363	76.0891	297.363	78.5692	297.363	77.1614	297.363	78.4044	297.363	77.9413
307.617	81.0264	307.617	80.6012	307.617	81.3272	307.617	80.0644	307.617	81.5011	307.617	79.4384	307.617	81.5542	307.617	78.7521	307.617	81.4958	307.617	78.0367	307.617	81.3343	307.617	77.321	307.617	81.0733	307.617	76.6275	307.617	80.7151	307.617	75.9653	307.617	80.2697	307.617	75.3236	307.617	79.7668	307.617	74.6764	307.617	79.2616	307.617	74.0133	307.617	78.8212	307.617	73.407	307.617	78.4946	307.617	73.0781	307.617	78.2891	307.617	73.3057	307.617	78.1719	307.617	74.1197	307.617	78.0818	307.617	75.2196	307.617	77.9345	307.617	76.2712	307.617	77.6326	307.617	77.0911
319.336	80.9477	319.336	80.5447	319.336	81.2152	319.336	80.0283	319.336	81.3363	319.336	79.4295	319.336	81.3123	319.336	78.7816	319.336	81.154	319.336	78.112	319.336	80.8771	319.336	77.4352	319.336	80.4946	319.336	76.7502	319.336	80.0135	319.336	76.0454	319.336	79.4421	319.336	75.3074	319.336	78.8122	319.336	74.537	319.336	78.2095	319.336	73.7751	319.336	77.7721	319.336	73.1431	319.336	77.6099	319.336	72.8566	319.336	77.6937	319.336	73.1127	319.336	77.8637	319.336	73.8837	319.336	77.9464	319.336	74.9193	319.336	77.8287	319.336	75.9548	319.336	77.4589	319.336	76.8265
329.59	80.564	329.59	80.1996	329.59	80.8089	329.59	79.7359	329.59	80.9208	329.59	79.198	329.59	80.8952	329.59	78.6149	329.59	80.7387	329.59	78.0155	329.59	80.4705	329.59	77.421	329.59	80.1186	329.59	76.8347	329.59	79.7106	329.59	76.2389	329.59	79.2612	329.59	75.6019	329.59	78.7701	329.59	74.8984	329.59	78.2466	329.59	74.141	329.59	77.7499	329.59	73.4303	329.59	77.4025	329.59	73.0041	329.59	77.3125	329.59	73.1515	329.59	77.4487	329.59	73.9184	329.59	77.6389	329.59	75.0141	329.59	77.6916	329.59	76.0929	329.59	77.4786	329.59	76.9433
341.309	80.8888	341.309	80.6242	341.309	80.9968	341.309	80.212	341.309	80.9533	341.309	79.6728	341.309	80.7762	341.309	79.0359	341.309	80.4894	341.309	78.336	341.309	80.1115	341.309	77.61	341.309	79.6512	341.309	76.886	341.309	79.1183	341.309	76.169	341.309	78.5508	341.309	75.4366	341.309	78.0331	341.309	74.6606	341.309	77.6728	341.309	73.8611	341.309	77.5391	341.309	73.1782	341.309	77.6245	341.309	72.8927	341.309	77.8581	341.309	73.2431	341.309	78.1254	341.309	74.1469	341.309	78.2895	341.309	75.2812	341.309	78.2329	341.309	76.3682	341.309	77.8928	341.309	77.2612
353.027	81.2317	353.027	80.9348	353.027	81.4028	353.027	80.5382	353.027	81.429	353.027	80.0713	353.027	81.3008	353.027	79.5607	353.027	81.0213	353.027	79.0231	353.027	80.6055	353.027	78.4616	353.027	80.0704	353.027	77.8669	353.027	79.4152	353.027	77.2198	353.027	78.6131	353.027	76.4928	353.027	77.6396	353.027	75.6506	353.027	76.5574	353.027	74.668	353.027	75.6307	353.027	73.5947	353.027	75.2815	353.027	72.6972	353.027	75.6552	353.027	72.5075	353.027	76.4024	353.027	73.3045	353.027	77.0934	353.027	74.6499	353.027	77.4764	353.027	75.9599	353.027	77.435	353.027	76.9247
366.211	82.1109	366.211	81.7863	366.211	82.2854	366.211	81.3321	366.211	82.2988	366.211	80.7758	366.211	82.1477	366.211	80.1465	366.211	81.8326	366.211	79.4662	366.211	81.3545	366.211	78.746	366.211	80.7145	366.211	77.9894	366.211	79.9174	366.211	77.1948	366.211	78.9756	366.211	76.3491	366.211	77.9176	366.211	75.4138	366.211	76.8144	366.211	74.3401	366.211	75.8375	366.211	73.1682	366.211	75.2806	366.211	72.2441	366.211	75.3584	366.211	72.2329	366.211	75.9206	366.211	73.2838	366.211	76.5857	366.211	74.7223	366.211	77.0467	366.211	75.9644	366.211	77.1387	366.211	76.7856
379.395	81.5179	379.395	81.1975	379.395	81.7185	379.395	80.7804	379.395	81.7905	379.395	80.3012	379.395	81.7396	379.395	79.8004	379.395	81.5811	379.395	79.3152	379.395	81.3311	379.395	78.8647	379.395	80.9949	379.395	78.437	379.395	80.5588	379.395	77.9901	379.395	79.9902	379.395	77.4666	379.395	79.2521	379.395	76.8093	379.395	78.3335	379.395	75.9677	379.395	77.3017	379.395	74.9094	379.395	76.3635	379.395	73.6948	379.395	75.8352	379.395	72.6785	379.395	75.8708	379.395	72.5653	379.395	76.2395	379.395	73.5439	379.395	76.5442	379.395	74.8821	379.395	76.4921	379.395	75.9396
392.578	81.3382	392.578	81.0347	392.578	81.4603	392.578	80.5787	392.578	81.398	392.578	80.0178	392.578	81.1762	392.578	79.4079	392.578	80.8432	392.578	78.8001	392.578	80.4559	392.578	78.2301	392.578	80.0592	392.578	77.7106	392.578	79.6696	392.578	77.2307	392.578	79.2734	392.578	76.762	392.578	78.8387	392.578	76.2692	392.578	78.3397	392.578	75.7198	392.578	77.7949	392.578	75.0983	392.578	77.3062	392.578	74.4511	392.578	77.0319	392.578	73.97	392.578	77.042	392.578	73.9872	392.578	77.2066	392.578	74.6456	392.578	77.2891	392.578	75.6367	392.578	77.0952	392.578	76.5315
405.762	81.4622	405.762	81.1736	405.762	81.5399	405.762	80.6883	405.762	81.409	405.762	80.0423	405.762	81.0877	405.762	79.2968	405.762	80.6128	405.762	78.5338	405.762	80.0366	405.762	77.8336	405.762	79.4115	405.762	77.2412	405.762	78.7697	405.762	76.7434	405.762	78.1233	405.762	76.2821	405.762	77.4971	405.762	75.7912	405.762	76.9688	405.762	75.2251	405.762	76.6722	405.762	74.5778	405.762	76.7188	405.762	73.9294	405.762	77.0759	405.762	73.5301	405.762	77.5474	405.762	73.7368	405.762	77.8929	405.762	74.6122	405.762	77.9366	405.762	75.7847	405.762	77.5921	405.762	76.85
420.41	81.8711	420.41	81.5198	420.41	82.0221	420.41	81.0022	420.41	81.964	420.41	80.3708	420.41	81.7129	420.41	79.6845	420.41	81.3026	420.41	78.9944	420.41	80.7759	420.41	78.3367	420.41	80.1704	420.41	77.7317	420.41	79.4989	420.41	77.178	420.41	78.7292	420.41	76.6336	420.41	77.7924	420.41	76.0134	420.41	76.6484	420.41	75.2363	420.41	75.4315	420.41	74.3229	420.41	74.5982	420.41	73.5121	420.41	74.6392	420.41	73.2429	420.41	75.3831	420.41	73.7513	420.41	76.2398	420.41	74.7551	420.41	76.8123	420.41	75.8018	420.41	76.9383	420.41	76.5827
435.059	81.7268	435.059	81.4739	435.059	81.7705	435.059	81.0267	435.059	81.6089	435.059	80.4163	435.059	81.2664	435.059	79.6852	435.059	80.7883	435.059	78.874	435.059	80.2277	435.059	78.0073	435.059	79.6142	435.059	77.0947	435.059	78.9303	435.059	76.1496	435.059	78.1323	435.059	75.2079	435.059	77.2109	435.059	74.3237	435.059	76.2525	435.059	73.5594	435.059	75.4808	435.059	73.0109	435.059	75.231	435.059	72.8461	435.059	75.7028	435.059	73.2344	435.059	76.655	435.059	74.1707	435.059	77.5971	435.059	75.4285	435.059	78.1639	435.059	76.6901	435.059	78.1953	435.059	77.6748
451.172	82.2645	451.172	81.9458	451.172	82.3814	451.172	81.4412	451.172	82.2879	451.172	80.7817	451.172	81.9878	451.172	80.0277	451.172	81.5073	451.172	79.2713	451.172	80.8976	451.172	78.6031	451.172	80.2178	451.172	78.0473	451.172	79.4982	451.172	77.5258	451.172	78.7089	451.172	76.892	451.172	77.7525	451.172	75.9864	451.172	76.4974	451.172	74.6517	451.172	74.8922	451.172	72.7502	451.172	73.3197	451.172	70.4476	451.172	72.9392	451.172	69.3269	451.172	74.0908	451.172	70.9807	451.172	75.5134	451.172	73.3649	451.172	76.4166	451.172	75.1538	451.172	76.6492	451.172	76.2296
465.82	81.8575	465.82	81.6164	465.82	81.9337	465.82	81.2081	465.82	81.833	465.82	80.6169	465.82	81.547	465.82	79.8419	465.82	81.0934	465.82	78.9397	465.82	80.5288	465.82	78.0434	465.82	79.9342	465.82	77.3119	465.82	79.3597	465.82	76.8132	465.82	78.7713	465.82	76.4615	465.82	78.0606	465.82	76.0778	465.82	77.1135	465.82	75.4648	465.82	75.8976	465.82	74.4167	465.82	74.6034	465.82	72.7421	465.82	73.813	465.82	70.58	465.82	74.0672	465.82	69.5799	465.82	74.9627	465.82	71.3343	465.82	75.7094	465.82	73.6626	465.82	75.8599	465.82	75.2137
483.398	81.6249	483.398	81.2097	483.398	81.7458	483.398	80.5807	483.398	81.5481	483.398	79.8447	483.398	81.0741	483.398	79.0936	483.398	80.4302	483.398	78.3784	483.398	79.7636	483.398	77.7254	483.398	79.2062	483.398	77.1601	483.398	78.7958	483.398	76.688	483.398	78.4371	483.398	76.2403	483.398	77.9473	483.398	75.6647	483.398	77.1529	483.398	74.7855	483.398	75.9962	483.398	73.4934	483.398	74.708	483.398	71.8843	483.398	73.9844	483.398	70.5294	483.398	74.3629	483.398	70.4643	483.398	75.2736	483.398	71.8337	483.398	75.8931	483.398	73.6195	483.398	75.847	483.398	75.0595
499.512	81.5796	499.512	81.214	499.512	81.6418	499.512	80.5794	499.512	81.4069	499.512	79.7591	499.512	80.9016	499.512	78.8564	499.512	80.174	499.512	77.9427	499.512	79.3196	499.512	77.0449	499.512	78.4925	499.512	76.2012	499.512	77.8424	499.512	75.5206	499.512	77.3994	499.512	75.1196	499.512	77.0355	499.512	74.9385	499.512	76.5512	499.512	74.7137	499.512	75.8151	499.512	74.1699	499.512	74.9424	499.512	73.18	499.512	74.4303	499.512	71.9692	499.512	74.7171	499.512	71.5006	499.512	75.4648	499.512	72.5639	499.512	76.0391	499.512	74.2207	499.512	76.0895	499.512	75.4866
517.09	81.7626	517.09	81.4458	517.09	81.8493	517.09	80.9128	517.09	81.6839	517.09	80.1784	517.09	81.241	517.09	79.2718	517.09	80.5163	517.09	78.2456	517.09	79.5664	517.09	77.1717	517.09	78.545	517.09	76.1214	517.09	77.6639	517.09	75.147	517.09	77.0298	517.09	74.3002	517.09	76.5302	517.09	73.6592	517.09	75.9642	517.09	73.2375	517.09	75.2467	517.09	72.8098	517.09	74.527	517.09	71.9854	517.09	74.2023	517.09	70.6803	517.09	74.5924	517.09	70.0005	517.09	75.4169	517.09	71.382	517.09	76.046	517.09	73.5667	517.09	76.0424	517.09	75.2222
536.133	82.2379	536.133	81.8199	536.133	82.4178	536.133	81.2279	536.133	82.2906	536.133	80.5081	536.133	81.8117	536.133	79.6978	536.133	80.9881	536.133	78.8498	536.133	79.8948	536.133	78.0441	536.133	78.6944	536.133	77.3494	536.133	77.6263	536.133	76.7434	536.133	76.8366	536.133	76.0864	536.133	76.1557	536.133	75.175	536.133	75.2501	536.133	73.8157	536.133	74.0716	536.133	71.9392	536.133	73.3302	536.133	69.877	536.133	74.0087	536.133	68.7408	536.133	75.5518	536.133	69.6445	536.133	76.8474	536.133	71.9674	536.133	77.4388	536.133	74.3821	536.133	77.2252	536.133	76.1973
555.176	81.7081	555.176	81.2866	555.176	81.906	555.176	80.6856	555.176	81.8515	555.176	79.9582	555.176	81.5259	555.176	79.1627	555.176	80.9109	555.176	78.3613	555.176	80.0079	555.176	77.6028	555.176	78.8997	555.176	76.9037	555.176	77.8012	555.176	76.2492	555.176	76.9443	555.176	75.607	555.176	76.2815	555.176	74.9433	555.176	75.4459	555.176	74.2022	555.176	74.1223	555.176	73.2127	555.176	72.6424	555.176	71.6322	555.176	72.554	555.176	69.1815	555.176	74.1773	555.176	67.1695	555.176	75.7903	555.176	69.2643	555.176	76.5786	555.176	72.7209	555.176	76.3892	555.176	75.1413
574.219	82.2327	574.219	81.6771	574.219	82.5382	574.219	80.8803	574.219	82.5843	574.219	79.8874	574.219	82.3379	574.219	78.7943	574.219	81.7645	574.219	77.7606	574.219	80.8657	574.219	77.0101	574.219	79.6937	574.219	76.6865	574.219	78.3668	574.219	76.625	574.219	77.1299	574.219	76.4594	574.219	76.2616	574.219	75.9167	574.219	75.6342	574.219	74.8599	574.219	74.6424	574.219	73.1804	574.219	72.8004	574.219	70.741	574.219	70.8738	574.219	67.495	574.219	71.7263	574.219	65.3139	574.219	74.1567	574.219	68.2877	574.219	75.684	574.219	72.1593	574.219	75.8712	574.219	74.7072
594.727	82.0202	594.727	81.4439	594.727	82.3276	594.727	80.6827	594.727	82.3111	594.727	79.7895	594.727	81.9799	594.727	78.7798	594.727	81.3804	594.727	77.6856	594.727	80.5515	594.727	76.5949	594.727	79.5342	594.727	75.6589	594.727	78.4583	594.727	75.0864	594.727	77.5899	594.727	75.0055	594.727	77.0795	594.727	75.2378	594.727	76.6166	594.727	75.3833	594.727	75.6423	594.727	75.0299	594.727	73.843	594.727	73.7692	594.727	72.0262	594.727	71.1277	594.727	72.5606	594.727	67.1486	594.727	74.4742	594.727	67.593	594.727	75.6605	594.727	71.7993	594.727	75.6959	594.727	74.4953
615.234	81.6071	615.234	81.0832	615.234	81.8984	615.234	80.3711	615.234	81.9513	615.234	79.5524	615.234	81.7654	615.234	78.7094	615.234	81.3145	615.234	77.8994	615.234	80.5495	615.234	77.141	615.234	79.4613	615.234	76.4073	615.234	78.1827	615.234	75.7139	615.234	77.0058	615.234	75.2125	615.234	76.1275	615.234	74.948	615.234	75.4038	615.234	74.6371	615.234	74.5716	615.234	73.985	615.234	73.641	615.234	72.8764	615.234	73.2508	615.234	71.0529	615.234	74.0464	615.234	67.883	615.234	75.2355	615.234	65.2391	615.234	75.7531	615.234	69.2434	615.234	75.1357	615.234	73.0971
637.207	81.4077	637.207	80.9637	637.207	81.654	637.207	80.3417	637.207	81.6978	637.207	79.5959	637.207	81.5166	637.207	78.7735	637.207	81.0794	637.207	77.8787	637.207	80.3978	637.207	76.9402	637.207	79.5509	637.207	76.0786	637.207	78.6183	637.207	75.432	637.207	77.616	637.207	75.1391	637.207	76.5636	637.207	75.2862	637.207	75.454	637.207	75.5643	637.207	73.9699	637.207	75.4234	637.207	71.6708	637.207	74.4718	637.207	70.0196	637.207	72.3129	637.207	72.1073	637.207	68.1637	637.207	74.5988	637.207	64.0231	637.207	75.6066	637.207	68.9886	637.207	75.0795	637.207	73.0148
659.18	81.4835	659.18	80.9961	659.18	81.7107	659.18	80.3034	659.18	81.6563	659.18	79.4443	659.18	81.3571	659.18	78.4573	659.18	80.8576	659.18	77.4292	659.18	80.1329	659.18	76.4522	659.18	79.1248	659.18	75.5268	659.18	77.9895	659.18	74.5567	659.18	77.3305	659.18	73.5006	659.18	77.4988	659.18	72.7556	659.18	77.7138	659.18	73.0283	659.18	77.014	659.18	73.8647	659.18	74.9094	659.18	74.118	659.18	71.7061	659.18	73.1838	659.18	70.9285	659.18	70.8216	659.18	73.5998	659.18	68.5279	659.18	75.612	659.18	71.1805	659.18	75.9905	659.18	74.5304
682.617	82.0555	682.617	81.4329	682.617	82.3616	682.617	80.5654	682.617	82.3755	682.617	79.6158	682.617	82.1705	682.617	78.7686	682.617	81.7799	682.617	78.1204	682.617	81.1445	682.617	77.6247	682.617	80.1524	682.617	77.1826	682.617	78.7006	682.617	76.7251	682.617	76.9372	682.617	76.0587	682.617	75.9568	682.617	74.8099	682.617	76.578	682.617	72.964	682.617	77.1469	682.617	71.7739	682.617	76.2777	682.617	72.1221	682.617	73.9621	682.617	72.2496	682.617	72.8308	682.617	70.6769	682.617	74.5075	682.617	67.4315	682.617	75.8492	682.617	69.1082	682.617	75.6459	682.617	73.4695
707.52	82.1195	707.52	81.5322	707.52	82.3689	707.52	80.7501	707.52	82.1365	707.52	79.823	707.52	81.4469	707.52	78.7382	707.52	80.6599	707.52	77.5265	707.52	80.2179	707.52	76.2788	707.52	79.9126	707.52	75.1395	707.52	79.0558	707.52	74.6263	707.52	77.2214	707.52	75.1787	707.52	74.9323	707.52	75.7582	707.52	74.545	707.52	75.3215	707.52	75.7846	707.52	74.2084	707.52	76.0002	707.52	73.4895	707.52	74.4456	707.52	72.7006	707.52	72.2182	707.52	70.8308	707.52	72.7243	707.52	67.644	707.52	73.8743	707.52	66.2998	707.52	73.0749	707.52	70.1525
732.422	81.7237	732.422	81.0215	732.422	81.9996	732.422	79.9936	732.422	81.8462	732.422	78.8768	732.422	81.2771	732.422	77.891	732.422	80.3719	732.422	77.0595	732.422	79.5142	732.422	76.3322	732.422	79.2168	732.422	75.8385	732.422	79.1175	732.422	75.5715	732.422	78.3123	732.422	75.1316	732.422	76.2907	732.422	74.534	732.422	73.2374	732.422	74.009	732.422	71.6784	732.422	73.2311	732.422	73.0804	732.422	72.4551	732.422	74.1226	732.422	72.2286	732.422	74.2839	732.422	71.783	732.422	74.4018	732.422	70.9908	732.422	74.5668	732.422	71.1273	732.422	74.0298	732.422	72.5667
757.324	81.2207	757.324	80.2101	757.324	81.8189	757.324	79.0025	757.324	81.7998	757.324	77.7911	757.324	81.0361	757.324	76.6647	757.324	79.6353	757.324	75.4663	757.324	78.2245	757.324	73.915	757.324	77.7841	757.324	72.1873	757.324	78.3407	757.324	71.3368	757.324	78.9079	757.324	71.9466	757.324	78.7095	757.324	73.1435	757.324	77.4267	757.324	73.7533	757.324	74.8304	757.324	72.785	757.324	70.4644	757.324	69.7577	757.324	67.7196	757.324	66.0994	757.324	72.175	757.324	67.8511	757.324	75.8225	757.324	72.1375	757.324	77.6666	757.324	75.2457	757.324	77.9886	757.324	77.1271
785.156	80.7898	785.156	79.1818	785.156	82.0536	785.156	77.5245	785.156	82.6183	785.156	76.1738	785.156	82.1584	785.156	75.4693	785.156	80.5426	785.156	75.3685	785.156	77.8633	785.156	75.3566	785.156	74.9602	785.156	74.746	785.156	74.6159	785.156	73.4294	785.156	76.5586	785.156	72.6128	785.156	78.0735	785.156	72.571	785.156	78.6171	785.156	72.4289	785.156	78.3744	785.156	72.7971	785.156	77.2814	785.156	73.1456	785.156	74.8951	785.156	72.4931	785.156	71.7655	785.156	69.4811	785.156	73.2351	785.156	53.3092	785.156	76.3049	785.156	70.0309	785.156	77.2765	785.156	75.7235
811.523	80.0566	811.523	78.7739	811.523	81.2861	811.523	77.9345	811.523	82.0253	811.523	77.5359	811.523	82.1906	811.523	77.3548	811.523	81.7405	811.523	77.2303	811.523	80.3551	811.523	76.8751	811.523	77.5127	811.523	76.2271	811.523	73.1703	811.523	75.4471	811.523	71.4701	811.523	74.553	811.523	73.745	811.523	73.8332	811.523	75.3428	811.523	72.9313	811.523	76.3589	811.523	71.5982	811.523	76.4595	811.523	71.8499	811.523	74.8205	811.523	72.9921	811.523	72.6754	811.523	72.5082	811.523	73.4055	811.523	67.936	811.523	74.8581	811.523	55.5652	811.523	74.4176	811.523	70.7438
840.82	79.5621	840.82	78.6359	840.82	80.5942	840.82	77.9284	840.82	81.4189	840.82	77.575	840.82	81.6508	840.82	77.4739	840.82	81.22	840.82	77.2226	840.82	80.3619	840.82	76.6587	840.82	79.102	840.82	75.9951	840.82	77.0251	840.82	75.4193	840.82	74.3299	840.82	74.9482	840.82	73.1625	840.82	74.5906	840.82	73.2663	840.82	73.9561	840.82	73.4829	840.82	72.559	840.82	73.8835	840.82	71.01	840.82	73.5822	840.82	70.8829	840.82	73.0119	840.82	70.8908	840.82	73.9127	840.82	68.3775	840.82	74.728	840.82	57.7105	840.82	73.0203	840.82	66.721
870.117	79.5434	870.117	78.6185	870.117	80.6028	870.117	77.9278	870.117	81.3272	870.117	77.1555	870.117	81.417	870.117	76.2409	870.117	80.9445	870.117	75.5528	870.117	80.0753	870.117	75.0207	870.117	78.7087	870.117	74.0789	870.117	76.586	870.117	72.6312	870.117	74.2112	870.117	72.241	870.117	73.5942	870.117	73.8083	870.117	73.8708	870.117	74.4476	870.117	73.856	870.117	72.3826	870.117	73.92	870.117	68.4495	870.117	72.5561	870.117	69.3421	870.117	71.1792	870.117	71.0701	870.117	71.8549	870.117	70.4591	870.117	71.4709	870.117	66.9583	870.117	69.0061	870.117	64.7593
900.879	80.1062	900.879	79.0056	900.879	81.1178	900.879	77.9848	900.879	81.8427	900.879	77.505	900.879	81.9537	900.879	77.4646	900.879	81.3782	900.879	77.1306	900.879	80.3766	900.879	76.2372	900.879	79.2393	900.879	75.1171	900.879	77.7506	900.879	74.0197	900.879	75.5855	900.879	72.2832	900.879	73.6286	900.879	71.5915	900.879	72.2162	900.879	73.8502	900.879	71.9074	900.879	74.4676	900.879	73.2883	900.879	72.5958	900.879	73.0249	900.879	69.2661	900.879	71.4108	900.879	67.8522	900.879	72.6365	900.879	66.955	900.879	73.5776	900.879	63.0767	900.879	71.5609	900.879	65.8921
933.105	80.6044	933.105	79.7218	933.105	81.6098	933.105	78.9811	933.105	82.5265	933.105	78.4582	933.105	82.8463	933.105	77.9043	933.105	82.26	933.105	77.0566	933.105	80.9988	933.105	76.3752	933.105	79.5885	933.105	75.8498	933.105	78.0704	933.105	74.877	933.105	76.3226	933.105	74.1761	933.105	75.3707	933.105	74.6104	933.105	75.5269	933.105	75.3581	933.105	75.0641	933.105	74.6845	933.105	74.0485	933.105	71.8721	933.105	72.7079	933.105	70.1434	933.105	71.8057	933.105	71.0208	933.105	73.0429	933.105	70.6092	933.105	73.5888	933.105	66.602	933.105	71.6327	933.105	65.8773
965.332	80.6034	965.332	80.2564	965.332	81.3946	965.332	79.9526	965.332	82.2485	965.332	79.4387	965.332	82.5035	965.332	78.9318	965.332	82.0232	965.332	78.2585	965.332	81.0081	965.332	77.134	965.332	79.5789	965.332	76.115	965.332	77.928	965.332	74.9595	965.332	76.1068	965.332	71.908	965.332	74.4431	965.332	69.4659	965.332	74.0316	965.332	73.4935	965.332	74.9516	965.332	74.9943	965.332	75.4881	965.332	73.3866	965.332	74.0787	965.332	70.4699	965.332	71.9935	965.332	69.9154	965.332	73.77	965.332	69.6015	965.332	74.5636	965.332	67.067	965.332	72.2167	965.332	67.5903
1,000.49	79.5987	1,000.49	78.9763	1,000.49	80.7006	1,000.49	78.6559	1,000.49	81.9333	1,000.49	78.3931	1,000.49	82.5419	1,000.49	77.935	1,000.49	82.1786	1,000.49	77.1827	1,000.49	80.9249	1,000.49	76.224	1,000.49	79.0669	1,000.49	75.4939	1,000.49	77.0294	1,000.49	74.713	1,000.49	75.4576	1,000.49	73.6031	1,000.49	74.3215	1,000.49	73.5347	1,000.49	73.1236	1,000.49	74.0812	1,000.49	73.3781	1,000.49	73.4953	1,000.49	74.6829	1,000.49	72.4498	1,000.49	73.2465	1,000.49	71.0882	1,000.49	71.7014	1,000.49	70.0263	1,000.49	72.3891	1,000.49	69.3196	1,000.49	72.9875	1,000.49	66.5261	1,000.49	71.4459	1,000.49	66.3852
1,035.64	78.9434	1,035.64	78.8483	1,035.64	79.4984	1,035.64	78.5371	1,035.64	80.7367	1,035.64	78.3071	1,035.64	81.2749	1,035.64	77.9411	1,035.64	80.6977	1,035.64	76.9328	1,035.64	79.6413	1,035.64	75.4174	1,035.64	78.3142	1,035.64	73.4975	1,035.64	76.4501	1,035.64	72.9501	1,035.64	73.7597	1,035.64	71.9287	1,035.64	71.7322	1,035.64	67.6156	1,035.64	70.8216	1,035.64	70.8242	1,035.64	71.4161	1,035.64	72.9274	1,035.64	74.7813	1,035.64	70.0731	1,035.64	74.7482	1,035.64	66.2048	1,035.64	71.5168	1,035.64	69.3922	1,035.64	71.9229	1,035.64	69.1637	1,035.64	72.5055	1,035.64	64.5257	1,035.64	69.9122	1,035.64	64.0074
1,072.27	78.7705	1,072.27	78.9983	1,072.27	78.9101	1,072.27	79.299	1,072.27	79.5692	1,072.27	79.0211	1,072.27	80.3857	1,072.27	78.0899	1,072.27	80.3839	1,072.27	76.62	1,072.27	79.2546	1,072.27	74.9739	1,072.27	77.4756	1,072.27	74.1573	1,072.27	75.5287	1,072.27	73.2569	1,072.27	73.1727	1,072.27	71.5911	1,072.27	70.7562	1,072.27	68.1624	1,072.27	69.8719	1,072.27	67.2988	1,072.27	69.9044	1,072.27	71.3669	1,072.27	73.0032	1,072.27	70.9522	1,072.27	72.8372	1,072.27	67.9103	1,072.27	72.1498	1,072.27	67.0134	1,072.27	73.7404	1,072.27	68.8142	1,072.27	73.1943	1,072.27	65.1211	1,072.27	69.3523	1,072.27	63.6184
1,108.89	80.028	1,108.89	80.1192	1,108.89	79.7761	1,108.89	80.2869	1,108.89	80.2276	1,108.89	80.3794	1,108.89	81.0136	1,108.89	79.6181	1,108.89	81.0385	1,108.89	78.159	1,108.89	80.3532	1,108.89	76.6718	1,108.89	78.8845	1,108.89	74.9312	1,108.89	76.6283	1,108.89	73.9319	1,108.89	74.4801	1,108.89	72.9779	1,108.89	72.219	1,108.89	70.241	1,108.89	70.3433	1,108.89	67.1565	1,108.89	66.9259	1,108.89	69.9191	1,108.89	71.033	1,108.89	69.6235	1,108.89	72.0014	1,108.89	67.9682	1,108.89	70.8679	1,108.89	69.0377	1,108.89	72.3175	1,108.89	70.8193	1,108.89	72.0538	1,108.89	67.987	1,108.89	69.5676	1,108.89	63.1679
1,148.44	81.9161	1,148.44	82.113	1,148.44	81.4013	1,148.44	82.2687	1,148.44	81.3803	1,148.44	81.9952	1,148.44	82.2757	1,148.44	81.4685	1,148.44	82.4753	1,148.44	80.3075	1,148.44	81.8737	1,148.44	78.2267	1,148.44	80.8973	1,148.44	76.5265	1,148.44	78.7878	1,148.44	75.7196	1,148.44	76.7209	1,148.44	74.7684	1,148.44	74.4314	1,148.44	73.6981	1,148.44	71.4578	1,148.44	70.0575	1,148.44	67.925	1,148.44	66.6736	1,148.44	70.0392	1,148.44	69.2179	1,148.44	73.3526	1,148.44	69.3669	1,148.44	74.0396	1,148.44	65.523	1,148.44	75.1064	1,148.44	70.4704	1,148.44	74.756	1,148.44	69.4391	1,148.44	73.0741	1,148.44	68.7047
1,189.45	81.3093	1,189.45	81.6235	1,189.45	81.2647	1,189.45	81.856	1,189.45	81.8469	1,189.45	81.5808	1,189.45	82.6645	1,189.45	80.6614	1,189.45	83.0998	1,189.45	79.6645	1,189.45	82.4329	1,189.45	78.2237	1,189.45	80.7747	1,189.45	76.3876	1,189.45	78.8893	1,189.45	74.8094	1,189.45	76.8197	1,189.45	73.5769	1,189.45	74.1684	1,189.45	72.4167	1,189.45	73.297	1,189.45	68.6831	1,189.45	72.1274	1,189.45	67.5014	1,189.45	72.681	1,189.45	70.6717	1,189.45	73.097	1,189.45	71.0068	1,189.45	72.307	1,189.45	69.7756	1,189.45	73.9418	1,189.45	71.6588	1,189.45	72.9407	1,189.45	72.1434	1,189.45	69.3568	1,189.45	67.8437
1,230.47	81.0897	1,230.47	81.4514	1,230.47	80.4653	1,230.47	81.692	1,230.47	80.6212	1,230.47	81.0985	1,230.47	82.2602	1,230.47	80.0532	1,230.47	82.8919	1,230.47	79.079	1,230.47	81.9593	1,230.47	78.1609	1,230.47	80.4903	1,230.47	76.6198	1,230.47	78.009	1,230.47	74.4448	1,230.47	75.9727	1,230.47	72.9606	1,230.47	74.5307	1,230.47	72.245	1,230.47	70.2825	1,230.47	71.4693	1,230.47	67.4571	1,230.47	64.9455	1,230.47	68.9947	1,230.47	68.25	1,230.47	69.8897	1,230.47	70.0118	1,230.47	72.0438	1,230.47	67.4841	1,230.47	74.5576	1,230.47	67.9488	1,230.47	74.1216	1,230.47	69.6836	1,230.47	72.1574	1,230.47	67.7214
1,274.41	80.844	1,274.41	81.4897	1,274.41	80.1987	1,274.41	81.6614	1,274.41	80.0848	1,274.41	81.1297	1,274.41	81.1267	1,274.41	80.0982	1,274.41	81.7634	1,274.41	78.5631	1,274.41	81.6134	1,274.41	77.403	1,274.41	80.2148	1,274.41	76.0389	1,274.41	77.4007	1,274.41	74.4296	1,274.41	75.1552	1,274.41	73.5424	1,274.41	72.8674	1,274.41	73.728	1,274.41	73.6387	1,274.41	73.8194	1,274.41	71.0839	1,274.41	71.1766	1,274.41	70.4921	1,274.41	68.2046	1,274.41	70.3445	1,274.41	68.1168	1,274.41	67.0783	1,274.41	63.9056	1,274.41	71.7349	1,274.41	66.8722	1,274.41	72.8187	1,274.41	69.6715	1,274.41	70.5914	1,274.41	67.8846
1,319.82	80.3644	1,319.82	81.1177	1,319.82	79.8091	1,319.82	81.1756	1,319.82	80.1465	1,319.82	80.4205	1,319.82	80.9455	1,319.82	78.9359	1,319.82	81.1382	1,319.82	77.7964	1,319.82	80.9615	1,319.82	77.1288	1,319.82	80.356	1,319.82	76.4427	1,319.82	78.2683	1,319.82	74.9423	1,319.82	75.0235	1,319.82	73.4953	1,319.82	72.0615	1,319.82	72.5894	1,319.82	71.284	1,319.82	71.482	1,319.82	71.3011	1,319.82	70.1541	1,319.82	71.4525	1,319.82	68.5854	1,319.82	71.1761	1,319.82	69.2621	1,319.82	67.3309	1,319.82	66.6558	1,319.82	71.2362	1,319.82	62.9546	1,319.82	71.8378	1,319.82	69.2078	1,319.82	68.5721	1,319.82	66.5156
1,366.7	80.3607	1,366.7	81.0158	1,366.7	79.2494	1,366.7	80.9571	1,366.7	79.1465	1,366.7	79.4804	1,366.7	80.0603	1,366.7	77.6378	1,366.7	80.3245	1,366.7	76.1595	1,366.7	79.7191	1,366.7	74.3501	1,366.7	79.0884	1,366.7	73.6198	1,366.7	76.8231	1,366.7	74.0455	1,366.7	74.3975	1,366.7	73.4168	1,366.7	71.9233	1,366.7	69.9144	1,366.7	70.1945	1,366.7	69.1472	1,366.7	69.6134	1,366.7	68.2361	1,366.7	69.3431	1,366.7	67.5822	1,366.7	72.8141	1,366.7	65.7202	1,366.7	69.4923	1,366.7	62.5774	1,366.7	70.2267	1,366.7	64.8268	1,366.7	72.1884	1,366.7	69.7022	1,366.7	70.8728	1,366.7	69.7783
1,413.57	81.1072	1,413.57	81.1858	1,413.57	80.3596	1,413.57	80.395	1,413.57	79.9753	1,413.57	79.139	1,413.57	80.6886	1,413.57	77.6895	1,413.57	80.9806	1,413.57	76.5825	1,413.57	80.009	1,413.57	76.3507	1,413.57	78.8987	1,413.57	74.2772	1,413.57	77.687	1,413.57	71.5226	1,413.57	75.3829	1,413.57	70.2019	1,413.57	73.0689	1,413.57	68.5005	1,413.57	71.1104	1,413.57	69.8495	1,413.57	68.1911	1,413.57	69.7313	1,413.57	70.0627	1,413.57	68.991	1,413.57	72.1391	1,413.57	65.199	1,413.57	68.6184	1,413.57	59.8912	1,413.57	69.4885	1,413.57	53.2243	1,413.57	71.8697	1,413.57	65.7048	1,413.57	70.5825	1,413.57	68.9816
1,463.38	82.251	1,463.38	82.7746	1,463.38	81.3206	1,463.38	81.4259	1,463.38	80.3853	1,463.38	79.3316	1,463.38	80.3966	1,463.38	77.9409	1,463.38	81.5158	1,463.38	76.8582	1,463.38	80.922	1,463.38	76.3453	1,463.38	79.7498	1,463.38	73.7175	1,463.38	78.5718	1,463.38	71.8681	1,463.38	75.5608	1,463.38	71.7085	1,463.38	73.9508	1,463.38	70.052	1,463.38	71.1774	1,463.38	68.5116	1,463.38	70.5869	1,463.38	69.8046	1,463.38	68.9299	1,463.38	69.629	1,463.38	69.5607	1,463.38	68.5837	1,463.38	65.9791	1,463.38	66.4143	1,463.38	68.7519	1,463.38	58.4753	1,463.38	72.0171	1,463.38	65.8735	1,463.38	68.9576	1,463.38	65.646
1,516.11	82.4829	1,516.11	82.3452	1,516.11	81.5432	1,516.11	81.1373	1,516.11	80.6011	1,516.11	79.6737	1,516.11	80.9899	1,516.11	78.5709	1,516.11	80.9675	1,516.11	77.9142	1,516.11	80.4247	1,516.11	77.4659	1,516.11	78.9191	1,516.11	75.9941	1,516.11	76.9732	1,516.11	72.2814	1,516.11	75.1754	1,516.11	71.1449	1,516.11	70.8341	1,516.11	70.3061	1,516.11	71.5071	1,516.11	69.3559	1,516.11	71.6446	1,516.11	69.7696	1,516.11	71.6986	1,516.11	68.6345	1,516.11	69.0289	1,516.11	70.86	1,516.11	68.8621	1,516.11	69.4906	1,516.11	69.4051	1,516.11	62.9675	1,516.11	71.0009	1,516.11	61.0834	1,516.11	65.5226	1,516.11	62.9844
1,568.85	82.0288	1,568.85	82.0203	1,568.85	80.4539	1,568.85	80.6252	1,568.85	78.8518	1,568.85	79.431	1,568.85	79.149	1,568.85	77.4591	1,568.85	80.1587	1,568.85	76.6546	1,568.85	79.9946	1,568.85	77.6926	1,568.85	78.7361	1,568.85	75.5663	1,568.85	77.7977	1,568.85	74.7395	1,568.85	74.6054	1,568.85	72.1406	1,568.85	71.992	1,568.85	72.4042	1,568.85	68.6225	1,568.85	69.5752	1,568.85	69.1774	1,568.85	70.0892	1,568.85	68.3765	1,568.85	70.6876	1,568.85	70.8207	1,568.85	72.0433	1,568.85	64.9599	1,568.85	69.2287	1,568.85	66.0729	1,568.85	56.5989	1,568.85	67.8651	1,568.85	60.9376	1,568.85	63.7697	1,568.85	66.0783
1,624.51	81.1119	1,624.51	81.2445	1,624.51	80.5699	1,624.51	79.2415	1,624.51	79.0417	1,624.51	78.5286	1,624.51	78.9104	1,624.51	77.9059	1,624.51	79.8021	1,624.51	77.4487	1,624.51	79.121	1,624.51	77.0326	1,624.51	77.9769	1,624.51	73.9964	1,624.51	76.167	1,624.51	73.3925	1,624.51	73.386	1,624.51	69.999	1,624.51	71.921	1,624.51	69.423	1,624.51	65.9972	1,624.51	65.7883	1,624.51	66.9325	1,624.51	66.2285	1,624.51	67.8822	1,624.51	68.275	1,624.51	69.9535	1,624.51	71.1402	1,624.51	65.9366	1,624.51	70.3475	1,624.51	63.6982	1,624.51	65.6301	1,624.51	68.8136	1,624.51	64.94	1,624.51	63.4887	1,624.51	65.7502
1,681.64	80.9594	1,681.64	80.1946	1,681.64	80.9135	1,681.64	79.2663	1,681.64	79.2193	1,681.64	78.5485	1,681.64	77.993	1,681.64	78.0708	1,681.64	78.8786	1,681.64	77.2675	1,681.64	79.475	1,681.64	73.111	1,681.64	77.6118	1,681.64	73.9044	1,681.64	74.4883	1,681.64	73.0426	1,681.64	74.4603	1,681.64	71.2898	1,681.64	71.3196	1,681.64	70.4786	1,681.64	71.3119	1,681.64	67.607	1,681.64	67.2134	1,681.64	68.7639	1,681.64	67.4195	1,681.64	68.8527	1,681.64	70.36	1,681.64	70.7829	1,681.64	72.2662	1,681.64	69.648	1,681.64	63.5645	1,681.64	66.0827	1,681.64	67.6549	1,681.64	53.2334	1,681.64	59.1205	1,681.64	62.5368
1,741.7	81.534	1,741.7	80.9533	1,741.7	80.493	1,741.7	80.2816	1,741.7	78.7471	1,741.7	80.2279	1,741.7	79.0546	1,741.7	79.4924	1,741.7	79.6519	1,741.7	77.165	1,741.7	79.789	1,741.7	76.1514	1,741.7	78.7821	1,741.7	74.5237	1,741.7	77.0806	1,741.7	73.2956	1,741.7	75.8368	1,741.7	70.3338	1,741.7	73.2629	1,741.7	70.9399	1,741.7	70.1908	1,741.7	68.1503	1,741.7	71.7423	1,741.7	67.1041	1,741.7	68.8036	1,741.7	68.1115	1,741.7	70.464	1,741.7	69.4102	1,741.7	69.7867	1,741.7	68.6204	1,741.7	65.0137	1,741.7	63.3762	1,741.7	68.1578	1,741.7	60.2489	1,741.7	65.7909	1,741.7	56.9934
1,803.22	82.0948	1,803.22	81.2819	1,803.22	81.7326	1,803.22	80.4613	1,803.22	80.1065	1,803.22	80.105	1,803.22	78.5362	1,803.22	79.8861	1,803.22	79.4905	1,803.22	78.0958	1,803.22	79.864	1,803.22	76.501	1,803.22	78.8433	1,803.22	74.8901	1,803.22	77.0901	1,803.22	73.8686	1,803.22	74.6032	1,803.22	71.1242	1,803.22	72.4507	1,803.22	70.0385	1,803.22	70.4174	1,803.22	69.9886	1,803.22	68.0994	1,803.22	66.4907	1,803.22	66.8954	1,803.22	68.7824	1,803.22	68.0714	1,803.22	69.349	1,803.22	68.39	1,803.22	68.5426	1,803.22	64.2869	1,803.22	66.7105	1,803.22	67.9299	1,803.22	54.4681	1,803.22	58.253	1,803.22	64.0718
1,866.21	81.3035	1,866.21	80.4157	1,866.21	81.12	1,866.21	79.9392	1,866.21	79.6547	1,866.21	79.8514	1,866.21	77.8404	1,866.21	79.0214	1,866.21	78.0095	1,866.21	77.8668	1,866.21	78.7034	1,866.21	76.4436	1,866.21	78.0727	1,866.21	74.2671	1,866.21	75.4142	1,866.21	74.1259	1,866.21	73.4109	1,866.21	72.4664	1,866.21	70.9866	1,866.21	71.3516	1,866.21	68.8695	1,866.21	69.8311	1,866.21	66.5922	1,866.21	68.2318	1,866.21	67.2043	1,866.21	67.9193	1,866.21	67.6252	1,866.21	70.121	1,866.21	67.0675	1,866.21	67.8217	1,866.21	62.264	1,866.21	67.2929	1,866.21	66.3296	1,866.21	47.4419	1,866.21	53.9371	1,866.21	58.583
1,932.13	80.026	1,932.13	79.5621	1,932.13	80.5949	1,932.13	79.5616	1,932.13	79.2532	1,932.13	79.5709	1,932.13	77.6791	1,932.13	78.4927	1,932.13	77.8085	1,932.13	77.0946	1,932.13	78.4974	1,932.13	75.7778	1,932.13	78.1819	1,932.13	73.4256	1,932.13	76.0108	1,932.13	71.999	1,932.13	73.6921	1,932.13	71.1103	1,932.13	70.7283	1,932.13	69.1123	1,932.13	69.4134	1,932.13	69.1611	1,932.13	65.4966	1,932.13	68.5047	1,932.13	66.7359	1,932.13	67.2595	1,932.13	66.5334	1,932.13	67.7684	1,932.13	68.5057	1,932.13	66.3905	1,932.13	61.987	1,932.13	64.9468	1,932.13	66.0289	1,932.13	59.3598	1,932.13	48.9746	1,932.13	62.5858
1,999.51	80.7195	1,999.51	80.2589	1,999.51	80.9909	1,999.51	80.2392	1,999.51	79.8737	1,999.51	79.9375	1,999.51	78.3146	1,999.51	79.0472	1,999.51	78.517	1,999.51	77.7371	1,999.51	79.2566	1,999.51	76.1118	1,999.51	78.7743	1,999.51	74.7873	1,999.51	77.2084	1,999.51	73.027	1,999.51	74.9266	1,999.51	70.9335	1,999.51	72.6319	1,999.51	69.4298	1,999.51	70.261	1,999.51	69.1766	1,999.51	67.8828	1,999.51	66.5736	1,999.51	68.6525	1,999.51	64.4694	1,999.51	67.0087	1,999.51	68.7833	1,999.51	68.6135	1,999.51	67.1831	1,999.51	64.2223	1,999.51	66.3887	1,999.51	66.5885	1,999.51	55.9203	1,999.51	51.072	1,999.51	61.5759
2,069.82	81.7968	2,069.82	81.4517	2,069.82	81.9187	2,069.82	81.5634	2,069.82	80.4172	2,069.82	81.0285	2,069.82	78.1029	2,069.82	79.6831	2,069.82	78.4309	2,069.82	79.0653	2,069.82	79.583	2,069.82	77.8219	2,069.82	79.2451	2,069.82	76.0651	2,069.82	77.6898	2,069.82	74.5063	2,069.82	75.0598	2,069.82	73.1154	2,069.82	73.0749	2,069.82	70.6145	2,069.82	69.5501	2,069.82	70.3799	2,069.82	69.8343	2,069.82	68.7748	2,069.82	66.7731	2,069.82	66.1549	2,069.82	67.9341	2,069.82	68.3585	2,069.82	69.53	2,069.82	69.1087	2,069.82	63.1186	2,069.82	66.9269	2,069.82	66.4907	2,069.82	61.2855	2,069.82	46.4434	2,069.82	59.1293
2,143.07	81.2176	2,143.07	81.2397	2,143.07	81.8671	2,143.07	81.5169	2,143.07	80.7975	2,143.07	80.929	2,143.07	77.8662	2,143.07	79.8045	2,143.07	77.3541	2,143.07	79.0467	2,143.07	79.0134	2,143.07	78.3503	2,143.07	78.9797	2,143.07	76.9743	2,143.07	77.5865	2,143.07	75.3369	2,143.07	74.9361	2,143.07	73.7219	2,143.07	71.7667	2,143.07	70.9997	2,143.07	68.8477	2,143.07	72.1961	2,143.07	68.5718	2,143.07	69.8975	2,143.07	67.2098	2,143.07	68.5961	2,143.07	64.9915	2,143.07	68.837	2,143.07	68.3288	2,143.07	69.7237	2,143.07	62.0042	2,143.07	67.2953	2,143.07	65.9651	2,143.07	65.3203	2,143.07	56.8164	2,143.07	60.3147
2,219.24	80.8909	2,219.24	81.2283	2,219.24	81.4454	2,219.24	81.3011	2,219.24	81.1264	2,219.24	80.3226	2,219.24	78.7966	2,219.24	79.5088	2,219.24	77.5125	2,219.24	78.1265	2,219.24	78.7161	2,219.24	77.1516	2,219.24	78.8831	2,219.24	75.5452	2,219.24	77.8658	2,219.24	72.6285	2,219.24	75.6151	2,219.24	71.997	2,219.24	72.622	2,219.24	68.9224	2,219.24	70.3476	2,219.24	68.6835	2,219.24	68.8366	2,219.24	68.5247	2,219.24	67.5873	2,219.24	66.9988	2,219.24	64.992	2,219.24	68.6693	2,219.24	68.6507	2,219.24	69.914	2,219.24	59.2407	2,219.24	66.4152	2,219.24	66.2082	2,219.24	65.129	2,219.24	52.4825	2,219.24	61.9755
2,296.88	81.9865	2,296.88	82.4034	2,296.88	82.1676	2,296.88	81.8962	2,296.88	81.9545	2,296.88	81.0784	2,296.88	79.8595	2,296.88	80.3502	2,296.88	78.1712	2,296.88	79.0484	2,296.88	79.3856	2,296.88	77.1783	2,296.88	79.3744	2,296.88	75.4633	2,296.88	78.3974	2,296.88	73.1057	2,296.88	75.9976	2,296.88	71.4449	2,296.88	73.8945	2,296.88	69.1068	2,296.88	70.2982	2,296.88	67.8025	2,296.88	70.4139	2,296.88	67.3757	2,296.88	68.3845	2,296.88	65.9436	2,296.88	66.6907	2,296.88	66.7003	2,296.88	68.6352	2,296.88	68.9992	2,296.88	59.36	2,296.88	64.2119	2,296.88	65.9736	2,296.88	65.3204	2,296.88	60.7774	2,296.88	55.4702
2,378.91	82.1382	2,378.91	82.6295	2,378.91	82.2117	2,378.91	82.1329	2,378.91	82.0956	2,378.91	81.6054	2,378.91	80.0578	2,378.91	81.0611	2,378.91	77.9382	2,378.91	79.3989	2,378.91	78.7217	2,378.91	77.1952	2,378.91	79.0272	2,378.91	75.5414	2,378.91	77.6962	2,378.91	74.0247	2,378.91	75.3182	2,378.91	72.0285	2,378.91	72.8641	2,378.91	70.7425	2,378.91	69.398	2,378.91	68.331	2,378.91	68.7645	2,378.91	68.9174	2,378.91	66.8606	2,378.91	66.3076	2,378.91	64.2332	2,378.91	68.0022	2,378.91	66.1466	2,378.91	68.5675	2,378.91	58.6298	2,378.91	65.2918	2,378.91	64.2832	2,378.91	65.8527	2,378.91	62.4174	2,378.91	54.0415
2,462.4	81.8548	2,462.4	82.1063	2,462.4	81.7643	2,462.4	81.6581	2,462.4	82.0105	2,462.4	81.1136	2,462.4	80.4773	2,462.4	80.2845	2,462.4	78.1301	2,462.4	78.3489	2,462.4	78.3887	2,462.4	76.2726	2,462.4	78.8927	2,462.4	75.1369	2,462.4	77.607	2,462.4	73.3421	2,462.4	75.6536	2,462.4	72.0037	2,462.4	72.2677	2,462.4	70.034	2,462.4	69.6815	2,462.4	68.5257	2,462.4	68.0219	2,462.4	68.7527	2,462.4	66.1753	2,462.4	66.5603	2,462.4	65.1203	2,462.4	68.2929	2,462.4	64.6473	2,462.4	68.0561	2,462.4	55.7027	2,462.4	65.3487	2,462.4	63.2511	2,462.4	66.5181	2,462.4	62.2178	2,462.4	59.3276
2,548.83	82.1692	2,548.83	82.3197	2,548.83	81.8081	2,548.83	82.0051	2,548.83	82.2397	2,548.83	81.4581	2,548.83	81.0606	2,548.83	79.8722	2,548.83	78.8807	2,548.83	78.1672	2,548.83	78.9141	2,548.83	76.5428	2,548.83	79.1367	2,548.83	75.0356	2,548.83	77.7968	2,548.83	73.6579	2,548.83	75.8239	2,548.83	72.0499	2,548.83	72.241	2,548.83	70.3843	2,548.83	70.3733	2,548.83	68.0363	2,548.83	69.073	2,548.83	68.1354	2,548.83	67.4318	2,548.83	65.13	2,548.83	66.6696	2,548.83	67.7595	2,548.83	64.3446	2,548.83	67.4425	2,548.83	55.345	2,548.83	65.5403	2,548.83	64.0933	2,548.83	65.8275	2,548.83	62.5954	2,548.83	61.0504
2,639.65	81.4201	2,639.65	81.4967	2,639.65	81.0525	2,639.65	81.8541	2,639.65	81.3364	2,639.65	81.2493	2,639.65	80.4152	2,639.65	80.0214	2,639.65	77.8843	2,639.65	78.8363	2,639.65	77.8826	2,639.65	77.8865	2,639.65	78.0641	2,639.65	75.6355	2,639.65	76.6627	2,639.65	74.5888	2,639.65	74.2534	2,639.65	72.6205	2,639.65	70.4207	2,639.65	70.8515	2,639.65	68.4298	2,639.65	68.5539	2,639.65	66.4911	2,639.65	66.8584	2,639.65	65.261	2,639.65	66.25	2,639.65	64.8221	2,639.65	67.2337	2,639.65	62.334	2,639.65	67.9192	2,639.65	54.5667	2,639.65	65.6929	2,639.65	63.2751	2,639.65	63.6862	2,639.65	63.3955	2,639.65	61.5658
2,731.93	80.4093	2,731.93	81.1158	2,731.93	80.2992	2,731.93	80.9197	2,731.93	80.5977	2,731.93	80.4301	2,731.93	79.8843	2,731.93	79.3745	2,731.93	77.6592	2,731.93	78.7624	2,731.93	77.226	2,731.93	77.7435	2,731.93	77.2229	2,731.93	75.9671	2,731.93	75.9528	2,731.93	74.7867	2,731.93	73.6668	2,731.93	70.9215	2,731.93	70.639	2,731.93	70.5433	2,731.93	67.621	2,731.93	67.3029	2,731.93	63.7733	2,731.93	67.3402	2,731.93	65.0699	2,731.93	64.7436	2,731.93	63.2169	2,731.93	66.6982	2,731.93	54.8162	2,731.93	67.5889	2,731.93	50.6433	2,731.93	65.557	2,731.93	61.0271	2,731.93	63.3616	2,731.93	61.8087	2,731.93	60.9282
2,828.61	80.4942	2,828.61	81.0461	2,828.61	79.6769	2,828.61	81.0341	2,828.61	80.1617	2,828.61	80.6959	2,828.61	79.3976	2,828.61	79.8452	2,828.61	77.4592	2,828.61	78.6378	2,828.61	76.9839	2,828.61	77.3495	2,828.61	77.1336	2,828.61	75.4272	2,828.61	75.6984	2,828.61	72.0209	2,828.61	72.9698	2,828.61	70.1404	2,828.61	70.3991	2,828.61	68.3157	2,828.61	66.6952	2,828.61	66.2767	2,828.61	65.8328	2,828.61	66.1552	2,828.61	65.2494	2,828.61	64.3309	2,828.61	64.1399	2,828.61	64.784	2,828.61	58.0886	2,828.61	66.3313	2,828.61	53.1354	2,828.61	65.2707	2,828.61	61.6443	2,828.61	62.7043	2,828.61	62.6148	2,828.61	59.6367
2,928.22	79.6055	2,928.22	80.0364	2,928.22	78.6327	2,928.22	80.3232	2,928.22	79.4805	2,928.22	79.8096	2,928.22	79.5162	2,928.22	79.3998	2,928.22	77.6209	2,928.22	78.4917	2,928.22	76.6958	2,928.22	76.3613	2,928.22	76.7621	2,928.22	73.9273	2,928.22	75.8973	2,928.22	70.8399	2,928.22	73.2412	2,928.22	69.2921	2,928.22	70.4686	2,928.22	67.3126	2,928.22	67.2531	2,928.22	66.1739	2,928.22	64.787	2,928.22	64.706	2,928.22	64.5114	2,928.22	62.5711	2,928.22	63.9229	2,928.22	63.9194	2,928.22	55.0118	2,928.22	63.3159	2,928.22	54.112	2,928.22	64.7096	2,928.22	59.6456	2,928.22	61.4146	2,928.22	61.9446	2,928.22	58.7799
3,030.76	80.8205	3,030.76	80.7742	3,030.76	79.9484	3,030.76	81.2755	3,030.76	80.4691	3,030.76	80.8247	3,030.76	80.9897	3,030.76	80.0192	3,030.76	79.2841	3,030.76	77.5039	3,030.76	78.1391	3,030.76	75.1451	3,030.76	78.7608	3,030.76	72.1269	3,030.76	77.3368	3,030.76	68.6018	3,030.76	74.3558	3,030.76	68.6606	3,030.76	71.4276	3,030.76	66.1695	3,030.76	68.4256	3,030.76	63.7119	3,030.76	65.2095	3,030.76	64.79	3,030.76	64.638	3,030.76	59.3234	3,030.76	62.8528	3,030.76	61.3044	3,030.76	56.1557	3,030.76	63.9242	3,030.76	57.941	3,030.76	63.5544	3,030.76	61.746	3,030.76	59.0395	3,030.76	59.2568	3,030.76	61.5117
3,137.7	81.3647	3,137.7	81.9014	3,137.7	80.9974	3,137.7	81.9393	3,137.7	80.7039	3,137.7	81.6979	3,137.7	81.5974	3,137.7	80.3418	3,137.7	80.1927	3,137.7	77.1956	3,137.7	79.1459	3,137.7	73.5052	3,137.7	79.0949	3,137.7	71.8509	3,137.7	77.7852	3,137.7	70.9913	3,137.7	74.9615	3,137.7	70.1879	3,137.7	71.7285	3,137.7	68.6926	3,137.7	68.8991	3,137.7	66.9553	3,137.7	66.7357	3,137.7	65.1598	3,137.7	65.1064	3,137.7	64.6011	3,137.7	64.1903	3,137.7	60.5855	3,137.7	56.4305	3,137.7	62.783	3,137.7	60.5114	3,137.7	63.8072	3,137.7	61.5295	3,137.7	52.5025	3,137.7	60.2825	3,137.7	61.3465
3,249.02	80.8973	3,249.02	81.5059	3,249.02	80.7744	3,249.02	81.6184	3,249.02	80.1494	3,249.02	81.2829	3,249.02	81.0982	3,249.02	79.0277	3,249.02	80.187	3,249.02	77.0069	3,249.02	78.9908	3,249.02	75.1238	3,249.02	78.7213	3,249.02	73.8653	3,249.02	77.2621	3,249.02	73.6326	3,249.02	74.4218	3,249.02	71.5747	3,249.02	71.6286	3,249.02	70.1318	3,249.02	68.7253	3,249.02	67.7364	3,249.02	66.202	3,249.02	65.4044	3,249.02	64.8737	3,249.02	66.0916	3,249.02	63.0524	3,249.02	63.1573	3,249.02	51.8311	3,249.02	62.5881	3,249.02	60.6202	3,249.02	60.4533	3,249.02	62.6909	3,249.02	58.9654	3,249.02	60.7776	3,249.02	61.5368
3,363.28	81.0289	3,363.28	81.6544	3,363.28	81.3616	3,363.28	81.2504	3,363.28	80.5402	3,363.28	80.7204	3,363.28	81.3519	3,363.28	78.4791	3,363.28	80.3573	3,363.28	77.4083	3,363.28	79.17	3,363.28	76.1036	3,363.28	78.3626	3,363.28	75.3397	3,363.28	77.2095	3,363.28	73.1115	3,363.28	74.2683	3,363.28	71.3412	3,363.28	71.3611	3,363.28	68.6444	3,363.28	67.6724	3,363.28	67.2372	3,363.28	66.9731	3,363.28	64.4105	3,363.28	64.7111	3,363.28	66.4658	3,363.28	60.1023	3,363.28	61.6906	3,363.28	55.7729	3,363.28	63.6355	3,363.28	58.6127	3,363.28	59.3308	3,363.28	62.2986	3,363.28	60.9619	3,363.28	61.638	3,363.28	61.1311
3,481.93	80.9398	3,481.93	81.6859	3,481.93	79.9066	3,481.93	81.6072	3,481.93	80.7467	3,481.93	80.68	3,481.93	80.7575	3,481.93	79.4743	3,481.93	79.8269	3,481.93	77.7356	3,481.93	78.1757	3,481.93	77.3094	3,481.93	78.3079	3,481.93	75.4252	3,481.93	76.8805	3,481.93	73.5965	3,481.93	73.5778	3,481.93	70.7352	3,481.93	69.7621	3,481.93	68.122	3,481.93	66.3876	3,481.93	68.2397	3,481.93	66.5261	3,481.93	63.9054	3,481.93	65.2831	3,481.93	63.6675	3,481.93	63.5559	3,481.93	59.1021	3,481.93	56.4548	3,481.93	62.3026	3,481.93	57.1761	3,481.93	59.0538	3,481.93	60.8465	3,481.93	61.4513	3,481.93	56.6274	3,481.93	63.2791
3,604.98	80.3936	3,604.98	80.2473	3,604.98	80.0798	3,604.98	80.306	3,604.98	79.753	3,604.98	79.2876	3,604.98	80.1419	3,604.98	77.8789	3,604.98	78.5994	3,604.98	77.2079	3,604.98	77.1649	3,604.98	76.3722	3,604.98	78.0279	3,604.98	74.1213	3,604.98	76.3195	3,604.98	72.1639	3,604.98	73.1238	3,604.98	68.354	3,604.98	68.8097	3,604.98	66.6863	3,604.98	65.0075	3,604.98	65.9092	3,604.98	64.5266	3,604.98	64.3301	3,604.98	63.5885	3,604.98	62.0964	3,604.98	62.1524	3,604.98	60.381	3,604.98	57.8631	3,604.98	61.5177	3,604.98	55.9955	3,604.98	60.4225	3,604.98	61.4363	3,604.98	60.8243	3,604.98	57.1	3,604.98	61.9351
3,732.42	80.6317	3,732.42	80.6316	3,732.42	80.5191	3,732.42	80.9734	3,732.42	80.3292	3,732.42	79.7647	3,732.42	80.5905	3,732.42	79.3647	3,732.42	78.4206	3,732.42	77.219	3,732.42	76.2984	3,732.42	75.1654	3,732.42	77.472	3,732.42	71.7256	3,732.42	76.1663	3,732.42	69.7605	3,732.42	73.0288	3,732.42	68.0976	3,732.42	69.0575	3,732.42	66.4403	3,732.42	66.727	3,732.42	65.3367	3,732.42	64.8318	3,732.42	63.3557	3,732.42	65.8327	3,732.42	61.9068	3,732.42	64.331	3,732.42	59.7244	3,732.42	54.6171	3,732.42	61.4531	3,732.42	54.4103	3,732.42	59.8628	3,732.42	58.711	3,732.42	57.4359	3,732.42	56.1149	3,732.42	56.5408
3,864.26	79.9415	3,864.26	80.0433	3,864.26	80.6418	3,864.26	79.9359	3,864.26	80.0327	3,864.26	79.0871	3,864.26	80.4306	3,864.26	78.2892	3,864.26	78.9044	3,864.26	77.0469	3,864.26	75.3859	3,864.26	73.7208	3,864.26	76.5076	3,864.26	71.645	3,864.26	75.4711	3,864.26	70.1458	3,864.26	72.6439	3,864.26	68.44	3,864.26	69.326	3,864.26	67.6079	3,864.26	65.7669	3,864.26	65.0345	3,864.26	62.4563	3,864.26	64.3015	3,864.26	64.6074	3,864.26	65.0446	3,864.26	64.1208	3,864.26	62.2973	3,864.26	53.7379	3,864.26	59.6606	3,864.26	54.7166	3,864.26	58.2219	3,864.26	57.579	3,864.26	56.8947	3,864.26	52.9176	3,864.26	60.3326
4,000.49	80.0905	4,000.49	79.6395	4,000.49	80.827	4,000.49	79.8437	4,000.49	79.9981	4,000.49	78.8567	4,000.49	79.9216	4,000.49	77.7178	4,000.49	78.5255	4,000.49	76.3954	4,000.49	74.2929	4,000.49	73.4472	4,000.49	75.1422	4,000.49	72.9191	4,000.49	74.7595	4,000.49	70.4043	4,000.49	72.532	4,000.49	69.0729	4,000.49	69.0222	4,000.49	66.8188	4,000.49	65.94	4,000.49	64.6029	4,000.49	62.8965	4,000.49	63.9315	4,000.49	63.5639	4,000.49	63.0448	4,000.49	62.4757	4,000.49	60.9003	4,000.49	54.5403	4,000.49	59.8368	4,000.49	55.1937	4,000.49	61.4224	4,000.49	56.8085	4,000.49	56.0608	4,000.49	52.6151	4,000.49	57.8166
4,141.11	80.0868	4,141.11	80.5488	4,141.11	79.2682	4,141.11	79.1547	4,141.11	79.8884	4,141.11	78.4588	4,141.11	79.2822	4,141.11	77.7304	4,141.11	78.7125	4,141.11	75.5599	4,141.11	73.5565	4,141.11	74.507	4,141.11	73.8032	4,141.11	72.7246	4,141.11	74.5742	4,141.11	69.8471	4,141.11	72.6392	4,141.11	68.6287	4,141.11	69.0341	4,141.11	67.0138	4,141.11	65.4231	4,141.11	65.2824	4,141.11	62.4027	4,141.11	63.637	4,141.11	62.7214	4,141.11	61.06	4,141.11	61.6637	4,141.11	62.7642	4,141.11	54.1544	4,141.11	62.97	4,141.11	54.9437	4,141.11	60.9236	4,141.11	57.8218	4,141.11	59.5018	4,141.11	51.5544	4,141.11	60.5077
4,287.6	80.7995	4,287.6	81.0804	4,287.6	79.6647	4,287.6	79.2356	4,287.6	79.4464	4,287.6	79.2755	4,287.6	78.2605	4,287.6	78.3824	4,287.6	77.8329	4,287.6	76.5062	4,287.6	71.8848	4,287.6	74.2128	4,287.6	72.8788	4,287.6	71.037	4,287.6	74.7923	4,287.6	69.0287	4,287.6	71.8911	4,287.6	67.396	4,287.6	68.3419	4,287.6	65.3055	4,287.6	65.1028	4,287.6	62.6215	4,287.6	63.0939	4,287.6	59.4289	4,287.6	62.7865	4,287.6	61.7358	4,287.6	61.0036	4,287.6	59.8009	4,287.6	55.0722	4,287.6	59.6227	4,287.6	55.7	4,287.6	57.9888	4,287.6	57.7171	4,287.6	58.9014	4,287.6	48.7202	4,287.6	58.9484
4,438.48	81.4356	4,438.48	80.4059	4,438.48	81.5842	4,438.48	79.4259	4,438.48	79.3925	4,438.48	78.6483	4,438.48	77.955	4,438.48	75.3266	4,438.48	77.4126	4,438.48	75.1753	4,438.48	72.7693	4,438.48	73.6462	4,438.48	73.4946	4,438.48	70.3794	4,438.48	74.3403	4,438.48	68.251	4,438.48	72.9882	4,438.48	64.5786	4,438.48	69.9004	4,438.48	65.9219	4,438.48	65.8824	4,438.48	60.9957	4,438.48	62.0031	4,438.48	61.968	4,438.48	63.2867	4,438.48	61.0829	4,438.48	56.5468	4,438.48	52.8061	4,438.48	39.0453	4,438.48	57.421	4,438.48	56.4828	4,438.48	56.5039	4,438.48	55.2523	4,438.48	55.9319	4,438.48	41.3808	4,438.48	55.8943
4,595.21	81.992	4,595.21	80.7158	4,595.21	81.1156	4,595.21	79.7114	4,595.21	79.5894	4,595.21	78.1706	4,595.21	76.4918	4,595.21	76.6526	4,595.21	77.9061	4,595.21	75.1111	4,595.21	75.4229	4,595.21	72.7623	4,595.21	72.8743	4,595.21	71.6853	4,595.21	74.7424	4,595.21	69.3531	4,595.21	72.3904	4,595.21	65.4185	4,595.21	69.1977	4,595.21	63.5415	4,595.21	65.7834	4,595.21	63.7103	4,595.21	64.0203	4,595.21	61.7447	4,595.21	63.0935	4,595.21	56.9916	4,595.21	55.9465	4,595.21	57.3863	4,595.21	53.4251	4,595.21	59.909	4,595.21	55.7059	4,595.21	57.1741	4,595.21	51.464	4,595.21	55.8519	4,595.21	49.2537	4,595.21	54.2452
4,756.35	81.5784	4,756.35	80.5131	4,756.35	81.179	4,756.35	78.0678	4,756.35	80.1422	4,756.35	78.0169	4,756.35	77.5365	4,756.35	77.2382	4,756.35	78.0322	4,756.35	74.9542	4,756.35	76.085	4,756.35	73.6835	4,756.35	73.4534	4,756.35	70.3971	4,756.35	74.7371	4,756.35	67.4306	4,756.35	73.8213	4,756.35	68.0991	4,756.35	69.2	4,756.35	63.7835	4,756.35	65.623	4,756.35	63.5955	4,756.35	64.2536	4,756.35	63.5429	4,756.35	60.1033	4,756.35	63.0414	4,756.35	56.2674	4,756.35	58.7547	4,756.35	51.5064	4,756.35	57.9469	4,756.35	59.3012	4,756.35	57.7	4,756.35	40.5956	4,756.35	55.2977	4,756.35	52.7894	4,756.35	56.8822
4,924.8	81.357	4,924.8	79.8791	4,924.8	81.334	4,924.8	80.5599	4,924.8	79.2361	4,924.8	78.9379	4,924.8	78.338	4,924.8	79.1875	4,924.8	77.3349	4,924.8	77.5495	4,924.8	75.6114	4,924.8	75.2495	4,924.8	72.5238	4,924.8	72.182	4,924.8	74.4576	4,924.8	70.659	4,924.8	71.8576	4,924.8	67.771	4,924.8	69.2092	4,924.8	66.7557	4,924.8	65.1811	4,924.8	63.7581	4,924.8	62.8481	4,924.8	59.5579	4,924.8	61.9987	4,924.8	57.0045	4,924.8	60.5682	4,924.8	58.4048	4,924.8	46.5997	4,924.8	57.46	4,924.8	53.9292	4,924.8	57.0821	4,924.8	45.2036	4,924.8	50.8273	4,924.8	48.3407	4,924.8	52.4201
5,097.66	81.4129	5,097.66	80.1959	5,097.66	80.9924	5,097.66	80.0115	5,097.66	79.8423	5,097.66	79.388	5,097.66	78.0998	5,097.66	77.7918	5,097.66	78.4054	5,097.66	75.9447	5,097.66	77.2588	5,097.66	73.4865	5,097.66	72.6654	5,097.66	71.2456	5,097.66	74.5353	5,097.66	69.3466	5,097.66	71.972	5,097.66	65.1709	5,097.66	68.5474	5,097.66	64.5437	5,097.66	61.9263	5,097.66	61.2031	5,097.66	63.138	5,097.66	58.6588	5,097.66	61.5888	5,097.66	54.5634	5,097.66	61.4187	5,097.66	56.1244	5,097.66	33.6643	5,097.66	60.0771	5,097.66	56.6051	5,097.66	57.8615	5,097.66	40.065	5,097.66	55.1699	5,097.66	33.4804	5,097.66	41.7503
5,277.83	79.7375	5,277.83	79.1249	5,277.83	80.0715	5,277.83	77.6615	5,277.83	79.7859	5,277.83	78.621	5,277.83	78.2037	5,277.83	77.3854	5,277.83	78.6665	5,277.83	76.1292	5,277.83	78.2781	5,277.83	74.3463	5,277.83	73.0916	5,277.83	73.1315	5,277.83	73.6116	5,277.83	70.6587	5,277.83	71.171	5,277.83	68.7558	5,277.83	67.7054	5,277.83	62.2689	5,277.83	64.0372	5,277.83	62.571	5,277.83	61.8118	5,277.83	61.3508	5,277.83	62.0775	5,277.83	59.0449	5,277.83	57.383	5,277.83	54.5402	5,277.83	49.1415	5,277.83	59.3935	5,277.83	56.5188	5,277.83	58.398	5,277.83	39.1225	5,277.83	55.6377	5,277.83	48.8571	5,277.83	47.9884
5,463.87	80.2804	5,463.87	79.9945	5,463.87	81.6112	5,463.87	79.9769	5,463.87	79.8349	5,463.87	80.0204	5,463.87	78.9218	5,463.87	79.469	5,463.87	78.3047	5,463.87	76.8193	5,463.87	77.4257	5,463.87	74.7815	5,463.87	73.3743	5,463.87	71.4448	5,463.87	74.0893	5,463.87	68.7153	5,463.87	69.8347	5,463.87	66.7746	5,463.87	66.9128	5,463.87	64.919	5,463.87	63.6775	5,463.87	61.9009	5,463.87	61.3447	5,463.87	58.8194	5,463.87	60.7332	5,463.87	57.4263	5,463.87	50.8513	5,463.87	58.9209	5,463.87	50.8241	5,463.87	58.1434	5,463.87	56.6972	5,463.87	55.0103	5,463.87	37.6807	5,463.87	52.0224	5,463.87	46.7873	5,463.87	44.1025
5,657.23	80.1946	5,657.23	79.9481	5,657.23	81.0384	5,657.23	80.0777	5,657.23	79.92	5,657.23	79.9139	5,657.23	78.3084	5,657.23	77.9416	5,657.23	77.8647	5,657.23	76.1057	5,657.23	77.4325	5,657.23	73.7078	5,657.23	72.1045	5,657.23	70.8404	5,657.23	72.2549	5,657.23	69.0267	5,657.23	70.6678	5,657.23	65.9463	5,657.23	66.5582	5,657.23	65.831	5,657.23	63.0818	5,657.23	62.9333	5,657.23	59.6095	5,657.23	62.4122	5,657.23	56.8045	5,657.23	56.5715	5,657.23	58.2023	5,657.23	59.3589	5,657.23	46.0632	5,657.23	56.3261	5,657.23	53.5139	5,657.23	57.1645	5,657.23	46.8998	5,657.23	55.9813	5,657.23	49.384	5,657.23	46.2405
5,856.45	80.2467	5,856.45	80.1541	5,856.45	80.7192	5,856.45	79.6367	5,856.45	80.0904	5,856.45	79.1969	5,856.45	78.8064	5,856.45	77.2752	5,856.45	77.9835	5,856.45	76.4057	5,856.45	77.7574	5,856.45	74.7028	5,856.45	73.1052	5,856.45	73.296	5,856.45	73.4658	5,856.45	69.5069	5,856.45	71.4971	5,856.45	67.174	5,856.45	67.14	5,856.45	64.103	5,856.45	64.6617	5,856.45	64.4321	5,856.45	57.9927	5,856.45	60.4353	5,856.45	55.1631	5,856.45	59.5029	5,856.45	57.6228	5,856.45	56.0084	5,856.45	46.1877	5,856.45	56.0436	5,856.45	51.0801	5,856.45	58.8363	5,856.45	46.3189	5,856.45	52.3959	5,856.45	46.3469	5,856.45	47.0001
6,062.99	80.9746	6,062.99	80.5742	6,062.99	81.235	6,062.99	80.2842	6,062.99	80.0437	6,062.99	78.454	6,062.99	79.3367	6,062.99	78.3752	6,062.99	77.457	6,062.99	75.8145	6,062.99	76.4791	6,062.99	74.679	6,062.99	72.9914	6,062.99	72.1904	6,062.99	72.9682	6,062.99	68.4174	6,062.99	70.7772	6,062.99	65.3583	6,062.99	66.6842	6,062.99	61.8279	6,062.99	62.8774	6,062.99	60.1033	6,062.99	60.229	6,062.99	58.954	6,062.99	52.6168	6,062.99	59.1497	6,062.99	60.4588	6,062.99	58.2203	6,062.99	49.3921	6,062.99	45.6128	6,062.99	54.4294	6,062.99	57.7776	6,062.99	47.4458	6,062.99	50.059	6,062.99	48.5825	6,062.99	44.741
6,276.86	81.7829	6,276.86	80.8561	6,276.86	80.8351	6,276.86	80.3363	6,276.86	80.8028	6,276.86	78.8067	6,276.86	78.873	6,276.86	78.1495	6,276.86	78.0568	6,276.86	76.5141	6,276.86	77.4316	6,276.86	73.4765	6,276.86	72.4049	6,276.86	69.4353	6,276.86	70.9075	6,276.86	67.4865	6,276.86	71.1865	6,276.86	64.8913	6,276.86	67.7342	6,276.86	63.606	6,276.86	60.7411	6,276.86	60.5227	6,276.86	58.4027	6,276.86	57.7549	6,276.86	55.7134	6,276.86	51.8723	6,276.86	62.7592	6,276.86	53.2918	6,276.86	49.4002	6,276.86	50.4462	6,276.86	55.2198	6,276.86	57.5741	6,276.86	28.0724	6,276.86	52.1446	6,276.86	44.8555	6,276.86	43.4623
6,498.05	81.4327	6,498.05	80.5269	6,498.05	81.1674	6,498.05	79.8175	6,498.05	80.5467	6,498.05	78.6144	6,498.05	79.745	6,498.05	77.1831	6,498.05	77.3209	6,498.05	76.8265	6,498.05	77.0037	6,498.05	72.477	6,498.05	73.9787	6,498.05	71.0494	6,498.05	72.2478	6,498.05	67.4648	6,498.05	71.6751	6,498.05	64.4548	6,498.05	67.2966	6,498.05	63.7644	6,498.05	61.5351	6,498.05	60.3768	6,498.05	60.3967	6,498.05	59.0359	6,498.05	57.9764	6,498.05	59.8545	6,498.05	62.2742	6,498.05	57.7808	6,498.05	53.3162	6,498.05	52.9049	6,498.05	48.3074	6,498.05	51.0111	6,498.05	49.9825	6,498.05	36.148	6,498.05	46.9395	6,498.05	48.5414
6,726.56	81.1236	6,726.56	80.8756	6,726.56	80.8301	6,726.56	79.8119	6,726.56	79.8252	6,726.56	78.203	6,726.56	79.8599	6,726.56	78.147	6,726.56	77.0372	6,726.56	75.9993	6,726.56	76.2273	6,726.56	73.9871	6,726.56	74.1758	6,726.56	70.6303	6,726.56	71.5603	6,726.56	68.4922	6,726.56	71.4585	6,726.56	66.2241	6,726.56	66.4554	6,726.56	63.2915	6,726.56	62.4248	6,726.56	60.0809	6,726.56	60.1645	6,726.56	60.6917	6,726.56	57.4281	6,726.56	57.0181	6,726.56	60.2701	6,726.56	57.586	6,726.56	49.3794	6,726.56	55.6217	6,726.56	47.0405	6,726.56	52.0849	6,726.56	46.7002	6,726.56	45.4484	6,726.56	40.4135	6,726.56	45.6298
6,963.87	80.8744	6,963.87	80.9778	6,963.87	80.6511	6,963.87	79.576	6,963.87	79.8747	6,963.87	78.9038	6,963.87	79.2832	6,963.87	78.6688	6,963.87	77.1966	6,963.87	76.1642	6,963.87	76.9286	6,963.87	74.6596	6,963.87	74.8151	6,963.87	72.1539	6,963.87	71.4019	6,963.87	69.8952	6,963.87	71.3319	6,963.87	67.5425	6,963.87	66.2402	6,963.87	64.1086	6,963.87	62.0177	6,963.87	62.5255	6,963.87	58.4638	6,963.87	60.8862	6,963.87	55.2211	6,963.87	59.7189	6,963.87	62.978	6,963.87	57.5448	6,963.87	48.2677	6,963.87	55.1191	6,963.87	51.1715	6,963.87	53.2903	6,963.87	46.5546	6,963.87	48.7535	6,963.87	38.207	6,963.87	46.8526
7,209.96	81.2048	7,209.96	81.4246	7,209.96	81.1264	7,209.96	79.6981	7,209.96	80.1558	7,209.96	79.7083	7,209.96	79.6776	7,209.96	78.6361	7,209.96	77.3051	7,209.96	77.7069	7,209.96	76.8325	7,209.96	74.7157	7,209.96	75.8062	7,209.96	72.9028	7,209.96	72.6004	7,209.96	69.936	7,209.96	71.3918	7,209.96	67.2364	7,209.96	65.8882	7,209.96	63.737	7,209.96	61.4567	7,209.96	62.273	7,209.96	59.5573	7,209.96	60.8378	7,209.96	54.4738	7,209.96	57.4302	7,209.96	55.6429	7,209.96	57.7691	7,209.96	50.5765	7,209.96	55.9023	7,209.96	42.3908	7,209.96	56.4704	7,209.96	48.6896	7,209.96	46.5121	7,209.96	41.9898	7,209.96	46.9013
7,464.84	81.3625	7,464.84	81.2115	7,464.84	80.4565	7,464.84	79.8346	7,464.84	80.5215	7,464.84	79.5619	7,464.84	78.8814	7,464.84	78.5471	7,464.84	77.7913	7,464.84	76.3862	7,464.84	76.6188	7,464.84	75.054	7,464.84	75.3855	7,464.84	72.2974	7,464.84	71.426	7,464.84	69.7819	7,464.84	70.8778	7,464.84	66.3428	7,464.84	65.8953	7,464.84	64.1954	7,464.84	59.9719	7,464.84	62.6392	7,464.84	57.0352	7,464.84	58.9681	7,464.84	54.2001	7,464.84	57.0634	7,464.84	60.2734	7,464.84	56.9325	7,464.84	49.9624	7,464.84	54.0132	7,464.84	42.6143	7,464.84	57.7601	7,464.84	47.7678	7,464.84	47.8585	7,464.84	41.2468	7,464.84	48.4095
7,727.05	80.9963	7,727.05	80.649	7,727.05	80.426	7,727.05	79.7517	7,727.05	80.4263	7,727.05	79.2702	7,727.05	78.7082	7,727.05	77.9173	7,727.05	77.65	7,727.05	76.5474	7,727.05	76.7979	7,727.05	75.1187	7,727.05	74.7697	7,727.05	72.2349	7,727.05	71.6488	7,727.05	68.7302	7,727.05	69.5378	7,727.05	64.8828	7,727.05	65.4299	7,727.05	63.3115	7,727.05	60.3573	7,727.05	61.1274	7,727.05	55.9625	7,727.05	58.6855	7,727.05	55.8358	7,727.05	56.5709	7,727.05	57.3287	7,727.05	57.7694	7,727.05	50.5473	7,727.05	54.3299	7,727.05	45.0662	7,727.05	55.2186	7,727.05	43.5781	7,727.05	46.5234	7,727.05	29.0681	7,727.05	41.4688
7,999.51	80.7845	7,999.51	80.6539	7,999.51	80.0982	7,999.51	80.0185	7,999.51	80.3748	7,999.51	79.0109	7,999.51	79.0972	7,999.51	77.7902	7,999.51	77.7476	7,999.51	76.8436	7,999.51	76.4441	7,999.51	74.1721	7,999.51	74.7003	7,999.51	71.367	7,999.51	71.1165	7,999.51	67.0478	7,999.51	69.5925	7,999.51	64.407	7,999.51	64.5406	7,999.51	63.1394	7,999.51	61.3017	7,999.51	60.9183	7,999.51	57.4018	7,999.51	57.7117	7,999.51	57.8299	7,999.51	55.7738	7,999.51	60.2035	7,999.51	56.5748	7,999.51	52.335	7,999.51	55.1961	7,999.51	46.819	7,999.51	53.8458	7,999.51	47.3293	7,999.51	44.2846	7,999.51	44.698	7,999.51	45.4808
8,282.23	81.0295	8,282.23	80.478	8,282.23	80.4426	8,282.23	80.3569	8,282.23	80.1181	8,282.23	78.8664	8,282.23	79.3093	8,282.23	77.9168	8,282.23	78.1877	8,282.23	76.7691	8,282.23	76.7803	8,282.23	74.0746	8,282.23	74.6589	8,282.23	70.3738	8,282.23	70.5083	8,282.23	67.438	8,282.23	69.188	8,282.23	64.9634	8,282.23	64.0068	8,282.23	62.4557	8,282.23	61.6198	8,282.23	59.4484	8,282.23	56.1756	8,282.23	59.0716	8,282.23	54.4867	8,282.23	58.045	8,282.23	59.0743	8,282.23	54.2573	8,282.23	48.9204	8,282.23	54.8663	8,282.23	50.588	8,282.23	52.7641	8,282.23	45.4194	8,282.23	43.4	8,282.23	46.521	8,282.23	41.6474
8,573.73	81.1721	8,573.73	80.4857	8,573.73	80.694	8,573.73	80.7372	8,573.73	80.8306	8,573.73	78.8122	8,573.73	79.9158	8,573.73	78.2378	8,573.73	78.2207	8,573.73	77.006	8,573.73	76.5629	8,573.73	74.0905	8,573.73	74.6989	8,573.73	71.2279	8,573.73	71.2843	8,573.73	68.1075	8,573.73	70.2252	8,573.73	65.8458	8,573.73	64.0069	8,573.73	62.8171	8,573.73	62.4113	8,573.73	59.5506	8,573.73	57.1344	8,573.73	59.3485	8,573.73	54.8039	8,573.73	58.4665	8,573.73	58.4354	8,573.73	56.1535	8,573.73	48.0849	8,573.73	54.5433	8,573.73	49.5737	8,573.73	53.7917	8,573.73	46.3052	8,573.73	47.1041	8,573.73	39.1242	8,573.73	45.4218
8,876.95	80.7258	8,876.95	80.7107	8,876.95	80.9448	8,876.95	80.6851	8,876.95	80.5741	8,876.95	79.1846	8,876.95	80.1035	8,876.95	78.4099	8,876.95	78.3422	8,876.95	76.8239	8,876.95	76.5912	8,876.95	74.065	8,876.95	74.7754	8,876.95	71.585	8,876.95	71.6608	8,876.95	68.6532	8,876.95	70.6531	8,876.95	66.9993	8,876.95	63.8309	8,876.95	62.2906	8,876.95	62.2768	8,876.95	60.6405	8,876.95	56.1516	8,876.95	59.5067	8,876.95	52.7349	8,876.95	56.6898	8,876.95	58.4179	8,876.95	56.6173	8,876.95	48.4738	8,876.95	54.3751	8,876.95	51.3861	8,876.95	54.2663	8,876.95	47.2496	8,876.95	49.4744	8,876.95	40.9142	8,876.95	44.2097
9,188.96	80.2554	9,188.96	80.8859	9,188.96	80.844	9,188.96	80.3579	9,188.96	80.2429	9,188.96	79.3818	9,188.96	79.9453	9,188.96	78.3331	9,188.96	77.867	9,188.96	76.4059	9,188.96	75.789	9,188.96	74.6801	9,188.96	74.6662	9,188.96	72.3548	9,188.96	71.3329	9,188.96	68.2484	9,188.96	69.9926	9,188.96	66.2611	9,188.96	63.5777	9,188.96	61.4857	9,188.96	60.8962	9,188.96	61.219	9,188.96	55.4859	9,188.96	59.2336	9,188.96	49.9215	9,188.96	54.0359	9,188.96	54.8136	9,188.96	55.7718	9,188.96	46.3786	9,188.96	53.4994	9,188.96	51.0226	9,188.96	53.091	9,188.96	40.416	9,188.96	48.4352	9,188.96	40.7338	9,188.96	37.7135
9,514.16	80.2356	9,514.16	80.8132	9,514.16	80.7899	9,514.16	80.2989	9,514.16	79.9501	9,514.16	79.2322	9,514.16	79.4297	9,514.16	77.8789	9,514.16	77.7697	9,514.16	76.0873	9,514.16	75.6187	9,514.16	74.2825	9,514.16	74.1525	9,514.16	71.738	9,514.16	70.1931	9,514.16	66.7009	9,514.16	69.0049	9,514.16	64.4245	9,514.16	62.6496	9,514.16	60.7934	9,514.16	60.2773	9,514.16	59.8114	9,514.16	53.0231	9,514.16	56.804	9,514.16	48.8259	9,514.16	55.8543	9,514.16	52.7603	9,514.16	53.4146	9,514.16	44.4506	9,514.16	53.1797	9,514.16	45.9863	9,514.16	51.6554	9,514.16	36.6516	9,514.16	48.7266	9,514.16	41.3735	9,514.16	38.7876
9,849.61	80.1512	9,849.61	80.5548	9,849.61	80.6184	9,849.61	80.0646	9,849.61	80.0108	9,849.61	79.0274	9,849.61	79.0269	9,849.61	77.2374	9,849.61	77.5824	9,849.61	75.6537	9,849.61	75.3	9,849.61	73.8219	9,849.61	73.5689	9,849.61	70.0272	9,849.61	68.5118	9,849.61	65.8455	9,849.61	67.8008	9,849.61	63.0502	9,849.61	62.0068	9,849.61	60.0909	9,849.61	58.8747	9,849.61	57.4291	9,849.61	50.2204	9,849.61	55.7824	9,849.61	47.2421	9,849.61	57.1749	9,849.61	44.0634	9,849.61	53.3308	9,849.61	43.3666	9,849.61	52.7266	9,849.61	40.4113	9,849.61	51.1249	9,849.61	36.9068	9,849.61	45.9779	9,849.61	39.6324	9,849.61	39.5097
10,196.8	80.0246	10,196.8	80.3128	10,196.8	80.3937	10,196.8	79.8965	10,196.8	79.7235	10,196.8	78.6495	10,196.8	78.7304	10,196.8	76.7164	10,196.8	77.3617	10,196.8	75.569	10,196.8	74.9713	10,196.8	72.7993	10,196.8	72.9626	10,196.8	68.9237	10,196.8	68.4163	10,196.8	65.3262	10,196.8	66.7377	10,196.8	62.3	10,196.8	61.919	10,196.8	59.7617	10,196.8	57.5804	10,196.8	56.0198	10,196.8	49.0169	10,196.8	53.9642	10,196.8	47.0316	10,196.8	56.3101	10,196.8	38.381	10,196.8	54.5786	10,196.8	38.3137	10,196.8	52.5763	10,196.8	43.8573	10,196.8	50.6073	10,196.8	38.9678	10,196.8	44.4891	10,196.8	41.2029	10,196.8	39.6072
10,555.7	80.1629	10,555.7	80.1571	10,555.7	80.0901	10,555.7	79.588	10,555.7	79.5977	10,555.7	78.3378	10,555.7	78.598	10,555.7	76.4571	10,555.7	77.1393	10,555.7	75.0897	10,555.7	74.5762	10,555.7	71.1208	10,555.7	72.1583	10,555.7	67.8415	10,555.7	67.8331	10,555.7	64.641	10,555.7	66.028	10,555.7	61.1319	10,555.7	60.8842	10,555.7	58.869	10,555.7	56.1633	10,555.7	55.2697	10,555.7	48.479	10,555.7	53.6436	10,555.7	45.7652	10,555.7	54.9672	10,555.7	40.3591	10,555.7	53.0792	10,555.7	37.935	10,555.7	52.6416	10,555.7	47.1831	10,555.7	48.4748	10,555.7	43.1615	10,555.7	47.4539	10,555.7	41.0869	10,555.7	34.6975
10,927.7	79.9166	10,927.7	79.4908	10,927.7	79.8757	10,927.7	79.3367	10,927.7	79.4033	10,927.7	77.6205	10,927.7	78.2914	10,927.7	75.8687	10,927.7	76.5437	10,927.7	73.5105	10,927.7	74.1173	10,927.7	70.2927	10,927.7	71.2501	10,927.7	66.7226	10,927.7	67.1662	10,927.7	64.3212	10,927.7	65.0034	10,927.7	60.3859	10,927.7	59.9793	10,927.7	57.9782	10,927.7	54.4368	10,927.7	55.01	10,927.7	44.421	10,927.7	54.0468	10,927.7	43.1265	10,927.7	53.8645	10,927.7	39.2826	10,927.7	52.0907	10,927.7	36.9157	10,927.7	48.8782	10,927.7	47.2501	10,927.7	47.9825	10,927.7	39.3952	10,927.7	47.7746	10,927.7	38.919	10,927.7	40.3816
11,313	80.0917	11,313	79.4825	11,313	79.9039	11,313	79.2495	11,313	79.4075	11,313	77.3304	11,313	78.0898	11,313	75.6424	11,313	75.9443	11,313	72.7033	11,313	73.5066	11,313	70.1106	11,313	70.8066	11,313	66.9453	11,313	67.1405	11,313	62.3611	11,313	64.0698	11,313	59.308	11,313	59.447	11,313	55.3557	11,313	52.6081	11,313	53.3971	11,313	45.8371	11,313	53.4053	11,313	45.6758	11,313	52.2829	11,313	40.8301	11,313	51.5324	11,313	23.4711	11,313	47.6415	11,313	44.906	11,313	47.108	11,313	36.4081	11,313	45.1297	11,313	32.0381	11,313	39.7335
11,712.9	80.3027	11,712.9	79.4464	11,712.9	79.751	11,712.9	79.1149	11,712.9	79.1803	11,712.9	77.2626	11,712.9	77.5578	11,712.9	75.0466	11,712.9	75.433	11,712.9	72.367	11,712.9	72.6597	11,712.9	69.8352	11,712.9	70.216	11,712.9	66.097	11,712.9	66.3453	11,712.9	61.6323	11,712.9	63.1731	11,712.9	57.9572	11,712.9	58.6567	11,712.9	53.3004	11,712.9	49.538	11,712.9	53.1918	11,712.9	42.0129	11,712.9	52.5382	11,712.9	41.2224	11,712.9	51.2145	11,712.9	37.0746	11,712.9	49.5605	11,712.9	21.181	11,712.9	43.5462	11,712.9	45.4679	11,712.9	45.3278	11,712.9	39.8727	11,712.9	44.9867	11,712.9	38.7188	11,712.9	37.8585
12,126	80.1038	12,126	79.2871	12,126	79.6052	12,126	78.5959	12,126	78.9262	12,126	77.1387	12,126	77.3948	12,126	74.2845	12,126	75.2239	12,126	72.1879	12,126	71.8981	12,126	68.4773	12,126	69.5887	12,126	64.5444	12,126	64.4682	12,126	59.9917	12,126	62.2726	12,126	56.3831	12,126	56.9265	12,126	54.1619	12,126	49.9641	12,126	53.1659	12,126	41.1252	12,126	50.5276	12,126	39.6766	12,126	48.4512	12,126	31.4935	12,126	44.8126	12,126	37.487	12,126	44.9517	12,126	42.2835	12,126	39.7368	12,126	40.5469	12,126	43.6911	12,126	37.4178	12,126	40.7226
12,553.7	79.9763	12,553.7	79.3635	12,553.7	79.6741	12,553.7	78.1886	12,553.7	78.8925	12,553.7	76.9202	12,553.7	77.2514	12,553.7	73.4175	12,553.7	74.8631	12,553.7	71.0668	12,553.7	71.0403	12,553.7	67.2752	12,553.7	68.6057	12,553.7	63.4909	12,553.7	63.2609	12,553.7	60.0795	12,553.7	61.5191	12,553.7	56.1322	12,553.7	55.5845	12,553.7	53.7071	12,553.7	51.2291	12,553.7	51.0686	12,553.7	43.4301	12,553.7	47.9528	12,553.7	41.5326	12,553.7	44.6982	12,553.7	35.9333	12,553.7	44.6117	12,553.7	38.8401	12,553.7	43.3777	12,553.7	38.6871	12,553.7	37.7677	12,553.7	37.6639	12,553.7	42.5686	12,553.7	40.5197	12,553.7	38.0854
12,996.1	79.9712	12,996.1	79.4145	12,996.1	79.8468	12,996.1	78.2132	12,996.1	78.8	12,996.1	76.2746	12,996.1	76.9203	12,996.1	73.1384	12,996.1	74.3388	12,996.1	69.6727	12,996.1	70.5275	12,996.1	65.8739	12,996.1	67.3699	12,996.1	62.0385	12,996.1	62.7956	12,996.1	57.687	12,996.1	59.4319	12,996.1	52.9463	12,996.1	54.5046	12,996.1	49.8385	12,996.1	49.1874	12,996.1	48.3493	12,996.1	42.4277	12,996.1	47.7968	12,996.1	38.528	12,996.1	42.3895	12,996.1	40.3605	12,996.1	45.7923	12,996.1	39.7828	12,996.1	38.5147	12,996.1	37.4249	12,996.1	35.4483	12,996.1	35.9085	12,996.1	44.0057	12,996.1	36.6509	12,996.1	37.3557
13,454.6	80.2189	13,454.6	79.6003	13,454.6	80.0934	13,454.6	78.1292	13,454.6	78.6797	13,454.6	75.7808	13,454.6	76.7309	13,454.6	73.0995	13,454.6	74.1178	13,454.6	68.448	13,454.6	69.7857	13,454.6	64.6247	13,454.6	65.9649	13,454.6	59.7155	13,454.6	61.4247	13,454.6	55.8444	13,454.6	56.7855	13,454.6	49.5977	13,454.6	53.3374	13,454.6	48.7688	13,454.6	45.3598	13,454.6	46.1567	13,454.6	38.4091	13,454.6	46.2652	13,454.6	36.5913	13,454.6	38.0487	13,454.6	39.6729	13,454.6	42.6603	13,454.6	36.7513	13,454.6	37.0879	13,454.6	36.3685	13,454.6	26.4335	13,454.6	34.0769	13,454.6	39.6718	13,454.6	36.9199	13,454.6	35.4609
13,929.2	79.9596	13,929.2	79.5027	13,929.2	79.75	13,929.2	77.9725	13,929.2	78.4021	13,929.2	75.511	13,929.2	76.1844	13,929.2	72.0606	13,929.2	73.1863	13,929.2	66.9727	13,929.2	67.835	13,929.2	63.077	13,929.2	64.2129	13,929.2	56.5324	13,929.2	57.1197	13,929.2	52.7327	13,929.2	52.7387	13,929.2	47.761	13,929.2	50.2141	13,929.2	46.5239	13,929.2	44.7988	13,929.2	41.0946	13,929.2	36.2894	13,929.2	41.4411	13,929.2	39.5739	13,929.2	39.2005	13,929.2	36.1451	13,929.2	36.6766	13,929.2	36.0238	13,929.2	30.1498	13,929.2	36.3048	13,929.2	31.6889	13,929.2	35.7146	13,929.2	39.6149	13,929.2	35.6234	13,929.2	36.2096
14,419.9	79.7754	14,419.9	79.4188	14,419.9	79.6421	14,419.9	77.5383	14,419.9	77.925	14,419.9	74.8104	14,419.9	75.4629	14,419.9	70.605	14,419.9	72.0579	14,419.9	65.3185	14,419.9	66.6855	14,419.9	59.3719	14,419.9	61.8964	14,419.9	51.0741	14,419.9	53.7144	14,419.9	47.8574	14,419.9	51.7547	14,419.9	48.0478	14,419.9	50.3335	14,419.9	44.3637	14,419.9	40.5954	14,419.9	40.8645	14,419.9	36.1788	14,419.9	42.3055	14,419.9	36.6529	14,419.9	30.6321	14,419.9	32.7402	14,419.9	34.9189	14,419.9	32.9629	14,419.9	35.0966	14,419.9	39.7882	14,419.9	30.2778	14,419.9	38.3685	14,419.9	35.1472	14,419.9	40.1846	14,419.9	35.3148
14,928.2	79.8074	14,928.2	79.3071	14,928.2	79.6057	14,928.2	77.3436	14,928.2	77.785	14,928.2	74.3595	14,928.2	75.0418	14,928.2	69.1825	14,928.2	70.8087	14,928.2	64.1009	14,928.2	66.1332	14,928.2	56.0624	14,928.2	59.9114	14,928.2	53.8667	14,928.2	56.5499	14,928.2	50.0763	14,928.2	54.4168	14,928.2	50.1593	14,928.2	51.1861	14,928.2	43.5526	14,928.2	40.6657	14,928.2	43.4183	14,928.2	32.9765	14,928.2	39.6986	14,928.2	36.7092	14,928.2	34.4521	14,928.2	35.5186	14,928.2	29.7313	14,928.2	29.2481	14,928.2	34.1466	14,928.2	39.4632	14,928.2	34.8061	14,928.2	37.2744	14,928.2	27.5324	14,928.2	38.5851	14,928.2	25.7054
15,455.6	79.8218	15,455.6	79.1442	15,455.6	79.4377	15,455.6	77.2849	15,455.6	77.7457	15,455.6	74.0266	15,455.6	74.7764	15,455.6	68.6457	15,455.6	70.1869	15,455.6	62.8554	15,455.6	64.5206	15,455.6	56.7359	15,455.6	58.6349	15,455.6	54.5827	15,455.6	56.339	15,455.6	50.303	15,455.6	52.8227	15,455.6	47.2931	15,455.6	50.4146	15,455.6	43.2956	15,455.6	36.7033	15,455.6	43.3897	15,455.6	28.3164	15,455.6	37.9619	15,455.6	36.5959	15,455.6	22.844	15,455.6	35.8502	15,455.6	21.886	15,455.6	21.4506	15,455.6	31.2497	15,455.6	30.6619	15,455.6	36.4045	15,455.6	31.5954	15,455.6	22.3876	15,455.6	35.7256	15,455.6	29.0799
16,000.5	79.797	16,000.5	79.0678	16,000.5	79.1787	16,000.5	77.1548	16,000.5	77.4265	16,000.5	73.4586	16,000.5	74.2405	16,000.5	68.2291	16,000.5	69.6813	16,000.5	60.3576	16,000.5	61.9543	16,000.5	56.3225	16,000.5	57.6021	16,000.5	51.5607	16,000.5	54.1004	16,000.5	48.7653	16,000.5	47.9811	16,000.5	45.8813	16,000.5	47.8879	16,000.5	42.4828	16,000.5	36.0442	16,000.5	38.5784	16,000.5	26.7938	16,000.5	30.616	16,000.5	30.8213	16,000.5	33.4336	16,000.5	26.4184	16,000.5	28.6729	16,000.5	25.5999	16,000.5	22.4668	16,000.5	24.3713	16,000.5	31.7687	16,000.5	30	16,000.5	28.9584	16,000.5	34.59	16,000.5	22.5883
16,564.5	79.8171	16,564.5	79.0106	16,564.5	79.1388	16,564.5	76.8781	16,564.5	77.1671	16,564.5	72.6962	16,564.5	73.4446	16,564.5	66.7239	16,564.5	68.6144	16,564.5	57.3358	16,564.5	60.4431	16,564.5	52.9137	16,564.5	57.0011	16,564.5	53.03	16,564.5	55.9998	16,564.5	49.4699	16,564.5	49.9146	16,564.5	47.7885	16,564.5	48.9142	16,564.5	43.2547	16,564.5	37.075	16,564.5	40.7831	16,564.5	31.4633	16,564.5	33.5429	16,564.5	32.6439	16,564.5	33.3602	16,564.5	31.98	16,564.5	29.975	16,564.5	31.4476	16,564.5	17.3217	16,564.5	26.9293	16,564.5	33.798	16,564.5	24.8783	16,564.5	27.6961	16,564.5	30.6232	16,564.5	16.9629
17,148.9	79.7898	17,148.9	78.9747	17,148.9	79.0932	17,148.9	76.6444	17,148.9	77.0421	17,148.9	72.1225	17,148.9	72.8132	17,148.9	65.1039	17,148.9	67.7947	17,148.9	56.4162	17,148.9	60.3289	17,148.9	55.9493	17,148.9	57.0465	17,148.9	56.0972	17,148.9	57.5495	17,148.9	51.6334	17,148.9	51.7828	17,148.9	49.7419	17,148.9	49.5744	17,148.9	45.0829	17,148.9	34.0685	17,148.9	42.3912	17,148.9	31.938	17,148.9	34.7465	17,148.9	34.9249	17,148.9	25.2517	17,148.9	34.3708	17,148.9	22.4483	17,148.9	33.0745	17,148.9	13.545	17,148.9	26.792	17,148.9	33.1433	17,148.9	26.484	17,148.9	31.2773	17,148.9	28.7616	17,148.9	23.4273
17,752.4	79.9155	17,752.4	79.1207	17,752.4	79.2368	17,752.4	76.7022	17,752.4	76.9842	17,752.4	72.058	17,752.4	72.6694	17,752.4	64.44	17,752.4	67.3314	17,752.4	56.4078	17,752.4	60.5629	17,752.4	58.3184	17,752.4	56.7218	17,752.4	57.5585	17,752.4	57.1598	17,752.4	53.6961	17,752.4	52.2984	17,752.4	49.8693	17,752.4	48.0165	17,752.4	47.0394	17,752.4	30.3247	17,752.4	43.387	17,752.4	28.0534	17,752.4	35.096	17,752.4	34.8847	17,752.4	29.743	17,752.4	36.0172	17,752.4	18.4897	17,752.4	32.8004	17,752.4	20.5561	17,752.4	28.0695	17,752.4	33.536	17,752.4	25.2473	17,752.4	28.8033	17,752.4	27.4463	17,752.4	28.5521
18,379.4	79.7446	18,379.4	78.9072	18,379.4	79.1911	18,379.4	76.4198	18,379.4	76.8112	18,379.4	71.4527	18,379.4	72.6094	18,379.4	63.747	18,379.4	66.4374	18,379.4	55.9908	18,379.4	59.7015	18,379.4	57.978	18,379.4	56.9577	18,379.4	57.6203	18,379.4	56.8317	18,379.4	53.7251	18,379.4	53.2465	18,379.4	49.7269	18,379.4	47.3262	18,379.4	46.7267	18,379.4	35.3384	18,379.4	41.6002	18,379.4	27.3119	18,379.4	35.9775	18,379.4	30.6165	18,379.4	35.4305	18,379.4	32.8095	18,379.4	8.58952	18,379.4	28.7352	18,379.4	25.81	18,379.4	31.5104	18,379.4	30.3982	18,379.4	32.3959	18,379.4	23.1962	18,379.4	27.6602	18,379.4	29.437
19,026.9	79.3801	19,026.9	78.4579	19,026.9	78.8551	19,026.9	75.7098	19,026.9	76.4585	19,026.9	70.3587	19,026.9	72.1542	19,026.9	61.7543	19,026.9	65.2349	19,026.9	55.6667	19,026.9	58.1643	19,026.9	58.1475	19,026.9	57.8116	19,026.9	56.9604	19,026.9	58.0846	19,026.9	53.1384	19,026.9	53.9775	19,026.9	50.0878	19,026.9	47.9761	19,026.9	45.4359	19,026.9	36.7486	19,026.9	42.9305	19,026.9	28.1777	19,026.9	39.107	19,026.9	26.7146	19,026.9	36.2842	19,026.9	18.0769	19,026.9	23.5441	19,026.9	21.8665	19,026.9	27.752	19,026.9	30.0262	19,026.9	30.8037	19,026.9	32.1024	19,026.9	27.9856	19,026.9	31.6286	19,026.9	29.1249
19,697.8	79.0272	19,697.8	78.0294	19,697.8	78.469	19,697.8	75.0555	19,697.8	75.9756	19,697.8	69.4025	19,697.8	71.4762	19,697.8	58.9114	19,697.8	63.7064	19,697.8	56.3212	19,697.8	56.7711	19,697.8	59.1844	19,697.8	57.9865	19,697.8	57.8964	19,697.8	58.5219	19,697.8	54.0011	19,697.8	53.9719	19,697.8	49.7927	19,697.8	47.5719	19,697.8	45.4238	19,697.8	35.9951	19,697.8	43.5856	19,697.8	26.4654	19,697.8	37.4959	19,697.8	16.4506	19,697.8	34.5483	19,697.8	27.5025	19,697.8	27.0251	19,697.8	4.68259	19,697.8	28.7239	19,697.8	29.1627	19,697.8	26.0235	19,697.8	28.0895	19,697.8	22.8182	19,697.8	28.001	19,697.8	28.3405
19,999.5	78.6885	19,999.5	77.7784	19,999.5	78.1766	19,999.5	74.911	19,999.5	75.7445	19,999.5	69.1786	19,999.5	71.141	19,999.5	56.2597	19,999.5	62.6841	19,999.5	57.2246	19,999.5	57.0488	19,999.5	59.1228	19,999.5	57.3343	19,999.5	58.6313	19,999.5	59.3111	19,999.5	54.3687	19,999.5	54.6645	19,999.5	50.1188	19,999.5	48.414	19,999.5	38.8639	19,999.5	41.555	19,999.5	45.9056	19,999.5	36.8517	19,999.5	33.8952	19,999.5	37.376	19,999.5	38.9308	19,999.5	42.789	19,999.5	32.8503	19,999.5	43.2007	19,999.5	38.8046	19,999.5	29.149	19,999.5	35.4434	19,999.5	31.9834	19,999.5	40.6529	19,999.5	35.2128	19,999.5	35.011
