"SPL Vertical"
"On-Axis"		"10°"		"-10°"		"20°"		"-20°"		"30°"		"-30°"		"40°"		"-40°"		"50°"		"-50°"		"60°"		"-60°"		"70°"		"-70°"		"80°"		"-80°"		"90°"		"-90°"		"100°"		"-100°"		"110°"		"-110°"		"120°"		"-120°"		"130°"		"-130°"		"140°"		"-140°"		"150°"		"-150°"		"160°"		"-160°"		"170°"		"-170°"		"180°"
"Frequency [Hz]"	"Sound Pessure Level [dB]  / [2.83V 1m] "	"Frequency [Hz]"	"Sound Pessure Level [dB]  / [2.83V 1m] "	"Frequency [Hz]"	"Sound Pessure Level [dB]  / [2.83V 1m] "	"Frequency [Hz]"	"Sound Pessure Level [dB]  / [2.83V 1m] "	"Frequency [Hz]"	"Sound Pessure Level [dB]  / [2.83V 1m] "	"Frequency [Hz]"	"Sound Pessure Level [dB]  / [2.83V 1m] "	"Frequency [Hz]"	"Sound Pessure Level [dB]  / [2.83V 1m] "	"Frequency [Hz]"	"Sound Pessure Level [dB]  / [2.83V 1m] "	"Frequency [Hz]"	"Sound Pessure Level [dB]  / [2.83V 1m] "	"Frequency [Hz]"	"Sound Pessure Level [dB]  / [2.83V 1m] "	"Frequency [Hz]"	"Sound Pessure Level [dB]  / [2.83V 1m] "	"Frequency [Hz]"	"Sound Pessure Level [dB]  / [2.83V 1m] "	"Frequency [Hz]"	"Sound Pessure Level [dB]  / [2.83V 1m] "	"Frequency [Hz]"	"Sound Pessure Level [dB]  / [2.83V 1m] "	"Frequency [Hz]"	"Sound Pessure Level [dB]  / [2.83V 1m] "	"Frequency [Hz]"	"Sound Pessure Level [dB]  / [2.83V 1m] "	"Frequency [Hz]"	"Sound Pessure Level [dB]  / [2.83V 1m] "	"Frequency [Hz]"	"Sound Pessure Level [dB]  / [2.83V 1m] "	"Frequency [Hz]"	"Sound Pessure Level [dB]  / [2.83V 1m] "	"Frequency [Hz]"	"Sound Pessure Level [dB]  / [2.83V 1m] "	"Frequency [Hz]"	"Sound Pessure Level [dB]  / [2.83V 1m] "	"Frequency [Hz]"	"Sound Pessure Level [dB]  / [2.83V 1m] "	"Frequency [Hz]"	"Sound Pessure Level [dB]  / [2.83V 1m] "	"Frequency [Hz]"	"Sound Pessure Level [dB]  / [2.83V 1m] "	"Frequency [Hz]"	"Sound Pessure Level [dB]  / [2.83V 1m] "	"Frequency [Hz]"	"Sound Pessure Level [dB]  / [2.83V 1m] "	"Frequency [Hz]"	"Sound Pessure Level [dB]  / [2.83V 1m] "	"Frequency [Hz]"	"Sound Pessure Level [dB]  / [2.83V 1m] "	"Frequency [Hz]"	"Sound Pessure Level [dB]  / [2.83V 1m] "	"Frequency [Hz]"	"Sound Pessure Level [dB]  / [2.83V 1m] "	"Frequency [Hz]"	"Sound Pessure Level [dB]  / [2.83V 1m] "	"Frequency [Hz]"	"Sound Pessure Level [dB]  / [2.83V 1m] "	"Frequency [Hz]"	"Sound Pessure Level [dB]  / [2.83V 1m] "	"Frequency [Hz]"	"Sound Pessure Level [dB]  / [2.83V 1m] "	"Frequency [Hz]"	"Sound Pessure Level [dB]  / [2.83V 1m] "	"Frequency [Hz]"	"Sound Pessure Level [dB]  / [2.83V 1m] "
20.5078	62.1752	20.5078	62.0462	20.5078	62.3127	20.5078	61.9314	20.5078	62.4525	20.5078	61.8365	20.5078	62.5889	20.5078	61.7666	20.5078	62.7159	20.5078	61.7261	20.5078	62.8285	20.5078	61.7184	20.5078	62.9226	20.5078	61.7453	20.5078	62.9961	20.5078	61.8073	20.5078	63.0493	20.5078	61.9034	20.5078	63.0852	20.5078	62.0308	20.5078	63.1095	20.5078	62.1849	20.5078	63.1294	20.5078	62.359	20.5078	63.1516	20.5078	62.544	20.5078	63.1803	20.5078	62.7291	20.5078	63.215	20.5078	62.9019	20.5078	63.2494	20.5078	63.0504	20.5078	63.2728	20.5078	63.1645	20.5078	63.2728	20.5078	63.2387
21.9727	61.3379	21.9727	61.3908	21.9727	61.3301	21.9727	61.4836	21.9727	61.3703	21.9727	61.6104	21.9727	61.4579	21.9727	61.7654	21.9727	61.5887	21.9727	61.9435	21.9727	61.7554	21.9727	62.1406	21.9727	61.9486	21.9727	62.3532	21.9727	62.1589	21.9727	62.5786	21.9727	62.3789	21.9727	62.8137	21.9727	62.6043	21.9727	63.055	21.9727	62.8337	21.9727	63.2982	21.9727	63.0678	21.9727	63.5371	21.9727	63.306	21.9727	63.7637	21.9727	63.5448	21.9727	63.9681	21.9727	63.7753	21.9727	64.1387	21.9727	63.9844	21.9727	64.2637	21.9727	64.1566	21.9727	64.3324	21.9727	64.2778	21.9727	64.3378
23.4375	57.6712	23.4375	57.3529	23.4375	57.9761	23.4375	57.0405	23.4375	58.251	23.4375	56.7545	23.4375	58.481	23.4375	56.5153	23.4375	58.653	23.4375	56.3397	23.4375	58.7551	23.4375	56.2386	23.4375	58.7772	23.4375	56.2145	23.4375	58.7124	23.4375	56.2616	23.4375	58.5594	23.4375	56.3679	23.4375	58.3254	23.4375	56.517	23.4375	58.0295	23.4375	56.6905	23.4375	57.704	23.4375	56.8694	23.4375	57.3924	23.4375	57.0349	23.4375	57.1414	23.4375	57.1694	23.4375	56.987	23.4375	57.2577	23.4375	56.9405	23.4375	57.2894	23.4375	56.9843	23.4375	57.2622	23.4375	57.0802	23.4375	57.1849
24.9023	60.4759	24.9023	60.0079	24.9023	60.9476	24.9023	59.5592	24.9023	61.4067	24.9023	59.1445	24.9023	61.8367	24.9023	58.7773	24.9023	62.2201	24.9023	58.4683	24.9023	62.5394	24.9023	58.2252	24.9023	62.7774	24.9023	58.0513	24.9023	62.9191	24.9023	57.946	24.9023	62.9526	24.9023	57.9051	24.9023	62.8712	24.9023	57.9217	24.9023	62.6748	24.9023	57.9871	24.9023	62.3709	24.9023	58.0919	24.9023	61.9756	24.9023	58.2274	24.9023	61.5133	24.9023	58.387	24.9023	61.0158	24.9023	58.5679	24.9023	60.5181	24.9023	58.7731	24.9023	60.0528	24.9023	59.0118	24.9023	59.643	24.9023	59.2976
26.3672	65.4966	26.3672	65.1288	26.3672	65.866	26.3672	64.7739	26.3672	66.2247	26.3672	64.4414	26.3672	66.5595	26.3672	64.1392	26.3672	66.8565	26.3672	63.8733	26.3672	67.102	26.3672	63.6477	26.3672	67.2832	26.3672	63.4652	26.3672	67.3888	26.3672	63.3268	26.3672	67.4106	26.3672	63.2331	26.3672	67.3445	26.3672	63.1838	26.3672	67.1913	26.3672	63.1787	26.3672	66.9573	26.3672	63.2173	26.3672	66.6539	26.3672	63.2993	26.3672	66.2969	26.3672	63.4247	26.3672	65.9051	26.3672	63.594	26.3672	65.4989	26.3672	63.808	26.3672	65.0975	26.3672	64.0674	26.3672	64.7177	26.3672	64.3718
27.832	67.6595	27.832	67.2987	27.832	68.0333	27.832	66.9625	27.832	68.407	27.832	66.6606	27.832	68.7663	27.832	66.4002	27.832	69.0968	27.832	66.1861	27.832	69.384	27.832	66.0207	27.832	69.6144	27.832	65.9049	27.832	69.7762	27.832	65.8383	27.832	69.8609	27.832	65.8199	27.832	69.8641	27.832	65.8483	27.832	69.7864	27.832	65.9218	27.832	69.6332	27.832	66.0386	27.832	69.4147	27.832	66.1964	27.832	69.144	27.832	66.3926	27.832	68.8356	27.832	66.624	27.832	68.5041	27.832	66.8871	27.832	68.1624	27.832	67.1778	27.832	67.8219	27.832	67.4913
29.2969	70.8242	29.2969	70.414	29.2969	71.2399	29.2969	70.0215	29.2969	71.6482	29.2969	69.6578	29.2969	72.0351	29.2969	69.3326	29.2969	72.3864	29.2969	69.0541	29.2969	72.6877	29.2969	68.8288	29.2969	72.9259	29.2969	68.661	29.2969	73.0902	29.2969	68.5533	29.2969	73.1727	29.2969	68.5066	29.2969	73.1701	29.2969	68.5205	29.2969	73.0836	29.2969	68.5937	29.2969	72.9187	29.2969	68.7243	29.2969	72.6844	29.2969	68.9098	29.2969	72.3922	29.2969	69.1468	29.2969	72.0546	29.2969	69.4307	29.2969	71.6841	29.2969	69.7556	29.2969	71.2931	29.2969	70.114	29.2969	70.8935	29.2969	70.4968
30.7617	75.2036	30.7617	74.9076	30.7617	75.5114	30.7617	74.6311	30.7617	75.8207	30.7617	74.3799	30.7617	76.1194	30.7617	74.1579	30.7617	76.3934	30.7617	73.9678	30.7617	76.6278	30.7617	73.8115	30.7617	76.8085	30.7617	73.69	30.7617	76.9233	30.7617	73.604	30.7617	76.964	30.7617	73.5539	30.7617	76.927	30.7617	73.5398	30.7617	76.8147	30.7617	73.5617	30.7617	76.6347	30.7617	73.6192	30.7617	76.3994	30.7617	73.7117	30.7617	76.1241	30.7617	73.8381	30.7617	75.8249	30.7617	73.9971	30.7617	75.517	30.7617	74.187	30.7617	75.2131	30.7617	74.4061	30.7617	74.9227	30.7617	74.6523
32.2266	78.2936	32.2266	78.0162	32.2266	78.5896	32.2266	77.7664	32.2266	78.8928	32.2266	77.5507	32.2266	79.19	32.2266	77.3738	32.2266	79.4669	32.2266	77.238	32.2266	79.7091	32.2266	77.1446	32.2266	79.9041	32.2266	77.0934	32.2266	80.042	32.2266	77.0834	32.2266	80.1171	32.2266	77.1129	32.2266	80.1283	32.2266	77.1797	32.2266	80.0793	32.2266	77.2811	32.2266	79.9783	32.2266	77.4138	32.2266	79.8358	32.2266	77.5738	32.2266	79.6632	32.2266	77.7567	32.2266	79.4705	32.2266	77.9572	32.2266	79.2653	32.2266	78.17	32.2266	79.0521	32.2266	78.3898	32.2266	78.8338	32.2266	78.6122
33.6914	81.3259	33.6914	81.0098	33.6914	81.6521	33.6914	80.715	33.6914	81.9753	33.6914	80.4502	33.6914	82.2812	33.6914	80.2218	33.6914	82.5551	33.6914	80.0335	33.6914	82.7833	33.6914	79.8872	33.6914	82.9541	33.6914	79.7832	33.6914	83.0584	33.6914	79.7209	33.6914	83.0907	33.6914	79.6987	33.6914	83.0503	33.6914	79.7148	33.6914	82.9409	33.6914	79.767	33.6914	82.7711	33.6914	79.8532	33.6914	82.5529	33.6914	79.9709	33.6914	82.3004	33.6914	80.1176	33.6914	82.0279	33.6914	80.291	33.6914	81.7478	33.6914	80.4885	33.6914	81.47	33.6914	80.7076	33.6914	81.2012	33.6914	80.946
35.1562	84.5948	35.1562	84.3328	35.1562	84.8637	35.1562	84.0858	35.1562	85.13	35.1562	83.8603	35.1562	85.3832	35.1562	83.6611	35.1562	85.612	35.1562	83.4917	35.1562	85.8053	35.1562	83.3544	35.1562	85.9529	35.1562	83.2505	35.1562	86.0463	35.1562	83.1805	35.1562	86.0803	35.1562	83.1443	35.1562	86.0529	35.1562	83.1414	35.1562	85.9663	35.1562	83.1712	35.1562	85.8268	35.1562	83.2329	35.1562	85.6433	35.1562	83.3253	35.1562	85.4264	35.1562	83.4474	35.1562	85.1872	35.1562	83.5976	35.1562	84.9361	35.1562	83.7741	35.1562	84.6822	35.1562	83.9745	35.1562	84.4332	35.1562	84.1956
36.6211	87.5867	36.6211	87.3392	36.6211	87.8378	36.6211	87.1029	36.6211	88.0838	36.6211	86.8838	36.6211	88.3149	36.6211	86.6867	36.6211	88.5206	36.6211	86.5151	36.6211	88.6903	36.6211	86.3714	36.6211	88.8145	36.6211	86.2575	36.6211	88.8853	36.6211	86.1741	36.6211	88.8977	36.6211	86.1219	36.6211	88.8504	36.6211	86.1009	36.6211	88.7464	36.6211	86.1109	36.6211	88.5922	36.6211	86.1515	36.6211	88.3978	36.6211	86.2222	36.6211	88.1746	36.6211	86.3221	36.6211	87.9341	36.6211	86.4501	36.6211	87.687	36.6211	86.6048	36.6211	87.4422	36.6211	86.7843	36.6211	87.2067	36.6211	86.986
38.0859	90.4263	38.0859	90.1902	38.0859	90.6647	38.0859	89.9634	38.0859	90.8973	38.0859	89.7516	38.0859	91.1146	38.0859	89.5592	38.0859	91.3069	38.0859	89.3894	38.0859	91.4642	38.0859	89.2448	38.0859	91.5773	38.0859	89.1269	38.0859	91.6387	38.0859	89.037	38.0859	91.6437	38.0859	88.9756	38.0859	91.5911	38.0859	88.9432	38.0859	91.4834	38.0859	88.9401	38.0859	91.3273	38.0859	88.9665	38.0859	91.1318	38.0859	89.0223	38.0859	90.9081	38.0859	89.1075	38.0859	90.6676	38.0859	89.2219	38.0859	90.4209	38.0859	89.3645	38.0859	90.1773	38.0859	89.5342	38.0859	89.9446	38.0859	89.7287
39.5508	92.8651	39.5508	92.6404	39.5508	93.0918	39.5508	92.4244	39.5508	93.3127	39.5508	92.2225	39.5508	93.5192	39.5508	92.039	39.5508	93.7017	39.5508	91.8772	39.5508	93.8508	39.5508	91.7395	39.5508	93.9577	39.5508	91.6276	39.5508	94.0153	39.5508	91.5427	39.5508	94.019	39.5508	91.4852	39.5508	93.9677	39.5508	91.4555	39.5508	93.8642	39.5508	91.4536	39.5508	93.7146	39.5508	91.4794	39.5508	93.528	39.5508	91.5328	39.5508	93.3149	39.5508	91.6136	39.5508	93.0862	39.5508	91.7214	39.5508	92.8522	39.5508	91.8557	39.5508	92.6217	39.5508	92.0153	39.5508	92.4018	39.5508	92.1983
41.0156	94.7064	41.0156	94.4861	41.0156	94.9274	41.0156	94.273	41.0156	95.1415	41.0156	94.0727	41.0156	95.3402	41.0156	93.8898	41.0156	95.5148	41.0156	93.7278	41.0156	95.6563	41.0156	93.5895	41.0156	95.7567	41.0156	93.4769	41.0156	95.8097	41.0156	93.3913	41.0156	95.8114	41.0156	93.3337	41.0156	95.761	41.0156	93.3044	41.0156	95.6614	41.0156	93.3035	41.0156	95.5183	41.0156	93.331	41.0156	95.3402	41.0156	93.3865	41.0156	95.1368	41.0156	93.4695	41.0156	94.918	41.0156	93.5793	41.0156	94.693	41.0156	93.7149	41.0156	94.47	41.0156	93.8745	41.0156	94.2558	41.0156	94.0558
42.4805	96.2794	42.4805	96.0639	42.4805	96.4952	42.4805	95.8552	42.4805	96.7039	42.4805	95.6587	42.4805	96.8972	42.4805	95.479	42.4805	97.0665	42.4805	95.3197	42.4805	97.203	42.4805	95.1836	42.4805	97.2991	42.4805	95.0728	42.4805	97.3486	42.4805	94.9888	42.4805	97.348	42.4805	94.9326	42.4805	97.2968	42.4805	94.9047	42.4805	97.1982	42.4805	94.9052	42.4805	97.0583	42.4805	94.9339	42.4805	96.8854	42.4805	94.9904	42.4805	96.6891	42.4805	95.0738	42.4805	96.4788	42.4805	95.1831	42.4805	96.263	42.4805	95.3169	42.4805	96.049	42.4805	95.4733	42.4805	95.8429	42.4805	95.6497
43.9453	97.3709	43.9453	97.1634	43.9453	97.5773	43.9453	96.9612	43.9453	97.7755	43.9453	96.7694	43.9453	97.9576	43.9453	96.5928	43.9453	98.1154	43.9453	96.4348	43.9453	98.2409	43.9453	96.2986	43.9453	98.3267	43.9453	96.1863	43.9453	98.3673	43.9453	96.0997	43.9453	98.3594	43.9453	96.0398	43.9453	98.3029	43.9453	96.0072	43.9453	98.201	43.9453	96.0022	43.9453	98.06	43.9453	96.0246	43.9453	97.888	43.9453	96.0741	43.9453	97.6945	43.9453	96.1498	43.9453	97.4887	43.9453	96.2508	43.9453	97.279	43.9453	96.3758	43.9453	97.0724	43.9453	96.523	43.9453	96.8746	43.9453	96.6903
45.4102	98.0249	45.4102	97.8234	45.4102	98.2241	45.4102	97.6256	45.4102	98.4141	45.4102	97.4369	45.4102	98.5873	45.4102	97.2619	45.4102	98.7359	45.4102	97.1043	45.4102	98.8523	45.4102	96.9672	45.4102	98.9295	45.4102	96.8531	45.4102	98.9623	45.4102	96.7637	45.4102	98.9478	45.4102	96.7004	45.4102	98.8861	45.4102	96.6638	45.4102	98.7804	45.4102	96.6542	45.4102	98.6371	45.4102	96.6715	45.4102	98.4645	45.4102	96.7151	45.4102	98.272	45.4102	96.7844	45.4102	98.0687	45.4102	96.8784	45.4102	97.8631	45.4102	96.9957	45.4102	97.662	45.4102	97.135	45.4102	97.471	45.4102	97.2942
46.875	98.4785	46.875	98.2804	46.875	98.6731	46.875	98.085	46.875	98.8576	46.875	97.8975	46.875	99.0246	46.875	97.7226	46.875	99.1666	46.875	97.564	46.875	99.2763	46.875	97.4251	46.875	99.3472	46.875	97.3082	46.875	99.3744	46.875	97.2152	46.875	99.3552	46.875	97.1476	46.875	99.29	46.875	97.1061	46.875	99.182	46.875	97.091	46.875	99.0371	46.875	97.1023	46.875	98.8636	46.875	97.1397	46.875	98.6704	46.875	97.2028	46.875	98.4666	46.875	97.2908	46.875	98.2605	46.875	97.4029	46.875	98.0594	46.875	97.5379	46.875	97.8691	46.875	97.6941
48.3398	98.7348	48.3398	98.5418	48.3398	98.924	48.3398	98.3513	48.3398	99.1029	48.3398	98.1684	48.3398	99.2642	48.3398	97.9977	48.3398	99.4005	48.3398	97.8432	48.3398	99.5049	48.3398	97.7079	48.3398	99.571	48.3398	97.5943	48.3398	99.5944	48.3398	97.5042	48.3398	99.5728	48.3398	97.4388	48.3398	99.5067	48.3398	97.3987	48.3398	99.3995	48.3398	97.3843	48.3398	99.2573	48.3398	97.3953	48.3398	99.088	48.3398	97.4313	48.3398	98.9006	48.3398	97.4919	48.3398	98.7037	48.3398	97.5763	48.3398	98.5052	48.3398	97.6836	48.3398	98.312	48.3398	97.8127	48.3398	98.1296	48.3398	97.9621
51.2695	98.8495	51.2695	98.6614	51.2695	99.0319	51.2695	98.4737	51.2695	99.2021	51.2695	98.2919	51.2695	99.3533	51.2695	98.1208	51.2695	99.4787	51.2695	97.9646	51.2695	99.5719	51.2695	97.8269	51.2695	99.6274	51.2695	97.7104	51.2695	99.6414	51.2695	97.6174	51.2695	99.6123	51.2695	97.5492	51.2695	99.5409	51.2695	97.5067	51.2695	99.431	51.2695	97.49	51.2695	99.2887	51.2695	97.4989	51.2695	99.1217	51.2695	97.5326	51.2695	98.9386	51.2695	97.5903	51.2695	98.7477	51.2695	97.6709	51.2695	98.5566	51.2695	97.7733	51.2695	98.3716	51.2695	97.8962	51.2695	98.1976	51.2695	98.0383
52.7344	98.7873	52.7344	98.6056	52.7344	98.9628	52.7344	98.4236	52.7344	99.126	52.7344	98.2468	52.7344	99.2701	52.7344	98.0799	52.7344	99.3888	52.7344	97.9272	52.7344	99.476	52.7344	97.7922	52.7344	99.5265	52.7344	97.6776	52.7344	99.5368	52.7344	97.5857	52.7344	99.5056	52.7344	97.518	52.7344	99.4339	52.7344	97.4751	52.7344	99.3254	52.7344	97.4574	52.7344	99.1861	52.7344	97.4645	52.7344	99.0236	52.7344	97.4958	52.7344	98.846	52.7344	97.5503	52.7344	98.6614	52.7344	97.627	52.7344	98.477	52.7344	97.7248	52.7344	98.2988	52.7344	97.8424	52.7344	98.1315	52.7344	97.9785
54.1992	98.7273	54.1992	98.5482	54.1992	98.8996	54.1992	98.3685	54.1992	99.0591	54.1992	98.1935	54.1992	99.1993	54.1992	98.0283	54.1992	99.3138	54.1992	97.8771	54.1992	99.397	54.1992	97.7436	54.1992	99.4441	54.1992	97.6308	54.1992	99.4519	54.1992	97.5408	54.1992	99.4193	54.1992	97.4751	54.1992	99.3478	54.1992	97.4344	54.1992	99.2412	54.1992	97.4188	54.1992	99.1053	54.1992	97.4279	54.1992	98.9476	54.1992	97.4607	54.1992	98.7759	54.1992	97.5161	54.1992	98.5977	54.1992	97.5928	54.1992	98.4198	54.1992	97.6895	54.1992	98.2478	54.1992	97.8049	54.1992	98.086	54.1992	97.9376
55.6641	98.7005	55.6641	98.5254	55.6641	98.8687	55.6641	98.3493	55.6641	99.0238	55.6641	98.1778	55.6641	99.1594	55.6641	98.0158	55.6641	99.2696	55.6641	97.8677	55.6641	99.3488	55.6641	97.7371	55.6641	99.3926	55.6641	97.6271	55.6641	99.3982	55.6641	97.5397	55.6641	99.3646	55.6641	97.4763	55.6641	99.2936	55.6641	97.4376	55.6641	99.189	55.6641	97.4236	55.6641	99.0567	55.6641	97.4335	55.6641	98.9039	55.6641	97.4665	55.6641	98.738	55.6641	97.5213	55.6641	98.5663	55.6641	97.5964	55.6641	98.395	55.6641	97.6906	55.6641	98.2295	55.6641	97.8024	55.6641	98.0737	55.6641	97.9307
58.5938	98.5208	58.5938	98.349	58.5938	98.6843	58.5938	98.175	58.5938	98.8335	58.5938	98.0046	58.5938	98.9621	58.5938	97.8428	58.5938	99.0643	58.5938	97.6942	58.5938	99.1348	58.5938	97.5627	58.5938	99.1698	58.5938	97.4514	58.5938	99.1668	58.5938	97.3626	58.5938	99.1258	58.5938	97.2978	58.5938	99.0487	58.5938	97.2577	58.5938	98.9401	58.5938	97.2421	58.5938	98.8062	58.5938	97.2503	58.5938	98.6542	58.5938	97.281	58.5938	98.4916	58.5938	97.3329	58.5938	98.3252	58.5938	97.4043	58.5938	98.1609	58.5938	97.4935	58.5938	98.0033	58.5938	97.5994	58.5938	97.8557	58.5938	97.7205
60.0586	98.4439	60.0586	98.2722	60.0586	98.6067	60.0586	98.0974	60.0586	98.7543	60.0586	97.9255	60.0586	98.8808	60.0586	97.7616	60.0586	98.9805	60.0586	97.6104	60.0586	99.0483	60.0586	97.4762	60.0586	99.0807	60.0586	97.3622	60.0586	99.0754	60.0586	97.2708	60.0586	99.0324	60.0586	97.2037	60.0586	98.9538	60.0586	97.1616	60.0586	98.8443	60.0586	97.1445	60.0586	98.7098	60.0586	97.1516	60.0586	98.5575	60.0586	97.1817	60.0586	98.3947	60.0586	97.2333	60.0586	98.2281	60.0586	97.3046	60.0586	98.0635	60.0586	97.394	60.0586	97.9055	60.0586	97.5002	60.0586	97.7574	60.0586	97.6217
62.9883	98.2975	62.9883	98.1282	62.9883	98.4566	62.9883	97.955	62.9883	98.5996	62.9883	97.7836	62.9883	98.7205	62.9883	97.6196	62.9883	98.8138	62.9883	97.4679	62.9883	98.875	62.9883	97.3326	62.9883	98.9006	62.9883	97.2174	62.9883	98.889	62.9883	97.1248	62.9883	98.8407	62.9883	97.0565	62.9883	98.7583	62.9883	97.0133	62.9883	98.6466	62.9883	96.9952	62.9883	98.5118	62.9883	97.0012	62.9883	98.3612	62.9883	97.03	62.9883	98.2016	62.9883	97.0799	62.9883	98.0395	62.9883	97.1489	62.9883	97.8802	62.9883	97.2355	62.9883	97.7278	62.9883	97.3379	62.9883	97.5854	62.9883	97.4549
64.4531	98.2448	64.4531	98.0756	64.4531	98.4033	64.4531	97.9017	64.4531	98.5448	64.4531	97.7291	64.4531	98.6636	64.4531	97.5631	64.4531	98.7542	64.4531	97.409	64.4531	98.8122	64.4531	97.2711	64.4531	98.8344	64.4531	97.1529	64.4531	98.8192	64.4531	97.0573	64.4531	98.7673	64.4531	96.986	64.4531	98.6816	64.4531	96.9399	64.4531	98.5667	64.4531	96.919	64.4531	98.4292	64.4531	96.9224	64.4531	98.2761	64.4531	96.9489	64.4531	98.1145	64.4531	96.9966	64.4531	97.9509	64.4531	97.0638	64.4531	97.7907	64.4531	97.1486	64.4531	97.6379	64.4531	97.2497	64.4531	97.4956	64.4531	97.3657
67.3828	98.2396	67.3828	98.0712	67.3828	98.3962	67.3828	97.8969	67.3828	98.5349	67.3828	97.7226	67.3828	98.65	67.3828	97.554	67.3828	98.7363	67.3828	97.3961	67.3828	98.7898	67.3828	97.2534	67.3828	98.8075	67.3828	97.1297	67.3828	98.7882	67.3828	97.0278	67.3828	98.7327	67.3828	96.9498	67.3828	98.6439	67.3828	96.8966	67.3828	98.5262	67.3828	96.8685	67.3828	98.3858	67.3828	96.865	67.3828	98.2292	67.3828	96.885	67.3828	98.0634	67.3828	96.9271	67.3828	97.8946	67.3828	96.99	67.3828	97.7286	67.3828	97.0722	67.3828	97.5702	67.3828	97.1725	67.3828	97.4231	67.3828	97.2899
68.8477	98.2595	68.8477	98.0922	68.8477	98.4145	68.8477	97.9186	68.8477	98.5513	68.8477	97.7448	68.8477	98.6644	68.8477	97.5765	68.8477	98.7489	68.8477	97.4189	68.8477	98.801	68.8477	97.2768	68.8477	98.8184	68.8477	97.1538	68.8477	98.8	68.8477	97.0532	68.8477	98.747	68.8477	96.9768	68.8477	98.6623	68.8477	96.9259	68.8477	98.5504	68.8477	96.9005	68.8477	98.4169	68.8477	96.9002	68.8477	98.2678	68.8477	96.9238	68.8477	98.109	68.8477	96.9698	68.8477	97.9463	68.8477	97.0367	68.8477	97.7847	68.8477	97.1229	68.8477	97.6286	68.8477	97.2269	68.8477	97.4818	68.8477	97.3471
71.7773	98.2992	71.7773	98.1386	71.7773	98.4473	71.7773	97.9715	71.7773	98.577	71.7773	97.8039	71.7773	98.6831	71.7773	97.6417	71.7773	98.761	71.7773	97.49	71.7773	98.8072	71.7773	97.3537	71.7773	98.8196	71.7773	97.2365	71.7773	98.7979	71.7773	97.1414	71.7773	98.7439	71.7773	97.0704	71.7773	98.6608	71.7773	97.0245	71.7773	98.5536	71.7773	97.0036	71.7773	98.4278	71.7773	97.007	71.7773	98.2893	71.7773	97.0333	71.7773	98.1433	71.7773	97.0806	71.7773	97.9944	71.7773	97.1472	71.7773	97.8468	71.7773	97.2309	71.7773	97.7038	71.7773	97.3302	71.7773	97.5686	71.7773	97.4434
74.707	98.3099	74.707	98.1504	74.707	98.4562	74.707	97.9839	74.707	98.5833	74.707	97.8166	74.707	98.6858	74.707	97.6547	74.707	98.7591	74.707	97.5036	74.707	98.8	74.707	97.3684	74.707	98.8067	74.707	97.2531	74.707	98.7792	74.707	97.1609	74.707	98.7196	74.707	97.0936	74.707	98.6318	74.707	97.0521	74.707	98.5213	74.707	97.0361	74.707	98.3943	74.707	97.0441	74.707	98.2572	74.707	97.0743	74.707	98.1157	74.707	97.1241	74.707	97.9746	74.707	97.1908	74.707	97.8375	74.707	97.2719	74.707	97.7067	74.707	97.3654	74.707	97.5838	74.707	97.4698
77.6367	98.321	77.6367	98.1596	77.6367	98.4685	77.6367	97.9907	77.6367	98.5959	77.6367	97.8208	77.6367	98.698	77.6367	97.6563	77.6367	98.7703	77.6367	97.5031	77.6367	98.8099	77.6367	97.3665	77.6367	98.8153	77.6367	97.2509	77.6367	98.7872	77.6367	97.1597	77.6367	98.728	77.6367	97.0948	77.6367	98.6418	77.6367	97.0571	77.6367	98.5344	77.6367	97.046	77.6367	98.4119	77.6367	97.06	77.6367	98.2804	77.6367	97.0966	77.6367	98.1449	77.6367	97.1528	77.6367	98.0097	77.6367	97.2255	77.6367	97.8776	77.6367	97.3118	77.6367	97.7505	77.6367	97.4091	77.6367	97.6295	77.6367	97.5154
79.1016	98.3531	79.1016	98.1909	79.1016	98.5006	79.1016	98.0205	79.1016	98.6271	79.1016	97.8485	79.1016	98.7275	79.1016	97.6816	79.1016	98.7974	79.1016	97.526	79.1016	98.8341	79.1016	97.3872	79.1016	98.8365	79.1016	97.2698	79.1016	98.8054	79.1016	97.1775	79.1016	98.7437	79.1016	97.1122	79.1016	98.6559	79.1016	97.0749	79.1016	98.5478	79.1016	97.065	79.1016	98.4256	79.1016	97.0807	79.1016	98.2955	79.1016	97.1194	79.1016	98.1623	79.1016	97.1778	79.1016	98.0298	79.1016	97.2525	79.1016	97.9005	79.1016	97.3401	79.1016	97.776	79.1016	97.438	79.1016	97.657	79.1016	97.5441
82.0312	98.4969	82.0312	98.3352	82.0312	98.642	82.0312	98.1633	82.0312	98.7644	82.0312	97.988	82.0312	98.859	82.0312	97.8159	82.0312	98.9216	82.0312	97.6533	82.0312	98.9498	82.0312	97.5061	82.0312	98.9427	82.0312	97.3791	82.0312	98.9016	82.0312	97.2763	82.0312	98.8297	82.0312	97.2004	82.0312	98.7317	82.0312	97.1526	82.0312	98.6139	82.0312	97.1328	82.0312	98.4828	82.0312	97.1396	82.0312	98.3446	82.0312	97.1705	82.0312	98.2046	82.0312	97.2224	82.0312	98.0666	82.0312	97.2917	82.0312	97.9335	82.0312	97.3753	82.0312	97.8066	82.0312	97.4702	82.0312	97.6868	82.0312	97.5745
84.9609	98.6124	84.9609	98.4498	84.9609	98.757	84.9609	98.276	84.9609	98.8776	84.9609	98.0976	84.9609	98.9692	84.9609	97.9217	84.9609	99.0279	84.9609	97.7547	84.9609	99.0515	84.9609	97.6027	84.9609	99.0394	84.9609	97.4707	84.9609	98.993	84.9609	97.3626	84.9609	98.9157	84.9609	97.2812	84.9609	98.8123	84.9609	97.2277	84.9609	98.689	84.9609	97.2019	84.9609	98.5522	84.9609	97.2026	84.9609	98.4081	84.9609	97.2274	84.9609	98.2621	84.9609	97.2734	84.9609	98.1183	84.9609	97.3377	84.9609	97.9799	84.9609	97.4172	84.9609	97.8489	84.9609	97.5096	84.9609	97.7263	84.9609	97.613
87.8906	98.6139	87.8906	98.4528	87.8906	98.7585	87.8906	98.2817	87.8906	98.8805	87.8906	98.1075	87.8906	98.975	87.8906	97.9371	87.8906	99.0382	87.8906	97.7772	87.8906	99.068	87.8906	97.6334	87.8906	99.0641	87.8906	97.5109	87.8906	99.0278	87.8906	97.4134	87.8906	98.9621	87.8906	97.343	87.8906	98.8716	87.8906	97.3006	87.8906	98.7614	87.8906	97.2857	87.8906	98.637	87.8906	97.2964	87.8906	98.504	87.8906	97.3299	87.8906	98.3668	87.8906	97.3832	87.8906	98.2298	87.8906	97.4528	87.8906	98.096	87.8906	97.5359	87.8906	97.9679	87.8906	97.6302	87.8906	97.847	87.8906	97.7342
90.8203	98.7336	90.8203	98.5717	90.8203	98.8791	90.8203	98.3997	90.8203	99.0021	90.8203	98.2247	90.8203	99.098	90.8203	98.0536	90.8203	99.1632	90.8203	97.8932	90.8203	99.196	90.8203	97.7499	90.8203	99.1962	90.8203	97.6291	90.8203	99.1656	90.8203	97.5348	90.8203	99.1076	90.8203	97.4697	90.8203	99.0267	90.8203	97.4347	90.8203	98.9281	90.8203	97.429	90.8203	98.8165	90.8203	97.4505	90.8203	98.6965	90.8203	97.496	90.8203	98.5714	90.8203	97.5616	90.8203	98.4442	90.8203	97.6434	90.8203	98.317	90.8203	97.7378	90.8203	98.1919	90.8203	97.8418	90.8203	98.0701	90.8203	97.953
95.2148	98.9249	95.2148	98.7643	95.2148	99.0659	95.2148	98.5903	95.2148	99.1816	95.2148	98.4102	95.2148	99.268	95.2148	98.2317	95.2148	99.3229	95.2148	98.0623	95.2148	99.3456	95.2148	97.9095	95.2148	99.3376	95.2148	97.7796	95.2148	99.3021	95.2148	97.6777	95.2148	99.2436	95.2148	97.6074	95.2148	99.167	95.2148	97.5701	95.2148	99.0774	95.2148	97.5654	95.2148	98.9782	95.2148	97.591	95.2148	98.8719	95.2148	97.6431	95.2148	98.7596	95.2148	97.7175	95.2148	98.6423	95.2148	97.8092	95.2148	98.5207	95.2148	97.914	95.2148	98.3966	95.2148	98.028	95.2148	98.2717	95.2148	98.1481
98.1445	99.1016	98.1445	98.9497	98.1445	99.2309	98.1445	98.7815	98.1445	99.3325	98.1445	98.6041	98.1445	99.4026	98.1445	98.4251	98.1445	99.4394	98.1445	98.2521	98.1445	99.4433	98.1445	98.0927	98.1445	99.4167	98.1445	97.9538	98.1445	99.3642	98.1445	97.8411	98.1445	99.2919	98.1445	97.7589	98.1445	99.2064	98.1445	97.7098	98.1445	99.1139	98.1445	97.6943	98.1445	99.0183	98.1445	97.7111	98.1445	98.9215	98.1445	97.7571	98.1445	98.8228	98.1445	97.8281	98.1445	98.7206	98.1445	97.9191	98.1445	98.6132	98.1445	98.025	98.1445	98.5	98.1445	98.1404	98.1445	98.3817	98.1445	98.2607
101.074	99.175	101.074	99.0185	101.074	99.3066	101.074	98.8439	101.074	99.4079	101.074	98.6586	101.074	99.4748	101.074	98.4704	101.074	99.5052	101.074	98.2873	101.074	99.4995	101.074	98.1172	101.074	99.4604	101.074	97.9671	101.074	99.3931	101.074	97.8433	101.074	99.3047	101.074	97.7505	101.074	99.2032	101.074	97.6918	101.074	99.0963	101.074	97.6683	101.074	98.9896	101.074	97.6793	101.074	98.8857	101.074	97.722	101.074	98.7845	101.074	97.7924	101.074	98.6834	101.074	97.8848	101.074	98.5793	101.074	97.9934	101.074	98.4697	101.074	98.1116	101.074	98.354	101.074	98.2335
105.469	99.2044	105.469	99.0389	105.469	99.344	105.469	98.8558	105.469	99.4511	105.469	98.6645	105.469	99.5211	105.469	98.4751	105.469	99.552	105.469	98.297	105.469	99.5444	105.469	98.1389	105.469	99.5016	105.469	98.0074	105.469	99.4289	105.469	97.9072	105.469	99.3336	105.469	97.8404	105.469	99.224	105.469	97.8067	105.469	99.108	105.469	97.8039	105.469	98.9923	105.469	97.8284	105.469	98.8811	105.469	97.8758	105.469	98.776	105.469	97.9413	105.469	98.6766	105.469	98.0203	105.469	98.581	105.469	98.1084	105.469	98.4868	105.469	98.2017	105.469	98.3924	105.469	98.2971
108.398	99.2386	108.398	99.076	108.398	99.3753	108.398	98.8954	108.398	99.4796	108.398	98.7062	108.398	99.5474	108.398	98.5185	108.398	99.5771	108.398	98.3426	108.398	99.5695	108.398	98.1877	108.398	99.5278	108.398	98.0618	108.398	99.4579	108.398	97.9702	108.398	99.3672	108.398	97.9155	108.398	99.2639	108.398	97.8972	108.398	99.1558	108.398	97.9121	108.398	99.0494	108.398	97.9547	108.398	98.9488	108.398	98.0186	108.398	98.8554	108.398	98.0969	108.398	98.7689	108.398	98.1834	108.398	98.6873	108.398	98.2728	108.398	98.6081	108.398	98.3612	108.398	98.5286	108.398	98.4466
112.793	99.49	112.793	99.332	112.793	99.6234	112.793	99.1569	112.793	99.7262	112.793	98.9735	112.793	99.7942	112.793	98.791	112.793	99.8254	112.793	98.6193	112.793	99.8203	112.793	98.4674	112.793	99.782	112.793	98.3434	112.793	99.7163	112.793	98.2534	112.793	99.6309	112.793	98.2006	112.793	99.5348	112.793	98.1852	112.793	99.436	112.793	98.2046	112.793	99.3409	112.793	98.2535	112.793	99.2524	112.793	98.3248	112.793	99.1708	112.793	98.4111	112.793	99.0942	112.793	98.5053	112.793	99.0198	112.793	98.6013	112.793	98.9447	112.793	98.6948	112.793	98.8665	112.793	98.7835
117.188	99.62	117.188	99.4645	117.188	99.7471	117.188	99.2885	117.188	99.8398	117.188	99.1013	117.188	99.8942	117.188	98.9132	117.188	99.909	117.188	98.735	117.188	99.8858	117.188	98.5773	117.188	99.8293	117.188	98.4494	117.188	99.7472	117.188	98.3585	117.188	99.6496	117.188	98.3085	117.188	99.5474	117.188	98.2998	117.188	99.4502	117.188	98.3288	117.188	99.3648	117.188	98.389	117.188	99.2935	117.188	98.4721	117.188	99.2345	117.188	98.569	117.188	99.183	117.188	98.671	117.188	99.1333	117.188	98.7712	117.188	99.0799	117.188	98.8642	117.188	99.0187	117.188	98.9471
120.117	99.717	120.117	99.5504	120.117	99.8484	120.117	99.357	120.117	99.9381	120.117	99.1471	120.117	99.9821	120.117	98.9318	120.117	99.9789	120.117	98.7233	120.117	99.9306	120.117	98.5339	120.117	99.8428	120.117	98.3752	120.117	99.725	120.117	98.2567	120.117	99.5898	120.117	98.185	120.117	99.4517	120.117	98.162	120.117	99.3247	120.117	98.1856	120.117	99.2194	120.117	98.2489	120.117	99.1407	120.117	98.3422	120.117	99.0866	120.117	98.4538	120.117	99.0496	120.117	98.5722	120.117	99.0193	120.117	98.6866	120.117	98.9851	120.117	98.7889	120.117	98.9383	120.117	98.8734
124.512	99.9739	124.512	99.7895	124.512	100.121	124.512	99.5761	124.512	100.224	124.512	99.3431	124.512	100.279	124.512	99.1011	124.512	100.284	124.512	98.8613	124.512	100.238	124.512	98.6352	124.512	100.147	124.512	98.4339	124.512	100.015	124.512	98.2675	124.512	99.8534	124.512	98.1439	124.512	99.6731	124.512	98.0677	124.512	99.488	124.512	98.0398	124.512	99.3113	124.512	98.0567	124.512	99.1538	124.512	98.1112	124.512	99.0213	124.512	98.1934	124.512	98.9137	124.512	98.292	124.512	98.8257	124.512	98.3962	124.512	98.7483	124.512	98.4972	124.512	98.672	124.512	98.5894
128.906	100.026	128.906	99.8555	128.906	100.16	128.906	99.6569	128.906	100.253	128.906	99.4389	128.906	100.303	128.906	99.212	128.906	100.309	128.906	98.9872	128.906	100.274	128.906	98.7755	128.906	100.201	128.906	98.587	128.906	100.096	128.906	98.43	128.906	99.9679	128.906	98.3109	128.906	99.8233	128.906	98.2329	128.906	99.6708	128.906	98.1966	128.906	99.5177	128.906	98.1993	128.906	99.3703	128.906	98.236	128.906	99.2324	128.906	98.2999	128.906	99.1059	128.906	98.3829	128.906	98.9901	128.906	98.4774	128.906	98.8825	128.906	98.5773	128.906	98.7797	128.906	98.6784
133.301	99.7849	133.301	99.6124	133.301	99.9215	133.301	99.4121	133.301	100.017	133.301	99.1947	133.301	100.067	133.301	98.9722	133.301	100.074	133.301	98.7575	133.301	100.04	133.301	98.5631	133.301	99.9705	133.301	98.3997	133.301	99.874	133.301	98.275	133.301	99.76	133.301	98.1931	133.301	99.6385	133.301	98.1542	133.301	99.5181	133.301	98.1551	133.301	99.4046	133.301	98.1902	133.301	99.3006	133.301	98.2525	133.301	99.2055	133.301	98.3348	133.301	99.1159	133.301	98.4304	133.301	99.0279	133.301	98.5333	133.301	98.9376	133.301	98.6387	133.301	98.8427	133.301	98.7427
139.16	99.5257	139.16	99.3214	139.16	99.6848	139.16	99.0809	139.16	99.7925	139.16	98.8163	139.16	99.8458	139.16	98.5424	139.16	99.8447	139.16	98.2764	139.16	99.7928	139.16	98.0364	139.16	99.6977	139.16	97.8398	139.16	99.5704	139.16	97.7003	139.16	99.4253	139.16	97.6258	139.16	99.2779	139.16	97.6167	139.16	99.1423	139.16	97.666	139.16	99.0284	139.16	97.7615	139.16	98.9395	139.16	97.8882	139.16	98.8724	139.16	98.0312	139.16	98.819	139.16	98.1778	139.16	98.7689	139.16	98.3177	139.16	98.7123	139.16	98.4441	139.16	98.6416	139.16	98.5526
143.555	99.6801	143.555	99.4647	143.555	99.8472	143.555	99.209	143.555	99.9602	143.555	98.9231	143.555	100.016	143.555	98.6196	143.555	100.013	143.555	98.3139	143.555	99.9548	143.555	98.0236	143.555	99.8465	143.555	97.7676	143.555	99.6981	143.555	97.5646	143.555	99.5229	143.555	97.4296	143.555	99.3371	143.555	97.3709	143.555	99.1574	143.555	97.3876	143.555	98.9983	143.555	97.4702	143.555	98.8688	143.555	97.6023	143.555	98.77	143.555	97.7643	143.555	98.6951	143.555	97.9374	143.555	98.632	143.555	98.1055	143.555	98.5667	143.555	98.2569	143.555	98.487	143.555	98.3847
147.949	99.8267	147.949	99.6195	147.949	99.9892	147.949	99.375	147.949	100.101	147.949	99.1026	147.949	100.158	147.949	98.813	147.949	100.16	147.949	98.5187	147.949	100.108	147.949	98.2342	147.949	100.006	147.949	97.9753	147.949	99.8624	147.949	97.7585	147.949	99.6884	147.949	97.5986	147.949	99.4971	147.949	97.506	147.949	99.3028	147.949	97.4844	147.949	99.1197	147.949	97.5294	147.949	98.959	147.949	97.6291	147.949	98.8267	147.949	97.7665	147.949	98.7213	147.949	97.9231	147.949	98.6342	147.949	98.0819	147.949	98.5528	147.949	98.2294	147.949	98.4638	147.949	98.3574
153.809	99.8182	153.809	99.6412	153.809	99.9483	153.809	99.4238	153.809	100.027	153.809	99.1746	153.809	100.054	153.809	98.9035	153.809	100.031	153.809	98.6223	153.809	99.9617	153.809	98.3437	153.809	99.8544	153.809	98.0821	153.809	99.7173	153.809	97.8526	153.809	99.5599	153.809	97.6701	153.809	99.3914	153.809	97.5472	153.809	99.2209	153.809	97.4917	153.809	99.0573	153.809	97.5042	153.809	98.9084	153.809	97.5774	153.809	98.7794	153.809	97.697	153.809	98.6711	153.809	97.8448	153.809	98.5783	153.809	98.0018	153.809	98.4906	153.809	98.1518	153.809	98.3959	153.809	98.2843
159.668	99.8778	159.668	99.7197	159.668	99.9925	159.668	99.5254	159.668	100.06	159.668	99.3042	159.668	100.079	159.668	99.0672	159.668	100.053	159.668	98.8254	159.668	99.989	159.668	98.59	159.668	99.8968	159.668	98.3712	159.668	99.7874	159.668	98.1785	159.668	99.6716	159.668	98.0204	159.668	99.5575	159.668	97.9044	159.668	99.4487	159.668	97.8365	159.668	99.3446	159.668	97.8196	159.668	99.2412	159.668	97.8526	159.668	99.1341	159.668	97.93	159.668	99.0197	159.668	98.0424	159.668	98.8964	159.668	98.1781	159.668	98.764	159.668	98.3257	159.668	98.6235	159.668	98.4762
165.527	99.7435	165.527	99.5429	165.527	99.8876	165.527	99.2965	165.527	99.9695	165.527	99.019	165.527	99.9883	165.527	98.7291	165.527	99.9479	165.527	98.4475	165.527	99.8573	165.527	98.1954	165.527	99.73	165.527	97.9911	165.527	99.5825	165.527	97.8479	165.527	99.4329	165.527	97.7719	165.527	99.2976	165.527	97.7619	165.527	99.1889	165.527	97.8103	165.527	99.1125	165.527	97.9056	165.527	99.0661	165.527	98.0346	165.527	99.0403	165.527	98.1842	165.527	99.0212	165.527	98.3427	165.527	98.9941	165.527	98.4993	165.527	98.9471	165.527	98.645	165.527	98.8735	165.527	98.7718
171.387	99.4249	171.387	99.2093	171.387	99.5823	171.387	98.9432	171.387	99.6783	171.387	98.638	171.387	99.7139	171.387	98.3085	171.387	99.6949	171.387	97.9725	171.387	99.6307	171.387	97.6502	171.387	99.5335	171.387	97.3628	171.387	99.4162	171.387	97.1319	171.387	99.2906	171.387	96.9761	171.387	99.1658	171.387	96.9086	171.387	99.0486	171.387	96.9335	171.387	98.9436	171.387	97.0439	171.387	98.8537	171.387	97.2228	171.387	98.7786	171.387	97.4467	171.387	98.7137	171.387	97.6897	171.387	98.649	171.387	97.9283	171.387	98.5709	171.387	98.1439	171.387	98.466	171.387	98.3247
177.246	99.3206	177.246	99.1033	177.246	99.4859	177.246	98.8454	177.246	99.5937	177.246	98.5629	177.246	99.6449	177.246	98.2758	177.246	99.6464	177.246	98.0048	177.246	99.6109	177.246	97.7691	177.246	99.5548	177.246	97.5833	177.246	99.4958	177.246	97.4553	177.246	99.4471	177.246	97.3868	177.246	99.4132	177.246	97.3739	177.246	99.3866	177.246	97.4097	177.246	99.3521	177.246	97.4863	177.246	99.2934	177.246	97.596	177.246	99.2007	177.246	97.7311	177.246	99.0737	177.246	97.8846	177.246	98.9202	177.246	98.0501	177.246	98.7511	177.246	98.2224	177.246	98.5753	177.246	98.3982
183.105	99.6908	183.105	99.4114	183.105	99.8852	183.105	99.0592	183.105	99.9865	183.105	98.6507	183.105	99.991	183.105	98.2072	183.105	99.8998	183.105	97.7552	183.105	99.7214	183.105	97.3257	183.105	99.4747	183.105	96.9531	183.105	99.193	183.105	96.6712	183.105	98.9225	183.105	96.5064	183.105	98.713	183.105	96.4709	183.105	98.5992	183.105	96.5581	183.105	98.5831	183.105	96.7454	183.105	98.6328	183.105	97.001	183.105	98.6998	183.105	97.292	183.105	98.741	183.105	97.5903	183.105	98.7303	183.105	97.875	183.105	98.6595	183.105	98.1324	183.105	98.5316	183.105	98.3536
188.965	99.3816	188.965	99.187	188.965	99.498	188.965	98.9248	188.965	99.5297	188.965	98.6079	188.965	99.4752	188.965	98.2519	188.965	99.3393	188.965	97.8745	188.965	99.1333	188.965	97.4965	188.965	98.8746	188.965	97.1413	188.965	98.5858	188.965	96.8342	188.965	98.2944	188.965	96.5988	188.965	98.0324	188.965	96.4533	188.965	97.8324	188.965	96.4059	188.965	97.7187	188.965	96.4528	188.965	97.6933	188.965	96.5792	188.965	97.7311	188.965	96.7629	188.965	97.7886	188.965	96.979	188.965	97.8233	188.965	97.2034	188.965	97.807	188.965	97.4148	188.965	97.7298	188.965	97.5953
196.289	99.0204	196.289	98.8041	196.289	99.1518	196.289	98.5107	196.289	99.1962	196.289	98.1535	196.289	99.1585	196.289	97.7513	196.289	99.0512	196.289	97.3287	196.289	98.8946	196.289	96.9173	196.289	98.7158	196.289	96.5549	196.289	98.5462	196.289	96.2812	196.289	98.4153	196.289	96.1294	196.289	98.3427	196.289	96.1158	196.289	98.3318	196.289	96.2333	196.289	98.3696	196.289	96.4543	196.289	98.4322	196.289	96.7407	196.289	98.492	196.289	97.0553	196.289	98.5243	196.289	97.3689	196.289	98.5113	196.289	97.6621	196.289	98.4437	196.289	97.9232	196.289	98.3202	196.289	98.1447
203.613	99.1967	203.613	98.9783	203.613	99.3329	203.613	98.688	203.613	99.3782	203.613	98.3368	203.613	99.326	203.613	97.9366	203.613	99.1724	203.613	97.4998	203.613	98.9197	203.613	97.0405	203.613	98.5802	203.613	96.5773	203.613	98.1814	203.613	96.1375	203.613	97.7699	203.613	95.7608	203.613	97.4091	203.613	95.4982	203.613	97.1669	203.613	95.4006	203.613	97.0904	203.613	95.4962	203.613	97.1801	203.613	95.772	203.613	97.385	203.613	96.1751	203.613	97.6255	203.613	96.634	203.613	97.8241	203.613	97.0808	203.613	97.9257	203.613	97.463	203.613	97.9014	203.613	97.744
210.938	99.2234	210.938	99.0912	210.938	99.2578	210.938	98.8759	210.938	99.1845	210.938	98.5952	210.938	99.0001	210.938	98.2694	210.938	98.7117	210.938	97.921	210.938	98.3402	210.938	97.573	210.938	97.9218	210.938	97.2467	210.938	97.5079	210.938	96.9586	210.938	97.1588	210.938	96.7192	210.938	96.9294	210.938	96.535	210.938	96.8489	210.938	96.4118	210.938	96.906	210.938	96.3576	210.938	97.054	210.938	96.3809	210.938	97.2325	210.938	96.4844	210.938	97.3885	210.938	96.6577	210.938	97.4854	210.938	96.8753	210.938	97.5043	210.938	97.1015	210.938	97.44	210.938	97.2995
218.262	99.3311	218.262	99.1521	218.262	99.4241	218.262	98.896	218.262	99.4256	218.262	98.5754	218.262	99.3324	218.262	98.2082	218.262	99.1438	218.262	97.8188	218.262	98.8632	218.262	97.4386	218.262	98.5012	218.262	97.1039	218.262	98.0814	218.262	96.8501	218.262	97.6474	218.262	96.7034	218.262	97.2677	218.262	96.6731	218.262	97.0265	218.262	96.749	218.262	96.9911	218.262	96.9079	218.262	97.1663	218.262	97.1224	218.262	97.4809	218.262	97.3679	218.262	97.8268	218.262	97.6236	218.262	98.1105	218.262	97.8705	218.262	98.2792	218.262	98.087	218.262	98.3199	218.262	98.2467
225.586	99.622	225.586	99.4098	225.586	99.7311	225.586	99.1079	225.586	99.7259	225.586	98.7317	225.586	99.5981	225.586	98.301	225.586	99.3458	225.586	97.843	225.586	98.9773	225.586	97.3948	225.586	98.5152	225.586	97.0027	225.586	98	225.586	96.7154	225.586	97.4919	225.586	96.569	225.586	97.0672	225.586	96.5737	225.586	96.8043	225.586	96.7102	225.586	96.7577	225.586	96.9408	225.586	96.929	225.586	97.2246	225.586	97.2583	225.586	97.5266	225.586	97.6485	225.586	97.8188	225.586	98.0045	225.586	98.0766	225.586	98.2612	225.586	98.2752	225.586	98.3891	225.586	98.3879
232.91	99.7164	232.91	99.5317	232.91	99.8023	232.91	99.258	232.91	99.7791	232.91	98.9044	232.91	99.6373	232.91	98.4795	232.91	99.3704	232.91	97.9953	232.91	98.9766	232.91	97.4718	232.91	98.4617	232.91	96.943	232.91	97.8471	232.91	96.4618	232.91	97.1809	232.91	96.0971	232.91	96.5513	232.91	95.9153	232.91	96.0838	232.91	95.95	232.91	95.9014	232.91	96.1812	232.91	96.0494	232.91	96.5446	232.91	96.4537	232.91	96.9624	232.91	96.9676	232.91	97.3668	232.91	97.452	232.91	97.7075	232.91	97.8165	232.91	97.9482	232.91	98.0211	232.91	98.0603
241.699	99.7497	241.699	99.5594	241.699	99.8672	241.699	99.303	241.699	99.9024	241.699	98.9852	241.699	99.8431	241.699	98.61	241.699	99.6748	241.699	98.1833	241.699	99.3823	241.699	97.7174	241.699	98.953	241.699	97.2357	241.699	98.3832	241.699	96.7759	241.699	97.687	241.699	96.3882	241.699	96.9128	241.699	96.1259	241.699	96.1637	241.699	96.0268	241.699	95.6076	241.699	96.0977	241.699	95.4199	241.699	96.3105	241.699	95.6475	241.699	96.6132	241.699	96.1499	241.699	96.9449	241.699	96.712	241.699	97.2459	241.699	97.1726	241.699	97.4617	241.699	97.4548	241.699	97.5442
250.488	100.098	250.488	99.9099	250.488	100.204	250.488	99.6474	250.488	100.22	250.488	99.3177	250.488	100.138	250.488	98.9267	250.488	99.9504	250.488	98.4798	250.488	99.6533	250.488	97.984	250.488	99.2478	250.488	97.4506	250.488	98.7424	250.488	96.8994	250.488	98.1546	250.488	96.3626	250.488	97.514	250.488	95.8861	250.488	96.8673	250.488	95.5257	250.488	96.2878	250.488	95.3336	250.488	95.875	250.488	95.3364	250.488	95.7172	250.488	95.5169	250.488	95.8221	250.488	95.814	250.488	96.0893	250.488	96.142	250.488	96.3708	250.488	96.4148	250.488	96.548	250.488	96.5633
259.277	100.034	259.277	99.7846	259.277	100.18	259.277	99.4386	259.277	100.22	259.277	99.0097	259.277	100.156	259.277	98.5194	259.277	99.9911	259.277	97.9981	259.277	99.7283	259.277	97.4849	259.277	99.3707	259.277	97.0256	259.277	98.9221	259.277	96.6651	259.277	98.3897	259.277	96.4342	259.277	97.7905	259.277	96.3361	259.277	97.165	259.277	96.346	259.277	96.5949	259.277	96.4263	259.277	96.2043	259.277	96.5456	259.277	96.1011	259.277	96.6879	259.277	96.281	259.277	96.847	259.277	96.6133	259.277	97.0101	259.277	96.9363	259.277	97.1461	259.277	97.1445	259.277	97.2069
268.066	99.8394	268.066	99.6285	268.066	99.974	268.066	99.3495	268.066	100.024	268.066	99.0086	268.066	99.9831	268.066	98.6079	268.066	99.8495	268.066	98.1474	268.066	99.626	268.066	97.6304	268.066	99.3208	268.066	97.0736	268.066	98.9475	268.066	96.5196	268.066	98.5234	268.066	96.0428	268.066	98.0665	268.066	95.7323	268.066	97.5944	268.066	95.6473	268.066	97.1309	268.066	95.7748	268.066	96.7211	268.066	96.0377	268.066	96.4354	268.066	96.3431	268.066	96.3378	268.066	96.6198	268.066	96.4278	268.066	96.825	268.066	96.6243	268.066	96.9342	268.066	96.8184	268.066	96.9322
276.855	99.755	276.855	99.604	276.855	99.8059	276.855	99.3585	276.855	99.7565	276.855	99.0277	276.855	99.6117	276.855	98.6237	276.855	99.3804	276.855	98.16	276.855	99.0731	276.855	97.6524	276.855	98.7026	276.855	97.1215	276.855	98.2871	276.855	96.5979	276.855	97.8549	276.855	96.1267	276.855	97.4473	276.855	95.7654	276.855	97.1158	276.855	95.5695	276.855	96.908	276.855	95.566	276.855	96.8466	276.855	95.7378	276.855	96.914	276.855	96.031	276.855	97.0568	276.855	96.3795	276.855	97.2084	276.855	96.7235	276.855	97.3095	276.855	97.0156	276.855	97.3199	276.855	97.2211
287.109	99.5915	287.109	99.4083	287.109	99.6654	287.109	99.1248	287.109	99.6301	287.109	98.7577	287.109	99.4916	287.109	98.327	287.109	99.2567	287.109	97.8501	287.109	98.9296	287.109	97.3391	287.109	98.5134	287.109	96.8048	287.109	98.0184	287.109	96.2669	287.109	97.472	287.109	95.7701	287.109	96.9271	287.109	95.391	287.109	96.4627	287.109	95.2199	287.109	96.1684	287.109	95.3083	287.109	96.1071	287.109	95.6262	287.109	96.2733	287.109	96.0763	287.109	96.5885	287.109	96.5489	287.109	96.9406	287.109	96.9593	287.109	97.2306	287.109	97.2543	287.109	97.3948	287.109	97.404
297.363	100.346	297.363	100.129	297.363	100.431	297.363	99.7894	297.363	100.376	297.363	99.3433	297.363	100.183	297.363	98.8069	297.363	99.859	297.363	98.1989	297.363	99.4162	297.363	97.5428	297.363	98.8714	297.363	96.8721	297.363	98.2435	297.363	96.2357	297.363	97.5584	297.363	95.7016	297.363	96.8643	297.363	95.349	297.363	96.2557	297.363	95.2425	297.363	95.8741	297.363	95.395	297.363	95.8342	297.363	95.7514	297.363	96.1141	297.363	96.2138	297.363	96.558	297.363	96.6829	297.363	96.9962	297.363	97.0834	297.363	97.3235	297.363	97.3681	297.363	97.4977	297.363	97.5107
307.617	100.143	307.617	99.9406	307.617	100.256	307.617	99.6673	307.617	100.261	307.617	99.3365	307.617	100.145	307.617	98.9525	307.617	99.9054	307.617	98.5126	307.617	99.5472	307.617	98.0119	307.617	99.0833	307.617	97.4504	307.617	98.5294	307.617	96.84	307.617	97.9013	307.617	96.2129	307.617	97.2212	307.617	95.6329	307.617	96.5446	307.617	95.2001	307.617	95.9958	307.617	95.0252	307.617	95.7483	307.617	95.1628	307.617	95.8878	307.617	95.5589	307.617	96.3005	307.617	96.0816	307.617	96.7684	307.617	96.5948	307.617	97.1233	307.617	97.0011	307.617	97.2872	307.617	97.2424
319.336	100.443	319.336	100.226	319.336	100.547	319.336	99.9116	319.336	100.525	319.336	99.5111	319.336	100.368	319.336	99.0338	319.336	100.079	319.336	98.4881	319.336	99.6761	319.336	97.8864	319.336	99.1914	319.336	97.2527	319.336	98.6582	319.336	96.6302	319.336	98.0873	319.336	96.0831	319.336	97.4559	319.336	95.6839	319.336	96.7365	319.336	95.4855	319.336	95.9818	319.336	95.4967	319.336	95.4152	319.336	95.6836	319.336	95.3385	319.336	95.9907	319.336	95.7765	319.336	96.359	319.336	96.4103	319.336	96.7291	319.336	96.9279	319.336	97.0378	319.336	97.1977	319.336	97.2167
329.59	100.166	329.59	99.9769	329.59	100.265	329.59	99.7062	329.59	100.265	329.59	99.3611	329.59	100.158	329.59	98.9471	329.59	99.9421	329.59	98.4658	329.59	99.6212	329.59	97.9159	329.59	99.2137	329.59	97.2985	329.59	98.75	329.59	96.6284	329.59	98.2608	329.59	95.9529	329.59	97.7545	329.59	95.367	329.59	97.2083	329.59	95.0013	329.59	96.602	329.59	94.957	329.59	95.9964	329.59	95.2253	329.59	95.5845	329.59	95.6884	329.59	95.5753	329.59	96.1979	329.59	95.9459	329.59	96.6349	329.59	96.4437	329.59	96.9184	329.59	96.8301	329.59	96.9936
341.309	100.615	341.309	100.367	341.309	100.743	341.309	100.017	341.309	100.736	341.309	99.5824	341.309	100.585	341.309	99.0792	341.309	100.288	341.309	98.5173	341.309	99.8534	341.309	97.9012	341.309	99.3082	341.309	97.2366	341.309	98.7064	341.309	96.5441	341.309	98.1204	341.309	95.88	341.309	97.605	341.309	95.3469	341.309	97.1578	341.309	95.0683	341.309	96.7393	341.309	95.1149	341.309	96.359	341.309	95.4485	341.309	96.1383	341.309	95.9514	341.309	96.2248	341.309	96.4969	341.309	96.5979	341.309	96.9827	341.309	97.0518	341.309	97.3297	341.309	97.3785	341.309	97.4748
353.027	100.536	353.027	100.239	353.027	100.712	353.027	99.8294	353.027	100.763	353.027	99.3248	353.027	100.693	353.027	98.7519	353.027	100.498	353.027	98.1412	353.027	100.174	353.027	97.5195	353.027	99.7191	353.027	96.9028	353.027	99.146	353.027	96.2938	353.027	98.4951	353.027	95.694	353.027	97.8335	353.027	95.1286	353.027	97.2401	353.027	94.676	353.027	96.7784	353.027	94.4668	353.027	96.4849	353.027	94.6106	353.027	96.383	353.027	95.0891	353.027	96.4812	353.027	95.7484	353.027	96.7327	353.027	96.4	353.027	97.019	353.027	96.9016	353.027	97.2002	353.027	97.1746
366.211	99.9229	366.211	99.6921	366.211	100.049	366.211	99.3617	366.211	100.072	366.211	98.9417	366.211	99.9922	366.211	98.4439	366.211	99.804	366.211	97.8752	366.211	99.4951	366.211	97.2338	366.211	99.053	366.211	96.5137	366.211	98.4809	366.211	95.7209	366.211	97.8129	366.211	94.9002	366.211	97.1139	366.211	94.1609	366.211	96.4574	366.211	93.6635	366.211	95.8959	366.211	93.5316	366.211	95.4656	366.211	93.7517	366.211	95.218	366.211	94.1918	366.211	95.2016	366.211	94.705	366.211	95.3824	366.211	95.1841	366.211	95.6259	366.211	95.5555	366.211	95.7828	366.211	95.765
379.395	100.399	379.395	100.149	379.395	100.516	379.395	99.7796	379.395	100.504	379.395	99.3179	379.395	100.37	379.395	98.7975	379.395	100.121	379.395	98.2472	379.395	99.7527	379.395	97.6807	379.395	99.2534	379.395	97.0944	379.395	98.6121	379.395	96.4765	379.395	97.8321	379.395	95.8269	379.395	96.9487	379.395	95.1819	379.395	96.0567	379.395	94.631	379.395	95.3321	379.395	94.3019	379.395	94.9847	379.395	94.2962	379.395	95.1047	379.395	94.6163	379.395	95.5623	379.395	95.1583	379.395	96.1128	379.395	95.77	379.395	96.5462	379.395	96.306	379.395	96.7404	379.395	96.6532
392.578	99.2094	392.578	98.913	392.578	99.3879	392.578	98.5289	392.578	99.4236	392.578	98.0871	392.578	99.3025	392.578	97.615	392.578	99.0287	392.578	97.1346	392.578	98.6312	392.578	96.6624	392.578	98.1597	392.578	96.2063	392.578	97.6566	392.578	95.7645	392.578	97.1165	392.578	95.331	392.578	96.4758	392.578	94.9124	392.578	95.671	392.578	94.5488	392.578	94.7638	392.578	94.3145	392.578	94.0525	392.578	94.2814	392.578	93.9124	392.578	94.4641	392.578	94.3351	392.578	94.8012	392.578	94.9463	392.578	95.1895	392.578	95.4398	392.578	95.5234	392.578	95.6991	392.578	95.7147
405.762	99.6419	405.762	99.3929	405.762	99.7373	405.762	99.0105	405.762	99.6601	405.762	98.5163	405.762	99.394	405.762	97.9335	405.762	98.9349	405.762	97.283	405.762	98.3066	405.762	96.5789	405.762	97.5735	405.762	95.8305	405.762	96.8334	405.762	95.0559	405.762	96.1696	405.762	94.3059	405.762	95.5767	405.762	93.6812	405.762	94.9454	405.762	93.3133	405.762	94.1788	405.762	93.2901	405.762	93.3838	405.762	93.5857	405.762	92.9643	405.762	94.0788	405.762	93.2667	405.762	94.6277	405.762	94.0612	405.762	95.1157	405.762	94.8567	405.762	95.4529	405.762	95.3766	405.762	95.5625
420.41	99.5566	420.41	99.4044	420.41	99.5877	420.41	99.1422	420.41	99.4967	420.41	98.786	420.41	99.2954	420.41	98.3497	420.41	99.0027	420.41	97.84	420.41	98.6323	420.41	97.2563	420.41	98.1788	420.41	96.5945	420.41	97.6165	420.41	95.8556	420.41	96.9172	420.41	95.057	420.41	96.0727	420.41	94.2474	420.41	95.1122	420.41	93.5244	420.41	94.1271	420.41	93.039	420.41	93.3243	420.41	92.9423	420.41	93.0167	420.41	93.267	420.41	93.3533	420.41	93.8713	420.41	94.077	420.41	94.5313	420.41	94.7843	420.41	95.0532	420.41	95.2226	420.41	95.3078
435.059	99.1026	435.059	98.9142	435.059	99.1453	435.059	98.58	435.059	99.0611	435.059	98.1211	435.059	98.8743	435.059	97.5742	435.059	98.5991	435.059	96.9801	435.059	98.2352	435.059	96.37	435.059	97.7809	435.059	95.757	435.059	97.2508	435.059	95.1403	435.059	96.6661	435.059	94.5252	435.059	96.024	435.059	93.9536	435.059	95.2879	435.059	93.5239	435.059	94.4387	435.059	93.3659	435.059	93.5833	435.059	93.549	435.059	93.0442	435.059	94.0046	435.059	93.1511	435.059	94.5635	435.059	93.7942	435.059	95.0538	435.059	94.5501	435.059	95.353	435.059	95.1171	435.059	95.3869
451.172	99.732	451.172	99.5197	451.172	99.7687	451.172	99.1276	451.172	99.6431	451.172	98.5663	451.172	99.3678	451.172	97.8602	451.172	98.9463	451.172	97.0422	451.172	98.3697	451.172	96.146	451.172	97.6278	451.172	95.2018	451.172	96.7318	451.172	94.2351	451.172	95.7422	451.172	93.2724	451.172	94.7689	451.172	92.3601	451.172	93.8993	451.172	91.6117	451.172	93.1033	451.172	91.267	451.172	92.3117	451.172	91.5966	451.172	91.727	451.172	92.5652	451.172	91.9107	451.172	93.7775	451.172	92.9757	451.172	94.8297	451.172	94.2638	451.172	95.4848	451.172	95.2149	451.172	95.6293
465.82	99.4825	465.82	99.2288	465.82	99.5211	465.82	98.8038	465.82	99.3347	465.82	98.2746	465.82	98.9483	465.82	97.7069	465.82	98.4128	465.82	97.1326	465.82	97.7858	465.82	96.533	465.82	97.1025	465.82	95.8581	465.82	96.3544	465.82	95.0734	465.82	95.502	465.82	94.2009	465.82	94.5314	465.82	93.3273	465.82	93.5236	465.82	92.5721	465.82	92.6776	465.82	92.0535	465.82	92.2125	465.82	91.8929	465.82	92.1776	465.82	92.1832	465.82	92.4469	465.82	92.8471	465.82	92.9149	465.82	93.6036	465.82	93.505	465.82	94.1477	465.82	94.0417	465.82	94.3003
483.398	99.7575	483.398	99.5921	483.398	99.7069	483.398	99.235	483.398	99.4423	483.398	98.7351	483.398	98.9855	483.398	98.1552	483.398	98.3697	483.398	97.5452	483.398	97.636	483.398	96.9112	483.398	96.8473	483.398	96.2055	483.398	96.1024	483.398	95.353	483.398	95.5045	483.398	94.3037	483.398	95.0677	483.398	93.1031	483.398	94.6656	483.398	91.9743	483.398	94.1354	483.398	91.3187	483.398	93.4893	483.398	91.4299	483.398	93.0493	483.398	92.1805	483.398	93.1978	483.398	93.2055	483.398	93.8601	483.398	94.1873	483.398	94.6142	483.398	94.9088	483.398	95.1264	483.398	95.2381
499.512	99.9631	499.512	99.6436	499.512	100.078	499.512	99.1279	499.512	99.9924	499.512	98.4476	499.512	99.716	499.512	97.6715	499.512	99.2645	499.512	96.9058	499.512	98.6622	499.512	96.25	499.512	97.9466	499.512	95.7189	499.512	97.1675	499.512	95.2111	499.512	96.3671	499.512	94.5698	499.512	95.5452	499.512	93.6747	499.512	94.6577	499.512	92.5285	499.512	93.7021	499.512	91.3679	499.512	92.8876	499.512	90.7246	499.512	92.6544	499.512	91.0317	499.512	93.1682	499.512	92.05	499.512	94.004	499.512	93.2233	499.512	94.6763	499.512	94.1896	499.512	94.9565	499.512	94.7888
517.09	99.6429	517.09	99.3342	517.09	99.6583	517.09	98.7787	517.09	99.3961	517.09	98.0754	517.09	98.9357	517.09	97.3534	517.09	98.3995	517.09	96.7329	517.09	97.9087	517.09	96.2743	517.09	97.5317	517.09	95.947	517.09	97.2602	517.09	95.6421	517.09	97.0179	517.09	95.2167	517.09	96.6766	517.09	94.5488	517.09	96.0691	517.09	93.6	517.09	95.0348	517.09	92.5255	517.09	93.5769	517.09	91.8336	517.09	92.2792	517.09	92.1644	517.09	92.3935	517.09	93.4122	517.09	93.8577	517.09	94.8464	517.09	95.3641	517.09	95.9372	517.09	96.2673	517.09	96.4465
536.133	99.9216	536.133	99.4517	536.133	100.033	536.133	98.6366	536.133	99.7829	536.133	97.5155	536.133	99.1826	536.133	96.187	536.133	98.2597	536.133	94.865	536.133	97.0786	536.133	93.8972	536.133	95.8005	536.133	93.5663	536.133	94.7701	536.133	93.7421	536.133	94.3867	536.133	93.9858	536.133	94.6199	536.133	93.9605	536.133	94.9655	536.133	93.5739	536.133	94.9506	536.133	92.9421	536.133	94.3651	536.133	92.3791	536.133	93.3472	536.133	92.3401	536.133	92.6319	536.133	93.0358	536.133	93.0884	536.133	94.1116	536.133	94.2546	536.133	95.0288	536.133	95.167	536.133	95.4332
555.176	99.7164	555.176	99.3259	555.176	99.7946	555.176	98.6448	555.176	99.5835	555.176	97.74	555.176	99.1262	555.176	96.7013	555.176	98.4453	555.176	95.6057	555.176	97.5212	555.176	94.5037	555.176	96.3298	555.176	93.4597	555.176	94.9235	555.176	92.6073	555.176	93.4975	555.176	92.0909	555.176	92.4009	555.176	91.8811	555.176	92.005	555.176	91.7437	555.176	92.3077	555.176	91.4628	555.176	92.7976	555.176	91.0768	555.176	92.965	555.176	90.9965	555.176	92.7489	555.176	91.6644	555.176	92.6603	555.176	92.8382	555.176	93.197	555.176	93.8504	555.176	93.955	555.176	94.2594
574.219	99.6573	574.219	99.1928	574.219	99.8522	574.219	98.4776	574.219	99.7759	574.219	97.5548	574.219	99.4297	574.219	96.4827	574.219	98.8124	574.219	95.3208	574.219	97.9383	574.219	94.1252	574.219	96.8647	574.219	92.959	574.219	95.6997	574.219	91.9045	574.219	94.5688	574.219	91.0449	574.219	93.5444	574.219	90.4211	574.219	92.6075	574.219	90.012	574.219	91.7556	574.219	89.7719	574.219	91.2257	574.219	89.7494	574.219	91.3903	574.219	90.19	574.219	92.1675	574.219	91.2676	574.219	93.1092	574.219	92.6563	574.219	93.9145	574.219	93.8112	574.219	94.4075	574.219	94.4124
594.727	99.5936	594.727	99.1555	594.727	99.6698	594.727	98.3925	594.727	99.3998	594.727	97.415	594.727	98.8246	594.727	96.3862	594.727	97.9998	594.727	95.4335	594.727	97.0016	594.727	94.5476	594.727	95.9256	594.727	93.585	594.727	94.8749	594.727	92.3922	594.727	93.9612	594.727	90.9574	594.727	93.2881	594.727	89.5517	594.727	92.8299	594.727	88.76	594.727	92.3191	594.727	88.9382	594.727	91.4549	594.727	89.6935	594.727	90.5933	594.727	90.5956	594.727	91.1628	594.727	91.6592	594.727	93.0384	594.727	92.9546	594.727	94.6094	594.727	94.2305	594.727	95.2881	594.727	95.1022
615.234	99.1676	615.234	98.5536	615.234	99.4457	615.234	97.6724	615.234	99.3721	615.234	96.6427	615.234	98.975	615.234	95.5938	615.234	98.3188	615.234	94.6087	615.234	97.4712	615.234	93.7071	615.234	96.4629	615.234	92.8742	615.234	95.3121	615.234	92.094	615.234	94.0875	615.234	91.3418	615.234	92.9497	615.234	90.5553	615.234	92.2047	615.234	89.6899	615.234	92.0996	615.234	88.935	615.234	92.2443	615.234	88.8572	615.234	91.8725	615.234	89.8105	615.234	90.7396	615.234	91.3258	615.234	90.0731	615.234	92.7524	615.234	91.3726	615.234	93.6877	615.234	93.0599	615.234	93.86
637.207	99.0499	637.207	97.8269	637.207	99.8455	637.207	96.1772	637.207	100.247	637.207	94.142	637.207	100.321	637.207	91.8362	637.207	100.122	637.207	89.5371	637.207	99.645	637.207	87.7733	637.207	98.8528	637.207	86.9994	637.207	97.8086	637.207	86.9802	637.207	96.7296	637.207	87.0848	637.207	95.8153	637.207	86.7707	637.207	95.0084	637.207	85.6046	637.207	94.09	637.207	83.4196	637.207	93.0874	637.207	82.003	637.207	92.4632	637.207	84.9647	637.207	92.6233	637.207	88.9876	637.207	93.446	637.207	92.0554	637.207	94.4776	637.207	94.0732	637.207	95.1615	637.207	95.088
659.18	97.7694	659.18	96.4193	659.18	98.7655	659.18	94.8459	659.18	99.422	659.18	93.3292	659.18	99.7942	659.18	92.0914	659.18	99.8897	659.18	91.0923	659.18	99.667	659.18	90.1576	659.18	99.1119	659.18	89.1871	659.18	98.3064	659.18	88.2451	659.18	97.4191	659.18	87.5424	659.18	96.6256	659.18	87.126	659.18	96.0299	659.18	86.6667	659.18	95.5367	659.18	85.724	659.18	94.8132	659.18	83.7257	659.18	93.6656	659.18	79.4234	659.18	92.6499	659.18	77.3778	659.18	92.7681	659.18	85.2341	659.18	93.514	659.18	90.0278	659.18	93.6631	659.18	92.6193
682.617	98.0304	682.617	97.6603	682.617	98.3055	682.617	97.271	682.617	98.3866	682.617	96.8147	682.617	98.2235	682.617	96.1585	682.617	97.7923	682.617	95.2263	682.617	97.0924	682.617	94.0814	682.617	96.2481	682.617	92.9085	682.617	95.5696	682.617	91.929	682.617	95.309	682.617	91.2829	682.617	95.3037	682.617	90.927	682.617	95.1599	682.617	90.6375	682.617	94.6963	682.617	90.1166	682.617	93.9325	682.617	89.1048	682.617	92.7737	682.617	87.601	682.617	91.2347	682.617	86.7785	682.617	90.5605	682.617	88.5132	682.617	91.7328	682.617	91.1034	682.617	92.8517	682.617	92.6911
707.52	99.3047	707.52	99.1442	707.52	99.3574	707.52	98.8371	707.52	99.2911	707.52	98.3361	707.52	99.0357	707.52	97.6292	707.52	98.4902	707.52	96.7532	707.52	97.573	707.52	95.7738	707.52	96.3038	707.52	94.7724	707.52	94.9098	707.52	93.8607	707.52	93.7643	707.52	93.1567	707.52	92.9841	707.52	92.6637	707.52	92.3517	707.52	92.2147	707.52	91.9485	707.52	91.5602	707.52	91.9943	707.52	90.4716	707.52	91.9076	707.52	88.8945	707.52	91.2579	707.52	87.7054	707.52	91.1038	707.52	88.9591	707.52	92.3105	707.52	91.4831	707.52	93.352	707.52	93.1281
732.422	99.8663	732.422	99.7845	732.422	99.7019	732.422	99.4474	732.422	99.3539	732.422	98.8857	732.422	98.8923	732.422	98.11	732.422	98.3152	732.422	97.0856	732.422	97.5184	732.422	95.8119	732.422	96.3887	732.422	94.4436	732.422	94.9402	732.422	93.2861	732.422	93.2975	732.422	92.5788	732.422	91.7847	732.422	92.2815	732.422	91.2556	732.422	92.1322	732.422	91.6694	732.422	91.8267	732.422	91.7393	732.422	91.1247	732.422	90.8551	732.422	89.9046	732.422	89.5706	732.422	88.4685	732.422	89.6476	732.422	88.2676	732.422	90.9996	732.422	89.8992	732.422	91.8362	732.422	91.4474
757.324	99.4999	757.324	99.1174	757.324	99.6702	757.324	98.6062	757.324	99.6065	757.324	98.029	757.324	99.3257	757.324	97.3126	757.324	98.7983	757.324	96.2572	757.324	97.9432	757.324	94.6782	757.324	96.789	757.324	92.5554	757.324	95.603	757.324	90.1651	757.324	94.6857	757.324	88.1761	757.324	93.9593	757.324	87.418	757.324	93.1118	757.324	87.9634	757.324	92.4066	757.324	88.7507	757.324	92.5488	757.324	88.7618	757.324	92.941	757.324	87.6497	757.324	92.4271	757.324	86.521	757.324	91.0413	757.324	88.1648	757.324	90.7127	757.324	90.7982	757.324	91.8001	757.324	92.1056
785.156	97.8578	785.156	97.6448	785.156	98.0349	785.156	97.3572	785.156	98.1779	785.156	96.8695	785.156	98.232	785.156	96.0367	785.156	98.0278	785.156	94.8456	785.156	97.4148	785.156	93.4602	785.156	96.4795	785.156	92.1167	785.156	95.4576	785.156	90.9665	785.156	94.4367	785.156	89.9851	785.156	93.428	785.156	89.0854	785.156	92.332	785.156	88.3974	785.156	90.9605	785.156	88.2966	785.156	89.9271	785.156	88.6177	785.156	90.1185	785.156	88.2517	785.156	90.4589	785.156	85.9258	785.156	90.3034	785.156	82.6181	785.156	90.582	785.156	86.4642	785.156	91.0154	785.156	90.0018
811.523	97.9841	811.523	97.9538	811.523	97.8432	811.523	97.6609	811.523	97.5984	811.523	96.9893	811.523	97.2451	811.523	95.7919	811.523	96.7421	811.523	94.0235	811.523	96.108	811.523	91.9721	811.523	95.2999	811.523	90.2542	811.523	94.1328	811.523	89.3778	811.523	92.6501	811.523	89.3722	811.523	91.4318	811.523	89.8193	811.523	91.1131	811.523	90.0452	811.523	91.138	811.523	89.5505	811.523	90.246	811.523	88.5324	811.523	87.7005	811.523	87.9256	811.523	85.4747	811.523	88.0604	811.523	87.9141	811.523	88.2327	811.523	90.1185	811.523	88.6066	811.523	90.5073	811.523	89.6533
840.82	97.7205	840.82	97.6464	840.82	97.603	840.82	97.468	840.82	97.2832	840.82	97.07	840.82	96.9838	840.82	96.1473	840.82	96.8852	840.82	94.4781	840.82	96.7724	840.82	92.2171	840.82	96.2855	840.82	89.9616	840.82	95.4016	840.82	88.5139	840.82	94.2903	840.82	88.5815	840.82	92.7721	840.82	89.4061	840.82	90.8064	840.82	89.899	840.82	90.2532	840.82	89.9037	840.82	91.6927	840.82	89.5038	840.82	92.1713	840.82	88.5988	840.82	90.4211	840.82	87.0856	840.82	87.6483	840.82	86.061	840.82	88.708	840.82	87.6455	840.82	90.2801	840.82	89.7771
870.117	98.0257	870.117	98.063	870.117	97.7343	870.117	97.9428	870.117	97.1512	870.117	97.6371	870.117	96.4334	870.117	97.0097	870.117	95.8192	870.117	96.0068	870.117	95.4026	870.117	94.777	870.117	95.2516	870.117	93.5078	870.117	95.491	870.117	92.0752	870.117	95.8501	870.117	90.0932	870.117	95.7522	870.117	87.9129	870.117	94.6519	870.117	87.6785	870.117	92.3799	870.117	88.8839	870.117	90.0988	870.117	89.2601	870.117	89.7327	870.117	88.5248	870.117	89.6647	870.117	87.2739	870.117	88.4209	870.117	86.5753	870.117	88.3978	870.117	87.6473	870.117	89.6382	870.117	89.345
900.879	98.194	900.879	99.7644	900.879	96.1916	900.879	100.626	900.879	94.3688	900.879	100.758	900.879	93.5477	900.879	100.263	900.879	93.7883	900.879	99.2748	900.879	94.1112	900.879	98.0089	900.879	93.9995	900.879	96.8896	900.879	93.2692	900.879	96.2211	900.879	92.3575	900.879	95.5429	900.879	92.1275	900.879	94.3006	900.879	92.4167	900.879	92.952	900.879	93.0938	900.879	92.9202	900.879	93.9757	900.879	93.8822	900.879	93.9013	900.879	94.2067	900.879	91.8456	900.879	93.1059	900.879	88.798	900.879	90.3169	900.879	88.5724	900.879	86.8983	900.879	88.7832	900.879	87.2361
933.105	102.253	933.105	102.986	933.105	100.803	933.105	103.179	933.105	98.3525	933.105	102.887	933.105	94.6381	933.105	102.133	933.105	89.158	933.105	100.995	933.105	78.4262	933.105	99.564	933.105	73.9801	933.105	97.8445	933.105	79.772	933.105	96.0103	933.105	80.6318	933.105	94.7861	933.105	80.3069	933.105	94.3358	933.105	80.2482	933.105	93.7655	933.105	79.7122	933.105	92.7477	933.105	81.88	933.105	92.2434	933.105	84.6765	933.105	93.1743	933.105	83.8283	933.105	94.2047	933.105	79.1728	933.105	94.0828	933.105	78.7097	933.105	92.2481	933.105	82.477	933.105	88.193
965.332	102.962	965.332	103.524	965.332	101.779	965.332	103.405	965.332	100.06	965.332	102.682	965.332	97.7566	965.332	101.511	965.332	94.9419	965.332	99.9802	965.332	92.042	965.332	98.0201	965.332	88.9755	965.332	95.6671	965.332	85.1136	965.332	93.5504	965.332	81.4313	965.332	92.5138	965.332	79.3987	965.332	92.2051	965.332	76.1493	965.332	91.6821	965.332	78.4036	965.332	91.0736	965.332	84.8596	965.332	91.2118	965.332	87.8362	965.332	91.7203	965.332	88.3722	965.332	91.7295	965.332	86.3792	965.332	91.2898	965.332	83.4124	965.332	90.8837	965.332	86.787	965.332	89.8488
1,000.49	102.389	1,000.49	102.46	1,000.49	101.841	1,000.49	102.095	1,000.49	100.656	1,000.49	101.202	1,000.49	98.8132	1,000.49	99.7088	1,000.49	96.5852	1,000.49	97.605	1,000.49	94.0934	1,000.49	95.1282	1,000.49	90.9826	1,000.49	92.9223	1,000.49	87.0554	1,000.49	91.4539	1,000.49	83.289	1,000.49	90.6617	1,000.49	81.1421	1,000.49	89.6051	1,000.49	81.7064	1,000.49	87.9795	1,000.49	82.5211	1,000.49	87.1343	1,000.49	81.1451	1,000.49	87.8415	1,000.49	79.4315	1,000.49	88.8231	1,000.49	78.0388	1,000.49	90.0026	1,000.49	78.5377	1,000.49	91.7497	1,000.49	81.1287	1,000.49	92.7604	1,000.49	87.3578	1,000.49	91.5918
1,035.64	101.92	1,035.64	102.072	1,035.64	101.232	1,035.64	101.475	1,035.64	100.169	1,035.64	100.079	1,035.64	98.6724	1,035.64	98.0866	1,035.64	96.7475	1,035.64	95.8831	1,035.64	94.5032	1,035.64	93.5716	1,035.64	91.7619	1,035.64	90.6794	1,035.64	89.0277	1,035.64	86.5301	1,035.64	87.8108	1,035.64	82.9307	1,035.64	87.537	1,035.64	84.1289	1,035.64	85.5703	1,035.64	85.2883	1,035.64	79.8747	1,035.64	85.6638	1,035.64	78.5815	1,035.64	86.9004	1,035.64	84.691	1,035.64	88.2869	1,035.64	87.1834	1,035.64	88.2236	1,035.64	86.9351	1,035.64	87.2274	1,035.64	86.0032	1,035.64	87.6989	1,035.64	86.5828	1,035.64	87.9567
1,072.27	101.152	1,072.27	100.75	1,072.27	101.061	1,072.27	99.7428	1,072.27	100.514	1,072.27	97.8932	1,072.27	99.3922	1,072.27	94.7875	1,072.27	97.7802	1,072.27	90.434	1,072.27	96.2895	1,072.27	87.194	1,072.27	94.7765	1,072.27	87.1432	1,072.27	92.1465	1,072.27	85.9188	1,072.27	88.3971	1,072.27	78.3808	1,072.27	85.7247	1,072.27	68.0228	1,072.27	87.5316	1,072.27	77.3914	1,072.27	87.817	1,072.27	81.0407	1,072.27	85.3891	1,072.27	79.3846	1,072.27	80.8239	1,072.27	81.1941	1,072.27	82.0567	1,072.27	85.9619	1,072.27	87.0151	1,072.27	88.0761	1,072.27	87.3586	1,072.27	89.1528	1,072.27	86.9051	1,072.27	88.8666
1,108.89	99.8243	1,108.89	99.1095	1,108.89	100.176	1,108.89	97.9027	1,108.89	100.006	1,108.89	95.8949	1,108.89	98.9911	1,108.89	93.2354	1,108.89	97.1153	1,108.89	91.07	1,108.89	95.2862	1,108.89	89.5185	1,108.89	94.0708	1,108.89	86.4276	1,108.89	92.6679	1,108.89	84.6681	1,108.89	91.0101	1,108.89	85.694	1,108.89	88.6919	1,108.89	86.0548	1,108.89	85.997	1,108.89	83.4241	1,108.89	86.0412	1,108.89	83.2088	1,108.89	86.3746	1,108.89	83.2141	1,108.89	87.0043	1,108.89	80.6964	1,108.89	87.7154	1,108.89	80.1631	1,108.89	87.8825	1,108.89	82.2566	1,108.89	88.7413	1,108.89	83.5184	1,108.89	88.1227	1,108.89	85.7856
1,148.44	99.2593	1,148.44	98.7918	1,148.44	99.2852	1,148.44	97.6554	1,148.44	98.8899	1,148.44	95.5928	1,148.44	97.8767	1,148.44	92.9266	1,148.44	96.2941	1,148.44	90.7755	1,148.44	94.5282	1,148.44	89.393	1,148.44	92.5593	1,148.44	87.0268	1,148.44	90.8567	1,148.44	82.094	1,148.44	89.7115	1,148.44	81.2403	1,148.44	87.5033	1,148.44	82.8448	1,148.44	84.1083	1,148.44	82.0919	1,148.44	84.2611	1,148.44	80.7296	1,148.44	85.6557	1,148.44	82.9119	1,148.44	83.1046	1,148.44	83.5921	1,148.44	83.1803	1,148.44	82.2262	1,148.44	87.5972	1,148.44	83.3916	1,148.44	87.612	1,148.44	85.9541	1,148.44	87.1683	1,148.44	87.306
1,189.45	99.5545	1,189.45	98.8369	1,189.45	99.8231	1,189.45	97.6328	1,189.45	99.3912	1,189.45	96.071	1,189.45	97.9397	1,189.45	94.6722	1,189.45	95.6534	1,189.45	92.9366	1,189.45	93.1134	1,189.45	89.4027	1,189.45	91.1502	1,189.45	83.5063	1,189.45	90.0963	1,189.45	75.9809	1,189.45	88.7913	1,189.45	72.5495	1,189.45	86.6445	1,189.45	79.0489	1,189.45	83.628	1,189.45	79.5951	1,189.45	80.195	1,189.45	78.1135	1,189.45	81.5085	1,189.45	78.8689	1,189.45	85.5393	1,189.45	80.1011	1,189.45	86.3376	1,189.45	80.7562	1,189.45	85.8886	1,189.45	81.58	1,189.45	87.5008	1,189.45	82.1349	1,189.45	86.9609	1,189.45	84.2186
1,230.47	100.149	1,230.47	99.3045	1,230.47	100.238	1,230.47	97.7793	1,230.47	99.5281	1,230.47	96.051	1,230.47	97.9668	1,230.47	94.5201	1,230.47	95.859	1,230.47	92.4945	1,230.47	93.4894	1,230.47	88.9731	1,230.47	91.2993	1,230.47	84.4789	1,230.47	89.7162	1,230.47	81.1927	1,230.47	87.9161	1,230.47	77.7531	1,230.47	86.3121	1,230.47	67.8702	1,230.47	83.4229	1,230.47	68.4298	1,230.47	78.0658	1,230.47	75.9326	1,230.47	82.2866	1,230.47	79.888	1,230.47	82.5092	1,230.47	82.0709	1,230.47	81.1171	1,230.47	82.415	1,230.47	87.1018	1,230.47	81.249	1,230.47	88.0245	1,230.47	80.941	1,230.47	87.279	1,230.47	84.5345
1,274.41	100.603	1,274.41	99.2653	1,274.41	100.986	1,274.41	97.1449	1,274.41	100.249	1,274.41	94.8697	1,274.41	98.3699	1,274.41	93.0959	1,274.41	95.6782	1,274.41	91.2475	1,274.41	92.5206	1,274.41	88.1553	1,274.41	89.6175	1,274.41	83.8628	1,274.41	87.6285	1,274.41	79.2818	1,274.41	86.0916	1,274.41	73.8612	1,274.41	84.5617	1,274.41	75.5573	1,274.41	81.691	1,274.41	73.3958	1,274.41	79.1862	1,274.41	69.9364	1,274.41	77.5495	1,274.41	72.6621	1,274.41	75.1866	1,274.41	78.7874	1,274.41	81.759	1,274.41	80.7114	1,274.41	84.7097	1,274.41	81.7507	1,274.41	85.9059	1,274.41	84.2583	1,274.41	86.9633	1,274.41	86.3656
1,319.82	101.081	1,319.82	100.125	1,319.82	101.298	1,319.82	98.4352	1,319.82	100.56	1,319.82	96.3467	1,319.82	98.4	1,319.82	93.8786	1,319.82	94.6939	1,319.82	90.4425	1,319.82	89.9475	1,319.82	86.5679	1,319.82	86.0731	1,319.82	84.2772	1,319.82	85.6984	1,319.82	79.6828	1,319.82	85.0342	1,319.82	57.8379	1,319.82	81.7428	1,319.82	71.6043	1,319.82	78.7176	1,319.82	73.2057	1,319.82	78.2235	1,319.82	69.6121	1,319.82	76.4809	1,319.82	74.6166	1,319.82	82.1778	1,319.82	80.1128	1,319.82	79.5733	1,319.82	80.9564	1,319.82	78.3419	1,319.82	80.1888	1,319.82	85.8948	1,319.82	82.286	1,319.82	87.4705	1,319.82	86.2133
1,366.7	101.198	1,366.7	100.598	1,366.7	101.199	1,366.7	99.2035	1,366.7	100.597	1,366.7	97.1904	1,366.7	98.9515	1,366.7	94.5503	1,366.7	95.7418	1,366.7	91.665	1,366.7	90.5953	1,366.7	88.86	1,366.7	84.5695	1,366.7	85.5423	1,366.7	80.5806	1,366.7	80.3087	1,366.7	82.9625	1,366.7	75.0905	1,366.7	83.6136	1,366.7	76.4946	1,366.7	81.8647	1,366.7	76.2263	1,366.7	79.2846	1,366.7	72.6759	1,366.7	78.0302	1,366.7	65.6597	1,366.7	77.5258	1,366.7	73.3985	1,366.7	77.7586	1,366.7	80.8503	1,366.7	84.0887	1,366.7	81.816	1,366.7	87.3838	1,366.7	82.8405	1,366.7	88.9912	1,366.7	87.0524
1,413.57	101.241	1,413.57	100.85	1,413.57	100.82	1,413.57	99.7298	1,413.57	100.045	1,413.57	98.0101	1,413.57	98.5684	1,413.57	94.9922	1,413.57	95.4324	1,413.57	90.3169	1,413.57	89.582	1,413.57	85.629	1,413.57	80.2951	1,413.57	81.8667	1,413.57	76.5814	1,413.57	75.1819	1,413.57	81.9549	1,413.57	73.0582	1,413.57	84.5217	1,413.57	75.5121	1,413.57	82.7378	1,413.57	80.1334	1,413.57	77.2143	1,413.57	77.0153	1,413.57	72.6189	1,413.57	56.5653	1,413.57	70.6366	1,413.57	75.3055	1,413.57	77.947	1,413.57	75.2029	1,413.57	80.9191	1,413.57	79.4861	1,413.57	87.2751	1,413.57	81.8308	1,413.57	88.631	1,413.57	85.3954
1,463.38	100.903	1,463.38	100.787	1,463.38	100.656	1,463.38	100.439	1,463.38	99.9073	1,463.38	98.612	1,463.38	98.5183	1,463.38	94.4323	1,463.38	95.7204	1,463.38	88.6667	1,463.38	90.7317	1,463.38	80.2023	1,463.38	81.3296	1,463.38	81.5056	1,463.38	67.9831	1,463.38	76.9854	1,463.38	78.4175	1,463.38	79.6008	1,463.38	82.511	1,463.38	81.3863	1,463.38	84.7593	1,463.38	81.1882	1,463.38	82.7605	1,463.38	81.113	1,463.38	75.4805	1,463.38	77.3828	1,463.38	72.0671	1,463.38	61.9711	1,463.38	73.2974	1,463.38	63.4379	1,463.38	82.9102	1,463.38	76.7129	1,463.38	88.6271	1,463.38	78.6605	1,463.38	88.3034	1,463.38	83.3531
1,516.11	101.348	1,516.11	101.067	1,516.11	100.667	1,516.11	99.8279	1,516.11	98.8785	1,516.11	96.846	1,516.11	96.439	1,516.11	91.492	1,516.11	93.3699	1,516.11	80.5677	1,516.11	90.0555	1,516.11	83.1346	1,516.11	88.7094	1,516.11	86.4822	1,516.11	87.0279	1,516.11	82.767	1,516.11	82.4236	1,516.11	82.6235	1,516.11	83.8644	1,516.11	83.4483	1,516.11	84.5385	1,516.11	80.7916	1,516.11	82.198	1,516.11	81.8958	1,516.11	81.651	1,516.11	84.8087	1,516.11	79.9907	1,516.11	80.6759	1,516.11	80.345	1,516.11	70.3709	1,516.11	82.1894	1,516.11	59.9727	1,516.11	83.8667	1,516.11	82.1351	1,516.11	85.5587	1,516.11	86.2158
1,568.85	101.401	1,568.85	99.9854	1,568.85	101.04	1,568.85	97.805	1,568.85	98.9071	1,568.85	95.4583	1,568.85	96.3564	1,568.85	91.8393	1,568.85	93.4657	1,568.85	85.9253	1,568.85	89.6417	1,568.85	86.9475	1,568.85	88.3043	1,568.85	86.3039	1,568.85	87.0387	1,568.85	87.849	1,568.85	85.1319	1,568.85	88.4656	1,568.85	86.2677	1,568.85	86.2622	1,568.85	86.3711	1,568.85	86.4877	1,568.85	86.4502	1,568.85	85.5126	1,568.85	85.9894	1,568.85	83.982	1,568.85	80.5065	1,568.85	82.2507	1,568.85	78.6861	1,568.85	72.7908	1,568.85	67.5942	1,568.85	76.0981	1,568.85	84.8148	1,568.85	77.1335	1,568.85	87.9062	1,568.85	84.7658
1,624.51	101.326	1,624.51	100.74	1,624.51	101.136	1,624.51	99.1979	1,624.51	99.0008	1,624.51	95.6834	1,624.51	96.3808	1,624.51	89.5674	1,624.51	94.0547	1,624.51	84.3698	1,624.51	90.7745	1,624.51	87.7906	1,624.51	88.1834	1,624.51	88.344	1,624.51	86.83	1,624.51	90.3922	1,624.51	87.8392	1,624.51	90.0464	1,624.51	85.1311	1,624.51	86.0454	1,624.51	85.816	1,624.51	87.4817	1,624.51	85.7557	1,624.51	87.2892	1,624.51	84.9953	1,624.51	75.9787	1,624.51	82.9423	1,624.51	83.9722	1,624.51	77.5579	1,624.51	81.0745	1,624.51	82.0723	1,624.51	82.0278	1,624.51	82.8743	1,624.51	81.4256	1,624.51	85.1058	1,624.51	84.3236
1,681.64	102.249	1,681.64	101.688	1,681.64	101.754	1,681.64	98.8308	1,681.64	99.2459	1,681.64	94.6328	1,681.64	94.7031	1,681.64	87.7404	1,681.64	94.2838	1,681.64	86.9102	1,681.64	93.2682	1,681.64	88.1418	1,681.64	87.9759	1,681.64	91.2832	1,681.64	88.8597	1,681.64	94.1187	1,681.64	91.554	1,681.64	92.984	1,681.64	86.875	1,681.64	93.9576	1,681.64	86.3223	1,681.64	91.6903	1,681.64	85.5751	1,681.64	89.0726	1,681.64	90.0244	1,681.64	84.8867	1,681.64	85.1404	1,681.64	72.3029	1,681.64	86.7899	1,681.64	76.604	1,681.64	81.0959	1,681.64	59.8559	1,681.64	82.9452	1,681.64	80.5984	1,681.64	87.1391	1,681.64	86.5329
1,741.7	103.171	1,741.7	102.089	1,741.7	101.779	1,741.7	99.1779	1,741.7	98.1511	1,741.7	95.6123	1,741.7	92.7756	1,741.7	92.6787	1,741.7	94.4843	1,741.7	92.3781	1,741.7	96.0849	1,741.7	85.9304	1,741.7	94.5186	1,741.7	89.3343	1,741.7	92.5767	1,741.7	88.9378	1,741.7	90.3234	1,741.7	83.9189	1,741.7	89.6019	1,741.7	85.734	1,741.7	89.4553	1,741.7	85.9993	1,741.7	85.7036	1,741.7	85.7647	1,741.7	88.8638	1,741.7	88.7518	1,741.7	85.5229	1,741.7	84.9831	1,741.7	86.2279	1,741.7	82.6212	1,741.7	88.0251	1,741.7	80.7118	1,741.7	86.5553	1,741.7	82.1185	1,741.7	89.7454	1,741.7	88.5734
1,803.22	102.001	1,803.22	101.901	1,803.22	101.588	1,803.22	100.959	1,803.22	99.5709	1,803.22	97.4609	1,803.22	94.3924	1,803.22	92.4317	1,803.22	94.7876	1,803.22	82.3366	1,803.22	98.1755	1,803.22	86.4523	1,803.22	96.7619	1,803.22	95.0825	1,803.22	94.6417	1,803.22	92.9169	1,803.22	92.9279	1,803.22	90.7833	1,803.22	92.4326	1,803.22	87.3623	1,803.22	91.5788	1,803.22	85.3716	1,803.22	93.7867	1,803.22	82.5883	1,803.22	94.4084	1,803.22	90.6565	1,803.22	90.7382	1,803.22	89.038	1,803.22	81.9082	1,803.22	75.0282	1,803.22	89.7836	1,803.22	80.0535	1,803.22	83.9592	1,803.22	81.1307	1,803.22	87.113	1,803.22	85.9192
1,866.21	102.607	1,866.21	100.842	1,866.21	101.398	1,866.21	99.1824	1,866.21	97.9347	1,866.21	96.5601	1,866.21	95.2515	1,866.21	91.913	1,866.21	97.4649	1,866.21	89.4594	1,866.21	96.9832	1,866.21	95.7625	1,866.21	94.2295	1,866.21	96.0496	1,866.21	92.5065	1,866.21	90.5489	1,866.21	87.6774	1,866.21	91.8993	1,866.21	83.2008	1,866.21	84.1768	1,866.21	81.2339	1,866.21	87.8195	1,866.21	88.7251	1,866.21	74.7114	1,866.21	93.0775	1,866.21	87.0093	1,866.21	78.9066	1,866.21	78.8762	1,866.21	88.3682	1,866.21	78.9788	1,866.21	81.2347	1,866.21	81.6826	1,866.21	78.261	1,866.21	87.6026	1,866.21	88.1771	1,866.21	85.797
1,932.13	100.82	1,932.13	101.299	1,932.13	99.168	1,932.13	100.077	1,932.13	98.9056	1,932.13	97.3721	1,932.13	97.1307	1,932.13	96.1951	1,932.13	94.6158	1,932.13	93.2832	1,932.13	92.6793	1,932.13	93.2292	1,932.13	97.1843	1,932.13	90.5473	1,932.13	95.6634	1,932.13	83.515	1,932.13	94.6375	1,932.13	86.814	1,932.13	95.6051	1,932.13	81.6701	1,932.13	94.8002	1,932.13	82.954	1,932.13	82.5571	1,932.13	91.3962	1,932.13	93.2472	1,932.13	86.1255	1,932.13	89.9317	1,932.13	89.7703	1,932.13	89.7082	1,932.13	78.4733	1,932.13	72.0063	1,932.13	73.8592	1,932.13	79.0035	1,932.13	78.2005	1,932.13	91.2079	1,932.13	89.909
1,999.51	101.805	1,999.51	100.193	1,999.51	101.204	1,999.51	98.6452	1,999.51	95.4403	1,999.51	95.1631	1,999.51	90.4801	1,999.51	92.2403	1,999.51	90.1132	1,999.51	96.5563	1,999.51	97.4371	1,999.51	95.5951	1,999.51	98.8016	1,999.51	90.5668	1,999.51	97.2416	1,999.51	92.7633	1,999.51	94.9493	1,999.51	82.0501	1,999.51	94.5886	1,999.51	89.5198	1,999.51	95.1392	1,999.51	94.7626	1,999.51	95.3236	1,999.51	95.4886	1,999.51	89.6162	1,999.51	90.4737	1,999.51	83.5499	1,999.51	89.0062	1,999.51	92.7623	1,999.51	86.0239	1,999.51	88.8711	1,999.51	85.1448	1,999.51	84.3621	1,999.51	88.2877	1,999.51	85.795	1,999.51	83.5614
2,069.82	101.237	2,069.82	100.5	2,069.82	100.85	2,069.82	97.995	2,069.82	96.5921	2,069.82	94.576	2,069.82	92.9851	2,069.82	94.1824	2,069.82	95.9784	2,069.82	91.1131	2,069.82	100.789	2,069.82	95.7317	2,069.82	97.2558	2,069.82	98.6162	2,069.82	92.9391	2,069.82	95.7487	2,069.82	92.4323	2,069.82	90.3278	2,069.82	89.2628	2,069.82	88.3999	2,069.82	87.1398	2,069.82	79.5376	2,069.82	85.2661	2,069.82	80.9947	2,069.82	93.5181	2,069.82	85.6268	2,069.82	90.0376	2,069.82	89.9087	2,069.82	81.084	2,069.82	91.0229	2,069.82	88.01	2,069.82	82.4954	2,069.82	87.3524	2,069.82	77.9238	2,069.82	90.5825	2,069.82	78.5855
2,143.07	100.86	2,143.07	102.583	2,143.07	99.3738	2,143.07	100.079	2,143.07	97.4473	2,143.07	97.1033	2,143.07	92.8119	2,143.07	96.512	2,143.07	90.8358	2,143.07	95.3419	2,143.07	95.6669	2,143.07	96.4472	2,143.07	95.0821	2,143.07	98.3397	2,143.07	95.098	2,143.07	87.4301	2,143.07	90.4561	2,143.07	95.1055	2,143.07	92.4424	2,143.07	92.5702	2,143.07	90.8228	2,143.07	92.7746	2,143.07	94.3072	2,143.07	84.4914	2,143.07	91.9452	2,143.07	87.4474	2,143.07	84.8928	2,143.07	85.7422	2,143.07	76.7264	2,143.07	86.0796	2,143.07	90.8993	2,143.07	80.9123	2,143.07	84.7667	2,143.07	77.4083	2,143.07	86.8514	2,143.07	81.7037
2,219.24	101.013	2,219.24	101.33	2,219.24	98.7038	2,219.24	99.886	2,219.24	94.9541	2,219.24	95.3897	2,219.24	86.2357	2,219.24	97.8885	2,219.24	86.654	2,219.24	97.456	2,219.24	95.9122	2,219.24	96.4536	2,219.24	96.2794	2,219.24	93.9968	2,219.24	91.6064	2,219.24	90.5709	2,219.24	87.7314	2,219.24	94.6818	2,219.24	93.2345	2,219.24	94.6856	2,219.24	87.0848	2,219.24	90.5088	2,219.24	90.5259	2,219.24	90.2412	2,219.24	84.991	2,219.24	86.0406	2,219.24	90.24	2,219.24	89.4688	2,219.24	81.8404	2,219.24	87.1297	2,219.24	81.0383	2,219.24	85.3091	2,219.24	72.7102	2,219.24	88.1704	2,219.24	87.825	2,219.24	83.0697
2,296.88	100.557	2,296.88	100.137	2,296.88	98.899	2,296.88	97.5621	2,296.88	96.6463	2,296.88	98.223	2,296.88	94.1726	2,296.88	99.7767	2,296.88	91.3884	2,296.88	98.1496	2,296.88	94.5617	2,296.88	93.1202	2,296.88	97.8607	2,296.88	86.9303	2,296.88	98.6395	2,296.88	93.0966	2,296.88	91.6664	2,296.88	90.5605	2,296.88	91.5169	2,296.88	88.7057	2,296.88	88.1552	2,296.88	90.2754	2,296.88	86.5612	2,296.88	90.3761	2,296.88	89.1096	2,296.88	85.502	2,296.88	85.3306	2,296.88	89.1574	2,296.88	78.6512	2,296.88	86.5862	2,296.88	72.486	2,296.88	81.6235	2,296.88	81.6724	2,296.88	86.1846	2,296.88	85.2302	2,296.88	82.2
2,378.91	101.117	2,378.91	99.9291	2,378.91	99.979	2,378.91	97.824	2,378.91	94.4185	2,378.91	98.526	2,378.91	93.3804	2,378.91	98.7757	2,378.91	95.6202	2,378.91	95.8267	2,378.91	96.74	2,378.91	90.9839	2,378.91	96.2118	2,378.91	91.3043	2,378.91	94.4208	2,378.91	89.0036	2,378.91	88.1917	2,378.91	89.9234	2,378.91	86.7189	2,378.91	92.9508	2,378.91	87.6536	2,378.91	85.8477	2,378.91	82.9971	2,378.91	87.918	2,378.91	89.3298	2,378.91	75.5785	2,378.91	92.0323	2,378.91	75.1483	2,378.91	85.6589	2,378.91	74.4556	2,378.91	74.6323	2,378.91	80.8062	2,378.91	79.0555	2,378.91	88.9893	2,378.91	82.7723	2,378.91	83.3685
2,462.4	101.899	2,462.4	100.194	2,462.4	101.228	2,462.4	98.4625	2,462.4	96.6087	2,462.4	98.3349	2,462.4	91.9483	2,462.4	96.1635	2,462.4	96.6532	2,462.4	94.7601	2,462.4	98.3625	2,462.4	92.5616	2,462.4	96.9992	2,462.4	91.9284	2,462.4	95.8038	2,462.4	90.9381	2,462.4	89.423	2,462.4	91.4266	2,462.4	87.2658	2,462.4	86.7248	2,462.4	87.2152	2,462.4	87.4212	2,462.4	86.2009	2,462.4	86.3178	2,462.4	85.7972	2,462.4	84.4519	2,462.4	88.2952	2,462.4	84.2951	2,462.4	82.0439	2,462.4	82.6015	2,462.4	73.8365	2,462.4	81.3124	2,462.4	83.1782	2,462.4	77.3186	2,462.4	83.9607	2,462.4	81.9152
2,548.83	101.129	2,548.83	100.255	2,548.83	101.256	2,548.83	100.284	2,548.83	98.5945	2,548.83	97.957	2,548.83	92.884	2,548.83	96.5483	2,548.83	95.3217	2,548.83	95.0565	2,548.83	98.0274	2,548.83	94.0452	2,548.83	97.1036	2,548.83	91.8543	2,548.83	94.6129	2,548.83	90.6258	2,548.83	91.7778	2,548.83	87.6452	2,548.83	89.0014	2,548.83	88.2477	2,548.83	88.7593	2,548.83	88.8687	2,548.83	87.0726	2,548.83	86.8184	2,548.83	86.1781	2,548.83	85.1585	2,548.83	87.66	2,548.83	84.7305	2,548.83	84.7917	2,548.83	83.6892	2,548.83	74.9648	2,548.83	82.1332	2,548.83	84.6507	2,548.83	78.4761	2,548.83	85.0839	2,548.83	83.1767
2,639.65	99.3874	2,639.65	99.234	2,639.65	99.8653	2,639.65	99.3721	2,639.65	99.3996	2,639.65	98.0095	2,639.65	95.7754	2,639.65	96.2798	2,639.65	94.4711	2,639.65	95.4075	2,639.65	98.1982	2,639.65	94.1916	2,639.65	97.8447	2,639.65	92.5504	2,639.65	94.9574	2,639.65	92.0462	2,639.65	92.2211	2,639.65	90.109	2,639.65	89.198	2,639.65	89.4215	2,639.65	89.5708	2,639.65	87.5562	2,639.65	87.9288	2,639.65	87.4991	2,639.65	87.0429	2,639.65	83.1544	2,639.65	85.4634	2,639.65	84.2836	2,639.65	86.2444	2,639.65	83.4083	2,639.65	76.5267	2,639.65	81.9447	2,639.65	81.7974	2,639.65	79.7376	2,639.65	84.9461	2,639.65	80.2045
2,731.93	98.5605	2,731.93	98.3938	2,731.93	98.1147	2,731.93	97.3382	2,731.93	97.0498	2,731.93	97.9968	2,731.93	95.8874	2,731.93	95.7604	2,731.93	93.8463	2,731.93	94.5851	2,731.93	96.3961	2,731.93	93.8959	2,731.93	96.5019	2,731.93	91.9978	2,731.93	93.7134	2,731.93	89.7408	2,731.93	92.2969	2,731.93	89.6711	2,731.93	89.2224	2,731.93	85.6865	2,731.93	88.4469	2,731.93	87.8077	2,731.93	88.6418	2,731.93	85.4688	2,731.93	86.383	2,731.93	84.4998	2,731.93	85.6857	2,731.93	82.8389	2,731.93	83.6156	2,731.93	83.8194	2,731.93	70.2621	2,731.93	80.2582	2,731.93	83.1761	2,731.93	78.1656	2,731.93	85.4697	2,731.93	84.1368
2,828.61	99.5467	2,828.61	98.9148	2,828.61	98.3032	2,828.61	99.1249	2,828.61	95.8215	2,828.61	97.4893	2,828.61	94.855	2,828.61	95.4433	2,828.61	94.6105	2,828.61	94.2862	2,828.61	95.0548	2,828.61	95.2792	2,828.61	95.7067	2,828.61	93.2913	2,828.61	93.722	2,828.61	90.1523	2,828.61	93.3219	2,828.61	87.5516	2,828.61	90.4475	2,828.61	87.9572	2,828.61	82.3383	2,828.61	86.1105	2,828.61	84.7911	2,828.61	86.3298	2,828.61	88.4051	2,828.61	84.4344	2,828.61	83.8518	2,828.61	81.5393	2,828.61	83.3809	2,828.61	80.8498	2,828.61	72.5087	2,828.61	77.7712	2,828.61	85.1542	2,828.61	73.561	2,828.61	84.277	2,828.61	85.0015
2,928.22	99.8497	2,928.22	99.9624	2,928.22	98.4664	2,928.22	100.667	2,928.22	97.3195	2,928.22	97.1298	2,928.22	95.2652	2,928.22	96.1483	2,928.22	94.7729	2,928.22	96.6424	2,928.22	96.1506	2,928.22	95.4146	2,928.22	96.6351	2,928.22	92.2255	2,928.22	93.8057	2,928.22	90.8988	2,928.22	93.4421	2,928.22	90.1713	2,928.22	86.803	2,928.22	87.2188	2,928.22	77.2216	2,928.22	83.5507	2,928.22	76.6778	2,928.22	84.6744	2,928.22	87.5036	2,928.22	80.9935	2,928.22	79.8776	2,928.22	81.8162	2,928.22	84.6809	2,928.22	80.8759	2,928.22	76.8616	2,928.22	75.2327	2,928.22	86.0173	2,928.22	76.5906	2,928.22	83.9966	2,928.22	85.6085
3,030.76	99.428	3,030.76	100.51	3,030.76	100.021	3,030.76	100.551	3,030.76	98.5792	3,030.76	96.957	3,030.76	96.988	3,030.76	97.1687	3,030.76	95.6221	3,030.76	95.9073	3,030.76	96.8871	3,030.76	92.2484	3,030.76	97.104	3,030.76	91.0983	3,030.76	94.6328	3,030.76	86.7684	3,030.76	94.1159	3,030.76	82.3918	3,030.76	79.2225	3,030.76	81.2734	3,030.76	79.0918	3,030.76	82.645	3,030.76	85.07	3,030.76	82.2217	3,030.76	81.5542	3,030.76	79.3752	3,030.76	80.3823	3,030.76	77.3686	3,030.76	80.829	3,030.76	79.4943	3,030.76	72.8113	3,030.76	62.3866	3,030.76	84.5427	3,030.76	73.8854	3,030.76	81.2364	3,030.76	84.2984
3,137.7	100.162	3,137.7	100.761	3,137.7	100.041	3,137.7	99.1246	3,137.7	99.6849	3,137.7	97.8902	3,137.7	97.3692	3,137.7	97.5865	3,137.7	93.8314	3,137.7	95.2143	3,137.7	97.7579	3,137.7	92.8532	3,137.7	95.7683	3,137.7	90.2836	3,137.7	94.3225	3,137.7	89.4736	3,137.7	92.4765	3,137.7	89.147	3,137.7	78.8657	3,137.7	86.4402	3,137.7	84.1792	3,137.7	84.338	3,137.7	74.9927	3,137.7	82.0959	3,137.7	84.3651	3,137.7	83.3634	3,137.7	81.1655	3,137.7	76.8059	3,137.7	82.2248	3,137.7	72.0559	3,137.7	72.1247	3,137.7	55.6558	3,137.7	82.2815	3,137.7	74.3066	3,137.7	80.8487	3,137.7	80.7694
3,249.02	100.282	3,249.02	101.049	3,249.02	99.7598	3,249.02	98.171	3,249.02	99.5979	3,249.02	98.0702	3,249.02	98.6332	3,249.02	97.2882	3,249.02	94.4539	3,249.02	95.2282	3,249.02	96.1551	3,249.02	93.3423	3,249.02	95.3952	3,249.02	91.9483	3,249.02	96.4323	3,249.02	92.3797	3,249.02	90.4427	3,249.02	89.3509	3,249.02	83.9109	3,249.02	86.4257	3,249.02	86.167	3,249.02	85.112	3,249.02	80.9526	3,249.02	83.2751	3,249.02	80.4308	3,249.02	82.5227	3,249.02	83.2479	3,249.02	84.381	3,249.02	84.2032	3,249.02	77.0622	3,249.02	70.2038	3,249.02	78.5784	3,249.02	83.9102	3,249.02	67.5117	3,249.02	74.5476	3,249.02	78.2736
3,363.28	100.254	3,363.28	101.06	3,363.28	99.2672	3,363.28	98.6021	3,363.28	98.7253	3,363.28	98.4071	3,363.28	99.0595	3,363.28	96.523	3,363.28	94.7944	3,363.28	95.5182	3,363.28	95.233	3,363.28	93.6622	3,363.28	95.4935	3,363.28	92.4558	3,363.28	98.4665	3,363.28	87.993	3,363.28	90.0219	3,363.28	85.9981	3,363.28	87.8082	3,363.28	86.1454	3,363.28	90.9589	3,363.28	85.1758	3,363.28	70.3426	3,363.28	84.2855	3,363.28	79.7582	3,363.28	83.0598	3,363.28	82.6699	3,363.28	83.9262	3,363.28	81.1674	3,363.28	81.1253	3,363.28	71.4166	3,363.28	79.2586	3,363.28	83.6096	3,363.28	54.2537	3,363.28	78.7986	3,363.28	79.4552
3,481.93	100.191	3,481.93	101.12	3,481.93	98.5899	3,481.93	99.0029	3,481.93	99.1653	3,481.93	98.6323	3,481.93	99.2449	3,481.93	96.8873	3,481.93	96.7376	3,481.93	95.5143	3,481.93	92.7051	3,481.93	93.8906	3,481.93	94.8503	3,481.93	90.1174	3,481.93	98.2373	3,481.93	89.66	3,481.93	89.0837	3,481.93	88.2986	3,481.93	90.5405	3,481.93	83.6765	3,481.93	90.5465	3,481.93	84.4428	3,481.93	78.426	3,481.93	81.6328	3,481.93	75.9776	3,481.93	81.1957	3,481.93	81.5142	3,481.93	80.9213	3,481.93	79.0268	3,481.93	79.8377	3,481.93	75.2676	3,481.93	78.1709	3,481.93	81.9519	3,481.93	66.4628	3,481.93	80.5711	3,481.93	76.5111
3,604.98	101.148	3,604.98	99.9909	3,604.98	97.2726	3,604.98	98.426	3,604.98	98.6347	3,604.98	98.3697	3,604.98	98.9797	3,604.98	95.4991	3,604.98	97.7773	3,604.98	94.6317	3,604.98	91.0218	3,604.98	92.3969	3,604.98	97.2527	3,604.98	90.8153	3,604.98	96.2366	3,604.98	88.6375	3,604.98	91.6423	3,604.98	83.8507	3,604.98	92.0469	3,604.98	83.6976	3,604.98	91.8616	3,604.98	83.1866	3,604.98	79.2737	3,604.98	81.9374	3,604.98	77.6831	3,604.98	81.6633	3,604.98	81.3455	3,604.98	77.3282	3,604.98	76.3669	3,604.98	78.7528	3,604.98	75.1788	3,604.98	75.0734	3,604.98	80.1555	3,604.98	68.0877	3,604.98	79.9795	3,604.98	78.1358
3,732.42	101.745	3,732.42	98.5302	3,732.42	98.8763	3,732.42	98.6903	3,732.42	97.8113	3,732.42	98.1031	3,732.42	98.1362	3,732.42	97.1565	3,732.42	97.0306	3,732.42	94.4101	3,732.42	89.7218	3,732.42	92.5713	3,732.42	96.6782	3,732.42	89.897	3,732.42	95.132	3,732.42	87.1366	3,732.42	90.7228	3,732.42	85.5429	3,732.42	90.0231	3,732.42	82.5197	3,732.42	92.0105	3,732.42	81.2928	3,732.42	82.7671	3,732.42	78.4365	3,732.42	84.3264	3,732.42	83.1813	3,732.42	78.7061	3,732.42	80.662	3,732.42	70.2796	3,732.42	78.4279	3,732.42	77.1216	3,732.42	65.2409	3,732.42	78.8604	3,732.42	70.6973	3,732.42	79.6577	3,732.42	78.7875
3,864.26	100.447	3,864.26	98.2952	3,864.26	99.1538	3,864.26	99.3836	3,864.26	98.1905	3,864.26	97.379	3,864.26	98.4532	3,864.26	96.3816	3,864.26	97.0086	3,864.26	95.3281	3,864.26	90.5353	3,864.26	92.4301	3,864.26	96.9205	3,864.26	91.1417	3,864.26	93.1233	3,864.26	90.9509	3,864.26	90.7684	3,864.26	86.807	3,864.26	83.9153	3,864.26	85.9742	3,864.26	88.921	3,864.26	83.5829	3,864.26	81.816	3,864.26	81.8183	3,864.26	83.0666	3,864.26	81.0891	3,864.26	81.7857	3,864.26	82.3212	3,864.26	77.1408	3,864.26	82.724	3,864.26	78.5861	3,864.26	79.4397	3,864.26	81.6503	3,864.26	66.75	3,864.26	81.399	3,864.26	75.1063
4,000.49	100.012	4,000.49	98.9699	4,000.49	98.9024	4,000.49	98.4907	4,000.49	97.4618	4,000.49	97.3026	4,000.49	98.3683	4,000.49	95.5703	4,000.49	95.7318	4,000.49	94.3817	4,000.49	91.5779	4,000.49	91.2163	4,000.49	94.6646	4,000.49	89.9676	4,000.49	91.1428	4,000.49	84.7044	4,000.49	90.2712	4,000.49	85.049	4,000.49	82.7421	4,000.49	83.3263	4,000.49	86.5412	4,000.49	79.7466	4,000.49	71.4258	4,000.49	80.8307	4,000.49	78.8919	4,000.49	77.1632	4,000.49	79.7572	4,000.49	78.9203	4,000.49	77.695	4,000.49	79.662	4,000.49	79.1915	4,000.49	78.7117	4,000.49	79.9146	4,000.49	68.9504	4,000.49	79.1094	4,000.49	72.3579
4,141.11	100.728	4,141.11	99.3108	4,141.11	100.494	4,141.11	98.4341	4,141.11	97.3984	4,141.11	97.8796	4,141.11	99.0972	4,141.11	96.2403	4,141.11	96.2899	4,141.11	92.8635	4,141.11	92.7059	4,141.11	92.1228	4,141.11	93.4241	4,141.11	89.1268	4,141.11	89.3585	4,141.11	89.1032	4,141.11	88.4049	4,141.11	85.516	4,141.11	82.6372	4,141.11	82.8034	4,141.11	82.1799	4,141.11	80.624	4,141.11	67.2821	4,141.11	79.9694	4,141.11	76.4338	4,141.11	74.5969	4,141.11	80.3988	4,141.11	80.1193	4,141.11	71.1957	4,141.11	79.8656	4,141.11	77.1418	4,141.11	73.2511	4,141.11	75.7405	4,141.11	67.7103	4,141.11	77.6181	4,141.11	70.2769
4,287.6	100.84	4,287.6	99.6081	4,287.6	100.42	4,287.6	99.4307	4,287.6	97.5736	4,287.6	97.2019	4,287.6	98.3671	4,287.6	93.9329	4,287.6	96.9848	4,287.6	93.4146	4,287.6	93.0131	4,287.6	88.9737	4,287.6	93.7128	4,287.6	89.1809	4,287.6	91.9639	4,287.6	81.8518	4,287.6	91.3322	4,287.6	84.3016	4,287.6	81.2737	4,287.6	80.1707	4,287.6	69.164	4,287.6	79.9407	4,287.6	77.141	4,287.6	79.4722	4,287.6	79.5422	4,287.6	78.1683	4,287.6	78.8919	4,287.6	74.3165	4,287.6	71.0388	4,287.6	77.0608	4,287.6	75.2858	4,287.6	77.028	4,287.6	71.1014	4,287.6	67.652	4,287.6	76.0681	4,287.6	69.7242
4,438.48	100.474	4,438.48	99.6127	4,438.48	100.732	4,438.48	98.6433	4,438.48	98.1957	4,438.48	97.5676	4,438.48	97.466	4,438.48	95.1554	4,438.48	95.9995	4,438.48	93.2356	4,438.48	93.4026	4,438.48	90.1924	4,438.48	93.4074	4,438.48	85.7746	4,438.48	94.2675	4,438.48	87.3015	4,438.48	91.2341	4,438.48	83.5187	4,438.48	74.8095	4,438.48	79.6986	4,438.48	77.7768	4,438.48	78.4308	4,438.48	76.7807	4,438.48	79.716	4,438.48	72.1727	4,438.48	78.7811	4,438.48	74.6259	4,438.48	75.2957	4,438.48	77.1629	4,438.48	75.392	4,438.48	77.914	4,438.48	73.7217	4,438.48	72.8298	4,438.48	61.9593	4,438.48	75.6053	4,438.48	72.8927
4,595.21	99.5056	4,595.21	99.9486	4,595.21	100.945	4,595.21	98.6745	4,595.21	98.2105	4,595.21	97.8922	4,595.21	98.0983	4,595.21	94.1338	4,595.21	95.2651	4,595.21	92.7972	4,595.21	93.0539	4,595.21	90.0867	4,595.21	92.1151	4,595.21	88.4204	4,595.21	94.0074	4,595.21	84.6498	4,595.21	86.0141	4,595.21	81.8711	4,595.21	77.7814	4,595.21	81.3869	4,595.21	80.0164	4,595.21	78.3988	4,595.21	78.8862	4,595.21	74.2778	4,595.21	76.7336	4,595.21	78.4998	4,595.21	72.4327	4,595.21	77.1237	4,595.21	75.9614	4,595.21	74.4034	4,595.21	76.7379	4,595.21	77.5447	4,595.21	60.1361	4,595.21	72.7651	4,595.21	76.6972	4,595.21	69.0818
4,756.35	100.815	4,756.35	100.443	4,756.35	100.789	4,756.35	99.6863	4,756.35	98.3607	4,756.35	97.4428	4,756.35	98.7499	4,756.35	96.0535	4,756.35	95.0934	4,756.35	92.2651	4,756.35	90.5194	4,756.35	89.7193	4,756.35	90.9305	4,756.35	86.4152	4,756.35	91.3539	4,756.35	86.6953	4,756.35	84.8331	4,756.35	82.3346	4,756.35	83.2412	4,756.35	80.9197	4,756.35	79.9279	4,756.35	78.4295	4,756.35	73.6549	4,756.35	79.1413	4,756.35	73.2437	4,756.35	78.2818	4,756.35	73.5712	4,756.35	73.9581	4,756.35	75.9791	4,756.35	74.9501	4,756.35	73.7996	4,756.35	75.949	4,756.35	74.3834	4,756.35	68.2748	4,756.35	73.0106	4,756.35	71.3239
4,924.8	100.662	4,924.8	100.533	4,924.8	101.297	4,924.8	99.3753	4,924.8	99.114	4,924.8	97.4983	4,924.8	98.4395	4,924.8	94.6448	4,924.8	96.4353	4,924.8	92.0224	4,924.8	88.0236	4,924.8	88.7716	4,924.8	90.303	4,924.8	88.0034	4,924.8	89.6442	4,924.8	82.033	4,924.8	82.8837	4,924.8	84.3262	4,924.8	80.2382	4,924.8	78.7982	4,924.8	75.2594	4,924.8	80.255	4,924.8	61.1096	4,924.8	78.4537	4,924.8	77.6973	4,924.8	77.0005	4,924.8	80.001	4,924.8	78.2195	4,924.8	78.0848	4,924.8	77.7419	4,924.8	74.1122	4,924.8	77.1365	4,924.8	73.6512	4,924.8	74.6409	4,924.8	73.3717	4,924.8	69.3768
5,097.66	100.378	5,097.66	99.7881	5,097.66	100.287	5,097.66	99.5894	5,097.66	100.408	5,097.66	97.6274	5,097.66	98.1966	5,097.66	94.6872	5,097.66	96.5024	5,097.66	91.6235	5,097.66	89.6806	5,097.66	88.8236	5,097.66	88.697	5,097.66	87.0444	5,097.66	85.5522	5,097.66	84.8832	5,097.66	81.652	5,097.66	79.0118	5,097.66	79.4449	5,097.66	80.3971	5,097.66	74.9461	5,097.66	76.8439	5,097.66	67.7349	5,097.66	75.9842	5,097.66	78.3953	5,097.66	76.2806	5,097.66	78.9754	5,097.66	77.9031	5,097.66	63.1601	5,097.66	77.8757	5,097.66	72.167	5,097.66	77.966	5,097.66	72.8422	5,097.66	76.8674	5,097.66	77.3279	5,097.66	68.7047
5,277.83	100.58	5,277.83	100.706	5,277.83	100.457	5,277.83	99.8188	5,277.83	99.614	5,277.83	97.703	5,277.83	97.8869	5,277.83	94.0533	5,277.83	96.7454	5,277.83	92.6363	5,277.83	90.7726	5,277.83	87.2994	5,277.83	84.503	5,277.83	87.1267	5,277.83	81.9025	5,277.83	84.4003	5,277.83	87.4751	5,277.83	84.2145	5,277.83	82.2478	5,277.83	78.8408	5,277.83	81.2619	5,277.83	78.116	5,277.83	76.9599	5,277.83	79.0471	5,277.83	70.2402	5,277.83	75.6068	5,277.83	80.5543	5,277.83	75.7417	5,277.83	71.9365	5,277.83	80.3398	5,277.83	75.8993	5,277.83	79.1463	5,277.83	69.8983	5,277.83	76.6432	5,277.83	71.7691	5,277.83	67.1324
5,463.87	100.573	5,463.87	99.9892	5,463.87	100.285	5,463.87	99.4843	5,463.87	98.8318	5,463.87	97.0764	5,463.87	97.6333	5,463.87	94.0542	5,463.87	98.4332	5,463.87	91.8092	5,463.87	89.4257	5,463.87	88.8822	5,463.87	83.5278	5,463.87	87.5747	5,463.87	84.3101	5,463.87	84.409	5,463.87	88.6068	5,463.87	81.127	5,463.87	79.5257	5,463.87	81.1972	5,463.87	76.3172	5,463.87	76.8992	5,463.87	74.8539	5,463.87	76.8586	5,463.87	76.3512	5,463.87	77.4591	5,463.87	80.6456	5,463.87	72.7123	5,463.87	66.4268	5,463.87	75.6779	5,463.87	76.0854	5,463.87	79.2604	5,463.87	70.3159	5,463.87	73.3263	5,463.87	72.3958	5,463.87	66.2664
5,657.23	100.641	5,657.23	99.6659	5,657.23	100.191	5,657.23	99.111	5,657.23	100.173	5,657.23	96.7947	5,657.23	96.7638	5,657.23	94.1332	5,657.23	98.9101	5,657.23	91.9034	5,657.23	89.4838	5,657.23	88.8977	5,657.23	82.8989	5,657.23	86.3847	5,657.23	88.9893	5,657.23	83.7865	5,657.23	90.6444	5,657.23	80.2022	5,657.23	80.5677	5,657.23	79.2547	5,657.23	80.5855	5,657.23	75.6973	5,657.23	78.583	5,657.23	76.9259	5,657.23	74.8336	5,657.23	75.6326	5,657.23	80.864	5,657.23	76.1402	5,657.23	72.1999	5,657.23	74.0193	5,657.23	72.5848	5,657.23	75.9738	5,657.23	72.6147	5,657.23	74.1541	5,657.23	67.4114	5,657.23	67.629
5,856.45	100.605	5,856.45	99.7428	5,856.45	99.0692	5,856.45	99.3916	5,856.45	100.231	5,856.45	96.8984	5,856.45	95.8382	5,856.45	93.7754	5,856.45	98.0981	5,856.45	91.8917	5,856.45	90.1316	5,856.45	88.0546	5,856.45	84.9948	5,856.45	85.769	5,856.45	91.3725	5,856.45	83.7281	5,856.45	89.8523	5,856.45	82.7242	5,856.45	85.095	5,856.45	80.2673	5,856.45	77.7903	5,856.45	76.689	5,856.45	75.9928	5,856.45	77.6178	5,856.45	71.7155	5,856.45	78.1115	5,856.45	78.8469	5,856.45	76.276	5,856.45	71.9596	5,856.45	75.9694	5,856.45	74.3692	5,856.45	78.4448	5,856.45	69.174	5,856.45	76.4697	5,856.45	70.7393	5,856.45	69.775
6,062.99	100.486	6,062.99	99.8563	6,062.99	99.6847	6,062.99	98.3709	6,062.99	98.2201	6,062.99	97.2143	6,062.99	96.4945	6,062.99	93.3381	6,062.99	96.4968	6,062.99	91.4874	6,062.99	89.7129	6,062.99	88.7157	6,062.99	86.529	6,062.99	87.1201	6,062.99	92.7965	6,062.99	84.0299	6,062.99	88.6008	6,062.99	82.1779	6,062.99	83.5487	6,062.99	79.0542	6,062.99	81.7569	6,062.99	78.4772	6,062.99	67.7749	6,062.99	76.3481	6,062.99	75.0744	6,062.99	76.4319	6,062.99	77.8868	6,062.99	75.9699	6,062.99	68.4362	6,062.99	75.9437	6,062.99	75.2419	6,062.99	80.0339	6,062.99	64.7246	6,062.99	76.6627	6,062.99	66.4886	6,062.99	65.7672
6,276.86	100.161	6,276.86	99.1607	6,276.86	99.8525	6,276.86	97.9932	6,276.86	98.9234	6,276.86	96.7169	6,276.86	95.1453	6,276.86	93.5953	6,276.86	94.1599	6,276.86	91.6781	6,276.86	88.9004	6,276.86	90.4126	6,276.86	88.2923	6,276.86	87.9708	6,276.86	93.4344	6,276.86	85.2408	6,276.86	87.002	6,276.86	81.8899	6,276.86	81.4496	6,276.86	77.3658	6,276.86	76.5979	6,276.86	76.9061	6,276.86	67.8684	6,276.86	76.6022	6,276.86	66.7443	6,276.86	77.6933	6,276.86	75.025	6,276.86	76.1765	6,276.86	65.7124	6,276.86	75.8911	6,276.86	73.2439	6,276.86	79.6519	6,276.86	70.3777	6,276.86	76.8403	6,276.86	69.4291	6,276.86	66.4718
6,498.05	100.049	6,498.05	99.5533	6,498.05	99.9282	6,498.05	97.9205	6,498.05	99.2312	6,498.05	95.9803	6,498.05	94.2173	6,498.05	94.1668	6,498.05	91.9188	6,498.05	91.8012	6,498.05	91.6649	6,498.05	90.6118	6,498.05	84.0895	6,498.05	86.7135	6,498.05	91.975	6,498.05	84.4008	6,498.05	82.4217	6,498.05	83.8162	6,498.05	85.7701	6,498.05	80.5201	6,498.05	77.9198	6,498.05	79.263	6,498.05	68.9985	6,498.05	75.0687	6,498.05	64.1327	6,498.05	76.2537	6,498.05	75.9041	6,498.05	75.0147	6,498.05	66.5591	6,498.05	76.0844	6,498.05	69.7863	6,498.05	79.5685	6,498.05	69.4684	6,498.05	76.1194	6,498.05	63.8657	6,498.05	68.2008
6,726.56	99.9752	6,726.56	99.1227	6,726.56	99.8225	6,726.56	97.1925	6,726.56	97.7841	6,726.56	95.8032	6,726.56	94.8865	6,726.56	93.7783	6,726.56	90.8224	6,726.56	92.1679	6,726.56	92.1665	6,726.56	89.604	6,726.56	84.7506	6,726.56	88.5697	6,726.56	90.642	6,726.56	84.136	6,726.56	85.1268	6,726.56	82.3328	6,726.56	86.7419	6,726.56	78.4594	6,726.56	74.3586	6,726.56	79.5933	6,726.56	62.1826	6,726.56	75.7329	6,726.56	59.332	6,726.56	75.769	6,726.56	71.7943	6,726.56	76.0855	6,726.56	74.4741	6,726.56	77.2773	6,726.56	72.684	6,726.56	78.6387	6,726.56	64.5882	6,726.56	77.0759	6,726.56	64.9389	6,726.56	70.0581
6,963.87	100.406	6,963.87	99.0357	6,963.87	99.6611	6,963.87	97.3831	6,963.87	97.2677	6,963.87	95.7657	6,963.87	96.2898	6,963.87	94.0813	6,963.87	87.9487	6,963.87	92.3736	6,963.87	94.2588	6,963.87	89.9053	6,963.87	84.2714	6,963.87	87.8832	6,963.87	89.008	6,963.87	84.3594	6,963.87	88.7931	6,963.87	82.3055	6,963.87	85.436	6,963.87	77.9796	6,963.87	67.4246	6,963.87	75.8873	6,963.87	69.5906	6,963.87	75.6064	6,963.87	58.4033	6,963.87	76.7079	6,963.87	54.8647	6,963.87	75.1853	6,963.87	76.3928	6,963.87	74.3469	6,963.87	73.741	6,963.87	77.7145	6,963.87	71.72	6,963.87	77.4345	6,963.87	65.209	6,963.87	67.3897
7,209.96	100.379	7,209.96	99.2866	7,209.96	100.315	7,209.96	97.8219	7,209.96	97.03	7,209.96	96.1702	7,209.96	95.6536	7,209.96	94.1141	7,209.96	90.4032	7,209.96	91.7569	7,209.96	95.461	7,209.96	90.1727	7,209.96	85.522	7,209.96	87.5595	7,209.96	88.8433	7,209.96	85.102	7,209.96	89.452	7,209.96	82.1324	7,209.96	84.5916	7,209.96	80.3304	7,209.96	71.2391	7,209.96	79.0068	7,209.96	66.5542	7,209.96	75.4877	7,209.96	54.957	7,209.96	77.5383	7,209.96	66.0747	7,209.96	74.8534	7,209.96	73.8713	7,209.96	74.5552	7,209.96	75.3461	7,209.96	77.4315	7,209.96	68.7341	7,209.96	78.5136	7,209.96	64.7607	7,209.96	70.0428
7,464.84	99.9579	7,464.84	99.1611	7,464.84	99.9342	7,464.84	97.6249	7,464.84	97.9648	7,464.84	96.2796	7,464.84	93.9596	7,464.84	93.7998	7,464.84	95.014	7,464.84	92.1795	7,464.84	94.6678	7,464.84	90.4268	7,464.84	89.2599	7,464.84	88.2068	7,464.84	88.4188	7,464.84	84.7246	7,464.84	88.4845	7,464.84	81.5105	7,464.84	80.7438	7,464.84	79.1458	7,464.84	77.9139	7,464.84	73.8172	7,464.84	71.2483	7,464.84	75.2901	7,464.84	58.6069	7,464.84	77.4825	7,464.84	71.358	7,464.84	71.3784	7,464.84	68.2731	7,464.84	72.7157	7,464.84	74.9288	7,464.84	75.7926	7,464.84	56.4226	7,464.84	76.6615	7,464.84	67.0047	7,464.84	68.5957
7,727.05	100.446	7,727.05	99.4677	7,727.05	100.476	7,727.05	98.0354	7,727.05	97.6834	7,727.05	96.2397	7,727.05	96.5388	7,727.05	93.7164	7,727.05	97.3446	7,727.05	92.3488	7,727.05	94.3342	7,727.05	89.787	7,727.05	89.3699	7,727.05	86.4599	7,727.05	86.1014	7,727.05	82.5679	7,727.05	86.0805	7,727.05	79.1811	7,727.05	76.6061	7,727.05	77.8716	7,727.05	76.3528	7,727.05	76.2337	7,727.05	71.4898	7,727.05	74.5787	7,727.05	57.8761	7,727.05	75.4553	7,727.05	68.8414	7,727.05	72.0156	7,727.05	68.1478	7,727.05	70.6824	7,727.05	70.351	7,727.05	76.1435	7,727.05	65.9353	7,727.05	77.7012	7,727.05	66.8318	7,727.05	70.0933
7,999.51	99.8426	7,999.51	99.0259	7,999.51	100.294	7,999.51	97.5421	7,999.51	99.269	7,999.51	95.8081	7,999.51	97.3494	7,999.51	94.329	7,999.51	98.131	7,999.51	91.4151	7,999.51	93.4883	7,999.51	90.0123	7,999.51	90.7913	7,999.51	86.2085	7,999.51	81.8277	7,999.51	84.3061	7,999.51	82.1715	7,999.51	81.2174	7,999.51	77.8273	7,999.51	78.1142	7,999.51	75.8762	7,999.51	74.4925	7,999.51	69.2458	7,999.51	74.9756	7,999.51	65.6541	7,999.51	76.1352	7,999.51	67.277	7,999.51	75.0847	7,999.51	70.3479	7,999.51	72.6015	7,999.51	69.2023	7,999.51	75.0657	7,999.51	68.4683	7,999.51	75.3839	7,999.51	68.6413	7,999.51	70.6019
8,282.23	99.966	8,282.23	99.6398	8,282.23	99.7056	8,282.23	97.9183	8,282.23	98.3872	8,282.23	96.1761	8,282.23	97.0463	8,282.23	93.6619	8,282.23	95.7025	8,282.23	92.2684	8,282.23	92.6762	8,282.23	89.7522	8,282.23	91.2037	8,282.23	87.143	8,282.23	74.9003	8,282.23	82.2007	8,282.23	83.3227	8,282.23	78.5148	8,282.23	78.1426	8,282.23	76.9537	8,282.23	74.0012	8,282.23	75.4995	8,282.23	66.8206	8,282.23	74.0859	8,282.23	65.8059	8,282.23	73.5571	8,282.23	55.4871	8,282.23	74.8244	8,282.23	67.6395	8,282.23	73.1598	8,282.23	70.7207	8,282.23	75.3021	8,282.23	61.7242	8,282.23	75.1606	8,282.23	67.7686	8,282.23	69.7323
8,573.73	99.7619	8,573.73	98.8877	8,573.73	99.7771	8,573.73	97.5765	8,573.73	98.0483	8,573.73	95.7815	8,573.73	95.9534	8,573.73	94.4602	8,573.73	93.4277	8,573.73	92.3431	8,573.73	92.6947	8,573.73	90.2031	8,573.73	89.2999	8,573.73	84.5564	8,573.73	75.3021	8,573.73	82.9255	8,573.73	85.5378	8,573.73	77.7468	8,573.73	77.9147	8,573.73	75.9677	8,573.73	77.0476	8,573.73	74.216	8,573.73	62.5446	8,573.73	75.494	8,573.73	66.5007	8,573.73	74.2813	8,573.73	66.7412	8,573.73	75.0607	8,573.73	71.059	8,573.73	74.2069	8,573.73	64.5589	8,573.73	72.8163	8,573.73	66.1596	8,573.73	73.7874	8,573.73	64.9858	8,573.73	69.1913
8,876.95	100.198	8,876.95	99.282	8,876.95	99.0374	8,876.95	98.0476	8,876.95	98.966	8,876.95	95.9872	8,876.95	97.9111	8,876.95	94.8921	8,876.95	93.5576	8,876.95	92.4482	8,876.95	92.5599	8,876.95	89.0976	8,876.95	89.5729	8,876.95	85.8	8,876.95	79.9352	8,876.95	81.3586	8,876.95	88.968	8,876.95	79.1752	8,876.95	84.2937	8,876.95	78.1137	8,876.95	73.4015	8,876.95	71.3058	8,876.95	62.4844	8,876.95	73.5918	8,876.95	71.9732	8,876.95	76.1864	8,876.95	71.3765	8,876.95	76.4269	8,876.95	70.5994	8,876.95	73.8333	8,876.95	67.3018	8,876.95	72.4873	8,876.95	63.4947	8,876.95	72.5566	8,876.95	63.4918	8,876.95	68.6302
9,188.96	99.3395	9,188.96	99.4278	9,188.96	98.9982	9,188.96	97.3858	9,188.96	97.4509	9,188.96	96.3095	9,188.96	98.7752	9,188.96	94.8954	9,188.96	94.2348	9,188.96	92.6686	9,188.96	89.7649	9,188.96	89.3417	9,188.96	86.262	9,188.96	84.121	9,188.96	80.6916	9,188.96	82.5402	9,188.96	88.2097	9,188.96	79.8094	9,188.96	83.4479	9,188.96	74.8559	9,188.96	72.9648	9,188.96	74.7076	9,188.96	65.2995	9,188.96	73.6564	9,188.96	70.088	9,188.96	74.0151	9,188.96	69.0438	9,188.96	75.7936	9,188.96	67.3986	9,188.96	75.3496	9,188.96	63.2738	9,188.96	71.5769	9,188.96	67.6151	9,188.96	72.9027	9,188.96	64.1351	9,188.96	70.4846
9,514.16	99.7109	9,514.16	99.323	9,514.16	98.8215	9,514.16	97.9712	9,514.16	98.3056	9,514.16	96.4379	9,514.16	97.71	9,514.16	95.6384	9,514.16	93.0998	9,514.16	92.1654	9,514.16	88.4664	9,514.16	89.4895	9,514.16	88.7543	9,514.16	85.0781	9,514.16	77.9604	9,514.16	82.5351	9,514.16	85.5179	9,514.16	77.8723	9,514.16	83.4662	9,514.16	75.6579	9,514.16	77.5739	9,514.16	73.9622	9,514.16	59.7131	9,514.16	75.497	9,514.16	66.0816	9,514.16	75.0553	9,514.16	72.393	9,514.16	73.0441	9,514.16	67.4759	9,514.16	73.7919	9,514.16	65.8763	9,514.16	70.1195	9,514.16	64.3328	9,514.16	72.3043	9,514.16	62.3501	9,514.16	69.4184
9,849.61	99.2398	9,849.61	99.4987	9,849.61	98.6877	9,849.61	97.65	9,849.61	98.3392	9,849.61	97.0494	9,849.61	97.4111	9,849.61	95.3642	9,849.61	93.5241	9,849.61	91.9749	9,849.61	89.4006	9,849.61	89.9716	9,849.61	92.0062	9,849.61	84.9158	9,849.61	78.9573	9,849.61	82.8521	9,849.61	82.2963	9,849.61	80.4341	9,849.61	78.2483	9,849.61	75.309	9,849.61	79.4764	9,849.61	70.176	9,849.61	61.9993	9,849.61	71.7637	9,849.61	66.5195	9,849.61	74.7417	9,849.61	68.4194	9,849.61	72.2793	9,849.61	67.2864	9,849.61	71.107	9,849.61	63.813	9,849.61	67.5652	9,849.61	58.6797	9,849.61	69.8774	9,849.61	62.3062	9,849.61	67.9835
10,196.8	99.3553	10,196.8	99.598	10,196.8	98.5855	10,196.8	98.0484	10,196.8	98.9285	10,196.8	97.4421	10,196.8	97.9066	10,196.8	95.3341	10,196.8	94.6096	10,196.8	92.3331	10,196.8	90.4954	10,196.8	89.6758	10,196.8	91.4828	10,196.8	85.9515	10,196.8	84.1105	10,196.8	83.3439	10,196.8	82.6158	10,196.8	79.8197	10,196.8	77.3561	10,196.8	73.9567	10,196.8	74.9637	10,196.8	76.0098	10,196.8	69.3785	10,196.8	74.1088	10,196.8	62.0729	10,196.8	73.2107	10,196.8	69.0623	10,196.8	72.8335	10,196.8	64.5257	10,196.8	73.2386	10,196.8	61.6113	10,196.8	70.3175	10,196.8	52.72	10,196.8	71.104	10,196.8	57.884	10,196.8	69.9638
10,555.7	99.0936	10,555.7	99.3921	10,555.7	98.1867	10,555.7	98.4647	10,555.7	98.708	10,555.7	97.6943	10,555.7	97.5423	10,555.7	95.1707	10,555.7	95.1571	10,555.7	91.1424	10,555.7	92.8329	10,555.7	91.0469	10,555.7	89.3281	10,555.7	85.6573	10,555.7	85.9175	10,555.7	83.3719	10,555.7	79.002	10,555.7	78.3949	10,555.7	78.5582	10,555.7	73.6875	10,555.7	66.0774	10,555.7	72.0648	10,555.7	69.7309	10,555.7	73.174	10,555.7	68.6349	10,555.7	73.6757	10,555.7	62.9756	10,555.7	72.8017	10,555.7	62.8102	10,555.7	73.0532	10,555.7	59.7513	10,555.7	68.9908	10,555.7	66.5897	10,555.7	69.7505	10,555.7	60.825	10,555.7	65.6844
10,927.7	98.8266	10,927.7	99.314	10,927.7	98.7288	10,927.7	98.5614	10,927.7	99.1376	10,927.7	98.0209	10,927.7	97.2861	10,927.7	94.6099	10,927.7	96.3858	10,927.7	92.0312	10,927.7	93.2727	10,927.7	90.2032	10,927.7	83.8629	10,927.7	85.6006	10,927.7	87.4616	10,927.7	80.2534	10,927.7	76.4139	10,927.7	77.0961	10,927.7	77.8252	10,927.7	74.5306	10,927.7	52.3451	10,927.7	69.2301	10,927.7	58.5951	10,927.7	67.4313	10,927.7	67.9367	10,927.7	74.9127	10,927.7	60.2506	10,927.7	73.3815	10,927.7	61.7767	10,927.7	74.4981	10,927.7	59.9364	10,927.7	69.747	10,927.7	67.4989	10,927.7	69.2082	10,927.7	57.0357	10,927.7	68.0709
11,313	99.3974	11,313	98.9645	11,313	98.8091	11,313	99.368	11,313	99.3053	11,313	97.6273	11,313	98.367	11,313	95.1941	11,313	96.0302	11,313	91.7902	11,313	92.8601	11,313	90.5663	11,313	83.5814	11,313	84.377	11,313	87.2014	11,313	80.5784	11,313	74.7898	11,313	76.7631	11,313	78.6615	11,313	72.8948	11,313	72.7081	11,313	73.0769	11,313	62.8112	11,313	68.7692	11,313	62.5945	11,313	72.849	11,313	64.9206	11,313	72.6256	11,313	63.9	11,313	74.0421	11,313	53.3589	11,313	70.2762	11,313	65.433	11,313	70.4509	11,313	52.3914	11,313	69.4371
11,712.9	99.4381	11,712.9	99.3568	11,712.9	99.467	11,712.9	99.5807	11,712.9	98.8326	11,712.9	98.1398	11,712.9	98.4303	11,712.9	94.8384	11,712.9	94.8749	11,712.9	92.3161	11,712.9	91.9746	11,712.9	89.9393	11,712.9	85.7556	11,712.9	84.0284	11,712.9	85.5495	11,712.9	78.9906	11,712.9	70.9359	11,712.9	75.044	11,712.9	67.8031	11,712.9	69.5307	11,712.9	65.0688	11,712.9	69.8382	11,712.9	67.3422	11,712.9	67.657	11,712.9	64.7925	11,712.9	71.5507	11,712.9	58.5663	11,712.9	71.4033	11,712.9	63.1176	11,712.9	71.1094	11,712.9	56.0454	11,712.9	69.0969	11,712.9	58.497	11,712.9	68.5488	11,712.9	56.5172	11,712.9	66.1293
12,126	99.3961	12,126	99.722	12,126	99.991	12,126	100.022	12,126	99.2436	12,126	97.7495	12,126	97.751	12,126	95.4606	12,126	96.7488	12,126	91.6274	12,126	91.2397	12,126	89.6177	12,126	83.9873	12,126	83.0642	12,126	86.4353	12,126	79.3804	12,126	75.1224	12,126	75.218	12,126	75.0168	12,126	72.7821	12,126	53.5984	12,126	67.0351	12,126	65.4153	12,126	65.4367	12,126	62.1229	12,126	71.8077	12,126	52.1832	12,126	69.7839	12,126	64.4582	12,126	70.5091	12,126	55.3216	12,126	67.809	12,126	54.5496	12,126	66.5563	12,126	59.871	12,126	63.0389
12,553.7	99.6897	12,553.7	99.9819	12,553.7	100.121	12,553.7	99.9767	12,553.7	99.5138	12,553.7	97.5468	12,553.7	98.2404	12,553.7	95.3398	12,553.7	96.042	12,553.7	91.3407	12,553.7	89.4077	12,553.7	88.4207	12,553.7	85.6062	12,553.7	82.8225	12,553.7	84.9151	12,553.7	78.5865	12,553.7	73.6697	12,553.7	75.3535	12,553.7	74.4522	12,553.7	72.351	12,553.7	64.1605	12,553.7	67.6221	12,553.7	48.7364	12,553.7	65.7787	12,553.7	64.0697	12,553.7	71.2609	12,553.7	54.4637	12,553.7	69.4266	12,553.7	66.2491	12,553.7	69.8206	12,553.7	57.7684	12,553.7	67.5854	12,553.7	48.3994	12,553.7	67.0122	12,553.7	52.7337	12,553.7	63.3534
12,996.1	100.277	12,996.1	100.524	12,996.1	100.675	12,996.1	100.096	12,996.1	99.47	12,996.1	97.5308	12,996.1	97.3592	12,996.1	95.408	12,996.1	93.6065	12,996.1	90.2229	12,996.1	87.8338	12,996.1	88.3722	12,996.1	84.8672	12,996.1	82.0507	12,996.1	82.8445	12,996.1	76.9603	12,996.1	64.4074	12,996.1	72.9927	12,996.1	74.0974	12,996.1	70.5721	12,996.1	73.097	12,996.1	65.0342	12,996.1	50.5523	12,996.1	66.7411	12,996.1	63.1434	12,996.1	70.325	12,996.1	57.8247	12,996.1	68.2915	12,996.1	61.2801	12,996.1	69.0862	12,996.1	59.37	12,996.1	67.4637	12,996.1	51.6862	12,996.1	64.4317	12,996.1	36.2859	12,996.1	62.549
13,454.6	100.804	13,454.6	100.694	13,454.6	101.079	13,454.6	100.221	13,454.6	100.009	13,454.6	97.639	13,454.6	97.8491	13,454.6	94.7703	13,454.6	93.4197	13,454.6	90.1536	13,454.6	88.2878	13,454.6	87.1925	13,454.6	84.7576	13,454.6	80.8719	13,454.6	80.0024	13,454.6	75.4687	13,454.6	68.2019	13,454.6	71.6533	13,454.6	67.6003	13,454.6	69.4596	13,454.6	63.6415	13,454.6	62.1694	13,454.6	60.5317	13,454.6	62.9949	13,454.6	60.2248	13,454.6	68.6037	13,454.6	58.9433	13,454.6	67.2807	13,454.6	61.5013	13,454.6	68.4673	13,454.6	51.8065	13,454.6	64.2963	13,454.6	42.9338	13,454.6	60.4929	13,454.6	52.3309	13,454.6	55.3362
13,929.2	101.298	13,929.2	101.104	13,929.2	101.49	13,929.2	100.203	13,929.2	99.9911	13,929.2	97.6631	13,929.2	97.9083	13,929.2	94.4734	13,929.2	93.5791	13,929.2	88.7423	13,929.2	87.3727	13,929.2	86.2079	13,929.2	84.4927	13,929.2	79.2307	13,929.2	78.1116	13,929.2	73.0813	13,929.2	72.882	13,929.2	70.659	13,929.2	60.8161	13,929.2	67.4041	13,929.2	62.0862	13,929.2	56.7899	13,929.2	64.6207	13,929.2	61.3448	13,929.2	58.4801	13,929.2	65.9475	13,929.2	54.5981	13,929.2	66.9742	13,929.2	62.9136	13,929.2	66.5591	13,929.2	52.5949	13,929.2	60.8915	13,929.2	48.3966	13,929.2	55.1882	13,929.2	53.4174	13,929.2	50.7404
14,419.9	101.756	14,419.9	101.17	14,419.9	101.695	14,419.9	99.8103	14,419.9	100.338	14,419.9	97.3664	14,419.9	97.3767	14,419.9	93.9284	14,419.9	92.8689	14,419.9	87.7633	14,419.9	86.6464	14,419.9	84.5812	14,419.9	81.9753	14,419.9	78.1026	14,419.9	71.6452	14,419.9	71.857	14,419.9	70.2968	14,419.9	68.7458	14,419.9	65.1318	14,419.9	64.5929	14,419.9	64.8369	14,419.9	52.2045	14,419.9	64.5101	14,419.9	61.0062	14,419.9	55.4051	14,419.9	64.3373	14,419.9	50.1941	14,419.9	64.1168	14,419.9	61.4402	14,419.9	64.8518	14,419.9	56.0779	14,419.9	59.859	14,419.9	50.9211	14,419.9	56.9083	14,419.9	32.8093	14,419.9	46.0917
14,928.2	102.051	14,928.2	101.406	14,928.2	101.935	14,928.2	99.8436	14,928.2	100.588	14,928.2	97.0312	14,928.2	97.464	14,928.2	93.4637	14,928.2	92.1238	14,928.2	86.8396	14,928.2	86.2818	14,928.2	82.8225	14,928.2	78.2683	14,928.2	76.0101	14,928.2	68.4943	14,928.2	70.6988	14,928.2	68.3418	14,928.2	66.8208	14,928.2	54.4766	14,928.2	62.6145	14,928.2	63.1339	14,928.2	51.8269	14,928.2	66.7404	14,928.2	61.0395	14,928.2	50.2128	14,928.2	64.4988	14,928.2	47.9426	14,928.2	58.992	14,928.2	57.7984	14,928.2	60.3507	14,928.2	56.4972	14,928.2	52.7357	14,928.2	55.3074	14,928.2	49.6894	14,928.2	40.1275	14,928.2	41.4921
15,455.6	102.185	15,455.6	101.447	15,455.6	102.065	15,455.6	99.8222	15,455.6	100.622	15,455.6	96.8447	15,455.6	96.7775	15,455.6	92.7456	15,455.6	92.2171	15,455.6	85.8742	15,455.6	84.974	15,455.6	81.6116	15,455.6	77.7799	15,455.6	73.5563	15,455.6	70.5158	15,455.6	67.792	15,455.6	67.8018	15,455.6	64.1804	15,455.6	50.0361	15,455.6	59.2585	15,455.6	61.4024	15,455.6	49.5589	15,455.6	68.497	15,455.6	58.1472	15,455.6	54.7714	15,455.6	62.9465	15,455.6	54.9271	15,455.6	51.748	15,455.6	60.1931	15,455.6	58.5339	15,455.6	54.3323	15,455.6	42.0191	15,455.6	55.1028	15,455.6	39.5518	15,455.6	43.8723	15,455.6	43.9003
16,000.5	102.069	16,000.5	101.392	16,000.5	101.794	16,000.5	99.6629	16,000.5	100.32	16,000.5	96.3602	16,000.5	96.5545	16,000.5	92.0373	16,000.5	90.7246	16,000.5	84.153	16,000.5	84.7892	16,000.5	79.5671	16,000.5	79.3461	16,000.5	71.7573	16,000.5	61.5774	16,000.5	61.7804	16,000.5	69.8282	16,000.5	57.9274	16,000.5	58.1982	16,000.5	52.8435	16,000.5	59.8773	16,000.5	53.8199	16,000.5	67.7544	16,000.5	51.359	16,000.5	50.825	16,000.5	58.5921	16,000.5	52.8276	16,000.5	45.425	16,000.5	57.1382	16,000.5	54.6714	16,000.5	56.7848	16,000.5	40.7857	16,000.5	48.3641	16,000.5	45.5428	16,000.5	44.1496	16,000.5	48.1728
16,564.5	101.653	16,564.5	101.118	16,564.5	101.047	16,564.5	99.1543	16,564.5	99.4751	16,564.5	95.4226	16,564.5	95.5324	16,564.5	90.6493	16,564.5	89.7716	16,564.5	82.0864	16,564.5	82.985	16,564.5	77.2244	16,564.5	76.0909	16,564.5	66.8291	16,564.5	71.6117	16,564.5	50.1154	16,564.5	68.8802	16,564.5	54.398	16,564.5	58.2709	16,564.5	53.6133	16,564.5	60.3826	16,564.5	49.9785	16,564.5	66.8107	16,564.5	42.205	16,564.5	45.7059	16,564.5	42.2945	16,564.5	46.8284	16,564.5	39.2331	16,564.5	52.2983	16,564.5	44.8178	16,564.5	50.7673	16,564.5	42.6253	16,564.5	29.7095	16,564.5	43.8476	16,564.5	43.3184	16,564.5	45.3703
17,148.9	101.238	17,148.9	100.814	17,148.9	100.204	17,148.9	98.6017	17,148.9	98.5573	17,148.9	94.3982	17,148.9	94.9677	17,148.9	88.3983	17,148.9	89.2958	17,148.9	79.3024	17,148.9	80.9578	17,148.9	73.5723	17,148.9	73.7566	17,148.9	62.3359	17,148.9	70.3286	17,148.9	43.9087	17,148.9	69.2472	17,148.9	49.7188	17,148.9	51.8815	17,148.9	51.222	17,148.9	57.1421	17,148.9	54.7853	17,148.9	64.1263	17,148.9	51.5168	17,148.9	48.3872	17,148.9	55.9492	17,148.9	47.867	17,148.9	43.5895	17,148.9	49.9946	17,148.9	45.2997	17,148.9	48.5701	17,148.9	41.3957	17,148.9	49.3523	17,148.9	28.4742	17,148.9	44.2628	17,148.9	48.488
17,752.4	100.532	17,752.4	100.228	17,752.4	99.4122	17,752.4	97.8466	17,752.4	97.6063	17,752.4	93.1516	17,752.4	93.9197	17,752.4	86.4465	17,752.4	87.6642	17,752.4	76.2316	17,752.4	80.9497	17,752.4	71.4444	17,752.4	74.0372	17,752.4	61.3431	17,752.4	66.2091	17,752.4	51.3889	17,752.4	65.264	17,752.4	37.0802	17,752.4	56.8273	17,752.4	51.7996	17,752.4	48.2381	17,752.4	54.269	17,752.4	61.6073	17,752.4	50.0322	17,752.4	44.7697	17,752.4	52.4161	17,752.4	50.3153	17,752.4	44.0714	17,752.4	53.4488	17,752.4	48.1936	17,752.4	55.3505	17,752.4	41.9941	17,752.4	54.4	17,752.4	45.9704	17,752.4	51.1035	17,752.4	48.1304
18,379.4	99.8644	18,379.4	99.4392	18,379.4	98.549	18,379.4	96.8087	18,379.4	96.3955	18,379.4	91.3807	18,379.4	92.8091	18,379.4	84.4977	18,379.4	86.5494	18,379.4	74.5639	18,379.4	79.0424	18,379.4	71.6527	18,379.4	71.182	18,379.4	64.1389	18,379.4	64.9547	18,379.4	54.0328	18,379.4	57.7562	18,379.4	53.2416	18,379.4	49.3115	18,379.4	51.5393	18,379.4	54.8228	18,379.4	34.475	18,379.4	59.3831	18,379.4	29.3971	18,379.4	32.0969	18,379.4	44.6189	18,379.4	50.122	18,379.4	48.12	18,379.4	50.0834	18,379.4	51.3892	18,379.4	53.4688	18,379.4	45.5833	18,379.4	53.5849	18,379.4	49.6404	18,379.4	47.5682	18,379.4	47.0496
19,026.9	99.19	19,026.9	98.5929	19,026.9	97.8137	19,026.9	95.445	19,026.9	95.1505	19,026.9	89.3476	19,026.9	91.1128	19,026.9	81.8362	19,026.9	84.7599	19,026.9	74.0933	19,026.9	76.7218	19,026.9	73.4338	19,026.9	66.5458	19,026.9	67.3381	19,026.9	55.812	19,026.9	58.4904	19,026.9	54.7235	19,026.9	55.7671	19,026.9	48.0527	19,026.9	50.4766	19,026.9	58.9871	19,026.9	46.1958	19,026.9	53.8254	19,026.9	30.4008	19,026.9	39.212	19,026.9	41.6693	19,026.9	44.5581	19,026.9	43.3858	19,026.9	48.907	19,026.9	52.4655	19,026.9	48.4591	19,026.9	49.5123	19,026.9	48.9286	19,026.9	52.8963	19,026.9	41.7316	19,026.9	38.4604
19,697.8	98.5369	19,697.8	97.636	19,697.8	97.2058	19,697.8	94.066	19,697.8	94.0751	19,697.8	86.7775	19,697.8	88.954	19,697.8	78.4497	19,697.8	82.315	19,697.8	74.3037	19,697.8	73.4532	19,697.8	74.2207	19,697.8	64.4259	19,697.8	67.8316	19,697.8	60.8133	19,697.8	59.4915	19,697.8	35.9619	19,697.8	57.7145	19,697.8	47.1357	19,697.8	52.4165	19,697.8	57.2096	19,697.8	45.173	19,697.8	55.8578	19,697.8	38.4858	19,697.8	46.7698	19,697.8	43.7826	19,697.8	44.6239	19,697.8	52.1303	19,697.8	48.0725	19,697.8	46.7946	19,697.8	49.3364	19,697.8	49.258	19,697.8	49.6748	19,697.8	53.2759	19,697.8	42.3505	19,697.8	41.2829
19,999.5	98.2518	19,999.5	97.4421	19,999.5	96.8826	19,999.5	93.5407	19,999.5	93.5738	19,999.5	85.338	19,999.5	88.3078	19,999.5	77.4376	19,999.5	81.9372	19,999.5	74.3813	19,999.5	73.9434	19,999.5	75.6661	19,999.5	68.9001	19,999.5	68.5821	19,999.5	65.7515	19,999.5	61.2731	19,999.5	59.1361	19,999.5	59.5051	19,999.5	57.4195	19,999.5	55.2558	19,999.5	61.8262	19,999.5	59.7144	19,999.5	60.3595	19,999.5	54.2686	19,999.5	51.1669	19,999.5	48.9267	19,999.5	57.2877	19,999.5	59.6625	19,999.5	53.2544	19,999.5	59.4423	19,999.5	50.175	19,999.5	56.0507	19,999.5	54.9027	19,999.5	50.5939	19,999.5	51.5526	19,999.5	45.4598
