"SPL Horizontal"
"On-Axis"		"10°"		"-10°"		"20°"		"-20°"		"30°"		"-30°"		"40°"		"-40°"		"50°"		"-50°"		"60°"		"-60°"		"70°"		"-70°"		"80°"		"-80°"		"90°"		"-90°"		"100°"		"-100°"		"110°"		"-110°"		"120°"		"-120°"		"130°"		"-130°"		"140°"		"-140°"		"150°"		"-150°"		"160°"		"-160°"		"170°"		"-170°"		"180°"
"Frequency [Hz]"	"Sound Pessure Level [dB]  / [2.83V 1m] "	"Frequency [Hz]"	"Sound Pessure Level [dB]  / [2.83V 1m] "	"Frequency [Hz]"	"Sound Pessure Level [dB]  / [2.83V 1m] "	"Frequency [Hz]"	"Sound Pessure Level [dB]  / [2.83V 1m] "	"Frequency [Hz]"	"Sound Pessure Level [dB]  / [2.83V 1m] "	"Frequency [Hz]"	"Sound Pessure Level [dB]  / [2.83V 1m] "	"Frequency [Hz]"	"Sound Pessure Level [dB]  / [2.83V 1m] "	"Frequency [Hz]"	"Sound Pessure Level [dB]  / [2.83V 1m] "	"Frequency [Hz]"	"Sound Pessure Level [dB]  / [2.83V 1m] "	"Frequency [Hz]"	"Sound Pessure Level [dB]  / [2.83V 1m] "	"Frequency [Hz]"	"Sound Pessure Level [dB]  / [2.83V 1m] "	"Frequency [Hz]"	"Sound Pessure Level [dB]  / [2.83V 1m] "	"Frequency [Hz]"	"Sound Pessure Level [dB]  / [2.83V 1m] "	"Frequency [Hz]"	"Sound Pessure Level [dB]  / [2.83V 1m] "	"Frequency [Hz]"	"Sound Pessure Level [dB]  / [2.83V 1m] "	"Frequency [Hz]"	"Sound Pessure Level [dB]  / [2.83V 1m] "	"Frequency [Hz]"	"Sound Pessure Level [dB]  / [2.83V 1m] "	"Frequency [Hz]"	"Sound Pessure Level [dB]  / [2.83V 1m] "	"Frequency [Hz]"	"Sound Pessure Level [dB]  / [2.83V 1m] "	"Frequency [Hz]"	"Sound Pessure Level [dB]  / [2.83V 1m] "	"Frequency [Hz]"	"Sound Pessure Level [dB]  / [2.83V 1m] "	"Frequency [Hz]"	"Sound Pessure Level [dB]  / [2.83V 1m] "	"Frequency [Hz]"	"Sound Pessure Level [dB]  / [2.83V 1m] "	"Frequency [Hz]"	"Sound Pessure Level [dB]  / [2.83V 1m] "	"Frequency [Hz]"	"Sound Pessure Level [dB]  / [2.83V 1m] "	"Frequency [Hz]"	"Sound Pessure Level [dB]  / [2.83V 1m] "	"Frequency [Hz]"	"Sound Pessure Level [dB]  / [2.83V 1m] "	"Frequency [Hz]"	"Sound Pessure Level [dB]  / [2.83V 1m] "	"Frequency [Hz]"	"Sound Pessure Level [dB]  / [2.83V 1m] "	"Frequency [Hz]"	"Sound Pessure Level [dB]  / [2.83V 1m] "	"Frequency [Hz]"	"Sound Pessure Level [dB]  / [2.83V 1m] "	"Frequency [Hz]"	"Sound Pessure Level [dB]  / [2.83V 1m] "	"Frequency [Hz]"	"Sound Pessure Level [dB]  / [2.83V 1m] "	"Frequency [Hz]"	"Sound Pessure Level [dB]  / [2.83V 1m] "	"Frequency [Hz]"	"Sound Pessure Level [dB]  / [2.83V 1m] "	"Frequency [Hz]"	"Sound Pessure Level [dB]  / [2.83V 1m] "
20.5078	62.1752	20.5078	61.9122	20.5078	62.4557	20.5078	61.6719	20.5078	62.7478	20.5078	61.4599	20.5078	63.0444	20.5078	61.2821	20.5078	63.3362	20.5078	61.1436	20.5078	63.612	20.5078	61.0476	20.5078	63.8589	20.5078	60.9949	20.5078	64.0648	20.5078	60.9851	20.5078	64.2192	20.5078	61.0193	20.5078	64.3163	20.5078	61.1009	20.5078	64.3552	20.5078	61.235	20.5078	64.3405	20.5078	61.4259	20.5078	64.2804	20.5078	61.6727	20.5078	64.1835	20.5078	61.9664	20.5078	64.0564	20.5078	62.2905	20.5078	63.9013	20.5078	62.6236	20.5078	63.716	20.5078	62.9449	20.5078	63.4962	20.5078	63.2387
21.9727	61.3379	21.9727	61.2214	21.9727	61.5083	21.9727	61.1589	21.9727	61.729	21.9727	61.1483	21.9727	61.9928	21.9727	61.1861	21.9727	62.2891	21.9727	61.2673	21.9727	62.6056	21.9727	61.3852	21.9727	62.9294	21.9727	61.5329	21.9727	63.2481	21.9727	61.7051	21.9727	63.5511	21.9727	61.9005	21.9727	63.8299	21.9727	62.1218	21.9727	64.0775	21.9727	62.3728	21.9727	64.2881	21.9727	62.6541	21.9727	64.456	21.9727	62.9594	21.9727	64.5755	21.9727	63.2759	21.9727	64.6416	21.9727	63.5866	21.9727	64.6509	21.9727	63.8752	21.9727	64.6023	21.9727	64.1285	21.9727	64.497	21.9727	64.3378
23.4375	57.6712	23.4375	57.5014	23.4375	57.8121	23.4375	57.3054	23.4375	57.9249	23.4375	57.0922	23.4375	58.01	23.4375	56.8783	23.4375	58.0649	23.4375	56.6859	23.4375	58.084	23.4375	56.5375	23.4375	58.059	23.4375	56.4505	23.4375	57.9817	23.4375	56.4333	23.4375	57.8468	23.4375	56.4849	23.4375	57.6567	23.4375	56.5953	23.4375	57.4253	23.4375	56.7473	23.4375	57.1802	23.4375	56.9187	23.4375	56.9602	23.4375	57.0845	23.4375	56.8061	23.4375	57.2208	23.4375	56.746	23.4375	57.3076	23.4375	56.7834	23.4375	57.3313	23.4375	56.8954	23.4375	57.2879	23.4375	57.043	23.4375	57.1849
24.9023	60.4759	24.9023	60.396	24.9023	60.5507	24.9023	60.3116	24.9023	60.6189	24.9023	60.2231	24.9023	60.6771	24.9023	60.1316	24.9023	60.72	24.9023	60.0386	24.9023	60.7412	24.9023	59.9444	24.9023	60.7343	24.9023	59.8481	24.9023	60.6946	24.9023	59.7475	24.9023	60.6207	24.9023	59.6415	24.9023	60.5145	24.9023	59.5323	24.9023	60.3818	24.9023	59.4263	24.9023	60.2306	24.9023	59.3329	24.9023	60.0699	24.9023	59.2611	24.9023	59.9081	24.9023	59.2163	24.9023	59.7524	24.9023	59.1992	24.9023	59.6089	24.9023	59.208	24.9023	59.4829	24.9023	59.2409	24.9023	59.3783	24.9023	59.2976
26.3672	65.4966	26.3672	65.4885	26.3672	65.4934	26.3672	65.4687	26.3672	65.4798	26.3672	65.437	26.3672	65.4557	26.3672	65.3941	26.3672	65.4209	26.3672	65.3412	26.3672	65.3739	26.3672	65.28	26.3672	65.3127	26.3672	65.212	26.3672	65.2351	26.3672	65.1387	26.3672	65.1398	26.3672	65.0611	26.3672	65.0277	26.3672	64.9802	26.3672	64.9024	26.3672	64.897	26.3672	64.7709	26.3672	64.8126	26.3672	64.6426	26.3672	64.728	26.3672	64.5277	26.3672	64.6443	26.3672	64.4357	26.3672	64.5634	26.3672	64.3729	26.3672	64.4878	26.3672	64.3424	26.3672	64.4221	26.3672	64.3433	26.3672	64.3718
27.832	67.6595	27.832	67.6727	27.832	67.6462	27.832	67.6866	27.832	67.6316	27.832	67.7017	27.832	67.6144	27.832	67.7179	27.832	67.5936	27.832	67.7343	27.832	67.5686	27.832	67.7495	27.832	67.5396	27.832	67.7614	27.832	67.5079	27.832	67.7674	27.832	67.4755	27.832	67.7656	27.832	67.4453	27.832	67.7549	27.832	67.4204	27.832	67.7352	27.832	67.4031	27.832	67.7076	27.832	67.395	27.832	67.6739	27.832	67.3958	27.832	67.6364	27.832	67.4045	27.832	67.5975	27.832	67.4193	27.832	67.5593	27.832	67.4391	27.832	67.5235	27.832	67.4631	27.832	67.4913
29.2969	70.8242	29.2969	70.7953	29.2969	70.8504	29.2969	70.764	29.2969	70.8732	29.2969	70.7296	29.2969	70.8913	29.2969	70.6915	29.2969	70.903	29.2969	70.6491	29.2969	70.9064	29.2969	70.6024	29.2969	70.9003	29.2969	70.5524	29.2969	70.8839	29.2969	70.5016	29.2969	70.8577	29.2969	70.4532	29.2969	70.8232	29.2969	70.4114	29.2969	70.7827	29.2969	70.38	29.2969	70.7393	29.2969	70.362	29.2969	70.6963	29.2969	70.359	29.2969	70.6564	29.2969	70.3706	29.2969	70.6209	29.2969	70.3943	29.2969	70.5893	29.2969	70.4261	29.2969	70.5597	29.2969	70.4616	29.2969	70.5295	29.2969	70.4968
30.7617	75.2036	30.7617	75.2027	30.7617	75.2005	30.7617	75.1974	30.7617	75.1929	30.7617	75.1874	30.7617	75.1804	30.7617	75.1721	30.7617	75.1621	30.7617	75.1508	30.7617	75.1374	30.7617	75.1234	30.7617	75.1057	30.7617	75.0898	30.7617	75.0671	30.7617	75.0506	30.7617	75.0222	30.7617	75.0065	30.7617	74.9724	30.7617	74.9587	30.7617	74.92	30.7617	74.9085	30.7617	74.8675	30.7617	74.8575	30.7617	74.8171	30.7617	74.8072	30.7617	74.7709	30.7617	74.7598	30.7617	74.7303	30.7617	74.7179	30.7617	74.6964	30.7617	74.6844	30.7617	74.6709	30.7617	74.662	30.7617	74.6556	30.7617	74.6523
32.2266	78.2936	32.2266	78.3015	32.2266	78.2886	32.2266	78.3124	32.2266	78.2864	32.2266	78.326	32.2266	78.287	32.2266	78.3419	32.2266	78.2905	32.2266	78.3594	32.2266	78.2971	32.2266	78.3778	32.2266	78.3075	32.2266	78.3965	32.2266	78.322	32.2266	78.4153	32.2266	78.3413	32.2266	78.4345	32.2266	78.3657	32.2266	78.4548	32.2266	78.3953	32.2266	78.4769	32.2266	78.4296	32.2266	78.5009	32.2266	78.4672	32.2266	78.526	32.2266	78.5056	32.2266	78.551	32.2266	78.5418	32.2266	78.574	32.2266	78.5726	32.2266	78.5932	32.2266	78.5955	32.2266	78.6065	32.2266	78.6088	32.2266	78.6122
33.6914	81.3259	33.6914	81.3316	33.6914	81.3147	33.6914	81.332	33.6914	81.2978	33.6914	81.3276	33.6914	81.2752	33.6914	81.3187	33.6914	81.2473	33.6914	81.3056	33.6914	81.2151	33.6914	81.2886	33.6914	81.1798	33.6914	81.2681	33.6914	81.1428	33.6914	81.2445	33.6914	81.1057	33.6914	81.2183	33.6914	81.07	33.6914	81.1898	33.6914	81.0366	33.6914	81.1595	33.6914	81.0065	33.6914	81.1275	33.6914	80.9802	33.6914	81.0939	33.6914	80.9584	33.6914	81.0595	33.6914	80.9418	33.6914	81.0255	33.6914	80.9314	33.6914	80.9939	33.6914	80.9283	33.6914	80.9667	33.6914	80.933	33.6914	80.946
35.1562	84.5948	35.1562	84.5839	35.1562	84.5981	35.1562	84.5656	35.1562	84.594	35.1562	84.5405	35.1562	84.5829	35.1562	84.5094	35.1562	84.5652	35.1562	84.4735	35.1562	84.542	35.1562	84.4343	35.1562	84.5144	35.1562	84.3933	35.1562	84.4838	35.1562	84.352	35.1562	84.4517	35.1562	84.312	35.1562	84.4194	35.1562	84.2749	35.1562	84.3876	35.1562	84.2421	35.1562	84.357	35.1562	84.2153	35.1562	84.3276	35.1562	84.1954	35.1562	84.2997	35.1562	84.1828	35.1562	84.2736	35.1562	84.1775	35.1562	84.2496	35.1562	84.1784	35.1562	84.2284	35.1562	84.1848	35.1562	84.2103	35.1562	84.1956
36.6211	87.5867	36.6211	87.5937	36.6211	87.57	36.6211	87.5908	36.6211	87.5443	36.6211	87.5778	36.6211	87.5106	36.6211	87.5552	36.6211	87.4701	36.6211	87.5234	36.6211	87.4242	36.6211	87.4836	36.6211	87.3746	36.6211	87.4369	36.6211	87.323	36.6211	87.3847	36.6211	87.2711	36.6211	87.3289	36.6211	87.2204	36.6211	87.2716	36.6211	87.1724	36.6211	87.215	36.6211	87.128	36.6211	87.1615	36.6211	87.0883	36.6211	87.1132	36.6211	87.0541	36.6211	87.0718	36.6211	87.0261	36.6211	87.0381	36.6211	87.0049	36.6211	87.0126	36.6211	86.9909	36.6211	86.9953	36.6211	86.9846	36.6211	86.986
38.0859	90.4263	38.0859	90.4291	38.0859	90.4136	38.0859	90.4218	38.0859	90.3914	38.0859	90.4045	38.0859	90.3604	38.0859	90.3775	38.0859	90.3214	38.0859	90.3414	38.0859	90.2757	38.0859	90.297	38.0859	90.2245	38.0859	90.2453	38.0859	90.1691	38.0859	90.1877	38.0859	90.1113	38.0859	90.1257	38.0859	90.0525	38.0859	90.0614	38.0859	89.9944	38.0859	89.9969	38.0859	89.9386	38.0859	89.9347	38.0859	89.8868	38.0859	89.8772	38.0859	89.8403	38.0859	89.827	38.0859	89.8006	38.0859	89.7859	38.0859	89.7687	38.0859	89.7555	38.0859	89.7455	38.0859	89.7364	38.0859	89.7319	38.0859	89.7287
39.5508	92.8651	39.5508	92.8682	39.5508	92.8523	39.5508	92.8615	39.5508	92.8303	39.5508	92.845	39.5508	92.7998	39.5508	92.819	39.5508	92.7616	39.5508	92.7841	39.5508	92.7169	39.5508	92.7411	39.5508	92.6671	39.5508	92.6911	39.5508	92.6134	39.5508	92.6357	39.5508	92.5576	39.5508	92.5766	39.5508	92.5012	39.5508	92.5155	39.5508	92.4457	39.5508	92.4547	39.5508	92.3928	39.5508	92.3961	39.5508	92.3439	39.5508	92.3419	39.5508	92.3005	39.5508	92.2942	39.5508	92.2635	39.5508	92.2549	39.5508	92.234	39.5508	92.2254	39.5508	92.2128	39.5508	92.2064	39.5508	92.2006	39.5508	92.1983
41.0156	94.7064	41.0156	94.7193	41.0156	94.6831	41.0156	94.7213	41.0156	94.6502	41.0156	94.7123	41.0156	94.6089	41.0156	94.6928	41.0156	94.5609	41.0156	94.6635	41.0156	94.5081	41.0156	94.6252	41.0156	94.4525	41.0156	94.5792	41.0156	94.3962	41.0156	94.5267	41.0156	94.341	41.0156	94.4694	41.0156	94.2883	41.0156	94.409	41.0156	94.2392	41.0156	94.3475	41.0156	94.1941	41.0156	94.287	41.0156	94.1537	41.0156	94.2299	41.0156	94.1187	41.0156	94.1781	41.0156	94.0897	41.0156	94.1337	41.0156	94.0679	41.0156	94.0979	41.0156	94.0544	41.0156	94.0718	41.0156	94.0502	41.0156	94.0558
42.4805	96.2794	42.4805	96.2931	42.4805	96.2549	42.4805	96.2959	42.4805	96.2203	42.4805	96.2879	42.4805	96.1766	42.4805	96.2697	42.4805	96.1252	42.4805	96.242	42.4805	96.068	42.4805	96.206	42.4805	96.0069	42.4805	96.1627	42.4805	95.9442	42.4805	96.1138	42.4805	95.8822	42.4805	96.0607	42.4805	95.8232	42.4805	96.0051	42.4805	95.7693	42.4805	95.9487	42.4805	95.7224	42.4805	95.8931	42.4805	95.6837	42.4805	95.8399	42.4805	95.6544	42.4805	95.7904	42.4805	95.6347	42.4805	95.7456	42.4805	95.6247	42.4805	95.7068	42.4805	95.6242	42.4805	95.6746	42.4805	95.6327	42.4805	95.6497
43.9453	97.3709	43.9453	97.3819	43.9453	97.3486	43.9453	97.3814	43.9453	97.3157	43.9453	97.3696	43.9453	97.273	43.9453	97.347	43.9453	97.2218	43.9453	97.3144	43.9453	97.1639	43.9453	97.273	43.9453	97.1011	43.9453	97.2244	43.9453	97.0356	43.9453	97.1702	43.9453	96.9698	43.9453	97.1123	43.9453	96.906	43.9453	97.0528	43.9453	96.8465	43.9453	96.9933	43.9453	96.7933	43.9453	96.9358	43.9453	96.7481	43.9453	96.8813	43.9453	96.7124	43.9453	96.8312	43.9453	96.6869	43.9453	96.7861	43.9453	96.6722	43.9453	96.747	43.9453	96.6681	43.9453	96.7148	43.9453	96.6744	43.9453	96.6903
45.4102	98.0249	45.4102	98.0333	45.4102	98.0048	45.4102	98.0296	45.4102	97.9732	45.4102	98.0143	45.4102	97.9312	45.4102	97.988	45.4102	97.8798	45.4102	97.9515	45.4102	97.8206	45.4102	97.9062	45.4102	97.7556	45.4102	97.8538	45.4102	97.6867	45.4102	97.7959	45.4102	97.6164	45.4102	97.7347	45.4102	97.5471	45.4102	97.6721	45.4102	97.4812	45.4102	97.61	45.4102	97.4211	45.4102	97.5501	45.4102	97.3691	45.4102	97.4937	45.4102	97.327	45.4102	97.4416	45.4102	97.2964	45.4102	97.3948	45.4102	97.278	45.4102	97.354	45.4102	97.2719	45.4102	97.3201	45.4102	97.2777	45.4102	97.2942
46.875	98.4785	46.875	98.4815	46.875	98.463	46.875	98.4718	46.875	98.4353	46.875	98.4498	46.875	98.3964	46.875	98.4163	46.875	98.3474	46.875	98.3723	46.875	98.2898	46.875	98.3196	46.875	98.2255	46.875	98.2598	46.875	98.1566	46.875	98.1951	46.875	98.0853	46.875	98.1277	46.875	98.0139	46.875	98.0597	46.875	97.9448	46.875	97.9932	46.875	97.8803	46.875	97.9301	46.875	97.8225	46.875	97.872	46.875	97.7734	46.875	97.8202	46.875	97.7345	46.875	97.7757	46.875	97.7068	46.875	97.7393	46.875	97.691	46.875	97.7119	46.875	97.6869	46.875	97.6941
48.3398	98.7348	48.3398	98.7359	48.3398	98.7212	48.3398	98.7247	48.3398	98.6956	48.3398	98.7015	48.3398	98.6588	48.3398	98.6672	48.3398	98.6119	48.3398	98.6229	48.3398	98.5564	48.3398	98.5701	48.3398	98.4941	48.3398	98.5108	48.3398	98.427	48.3398	98.4468	48.3398	98.3573	48.3398	98.3802	48.3398	98.2873	48.3398	98.3133	48.3398	98.2193	48.3398	98.2481	48.3398	98.1556	48.3398	98.1863	48.3398	98.0983	48.3398	98.1297	48.3398	98.0492	48.3398	98.0795	48.3398	98.0098	48.3398	98.0368	48.3398	97.981	48.3398	98.0026	48.3398	97.9635	48.3398	97.9774	48.3398	97.9573	48.3398	97.9621
51.2695	98.8495	51.2695	98.8526	51.2695	98.8327	51.2695	98.8419	51.2695	98.8027	51.2695	98.8182	51.2695	98.7604	51.2695	98.7822	51.2695	98.7071	51.2695	98.7354	51.2695	98.6447	51.2695	98.6794	51.2695	98.5753	51.2695	98.6163	51.2695	98.5016	51.2695	98.5483	51.2695	98.426	51.2695	98.4778	51.2695	98.3515	51.2695	98.4071	51.2695	98.2806	51.2695	98.3382	51.2695	98.2157	51.2695	98.2733	51.2695	98.1588	51.2695	98.214	51.2695	98.1114	51.2695	98.1617	51.2695	98.0746	51.2695	98.1174	51.2695	98.049	51.2695	98.0818	51.2695	98.0346	51.2695	98.0553	51.2695	98.0312	51.2695	98.0383
52.7344	98.7873	52.7344	98.7925	52.7344	98.7685	52.7344	98.7842	52.7344	98.7367	52.7344	98.7628	52.7344	98.6929	52.7344	98.729	52.7344	98.6384	52.7344	98.6841	52.7344	98.5751	52.7344	98.6297	52.7344	98.5052	52.7344	98.5678	52.7344	98.4309	52.7344	98.5006	52.7344	98.355	52.7344	98.4303	52.7344	98.2802	52.7344	98.3594	52.7344	98.2092	52.7344	98.29	52.7344	98.1443	52.7344	98.2242	52.7344	98.0877	52.7344	98.1638	52.7344	98.0411	52.7344	98.1101	52.7344	98.0057	52.7344	98.0641	52.7344	97.982	52.7344	98.0266	52.7344	97.9699	52.7344	97.9979	52.7344	97.9689	52.7344	97.9785
54.1992	98.7273	54.1992	98.7316	54.1992	98.7092	54.1992	98.7223	54.1992	98.678	54.1992	98.6997	54.1992	98.6345	54.1992	98.665	54.1992	98.5801	54.1992	98.6194	54.1992	98.5168	54.1992	98.5647	54.1992	98.4468	54.1992	98.5031	54.1992	98.3726	54.1992	98.4368	54.1992	98.2969	54.1992	98.3682	54.1992	98.2226	54.1992	98.2998	54.1992	98.1524	54.1992	98.2336	54.1992	98.0887	54.1992	98.1715	54.1992	98.0338	54.1992	98.1148	54.1992	97.9893	54.1992	98.0646	54.1992	97.9563	54.1992	98.0214	54.1992	97.9351	54.1992	97.9856	54.1992	97.9255	54.1992	97.9575	54.1992	97.9266	54.1992	97.9376
55.6641	98.7005	55.6641	98.7041	55.6641	98.6833	55.6641	98.6939	55.6641	98.6527	55.6641	98.6706	55.6641	98.6098	55.6641	98.6353	55.6641	98.5561	55.6641	98.5895	55.6641	98.4934	55.6641	98.535	55.6641	98.4241	55.6641	98.4741	55.6641	98.3509	55.6641	98.4092	55.6641	98.2765	55.6641	98.3426	55.6641	98.2037	55.6641	98.2767	55.6641	98.1353	55.6641	98.2135	55.6641	98.0737	55.6641	98.1545	55.6641	98.0208	55.6641	98.1009	55.6641	97.9782	55.6641	98.0533	55.6641	97.9468	55.6641	98.0121	55.6641	97.9269	55.6641	97.9776	55.6641	97.918	55.6641	97.9503	55.6641	97.9196	55.6641	97.9307
58.5938	98.5208	58.5938	98.5173	58.5938	98.5096	58.5938	98.4994	58.5938	98.484	58.5938	98.4678	58.5938	98.4449	58.5938	98.424	58.5938	98.3938	58.5938	98.3698	58.5938	98.3326	58.5938	98.3074	58.5938	98.2636	58.5938	98.2395	58.5938	98.1896	58.5938	98.1686	58.5938	98.1136	58.5938	98.0977	58.5938	98.0384	58.5938	98.0293	58.5938	97.9669	58.5938	97.9655	58.5938	97.9017	58.5938	97.9079	58.5938	97.8449	58.5938	97.8576	58.5938	97.798	58.5938	97.8149	58.5938	97.7617	58.5938	97.7799	58.5938	97.7363	58.5938	97.7525	58.5938	97.7215	58.5938	97.7327	58.5938	97.7165	58.5938	97.7205
60.0586	98.4439	60.0586	98.4408	60.0586	98.4318	60.0586	98.4227	60.0586	98.4048	60.0586	98.3903	60.0586	98.364	60.0586	98.3449	60.0586	98.311	60.0586	98.2885	60.0586	98.2477	60.0586	98.2235	60.0586	98.1768	60.0586	98.1525	60.0586	98.101	60.0586	98.0786	60.0586	98.0233	60.0586	98.0047	60.0586	97.9469	60.0586	97.9335	60.0586	97.8746	60.0586	97.8673	60.0586	97.809	60.0586	97.8079	60.0586	97.7518	60.0586	97.7564	60.0586	97.7045	60.0586	97.7132	60.0586	97.6677	60.0586	97.6783	60.0586	97.6414	60.0586	97.6515	60.0586	97.6255	60.0586	97.6326	60.0586	97.6191	60.0586	97.6217
62.9883	98.2975	62.9883	98.2939	62.9883	98.2852	62.9883	98.2747	62.9883	98.2574	62.9883	98.2406	62.9883	98.2153	62.9883	98.1932	62.9883	98.1604	62.9883	98.1344	62.9883	98.0949	62.9883	98.0668	62.9883	98.0215	62.9883	97.9932	62.9883	97.943	62.9883	97.9168	62.9883	97.8628	62.9883	97.8407	62.9883	97.784	62.9883	97.7678	62.9883	97.7096	62.9883	97.7004	62.9883	97.6422	62.9883	97.6404	62.9883	97.5838	62.9883	97.5887	62.9883	97.5358	62.9883	97.5457	62.9883	97.4988	62.9883	97.5112	62.9883	97.4729	62.9883	97.4848	62.9883	97.4575	62.9883	97.466	62.9883	97.4519	62.9883	97.4549
64.4531	98.2448	64.4531	98.2405	64.4531	98.2326	64.4531	98.2197	64.4531	98.2041	64.4531	98.1835	64.4531	98.1605	64.4531	98.1332	64.4531	98.1036	64.4531	98.0712	64.4531	98.0355	64.4531	98	64.4531	97.9592	64.4531	97.9226	64.4531	97.8776	64.4531	97.8423	64.4531	97.7944	64.4531	97.7625	64.4531	97.7126	64.4531	97.6861	64.4531	97.6356	64.4531	97.6156	64.4531	97.5659	64.4531	97.553	64.4531	97.5054	64.4531	97.4993	64.4531	97.4554	64.4531	97.455	64.4531	97.4165	64.4531	97.4199	64.4531	97.3887	64.4531	97.3936	64.4531	97.3715	64.4531	97.3756	64.4531	97.3641	64.4531	97.3657
67.3828	98.2396	67.3828	98.2323	67.3828	98.2294	67.3828	98.2076	67.3828	98.202	67.3828	98.1666	67.3828	98.1586	67.3828	98.1106	67.3828	98.1009	67.3828	98.0421	67.3828	98.0312	67.3828	97.9636	67.3828	97.9525	67.3828	97.8784	67.3828	97.868	67.3828	97.7897	67.3828	97.7812	67.3828	97.7012	67.3828	97.6954	67.3828	97.6161	67.3828	97.6138	67.3828	97.5375	67.3828	97.5391	67.3828	97.4678	67.3828	97.4731	67.3828	97.409	67.3828	97.4172	67.3828	97.3621	67.3828	97.3719	67.3828	97.3274	67.3828	97.3371	67.3828	97.3044	67.3828	97.3122	67.3828	97.2923	67.3828	97.2966	67.3828	97.2899
68.8477	98.2595	68.8477	98.2532	68.8477	98.2484	68.8477	98.2298	68.8477	98.2203	68.8477	98.1902	68.8477	98.1763	68.8477	98.1361	68.8477	98.1183	68.8477	98.0697	68.8477	98.0485	68.8477	97.9938	68.8477	97.9699	68.8477	97.9115	68.8477	97.8858	68.8477	97.8262	68.8477	97.7998	68.8477	97.7413	68.8477	97.7154	68.8477	97.66	68.8477	97.6358	68.8477	97.5852	68.8477	97.5638	68.8477	97.519	68.8477	97.5015	68.8477	97.4632	68.8477	97.4502	68.8477	97.4187	68.8477	97.4104	68.8477	97.3856	68.8477	97.3813	68.8477	97.3635	68.8477	97.3618	68.8477	97.351	68.8477	97.3507	68.8477	97.3471
71.7773	98.2992	71.7773	98.2926	71.7773	98.2889	71.7773	98.2692	71.7773	98.2622	71.7773	98.2301	71.7773	98.2202	71.7773	98.1767	71.7773	98.1649	71.7773	98.1115	71.7773	98.0987	71.7773	98.0374	71.7773	98.0245	71.7773	97.9577	71.7773	97.9454	71.7773	97.8759	71.7773	97.865	71.7773	97.7957	71.7773	97.7864	71.7773	97.7201	71.7773	97.7126	71.7773	97.6519	71.7773	97.6462	71.7773	97.5927	71.7773	97.5889	71.7773	97.5436	71.7773	97.5417	71.7773	97.5049	71.7773	97.5046	71.7773	97.4763	71.7773	97.4773	71.7773	97.4571	71.7773	97.4585	71.7773	97.4464	71.7773	97.4474	71.7773	97.4434
74.707	98.3099	74.707	98.3037	74.707	98.2985	74.707	98.2799	74.707	98.2702	74.707	98.2395	74.707	98.2265	74.707	98.1843	74.707	98.1695	74.707	98.1167	74.707	98.1021	74.707	98.0401	74.707	98.0275	74.707	97.958	74.707	97.9491	74.707	97.8745	74.707	97.8703	74.707	97.7935	74.707	97.7945	74.707	97.7185	74.707	97.7243	74.707	97.6522	74.707	97.662	74.707	97.5965	74.707	97.6087	74.707	97.5519	74.707	97.5649	74.707	97.5181	74.707	97.5304	74.707	97.4941	74.707	97.5044	74.707	97.4788	74.707	97.4862	74.707	97.471	74.707	97.4748	74.707	97.4698
77.6367	98.321	77.6367	98.3191	77.6367	98.3047	77.6367	98.2989	77.6367	98.2709	77.6367	98.2615	77.6367	98.2214	77.6367	98.2088	77.6367	98.1586	77.6367	98.1434	77.6367	98.0857	77.6367	98.0686	77.6367	98.0066	77.6367	97.9883	77.6367	97.9252	77.6367	97.9066	77.6367	97.8456	77.6367	97.8273	77.6367	97.7715	77.6367	97.7541	77.6367	97.7057	77.6367	97.6897	77.6367	97.6502	77.6367	97.636	77.6367	97.6058	77.6367	97.5935	77.6367	97.5721	77.6367	97.562	77.6367	97.5479	77.6367	97.5401	77.6367	97.5316	77.6367	97.5262	77.6367	97.5216	77.6367	97.5184	77.6367	97.5165	77.6367	97.5154
79.1016	98.3531	79.1016	98.3526	79.1016	98.3347	79.1016	98.3333	79.1016	98.298	79.1016	98.2963	79.1016	98.2449	79.1016	98.2436	79.1016	98.1779	79.1016	98.178	79.1016	98.1004	79.1016	98.103	79.1016	98.0165	79.1016	98.0226	79.1016	97.9304	79.1016	97.9408	79.1016	97.8468	79.1016	97.8618	79.1016	97.7696	79.1016	97.789	79.1016	97.7023	79.1016	97.7251	79.1016	97.6469	79.1016	97.6719	79.1016	97.6044	79.1016	97.6298	79.1016	97.5743	79.1016	97.5983	79.1016	97.5551	79.1016	97.5759	79.1016	97.5445	79.1016	97.5606	79.1016	97.5403	79.1016	97.5505	79.1016	97.5406	79.1016	97.5441
82.0312	98.4969	82.0312	98.496	82.0312	98.4769	82.0312	98.4744	82.0312	98.4366	82.0312	98.4332	82.0312	98.3779	82.0312	98.3745	82.0312	98.3035	82.0312	98.3014	82.0312	98.2168	82.0312	98.2175	82.0312	98.1221	82.0312	98.1271	82.0312	98.0242	82.0312	98.0349	82.0312	97.928	82.0312	97.9454	82.0312	97.8384	82.0312	97.8626	82.0312	97.7592	82.0312	97.7897	82.0312	97.6936	82.0312	97.7284	82.0312	97.6427	82.0312	97.6796	82.0312	97.6065	82.0312	97.6425	82.0312	97.5836	82.0312	97.6156	82.0312	97.5714	82.0312	97.5966	82.0312	97.5673	82.0312	97.5835	82.0312	97.5689	82.0312	97.5745
84.9609	98.6124	84.9609	98.6105	84.9609	98.5928	84.9609	98.5874	84.9609	98.5523	84.9609	98.5445	84.9609	98.4925	84.9609	98.4841	84.9609	98.416	84.9609	98.4093	84.9609	98.3261	84.9609	98.3239	84.9609	98.2269	84.9609	98.2321	84.9609	98.1231	84.9609	98.1382	84.9609	98.0195	84.9609	98.0464	84.9609	97.9212	84.9609	97.9601	84.9609	97.8323	84.9609	97.8824	84.9609	97.7565	84.9609	97.8149	84.9609	97.6959	84.9609	97.7585	84.9609	97.6511	84.9609	97.7129	84.9609	97.6214	84.9609	97.6771	84.9609	97.6051	84.9609	97.6494	84.9609	97.5998	84.9609	97.6284	84.9609	97.6031	84.9609	97.613
87.8906	98.6139	87.8906	98.6027	87.8906	98.6049	87.8906	98.5716	87.8906	98.5763	87.8906	98.5222	87.8906	98.5297	87.8906	98.4569	87.8906	98.4677	87.8906	98.3791	87.8906	98.3933	87.8906	98.293	87.8906	98.3104	87.8906	98.203	87.8906	98.2232	87.8906	98.1138	87.8906	98.136	87.8906	98.0296	87.8906	98.0528	87.8906	97.9539	87.8906	97.9772	87.8906	97.8892	87.8906	97.9116	87.8906	97.8368	87.8906	97.8575	87.8906	97.7969	87.8906	97.815	87.8906	97.7684	87.8906	97.7834	87.8906	97.7498	87.8906	97.7612	87.8906	97.7391	87.8906	97.7467	87.8906	97.7344	87.8906	97.7382	87.8906	97.7342
90.8203	98.7336	90.8203	98.7309	90.8203	98.715	90.8203	98.7069	90.8203	98.6763	90.8203	98.663	90.8203	98.6199	90.8203	98.6018	90.8203	98.5491	90.8203	98.527	90.8203	98.4681	90.8203	98.4433	90.8203	98.3816	90.8203	98.3558	90.8203	98.2947	90.8203	98.2698	90.8203	98.2121	90.8203	98.19	90.8203	98.1381	90.8203	98.1203	90.8203	98.0759	90.8203	98.0632	90.8203	98.0273	90.8203	98.0196	90.8203	97.9922	90.8203	97.9892	90.8203	97.9695	90.8203	97.9703	90.8203	97.9569	90.8203	97.9601	90.8203	97.9516	90.8203	97.9557	90.8203	97.9507	90.8203	97.9541	90.8203	97.9518	90.8203	97.953
95.2148	98.9249	95.2148	98.9299	95.2148	98.8979	95.2148	98.9128	95.2148	98.85	95.2148	98.8745	95.2148	98.7838	95.2148	98.8174	95.2148	98.7028	95.2148	98.745	95.2148	98.6115	95.2148	98.6617	95.2148	98.5153	95.2148	98.5726	95.2148	98.42	95.2148	98.4832	95.2148	98.3315	95.2148	98.3989	95.2148	98.2549	95.2148	98.3241	95.2148	98.1943	95.2148	98.2622	95.2148	98.1513	95.2148	98.2149	95.2148	98.1257	95.2148	98.1825	95.2148	98.115	95.2148	98.1634	95.2148	98.1156	95.2148	98.1545	95.2148	98.123	95.2148	98.1517	95.2148	98.133	95.2148	98.1507	95.2148	98.1421	95.2148	98.1481
98.1445	99.1016	98.1445	99.1073	98.1445	99.0714	98.1445	99.089	98.1445	99.0174	98.1445	99.0485	98.1445	98.9421	98.1445	98.9886	98.1445	98.8491	98.1445	98.9134	98.1445	98.7433	98.1445	98.8274	98.1445	98.631	98.1445	98.7359	98.1445	98.519	98.1445	98.6442	98.1445	98.4147	98.1445	98.5572	98.1445	98.3247	98.1445	98.4793	98.1445	98.2546	98.1445	98.4137	98.1445	98.2072	98.1445	98.3621	98.1445	98.1826	98.1445	98.3248	98.1445	98.1778	98.1445	98.3005	98.1445	98.1877	98.1445	98.2862	98.1445	98.2061	98.1445	98.2777	98.1445	98.2271	98.1445	98.2706	98.1445	98.2462	98.1445	98.2607
101.074	99.175	101.074	99.1682	101.074	99.1553	101.074	99.1363	101.074	99.1093	101.074	99.0816	101.074	99.0386	101.074	99.008	101.074	98.946	101.074	98.92	101.074	98.8362	101.074	98.8231	101.074	98.7147	101.074	98.723	101.074	98.5884	101.074	98.6253	101.074	98.4651	101.074	98.5352	101.074	98.3528	101.074	98.4568	101.074	98.259	101.074	98.3926	101.074	98.1895	101.074	98.3437	101.074	98.1469	101.074	98.3092	101.074	98.1303	101.074	98.2868	101.074	98.1354	101.074	98.2728	101.074	98.1553	101.074	98.2623	101.074	98.1826	101.074	98.2504	101.074	98.2102	101.074	98.2335
105.469	99.2044	105.469	99.1864	105.469	99.1997	105.469	99.1468	105.469	99.1722	105.469	99.0882	105.469	99.1232	105.469	99.0142	105.469	99.0549	105.469	98.9297	105.469	98.9705	105.469	98.8399	105.469	98.8741	105.469	98.75	105.469	98.7706	105.469	98.6648	105.469	98.6655	105.469	98.5878	105.469	98.5641	105.469	98.5211	105.469	98.4721	105.469	98.4657	105.469	98.3942	105.469	98.4213	105.469	98.334	105.469	98.387	105.469	98.2929	105.469	98.3611	105.469	98.2706	105.469	98.3418	105.469	98.2642	105.469	98.3262	105.469	98.2697	105.469	98.3119	105.469	98.2821	105.469	98.2971
108.398	99.2386	108.398	99.2185	108.398	99.2352	108.398	99.1755	108.398	99.2088	108.398	99.1121	108.398	99.1617	108.398	99.0321	108.398	99.097	108.398	98.9409	108.398	99.0188	108.398	98.8451	108.398	98.9318	108.398	98.7516	108.398	98.8413	108.398	98.6666	108.398	98.7522	108.398	98.5951	108.398	98.6693	108.398	98.5396	108.398	98.5965	108.398	98.5003	108.398	98.5368	108.398	98.4754	108.398	98.4915	108.398	98.4616	108.398	98.4608	108.398	98.4552	108.398	98.4434	108.398	98.453	108.398	98.4367	108.398	98.452	108.398	98.4374	108.398	98.4502	108.398	98.4417	108.398	98.4466
112.793	99.49	112.793	99.4929	112.793	99.4624	112.793	99.4712	112.793	99.4119	112.793	99.426	112.793	99.3417	112.793	99.3606	112.793	99.256	112.793	99.2797	112.793	99.1604	112.793	99.1892	112.793	99.0613	112.793	99.0965	112.793	98.9653	112.793	99.0088	112.793	98.8788	112.793	98.9326	112.793	98.8072	112.793	98.8724	112.793	98.754	112.793	98.8301	112.793	98.7205	112.793	98.8046	112.793	98.7055	112.793	98.7926	112.793	98.7059	112.793	98.7896	112.793	98.7173	112.793	98.7908	112.793	98.7349	112.793	98.7921	112.793	98.754	112.793	98.7903	112.793	98.771	112.793	98.7835
117.188	99.62	117.188	99.6054	117.188	99.6021	117.188	99.559	117.188	99.5535	117.188	99.4836	117.188	99.4781	117.188	99.3847	117.188	99.3816	117.188	99.2704	117.188	99.2717	117.188	99.1506	117.188	99.1568	117.188	99.0363	117.188	99.046	117.188	98.9383	117.188	98.948	117.188	98.865	117.188	98.8699	117.188	98.8213	117.188	98.8165	117.188	98.807	117.188	98.7894	117.188	98.8174	117.188	98.7867	117.188	98.8444	117.188	98.8037	117.188	98.8786	117.188	98.8337	117.188	98.9116	117.188	98.8694	117.188	98.9365	117.188	98.9039	117.188	98.949	117.188	98.9312	117.188	98.9471
120.117	99.717	120.117	99.7133	120.117	99.6836	120.117	99.6725	120.117	99.6158	120.117	99.5965	120.117	99.5178	120.117	99.4899	120.117	99.3962	120.117	99.3601	120.117	99.2591	120.117	99.2169	120.117	99.1159	120.117	99.0725	120.117	98.9766	120.117	98.9401	120.117	98.851	120.117	98.8323	120.117	98.748	120.117	98.7581	120.117	98.6742	120.117	98.7215	120.117	98.6335	120.117	98.7201	120.117	98.6259	120.117	98.7455	120.117	98.6474	120.117	98.7861	120.117	98.6905	120.117	98.8291	120.117	98.7451	120.117	98.863	120.117	98.8002	120.117	98.8792	120.117	98.8456	120.117	98.8734
124.512	99.9739	124.512	99.9612	124.512	99.9461	124.512	99.909	124.512	99.8787	124.512	99.8203	124.512	99.7746	124.512	99.6992	124.512	99.6391	124.512	99.5523	124.512	99.4798	124.512	99.3876	124.512	99.3064	124.512	99.2151	124.512	99.1303	124.512	99.0464	124.512	98.9629	124.512	98.8929	124.512	98.8148	124.512	98.7647	124.512	98.6942	124.512	98.6684	124.512	98.6059	124.512	98.6058	124.512	98.551	124.512	98.5737	124.512	98.5262	124.512	98.5652	124.512	98.5254	124.512	98.5711	124.512	98.5398	124.512	98.5821	124.512	98.5604	124.512	98.5899	124.512	98.5789	124.512	98.5894
128.906	100.026	128.906	99.9908	128.906	100.022	128.906	99.9194	128.906	99.9803	128.906	99.8148	128.906	99.9016	128.906	99.6818	128.906	99.7896	128.906	99.5265	128.906	99.6499	128.906	99.357	128.906	99.4904	128.906	99.1827	128.906	99.321	128.906	99.0142	128.906	99.1531	128.906	98.8623	128.906	98.9984	128.906	98.7368	128.906	98.8674	128.906	98.6446	128.906	98.7675	128.906	98.5887	128.906	98.7018	128.906	98.5672	128.906	98.6682	128.906	98.5734	128.906	98.66	128.906	98.598	128.906	98.667	128.906	98.6299	128.906	98.6783	128.906	98.6592	128.906	98.6842	128.906	98.6784
133.301	99.7849	133.301	99.787	133.301	99.7494	133.301	99.7551	133.301	99.6828	133.301	99.6902	133.301	99.5889	133.301	99.5956	133.301	99.4729	133.301	99.4769	133.301	99.341	133.301	99.3416	133.301	99.2009	133.301	99.1992	133.301	99.0611	133.301	99.0599	133.301	98.9305	133.301	98.9338	133.301	98.8179	133.301	98.8293	133.301	98.7304	133.301	98.7517	133.301	98.6726	133.301	98.7029	133.301	98.6453	133.301	98.6807	133.301	98.645	133.301	98.6802	133.301	98.6642	133.301	98.6943	133.301	98.6927	133.301	98.7148	133.301	98.7203	133.301	98.7333	133.301	98.7384	133.301	98.7427
139.16	99.5257	139.16	99.5241	139.16	99.4856	139.16	99.4818	139.16	99.4056	139.16	99.4021	139.16	99.2898	139.16	99.2911	139.16	99.1455	139.16	99.1572	139.16	98.9825	139.16	99.0109	139.16	98.813	139.16	98.8644	139.16	98.6503	139.16	98.7301	139.16	98.5075	139.16	98.6188	139.16	98.395	139.16	98.5383	139.16	98.3197	139.16	98.4915	139.16	98.2835	139.16	98.4757	139.16	98.2836	139.16	98.4839	139.16	98.3131	139.16	98.5063	139.16	98.3627	139.16	98.5326	139.16	98.4214	139.16	98.5535	139.16	98.4783	139.16	98.5618	139.16	98.524	139.16	98.5526
143.555	99.6801	143.555	99.6425	143.555	99.6689	143.555	99.5591	143.555	99.6083	143.555	99.4353	143.555	99.5003	143.555	99.2793	143.555	99.3494	143.555	99.1023	143.555	99.1639	143.555	98.9176	143.555	98.9554	143.555	98.7401	143.555	98.7397	143.555	98.584	143.555	98.5349	143.555	98.4609	143.555	98.3592	143.555	98.3773	143.555	98.227	143.555	98.3337	143.555	98.1462	143.555	98.3245	143.555	98.1158	143.555	98.3394	143.555	98.1277	143.555	98.366	143.555	98.1695	143.555	98.3921	143.555	98.2276	143.555	98.4077	143.555	98.2893	143.555	98.4062	143.555	98.3442	143.555	98.3847
147.949	99.8267	147.949	99.8062	147.949	99.7997	147.949	99.7366	147.949	99.7281	147.949	99.6187	147.949	99.6165	147.949	99.4565	147.949	99.4705	147.949	99.2579	147.949	99.2974	147.949	99.036	147.949	99.1063	147.949	98.8083	147.949	98.9085	147.949	98.595	147.949	98.7174	147.949	98.4152	147.949	98.5473	147.949	98.2832	147.949	98.411	147.949	98.2046	147.949	98.3168	147.949	98.1758	147.949	98.2664	147.949	98.1866	147.949	98.2542	147.949	98.2226	147.949	98.2692	147.949	98.2691	147.949	98.2984	147.949	98.3129	147.949	98.3292	147.949	98.3442	147.949	98.3513	147.949	98.3574
153.809	99.8182	153.809	99.8048	153.809	99.7875	153.809	99.749	153.809	99.7121	153.809	99.6528	153.809	99.5932	153.809	99.5188	153.809	99.4342	153.809	99.3504	153.809	99.2416	153.809	99.1538	153.809	99.0249	153.809	98.9394	153.809	98.7969	153.809	98.7227	153.809	98.5729	153.809	98.5232	153.809	98.37	153.809	98.3602	153.809	98.2047	153.809	98.2475	153.809	98.0895	153.809	98.1894	153.809	98.0299	153.809	98.1796	153.809	98.0226	153.809	98.2038	153.809	98.0566	153.809	98.2432	153.809	98.1163	153.809	98.2789	153.809	98.1845	153.809	98.2956	153.809	98.2449	153.809	98.2843
159.668	99.8778	159.668	99.8523	159.668	99.8627	159.668	99.7884	159.668	99.8067	159.668	99.6906	159.668	99.7118	159.668	99.5652	159.668	99.5816	159.668	99.4193	159.668	99.4212	159.668	99.2607	159.668	99.2377	159.668	99.097	159.668	99.0404	159.668	98.9367	159.668	98.8413	159.668	98.7887	159.668	98.655	159.668	98.6625	159.668	98.4971	159.668	98.5657	159.668	98.3812	159.668	98.5024	159.668	98.3144	159.668	98.4712	159.668	98.295	159.668	98.4653	159.668	98.3133	159.668	98.4741	159.668	98.3544	159.668	98.4855	159.668	98.4031	159.668	98.4886	159.668	98.4466	159.668	98.4762
165.527	99.7435	165.527	99.7039	165.527	99.7341	165.527	99.6153	165.527	99.6796	165.527	99.4815	165.527	99.5869	165.527	99.3105	165.527	99.4661	165.527	99.1146	165.527	99.3285	165.527	98.9101	165.527	99.186	165.527	98.7158	165.527	99.0488	165.527	98.5507	165.527	98.9239	165.527	98.4307	165.527	98.8159	165.527	98.3653	165.527	98.7274	165.527	98.3546	165.527	98.6615	165.527	98.3907	165.527	98.622	165.527	98.4594	165.527	98.6122	165.527	98.5449	165.527	98.6312	165.527	98.6314	165.527	98.6716	165.527	98.7049	165.527	98.7194	165.527	98.7541	165.527	98.7576	165.527	98.7718
171.387	99.4249	171.387	99.3942	171.387	99.4116	171.387	99.3187	171.387	99.3569	171.387	99.1999	171.387	99.2657	171.387	99.0411	171.387	99.1458	171.387	98.8491	171.387	99.0076	171.387	98.6348	171.387	98.8638	171.387	98.4139	171.387	98.7272	171.387	98.2067	171.387	98.6084	171.387	98.0352	171.387	98.5135	171.387	97.9176	171.387	98.4442	171.387	97.8635	171.387	98.3986	171.387	97.8698	171.387	98.3729	171.387	97.9235	171.387	98.3631	171.387	98.0066	171.387	98.364	171.387	98.1011	171.387	98.369	171.387	98.1922	171.387	98.3697	171.387	98.269	171.387	98.3572	171.387	98.3247
177.246	99.3206	177.246	99.3265	177.246	99.2535	177.246	99.2719	177.246	99.129	177.246	99.1617	177.246	98.9559	177.246	99.0051	177.246	98.7488	177.246	98.8154	177.246	98.5289	177.246	98.6097	177.246	98.3225	177.246	98.4088	177.246	98.1568	177.246	98.235	177.246	98.0527	177.246	98.1094	177.246	98.0166	177.246	98.0454	177.246	98.0386	177.246	98.0438	177.246	98.0969	177.246	98.0915	177.246	98.1684	177.246	98.1665	177.246	98.2364	177.246	98.246	177.246	98.2931	177.246	98.3139	177.246	98.3373	177.246	98.3621	177.246	98.3699	177.246	98.3896	177.246	98.3907	177.246	98.3982
183.105	99.6908	183.105	99.6274	183.105	99.6711	183.105	99.4812	183.105	99.5705	183.105	99.2558	183.105	99.3936	183.105	98.9601	183.105	99.1482	183.105	98.609	183.105	98.848	183.105	98.2245	183.105	98.5161	183.105	97.8351	183.105	98.1874	183.105	97.4745	183.105	97.9075	183.105	97.1792	183.105	97.7229	183.105	96.9848	183.105	97.6632	183.105	96.9183	183.105	97.7253	183.105	96.9876	183.105	97.8739	183.105	97.1735	183.105	98.0584	183.105	97.4346	183.105	98.2321	183.105	97.7207	183.105	98.3626	183.105	97.9873	183.105	98.4314	183.105	98.2039	183.105	98.4296	183.105	98.3536
188.965	99.3816	188.965	99.425	188.965	99.2724	188.965	99.4003	188.965	99.1018	188.965	99.3083	188.965	98.8763	188.965	99.1537	188.965	98.6046	188.965	98.9463	188.965	98.2982	188.965	98.7009	188.965	97.9723	188.965	98.4366	188.965	97.6475	188.965	98.1744	188.965	97.3505	188.965	97.9339	188.965	97.1125	188.965	97.7308	188.965	96.9633	188.965	97.5754	188.965	96.9195	188.965	97.4731	188.965	96.9754	188.965	97.4243	188.965	97.1019	188.965	97.4241	188.965	97.2583	188.965	97.4607	188.965	97.4061	188.965	97.5159	188.965	97.5183	188.965	97.5679	188.965	97.5817	188.965	97.5953
196.289	99.0204	196.289	98.9802	196.289	98.9858	196.289	98.8706	196.289	98.8743	196.289	98.7003	196.289	98.6884	196.289	98.482	196.289	98.4371	196.289	98.2337	196.289	98.1379	196.289	97.9798	196.289	97.818	196.289	97.7499	196.289	97.5127	196.289	97.5753	196.289	97.2602	196.289	97.4811	196.289	97.0926	196.289	97.4776	196.289	97.0275	196.289	97.5555	196.289	97.0638	196.289	97.688	196.289	97.1843	196.289	97.8406	196.289	97.3616	196.289	97.9822	196.289	97.5645	196.289	98.0912	196.289	97.7636	196.289	98.1568	196.289	97.9353	196.289	98.1751	196.289	98.0645	196.289	98.1447
203.613	99.1967	203.613	99.1952	203.613	99.108	203.613	99.1038	203.613	98.9303	203.613	98.9252	203.613	98.6656	203.613	98.6661	203.613	98.3191	203.613	98.3388	203.613	97.9021	203.613	97.9626	203.613	97.4385	203.613	97.5651	203.613	96.9698	203.613	97.1833	203.613	96.5574	203.613	96.8627	203.613	96.2718	203.613	96.6514	203.613	96.1674	203.613	96.5851	203.613	96.2536	203.613	96.6675	203.613	96.4892	203.613	96.8632	203.613	96.8035	203.613	97.1121	203.613	97.1258	203.613	97.3559	203.613	97.4034	203.613	97.5543	203.613	97.6051	203.613	97.687	203.613	97.7187	203.613	97.744
210.938	99.2234	210.938	99.151	210.938	99.2088	210.938	99.0009	210.938	99.1008	210.938	98.785	210.938	98.8958	210.938	98.5195	210.938	98.5939	210.938	98.2259	210.938	98.2015	210.938	97.9301	210.938	97.7357	210.938	97.6597	210.938	97.2294	210.938	97.438	210.938	96.7345	210.938	97.2779	210.938	96.3172	210.938	97.1815	210.938	96.0399	210.938	97.1455	210.938	95.9362	210.938	97.1643	210.938	95.9972	210.938	97.227	210.938	96.1797	210.938	97.3114	210.938	96.4284	210.938	97.3857	210.938	96.6936	210.938	97.4189	210.938	96.9399	210.938	97.3919	210.938	97.1461	210.938	97.2995
218.262	99.3311	218.262	99.2849	218.262	99.2957	218.262	99.1587	218.262	99.1777	218.262	98.955	218.262	98.9766	218.262	98.6786	218.262	98.6935	218.262	98.3396	218.262	98.333	218.262	97.9582	218.262	97.9075	218.262	97.5684	218.262	97.4444	218.262	97.2192	218.262	96.9947	218.262	96.9656	218.262	96.6335	218.262	96.8511	218.262	96.4406	218.262	96.8903	218.262	96.4611	218.262	97.0632	218.262	96.6762	218.262	97.3241	218.262	97.0138	218.262	97.6164	218.262	97.388	218.262	97.8872	218.262	97.7303	218.262	98.0965	218.262	97.9985	218.262	98.22	218.262	98.1728	218.262	98.2467
225.586	99.622	225.586	99.5676	225.586	99.5825	225.586	99.4265	225.586	99.443	225.586	99.207	225.586	99.1993	225.586	98.9195	225.586	98.8507	225.586	98.5791	225.586	98.4029	225.586	98.2084	225.586	97.8723	225.586	97.8394	225.586	97.2938	225.586	97.5119	225.586	96.7293	225.586	97.2672	225.586	96.2704	225.586	97.1364	225.586	96.0185	225.586	97.1327	225.586	96.0368	225.586	97.2495	225.586	96.3078	225.586	97.4629	225.586	96.7418	225.586	97.7328	225.586	97.2285	225.586	98.0075	225.586	97.6788	225.586	98.234	225.586	98.0375	225.586	98.3696	225.586	98.2773	225.586	98.3879
232.91	99.7164	232.91	99.6456	232.91	99.6976	232.91	99.4862	232.91	99.5861	232.91	99.2392	232.91	99.3772	232.91	98.9079	232.91	99.0647	232.91	98.5031	232.91	98.6424	232.91	98.0481	232.91	98.1085	232.91	97.5834	232.91	97.4757	232.91	97.1658	232.91	96.7871	232.91	96.8579	232.91	96.1348	232.91	96.7076	232.91	95.6582	232.91	96.7295	232.91	95.4898	232.91	96.9007	232.91	95.6657	232.91	97.1725	232.91	96.0956	232.91	97.4838	232.91	96.6324	232.91	97.7732	232.91	97.153	232.91	97.9877	232.91	97.584	232.91	98.0903	232.91	97.8908	232.91	98.0603
241.699	99.7497	241.699	99.6733	241.699	99.7399	241.699	99.5085	241.699	99.6415	241.699	99.2496	241.699	99.4484	241.699	98.8916	241.699	99.153	241.699	98.4356	241.699	98.7477	241.699	97.8968	241.699	98.2267	241.699	97.3119	241.699	97.5914	241.699	96.7441	241.699	96.862	241.699	96.2753	241.699	96.0973	241.699	95.9809	241.699	95.4141	241.699	95.8984	241.699	94.9776	241.699	96.0158	241.699	94.9228	241.699	96.2864	241.699	95.2487	241.699	96.6459	241.699	95.8136	241.699	97.0214	241.699	96.4369	241.699	97.3377	241.699	96.9796	241.699	97.5282	241.699	97.3606	241.699	97.5442
250.488	100.098	250.488	100.111	250.488	100.006	250.488	100.038	250.488	99.8432	250.488	99.8672	250.488	99.6143	250.488	99.5878	250.488	99.3227	250.488	99.187	250.488	98.9671	250.488	98.6576	250.488	98.5398	250.488	98.008	250.488	98.0298	250.488	97.2781	250.488	97.4328	250.488	96.5497	250.488	96.7714	250.488	95.9378	250.488	96.1162	250.488	95.546	250.488	95.5899	250.488	95.4116	250.488	95.3201	250.488	95.4954	250.488	95.3522	250.488	95.7198	250.488	95.6115	250.488	96.0055	250.488	95.9621	250.488	96.281	250.488	96.2828	250.488	96.4831	250.488	96.4956	250.488	96.5633
259.277	100.034	259.277	99.9765	259.277	100.005	259.277	99.8379	259.277	99.8874	259.277	99.6238	259.277	99.6816	259.277	99.3385	259.277	99.3932	259.277	98.9823	259.277	99.0319	259.277	98.5538	259.277	98.6093	259.277	98.0572	259.277	98.1338	259.277	97.517	259.277	97.6099	259.277	96.9907	259.277	97.0467	259.277	96.5644	259.277	96.4808	259.277	96.317	259.277	96.0012	259.277	96.2725	259.277	95.7372	259.277	96.3902	259.277	95.7751	259.277	96.5994	259.277	96.0698	259.277	96.8345	259.277	96.4739	259.277	97.0429	259.277	96.844	259.277	97.1797	259.277	97.0975	259.277	97.2069
268.066	99.8394	268.066	99.7536	268.066	99.8484	268.066	99.5917	268.066	99.7788	268.066	99.3539	268.066	99.6275	268.066	99.0406	268.066	99.3911	268.066	98.653	268.066	99.068	268.066	98.1946	268.066	98.6614	268.066	97.6763	268.066	98.1804	268.066	97.1274	268.066	97.6392	268.066	96.6107	268.066	97.0568	268.066	96.2237	268.066	96.4621	268.066	96.061	268.066	95.9081	268.066	96.1431	268.066	95.4846	268.066	96.3905	268.066	95.3009	268.066	96.6814	268.066	95.4163	268.066	96.9205	268.066	95.7743	268.066	97.0574	268.066	96.2311	268.066	97.0672	268.066	96.645	268.066	96.9322
276.855	99.755	276.855	99.7359	276.855	99.6961	276.855	99.6372	276.855	99.5606	276.855	99.4571	276.855	99.3492	276.855	99.1926	276.855	99.0625	276.855	98.8396	276.855	98.7034	276.855	98.3931	276.855	98.28	276.855	97.8515	276.855	97.8088	276.855	97.2242	276.855	97.317	276.855	96.5492	276.855	96.8482	276.855	95.9174	276.855	96.4653	276.855	95.4815	276.855	96.2367	276.855	95.3907	276.855	96.1983	276.855	95.6599	276.855	96.3229	276.855	96.1363	276.855	96.538	276.855	96.622	276.855	96.773	276.855	96.9855	276.855	96.9836	276.855	97.1811	276.855	97.1426	276.855	97.2211
287.109	99.5915	287.109	99.515	287.109	99.5744	287.109	99.3555	287.109	99.4591	287.109	99.127	287.109	99.246	287.109	98.8424	287.109	98.936	287.109	98.5091	287.109	98.5304	287.109	98.1261	287.109	98.0359	287.109	97.6833	287.109	97.4682	287.109	97.1671	287.109	96.8495	287.109	96.5805	287.109	96.2024	287.109	95.9807	287.109	95.5632	287.109	95.5171	287.109	95.0227	287.109	95.3936	287.109	94.7398	287.109	95.6971	287.109	94.8469	287.109	96.2778	287.109	95.3087	287.109	96.8791	287.109	95.9453	287.109	97.3106	287.109	96.5758	287.109	97.4887	287.109	97.0845	287.109	97.404
297.363	100.346	297.363	100.267	297.363	100.32	297.363	100.083	297.363	100.191	297.363	99.7989	297.363	99.9612	297.363	99.4217	297.363	99.6264	297.363	98.9643	297.363	99.1717	297.363	98.4608	297.363	98.5831	297.363	97.9765	297.363	97.8687	297.363	97.5886	297.363	97.0783	297.363	97.3288	297.363	96.3026	297.363	97.1479	297.363	95.6426	297.363	96.9619	297.363	95.1799	297.363	96.746	297.363	94.9865	297.363	96.5867	297.363	95.1266	297.363	96.62	297.363	95.5845	297.363	96.8772	297.363	96.2179	297.363	97.2234	297.363	96.8351	297.363	97.4746	297.363	97.2913	297.363	97.5107
307.617	100.143	307.617	100.14	307.617	100.089	307.617	100.074	307.617	99.9777	307.617	99.928	307.617	99.8122	307.617	99.6701	307.617	99.592	307.617	99.2596	307.617	99.3106	307.617	98.6621	307.617	98.9529	307.617	97.8799	307.617	98.5039	307.617	96.9996	307.617	97.9624	307.617	96.2297	307.617	97.3523	307.617	95.8246	307.617	96.7248	307.617	95.8597	307.617	96.1563	307.617	96.1575	307.617	95.7458	307.617	96.5002	307.617	95.5944	307.617	96.7883	307.617	95.7467	307.617	97.0182	307.617	96.1356	307.617	97.1974	307.617	96.6075	307.617	97.2923	307.617	97.0077	307.617	97.2424
319.336	100.443	319.336	100.38	319.336	100.425	319.336	100.245	319.336	100.315	319.336	100.036	319.336	100.108	319.336	99.738	319.336	99.7962	319.336	99.32	319.336	99.3741	319.336	98.7464	319.336	98.8392	319.336	97.9881	319.336	98.2084	319.336	97.0454	319.336	97.5287	319.336	95.9928	319.336	96.8705	319.336	95.0463	319.336	96.3072	319.336	94.5486	319.336	95.9101	319.336	94.696	319.336	95.7568	319.336	95.2939	319.336	95.8903	319.336	95.9903	319.336	96.2416	319.336	96.5625	319.336	96.6497	319.336	96.9432	319.336	96.9751	319.336	97.1491	319.336	97.1624	319.336	97.2167
329.59	100.166	329.59	100.11	329.59	100.171	329.59	100.014	329.59	100.105	329.59	99.8725	329.59	99.9507	329.59	99.6631	329.59	99.6941	329.59	99.3515	329.59	99.3236	329.59	98.9006	329.59	98.8262	329.59	98.2821	329.59	98.1963	329.59	97.4921	329.59	97.4571	329.59	96.5753	329.59	96.6772	329.59	95.6537	329.59	95.9526	329.59	94.9399	329.59	95.3638	329.59	94.6678	329.59	94.9769	329.59	94.9133	329.59	94.8888	329.59	95.5015	329.59	95.1694	329.59	96.156	329.59	95.721	329.59	96.6742	329.59	96.3167	329.59	96.9622	329.59	96.7698	329.59	96.9936
341.309	100.615	341.309	100.582	341.309	100.542	341.309	100.449	341.309	100.356	341.309	100.218	341.309	100.057	341.309	99.8853	341.309	99.6517	341.309	99.4452	341.309	99.1332	341.309	98.8903	341.309	98.4803	341.309	98.2059	341.309	97.6758	341.309	97.383	341.309	96.772	341.309	96.4721	341.309	95.9672	341.309	95.6518	341.309	95.547	341.309	95.1828	341.309	95.5975	341.309	95.1721	341.309	95.8994	341.309	95.4757	341.309	96.2234	341.309	95.9183	341.309	96.5189	341.309	96.4184	341.309	96.8318	341.309	96.9125	341.309	97.1597	341.309	97.2976	341.309	97.411	341.309	97.4748
353.027	100.536	353.027	100.491	353.027	100.514	353.027	100.382	353.027	100.413	353.027	100.202	353.027	100.227	353.027	99.9366	353.027	99.9618	353.027	99.573	353.027	99.6207	353.027	99.1118	353.027	99.1799	353.027	98.5591	353.027	98.5602	353.027	97.9058	353.027	97.636	353.027	97.1238	353.027	96.2939	353.027	96.226	353.027	94.5716	353.027	95.391	353.027	92.968	353.027	94.9972	353.027	92.5026	353.027	95.2673	353.027	93.3419	353.027	95.9316	353.027	94.566	353.027	96.5817	353.027	95.6213	353.027	97.0185	353.027	96.3986	353.027	97.2112	353.027	96.9091	353.027	97.1746
366.211	99.9229	366.211	99.8562	366.211	99.9102	366.211	99.6903	366.211	99.8254	366.211	99.4084	366.211	99.6588	366.211	99.0029	366.211	99.3982	366.211	98.4697	366.211	99.0472	366.211	97.7967	366.211	98.6216	366.211	96.9635	366.211	98.1155	366.211	95.9605	366.211	97.473	366.211	94.8317	366.211	96.6093	366.211	93.7409	366.211	95.4799	366.211	93.0047	366.211	94.1685	366.211	92.919	366.211	92.9697	366.211	93.442	366.211	92.3395	366.211	94.249	366.211	92.5387	366.211	95.0386	366.211	93.3559	366.211	95.6252	366.211	94.3658	366.211	95.8916	366.211	95.2321	366.211	95.765
379.395	100.399	379.395	100.349	379.395	100.358	379.395	100.194	379.395	100.243	379.395	99.9278	379.395	100.061	379.395	99.5514	379.395	99.8042	379.395	99.0633	379.395	99.4663	379.395	98.4575	379.395	99.0616	379.395	97.725	379.395	98.6079	379.395	96.8573	379.395	98.0719	379.395	95.8494	379.395	97.3534	379.395	94.7249	379.395	96.3692	379.395	93.6282	379.395	95.2171	379.395	92.9475	379.395	94.3096	379.395	93.1129	379.395	94.1065	379.395	94.0135	379.395	94.5378	379.395	95.1177	379.395	95.2038	379.395	96.0237	379.395	95.8584	379.395	96.5508	379.395	96.3828	379.395	96.6532
392.578	99.2094	392.578	99.1256	392.578	99.1985	392.578	98.9662	392.578	99.0958	392.578	98.7578	392.578	98.915	392.578	98.5077	392.578	98.6519	392.578	98.1908	392.578	98.2776	392.578	97.7653	392.578	97.7786	392.578	97.2087	392.578	97.2012	392.578	96.5443	392.578	96.6217	392.578	95.8282	392.578	96.0349	392.578	95.0998	392.578	95.3174	392.578	94.368	392.578	94.3885	392.578	93.7266	392.578	93.4694	392.578	93.473	392.578	93.121	392.578	93.8495	392.578	93.575	392.578	94.6179	392.578	94.3577	392.578	95.3152	392.578	95.0277	392.578	95.6867	392.578	95.4787	392.578	95.7147
405.762	99.6419	405.762	99.5107	405.762	99.6213	405.762	99.2497	405.762	99.4404	405.762	98.8868	405.762	99.1133	405.762	98.4518	405.762	98.6695	405.762	97.9629	405.762	98.1198	405.762	97.4069	405.762	97.4293	405.762	96.7328	405.762	96.5538	405.762	95.8823	405.762	95.5342	405.762	94.8659	405.762	94.5565	405.762	93.8758	405.762	93.8318	405.762	93.2918	405.762	93.3953	405.762	93.332	405.762	93.2179	405.762	93.7747	405.762	93.4084	405.762	94.3007	405.762	93.9935	405.762	94.7709	405.762	94.7054	405.762	95.1539	405.762	95.2487	405.762	95.4272	405.762	95.5225	405.762	95.5625
420.41	99.5566	420.41	99.4914	420.41	99.5414	420.41	99.3589	420.41	99.4226	420.41	99.1479	420.41	99.1972	420.41	98.8365	420.41	98.8911	420.41	98.4099	420.41	98.5281	420.41	97.8558	420.41	98.0864	420.41	97.145	420.41	97.4956	420.41	96.2268	420.41	96.6789	420.41	95.0555	420.41	95.5882	420.41	93.6573	420.41	94.1961	420.41	92.2964	420.41	92.4951	420.41	91.6496	420.41	90.7302	420.41	92.2064	420.41	89.9549	420.41	93.4128	420.41	90.9842	420.41	94.5109	420.41	92.6589	420.41	95.1922	420.41	93.9946	420.41	95.4352	420.41	94.8459	420.41	95.3078
435.059	99.1026	435.059	99.0194	435.059	99.1222	435.059	98.8688	435.059	99.0601	435.059	98.6426	435.059	98.8833	435.059	98.3377	435.059	98.58	435.059	97.9415	435.059	98.1761	435.059	97.4133	435.059	97.6895	435.059	96.6875	435.059	97.07	435.059	95.7094	435.059	96.229	435.059	94.4888	435.059	95.1669	435.059	93.1524	435.059	94.0693	435.059	91.9911	435.059	93.1913	435.059	91.4647	435.059	92.5878	435.059	91.9002	435.059	92.226	435.059	93.0026	435.059	92.3377	435.059	94.155	435.059	93.0981	435.059	94.9849	435.059	94.1317	435.059	95.3945	435.059	94.9596	435.059	95.3869
451.172	99.732	451.172	99.6955	451.172	99.6457	451.172	99.5104	451.172	99.478	451.172	99.1771	451.172	99.2576	451.172	98.7234	451.172	98.9794	451.172	98.202	451.172	98.6221	451.172	97.6614	451.172	98.1762	451.172	97.0801	451.172	97.6272	451.172	96.3212	451.172	96.9027	451.172	95.1868	451.172	95.8686	451.172	93.5586	451.172	94.43	451.172	91.5964	451.172	92.7323	451.172	90.0208	451.172	91.3447	451.172	89.9343	451.172	90.8819	451.172	91.3829	451.172	91.3351	451.172	93.2796	451.172	92.4057	451.172	94.798	451.172	93.749	451.172	95.6058	451.172	94.9409	451.172	95.6293
465.82	99.4825	465.82	99.4006	465.82	99.4514	465.82	99.2264	465.82	99.3224	465.82	99.0063	465.82	99.1234	465.82	98.7692	465.82	98.8617	465.82	98.4888	465.82	98.5179	465.82	98.0953	465.82	98.0813	465.82	97.5296	465.82	97.5784	465.82	96.778	465.82	97.0273	465.82	95.85	465.82	96.3506	465.82	94.7433	465.82	95.383	465.82	93.494	465.82	94.0329	465.82	92.3408	465.82	92.5516	465.82	91.7611	465.82	91.7101	465.82	91.9756	465.82	92.0285	465.82	92.6453	465.82	92.9428	465.82	93.3798	465.82	93.7717	465.82	93.9765	465.82	94.2445	465.82	94.3003
483.398	99.7575	483.398	99.7206	483.398	99.6939	483.398	99.5886	483.398	99.5195	483.398	99.3596	483.398	99.2502	483.398	99.0467	483.398	98.936	483.398	98.6739	483.398	98.6087	483.398	98.2323	483.398	98.2262	483.398	97.6443	483.398	97.7012	483.398	96.7862	483.398	96.9751	483.398	95.5516	483.398	96.0305	483.398	93.9157	483.398	94.8416	483.398	92.0216	483.398	93.3922	483.398	90.3902	483.398	91.9215	483.398	90.0228	483.398	91.2238	483.398	91.2113	483.398	91.8146	483.398	92.918	483.398	93.003	483.398	94.2971	483.398	94.0987	483.398	95.0743	483.398	94.8764	483.398	95.2381
499.512	99.9631	499.512	99.8529	499.512	99.9705	499.512	99.6596	499.512	99.8467	499.512	99.3854	499.512	99.5693	499.512	99.0133	499.512	99.148	499.512	98.5268	499.512	98.6397	499.512	97.9258	499.512	98.1015	499.512	97.2113	499.512	97.5127	499.512	96.3512	499.512	96.7848	499.512	95.2823	499.512	95.8573	499.512	93.9835	499.512	94.7472	499.512	92.6333	499.512	93.4989	499.512	91.7054	499.512	92.1909	499.512	91.5891	499.512	91.2104	499.512	92.1676	499.512	91.2414	499.512	93.1062	499.512	92.2383	499.512	94.0542	499.512	93.4392	499.512	94.6803	499.512	94.3503	499.512	94.7888
517.09	99.6429	517.09	99.6283	517.09	99.509	517.09	99.4409	517.09	99.2676	517.09	99.1087	517.09	98.9557	517.09	98.7146	517.09	98.6031	517.09	98.3249	517.09	98.2347	517.09	97.904	517.09	97.8659	517.09	97.3321	517.09	97.4822	517.09	96.5082	517.09	97.0007	517.09	95.4075	517.09	96.2685	517.09	94.046	517.09	95.137	517.09	92.4736	517.09	93.6083	517.09	91.0759	517.09	92.1098	517.09	90.897	517.09	91.6124	517.09	92.209	517.09	92.4766	517.09	93.9043	517.09	93.9062	517.09	95.2834	517.09	95.2217	517.09	96.1569	517.09	96.1183	517.09	96.4465
536.133	99.9216	536.133	99.7284	536.133	99.9035	536.133	99.3921	536.133	99.6593	536.133	98.9807	536.133	99.231	536.133	98.5141	536.133	98.6816	536.133	97.9913	536.133	98.0663	536.133	97.4537	536.133	97.4166	536.133	96.9525	536.133	96.712	536.133	96.4002	536.133	95.8723	536.133	95.5144	536.133	94.8084	536.133	93.9644	536.133	93.4655	536.133	91.6723	536.133	91.8324	536.133	89.6954	536.133	90.1951	536.133	90.2208	536.133	89.7771	536.133	92.1761	536.133	91.2491	536.133	93.8114	536.133	93.1214	536.133	94.8347	536.133	94.4454	536.133	95.3381	536.133	95.1632	536.133	95.4332
555.176	99.7164	555.176	99.638	555.176	99.6788	555.176	99.4544	555.176	99.5335	555.176	99.192	555.176	99.2945	555.176	98.865	555.176	98.9699	555.176	98.4492	555.176	98.5656	555.176	97.8898	555.176	98.1009	555.176	97.1334	555.176	97.5915	555.176	96.1583	555.176	96.9771	555.176	94.96	555.176	96.0666	555.176	93.4534	555.176	94.5831	555.176	91.3796	555.176	92.2646	555.176	88.4699	555.176	89.0351	555.176	85.9963	555.176	86.0677	555.176	87.7347	555.176	86.8843	555.176	90.823	555.176	89.7992	555.176	92.9334	555.176	92.1664	555.176	94.0356	555.176	93.6432	555.176	94.2594
574.219	99.6573	574.219	99.5137	574.219	99.6505	574.219	99.2448	574.219	99.4619	574.219	98.8875	574.219	99.0839	574.219	98.5258	574.219	98.5925	574.219	98.272	574.219	98.1463	574.219	98.1548	574.219	97.8454	574.219	98.0216	574.219	97.5959	574.219	97.6124	574.219	97.2018	574.219	96.7082	574.219	96.5251	574.219	95.1689	574.219	95.482	574.219	92.8518	574.219	93.9357	574.219	89.5907	574.219	91.6654	574.219	86.4509	574.219	88.7204	574.219	87.5701	574.219	87.2995	574.219	90.4979	574.219	89.6057	574.219	92.6279	574.219	92.2946	574.219	93.9304	574.219	93.9163	574.219	94.4124
594.727	99.5936	594.727	99.4952	594.727	99.4753	594.727	99.17	594.727	99.1741	594.727	98.6206	594.727	98.7577	594.727	97.9046	594.727	98.2736	594.727	97.1989	594.727	97.7091	594.727	96.7303	594.727	97.0846	594.727	96.5189	594.727	96.5452	594.727	96.3157	594.727	96.1931	594.727	95.8626	594.727	95.8471	594.727	95.0318	594.727	95.1262	594.727	93.7535	594.727	93.6422	594.727	92.0299	594.727	91.1038	594.727	90.4925	594.727	88.1277	594.727	90.8258	594.727	88.5652	594.727	92.6894	594.727	91.4871	594.727	94.2545	594.727	93.5701	594.727	95.0114	594.727	94.6626	594.727	95.1022
615.234	99.1676	615.234	99.02	615.234	99.1257	615.234	98.6859	615.234	98.8608	615.234	98.1584	615.234	98.3643	615.234	97.4773	615.234	97.7268	615.234	96.7791	615.234	97.1129	615.234	96.2735	615.234	96.6278	615.234	96.0439	615.234	96.2681	615.234	95.8595	615.234	95.9739	615.234	95.329	615.234	95.6003	615.234	94.1429	615.234	94.8855	615.234	92.1052	615.234	93.5058	615.234	89.1149	615.234	91.1453	615.234	86.4369	615.234	87.945	615.234	88.0298	615.234	86.6652	615.234	90.9572	615.234	89.1348	615.234	92.7846	615.234	91.719	615.234	93.6731	615.234	93.2762	615.234	93.86
637.207	99.0499	637.207	98.9296	637.207	98.8714	637.207	98.4576	637.207	98.4405	637.207	97.6781	637.207	97.7054	637.207	96.6945	637.207	96.6215	637.207	95.5748	637.207	95.399	637.207	94.5028	637.207	94.5093	637.207	94.0403	637.207	94.1375	637.207	94.3871	637.207	94.0735	637.207	94.6998	637.207	94.2542	637.207	94.2102	637.207	94.4455	637.207	92.6745	637.207	93.91	637.207	90.0761	637.207	91.9022	637.207	86.6809	637.207	88.2061	637.207	86.2052	637.207	86.2971	637.207	90.1035	637.207	89.581	637.207	93.1729	637.207	92.5742	637.207	94.7485	637.207	94.3574	637.207	95.088
659.18	97.7694	659.18	97.7775	659.18	97.5747	659.18	97.4861	659.18	97.3188	659.18	96.8737	659.18	97.0389	659.18	96.0542	659.18	96.5838	659.18	95.1952	659.18	95.7402	659.18	94.3404	659.18	94.5367	659.18	93.3983	659.18	93.396	659.18	92.4498	659.18	92.6581	659.18	91.7811	659.18	92.0798	659.18	91.2406	659.18	91.4416	659.18	90.1839	659.18	90.6573	659.18	88.1081	659.18	89.1009	659.18	85.5733	659.18	85.6081	659.18	86.2171	659.18	81.5473	659.18	89.3866	659.18	86.1214	659.18	91.7146	659.18	89.8807	659.18	92.7096	659.18	91.7384	659.18	92.6193
682.617	98.0304	682.617	97.8343	682.617	98.03	682.617	97.5319	682.617	97.7881	682.617	97.1701	682.617	97.3386	682.617	96.704	682.617	96.74	682.617	96.0352	682.617	96.0014	682.617	95.1154	682.617	95.1357	682.617	94.0656	682.617	94.2928	682.617	93.1924	682.617	93.6761	682.617	92.7172	682.617	93.195	682.617	92.364	682.617	92.4713	682.617	91.4164	682.617	91.2574	682.617	89.1611	682.617	89.5524	682.617	85.6434	682.617	87.133	682.617	84.6974	682.617	83.5349	682.617	87.5487	682.617	83.9425	682.617	90.2391	682.617	88.8149	682.617	92.0576	682.617	91.7494	682.617	92.6911
707.52	99.3047	707.52	99.1367	707.52	99.283	707.52	98.8328	707.52	98.9503	707.52	98.3114	707.52	98.3552	707.52	97.5797	707.52	97.6778	707.52	96.7761	707.52	96.9704	707.52	95.9144	707.52	96.1543	707.52	94.9605	707.52	95.2744	707.52	94.2212	707.52	94.5295	707.52	93.9242	707.52	93.9893	707.52	93.5023	707.52	93.4014	707.52	92.225	707.52	92.3278	707.52	89.7153	707.52	90.3251	707.52	85.7477	707.52	86.9557	707.52	82.4937	707.52	82.3105	707.52	86.7056	707.52	83.508	707.52	90.7389	707.52	88.6744	707.52	92.7691	707.52	91.8478	707.52	93.1281
732.422	99.8663	732.422	99.8171	732.422	99.721	732.422	99.4946	732.422	99.474	732.422	98.8897	732.422	99.0991	732.422	98.0257	732.422	98.5041	732.422	97.0362	732.422	97.7084	732.422	96.2317	732.422	96.8665	732.422	95.7947	732.422	96.1273	732.422	95.458	732.422	95.5197	732.422	94.8168	732.422	94.9867	732.422	93.734	732.422	94.4714	732.422	92.2254	732.422	93.7927	732.422	89.999	732.422	92.4677	732.422	86.1955	732.422	89.7618	732.422	82.5312	732.422	85.311	732.422	87.2314	732.422	84.0768	732.422	90.9068	732.422	87.1972	732.422	92.0858	732.422	89.6876	732.422	91.4474
757.324	99.4999	757.324	99.2739	757.324	99.4976	757.324	98.7536	757.324	99.2351	757.324	97.9167	757.324	98.6491	757.324	96.881	757.324	97.786	757.324	95.8297	757.324	96.7154	757.324	94.9206	757.324	95.4307	757.324	94.2599	757.324	94.1414	757.324	93.9304	757.324	93.4528	757.324	93.8355	757.324	93.4771	757.324	93.4605	757.324	93.4491	757.324	92.1058	757.324	92.7609	757.324	89.1654	757.324	91.265	757.324	84.0343	757.324	88.8774	757.324	80.9311	757.324	85.5019	757.324	86.3117	757.324	84.7985	757.324	89.8982	757.324	88.701	757.324	91.6405	757.324	91.2819	757.324	92.1056
785.156	97.8578	785.156	97.5409	785.156	97.7855	785.156	97.0142	785.156	97.3567	785.156	96.4171	785.156	96.724	785.156	95.6114	785.156	95.9206	785.156	94.3957	785.156	94.9496	785.156	93.009	785.156	94.0061	785.156	92.1169	785.156	93.2541	785.156	91.739	785.156	92.6321	785.156	91.4957	785.156	92.1533	785.156	91.4887	785.156	91.8217	785.156	91.3331	785.156	91.3312	785.156	89.7379	785.156	90.178	785.156	85.1426	785.156	87.3725	785.156	77.2827	785.156	80.9787	785.156	81.4673	785.156	81.2044	785.156	85.9383	785.156	86.9814	785.156	88.8231	785.156	89.4445	785.156	90.0018
811.523	97.9841	811.523	97.9127	811.523	97.8956	811.523	97.7114	811.523	97.4338	811.523	97.1153	811.523	96.6378	811.523	96.0208	811.523	95.7217	811.523	94.6463	811.523	94.628	811.523	93.0507	811.523	93.138	811.523	91.1814	811.523	91.4928	811.523	90.1124	811.523	90.3367	811.523	90.6391	811.523	89.8275	811.523	91.1217	811.523	89.8401	811.523	90.7073	811.523	90.1512	811.523	89.3911	811.523	89.8092	811.523	86.6356	811.523	87.5741	811.523	81.847	811.523	82.3364	811.523	83.5383	811.523	77.8778	811.523	87.7204	811.523	84.0602	811.523	89.5343	811.523	88.0413	811.523	89.6533
840.82	97.7205	840.82	97.7741	840.82	97.5841	840.82	97.5306	840.82	97.4778	840.82	96.9793	840.82	97.1404	840.82	96.1416	840.82	96.3125	840.82	94.9075	840.82	95.1165	840.82	93.2992	840.82	93.8064	840.82	91.6053	840.82	92.3453	840.82	90.1286	840.82	90.8781	840.82	89.2727	840.82	90.3865	840.82	89.3246	840.82	90.6323	840.82	89.4252	840.82	90.1168	840.82	88.4136	840.82	88.3889	840.82	85.6739	840.82	85.6125	840.82	81.7021	840.82	80.6629	840.82	82.2662	840.82	76.201	840.82	86.3889	840.82	84.9686	840.82	88.979	840.82	88.7478	840.82	89.7771
870.117	98.0257	870.117	97.7428	870.117	98.0308	870.117	97.2365	870.117	97.6318	870.117	96.5359	870.117	96.992	870.117	95.8218	870.117	96.3837	870.117	95.0659	870.117	95.5356	870.117	93.7121	870.117	94.0156	870.117	91.328	870.117	92.1756	870.117	88.8872	870.117	90.8092	870.117	88.412	870.117	89.6883	870.117	88.7677	870.117	89.0472	870.117	88.4932	870.117	89.49	870.117	87.3673	870.117	89.5992	870.117	84.2076	870.117	87.9405	870.117	75.7609	870.117	83.6988	870.117	80.9989	870.117	78.8473	870.117	86.1969	870.117	84.1675	870.117	88.5085	870.117	88.2074	870.117	89.345
900.879	98.194	900.879	98.1078	900.879	98.0928	900.879	97.8534	900.879	97.9589	900.879	97.5369	900.879	97.6936	900.879	96.8776	900.879	97.1256	900.879	95.6821	900.879	96.2609	900.879	94.4157	900.879	94.9424	900.879	93.2982	900.879	93.0025	900.879	91.4863	900.879	90.9259	900.879	88.6971	900.879	89.3897	900.879	87.5427	900.879	88.3423	900.879	88.1596	900.879	88.1187	900.879	87.3365	900.879	87.989	900.879	84.0505	900.879	86.1494	900.879	75.7691	900.879	80.4663	900.879	72.9654	900.879	73.0253	900.879	83.041	900.879	83.1477	900.879	86.4037	900.879	86.4038	900.879	87.2361
933.105	102.253	933.105	102.109	933.105	102.279	933.105	101.756	933.105	101.986	933.105	100.946	933.105	101.389	933.105	100.027	933.105	100.596	933.105	99.4509	933.105	99.5477	933.105	98.6141	933.105	98.3399	933.105	96.8512	933.105	97.1208	933.105	95.1916	933.105	95.6435	933.105	94.8585	933.105	94.0609	933.105	94.5518	933.105	93.5196	933.105	93.7552	933.105	93.8155	933.105	93.152	933.105	93.5344	933.105	91.6822	933.105	92.0204	933.105	87.1707	933.105	88.4968	933.105	76.1502	933.105	80.0731	933.105	81.2831	933.105	77.3232	933.105	86.3149	933.105	86.4636	933.105	88.193
965.332	102.962	965.332	102.707	965.332	102.656	965.332	102.149	965.332	102.052	965.332	101.694	965.332	101.337	965.332	101.012	965.332	100.518	965.332	99.6762	965.332	99.6481	965.332	98.154	965.332	98.5402	965.332	96.9534	965.332	96.9542	965.332	95.4741	965.332	95.2935	965.332	93.7497	965.332	94.1373	965.332	93.589	965.332	93.54	965.332	93.7359	965.332	93.3398	965.332	92.9079	965.332	92.7415	965.332	91.0808	965.332	91.078	965.332	87.284	965.332	88.1526	965.332	78.8848	965.332	82.8287	965.332	86.0679	965.332	84.9565	965.332	89.3402	965.332	88.8925	965.332	89.8488
1,000.49	102.389	1,000.49	102.314	1,000.49	102.137	1,000.49	101.862	1,000.49	101.67	1,000.49	101.085	1,000.49	101.016	1,000.49	100.126	1,000.49	100.014	1,000.49	99.0632	1,000.49	98.6537	1,000.49	97.7938	1,000.49	97.3499	1,000.49	96.1801	1,000.49	96.118	1,000.49	94.6115	1,000.49	94.4785	1,000.49	93.775	1,000.49	92.6854	1,000.49	93.4447	1,000.49	91.8132	1,000.49	93.5514	1,000.49	91.9425	1,000.49	93.8165	1,000.49	92.5773	1,000.49	92.5517	1,000.49	92.5755	1,000.49	87.8006	1,000.49	89.5738	1,000.49	79.7585	1,000.49	79.7929	1,000.49	85.9364	1,000.49	82.9521	1,000.49	90.0319	1,000.49	89.7186	1,000.49	91.5918
1,035.64	101.92	1,035.64	101.623	1,035.64	101.805	1,035.64	101.077	1,035.64	101.252	1,035.64	100.395	1,035.64	100.467	1,035.64	99.5941	1,035.64	99.6539	1,035.64	98.6512	1,035.64	98.6391	1,035.64	97.4552	1,035.64	97.1437	1,035.64	95.8697	1,035.64	95.3297	1,035.64	93.8144	1,035.64	93.4443	1,035.64	91.704	1,035.64	91.5702	1,035.64	91.301	1,035.64	90.8901	1,035.64	91.8807	1,035.64	91.7137	1,035.64	92.0617	1,035.64	91.6606	1,035.64	91.5423	1,035.64	89.9602	1,035.64	89.3563	1,035.64	87.4286	1,035.64	81.8217	1,035.64	80.6708	1,035.64	83.9521	1,035.64	79.56	1,035.64	88.0363	1,035.64	86.5212	1,035.64	87.9567
1,072.27	101.152	1,072.27	100.967	1,072.27	101.021	1,072.27	100.5	1,072.27	100.51	1,072.27	99.7216	1,072.27	99.8392	1,072.27	98.7817	1,072.27	98.9614	1,072.27	97.7592	1,072.27	97.5729	1,072.27	96.4369	1,072.27	96.1293	1,072.27	94.5962	1,072.27	94.8423	1,072.27	92.2489	1,072.27	92.8576	1,072.27	89.92	1,072.27	90.6319	1,072.27	89.7016	1,072.27	89.3841	1,072.27	91.4279	1,072.27	89.2956	1,072.27	91.6918	1,072.27	90.8438	1,072.27	90.0459	1,072.27	90.9487	1,072.27	86.6827	1,072.27	88.5955	1,072.27	80.4941	1,072.27	83.96	1,072.27	83.899	1,072.27	79.0462	1,072.27	87.5389	1,072.27	86.6165	1,072.27	88.8666
1,108.89	99.8243	1,108.89	99.548	1,108.89	99.7569	1,108.89	99.0204	1,108.89	99.2963	1,108.89	98.1504	1,108.89	98.4638	1,108.89	97.0325	1,108.89	97.356	1,108.89	95.9741	1,108.89	96.3402	1,108.89	94.8486	1,108.89	95.3679	1,108.89	93.559	1,108.89	93.9283	1,108.89	92.3103	1,108.89	92.1301	1,108.89	90.5578	1,108.89	90.3072	1,108.89	88.6097	1,108.89	87.8773	1,108.89	88.909	1,108.89	86.254	1,108.89	89.6586	1,108.89	87.8371	1,108.89	88.7763	1,108.89	89.5183	1,108.89	85.8344	1,108.89	87.8431	1,108.89	78.9294	1,108.89	80.5166	1,108.89	82.3336	1,108.89	76.4229	1,108.89	86.2525	1,108.89	83.6934	1,108.89	85.7856
1,148.44	99.2593	1,148.44	98.8958	1,148.44	99.3074	1,148.44	98.4832	1,148.44	98.6359	1,148.44	97.3581	1,148.44	97.6565	1,148.44	95.8884	1,148.44	96.6739	1,148.44	94.984	1,148.44	95.6254	1,148.44	94.0138	1,148.44	94.5569	1,148.44	92.8743	1,148.44	93.4837	1,148.44	91.5447	1,148.44	91.808	1,148.44	89.1766	1,148.44	89.7015	1,148.44	87.1102	1,148.44	88.3895	1,148.44	87.3911	1,148.44	87.3577	1,148.44	88.718	1,148.44	87.8128	1,148.44	88.1346	1,148.44	88.2398	1,148.44	84.4611	1,148.44	86.5912	1,148.44	76.8373	1,148.44	82.6403	1,148.44	83.2972	1,148.44	74.2497	1,148.44	86.541	1,148.44	84.2908	1,148.44	87.306
1,189.45	99.5545	1,189.45	99.2871	1,189.45	99.3874	1,189.45	98.5824	1,189.45	98.9371	1,189.45	97.6123	1,189.45	98.412	1,189.45	96.4255	1,189.45	97.5747	1,189.45	95.1254	1,189.45	96.0555	1,189.45	93.9148	1,189.45	94.774	1,189.45	92.8237	1,189.45	93.9754	1,189.45	91.4321	1,189.45	92.4881	1,189.45	89.086	1,189.45	90.7279	1,189.45	87.1918	1,189.45	88.7341	1,189.45	87.422	1,189.45	87.3182	1,189.45	88.2078	1,189.45	88.457	1,189.45	87.8978	1,189.45	89.4452	1,189.45	85.0804	1,189.45	88.4716	1,189.45	77.6255	1,189.45	81.9643	1,189.45	77.8555	1,189.45	70.6347	1,189.45	84.5304	1,189.45	81.0815	1,189.45	84.2186
1,230.47	100.149	1,230.47	99.6585	1,230.47	100.025	1,230.47	98.9384	1,230.47	99.5317	1,230.47	98.1128	1,230.47	98.7916	1,230.47	97.0291	1,230.47	97.6642	1,230.47	95.8175	1,230.47	96.4337	1,230.47	94.42	1,230.47	95.1243	1,230.47	92.821	1,230.47	94.0359	1,230.47	91.2244	1,230.47	93.4	1,230.47	89.6792	1,230.47	92.0694	1,230.47	87.8632	1,230.47	90.0003	1,230.47	86.1002	1,230.47	88.6749	1,230.47	88.2452	1,230.47	89.03	1,230.47	89.5324	1,230.47	89.9411	1,230.47	87.6278	1,230.47	88.7448	1,230.47	80.2316	1,230.47	85.472	1,230.47	76.5926	1,230.47	79.1212	1,230.47	83.1285	1,230.47	80.9993	1,230.47	84.5345
1,274.41	100.603	1,274.41	100.404	1,274.41	100.508	1,274.41	99.8389	1,274.41	100.133	1,274.41	98.8915	1,274.41	99.2939	1,274.41	97.66	1,274.41	98.3341	1,274.41	96.1962	1,274.41	97.4477	1,274.41	94.8808	1,274.41	96.101	1,274.41	94.1281	1,274.41	94.6328	1,274.41	92.9113	1,274.41	93.4401	1,274.41	91.436	1,274.41	92.0242	1,274.41	89.1362	1,274.41	90.0966	1,274.41	86.1382	1,274.41	88.2814	1,274.41	88.0934	1,274.41	88.4569	1,274.41	88.8659	1,274.41	89.8561	1,274.41	87.0957	1,274.41	89.7796	1,274.41	81.469	1,274.41	86.4702	1,274.41	79.0552	1,274.41	77.8162	1,274.41	85.7776	1,274.41	82.0683	1,274.41	86.3656
1,319.82	101.081	1,319.82	100.996	1,319.82	101.003	1,319.82	100.442	1,319.82	100.529	1,319.82	99.3765	1,319.82	99.6399	1,319.82	98.2579	1,319.82	98.552	1,319.82	96.861	1,319.82	97.1661	1,319.82	95.0926	1,319.82	95.7791	1,319.82	94.052	1,319.82	94.6696	1,319.82	93.7772	1,319.82	93.379	1,319.82	92.3348	1,319.82	92.0483	1,319.82	89.3316	1,319.82	90.4332	1,319.82	88.0962	1,319.82	88.4381	1,319.82	88.6711	1,319.82	88.7624	1,319.82	89.6299	1,319.82	89.7584	1,319.82	88.4836	1,319.82	89.2246	1,319.82	82.7793	1,319.82	86.1442	1,319.82	77.1592	1,319.82	80.1611	1,319.82	84.9458	1,319.82	83.949	1,319.82	86.2133
1,366.7	101.198	1,366.7	100.877	1,366.7	101.155	1,366.7	100.504	1,366.7	100.681	1,366.7	99.8555	1,366.7	99.8844	1,366.7	98.6544	1,366.7	99.1182	1,366.7	97.3671	1,366.7	97.9702	1,366.7	95.7617	1,366.7	96.3482	1,366.7	93.9582	1,366.7	94.6981	1,366.7	92.8674	1,366.7	93.141	1,366.7	91.4186	1,366.7	91.9366	1,366.7	89.8604	1,366.7	90.4256	1,366.7	88.5129	1,366.7	89.6117	1,366.7	88.5306	1,366.7	89.7412	1,366.7	90.0914	1,366.7	89.9869	1,366.7	89.6199	1,366.7	89.7347	1,366.7	86.1931	1,366.7	86.7385	1,366.7	78.9089	1,366.7	79.0507	1,366.7	84.8069	1,366.7	84.057	1,366.7	87.0524
1,413.57	101.241	1,413.57	100.705	1,413.57	101.113	1,413.57	100.373	1,413.57	100.448	1,413.57	99.823	1,413.57	99.8487	1,413.57	98.629	1,413.57	98.7687	1,413.57	97.662	1,413.57	97.3276	1,413.57	96.5647	1,413.57	96.0752	1,413.57	94.9149	1,413.57	94.5912	1,413.57	93.2886	1,413.57	93.7151	1,413.57	91.8742	1,413.57	92.7812	1,413.57	90.963	1,413.57	90.6469	1,413.57	88.7038	1,413.57	87.7059	1,413.57	86.7666	1,413.57	86.2129	1,413.57	89.4879	1,413.57	89.1813	1,413.57	89.9542	1,413.57	90.2126	1,413.57	85.701	1,413.57	87.8685	1,413.57	77.6147	1,413.57	79.64	1,413.57	84.1158	1,413.57	77.8231	1,413.57	85.3954
1,463.38	100.903	1,463.38	100.734	1,463.38	100.606	1,463.38	100.272	1,463.38	99.9091	1,463.38	99.4838	1,463.38	99.2399	1,463.38	98.3767	1,463.38	98.1524	1,463.38	97.191	1,463.38	96.9549	1,463.38	96.2017	1,463.38	95.8088	1,463.38	94.6959	1,463.38	94.8414	1,463.38	92.6755	1,463.38	93.4137	1,463.38	91.7907	1,463.38	91.6179	1,463.38	90.4237	1,463.38	90.2397	1,463.38	89.1859	1,463.38	87.7055	1,463.38	88.1198	1,463.38	86.1821	1,463.38	89.1887	1,463.38	88.0515	1,463.38	90.4633	1,463.38	88.2996	1,463.38	86.7312	1,463.38	87.7987	1,463.38	79.0294	1,463.38	83.6905	1,463.38	83.5226	1,463.38	80.3127	1,463.38	83.3531
1,516.11	101.348	1,516.11	101.089	1,516.11	101.338	1,516.11	100.534	1,516.11	100.685	1,516.11	99.5094	1,516.11	99.9065	1,516.11	98.4982	1,516.11	98.9238	1,516.11	97.0574	1,516.11	97.7174	1,516.11	95.4235	1,516.11	96.3954	1,516.11	94.5922	1,516.11	95.1434	1,516.11	92.9602	1,516.11	93.128	1,516.11	91.453	1,516.11	90.6926	1,516.11	89.9946	1,516.11	89.8719	1,516.11	88.5162	1,516.11	88.9677	1,516.11	86.5597	1,516.11	87.4212	1,516.11	87.3416	1,516.11	87.2127	1,516.11	87.789	1,516.11	88.6703	1,516.11	85.0465	1,516.11	86.1232	1,516.11	82.7758	1,516.11	83.0266	1,516.11	84.9812	1,516.11	81.4085	1,516.11	86.2158
1,568.85	101.401	1,568.85	101.153	1,568.85	100.973	1,568.85	100.033	1,568.85	100.971	1,568.85	99.5775	1,568.85	99.9953	1,568.85	98.2381	1,568.85	98.9378	1,568.85	96.4827	1,568.85	97.6777	1,568.85	95.1131	1,568.85	96.1601	1,568.85	92.7699	1,568.85	94.143	1,568.85	91.2937	1,568.85	92.528	1,568.85	91.0465	1,568.85	91.6803	1,568.85	89.6297	1,568.85	90.6005	1,568.85	88.4256	1,568.85	90.1617	1,568.85	87.7673	1,568.85	88.4587	1,568.85	89.0044	1,568.85	87.6569	1,568.85	88.7642	1,568.85	88.7666	1,568.85	85.1715	1,568.85	88.8758	1,568.85	82.1614	1,568.85	84.3084	1,568.85	85.3251	1,568.85	83.3706	1,568.85	84.7658
1,624.51	101.326	1,624.51	100.832	1,624.51	101.524	1,624.51	100.662	1,624.51	101.209	1,624.51	99.6819	1,624.51	100.684	1,624.51	98.3415	1,624.51	100.12	1,624.51	96.9831	1,624.51	98.6818	1,624.51	95.2017	1,624.51	96.9077	1,624.51	92.8179	1,624.51	95.7784	1,624.51	92.3767	1,624.51	94.6126	1,624.51	90.3694	1,624.51	93.6218	1,624.51	88.2443	1,624.51	91.4902	1,624.51	87.4015	1,624.51	88.8996	1,624.51	86.0096	1,624.51	87.3785	1,624.51	85.6068	1,624.51	86.6093	1,624.51	86.3094	1,624.51	88.3707	1,624.51	84.1163	1,624.51	87.7295	1,624.51	75.21	1,624.51	84.3095	1,624.51	81.4412	1,624.51	80.6858	1,624.51	84.3236
1,681.64	102.249	1,681.64	101.851	1,681.64	102.376	1,681.64	101.751	1,681.64	102.174	1,681.64	100.67	1,681.64	102.026	1,681.64	98.7729	1,681.64	100.437	1,681.64	97.9894	1,681.64	99.254	1,681.64	95.4697	1,681.64	98.2304	1,681.64	94.9208	1,681.64	96.712	1,681.64	93.7781	1,681.64	95.2735	1,681.64	90.9764	1,681.64	94.0095	1,681.64	89.9445	1,681.64	90.947	1,681.64	87.989	1,681.64	89.1546	1,681.64	87.3547	1,681.64	88.7594	1,681.64	89.2721	1,681.64	87.299	1,681.64	91.5186	1,681.64	88.8023	1,681.64	89.0108	1,681.64	91.58	1,681.64	79.2257	1,681.64	87.749	1,681.64	84.745	1,681.64	86.2345	1,681.64	86.5329
1,741.7	103.171	1,741.7	103.136	1,741.7	103.038	1,741.7	102.241	1,741.7	102.183	1,741.7	100.885	1,741.7	101.573	1,741.7	100.393	1,741.7	100.379	1,741.7	99.1152	1,741.7	99.924	1,741.7	97.6217	1,741.7	98.2749	1,741.7	95.9713	1,741.7	96.668	1,741.7	93.932	1,741.7	94.5261	1,741.7	93.9643	1,741.7	93.7642	1,741.7	90.4159	1,741.7	92.8542	1,741.7	84.8604	1,741.7	90.894	1,741.7	86.305	1,741.7	89.5281	1,741.7	88.4942	1,741.7	87.9496	1,741.7	89.1806	1,741.7	89.1826	1,741.7	89.1188	1,741.7	86.103	1,741.7	83.869	1,741.7	85.2726	1,741.7	85.5543	1,741.7	83.4187	1,741.7	88.5734
1,803.22	102.001	1,803.22	102.05	1,803.22	102.518	1,803.22	101.798	1,803.22	101.955	1,803.22	101.555	1,803.22	100.61	1,803.22	100.15	1,803.22	100.069	1,803.22	98.4947	1,803.22	98.0914	1,803.22	97.2316	1,803.22	96.3357	1,803.22	95.0498	1,803.22	94.8249	1,803.22	93.8229	1,803.22	93.7684	1,803.22	93.4923	1,803.22	93.9924	1,803.22	91.6291	1,803.22	87.5013	1,803.22	92.1479	1,803.22	85.7388	1,803.22	91.9821	1,803.22	86.9593	1,803.22	91.6316	1,803.22	88.6179	1,803.22	90.5467	1,803.22	87.834	1,803.22	89.3169	1,803.22	89.4923	1,803.22	84.7965	1,803.22	80.5575	1,803.22	84.7474	1,803.22	85.4904	1,803.22	85.9192
1,866.21	102.607	1,866.21	100.716	1,866.21	102.55	1,866.21	101.397	1,866.21	101.767	1,866.21	100.596	1,866.21	100.647	1,866.21	99.2724	1,866.21	99.5112	1,866.21	98.1352	1,866.21	98.0566	1,866.21	97.5546	1,866.21	97.7458	1,866.21	97.5882	1,866.21	95.2297	1,866.21	94.6231	1,866.21	95.3018	1,866.21	92.0269	1,866.21	94.13	1,866.21	92.4433	1,866.21	90.5309	1,866.21	90.4784	1,866.21	87.8072	1,866.21	89.3424	1,866.21	85.9633	1,866.21	88.1136	1,866.21	87.8704	1,866.21	87.7747	1,866.21	81.9742	1,866.21	86.6004	1,866.21	90.5074	1,866.21	84.2087	1,866.21	85.4233	1,866.21	80.8376	1,866.21	76.8243	1,866.21	85.797
1,932.13	100.82	1,932.13	100.992	1,932.13	101.604	1,932.13	100.89	1,932.13	100.139	1,932.13	99.4787	1,932.13	100.811	1,932.13	100.679	1,932.13	99.9995	1,932.13	99.1797	1,932.13	98.6637	1,932.13	96.5056	1,932.13	97.7016	1,932.13	94.3285	1,932.13	94.6654	1,932.13	94.0779	1,932.13	93.3761	1,932.13	93.0843	1,932.13	88.3714	1,932.13	86.7309	1,932.13	88.3433	1,932.13	89.9504	1,932.13	74.6911	1,932.13	89.7731	1,932.13	90.5608	1,932.13	84.4937	1,932.13	82.923	1,932.13	89.8391	1,932.13	90.1527	1,932.13	90.2775	1,932.13	95.0649	1,932.13	88.0025	1,932.13	86.6315	1,932.13	85.6357	1,932.13	83.2611	1,932.13	89.909
1,999.51	101.805	1,999.51	101.483	1,999.51	101.661	1,999.51	101.183	1,999.51	101.84	1,999.51	101.194	1,999.51	102.394	1,999.51	99.8374	1,999.51	102.116	1,999.51	97.5279	1,999.51	100.676	1,999.51	95.9577	1,999.51	97.4882	1,999.51	94.8706	1,999.51	98.4253	1,999.51	93.71	1,999.51	96.5803	1,999.51	91.1021	1,999.51	92.9306	1,999.51	90.9947	1,999.51	91.6789	1,999.51	85.129	1,999.51	91.5514	1,999.51	87.2562	1,999.51	87.8239	1,999.51	90.6522	1,999.51	88.8325	1,999.51	86.4309	1,999.51	90.6385	1,999.51	88.0766	1,999.51	91.1725	1,999.51	82.6734	1,999.51	90.2812	1,999.51	82.3115	1,999.51	79.0332	1,999.51	83.5614
2,069.82	101.237	2,069.82	102.049	2,069.82	101.262	2,069.82	100.94	2,069.82	101.186	2,069.82	101.318	2,069.82	102.479	2,069.82	100.31	2,069.82	101.167	2,069.82	98.8696	2,069.82	100.139	2,069.82	98.6734	2,069.82	98.8739	2,069.82	96.7552	2,069.82	98.6531	2,069.82	94.0455	2,069.82	95.2636	2,069.82	92.5017	2,069.82	94.1338	2,069.82	88.3827	2,069.82	91.8937	2,069.82	88.7364	2,069.82	91.3374	2,069.82	85.411	2,069.82	89.8369	2,069.82	77.8781	2,069.82	85.7385	2,069.82	82.3258	2,069.82	84.9385	2,069.82	88.0183	2,069.82	80.5783	2,069.82	81.8419	2,069.82	79.1381	2,069.82	77.1338	2,069.82	67.733	2,069.82	78.5855
2,143.07	100.86	2,143.07	101.295	2,143.07	100.47	2,143.07	100.241	2,143.07	100.785	2,143.07	100.491	2,143.07	101.628	2,143.07	101.325	2,143.07	101.081	2,143.07	98.8919	2,143.07	99.4432	2,143.07	96.3025	2,143.07	98.9112	2,143.07	95.7989	2,143.07	96.4438	2,143.07	93.8972	2,143.07	94.1882	2,143.07	90.4465	2,143.07	92.2848	2,143.07	85.5282	2,143.07	88.1648	2,143.07	88.291	2,143.07	89.0116	2,143.07	88.192	2,143.07	86.6565	2,143.07	87.6622	2,143.07	79.4142	2,143.07	90.6644	2,143.07	78.8966	2,143.07	88.9217	2,143.07	80.2507	2,143.07	85.06	2,143.07	86.5577	2,143.07	86.081	2,143.07	82.2067	2,143.07	81.7037
2,219.24	101.013	2,219.24	100.53	2,219.24	100.504	2,219.24	100.607	2,219.24	99.9653	2,219.24	100.322	2,219.24	100.146	2,219.24	99.5179	2,219.24	98.44	2,219.24	96.9991	2,219.24	97.9416	2,219.24	97.3835	2,219.24	95.395	2,219.24	93.9535	2,219.24	94.5511	2,219.24	94.9203	2,219.24	92.1623	2,219.24	93.2125	2,219.24	87.3595	2,219.24	91.786	2,219.24	86.1567	2,219.24	90.8336	2,219.24	87.6533	2,219.24	81.9484	2,219.24	86.0585	2,219.24	86.5446	2,219.24	90.2792	2,219.24	88.2418	2,219.24	82.2581	2,219.24	85.2475	2,219.24	87.2825	2,219.24	86.1643	2,219.24	85.447	2,219.24	85.8206	2,219.24	82.132	2,219.24	83.0697
2,296.88	100.557	2,296.88	100.401	2,296.88	100.873	2,296.88	100.348	2,296.88	100.744	2,296.88	98.6994	2,296.88	100.09	2,296.88	98.7249	2,296.88	99.1329	2,296.88	97.2783	2,296.88	97.3942	2,296.88	94.8637	2,296.88	96.388	2,296.88	95.3035	2,296.88	95.1823	2,296.88	92.5074	2,296.88	93.3464	2,296.88	90.8836	2,296.88	93.7344	2,296.88	88.1439	2,296.88	91.6242	2,296.88	85.6249	2,296.88	91.2291	2,296.88	87.8304	2,296.88	79.6838	2,296.88	88.0775	2,296.88	84.4939	2,296.88	86.21	2,296.88	85.854	2,296.88	83.2708	2,296.88	84.4346	2,296.88	86.7086	2,296.88	87.7988	2,296.88	82.0626	2,296.88	84.2765	2,296.88	82.2
2,378.91	101.117	2,378.91	101.21	2,378.91	101.918	2,378.91	100.982	2,378.91	101.818	2,378.91	99.287	2,378.91	101.873	2,378.91	98.9539	2,378.91	99.7073	2,378.91	97.3311	2,378.91	99.284	2,378.91	94.7461	2,378.91	98.2095	2,378.91	92.3741	2,378.91	96.8526	2,378.91	92.0819	2,378.91	95.9959	2,378.91	89.7383	2,378.91	94.87	2,378.91	84.1515	2,378.91	88.7272	2,378.91	86.0078	2,378.91	88.5279	2,378.91	84.4742	2,378.91	89.1518	2,378.91	79.4212	2,378.91	89.2271	2,378.91	83.518	2,378.91	86.202	2,378.91	85.614	2,378.91	80.0828	2,378.91	77.4419	2,378.91	82.5901	2,378.91	66.8731	2,378.91	78.8947	2,378.91	83.3685
2,462.4	101.899	2,462.4	102.076	2,462.4	102.142	2,462.4	101.86	2,462.4	101.994	2,462.4	101.218	2,462.4	101.543	2,462.4	100.163	2,462.4	100.909	2,462.4	98.7756	2,462.4	99.3222	2,462.4	96.789	2,462.4	97.6284	2,462.4	94.6742	2,462.4	95.7396	2,462.4	92.4561	2,462.4	93.8529	2,462.4	90.3554	2,462.4	92.2701	2,462.4	87.8915	2,462.4	90.1478	2,462.4	85.4101	2,462.4	88.247	2,462.4	85.8322	2,462.4	86.3287	2,462.4	85.8551	2,462.4	88.345	2,462.4	80.9522	2,462.4	85.5838	2,462.4	85.6024	2,462.4	85.7075	2,462.4	85.2088	2,462.4	86.6302	2,462.4	79.3148	2,462.4	83.4274	2,462.4	81.9152
2,548.83	101.129	2,548.83	101.508	2,548.83	100.815	2,548.83	101.185	2,548.83	101.081	2,548.83	101.291	2,548.83	100.393	2,548.83	100.06	2,548.83	99.9422	2,548.83	98.2241	2,548.83	98.4971	2,548.83	96.7651	2,548.83	96.4983	2,548.83	94.7281	2,548.83	93.7603	2,548.83	91.3138	2,548.83	92.3382	2,548.83	90.9614	2,548.83	90.3852	2,548.83	88.7281	2,548.83	88.4689	2,548.83	85.3049	2,548.83	87.5653	2,548.83	86.0882	2,548.83	84.4136	2,548.83	87.6335	2,548.83	87.2868	2,548.83	85.8264	2,548.83	85.9684	2,548.83	86.4697	2,548.83	84.8917	2,548.83	86.4341	2,548.83	85.289	2,548.83	82.2219	2,548.83	81.2662	2,548.83	83.1767
2,639.65	99.3874	2,639.65	99.3355	2,639.65	99.273	2,639.65	100.129	2,639.65	99.3099	2,639.65	99.5865	2,639.65	99.3059	2,639.65	98.8095	2,639.65	98.6394	2,639.65	96.7254	2,639.65	97.3393	2,639.65	94.7081	2,639.65	95.817	2,639.65	92.0888	2,639.65	93.2281	2,639.65	89.7002	2,639.65	91.2425	2,639.65	89.0841	2,639.65	89.3259	2,639.65	86.9345	2,639.65	88.3177	2,639.65	86.6204	2,639.65	85.5119	2,639.65	82.1106	2,639.65	79.9569	2,639.65	86.3407	2,639.65	84.2242	2,639.65	84.6798	2,639.65	85.9418	2,639.65	83.702	2,639.65	82.2087	2,639.65	83.5526	2,639.65	84.8531	2,639.65	78.0085	2,639.65	81.5499	2,639.65	80.2045
2,731.93	98.5605	2,731.93	98.6012	2,731.93	99.4591	2,731.93	99.0332	2,731.93	98.8514	2,731.93	98.3893	2,731.93	99.0253	2,731.93	97.2984	2,731.93	98.0455	2,731.93	96.553	2,731.93	96.8646	2,731.93	94.0609	2,731.93	95.0506	2,731.93	91.1596	2,731.93	92.7185	2,731.93	90.3641	2,731.93	90.5746	2,731.93	85.746	2,731.93	89.3408	2,731.93	85.6734	2,731.93	87.3841	2,731.93	85.3589	2,731.93	84.2613	2,731.93	81.4875	2,731.93	83.3772	2,731.93	84.225	2,731.93	82.2021	2,731.93	83.6567	2,731.93	84.2231	2,731.93	83.8018	2,731.93	81.6868	2,731.93	82.1438	2,731.93	83.517	2,731.93	83.1327	2,731.93	81.6519	2,731.93	84.1368
2,828.61	99.5467	2,828.61	99.854	2,828.61	99.5801	2,828.61	99.6177	2,828.61	99.8847	2,828.61	99.5012	2,828.61	99.6831	2,828.61	98.2123	2,828.61	98.576	2,828.61	96.6194	2,828.61	97.0117	2,828.61	94.7567	2,828.61	95.4513	2,828.61	93.8726	2,828.61	93.7206	2,828.61	91.2519	2,828.61	90.9752	2,828.61	87.028	2,828.61	88.3455	2,828.61	84.7373	2,828.61	86.4647	2,828.61	85.3743	2,828.61	86.6885	2,828.61	82.343	2,828.61	85.0976	2,828.61	83.2666	2,828.61	82.8399	2,828.61	83.2682	2,828.61	86.0878	2,828.61	83.9221	2,828.61	83.1506	2,828.61	83.5865	2,828.61	84.0669	2,828.61	82.3951	2,828.61	83.7113	2,828.61	85.0015
2,928.22	99.8497	2,928.22	100.002	2,928.22	99.4991	2,928.22	99.3715	2,928.22	99.8455	2,928.22	99.4786	2,928.22	99.7464	2,928.22	98.8847	2,928.22	99.331	2,928.22	96.5666	2,928.22	97.5416	2,928.22	94.9312	2,928.22	95.7269	2,928.22	94.2841	2,928.22	93.8976	2,928.22	90.8795	2,928.22	91.7691	2,928.22	89.01	2,928.22	88.8631	2,928.22	86.3525	2,928.22	86.3786	2,928.22	84.7379	2,928.22	86.5907	2,928.22	84.1003	2,928.22	85.3239	2,928.22	84.206	2,928.22	82.2838	2,928.22	86.461	2,928.22	86.3092	2,928.22	85.669	2,928.22	83.5031	2,928.22	85.8601	2,928.22	84.8816	2,928.22	85.2068	2,928.22	81.8377	2,928.22	85.6085
3,030.76	99.428	3,030.76	99.2677	3,030.76	99.059	3,030.76	99.2499	3,030.76	99.3224	3,030.76	99.0859	3,030.76	98.8978	3,030.76	98.8792	3,030.76	98.8422	3,030.76	96.7094	3,030.76	97.763	3,030.76	95.3103	3,030.76	95.811	3,030.76	93.1898	3,030.76	93.3952	3,030.76	90.4561	3,030.76	92.1851	3,030.76	88.8632	3,030.76	89.6062	3,030.76	86.7688	3,030.76	85.8419	3,030.76	83.8788	3,030.76	84.9591	3,030.76	82.6042	3,030.76	81.4058	3,030.76	83.248	3,030.76	80.9263	3,030.76	84.2991	3,030.76	85.0939	3,030.76	83.8647	3,030.76	84.9287	3,030.76	85.5574	3,030.76	83.181	3,030.76	83.1834	3,030.76	76.7454	3,030.76	84.2984
3,137.7	100.162	3,137.7	99.6664	3,137.7	100.395	3,137.7	99.5992	3,137.7	99.6022	3,137.7	99.2035	3,137.7	99.4299	3,137.7	98.0014	3,137.7	98.4641	3,137.7	97.3825	3,137.7	97.5155	3,137.7	95.6387	3,137.7	95.5816	3,137.7	92.644	3,137.7	92.9532	3,137.7	91.0352	3,137.7	91.3147	3,137.7	88.9025	3,137.7	89	3,137.7	87.1325	3,137.7	85.9941	3,137.7	81.998	3,137.7	84.0305	3,137.7	82.0422	3,137.7	82.2811	3,137.7	80.6991	3,137.7	78.6113	3,137.7	84.1638	3,137.7	83.6062	3,137.7	80.603	3,137.7	84.9643	3,137.7	81.7186	3,137.7	84.3549	3,137.7	79.0022	3,137.7	76.1914	3,137.7	80.7694
3,249.02	100.282	3,249.02	100.136	3,249.02	100.346	3,249.02	99.909	3,249.02	100.162	3,249.02	99.1263	3,249.02	99.5683	3,249.02	97.6325	3,249.02	98.2078	3,249.02	96.3204	3,249.02	97.0315	3,249.02	94.6947	3,249.02	95.5795	3,249.02	91.7969	3,249.02	94.0835	3,249.02	89.2734	3,249.02	90.7593	3,249.02	87.6286	3,249.02	87.8931	3,249.02	84.0802	3,249.02	85.5791	3,249.02	83.9674	3,249.02	84.9073	3,249.02	80.9165	3,249.02	83.8575	3,249.02	76.1295	3,249.02	78.4897	3,249.02	82.6849	3,249.02	82.1031	3,249.02	80.5016	3,249.02	83.2109	3,249.02	77.933	3,249.02	83.4936	3,249.02	69.3987	3,249.02	74.6265	3,249.02	78.2736
3,363.28	100.254	3,363.28	100.166	3,363.28	100.518	3,363.28	99.7727	3,363.28	99.9235	3,363.28	98.8383	3,363.28	99.0856	3,363.28	96.7481	3,363.28	97.9923	3,363.28	95.7087	3,363.28	96.6045	3,363.28	92.8172	3,363.28	94.1201	3,363.28	91.2686	3,363.28	92.7528	3,363.28	89.0428	3,363.28	90.5072	3,363.28	87.9372	3,363.28	87.8548	3,363.28	84.2184	3,363.28	85.5086	3,363.28	82.6985	3,363.28	81.7492	3,363.28	81.7761	3,363.28	81.159	3,363.28	79.1473	3,363.28	78.8861	3,363.28	82.2772	3,363.28	80.1748	3,363.28	81.6795	3,363.28	82.3089	3,363.28	83.7113	3,363.28	83.5791	3,363.28	75.1052	3,363.28	79.1021	3,363.28	79.4552
3,481.93	100.191	3,481.93	100.458	3,481.93	99.8271	3,481.93	100.243	3,481.93	100.144	3,481.93	99.1938	3,481.93	99.0168	3,481.93	98.1227	3,481.93	97.5942	3,481.93	95.9701	3,481.93	95.5689	3,481.93	94.015	3,481.93	94.1746	3,481.93	91.5582	3,481.93	92.8218	3,481.93	89.3618	3,481.93	90.7724	3,481.93	87.6444	3,481.93	87.7936	3,481.93	85.7747	3,481.93	86.4121	3,481.93	83.8857	3,481.93	82.7816	3,481.93	81.3657	3,481.93	81.623	3,481.93	81.2877	3,481.93	80.5172	3,481.93	82.0419	3,481.93	76.2584	3,481.93	82.4902	3,481.93	81.1519	3,481.93	84.0219	3,481.93	81.9311	3,481.93	75.2268	3,481.93	78.632	3,481.93	76.5111
3,604.98	101.148	3,604.98	101.074	3,604.98	100.865	3,604.98	100.436	3,604.98	100.865	3,604.98	98.9899	3,604.98	99.7233	3,604.98	97.8462	3,604.98	97.966	3,604.98	95.1485	3,604.98	95.9491	3,604.98	93.2248	3,604.98	94.6917	3,604.98	91.0979	3,604.98	92.7511	3,604.98	89.4954	3,604.98	90.1836	3,604.98	86.4037	3,604.98	88.9888	3,604.98	84.4347	3,604.98	87.6382	3,604.98	81.8846	3,604.98	84.1556	3,604.98	80.0666	3,604.98	83.2325	3,604.98	81.2348	3,604.98	81.4473	3,604.98	83.0268	3,604.98	80.4596	3,604.98	82.2813	3,604.98	83.0103	3,604.98	82.9106	3,604.98	81.8343	3,604.98	75.7226	3,604.98	79.1062	3,604.98	78.1358
3,732.42	101.745	3,732.42	101.057	3,732.42	101.928	3,732.42	100.473	3,732.42	100.64	3,732.42	99.353	3,732.42	99.5316	3,732.42	97.3646	3,732.42	97.0878	3,732.42	95.4252	3,732.42	95.4559	3,732.42	94.1642	3,732.42	94.7117	3,732.42	92.1571	3,732.42	92.3324	3,732.42	90.3313	3,732.42	89.9898	3,732.42	86.9601	3,732.42	88.2688	3,732.42	86.3624	3,732.42	86.6628	3,732.42	82.6149	3,732.42	83.5306	3,732.42	80.6032	3,732.42	83.2255	3,732.42	78.5874	3,732.42	81.5869	3,732.42	81.8568	3,732.42	80.821	3,732.42	81.4124	3,732.42	83.2481	3,732.42	83.3186	3,732.42	82.1871	3,732.42	75.5768	3,732.42	78.831	3,732.42	78.7875
3,864.26	100.447	3,864.26	99.7173	3,864.26	100.391	3,864.26	98.9511	3,864.26	99.1292	3,864.26	97.7962	3,864.26	98.341	3,864.26	96.3769	3,864.26	97.4589	3,864.26	95.49	3,864.26	96.2842	3,864.26	93.8132	3,864.26	94.5487	3,864.26	91.8149	3,864.26	91.8064	3,864.26	89.5246	3,864.26	89.1471	3,864.26	86.3731	3,864.26	87.0096	3,864.26	85.9357	3,864.26	84.6785	3,864.26	82.5653	3,864.26	81.9295	3,864.26	82.0267	3,864.26	83.5978	3,864.26	79.2563	3,864.26	80.3355	3,864.26	79.4479	3,864.26	77.6221	3,864.26	83.8449	3,864.26	82.8977	3,864.26	83.5354	3,864.26	82.0517	3,864.26	70.3857	3,864.26	79.3696	3,864.26	75.1063
4,000.49	100.012	4,000.49	99.7365	4,000.49	100.024	4,000.49	98.2628	4,000.49	99.4066	4,000.49	97.361	4,000.49	97.9989	4,000.49	96.6115	4,000.49	97.6254	4,000.49	95.4648	4,000.49	96.8318	4,000.49	92.9627	4,000.49	94.3297	4,000.49	91.233	4,000.49	91.8843	4,000.49	87.0983	4,000.49	90.4398	4,000.49	85.7701	4,000.49	88.231	4,000.49	83.6724	4,000.49	83.8429	4,000.49	81.476	4,000.49	82.1006	4,000.49	80.5827	4,000.49	80.6685	4,000.49	75.9517	4,000.49	77.8951	4,000.49	80.8345	4,000.49	79.67	4,000.49	82.2122	4,000.49	81.8528	4,000.49	81.4854	4,000.49	78.9111	4,000.49	72.3023	4,000.49	79.2862	4,000.49	72.3579
4,141.11	100.728	4,141.11	100.322	4,141.11	100.178	4,141.11	98.6	4,141.11	99.1978	4,141.11	97.9525	4,141.11	98.3599	4,141.11	97.9648	4,141.11	97.4083	4,141.11	96.8535	4,141.11	96.2406	4,141.11	94.6882	4,141.11	94.569	4,141.11	92.4027	4,141.11	92.2626	4,141.11	88.7836	4,141.11	89.4914	4,141.11	86.4422	4,141.11	86.5425	4,141.11	84.9936	4,141.11	83.9175	4,141.11	81.5431	4,141.11	81.7351	4,141.11	80.2367	4,141.11	80.0464	4,141.11	79.624	4,141.11	78.3038	4,141.11	80.8113	4,141.11	79.5788	4,141.11	80.9397	4,141.11	82.1601	4,141.11	81.3674	4,141.11	81.8729	4,141.11	71.5294	4,141.11	79.8112	4,141.11	70.2769
4,287.6	100.84	4,287.6	99.5101	4,287.6	100.471	4,287.6	98.682	4,287.6	98.4484	4,287.6	97.5505	4,287.6	97.9575	4,287.6	96.8844	4,287.6	97.107	4,287.6	95.797	4,287.6	95.9494	4,287.6	93.9375	4,287.6	94.567	4,287.6	90.9835	4,287.6	92.3908	4,287.6	88.4586	4,287.6	90.176	4,287.6	85.481	4,287.6	86.764	4,287.6	83.2209	4,287.6	84.7981	4,287.6	80.5479	4,287.6	82.452	4,287.6	81.2559	4,287.6	79.5211	4,287.6	78.5316	4,287.6	77.4908	4,287.6	79.9387	4,287.6	79.0274	4,287.6	82.3966	4,287.6	81.0674	4,287.6	80.3837	4,287.6	82.3844	4,287.6	73.9383	4,287.6	80.7624	4,287.6	69.7242
4,438.48	100.474	4,438.48	99.7301	4,438.48	99.5391	4,438.48	97.6872	4,438.48	98.244	4,438.48	97.4319	4,438.48	96.4671	4,438.48	96.8029	4,438.48	97.2826	4,438.48	95.3945	4,438.48	96.6643	4,438.48	94.0207	4,438.48	94.4289	4,438.48	91.2607	4,438.48	92.1609	4,438.48	87.259	4,438.48	88.2056	4,438.48	84.9894	4,438.48	86.0439	4,438.48	79.6041	4,438.48	81.8248	4,438.48	81.2831	4,438.48	81.7877	4,438.48	78.532	4,438.48	78.2114	4,438.48	80.501	4,438.48	78.4015	4,438.48	79.2985	4,438.48	78.2585	4,438.48	81.8597	4,438.48	80.9022	4,438.48	79.6599	4,438.48	79.9232	4,438.48	73.295	4,438.48	80.9701	4,438.48	72.8927
4,595.21	99.5056	4,595.21	98.2174	4,595.21	99.3502	4,595.21	96.8886	4,595.21	97.9197	4,595.21	96.582	4,595.21	97.6467	4,595.21	96.8536	4,595.21	96.9744	4,595.21	95.8097	4,595.21	95.9635	4,595.21	92.9618	4,595.21	94.1815	4,595.21	89.7145	4,595.21	92.0823	4,595.21	88.5246	4,595.21	88.9005	4,595.21	86.4236	4,595.21	86.6922	4,595.21	85.4612	4,595.21	84.592	4,595.21	80.9174	4,595.21	82.0497	4,595.21	76.5329	4,595.21	78.1894	4,595.21	80.1801	4,595.21	74.7367	4,595.21	81.2779	4,595.21	75.1794	4,595.21	79.7201	4,595.21	79.1967	4,595.21	78.4804	4,595.21	80.1293	4,595.21	75.4809	4,595.21	79.4737	4,595.21	69.0818
4,756.35	100.815	4,756.35	99.818	4,756.35	100.417	4,756.35	99.3302	4,756.35	98.7389	4,756.35	98.2414	4,756.35	98.3628	4,756.35	97.8279	4,756.35	97.5204	4,756.35	96.0107	4,756.35	96.0055	4,756.35	93.9898	4,756.35	94.6681	4,756.35	91.1094	4,756.35	92.9402	4,756.35	89.6604	4,756.35	89.4017	4,756.35	84.4731	4,756.35	87.8742	4,756.35	83.0842	4,756.35	85.1651	4,756.35	80.4989	4,756.35	82.1617	4,756.35	76.314	4,756.35	79.7241	4,756.35	78.1307	4,756.35	77.594	4,756.35	82.7629	4,756.35	77.8658	4,756.35	82.0765	4,756.35	80.5204	4,756.35	78.9044	4,756.35	81.5692	4,756.35	74.4389	4,756.35	79.3811	4,756.35	71.3239
4,924.8	100.662	4,924.8	99.8589	4,924.8	99.6026	4,924.8	98.3088	4,924.8	99.0235	4,924.8	98.4351	4,924.8	97.9529	4,924.8	97.4439	4,924.8	97.6754	4,924.8	96.5322	4,924.8	96.9813	4,924.8	94.6519	4,924.8	94.9061	4,924.8	93.7949	4,924.8	92.4462	4,924.8	90.6619	4,924.8	91.1084	4,924.8	88.4327	4,924.8	87.1538	4,924.8	82.8531	4,924.8	85.3558	4,924.8	82.5355	4,924.8	82.9724	4,924.8	78.422	4,924.8	80.3749	4,924.8	77.9636	4,924.8	78.7145	4,924.8	76.9651	4,924.8	79.1945	4,924.8	81.6756	4,924.8	80.1462	4,924.8	79.2136	4,924.8	79.6672	4,924.8	75.1024	4,924.8	80.4433	4,924.8	69.3768
5,097.66	100.378	5,097.66	99.7327	5,097.66	100.255	5,097.66	98.6698	5,097.66	99.2876	5,097.66	97.2876	5,097.66	98.7439	5,097.66	96.723	5,097.66	97.7002	5,097.66	95.0775	5,097.66	96.1761	5,097.66	93.5214	5,097.66	95.1836	5,097.66	91.0234	5,097.66	92.9027	5,097.66	88.235	5,097.66	88.887	5,097.66	86.5679	5,097.66	87.494	5,097.66	85.438	5,097.66	84.7694	5,097.66	82.3643	5,097.66	83.9111	5,097.66	78.6592	5,097.66	77.9878	5,097.66	80.4727	5,097.66	78.3264	5,097.66	82.0241	5,097.66	79.1862	5,097.66	81.5276	5,097.66	80.3697	5,097.66	78.8315	5,097.66	81.9852	5,097.66	75.1134	5,097.66	80.1108	5,097.66	68.7047
5,277.83	100.58	5,277.83	100.029	5,277.83	100.258	5,277.83	99.606	5,277.83	99.5679	5,277.83	98.938	5,277.83	98.5141	5,277.83	98.3422	5,277.83	97.2839	5,277.83	96.8244	5,277.83	96.2454	5,277.83	94.9316	5,277.83	94.3278	5,277.83	91.7331	5,277.83	91.955	5,277.83	89.7436	5,277.83	90.3621	5,277.83	85.0199	5,277.83	87.2025	5,277.83	84.0274	5,277.83	84.006	5,277.83	80.9074	5,277.83	80.8092	5,277.83	78.5489	5,277.83	81.1905	5,277.83	75.6364	5,277.83	78.1076	5,277.83	78.5711	5,277.83	76.9327	5,277.83	79.7457	5,277.83	81.2357	5,277.83	78.4446	5,277.83	82.4009	5,277.83	73.8765	5,277.83	80.3162	5,277.83	67.1324
5,463.87	100.573	5,463.87	100.152	5,463.87	100.46	5,463.87	99.3188	5,463.87	99.9381	5,463.87	97.9719	5,463.87	98.3934	5,463.87	96.5813	5,463.87	97.5215	5,463.87	95.5285	5,463.87	96.7393	5,463.87	93.8983	5,463.87	94.6393	5,463.87	92.9476	5,463.87	92.5477	5,463.87	89.48	5,463.87	90.9263	5,463.87	86.9519	5,463.87	86.7674	5,463.87	82.0459	5,463.87	84.5401	5,463.87	81.7173	5,463.87	81.6177	5,463.87	80.1427	5,463.87	78.6783	5,463.87	78.9628	5,463.87	75.6523	5,463.87	76.0261	5,463.87	74.6849	5,463.87	79.2623	5,463.87	79.5511	5,463.87	79.0232	5,463.87	79.5801	5,463.87	73.9974	5,463.87	79.4134	5,463.87	66.2664
5,657.23	100.641	5,657.23	100.781	5,657.23	100.922	5,657.23	100.192	5,657.23	99.9082	5,657.23	98.7078	5,657.23	98.6611	5,657.23	97.7374	5,657.23	97.0468	5,657.23	96.255	5,657.23	95.6332	5,657.23	93.8823	5,657.23	94.4945	5,657.23	90.245	5,657.23	92.4496	5,657.23	87.5829	5,657.23	88.4787	5,657.23	84.2026	5,657.23	86.084	5,657.23	82.4357	5,657.23	83.0645	5,657.23	79.7997	5,657.23	80.3411	5,657.23	77.0241	5,657.23	78.527	5,657.23	74.5194	5,657.23	73.9077	5,657.23	79.4935	5,657.23	75.0373	5,657.23	79.8201	5,657.23	77.7906	5,657.23	76.3392	5,657.23	76.7135	5,657.23	72.1818	5,657.23	77.9396	5,657.23	67.629
5,856.45	100.605	5,856.45	100.63	5,856.45	100.45	5,856.45	99.4487	5,856.45	100.281	5,856.45	97.1658	5,856.45	98.0043	5,856.45	96.1225	5,856.45	97.1092	5,856.45	95.3434	5,856.45	96.1792	5,856.45	92.9017	5,856.45	93.9966	5,856.45	88.6678	5,856.45	91.0883	5,856.45	88.3167	5,856.45	89.14	5,856.45	85.072	5,856.45	86.2254	5,856.45	83.9616	5,856.45	83.0157	5,856.45	80.8906	5,856.45	81.465	5,856.45	78.0248	5,856.45	79.0324	5,856.45	78.3073	5,856.45	74.8991	5,856.45	71.3452	5,856.45	76.732	5,856.45	77.8358	5,856.45	76.6005	5,856.45	78.096	5,856.45	78.2181	5,856.45	72.4738	5,856.45	77.5194	5,856.45	69.775
6,062.99	100.486	6,062.99	100.7	6,062.99	100.903	6,062.99	99.8296	6,062.99	100.096	6,062.99	98.5105	6,062.99	98.4229	6,062.99	97.4381	6,062.99	96.741	6,062.99	96.449	6,062.99	96.2564	6,062.99	94.3091	6,062.99	94.7831	6,062.99	92.7533	6,062.99	93.2482	6,062.99	88.9842	6,062.99	89.6107	6,062.99	85.9252	6,062.99	86.6222	6,062.99	82.5173	6,062.99	83.0053	6,062.99	78.3181	6,062.99	80.8995	6,062.99	76.6352	6,062.99	78.5688	6,062.99	79.2254	6,062.99	73.0307	6,062.99	76.5565	6,062.99	77.2293	6,062.99	78.5928	6,062.99	76.3447	6,062.99	76.4699	6,062.99	77.9326	6,062.99	68.9846	6,062.99	77.0346	6,062.99	65.7672
6,276.86	100.161	6,276.86	100.388	6,276.86	100.467	6,276.86	99.5292	6,276.86	100.029	6,276.86	97.5593	6,276.86	98.5972	6,276.86	96.5441	6,276.86	97.1614	6,276.86	95.0222	6,276.86	95.4351	6,276.86	93.2401	6,276.86	93.7352	6,276.86	90.3925	6,276.86	90.9067	6,276.86	88.851	6,276.86	88.3037	6,276.86	85.4798	6,276.86	86.2184	6,276.86	83.856	6,276.86	82.5758	6,276.86	81.4098	6,276.86	79.7196	6,276.86	76.005	6,276.86	79.0561	6,276.86	77.1814	6,276.86	71.1725	6,276.86	75.5106	6,276.86	75.7749	6,276.86	78.6185	6,276.86	74.7155	6,276.86	76.9103	6,276.86	76.9628	6,276.86	70.4745	6,276.86	75.3634	6,276.86	66.4718
6,498.05	100.049	6,498.05	100.528	6,498.05	100.558	6,498.05	99.6245	6,498.05	100.34	6,498.05	98.5652	6,498.05	98.9196	6,498.05	97.3722	6,498.05	97.5976	6,498.05	96.005	6,498.05	96.8014	6,498.05	93.8987	6,498.05	94.6403	6,498.05	91.9283	6,498.05	92.4932	6,498.05	88.3858	6,498.05	89.551	6,498.05	85.32	6,498.05	87.1094	6,498.05	81.4884	6,498.05	83.712	6,498.05	80.8291	6,498.05	80.6933	6,498.05	76.7974	6,498.05	77.3772	6,498.05	76.2973	6,498.05	70.8039	6,498.05	74.5585	6,498.05	75.3919	6,498.05	78.1178	6,498.05	74.231	6,498.05	77.1136	6,498.05	79.4501	6,498.05	65.9263	6,498.05	73.0576	6,498.05	68.2008
6,726.56	99.9752	6,726.56	100.173	6,726.56	100.334	6,726.56	99.5595	6,726.56	99.8126	6,726.56	98.4928	6,726.56	98.9829	6,726.56	97.1062	6,726.56	97.4911	6,726.56	95.9532	6,726.56	95.8559	6,726.56	93.4098	6,726.56	94.4202	6,726.56	91.6461	6,726.56	92.0203	6,726.56	89.0697	6,726.56	89.1939	6,726.56	85.933	6,726.56	86.0903	6,726.56	82.6559	6,726.56	84.3113	6,726.56	81.3439	6,726.56	80.9892	6,726.56	74.1662	6,726.56	77.1275	6,726.56	75.2118	6,726.56	71.7301	6,726.56	73.759	6,726.56	70.4048	6,726.56	78.7052	6,726.56	76.2958	6,726.56	77.3151	6,726.56	79.4318	6,726.56	68.8117	6,726.56	68.325	6,726.56	70.0581
6,963.87	100.406	6,963.87	100.164	6,963.87	100.322	6,963.87	99.8145	6,963.87	100.175	6,963.87	98.5096	6,963.87	98.96	6,963.87	96.9515	6,963.87	97.4557	6,963.87	94.714	6,963.87	96.2067	6,963.87	94.1685	6,963.87	94.3724	6,963.87	91.3471	6,963.87	92.307	6,963.87	87.4615	6,963.87	89.4153	6,963.87	83.2524	6,963.87	85.6164	6,963.87	80.9486	6,963.87	83.5331	6,963.87	73.9941	6,963.87	79.0757	6,963.87	76.5	6,963.87	78.39	6,963.87	72.8168	6,963.87	72.2464	6,963.87	75.9492	6,963.87	73.3921	6,963.87	78.0175	6,963.87	76.2908	6,963.87	75.8845	6,963.87	80.1905	6,963.87	64.8675	6,963.87	73.3797	6,963.87	67.3897
7,209.96	100.379	7,209.96	100.326	7,209.96	100.472	7,209.96	100.072	7,209.96	100.579	7,209.96	98.5851	7,209.96	99.9511	7,209.96	96.8511	7,209.96	97.7094	7,209.96	95.8355	7,209.96	96.3781	7,209.96	93.5096	7,209.96	95.1666	7,209.96	91.3076	7,209.96	93.8493	7,209.96	87.9263	7,209.96	89.3592	7,209.96	85.3438	7,209.96	86.4535	7,209.96	81.58	7,209.96	82.7901	7,209.96	77.5376	7,209.96	81.019	7,209.96	73.0492	7,209.96	77.5712	7,209.96	71.2233	7,209.96	68.5711	7,209.96	70.825	7,209.96	73.5632	7,209.96	77.4879	7,209.96	77.8441	7,209.96	77.5639	7,209.96	79.2948	7,209.96	67.2902	7,209.96	72.3344	7,209.96	70.0428
7,464.84	99.9579	7,464.84	99.7411	7,464.84	99.4404	7,464.84	99.8748	7,464.84	99.8552	7,464.84	98.7216	7,464.84	99.0614	7,464.84	96.8527	7,464.84	97.1163	7,464.84	95.3623	7,464.84	95.5061	7,464.84	93.8185	7,464.84	94.4496	7,464.84	90.797	7,464.84	91.6483	7,464.84	86.4143	7,464.84	87.9071	7,464.84	83.7225	7,464.84	84.9325	7,464.84	81.1699	7,464.84	81.0874	7,464.84	76.8629	7,464.84	78.1506	7,464.84	75.0881	7,464.84	77.9105	7,464.84	70.7651	7,464.84	53.1856	7,464.84	70.3685	7,464.84	73.0858	7,464.84	75.529	7,464.84	75.2689	7,464.84	77.1645	7,464.84	77.6606	7,464.84	66.9133	7,464.84	72.7264	7,464.84	68.5957
7,727.05	100.446	7,727.05	100.088	7,727.05	100.319	7,727.05	100.666	7,727.05	100.45	7,727.05	99.172	7,727.05	99.8151	7,727.05	96.8135	7,727.05	97.3536	7,727.05	95.8111	7,727.05	95.685	7,727.05	93.1451	7,727.05	94.1618	7,727.05	89.3882	7,727.05	92.3097	7,727.05	87.0604	7,727.05	87.6798	7,727.05	81.7308	7,727.05	85.0784	7,727.05	80.6476	7,727.05	80.2743	7,727.05	76.7253	7,727.05	79.5185	7,727.05	73.1869	7,727.05	75.3521	7,727.05	74.5517	7,727.05	68.4653	7,727.05	71.6256	7,727.05	70.7602	7,727.05	75.6558	7,727.05	75.2637	7,727.05	76.8758	7,727.05	79.5284	7,727.05	68.2246	7,727.05	71.2587	7,727.05	70.0933
7,999.51	99.8426	7,999.51	99.5728	7,999.51	99.7275	7,999.51	99.8577	7,999.51	99.8305	7,999.51	98.6982	7,999.51	99.1203	7,999.51	96.8838	7,999.51	97.1056	7,999.51	95.3235	7,999.51	95.2368	7,999.51	93.5267	7,999.51	93.0428	7,999.51	89.3847	7,999.51	90.3835	7,999.51	87.6934	7,999.51	88.2278	7,999.51	83.3706	7,999.51	83.9554	7,999.51	82.5351	7,999.51	80.658	7,999.51	80.0124	7,999.51	77.677	7,999.51	76.1684	7,999.51	75.8147	7,999.51	72.2658	7,999.51	72.2088	7,999.51	73.3728	7,999.51	70.327	7,999.51	76.095	7,999.51	74.8731	7,999.51	77.1134	7,999.51	78.5457	7,999.51	70.2611	7,999.51	68.1984	7,999.51	70.6019
8,282.23	99.966	8,282.23	99.6917	8,282.23	99.9086	8,282.23	100.141	8,282.23	100.281	8,282.23	98.9651	8,282.23	99.2798	8,282.23	97.2346	8,282.23	97.4244	8,282.23	95.2252	8,282.23	95.1958	8,282.23	93.3704	8,282.23	93.1536	8,282.23	90.6396	8,282.23	90.8074	8,282.23	86.7796	8,282.23	88.1846	8,282.23	82.7689	8,282.23	84.3438	8,282.23	80.8225	8,282.23	80.2513	8,282.23	78.0018	8,282.23	78.961	8,282.23	76.515	8,282.23	75.4771	8,282.23	69.8769	8,282.23	64.8981	8,282.23	73.6501	8,282.23	63.9547	8,282.23	76.5224	8,282.23	74.9244	8,282.23	76.1054	8,282.23	77.8903	8,282.23	66.8069	8,282.23	70.5428	8,282.23	69.7323
8,573.73	99.7619	8,573.73	99.7531	8,573.73	99.7686	8,573.73	99.7145	8,573.73	99.5426	8,573.73	98.7604	8,573.73	98.7982	8,573.73	96.8602	8,573.73	97.176	8,573.73	94.543	8,573.73	94.7016	8,573.73	92.4808	8,573.73	92.8984	8,573.73	89.0565	8,573.73	90.1303	8,573.73	85.2772	8,573.73	87.0014	8,573.73	82.5465	8,573.73	82.3374	8,573.73	80.0931	8,573.73	80.8169	8,573.73	77.7453	8,573.73	77.0218	8,573.73	72.3089	8,573.73	73.2692	8,573.73	68.5939	8,573.73	70.9723	8,573.73	74.2864	8,573.73	67.7892	8,573.73	76.0235	8,573.73	74.8648	8,573.73	74.3619	8,573.73	77.0832	8,573.73	69.0046	8,573.73	66.1827	8,573.73	69.1913
8,876.95	100.198	8,876.95	100.057	8,876.95	100.177	8,876.95	99.694	8,876.95	99.964	8,876.95	98.8185	8,876.95	99.1372	8,876.95	96.4388	8,876.95	97.3317	8,876.95	93.8592	8,876.95	95.0541	8,876.95	91.2021	8,876.95	92.5442	8,876.95	88.655	8,876.95	89.8309	8,876.95	84.8842	8,876.95	86.3974	8,876.95	79.9028	8,876.95	82.3787	8,876.95	79.2852	8,876.95	79.8502	8,876.95	75.6864	8,876.95	76.7181	8,876.95	71.123	8,876.95	72.3144	8,876.95	66.4874	8,876.95	69.1932	8,876.95	71.7724	8,876.95	58.9196	8,876.95	74.2017	8,876.95	71.586	8,876.95	73.055	8,876.95	75.3692	8,876.95	63.4008	8,876.95	62.9744	8,876.95	68.6302
9,188.96	99.3395	9,188.96	99.3979	9,188.96	99.4972	9,188.96	99.2253	9,188.96	99.2493	9,188.96	98.387	9,188.96	98.4946	9,188.96	96.553	9,188.96	96.7715	9,188.96	93.6356	9,188.96	94.5016	9,188.96	90.8331	9,188.96	91.5415	9,188.96	88.0751	9,188.96	89.2926	9,188.96	84.152	9,188.96	85.5082	9,188.96	81.7229	9,188.96	80.8497	9,188.96	79.3191	9,188.96	79.1875	9,188.96	74.6546	9,188.96	74.9083	9,188.96	67.9798	9,188.96	70.9952	9,188.96	68.5952	9,188.96	71.9175	9,188.96	66.0967	9,188.96	63.0928	9,188.96	71.9342	9,188.96	71.8965	9,188.96	72.4793	9,188.96	75.2797	9,188.96	69.666	9,188.96	65.4317	9,188.96	70.4846
9,514.16	99.7109	9,514.16	99.8036	9,514.16	99.9366	9,514.16	99.3123	9,514.16	99.4695	9,514.16	98.6556	9,514.16	98.9275	9,514.16	96.2048	9,514.16	96.9839	9,514.16	93.6875	9,514.16	94.1222	9,514.16	90.3988	9,514.16	92.0617	9,514.16	88.0087	9,514.16	89.3895	9,514.16	83.6996	9,514.16	86.3671	9,514.16	81.4184	9,514.16	82.2275	9,514.16	77.287	9,514.16	79.1116	9,514.16	74.4367	9,514.16	74.6597	9,514.16	72.8844	9,514.16	71.5379	9,514.16	69.9931	9,514.16	73.1712	9,514.16	68.9851	9,514.16	64.0013	9,514.16	71.8714	9,514.16	70.9886	9,514.16	72.1931	9,514.16	74.0478	9,514.16	66.1932	9,514.16	63.076	9,514.16	69.4184
9,849.61	99.2398	9,849.61	99.3519	9,849.61	99.5462	9,849.61	99.2043	9,849.61	98.998	9,849.61	98.3713	9,849.61	98.6748	9,849.61	96.0209	9,849.61	96.8204	9,849.61	93.0059	9,849.61	94.1075	9,849.61	90.4878	9,849.61	91.8114	9,849.61	88.1759	9,849.61	89.2508	9,849.61	84.1398	9,849.61	85.9479	9,849.61	81.1757	9,849.61	81.9038	9,849.61	75.0649	9,849.61	77.1514	9,849.61	74.7997	9,849.61	75.5845	9,849.61	70.977	9,849.61	71.6154	9,849.61	69.1143	9,849.61	73.4814	9,849.61	69.4918	9,849.61	60.8638	9,849.61	71.7663	9,849.61	69.4719	9,849.61	71.4668	9,849.61	73.102	9,849.61	61.9026	9,849.61	57.4105	9,849.61	67.9835
10,196.8	99.3553	10,196.8	99.3582	10,196.8	99.5878	10,196.8	99.0293	10,196.8	99.2171	10,196.8	98.2229	10,196.8	98.9424	10,196.8	96.1102	10,196.8	97.1476	10,196.8	92.9853	10,196.8	94.4547	10,196.8	90.4503	10,196.8	91.8037	10,196.8	87.7257	10,196.8	89.1581	10,196.8	83.275	10,196.8	85.2304	10,196.8	78.8078	10,196.8	81.6079	10,196.8	74.9421	10,196.8	77.7894	10,196.8	72.1273	10,196.8	74.703	10,196.8	71.6803	10,196.8	72.705	10,196.8	66.5117	10,196.8	71.4227	10,196.8	69.2804	10,196.8	63.6355	10,196.8	69.6017	10,196.8	69.6626	10,196.8	70.2946	10,196.8	73.2167	10,196.8	58.0559	10,196.8	59.031	10,196.8	69.9638
10,555.7	99.0936	10,555.7	98.9946	10,555.7	99.0384	10,555.7	98.9316	10,555.7	99.0229	10,555.7	98.2976	10,555.7	98.8824	10,555.7	96.3165	10,555.7	97.372	10,555.7	92.981	10,555.7	94.666	10,555.7	90.0649	10,555.7	91.6821	10,555.7	85.896	10,555.7	88.0421	10,555.7	83.1208	10,555.7	84.4172	10,555.7	78.4085	10,555.7	80.6277	10,555.7	74.8901	10,555.7	77.7909	10,555.7	69.5054	10,555.7	74.6105	10,555.7	72.3713	10,555.7	70.9093	10,555.7	62.2164	10,555.7	70.5446	10,555.7	66.9511	10,555.7	61.0917	10,555.7	69.1777	10,555.7	68.5631	10,555.7	68.4812	10,555.7	72.787	10,555.7	45.1531	10,555.7	56.8199	10,555.7	65.6844
10,927.7	98.8266	10,927.7	98.4994	10,927.7	98.7955	10,927.7	98.8019	10,927.7	98.82	10,927.7	98.4276	10,927.7	98.7814	10,927.7	96.3645	10,927.7	97.4714	10,927.7	93.2884	10,927.7	94.6084	10,927.7	90.4226	10,927.7	92.1564	10,927.7	85.871	10,927.7	88.9804	10,927.7	82.5023	10,927.7	84.8822	10,927.7	78.4494	10,927.7	81.2275	10,927.7	74.3097	10,927.7	77.1722	10,927.7	69.7897	10,927.7	73.6094	10,927.7	72.3078	10,927.7	72.6225	10,927.7	59.6806	10,927.7	68.4069	10,927.7	63.6039	10,927.7	65.8592	10,927.7	69.6652	10,927.7	66.8512	10,927.7	67.28	10,927.7	72.4736	10,927.7	51.4033	10,927.7	61.4346	10,927.7	68.0709
11,313	99.3974	11,313	98.5347	11,313	99.12	11,313	98.9134	11,313	99.1268	11,313	98.2277	11,313	98.9264	11,313	96.3484	11,313	97.6029	11,313	93.2366	11,313	94.9117	11,313	90.001	11,313	92.1098	11,313	86.3212	11,313	89.6844	11,313	81.4667	11,313	85.3553	11,313	78.6984	11,313	81.3705	11,313	75.2232	11,313	76.8494	11,313	72.542	11,313	73.624	11,313	70.843	11,313	72.371	11,313	59.8652	11,313	69.3969	11,313	64.227	11,313	66.5914	11,313	67.4059	11,313	65.6353	11,313	65.2315	11,313	72.4824	11,313	61.9985	11,313	61.3225	11,313	69.4371
11,712.9	99.4381	11,712.9	98.8934	11,712.9	98.988	11,712.9	98.8735	11,712.9	99.1264	11,712.9	98.2711	11,712.9	98.8716	11,712.9	96.195	11,712.9	97.6715	11,712.9	93.0859	11,712.9	94.7143	11,712.9	89.8592	11,712.9	91.7138	11,712.9	86.4613	11,712.9	88.8646	11,712.9	80.8453	11,712.9	85.0138	11,712.9	77.7484	11,712.9	80.1448	11,712.9	74.9712	11,712.9	77.1529	11,712.9	72.0756	11,712.9	73.4423	11,712.9	70.0269	11,712.9	71.893	11,712.9	60.8083	11,712.9	68.0728	11,712.9	58.7602	11,712.9	64.5075	11,712.9	68.5657	11,712.9	63.7518	11,712.9	63.9215	11,712.9	72.1006	11,712.9	60.3053	11,712.9	57.1948	11,712.9	66.1293
12,126	99.3961	12,126	99.0729	12,126	99.1387	12,126	98.8592	12,126	99.287	12,126	98.4123	12,126	98.9833	12,126	96.3317	12,126	97.7112	12,126	92.7073	12,126	95.0131	12,126	89.3543	12,126	91.5475	12,126	85.437	12,126	88.6752	12,126	79.997	12,126	84.7035	12,126	78.0161	12,126	79.8462	12,126	72.9912	12,126	75.7745	12,126	70.0479	12,126	72.9719	12,126	67.6882	12,126	71.7866	12,126	48.3614	12,126	68.4577	12,126	56.476	12,126	64.3283	12,126	66.9025	12,126	60.4999	12,126	62.6655	12,126	70.7941	12,126	55.7522	12,126	52.7362	12,126	63.0389
12,553.7	99.6897	12,553.7	99.3858	12,553.7	99.5243	12,553.7	99.1072	12,553.7	99.1419	12,553.7	98.3454	12,553.7	98.826	12,553.7	96.2884	12,553.7	97.8957	12,553.7	92.1359	12,553.7	95.2128	12,553.7	88.4894	12,553.7	91.6624	12,553.7	84.9013	12,553.7	88.9754	12,553.7	78.5489	12,553.7	84.9448	12,553.7	76.7954	12,553.7	80.021	12,553.7	71.7414	12,553.7	76.2578	12,553.7	69.7892	12,553.7	72.8218	12,553.7	67.9337	12,553.7	71.8225	12,553.7	59.7394	12,553.7	67.615	12,553.7	52.4651	12,553.7	65.7099	12,553.7	64.557	12,553.7	65.1648	12,553.7	61.8068	12,553.7	69.6898	12,553.7	47.8113	12,553.7	52.6355	12,553.7	63.3534
12,996.1	100.277	12,996.1	99.7793	12,996.1	100.224	12,996.1	99.2981	12,996.1	99.311	12,996.1	98.2268	12,996.1	98.595	12,996.1	95.7572	12,996.1	97.4425	12,996.1	91.4403	12,996.1	94.681	12,996.1	87.6669	12,996.1	91.4161	12,996.1	83.1017	12,996.1	88.0597	12,996.1	75.9449	12,996.1	83.7753	12,996.1	73.5055	12,996.1	78.6394	12,996.1	69.2946	12,996.1	75.6926	12,996.1	62.9726	12,996.1	71.529	12,996.1	63.1646	12,996.1	69.3485	12,996.1	68.0386	12,996.1	66.0367	12,996.1	56.8664	12,996.1	62.4109	12,996.1	54.0288	12,996.1	59.5065	12,996.1	61.422	12,996.1	64.743	12,996.1	63.3477	12,996.1	59.6507	12,996.1	62.549
13,454.6	100.804	13,454.6	100.196	13,454.6	100.767	13,454.6	99.0661	13,454.6	99.6852	13,454.6	97.795	13,454.6	98.7818	13,454.6	94.699	13,454.6	97.3054	13,454.6	89.8338	13,454.6	94.3989	13,454.6	83.9901	13,454.6	90.4777	13,454.6	78.3287	13,454.6	86.6721	13,454.6	70.037	13,454.6	83.5567	13,454.6	69.729	13,454.6	77.8957	13,454.6	63.9154	13,454.6	73.2432	13,454.6	61.9359	13,454.6	70.7192	13,454.6	65.5715	13,454.6	67.4269	13,454.6	61.329	13,454.6	61.4769	13,454.6	56.413	13,454.6	62.5259	13,454.6	62.6704	13,454.6	60.604	13,454.6	61.2015	13,454.6	65.1274	13,454.6	63.1262	13,454.6	57.3981	13,454.6	55.3362
13,929.2	101.298	13,929.2	100.564	13,929.2	101.094	13,929.2	99.0619	13,929.2	99.9614	13,929.2	97.1005	13,929.2	98.336	13,929.2	93.162	13,929.2	96.7327	13,929.2	87.4717	13,929.2	93.728	13,929.2	79.1725	13,929.2	89.1818	13,929.2	71.631	13,929.2	85.2286	13,929.2	68.9541	13,929.2	80.9282	13,929.2	66.6959	13,929.2	75.341	13,929.2	54.2527	13,929.2	71.9926	13,929.2	60.3503	13,929.2	69.7646	13,929.2	57.8998	13,929.2	67.4019	13,929.2	63.714	13,929.2	60.0572	13,929.2	52.0179	13,929.2	61.8415	13,929.2	64.3588	13,929.2	60.4655	13,929.2	55.6901	13,929.2	61.7891	13,929.2	62.5526	13,929.2	53.9998	13,929.2	50.7404
14,419.9	101.756	14,419.9	100.915	14,419.9	101.523	14,419.9	99.2279	14,419.9	100.12	14,419.9	96.6292	14,419.9	98.2062	14,419.9	92.4302	14,419.9	96.0482	14,419.9	84.2441	14,419.9	92.6725	14,419.9	75.8718	14,419.9	88.2141	14,419.9	72.9121	14,419.9	83.5641	14,419.9	71.8221	14,419.9	78.2353	14,419.9	67.6945	14,419.9	73.3689	14,419.9	65.1091	14,419.9	70.6345	14,419.9	60.7851	14,419.9	65.6952	14,419.9	60.8154	14,419.9	64.3355	14,419.9	62.2616	14,419.9	49.0468	14,419.9	55.8304	14,419.9	59.1147	14,419.9	64.4192	14,419.9	56.698	14,419.9	46.4314	14,419.9	56.0988	14,419.9	61.5416	14,419.9	49.5119	14,419.9	46.0917
14,928.2	102.051	14,928.2	101.156	14,928.2	101.731	14,928.2	99.362	14,928.2	100.191	14,928.2	96.4435	14,928.2	97.9496	14,928.2	91.3143	14,928.2	95.4457	14,928.2	82.3463	14,928.2	92.0634	14,928.2	76.2611	14,928.2	86.7719	14,928.2	77.0209	14,928.2	81.8461	14,928.2	76.229	14,928.2	78.5997	14,928.2	70.3848	14,928.2	72.3276	14,928.2	68.1185	14,928.2	67.8452	14,928.2	66.5343	14,928.2	66.0384	14,928.2	60.6005	14,928.2	64.2007	14,928.2	58.8586	14,928.2	54.8883	14,928.2	53.6059	14,928.2	58.6943	14,928.2	61.484	14,928.2	55.9203	14,928.2	52.2109	14,928.2	51.7155	14,928.2	60.5473	14,928.2	51.386	14,928.2	41.4921
15,455.6	102.185	15,455.6	101.291	15,455.6	101.804	15,455.6	99.5117	15,455.6	100.101	15,455.6	96.1683	15,455.6	97.466	15,455.6	90.8556	15,455.6	94.7107	15,455.6	82.558	15,455.6	91.2092	15,455.6	79.0892	15,455.6	85.447	15,455.6	78.7999	15,455.6	80.3156	15,455.6	77.1972	15,455.6	75.0614	15,455.6	71.9275	15,455.6	70.197	15,455.6	70.3585	15,455.6	65.2646	15,455.6	66.2529	15,455.6	63.8321	15,455.6	59.9245	15,455.6	64.0921	15,455.6	55.1934	15,455.6	57.3762	15,455.6	46.3381	15,455.6	59.7228	15,455.6	60.1649	15,455.6	57.9562	15,455.6	51.8131	15,455.6	50.34	15,455.6	57.021	15,455.6	50.0395	15,455.6	43.9003
16,000.5	102.069	16,000.5	101.144	16,000.5	101.662	16,000.5	99.3452	16,000.5	99.9427	16,000.5	96.0233	16,000.5	97.0607	16,000.5	90.9076	16,000.5	93.657	16,000.5	83.1371	16,000.5	89.7003	16,000.5	80.6159	16,000.5	83.8669	16,000.5	80.1844	16,000.5	78.4127	16,000.5	77.6108	16,000.5	71.539	16,000.5	72.4192	16,000.5	67.6466	16,000.5	70.3869	16,000.5	61.7656	16,000.5	66.7499	16,000.5	61.6052	16,000.5	60.0363	16,000.5	61.2444	16,000.5	48.0754	16,000.5	58.6336	16,000.5	43.5247	16,000.5	55.163	16,000.5	57.4782	16,000.5	49.2161	16,000.5	53.2442	16,000.5	44.6881	16,000.5	52.7359	16,000.5	56.1668	16,000.5	48.1728
16,564.5	101.653	16,564.5	100.809	16,564.5	101.272	16,564.5	99.0504	16,564.5	99.6872	16,564.5	95.7414	16,564.5	96.5617	16,564.5	90.8145	16,564.5	92.5648	16,564.5	84.1512	16,564.5	88.2503	16,564.5	81.4255	16,564.5	81.969	16,564.5	80.2117	16,564.5	75.6057	16,564.5	77.3742	16,564.5	70.1999	16,564.5	71.6496	16,564.5	64.1976	16,564.5	70.3289	16,564.5	61.6631	16,564.5	66.5532	16,564.5	59.9781	16,564.5	61.0471	16,564.5	57.8236	16,564.5	55.17	16,564.5	56.5072	16,564.5	46.8518	16,564.5	49.9176	16,564.5	55.9607	16,564.5	21.4	16,564.5	50.5409	16,564.5	40.225	16,564.5	50.5363	16,564.5	54.6979	16,564.5	45.3703
17,148.9	101.238	17,148.9	100.289	17,148.9	100.798	17,148.9	98.566	17,148.9	99.1346	17,148.9	95.3163	17,148.9	95.7624	17,148.9	90.564	17,148.9	91.0317	17,148.9	83.465	17,148.9	86.2391	17,148.9	80.0679	17,148.9	79.8596	17,148.9	79.1291	17,148.9	73.8851	17,148.9	76.0906	17,148.9	66.6928	17,148.9	70.4	17,148.9	60.5874	17,148.9	68.8006	17,148.9	57.7047	17,148.9	65.3608	17,148.9	56.0495	17,148.9	60.725	17,148.9	57.7357	17,148.9	54.9926	17,148.9	53.5768	17,148.9	49.9275	17,148.9	46.9047	17,148.9	53.0426	17,148.9	47.7151	17,148.9	39.1457	17,148.9	50.8351	17,148.9	50.5431	17,148.9	53.4479	17,148.9	48.488
17,752.4	100.532	17,752.4	99.4867	17,752.4	100.169	17,752.4	97.7502	17,752.4	98.5318	17,752.4	94.5387	17,752.4	95.0595	17,752.4	89.9552	17,752.4	89.5672	17,752.4	81.938	17,752.4	84.319	17,752.4	78.2496	17,752.4	77.8852	17,752.4	76.6866	17,752.4	73.5905	17,752.4	73.3977	17,752.4	65.1055	17,752.4	67.7775	17,752.4	59.3676	17,752.4	66.0581	17,752.4	53.7956	17,752.4	62.7992	17,752.4	51.9027	17,752.4	58.0993	17,752.4	53.1018	17,752.4	50.6275	17,752.4	51.291	17,752.4	50.3885	17,752.4	48.4945	17,752.4	52.5187	17,752.4	52.2631	17,752.4	43.8551	17,752.4	55.0627	17,752.4	48.3276	17,752.4	54.6025	17,752.4	48.1304
18,379.4	99.8644	18,379.4	98.6629	18,379.4	99.4221	18,379.4	96.7619	18,379.4	97.56	18,379.4	93.2645	18,379.4	93.9587	18,379.4	88.3733	18,379.4	87.9362	18,379.4	79.151	18,379.4	82.4413	18,379.4	72.4095	18,379.4	77.477	18,379.4	72.3386	18,379.4	73.471	18,379.4	68.4072	18,379.4	65.5868	18,379.4	63.9753	18,379.4	61.1295	18,379.4	60.5748	18,379.4	54.3038	18,379.4	59.6439	18,379.4	53.1056	18,379.4	51.0394	18,379.4	49.9562	18,379.4	45.0873	18,379.4	49.2724	18,379.4	48.4435	18,379.4	38.0061	18,379.4	47.0242	18,379.4	50.9164	18,379.4	48.87	18,379.4	54.0536	18,379.4	54.0978	18,379.4	53.0571	18,379.4	47.0496
19,026.9	99.19	19,026.9	97.7133	19,026.9	98.6005	19,026.9	95.3335	19,026.9	96.3615	19,026.9	91.6186	19,026.9	92.3257	19,026.9	86.1651	19,026.9	85.921	19,026.9	75.878	19,026.9	81.0104	19,026.9	61.0913	19,026.9	77.2672	19,026.9	61.3754	19,026.9	73.886	19,026.9	60.7024	19,026.9	66.2259	19,026.9	53.2693	19,026.9	60.9647	19,026.9	49.6267	19,026.9	55.2291	19,026.9	56.8566	19,026.9	52.8267	19,026.9	50.6839	19,026.9	48.1319	19,026.9	38.4552	19,026.9	55.7768	19,026.9	44.7813	19,026.9	40.7432	19,026.9	41.5651	19,026.9	49.5157	19,026.9	46.5229	19,026.9	56.5341	19,026.9	52.3516	19,026.9	54.4672	19,026.9	38.4604
19,697.8	98.5369	19,697.8	96.781	19,697.8	97.6598	19,697.8	93.4718	19,697.8	94.6992	19,697.8	88.9387	19,697.8	89.9382	19,697.8	83.4625	19,697.8	83.8748	19,697.8	76.2009	19,697.8	80.382	19,697.8	69.7604	19,697.8	76.9329	19,697.8	58.9732	19,697.8	72.3868	19,697.8	55.7909	19,697.8	66.6843	19,697.8	40.7424	19,697.8	59.5508	19,697.8	43.4878	19,697.8	55.4045	19,697.8	53.6431	19,697.8	50.7201	19,697.8	41.6254	19,697.8	36.8547	19,697.8	49.1571	19,697.8	52.9045	19,697.8	42.482	19,697.8	42.2111	19,697.8	40.9643	19,697.8	47.6761	19,697.8	47.0927	19,697.8	53.4309	19,697.8	52.7403	19,697.8	53.1316	19,697.8	41.2829
19,999.5	98.2518	19,999.5	96.2561	19,999.5	97.3281	19,999.5	92.5867	19,999.5	93.936	19,999.5	87.7023	19,999.5	88.8831	19,999.5	83.018	19,999.5	82.7629	19,999.5	77.3832	19,999.5	81.0785	19,999.5	69.3937	19,999.5	76.8498	19,999.5	64.8161	19,999.5	72.0952	19,999.5	38.8949	19,999.5	67.6347	19,999.5	56.3303	19,999.5	56.856	19,999.5	45.4469	19,999.5	62.5659	19,999.5	56.4341	19,999.5	44.6377	19,999.5	43.7707	19,999.5	56.356	19,999.5	43.9537	19,999.5	59.875	19,999.5	45.1307	19,999.5	49.1978	19,999.5	41.3558	19,999.5	51.6498	19,999.5	53.806	19,999.5	51.4026	19,999.5	47.2664	19,999.5	53.4239	19,999.5	45.4598
