"SPL Horizontal"
"On-Axis"		"10°"		"-10°"		"20°"		"-20°"		"30°"		"-30°"		"40°"		"-40°"		"50°"		"-50°"		"60°"		"-60°"		"70°"		"-70°"		"80°"		"-80°"		"90°"		"-90°"		"100°"		"-100°"		"110°"		"-110°"		"120°"		"-120°"		"130°"		"-130°"		"140°"		"-140°"		"150°"		"-150°"		"160°"		"-160°"		"170°"		"-170°"		"180°"
"Frequency / Hz"	"Sound Pressure Level / dB (re 20 µPa/V)  [2.83V at 1m]"	"Frequency / Hz"	"Sound Pressure Level / dB (re 20 µPa/V)  [2.83V at 1m]"	"Frequency / Hz"	"Sound Pressure Level / dB (re 20 µPa/V)  [2.83V at 1m]"	"Frequency / Hz"	"Sound Pressure Level / dB (re 20 µPa/V)  [2.83V at 1m]"	"Frequency / Hz"	"Sound Pressure Level / dB (re 20 µPa/V)  [2.83V at 1m]"	"Frequency / Hz"	"Sound Pressure Level / dB (re 20 µPa/V)  [2.83V at 1m]"	"Frequency / Hz"	"Sound Pressure Level / dB (re 20 µPa/V)  [2.83V at 1m]"	"Frequency / Hz"	"Sound Pressure Level / dB (re 20 µPa/V)  [2.83V at 1m]"	"Frequency / Hz"	"Sound Pressure Level / dB (re 20 µPa/V)  [2.83V at 1m]"	"Frequency / Hz"	"Sound Pressure Level / dB (re 20 µPa/V)  [2.83V at 1m]"	"Frequency / Hz"	"Sound Pressure Level / dB (re 20 µPa/V)  [2.83V at 1m]"	"Frequency / Hz"	"Sound Pressure Level / dB (re 20 µPa/V)  [2.83V at 1m]"	"Frequency / Hz"	"Sound Pressure Level / dB (re 20 µPa/V)  [2.83V at 1m]"	"Frequency / Hz"	"Sound Pressure Level / dB (re 20 µPa/V)  [2.83V at 1m]"	"Frequency / Hz"	"Sound Pressure Level / dB (re 20 µPa/V)  [2.83V at 1m]"	"Frequency / Hz"	"Sound Pressure Level / dB (re 20 µPa/V)  [2.83V at 1m]"	"Frequency / Hz"	"Sound Pressure Level / dB (re 20 µPa/V)  [2.83V at 1m]"	"Frequency / Hz"	"Sound Pressure Level / dB (re 20 µPa/V)  [2.83V at 1m]"	"Frequency / Hz"	"Sound Pressure Level / dB (re 20 µPa/V)  [2.83V at 1m]"	"Frequency / Hz"	"Sound Pressure Level / dB (re 20 µPa/V)  [2.83V at 1m]"	"Frequency / Hz"	"Sound Pressure Level / dB (re 20 µPa/V)  [2.83V at 1m]"	"Frequency / Hz"	"Sound Pressure Level / dB (re 20 µPa/V)  [2.83V at 1m]"	"Frequency / Hz"	"Sound Pressure Level / dB (re 20 µPa/V)  [2.83V at 1m]"	"Frequency / Hz"	"Sound Pressure Level / dB (re 20 µPa/V)  [2.83V at 1m]"	"Frequency / Hz"	"Sound Pressure Level / dB (re 20 µPa/V)  [2.83V at 1m]"	"Frequency / Hz"	"Sound Pressure Level / dB (re 20 µPa/V)  [2.83V at 1m]"	"Frequency / Hz"	"Sound Pressure Level / dB (re 20 µPa/V)  [2.83V at 1m]"	"Frequency / Hz"	"Sound Pressure Level / dB (re 20 µPa/V)  [2.83V at 1m]"	"Frequency / Hz"	"Sound Pressure Level / dB (re 20 µPa/V)  [2.83V at 1m]"	"Frequency / Hz"	"Sound Pressure Level / dB (re 20 µPa/V)  [2.83V at 1m]"	"Frequency / Hz"	"Sound Pressure Level / dB (re 20 µPa/V)  [2.83V at 1m]"	"Frequency / Hz"	"Sound Pressure Level / dB (re 20 µPa/V)  [2.83V at 1m]"	"Frequency / Hz"	"Sound Pressure Level / dB (re 20 µPa/V)  [2.83V at 1m]"	"Frequency / Hz"	"Sound Pressure Level / dB (re 20 µPa/V)  [2.83V at 1m]"	"Frequency / Hz"	"Sound Pressure Level / dB (re 20 µPa/V)  [2.83V at 1m]"	"Frequency / Hz"	"Sound Pressure Level / dB (re 20 µPa/V)  [2.83V at 1m]"
20.5078	53.6421	20.5078	53.5204	20.5078	53.6639	20.5078	53.317	20.5078	53.5934	20.5078	53.084	20.5078	53.4646	20.5078	52.9187	20.5078	53.3433	20.5078	52.9607	20.5078	53.3315	20.5078	53.3448	20.5078	53.5499	20.5078	54.1147	20.5078	54.0867	20.5078	55.1876	20.5078	54.9402	20.5078	56.4148	20.5078	56.0185	20.5078	57.6614	20.5078	57.1955	20.5078	58.8378	20.5078	58.3638	20.5078	59.8929	20.5078	59.4504	20.5078	60.7996	20.5078	60.4119	20.5078	61.544	20.5078	61.2241	20.5078	62.1184	20.5078	61.8737	20.5078	62.5187	20.5078	62.3535	20.5078	62.7427	20.5078	62.6596	20.5078	62.7897
21.9727	56.4684	21.9727	56.4321	21.9727	56.4455	21.9727	56.3499	21.9727	56.3706	21.9727	56.2585	21.9727	56.2734	21.9727	56.2191	21.9727	56.208	21.9727	56.3131	21.9727	56.2515	21.9727	56.6188	21.9727	56.488	21.9727	57.176	21.9727	56.9739	21.9727	57.9616	21.9727	57.7064	21.9727	58.9016	21.9727	58.6223	21.9727	59.9066	21.9727	59.6305	21.9727	60.8994	21.9727	60.6457	21.9727	61.8244	21.9727	61.6036	21.9727	62.6444	21.9727	62.461	21.9727	63.3356	21.9727	63.1904	21.9727	63.8824	21.9727	63.7747	21.9727	64.2744	21.9727	64.2033	21.9727	64.5051	21.9727	64.4697	21.9727	64.5706
23.4375	58.7032	23.4375	58.6401	23.4375	58.7114	23.4375	58.5313	23.4375	58.6711	23.4375	58.4036	23.4375	58.6044	23.4375	58.3035	23.4375	58.5504	23.4375	58.2964	23.4375	58.5643	23.4375	58.4537	23.4375	58.7094	23.4375	58.8276	23.4375	59.0376	23.4375	59.424	23.4375	59.5669	23.4375	60.1977	23.4375	60.2703	23.4375	61.0738	23.4375	61.0876	23.4375	61.9755	23.4375	61.948	23.4375	62.8399	23.4375	62.7886	23.4375	63.6221	23.4375	63.5611	23.4375	64.2909	23.4375	64.2309	23.4375	64.8259	23.4375	64.7746	23.4375	65.2134	23.4375	65.1763	23.4375	65.4448	23.4375	65.4254	23.4375	65.5158
24.9023	60.2111	24.9023	60.1719	24.9023	60.2077	24.9023	60.0997	24.9023	60.1653	24.9023	60.019	24.9023	60.102	24.9023	59.9696	24.9023	60.0506	24.9023	60.0037	24.9023	60.0581	24.9023	60.1758	24.9023	60.1792	24.9023	60.525	24.9023	60.4617	24.9023	61.0567	24.9023	60.9269	24.9023	61.7389	24.9023	61.5581	24.9023	62.5145	24.9023	62.3064	24.9023	63.3206	24.9023	63.1085	24.9023	64.1021	24.9023	63.904	24.9023	64.816	24.9023	64.6435	24.9023	65.4312	24.9023	65.2906	24.9023	65.9256	24.9023	65.8196	24.9023	66.2838	24.9023	66.2134	24.9023	66.4957	24.9023	66.4606	24.9023	66.5553
26.3672	60.9834	26.3672	60.9252	26.3672	60.9971	26.3672	60.8311	26.3672	60.971	26.3672	60.7248	26.3672	60.9236	26.3672	60.6454	26.3672	60.8876	26.3672	60.6466	26.3672	60.9087	26.3672	60.7861	26.3672	61.0389	26.3672	61.108	26.3672	61.3228	26.3672	61.6223	26.3672	61.7795	26.3672	62.2986	26.3672	62.393	26.3672	63.0786	26.3672	63.1177	26.3672	63.8964	26.3672	63.8943	26.3672	64.6936	26.3672	64.6653	26.3672	65.4248	26.3672	65.3836	26.3672	66.0572	26.3672	66.0132	26.3672	66.5675	26.3672	66.5284	26.3672	66.9397	26.3672	66.9109	26.3672	67.1637	26.3672	67.1484	26.3672	67.2337
27.832	61.703	27.832	61.685	27.832	61.6907	27.832	61.6451	27.832	61.6523	27.832	61.6051	27.832	61.6054	27.832	61.599	27.832	61.5816	27.832	61.6703	27.832	61.624	27.832	61.8633	27.832	61.7803	27.832	62.2096	27.832	62.0888	27.832	62.7152	27.832	62.5627	27.832	63.356	27.832	63.1829	27.832	64.0858	27.832	63.9046	27.832	64.8506	27.832	64.6719	27.832	65.5993	27.832	65.4314	27.832	66.2899	27.832	66.1389	27.832	66.8895	27.832	66.7607	27.832	67.3738	27.832	67.2719	27.832	67.7256	27.832	67.6548	27.832	67.9333	27.832	67.897	27.832	67.9909
29.2969	64.2364	29.2969	64.2471	29.2969	64.2244	29.2969	64.2621	29.2969	64.2144	29.2969	64.295	29.2969	64.2176	29.2969	64.366	29.2969	64.2536	29.2969	64.4991	29.2969	64.3468	29.2969	64.7172	29.2969	64.5229	29.2969	65.0355	29.2969	64.8018	29.2969	65.456	29.2969	65.1904	29.2969	65.9649	29.2969	65.6794	29.2969	66.5357	29.2969	66.2444	29.2969	67.1346	29.2969	66.8513	29.2969	67.726	29.2969	67.4631	29.2969	68.2773	29.2969	68.0446	29.2969	68.7607	29.2969	68.5659	29.2969	69.1534	29.2969	69.0024	29.2969	69.4383	29.2969	69.3353	29.2969	69.6033	29.2969	69.5511	29.2969	69.6415
30.7617	65.2331	30.7617	65.2556	30.7617	65.2035	30.7617	65.2738	30.7617	65.1712	30.7617	65.2976	30.7617	65.1479	30.7617	65.3431	30.7617	65.1524	30.7617	65.4313	30.7617	65.2082	30.7617	65.5843	30.7617	65.3403	30.7617	65.8204	30.7617	65.5689	30.7617	66.1489	30.7617	65.9032	30.7617	66.5654	30.7617	66.3373	30.7617	67.0523	30.7617	66.8498	30.7617	67.5814	30.7617	67.4089	30.7617	68.1199	30.7617	67.9783	30.7617	68.6347	30.7617	68.5227	30.7617	69.0962	30.7617	69.0114	30.7617	69.4795	30.7617	69.4189	30.7617	69.7648	30.7617	69.726	30.7617	69.9381	30.7617	69.9192	30.7617	69.9906
32.2266	66.9839	32.2266	66.9996	32.2266	66.9703	32.2266	67.0184	32.2266	66.9629	32.2266	67.0469	32.2266	66.9714	32.2266	67.0963	32.2266	67.0096	32.2266	67.1818	32.2266	67.0941	32.2266	67.3197	32.2266	67.2415	32.2266	67.5244	32.2266	67.4651	32.2266	67.8041	32.2266	67.77	32.2266	68.1576	32.2266	68.1515	32.2266	68.5735	32.2266	68.5939	32.2266	69.0311	32.2266	69.0736	32.2266	69.5042	32.2266	69.562	32.2266	69.9646	32.2266	70.0299	32.2266	70.3853	32.2266	70.45	32.2266	70.7424	32.2266	70.7988	32.2266	71.0161	32.2266	71.0577	32.2266	71.1914	32.2266	71.2135	32.2266	71.2586
33.6914	68.785	33.6914	68.7666	33.6914	68.8015	33.6914	68.7475	33.6914	68.8193	33.6914	68.7335	33.6914	68.8458	33.6914	68.7345	33.6914	68.8917	33.6914	68.7643	33.6914	68.9702	33.6914	68.8392	33.6914	69.0946	33.6914	68.9746	33.6914	69.2762	33.6914	69.1819	33.6914	69.521	33.6914	69.4649	33.6914	69.8274	33.6914	69.8168	33.6914	70.1856	33.6914	70.2209	33.6914	70.578	33.6914	70.6527	33.6914	70.9819	33.6914	71.0839	33.6914	71.3724	33.6914	71.4863	33.6914	71.7249	33.6914	71.8344	33.6914	72.0171	33.6914	72.1074	33.6914	72.2306	33.6914	72.2899	33.6914	72.3519	33.6914	72.3725
35.1562	69.1752	35.1562	69.1507	35.1562	69.1972	35.1562	69.1265	35.1562	69.2186	35.1562	69.1104	35.1562	69.2461	35.1562	69.1145	35.1562	69.2904	35.1562	69.1548	35.1562	69.365	35.1562	69.2482	35.1562	69.4845	35.1562	69.4097	35.1562	69.6616	35.1562	69.6483	35.1562	69.9041	35.1562	69.9638	35.1562	70.2122	35.1562	70.3455	35.1562	70.5769	35.1562	70.7735	35.1562	70.9811	35.1562	71.2216	35.1562	71.4016	35.1562	71.6617	35.1562	71.8123	35.1562	72.0664	35.1562	72.187	35.1562	72.4116	35.1562	72.5022	35.1562	72.6775	35.1562	72.738	35.1562	72.8491	35.1562	72.8794	35.1562	72.9175
36.6211	70.3624	36.6211	70.3573	36.6211	70.3849	36.6211	70.3718	36.6211	70.4256	36.6211	70.4101	36.6211	70.4872	36.6211	70.4782	36.6211	70.5746	36.6211	70.5834	36.6211	70.6937	36.6211	70.7325	36.6211	70.8508	36.6211	70.9305	36.6211	71.0506	36.6211	71.1789	36.6211	71.2949	36.6211	71.4745	36.6211	71.5814	36.6211	71.8084	36.6211	71.9027	36.6211	72.167	36.6211	72.2467	36.6211	72.5328	36.6211	72.5975	36.6211	72.8865	36.6211	72.9367	36.6211	73.2085	36.6211	73.2455	36.6211	73.4806	36.6211	73.5062	36.6211	73.6875	36.6211	73.7035	36.6211	73.8178	36.6211	73.8254	36.6211	73.8644
38.0859	71.9164	38.0859	71.9222	38.0859	71.9196	38.0859	71.9382	38.0859	71.9326	38.0859	71.9677	38.0859	71.9584	38.0859	72.0155	38.0859	72.0015	38.0859	72.0876	38.0859	72.0681	38.0859	72.1901	38.0859	72.1648	38.0859	72.3285	38.0859	72.2976	38.0859	72.5062	38.0859	72.4705	38.0859	72.723	38.0859	72.6841	38.0859	72.9748	38.0859	72.9344	38.0859	73.2526	38.0859	73.2128	38.0859	73.5434	38.0859	73.506	38.0859	73.831	38.0859	73.7976	38.0859	74.0978	38.0859	74.0696	38.0859	74.3264	38.0859	74.3044	38.0859	74.5011	38.0859	74.486	38.0859	74.6096	38.0859	74.6019	38.0859	74.644
39.5508	72.7864	39.5508	72.7908	39.5508	72.7911	39.5508	72.8048	39.5508	72.806	39.5508	72.8311	39.5508	72.8339	39.5508	72.8739	39.5508	72.8795	39.5508	72.9384	39.5508	72.9482	39.5508	73.0305	39.5508	73.046	39.5508	73.1558	39.5508	73.1779	39.5508	73.318	39.5508	73.3471	39.5508	73.5179	39.5508	73.5537	39.5508	73.7524	39.5508	73.7937	39.5508	74.014	39.5508	74.0586	39.5508	74.2906	39.5508	74.3358	39.5508	74.567	39.5508	74.6101	39.5508	74.8261	39.5508	74.8642	39.5508	75.0508	39.5508	75.0816	39.5508	75.2255	39.5508	75.2471	39.5508	75.3379	39.5508	75.349	39.5508	75.3801
41.0156	73.6228	41.0156	73.6257	41.0156	73.6297	41.0156	73.6391	41.0156	73.6473	41.0156	73.6649	41.0156	73.6778	41.0156	73.7066	41.0156	73.7246	41.0156	73.7684	41.0156	73.7919	41.0156	73.8548	41.0156	73.8843	41.0156	73.9703	41.0156	74.0056	41.0156	74.1178	41.0156	74.1585	41.0156	74.2979	41.0156	74.3428	41.0156	74.5081	41.0156	74.5556	41.0156	74.7419	41.0156	74.79	41.0156	74.9891	41.0156	75.0357	41.0156	75.2365	41.0156	75.2793	41.0156	75.469	41.0156	75.5061	41.0156	75.6711	41.0156	75.7007	41.0156	75.8287	41.0156	75.8493	41.0156	75.9304	41.0156	75.941	41.0156	75.9687
42.4805	74.4336	42.4805	74.4378	42.4805	74.4402	42.4805	74.4532	42.4805	74.4581	42.4805	74.4816	42.4805	74.4892	42.4805	74.5254	42.4805	74.536	42.4805	74.5881	42.4805	74.6018	42.4805	74.673	42.4805	74.6901	42.4805	74.7836	42.4805	74.8041	42.4805	74.9218	42.4805	74.9455	42.4805	75.088	42.4805	75.1145	42.4805	75.2798	42.4805	75.3082	42.4805	75.4917	42.4805	75.5209	42.4805	75.7149	42.4805	75.7437	42.4805	75.938	42.4805	75.9648	42.4805	76.1474	42.4805	76.1711	42.4805	76.3296	42.4805	76.3487	42.4805	76.4715	42.4805	76.4849	42.4805	76.5627	42.4805	76.5696	42.4805	76.5962
43.9453	75.1581	43.9453	75.1636	43.9453	75.1641	43.9453	75.1807	43.9453	75.1819	43.9453	75.2107	43.9453	75.213	43.9453	75.2555	43.9453	75.2593	43.9453	75.3175	43.9453	75.3234	43.9453	75.3993	43.9453	75.4079	43.9453	75.5034	43.9453	75.5152	43.9453	75.6313	43.9453	75.6466	43.9453	75.7831	43.9453	75.802	43.9453	75.9569	43.9453	75.9787	43.9453	76.1479	43.9453	76.1719	43.9453	76.3487	43.9453	76.3737	43.9453	76.5494	43.9453	76.5738	43.9453	76.7382	43.9453	76.7604	43.9453	76.9028	43.9453	76.9212	43.9453	77.0314	43.9453	77.0445	43.9453	77.1143	43.9453	77.1211	43.9453	77.145
45.4102	75.7343	45.4102	75.7384	45.4102	75.7433	45.4102	75.756	45.4102	75.7655	45.4102	75.7879	45.4102	75.8018	45.4102	75.8358	45.4102	75.8536	45.4102	75.9013	45.4102	75.9224	45.4102	75.9862	45.4102	76.0101	45.4102	76.0922	45.4102	76.1181	45.4102	76.2199	45.4102	76.2471	45.4102	76.3688	45.4102	76.3966	45.4102	76.5367	45.4102	76.564	45.4102	76.7188	45.4102	76.745	45.4102	76.9083	45.4102	76.9325	45.4102	77.0963	45.4102	77.1177	45.4102	77.2721	45.4102	77.29	45.4102	77.4245	45.4102	77.4384	45.4102	77.543	45.4102	77.5525	45.4102	77.619	45.4102	77.6238	45.4102	77.6466
46.875	76.4091	46.875	76.4174	46.875	76.4133	46.875	76.4384	46.875	76.4303	46.875	76.4725	46.875	76.4609	46.875	76.5206	46.875	76.5061	46.875	76.5838	46.875	76.5671	46.875	76.663	46.875	76.6452	46.875	76.7593	46.875	76.7413	46.875	76.873	46.875	76.856	46.875	77.0037	46.875	76.9885	46.875	77.1496	46.875	77.1367	46.875	77.3069	46.875	77.2969	46.875	77.4702	46.875	77.463	46.875	77.6321	46.875	77.6274	46.875	77.7836	46.875	77.7809	46.875	77.915	46.875	77.9138	46.875	78.0171	46.875	78.0167	46.875	78.0819	46.875	78.0818	46.875	78.1041
48.3398	76.9676	48.3398	76.9758	48.3398	76.9721	48.3398	76.9966	48.3398	76.9895	48.3398	77.0304	48.3398	77.0201	48.3398	77.0775	48.3398	77.0645	48.3398	77.1384	48.3398	77.1232	48.3398	77.2134	48.3398	77.1968	48.3398	77.3029	48.3398	77.2856	48.3398	77.4069	48.3398	77.3897	48.3398	77.5245	48.3398	77.5081	48.3398	77.6541	48.3398	77.639	48.3398	77.7926	48.3398	77.7792	48.3398	77.9352	48.3398	77.9239	48.3398	78.076	48.3398	78.0668	48.3398	78.2073	48.3398	78.2002	48.3398	78.321	48.3398	78.3158	48.3398	78.4091	48.3398	78.4057	48.3398	78.4646	48.3398	78.463	48.3398	78.4832
51.2695	77.9297	51.2695	77.9373	51.2695	77.9343	51.2695	77.957	51.2695	77.9511	51.2695	77.9887	51.2695	77.9801	51.2695	78.0325	51.2695	78.0214	51.2695	78.0882	51.2695	78.0751	51.2695	78.1559	51.2695	78.1411	51.2695	78.2354	51.2695	78.2195	51.2695	78.3264	51.2695	78.31	51.2695	78.4282	51.2695	78.412	51.2695	78.5394	51.2695	78.524	51.2695	78.6578	51.2695	78.6437	51.2695	78.7798	51.2695	78.7674	51.2695	78.9003	51.2695	78.89	51.2695	79.013	51.2695	79.0049	51.2695	79.1111	51.2695	79.1051	51.2695	79.1872	51.2695	79.1834	51.2695	79.2353	51.2695	79.2335	51.2695	79.2513
52.7344	78.2603	52.7344	78.269	52.7344	78.2664	52.7344	78.2922	52.7344	78.2871	52.7344	78.3296	52.7344	78.3222	52.7344	78.3807	52.7344	78.3714	52.7344	78.4449	52.7344	78.4341	52.7344	78.5214	52.7344	78.5097	52.7344	78.6095	52.7344	78.5974	52.7344	78.7079	52.7344	78.6962	52.7344	78.8155	52.7344	78.8048	52.7344	78.9305	52.7344	78.9211	52.7344	79.0501	52.7344	79.0424	52.7344	79.171	52.7344	79.1651	52.7344	79.2885	52.7344	79.2844	52.7344	79.3972	52.7344	79.3944	52.7344	79.4907	52.7344	79.489	52.7344	79.563	52.7344	79.5621	52.7344	79.6087	52.7344	79.6083	52.7344	79.6243
54.1992	78.6666	54.1992	78.6742	54.1992	78.6734	54.1992	78.696	54.1992	78.6945	54.1992	78.7315	54.1992	78.7294	54.1992	78.7801	54.1992	78.7775	54.1992	78.8409	54.1992	78.8377	54.1992	78.9126	54.1992	78.9092	54.1992	78.9942	54.1992	78.9907	54.1992	79.0842	54.1992	79.0809	54.1992	79.1812	54.1992	79.1782	54.1992	79.2834	54.1992	79.2809	54.1992	79.3884	54.1992	79.3865	54.1992	79.4932	54.1992	79.4919	54.1992	79.5943	54.1992	79.5935	54.1992	79.687	54.1992	79.6866	54.1992	79.7665	54.1992	79.7664	54.1992	79.8278	54.1992	79.8277	54.1992	79.8665	54.1992	79.8665	54.1992	79.8798
55.6641	79.0436	55.6641	79.0498	55.6641	79.0509	55.6641	79.0696	55.6641	79.0717	55.6641	79.1022	55.6641	79.1053	55.6641	79.147	55.6641	79.1509	55.6641	79.2028	55.6641	79.2074	55.6641	79.2684	55.6641	79.2736	55.6641	79.3423	55.6641	79.3481	55.6641	79.4233	55.6641	79.4295	55.6641	79.5097	55.6641	79.5163	55.6641	79.6	55.6641	79.6068	55.6641	79.6921	55.6641	79.6989	55.6641	79.7837	55.6641	79.7903	55.6641	79.8717	55.6641	79.8778	55.6641	79.9524	55.6641	79.9577	55.6641	80.0216	55.6641	80.0258	55.6641	80.0751	55.6641	80.0781	55.6641	80.1093	55.6641	80.1108	55.6641	80.1215
58.5938	79.6695	58.5938	79.6761	58.5938	79.6762	58.5938	79.6957	58.5938	79.696	58.5938	79.7277	58.5938	79.7281	58.5938	79.7709	58.5938	79.7713	58.5938	79.8238	58.5938	79.8242	58.5938	79.8848	58.5938	79.8851	58.5938	79.952	58.5938	79.9522	58.5938	80.0238	58.5938	80.0237	58.5938	80.0983	58.5938	80.0979	58.5938	80.1739	58.5938	80.1731	58.5938	80.249	58.5938	80.2477	58.5938	80.3218	58.5938	80.3201	58.5938	80.3901	58.5938	80.3881	58.5938	80.4516	58.5938	80.4494	58.5938	80.5035	58.5938	80.5014	58.5938	80.5429	58.5938	80.5413	58.5938	80.5675	58.5938	80.5667	58.5938	80.5756
60.0586	79.9649	60.0586	79.9718	60.0586	79.971	60.0586	79.9914	60.0586	79.9898	60.0586	80.0229	60.0586	80.0206	60.0586	80.0651	60.0586	80.0621	60.0586	80.1163	60.0586	80.1127	60.0586	80.1747	60.0586	80.1705	60.0586	80.2384	60.0586	80.2336	60.0586	80.3054	60.0586	80.3002	60.0586	80.374	60.0586	80.3685	60.0586	80.4426	60.0586	80.4367	60.0586	80.5096	60.0586	80.5035	60.0586	80.5734	60.0586	80.5674	60.0586	80.6326	60.0586	80.6268	60.0586	80.6851	60.0586	80.6799	60.0586	80.729	60.0586	80.7247	60.0586	80.7621	60.0586	80.759	60.0586	80.7825	60.0586	80.7809	60.0586	80.7889
62.9883	80.49	62.9883	80.4959	62.9883	80.4967	62.9883	80.514	62.9883	80.5157	62.9883	80.5436	62.9883	80.546	62.9883	80.5832	62.9883	80.5861	62.9883	80.631	62.9883	80.6342	62.9883	80.6848	62.9883	80.6882	62.9883	80.7424	62.9883	80.7458	62.9883	80.8017	62.9883	80.805	62.9883	80.8606	62.9883	80.8637	62.9883	80.9176	62.9883	80.9203	62.9883	80.9712	62.9883	80.9736	62.9883	81.0205	62.9883	81.0225	62.9883	81.0646	62.9883	81.0662	62.9883	81.1026	62.9883	81.1038	62.9883	81.1336	62.9883	81.1346	62.9883	81.1568	62.9883	81.1574	62.9883	81.1712	62.9883	81.1715	62.9883	81.1762
64.4531	80.7368	64.4531	80.742	64.4531	80.7436	64.4531	80.7588	64.4531	80.7619	64.4531	80.7862	64.4531	80.7909	64.4531	80.8229	64.4531	80.8289	64.4531	80.867	64.4531	80.8741	64.4531	80.9163	64.4531	80.9243	64.4531	80.9684	64.4531	80.9772	64.4531	81.0213	64.4531	81.0305	64.4531	81.073	64.4531	81.0824	64.4531	81.1218	64.4531	81.1311	64.4531	81.1666	64.4531	81.1756	64.4531	81.2066	64.4531	81.215	64.4531	81.2414	64.4531	81.249	64.4531	81.2707	64.4531	81.2771	64.4531	81.2943	64.4531	81.2992	64.4531	81.3117	64.4531	81.3151	64.4531	81.3227	64.4531	81.3245	64.4531	81.327
67.3828	81.2646	67.3828	81.2693	67.3828	81.2711	67.3828	81.2848	67.3828	81.2882	67.3828	81.31	67.3828	81.3149	67.3828	81.3434	67.3828	81.3495	67.3828	81.3829	67.3828	81.3899	67.3828	81.4261	67.3828	81.4337	67.3828	81.4705	67.3828	81.4782	67.3828	81.5137	67.3828	81.5212	67.3828	81.5536	67.3828	81.5605	67.3828	81.5887	67.3828	81.5947	67.3828	81.6179	67.3828	81.6229	67.3828	81.6412	67.3828	81.6451	67.3828	81.6587	67.3828	81.6616	67.3828	81.6712	67.3828	81.6732	67.3828	81.6797	67.3828	81.6809	67.3828	81.6851	67.3828	81.6857	67.3828	81.688	67.3828	81.6883	67.3828	81.689
68.8477	81.4605	68.8477	81.4656	68.8477	81.4665	68.8477	81.4816	68.8477	81.4834	68.8477	81.5073	68.8477	81.5099	68.8477	81.5411	68.8477	81.5443	68.8477	81.5808	68.8477	81.5843	68.8477	81.6238	68.8477	81.6274	68.8477	81.6674	68.8477	81.6709	68.8477	81.7091	68.8477	81.7122	68.8477	81.7467	68.8477	81.7493	68.8477	81.7786	68.8477	81.7805	68.8477	81.8039	68.8477	81.805	68.8477	81.8225	68.8477	81.823	68.8477	81.835	68.8477	81.8349	68.8477	81.8424	68.8477	81.842	68.8477	81.8462	68.8477	81.8456	68.8477	81.8477	68.8477	81.8472	68.8477	81.848	68.8477	81.8477	68.8477	81.8479
71.7773	81.8175	71.7773	81.8232	71.7773	81.8228	71.7773	81.8395	71.7773	81.8387	71.7773	81.8654	71.7773	81.8641	71.7773	81.899	71.7773	81.897	71.7773	81.9379	71.7773	81.9353	71.7773	81.9795	71.7773	81.9761	71.7773	82.0209	71.7773	82.0165	71.7773	82.0594	71.7773	82.054	71.7773	82.0925	71.7773	82.0861	71.7773	82.1186	71.7773	82.1113	71.7773	82.1367	71.7773	82.1288	71.7773	82.147	71.7773	82.1388	71.7773	82.1503	71.7773	82.1423	71.7773	82.1483	71.7773	82.141	71.7773	82.1432	71.7773	82.1372	71.7773	82.1373	71.7773	82.1329	71.7773	82.1324	71.7773	82.1301	71.7773	82.1298
74.707	82.174	74.707	82.1798	74.707	82.1785	74.707	82.1955	74.707	82.193	74.707	82.22	74.707	82.2163	74.707	82.2515	74.707	82.2466	74.707	82.2875	74.707	82.2814	74.707	82.3252	74.707	82.318	74.707	82.3618	74.707	82.3535	74.707	82.3944	74.707	82.3849	74.707	82.4204	74.707	82.4101	74.707	82.4383	74.707	82.4272	74.707	82.4471	74.707	82.4356	74.707	82.4472	74.707	82.4358	74.707	82.44	74.707	82.4291	74.707	82.4277	74.707	82.418	74.707	82.4132	74.707	82.4053	74.707	82.3997	74.707	82.3941	74.707	82.3897	74.707	82.3868	74.707	82.3852
77.6367	82.5169	77.6367	82.5217	77.6367	82.5218	77.6367	82.5357	77.6367	82.5358	77.6367	82.5579	77.6367	82.5578	77.6367	82.5863	77.6367	82.5861	77.6367	82.6187	77.6367	82.618	77.6367	82.6521	77.6367	82.6509	77.6367	82.6836	77.6367	82.6816	77.6367	82.7102	77.6367	82.7074	77.6367	82.7294	77.6367	82.7258	77.6367	82.7396	77.6367	82.7352	77.6367	82.7399	77.6367	82.7348	77.6367	82.7309	77.6367	82.7254	77.6367	82.7142	77.6367	82.7087	77.6367	82.6928	77.6367	82.6878	77.6367	82.6704	77.6367	82.6661	77.6367	82.6506	77.6367	82.6475	77.6367	82.6368	77.6367	82.6352	77.6367	82.6314
79.1016	82.6654	79.1016	82.6693	79.1016	82.6708	79.1016	82.682	79.1016	82.6849	79.1016	82.7026	79.1016	82.7068	79.1016	82.7291	79.1016	82.7344	79.1016	82.7593	79.1016	82.7653	79.1016	82.7903	79.1016	82.7966	79.1016	82.8191	79.1016	82.8254	79.1016	82.8427	79.1016	82.8486	79.1016	82.8586	79.1016	82.8639	79.1016	82.865	79.1016	82.8696	79.1016	82.8613	79.1016	82.865	79.1016	82.8481	79.1016	82.8508	79.1016	82.8273	79.1016	82.8292	79.1016	82.8019	79.1016	82.8032	79.1016	82.7761	79.1016	82.7768	79.1016	82.7538	79.1016	82.7541	79.1016	82.7387	79.1016	82.7389	79.1016	82.7335
82.0312	82.9297	82.0312	82.932	82.0312	82.9361	82.0312	82.9426	82.0312	82.9507	82.0312	82.9605	82.0312	82.9724	82.0312	82.9841	82.0312	82.9992	82.0312	83.0108	82.0312	83.0286	82.0312	83.038	82.0312	83.0578	82.0312	83.0625	82.0312	83.0838	82.0312	83.0815	82.0312	83.1033	82.0312	83.0923	82.0312	83.114	82.0312	83.0931	82.0312	83.1141	82.0312	83.0832	82.0312	83.103	82.0312	83.0635	82.0312	83.0814	82.0312	83.0362	82.0312	83.0518	82.0312	83.0047	82.0312	83.0176	82.0312	82.9735	82.0312	82.9835	82.0312	82.9474	82.0312	82.9542	82.0312	82.9305	82.0312	82.9339	82.0312	82.9256
84.9609	83.1883	84.9609	83.1884	84.9609	83.1963	84.9609	83.1962	84.9609	83.2117	84.9609	83.2109	84.9609	83.2333	84.9609	83.2309	84.9609	83.2594	84.9609	83.2538	84.9609	83.2875	84.9609	83.2771	84.9609	83.3146	84.9609	83.2977	84.9609	83.3378	84.9609	83.3127	84.9609	83.3539	84.9609	83.3194	84.9609	83.3604	84.9609	83.3161	84.9609	83.3556	84.9609	83.3019	84.9609	83.3388	84.9609	83.2778	84.9609	83.311	84.9609	83.2459	84.9609	83.2747	84.9609	83.2102	84.9609	83.2338	84.9609	83.1753	84.9609	83.1934	84.9609	83.1465	84.9609	83.1587	84.9609	83.1283	84.9609	83.1345	84.9609	83.1239
87.8906	83.4553	87.8906	83.4553	87.8906	83.4625	87.8906	83.4624	87.8906	83.4765	87.8906	83.4756	87.8906	83.4964	87.8906	83.4934	87.8906	83.5205	87.8906	83.514	87.8906	83.5466	87.8906	83.5347	87.8906	83.5721	87.8906	83.553	87.8906	83.594	87.8906	83.5659	87.8906	83.6094	87.8906	83.571	87.8906	83.6157	87.8906	83.5665	87.8906	83.611	87.8906	83.5518	87.8906	83.5948	87.8906	83.5277	87.8906	83.5676	87.8906	83.4963	87.8906	83.532	87.8906	83.4613	87.8906	83.4916	87.8906	83.4276	87.8906	83.4513	87.8906	83.4	87.8906	83.4163	87.8906	83.3831	87.8906	83.3914	87.8906	83.3799
90.8203	83.7523	90.8203	83.7536	90.8203	83.7568	90.8203	83.7606	90.8203	83.767	90.8203	83.7724	90.8203	83.782	90.8203	83.7875	90.8203	83.8005	90.8203	83.8043	90.8203	83.8206	90.8203	83.8204	90.8203	83.8398	90.8203	83.8331	90.8203	83.8555	90.8203	83.8399	90.8203	83.8649	90.8203	83.8384	90.8203	83.8655	90.8203	83.8271	90.8203	83.8556	90.8203	83.8055	90.8203	83.8344	90.8203	83.7744	90.8203	83.8028	90.8203	83.7364	90.8203	83.763	90.8203	83.6955	90.8203	83.7189	90.8203	83.6565	90.8203	83.6755	90.8203	83.6248	90.8203	83.6383	90.8203	83.6052	90.8203	83.6121	90.8203	83.6006
95.2148	84.0891	95.2148	84.0909	95.2148	84.091	95.2148	84.0964	95.2148	84.0966	95.2148	84.1047	95.2148	84.105	95.2148	84.1147	95.2148	84.1152	95.2148	84.1247	95.2148	84.1254	95.2148	84.1325	95.2148	84.1335	95.2148	84.1357	95.2148	84.1369	95.2148	84.1317	95.2148	84.133	95.2148	84.1181	95.2148	84.1195	95.2148	84.0935	95.2148	84.0949	95.2148	84.0573	95.2148	84.0586	95.2148	84.0109	95.2148	84.012	95.2148	83.9571	95.2148	83.9579	95.2148	83.9004	95.2148	83.9009	95.2148	83.8467	95.2148	83.8471	95.2148	83.8025	95.2148	83.8026	95.2148	83.7732	95.2148	83.7732	95.2148	83.763
98.1445	84.2611	98.1445	84.263	98.1445	84.2619	98.1445	84.2673	98.1445	84.265	98.1445	84.2734	98.1445	84.2699	98.1445	84.2804	98.1445	84.2757	98.1445	84.2867	98.1445	84.2806	98.1445	84.2904	98.1445	84.283	98.1445	84.2891	98.1445	84.2803	98.1445	84.2803	98.1445	84.2702	98.1445	84.2618	98.1445	84.2505	98.1445	84.232	98.1445	84.2198	98.1445	84.1905	98.1445	84.1777	98.1445	84.1385	98.1445	84.1256	98.1445	84.0789	98.1445	84.0666	98.1445	84.0166	98.1445	84.0055	98.1445	83.9576	98.1445	83.9484	98.1445	83.9086	98.1445	83.902	98.1445	83.8756	98.1445	83.8721	98.1445	83.8629
101.074	84.4206	101.074	84.42	101.074	84.4221	101.074	84.4203	101.074	84.4242	101.074	84.421	101.074	84.4263	101.074	84.4213	101.074	84.4277	101.074	84.4201	101.074	84.4269	101.074	84.4157	101.074	84.4222	101.074	84.4059	101.074	84.4115	101.074	84.3885	101.074	84.3927	101.074	84.3614	101.074	84.3638	101.074	84.3233	101.074	84.3236	101.074	84.2738	101.074	84.272	101.074	84.2143	101.074	84.2107	101.074	84.1478	101.074	84.1431	101.074	84.0795	101.074	84.0742	101.074	84.0155	101.074	84.0105	101.074	83.9629	101.074	83.959	101.074	83.9278	101.074	83.9257	101.074	83.9149
105.469	84.6809	105.469	84.6764	105.469	84.6844	105.469	84.6708	105.469	84.6865	105.469	84.6639	105.469	84.6869	105.469	84.655	105.469	84.6847	105.469	84.6432	105.469	84.6785	105.469	84.6269	105.469	84.6669	105.469	84.6043	105.469	84.6476	105.469	84.5735	105.469	84.6188	105.469	84.5326	105.469	84.5785	105.469	84.4808	105.469	84.5256	105.469	84.418	105.469	84.4604	105.469	84.3461	105.469	84.3848	105.469	84.2688	105.469	84.3025	105.469	84.1915	105.469	84.2195	105.469	84.1212	105.469	84.1427	105.469	84.0651	105.469	84.0797	105.469	84.0299	105.469	84.0372	105.469	84.02
108.398	84.7747	108.398	84.771	108.398	84.778	108.398	84.7669	108.398	84.7808	108.398	84.7622	108.398	84.7828	108.398	84.7563	108.398	84.783	108.398	84.7481	108.398	84.7804	108.398	84.7361	108.398	84.7732	108.398	84.7185	108.398	84.7594	108.398	84.6932	108.398	84.7367	108.398	84.6581	108.398	84.703	108.398	84.6121	108.398	84.6568	108.398	84.555	108.398	84.5982	108.398	84.4885	108.398	84.5286	108.398	84.416	108.398	84.4517	108.398	84.3429	108.398	84.373	108.398	84.276	108.398	84.2995	108.398	84.2226	108.398	84.2387	108.398	84.1892	108.398	84.1974	108.398	84.1803
112.793	84.8376	112.793	84.8382	112.793	84.8354	112.793	84.8371	112.793	84.8317	112.793	84.8342	112.793	84.8266	112.793	84.8294	112.793	84.8201	112.793	84.8223	112.793	84.812	112.793	84.8117	112.793	84.8014	112.793	84.7964	112.793	84.787	112.793	84.7746	112.793	84.7669	112.793	84.7444	112.793	84.7393	112.793	84.7047	112.793	84.7026	112.793	84.655	112.793	84.6561	112.793	84.5966	112.793	84.6006	112.793	84.5325	112.793	84.5387	112.793	84.4674	112.793	84.4747	112.793	84.4074	112.793	84.4145	112.793	84.359	112.793	84.3645	112.793	84.3279	112.793	84.331	112.793	84.3182
117.188	84.947	117.188	84.9439	117.188	84.945	117.188	84.936	117.188	84.938	117.188	84.9238	117.188	84.9263	117.188	84.9078	117.188	84.91	117.188	84.888	117.188	84.8893	117.188	84.8645	117.188	84.8639	117.188	84.8365	117.188	84.8332	117.188	84.8028	117.188	84.7962	117.188	84.762	117.188	84.7517	117.188	84.7132	117.188	84.6991	117.188	84.6558	117.188	84.6385	117.188	84.591	117.188	84.5714	117.188	84.5214	117.188	84.5009	117.188	84.4512	117.188	84.4316	117.188	84.3862	117.188	84.3693	117.188	84.3325	117.188	84.3201	117.188	84.2961	117.188	84.2895	117.188	84.2811
120.117	85.094	120.117	85.0897	120.117	85.0912	120.117	85.0785	120.117	85.0812	120.117	85.0609	120.117	85.0644	120.117	85.0378	120.117	85.0412	120.117	85.0095	120.117	85.0118	120.117	84.9762	120.117	84.9764	120.117	84.9375	120.117	84.9344	120.117	84.8926	120.117	84.8852	120.117	84.8404	120.117	84.8281	120.117	84.7803	120.117	84.7627	120.117	84.7121	120.117	84.6896	120.117	84.6371	120.117	84.6108	120.117	84.5583	120.117	84.5298	120.117	84.4799	120.117	84.4518	120.117	84.4079	120.117	84.383	120.117	84.3485	120.117	84.3298	120.117	84.3077	120.117	84.2977	120.117	84.29
124.512	85.4247	124.512	85.4162	124.512	85.4255	124.512	85.4002	124.512	85.4184	124.512	85.3776	124.512	85.4038	124.512	85.3491	124.512	85.3821	124.512	85.3155	124.512	85.3537	124.512	85.2772	124.512	85.3187	124.512	85.234	124.512	85.2767	124.512	85.1852	124.512	85.2271	124.512	85.1299	124.512	85.1692	124.512	85.0673	124.512	85.1027	124.512	84.9974	124.512	85.0283	124.512	84.9219	124.512	84.9478	124.512	84.8436	124.512	84.8647	124.512	84.7673	124.512	84.7839	124.512	84.6991	124.512	84.7114	124.512	84.6451	124.512	84.6532	124.512	84.6109	124.512	84.615	124.512	84.6004
128.906	85.416	128.906	85.4059	128.906	85.4173	128.906	85.3874	128.906	85.41	128.906	85.3612	128.906	85.3948	128.906	85.3284	128.906	85.3724	128.906	85.2903	128.906	85.3435	128.906	85.2476	128.906	85.3084	128.906	85.2008	128.906	85.2671	128.906	85.1498	128.906	85.2189	128.906	85.0942	128.906	85.163	128.906	85.0334	128.906	85.0993	128.906	84.9677	128.906	85.0281	128.906	84.8981	128.906	84.9513	128.906	84.8275	128.906	84.8722	128.906	84.7597	128.906	84.7954	128.906	84.6998	128.906	84.7264	128.906	84.6533	128.906	84.6708	128.906	84.6249	128.906	84.6336	128.906	84.6179
133.301	85.5097	133.301	85.4981	133.301	85.51	133.301	85.4753	133.301	85.4993	133.301	85.4419	133.301	85.4784	133.301	85.3988	133.301	85.4479	133.301	85.3469	133.301	85.4087	133.301	85.2871	133.301	85.3609	133.301	85.2202	133.301	85.3046	133.301	85.1465	133.301	85.2391	133.301	85.0664	133.301	85.1641	133.301	84.9804	133.301	85.0795	133.301	84.8898	133.301	84.9862	133.301	84.7971	133.301	84.8867	133.301	84.7058	133.301	84.7851	133.301	84.621	133.301	84.687	133.301	84.5482	133.301	84.599	133.301	84.4935	133.301	84.5278	133.301	84.4618	133.301	84.4791	133.301	84.4566
139.16	85.4568	139.16	85.4518	139.16	85.4526	139.16	85.4378	139.16	85.4398	139.16	85.4152	139.16	85.419	139.16	85.3845	139.16	85.3912	139.16	85.3462	139.16	85.3571	139.16	85.3005	139.16	85.3168	139.16	85.2468	139.16	85.2696	139.16	85.1844	139.16	85.2144	139.16	85.1123	139.16	85.1496	139.16	85.0301	139.16	85.0741	139.16	84.9389	139.16	84.9882	139.16	84.841	139.16	84.8934	139.16	84.7413	139.16	84.7937	139.16	84.6462	139.16	84.695	139.16	84.5632	139.16	84.6045	139.16	84.4999	139.16	84.53	139.16	84.4627	139.16	84.4785	139.16	84.4553
143.555	85.3505	143.555	85.3425	143.555	85.3475	143.555	85.3238	143.555	85.3335	143.555	85.2958	143.555	85.3098	143.555	85.2603	143.555	85.2781	143.555	85.2189	143.555	85.2399	143.555	85.1726	143.555	85.1965	143.555	85.1217	143.555	85.1483	143.555	85.0657	143.555	85.0947	143.555	85.0035	143.555	85.0345	143.555	84.9341	143.555	84.9665	143.555	84.8575	143.555	84.8902	143.555	84.7751	143.555	84.8069	143.555	84.6904	143.555	84.7197	143.555	84.6085	143.555	84.6338	143.555	84.5358	143.555	84.5558	143.555	84.4789	143.555	84.4927	143.555	84.4436	143.555	84.4506	143.555	84.4337
147.949	85.4116	147.949	85.4092	147.949	85.398	147.949	85.3909	147.949	85.3695	147.949	85.3584	147.949	85.3281	147.949	85.3139	147.949	85.2768	147.949	85.2603	147.949	85.2188	147.949	85.2007	147.949	85.157	147.949	85.1373	147.949	85.0937	147.949	85.0717	147.949	85.0302	147.949	85.0049	147.949	84.967	147.949	84.937	147.949	84.9037	147.949	84.8685	147.949	84.8403	147.949	84.8002	147.949	84.7769	147.949	84.7339	147.949	84.715	147.949	84.6722	147.949	84.6572	147.949	84.6185	147.949	84.6071	147.949	84.5762	147.949	84.5685	147.949	84.5486	147.949	84.5447	147.949	84.5378
153.809	85.5787	153.809	85.5785	153.809	85.5611	153.809	85.561	153.809	85.5265	153.809	85.5273	153.809	85.4762	153.809	85.4794	153.809	85.4125	153.809	85.4193	153.809	85.3377	153.809	85.3492	153.809	85.2542	153.809	85.2707	153.809	85.1642	153.809	85.1853	153.809	85.0697	153.809	85.0942	153.809	84.9727	153.809	84.9989	153.809	84.8755	153.809	84.9015	153.809	84.781	153.809	84.8051	153.809	84.6924	153.809	84.7135	153.809	84.6133	153.809	84.6306	153.809	84.5469	153.809	84.5604	153.809	84.4959	153.809	84.5055	153.809	84.462	153.809	84.4677	153.809	84.4458	153.809	84.4477
159.668	85.3533	159.668	85.3427	159.668	85.3489	159.668	85.3177	159.668	85.3296	159.668	85.28	159.668	85.297	159.668	85.2317	159.668	85.2526	159.668	85.1749	159.668	85.1984	159.668	85.1108	159.668	85.1355	159.668	85.0398	159.668	85.0642	159.668	84.9611	159.668	84.9837	159.668	84.8736	159.668	84.8932	159.668	84.7768	159.668	84.7923	159.668	84.6713	159.668	84.6819	159.668	84.5598	159.668	84.5653	159.668	84.4474	159.668	84.4482	159.668	84.3407	159.668	84.3379	159.668	84.2473	159.668	84.2426	159.668	84.1742	159.668	84.1696	159.668	84.1272	159.668	84.1243	159.668	84.11
165.527	85.0517	165.527	85.0353	165.527	85.0502	165.527	85.0025	165.527	85.0313	165.527	84.9571	165.527	84.9974	165.527	84.9038	165.527	84.9522	165.527	84.8476	165.527	84.8999	165.527	84.7922	165.527	84.8439	165.527	84.7392	165.527	84.786	165.527	84.6877	165.527	84.726	165.527	84.6344	165.527	84.662	165.527	84.5752	165.527	84.5914	165.527	84.5066	165.527	84.5121	165.527	84.4274	165.527	84.4238	165.527	84.3394	165.527	84.3292	165.527	84.2482	165.527	84.2343	165.527	84.1617	165.527	84.1473	165.527	84.0895	165.527	84.0777	165.527	84.0403	165.527	84.0337	165.527	84.0207
171.387	84.9907	171.387	84.9622	171.387	84.9892	171.387	84.905	171.387	84.9583	171.387	84.8223	171.387	84.9003	171.387	84.7194	171.387	84.8192	171.387	84.6027	171.387	84.7198	171.387	84.4794	171.387	84.6078	171.387	84.3568	171.387	84.4886	171.387	84.2413	171.387	84.3679	171.387	84.1373	171.387	84.2505	171.387	84.0471	171.387	84.1405	171.387	83.9708	171.387	84.0407	171.387	83.9068	171.387	83.9532	171.387	83.8529	171.387	83.879	171.387	83.8074	171.387	83.8186	171.387	83.7698	171.387	83.7719	171.387	83.7407	171.387	83.7391	171.387	83.7217	171.387	83.7199	171.387	83.7144
177.246	84.7808	177.246	84.7379	177.246	84.8039	177.246	84.6755	177.246	84.8095	177.246	84.5963	177.246	84.801	177.246	84.5048	177.246	84.7827	177.246	84.4066	177.246	84.7581	177.246	84.3073	177.246	84.729	177.246	84.2116	177.246	84.6948	177.246	84.1224	177.246	84.6529	177.246	84.0412	177.246	84.5995	177.246	83.9688	177.246	84.5315	177.246	83.9053	177.246	84.4476	177.246	83.8515	177.246	84.3496	177.246	83.8088	177.246	84.2425	177.246	83.7785	177.246	84.1334	177.246	83.7623	177.246	84.0303	177.246	83.7617	177.246	83.9399	177.246	83.7781	177.246	83.8667	177.246	83.8127
183.105	84.5121	183.105	84.4914	183.105	84.5015	183.105	84.4386	183.105	84.4641	183.105	84.3565	183.105	84.4082	183.105	84.2516	183.105	84.3441	183.105	84.1326	183.105	84.2832	183.105	84.0098	183.105	84.2355	183.105	83.8932	183.105	84.2073	183.105	83.7914	183.105	84.1999	183.105	83.7104	183.105	84.2094	183.105	83.6537	183.105	84.2277	183.105	83.6221	183.105	84.2452	183.105	83.6152	183.105	84.2527	183.105	83.6312	183.105	84.2439	183.105	83.668	183.105	84.2158	183.105	83.7225	183.105	84.1687	183.105	83.7908	183.105	84.1058	183.105	83.8685	183.105	84.0313	183.105	83.9504
188.965	84.7244	188.965	84.7307	188.965	84.6767	188.965	84.6961	188.965	84.5903	188.965	84.6247	188.965	84.4719	188.965	84.5235	188.965	84.3313	188.965	84.4017	188.965	84.181	188.965	84.2696	188.965	84.0346	188.965	84.1374	188.965	83.9053	188.965	84.014	188.965	83.8036	188.965	83.906	188.965	83.7352	188.965	83.8175	188.965	83.7006	188.965	83.7506	188.965	83.6951	188.965	83.7056	188.965	83.7104	188.965	83.6816	188.965	83.7361	188.965	83.6767	188.965	83.7625	188.965	83.6877	188.965	83.7818	188.965	83.71	188.965	83.7889	188.965	83.7376	188.965	83.7823	188.965	83.7637
196.289	84.8811	196.289	84.8782	196.289	84.8386	196.289	84.8304	196.289	84.7536	196.289	84.7414	196.289	84.6323	196.289	84.6183	196.289	84.4841	196.289	84.4706	196.289	84.3209	196.289	84.3099	196.289	84.1559	196.289	84.1489	196.289	84.0021	196.289	83.9996	196.289	83.8705	196.289	83.8718	196.289	83.7685	196.289	83.7721	196.289	83.6991	196.289	83.7033	196.289	83.661	196.289	83.6643	196.289	83.6497	196.289	83.6511	196.289	83.6582	196.289	83.6577	196.289	83.6787	196.289	83.6768	196.289	83.7029	196.289	83.7005	196.289	83.7235	196.289	83.7216	196.289	83.7349	196.289	83.7342
203.613	84.6666	203.613	84.6566	203.613	84.6258	203.613	84.5965	203.613	84.5365	203.613	84.4901	203.613	84.404	203.613	84.3438	203.613	84.2372	203.613	84.1668	203.613	84.0474	203.613	83.9706	203.613	83.8485	203.613	83.7687	203.613	83.6553	203.613	83.5755	203.613	83.4816	203.613	83.4052	203.613	83.3384	203.613	83.2695	203.613	83.232	203.613	83.1755	203.613	83.1638	203.613	83.1244	203.613	83.1302	203.613	83.1108	203.613	83.1245	203.613	83.1246	203.613	83.138	203.613	83.1529	203.613	83.1618	203.613	83.1829	203.613	83.1871	203.613	83.2049	203.613	83.2061	203.613	83.213
210.938	84.6458	210.938	84.6493	210.938	84.592	210.938	84.6022	210.938	84.4906	210.938	84.5065	210.938	84.3468	210.938	84.3663	210.938	84.1683	210.938	84.1877	210.938	83.9652	210.938	83.9783	210.938	83.7493	210.938	83.7474	210.938	83.5329	210.938	83.5053	210.938	83.3284	210.938	83.2638	210.938	83.1459	210.938	83.0358	210.938	82.993	210.938	82.8345	210.938	82.8733	210.938	82.6725	210.938	82.7864	210.938	82.5586	210.938	82.7281	210.938	82.4954	210.938	82.6907	210.938	82.478	210.938	82.6645	210.938	82.4947	210.938	82.64	210.938	82.5309	210.938	82.6102	210.938	82.5726
218.262	84.481	218.262	84.5028	218.262	84.4159	218.262	84.4828	218.262	84.3087	218.262	84.4244	218.262	84.1635	218.262	84.3325	218.262	83.9874	218.262	84.212	218.262	83.7899	218.262	84.0679	218.262	83.5821	218.262	83.9041	218.262	83.375	218.262	83.7239	218.262	83.1779	218.262	83.5306	218.262	82.997	218.262	83.3282	218.262	82.8355	218.262	83.1228	218.262	82.6938	218.262	82.9227	218.262	82.5717	218.262	82.7381	218.262	82.4693	218.262	82.5787	218.262	82.3872	218.262	82.4518	218.262	82.3264	218.262	82.3602	218.262	82.287	218.262	82.3021	218.262	82.269	218.262	82.2732
225.586	83.8789	225.586	83.885	225.586	83.8323	225.586	83.8554	225.586	83.7462	225.586	83.8001	225.586	83.6275	225.586	83.7319	225.586	83.4887	225.586	83.664	225.586	83.346	225.586	83.6066	225.586	83.217	225.586	83.5644	225.586	83.1167	225.586	83.5357	225.586	83.0539	225.586	83.5137	225.586	83.0288	225.586	83.4897	225.586	83.0332	225.586	83.4563	225.586	83.0541	225.586	83.4102	225.586	83.0777	225.586	83.3523	225.586	83.0942	225.586	83.2878	225.586	83.0999	225.586	83.2239	225.586	83.0966	225.586	83.1679	225.586	83.0905	225.586	83.1255	225.586	83.0892	225.586	83.0995
232.91	83.5092	232.91	83.4708	232.91	83.4612	232.91	83.3502	232.91	83.3295	232.91	83.1596	232.91	83.1238	232.91	82.9207	232.91	82.8625	232.91	82.6655	232.91	82.5736	232.91	82.4344	232.91	82.2954	232.91	82.2692	232.91	82.073	232.91	82.2007	232.91	81.9484	232.91	82.2369	232.91	81.9464	232.91	82.36	232.91	82.0627	232.91	82.5358	232.91	82.2661	232.91	82.7279	232.91	82.5116	232.91	82.9087	232.91	82.7564	232.91	83.0622	232.91	82.9699	232.91	83.1824	232.91	83.1359	232.91	83.2684	232.91	83.2502	232.91	83.3203	232.91	83.3155	232.91	83.3372
241.699	84.2806	241.699	84.2692	241.699	84.1991	241.699	84.1678	241.699	84.0244	241.699	83.9819	241.699	83.7596	241.699	83.7208	241.699	83.4127	241.699	83.3997	241.699	82.9993	241.699	83.0424	241.699	82.5458	241.699	82.6846	241.699	82.0924	241.699	82.3726	241.699	81.6933	241.699	82.1567	241.699	81.41	241.699	82.0748	241.699	81.2929	241.699	82.135	241.699	81.3595	241.699	82.3103	241.699	81.5838	241.699	82.5503	241.699	81.9084	241.699	82.8003	241.699	82.2681	241.699	83.0155	241.699	82.6083	241.699	83.1658	241.699	82.8916	241.699	83.2339	241.699	83.0961	241.699	83.2114
250.488	84.2693	250.488	84.2065	250.488	84.2354	250.488	84.0513	250.488	84.102	250.488	83.8101	250.488	83.8682	250.488	83.4922	250.488	83.5357	250.488	83.1106	250.488	83.1104	250.488	82.6839	250.488	82.6057	250.488	82.2381	250.488	82.0464	250.488	81.8076	250.488	81.4739	250.488	81.4334	250.488	80.9484	250.488	81.1569	250.488	80.5428	250.488	81.0076	250.488	80.3213	250.488	80.9919	250.488	80.3101	250.488	81.0884	250.488	80.4813	250.488	81.2546	250.488	80.7659	250.488	81.4398	250.488	81.0842	250.488	81.5963	250.488	81.3692	250.488	81.686	250.488	81.5765	250.488	81.6833
259.277	84.9954	259.277	84.9302	259.277	84.9723	259.277	84.7774	259.277	84.8612	259.277	84.5386	259.277	84.6625	259.277	84.218	259.277	84.3778	259.277	83.8234	259.277	84.0099	259.277	83.3673	259.277	83.5657	259.277	82.8697	259.277	83.0594	259.277	82.3605	259.277	82.5163	259.277	81.8806	259.277	81.9773	259.277	81.4787	259.277	81.498	259.277	81.2004	259.277	81.1391	259.277	81.0701	259.277	80.944	259.277	81.0774	259.277	80.9171	259.277	81.1807	259.277	81.0191	259.277	81.324	259.277	81.187	259.277	81.4559	259.277	81.3589	259.277	81.539	259.277	81.4893	259.277	81.5522
268.066	84.9301	268.066	84.8974	268.066	84.8884	268.066	84.7903	268.066	84.7732	268.066	84.6108	268.066	84.5868	268.066	84.3628	268.066	84.3323	268.066	84.0536	268.066	84.0153	268.066	83.695	268.066	83.6444	268.066	83.3043	268.066	83.2339	268.066	82.9058	268.066	82.8058	268.066	82.5303	268.066	82.3913	268.066	82.2111	268.066	82.0288	268.066	81.9772	268.066	81.7565	268.066	81.844	268.066	81.6004	268.066	81.8065	268.066	81.5631	268.066	81.8407	268.066	81.6216	268.066	81.9114	268.066	81.7356	268.066	81.9826	268.066	81.8615	268.066	82.0253	268.066	81.964	268.066	82.0211
276.855	84.2998	276.855	84.2597	276.855	84.2532	276.855	84.1352	276.855	84.1191	276.855	83.9295	276.855	83.8984	276.855	83.6479	276.855	83.5941	276.855	83.2993	276.855	83.2128	276.855	82.8979	276.855	82.7676	276.855	82.4669	276.855	82.2812	276.855	82.0416	276.855	81.7902	276.855	81.6691	276.855	81.3465	276.855	81.401	276.855	81.0117	276.855	81.2775	276.855	80.8398	276.855	81.3083	276.855	80.853	276.855	81.4649	276.855	81.0286	276.855	81.6919	276.855	81.3079	276.855	81.9266	276.855	81.6203	276.855	82.1154	276.855	81.9034	276.855	82.2206	276.855	82.1125	276.855	82.2215
287.109	84.2493	287.109	84.2031	287.109	84.216	287.109	84.0753	287.109	84.1053	287.109	83.8656	287.109	83.9196	287.109	83.5756	287.109	83.6603	287.109	83.2104	287.109	83.3276	287.109	82.7794	287.109	82.9218	287.109	82.2984	287.109	82.4456	287.109	81.7928	287.109	81.9096	287.109	81.3005	287.109	81.3397	287.109	80.8728	287.109	80.7848	287.109	80.5664	287.109	80.3173	287.109	80.4239	287.109	80.0154	287.109	80.448	287.109	79.9268	287.109	80.593	287.109	80.0375	287.109	80.7823	287.109	80.2783	287.109	80.9392	287.109	80.5599	287.109	81.0085	287.109	80.8056	287.109	80.9638
297.363	84.7254	297.363	84.7168	297.363	84.6479	297.363	84.6232	297.363	84.4816	297.363	84.4443	297.363	84.2236	297.363	84.1783	297.363	83.872	297.363	83.8235	297.363	83.428	297.363	83.3807	297.363	82.8984	297.363	82.8564	297.363	82.2986	297.363	82.2684	297.363	81.6563	297.363	81.6498	297.363	81.0142	297.363	81.0516	297.363	80.4292	297.363	80.538	297.363	79.9655	297.363	80.1704	297.363	79.6759	297.363	79.9832	297.363	79.5801	297.363	79.9647	297.363	79.6517	297.363	80.0589	297.363	79.828	297.363	80.1881	297.363	80.0339	297.363	80.2809	297.363	80.2029	297.363	80.2908
307.617	84.4435	307.617	84.4282	307.617	84.4012	307.617	84.3543	307.617	84.3019	307.617	84.2208	307.617	84.146	307.617	84.0263	307.617	83.9331	307.617	83.769	307.617	83.6618	307.617	83.4484	307.617	83.3308	307.617	83.0688	307.617	82.9417	307.617	82.6435	307.617	82.5034	307.617	82.2002	307.617	82.0377	307.617	81.7822	307.617	81.584	307.617	81.4412	307.617	81.1969	307.617	81.2196	307.617	80.9324	307.617	81.1307	307.617	80.8234	307.617	81.1519	307.617	80.8607	307.617	81.2356	307.617	80.9952	307.617	81.329	307.617	81.1615	307.617	81.3873	307.617	81.3024	307.617	81.3817
319.336	83.63	319.336	83.5712	319.336	83.6046	319.336	83.4311	319.336	83.4942	319.336	83.2144	319.336	83.2996	319.336	82.9275	319.336	83.0237	319.336	82.5775	319.336	82.671	319.336	82.1723	319.336	82.2494	319.336	81.7231	319.336	81.7732	319.336	81.2486	319.336	81.2679	319.336	80.7828	319.336	80.7751	319.336	80.3795	319.336	80.3529	319.336	80.1054	319.336	80.0654	319.336	80.0129	319.336	79.9577	319.336	80.106	319.336	80.0316	319.336	80.3312	319.336	80.2404	319.336	80.6039	319.336	80.5103	319.336	80.8447	319.336	80.7676	319.336	80.9985	319.336	80.9551	319.336	81.0371
329.59	83.8047	329.59	83.7526	329.59	83.7625	329.59	83.6081	329.59	83.6268	329.59	83.3767	329.59	83.3997	329.59	83.0667	329.59	83.0835	329.59	82.6881	329.59	82.6796	329.59	82.2514	329.59	82.1891	329.59	81.7683	329.59	81.6168	329.59	81.2549	329.59	80.9784	329.59	80.7383	329.59	80.3117	329.59	80.2643	329.59	79.6896	329.59	79.8982	329.59	79.2192	329.59	79.7053	329.59	79.0041	329.59	79.7135	329.59	79.0785	329.59	79.8863	329.59	79.3745	329.59	80.138	329.59	79.7667	329.59	80.3742	329.59	80.1371	329.59	80.5223	329.59	80.4076	329.59	80.5389
341.309	83.8031	341.309	83.7119	341.309	83.7996	341.309	83.5264	341.309	83.7024	341.309	83.248	341.309	83.5143	341.309	82.8803	341.309	83.2394	341.309	82.4298	341.309	82.883	341.309	81.9078	341.309	82.4509	341.309	81.332	341.309	81.9495	341.309	80.7285	341.309	81.3892	341.309	80.1352	341.309	80.7906	341.309	79.6055	341.309	80.1943	341.309	79.2072	341.309	79.6679	341.309	79.0051	341.309	79.2968	341.309	79.0243	341.309	79.1469	341.309	79.223	341.309	79.2178	341.309	79.5069	341.309	79.4352	341.309	79.7741	341.309	79.6928	341.309	79.9489	341.309	79.8981	341.309	79.9921
353.027	83.8051	353.027	83.7344	353.027	83.7735	353.027	83.5606	353.027	83.6395	353.027	83.2816	353.027	83.4028	353.027	82.8944	353.027	83.0633	353.027	82.3961	353.027	82.6225	353.027	81.7879	353.027	82.0857	353.027	81.0814	353.027	81.4661	353.027	80.3089	353.027	80.7905	353.027	79.537	353.027	80.1065	353.027	78.8735	353.027	79.4878	353.027	78.4484	353.027	79.0286	353.027	78.3522	353.027	78.8141	353.027	78.5704	353.027	78.8719	353.027	78.9883	353.027	79.1453	353.027	79.4601	353.027	79.5204	353.027	79.8666	353.027	79.8788	353.027	80.133	353.027	80.1309	353.027	80.223
366.211	84.0185	366.211	84.0175	366.211	83.9495	366.211	83.9411	366.211	83.8149	366.211	83.7827	366.211	83.6165	366.211	83.5344	366.211	83.3523	366.211	83.1861	366.211	83.0155	366.211	82.726	366.211	82.5947	366.211	82.1422	366.211	82.0773	366.211	81.4287	366.211	81.4576	366.211	80.5967	366.211	80.749	366.211	79.6919	366.211	80.0007	366.211	78.8154	366.211	79.3082	366.211	78.1254	366.211	78.7955	366.211	77.7785	366.211	78.553	366.211	77.8161	366.211	78.5717	366.211	78.123	366.211	78.7475	366.211	78.5175	366.211	78.9484	366.211	78.8517	366.211	79.0684	366.211	79.0434
379.395	83.57	379.395	83.5531	379.395	83.4908	379.395	83.4412	379.395	83.3159	379.395	83.2359	379.395	83.0471	379.395	82.9383	379.395	82.6865	379.395	82.5485	379.395	82.2344	379.395	82.0665	379.395	81.6889	379.395	81.4959	379.395	81.0486	379.395	80.8497	379.395	80.3218	379.395	80.1604	379.395	79.5455	379.395	79.4936	379.395	78.8104	379.395	78.9529	379.395	78.2669	379.395	78.6538	379.395	78.0661	379.395	78.656	379.395	78.2423	379.395	78.9099	379.395	78.6735	379.395	79.2855	379.395	79.1775	379.395	79.6476	379.395	79.6104	379.395	79.9002	379.395	79.892	379.395	79.9893
392.578	83.6632	392.578	83.6013	392.578	83.6417	392.578	83.4597	392.578	83.5325	392.578	83.2407	392.578	83.3309	392.578	82.9442	392.578	83.0325	392.578	82.566	392.578	82.6338	392.578	82.0975	392.578	82.1337	392.578	81.5286	392.578	81.5334	392.578	80.854	392.578	80.838	392.578	80.0871	392.578	80.0606	392.578	79.2771	392.578	79.235	392.578	78.5245	392.578	78.4372	392.578	77.9697	392.578	77.7993	392.578	77.7282	392.578	77.4711	392.578	77.8044	392.578	77.5128	392.578	78.0815	392.578	77.8256	392.578	78.3995	392.578	78.2219	392.578	78.6265	392.578	78.5384	392.578	78.6822
405.762	83.3717	405.762	83.299	405.762	83.3465	405.762	83.1311	405.762	83.2216	405.762	82.8706	405.762	82.996	405.762	82.519	405.762	82.6673	405.762	82.0752	405.762	82.2306	405.762	81.5376	405.762	81.68	405.762	80.9106	405.762	81.0135	405.762	80.2153	405.762	80.2442	405.762	79.5027	405.762	79.4169	405.762	78.864	405.762	78.6277	405.762	78.4189	405.762	78.0257	405.762	78.2625	405.762	77.7588	405.762	78.397	405.762	77.8687	405.762	78.7233	405.762	78.2503	405.762	79.1044	405.762	78.7336	405.762	79.4267	405.762	79.1767	405.762	79.6191	405.762	79.4941	405.762	79.6453
420.41	83.2744	420.41	83.1955	420.41	83.2589	420.41	83.0177	420.41	83.1553	420.41	82.7399	420.41	82.9688	420.41	82.3634	420.41	82.7004	420.41	81.8898	420.41	82.3455	420.41	81.3182	420.41	81.8943	420.41	80.6456	420.41	81.3351	420.41	79.8713	420.41	80.6614	420.41	79.0106	420.41	79.8808	420.41	78.1201	420.41	79.0302	420.41	77.3309	420.41	78.197	420.41	76.8458	420.41	77.531	420.41	76.8208	420.41	77.2002	420.41	77.2012	420.41	77.2682	420.41	77.7532	420.41	77.6233	420.41	78.2463	420.41	78.0662	420.41	78.5463	420.41	78.4277	420.41	78.6045
435.059	83.5997	435.059	83.5754	435.059	83.5157	435.059	83.4376	435.059	83.3307	435.059	83.1843	435.059	83.0522	435.059	82.8163	435.059	82.6866	435.059	82.3348	435.059	82.2353	435.059	81.7389	435.059	81.6921	435.059	81.0231	435.059	81.0428	435.059	80.1831	435.059	80.2723	435.059	79.2356	435.059	79.3856	435.059	78.2592	435.059	78.4507	435.059	77.4424	435.059	77.6517	435.059	77.0539	435.059	77.267	435.059	77.2378	435.059	77.4544	435.059	77.8443	435.059	78.0576	435.059	78.5805	435.059	78.7688	435.059	79.2213	435.059	79.3604	435.059	79.6512	435.059	79.7246	435.059	79.8235
451.172	83.601	451.172	83.5837	451.172	83.5574	451.172	83.5025	451.172	83.4556	451.172	83.3528	451.172	83.2978	451.172	83.1251	451.172	83.0816	451.172	82.8032	451.172	82.7952	451.172	82.3631	451.172	82.4129	451.172	81.7764	451.172	81.8973	451.172	81.0165	451.172	81.2092	451.172	80.0745	451.172	80.3277	451.172	78.992	451.172	79.2842	451.172	77.9197	451.172	78.2159	451.172	77.1593	451.172	77.4088	451.172	77.0198	451.172	77.1841	451.172	77.4892	451.172	77.5802	451.172	78.2366	451.172	78.2911	451.172	78.9379	451.172	78.9756	451.172	79.4132	451.172	79.4345	451.172	79.5863
465.82	83.8566	465.82	83.8266	465.82	83.7716	465.82	83.6887	465.82	83.5705	465.82	83.4542	465.82	83.2581	465.82	83.1348	465.82	82.8425	465.82	82.7365	465.82	82.3309	465.82	82.2544	465.82	81.7267	465.82	81.6678	465.82	81.027	465.82	80.9415	465.82	80.2225	465.82	80.0372	465.82	79.3038	465.82	78.9419	465.82	78.284	465.82	77.7267	465.82	77.2488	465.82	76.6341	465.82	76.4217	465.82	76.068	465.82	76.1178	465.82	76.2495	465.82	76.4497	465.82	76.9227	465.82	77.1518	465.82	77.6664	465.82	77.8523	465.82	78.2116	465.82	78.3144	465.82	78.4401
483.398	83.4971	483.398	83.3881	483.398	83.5138	483.398	83.1966	483.398	83.4323	483.398	82.9344	483.398	83.249	483.398	82.6087	483.398	82.9595	483.398	82.2164	483.398	82.5558	483.398	81.7432	483.398	82.0254	483.398	81.167	483.398	81.3507	483.398	80.4635	483.398	80.5124	483.398	79.6114	483.398	79.5022	483.398	78.6096	483.398	78.3605	483.398	77.5309	483.398	77.248	483.398	76.6199	483.398	76.4908	483.398	76.2854	483.398	76.3908	483.398	76.7056	483.398	76.8804	483.398	77.5385	483.398	77.6121	483.398	78.3278	483.398	78.2957	483.398	78.8283	483.398	78.7769	483.398	78.9723
499.512	83.4012	499.512	83.3397	499.512	83.3907	499.512	83.2016	499.512	83.3133	499.512	82.984	499.512	83.1732	499.512	82.6842	499.512	82.9714	499.512	82.2979	499.512	82.7022	499.512	81.8159	499.512	82.3498	499.512	81.2213	499.512	81.8853	499.512	80.4912	499.512	81.2661	499.512	79.6066	499.512	80.4433	499.512	78.5773	499.512	79.3849	499.512	77.495	499.512	78.133	499.512	76.6037	499.512	76.9217	499.512	76.2572	499.512	76.2469	499.512	76.5973	499.512	76.4674	499.512	77.3508	499.512	77.2781	499.512	78.127	499.512	78.1254	499.512	78.6753	499.512	78.6935	499.512	78.8792
517.09	83.1651	517.09	83.1523	517.09	83.052	517.09	83.0265	517.09	82.8218	517.09	82.8174	517.09	82.5052	517.09	82.5601	517.09	82.1461	517.09	82.2774	517.09	81.7831	517.09	81.9626	517.09	81.426	517.09	81.5715	517.09	81.0419	517.09	81.0318	517.09	80.5608	517.09	80.2616	517.09	79.8956	517.09	79.1953	517.09	78.9691	517.09	77.8313	517.09	77.7583	517.09	76.3559	517.09	76.4003	517.09	75.3282	517.09	75.3692	517.09	75.3823	517.09	75.306	517.09	76.2959	517.09	76.1486	517.09	77.3235	517.09	77.1954	517.09	78.0215	517.09	77.9528	517.09	78.2411
536.133	84.0637	536.133	83.9955	536.133	83.9733	536.133	83.7726	536.133	83.7328	536.133	83.4133	536.133	83.3604	536.133	82.9502	536.133	82.883	536.133	82.426	536.133	82.3347	536.133	81.8829	536.133	81.7509	536.133	81.3459	536.133	81.1551	536.133	80.8039	536.133	80.545	536.133	80.2032	536.133	79.8927	536.133	79.4663	536.133	79.1707	536.133	78.5424	536.133	78.3978	536.133	77.498	536.133	77.6905	536.133	76.634	536.133	77.2621	536.133	76.4083	536.133	77.2813	536.133	76.9125	536.133	77.6798	536.133	77.7061	536.133	78.1958	536.133	78.3491	536.133	78.572	536.133	78.6466
555.176	84.4654	555.176	84.3783	555.176	84.3975	555.176	84.1364	555.176	84.1785	555.176	83.746	555.176	83.8147	555.176	83.2218	555.176	83.3152	555.176	82.5859	555.176	82.6947	555.176	81.864	555.176	81.9755	555.176	81.0796	555.176	81.188	555.176	80.2553	555.176	80.3631	555.176	79.4245	555.176	79.5207	555.176	78.6468	555.176	78.667	555.176	78.0084	555.176	77.8249	555.176	77.5989	555.176	77.1056	555.176	77.4781	555.176	76.7453	555.176	77.6488	555.176	76.9382	555.176	78.0364	555.176	77.5635	555.176	78.496	555.176	78.2734	555.176	78.8582	555.176	78.7868	555.176	78.9821
574.219	85.1044	574.219	85.0142	574.219	85.0372	574.219	84.7767	574.219	84.8105	574.219	84.4028	574.219	84.4329	574.219	83.8969	574.219	83.9207	574.219	83.2534	574.219	83.2892	574.219	82.4564	574.219	82.5431	574.219	81.4851	574.219	81.6726	574.219	80.3242	574.219	80.6553	574.219	78.9863	574.219	79.4663	574.219	77.56	574.219	78.1093	574.219	76.2999	574.219	76.6997	574.219	75.6505	574.219	75.608	574.219	75.9014	574.219	75.3788	574.219	76.783	574.219	76.0818	574.219	77.79	574.219	77.1707	574.219	78.5949	574.219	78.1594	574.219	79.0606	574.219	78.8384	574.219	79.1439
594.727	84.9654	594.727	84.9221	594.727	84.9019	594.727	84.7611	594.727	84.7424	594.727	84.4775	594.727	84.4912	594.727	84.0738	594.727	84.1409	594.727	83.5544	594.727	83.671	594.727	82.9147	594.727	83.0469	594.727	82.1304	594.727	82.223	594.727	81.1519	594.727	81.1566	594.727	79.9172	594.727	79.8363	594.727	78.4037	594.727	78.3363	594.727	76.776	594.727	76.9112	594.727	75.6328	594.727	76.0603	594.727	75.7235	594.727	76.2046	594.727	76.8178	594.727	77.1309	594.727	78.094	594.727	78.2628	594.727	79.1093	594.727	79.2032	594.727	79.7414	594.727	79.7875	594.727	79.9688
615.234	84.652	615.234	84.6232	615.234	84.5302	615.234	84.4547	615.234	84.2729	615.234	84.1781	615.234	83.9192	615.234	83.831	615.234	83.5167	615.234	83.4351	615.234	83.094	615.234	82.9735	615.234	82.6349	615.234	82.3851	615.234	82.0718	615.234	81.5743	615.234	81.2983	615.234	80.4267	615.234	80.1917	615.234	78.8284	615.234	78.6493	615.234	76.7506	615.234	76.7033	615.234	74.6501	615.234	74.9137	615.234	74.1085	615.234	74.6363	615.234	75.6624	615.234	76.046	615.234	77.6209	615.234	77.7848	615.234	79.0962	615.234	79.1374	615.234	79.9591	615.234	79.9592	615.234	80.2368
637.207	85.1123	637.207	85.0166	637.207	85.0663	637.207	84.7846	637.207	84.8874	637.207	84.4335	637.207	84.5949	637.207	83.9857	637.207	84.2075	637.207	83.4605	637.207	83.7301	637.207	82.8623	637.207	83.1486	637.207	82.1667	637.207	82.4333	637.207	81.3111	637.207	81.5368	637.207	80.1964	637.207	80.3779	637.207	78.698	637.207	78.8245	637.207	76.7026	637.207	76.7343	637.207	74.3159	637.207	74.2557	637.207	72.6786	637.207	72.8409	637.207	73.567	637.207	74.0836	637.207	75.7059	637.207	76.1887	637.207	77.4762	637.207	77.7835	637.207	78.5451	637.207	78.6857	637.207	78.9357
659.18	84.5957	659.18	84.5424	659.18	84.5511	659.18	84.4039	659.18	84.4111	659.18	84.2051	659.18	84.1938	659.18	83.9731	659.18	83.9282	659.18	83.719	659.18	83.6395	659.18	83.4199	659.18	83.3228	659.18	83.014	659.18	82.9226	659.18	82.4109	659.18	82.3403	659.18	81.5053	659.18	81.46	659.18	80.188	659.18	80.1652	659.18	78.3742	659.18	78.3448	659.18	76.1472	659.18	75.9763	659.18	74.286	659.18	73.676	659.18	74.3347	659.18	73.467	659.18	75.9208	659.18	75.3631	659.18	77.5019	659.18	77.2492	659.18	78.5004	659.18	78.4125	659.18	78.8147
682.617	84.8149	682.617	84.7642	682.617	84.6814	682.617	84.53	682.617	84.3859	682.617	84.1405	682.617	83.9678	682.617	83.6492	682.617	83.4812	682.617	83.1175	682.617	82.9843	682.617	82.5848	682.617	82.5106	682.617	82.037	682.617	82.03	682.617	81.3961	682.617	81.4386	682.617	80.5361	682.617	80.5913	682.617	79.3111	682.617	79.3447	682.617	77.6054	682.617	77.5997	682.617	75.5405	682.617	75.4542	682.617	74.1573	682.617	73.8218	682.617	74.964	682.617	74.4043	682.617	76.9378	682.617	76.4752	682.617	78.6187	682.617	78.347	682.617	79.6273	682.617	79.5114	682.617	79.9287
707.52	85.5905	707.52	85.4859	707.52	85.4514	707.52	85.1627	707.52	85.0631	707.52	84.6589	707.52	84.4574	707.52	84.0281	707.52	83.721	707.52	83.3414	707.52	82.9846	707.52	82.669	707.52	82.3615	707.52	82.0382	707.52	81.8619	707.52	81.3883	707.52	81.3697	707.52	80.561	707.52	80.691	707.52	79.3231	707.52	79.6	707.52	77.3885	707.52	77.8638	707.52	74.5087	707.52	75.3719	707.52	71.561	707.52	73.0217	707.52	72.5514	707.52	73.5519	707.52	75.6749	707.52	75.9666	707.52	77.9354	707.52	77.947	707.52	79.1602	707.52	79.1163	707.52	79.5211
732.422	85.2519	732.422	85.2151	732.422	85.102	732.422	84.9855	732.422	84.8011	732.422	84.5948	732.422	84.4003	732.422	84.1101	732.422	83.9501	732.422	83.6076	732.422	83.4922	732.422	83.1271	732.422	83.0495	732.422	82.6407	732.422	82.6037	732.422	82.0661	732.422	82.0723	732.422	81.2962	732.422	81.3174	732.422	80.2063	732.422	80.1714	732.422	78.6519	732.422	78.4438	732.422	76.5234	732.422	75.942	732.422	74.1073	732.422	72.8597	732.422	73.0444	732.422	71.5685	732.422	74.422	732.422	73.6467	732.422	76.2791	732.422	75.9341	732.422	77.4641	732.422	77.3199	732.422	77.8124
757.324	85.5018	757.324	85.3521	757.324	85.3767	757.324	84.9572	757.324	84.9909	757.324	84.3832	757.324	84.408	757.324	83.7233	757.324	83.7372	757.324	83.0832	757.324	83.0971	757.324	82.5442	757.324	82.5507	757.324	82.0926	757.324	82.0712	757.324	81.5859	757.324	81.5701	757.324	80.8186	757.324	80.9279	757.324	79.6082	757.324	79.9871	757.324	77.8172	757.324	78.5434	757.324	75.4007	757.324	76.4078	757.324	73.0431	757.324	73.8783	757.324	73.2591	757.324	73.1989	757.324	75.7142	757.324	75.3539	757.324	77.8717	757.324	77.6179	757.324	79.1261	757.324	79.0064	757.324	79.4954
785.156	85.8505	785.156	85.7847	785.156	85.7107	785.156	85.4905	785.156	85.3741	785.156	84.9558	785.156	84.8307	785.156	84.2073	785.156	84.0739	785.156	83.3228	785.156	83.1483	785.156	82.4137	785.156	82.1919	785.156	81.5785	785.156	81.387	785.156	80.8501	785.156	80.776	785.156	80.1453	785.156	80.1628	785.156	79.2416	785.156	79.2594	785.156	77.824	785.156	77.8341	785.156	75.6023	785.156	75.7459	785.156	72.751	785.156	73.217	785.156	71.7021	785.156	72.1767	785.156	74.0667	785.156	74.2307	785.156	76.6207	785.156	76.711	785.156	78.1964	785.156	78.2549	785.156	78.7392
811.523	84.369	811.523	84.1878	811.523	84.3196	811.523	83.8277	811.523	84.0231	811.523	83.3517	811.523	83.5245	811.523	82.8193	811.523	82.9299	811.523	82.2728	811.523	82.3528	811.523	81.7253	811.523	81.8313	811.523	81.152	811.523	81.31	811.523	80.4848	811.523	80.6992	811.523	79.6139	811.523	79.9158	811.523	78.4093	811.523	78.8684	811.523	76.7789	811.523	77.4377	811.523	74.8294	811.523	75.5635	811.523	73.2447	811.523	73.6715	811.523	73.1374	811.523	73.175	811.523	74.3041	811.523	74.4051	811.523	75.6396	811.523	75.851	811.523	76.587	811.523	76.7432	811.523	76.9767
840.82	83.8279	840.82	83.5545	840.82	83.776	840.82	82.9821	840.82	83.4341	840.82	82.2197	840.82	82.8841	840.82	81.4696	840.82	82.2522	840.82	80.9569	840.82	81.6913	840.82	80.7301	840.82	81.2829	840.82	80.5745	840.82	80.9309	840.82	80.1919	840.82	80.4085	840.82	79.3382	840.82	79.4857	840.82	77.7829	840.82	77.9879	840.82	75.2458	840.82	75.8148	840.82	71.685	840.82	73.1766	840.82	69.8155	840.82	71.7073	840.82	72.4573	840.82	73.1845	840.82	75.2673	840.82	75.475	840.82	77.0707	840.82	77.1446	840.82	78.0458	840.82	78.0753	840.82	78.3612
870.117	84.5618	870.117	84.4402	870.117	84.3294	870.117	83.9478	870.117	83.7505	870.117	83.0877	870.117	82.8727	870.117	81.9873	870.117	81.8723	870.117	81.0012	870.117	81.0852	870.117	80.5286	870.117	80.7968	870.117	80.5121	870.117	80.9001	870.117	80.4763	870.117	80.9377	870.117	79.9691	870.117	80.4041	870.117	78.6	870.117	78.8213	870.117	75.7441	870.117	75.5526	870.117	69.6466	870.117	69.6525	870.117	65.4294	870.117	69.4021	870.117	74.3264	870.117	75.1407	870.117	78.5523	870.117	78.5098	870.117	80.7534	870.117	80.4865	870.117	81.8031	870.117	81.602	870.117	82.0401
900.879	86.4266	900.879	86.234	900.879	86.1544	900.879	85.538	900.879	85.4475	900.879	84.3189	900.879	84.3176	900.879	82.6579	900.879	82.8082	900.879	80.9867	900.879	81.243	900.879	80.2891	900.879	80.5391	900.879	80.9351	900.879	81.1717	900.879	81.8972	900.879	82.1393	900.879	82.2819	900.879	82.4954	900.879	81.6843	900.879	81.8197	900.879	79.7168	900.879	79.7241	900.879	75.3135	900.879	75.0937	900.879	61.9145	900.879	59.1029	900.879	72.2353	900.879	72.4669	900.879	78.6189	900.879	78.7544	900.879	81.5185	900.879	81.6216	900.879	82.9104	900.879	82.9744	900.879	83.3526
933.105	86.0836	933.105	85.8719	933.105	85.9316	933.105	85.2914	933.105	85.3468	933.105	84.2714	933.105	84.2025	933.105	82.6916	933.105	82.3672	933.105	80.4863	933.105	79.874	933.105	78.294	933.105	77.6596	933.105	78.3123	933.105	77.8471	933.105	80.2175	933.105	79.572	933.105	81.6403	933.105	80.7988	933.105	81.8447	933.105	80.9292	933.105	80.6481	933.105	79.6885	933.105	77.5906	933.105	76.3931	933.105	70.8163	933.105	68.226	933.105	68.5771	933.105	69.7787	933.105	76.9084	933.105	77.6729	933.105	80.8145	933.105	81.2713	933.105	82.7678	933.105	82.9939	933.105	83.4448
965.332	85.9839	965.332	85.8997	965.332	85.7439	965.332	85.4265	965.332	85.2054	965.332	84.4621	965.332	84.3193	965.332	82.8434	965.332	82.8893	965.332	80.2796	965.332	80.5079	965.332	76.4	965.332	76.7295	965.332	73.519	965.332	74.4102	965.332	76.7266	965.332	77.9061	965.332	79.884	965.332	80.8021	965.332	81.4169	965.332	81.9718	965.332	81.4882	965.332	81.6464	965.332	79.971	965.332	79.6902	965.332	76.6577	965.332	75.6323	965.332	74.9451	965.332	73.6366	965.332	78.7031	965.332	78.4831	965.332	81.7866	965.332	81.867	965.332	83.4354	965.332	83.5397	965.332	83.9959
1000.49	84.7346	1000.49	84.7524	1000.49	84.8423	1000.49	84.8483	1000.49	84.9559	1000.49	84.8206	1000.49	84.8675	1000.49	84.3936	1000.49	84.348	1000.49	83.2421	1000.49	83.1234	1000.49	80.8889	1000.49	80.7425	1000.49	76.499	1000.49	76.2609	1000.49	71.8924	1000.49	69.9369	1000.49	76.5924	1000.49	75.2114	1000.49	80.2942	1000.49	79.5359	1000.49	81.9054	1000.49	81.389	1000.49	82.0037	1000.49	81.5741	1000.49	80.7691	1000.49	80.328	1000.49	78.5425	1000.49	78.1092	1000.49	77.4736	1000.49	77.447	1000.49	79.3631	1000.49	79.5999	1000.49	81.3611	1000.49	81.511	1000.49	82.1219
1035.64	84.2181	1035.64	84.2892	1035.64	84.0883	1035.64	84.2766	1035.64	83.9579	1035.64	84.1678	1035.64	83.8234	1035.64	83.8637	1035.64	83.53	1035.64	83.1284	1035.64	82.8125	1035.64	81.627	1035.64	81.3769	1035.64	78.9187	1035.64	78.8885	1035.64	74.551	1035.64	75.1181	1035.64	72.573	1035.64	73.0267	1035.64	76.7995	1035.64	76.3193	1035.64	79.6736	1035.64	79.1079	1035.64	80.637	1035.64	80.1002	1035.64	79.9041	1035.64	79.321	1035.64	77.3603	1035.64	76.5933	1035.64	72.9759	1035.64	71.9914	1035.64	71.2572	1035.64	70.9632	1035.64	73.9797	1035.64	73.9372	1035.64	75.0809
1072.27	83.4998	1072.27	83.3939	1072.27	83.4504	1072.27	83.1577	1072.27	83.2936	1072.27	82.8797	1072.27	83.0821	1072.27	82.6056	1072.27	82.7818	1072.27	82.205	1072.27	82.2254	1072.27	81.3508	1072.27	81.1384	1072.27	79.6336	1072.27	79.1752	1072.27	76.7305	1072.27	76.0104	1072.27	73.6316	1072.27	73.0295	1072.27	75.1083	1072.27	75.1381	1072.27	78.2695	1072.27	78.1877	1072.27	79.8271	1072.27	79.5305	1072.27	79.5905	1072.27	79.1423	1072.27	77.4885	1072.27	76.9619	1072.27	73.1264	1072.27	72.5596	1072.27	67.7307	1072.27	67.5119	1072.27	69.5638	1072.27	69.7426	1072.27	71.2333
1108.89	84.1185	1108.89	83.9261	1108.89	83.9975	1108.89	83.4806	1108.89	83.5619	1108.89	82.8483	1108.89	82.9368	1108.89	82.1237	1108.89	82.3358	1108.89	81.4627	1108.89	81.8172	1108.89	80.8647	1108.89	81.1384	1108.89	79.8891	1108.89	79.934	1108.89	77.7807	1108.89	77.864	1108.89	74.0051	1108.89	74.9895	1108.89	72.2868	1108.89	74.0053	1108.89	75.6879	1108.89	76.4342	1108.89	77.993	1108.89	78.3206	1108.89	78.491	1108.89	78.531	1108.89	77.2503	1108.89	76.9975	1108.89	73.8414	1108.89	73.4527	1108.89	66.5835	1108.89	66.7468	1108.89	55.94	1108.89	58.9478	1108.89	61.8457
1148.44	84.7286	1148.44	84.624	1148.44	84.5369	1148.44	84.1897	1148.44	84.0874	1148.44	83.4549	1148.44	83.4061	1148.44	82.5338	1148.44	82.5273	1148.44	81.5515	1148.44	81.5116	1148.44	80.5571	1148.44	80.4221	1148.44	79.5298	1148.44	79.2318	1148.44	78.3539	1148.44	77.7716	1148.44	76.8266	1148.44	75.9585	1148.44	75.2005	1148.44	74.4424	1148.44	74.7926	1148.44	74.5533	1148.44	75.5984	1148.44	75.6473	1148.44	75.947	1148.44	76.1283	1148.44	75.0561	1148.44	75.3112	1148.44	72.8994	1148.44	73.0479	1148.44	70.735	1148.44	70.6109	1148.44	70.8582	1148.44	70.8131	1148.44	71.4779
1189.45	84.7932	1189.45	84.665	1189.45	84.5837	1189.45	84.2264	1189.45	84.0708	1189.45	83.5536	1189.45	83.2882	1189.45	82.6667	1189.45	82.2568	1189.45	81.5093	1189.45	81.0357	1189.45	80.083	1189.45	79.7159	1189.45	78.5116	1189.45	78.3212	1189.45	76.9192	1189.45	76.8017	1189.45	75.5422	1189.45	75.351	1189.45	75.0678	1189.45	74.791	1189.45	75.6224	1189.45	75.3638	1189.45	76.0311	1189.45	75.7776	1189.45	75.247	1189.45	74.903	1189.45	72.7046	1189.45	72.1367	1189.45	69.2012	1189.45	68.9099	1189.45	70.4137	1189.45	71.1323	1189.45	73.3195	1189.45	73.7869	1189.45	74.4747
1230.47	84.2684	1230.47	84.1526	1230.47	84.1689	1230.47	83.8183	1230.47	83.7966	1230.47	83.2244	1230.47	83.0882	1230.47	82.3485	1230.47	82.0771	1230.47	81.256	1230.47	80.9028	1230.47	80.0936	1230.47	79.6289	1230.47	78.907	1230.47	78.1331	1230.47	77.5434	1230.47	76.389	1230.47	75.9618	1230.47	74.9617	1230.47	74.6564	1230.47	74.6808	1230.47	74.3247	1230.47	75.1639	1230.47	74.6052	1230.47	75.3341	1230.47	74.3083	1230.47	74.4205	1230.47	72.5166	1230.47	71.8228	1230.47	69.553	1230.47	67.9268	1230.47	70.0044	1230.47	69.1258	1230.47	72.6626	1230.47	72.4421	1230.47	73.6227
1274.41	84.1577	1274.41	83.9661	1274.41	83.9949	1274.41	83.494	1274.41	83.4851	1274.41	82.8368	1274.41	82.7192	1274.41	82.0128	1274.41	81.8382	1274.41	80.9344	1274.41	80.9466	1274.41	79.5309	1274.41	79.9713	1274.41	77.8651	1274.41	78.6455	1274.41	76.0302	1274.41	76.7737	1274.41	74.303	1274.41	74.6401	1274.41	74.0363	1274.41	73.498	1274.41	75.2556	1274.41	74.0602	1274.41	75.8054	1274.41	74.64	1274.41	74.8268	1274.41	73.8584	1274.41	72.0811	1274.41	70.8539	1274.41	67.954	1274.41	65.0889	1274.41	69.6531	1274.41	68.6379	1274.41	73.455	1274.41	73.2828	1274.41	74.6838
1319.82	83.8395	1319.82	83.6548	1319.82	83.736	1319.82	83.216	1319.82	83.3497	1319.82	82.5689	1319.82	82.7411	1319.82	81.8097	1319.82	81.9654	1319.82	81.017	1319.82	81.0261	1319.82	80.057	1319.82	79.8583	1319.82	78.6068	1319.82	78.3183	1319.82	76.5489	1319.82	76.2136	1319.82	74.5954	1319.82	73.8797	1319.82	73.8898	1319.82	73.3324	1319.82	74.1045	1319.82	74.7029	1319.82	74.1399	1319.82	75.381	1319.82	72.867	1319.82	74.2166	1319.82	68.8329	1319.82	70.5087	1319.82	65.1902	1319.82	66.3286	1319.82	70.9633	1319.82	70.81	1319.82	74.2358	1319.82	74.1852	1319.82	75.1918
1366.7	84.4011	1366.7	84.1469	1366.7	84.3741	1366.7	83.6297	1366.7	83.9711	1366.7	82.853	1366.7	83.1598	1366.7	81.9567	1366.7	82.0861	1366.7	81.0882	1366.7	81.0108	1366.7	80.1525	1366.7	80.0806	1366.7	78.8497	1366.7	79.0864	1366.7	76.8285	1366.7	77.5851	1366.7	73.9084	1366.7	75.3052	1366.7	71.5869	1366.7	73.2057	1366.7	73.028	1366.7	74.0917	1366.7	74.8215	1366.7	75.7591	1366.7	74.4691	1366.7	75.5249	1366.7	70.7108	1366.7	72.4533	1366.7	60.2267	1366.7	64.8566	1366.7	69.7945	1366.7	68.4303	1366.7	74.2642	1366.7	73.6311	1366.7	75.2268
1413.57	85.6543	1413.57	85.3177	1413.57	85.3913	1413.57	84.5734	1413.57	84.5151	1413.57	83.5998	1413.57	83.3223	1413.57	82.4953	1413.57	82.2164	1413.57	81.3672	1413.57	81.2809	1413.57	80.3888	1413.57	80.3386	1413.57	79.5415	1413.57	79.2349	1413.57	78.38	1413.57	77.6885	1413.57	76.4515	1413.57	75.2318	1413.57	74.4491	1413.57	72.4531	1413.57	74.5617	1413.57	73.1713	1413.57	75.7263	1413.57	75.1188	1413.57	75.4744	1413.57	75.1398	1413.57	72.7295	1413.57	72.3504	1413.57	64.355	1413.57	62.1591	1413.57	64.0595	1413.57	67.0358	1413.57	73.1202	1413.57	74.1077	1413.57	75.5187
1463.38	85.6887	1463.38	85.5703	1463.38	85.3946	1463.38	85.0627	1463.38	84.5972	1463.38	84.116	1463.38	83.3749	1463.38	82.8078	1463.38	82.094	1463.38	81.547	1463.38	81.029	1463.38	80.7046	1463.38	80.0248	1463.38	79.8938	1463.38	78.8563	1463.38	78.4944	1463.38	77.3997	1463.38	76.2076	1463.38	75.5322	1463.38	73.3679	1463.38	73.7147	1463.38	73.8764	1463.38	73.8944	1463.38	76.5719	1463.38	75.857	1463.38	77.1974	1463.38	76.6089	1463.38	75.0515	1463.38	74.4052	1463.38	68.1428	1463.38	65.9371	1463.38	64.4916	1463.38	66.6175	1463.38	73.654	1463.38	74.0617	1463.38	75.7698
1516.11	85.6635	1516.11	85.5262	1516.11	85.3668	1516.11	84.941	1516.11	84.528	1516.11	83.7967	1516.11	83.0772	1516.11	82.1182	1516.11	81.0897	1516.11	80.1682	1516.11	79.144	1516.11	78.5531	1516.11	78.1088	1516.11	77.6498	1516.11	77.755	1516.11	76.6808	1516.11	77.2289	1516.11	75.0319	1516.11	75.7492	1516.11	72.4935	1516.11	72.4322	1516.11	71.758	1516.11	69.3633	1516.11	74.8986	1516.11	72.9368	1516.11	76.5976	1516.11	75.2478	1516.11	75.659	1516.11	74.4954	1516.11	70.5153	1516.11	69.4296	1516.11	63.2523	1516.11	63.4395	1516.11	72.946	1516.11	72.4624	1516.11	74.8997
1568.85	84.7902	1568.85	84.6965	1568.85	84.6047	1568.85	84.3284	1568.85	84.2105	1568.85	83.8104	1568.85	83.5386	1568.85	83.0407	1568.85	82.3811	1568.85	81.6402	1568.85	80.7328	1568.85	79.665	1568.85	78.7971	1568.85	77.6196	1568.85	76.5969	1568.85	75.743	1568.85	74.5095	1568.85	74.6492	1568.85	73.1386	1568.85	73.4378	1568.85	71.5631	1568.85	70.6346	1568.85	69.1859	1568.85	70.3055	1568.85	68.5599	1568.85	71.8887	1568.85	70.5068	1568.85	71.5777	1568.85	71.0814	1568.85	68.5572	1568.85	67.9718	1568.85	64.6145	1568.85	64.0386	1568.85	70.5957	1568.85	70.253	1568.85	72.6
1624.51	85.2365	1624.51	85.0682	1624.51	84.9418	1624.51	84.6188	1624.51	84.4366	1624.51	84.0771	1624.51	83.8829	1624.51	83.2251	1624.51	82.9035	1624.51	81.8721	1624.51	81.3559	1624.51	80.2737	1624.51	79.6544	1624.51	78.6085	1624.51	77.8983	1624.51	76.8201	1624.51	76.0564	1624.51	75.2742	1624.51	74.6493	1624.51	73.5464	1624.51	73.2933	1624.51	71.1292	1624.51	71.6189	1624.51	71.0937	1624.51	70.9054	1624.51	72.3639	1624.51	71.6168	1624.51	71.4754	1624.51	70.8352	1624.51	66.2394	1624.51	65.3929	1624.51	62.8454	1624.51	62.4547	1624.51	70.7608	1624.51	70.3409	1624.51	72.6416
1681.64	85.8812	1681.64	85.954	1681.64	85.4994	1681.64	85.5832	1681.64	85.0607	1681.64	84.7907	1681.64	84.4212	1681.64	83.5769	1681.64	83.306	1681.64	81.9109	1681.64	81.9057	1681.64	79.8182	1681.64	80.4162	1681.64	77.734	1681.64	78.5815	1681.64	75.6925	1681.64	76.411	1681.64	72.7096	1681.64	74.34	1681.64	69.7336	1681.64	72.3737	1681.64	68.4119	1681.64	71.5527	1681.64	69.1742	1681.64	72.9309	1681.64	72.4354	1681.64	74.2843	1681.64	72.864	1681.64	73.5093	1681.64	68.0925	1681.64	68.2122	1681.64	56.7034	1681.64	58.7527	1681.64	68.3258	1681.64	69.1816	1681.64	71.0026
1741.7	85.4653	1741.7	85.539	1741.7	85.2971	1741.7	85.1905	1741.7	84.9582	1741.7	84.3159	1741.7	84.0508	1741.7	83.1655	1741.7	82.6396	1741.7	81.8177	1741.7	81.367	1741.7	80.2325	1741.7	80.4879	1741.7	78.8432	1741.7	79.4419	1741.7	77.5171	1741.7	77.6224	1741.7	75.227	1741.7	75.1823	1741.7	72.5515	1741.7	73.3218	1741.7	71.0512	1741.7	72.1524	1741.7	71.22	1741.7	71.9731	1741.7	73.3798	1741.7	73.745	1741.7	73.6073	1741.7	74.4694	1741.7	70.5263	1741.7	71.3119	1741.7	62.5285	1741.7	61.9273	1741.7	66.9167	1741.7	69.7353	1741.7	71.2949
1803.22	85.0949	1803.22	84.9929	1803.22	85.0601	1803.22	84.6411	1803.22	84.6252	1803.22	83.8137	1803.22	83.6271	1803.22	82.6264	1803.22	82.263	1803.22	81.336	1803.22	80.913	1803.22	80.1284	1803.22	79.9877	1803.22	79.2672	1803.22	79.4602	1803.22	78.6649	1803.22	78.5708	1803.22	77.5475	1803.22	76.9012	1803.22	75.601	1803.22	74.6046	1803.22	73.748	1803.22	71.9368	1803.22	73.2918	1803.22	71.4839	1803.22	74.509	1803.22	73.0131	1803.22	74.7276	1803.22	73.4684	1803.22	71.9718	1803.22	71.0734	1803.22	65.0107	1803.22	63.1866	1803.22	67.4028	1803.22	67.9742	1803.22	70.3783
1866.21	85.5282	1866.21	85.0948	1866.21	85.5187	1866.21	84.4358	1866.21	84.8584	1866.21	83.6489	1866.21	83.8481	1866.21	82.7145	1866.21	82.9453	1866.21	81.4954	1866.21	81.9215	1866.21	80.2562	1866.21	80.6172	1866.21	79.4875	1866.21	79.5796	1866.21	78.9529	1866.21	78.6677	1866.21	77.4779	1866.21	76.9662	1866.21	74.5818	1866.21	74.209	1866.21	72.2761	1866.21	71.3714	1866.21	72.0934	1866.21	69.9196	1866.21	73.6958	1866.21	71.1948	1866.21	74.3923	1866.21	72.9582	1866.21	72.7127	1866.21	72.0337	1866.21	68.2369	1866.21	66.4299	1866.21	66.9215	1866.21	67.1658	1866.21	69.7189
1932.13	86.1892	1932.13	85.9203	1932.13	85.9812	1932.13	85.3712	1932.13	85.1882	1932.13	84.7339	1932.13	84.0641	1932.13	83.7643	1932.13	83.1898	1932.13	82.3529	1932.13	82.3615	1932.13	81.0154	1932.13	80.9942	1932.13	79.8178	1932.13	79.4484	1932.13	78.3678	1932.13	77.8664	1932.13	76.2961	1932.13	75.6564	1932.13	73.896	1932.13	73.6521	1932.13	71.4919	1932.13	72.17	1932.13	67.9477	1932.13	69.933	1932.13	70.8628	1932.13	71.3165	1932.13	73.3097	1932.13	73.3821	1932.13	72.6771	1932.13	72.1922	1932.13	69.6161	1932.13	66.8806	1932.13	69.5917	1932.13	68.0768	1932.13	71.2803
1999.51	86.2437	1999.51	86.0417	1999.51	85.9907	1999.51	85.532	1999.51	85.5211	1999.51	85.1066	1999.51	84.8815	1999.51	84.4612	1999.51	84.0171	1999.51	83.2345	1999.51	82.717	1999.51	81.6394	1999.51	80.9426	1999.51	80.2689	1999.51	79.5019	1999.51	78.9602	1999.51	78.1024	1999.51	76.9284	1999.51	75.3548	1999.51	75.3046	1999.51	73.5602	1999.51	74.8614	1999.51	73.8284	1999.51	73.0992	1999.51	71.6301	1999.51	69.6028	1999.51	70.0383	1999.51	70.1542	1999.51	72.7403	1999.51	71.7987	1999.51	72.6629	1999.51	70.4567	1999.51	69.3714	1999.51	71.0018	1999.51	70.9274	1999.51	72.7296
2069.82	86.0869	2069.82	85.6801	2069.82	85.7428	2069.82	85.4111	2069.82	85.0992	2069.82	85.4438	2069.82	84.7573	2069.82	84.8891	2069.82	84.2931	2069.82	83.7508	2069.82	83.0536	2069.82	81.7852	2069.82	80.7649	2069.82	79.0527	2069.82	78.3352	2069.82	77.4385	2069.82	77.4218	2069.82	76.9679	2069.82	76.3574	2069.82	76.2207	2069.82	74.0727	2069.82	75.031	2069.82	72.3347	2069.82	73.8987	2069.82	73.2237	2069.82	73.0861	2069.82	73.3917	2069.82	72.2252	2069.82	72.0198	2069.82	67.5874	2069.82	69.9805	2069.82	69.0422	2069.82	66.8181	2069.82	73.3198	2069.82	72.8603	2069.82	75.0414
2143.07	86.6391	2143.07	86.313	2143.07	86.5154	2143.07	86.0852	2143.07	86.0083	2143.07	85.6542	2143.07	85.6237	2143.07	84.6376	2143.07	85.0358	2143.07	83.4137	2143.07	83.7772	2143.07	81.8357	2143.07	82.0749	2143.07	79.8549	2143.07	80.2909	2143.07	78.4414	2143.07	78.8357	2143.07	77.6572	2143.07	78.1566	2143.07	76.1248	2143.07	76.6293	2143.07	74.2164	2143.07	74.2403	2143.07	72.5299	2143.07	72.2225	2143.07	72.678	2143.07	72.7198	2143.07	75.3326	2143.07	74.0315	2143.07	73.7168	2143.07	72.1352	2143.07	62.4145	2143.07	64.9473	2143.07	65.7058	2143.07	68.2056	2143.07	71.4066
2219.24	86.6633	2219.24	86.545	2219.24	86.4954	2219.24	86.0992	2219.24	86.0237	2219.24	85.6264	2219.24	85.4745	2219.24	85.237	2219.24	84.9103	2219.24	84.5878	2219.24	83.8293	2219.24	83.4115	2219.24	82.3788	2219.24	81.5649	2219.24	81.0778	2219.24	79.9394	2219.24	80.3629	2219.24	78.7105	2219.24	79.3321	2219.24	75.6661	2219.24	76.696	2219.24	73.1113	2219.24	75.274	2219.24	73.5733	2219.24	74.4937	2219.24	72.2264	2219.24	73.3617	2219.24	74.1487	2219.24	74.5599	2219.24	75.5606	2219.24	74.4658	2219.24	71.3718	2219.24	70.9063	2219.24	66.3611	2219.24	66.6613	2219.24	69.5756
2296.88	85.8643	2296.88	85.9232	2296.88	85.8543	2296.88	85.9767	2296.88	85.6515	2296.88	85.6434	2296.88	85.0782	2296.88	85.1031	2296.88	84.3735	2296.88	84.3864	2296.88	83.5908	2296.88	83.2658	2296.88	82.2463	2296.88	81.6763	2296.88	80.3881	2296.88	79.6414	2296.88	78.53	2296.88	78.4453	2296.88	77.339	2296.88	77.0389	2296.88	75.5519	2296.88	74.6416	2296.88	73.256	2296.88	74.2623	2296.88	73.2901	2296.88	72.4252	2296.88	71.4677	2296.88	73.6472	2296.88	72.7461	2296.88	74.5215	2296.88	73.7441	2296.88	70.7738	2296.88	70.1128	2296.88	66.6085	2296.88	65.1388	2296.88	68.6697
2378.91	85.7315	2378.91	85.8894	2378.91	85.7973	2378.91	85.9498	2378.91	85.8302	2378.91	85.9043	2378.91	85.4006	2378.91	85.359	2378.91	84.9081	2378.91	84.4284	2378.91	84.4303	2378.91	83.4304	2378.91	83.3487	2378.91	81.5196	2378.91	81.217	2378.91	79.3067	2378.91	78.8932	2378.91	78.2988	2378.91	78.0725	2378.91	77.1072	2378.91	76.9216	2378.91	74.8833	2378.91	74.7719	2378.91	73.9311	2378.91	74.2266	2378.91	72.7937	2378.91	72.738	2378.91	72.7613	2378.91	72.1062	2378.91	74.2655	2378.91	73.834	2378.91	71.2331	2378.91	70.9205	2378.91	69.3268	2378.91	68.9212	2378.91	70.3224
2462.4	85.9737	2462.4	86.1225	2462.4	86.0384	2462.4	86.4786	2462.4	86.2038	2462.4	86.4578	2462.4	86.1766	2462.4	85.9975	2462.4	85.7546	2462.4	85.355	2462.4	84.9701	2462.4	84.2578	2462.4	83.7714	2462.4	82.5288	2462.4	81.9442	2462.4	80.3797	2462.4	79.3155	2462.4	78.6346	2462.4	77.9892	2462.4	77.4328	2462.4	77.1134	2462.4	75.4957	2462.4	74.7532	2462.4	75.2858	2462.4	74.6494	2462.4	74.3958	2462.4	72.9057	2462.4	71.9099	2462.4	71.8271	2462.4	74.1713	2462.4	74.2174	2462.4	72.3675	2462.4	71.7978	2462.4	68.2689	2462.4	67.3346	2462.4	70.6481
2548.83	85.295	2548.83	85.6108	2548.83	85.3907	2548.83	85.9802	2548.83	85.6595	2548.83	86.0772	2548.83	85.6438	2548.83	85.7537	2548.83	85.1868	2548.83	84.7552	2548.83	84.0949	2548.83	83.6405	2548.83	83.0123	2548.83	82.3187	2548.83	81.8698	2548.83	80.2605	2548.83	79.2678	2548.83	78.859	2548.83	77.5134	2548.83	77.8732	2548.83	76.6218	2548.83	75.1423	2548.83	73.9007	2548.83	74.1757	2548.83	73.8791	2548.83	74.4128	2548.83	74.111	2548.83	73.4222	2548.83	70.8426	2548.83	74.1768	2548.83	73.3631	2548.83	72.1228	2548.83	70.7876	2548.83	69.0585	2548.83	67.6588	2548.83	71.2017
2639.65	85.7201	2639.65	85.835	2639.65	85.7714	2639.65	86.089	2639.65	86.1178	2639.65	86.2359	2639.65	86.3015	2639.65	85.7701	2639.65	86.0156	2639.65	84.6173	2639.65	84.8528	2639.65	83.2166	2639.65	83.277	2639.65	81.9765	2639.65	81.9222	2639.65	79.9232	2639.65	79.7158	2639.65	77.1627	2639.65	77.4441	2639.65	76.4756	2639.65	76.8434	2639.65	75.232	2639.65	74.5531	2639.65	74.696	2639.65	73.5524	2639.65	74.8498	2639.65	74.2254	2639.65	72.0534	2639.65	72.9216	2639.65	73.2974	2639.65	73.2889	2639.65	72.9687	2639.65	72.7065	2639.65	66.8845	2639.65	67.7446	2639.65	69.3866
2731.93	86.058	2731.93	86.2298	2731.93	86.2687	2731.93	86.6065	2731.93	86.6443	2731.93	86.5815	2731.93	86.8444	2731.93	86.3192	2731.93	86.3963	2731.93	85.2474	2731.93	85.3315	2731.93	83.5536	2731.93	83.6615	2731.93	82.1393	2731.93	82.2016	2731.93	80.3	2731.93	80.2815	2731.93	77.7587	2731.93	77.8868	2731.93	77.015	2731.93	77.0726	2731.93	74.5396	2731.93	74.8647	2731.93	72.0731	2731.93	73.865	2731.93	73.5872	2731.93	75.0886	2731.93	72.8252	2731.93	72.612	2731.93	74.4851	2731.93	73.4026	2731.93	72.1617	2731.93	72.2753	2731.93	66.3768	2731.93	67.3615	2731.93	69.1708
2828.61	85.7073	2828.61	85.9537	2828.61	86.0859	2828.61	86.4354	2828.61	86.6279	2828.61	86.6207	2828.61	86.7433	2828.61	86.3259	2828.61	86.402	2828.61	85.2556	2828.61	85.4786	2828.61	83.8017	2828.61	83.8444	2828.61	82.1999	2828.61	82.0275	2828.61	80.3179	2828.61	80.2442	2828.61	78.0532	2828.61	77.8646	2828.61	76.3094	2828.61	76.003	2828.61	74.5252	2828.61	74.7061	2828.61	73.379	2828.61	72.766	2828.61	75.4135	2828.61	74.4607	2828.61	73.6495	2828.61	72.9803	2828.61	73.2132	2828.61	74.0473	2828.61	73.5729	2828.61	73.1332	2828.61	68.8138	2828.61	67.3894	2828.61	66.7513
2928.22	85.6724	2928.22	85.8601	2928.22	86.0455	2928.22	86.3067	2928.22	86.4767	2928.22	86.4681	2928.22	86.5232	2928.22	85.8306	2928.22	86.1351	2928.22	84.8719	2928.22	85.1121	2928.22	83.4079	2928.22	83.4115	2928.22	81.5645	2928.22	81.2283	2928.22	79.8775	2928.22	79.6778	2928.22	77.3445	2928.22	77.5227	2928.22	75.7472	2928.22	75.5645	2928.22	74.7967	2928.22	74.5718	2928.22	72.9735	2928.22	72.0897	2928.22	74.6817	2928.22	73.7116	2928.22	72.6549	2928.22	72.4047	2928.22	71.3981	2928.22	72.3627	2928.22	71.9678	2928.22	72.6578	2928.22	69.1709	2928.22	68.1578	2928.22	69.9185
3030.76	86.3879	3030.76	86.6303	3030.76	86.6945	3030.76	86.7536	3030.76	86.9131	3030.76	86.5592	3030.76	86.9577	3030.76	86.197	3030.76	86.4542	3030.76	84.9867	3030.76	85.5363	3030.76	83.0602	3030.76	83.9198	3030.76	80.9159	3030.76	81.6464	3030.76	78.8759	3030.76	79.5119	3030.76	76.2333	3030.76	77.0473	3030.76	74.5894	3030.76	75.6381	3030.76	73.9954	3030.76	74.3867	3030.76	70.1932	3030.76	72.6884	3030.76	73.0889	3030.76	74.1276	3030.76	72.4451	3030.76	73.3498	3030.76	73.2096	3030.76	71.0968	3030.76	73.2979	3030.76	72.3821	3030.76	65.4925	3030.76	68.6955	3030.76	68.7853
3137.7	85.774	3137.7	86.1829	3137.7	86.09	3137.7	86.5796	3137.7	86.531	3137.7	86.8546	3137.7	86.6699	3137.7	86.5916	3137.7	86.2386	3137.7	85.6152	3137.7	85.1502	3137.7	84.2132	3137.7	83.651	3137.7	82.4983	3137.7	81.8507	3137.7	80.2701	3137.7	79.7083	3137.7	78.2183	3137.7	77.6219	3137.7	76.2274	3137.7	75.259	3137.7	74.9593	3137.7	74.0426	3137.7	73.0845	3137.7	71.566	3137.7	72.3744	3137.7	73.4817	3137.7	74.5937	3137.7	73.7066	3137.7	73.8064	3137.7	73.7965	3137.7	73.884	3137.7	73.4295	3137.7	70.3603	3137.7	67.0071	3137.7	68.9285
3249.02	85.3174	3249.02	85.7192	3249.02	85.68	3249.02	85.921	3249.02	86.1407	3249.02	86.1285	3249.02	86.3141	3249.02	85.5793	3249.02	85.8973	3249.02	84.5199	3249.02	84.8185	3249.02	83.1836	3249.02	83.4641	3249.02	81.3583	3249.02	81.3954	3249.02	79.3143	3249.02	79.3231	3249.02	77.471	3249.02	77.7841	3249.02	74.8194	3249.02	74.8871	3249.02	74.0886	3249.02	74.2212	3249.02	72.573	3249.02	71.7747	3249.02	74.3244	3249.02	72.9231	3249.02	73.8313	3249.02	73.8362	3249.02	69.6376	3249.02	72.425	3249.02	73.4027	3249.02	73.7313	3249.02	65.6055	3249.02	70.2602	3249.02	62.1175
3363.28	85.5312	3363.28	85.9967	3363.28	85.8645	3363.28	86.5574	3363.28	86.3815	3363.28	87.0034	3363.28	86.4922	3363.28	86.5443	3363.28	85.9714	3363.28	85.7259	3363.28	85.0604	3363.28	84.6354	3363.28	83.6046	3363.28	82.6288	3363.28	81.4194	3363.28	80.4218	3363.28	79.6386	3363.28	78.7128	3363.28	78.1236	3363.28	75.7884	3363.28	75.4291	3363.28	73.5863	3363.28	73.8606	3363.28	72.108	3363.28	71.9299	3363.28	71.9061	3363.28	71.8292	3363.28	73.8421	3363.28	74.0501	3363.28	72.1586	3363.28	70.8956	3363.28	72.6929	3363.28	72.4934	3363.28	69.9795	3363.28	67.048	3363.28	70.1626
3481.93	85.253	3481.93	85.5989	3481.93	85.5835	3481.93	85.9431	3481.93	86.2109	3481.93	86.3458	3481.93	86.6166	3481.93	86.2279	3481.93	86.2136	3481.93	85.4093	3481.93	85.5347	3481.93	84.1953	3481.93	84.3151	3481.93	82.4472	3481.93	82.2772	3481.93	80.5187	3481.93	80.1442	3481.93	78.704	3481.93	78.3622	3481.93	76.8479	3481.93	76.4561	3481.93	75.5935	3481.93	74.0586	3481.93	73.1309	3481.93	72.1408	3481.93	72.508	3481.93	71.5648	3481.93	75.5901	3481.93	73.6345	3481.93	74.7875	3481.93	72.7537	3481.93	74.3307	3481.93	74.484	3481.93	68.8925	3481.93	67.0084	3481.93	70.3137
3604.98	85.9295	3604.98	86.1228	3604.98	85.9649	3604.98	86.4031	3604.98	86.3736	3604.98	86.6541	3604.98	86.5979	3604.98	86.8078	3604.98	86.4983	3604.98	86.2687	3604.98	85.6257	3604.98	84.8765	3604.98	84.4273	3604.98	83.2711	3604.98	82.6696	3604.98	80.4709	3604.98	80.2318	3604.98	78.422	3604.98	78.6239	3604.98	76.6026	3604.98	76.3288	3604.98	73.5801	3604.98	73.6517	3604.98	73.4457	3604.98	72.3106	3604.98	70.4338	3604.98	71.8161	3604.98	74.1313	3604.98	74.2227	3604.98	73.1764	3604.98	72.9238	3604.98	74.4887	3604.98	74.74	3604.98	67.6277	3604.98	69.6485	3604.98	67.1289
3732.42	85.9236	3732.42	85.9156	3732.42	86.0368	3732.42	86.0458	3732.42	86.3572	3732.42	86.3821	3732.42	86.5221	3732.42	86.2992	3732.42	86.6166	3732.42	86.0035	3732.42	86.1561	3732.42	84.7513	3732.42	84.8543	3732.42	83.375	3732.42	83.0788	3732.42	81.5354	3732.42	80.8151	3732.42	79.1635	3732.42	78.5392	3732.42	77.8056	3732.42	76.3112	3732.42	75.3664	3732.42	74.4793	3732.42	74.1276	3732.42	73.6942	3732.42	72.8631	3732.42	71.1018	3732.42	73.977	3732.42	74	3732.42	72.0005	3732.42	73.3538	3732.42	74.3472	3732.42	73.5438	3732.42	68.7841	3732.42	69.0105	3732.42	66.5883
3864.26	86.7334	3864.26	86.4784	3864.26	86.4956	3864.26	86.4109	3864.26	86.4616	3864.26	86.5599	3864.26	86.5302	3864.26	86.5741	3864.26	86.7417	3864.26	86.3154	3864.26	86.2649	3864.26	85.0578	3864.26	85.0438	3864.26	83.3878	3864.26	83.1305	3864.26	80.8821	3864.26	80.9167	3864.26	78.5005	3864.26	78.6695	3864.26	75.7793	3864.26	76.1972	3864.26	73.8156	3864.26	75.262	3864.26	71.9043	3864.26	73.3596	3864.26	71.8772	3864.26	71.8759	3864.26	73.7061	3864.26	74.2086	3864.26	72.516	3864.26	73.396	3864.26	73.179	3864.26	73.9708	3864.26	70.7682	3864.26	66.7565	3864.26	67.5423
4000.49	87.053	4000.49	86.4904	4000.49	86.6471	4000.49	86.0626	4000.49	86.358	4000.49	86.0066	4000.49	86.2136	4000.49	86.2311	4000.49	86.3584	4000.49	85.6167	4000.49	85.9174	4000.49	84.5254	4000.49	84.4527	4000.49	82.7431	4000.49	82.7855	4000.49	80.1933	4000.49	80.6843	4000.49	78.5595	4000.49	78.6243	4000.49	75.7455	4000.49	76.0487	4000.49	73.4948	4000.49	73.7867	4000.49	72.5061	4000.49	73.0388	4000.49	69.98	4000.49	71.4096	4000.49	74.9743	4000.49	73.602	4000.49	73.1479	4000.49	72.3021	4000.49	73.2619	4000.49	73.1145	4000.49	66.6112	4000.49	69.4529	4000.49	66.5183
4141.11	88.316	4141.11	87.7729	4141.11	87.7345	4141.11	87.1185	4141.11	87.3025	4141.11	86.7179	4141.11	87.0784	4141.11	86.6844	4141.11	87.0228	4141.11	86.1798	4141.11	86.1875	4141.11	84.7199	4141.11	84.9387	4141.11	83.2112	4141.11	82.8524	4141.11	80.4773	4141.11	80.0354	4141.11	77.4217	4141.11	77.7569	4141.11	75.7121	4141.11	75.9145	4141.11	73.6955	4141.11	74.1231	4141.11	73.0983	4141.11	71.4015	4141.11	70.1699	4141.11	70.016	4141.11	73.8013	4141.11	73.1468	4141.11	74.0734	4141.11	73.5938	4141.11	72.8492	4141.11	73.2967	4141.11	69.5899	4141.11	68.7551	4141.11	64.2876
4287.6	88.3537	4287.6	87.7451	4287.6	87.9565	4287.6	87.0162	4287.6	87.4121	4287.6	86.5583	4287.6	87.2014	4287.6	86.2548	4287.6	87.0503	4287.6	86.0566	4287.6	86.2087	4287.6	84.7489	4287.6	84.9464	4287.6	82.6709	4287.6	83.1507	4287.6	80.4128	4287.6	80.795	4287.6	78.109	4287.6	77.4319	4287.6	76.2819	4287.6	75.5728	4287.6	74.2279	4287.6	73.1444	4287.6	71.6987	4287.6	72.7827	4287.6	70.328	4287.6	71.9948	4287.6	70.7411	4287.6	72.8241	4287.6	74.1904	4287.6	73.4638	4287.6	73.5958	4287.6	72.2185	4287.6	70.473	4287.6	69.1359	4287.6	67.6789
4438.48	88.0254	4438.48	87.2915	4438.48	87.4042	4438.48	86.5088	4438.48	86.8252	4438.48	86.4585	4438.48	86.7087	4438.48	86.9514	4438.48	86.961	4438.48	86.3076	4438.48	86.4895	4438.48	84.9077	4438.48	85.2908	4438.48	82.89	4438.48	82.6782	4438.48	80.2855	4438.48	80.731	4438.48	78.8428	4438.48	79.1679	4438.48	75.3956	4438.48	75.4587	4438.48	72.8358	4438.48	74.3567	4438.48	71.3028	4438.48	72.347	4438.48	69.1535	4438.48	73.5862	4438.48	73.0967	4438.48	74.573	4438.48	72.6261	4438.48	74.5592	4438.48	70.9275	4438.48	72.6512	4438.48	68.998	4438.48	70.6284	4438.48	61.3219
4595.21	86.5969	4595.21	86.1172	4595.21	86.1613	4595.21	85.5401	4595.21	85.7402	4595.21	85.3557	4595.21	86.0015	4595.21	86.0032	4595.21	86.2345	4595.21	86.0228	4595.21	86.2232	4595.21	85.0383	4595.21	85.1482	4595.21	83.494	4595.21	83.5651	4595.21	81.9408	4595.21	80.7036	4595.21	78.7339	4595.21	77.1026	4595.21	76.1609	4595.21	75.4259	4595.21	74.1764	4595.21	73.2766	4595.21	73.3816	4595.21	71.9764	4595.21	72.3233	4595.21	71.0246	4595.21	73.039	4595.21	73.0418	4595.21	74.9371	4595.21	73.8215	4595.21	72.7254	4595.21	71.9651	4595.21	72.9794	4595.21	66.9479	4595.21	61.591
4756.35	86.7621	4756.35	86.1431	4756.35	85.8974	4756.35	85.7583	4756.35	85.4906	4756.35	86.2225	4756.35	85.6675	4756.35	86.182	4756.35	86.1722	4756.35	86.4448	4756.35	86.0283	4756.35	85.4217	4756.35	84.8998	4756.35	83.2399	4756.35	83.0031	4756.35	80.2439	4756.35	80.8971	4756.35	78.1267	4756.35	78.7363	4756.35	75.3501	4756.35	76.4961	4756.35	73.2147	4756.35	74.4034	4756.35	71.9892	4756.35	71.0114	4756.35	70.0243	4756.35	68.8979	4756.35	71.2422	4756.35	72.7201	4756.35	74.7694	4756.35	73.7518	4756.35	73.0411	4756.35	72.1004	4756.35	70.7492	4756.35	70.6968	4756.35	60.9717
4924.8	86.8525	4924.8	86.5185	4924.8	86.5697	4924.8	86.0458	4924.8	85.8777	4924.8	85.9177	4924.8	86.1261	4924.8	86.3811	4924.8	86.318	4924.8	86.386	4924.8	86.3564	4924.8	85.2184	4924.8	85.1562	4924.8	83.1298	4924.8	83.5036	4924.8	81.6625	4924.8	81.6184	4924.8	78.8389	4924.8	78.5941	4924.8	76.0784	4924.8	75.3004	4924.8	73.9827	4924.8	73.6202	4924.8	72.8524	4924.8	72.0389	4924.8	71.8663	4924.8	70.195	4924.8	72.4829	4924.8	70.766	4924.8	72.849	4924.8	73.3877	4924.8	72.0488	4924.8	71.864	4924.8	68.8965	4924.8	70.1286	4924.8	55.9181
5097.66	87.1474	5097.66	86.9191	5097.66	86.8268	5097.66	86.7062	5097.66	86.5036	5097.66	86.7396	5097.66	86.4275	5097.66	86.5071	5097.66	86.5894	5097.66	86.6676	5097.66	85.7869	5097.66	85.7037	5097.66	85.0161	5097.66	83.9974	5097.66	83.193	5097.66	81.8036	5097.66	80.8099	5097.66	79.5046	5097.66	77.6033	5097.66	76.1349	5097.66	75.751	5097.66	73.6855	5097.66	72.1649	5097.66	71.5091	5097.66	69.8803	5097.66	70.7674	5097.66	69.5486	5097.66	69.9633	5097.66	69.8729	5097.66	73.6244	5097.66	72.0727	5097.66	72.5626	5097.66	71.673	5097.66	72.1214	5097.66	69.9401	5097.66	54.7257
5277.83	87.2956	5277.83	87.1163	5277.83	87.078	5277.83	86.8884	5277.83	86.636	5277.83	86.372	5277.83	86.4628	5277.83	86.537	5277.83	85.9549	5277.83	86.1953	5277.83	85.9445	5277.83	85.511	5277.83	84.848	5277.83	83.4589	5277.83	83.2841	5277.83	81.6407	5277.83	81.3094	5277.83	78.9576	5277.83	78.2775	5277.83	75.8773	5277.83	75.1867	5277.83	73.8027	5277.83	73.6375	5277.83	71.4804	5277.83	70.7775	5277.83	69.4732	5277.83	70.6258	5277.83	71.209	5277.83	70.2394	5277.83	73.1033	5277.83	73.7135	5277.83	70.9922	5277.83	71.2564	5277.83	68.4501	5277.83	70.7987	5277.83	57.3066
5463.87	87.154	5463.87	87.392	5463.87	87.1721	5463.87	87.1896	5463.87	86.9852	5463.87	86.4842	5463.87	86.1217	5463.87	85.9579	5463.87	85.8151	5463.87	86.1032	5463.87	85.4366	5463.87	85.4923	5463.87	84.8881	5463.87	83.6962	5463.87	83.1657	5463.87	81.6552	5463.87	80.4536	5463.87	79.2292	5463.87	77.569	5463.87	75.8906	5463.87	75.1209	5463.87	73.9795	5463.87	72.0085	5463.87	71.6882	5463.87	70.1718	5463.87	70.3221	5463.87	69.4011	5463.87	70.3317	5463.87	69.4176	5463.87	72.4191	5463.87	72.5419	5463.87	70.9987	5463.87	71.096	5463.87	69.5986	5463.87	68.6422	5463.87	51.37
5657.23	86.5947	5657.23	86.8508	5657.23	86.9016	5657.23	86.8002	5657.23	86.425	5657.23	85.5958	5657.23	85.6968	5657.23	85.3121	5657.23	85.0929	5657.23	85.712	5657.23	85.426	5657.23	85.3494	5657.23	84.7663	5657.23	83.6346	5657.23	83.0582	5657.23	81.9122	5657.23	80.7469	5657.23	79.0796	5657.23	77.9504	5657.23	75.5664	5657.23	75.4223	5657.23	73.0462	5657.23	72.8567	5657.23	71.9534	5657.23	70.6193	5657.23	70.2026	5657.23	69.562	5657.23	69.9471	5657.23	70.7828	5657.23	72.0679	5657.23	72.6156	5657.23	71.4218	5657.23	71.2351	5657.23	69.4167	5657.23	68.3464	5657.23	57.9709
5856.45	86.9019	5856.45	87.1661	5856.45	87.0003	5856.45	87.0804	5856.45	86.5042	5856.45	85.8285	5856.45	85.4968	5856.45	85.4324	5856.45	84.7487	5856.45	85.8746	5856.45	85.2916	5856.45	85.6309	5856.45	84.8727	5856.45	83.6286	5856.45	83.1772	5856.45	81.485	5856.45	80.3731	5856.45	78.3835	5856.45	77.5836	5856.45	74.7957	5856.45	74.7603	5856.45	73.0703	5856.45	72.341	5856.45	71.2281	5856.45	70.3727	5856.45	69.4199	5856.45	68.225	5856.45	70.1989	5856.45	67.5944	5856.45	72.0644	5856.45	72.2627	5856.45	70.3805	5856.45	69.4633	5856.45	67.5704	5856.45	68.3224	5856.45	58.1202
6062.99	86.9675	6062.99	87.2216	6062.99	87.1387	6062.99	86.9843	6062.99	86.4967	6062.99	85.5971	6062.99	85.2342	6062.99	84.8434	6062.99	84.6102	6062.99	85.509	6062.99	85.0519	6062.99	84.8808	6062.99	84.4206	6062.99	83.1397	6062.99	82.4865	6062.99	80.4028	6062.99	79.7228	6062.99	78.2889	6062.99	77.5345	6062.99	74.1002	6062.99	74.3793	6062.99	71.1349	6062.99	72.0791	6062.99	70.8102	6062.99	70.2184	6062.99	69.0945	6062.99	66.59	6062.99	68.8477	6062.99	67.3488	6062.99	72.3432	6062.99	71.2906	6062.99	71.0011	6062.99	70.0382	6062.99	67.7371	6062.99	67.7847	6062.99	61.2215
6276.86	87.3651	6276.86	87.3062	6276.86	87.2128	6276.86	86.8289	6276.86	86.4644	6276.86	85.5087	6276.86	85.5405	6276.86	84.9183	6276.86	84.7955	6276.86	85.3905	6276.86	85.1582	6276.86	84.6747	6276.86	84.5543	6276.86	82.7114	6276.86	82.7397	6276.86	80.464	6276.86	79.7111	6276.86	77.318	6276.86	76.6491	6276.86	73.869	6276.86	73.9526	6276.86	72.722	6276.86	70.6882	6276.86	70.3258	6276.86	70.312	6276.86	68.3222	6276.86	66.1322	6276.86	68.335	6276.86	66.7813	6276.86	72.0086	6276.86	71.521	6276.86	71.2617	6276.86	69.2748	6276.86	68.4409	6276.86	68.2167	6276.86	60.5976
6498.05	87.5837	6498.05	87.3004	6498.05	87.2756	6498.05	86.892	6498.05	86.4955	6498.05	85.9973	6498.05	85.7315	6498.05	85.0784	6498.05	84.8809	6498.05	85.2179	6498.05	84.9492	6498.05	84.4292	6498.05	84.1128	6498.05	82.3106	6498.05	82.1622	6498.05	80.3406	6498.05	79.2972	6498.05	77.7651	6498.05	76.2861	6498.05	73.449	6498.05	73.7879	6498.05	70.7349	6498.05	70.9107	6498.05	68.558	6498.05	68.366	6498.05	67.6427	6498.05	66.8942	6498.05	66.4852	6498.05	67.2938	6498.05	71.562	6498.05	70.6082	6498.05	69.4908	6498.05	69.023	6498.05	67.8579	6498.05	66.2904	6498.05	57.6556
6726.56	87.6172	6726.56	87.2388	6726.56	87.0399	6726.56	86.7881	6726.56	86.3973	6726.56	86.1301	6726.56	85.7749	6726.56	85.0882	6726.56	84.6679	6726.56	84.8452	6726.56	84.5038	6726.56	84.0985	6726.56	83.8367	6726.56	82.1371	6726.56	81.9078	6726.56	80.1589	6726.56	78.8812	6726.56	76.4936	6726.56	75.7205	6726.56	73.4769	6726.56	73.5844	6726.56	71.4742	6726.56	69.882	6726.56	67.7253	6726.56	68.1264	6726.56	67.687	6726.56	66.4193	6726.56	67.6126	6726.56	65.4102	6726.56	70.3099	6726.56	70.9505	6726.56	69.143	6726.56	68.4889	6726.56	66.0256	6726.56	66.0902	6726.56	60.7815
6963.87	87.9259	6963.87	87.463	6963.87	87.2401	6963.87	87.0271	6963.87	86.679	6963.87	86.392	6963.87	86.1519	6963.87	85.0661	6963.87	84.5909	6963.87	84.3763	6963.87	84.033	6963.87	83.7466	6963.87	83.3987	6963.87	82.0967	6963.87	81.684	6963.87	79.9787	6963.87	78.6918	6963.87	76.7353	6963.87	76.9533	6963.87	73.3045	6963.87	73.5595	6963.87	69.7852	6963.87	70.0886	6963.87	67.7194	6963.87	68.2636	6963.87	66.8318	6963.87	66.8319	6963.87	66.5664	6963.87	67.2338	6963.87	69.6415	6963.87	69.59	6963.87	68.4119	6963.87	68.9182	6963.87	65.1633	6963.87	63.4066	6963.87	60.2436
7209.96	88.0721	7209.96	87.4571	7209.96	87.3859	7209.96	87.2582	7209.96	86.882	7209.96	86.425	7209.96	86.1549	7209.96	84.67	7209.96	84.3631	7209.96	83.8828	7209.96	83.9422	7209.96	83.2748	7209.96	83.2951	7209.96	81.833	7209.96	81.5157	7209.96	79.209	7209.96	79.1951	7209.96	76.1955	7209.96	76.3508	7209.96	73.0759	7209.96	72.9754	7209.96	69.8122	7209.96	70.2598	7209.96	67.3424	7209.96	67.7233	7209.96	66.487	7209.96	65.1316	7209.96	65.6342	7209.96	66.391	7209.96	68.7946	7209.96	70.1022	7209.96	69.1175	7209.96	68.4968	7209.96	64.3922	7209.96	64.7792	7209.96	59.6497
7464.84	88.0249	7464.84	87.4262	7464.84	87.1637	7464.84	87.2382	7464.84	86.9085	7464.84	86.4202	7464.84	86.2019	7464.84	84.1858	7464.84	84.2246	7464.84	83.5408	7464.84	83.3902	7464.84	82.7816	7464.84	83.3265	7464.84	81.187	7464.84	81.5891	7464.84	78.8488	7464.84	78.572	7464.84	75.6306	7464.84	75.8451	7464.84	72.8975	7464.84	72.9861	7464.84	69.6973	7464.84	70.2456	7464.84	66.3909	7464.84	67.7276	7464.84	65.4817	7464.84	65.1826	7464.84	65.4942	7464.84	66.3944	7464.84	68.9528	7464.84	68.6449	7464.84	68.1514	7464.84	67.9922	7464.84	63.7821	7464.84	63.6643	7464.84	59.9081
7727.05	87.8618	7727.05	87.3446	7727.05	87.1681	7727.05	87.2413	7727.05	87.0744	7727.05	86.4615	7727.05	86.1495	7727.05	84.0815	7727.05	83.9851	7727.05	83.3247	7727.05	83.1949	7727.05	82.6247	7727.05	83.1175	7727.05	80.9766	7727.05	81.4134	7727.05	79.0302	7727.05	78.3084	7727.05	75.401	7727.05	76.0676	7727.05	72.2243	7727.05	72.8132	7727.05	69.0114	7727.05	69.1725	7727.05	66.2089	7727.05	67.262	7727.05	65.888	7727.05	65.4007	7727.05	65.3203	7727.05	65.7281	7727.05	67.2297	7727.05	68.8841	7727.05	66.9779	7727.05	67.8027	7727.05	61.2077	7727.05	62.7464	7727.05	62.0024
7999.51	87.5861	7999.51	87.408	7999.51	87.3778	7999.51	87.3147	7999.51	87.142	7999.51	86.2159	7999.51	86.0772	7999.51	84.0194	7999.51	84.0561	7999.51	83.2716	7999.51	83.2295	7999.51	82.39	7999.51	82.719	7999.51	80.989	7999.51	81.0048	7999.51	78.0427	7999.51	78.1064	7999.51	74.6195	7999.51	75.7953	7999.51	71.1171	7999.51	71.4464	7999.51	67.9987	7999.51	68.4339	7999.51	65.9017	7999.51	66.9602	7999.51	63.1516	7999.51	63.2558	7999.51	62.9244	7999.51	64.3847	7999.51	66.7033	7999.51	67.3774	7999.51	66.7051	7999.51	67.7175	7999.51	61.9466	7999.51	59.6552	7999.51	58.7116
8282.23	87.5715	8282.23	87.5962	8282.23	87.7057	8282.23	87.3419	8282.23	87.1587	8282.23	85.7112	8282.23	86.0142	8282.23	83.9667	8282.23	84.3973	8282.23	82.9806	8282.23	83.338	8282.23	81.7066	8282.23	82.1039	8282.23	80.0397	8282.23	80.0185	8282.23	76.4663	8282.23	77.4598	8282.23	73.2446	8282.23	74.1125	8282.23	69.9557	8282.23	70.5491	8282.23	66.4891	8282.23	68.0545	8282.23	65.1489	8282.23	65.6131	8282.23	61.3733	8282.23	63.0781	8282.23	61.2516	8282.23	61.7595	8282.23	65.9977	8282.23	67.2654	8282.23	65.384	8282.23	66.747	8282.23	59.3749	8282.23	60.7623	8282.23	59.7263
8573.73	87.7061	8573.73	87.8748	8573.73	87.8439	8573.73	87.0884	8573.73	87.0396	8573.73	85.7504	8573.73	85.8196	8573.73	84.2465	8573.73	84.7048	8573.73	82.9455	8573.73	83.153	8573.73	80.8148	8573.73	81.5228	8573.73	78.1234	8573.73	79.1858	8573.73	75.8267	8573.73	75.7801	8573.73	71.6256	8573.73	72.3872	8573.73	69.7035	8573.73	69.739	8573.73	65.174	8573.73	66.4261	8573.73	63.4116	8573.73	63.4667	8573.73	61.0409	8573.73	61.0983	8573.73	55.7473	8573.73	61.6413	8573.73	64.6849	8573.73	65.2974	8573.73	64.2198	8573.73	65.1445	8573.73	57.1917	8573.73	58.9889	8573.73	60.5595
8876.95	88.0051	8876.95	87.9861	8876.95	87.8706	8876.95	87.0582	8876.95	86.9128	8876.95	86.1139	8876.95	85.8188	8876.95	84.8022	8876.95	84.8398	8876.95	82.9811	8876.95	82.7977	8876.95	80.1017	8876.95	80.9945	8876.95	77.3022	8876.95	78.5117	8876.95	75.6346	8876.95	73.4641	8876.95	70.317	8876.95	70.9274	8876.95	68.6509	8876.95	68.2407	8876.95	62.9512	8876.95	63.2411	8876.95	60.9626	8876.95	62.4431	8876.95	58.1112	8876.95	57.7699	8876.95	53.0541	8876.95	58.7606	8876.95	63.6205	8876.95	62.5874	8876.95	62.5087	8876.95	62.6076	8876.95	57.6987	8876.95	56.2918	8876.95	59.3253
9188.96	88.0221	9188.96	87.9632	9188.96	88.0689	9188.96	87.1805	9188.96	86.9112	9188.96	86.3136	9188.96	85.9085	9188.96	84.702	9188.96	84.5565	9188.96	82.9893	9188.96	82.1877	9188.96	80.2186	9188.96	79.9369	9188.96	77.8757	9188.96	77.6748	9188.96	74.6608	9188.96	74.0016	9188.96	69.9882	9188.96	70.6556	9188.96	66.4191	9188.96	67.2697	9188.96	63.2847	9188.96	63.2687	9188.96	61.704	9188.96	62.2324	9188.96	58.8909	9188.96	61.5217	9188.96	50.4327	9188.96	49.451	9188.96	61.2476	9188.96	58.3102	9188.96	60.8355	9188.96	61.8788	9188.96	57.4552	9188.96	55.022	9188.96	57.7627
9514.16	88.2027	9514.16	88.1605	9514.16	88.2346	9514.16	87.3768	9514.16	87.2381	9514.16	86.4093	9514.16	85.9369	9514.16	84.0175	9514.16	84.0996	9514.16	82.1862	9514.16	81.4631	9514.16	79.7439	9514.16	79.4381	9514.16	77.2868	9514.16	77.1627	9514.16	73.4476	9514.16	74.3481	9514.16	69.1609	9514.16	70.2719	9514.16	67.1398	9514.16	67.1758	9514.16	62.9335	9514.16	64.6669	9514.16	60.2548	9514.16	61.7709	9514.16	59.1996	9514.16	63.3488	9514.16	49.6294	9514.16	45.969	9514.16	58.7908	9514.16	58.0771	9514.16	58.1165	9514.16	60.7769	9514.16	55.2912	9514.16	53.0578	9514.16	55.204
9849.61	88.707	9849.61	88.6578	9849.61	88.6924	9849.61	87.8242	9849.61	87.9615	9849.61	86.6648	9849.61	86.1395	9849.61	84.4677	9849.61	84.0725	9849.61	82.2878	9849.61	81.367	9849.61	79.7741	9849.61	79.6624	9849.61	77.1746	9849.61	77.3615	9849.61	75.4032	9849.61	72.7582	9849.61	70.0608	9849.61	69.8221	9849.61	69.3658	9849.61	66.2221	9849.61	64.209	9849.61	63.3199	9849.61	62.736	9849.61	61.4598	9849.61	61.6715	9849.61	60.2987	9849.61	53.4159	9849.61	54.7951	9849.61	58.5169	9849.61	57.6257	9849.61	61.896	9849.61	58.457	9849.61	36.4688	9849.61	47.4209	9849.61	54.0852
10196.8	89.1767	10196.8	89.1756	10196.8	89.1573	10196.8	88.5273	10196.8	88.6844	10196.8	87.0213	10196.8	86.6327	10196.8	85.0065	10196.8	84.445	10196.8	82.76	10196.8	81.8972	10196.8	80.31	10196.8	79.551	10196.8	78.3201	10196.8	76.9473	10196.8	75.6577	10196.8	73.0755	10196.8	71.6033	10196.8	69.4307	10196.8	67.4231	10196.8	64.7582	10196.8	64.7738	10196.8	63.0526	10196.8	62.3051	10196.8	58.1153	10196.8	61.9397	10196.8	61.6021	10196.8	47.3126	10196.8	51.3502	10196.8	57.6806	10196.8	57.95	10196.8	61.1522	10196.8	56.0566	10196.8	51.6627	10196.8	53.202	10196.8	55.8703
10555.7	89.5386	10555.7	89.4582	10555.7	89.3895	10555.7	88.8696	10555.7	88.6829	10555.7	87.0992	10555.7	86.5426	10555.7	84.8407	10555.7	84.5467	10555.7	82.901	10555.7	82.0376	10555.7	80.3528	10555.7	79.561	10555.7	77.9223	10555.7	76.1605	10555.7	74.4296	10555.7	73.3294	10555.7	70.1836	10555.7	68.9314	10555.7	66.4151	10555.7	64.1779	10555.7	64.0454	10555.7	62.3046	10555.7	59.7202	10555.7	58.1836	10555.7	62.088	10555.7	56.5808	10555.7	49.8731	10555.7	52.5126	10555.7	58.0106	10555.7	58.3692	10555.7	58.1357	10555.7	58.1511	10555.7	53.2466	10555.7	49.1252	10555.7	52.4895
10927.7	89.7951	10927.7	89.7106	10927.7	89.5975	10927.7	89.0145	10927.7	88.6786	10927.7	87.1208	10927.7	86.1986	10927.7	84.8991	10927.7	84.6027	10927.7	83.0551	10927.7	81.7996	10927.7	79.9747	10927.7	78.5121	10927.7	76.7267	10927.7	74.768	10927.7	73.1075	10927.7	71.7126	10927.7	67.7634	10927.7	67.0641	10927.7	64.8173	10927.7	64.1231	10927.7	62.1157	10927.7	61.5006	10927.7	58.4289	10927.7	58.0392	10927.7	63.5271	10927.7	59.4125	10927.7	52.4031	10927.7	51.2143	10927.7	57.0297	10927.7	55.2347	10927.7	59.1857	10927.7	56.4527	10927.7	47.7126	10927.7	43.0313	10927.7	51.0094
11313	89.8299	11313	89.8307	11313	89.5425	11313	89.1283	11313	88.7649	11313	86.9828	11313	86.1867	11313	84.9035	11313	84.3762	11313	82.4176	11313	81.1761	11313	79.6328	11313	77.711	11313	76.5781	11313	73.8131	11313	72.2916	11313	70.5064	11313	68.8457	11313	66.9021	11313	63.8943	11313	61.3017	11313	60.0629	11313	60.9603	11313	59.9165	11313	57.8437	11313	60.1669	11313	55.553	11313	46.2243	11313	38.1608	11313	58.4496	11313	56.0698	11313	60.2849	11313	58.7422	11313	54.6732	11313	47.2975	11313	52.284
11712.9	89.9467	11712.9	89.954	11712.9	89.6997	11712.9	89.2293	11712.9	88.6794	11712.9	86.9903	11712.9	85.8963	11712.9	84.4321	11712.9	83.5446	11712.9	81.508	11712.9	79.6499	11712.9	78.3845	11712.9	76.2686	11712.9	75.2726	11712.9	72.0558	11712.9	70.8524	11712.9	70.8191	11712.9	68.1981	11712.9	67.0183	11712.9	63.7394	11712.9	62.7557	11712.9	60.415	11712.9	61.5975	11712.9	56.1804	11712.9	54.789	11712.9	57.0814	11712.9	57.3015	11712.9	47.8682	11712.9	44.7013	11712.9	55.7436	11712.9	54.7357	11712.9	58.4586	11712.9	59.4956	11712.9	48.9317	11712.9	38.1496	11712.9	55.178
12126	90.2034	12126	90.0539	12126	89.9562	12126	89.1043	12126	88.866	12126	86.675	12126	85.9174	12126	84.1038	12126	83.3182	12126	80.5891	12126	79.2385	12126	77.1058	12126	75.5804	12126	73.5337	12126	71.8031	12126	70.3053	12126	70.8146	12126	67.2277	12126	66.5642	12126	62.7914	12126	62.9803	12126	59.2408	12126	61.3039	12126	55.7775	12126	54.5181	12126	55.7736	12126	55.0709	12126	47.5402	12126	47.2131	12126	54.1172	12126	55.8035	12126	57.9521	12126	57.9717	12126	43.1888	12126	35.4946	12126	54.1236
12553.7	90.3922	12553.7	90.2106	12553.7	90.0008	12553.7	89.0553	12553.7	88.7257	12553.7	86.2682	12553.7	85.6191	12553.7	83.5835	12553.7	82.9151	12553.7	79.2446	12553.7	78.4031	12553.7	75.5189	12553.7	74.4949	12553.7	72.0707	12553.7	71.8383	12553.7	70.5318	12553.7	70.815	12553.7	66.766	12553.7	66.9167	12553.7	63.2118	12553.7	62.5698	12553.7	60.0151	12553.7	61.2858	12553.7	56.2873	12553.7	54.4787	12553.7	56.521	12553.7	55.6939	12553.7	50.95	12553.7	49.9024	12553.7	54.2457	12553.7	55.6364	12553.7	58.1299	12553.7	57.8402	12553.7	47.3734	12553.7	44.4432	12553.7	54.24
12996.1	90.1355	12996.1	89.9737	12996.1	89.7744	12996.1	88.5861	12996.1	88.3071	12996.1	85.756	12996.1	84.987	12996.1	82.7852	12996.1	81.9073	12996.1	77.8424	12996.1	76.7	12996.1	74.5168	12996.1	73.2712	12996.1	71.0758	12996.1	71.877	12996.1	71.0272	12996.1	70.4391	12996.1	67.4922	12996.1	66.9721	12996.1	63.0507	12996.1	61.6756	12996.1	60.524	12996.1	62.5101	12996.1	55.8059	12996.1	54.7439	12996.1	57.6242	12996.1	57.5762	12996.1	53.7951	12996.1	51.1946	12996.1	53.1838	12996.1	54.3906	12996.1	58.9896	12996.1	56.1454	12996.1	46.2549	12996.1	47.5507	12996.1	52.1414
13454.6	89.7532	13454.6	89.4481	13454.6	89.1989	13454.6	87.9137	13454.6	87.4182	13454.6	85.0784	13454.6	83.9227	13454.6	81.658	13454.6	80.1831	13454.6	76.4381	13454.6	75.1731	13454.6	73.712	13454.6	72.557	13454.6	70.6703	13454.6	72.2246	13454.6	70.906	13454.6	70.5682	13454.6	67.9309	13454.6	67.6768	13454.6	62.8776	13454.6	63.0902	13454.6	60.8079	13454.6	62.2039	13454.6	56.8806	13454.6	54.732	13454.6	53.9725	13454.6	58.2192	13454.6	52.9832	13454.6	53.9497	13454.6	52.1838	13454.6	54.0828	13454.6	58.7599	13454.6	53.2911	13454.6	47.6845	13454.6	49.4582	13454.6	54.1984
13929.2	89.3028	13929.2	88.805	13929.2	88.4622	13929.2	86.9677	13929.2	86.4597	13929.2	84.1461	13929.2	82.6174	13929.2	80.0653	13929.2	78.7848	13929.2	75.0811	13929.2	73.8546	13929.2	72.2673	13929.2	72.1187	13929.2	70.9284	13929.2	72.5858	13929.2	71.199	13929.2	72.1769	13929.2	69.1125	13929.2	69.5177	13929.2	62.8291	13929.2	64.6393	13929.2	60.8002	13929.2	62.7016	13929.2	59.0629	13929.2	59.3176	13929.2	56.3832	13929.2	59.5358	13929.2	49.2326	13929.2	54.2562	13929.2	47.7593	13929.2	50.2303	13929.2	56.6543	13929.2	56.8117	13929.2	52.5535	13929.2	54.8379	13929.2	54.981
14419.9	88.4542	14419.9	88.1253	14419.9	87.3736	14419.9	85.8838	14419.9	85.0915	14419.9	82.5552	14419.9	81.0605	14419.9	78.2314	14419.9	76.5428	14419.9	74.0357	14419.9	72.4764	14419.9	71.3932	14419.9	71.6181	14419.9	72.9627	14419.9	71.7274	14419.9	71.3818	14419.9	71.5809	14419.9	70.0593	14419.9	68.9036	14419.9	63.3419	14419.9	63.4567	14419.9	62.2753	14419.9	60.7196	14419.9	59.8809	14419.9	59.7856	14419.9	59.6538	14419.9	60.7003	14419.9	36.563	14419.9	53.6838	14419.9	44.0623	14419.9	46.9175	14419.9	55.2462	14419.9	56.4554	14419.9	54.7966	14419.9	54.7954	14419.9	54.135
14928.2	88.2346	14928.2	87.7652	14928.2	87.079	14928.2	85.5242	14928.2	84.5484	14928.2	82.1605	14928.2	80.3872	14928.2	78.2599	14928.2	76.5444	14928.2	73.7987	14928.2	72.2138	14928.2	72.8301	14928.2	73.486	14928.2	73.8075	14928.2	73.7198	14928.2	71.669	14928.2	73.0271	14928.2	69.7724	14928.2	70.3329	14928.2	62.9527	14928.2	63.7392	14928.2	61.8413	14928.2	60.7366	14928.2	58.3863	14928.2	61.1458	14928.2	58.312	14928.2	59.2557	14928.2	41.391	14928.2	53.0288	14928.2	42.0107	14928.2	46.0207	14928.2	52.3865	14928.2	54.7889	14928.2	52.1262	14928.2	53.8026	14928.2	50.1077
15455.6	88.2794	15455.6	87.5522	15455.6	86.9062	15455.6	85.4278	15455.6	84.2438	15455.6	81.7812	15455.6	79.8298	15455.6	78.392	15455.6	76.0049	15455.6	72.6804	15455.6	73.0238	15455.6	73.0055	15455.6	74.6118	15455.6	72.2209	15455.6	73.7847	15455.6	70.7902	15455.6	73.139	15455.6	68.986	15455.6	70.4595	15455.6	62.2477	15455.6	64.1596	15455.6	60.3406	15455.6	60.4041	15455.6	58.1753	15455.6	61.2236	15455.6	57.998	15455.6	57.7995	15455.6	41.0038	15455.6	52.5692	15455.6	46.0346	15455.6	49.594	15455.6	47.6852	15455.6	51.045	15455.6	50.8738	15455.6	54.1435	15455.6	49.4456
16000.5	88.11	16000.5	87.3262	16000.5	86.7513	16000.5	85.2671	16000.5	84.0674	16000.5	81.2598	16000.5	79.9579	16000.5	77.9061	16000.5	76.3663	16000.5	70.6169	16000.5	75.0619	16000.5	72.4828	16000.5	75.3695	16000.5	70.1804	16000.5	73.659	16000.5	70.6217	16000.5	73.1104	16000.5	69.4029	16000.5	70.6587	16000.5	64.2303	16000.5	64.4215	16000.5	56.1545	16000.5	59.4011	16000.5	57.0822	16000.5	60.0752	16000.5	56.7227	16000.5	56.4874	16000.5	49.7571	16000.5	50.8223	16000.5	50.8677	16000.5	50.8556	16000.5	50.3641	16000.5	52.6663	16000.5	49.9526	16000.5	55.2449	16000.5	51.0188
16564.5	87.7888	16564.5	87.0243	16564.5	86.5462	16564.5	84.8684	16564.5	83.6926	16564.5	80.2465	16564.5	79.6649	16564.5	76.0419	16564.5	75.7017	16564.5	69.4756	16564.5	74.9063	16564.5	72.7366	16564.5	74.2171	16564.5	70.3976	16564.5	72.5962	16564.5	70.423	16564.5	71.712	16564.5	69.4209	16564.5	69.3034	16564.5	65.2327	16564.5	62.0407	16564.5	55.8017	16564.5	57.1364	16564.5	57.0402	16564.5	57.9844	16564.5	55.9554	16564.5	55.3702	16564.5	49.5643	16564.5	49.3603	16564.5	51.906	16564.5	54.5405	16564.5	53.3818	16564.5	52.4787	16564.5	52.3564	16564.5	54.7587	16564.5	52.1373
17148.9	87.2033	17148.9	86.6389	17148.9	86.0623	17148.9	84.1671	17148.9	83.0717	17148.9	79.1919	17148.9	78.7818	17148.9	74.2808	17148.9	75.5277	17148.9	69.8077	17148.9	73.8797	17148.9	73.2771	17148.9	72.9202	17148.9	71.4709	17148.9	71.0122	17148.9	70.2659	17148.9	69.1817	17148.9	69.5517	17148.9	66.8277	17148.9	64.7461	17148.9	60.4245	17148.9	55.1778	17148.9	53.3087	17148.9	57.1233	17148.9	56.0282	17148.9	55.6924	17148.9	54.0569	17148.9	52.1664	17148.9	49.2109	17148.9	54.5272	17148.9	53.2544	17148.9	55.8999	17148.9	51.9839	17148.9	52.6232	17148.9	54.8836	17148.9	53.9241
17752.4	86.7153	17752.4	86.2226	17752.4	85.5668	17752.4	83.5294	17752.4	82.4173	17752.4	77.9159	17752.4	77.6553	17752.4	73.0884	17752.4	75.3527	17752.4	70.6589	17752.4	72.6419	17752.4	72.8651	17752.4	72.1666	17752.4	70.9895	17752.4	69.9308	17752.4	69.2684	17752.4	67.8774	17752.4	68.287	17752.4	65.4783	17752.4	63.4806	17752.4	60.4392	17752.4	53.6103	17752.4	52.991	17752.4	55.5069	17752.4	53.3646	17752.4	55.5794	17752.4	53.6408	17752.4	51.7181	17752.4	52.2991	17752.4	54.439	17752.4	54.0395	17752.4	57.0914	17752.4	51.6463	17752.4	53.6116	17752.4	53.4858	17752.4	54.5632
18379.4	86.0036	18379.4	85.417	18379.4	84.8982	18379.4	82.3517	18379.4	81.5908	18379.4	75.7325	18379.4	76.3054	18379.4	72.1466	18379.4	74.291	18379.4	70.1442	18379.4	71.3455	18379.4	71.7272	18379.4	70.6218	18379.4	69.5206	18379.4	68.2529	18379.4	68.0482	18379.4	65.6723	18379.4	66.5476	18379.4	62.8758	18379.4	62.086	18379.4	57.7994	18379.4	49.4974	18379.4	48.7533	18379.4	54.378	18379.4	52.2636	18379.4	55.0309	18379.4	54.155	18379.4	50.5813	18379.4	51.8267	18379.4	52.3233	18379.4	54.7812	18379.4	57.7431	18379.4	50.6476	18379.4	56.1004	18379.4	53.8122	18379.4	54.9583
19026.9	85.1676	19026.9	84.4492	19026.9	84.0861	19026.9	81.2097	19026.9	80.5206	19026.9	73.3177	19026.9	75.284	19026.9	71.5592	19026.9	72.6779	19026.9	68.7026	19026.9	68.8598	19026.9	68.8842	19026.9	67.7509	19026.9	65.6621	19026.9	63.7257	19026.9	64.5707	19026.9	61.463	19026.9	62.3835	19026.9	57.8338	19026.9	58.2748	19026.9	53.4558	19026.9	44.3413	19026.9	42.8991	19026.9	51.9661	19026.9	50.7975	19026.9	52.0132	19026.9	53.3168	19026.9	49.8069	19026.9	49.7832	19026.9	49.679	19026.9	51.3211	19026.9	58.6573	19026.9	49.5937	19026.9	58.1285	19026.9	53.6327	19026.9	53.0772
19697.8	84.5206	19697.8	83.7216	19697.8	83.5327	19697.8	80.1314	19697.8	79.5018	19697.8	72.2669	19697.8	74.5937	19697.8	70.4467	19697.8	70.6995	19697.8	65.9565	19697.8	65.9473	19697.8	65.7197	19697.8	63.2664	19697.8	61.421	19697.8	57.5535	19697.8	61.2818	19697.8	57.8273	19697.8	58.3642	19697.8	55.3897	19697.8	56.423	19697.8	51.1038	19697.8	47.7882	19697.8	49.9482	19697.8	50.9567	19697.8	46.4181	19697.8	48.6231	19697.8	51.2587	19697.8	50.5419	19697.8	50.8458	19697.8	49.2754	19697.8	49.5964	19697.8	58.3054	19697.8	47.6596	19697.8	58.6244	19697.8	54.7656	19697.8	51.6867
19999.5	84.1043	19999.5	83.1071	19999.5	83.2758	19999.5	79.3318	19999.5	79.0726	19999.5	71.8288	19999.5	74.1386	19999.5	69.444	19999.5	69.546	19999.5	65.435	19999.5	65.1379	19999.5	64.6889	19999.5	62.1063	19999.5	60.1673	19999.5	53.7764	19999.5	60.9243	19999.5	57.2214	19999.5	59.0119	19999.5	58.4786	19999.5	56.5934	19999.5	53.2131	19999.5	49.9508	19999.5	53.0804	19999.5	51.7779	19999.5	49.5494	19999.5	45.0892	19999.5	45.35	19999.5	53.7406	19999.5	52.0774	19999.5	35.6549	19999.5	49.4221	19999.5	59.9716	19999.5	47.8316	19999.5	59.7329	19999.5	53.6624	19999.5	51.22
