"SPL Vertical"
"On-Axis"		"10°"		"-10°"		"20°"		"-20°"		"30°"		"-30°"		"40°"		"-40°"		"50°"		"-50°"		"60°"		"-60°"		"70°"		"-70°"		"80°"		"-80°"		"90°"		"-90°"		"100°"		"-100°"		"110°"		"-110°"		"120°"		"-120°"		"130°"		"-130°"		"140°"		"-140°"		"150°"		"-150°"		"160°"		"-160°"		"170°"		"-170°"		"180°"
"Frequency / Hz"	"Sound Pressure Level / dB (re 20 µPa/V)  [2.83V at 1m]"	"Frequency / Hz"	"Sound Pressure Level / dB (re 20 µPa/V)  [2.83V at 1m]"	"Frequency / Hz"	"Sound Pressure Level / dB (re 20 µPa/V)  [2.83V at 1m]"	"Frequency / Hz"	"Sound Pressure Level / dB (re 20 µPa/V)  [2.83V at 1m]"	"Frequency / Hz"	"Sound Pressure Level / dB (re 20 µPa/V)  [2.83V at 1m]"	"Frequency / Hz"	"Sound Pressure Level / dB (re 20 µPa/V)  [2.83V at 1m]"	"Frequency / Hz"	"Sound Pressure Level / dB (re 20 µPa/V)  [2.83V at 1m]"	"Frequency / Hz"	"Sound Pressure Level / dB (re 20 µPa/V)  [2.83V at 1m]"	"Frequency / Hz"	"Sound Pressure Level / dB (re 20 µPa/V)  [2.83V at 1m]"	"Frequency / Hz"	"Sound Pressure Level / dB (re 20 µPa/V)  [2.83V at 1m]"	"Frequency / Hz"	"Sound Pressure Level / dB (re 20 µPa/V)  [2.83V at 1m]"	"Frequency / Hz"	"Sound Pressure Level / dB (re 20 µPa/V)  [2.83V at 1m]"	"Frequency / Hz"	"Sound Pressure Level / dB (re 20 µPa/V)  [2.83V at 1m]"	"Frequency / Hz"	"Sound Pressure Level / dB (re 20 µPa/V)  [2.83V at 1m]"	"Frequency / Hz"	"Sound Pressure Level / dB (re 20 µPa/V)  [2.83V at 1m]"	"Frequency / Hz"	"Sound Pressure Level / dB (re 20 µPa/V)  [2.83V at 1m]"	"Frequency / Hz"	"Sound Pressure Level / dB (re 20 µPa/V)  [2.83V at 1m]"	"Frequency / Hz"	"Sound Pressure Level / dB (re 20 µPa/V)  [2.83V at 1m]"	"Frequency / Hz"	"Sound Pressure Level / dB (re 20 µPa/V)  [2.83V at 1m]"	"Frequency / Hz"	"Sound Pressure Level / dB (re 20 µPa/V)  [2.83V at 1m]"	"Frequency / Hz"	"Sound Pressure Level / dB (re 20 µPa/V)  [2.83V at 1m]"	"Frequency / Hz"	"Sound Pressure Level / dB (re 20 µPa/V)  [2.83V at 1m]"	"Frequency / Hz"	"Sound Pressure Level / dB (re 20 µPa/V)  [2.83V at 1m]"	"Frequency / Hz"	"Sound Pressure Level / dB (re 20 µPa/V)  [2.83V at 1m]"	"Frequency / Hz"	"Sound Pressure Level / dB (re 20 µPa/V)  [2.83V at 1m]"	"Frequency / Hz"	"Sound Pressure Level / dB (re 20 µPa/V)  [2.83V at 1m]"	"Frequency / Hz"	"Sound Pressure Level / dB (re 20 µPa/V)  [2.83V at 1m]"	"Frequency / Hz"	"Sound Pressure Level / dB (re 20 µPa/V)  [2.83V at 1m]"	"Frequency / Hz"	"Sound Pressure Level / dB (re 20 µPa/V)  [2.83V at 1m]"	"Frequency / Hz"	"Sound Pressure Level / dB (re 20 µPa/V)  [2.83V at 1m]"	"Frequency / Hz"	"Sound Pressure Level / dB (re 20 µPa/V)  [2.83V at 1m]"	"Frequency / Hz"	"Sound Pressure Level / dB (re 20 µPa/V)  [2.83V at 1m]"	"Frequency / Hz"	"Sound Pressure Level / dB (re 20 µPa/V)  [2.83V at 1m]"	"Frequency / Hz"	"Sound Pressure Level / dB (re 20 µPa/V)  [2.83V at 1m]"	"Frequency / Hz"	"Sound Pressure Level / dB (re 20 µPa/V)  [2.83V at 1m]"	"Frequency / Hz"	"Sound Pressure Level / dB (re 20 µPa/V)  [2.83V at 1m]"
20.5078	53.6421	20.5078	53.3517	20.5078	53.892	20.5078	53.1188	20.5078	54.0387	20.5078	53.0716	20.5078	54.048	20.5078	53.3295	20.5078	53.911	20.5078	53.9385	20.5078	53.65	20.5078	54.8418	20.5078	53.3415	20.5078	55.9221	20.5078	53.1445	20.5078	57.0638	20.5078	53.2908	20.5078	58.1838	20.5078	53.9553	20.5078	59.2307	20.5078	55.0924	20.5078	60.1747	20.5078	56.4786	20.5078	60.9978	20.5078	57.8915	20.5078	61.6874	20.5078	59.1938	20.5078	62.2333	20.5078	60.3201	20.5078	62.6258	20.5078	61.2452	20.5078	62.8557	20.5078	61.9628	20.5078	62.9134	20.5078	62.4755	20.5078	62.7897
21.9727	56.4684	21.9727	56.2815	21.9727	56.6426	21.9727	56.1516	21.9727	56.7558	21.9727	56.162	21.9727	56.781	21.9727	56.3875	21.9727	56.7137	21.9727	56.8624	21.9727	56.5765	21.9727	57.5639	21.9727	56.431	21.9727	58.4257	21.9727	56.3862	21.9727	59.3691	21.9727	56.5818	21.9727	60.3258	21.9727	57.1221	21.9727	61.2459	21.9727	57.9981	21.9727	62.0949	21.9727	59.0911	21.9727	62.8492	21.9727	60.2514	21.9727	63.4912	21.9727	61.3614	21.9727	64.0068	21.9727	62.3486	21.9727	64.3835	21.9727	63.1751	21.9727	64.6098	21.9727	63.8236	21.9727	64.6753	21.9727	64.2884	21.9727	64.5706
23.4375	58.7032	23.4375	58.5131	23.4375	58.8731	23.4375	58.3545	23.4375	58.9873	23.4375	58.2912	23.4375	59.0257	23.4375	58.3874	23.4375	58.9847	23.4375	58.6871	23.4375	58.8808	23.4375	59.195	23.4375	58.7573	23.4375	59.875	23.4375	58.6914	23.4375	60.6669	23.4375	58.7866	23.4375	61.5071	23.4375	59.137	23.4375	62.3418	23.4375	59.771	23.4375	63.1302	23.4375	60.6285	23.4375	63.8423	23.4375	61.5969	23.4375	64.4558	23.4375	62.5657	23.4375	64.953	23.4375	63.4544	23.4375	65.3193	23.4375	64.2136	23.4375	65.542	23.4375	64.8169	23.4375	65.6104	23.4375	65.252	23.4375	65.5158
24.9023	60.2111	24.9023	60.0368	24.9023	60.3725	24.9023	59.895	24.9023	60.4887	24.9023	59.8406	24.9023	60.541	24.9023	59.9283	24.9023	60.5256	24.9023	60.1957	24.9023	60.4557	24.9023	60.6494	24.9023	60.3678	24.9023	61.2617	24.9023	60.3255	24.9023	61.983	24.9023	60.414	24.9023	62.7574	24.9023	60.7141	24.9023	63.5354	24.9023	61.259	24.9023	64.2771	24.9023	62.0105	24.9023	64.9522	24.9023	62.8793	24.9023	65.5373	24.9023	63.767	24.9023	66.0137	24.9023	64.595	24.9023	66.3658	24.9023	65.3112	24.9023	66.5804	24.9023	65.8853	24.9023	66.6464	24.9023	66.3019	24.9023	66.5553
26.3672	60.9834	26.3672	60.822	26.3672	61.1315	26.3672	60.6924	26.3672	61.2335	26.3672	60.6484	26.3672	61.2703	26.3672	60.7425	26.3672	61.2366	26.3672	61.011	26.3672	61.1453	26.3672	61.4594	26.3672	61.0323	26.3672	62.0611	26.3672	60.9628	26.3672	62.7684	26.3672	61.0262	26.3672	63.5275	26.3672	61.3091	26.3672	64.2901	26.3672	61.8493	26.3672	65.0175	26.3672	62.6078	26.3672	65.6796	26.3672	63.4907	26.3672	66.2533	26.3672	64.3944	26.3672	66.7199	26.3672	65.2371	26.3672	67.0637	26.3672	65.9657	26.3672	67.2711	26.3672	66.5495	26.3672	67.3308	26.3672	66.9738	26.3672	67.2337
27.832	61.703	27.832	61.5727	27.832	61.8299	27.832	61.4799	27.832	61.9234	27.832	61.4727	27.832	61.9667	27.832	61.5967	27.832	61.9574	27.832	61.8815	27.832	61.9105	27.832	62.3302	27.832	61.8626	27.832	62.9186	27.832	61.8737	27.832	63.6038	27.832	62.0185	27.832	64.3377	27.832	62.3612	27.832	65.0762	27.832	62.9213	27.832	65.7828	27.832	63.6591	27.832	66.4288	27.832	64.4943	27.832	66.9912	27.832	65.3409	27.832	67.4515	27.832	66.1288	27.832	67.7939	27.832	66.8103	27.832	68.005	27.832	67.3566	27.832	68.0735	27.832	67.7521	27.832	67.9909
29.2969	64.2364	29.2969	64.1782	29.2969	64.3118	29.2969	64.1624	29.2969	64.3852	29.2969	64.216	29.2969	64.4455	29.2969	64.3627	29.2969	64.4914	29.2969	64.6175	29.2969	64.5334	29.2969	64.9816	29.2969	64.5942	29.2969	65.4427	29.2969	64.7076	29.2969	65.9772	29.2969	64.9118	29.2969	66.556	29.2969	65.2372	29.2969	67.1487	29.2969	65.6925	29.2969	67.7271	29.2969	66.2579	29.2969	68.2659	29.2969	66.8909	29.2969	68.7433	29.2969	67.5392	29.2969	69.1404	29.2969	68.1534	29.2969	69.4409	29.2969	68.6938	29.2969	69.6312	29.2969	69.1323	29.2969	69.7005	29.2969	69.4513	29.2969	69.6415
30.7617	65.2331	30.7617	65.1531	30.7617	65.3227	30.7617	65.1058	30.7617	65.4039	30.7617	65.1168	30.7617	65.4658	30.7617	65.2102	30.7617	65.5059	30.7617	65.4031	30.7617	65.5315	30.7617	65.7013	30.7617	65.561	30.7617	66.0972	30.7617	65.6233	30.7617	66.5719	30.7617	65.7544	30.7617	67.0987	30.7617	65.9879	30.7617	67.6481	30.7617	66.3427	30.7617	68.1915	30.7617	66.8122	30.7617	68.7023	30.7617	67.365	30.7617	69.1572	30.7617	67.9539	30.7617	69.5361	30.7617	68.5293	30.7617	69.8215	30.7617	69.048	30.7617	69.9991	30.7617	69.4774	30.7617	70.0578	30.7617	69.7957	30.7617	69.9906
32.2266	66.9839	32.2266	66.9414	32.2266	67.0407	32.2266	66.9298	32.2266	67.0983	32.2266	66.9672	32.2266	67.1484	32.2266	67.07	32.2266	67.1891	32.2266	67.2502	32.2266	67.2261	32.2266	67.512	32.2266	67.2736	32.2266	67.8513	32.2266	67.3539	32.2266	68.2555	32.2266	67.4936	32.2266	68.7058	32.2266	67.7176	32.2266	69.1795	32.2266	68.0392	32.2266	69.6529	32.2266	68.4534	32.2266	70.1028	32.2266	68.9364	32.2266	70.5073	32.2266	69.451	32.2266	70.847	32.2266	69.9565	32.2266	71.1044	32.2266	70.4154	32.2266	71.2653	32.2266	70.798	32.2266	71.3189	32.2266	71.0833	32.2266	71.2586
33.6914	68.785	33.6914	68.7269	33.6914	68.8504	33.6914	68.6901	33.6914	68.9125	33.6914	68.6901	33.6914	68.9646	33.6914	68.7421	33.6914	69.0057	33.6914	68.8587	33.6914	69.0407	33.6914	69.047	33.6914	69.0815	33.6914	69.3074	33.6914	69.1461	33.6914	69.6326	33.6914	69.2565	33.6914	70.0085	33.6914	69.4336	33.6914	70.4162	33.6914	69.6903	33.6914	70.8343	33.6914	70.0255	33.6914	71.2404	33.6914	70.4222	33.6914	71.613	33.6914	70.8513	33.6914	71.9323	33.6914	71.2777	33.6914	72.1805	33.6914	71.6675	33.6914	72.3432	33.6914	71.9925	33.6914	72.4093	33.6914	72.2317	33.6914	72.3725
35.1562	69.1752	35.1562	69.1015	35.1562	69.2556	35.1562	69.049	35.1562	69.3318	35.1562	69.0347	35.1562	69.3977	35.1562	69.0755	35.1562	69.4528	35.1562	69.186	35.1562	69.5027	35.1562	69.3748	35.1562	69.5594	35.1562	69.6431	35.1562	69.6406	35.1562	69.9828	35.1562	69.7674	35.1562	70.3788	35.1562	69.9592	35.1562	70.8101	35.1562	70.2277	35.1562	71.2533	35.1562	70.5712	35.1562	71.6845	35.1562	70.9731	35.1562	72.0809	35.1562	71.4051	35.1562	72.4218	35.1562	71.8328	35.1562	72.6888	35.1562	72.2228	35.1562	72.8671	35.1562	72.5464	35.1562	72.9455	35.1562	72.7825	35.1562	72.9175
36.6211	70.3624	36.6211	70.3345	36.6211	70.4147	36.6211	70.3407	36.6211	70.4833	36.6211	70.3904	36.6211	70.5623	36.6211	70.4914	36.6211	70.649	36.6211	70.6486	36.6211	70.7448	36.6211	70.8629	36.6211	70.8547	36.6211	71.1306	36.6211	70.9875	36.6211	71.4436	36.6211	71.1538	36.6211	71.79	36.6211	71.3631	36.6211	72.1552	36.6211	71.6207	36.6211	72.5231	36.6211	71.9244	36.6211	72.8769	36.6211	72.2635	36.6211	73.1998	36.6211	72.6192	36.6211	73.4759	36.6211	72.9685	36.6211	73.6909	36.6211	73.2871	36.6211	73.8327	36.6211	73.5533	36.6211	73.8921	36.6211	73.7496	36.6211	73.8644
38.0859	71.9164	38.0859	71.8893	38.0859	71.9575	38.0859	71.8833	38.0859	72.0067	38.0859	71.906	38.0859	72.06	38.0859	71.9643	38.0859	72.1161	38.0859	72.0638	38.0859	72.1766	38.0859	72.2078	38.0859	72.2465	38.0859	72.3963	38.0859	72.3335	38.0859	72.6258	38.0859	72.4472	38.0859	72.8893	38.0859	72.5971	38.0859	73.1767	38.0859	72.7893	38.0859	73.4751	38.0859	73.0244	38.0859	73.7699	38.0859	73.2949	38.0859	74.0456	38.0859	73.5864	38.0859	74.2865	38.0859	73.8786	38.0859	74.4778	38.0859	74.1494	38.0859	74.6069	38.0859	74.3779	38.0859	74.6641	38.0859	74.5467	38.0859	74.644
39.5508	72.7864	39.5508	72.7536	39.5508	72.8326	39.5508	72.7405	39.5508	72.8869	39.5508	72.754	39.5508	72.946	39.5508	72.8009	39.5508	73.0087	39.5508	72.887	39.5508	73.0764	39.5508	73.0158	39.5508	73.153	39.5508	73.1883	39.5508	73.245	39.5508	73.4021	39.5508	73.3604	39.5508	73.651	39.5508	73.5067	39.5508	73.9257	39.5508	73.6892	39.5508	74.2136	39.5508	73.908	39.5508	74.5003	39.5508	74.1571	39.5508	74.7702	39.5508	74.4237	39.5508	75.0078	39.5508	74.6902	39.5508	75.1983	39.5508	74.9368	39.5508	75.3292	39.5508	75.144	39.5508	75.3914	39.5508	75.2956	39.5508	75.3801
41.0156	73.6228	41.0156	73.5887	41.0156	73.67	41.0156	73.573	41.0156	73.7261	41.0156	73.5816	41.0156	73.788	41.0156	73.62	41.0156	73.8545	41.0156	73.6931	41.0156	73.9264	41.0156	73.8042	41.0156	74.0065	41.0156	73.9544	41.0156	74.0994	41.0156	74.142	41.0156	74.2112	41.0156	74.3622	41.0156	74.3476	41.0156	74.6073	41.0156	74.5125	41.0156	74.8666	41.0156	74.7063	41.0156	75.1275	41.0156	74.924	41.0156	75.3756	41.0156	75.1553	41.0156	75.5967	41.0156	75.3856	41.0156	75.7767	41.0156	75.5978	41.0156	75.9039	41.0156	75.7748	41.0156	75.9695	41.0156	75.902	41.0156	75.9687
42.4805	74.4336	42.4805	74.3998	42.4805	74.4809	42.4805	74.384	42.4805	74.538	42.4805	74.3909	42.4805	74.6023	42.4805	74.4252	42.4805	74.6726	42.4805	74.4908	42.4805	74.7489	42.4805	74.5905	42.4805	74.8333	42.4805	74.7252	42.4805	74.929	42.4805	74.8938	42.4805	75.0402	42.4805	75.0923	42.4805	75.1713	42.4805	75.3141	42.4805	75.325	42.4805	75.5503	42.4805	75.5011	42.4805	75.7894	42.4805	75.6957	42.4805	76.0189	42.4805	75.9	42.4805	76.2254	42.4805	76.1017	42.4805	76.3961	42.4805	76.286	42.4805	76.5198	42.4805	76.438	42.4805	76.588	42.4805	76.5446	42.4805	76.5962
43.9453	75.1581	43.9453	75.1246	43.9453	75.2054	43.9453	75.1085	43.9453	75.2631	43.9453	75.1136	43.9453	75.329	43.9453	75.1438	43.9453	75.4016	43.9453	75.2025	43.9453	75.4808	43.9453	75.2918	43.9453	75.5675	43.9453	75.4128	43.9453	75.6639	43.9453	75.5646	43.9453	75.7728	43.9453	75.7438	43.9453	75.8973	43.9453	75.9449	43.9453	76.0391	43.9453	76.16	43.9453	76.1982	43.9453	76.3792	43.9453	76.371	43.9453	76.5909	43.9453	76.5505	43.9453	76.7829	43.9453	76.7263	43.9453	76.9434	43.9453	76.8858	43.9453	77.0619	43.9453	77.0161	43.9453	77.1306	43.9453	77.1053	43.9453	77.145
45.4102	75.7343	45.4102	75.7037	45.4102	75.7798	45.4102	75.6909	45.4102	75.8376	45.4102	75.6989	45.4102	75.9056	45.4102	75.7308	45.4102	75.9825	45.4102	75.7889	45.4102	76.0677	45.4102	75.8753	45.4102	76.1617	45.4102	75.9903	45.4102	76.2654	45.4102	76.1332	45.4102	76.3805	45.4102	76.3011	45.4102	76.5085	45.4102	76.4893	45.4102	76.6501	45.4102	76.6908	45.4102	76.8041	45.4102	76.8967	45.4102	76.9671	45.4102	77.0968	45.4102	77.1326	45.4102	77.2798	45.4102	77.2914	45.4102	77.4349	45.4102	77.4327	45.4102	77.5522	45.4102	77.5453	45.4102	77.6242	45.4102	77.619	45.4102	77.6466
46.875	76.4091	46.875	76.3755	46.875	76.4566	46.875	76.3585	46.875	76.516	46.875	76.3606	46.875	76.5853	46.875	76.384	46.875	76.6629	46.875	76.431	46.875	76.748	46.875	76.503	46.875	76.8402	46.875	76.6008	46.875	76.9396	46.875	76.7237	46.875	77.047	46.875	76.8696	46.875	77.163	46.875	77.0347	46.875	77.2878	46.875	77.2132	46.875	77.4207	46.875	77.3974	46.875	77.5587	46.875	77.5784	46.875	77.697	46.875	77.7461	46.875	77.8283	46.875	77.8905	46.875	77.9437	46.875	78.0025	46.875	78.0335	46.875	78.0751	46.875	78.0891	46.875	78.1041
48.3398	76.9676	48.3398	76.9338	48.3398	77.0154	48.3398	76.9159	48.3398	77.0752	48.3398	76.9159	48.3398	77.1452	48.3398	76.9356	48.3398	77.2236	48.3398	76.9766	48.3398	77.309	48.3398	77.0399	48.3398	77.4003	48.3398	77.126	48.3398	77.4969	48.3398	77.2343	48.3398	77.5985	48.3398	77.363	48.3398	77.7049	48.3398	77.509	48.3398	77.8161	48.3398	77.6674	48.3398	77.9312	48.3398	77.8318	48.3398	78.0481	48.3398	77.9941	48.3398	78.1633	48.3398	78.1456	48.3398	78.2711	48.3398	78.2775	48.3398	78.3644	48.3398	78.3814	48.3398	78.4355	48.3398	78.4512	48.3398	78.477	48.3398	78.4832
51.2695	77.9297	51.2695	77.8952	51.2695	77.9771	51.2695	77.8748	51.2695	78.0359	51.2695	77.8699	51.2695	78.1048	51.2695	77.8817	51.2695	78.1821	51.2695	77.9114	51.2695	78.2664	51.2695	77.9598	51.2695	78.3564	51.2695	78.0275	51.2695	78.4508	51.2695	78.1145	51.2695	78.5484	51.2695	78.22	51.2695	78.6484	51.2695	78.3418	51.2695	78.7498	51.2695	78.4765	51.2695	78.8512	51.2695	78.6192	51.2695	78.9506	51.2695	78.7635	51.2695	79.0446	51.2695	78.9021	51.2695	79.1286	51.2695	79.0269	51.2695	79.197	51.2695	79.1305	51.2695	79.2437	51.2695	79.2066	51.2695	79.2631	51.2695	79.2513
52.7344	78.2603	52.7344	78.2273	52.7344	78.3085	52.7344	78.2104	52.7344	78.3706	52.7344	78.2103	52.7344	78.4454	52.7344	78.2277	52.7344	78.5311	52.7344	78.2629	52.7344	78.6259	52.7344	78.3165	52.7344	78.7278	52.7344	78.3883	52.7344	78.8346	52.7344	78.4781	52.7344	78.9443	52.7344	78.5848	52.7344	79.0548	52.7344	78.7064	52.7344	79.1643	52.7344	78.8398	52.7344	79.2705	52.7344	78.9805	52.7344	79.3708	52.7344	79.1229	52.7344	79.4618	52.7344	79.2604	52.7344	79.5396	52.7344	79.3856	52.7344	79.5992	52.7344	79.4916	52.7344	79.6358	52.7344	79.5725	52.7344	79.6451	52.7344	79.6243
54.1992	78.6666	54.1992	78.633	54.1992	78.715	54.1992	78.6146	54.1992	78.7772	54.1992	78.6118	54.1992	78.8521	54.1992	78.6248	54.1992	78.9379	54.1992	78.6537	54.1992	79.0326	54.1992	78.6986	54.1992	79.1337	54.1992	78.7595	54.1992	79.2387	54.1992	78.8359	54.1992	79.3447	54.1992	78.9272	54.1992	79.4492	54.1992	79.032	54.1992	79.5495	54.1992	79.148	54.1992	79.6432	54.1992	79.2718	54.1992	79.7278	54.1992	79.3987	54.1992	79.8007	54.1992	79.5233	54.1992	79.8587	54.1992	79.6393	54.1992	79.8987	54.1992	79.7408	54.1992	79.9172	54.1992	79.8222	54.1992	79.9114	54.1992	79.8798
55.6641	79.0436	55.6641	79.0083	55.6641	79.0927	55.6641	78.9874	55.6641	79.155	55.6641	78.9809	55.6641	79.2292	55.6641	78.9889	55.6641	79.3135	55.6641	79.0114	55.6641	79.4057	55.6641	79.0483	55.6641	79.5032	55.6641	79.0995	55.6641	79.603	55.6641	79.1648	55.6641	79.7022	55.6641	79.2436	55.6641	79.798	55.6641	79.3351	55.6641	79.8877	55.6641	79.4373	55.6641	79.969	55.6641	79.5477	55.6641	80.0398	55.6641	79.6623	55.6641	80.0981	55.6641	79.7764	55.6641	80.1415	55.6641	79.8846	55.6641	80.1677	55.6641	79.9812	55.6641	80.1742	55.6641	80.0614	55.6641	80.1592	55.6641	80.1215
58.5938	79.6695	58.5938	79.6332	58.5938	79.7192	58.5938	79.6104	58.5938	79.7818	58.5938	79.6008	58.5938	79.8561	58.5938	79.604	58.5938	79.9403	58.5938	79.6196	58.5938	80.032	58.5938	79.6471	58.5938	80.128	58.5938	79.6862	58.5938	80.2249	58.5938	79.7368	58.5938	80.3192	58.5938	79.7985	58.5938	80.4075	58.5938	79.871	58.5938	80.4865	58.5938	79.9533	58.5938	80.5538	58.5938	80.044	58.5938	80.6073	58.5938	80.1405	58.5938	80.6456	58.5938	80.2394	58.5938	80.6674	58.5938	80.3367	58.5938	80.6717	58.5938	80.428	58.5938	80.658	58.5938	80.5088	58.5938	80.6258	58.5938	80.5756
60.0586	79.9649	60.0586	79.9276	60.0586	80.0153	60.0586	79.9032	60.0586	80.0783	60.0586	79.8914	60.0586	80.1528	60.0586	79.8917	60.0586	80.237	60.0586	79.9032	60.0586	80.3282	60.0586	79.9256	60.0586	80.4233	60.0586	79.9585	60.0586	80.5188	60.0586	80.0017	60.0586	80.6106	60.0586	80.0551	60.0586	80.6952	60.0586	80.1186	60.0586	80.7693	60.0586	80.1916	60.0586	80.83	60.0586	80.2732	60.0586	80.8755	60.0586	80.3616	60.0586	80.9045	60.0586	80.4539	60.0586	80.9161	60.0586	80.5468	60.0586	80.91	60.0586	80.6362	60.0586	80.8864	60.0586	80.7181	60.0586	80.8456	60.0586	80.7889
62.9883	80.49	62.9883	80.4508	62.9883	80.5417	62.9883	80.4238	62.9883	80.6057	62.9883	80.4085	62.9883	80.6809	62.9883	80.4038	62.9883	80.7653	62.9883	80.409	62.9883	80.8563	62.9883	80.4231	62.9883	80.9505	62.9883	80.4459	62.9883	81.0438	62.9883	80.4769	62.9883	81.1321	62.9883	80.5165	62.9883	81.2112	62.9883	80.5648	62.9883	81.2773	62.9883	80.622	62.9883	81.3274	62.9883	80.688	62.9883	81.3595	62.9883	80.7622	62.9883	81.3725	62.9883	80.843	62.9883	81.3664	62.9883	80.928	62.9883	81.3421	62.9883	81.0143	62.9883	81.3008	62.9883	81.0983	62.9883	81.2447	62.9883	81.1762
64.4531	80.7368	64.4531	80.6971	64.4531	80.7884	64.4531	80.6687	64.4531	80.8516	64.4531	80.6512	64.4531	80.9252	64.4531	80.6433	64.4531	81.0075	64.4531	80.6442	64.4531	81.0956	64.4531	80.6531	64.4531	81.1862	64.4531	80.6694	64.4531	81.2753	64.4531	80.6929	64.4531	81.3585	64.4531	80.7239	64.4531	81.4316	64.4531	80.7629	64.4531	81.4909	64.4531	80.8103	64.4531	81.5331	64.4531	80.8665	64.4531	81.5566	64.4531	80.9314	64.4531	81.5604	64.4531	81.0041	64.4531	81.5449	64.4531	81.0828	64.4531	81.5114	64.4531	81.1651	64.4531	81.4621	64.4531	81.2476	64.4531	81.3996	64.4531	81.327
67.3828	81.2646	67.3828	81.2226	67.3828	81.3175	67.3828	81.1909	67.3828	81.381	67.3828	81.1687	67.3828	81.4541	67.3828	81.1548	67.3828	81.5349	67.3828	81.1479	67.3828	81.6205	67.3828	81.147	67.3828	81.7072	67.3828	81.1515	67.3828	81.7909	67.3828	81.1614	67.3828	81.8668	67.3828	81.1768	67.3828	81.9306	67.3828	81.1989	67.3828	81.9783	67.3828	81.2287	67.3828	82.0067	67.3828	81.2675	67.3828	82.0142	67.3828	81.3164	67.3828	82.0004	67.3828	81.3755	67.3828	81.9664	67.3828	81.4445	67.3828	81.9147	67.3828	81.5216	67.3828	81.8485	67.3828	81.6043	67.3828	81.7719	67.3828	81.689
68.8477	81.4605	68.8477	81.417	68.8477	81.5148	68.8477	81.384	68.8477	81.5798	68.8477	81.3602	68.8477	81.6545	68.8477	81.3445	68.8477	81.7369	68.8477	81.3355	68.8477	81.824	68.8477	81.3321	68.8477	81.9121	68.8477	81.3336	68.8477	81.9967	68.8477	81.3398	68.8477	82.073	68.8477	81.3511	68.8477	82.1363	68.8477	81.3686	68.8477	82.1825	68.8477	81.3937	68.8477	82.2081	68.8477	81.428	68.8477	82.2115	68.8477	81.4728	68.8477	82.1924	68.8477	81.5291	68.8477	82.152	68.8477	81.5966	68.8477	82.0932	68.8477	81.6741	68.8477	82.0198	68.8477	81.759	68.8477	81.9364	68.8477	81.8479
71.7773	81.8175	71.7773	81.7732	71.7773	81.8725	71.7773	81.7391	71.7773	81.9381	71.7773	81.714	71.7773	82.0134	71.7773	81.6963	71.7773	82.0963	71.7773	81.6845	71.7773	82.1837	71.7773	81.6773	71.7773	82.2719	71.7773	81.6738	71.7773	82.3561	71.7773	81.6737	71.7773	82.4313	71.7773	81.6776	71.7773	82.4925	71.7773	81.6865	71.7773	82.5352	71.7773	81.7022	71.7773	82.5558	71.7773	81.7271	71.7773	82.5522	71.7773	81.7631	71.7773	82.5243	71.7773	81.8119	71.7773	82.4737	71.7773	81.8744	71.7773	82.4038	71.7773	81.9498	71.7773	82.3194	71.7773	82.0361	71.7773	82.2261	71.7773	82.1298
74.707	82.174	74.707	82.1283	74.707	82.2298	74.707	82.0921	74.707	82.2958	74.707	82.0641	74.707	82.3707	74.707	82.0428	74.707	82.4527	74.707	82.0264	74.707	82.5386	74.707	82.0134	74.707	82.6246	74.707	82.0029	74.707	82.7059	74.707	81.9946	74.707	82.7774	74.707	81.9889	74.707	82.8339	74.707	81.9873	74.707	82.8705	74.707	81.9919	74.707	82.8836	74.707	82.0056	74.707	82.8711	74.707	82.0312	74.707	82.8327	74.707	82.0713	74.707	82.7706	74.707	82.1275	74.707	82.6887	74.707	82.2	74.707	82.5926	74.707	82.2871	74.707	82.4892	74.707	82.3852
77.6367	82.5169	77.6367	82.4685	77.6367	82.5748	77.6367	82.4289	77.6367	82.642	77.6367	82.3969	77.6367	82.7175	77.6367	82.3707	77.6367	82.7992	77.6367	82.3486	77.6367	82.8841	77.6367	82.3292	77.6367	82.9682	77.6367	82.3112	77.6367	83.0469	77.6367	82.2945	77.6367	83.1147	77.6367	82.2795	77.6367	83.1665	77.6367	82.268	77.6367	83.1972	77.6367	82.2625	77.6367	83.203	77.6367	82.2662	77.6367	83.1817	77.6367	82.2829	77.6367	83.1331	77.6367	82.3159	77.6367	83.0595	77.6367	82.3675	77.6367	82.9656	77.6367	82.4386	77.6367	82.8578	77.6367	82.5277	77.6367	82.7438	77.6367	82.6314
79.1016	82.6654	79.1016	82.6154	79.1016	82.7245	79.1016	82.5739	79.1016	82.7925	79.1016	82.5397	79.1016	82.8684	79.1016	82.5109	79.1016	82.9501	79.1016	82.486	79.1016	83.0345	79.1016	82.4633	79.1016	83.1177	79.1016	82.4417	79.1016	83.1949	79.1016	82.4208	79.1016	83.2609	79.1016	82.4015	79.1016	83.3103	79.1016	82.3853	79.1016	83.3381	79.1016	82.375	79.1016	83.3403	79.1016	82.3741	79.1016	83.3147	79.1016	82.3867	79.1016	83.2611	79.1016	82.4165	79.1016	83.1821	79.1016	82.4662	79.1016	83.0825	79.1016	82.5368	79.1016	82.9691	79.1016	82.6271	79.1016	82.85	79.1016	82.7335
82.0312	82.9297	82.0312	82.8767	82.0312	82.9913	82.0312	82.8317	82.0312	83.0612	82.0312	82.7934	82.0312	83.1382	82.0312	82.7604	82.0312	83.2203	82.0312	82.7307	82.0312	83.3043	82.0312	82.7027	82.0312	83.3864	82.0312	82.6753	82.0312	83.4618	82.0312	82.6482	82.0312	83.5252	82.0312	82.6221	82.0312	83.5712	82.0312	82.5987	82.0312	83.5946	82.0312	82.5811	82.0312	83.5914	82.0312	82.5732	82.0312	83.5591	82.0312	82.5796	82.0312	83.4976	82.0312	82.6045	82.0312	83.4096	82.0312	82.6513	82.0312	83.3004	82.0312	82.7215	82.0312	83.1774	82.0312	82.8142	82.0312	83.0494	82.0312	82.9256
84.9609	83.1883	84.9609	83.1334	84.9609	83.2512	84.9609	83.0858	84.9609	83.3216	84.9609	83.0445	84.9609	83.3985	84.9609	83.0079	84.9609	83.4797	84.9609	82.9742	84.9609	83.5623	84.9609	82.9418	84.9609	83.6426	84.9609	82.9097	84.9609	83.7157	84.9609	82.8774	84.9609	83.7766	84.9609	82.8457	84.9609	83.8197	84.9609	82.8165	84.9609	83.8396	84.9609	82.793	84.9609	83.8323	84.9609	82.7795	84.9609	83.795	84.9609	82.7807	84.9609	83.7278	84.9609	82.8016	84.9609	83.6333	84.9609	82.8458	84.9609	83.5171	84.9609	82.9152	84.9609	83.3871	84.9609	83.0092	84.9609	83.2528	84.9609	83.1239
87.8906	83.4553	87.8906	83.399	87.8906	83.5191	87.8906	83.3499	87.8906	83.5901	87.8906	83.307	87.8906	83.6671	87.8906	83.2687	87.8906	83.748	87.8906	83.2334	87.8906	83.8301	87.8906	83.1995	87.8906	83.9096	87.8906	83.1659	87.8906	83.9822	87.8906	83.1321	87.8906	84.0428	87.8906	83.099	87.8906	84.086	87.8906	83.0685	87.8906	84.1063	87.8906	83.0439	87.8906	84.0994	87.8906	83.0293	87.8906	84.0624	87.8906	83.03	87.8906	83.995	87.8906	83.0507	87.8906	83.8995	87.8906	83.0955	87.8906	83.7815	87.8906	83.1663	87.8906	83.6491	87.8906	83.2624	87.8906	83.5118	87.8906	83.3799
90.8203	83.7523	90.8203	83.6933	90.8203	83.8176	90.8203	83.6404	90.8203	83.8886	90.8203	83.5929	90.8203	83.9643	90.8203	83.5494	90.8203	84.0425	90.8203	83.5084	90.8203	84.1208	90.8203	83.4685	90.8203	84.1959	90.8203	83.4286	90.8203	84.2635	90.8203	83.3883	90.8203	84.3191	90.8203	83.3485	90.8203	84.3573	90.8203	83.3112	90.8203	84.3728	90.8203	83.2799	90.8203	84.3611	90.8203	83.2591	90.8203	84.3191	90.8203	83.2541	90.8203	84.2461	90.8203	83.2704	90.8203	84.1445	90.8203	83.3124	90.8203	84.02	90.8203	83.3824	90.8203	83.881	90.8203	83.4798	90.8203	83.7376	90.8203	83.6006
95.2148	84.0891	95.2148	84.0267	95.2148	84.1558	95.2148	83.9688	95.2148	84.2263	95.2148	83.9146	95.2148	84.2992	95.2148	83.863	95.2148	84.3725	95.2148	83.8127	95.2148	84.444	95.2148	83.7621	95.2148	84.5103	95.2148	83.7101	95.2148	84.5678	95.2148	83.6566	95.2148	84.612	95.2148	83.6024	95.2148	84.6377	95.2148	83.5497	95.2148	84.6399	95.2148	83.5024	95.2148	84.6141	95.2148	83.4657	95.2148	84.5573	95.2148	83.4457	95.2148	84.469	95.2148	83.4488	95.2148	84.3522	95.2148	83.4805	95.2148	84.2131	95.2148	83.544	95.2148	84.0609	95.2148	83.6395	95.2148	83.9069	95.2148	83.763
98.1445	84.2611	98.1445	84.1959	98.1445	84.3297	98.1445	84.1343	98.1445	84.4007	98.1445	84.0756	98.1445	84.473	98.1445	84.019	98.1445	84.5446	98.1445	83.9631	98.1445	84.6133	98.1445	83.9066	98.1445	84.6761	98.1445	83.8484	98.1445	84.7295	98.1445	83.7884	98.1445	84.7692	98.1445	83.7276	98.1445	84.7903	98.1445	83.6683	98.1445	84.7877	98.1445	83.6146	98.1445	84.7568	98.1445	83.5719	98.1445	84.6944	98.1445	83.5468	98.1445	84.6002	98.1445	83.546	98.1445	84.477	98.1445	83.5755	98.1445	84.3311	98.1445	83.6387	98.1445	84.1721	98.1445	83.7358	98.1445	84.012	98.1445	83.8629
101.074	84.4206	101.074	84.3526	101.074	84.4903	101.074	84.2867	101.074	84.5609	101.074	84.2226	101.074	84.6309	101.074	84.1594	101.074	84.6986	101.074	84.0961	101.074	84.7619	101.074	84.0313	101.074	84.8181	101.074	83.9642	101.074	84.8642	101.074	83.8948	101.074	84.8961	101.074	83.8243	101.074	84.9092	101.074	83.7552	101.074	84.8986	101.074	83.6919	101.074	84.8597	101.074	83.6403	101.074	84.7894	101.074	83.6074	101.074	84.6872	101.074	83.6005	101.074	84.5558	101.074	83.6257	101.074	84.402	101.074	83.6871	101.074	84.2356	101.074	83.7848	101.074	84.0689	101.074	83.9149
105.469	84.6809	105.469	84.6108	105.469	84.7511	105.469	84.5414	105.469	84.8203	105.469	84.4725	105.469	84.8869	105.469	84.4035	105.469	84.9491	105.469	84.3331	105.469	85.0047	105.469	84.2601	105.469	85.0513	105.469	84.1837	105.469	85.0859	105.469	84.1038	105.469	85.1049	105.469	84.0216	105.469	85.1043	105.469	83.9398	105.469	85.0794	105.469	83.8632	105.469	85.0263	105.469	83.7979	105.469	84.9423	105.469	83.7516	105.469	84.8272	105.469	83.7321	105.469	84.6843	105.469	83.7466	105.469	84.5207	105.469	83.7996	105.469	84.3469	105.469	83.892	105.469	84.1755	105.469	84.02
108.398	84.7747	108.398	84.704	108.398	84.8466	108.398	84.6353	108.398	84.9187	108.398	84.5685	108.398	84.9891	108.398	84.5028	108.398	85.0559	108.398	84.4369	108.398	85.1168	108.398	84.3693	108.398	85.1692	108.398	84.2988	108.398	85.21	108.398	84.2251	108.398	85.2354	108.398	84.1492	108.398	85.2411	108.398	84.0734	108.398	85.2222	108.398	84.0024	108.398	85.1744	108.398	83.9421	108.398	85.0948	108.398	83.9002	108.398	84.9832	108.398	83.8843	108.398	84.8428	108.398	83.9017	108.398	84.6807	108.398	83.957	108.398	84.5076	108.398	84.0511	108.398	84.3363	108.398	84.1803
112.793	84.8376	112.793	84.7615	112.793	84.9144	112.793	84.6872	112.793	84.9899	112.793	84.6155	112.793	85.0623	112.793	84.5462	112.793	85.1298	112.793	84.4786	112.793	85.1905	112.793	84.4117	112.793	85.2426	112.793	84.3443	112.793	85.2839	112.793	84.276	112.793	85.3116	112.793	84.2076	112.793	85.3215	112.793	84.1412	112.793	85.3091	112.793	84.0807	112.793	85.2695	112.793	84.0318	112.793	85.1993	112.793	84.0013	112.793	85.0972	112.793	83.9964	112.793	84.9656	112.793	84.0234	112.793	84.8109	112.793	84.0865	112.793	84.6429	112.793	84.1861	112.793	84.4743	112.793	84.3182
117.188	84.947	117.188	84.8584	117.188	85.0328	117.188	84.7693	117.188	85.1137	117.188	84.6811	117.188	85.1875	117.188	84.5945	117.188	85.2521	117.188	84.5096	117.188	85.3063	117.188	84.426	117.188	85.3487	117.188	84.3431	117.188	85.3779	117.188	84.2609	117.188	85.3918	117.188	84.1804	117.188	85.3875	117.188	84.1041	117.188	85.3609	117.188	84.0359	117.188	85.3077	117.188	83.9815	117.188	85.2247	117.188	83.9479	117.188	85.1105	117.188	83.9421	117.188	84.9675	117.188	83.9706	117.188	84.8019	117.188	84.0371	117.188	84.6237	117.188	84.1421	117.188	84.4456	117.188	84.2811
120.117	85.094	120.117	84.9955	120.117	85.1869	120.117	84.8938	120.117	85.2718	120.117	84.7906	120.117	85.3465	120.117	84.6875	120.117	85.4093	120.117	84.585	120.117	85.459	120.117	84.4834	120.117	85.4946	120.117	84.3831	120.117	85.5151	120.117	84.2848	120.117	85.519	120.117	84.19	120.117	85.5035	120.117	84.1018	120.117	85.4652	120.117	84.0246	120.117	85.3999	120.117	83.9645	120.117	85.3046	120.117	83.9284	120.117	85.1781	120.117	83.9233	120.117	85.0227	120.117	83.9554	120.117	84.8449	120.117	84.0282	120.117	84.6549	120.117	84.1413	120.117	84.4653	120.117	84.29
124.512	85.4247	124.512	85.3322	124.512	85.5112	124.512	85.2356	124.512	85.5897	124.512	85.1363	124.512	85.6584	124.512	85.0353	124.512	85.7159	124.512	84.9332	124.512	85.7612	124.512	84.8301	124.512	85.7938	124.512	84.7266	124.512	85.8125	124.512	84.6236	124.512	85.8159	124.512	84.5234	124.512	85.801	124.512	84.4294	124.512	85.764	124.512	84.3468	124.512	85.7005	124.512	84.2821	124.512	85.6072	124.512	84.2426	124.512	85.4827	124.512	84.2355	124.512	85.3291	124.512	84.2665	124.512	85.1528	124.512	84.3389	124.512	84.9639	124.512	84.4519	124.512	84.7752	124.512	84.6004
128.906	85.416	128.906	85.323	128.906	85.5026	128.906	85.2258	128.906	85.5808	128.906	85.1263	128.906	85.6485	128.906	85.0253	128.906	85.7044	128.906	84.9236	128.906	85.7481	128.906	84.8213	128.906	85.7793	128.906	84.7186	128.906	85.7977	128.906	84.6165	128.906	85.8022	128.906	84.5173	128.906	85.7901	128.906	84.4245	128.906	85.7574	128.906	84.3435	128.906	85.6994	128.906	84.2808	128.906	85.6118	128.906	84.244	128.906	85.4926	128.906	84.2401	128.906	85.3434	128.906	84.2747	128.906	85.1701	128.906	84.3507	128.906	84.9827	128.906	84.4669	128.906	84.794	128.906	84.6179
133.301	85.5097	133.301	85.4071	133.301	85.6028	133.301	85.2978	133.301	85.6838	133.301	85.184	133.301	85.7503	133.301	85.0671	133.301	85.8007	133.301	84.948	133.301	85.8342	133.301	84.827	133.301	85.8507	133.301	84.7048	133.301	85.8506	133.301	84.5825	133.301	85.8334	133.301	84.4626	133.301	85.7976	133.301	84.3492	133.301	85.7402	133.301	84.2481	133.301	85.6575	133.301	84.1666	133.301	85.5459	133.301	84.113	133.301	85.404	133.301	84.0951	133.301	85.2341	133.301	84.1192	133.301	85.0426	133.301	84.1887	133.301	84.84	133.301	84.303	133.301	84.6399	133.301	84.4566
139.16	85.4568	139.16	85.3582	139.16	85.5486	139.16	85.2555	139.16	85.6309	139.16	85.1506	139.16	85.701	139.16	85.0447	139.16	85.7573	139.16	84.9377	139.16	85.7987	139.16	84.8293	139.16	85.8246	139.16	84.719	139.16	85.8347	139.16	84.6069	139.16	85.8277	139.16	84.4947	139.16	85.8008	139.16	84.3859	139.16	85.7502	139.16	84.2859	139.16	85.6714	139.16	84.2021	139.16	85.5607	139.16	84.1434	139.16	85.417	139.16	84.1183	139.16	85.2432	139.16	84.1345	139.16	85.0471	139.16	84.1965	139.16	84.8405	139.16	84.3049	139.16	84.6382	139.16	84.4553
143.555	85.3505	143.555	85.2444	143.555	85.4488	143.555	85.134	143.555	85.5357	143.555	85.0225	143.555	85.6083	143.555	84.9119	143.555	85.6648	143.555	84.8029	143.555	85.7051	143.555	84.6954	143.555	85.7295	143.555	84.5889	143.555	85.7388	143.555	84.4835	143.555	85.7327	143.555	84.3802	143.555	85.7096	143.555	84.282	143.555	85.6656	143.555	84.1939	143.555	85.596	143.555	84.1229	143.555	85.4963	143.555	84.0771	143.555	85.3643	143.555	84.0647	143.555	85.2018	143.555	84.0924	143.555	85.0153	143.555	84.1641	143.555	84.8156	143.555	84.2795	143.555	84.6168	143.555	84.4337
147.949	85.4116	147.949	85.2921	147.949	85.519	147.949	85.165	147.949	85.6106	147.949	85.0345	147.949	85.6837	147.949	84.9042	147.949	85.7374	147.949	84.777	147.949	85.7723	147.949	84.6543	147.949	85.7904	147.949	84.5376	147.949	85.7937	147.949	84.4279	147.949	85.7832	147.949	84.3272	147.949	85.7581	147.949	84.2386	147.949	85.7153	147.949	84.1665	147.949	85.6499	147.949	84.1165	147.949	85.5573	147.949	84.0948	147.949	85.4345	147.949	84.1072	147.949	85.2823	147.949	84.158	147.949	85.1059	147.949	84.2486	147.949	84.9148	147.949	84.3772	147.949	84.721	147.949	84.5378
153.809	85.5787	153.809	85.4637	153.809	85.6788	153.809	85.3377	153.809	85.7604	153.809	85.2045	153.809	85.8211	153.809	85.0669	153.809	85.8597	153.809	84.9274	153.809	85.8769	153.809	84.7875	153.809	85.8746	153.809	84.6487	153.809	85.8552	153.809	84.5131	153.809	85.8204	153.809	84.3841	153.809	85.7708	153.809	84.2666	153.809	85.7042	153.809	84.1669	153.809	85.6172	153.809	84.0924	153.809	85.5059	153.809	84.0504	153.809	85.3678	153.809	84.047	153.809	85.204	153.809	84.0861	153.809	85.0198	153.809	84.1683	153.809	84.8242	153.809	84.2909	153.809	84.6293	153.809	84.4477
159.668	85.3533	159.668	85.2452	159.668	85.4504	159.668	85.1296	159.668	85.5327	159.668	85.0096	159.668	85.5975	159.668	84.8871	159.668	85.643	159.668	84.763	159.668	85.6687	159.668	84.637	159.668	85.6752	159.668	84.5091	159.668	85.6631	159.668	84.3795	159.668	85.6322	159.668	84.2502	159.668	85.5807	159.668	84.1252	159.668	85.5055	159.668	84.0103	159.668	85.4025	159.668	83.9136	159.668	85.2687	159.668	83.8435	159.668	85.1041	159.668	83.8084	159.668	84.913	159.668	83.8152	159.668	84.7044	159.668	83.8679	159.668	84.4914	159.668	83.9673	159.668	84.2885	159.668	84.11
165.527	85.0517	165.527	84.9329	165.527	85.1599	165.527	84.809	165.527	85.2526	165.527	84.6852	165.527	85.3263	165.527	84.5654	165.527	85.3797	165.527	84.4515	165.527	85.4134	165.527	84.3436	165.527	85.4294	165.527	84.2404	165.527	85.4295	165.527	84.1407	165.527	85.414	165.527	84.0439	165.527	85.3811	165.527	83.9514	165.527	85.3261	165.527	83.8665	165.527	85.2433	165.527	83.7949	165.527	85.1279	165.527	83.7437	165.527	84.9785	165.527	83.7206	165.527	84.7989	165.527	83.733	165.527	84.5987	165.527	83.7861	165.527	84.3919	165.527	83.8825	165.527	84.1943	165.527	84.0207
171.387	84.9907	171.387	84.8401	171.387	85.1234	171.387	84.6779	171.387	85.2328	171.387	84.5102	171.387	85.315	171.387	84.3422	171.387	85.3683	171.387	84.1779	171.387	85.3934	171.387	84.02	171.387	85.3925	171.387	83.8703	171.387	85.3692	171.387	83.7304	171.387	85.3261	171.387	83.6024	171.387	85.2643	171.387	83.4896	171.387	85.182	171.387	83.3964	171.387	85.0751	171.387	83.3285	171.387	84.9394	171.387	83.2917	171.387	84.7726	171.387	83.2919	171.387	84.577	171.387	83.3332	171.387	84.3601	171.387	83.4182	171.387	84.1342	171.387	83.5465	171.387	83.9142	171.387	83.7144
177.246	84.7808	177.246	84.6126	177.246	84.9369	177.246	84.4398	177.246	85.0753	177.246	84.2697	177.246	85.1922	177.246	84.1083	177.246	85.2866	177.246	83.9597	177.246	85.3591	177.246	83.8254	177.246	85.4115	177.246	83.7051	177.246	85.4442	177.246	83.5977	177.246	85.4559	177.246	83.5029	177.246	85.4423	177.246	83.4215	177.246	85.3966	177.246	83.3565	177.246	85.3118	177.246	83.3126	177.246	85.1827	177.246	83.2961	177.246	85.0082	177.246	83.3134	177.246	84.7934	177.246	83.3707	177.246	84.5494	177.246	83.4725	177.246	84.2924	177.246	83.6206	177.246	84.0411	177.246	83.8127
183.105	84.5121	183.105	84.3076	183.105	84.6886	183.105	84.0828	183.105	84.8328	183.105	83.8485	183.105	84.9453	183.105	83.6164	183.105	85.0304	183.105	83.3986	183.105	85.0957	183.105	83.2054	183.105	85.1496	183.105	83.0449	183.105	85.1987	183.105	82.9226	183.105	85.2446	183.105	82.8417	183.105	85.2826	183.105	82.8038	183.105	85.3021	183.105	82.8091	183.105	85.2897	183.105	82.8572	183.105	85.2325	183.105	82.9473	183.105	85.1221	183.105	83.0781	183.105	84.957	183.105	83.2477	183.105	84.7432	183.105	83.4531	183.105	84.4931	183.105	83.6899	183.105	84.2232	183.105	83.9504
188.965	84.7244	188.965	84.5473	188.965	84.8579	188.965	84.3314	188.965	84.9465	188.965	84.0846	188.965	84.9937	188.965	83.8169	188.965	85.0077	188.965	83.5398	188.965	85.0006	188.965	83.2656	188.965	84.9868	188.965	83.0076	188.965	84.9793	188.965	82.7796	188.965	84.9856	188.965	82.5958	188.965	85.0046	188.965	82.4694	188.965	85.0258	188.965	82.4112	188.965	85.0321	188.965	82.4275	188.965	85.0046	188.965	82.5188	188.965	84.9273	188.965	82.6792	188.965	84.7916	188.965	82.8983	188.965	84.5971	188.965	83.1623	188.965	84.3514	188.965	83.4561	188.965	84.068	188.965	83.7637
196.289	84.8811	196.289	84.7593	196.289	84.9583	196.289	84.5971	196.289	84.9896	196.289	84.4012	196.289	84.9777	196.289	84.1797	196.289	84.9298	196.289	83.942	196.289	84.858	196.289	83.6979	196.289	84.7778	196.289	83.4581	196.289	84.7058	196.289	83.2338	196.289	84.6549	196.289	83.0372	196.289	84.6304	196.289	82.881	196.289	84.6277	196.289	82.7776	196.289	84.6328	196.289	82.7374	196.289	84.6267	196.289	82.7666	196.289	84.5907	196.289	82.8653	196.289	84.5107	196.289	83.0266	196.289	84.3802	196.289	83.2373	196.289	84.2006	196.289	83.4798	196.289	83.9805	196.289	83.7342
203.613	84.6666	203.613	84.5471	203.613	84.7375	203.613	84.3836	203.613	84.7574	203.613	84.1823	203.613	84.7277	203.613	83.9506	203.613	84.6544	203.613	83.6971	203.613	84.5488	203.613	83.4315	203.613	84.4274	203.613	83.1655	203.613	84.3092	203.613	82.9123	203.613	84.2114	203.613	82.6873	203.613	84.1438	203.613	82.5061	203.613	84.1046	203.613	82.3832	203.613	84.0815	203.613	82.3288	203.613	84.0552	203.613	82.347	203.613	84.0069	203.613	82.4342	203.613	83.9228	203.613	82.5804	203.613	83.7969	203.613	82.7703	203.613	83.6309	203.613	82.9869	203.613	83.4324	203.613	83.213
210.938	84.6458	210.938	84.5353	210.938	84.7085	210.938	84.3819	210.938	84.7193	210.938	84.1912	210.938	84.6773	210.938	83.9688	210.938	84.5855	210.938	83.7198	210.938	84.4522	210.938	83.4505	210.938	84.291	210.938	83.1683	210.938	84.1193	210.938	82.8838	210.938	83.9549	210.938	82.6104	210.938	83.811	210.938	82.3648	210.938	83.692	210.938	82.165	210.938	83.5927	210.938	82.0275	210.938	83.5004	210.938	81.9634	210.938	83.4005	210.938	81.9756	210.938	83.281	210.938	82.058	210.938	83.1358	210.938	82.197	210.938	82.9649	210.938	82.3747	210.938	82.7739	210.938	82.5726
218.262	84.481	218.262	84.3896	218.262	84.5328	218.262	84.2635	218.262	84.5409	218.262	84.1074	218.262	84.5039	218.262	83.9252	218.262	84.4242	218.262	83.7199	218.262	84.3091	218.262	83.4942	218.262	84.1703	218.262	83.2516	218.262	84.0222	218.262	82.9978	218.262	83.8781	218.262	82.7417	218.262	83.7459	218.262	82.4955	218.262	83.6252	218.262	82.2742	218.262	83.5078	218.262	82.0938	218.262	83.3815	218.262	81.9688	218.262	83.2358	218.262	81.9084	218.262	83.0658	218.262	81.9153	218.262	82.8743	218.262	81.9853	218.262	82.6699	218.262	82.1088	218.262	82.4649	218.262	82.2732
225.586	83.8789	225.586	83.8226	225.586	83.909	225.586	83.7476	225.586	83.9072	225.586	83.6604	225.586	83.8721	225.586	83.5649	225.586	83.8089	225.586	83.4626	225.586	83.7306	225.586	83.3531	225.586	83.6567	225.586	83.2365	225.586	83.6082	225.586	83.1144	225.586	83.5999	225.586	82.9917	225.586	83.6336	225.586	82.8763	225.586	83.695	225.586	82.778	225.586	83.7584	225.586	82.7069	225.586	83.7958	225.586	82.6715	225.586	83.786	225.586	82.6772	225.586	83.7201	225.586	82.726	225.586	83.6022	225.586	82.8164	225.586	83.4465	225.586	82.9435	225.586	83.2725	225.586	83.0995
232.91	83.5092	232.91	83.3219	232.91	83.6377	232.91	83.1017	232.91	83.6867	232.91	82.8764	232.91	83.6438	232.91	82.6711	232.91	83.5078	232.91	82.5047	232.91	83.2924	232.91	82.3872	232.91	83.0284	232.91	82.3198	232.91	82.7642	232.91	82.2972	232.91	82.5574	232.91	82.312	232.91	82.4582	232.91	82.3576	232.91	82.4876	232.91	82.4297	232.91	82.6284	232.91	82.526	232.91	82.8349	232.91	82.6445	232.91	83.0535	232.91	82.7815	232.91	83.2399	232.91	82.9306	232.91	83.3665	232.91	83.0821	232.91	83.4221	232.91	83.2228	232.91	83.4087	232.91	83.3372
241.699	84.2806	241.699	84.0459	241.699	84.4384	241.699	83.7522	241.699	84.505	241.699	83.4197	241.699	84.4712	241.699	83.0698	241.699	84.3344	241.699	82.7248	241.699	84.1009	241.699	82.407	241.699	83.7888	241.699	82.1388	241.699	83.4309	241.699	81.9417	241.699	83.0754	241.699	81.8332	241.699	82.7795	241.699	81.8225	241.699	82.5933	241.699	81.9067	241.699	82.5401	241.699	82.0703	241.699	82.606	241.699	82.2875	241.699	82.7489	241.699	82.5283	241.699	82.9189	241.699	82.7633	241.699	83.0736	241.699	82.9673	241.699	83.1837	241.699	83.1209	241.699	83.2322	241.699	83.2114
250.488	84.2693	250.488	83.992	250.488	84.4545	250.488	83.6367	250.488	84.537	250.488	83.2207	250.488	84.5109	250.488	82.7645	250.488	84.3754	250.488	82.2902	250.488	84.1361	250.488	81.8221	250.488	83.8074	250.488	81.3863	250.488	83.414	250.488	81.0109	250.488	82.9915	250.488	80.7244	250.488	82.5826	250.488	80.5508	250.488	82.2297	250.488	80.5029	250.488	81.9631	250.488	80.5749	250.488	81.793	250.488	80.7419	250.488	81.7097	250.488	80.9651	250.488	81.6902	250.488	81.202	250.488	81.706	250.488	81.4155	250.488	81.7278	250.488	81.58	250.488	81.7279	250.488	81.6833
259.277	84.9954	259.277	84.7529	259.277	85.1536	259.277	84.4359	259.277	85.219	259.277	84.0551	259.277	85.185	259.277	83.6222	259.277	85.048	259.277	83.1507	259.277	84.8087	259.277	82.6572	259.277	84.4744	259.277	82.1628	259.277	84.0614	259.277	81.6947	259.277	83.5969	259.277	81.2851	259.277	83.1197	259.277	80.9674	259.277	82.6762	259.277	80.7678	259.277	82.3091	259.277	80.6963	259.277	82.0439	259.277	80.7412	259.277	81.8794	259.277	80.873	259.277	81.7914	259.277	81.053	259.277	81.7447	259.277	81.2437	259.277	81.7054	259.277	81.416	259.277	81.6467	259.277	81.5522
268.066	84.9301	268.066	84.7054	268.066	85.0859	268.066	84.4231	268.066	85.1632	268.066	84.0946	268.066	85.1559	268.066	83.731	268.066	85.062	268.066	83.3426	268.066	84.8852	268.066	82.9398	268.066	84.6355	268.066	82.5356	268.066	84.3296	268.066	82.1477	268.066	83.99	268.066	81.8	268.066	83.6438	268.066	81.5199	268.066	83.3179	268.066	81.3324	268.066	83.034	268.066	81.2512	268.066	82.803	268.066	81.2724	268.066	82.6237	268.066	81.3749	268.066	82.4848	268.066	81.5283	268.066	82.3701	268.066	81.7013	268.066	82.2635	268.066	81.8702	268.066	82.1506	268.066	82.0211
276.855	84.2998	276.855	84.06	276.855	84.4579	276.855	83.7515	276.855	84.524	276.855	83.3889	276.855	84.4918	276.855	82.9875	276.855	84.3603	276.855	82.5629	276.855	84.1357	276.855	82.1324	276.855	83.833	276.855	81.7169	276.855	83.4778	276.855	81.3427	276.855	83.1053	276.855	81.0423	276.855	82.7571	276.855	80.8499	276.855	82.473	276.855	80.7903	276.855	82.2803	276.855	80.8674	276.855	82.1853	276.855	81.0584	276.855	82.1722	276.855	81.3208	276.855	82.2102	276.855	81.6053	276.855	82.2638	276.855	81.8684	276.855	82.2999	276.855	82.0793	276.855	82.292	276.855	82.2215
287.109	84.2493	287.109	83.9685	287.109	84.4497	287.109	83.6207	287.109	84.5581	287.109	83.2201	287.109	84.566	287.109	82.7797	287.109	84.469	287.109	82.3098	287.109	84.2672	287.109	81.8184	287.109	83.9666	287.109	81.3143	287.109	83.5808	287.109	80.8125	287.109	83.1328	287.109	80.3412	287.109	82.6566	287.109	79.9446	287.109	82.196	287.109	79.6761	287.109	81.7984	287.109	79.578	287.109	81.5014	287.109	79.6577	287.109	81.3181	287.109	79.8792	287.109	81.2295	287.109	80.1781	287.109	81.1935	287.109	80.4883	287.109	81.1619	287.109	80.7595	287.109	81.0942	287.109	80.9638
297.363	84.7254	297.363	84.4888	297.363	84.8718	297.363	84.167	297.363	84.924	297.363	83.7663	297.363	84.8803	297.363	83.2946	297.363	84.7417	297.363	82.7623	297.363	84.512	297.363	82.1838	297.363	84.1987	297.363	81.5789	297.363	83.8125	297.363	80.9738	297.363	83.368	297.363	80.4018	297.363	82.8841	297.363	79.9032	297.363	82.3848	297.363	79.5218	297.363	81.9006	297.363	79.2959	297.363	81.4661	297.363	79.2431	297.363	81.1128	297.363	79.348	297.363	80.8562	297.363	79.5634	297.363	80.6854	297.363	79.8269	297.363	80.5641	297.363	80.0815	297.363	80.4457	297.363	80.2908
307.617	84.4435	307.617	84.2444	307.617	84.5778	307.617	83.9916	307.617	84.6374	307.617	83.6949	307.617	84.6166	307.617	83.3605	307.617	84.5151	307.617	82.9908	307.617	84.3389	307.617	82.5877	307.617	84.0998	307.617	82.1573	307.617	83.8139	307.617	81.7157	307.617	83.5006	307.617	81.2918	307.617	83.1793	307.617	80.9256	307.617	82.867	307.617	80.6587	307.617	82.5764	307.617	80.5204	307.617	82.3164	307.617	80.5153	307.617	82.093	307.617	80.6216	307.617	81.9099	307.617	80.8	307.617	81.7644	307.617	81.0076	307.617	81.6427	307.617	81.2086	307.617	81.5225	307.617	81.3817
319.336	83.63	319.336	83.419	319.336	83.7576	319.336	83.1386	319.336	83.7913	319.336	82.8035	319.336	83.7257	319.336	82.4269	319.336	83.562	319.336	82.0187	319.336	83.3089	319.336	81.5867	319.336	82.9835	319.336	81.1405	319.336	82.6109	319.336	80.6977	319.336	82.2225	319.336	80.2897	319.336	81.8524	319.336	79.9611	319.336	81.5321	319.336	79.7605	319.336	81.2859	319.336	79.7201	319.336	81.1266	319.336	79.8376	319.336	81.0525	319.336	80.0726	319.336	81.0469	319.336	80.3636	319.336	81.08	319.336	80.649	319.336	81.1136	319.336	80.8821	319.336	81.1094	319.336	81.0371
329.59	83.8047	329.59	83.5727	329.59	83.9451	329.59	83.2644	329.59	83.9824	329.59	82.8956	329.59	83.9103	329.59	82.4801	329.59	83.7289	329.59	82.0266	329.59	83.4452	329.59	81.5398	329.59	83.0742	329.59	81.0252	329.59	82.639	329.59	80.4968	329.59	82.1712	329.59	79.9869	329.59	81.7084	329.59	79.5491	329.59	81.2897	329.59	79.2506	329.59	80.948	329.59	79.1452	329.59	80.7038	329.59	79.2421	329.59	80.562	329.59	79.4945	329.59	80.5124	329.59	79.8212	329.59	80.5293	329.59	80.1396	329.59	80.572	329.59	80.3889	329.59	80.5906	329.59	80.5389
341.309	83.8031	341.309	83.5527	341.309	83.9619	341.309	83.2265	341.309	84.0173	341.309	82.842	341.309	83.9623	341.309	82.4159	341.309	83.7958	341.309	81.9607	341.309	83.5222	341.309	81.4826	341.309	83.153	341.309	80.9834	341.309	82.7068	341.309	80.4679	341.309	82.2102	341.309	79.9539	341.309	81.6981	341.309	79.4806	341.309	81.2117	341.309	79.1072	341.309	80.7922	341.309	78.8954	341.309	80.4709	341.309	78.8772	341.309	80.2594	341.309	79.0321	341.309	80.1479	341.309	79.294	341.309	80.1083	341.309	79.5813	341.309	80.0995	341.309	79.8263	341.309	80.0749	341.309	79.9921
353.027	83.8051	353.027	83.5225	353.027	83.9766	353.027	83.1458	353.027	84.0248	353.027	82.6954	353.027	83.9439	353.027	82.1929	353.027	83.7359	353.027	81.6596	353.027	83.4112	353.027	81.1156	353.027	82.9884	353.027	80.5789	353.027	82.4926	353.027	80.067	353.027	81.9533	353.027	79.6024	353.027	81.4032	353.027	79.2177	353.027	80.8804	353.027	78.9564	353.027	80.4324	353.027	78.8603	353.027	80.1105	353.027	78.945	353.027	79.9503	353.027	79.181	353.027	79.9466	353.027	79.5004	353.027	80.0468	353.027	79.8221	353.027	80.1722	353.027	80.0771	353.027	80.248	353.027	80.223
366.211	84.0185	366.211	83.7694	366.211	84.1726	366.211	83.4397	366.211	84.2203	366.211	83.0427	366.211	84.1544	366.211	82.5882	366.211	83.9731	366.211	82.0796	366.211	83.6805	366.211	81.5163	366.211	83.2874	366.211	80.8998	366.211	82.8118	366.211	80.2426	366.211	82.2787	366.211	79.5777	366.211	81.7182	366.211	78.9627	366.211	81.1607	366.211	78.4732	366.211	80.6323	366.211	78.1774	366.211	80.1546	366.211	78.1025	366.211	79.75	366.211	78.2168	366.211	79.4438	366.211	78.4442	366.211	79.2518	366.211	78.6978	366.211	79.1583	366.211	78.9087	366.211	79.1108	366.211	79.0434
379.395	83.57	379.395	83.315	379.395	83.7173	379.395	82.9681	379.395	83.7463	379.395	82.5476	379.395	83.6521	379.395	82.0709	379.395	83.4372	379.395	81.5507	379.395	83.1108	379.395	80.9941	379.395	82.6897	379.395	80.4067	379.395	82.1965	379.395	79.8031	379.395	81.6596	379.395	79.2202	379.395	81.1131	379.395	78.7257	379.395	80.5985	379.395	78.4075	379.395	80.1622	379.395	78.3339	379.395	79.847	379.395	78.5058	379.395	79.678	379.395	78.8484	379.395	79.6529	379.395	79.2513	379.395	79.7374	379.395	79.6145	379.395	79.8699	379.395	79.8707	379.395	79.9758	379.395	79.9893
392.578	83.6632	392.578	83.4086	392.578	83.8114	392.578	83.0602	392.578	83.8441	392.578	82.6335	392.578	83.7558	392.578	82.1447	392.578	83.5456	392.578	81.6088	392.578	83.2187	392.578	81.0368	392.578	82.7885	392.578	80.4355	392.578	82.2794	392.578	79.8125	392.578	81.7254	392.578	79.1855	392.578	81.1643	392.578	78.5935	392.578	80.6295	392.578	78.1002	392.578	80.1436	392.578	77.7795	392.578	79.7206	392.578	77.6788	392.578	79.3712	392.578	77.7839	392.578	79.106	392.578	78.0216	392.578	78.9304	392.578	78.2957	392.578	78.8312	392.578	78.5282	392.578	78.7677	392.578	78.6822
405.762	83.3717	405.762	83.1072	405.762	83.5311	405.762	82.7525	405.762	83.5727	405.762	82.3226	405.762	83.4879	405.762	81.8309	405.762	83.2741	405.762	81.287	405.762	82.9367	405.762	80.6973	405.762	82.4901	405.762	80.069	405.762	81.9587	405.762	79.4184	405.762	81.3765	405.762	78.7837	405.762	80.7868	405.762	78.2347	405.762	80.2412	405.762	77.8663	405.762	79.7945	405.762	77.7595	405.762	79.4931	405.762	77.9265	405.762	79.3579	405.762	78.2932	405.762	79.3718	405.762	78.7404	405.762	79.48	405.762	79.1577	405.762	79.6074	405.762	79.4709	405.762	79.6809	405.762	79.6453
420.41	83.2744	420.41	83.0352	420.41	83.3996	420.41	82.6932	420.41	83.4044	420.41	82.2634	420.41	83.2873	420.41	81.7627	420.41	83.0527	420.41	81.207	420.41	82.7128	420.41	80.6103	420.41	82.2895	420.41	79.985	420.41	81.8127	420.41	79.347	420.41	81.3122	420.41	78.7218	420.41	80.8049	420.41	78.151	420.41	80.2897	420.41	77.6939	420.41	79.7634	420.41	77.4181	420.41	79.2507	420.41	77.3705	420.41	78.8191	420.41	77.5417	420.41	78.5497	420.41	77.8549	420.41	78.4719	420.41	78.1975	420.41	78.5277	420.41	78.4672	420.41	78.6061	420.41	78.6045
435.059	83.5997	435.059	83.3262	435.059	83.7523	435.059	82.9521	435.059	83.7673	435.059	82.4976	435.059	83.6343	435.059	81.9798	435.059	83.3523	435.059	81.4096	435.059	82.9325	435.059	80.7924	435.059	82.4018	435.059	80.1336	435.059	81.8029	435.059	79.4491	435.059	81.1874	435.059	78.7819	435.059	80.6025	435.059	78.2153	435.059	80.0795	435.059	77.8641	435.059	79.636	435.059	77.8201	435.059	79.2929	435.059	78.0812	435.059	79.0894	435.059	78.5403	435.059	79.0669	435.059	79.0485	435.059	79.2222	435.059	79.4787	435.059	79.4775	435.059	79.7489	435.059	79.7131	435.059	79.8235
451.172	83.601	451.172	83.3434	451.172	83.7665	451.172	83.0197	451.172	83.8193	451.172	82.6531	451.172	83.7482	451.172	82.2523	451.172	83.5524	451.172	81.8049	451.172	83.2395	451.172	81.282	451.172	82.8238	451.172	80.6539	451.172	82.3242	451.172	79.9117	451.172	81.7637	451.172	79.092	451.172	81.1711	451.172	78.3012	451.172	80.5819	451.172	77.7146	451.172	80.0352	451.172	77.5043	451.172	79.5701	451.172	77.7057	451.172	79.2299	451.172	78.1819	451.172	79.0639	451.172	78.7339	451.172	79.0967	451.172	79.2041	451.172	79.2777	451.172	79.5	451.172	79.4844	451.172	79.5863
465.82	83.8566	465.82	83.6203	465.82	83.9588	465.82	83.2685	465.82	83.9149	465.82	82.8233	465.82	83.7225	465.82	82.3058	465.82	83.3896	465.82	81.7302	465.82	82.9372	465.82	81.0981	465.82	82.4006	465.82	80.3978	465.82	81.8274	465.82	79.6138	465.82	81.2651	465.82	78.7484	465.82	80.7402	465.82	77.8553	465.82	80.2451	465.82	77.0721	465.82	79.7516	465.82	76.6074	465.82	79.2426	465.82	76.6105	465.82	78.7456	465.82	77.0138	465.82	78.3459	465.82	77.5795	465.82	78.147	465.82	78.0773	465.82	78.1755	465.82	78.375	465.82	78.3289	465.82	78.4401
483.398	83.4971	483.398	83.1551	483.398	83.6917	483.398	82.7041	483.398	83.7202	483.398	82.2005	483.398	83.58	483.398	81.7036	483.398	83.2796	483.398	81.2464	483.398	82.8375	483.398	80.8141	483.398	82.2847	483.398	80.3509	483.398	81.6664	483.398	79.7935	483.398	81.0385	483.398	79.1087	483.398	80.4541	483.398	78.3268	483.398	79.9446	483.398	77.5699	483.398	79.5148	483.398	77.0496	483.398	79.1583	483.398	76.9595	483.398	78.8836	483.398	77.2999	483.398	78.7233	483.398	77.8654	483.398	78.7082	483.398	78.4181	483.398	78.8148	483.398	78.8053	483.398	78.9448	483.398	78.9723
499.512	83.4012	499.512	83.1664	499.512	83.5228	499.512	82.8423	499.512	83.5087	499.512	82.447	499.512	83.3437	499.512	81.9885	499.512	83.0228	499.512	81.4678	499.512	82.5523	499.512	80.8842	499.512	81.9519	499.512	80.2402	499.512	81.2597	499.512	79.5414	499.512	80.5423	499.512	78.7995	499.512	79.8954	499.512	78.0472	499.512	79.4127	499.512	77.37	499.512	79.1245	499.512	76.9236	499.512	78.971	499.512	76.8682	499.512	78.8637	499.512	77.2157	499.512	78.7692	499.512	77.784	499.512	78.7254	499.512	78.338	499.512	78.7699	499.512	78.7198	499.512	78.8595	499.512	78.8792
517.09	83.1651	517.09	82.786	517.09	83.3536	517.09	82.2599	517.09	83.3429	517.09	81.668	517.09	83.1488	517.09	81.1102	517.09	82.8008	517.09	80.6558	517.09	82.3354	517.09	80.2983	517.09	81.7909	517.09	79.9601	517.09	81.2064	517.09	79.5409	517.09	80.6188	517.09	78.9627	517.09	80.0587	517.09	78.1977	517.09	79.539	517.09	77.301	517.09	79.0479	517.09	76.4663	517.09	78.5613	517.09	76.0258	517.09	78.0911	517.09	76.2096	517.09	77.7362	517.09	76.852	517.09	77.642	517.09	77.5669	517.09	77.8287	517.09	78.0683	517.09	78.1102	517.09	78.2411
536.133	84.0637	536.133	83.625	536.133	84.2761	536.133	83.001	536.133	84.2458	536.133	82.2595	536.133	83.9748	536.133	81.484	536.133	83.4784	536.133	80.7455	536.133	82.7854	536.133	80.0712	536.133	81.9452	536.133	79.439	536.133	81.0457	536.133	78.8065	536.133	80.231	536.133	78.1495	536.133	79.6708	536.133	77.4928	536.133	79.4409	536.133	76.9295	536.133	79.4256	536.133	76.6139	536.133	79.4055	536.133	76.6814	536.133	79.2273	536.133	77.1137	536.133	78.8982	536.133	77.7174	536.133	78.5801	536.133	78.2584	536.133	78.4583	536.133	78.5811	536.133	78.5412	536.133	78.6466
555.176	84.4654	555.176	84.1264	555.176	84.6214	555.176	83.6131	555.176	84.5916	555.176	82.949	555.176	84.374	555.176	82.179	555.176	83.9643	555.176	81.3674	555.176	83.3564	555.176	80.5799	555.176	82.5462	555.176	79.8542	555.176	81.5469	555.176	79.1796	555.176	80.4249	555.176	78.5096	555.176	79.3555	555.176	77.8055	555.176	78.6249	555.176	77.0958	555.176	78.4282	555.176	76.5309	555.176	78.6339	555.176	76.3542	555.176	78.9314	555.176	76.6947	555.176	79.119	555.176	77.385	555.176	79.1718	555.176	78.1153	555.176	79.1564	555.176	78.6685	555.176	79.1111	555.176	78.9821
574.219	85.1044	574.219	84.698	574.219	85.2588	574.219	84.062	574.219	85.1627	574.219	83.2469	574.219	84.8371	574.219	82.3357	574.219	84.3157	574.219	81.4426	574.219	83.6366	574.219	80.6873	574.219	82.8334	574.219	80.1343	574.219	81.9317	574.219	79.7426	574.219	80.9606	574.219	79.39	574.219	79.9859	574.219	78.9532	574.219	79.1494	574.219	78.3786	574.219	78.6398	574.219	77.7375	574.219	78.5289	574.219	77.2617	574.219	78.6716	574.219	77.2353	574.219	78.8638	574.219	77.6884	574.219	79.0147	574.219	78.3318	574.219	79.1308	574.219	78.8611	574.219	79.2011	574.219	79.1439
594.727	84.9654	594.727	84.7124	594.727	84.9978	594.727	84.2283	594.727	84.8285	594.727	83.5248	594.727	84.4773	594.727	82.6503	594.727	83.9618	594.727	81.6914	594.727	83.2941	594.727	80.7487	594.727	82.4745	594.727	79.8893	594.727	81.4915	594.727	79.1189	594.727	80.3385	594.727	78.4118	594.727	79.0688	594.727	77.7776	594.727	77.8989	594.727	77.3064	594.727	77.2549	594.727	77.1469	594.727	77.4305	594.727	77.3919	594.727	78.1573	594.727	77.9649	594.727	78.9471	594.727	78.6623	594.727	79.5342	594.727	79.2889	594.727	79.8753	594.727	79.7339	594.727	80.0114	594.727	79.9688
615.234	84.652	615.234	84.3814	615.234	84.6817	615.234	83.8908	615.234	84.4791	615.234	83.2248	615.234	84.0831	615.234	82.4437	615.234	83.5531	615.234	81.6144	615.234	82.948	615.234	80.7946	615.234	82.302	615.234	80.0146	615.234	81.6064	615.234	79.2676	615.234	80.8048	615.234	78.5205	615.234	79.8098	615.234	77.7516	615.234	78.5638	615.234	77.0203	615.234	77.1962	615.234	76.5478	615.234	76.2656	615.234	76.6503	615.234	76.4537	615.234	77.385	615.234	77.5121	615.234	78.4133	615.234	78.6818	615.234	79.3499	615.234	79.5757	615.234	79.9827	615.234	80.0993	615.234	80.2368
637.207	85.1123	637.207	84.81	637.207	85.1729	637.207	84.279	637.207	84.9966	637.207	83.5535	637.207	84.605	637.207	82.6883	637.207	84.0319	637.207	81.7546	637.207	83.3157	637.207	80.8297	637.207	82.4888	637.207	79.9831	637.207	81.5761	637.207	79.2492	637.207	80.602	637.207	78.6005	637.207	79.5935	637.207	77.9567	637.207	78.561	637.207	77.2508	637.207	77.4886	637.207	76.5462	637.207	76.4272	637.207	76.1461	637.207	75.7055	637.207	76.4176	637.207	75.8264	637.207	77.2667	637.207	76.7243	637.207	78.191	637.207	77.7886	637.207	78.7988	637.207	78.5817	637.207	78.9357
659.18	84.5957	659.18	84.4237	659.18	84.5437	659.18	84.0359	659.18	84.2861	659.18	83.455	659.18	83.868	659.18	82.7086	659.18	83.3454	659.18	81.8345	659.18	82.7655	659.18	80.8979	659.18	82.1579	659.18	79.9951	659.18	81.5339	659.18	79.2161	659.18	80.8835	659.18	78.5783	659.18	80.1727	659.18	78.0091	659.18	79.3545	659.18	77.4241	659.18	78.4097	659.18	76.8516	659.18	77.4226	659.18	76.5131	659.18	76.6681	659.18	76.6846	659.18	76.5261	659.18	77.3348	659.18	77.0594	659.18	78.1054	659.18	77.8715	659.18	78.6569	659.18	78.5319	659.18	78.8147
682.617	84.8149	682.617	84.4923	682.617	84.8279	682.617	83.8745	682.617	84.5541	682.617	83.026	682.617	84.0393	682.617	82.0596	682.617	83.3432	682.617	81.1019	682.617	82.5336	682.617	80.236	682.617	81.6797	682.617	79.4725	682.617	80.8421	682.617	78.7788	682.617	80.0579	682.617	78.1218	682.617	79.3318	682.617	77.484	682.617	78.6452	682.617	76.8787	682.617	77.972	682.617	76.4123	682.617	77.3141	682.617	76.3453	682.617	76.8296	682.617	76.9093	682.617	76.9188	682.617	77.9362	682.617	77.7449	682.617	78.9778	682.617	78.8265	682.617	79.694	682.617	79.629	682.617	79.9287
707.52	85.5905	707.52	85.3725	707.52	85.481	707.52	84.8277	707.52	85.0657	707.52	83.9756	707.52	84.3928	707.52	82.8673	707.52	83.5326	707.52	81.612	707.52	82.5618	707.52	80.3812	707.52	81.5488	707.52	79.3439	707.52	80.5465	707.52	78.5584	707.52	79.5877	707.52	77.9539	707.52	78.6893	707.52	77.4166	707.52	77.8653	707.52	76.8691	707.52	77.123	707.52	76.3413	707.52	76.4341	707.52	76.073	707.52	75.8393	707.52	76.4288	707.52	75.7426	707.52	77.4018	707.52	76.6038	707.52	78.5109	707.52	77.9769	707.52	79.2992	707.52	79.0687	707.52	79.5211
732.422	85.2519	732.422	85.1095	732.422	85.0558	732.422	84.6194	732.422	84.5734	732.422	83.8228	732.422	83.8865	732.422	82.8206	732.422	83.0807	732.422	81.7738	732.422	82.2139	732.422	80.8615	732.422	81.3122	732.422	80.183	732.422	80.4008	732.422	79.686	732.422	79.5358	732.422	79.2176	732.422	78.7855	732.422	78.6301	732.422	78.1657	732.422	77.852	732.422	77.6216	732.422	76.96	732.422	77.0915	732.422	76.2791	732.422	76.5745	732.422	76.2424	732.422	76.1878	732.422	76.8213	732.422	76.1765	732.422	77.5073	732.422	76.6481	732.422	77.8872	732.422	77.3243	732.422	77.8124
757.324	85.5018	757.324	85.3858	757.324	85.2685	757.324	84.9232	757.324	84.7224	757.324	84.1471	757.324	83.9404	757.324	83.1168	757.324	83.0233	757.324	81.9341	757.324	82.0645	757.324	80.774	757.324	81.1148	757.324	79.8663	757.324	80.1673	757.324	79.3494	757.324	79.181	757.324	79.1177	757.324	78.1479	757.324	78.9017	757.324	77.167	757.324	78.468	757.324	76.4206	757.324	77.772	757.324	76.0105	757.324	77.1094	757.324	75.9338	757.324	77.0616	757.324	76.2539	757.324	77.7878	757.324	77.0352	757.324	78.7437	757.324	78.0854	757.324	79.3937	757.324	79.0128	757.324	79.4954
785.156	85.8505	785.156	85.7736	785.156	85.5953	785.156	85.3826	785.156	84.9912	785.156	84.6536	785.156	84.0816	785.156	83.5393	785.156	82.9874	785.156	82.0469	785.156	81.8596	785.156	80.3566	785.156	80.8	785.156	78.9038	785.156	79.813	785.156	78.1229	785.156	78.799	785.156	77.9325	785.156	77.5727	785.156	77.8868	785.156	75.978	785.156	77.6395	785.156	74.2214	785.156	77.0659	785.156	73.2224	785.156	76.3762	785.156	73.6004	785.156	76.2255	785.156	74.741	785.156	76.9572	785.156	76.1003	785.156	77.9577	785.156	77.3809	785.156	78.6162	785.156	78.3116	785.156	78.7392
811.523	84.369	811.523	84.5434	811.523	83.8492	811.523	84.3776	811.523	82.9955	811.523	83.8653	811.523	81.8728	811.523	82.9714	811.523	80.624	811.523	81.6387	811.523	79.4517	811.523	79.861	811.523	78.5338	811.523	77.9387	811.523	77.8958	811.523	76.8101	811.523	77.3362	811.523	77.1078	811.523	76.4963	811.523	77.9694	811.523	75.0103	811.523	78.4871	811.523	72.8391	811.523	78.3653	811.523	71.5199	811.523	77.7175	811.523	73.0423	811.523	77.0056	811.523	75.1766	811.523	76.6981	811.523	76.4789	811.523	76.7421	811.523	77.0004	811.523	76.8615	811.523	77.0709	811.523	76.9767
840.82	83.8279	840.82	84.0711	840.82	83.3182	840.82	83.9309	840.82	82.6526	840.82	83.3792	840.82	81.7863	840.82	82.4199	840.82	80.5466	840.82	80.9664	840.82	78.8638	840.82	78.7855	840.82	77.0669	840.82	75.5995	840.82	75.9729	840.82	72.0933	840.82	75.9949	840.82	72.3111	840.82	76.3013	840.82	74.908	840.82	75.6723	840.82	76.6387	840.82	72.8478	840.82	77.3543	840.82	64.5105	840.82	77.3658	840.82	67.363	840.82	77.1316	840.82	74.8545	840.82	77.2457	840.82	77.9349	840.82	77.7044	840.82	78.9739	840.82	78.0505	840.82	78.8423	840.82	78.3612
870.117	84.5618	870.117	84.3811	870.117	84.2747	870.117	83.8967	870.117	83.4795	870.117	83.335	870.117	82.2403	870.117	82.8153	870.117	80.6495	870.117	82.2083	870.117	78.692	870.117	81.1889	870.117	76.1375	870.117	79.3386	870.117	73.1333	870.117	76.0867	870.117	73.1179	870.117	71.0787	870.117	76.2136	870.117	71.298	870.117	78.1767	870.117	75.6903	870.117	78.1079	870.117	78.0213	870.117	75.2965	870.117	78.8166	870.117	65.9229	870.117	78.9312	870.117	71.3392	870.117	79.2195	870.117	78.4103	870.117	80.0374	870.117	81.3159	870.117	81.1283	870.117	82.2767	870.117	82.0401
900.879	86.4266	900.879	85.7338	900.879	86.443	900.879	84.5761	900.879	85.7959	900.879	83.4042	900.879	84.7111	900.879	82.7115	900.879	83.5201	900.879	82.5315	900.879	82.298	900.879	82.3948	900.879	80.6182	900.879	81.7552	900.879	77.679	900.879	80.0624	900.879	72.6553	900.879	76.4505	900.879	72.6762	900.879	69.2879	900.879	77.4498	900.879	70.8657	900.879	79.3849	900.879	76.1745	900.879	78.5487	900.879	78.3324	900.879	74.0697	900.879	79.1361	900.879	70.0394	900.879	79.8262	900.879	78.124	900.879	80.9849	900.879	82.0013	900.879	82.35	900.879	83.4287	900.879	83.3526
933.105	86.0836	933.105	85.891	933.105	85.7295	933.105	85.002	933.105	85.0455	933.105	83.4385	933.105	84.1839	933.105	81.621	933.105	83.1588	933.105	80.5328	933.105	81.9334	933.105	80.4782	933.105	80.4198	933.105	80.4012	933.105	78.1481	933.105	79.4066	933.105	73.7313	933.105	76.8847	933.105	66.0786	933.105	71.2061	933.105	73.5645	933.105	56.2756	933.105	77.8677	933.105	73.0773	933.105	78.8462	933.105	77.6645	933.105	77.2969	933.105	79.5149	933.105	75.0153	933.105	80.4474	933.105	78.0857	933.105	81.4358	933.105	81.6806	933.105	82.6039	933.105	83.3262	933.105	83.4448
965.332	85.9839	965.332	85.9047	965.332	85.285	965.332	84.8384	965.332	84.1438	965.332	82.7015	965.332	82.9941	965.332	79.8521	965.332	82.1751	965.332	78.3788	965.332	81.6785	965.332	79.7663	965.332	81.183	965.332	81.4671	965.332	80.2165	965.332	82.1532	965.332	77.9973	965.332	81.4901	965.332	72.6321	965.332	78.9721	965.332	67.6343	965.332	72.8326	965.332	76.7773	965.332	66.0266	965.332	80.5691	965.332	75.6489	965.332	81.56	965.332	79.3517	965.332	80.7675	965.332	81.1975	965.332	80.2343	965.332	82.4961	965.332	81.847	965.332	83.5269	965.332	83.4866	965.332	83.9959
1000.49	84.7346	1000.49	85.9315	1000.49	82.6874	1000.49	86.1665	1000.49	80.0574	1000.49	85.3133	1000.49	77.5403	1000.49	83.1143	1000.49	76.3025	1000.49	79.1364	1000.49	77.003	1000.49	74.9745	1000.49	78.8993	1000.49	77.6423	1000.49	80.6111	1000.49	80.6738	1000.49	81.1997	1000.49	81.8294	1000.49	79.9917	1000.49	81.3046	1000.49	75.5084	1000.49	78.7776	1000.49	63.3659	1000.49	72.553	1000.49	76.7825	1000.49	62.3159	1000.49	81.3527	1000.49	74.4088	1000.49	82.5229	1000.49	78.7652	1000.49	81.7742	1000.49	81.0273	1000.49	80.8044	1000.49	82.1077	1000.49	81.288	1000.49	82.1219
1035.64	84.2181	1035.64	85.3782	1035.64	82.3144	1035.64	85.7863	1035.64	79.7852	1035.64	85.4125	1035.64	77.0083	1035.64	84.087	1035.64	74.7007	1035.64	81.3669	1035.64	73.8003	1035.64	76.1573	1035.64	74.8771	1035.64	68.2544	1035.64	76.9375	1035.64	74.414	1035.64	78.5621	1035.64	78.1749	1035.64	78.8866	1035.64	79.2688	1035.64	76.9796	1035.64	78.5033	1035.64	69.5997	1035.64	75.569	1035.64	68.5755	1035.64	67.9205	1035.64	77.7077	1035.64	63.0749	1035.64	79.9885	1035.64	73.357	1035.64	78.8428	1035.64	76.4109	1035.64	74.7094	1035.64	76.8233	1035.64	71.8864	1035.64	75.0809
1072.27	83.4998	1072.27	84.5441	1072.27	81.9068	1072.27	84.9607	1072.27	79.8465	1072.27	84.6828	1072.27	77.4054	1072.27	83.6267	1072.27	74.8174	1072.27	81.6967	1072.27	72.5503	1072.27	78.844	1072.27	71.1754	1072.27	75.3549	1072.27	72.5837	1072.27	73.0573	1072.27	76.108	1072.27	73.6215	1072.27	78.2636	1072.27	74.7076	1072.27	77.7738	1072.27	74.7672	1072.27	72.9026	1072.27	72.9599	1072.27	57.4915	1072.27	67.1114	1072.27	75.0517	1072.27	62.4089	1072.27	78.5297	1072.27	71.5947	1072.27	78.3186	1072.27	74.4279	1072.27	74.9984	1072.27	74.2337	1072.27	69.1343	1072.27	71.2333
1108.89	84.1185	1108.89	84.5827	1108.89	82.8726	1108.89	84.3847	1108.89	80.9234	1108.89	83.8	1108.89	78.4905	1108.89	82.9891	1108.89	76.1461	1108.89	81.8073	1108.89	74.8842	1108.89	79.9392	1108.89	74.1831	1108.89	76.9847	1108.89	72.9188	1108.89	72.971	1108.89	73.4324	1108.89	72.5453	1108.89	76.4562	1108.89	75.6309	1108.89	78.1544	1108.89	76.9891	1108.89	77.1186	1108.89	76.0399	1108.89	71.235	1108.89	72.2498	1108.89	66.3575	1108.89	62.1783	1108.89	75.9196	1108.89	61.371	1108.89	77.8504	1108.89	67.9542	1108.89	75.5998	1108.89	68.3038	1108.89	67.8029	1108.89	61.8457
1148.44	84.7286	1148.44	85.2739	1148.44	83.3263	1148.44	85.0279	1148.44	81.0216	1148.44	84.1883	1148.44	77.9997	1148.44	83.1256	1148.44	75.7922	1148.44	82.0988	1148.44	76.1165	1148.44	80.8851	1148.44	76.9058	1148.44	78.9159	1148.44	76.5372	1148.44	75.855	1148.44	74.8522	1148.44	73.2834	1148.44	74.0102	1148.44	74.1712	1148.44	75.8146	1148.44	75.5733	1148.44	76.5961	1148.44	75.4921	1148.44	74.3025	1148.44	73.6523	1148.44	66.608	1148.44	69.9682	1148.44	69.1039	1148.44	66.2431	1148.44	73.5928	1148.44	68.4426	1148.44	73.4857	1148.44	71.0423	1148.44	71.7088	1148.44	71.4779
1189.45	84.7932	1189.45	85.6864	1189.45	82.9007	1189.45	85.5714	1189.45	80.0354	1189.45	84.5969	1189.45	76.5344	1189.45	83.136	1189.45	74.8582	1189.45	81.635	1189.45	76.2539	1189.45	80.2217	1189.45	77.6089	1189.45	78.5755	1189.45	77.8069	1189.45	76.397	1189.45	76.6883	1189.45	74.2688	1189.45	74.8638	1189.45	73.9229	1189.45	74.5882	1189.45	74.7973	1189.45	75.29	1189.45	74.9168	1189.45	74.3369	1189.45	73.4529	1189.45	71.1807	1189.45	70.5239	1189.45	68.5957	1189.45	69.881	1189.45	67.9483	1189.45	72.5085	1189.45	68.3351	1189.45	74.3595	1189.45	72.2412	1189.45	74.4747
1230.47	84.2684	1230.47	85.5288	1230.47	82.0431	1230.47	85.743	1230.47	78.7116	1230.47	84.9291	1230.47	74.6465	1230.47	83.4022	1230.47	74.3478	1230.47	81.6736	1230.47	76.8148	1230.47	80.044	1230.47	78.4338	1230.47	78.391	1230.47	79.0877	1230.47	76.4473	1230.47	78.5733	1230.47	74.1773	1230.47	76.8672	1230.47	72.9847	1230.47	75.1549	1230.47	74.1723	1230.47	73.9587	1230.47	75.0433	1230.47	71.6787	1230.47	73.733	1230.47	70.5983	1230.47	69.8406	1230.47	71.5813	1230.47	68.7427	1230.47	70.0817	1230.47	72.5157	1230.47	66.1035	1230.47	74.3611	1230.47	69.7491	1230.47	73.6227
1274.41	84.1577	1274.41	85.5108	1274.41	81.7136	1274.41	85.8123	1274.41	77.9551	1274.41	85.1253	1274.41	73.9204	1274.41	83.6538	1274.41	74.9521	1274.41	81.5838	1274.41	77.2249	1274.41	78.9827	1274.41	78.1462	1274.41	76.2338	1274.41	78.5286	1274.41	74.0871	1274.41	78.4419	1274.41	71.9898	1274.41	77.4281	1274.41	70.2072	1274.41	76.3951	1274.41	72.2125	1274.41	75.9668	1274.41	74.4139	1274.41	73.7005	1274.41	74.1597	1274.41	69.7365	1274.41	70.8341	1274.41	71.3329	1274.41	69.4637	1274.41	70.331	1274.41	74.0576	1274.41	59.6513	1274.41	75.9602	1274.41	68.9118	1274.41	74.6838
1319.82	83.8395	1319.82	85.0898	1319.82	80.9458	1319.82	85.3883	1319.82	75.7295	1319.82	84.855	1319.82	73.0719	1319.82	83.4619	1319.82	76.6154	1319.82	81.4479	1319.82	78.7838	1319.82	78.937	1319.82	79.3811	1319.82	75.4903	1319.82	78.9754	1319.82	72.4389	1319.82	78.2399	1319.82	72.69	1319.82	77.5146	1319.82	72.3458	1319.82	76.7166	1319.82	70.0175	1319.82	75.8797	1319.82	71.2192	1319.82	74.424	1319.82	73.1166	1319.82	72.7366	1319.82	71.3785	1319.82	73.2127	1319.82	67.8204	1319.82	72.4883	1319.82	73.7628	1319.82	67.4646	1319.82	76.5279	1319.82	69.5395	1319.82	75.1918
1366.7	84.4011	1366.7	85.6445	1366.7	81.441	1366.7	85.6624	1366.7	76.2602	1366.7	84.7726	1366.7	74.5308	1366.7	83.2342	1366.7	78.174	1366.7	81.19	1366.7	80.0294	1366.7	78.5791	1366.7	80.6603	1366.7	75.0279	1366.7	80.6783	1366.7	69.984	1366.7	80.0217	1366.7	64.1773	1366.7	78.8031	1366.7	63.4125	1366.7	78.0103	1366.7	68.2508	1366.7	77.2441	1366.7	72.5807	1366.7	74.106	1366.7	74.4593	1366.7	70.4073	1366.7	72.621	1366.7	74.0732	1366.7	65.4694	1366.7	74.0631	1366.7	70.9588	1366.7	66.8343	1366.7	75.33	1366.7	69.6114	1366.7	75.2268
1413.57	85.6543	1413.57	86.7641	1413.57	82.6953	1413.57	86.4339	1413.57	77.8398	1413.57	85.3092	1413.57	75.9519	1413.57	83.8469	1413.57	79.5474	1413.57	81.8038	1413.57	81.4596	1413.57	78.6347	1413.57	81.6057	1413.57	74.2433	1413.57	81.2092	1413.57	70.2397	1413.57	80.963	1413.57	68.8584	1413.57	79.8298	1413.57	67.4232	1413.57	77.6746	1413.57	58.2242	1413.57	77.9313	1413.57	69.7351	1413.57	77.529	1413.57	74.8031	1413.57	72.1232	1413.57	76.0072	1413.57	72.0045	1413.57	72.7157	1413.57	74.0664	1413.57	71.2032	1413.57	68.5693	1413.57	75.6809	1413.57	70.0151	1413.57	75.5187
1463.38	85.6887	1463.38	86.9804	1463.38	82.0672	1463.38	86.7824	1463.38	76.1594	1463.38	85.5469	1463.38	76.6765	1463.38	83.4099	1463.38	79.5278	1463.38	80.6748	1463.38	81.0289	1463.38	78.3362	1463.38	81.6439	1463.38	76.7378	1463.38	81.5115	1463.38	74.3619	1463.38	81.0757	1463.38	71.3324	1463.38	80.3949	1463.38	73.3404	1463.38	79.0666	1463.38	71.7911	1463.38	77.8168	1463.38	61.1333	1463.38	76.5836	1463.38	71.4981	1463.38	72.3497	1463.38	75.5218	1463.38	69.4585	1463.38	73.8279	1463.38	73.127	1463.38	72.5305	1463.38	70.6726	1463.38	76.1241	1463.38	70.4694	1463.38	75.7698
1516.11	85.6635	1516.11	87.1395	1516.11	81.6201	1516.11	87.1919	1516.11	75.6613	1516.11	86.2578	1516.11	77.3429	1516.11	84.2475	1516.11	79.1942	1516.11	80.8649	1516.11	80.4275	1516.11	76.4968	1516.11	81.0292	1516.11	74.374	1516.11	80.7448	1516.11	72.8747	1516.11	79.9561	1516.11	67.7907	1516.11	79.2965	1516.11	68.422	1516.11	78.931	1516.11	72.2478	1516.11	78.8305	1516.11	71.5238	1516.11	78.6706	1516.11	62.9581	1516.11	76.1266	1516.11	72.0999	1516.11	67.4439	1516.11	71.3601	1516.11	64.8856	1516.11	70.439	1516.11	63.0247	1516.11	74.4624	1516.11	68.8117	1516.11	74.8997
1568.85	84.7902	1568.85	86.5885	1568.85	81.0896	1568.85	86.8344	1568.85	76.1891	1568.85	85.9715	1568.85	77.2967	1568.85	84.3907	1568.85	80.8094	1568.85	82.0529	1568.85	82.3639	1568.85	78.1451	1568.85	82.5736	1568.85	72.8672	1568.85	81.9845	1568.85	69.3834	1568.85	80.72	1568.85	62.624	1568.85	78.9777	1568.85	67.6465	1568.85	77.0357	1568.85	73.1556	1568.85	74.9753	1568.85	73.3301	1568.85	75.4279	1568.85	67.6205	1568.85	75.9652	1568.85	64.249	1568.85	74.0494	1568.85	67.9308	1568.85	71.1206	1568.85	62.5352	1568.85	62.5883	1568.85	70.3117	1568.85	67.7745	1568.85	72.6
1624.51	85.2365	1624.51	86.4716	1624.51	82.0689	1624.51	86.4175	1624.51	76.6961	1624.51	85.1602	1624.51	77.603	1624.51	82.7764	1624.51	81.1295	1624.51	79.9941	1624.51	82.6527	1624.51	76.1802	1624.51	82.583	1624.51	70.4078	1624.51	81.6889	1624.51	68.4413	1624.51	80.6439	1624.51	69.9766	1624.51	79.4071	1624.51	66.2693	1624.51	78.1963	1624.51	67.4933	1624.51	76.706	1624.51	68.1503	1624.51	74.9007	1624.51	66.0856	1624.51	74.3328	1624.51	67.692	1624.51	73.2788	1624.51	69.4813	1624.51	71.8869	1624.51	64.9725	1624.51	68.5441	1624.51	70.4598	1624.51	68.0122	1624.51	72.6416
1681.64	85.8812	1681.64	86.8146	1681.64	82.1543	1681.64	85.7979	1681.64	76.7642	1681.64	84.4079	1681.64	75.8887	1681.64	82.2145	1681.64	81.4627	1681.64	78.5997	1681.64	83.2121	1681.64	75.7086	1681.64	82.1108	1681.64	72.756	1681.64	80.4578	1681.64	60.7768	1681.64	79.7299	1681.64	64.1435	1681.64	78.6357	1681.64	54.0238	1681.64	77.3108	1681.64	59.2453	1681.64	77.2945	1681.64	56.864	1681.64	76.6505	1681.64	65.4795	1681.64	76.1006	1681.64	67.5412	1681.64	73.6433	1681.64	65.9153	1681.64	68.846	1681.64	61.6112	1681.64	67.2363	1681.64	66.657	1681.64	66.7121	1681.64	71.0026
1741.7	85.4653	1741.7	87.1549	1741.7	82.0037	1741.7	86.3961	1741.7	75.074	1741.7	83.7249	1741.7	77.2939	1741.7	80.8955	1741.7	82.4017	1741.7	78.542	1741.7	82.5125	1741.7	76.0793	1741.7	81.4371	1741.7	70.5355	1741.7	80.86	1741.7	62.7442	1741.7	80.5898	1741.7	67.5852	1741.7	79.9747	1741.7	70.5378	1741.7	78.1288	1741.7	70.166	1741.7	76.6939	1741.7	65.2775	1741.7	76.0493	1741.7	67.0256	1741.7	75.9504	1741.7	65.9376	1741.7	76.2485	1741.7	65.5426	1741.7	72.7002	1741.7	67.3181	1741.7	62.1542	1741.7	68.1953	1741.7	70.1165	1741.7	71.2949
1803.22	85.0949	1803.22	86.5967	1803.22	81.5744	1803.22	86.1189	1803.22	73.8173	1803.22	83.3268	1803.22	77.2341	1803.22	79.2156	1803.22	81.9974	1803.22	74.2934	1803.22	83.0686	1803.22	69.0342	1803.22	82.9091	1803.22	63.5782	1803.22	81.9887	1803.22	66.4488	1803.22	80.8243	1803.22	66.5057	1803.22	80.4113	1803.22	65.0255	1803.22	78.9052	1803.22	67.4684	1803.22	76.9406	1803.22	67.4617	1803.22	76.29	1803.22	69.3887	1803.22	75.3923	1803.22	67.2176	1803.22	75.571	1803.22	61.3223	1803.22	73.6343	1803.22	65.2994	1803.22	63.389	1803.22	67.5486	1803.22	68.5177	1803.22	70.3783
1866.21	85.5282	1866.21	86.443	1866.21	82.5154	1866.21	84.8512	1866.21	74.8552	1866.21	81.6061	1866.21	77.1695	1866.21	78.1698	1866.21	82.2451	1866.21	73.3255	1866.21	82.8347	1866.21	60.0071	1866.21	82.829	1866.21	66.5816	1866.21	81.7177	1866.21	64.8219	1866.21	80.0572	1866.21	64.5074	1866.21	79.1748	1866.21	53.7152	1866.21	77.1237	1866.21	65.1084	1866.21	75.6528	1866.21	68.2885	1866.21	76.3201	1866.21	68.4765	1866.21	75.6774	1866.21	65.8044	1866.21	74.5982	1866.21	59.2446	1866.21	72.3956	1866.21	62.3465	1866.21	62.162	1866.21	66.4311	1866.21	68.4601	1866.21	69.7189
1932.13	86.1892	1932.13	86.3455	1932.13	83.6643	1932.13	83.9123	1932.13	73.6009	1932.13	78.9726	1932.13	77.6575	1932.13	73.5344	1932.13	81.7317	1932.13	67.9695	1932.13	83.2708	1932.13	65.9854	1932.13	83.4349	1932.13	65.1996	1932.13	81.5506	1932.13	63.2876	1932.13	78.9933	1932.13	69.8318	1932.13	78.3605	1932.13	74.9135	1932.13	77.4849	1932.13	73.4325	1932.13	75.3256	1932.13	60.4339	1932.13	75.7996	1932.13	62.2684	1932.13	76.6468	1932.13	64.1728	1932.13	73.727	1932.13	53.9984	1932.13	70.3021	1932.13	55.0375	1932.13	62.432	1932.13	64.1167	1932.13	69.9919	1932.13	71.2803
1999.51	86.2437	1999.51	85.9946	1999.51	83.4391	1999.51	83.0119	1999.51	72.3731	1999.51	77.8607	1999.51	75.5867	1999.51	72.7536	1999.51	81.5088	1999.51	69.5774	1999.51	84.199	1999.51	62.256	1999.51	84.2104	1999.51	64.8939	1999.51	82.114	1999.51	72.9142	1999.51	79.4753	1999.51	75.7652	1999.51	79.5615	1999.51	78.4193	1999.51	79.6868	1999.51	77.173	1999.51	77.9034	1999.51	69.2122	1999.51	75.3899	1999.51	64.5426	1999.51	75.0339	1999.51	67.0941	1999.51	76.1291	1999.51	58.8318	1999.51	70.7293	1999.51	57.5136	1999.51	63.0328	1999.51	65.7694	1999.51	72.8169	1999.51	72.7296
2069.82	86.0869	2069.82	84.9932	2069.82	83.6517	2069.82	83.0628	2069.82	70.9809	2069.82	79.3232	2069.82	74.8342	2069.82	69.4132	2069.82	81.7155	2069.82	69.6937	2069.82	84.2175	2069.82	71.1555	2069.82	83.8211	2069.82	64.8658	2069.82	81.223	2069.82	71.1029	2069.82	77.2548	2069.82	73.3057	2069.82	75.6834	2069.82	74.6055	2069.82	76.0688	2069.82	75.6383	2069.82	76.0534	2069.82	74.538	2069.82	76.2545	2069.82	74.0116	2069.82	74.1792	2069.82	72.0901	2069.82	73.5069	2069.82	61.3742	2069.82	72.1376	2069.82	63.6585	2069.82	56.3549	2069.82	67.5711	2069.82	74.5288	2069.82	75.0414
2143.07	86.6391	2143.07	85.0985	2143.07	83.7812	2143.07	83.1708	2143.07	71.6909	2143.07	78.5586	2143.07	76.6801	2143.07	67.7818	2143.07	83.0863	2143.07	75.7387	2143.07	84.1747	2143.07	75.713	2143.07	83.8641	2143.07	74.0404	2143.07	81.5869	2143.07	74.3757	2143.07	79.2134	2143.07	74.3996	2143.07	79.239	2143.07	65.889	2143.07	78.2961	2143.07	62.2723	2143.07	74.3368	2143.07	74.1173	2143.07	72.0411	2143.07	71.7977	2143.07	74.0049	2143.07	71.4378	2143.07	72.4148	2143.07	69.9641	2143.07	70.9445	2143.07	56.3024	2143.07	63.685	2143.07	65.1925	2143.07	73.1448	2143.07	71.4066
2219.24	86.6633	2219.24	85.4811	2219.24	84.8466	2219.24	82.0707	2219.24	74.9243	2219.24	76.961	2219.24	78.1172	2219.24	72.0794	2219.24	83.8898	2219.24	72.8296	2219.24	84.4707	2219.24	77.0994	2219.24	84.1357	2219.24	77.1674	2219.24	83.1179	2219.24	72.8134	2219.24	80.3409	2219.24	71.7715	2219.24	81.1282	2219.24	72.7326	2219.24	80.1886	2219.24	73.2373	2219.24	76.7655	2219.24	75.001	2219.24	76.6981	2219.24	72.649	2219.24	74.1873	2219.24	71.3416	2219.24	72.5079	2219.24	69.5638	2219.24	69.6448	2219.24	58.0912	2219.24	65.4873	2219.24	64.4243	2219.24	74.7943	2219.24	69.5756
2296.88	85.8643	2296.88	85.0727	2296.88	84.106	2296.88	82.3773	2296.88	76.6054	2296.88	77.9144	2296.88	78.4942	2296.88	71.7967	2296.88	84.6947	2296.88	76.9172	2296.88	85.568	2296.88	78.3855	2296.88	84.649	2296.88	78.6907	2296.88	82.8841	2296.88	79.4276	2296.88	79.5638	2296.88	80.4573	2296.88	78.3437	2296.88	78.5738	2296.88	79.0342	2296.88	71.8738	2296.88	76.954	2296.88	74.0805	2296.88	77.8406	2296.88	74.3505	2296.88	75.474	2296.88	70.0946	2296.88	71.7724	2296.88	66.31	2296.88	67.1979	2296.88	53.6018	2296.88	69.2724	2296.88	67.3876	2296.88	73.6894	2296.88	68.6697
2378.91	85.7315	2378.91	85.326	2378.91	84.0277	2378.91	83.4006	2378.91	76.5485	2378.91	77.219	2378.91	79.3764	2378.91	76.5087	2378.91	84.8716	2378.91	78.9875	2378.91	85.9358	2378.91	79.4236	2378.91	85.0247	2378.91	80.2802	2378.91	82.3424	2378.91	78.3781	2378.91	75.8429	2378.91	70.5836	2378.91	73.193	2378.91	72.2247	2378.91	76.6957	2378.91	75.8471	2378.91	77.7036	2378.91	73.657	2378.91	78.2033	2378.91	74.4204	2378.91	76.7184	2378.91	74.5174	2378.91	73.0071	2378.91	70.7654	2378.91	71.9101	2378.91	60.4344	2378.91	71.0602	2378.91	65.2394	2378.91	72.0148	2378.91	70.3224
2462.4	85.9737	2462.4	85.9304	2462.4	84.5831	2462.4	83.4271	2462.4	79.2107	2462.4	78.0408	2462.4	79.4085	2462.4	77.7989	2462.4	84.9543	2462.4	80.1141	2462.4	86.0115	2462.4	81.1829	2462.4	84.7132	2462.4	78.7826	2462.4	82.1614	2462.4	78.0217	2462.4	77.9689	2462.4	80.7959	2462.4	76.5742	2462.4	79.1812	2462.4	78.3083	2462.4	74.4675	2462.4	76.6872	2462.4	74.4394	2462.4	77.4176	2462.4	73.9945	2462.4	77.0098	2462.4	72.2645	2462.4	72.1397	2462.4	69.7015	2462.4	71.7435	2462.4	60.1009	2462.4	68.4283	2462.4	64.1258	2462.4	72.363	2462.4	70.6481
2548.83	85.295	2548.83	86.3477	2548.83	82.8419	2548.83	83.2715	2548.83	80.2773	2548.83	78.8905	2548.83	80.0374	2548.83	80.079	2548.83	84.2609	2548.83	80.4225	2548.83	85.6334	2548.83	80.3825	2548.83	84.769	2548.83	79.5419	2548.83	82.3667	2548.83	77.8171	2548.83	78.4859	2548.83	75.8489	2548.83	72.9987	2548.83	74.564	2548.83	75.9186	2548.83	74.9486	2548.83	76.1399	2548.83	74.8476	2548.83	76.2447	2548.83	73.6317	2548.83	76.7069	2548.83	73.7429	2548.83	72.5499	2548.83	71.575	2548.83	71.2123	2548.83	65.4764	2548.83	70.8058	2548.83	65.473	2548.83	73.3201	2548.83	71.2017
2639.65	85.7201	2639.65	86.01	2639.65	82.1154	2639.65	83.2437	2639.65	79.3416	2639.65	80.5538	2639.65	81.6863	2639.65	79.8839	2639.65	84.2678	2639.65	80.9984	2639.65	85.0016	2639.65	81.5519	2639.65	84.0964	2639.65	81.6437	2639.65	82.2305	2639.65	80.1438	2639.65	78.6969	2639.65	79.5365	2639.65	75.5128	2639.65	79.061	2639.65	73.9172	2639.65	74.5302	2639.65	74.8717	2639.65	73.3004	2639.65	75.0157	2639.65	75.6424	2639.65	76.1329	2639.65	73.2127	2639.65	74.5892	2639.65	71.1605	2639.65	71.8923	2639.65	63.6285	2639.65	69.7839	2639.65	63.6392	2639.65	73.1915	2639.65	69.3866
2731.93	86.058	2731.93	86.1633	2731.93	82.5439	2731.93	83.0967	2731.93	79.386	2731.93	80.3044	2731.93	81.4428	2731.93	81.3008	2731.93	84.084	2731.93	82.8361	2731.93	84.6725	2731.93	81.9304	2731.93	83.3801	2731.93	79.8989	2731.93	81.9777	2731.93	78.9312	2731.93	80.7455	2731.93	79.1209	2731.93	80.131	2731.93	78.0019	2731.93	77.8375	2731.93	76.655	2731.93	72.7345	2731.93	75.2705	2731.93	73.4961	2731.93	74.455	2731.93	75.5205	2731.93	74.2393	2731.93	71.5936	2731.93	72.2454	2731.93	70.5454	2731.93	65.7985	2731.93	68.831	2731.93	65.9585	2731.93	72.256	2731.93	69.1708
2828.61	85.7073	2828.61	86.3432	2828.61	82.428	2828.61	83.4872	2828.61	79.8907	2828.61	80.4052	2828.61	81.2545	2828.61	83.0413	2828.61	83.957	2828.61	83.3158	2828.61	84.9143	2828.61	82.0107	2828.61	83.923	2828.61	81.9697	2828.61	81.2297	2828.61	79.8121	2828.61	79.3427	2828.61	76.2489	2828.61	78.579	2828.61	76.6522	2828.61	76.7274	2828.61	75.8357	2828.61	73.6064	2828.61	72.7847	2828.61	74.6717	2828.61	75.2199	2828.61	74.5333	2828.61	74.2009	2828.61	72.9836	2828.61	71.2163	2828.61	68.6893	2828.61	67.7122	2828.61	71.8413	2828.61	63.1011	2828.61	72.5385	2828.61	66.7513
2928.22	85.6724	2928.22	85.8865	2928.22	81.8636	2928.22	82.548	2928.22	80.4	2928.22	82.0166	2928.22	81.5917	2928.22	82.7812	2928.22	82.8708	2928.22	82.8953	2928.22	84.2567	2928.22	82.8518	2928.22	84.066	2928.22	80.9075	2928.22	82.2881	2928.22	81.1503	2928.22	79.5194	2928.22	81.1674	2928.22	77.5147	2928.22	78.8399	2928.22	74.1064	2928.22	75.2394	2928.22	69.5909	2928.22	73.9887	2928.22	75.2601	2928.22	74.5804	2928.22	74.7874	2928.22	73.4825	2928.22	72.327	2928.22	72.075	2928.22	68.0075	2928.22	66.2068	2928.22	71.2416	2928.22	64.971	2928.22	72.1354	2928.22	69.9185
3030.76	86.3879	3030.76	85.8236	3030.76	82.1021	3030.76	82.2443	3030.76	80.5962	3030.76	82.4132	3030.76	81.9848	3030.76	83.5804	3030.76	81.9644	3030.76	84.1619	3030.76	83.6803	3030.76	82.8275	3030.76	84.5753	3030.76	81.2483	3030.76	83.1716	3030.76	78.5391	3030.76	79.2682	3030.76	75.0767	3030.76	75.5117	3030.76	76.3274	3030.76	71.3335	3030.76	77.7223	3030.76	68.1008	3030.76	74.2803	3030.76	74.1451	3030.76	74.1197	3030.76	73.522	3030.76	74.6657	3030.76	70.4617	3030.76	72.2788	3030.76	63.9854	3030.76	67.6862	3030.76	69.8796	3030.76	65.5218	3030.76	73.0402	3030.76	68.7853
3137.7	85.774	3137.7	85.4694	3137.7	82.5159	3137.7	83.2119	3137.7	80.502	3137.7	83.0651	3137.7	82.8202	3137.7	84.3592	3137.7	82.2642	3137.7	84.2746	3137.7	83.3784	3137.7	83.2829	3137.7	84.4185	3137.7	81.3811	3137.7	83.0104	3137.7	79.8572	3137.7	78.2355	3137.7	78.6978	3137.7	71.8381	3137.7	77.2098	3137.7	75.5093	3137.7	75.8253	3137.7	70.8248	3137.7	71.957	3137.7	74.6134	3137.7	72.9799	3137.7	72.7851	3137.7	74.3214	3137.7	70.0024	3137.7	72.2251	3137.7	64.3274	3137.7	67.2694	3137.7	70.6952	3137.7	62.947	3137.7	72.7537	3137.7	68.9285
3249.02	85.3174	3249.02	84.6967	3249.02	82.3386	3249.02	82.9304	3249.02	81.3189	3249.02	84.1252	3249.02	83.1195	3249.02	84.3808	3249.02	81.7937	3249.02	84.3388	3249.02	82.3389	3249.02	83.8587	3249.02	83.9014	3249.02	81.8392	3249.02	82.6673	3249.02	79.8654	3249.02	78.7645	3249.02	79.2434	3249.02	75.8561	3249.02	76.5373	3249.02	77.0244	3249.02	73.9569	3249.02	73.7197	3249.02	73.1058	3249.02	71.3933	3249.02	72.4777	3249.02	71.5483	3249.02	72.7051	3249.02	68.8923	3249.02	71.0531	3249.02	56.4431	3249.02	66.8385	3249.02	71.0535	3249.02	63.7173	3249.02	71.2021	3249.02	62.1175
3363.28	85.5312	3363.28	84.9708	3363.28	82.3335	3363.28	83.7716	3363.28	81.6291	3363.28	84.1007	3363.28	84.1249	3363.28	84.7072	3363.28	83.0562	3363.28	84.8055	3363.28	82.4198	3363.28	82.8877	3363.28	84.2313	3363.28	79.3343	3363.28	83.777	3363.28	76.9516	3363.28	81.4369	3363.28	77.6797	3363.28	80.0021	3363.28	75.7231	3363.28	78.9134	3363.28	75.1528	3363.28	75.0439	3363.28	73.2685	3363.28	75.004	3363.28	70.3312	3363.28	73.3531	3363.28	72.7127	3363.28	67.7983	3363.28	70.6626	3363.28	56.6856	3363.28	67.0668	3363.28	72.0165	3363.28	62.3752	3363.28	71.4327	3363.28	70.1626
3481.93	85.253	3481.93	84.9136	3481.93	82.8764	3481.93	84.7508	3481.93	81.6467	3481.93	84.6952	3481.93	84.1648	3481.93	85.832	3481.93	82.3821	3481.93	83.9876	3481.93	82.8186	3481.93	81.3057	3481.93	84.6989	3481.93	79.518	3481.93	84.1394	3481.93	77.4095	3481.93	83.0393	3481.93	75.1067	3481.93	82.095	3481.93	73.9022	3481.93	81.1433	3481.93	74.4855	3481.93	75.5989	3481.93	71.7721	3481.93	73.9599	3481.93	69.7734	3481.93	73.2053	3481.93	72.4503	3481.93	69.9777	3481.93	70.007	3481.93	54.5903	3481.93	65.6551	3481.93	70.7717	3481.93	59.5912	3481.93	71.4333	3481.93	70.3137
3604.98	85.9295	3604.98	85.9632	3604.98	83.4634	3604.98	84.6517	3604.98	82.7359	3604.98	85.2048	3604.98	84.9175	3604.98	86.0735	3604.98	82.1799	3604.98	82.919	3604.98	82.5905	3604.98	81.2859	3604.98	85.7074	3604.98	80.5552	3604.98	84.9455	3604.98	78.5236	3604.98	82.784	3604.98	77.8606	3604.98	81.1604	3604.98	76.9309	3604.98	78.8117	3604.98	75.9129	3604.98	74.8906	3604.98	73.9621	3604.98	75.7366	3604.98	71.8975	3604.98	72.8323	3604.98	73.0398	3604.98	70.065	3604.98	70.6565	3604.98	53.0595	3604.98	66.4652	3604.98	71.3092	3604.98	50.4325	3604.98	72.0045	3604.98	67.1289
3732.42	85.9236	3732.42	86.1841	3732.42	82.8345	3732.42	84.7389	3732.42	82.6145	3732.42	86.3347	3732.42	85.9523	3732.42	85.6962	3732.42	83.2772	3732.42	82.8317	3732.42	80.911	3732.42	82.5617	3732.42	85.6516	3732.42	81.2097	3732.42	85.3466	3732.42	80.0087	3732.42	81.9004	3732.42	79.795	3732.42	78.5808	3732.42	78.2152	3732.42	76.7937	3732.42	75.559	3732.42	72.1342	3732.42	74.0138	3732.42	74.136	3732.42	71.6821	3732.42	70.1491	3732.42	73.328	3732.42	71.7874	3732.42	72.3699	3732.42	55.6404	3732.42	68.1088	3732.42	71.9091	3732.42	56.1984	3732.42	71.5634	3732.42	66.5883
3864.26	86.7334	3864.26	86.3316	3864.26	83.6106	3864.26	84.7529	3864.26	83.2023	3864.26	87.0116	3864.26	85.8636	3864.26	84.6312	3864.26	83.2204	3864.26	84.2466	3864.26	80.3925	3864.26	83.2672	3864.26	84.9453	3864.26	82.3435	3864.26	84.5432	3864.26	79.1579	3864.26	80.4245	3864.26	78.0339	3864.26	74.3329	3864.26	75.7839	3864.26	58.0094	3864.26	74.5602	3864.26	63.4814	3864.26	74.7262	3864.26	75.2765	3864.26	71.5094	3864.26	70.0784	3864.26	73.1042	3864.26	70.0714	3864.26	72.3271	3864.26	58.7128	3864.26	67.2572	3864.26	72.8381	3864.26	51.9357	3864.26	70.9888	3864.26	67.5423
4000.49	87.053	4000.49	86.0282	4000.49	83.2209	4000.49	85.9712	4000.49	83.6838	4000.49	86.3591	4000.49	87.0545	4000.49	84.5515	4000.49	83.9445	4000.49	84.7186	4000.49	79.1538	4000.49	83.0818	4000.49	84.5068	4000.49	80.2507	4000.49	83.857	4000.49	77.8798	4000.49	81.092	4000.49	76.4929	4000.49	79.9323	4000.49	76.2745	4000.49	72.1165	4000.49	73.7295	4000.49	57.4017	4000.49	73.2798	4000.49	73.4137	4000.49	70.3438	4000.49	68.0399	4000.49	72.5542	4000.49	67.7611	4000.49	72.451	4000.49	60.8505	4000.49	65.9033	4000.49	71.8441	4000.49	48.3633	4000.49	70.4643	4000.49	66.5183
4141.11	88.316	4141.11	86.0546	4141.11	84.6777	4141.11	85.8822	4141.11	83.1036	4141.11	86.3038	4141.11	87.6296	4141.11	85.5216	4141.11	85.101	4141.11	84.8927	4141.11	78.1808	4141.11	82.4752	4141.11	83.4305	4141.11	80.2608	4141.11	84.037	4141.11	78.307	4141.11	82.282	4141.11	76.9415	4141.11	76.0569	4141.11	75.3241	4141.11	76.0892	4141.11	73.2073	4141.11	72.9205	4141.11	73.4028	4141.11	72.9637	4141.11	69.161	4141.11	68.7792	4141.11	71.3806	4141.11	65.5925	4141.11	71.277	4141.11	60.0552	4141.11	68.8133	4141.11	69.1641	4141.11	55.8161	4141.11	70.8371	4141.11	64.2876
4287.6	88.3537	4287.6	84.9528	4287.6	86.0317	4287.6	87.0537	4287.6	82.1668	4287.6	86.59	4287.6	88.0635	4287.6	85.9319	4287.6	86.142	4287.6	83.3713	4287.6	78.4151	4287.6	80.7927	4287.6	84.6139	4287.6	79.1532	4287.6	85.178	4287.6	75.7371	4287.6	80.7981	4287.6	76.482	4287.6	78.5785	4287.6	76.8438	4287.6	78.7487	4287.6	73.8884	4287.6	74.7096	4287.6	73.4727	4287.6	75.5175	4287.6	70.6155	4287.6	69.7461	4287.6	69.7399	4287.6	69.0885	4287.6	72.3942	4287.6	52.9726	4287.6	69.2243	4287.6	69.1448	4287.6	62.4793	4287.6	71.0288	4287.6	67.6789
4438.48	88.0254	4438.48	85.234	4438.48	87.7179	4438.48	87.3745	4438.48	82.1496	4438.48	86.5323	4438.48	87.8058	4438.48	85.8796	4438.48	86.7932	4438.48	82.783	4438.48	78.1972	4438.48	83.0664	4438.48	85.3366	4438.48	80.3214	4438.48	86.1033	4438.48	79.8642	4438.48	82.5399	4438.48	76.7856	4438.48	82.4275	4438.48	74.2818	4438.48	74.784	4438.48	73.915	4438.48	70.2838	4438.48	72.5761	4438.48	74.5398	4438.48	72.1768	4438.48	70.4186	4438.48	71.188	4438.48	67.7485	4438.48	72.8355	4438.48	61.1802	4438.48	69.6289	4438.48	70.2932	4438.48	66	4438.48	69.6734	4438.48	61.3219
4595.21	86.5969	4595.21	85.9445	4595.21	87.7642	4595.21	87.3809	4595.21	83.7093	4595.21	86.8876	4595.21	86.8246	4595.21	85.2437	4595.21	87.0603	4595.21	83.8645	4595.21	79.4573	4595.21	82.4752	4595.21	84.8347	4595.21	81.8835	4595.21	85.9998	4595.21	76.3908	4595.21	83.8261	4595.21	79.1116	4595.21	82.2584	4595.21	77.4989	4595.21	61.6172	4595.21	74.1502	4595.21	66.8851	4595.21	72.8693	4595.21	75.3099	4595.21	70.8209	4595.21	73.9046	4595.21	72.325	4595.21	67.3997	4595.21	72.9102	4595.21	60.9043	4595.21	70.5263	4595.21	68.9788	4595.21	65.5696	4595.21	69.523	4595.21	61.591
4756.35	86.7621	4756.35	86.8921	4756.35	87.4262	4756.35	87.4477	4756.35	85.143	4756.35	86.555	4756.35	87.0463	4756.35	85.072	4756.35	87.3138	4756.35	84.4097	4756.35	80.6057	4756.35	83.1339	4756.35	83.3905	4756.35	81.2325	4756.35	86.5753	4756.35	80.5504	4756.35	83.3152	4756.35	76.0493	4756.35	78.5949	4756.35	75.5337	4756.35	74.2806	4756.35	74.7287	4756.35	69.5814	4756.35	73.9793	4756.35	74.2495	4756.35	71.4671	4756.35	74.25	4756.35	72.3965	4756.35	71.886	4756.35	73.2327	4756.35	60.1912	4756.35	71.3455	4756.35	67.6081	4756.35	67.4391	4756.35	68.3008	4756.35	60.9717
4924.8	86.8525	4924.8	86.514	4924.8	87.6053	4924.8	86.9548	4924.8	86.2427	4924.8	86.8923	4924.8	86.6631	4924.8	85.3039	4924.8	87.1793	4924.8	84.5535	4924.8	82.2333	4924.8	83.8056	4924.8	82.4261	4924.8	81.8775	4924.8	85.718	4924.8	79.0854	4924.8	80.0714	4924.8	78.269	4924.8	76.2091	4924.8	76.4089	4924.8	70.1859	4924.8	72.6107	4924.8	65.1686	4924.8	72.5975	4924.8	72.7575	4924.8	69.6945	4924.8	73.7	4924.8	71.5028	4924.8	70.0326	4924.8	73.1508	4924.8	60.7521	4924.8	70.6539	4924.8	66.8662	4924.8	68.0471	4924.8	69.329	4924.8	55.9181
5097.66	87.1474	5097.66	86.4766	5097.66	87.2627	5097.66	87.1352	5097.66	86.1658	5097.66	86.7417	5097.66	87.0488	5097.66	85.4023	5097.66	87.1351	5097.66	84.5172	5097.66	81.8729	5097.66	83.7044	5097.66	80.3749	5097.66	80.2748	5097.66	83.9158	5097.66	79.5136	5097.66	79.4603	5097.66	75.6086	5097.66	77.124	5097.66	75.8698	5097.66	74.8486	5097.66	73.0622	5097.66	65.8891	5097.66	72.0244	5097.66	60.8657	5097.66	68.7026	5097.66	68.2898	5097.66	70.5841	5097.66	66.1757	5097.66	72.8187	5097.66	51.3438	5097.66	70.9389	5097.66	65.5577	5097.66	66.731	5097.66	68.2532	5097.66	54.7257
5277.83	87.2956	5277.83	86.3693	5277.83	87.614	5277.83	86.8598	5277.83	86.7097	5277.83	86.6005	5277.83	87.2005	5277.83	85.6011	5277.83	87.0612	5277.83	84.5238	5277.83	82.0821	5277.83	82.9546	5277.83	79.2253	5277.83	81.1166	5277.83	83.5537	5277.83	79.341	5277.83	81.0862	5277.83	76.972	5277.83	77.1247	5277.83	75.4147	5277.83	74.2613	5277.83	72.8902	5277.83	66.7192	5277.83	72.7645	5277.83	66.6024	5277.83	69.5536	5277.83	68.9034	5277.83	69.5942	5277.83	65.1023	5277.83	73.0351	5277.83	61.0253	5277.83	70.9835	5277.83	66.5898	5277.83	68.6572	5277.83	67.5148	5277.83	57.3066
5463.87	87.154	5463.87	85.8472	5463.87	87.6028	5463.87	87.0127	5463.87	86.6275	5463.87	86.2178	5463.87	87.0765	5463.87	85.6138	5463.87	87.009	5463.87	84.4933	5463.87	82.7949	5463.87	83.5218	5463.87	79.1099	5463.87	81.0322	5463.87	83.1704	5463.87	79.9563	5463.87	81.99	5463.87	76.3038	5463.87	76.5441	5463.87	75.1935	5463.87	71.1996	5463.87	72.3138	5463.87	63.8949	5463.87	70.0452	5463.87	65.8318	5463.87	69.352	5463.87	69.065	5463.87	69.3435	5463.87	64.5863	5463.87	72.1712	5463.87	61.5128	5463.87	70.3405	5463.87	67.2221	5463.87	68.6407	5463.87	66.5393	5463.87	51.37
5657.23	86.5947	5657.23	85.7559	5657.23	87.849	5657.23	87.0663	5657.23	86.7375	5657.23	85.7148	5657.23	86.7898	5657.23	85.72	5657.23	87.0688	5657.23	84.4753	5657.23	82.412	5657.23	83.6378	5657.23	78.6851	5657.23	80.8879	5657.23	82.9519	5657.23	77.2237	5657.23	81.4303	5657.23	74.7395	5657.23	75.95	5657.23	73.8289	5657.23	70.6143	5657.23	72.1143	5657.23	65.5301	5657.23	70.3588	5657.23	64.5959	5657.23	68.4083	5657.23	65.126	5657.23	68.157	5657.23	62.5802	5657.23	71.2894	5657.23	56.4237	5657.23	69.7857	5657.23	64.72	5657.23	67.8097	5657.23	66.5884	5657.23	57.9709
5856.45	86.9019	5856.45	86.3287	5856.45	87.7941	5856.45	86.5094	5856.45	86.565	5856.45	86.1426	5856.45	86.5329	5856.45	85.7129	5856.45	86.6734	5856.45	84.7315	5856.45	82.7405	5856.45	82.8049	5856.45	78.1787	5856.45	80.1468	5856.45	81.7316	5856.45	77.0937	5856.45	81.2598	5856.45	75.0016	5856.45	77.894	5856.45	72.1544	5856.45	73.7137	5856.45	71.9318	5856.45	64.879	5856.45	68.956	5856.45	65.945	5856.45	69.1214	5856.45	69.5509	5856.45	67.3843	5856.45	57.68	5856.45	71.4971	5856.45	65.312	5856.45	70.409	5856.45	62.0242	5856.45	68.5423	5856.45	63.1698	5856.45	58.1202
6062.99	86.9675	6062.99	86.2037	6062.99	87.7067	6062.99	86.0795	6062.99	86.7084	6062.99	86.4652	6062.99	86.3271	6062.99	85.6558	6062.99	86.0725	6062.99	84.4032	6062.99	83.0844	6062.99	82.0751	6062.99	79.2269	6062.99	79.5297	6062.99	80.1803	6062.99	77.2847	6062.99	80.6271	6062.99	75.576	6062.99	77.4933	6062.99	73.7505	6062.99	73.5229	6062.99	72.7445	6062.99	62.5185	6062.99	70.1043	6062.99	63.2828	6062.99	68.7455	6062.99	67.7689	6062.99	68.5199	6062.99	61.563	6062.99	69.9698	6062.99	61.8467	6062.99	70.3726	6062.99	59.3003	6062.99	67.8425	6062.99	64.481	6062.99	61.2215
6276.86	87.3651	6276.86	86.3165	6276.86	87.9651	6276.86	86.0694	6276.86	86.5105	6276.86	86.3112	6276.86	85.7424	6276.86	85.3075	6276.86	85.4789	6276.86	83.991	6276.86	83.4629	6276.86	82.0226	6276.86	78.048	6276.86	80.1515	6276.86	80.2701	6276.86	77.1957	6276.86	78.6029	6276.86	75.4296	6276.86	75.5656	6276.86	73.1447	6276.86	72.1487	6276.86	71.9785	6276.86	67.2759	6276.86	69.2093	6276.86	64.7107	6276.86	67.9847	6276.86	67.6063	6276.86	67.5069	6276.86	55.811	6276.86	70.2946	6276.86	51.1324	6276.86	69.6793	6276.86	61.2753	6276.86	69.7712	6276.86	61.8766	6276.86	60.5976
6498.05	87.5837	6498.05	86.3167	6498.05	88.0724	6498.05	86.3814	6498.05	86.2593	6498.05	86.3231	6498.05	85.0754	6498.05	85.1428	6498.05	84.7008	6498.05	83.5901	6498.05	83.8219	6498.05	82.0869	6498.05	78.8831	6498.05	79.9271	6498.05	78.2451	6498.05	77.4385	6498.05	79.8018	6498.05	73.0927	6498.05	73.8869	6498.05	72.4563	6498.05	70.1074	6498.05	71.7858	6498.05	68.1708	6498.05	67.7249	6498.05	63.0109	6498.05	68.2154	6498.05	64.35	6498.05	66.3482	6498.05	53.2815	6498.05	70.3345	6498.05	61.5825	6498.05	69.2061	6498.05	60.2798	6498.05	68.8264	6498.05	60.2008	6498.05	57.6556
6726.56	87.6172	6726.56	86.809	6726.56	88.1872	6726.56	86.4274	6726.56	86.4651	6726.56	86.2028	6726.56	84.4181	6726.56	84.7411	6726.56	84.7435	6726.56	83.0568	6726.56	84.3328	6726.56	82.5857	6726.56	79.5992	6726.56	79.5234	6726.56	79.2839	6726.56	77.902	6726.56	81.7821	6726.56	74.9605	6726.56	74.833	6726.56	72.7829	6726.56	63.9793	6726.56	71.8251	6726.56	58.2848	6726.56	68.6077	6726.56	55.5422	6726.56	68.9117	6726.56	60.1226	6726.56	67.5787	6726.56	56.5961	6726.56	69.8836	6726.56	63.9168	6726.56	69.7774	6726.56	62.5278	6726.56	70.1441	6726.56	55.3927	6726.56	60.7815
6963.87	87.9259	6963.87	87.1253	6963.87	88.201	6963.87	86.4827	6963.87	86.4044	6963.87	86.1214	6963.87	84.5104	6963.87	84.1039	6963.87	84.6689	6963.87	83.5524	6963.87	83.3154	6963.87	82.6228	6963.87	79.6398	6963.87	80.1787	6963.87	79.2487	6963.87	77.1373	6963.87	81.1123	6963.87	74.2298	6963.87	76.1222	6963.87	72.3484	6963.87	72.4458	6963.87	71.3795	6963.87	66.102	6963.87	67.8796	6963.87	65.5381	6963.87	68.2606	6963.87	63.1301	6963.87	66.577	6963.87	61.3142	6963.87	69.0211	6963.87	64.6848	6963.87	68.5207	6963.87	60.3035	6963.87	67.4679	6963.87	59.5961	6963.87	60.2436
7209.96	88.0721	7209.96	87.2529	7209.96	88.1032	7209.96	86.8745	7209.96	86.2527	7209.96	85.6797	7209.96	85.1134	7209.96	83.6863	7209.96	85.0612	7209.96	83.8211	7209.96	83.0678	7209.96	82.4276	7209.96	80.7174	7209.96	79.7316	7209.96	79.6846	7209.96	76.7716	7209.96	79.0414	7209.96	73.7133	7209.96	75.6473	7209.96	70.8412	7209.96	73.4016	7209.96	70.8432	7209.96	69.9125	7209.96	66.6113	7209.96	59.7174	7209.96	66.4568	7209.96	44.9362	7209.96	65.1185	7209.96	55.4818	7209.96	67.5989	7209.96	60.2926	7209.96	67.6959	7209.96	58.6054	7209.96	68.5273	7209.96	55.9719	7209.96	59.6497
7464.84	88.0249	7464.84	87.5941	7464.84	88.055	7464.84	87.1473	7464.84	86.1171	7464.84	85.3367	7464.84	85.2102	7464.84	84.3041	7464.84	85.3674	7464.84	83.6612	7464.84	83.173	7464.84	82.0729	7464.84	80.9624	7464.84	78.9011	7464.84	78.7028	7464.84	75.6763	7464.84	75.5864	7464.84	72.0353	7464.84	74.4643	7464.84	69.894	7464.84	72.9236	7464.84	70.4689	7464.84	71.1664	7464.84	65.9735	7464.84	61.6747	7464.84	65.5424	7464.84	59.3031	7464.84	63.5698	7464.84	57.7243	7464.84	66.5326	7464.84	59.8216	7464.84	66.8343	7464.84	56.0929	7464.84	66.7077	7464.84	57.9075	7464.84	59.9081
7727.05	87.8618	7727.05	87.9684	7727.05	88.1424	7727.05	87.0467	7727.05	86.5218	7727.05	85.5252	7727.05	85.3579	7727.05	84.4995	7727.05	84.6954	7727.05	83.6669	7727.05	82.3974	7727.05	81.9475	7727.05	80.2035	7727.05	78.3336	7727.05	76.9686	7727.05	74.9063	7727.05	76.4618	7727.05	71.5081	7727.05	71.5958	7727.05	68.5717	7727.05	65.8774	7727.05	68.4619	7727.05	69.5593	7727.05	65.5205	7727.05	56.7523	7727.05	65.4995	7727.05	49.1762	7727.05	63.6688	7727.05	55.9738	7727.05	65.5106	7727.05	61.1472	7727.05	65.658	7727.05	59.0109	7727.05	67.273	7727.05	54.5001	7727.05	62.0024
7999.51	87.5861	7999.51	87.8519	7999.51	87.8896	7999.51	86.7306	7999.51	86.644	7999.51	85.6834	7999.51	85.6481	7999.51	84.4467	7999.51	84.6419	7999.51	83.6804	7999.51	82.1893	7999.51	80.5758	7999.51	79.6852	7999.51	78.0148	7999.51	75.2588	7999.51	73.8374	7999.51	76.4549	7999.51	71.1727	7999.51	69.3976	7999.51	68.3471	7999.51	63.5333	7999.51	67.3664	7999.51	69.1178	7999.51	65.6186	7999.51	56.3716	7999.51	64.4144	7999.51	54.8065	7999.51	61.7942	7999.51	58.1133	7999.51	63.9704	7999.51	58.8737	7999.51	63.9622	7999.51	52.773	7999.51	66.5469	7999.51	50.8502	7999.51	58.7116
8282.23	87.5715	8282.23	87.7168	8282.23	87.8884	8282.23	86.3464	8282.23	87.0238	8282.23	85.7842	8282.23	85.882	8282.23	84.2684	8282.23	83.871	8282.23	83.273	8282.23	81.4252	8282.23	80.0472	8282.23	78.8463	8282.23	77.3009	8282.23	71.9942	8282.23	72.6128	8282.23	76.089	8282.23	70.054	8282.23	68.9926	8282.23	68.3004	8282.23	64.9979	8282.23	67.1865	8282.23	69.4955	8282.23	64.9668	8282.23	60.246	8282.23	63.1934	8282.23	57.2667	8282.23	61.4591	8282.23	60.2475	8282.23	62.7738	8282.23	57.6316	8282.23	63.2808	8282.23	51.7974	8282.23	65.7928	8282.23	45.2962	8282.23	59.7263
8573.73	87.7061	8573.73	87.5635	8573.73	87.9862	8573.73	85.9929	8573.73	86.9722	8573.73	85.6225	8573.73	85.6905	8573.73	84.0836	8573.73	83.4375	8573.73	82.682	8573.73	80.9308	8573.73	79.5761	8573.73	77.7245	8573.73	76.3528	8573.73	72.5873	8573.73	72.5299	8573.73	74.9582	8573.73	70.4239	8573.73	68.7414	8573.73	67.8055	8573.73	62.8391	8573.73	67.125	8573.73	67.0092	8573.73	65.0857	8573.73	62.6692	8573.73	63.6869	8573.73	57.6002	8573.73	62.7752	8573.73	61.4443	8573.73	63.4875	8573.73	56.6151	8573.73	63.868	8573.73	52.7018	8573.73	65.1141	8573.73	45.4866	8573.73	60.5595
8876.95	88.0051	8876.95	87.7346	8876.95	87.8773	8876.95	86.034	8876.95	86.7846	8876.95	85.61	8876.95	85.2593	8876.95	83.1822	8876.95	83.2702	8876.95	82.0751	8876.95	80.8915	8876.95	78.0943	8876.95	78.444	8876.95	76.4679	8876.95	74.2802	8876.95	73.0231	8876.95	74.0459	8876.95	69.717	8876.95	70.2591	8876.95	67.344	8876.95	60.1782	8876.95	65.8874	8876.95	68.5719	8876.95	63.5126	8876.95	58.5469	8876.95	63.1949	8876.95	50.7993	8876.95	62.1175	8876.95	47.2122	8876.95	62.6658	8876.95	56.2721	8876.95	62.4287	8876.95	52.8618	8876.95	64.9967	8876.95	50.3106	8876.95	59.3253
9188.96	88.0221	9188.96	87.7714	9188.96	87.8911	9188.96	86.3818	9188.96	86.5757	9188.96	85.4349	9188.96	85.3356	9188.96	82.8138	9188.96	83.7236	9188.96	80.8909	9188.96	81.3178	9188.96	77.7468	9188.96	79.212	9188.96	75.5018	9188.96	74.829	9188.96	72.185	9188.96	74.783	9188.96	68.4062	9188.96	70.3785	9188.96	66.4567	9188.96	67.3707	9188.96	64.887	9188.96	71.6405	9188.96	61.3438	9188.96	55.2756	9188.96	61.2888	9188.96	41.6965	9188.96	61.6436	9188.96	52.9011	9188.96	60.9985	9188.96	52.4774	9188.96	61.2009	9188.96	53.4259	9188.96	63.6838	9188.96	53.0341	9188.96	57.7627
9514.16	88.2027	9514.16	88.0625	9514.16	87.9538	9514.16	86.6143	9514.16	86.7671	9514.16	85.3882	9514.16	85.3488	9514.16	82.5716	9514.16	84.0732	9514.16	80.3048	9514.16	81.7642	9514.16	78.1	9514.16	79.0677	9514.16	74.9824	9514.16	75.7883	9514.16	72.4397	9514.16	73.0223	9514.16	68.9562	9514.16	69.9398	9514.16	65.8633	9514.16	69.7658	9514.16	63.722	9514.16	72.8631	9514.16	60.9454	9514.16	58.2417	9514.16	55.3502	9514.16	47.4131	9514.16	59.6034	9514.16	45.2523	9514.16	60.9033	9514.16	57.1227	9514.16	58.6953	9514.16	51.5976	9514.16	62.6487	9514.16	56.0993	9514.16	55.204
9849.61	88.707	9849.61	88.5445	9849.61	88.5865	9849.61	87.1622	9849.61	87.5744	9849.61	85.6893	9849.61	85.9173	9849.61	82.081	9849.61	84.076	9849.61	80.6719	9849.61	81.1358	9849.61	77.8065	9849.61	77.397	9849.61	75.1288	9849.61	75.6159	9849.61	69.3781	9849.61	72.6632	9849.61	66.3519	9849.61	68.8663	9849.61	62.0381	9849.61	71.8981	9849.61	60.8546	9849.61	74.0115	9849.61	60.6616	9849.61	54.1288	9849.61	55.2774	9849.61	57.8938	9849.61	50.2997	9849.61	48.3114	9849.61	54.953	9849.61	52.8787	9849.61	49.9815	9849.61	46.5703	9849.61	61.2082	9849.61	53.995	9849.61	54.0852
10196.8	89.1767	10196.8	89.0416	10196.8	89.1042	10196.8	87.7404	10196.8	88.1184	10196.8	85.4524	10196.8	86.3531	10196.8	81.6391	10196.8	84.0371	10196.8	79.8871	10196.8	80.45	10196.8	77.2286	10196.8	77.2043	10196.8	71.5532	10196.8	74.4539	10196.8	68.3305	10196.8	71.6385	10196.8	63.6552	10196.8	70.0679	10196.8	61.8476	10196.8	72.1912	10196.8	60.5318	10196.8	74.0241	10196.8	58.8359	10196.8	41.7385	10196.8	58.388	10196.8	57.7428	10196.8	50.7282	10196.8	51.3724	10196.8	56.0307	10196.8	52.5901	10196.8	53.4124	10196.8	30.9578	10196.8	58.1217	10196.8	44.5547	10196.8	55.8703
10555.7	89.5386	10555.7	89.5273	10555.7	89.5825	10555.7	88.0247	10555.7	88.5129	10555.7	85.4246	10555.7	86.2392	10555.7	81.8117	10555.7	83.5264	10555.7	79.923	10555.7	79.1479	10555.7	76.5608	10555.7	75.9767	10555.7	70.9806	10555.7	70.8676	10555.7	66.1254	10555.7	67.8808	10555.7	62.4164	10555.7	67.8536	10555.7	61.2679	10555.7	72.8331	10555.7	57.7173	10555.7	74.6179	10555.7	56.4006	10555.7	54.3045	10555.7	57.1246	10555.7	55.6548	10555.7	54.9485	10555.7	52.5852	10555.7	57.8319	10555.7	52.7545	10555.7	54.4701	10555.7	49.2123	10555.7	58.274	10555.7	48.1514	10555.7	52.4895
10927.7	89.7951	10927.7	89.8594	10927.7	89.8562	10927.7	88.3193	10927.7	88.7133	10927.7	85.3718	10927.7	86.2418	10927.7	81.9489	10927.7	83.1004	10927.7	78.8492	10927.7	78.3315	10927.7	75.1818	10927.7	75.8081	10927.7	69.0842	10927.7	66.9128	10927.7	65.8565	10927.7	65.8992	10927.7	60.473	10927.7	66.1308	10927.7	60.4096	10927.7	74.8156	10927.7	55.7329	10927.7	76.1086	10927.7	55.9072	10927.7	56.4345	10927.7	55.0503	10927.7	56.7908	10927.7	50.7177	10927.7	58.8652	10927.7	57.6925	10927.7	48.3675	10927.7	54.8932	10927.7	40.5883	10927.7	57.5107	10927.7	45.8879	10927.7	51.0094
11313	89.8299	11313	90.1209	11313	89.9089	11313	88.6671	11313	88.9143	11313	85.4992	11313	86.2844	11313	81.9305	11313	83.0418	11313	77.3015	11313	78.3143	11313	72.7718	11313	75.2391	11313	66.9492	11313	67.6554	11313	64.3739	11313	66.3033	11313	58.6604	11313	68.1607	11313	59.0357	11313	75.4451	11313	56.4576	11313	76.4649	11313	53.4458	11313	58.0769	11313	56.3964	11313	59.6927	11313	56.5787	11313	59.3612	11313	53.4237	11313	44.4864	11313	48.6992	11313	48.5282	11313	56.1164	11313	48.2402	11313	52.284
11712.9	89.9467	11712.9	90.2136	11712.9	90.109	11712.9	88.6302	11712.9	88.9544	11712.9	85.7342	11712.9	85.9272	11712.9	82.0093	11712.9	82.2735	11712.9	77.4904	11712.9	76.7996	11712.9	71.9814	11712.9	73.4898	11712.9	69.2062	11712.9	67.0418	11712.9	66.1586	11712.9	63.1248	11712.9	59.1401	11712.9	66.7537	11712.9	60.6829	11712.9	76.3582	11712.9	59.4892	11712.9	77.184	11712.9	55.0182	11712.9	62.1256	11712.9	57.2243	11712.9	59.8916	11712.9	56.8282	11712.9	58.7568	11712.9	56.5079	11712.9	43.936	11712.9	52.5032	11712.9	49.6384	11712.9	54.0071	11712.9	43.6522	11712.9	55.178
12126	90.2034	12126	90.2997	12126	90.2802	12126	88.4527	12126	88.8728	12126	85.5643	12126	85.4618	12126	81.6624	12126	81.3109	12126	77.1964	12126	75.9872	12126	71.8512	12126	72.6623	12126	69.7719	12126	67.083	12126	66.3009	12126	56.7146	12126	59.2927	12126	65.6821	12126	60.4896	12126	76.9293	12126	58.5538	12126	77.8946	12126	55.9799	12126	63.4872	12126	55.3489	12126	60.6539	12126	58.7315	12126	59.4408	12126	56.0089	12126	44.1181	12126	54.3198	12126	51.7165	12126	52.3068	12126	37.1886	12126	54.1236
12553.7	90.3922	12553.7	90.3126	12553.7	90.3585	12553.7	88.1014	12553.7	88.68	12553.7	84.9966	12553.7	85.0191	12553.7	80.6046	12553.7	80.2534	12553.7	76.3334	12553.7	75.6301	12553.7	71.1106	12553.7	71.7154	12553.7	69.0202	12553.7	67.8112	12553.7	66.2842	12553.7	60.2124	12553.7	58.655	12553.7	63.6959	12553.7	60.1489	12553.7	76.8506	12553.7	59.1567	12553.7	78.0248	12553.7	56.6742	12553.7	63.3567	12553.7	54.9142	12553.7	60.4491	12553.7	58.5582	12553.7	61.8458	12553.7	54.6385	12553.7	41.3736	12553.7	54.2256	12553.7	52.8127	12553.7	52.8651	12553.7	38.8952	12553.7	54.24
12996.1	90.1355	12996.1	90.0428	12996.1	90.1174	12996.1	87.5056	12996.1	88.2598	12996.1	84.1174	12996.1	84.4766	12996.1	78.9638	12996.1	79.2516	12996.1	76.107	12996.1	73.9294	12996.1	70.5	12996.1	69.9379	12996.1	66.9482	12996.1	70.3878	12996.1	66.522	12996.1	61.3666	12996.1	61.0358	12996.1	58.5179	12996.1	60.6388	12996.1	75.7641	12996.1	59.5682	12996.1	77.3584	12996.1	57.2018	12996.1	62.3888	12996.1	56.1946	12996.1	60.4039	12996.1	58.8698	12996.1	60.2627	12996.1	54.6396	12996.1	50.1995	12996.1	53.4422	12996.1	52.0515	12996.1	53.1394	12996.1	41.5208	12996.1	52.1414
13454.6	89.7532	13454.6	89.3098	13454.6	89.5557	13454.6	86.6259	13454.6	87.2361	13454.6	83.1823	13454.6	83.6297	13454.6	76.571	13454.6	78.7934	13454.6	75.779	13454.6	72.6703	13454.6	70.3758	13454.6	66.4583	13454.6	68.0305	13454.6	71.084	13454.6	68.5082	13454.6	65.8615	13454.6	63.5494	13454.6	49.0544	13454.6	62.9054	13454.6	73.7253	13454.6	58.1851	13454.6	76.4547	13454.6	59.1002	13454.6	60.1527	13454.6	56.9995	13454.6	61.5544	13454.6	58.9316	13454.6	60.1517	13454.6	54.5241	13454.6	45.0081	13454.6	54.8602	13454.6	51.0404	13454.6	54.8783	13454.6	53.1877	13454.6	54.1984
13929.2	89.3028	13929.2	88.5935	13929.2	88.7496	13929.2	85.884	13929.2	86.1798	13929.2	81.9867	13929.2	82.5154	13929.2	75.4085	13929.2	77.6559	13929.2	74.4038	13929.2	73.0813	13929.2	70.5184	13929.2	67.8053	13929.2	68.3875	13929.2	71.1841	13929.2	68.3409	13929.2	64.8106	13929.2	63.6852	13929.2	58.1438	13929.2	61.6418	13929.2	71.7675	13929.2	56.6618	13929.2	75.6628	13929.2	57.5373	13929.2	60.0867	13929.2	56.6584	13929.2	60.0426	13929.2	57.1077	13929.2	61.9677	13929.2	54.5096	13929.2	50.7439	13929.2	49.9857	13929.2	55.3788	13929.2	50.9753	13929.2	57.68	13929.2	54.981
14419.9	88.4542	14419.9	87.3684	14419.9	88.0963	14419.9	85.1002	14419.9	85.4143	14419.9	81.0723	14419.9	82.0596	14419.9	75.8609	14419.9	77.0856	14419.9	72.0253	14419.9	74.4637	14419.9	73.0015	14419.9	70.2251	14419.9	70.9113	14419.9	71.1953	14419.9	69.4675	14419.9	64.993	14419.9	64.1009	14419.9	60.1292	14419.9	63.8689	14419.9	70.1155	14419.9	56.7976	14419.9	75.2193	14419.9	56.6719	14419.9	60.0741	14419.9	59.1225	14419.9	60.4707	14419.9	59.5067	14419.9	60.126	14419.9	57.2833	14419.9	50.9944	14419.9	52.6145	14419.9	59.1998	14419.9	53.5633	14419.9	53.45	14419.9	54.135
14928.2	88.2346	14928.2	87.0329	14928.2	87.6418	14928.2	84.2986	14928.2	85.1446	14928.2	80.3237	14928.2	81.2889	14928.2	75.4517	14928.2	76.7539	14928.2	71.4594	14928.2	71.9225	14928.2	72.9931	14928.2	73.107	14928.2	71.6162	14928.2	69.1702	14928.2	68.648	14928.2	67.3016	14928.2	62.7966	14928.2	62.954	14928.2	61.4822	14928.2	69.8738	14928.2	56.925	14928.2	74.6461	14928.2	56.1659	14928.2	61.8639	14928.2	57.2269	14928.2	56.5104	14928.2	58.9782	14928.2	58.8019	14928.2	55.4883	14928.2	53.658	14928.2	51.5216	14928.2	59.1611	14928.2	55.058	14928.2	51.0792	14928.2	50.1077
15455.6	88.2794	15455.6	87.072	15455.6	87.4676	15455.6	83.9462	15455.6	84.9934	15455.6	79.5502	15455.6	80.6031	15455.6	72.9863	15455.6	76.0895	15455.6	72.7927	15455.6	66.9252	15455.6	71.4677	15455.6	73.1945	15455.6	69.9576	15455.6	67.0457	15455.6	67.5195	15455.6	62.3816	15455.6	61.9026	15455.6	63.7671	15455.6	59.4921	15455.6	70.7127	15455.6	54.8691	15455.6	73.7756	15455.6	55.4343	15455.6	60.5886	15455.6	55.6925	15455.6	50.2098	15455.6	56.8629	15455.6	58.5469	15455.6	55.2921	15455.6	52.4394	15455.6	48.4889	15455.6	59.8583	15455.6	53.2101	15455.6	54.6889	15455.6	49.4456
16000.5	88.11	16000.5	87.1672	16000.5	87.0789	16000.5	83.8833	16000.5	84.5074	16000.5	78.5187	16000.5	79.4043	16000.5	71.207	16000.5	74.366	16000.5	74.1397	16000.5	66.941	16000.5	70.9074	16000.5	72.141	16000.5	69.1057	16000.5	67.4766	16000.5	66.7742	16000.5	58.0872	16000.5	61.7753	16000.5	62.778	16000.5	59.3245	16000.5	70.9408	16000.5	51.2453	16000.5	72.9695	16000.5	54.052	16000.5	56.947	16000.5	55.8587	16000.5	53.8179	16000.5	54.7096	16000.5	58.6964	16000.5	56.4864	16000.5	56.1079	16000.5	47.4389	16000.5	61.4437	16000.5	53.2506	16000.5	54.4547	16000.5	51.0188
16564.5	87.7888	16564.5	86.9088	16564.5	86.6407	16564.5	83.7961	16564.5	83.5715	16564.5	78.1134	16564.5	78.1844	16564.5	72.8066	16564.5	72.1946	16564.5	73.2524	16564.5	69.1061	16564.5	69.3827	16564.5	71.6668	16564.5	67.7148	16564.5	64.9413	16564.5	66.0102	16564.5	56.5009	16564.5	60.982	16564.5	58.1434	16564.5	58.332	16564.5	71.8922	16564.5	48.6466	16564.5	72.8992	16564.5	52.3205	16564.5	57.8185	16564.5	55.7348	16564.5	52.7045	16564.5	51.5545	16564.5	57.9113	16564.5	55.7418	16564.5	60.4907	16564.5	47.3268	16564.5	61.3714	16564.5	55.1244	16564.5	56.5288	16564.5	52.1373
17148.9	87.2033	17148.9	86.3084	17148.9	86.0443	17148.9	83.3014	17148.9	82.3726	17148.9	77.1325	17148.9	76.5359	17148.9	73.4432	17148.9	71.6117	17148.9	71.3957	17148.9	70.8901	17148.9	69.0332	17148.9	69.3275	17148.9	66.9517	17148.9	67.2871	17148.9	65.1631	17148.9	60.0559	17148.9	60.54	17148.9	51.7024	17148.9	57.448	17148.9	71.8495	17148.9	40.0197	17148.9	72.3412	17148.9	47.6573	17148.9	59.0185	17148.9	54.8701	17148.9	51.7289	17148.9	51.1298	17148.9	58.7401	17148.9	53.5927	17148.9	61.9678	17148.9	48.7699	17148.9	62.1788	17148.9	54.5013	17148.9	57.8584	17148.9	53.9241
17752.4	86.7153	17752.4	85.5412	17752.4	85.3759	17752.4	82.5959	17752.4	81.0237	17752.4	75.632	17752.4	75.5398	17752.4	73.4635	17752.4	71.3611	17752.4	70.1144	17752.4	68.6049	17752.4	67.2192	17752.4	67.7304	17752.4	66.625	17752.4	66.0013	17752.4	64.286	17752.4	63.1886	17752.4	59.4422	17752.4	50.7284	17752.4	56.5771	17752.4	71.5464	17752.4	40.8629	17752.4	71.0994	17752.4	47.3716	17752.4	60.347	17752.4	54.3989	17752.4	53.3486	17752.4	50.8425	17752.4	60.5771	17752.4	53.2806	17752.4	62.8301	17752.4	48.6502	17752.4	63.0045	17752.4	53.5286	17752.4	58.856	17752.4	54.5632
18379.4	86.0036	18379.4	84.4505	18379.4	84.3804	18379.4	81.3799	18379.4	79.6592	18379.4	74.1217	18379.4	74.446	18379.4	72.8624	18379.4	70.3961	18379.4	69.3822	18379.4	67.1311	18379.4	64.8761	18379.4	67.8472	18379.4	65.5248	18379.4	65.9138	18379.4	63.5974	18379.4	61.4627	18379.4	57.8874	18379.4	53.7234	18379.4	54.7671	18379.4	70.0555	18379.4	11.1756	18379.4	68.8739	18379.4	46.9441	18379.4	60.8958	18379.4	53.394	18379.4	55.6429	18379.4	51.7253	18379.4	62.9962	18379.4	51.9389	18379.4	62.9629	18379.4	49.1987	18379.4	63.8657	18379.4	54.3295	18379.4	59.5525	18379.4	54.9583
19026.9	85.1676	19026.9	83.2609	19026.9	83.2098	19026.9	80.0687	19026.9	78.0491	19026.9	73.3357	19026.9	72.9687	19026.9	72.375	19026.9	69.6774	19026.9	66.6057	19026.9	64.5286	19026.9	62.0061	19026.9	65.2327	19026.9	61.8181	19026.9	64.0835	19026.9	60.6122	19026.9	61.2048	19026.9	54.2415	19026.9	57.6733	19026.9	52.1741	19026.9	68.5525	19026.9	42.0975	19026.9	66.1866	19026.9	48.301	19026.9	61.4348	19026.9	50.3008	19026.9	56.9857	19026.9	50.6632	19026.9	64.1188	19026.9	48.8111	19026.9	62.4954	19026.9	49.9897	19026.9	63.3852	19026.9	53.0252	19026.9	59.3706	19026.9	53.0772
19697.8	84.5206	19697.8	82.3051	19697.8	82.2172	19697.8	78.5088	19697.8	76.4203	19697.8	73.3774	19697.8	71.7462	19697.8	71.3966	19697.8	68.7527	19697.8	62.3432	19697.8	63.0355	19697.8	58.1019	19697.8	63.9327	19697.8	56.5259	19697.8	60.0416	19697.8	56.0951	19697.8	59.4874	19697.8	55.2983	19697.8	59.4591	19697.8	51.8664	19697.8	66.9345	19697.8	45.6352	19697.8	62.7984	19697.8	48.1388	19697.8	60.9298	19697.8	46.2762	19697.8	59.1218	19697.8	52.212	19697.8	64.2864	19697.8	44.7843	19697.8	62.2069	19697.8	51.1962	19697.8	63.5068	19697.8	53.2074	19697.8	58.5373	19697.8	51.6867
19999.5	84.1043	19999.5	81.8573	19999.5	81.7782	19999.5	77.9143	19999.5	75.3555	19999.5	73.2382	19999.5	71.3671	19999.5	70.932	19999.5	67.0669	19999.5	60.4394	19999.5	61.1395	19999.5	58.361	19999.5	62.5856	19999.5	50.2959	19999.5	58.5881	19999.5	55.6254	19999.5	57.4011	19999.5	57.0605	19999.5	61.109	19999.5	47.7103	19999.5	65.6996	19999.5	46.073	19999.5	61.0916	19999.5	45.1314	19999.5	60.8138	19999.5	47.5419	19999.5	61.0077	19999.5	48.8263	19999.5	64.1517	19999.5	47.1353	19999.5	63.3607	19999.5	51.8481	19999.5	63.3574	19999.5	50.1398	19999.5	56.8108	19999.5	51.22
