"SPL Vertical"
"On-Axis"		"10°"		"-10°"		"20°"		"-20°"		"30°"		"-30°"		"40°"		"-40°"		"50°"		"-50°"		"60°"		"-60°"		"70°"		"-70°"		"80°"		"-80°"		"90°"		"-90°"		"100°"		"-100°"		"110°"		"-110°"		"120°"		"-120°"		"130°"		"-130°"		"140°"		"-140°"		"150°"		"-150°"		"160°"		"-160°"		"170°"		"-170°"		"180°"
"Frequency / Hz"	"Sound Pressure Level / dB (re 20 µPa/V)  [2.83V at 1m]"	"Frequency / Hz"	"Sound Pressure Level / dB (re 20 µPa/V)  [2.83V at 1m]"	"Frequency / Hz"	"Sound Pressure Level / dB (re 20 µPa/V)  [2.83V at 1m]"	"Frequency / Hz"	"Sound Pressure Level / dB (re 20 µPa/V)  [2.83V at 1m]"	"Frequency / Hz"	"Sound Pressure Level / dB (re 20 µPa/V)  [2.83V at 1m]"	"Frequency / Hz"	"Sound Pressure Level / dB (re 20 µPa/V)  [2.83V at 1m]"	"Frequency / Hz"	"Sound Pressure Level / dB (re 20 µPa/V)  [2.83V at 1m]"	"Frequency / Hz"	"Sound Pressure Level / dB (re 20 µPa/V)  [2.83V at 1m]"	"Frequency / Hz"	"Sound Pressure Level / dB (re 20 µPa/V)  [2.83V at 1m]"	"Frequency / Hz"	"Sound Pressure Level / dB (re 20 µPa/V)  [2.83V at 1m]"	"Frequency / Hz"	"Sound Pressure Level / dB (re 20 µPa/V)  [2.83V at 1m]"	"Frequency / Hz"	"Sound Pressure Level / dB (re 20 µPa/V)  [2.83V at 1m]"	"Frequency / Hz"	"Sound Pressure Level / dB (re 20 µPa/V)  [2.83V at 1m]"	"Frequency / Hz"	"Sound Pressure Level / dB (re 20 µPa/V)  [2.83V at 1m]"	"Frequency / Hz"	"Sound Pressure Level / dB (re 20 µPa/V)  [2.83V at 1m]"	"Frequency / Hz"	"Sound Pressure Level / dB (re 20 µPa/V)  [2.83V at 1m]"	"Frequency / Hz"	"Sound Pressure Level / dB (re 20 µPa/V)  [2.83V at 1m]"	"Frequency / Hz"	"Sound Pressure Level / dB (re 20 µPa/V)  [2.83V at 1m]"	"Frequency / Hz"	"Sound Pressure Level / dB (re 20 µPa/V)  [2.83V at 1m]"	"Frequency / Hz"	"Sound Pressure Level / dB (re 20 µPa/V)  [2.83V at 1m]"	"Frequency / Hz"	"Sound Pressure Level / dB (re 20 µPa/V)  [2.83V at 1m]"	"Frequency / Hz"	"Sound Pressure Level / dB (re 20 µPa/V)  [2.83V at 1m]"	"Frequency / Hz"	"Sound Pressure Level / dB (re 20 µPa/V)  [2.83V at 1m]"	"Frequency / Hz"	"Sound Pressure Level / dB (re 20 µPa/V)  [2.83V at 1m]"	"Frequency / Hz"	"Sound Pressure Level / dB (re 20 µPa/V)  [2.83V at 1m]"	"Frequency / Hz"	"Sound Pressure Level / dB (re 20 µPa/V)  [2.83V at 1m]"	"Frequency / Hz"	"Sound Pressure Level / dB (re 20 µPa/V)  [2.83V at 1m]"	"Frequency / Hz"	"Sound Pressure Level / dB (re 20 µPa/V)  [2.83V at 1m]"	"Frequency / Hz"	"Sound Pressure Level / dB (re 20 µPa/V)  [2.83V at 1m]"	"Frequency / Hz"	"Sound Pressure Level / dB (re 20 µPa/V)  [2.83V at 1m]"	"Frequency / Hz"	"Sound Pressure Level / dB (re 20 µPa/V)  [2.83V at 1m]"	"Frequency / Hz"	"Sound Pressure Level / dB (re 20 µPa/V)  [2.83V at 1m]"	"Frequency / Hz"	"Sound Pressure Level / dB (re 20 µPa/V)  [2.83V at 1m]"	"Frequency / Hz"	"Sound Pressure Level / dB (re 20 µPa/V)  [2.83V at 1m]"	"Frequency / Hz"	"Sound Pressure Level / dB (re 20 µPa/V)  [2.83V at 1m]"	"Frequency / Hz"	"Sound Pressure Level / dB (re 20 µPa/V)  [2.83V at 1m]"
20.5078	57.7493	20.5078	57.574	20.5078	57.9247	20.5078	57.4027	20.5078	58.0955	20.5078	57.2394	20.5078	58.2569	20.5078	57.0874	20.5078	58.4038	20.5078	56.95	20.5078	58.5308	20.5078	56.8298	20.5078	58.6328	20.5078	56.7297	20.5078	58.7049	20.5078	56.6518	20.5078	58.743	20.5078	56.5983	20.5078	58.7441	20.5078	56.5711	20.5078	58.7064	20.5078	56.5718	20.5078	58.63	20.5078	56.6015	20.5078	58.5164	20.5078	56.6611	20.5078	58.3694	20.5078	56.7507	20.5078	58.1946	20.5078	56.8696	20.5078	57.9993	20.5078	57.016	20.5078	57.7921	20.5078	57.187	20.5078	57.582	20.5078	57.3777
21.9727	57.7284	21.9727	57.5868	21.9727	57.8683	21.9727	57.4472	21.9727	58.0027	21.9727	57.3128	21.9727	58.1275	21.9727	57.1867	21.9727	58.2382	21.9727	57.0715	21.9727	58.3306	21.9727	56.9698	21.9727	58.4006	21.9727	56.8836	21.9727	58.4446	21.9727	56.8151	21.9727	58.4599	21.9727	56.7659	21.9727	58.4448	21.9727	56.7375	21.9727	58.399	21.9727	56.7311	21.9727	58.3235	21.9727	56.7476	21.9727	58.2208	21.9727	56.7874	21.9727	58.0946	21.9727	56.8505	21.9727	57.9501	21.9727	56.9365	21.9727	57.7933	21.9727	57.0439	21.9727	57.6307	21.9727	57.1707	21.9727	57.4688	21.9727	57.3137
23.4375	57.7259	23.4375	57.5771	23.4375	57.8669	23.4375	57.4238	23.4375	57.9966	23.4375	57.2693	23.4375	58.1113	23.4375	57.1166	23.4375	58.2074	23.4375	56.9688	23.4375	58.281	23.4375	56.8288	23.4375	58.3286	23.4375	56.6994	23.4375	58.3469	23.4375	56.5837	23.4375	58.3332	23.4375	56.4845	23.4375	58.2855	23.4375	56.4049	23.4375	58.2032	23.4375	56.3477	23.4375	58.0869	23.4375	56.3161	23.4375	57.9391	23.4375	56.3127	23.4375	57.7646	23.4375	56.3402	23.4375	57.57	23.4375	56.4004	23.4375	57.364	23.4375	56.494	23.4375	57.1567	23.4375	56.6204	23.4375	56.9578	23.4375	56.7766
24.9023	59.202	24.9023	59.0784	24.9023	59.32	24.9023	58.9525	24.9023	59.429	24.9023	58.8273	24.9023	59.5257	24.9023	58.7056	24.9023	59.6067	24.9023	58.5901	24.9023	59.6689	24.9023	58.4834	24.9023	59.7094	24.9023	58.3878	24.9023	59.726	24.9023	58.3054	24.9023	59.717	24.9023	58.2383	24.9023	59.6816	24.9023	58.1884	24.9023	59.6199	24.9023	58.1574	24.9023	59.5331	24.9023	58.147	24.9023	59.4235	24.9023	58.1586	24.9023	59.2947	24.9023	58.193	24.9023	59.1515	24.9023	58.2509	24.9023	58.9997	24.9023	58.3321	24.9023	58.8458	24.9023	58.4353	24.9023	58.6966	24.9023	58.558
26.3672	60.0681	26.3672	59.9544	26.3672	60.1737	26.3672	59.836	26.3672	60.2681	26.3672	59.7158	26.3672	60.3479	26.3672	59.5967	26.3672	60.41	26.3672	59.4816	26.3672	60.4515	26.3672	59.3729	26.3672	60.4701	26.3672	59.2731	26.3672	60.464	26.3672	59.1843	26.3672	60.4325	26.3672	59.1087	26.3672	60.3758	26.3672	59.0482	26.3672	60.2953	26.3672	59.0045	26.3672	60.1935	26.3672	58.9792	26.3672	60.0739	26.3672	58.9738	26.3672	59.9411	26.3672	58.9895	26.3672	59.8001	26.3672	59.0268	26.3672	59.6566	26.3672	59.0861	26.3672	59.5165	26.3672	59.1667	26.3672	59.3851	26.3672	59.2673
27.832	60.6889	27.832	60.5783	27.832	60.7913	27.832	60.4627	27.832	60.882	27.832	60.3454	27.832	60.9577	27.832	60.2294	27.832	61.0151	27.832	60.1176	27.832	61.0515	27.832	60.0124	27.832	61.0646	27.832	59.9163	27.832	61.0528	27.832	59.8313	27.832	61.0158	27.832	59.7593	27.832	60.9542	27.832	59.702	27.832	60.8698	27.832	59.6607	27.832	60.7658	27.832	59.6366	27.832	60.6463	27.832	59.6308	27.832	60.5161	27.832	59.644	27.832	60.3807	27.832	59.6766	27.832	60.2455	27.832	59.7288	27.832	60.1157	27.832	59.8002	27.832	59.9959	27.832	59.8898
29.2969	61.5341	29.2969	61.4206	29.2969	61.6392	29.2969	61.302	29.2969	61.7324	29.2969	61.1815	29.2969	61.8105	29.2969	61.0621	29.2969	61.8701	29.2969	60.9466	29.2969	61.9084	29.2969	60.8378	29.2969	61.9232	29.2969	60.7379	29.2969	61.9128	29.2969	60.6492	29.2969	61.8767	29.2969	60.5736	29.2969	61.8154	29.2969	60.5131	29.2969	61.7305	29.2969	60.4691	29.2969	61.6251	29.2969	60.4431	29.2969	61.503	29.2969	60.4364	29.2969	61.369	29.2969	60.4499	29.2969	61.2286	29.2969	60.4843	29.2969	61.0874	29.2969	60.5398	29.2969	60.9509	29.2969	60.6159	29.2969	60.8242	29.2969	60.7114
30.7617	62.3509	30.7617	62.2447	30.7617	62.4502	30.7617	62.1346	30.7617	62.5393	30.7617	62.0237	30.7617	62.6151	30.7617	61.9151	30.7617	62.6746	30.7617	61.8112	30.7617	62.7153	30.7617	61.7148	30.7617	62.7351	30.7617	61.6278	30.7617	62.7327	30.7617	61.5525	30.7617	62.7075	30.7617	61.4905	30.7617	62.66	30.7617	61.4433	30.7617	62.5915	30.7617	61.4123	30.7617	62.5043	30.7617	61.3985	30.7617	62.4017	30.7617	61.4028	30.7617	62.2873	30.7617	61.4255	30.7617	62.1655	30.7617	61.4668	30.7617	62.041	30.7617	61.5264	30.7617	61.9185	30.7617	61.6034	30.7617	61.8022	30.7617	61.6961
32.2266	62.999	32.2266	62.8957	32.2266	63.0946	32.2266	62.788	32.2266	63.1794	32.2266	62.679	32.2266	63.2502	32.2266	62.5718	32.2266	63.3043	32.2266	62.4691	32.2266	63.3393	32.2266	62.3736	32.2266	63.3535	32.2266	62.2875	32.2266	63.3459	32.2266	62.2129	32.2266	63.3164	32.2266	62.1516	32.2266	63.266	32.2266	62.1052	32.2266	63.1964	32.2266	62.0747	32.2266	63.1102	32.2266	62.0612	32.2266	63.0106	32.2266	62.0653	32.2266	62.9011	32.2266	62.0873	32.2266	62.7858	32.2266	62.127	32.2266	62.6686	32.2266	62.1839	32.2266	62.5535	32.2266	62.257	32.2266	62.4444	32.2266	62.3446
33.6914	63.6781	33.6914	63.5765	33.6914	63.7704	33.6914	63.4691	33.6914	63.8504	33.6914	63.3589	33.6914	63.915	33.6914	63.249	33.6914	63.9615	33.6914	63.1423	33.6914	63.9876	33.6914	63.0414	33.6914	63.9918	33.6914	62.9488	33.6914	63.9733	33.6914	62.8665	33.6914	63.9323	33.6914	62.7966	33.6914	63.8701	33.6914	62.7406	33.6914	63.7886	33.6914	62.6998	33.6914	63.6911	33.6914	62.6755	33.6914	63.5811	33.6914	62.6685	33.6914	63.4629	33.6914	62.6794	33.6914	63.341	33.6914	62.7084	33.6914	63.2198	33.6914	62.7555	33.6914	63.1036	33.6914	62.82	33.6914	62.9962	33.6914	62.9008
35.1562	64.4222	35.1562	64.3223	35.1562	64.5136	35.1562	64.2169	35.1562	64.5932	35.1562	64.1095	35.1562	64.6581	35.1562	64.0029	35.1562	64.7054	35.1562	63.9	35.1562	64.733	35.1562	63.8035	35.1562	64.7393	35.1562	63.7156	35.1562	64.7236	35.1562	63.6385	35.1562	64.6862	35.1562	63.5739	35.1562	64.6281	35.1562	63.5233	35.1562	64.5514	35.1562	63.4879	35.1562	64.4592	35.1562	63.4686	35.1562	64.355	35.1562	63.466	35.1562	64.2429	35.1562	63.4805	35.1562	64.127	35.1562	63.5122	35.1562	64.0115	35.1562	63.5606	35.1562	63.9003	35.1562	63.6251	35.1562	63.797	35.1562	63.7045
36.6211	64.9383	36.6211	64.8409	36.6211	65.0264	36.6211	64.7376	36.6211	65.1021	36.6211	64.6315	36.6211	65.1623	36.6211	64.5259	36.6211	65.2045	36.6211	64.4237	36.6211	65.2267	36.6211	64.3276	36.6211	65.2276	36.6211	64.24	36.6211	65.2067	36.6211	64.1631	36.6211	65.1646	36.6211	64.0986	36.6211	65.1029	36.6211	64.0479	36.6211	65.024	36.6211	64.0122	36.6211	64.931	36.6211	63.9922	36.6211	64.8277	36.6211	63.9884	36.6211	64.7181	36.6211	64.001	36.6211	64.6063	36.6211	64.0298	36.6211	64.4961	36.6211	64.0744	36.6211	64.3911	36.6211	64.1341	36.6211	64.2942	36.6211	64.2078
38.0859	65.8231	38.0859	65.728	38.0859	65.9086	38.0859	65.6266	38.0859	65.9816	38.0859	65.5222	38.0859	66.0389	38.0859	65.4178	38.0859	66.0781	38.0859	65.3163	38.0859	66.0973	38.0859	65.2205	38.0859	66.0952	38.0859	65.1326	38.0859	66.0715	38.0859	65.0548	38.0859	66.0269	38.0859	64.9889	38.0859	65.9629	38.0859	64.9363	38.0859	65.8822	38.0859	64.8982	38.0859	65.788	38.0859	64.8754	38.0859	65.6841	38.0859	64.8685	38.0859	65.5745	38.0859	64.8778	38.0859	65.4633	38.0859	64.9032	38.0859	65.3542	38.0859	64.9445	38.0859	65.2507	38.0859	65.0011	38.0859	65.1559	38.0859	65.072
39.5508	66.3633	39.5508	66.2691	39.5508	66.4477	39.5508	66.1683	39.5508	66.519	39.5508	66.0642	39.5508	66.5744	39.5508	65.9599	39.5508	66.6114	39.5508	65.8583	39.5508	66.6281	39.5508	65.7623	39.5508	66.6234	39.5508	65.6741	39.5508	66.5971	39.5508	65.596	39.5508	66.5501	39.5508	65.5296	39.5508	66.4841	39.5508	65.4766	39.5508	66.402	39.5508	65.4379	39.5508	66.3071	39.5508	65.4145	39.5508	66.2033	39.5508	65.4068	39.5508	66.0946	39.5508	65.415	39.5508	65.9849	39.5508	65.4392	39.5508	65.8778	39.5508	65.479	39.5508	65.7767	39.5508	65.5338	39.5508	65.6842	39.5508	65.6026
41.0156	66.9592	41.0156	66.8667	41.0156	67.0413	41.0156	66.767	41.0156	67.1098	41.0156	66.6634	41.0156	67.1619	41.0156	66.5592	41.0156	67.1951	41.0156	66.4573	41.0156	67.2077	41.0156	66.3605	41.0156	67.1986	41.0156	66.2712	41.0156	67.1681	41.0156	66.1916	41.0156	67.1169	41.0156	66.1236	41.0156	67.0474	41.0156	66.0685	41.0156	66.9622	41.0156	66.0276	41.0156	66.8651	41.0156	66.0017	41.0156	66.76	41.0156	65.9912	41.0156	66.651	41.0156	65.9965	41.0156	66.5421	41.0156	66.0175	41.0156	66.4367	41.0156	66.0538	41.0156	66.338	41.0156	66.1051	41.0156	66.2485	41.0156	66.1704
42.4805	67.5861	42.4805	67.4929	42.4805	67.6684	42.4805	67.3922	42.4805	67.7367	42.4805	67.2873	42.4805	67.7879	42.4805	67.1815	42.4805	67.8198	42.4805	67.0778	42.4805	67.8304	42.4805	66.9792	42.4805	67.8189	42.4805	66.8881	42.4805	67.7854	42.4805	66.8067	42.4805	67.7311	42.4805	66.7368	42.4805	67.6581	42.4805	66.68	42.4805	67.5695	42.4805	66.6374	42.4805	67.4691	42.4805	66.6097	42.4805	67.3611	42.4805	66.5975	42.4805	67.2498	42.4805	66.6009	42.4805	67.1391	42.4805	66.6201	42.4805	67.0328	42.4805	66.6547	42.4805	66.934	42.4805	66.7042	42.4805	66.8451	42.4805	66.768
43.9453	68.1774	43.9453	68.0842	43.9453	68.2588	43.9453	67.9828	43.9453	68.3253	43.9453	67.8764	43.9453	68.374	43.9453	67.7685	43.9453	68.4024	43.9453	67.6621	43.9453	68.4089	43.9453	67.5601	43.9453	68.3926	43.9453	67.4653	43.9453	68.3538	43.9453	67.3798	43.9453	68.2939	43.9453	67.3056	43.9453	68.2152	43.9453	67.2443	43.9453	68.1213	43.9453	67.1971	43.9453	68.016	43.9453	67.165	43.9453	67.9037	43.9453	67.1486	43.9453	67.789	43.9453	67.1481	43.9453	67.6759	43.9453	67.1636	43.9453	67.568	43.9453	67.1951	43.9453	67.4686	43.9453	67.2421	43.9453	67.38	43.9453	67.3041
45.4102	68.6731	45.4102	68.5815	45.4102	68.7532	45.4102	68.4816	45.4102	68.8185	45.4102	68.3768	45.4102	68.8662	45.4102	68.2702	45.4102	68.894	45.4102	68.1651	45.4102	68.9001	45.4102	68.0641	45.4102	68.8838	45.4102	67.9699	45.4102	68.8452	45.4102	67.8848	45.4102	68.7855	45.4102	67.8106	45.4102	68.7071	45.4102	67.749	45.4102	68.6133	45.4102	67.7012	45.4102	68.5081	45.4102	67.6681	45.4102	68.3958	45.4102	67.6504	45.4102	68.281	45.4102	67.6485	45.4102	68.1679	45.4102	67.6625	45.4102	68.0603	45.4102	67.6924	45.4102	67.9613	45.4102	67.7379	45.4102	67.8734	45.4102	67.7986
46.875	69.229	46.875	69.1389	46.875	69.3076	46.875	69.0406	46.875	69.3716	46.875	68.9375	46.875	69.4182	46.875	68.8326	46.875	69.4452	46.875	68.729	46.875	69.4509	46.875	68.6297	46.875	69.4347	46.875	68.537	46.875	69.3966	46.875	68.4533	46.875	69.3381	46.875	68.3803	46.875	69.2614	46.875	68.3197	46.875	69.1696	46.875	68.2726	46.875	69.0665	46.875	68.2399	46.875	68.9563	46.875	68.2223	46.875	68.8433	46.875	68.2202	46.875	68.7317	46.875	68.2337	46.875	68.6255	46.875	68.2628	46.875	68.5277	46.875	68.3075	46.875	68.4409	46.875	68.3671
48.3398	69.6032	48.3398	69.5166	48.3398	69.6793	48.3398	69.4229	48.3398	69.7421	48.3398	69.3251	48.3398	69.789	48.3398	69.2266	48.3398	69.8178	48.3398	69.1302	48.3398	69.8272	48.3398	69.0389	48.3398	69.8166	48.3398	68.9549	48.3398	69.7864	48.3398	68.8806	48.3398	69.7377	48.3398	68.8175	48.3398	69.6728	48.3398	68.7671	48.3398	69.5944	48.3398	68.7304	48.3398	69.5057	48.3398	68.7079	48.3398	69.4101	48.3398	68.7001	48.3398	69.3113	48.3398	68.7068	48.3398	69.2124	48.3398	68.7279	48.3398	69.1166	48.3398	68.763	48.3398	69.0265	48.3398	68.8114	48.3398	68.9445	48.3398	68.8723
51.2695	70.9084	51.2695	70.8199	51.2695	70.9845	51.2695	70.7222	51.2695	71.0451	51.2695	70.6189	51.2695	71.0877	51.2695	70.5135	51.2695	71.1101	51.2695	70.4091	51.2695	71.1114	51.2695	70.3091	51.2695	71.0912	51.2695	70.2161	51.2695	71.0504	51.2695	70.1327	51.2695	70.9908	51.2695	70.061	51.2695	70.915	51.2695	70.0026	51.2695	70.8265	51.2695	69.9586	51.2695	70.729	51.2695	69.9301	51.2695	70.6263	51.2695	69.9171	51.2695	70.5221	51.2695	69.9199	51.2695	70.4197	51.2695	69.938	51.2695	70.322	51.2695	69.9709	51.2695	70.2311	51.2695	70.0177	51.2695	70.1491	51.2695	70.0775
52.7344	71.4277	52.7344	71.3397	52.7344	71.5028	52.7344	71.2421	52.7344	71.5619	52.7344	71.1382	52.7344	71.6024	52.7344	71.0316	52.7344	71.6222	52.7344	70.9254	52.7344	71.6202	52.7344	70.8228	52.7344	71.5961	52.7344	70.7264	52.7344	71.5506	52.7344	70.6387	52.7344	71.4854	52.7344	70.5618	52.7344	71.4033	52.7344	70.4973	52.7344	71.3077	52.7344	70.4465	52.7344	71.2025	52.7344	70.4104	52.7344	71.0919	52.7344	70.3897	52.7344	70.98	52.7344	70.3845	52.7344	70.8706	52.7344	70.3951	52.7344	70.7673	52.7344	70.4213	52.7344	70.6729	52.7344	70.4629	52.7344	70.5897	52.7344	70.5193
54.1992	71.8682	54.1992	71.7788	54.1992	71.9453	54.1992	71.6806	54.1992	72.0071	54.1992	71.5769	54.1992	72.0509	54.1992	71.4712	54.1992	72.0746	54.1992	71.3666	54.1992	72.0768	54.1992	71.2662	54.1992	72.0571	54.1992	71.1726	54.1992	72.016	54.1992	71.0881	54.1992	71.9552	54.1992	71.0147	54.1992	71.8771	54.1992	70.9539	54.1992	71.7849	54.1992	70.9069	54.1992	71.6825	54.1992	70.8745	54.1992	71.5739	54.1992	70.8572	54.1992	71.4632	54.1992	70.8552	54.1992	71.3544	54.1992	70.8687	54.1992	71.251	54.1992	70.8975	54.1992	71.1559	54.1992	70.9413	54.1992	71.0715	54.1992	70.9995
55.6641	72.2733	55.6641	72.1845	55.6641	72.3503	55.6641	72.0871	55.6641	72.4121	55.6641	71.9846	55.6641	72.4564	55.6641	71.8804	55.6641	72.4809	55.6641	71.7779	55.6641	72.4845	55.6641	71.68	55.6641	72.4669	55.6641	71.5896	55.6641	72.4286	55.6641	71.509	55.6641	72.3715	55.6641	71.4401	55.6641	72.298	55.6641	71.3845	55.6641	72.2114	55.6641	71.3431	55.6641	72.1155	55.6641	71.3167	55.6641	72.014	55.6641	71.3054	55.6641	71.9105	55.6641	71.3093	55.6641	71.8085	55.6641	71.328	55.6641	71.711	55.6641	71.361	55.6641	71.6202	55.6641	71.4077	55.6641	71.5385	55.6641	71.4672
58.5938	73.1844	58.5938	73.0942	58.5938	73.2621	58.5938	72.9951	58.5938	73.3243	58.5938	72.8905	58.5938	73.3683	58.5938	72.7839	58.5938	73.3921	58.5938	72.6788	58.5938	73.3946	58.5938	72.5783	58.5938	73.3754	58.5938	72.4852	58.5938	73.3352	58.5938	72.402	58.5938	73.2759	58.5938	72.3307	58.5938	73.2001	58.5938	72.273	58.5938	73.111	58.5938	72.2299	58.5938	73.0125	58.5938	72.202	58.5938	72.9085	58.5938	72.1898	58.5938	72.8028	58.5938	72.193	58.5938	72.6987	58.5938	72.2115	58.5938	72.5993	58.5938	72.2446	58.5938	72.5071	58.5938	72.2917	58.5938	72.424	58.5938	72.3518
60.0586	73.6167	60.0586	73.5264	60.0586	73.6943	60.0586	73.427	60.0586	73.7563	60.0586	73.322	60.0586	73.8001	60.0586	73.2148	60.0586	73.8237	60.0586	73.109	60.0586	73.8259	60.0586	73.0077	60.0586	73.8067	60.0586	72.9138	60.0586	73.7668	60.0586	72.8299	60.0586	73.708	60.0586	72.758	60.0586	73.633	60.0586	72.6998	60.0586	73.5452	60.0586	72.6565	60.0586	73.4482	60.0586	72.6288	60.0586	73.3457	60.0586	72.6171	60.0586	73.2412	60.0586	72.6213	60.0586	73.138	60.0586	72.6412	60.0586	73.0387	60.0586	72.6761	60.0586	72.9459	60.0586	72.7252	60.0586	72.8615	60.0586	72.7874
62.9883	74.406	62.9883	74.3166	62.9883	74.4821	62.9883	74.2173	62.9883	74.5418	62.9883	74.1118	62.9883	74.5828	62.9883	74.0035	62.9883	74.6032	62.9883	73.8962	62.9883	74.6021	62.9883	73.7932	62.9883	74.5798	62.9883	73.6976	62.9883	74.5372	62.9883	73.6121	62.9883	74.4765	62.9883	73.5389	62.9883	74.4007	62.9883	73.4799	62.9883	74.313	62.9883	73.4362	62.9883	74.2172	62.9883	73.4087	62.9883	74.1168	62.9883	73.3977	62.9883	74.015	62.9883	73.4028	62.9883	73.9146	62.9883	73.4238	62.9883	73.8181	62.9883	73.4596	62.9883	73.7275	62.9883	73.5092	62.9883	73.6447	62.9883	73.5714
64.4531	74.7841	64.4531	74.6971	64.4531	74.8571	64.4531	74.5996	64.4531	74.9132	64.4531	74.495	64.4531	74.95	64.4531	74.3871	64.4531	74.9657	64.4531	74.2795	64.4531	74.9598	64.4531	74.1755	64.4531	74.9323	64.4531	74.0784	64.4531	74.8847	64.4531	73.9907	64.4531	74.8192	64.4531	73.915	64.4531	74.7391	64.4531	73.8529	64.4531	74.6479	64.4531	73.8059	64.4531	74.5495	64.4531	73.7747	64.4531	74.4475	64.4531	73.7598	64.4531	74.3453	64.4531	73.7609	64.4531	74.2456	64.4531	73.7777	64.4531	74.1508	64.4531	73.8095	64.4531	74.0627	64.4531	73.855	64.4531	73.983	64.4531	73.9133
67.3828	75.6298	67.3828	75.5422	67.3828	75.704	67.3828	75.4445	67.3828	75.7616	67.3828	75.3402	67.3828	75.8001	67.3828	75.2331	67.3828	75.8178	67.3828	75.1265	67.3828	75.8138	67.3828	75.0239	67.3828	75.7881	67.3828	74.9282	67.3828	75.742	67.3828	74.842	67.3828	75.6775	67.3828	74.7675	67.3828	75.5978	67.3828	74.7063	67.3828	75.5063	67.3828	74.6597	67.3828	75.407	67.3828	74.6285	67.3828	75.3035	67.3828	74.6129	67.3828	75.1994	67.3828	74.6132	67.3828	75.0977	67.3828	74.6288	67.3828	75.0011	67.3828	74.6593	67.3828	74.9116	67.3828	74.7039	67.3828	74.8313	67.3828	74.7616
68.8477	76.0076	68.8477	75.919	68.8477	76.0827	68.8477	75.8204	68.8477	76.1412	68.8477	75.7153	68.8477	76.1807	68.8477	75.6076	68.8477	76.1993	68.8477	75.5007	68.8477	76.1963	68.8477	75.398	68.8477	76.1717	68.8477	75.3025	68.8477	76.1268	68.8477	75.2169	68.8477	76.0638	68.8477	75.1434	68.8477	75.9856	68.8477	75.0836	68.8477	75.8958	68.8477	75.0387	68.8477	75.7981	68.8477	75.0094	68.8477	75.6962	68.8477	74.996	68.8477	75.5934	68.8477	74.9985	68.8477	75.4925	68.8477	75.0163	68.8477	75.3963	68.8477	75.0489	68.8477	75.3067	68.8477	75.0954	68.8477	75.2256	68.8477	75.1547
71.7773	76.6853	71.7773	76.5956	71.7773	76.7615	71.7773	76.4958	71.7773	76.821	71.7773	76.3898	71.7773	76.8615	71.7773	76.2811	71.7773	76.8811	71.7773	76.1737	71.7773	76.8792	71.7773	76.0709	71.7773	76.8559	71.7773	75.9758	71.7773	76.8127	71.7773	75.8913	71.7773	76.7517	71.7773	75.8194	71.7773	76.6761	71.7773	75.7619	71.7773	76.5892	71.7773	75.7199	71.7773	76.4946	71.7773	75.6939	71.7773	76.3958	71.7773	75.6843	71.7773	76.2958	71.7773	75.6906	71.7773	76.1973	71.7773	75.7122	71.7773	76.1025	71.7773	75.7484	71.7773	76.0135	71.7773	75.798	71.7773	75.932	71.7773	75.8596
74.707	77.2845	74.707	77.1943	74.707	77.3608	74.707	77.0937	74.707	77.4201	74.707	76.9865	74.707	77.46	74.707	76.8766	74.707	77.4788	74.707	76.7678	74.707	77.4759	74.707	76.6638	74.707	77.4516	74.707	76.5676	74.707	77.4075	74.707	76.4823	74.707	77.3458	74.707	76.4099	74.707	77.2697	74.707	76.3522	74.707	77.1828	74.707	76.3104	74.707	77.0884	74.707	76.285	74.707	76.9901	74.707	76.2761	74.707	76.8907	74.707	76.2833	74.707	76.7927	74.707	76.306	74.707	76.6985	74.707	76.3431	74.707	76.6097	74.707	76.3934	74.707	76.5282	74.707	76.4556
77.6367	77.8349	77.6367	77.7439	77.6367	77.9116	77.6367	77.6421	77.6367	77.9708	77.6367	77.5335	77.6367	78.0101	77.6367	77.422	77.6367	78.0279	77.6367	77.3116	77.6367	78.0235	77.6367	77.2059	77.6367	77.9976	77.6367	77.1084	77.6367	77.9517	77.6367	77.0219	77.6367	77.8884	77.6367	76.9486	77.6367	77.8109	77.6367	76.8904	77.6367	77.7227	77.6367	76.8482	77.6367	77.6276	77.6367	76.8228	77.6367	77.5288	77.6367	76.8141	77.6367	77.4293	77.6367	76.8216	77.6367	77.3315	77.6367	76.8446	77.6367	77.2374	77.6367	76.882	77.6367	77.1488	77.6367	76.9325	77.6367	77.0675	77.6367	76.9949
79.1016	78.111	79.1016	78.0194	79.1016	78.1883	79.1016	77.9171	79.1016	78.248	79.1016	77.8079	79.1016	78.2878	79.1016	77.6959	79.1016	78.306	79.1016	77.585	79.1016	78.3022	79.1016	77.4791	79.1016	78.2769	79.1016	77.3815	79.1016	78.2316	79.1016	77.2951	79.1016	78.1689	79.1016	77.2222	79.1016	78.0921	79.1016	77.1644	79.1016	78.0046	79.1016	77.123	79.1016	77.91	79.1016	77.0984	79.1016	77.8116	79.1016	77.0906	79.1016	77.7123	79.1016	77.099	79.1016	77.6145	79.1016	77.123	79.1016	77.5202	79.1016	77.1613	79.1016	77.4312	79.1016	77.2128	79.1016	77.3492	79.1016	77.2759
82.0312	78.5817	82.0312	78.4896	82.0312	78.6591	82.0312	78.3865	82.0312	78.7188	82.0312	78.2763	82.0312	78.7582	82.0312	78.1633	82.0312	78.7761	82.0312	78.0514	82.0312	78.7719	82.0312	77.9446	82.0312	78.7463	82.0312	77.8463	82.0312	78.7012	82.0312	77.7595	82.0312	78.639	82.0312	77.6866	82.0312	78.5631	82.0312	77.6293	82.0312	78.4769	82.0312	77.5886	82.0312	78.3839	82.0312	77.5652	82.0312	78.2871	82.0312	77.5588	82.0312	78.1891	82.0312	77.5689	82.0312	78.0923	82.0312	77.5947	82.0312	77.9985	82.0312	77.6348	82.0312	77.9095	82.0312	77.688	82.0312	77.8269	82.0312	77.7525
84.9609	78.9579	84.9609	78.8656	84.9609	79.0359	84.9609	78.7627	84.9609	79.0965	84.9609	78.6535	84.9609	79.1371	84.9609	78.5422	84.9609	79.1565	84.9609	78.4332	84.9609	79.1542	84.9609	78.3303	84.9609	79.1312	84.9609	78.2372	84.9609	79.0895	84.9609	78.1567	84.9609	79.0318	84.9609	78.0912	84.9609	78.9616	84.9609	78.042	84.9609	78.8822	84.9609	78.0099	84.9609	78.7969	84.9609	77.995	84.9609	78.7085	84.9609	77.9967	84.9609	78.6191	84.9609	78.0141	84.9609	78.5305	84.9609	78.0456	84.9609	78.4439	84.9609	78.0899	84.9609	78.3607	84.9609	78.1452	84.9609	78.2822	84.9609	78.2098
87.8906	79.314	87.8906	79.2226	87.8906	79.3906	87.8906	79.1202	87.8906	79.4491	87.8906	79.0111	87.8906	79.4874	87.8906	78.8998	87.8906	79.5041	87.8906	78.7908	87.8906	79.4993	87.8906	78.6886	87.8906	79.4743	87.8906	78.5968	87.8906	79.4315	87.8906	78.5186	87.8906	79.3742	87.8906	78.4567	87.8906	79.3063	87.8906	78.4124	87.8906	79.2315	87.8906	78.3865	87.8906	79.153	87.8906	78.3787	87.8906	79.0734	87.8906	78.3881	87.8906	78.9942	87.8906	78.4129	87.8906	78.9162	87.8906	78.4512	87.8906	78.8396	87.8906	78.5005	87.8906	78.7649	87.8906	78.5586	87.8906	78.6924	87.8906	78.6232
90.8203	79.7047	90.8203	79.6104	90.8203	79.7826	90.8203	79.5037	90.8203	79.8409	90.8203	79.3891	90.8203	79.8772	90.8203	79.2712	90.8203	79.8904	90.8203	79.1548	90.8203	79.8806	90.8203	79.0442	90.8203	79.8491	90.8203	78.9437	90.8203	79.7984	90.8203	78.8567	90.8203	79.7323	90.8203	78.7859	90.8203	79.6546	90.8203	78.7331	90.8203	79.5696	90.8203	78.6993	90.8203	79.4809	90.8203	78.6845	90.8203	79.3916	90.8203	78.6878	90.8203	79.3035	90.8203	78.7077	90.8203	79.2179	90.8203	78.7423	90.8203	79.1354	90.8203	78.7891	90.8203	79.0563	90.8203	78.8459	90.8203	78.981	90.8203	78.9104
95.2148	80.1079	95.2148	80.0111	95.2148	80.1876	95.2148	79.9011	95.2148	80.2466	95.2148	79.7827	95.2148	80.2826	95.2148	79.6606	95.2148	80.2943	95.2148	79.5397	95.2148	80.2817	95.2148	79.4247	95.2148	80.2462	95.2148	79.3198	95.2148	80.1907	95.2148	79.2285	95.2148	80.1187	95.2148	79.1536	95.2148	80.0347	95.2148	79.0969	95.2148	79.9432	95.2148	79.0595	95.2148	79.8482	95.2148	79.0412	95.2148	79.753	95.2148	79.0413	95.2148	79.6598	95.2148	79.0584	95.2148	79.57	95.2148	79.0906	95.2148	79.4842	95.2148	79.1355	95.2148	79.4027	95.2148	79.1911	95.2148	79.3262	95.2148	79.2552
98.1445	80.3429	98.1445	80.2432	98.1445	80.4249	98.1445	80.13	98.1445	80.4858	98.1445	80.008	98.1445	80.5231	98.1445	79.8822	98.1445	80.5356	98.1445	79.7577	98.1445	80.5233	98.1445	79.6392	98.1445	80.4878	98.1445	79.5313	98.1445	80.4318	98.1445	79.4376	98.1445	80.3591	98.1445	79.361	98.1445	80.274	98.1445	79.3036	98.1445	80.1812	98.1445	79.2663	98.1445	80.0848	98.1445	79.2491	98.1445	79.988	98.1445	79.2511	98.1445	79.8932	98.1445	79.2706	98.1445	79.8017	98.1445	79.3056	98.1445	79.7142	98.1445	79.3535	98.1445	79.6309	98.1445	79.4119	98.1445	79.5521	98.1445	79.4787
101.074	80.522	101.074	80.4224	101.074	80.6028	101.074	80.3084	101.074	80.6615	101.074	80.1847	101.074	80.6957	101.074	80.0563	101.074	80.7042	101.074	79.9284	101.074	80.6873	101.074	79.806	101.074	80.6466	101.074	79.6936	101.074	80.5851	101.074	79.595	101.074	80.5067	101.074	79.5134	101.074	80.4163	101.074	79.4508	101.074	80.3186	101.074	79.4086	101.074	80.2179	101.074	79.3868	101.074	80.1176	101.074	79.3847	101.074	80.02	101.074	79.4007	101.074	79.9264	101.074	79.4328	101.074	79.8375	101.074	79.4785	101.074	79.7533	101.074	79.5354	101.074	79.6744	101.074	79.6013
105.469	80.7178	105.469	80.6176	105.469	80.7985	105.469	80.5024	105.469	80.8561	105.469	80.3771	105.469	80.8879	105.469	80.2467	105.469	80.8924	105.469	80.1165	105.469	80.8698	105.469	79.9912	105.469	80.8214	105.469	79.8753	105.469	80.7503	105.469	79.7724	105.469	80.6606	105.469	79.6854	105.469	80.5574	105.469	79.6163	105.469	80.4463	105.469	79.5663	105.469	80.3323	105.469	79.5356	105.469	80.22	105.469	79.5235	105.469	80.1126	105.469	79.529	105.469	80.012	105.469	79.5503	105.469	79.9193	105.469	79.5856	105.469	79.8348	105.469	79.6331	105.469	79.7586	105.469	79.6911
108.398	80.7231	108.398	80.6212	108.398	80.8078	108.398	80.5067	108.398	80.8714	108.398	80.3845	108.398	80.9114	108.398	80.2599	108.398	80.9261	108.398	80.1381	108.398	80.9155	108.398	80.0239	108.398	80.8808	108.398	79.9213	108.398	80.8246	108.398	79.8338	108.398	80.7505	108.398	79.7635	108.398	80.6631	108.398	79.7118	108.398	80.567	108.398	79.6788	108.398	80.4668	108.398	79.664	108.398	80.3662	108.398	79.6661	108.398	80.2684	108.398	79.6833	108.398	80.1753	108.398	79.7137	108.398	80.0882	108.398	79.7554	108.398	80.0074	108.398	79.8067	108.398	79.9334	108.398	79.8663
112.793	80.7732	112.793	80.6738	112.793	80.8534	112.793	80.5598	112.793	80.9109	112.793	80.4365	112.793	80.9437	112.793	80.3097	112.793	80.9509	112.793	80.1852	112.793	80.9335	112.793	80.0685	112.793	80.8938	112.793	79.9645	112.793	80.8356	112.793	79.8774	112.793	80.7635	112.793	79.8098	112.793	80.6822	112.793	79.7634	112.793	80.5964	112.793	79.7383	112.793	80.5099	112.793	79.7335	112.793	80.4254	112.793	79.747	112.793	80.3442	112.793	79.776	112.793	80.267	112.793	79.8176	112.793	80.1932	112.793	79.8686	112.793	80.1225	112.793	79.9264	112.793	80.0544	112.793	79.9888
117.188	80.8151	117.188	80.7044	117.188	80.9037	117.188	80.5766	117.188	80.9663	117.188	80.4374	117.188	81.0007	117.188	80.2936	117.188	81.0064	117.188	80.1516	117.188	80.9846	117.188	80.0182	117.188	80.9384	117.188	79.8991	117.188	80.872	117.188	79.7993	117.188	80.7911	117.188	79.7222	117.188	80.7012	117.188	79.6698	117.188	80.6078	117.188	79.6424	117.188	80.5149	117.188	79.639	117.188	80.425	117.188	79.657	117.188	80.3391	117.188	79.6932	117.188	80.2568	117.188	79.7438	117.188	80.1772	117.188	79.8052	117.188	80.0992	117.188	79.8738	117.188	80.0224	117.188	79.9469
120.117	80.9371	120.117	80.8297	120.117	81.0211	120.117	80.7035	120.117	81.0781	120.117	80.5643	120.117	81.1061	120.117	80.4184	120.117	81.1046	120.117	80.2724	120.117	81.075	120.117	80.1328	120.117	81.0204	120.117	80.006	120.117	80.9454	120.117	79.8971	120.117	80.8559	120.117	79.8105	120.117	80.758	120.117	79.7489	120.117	80.6577	120.117	79.7132	120.117	80.5596	120.117	79.7029	120.117	80.4665	120.117	79.7158	120.117	80.3796	120.117	79.7487	120.117	80.2981	120.117	79.7973	120.117	80.2205	120.117	79.8575	120.117	80.1451	120.117	79.9252	120.117	80.0707	120.117	79.997
124.512	81.0136	124.512	80.9075	124.512	81.0971	124.512	80.7837	124.512	81.1543	124.512	80.648	124.512	81.1831	124.512	80.5067	124.512	81.183	124.512	80.3662	124.512	81.1552	124.512	80.2331	124.512	81.1029	124.512	80.113	124.512	81.0306	124.512	80.0109	124.512	80.944	124.512	79.9305	124.512	80.8492	124.512	79.8738	124.512	80.7518	124.512	79.8418	124.512	80.6563	124.512	79.8334	124.512	80.5656	124.512	79.8466	124.512	80.4809	124.512	79.8783	124.512	80.4018	124.512	79.9247	124.512	80.3269	124.512	79.9817	124.512	80.2545	124.512	80.0457	124.512	80.1835	124.512	80.1136
128.906	81.0243	128.906	80.9117	128.906	81.1118	128.906	80.7792	128.906	81.1703	128.906	80.6331	128.906	81.1975	128.906	80.4805	128.906	81.1932	128.906	80.3286	128.906	81.1589	128.906	80.1845	128.906	81.0985	128.906	80.0548	128.906	81.0172	128.906	79.9451	128.906	80.9217	128.906	79.8595	128.906	80.8189	128.906	79.8004	128.906	80.7154	128.906	79.7685	128.906	80.6161	128.906	79.7627	128.906	80.5237	128.906	79.7802	128.906	80.439	128.906	79.8173	128.906	80.3609	128.906	79.8694	128.906	80.2872	128.906	79.932	128.906	80.2154	128.906	80.0007	128.906	80.1439	128.906	80.072
133.301	80.9883	133.301	80.8706	133.301	81.0803	133.301	80.7323	133.301	81.1424	133.301	80.5799	133.301	81.1724	133.301	80.4203	133.301	81.1694	133.301	80.2607	133.301	81.1347	133.301	80.1084	133.301	81.0717	133.301	79.9699	133.301	80.9851	133.301	79.8509	133.301	80.8814	133.301	79.7557	133.301	80.7675	133.301	79.687	133.301	80.6504	133.301	79.6457	133.301	80.5356	133.301	79.631	133.301	80.4273	133.301	79.6405	133.301	80.3271	133.301	79.6707	133.301	80.2349	133.301	79.7174	133.301	80.1494	133.301	79.7763	133.301	80.0685	133.301	79.8434	133.301	79.9908	133.301	79.9156
139.16	80.833	139.16	80.7094	139.16	80.9301	139.16	80.5646	139.16	80.997	139.16	80.4052	139.16	81.0317	139.16	80.2386	139.16	81.0342	139.16	80.0729	139.16	81.0063	139.16	79.9161	139.16	80.9519	139.16	79.7758	139.16	80.8762	139.16	79.6584	139.16	80.7853	139.16	79.5686	139.16	80.6856	139.16	79.5092	139.16	80.5827	139.16	79.4808	139.16	80.4812	139.16	79.4818	139.16	80.3836	139.16	79.5088	139.16	80.2909	139.16	79.5571	139.16	80.2023	139.16	79.6215	139.16	80.1167	139.16	79.6967	139.16	80.0321	139.16	79.7783	139.16	79.9476	139.16	79.8627
143.555	80.786	143.555	80.6645	143.555	80.879	143.555	80.5194	143.555	80.94	143.555	80.3572	143.555	80.9676	143.555	80.1856	143.555	80.9626	143.555	80.0127	143.555	80.9275	143.555	79.8472	143.555	80.8671	143.555	79.6971	143.555	80.7875	143.555	79.57	143.555	80.6957	143.555	79.4716	143.555	80.5982	143.555	79.4056	143.555	80.5008	143.555	79.3734	143.555	80.407	143.555	79.3739	143.555	80.3183	143.555	79.4039	143.555	80.2338	143.555	79.4585	143.555	80.1516	143.555	79.5315	143.555	80.069	143.555	79.617	143.555	79.9839	143.555	79.709	143.555	79.8951	143.555	79.8028
147.949	80.831	147.949	80.7181	147.949	80.9132	147.949	80.5794	147.949	80.9615	147.949	80.4213	147.949	80.9749	147.949	80.2515	147.949	80.9544	147.949	80.0781	147.949	80.9036	147.949	79.9101	147.949	80.8282	147.949	79.7559	147.949	80.7357	147.949	79.6236	147.949	80.6346	147.949	79.5196	147.949	80.533	147.949	79.4486	147.949	80.4373	147.949	79.4128	147.949	80.3512	147.949	79.4115	147.949	80.2754	147.949	79.4416	147.949	80.2075	147.949	79.4977	147.949	80.1432	147.949	79.5731	147.949	80.0778	147.949	79.6604	147.949	80.0072	147.949	79.7525	147.949	79.9292	147.949	79.8436
153.809	80.8081	153.809	80.6924	153.809	80.8917	153.809	80.5499	153.809	80.9396	153.809	80.3873	153.809	80.95	153.809	80.212	153.809	80.9235	153.809	80.0323	153.809	80.8631	153.809	79.8567	153.809	80.7743	153.809	79.6935	153.809	80.6648	153.809	79.5503	153.809	80.5436	153.809	79.4337	153.809	80.4201	153.809	79.3485	153.809	80.3022	153.809	79.2972	153.809	80.1956	153.809	79.2802	153.809	80.1022	153.809	79.295	153.809	80.0208	153.809	79.337	153.809	79.9473	153.809	79.4001	153.809	79.8769	153.809	79.4772	153.809	79.8048	153.809	79.5612	153.809	79.7281	153.809	79.6463
159.668	80.6323	159.668	80.5199	159.668	80.7142	159.668	80.3822	159.668	80.7617	159.668	80.2261	159.668	80.7731	159.668	80.0591	159.668	80.7486	159.668	79.8893	159.668	80.6912	159.668	79.7247	159.668	80.6056	159.668	79.5729	159.668	80.499	159.668	79.4407	159.668	80.3794	159.668	79.3334	159.668	80.2554	159.668	79.2545	159.668	80.1348	159.668	79.2056	159.668	80.0233	159.668	79.1864	159.668	79.9238	159.668	79.1945	159.668	79.8364	159.668	79.2257	159.668	79.7587	159.668	79.275	159.668	79.6871	159.668	79.3368	159.668	79.6178	159.668	79.4056	159.668	79.5481	159.668	79.477
165.527	80.3656	165.527	80.2398	165.527	80.4548	165.527	80.0833	165.527	80.5037	165.527	79.9039	165.527	80.5115	165.527	79.7108	165.527	80.4799	165.527	79.5144	165.527	80.4139	165.527	79.3255	165.527	80.3208	165.527	79.1545	165.527	80.2105	165.527	79.0107	165.527	80.0932	165.527	78.9011	165.527	79.9785	165.527	78.8299	165.527	79.8733	165.527	78.7979	165.527	79.7807	165.527	78.8026	165.527	79.7002	165.527	78.8391	165.527	79.6282	165.527	78.9004	165.527	79.5601	165.527	78.979	165.527	79.4911	165.527	79.0678	165.527	79.4175	165.527	79.1602	165.527	79.3376	165.527	79.2513
171.387	80.4915	171.387	80.3841	171.387	80.5645	171.387	80.2474	171.387	80.5993	171.387	80.0881	171.387	80.594	171.387	79.9134	171.387	80.5488	171.387	79.7316	171.387	80.4665	171.387	79.551	171.387	80.3527	171.387	79.3803	171.387	80.2156	171.387	79.2277	171.387	80.0658	171.387	79.1005	171.387	79.9154	171.387	79.0048	171.387	79.7757	171.387	78.944	171.387	79.6557	171.387	78.9189	171.387	79.5597	171.387	78.9271	171.387	79.4867	171.387	78.9633	171.387	79.4311	171.387	79.02	171.387	79.3846	171.387	79.0883	171.387	79.3389	171.387	79.1598	171.387	79.2876	171.387	79.2277
177.246	80.3022	177.246	80.1839	177.246	80.3836	177.246	80.0346	177.246	80.4243	177.246	79.862	177.246	80.4231	177.246	79.6751	177.246	80.3814	177.246	79.4837	177.246	80.3038	177.246	79.298	177.246	80.1973	177.246	79.1276	177.246	80.0714	177.246	78.9815	177.246	79.9367	177.246	78.8665	177.246	79.8038	177.246	78.7874	177.246	79.6815	177.246	78.7458	177.246	79.5759	177.246	78.7404	177.246	79.4888	177.246	78.767	177.246	79.4183	177.246	78.8192	177.246	79.3597	177.246	78.8889	177.246	79.3066	177.246	78.9678	177.246	79.2525	177.246	79.0482	177.246	79.1925	177.246	79.1243
183.105	80.3647	183.105	80.248	183.105	80.4419	183.105	80.098	183.105	80.4757	183.105	79.9225	183.105	80.4649	183.105	79.7305	183.105	80.4108	183.105	79.5321	183.105	80.3181	183.105	79.3377	183.105	80.1946	183.105	79.1575	183.105	80.0505	183.105	79.0008	183.105	79.8981	183.105	78.8754	183.105	79.7496	183.105	78.7868	183.105	79.6156	183.105	78.7375	183.105	79.5033	183.105	78.7264	183.105	79.4151	183.105	78.7494	183.105	79.3483	183.105	78.7994	183.105	79.2968	183.105	78.8677	183.105	79.2526	183.105	78.9449	183.105	79.2077	183.105	79.0225	183.105	79.1559	183.105	79.0941
188.965	80.4167	188.965	80.2923	188.965	80.5001	188.965	80.1334	188.965	80.5382	188.965	79.9481	188.965	80.5292	188.965	79.7461	188.965	80.4743	188.965	79.5378	188.965	80.3778	188.965	79.3341	188.965	80.2472	188.965	79.1454	188.965	80.0929	188.965	78.9815	188.965	79.9276	188.965	78.8504	188.965	79.7647	188.965	78.7577	188.965	79.6164	188.965	78.7058	188.965	79.4916	188.965	78.6938	188.965	79.3939	188.965	78.717	188.965	79.3213	188.965	78.7682	188.965	79.2674	188.965	78.8381	188.965	79.223	188.965	78.9169	188.965	79.1791	188.965	78.9956	188.965	79.1285	188.965	79.0673
196.289	80.2009	196.289	80.0741	196.289	80.2852	196.289	79.9111	196.289	80.3232	196.289	79.7209	196.289	80.3143	196.289	79.5141	196.289	80.2612	196.289	79.3027	196.289	80.1704	196.289	79.0991	196.289	80.0512	196.289	78.9159	196.289	79.9155	196.289	78.764	196.289	79.7762	196.289	78.6524	196.289	79.6456	196.289	78.5864	196.289	79.5333	196.289	78.5675	196.289	79.4446	196.289	78.5924	196.289	79.38	196.289	78.654	196.289	79.3355	196.289	78.7419	196.289	79.3037	196.289	78.8441	196.289	79.2752	196.289	78.949	196.289	79.2411	196.289	79.0464	196.289	79.1939	196.289	79.1292
203.613	80.2939	203.613	80.1648	203.613	80.3732	203.613	79.9924	203.613	80.3986	203.613	79.7858	203.613	80.3692	203.613	79.5553	203.613	80.2877	203.613	79.3131	203.613	80.1608	203.613	79.0718	203.613	79.9993	203.613	78.8446	203.613	79.8174	203.613	78.6444	203.613	79.6317	203.613	78.4827	203.613	79.4587	203.613	78.3684	203.613	79.3123	203.613	78.3069	203.613	79.2001	203.613	78.2986	203.613	79.1228	203.613	78.3386	203.613	79.0738	203.613	78.4172	203.613	79.0418	203.613	78.5211	203.613	79.0133	203.613	78.6357	203.613	78.9762	203.613	78.7471	203.613	78.9213	203.613	78.8445
210.938	80.2546	210.938	80.129	210.938	80.3285	210.938	79.959	210.938	80.3453	210.938	79.754	210.938	80.3027	210.938	79.5245	210.938	80.2014	210.938	79.2821	210.938	80.0465	210.938	79.039	210.938	79.8473	210.938	78.8076	210.938	79.6179	210.938	78.5997	210.938	79.3766	210.938	78.4257	210.938	79.1441	210.938	78.2936	210.938	78.9399	210.938	78.2082	210.938	78.7787	210.938	78.1698	210.938	78.6665	210.938	78.174	210.938	78.5996	210.938	78.2125	210.938	78.566	210.938	78.2736	210.938	78.55	210.938	78.3447	210.938	78.5359	210.938	78.4137	210.938	78.5117	210.938	78.4711
218.262	80.2476	218.262	80.1138	218.262	80.3328	218.262	79.9393	218.262	80.3641	218.262	79.7336	218.262	80.3388	218.262	79.5077	218.262	80.2574	218.262	79.2735	218.262	80.124	218.262	79.0431	218.262	79.9466	218.262	78.8283	218.262	79.7371	218.262	78.6397	218.262	79.5113	218.262	78.4865	218.262	79.2872	218.262	78.3748	218.262	79.0833	218.262	78.3077	218.262	78.9145	218.262	78.2838	218.262	78.7895	218.262	78.2976	218.262	78.7082	218.262	78.3402	218.262	78.6627	218.262	78.4001	218.262	78.6399	218.262	78.4654	218.262	78.625	218.262	78.5256	218.262	78.6055	218.262	78.5732
225.586	80.1232	225.586	79.9761	225.586	80.2227	225.586	79.7893	225.586	80.2691	225.586	79.5736	225.586	80.2607	225.586	79.341	225.586	80.1988	225.586	79.1048	225.586	80.0889	225.586	78.878	225.586	79.9392	225.586	78.673	225.586	79.7614	225.586	78.5008	225.586	79.5689	225.586	78.37	225.586	79.3767	225.586	78.2864	225.586	79.1994	225.586	78.2518	225.586	79.0495	225.586	78.2637	225.586	78.9354	225.586	78.3146	225.586	78.8591	225.586	78.3932	225.586	78.8155	225.586	78.4857	225.586	78.7936	225.586	78.578	225.586	78.7789	225.586	78.6582	225.586	78.7573	225.586	78.7186
232.91	80.1784	232.91	80.0173	232.91	80.2798	232.91	79.805	232.91	80.3162	232.91	79.5531	232.91	80.2866	232.91	79.2758	232.91	80.194	232.91	78.989	232.91	80.046	232.91	78.7096	232.91	79.855	232.91	78.4544	232.91	79.6374	232.91	78.2387	232.91	79.4122	232.91	78.0747	232.91	79.1991	232.91	77.9705	232.91	79.0148	232.91	77.9283	232.91	78.8703	232.91	77.9444	232.91	78.7691	232.91	78.0091	232.91	78.7069	232.91	78.1085	232.91	78.673	232.91	78.226	232.91	78.653	232.91	78.3451	232.91	78.6316	232.91	78.4519	232.91	78.5957	232.91	78.5366
241.699	80.0195	241.699	79.839	241.699	80.135	241.699	79.6029	241.699	80.1791	241.699	79.3238	241.699	80.149	241.699	79.0167	241.699	80.0461	241.699	78.6989	241.699	79.8762	241.699	78.3894	241.699	79.65	241.699	78.107	241.699	79.3837	241.699	77.8693	241.699	79.0981	241.699	77.6906	241.699	78.817	241.699	77.5795	241.699	78.5642	241.699	77.5374	241.699	78.3593	241.699	77.5583	241.699	78.2143	241.699	77.6295	241.699	78.1309	241.699	77.733	241.699	78.0997	241.699	77.849	241.699	78.1024	241.699	77.958	241.699	78.1166	241.699	78.0446	241.699	78.1208	241.699	78.0993
250.488	80.2236	250.488	80.0514	250.488	80.3245	250.488	79.8155	250.488	80.3493	250.488	79.5266	250.488	80.297	250.488	79.1979	250.488	80.1707	250.488	78.845	250.488	79.9783	250.488	78.4859	250.488	79.7331	250.488	78.1399	250.488	79.4538	250.488	77.827	250.488	79.1629	250.488	77.5655	250.488	78.8841	250.488	77.3701	250.488	78.6375	250.488	77.2495	250.488	78.4353	250.488	77.2043	250.488	78.2802	250.488	77.2267	250.488	78.1661	250.488	77.3023	250.488	78.0812	250.488	77.4124	250.488	78.0117	250.488	77.538	250.488	77.9442	250.488	77.6622	250.488	77.8672	250.488	77.7737
259.277	80.4628	259.277	80.3132	259.277	80.549	259.277	80.1063	259.277	80.5678	259.277	79.8501	259.277	80.5175	259.277	79.5541	259.277	80.3987	259.277	79.2296	259.277	80.2149	259.277	78.8893	259.277	79.9727	259.277	78.5474	259.277	79.6828	259.277	78.2203	259.277	79.3605	259.277	77.9253	259.277	79.0263	259.277	77.6798	259.277	78.7038	259.277	77.4982	259.277	78.417	259.277	77.3885	259.277	78.1841	259.277	77.3498	259.277	78.0133	259.277	77.3712	259.277	77.9005	259.277	77.4345	259.277	77.8304	259.277	77.5188	259.277	77.7823	259.277	77.6046	259.277	77.7364	259.277	77.6788
268.066	80.3207	268.066	80.1724	268.066	80.41	268.066	79.9752	268.066	80.4334	268.066	79.7422	268.066	80.3887	268.066	79.4877	268.066	80.2785	268.066	79.2264	268.066	80.1104	268.066	78.9717	268.066	79.8971	268.066	78.7355	268.066	79.6555	268.066	78.5277	268.066	79.405	268.066	78.3563	268.066	79.1658	268.066	78.2275	268.066	78.9553	268.066	78.1454	268.066	78.7863	268.066	78.111	268.066	78.6644	268.066	78.1211	268.066	78.5878	268.066	78.1677	268.066	78.5474	268.066	78.2384	268.066	78.529	268.066	78.3187	268.066	78.5161	268.066	78.3943	268.066	78.4944	268.066	78.4546
276.855	80.1883	276.855	79.9714	276.855	80.3298	276.855	79.6904	276.855	80.3879	276.855	79.3597	276.855	80.3577	276.855	78.996	276.855	80.2389	276.855	78.6186	276.855	80.0359	276.855	78.2486	276.855	79.7589	276.855	77.9082	276.855	79.4252	276.855	77.6193	276.855	79.0591	276.855	77.4003	276.855	78.6915	276.855	77.2638	276.855	78.3566	276.855	77.2131	276.855	78.0862	276.855	77.2407	276.855	77.9016	276.855	77.3296	276.855	77.8069	276.855	77.4562	276.855	77.7875	276.855	77.5947	276.855	77.8148	276.855	77.7213	276.855	77.8557	276.855	77.8172	276.855	77.8811	276.855	77.8711
287.109	80.389	287.109	80.1903	287.109	80.513	287.109	79.9279	287.109	80.5553	287.109	79.616	287.109	80.5129	287.109	79.272	287.109	80.3869	287.109	78.9143	287.109	80.183	287.109	78.5609	287.109	79.9116	287.109	78.2276	287.109	79.589	287.109	77.9271	287.109	79.2371	287.109	77.6691	287.109	78.8812	287.109	77.4616	287.109	78.547	287.109	77.312	287.109	78.2563	287.109	77.2261	287.109	78.0246	287.109	77.2053	287.109	77.8589	287.109	77.2433	287.109	77.7564	287.109	77.3242	287.109	77.7029	287.109	77.4252	287.109	77.675	287.109	77.5227	287.109	77.6468	287.109	77.5986
297.363	80.4735	297.363	80.2745	297.363	80.5997	297.363	80.0127	297.363	80.6467	297.363	79.7016	297.363	80.6119	297.363	79.3573	297.363	80.4962	297.363	78.9985	297.363	80.304	297.363	78.645	297.363	80.0425	297.363	78.3167	297.363	79.722	297.363	78.0318	297.363	79.3565	297.363	77.8043	297.363	78.9644	297.363	77.6415	297.363	78.57	297.363	77.5422	297.363	78.2029	297.363	77.4969	297.363	77.894	297.363	77.4905	297.363	77.6673	297.363	77.5055	297.363	77.5314	297.363	77.5261	297.363	77.4752	297.363	77.54	297.363	77.4734	297.363	77.54	297.363	77.4974	297.363	77.5241
307.617	80.2401	307.617	79.9797	307.617	80.4353	307.617	79.6691	307.617	80.5555	307.617	79.329	307.617	80.596	307.617	78.9833	307.617	80.5551	307.617	78.6566	307.617	80.4342	307.617	78.3694	307.617	80.2368	307.617	78.1351	307.617	79.9695	307.617	77.9591	307.617	79.6428	307.617	77.8404	307.617	79.2731	307.617	77.7756	307.617	78.8835	307.617	77.7598	307.617	78.5049	307.617	77.7868	307.617	78.1745	307.617	77.8458	307.617	77.9297	307.617	77.9207	307.617	77.7946	307.617	77.9904	307.617	77.7678	307.617	78.0338	307.617	77.8203	307.617	78.0349	307.617	77.9082	307.617	77.9893
319.336	79.7867	319.336	79.4127	319.336	80.0577	319.336	78.9368	319.336	80.2334	319.336	78.3735	319.336	80.3272	319.336	77.755	319.336	80.3539	319.336	77.1342	319.336	80.3253	319.336	76.5822	319.336	80.2469	319.336	76.1718	319.336	80.1155	319.336	75.9497	319.336	79.9208	319.336	75.9141	319.336	79.6487	319.336	76.0201	319.336	79.2871	319.336	76.2052	319.336	78.8346	319.336	76.414	319.336	78.3101	319.336	76.6071	319.336	77.7617	319.336	76.7588	319.336	77.266	319.336	76.8522	319.336	76.9048	319.336	76.8783	319.336	76.7225	319.336	76.8402	319.336	76.6982	319.336	76.7626
329.59	80.2936	329.59	80.1673	329.59	80.2924	329.59	79.8944	329.59	80.1908	329.59	79.4623	329.59	80.0258	329.59	78.8651	329.59	79.8424	329.59	78.106	329.59	79.6868	329.59	77.2058	329.59	79.5935	329.59	76.2161	329.59	79.5709	329.59	75.2381	329.59	79.5974	329.59	74.4284	329.59	79.6299	329.59	73.9523	329.59	79.6189	329.59	73.8809	329.59	79.5225	329.59	74.1368	329.59	79.3144	329.59	74.5657	329.59	78.9884	329.59	75.0374	329.59	78.5611	329.59	75.4826	329.59	78.0694	329.59	75.8854	329.59	77.562	329.59	76.2643	329.59	77.0829	329.59	76.6533
341.309	80.6179	341.309	80.608	341.309	80.5155	341.309	80.4854	341.309	80.3049	341.309	80.2511	341.309	79.997	341.309	79.9065	341.309	79.6156	341.309	79.4543	341.309	79.2026	341.309	78.9001	341.309	78.8199	341.309	78.255	341.309	78.5382	341.309	77.5402	341.309	78.4095	341.309	76.7928	341.309	78.4358	341.309	76.0718	341.309	78.5636	341.309	75.4599	341.309	78.7102	341.309	75.0499	341.309	78.7997	341.309	74.9111	341.309	78.7824	341.309	75.0519	341.309	78.6384	341.309	75.416	341.309	78.3713	341.309	75.9156	341.309	77.9982	341.309	76.4703	341.309	77.5416	341.309	77.024
353.027	80.5195	353.027	80.4739	353.027	80.4522	353.027	80.3213	353.027	80.268	353.027	80.0676	353.027	79.9684	353.027	79.7179	353.027	79.5656	353.027	79.2773	353.027	79.0893	353.027	78.7515	353.027	78.5939	353.027	78.1496	353.027	78.1564	353.027	77.4871	353.027	77.8555	353.027	76.7903	353.027	77.7308	353.027	76.1003	353.027	77.7547	353.027	75.4759	353.027	77.8471	353.027	74.9897	353.027	77.9189	353.027	74.711	353.027	77.906	353.027	74.679	353.027	77.7777	353.027	74.8814	353.027	77.5307	353.027	75.2604	353.027	77.1785	353.027	75.7399	353.027	76.7428	353.027	76.2511
366.211	80.575	366.211	80.5122	366.211	80.528	366.211	80.3621	366.211	80.3507	366.211	80.1467	366.211	80.028	366.211	79.8851	366.211	79.556	366.211	79.5928	366.211	78.9519	366.211	79.2808	366.211	78.2695	366.211	78.9564	366.211	77.6162	366.211	78.6233	366.211	77.1457	366.211	78.2843	366.211	76.9885	366.211	77.9433	366.211	77.1511	366.211	77.6094	366.211	77.5051	366.211	77.3008	366.211	77.8846	366.211	77.0471	366.211	78.1691	366.211	76.8862	366.211	78.3007	366.211	76.8521	366.211	78.2691	366.211	76.9591	366.211	78.0953	366.211	77.1895	366.211	77.8198	366.211	77.497
379.395	81.4349	379.395	81.1543	379.395	81.5899	379.395	80.7721	379.395	81.5968	379.395	80.3147	379.395	81.4342	379.395	79.8127	379.395	81.082	379.395	79.3029	379.395	80.5239	379.395	78.829	379.395	79.7551	379.395	78.4391	379.395	78.7996	379.395	78.1747	379.395	77.7449	379.395	78.0562	379.395	76.7843	379.395	78.0718	379.395	76.1967	379.395	78.1828	379.395	76.1635	379.395	78.3398	379.395	76.5851	379.395	78.5008	379.395	77.1979	379.395	78.6404	379.395	77.7903	379.395	78.7493	379.395	78.2612	379.395	78.8259	379.395	78.585	379.395	78.8667	379.395	78.7744	379.395	78.8579
392.578	81.6051	392.578	81.3497	392.578	81.7513	392.578	80.9953	392.578	81.7774	392.578	80.552	392.578	81.6724	392.578	80.0305	392.578	81.4244	392.578	79.4451	392.578	81.0221	392.578	78.8189	392.578	80.4582	392.578	78.1921	392.578	79.7396	392.578	77.6273	392.578	78.9056	392.578	77.2043	392.578	78.0537	392.578	76.9933	392.578	77.3517	392.578	77.0157	392.578	76.9827	392.578	77.2285	392.578	77.0153	392.578	77.5486	392.578	77.3422	392.578	77.8943	392.578	77.7792	392.578	78.2076	392.578	78.1825	392.578	78.4556	392.578	78.4789	392.578	78.6205	392.578	78.6461	392.578	78.6888
405.762	81.314	405.762	81.0465	405.762	81.4913	405.762	80.7011	405.762	81.5667	405.762	80.29	405.762	81.5305	405.762	79.8237	405.762	81.375	405.762	79.3119	405.762	81.0947	405.762	78.7661	405.762	80.6883	405.762	78.2059	405.762	80.1611	405.762	77.6667	405.762	79.532	405.762	77.2038	405.762	78.8444	405.762	76.8859	405.762	78.1789	405.762	76.7702	405.762	77.6563	405.762	76.8711	405.762	77.3994	405.762	77.1483	405.762	77.4534	405.762	77.5269	405.762	77.7401	405.762	77.9271	405.762	78.1112	405.762	78.2815	405.762	78.4336	405.762	78.5388	405.762	78.6274	405.762	78.6617
420.41	81.6748	420.41	81.4324	420.41	81.814	420.41	81.097	420.41	81.8406	420.41	80.678	420.41	81.747	420.41	80.183	420.41	81.527	420.41	79.618	420.41	81.1758	420.41	78.9911	420.41	80.6915	420.41	78.3201	420.41	80.0799	420.41	77.644	420.41	79.3651	420.41	77.0322	420.41	78.6033	420.41	76.5795	420.41	77.8951	420.41	76.3711	420.41	77.3741	420.41	76.4302	420.41	77.1481	420.41	76.699	420.41	77.2218	420.41	77.0765	420.41	77.4886	420.41	77.4684	420.41	77.8055	420.41	77.8098	420.41	78.0616	420.41	78.0608	420.41	78.1979	420.41	78.1959
435.059	81.5379	435.059	81.3084	435.059	81.6796	435.059	80.9991	435.059	81.7248	435.059	80.617	435.059	81.6639	435.059	80.1677	435.059	81.485	435.059	79.6547	435.059	81.1755	435.059	79.0824	435.059	80.7271	435.059	78.4613	435.059	80.1443	435.059	77.8186	435.059	79.4575	435.059	77.2083	435.059	78.7351	435.059	76.7139	435.059	78.0856	435.059	76.4271	435.059	77.6308	435.059	76.4018	435.059	77.4482	435.059	76.6168	435.059	77.5226	435.059	76.9889	435.059	77.7585	435.059	77.4175	435.059	78.0362	435.059	77.8185	435.059	78.2577	435.059	78.1321	435.059	78.3614	435.059	78.3198
451.172	81.3602	451.172	81.131	451.172	81.487	451.172	80.8092	451.172	81.5068	451.172	80.4074	451.172	81.4197	451.172	79.9368	451.172	81.2286	451.172	79.4043	451.172	80.9357	451.172	78.8125	451.172	80.5403	451.172	78.1647	451.172	80.0405	451.172	77.4769	451.172	79.4375	451.172	76.7943	451.172	78.7449	451.172	76.2053	451.172	78.0047	451.172	75.831	451.172	77.3112	451.172	75.768	451.172	76.8174	451.172	76.0136	451.172	76.6653	451.172	76.461	451.172	76.8586	451.172	76.9693	451.172	77.2401	451.172	77.4236	451.172	77.6152	451.172	77.7488	451.172	77.8534	451.172	77.8997
465.82	81.7504	465.82	81.4946	465.82	81.8978	465.82	81.1465	465.82	81.9249	465.82	80.7225	465.82	81.8273	465.82	80.2337	465.82	81.608	465.82	79.6835	465.82	81.2755	465.82	79.0687	465.82	80.8406	465.82	78.3874	465.82	80.3146	465.82	77.6527	465.82	79.7114	465.82	76.9116	465.82	79.0531	465.82	76.26	465.82	78.3804	465.82	75.8279	465.82	77.7627	465.82	75.7148	465.82	77.2972	465.82	75.914	465.82	77.072	465.82	76.3161	465.82	77.1019	465.82	76.7842	465.82	77.3011	465.82	77.2104	465.82	77.5339	465.82	77.5251	465.82	77.6846	465.82	77.688
483.398	81.7596	483.398	81.5237	483.398	81.8973	483.398	81.1945	483.398	81.9346	483.398	80.7802	483.398	81.8676	483.398	80.2912	483.398	81.6873	483.398	79.7365	483.398	81.3802	483.398	79.1218	483.398	80.9374	483.398	78.4513	483.398	80.3689	483.398	77.7351	483.398	79.717	483.398	77.0029	483.398	79.0552	483.398	76.3211	483.398	78.4631	483.398	75.7996	483.398	77.9941	483.398	75.5606	483.398	77.6689	483.398	75.6619	483.398	77.4958	483.398	76.0427	483.398	77.4748	483.398	76.5606	483.398	77.5715	483.398	77.0712	483.398	77.7049	483.398	77.4726	483.398	77.7768	483.398	77.7109
499.512	81.5761	499.512	81.327	499.512	81.755	499.512	81.0251	499.512	81.8459	499.512	80.6831	499.512	81.8326	499.512	80.3041	499.512	81.7009	499.512	79.8777	499.512	81.437	499.512	79.3824	499.512	81.028	499.512	78.7924	499.512	80.4637	499.512	78.0916	499.512	79.7446	499.512	77.2934	499.512	78.8983	499.512	76.4693	499.512	78.0085	499.512	75.7759	499.512	77.2402	499.512	75.4274	499.512	76.8015	499.512	75.5546	499.512	76.7986	499.512	76.0725	499.512	77.1279	499.512	76.754	499.512	77.5715	499.512	77.3934	499.512	77.9458	499.512	77.8687	499.512	78.146	499.512	78.1246
517.09	81.6114	517.09	81.3904	517.09	81.7438	517.09	81.1028	517.09	81.7733	517.09	80.7726	517.09	81.6946	517.09	80.4177	517.09	81.5105	517.09	80.0416	517.09	81.228	517.09	79.6312	517.09	80.8547	517.09	79.1617	517.09	80.3959	517.09	78.6082	517.09	79.8549	517.09	77.9613	517.09	79.24	517.09	77.2472	517.09	78.5793	517.09	76.5501	517.09	77.9394	517.09	76.0201	517.09	77.4301	517.09	75.8195	517.09	77.1634	517.09	76.0022	517.09	77.1704	517.09	76.4524	517.09	77.3626	517.09	76.9752	517.09	77.5889	517.09	77.4095	517.09	77.7166	517.09	77.6656
536.133	81.7007	536.133	81.3559	536.133	81.9341	536.133	80.9318	536.133	82.036	536.133	80.4685	536.133	81.9977	536.133	80.0049	536.133	81.8195	536.133	79.5641	536.133	81.5079	536.133	79.1442	536.133	81.0729	536.133	78.7201	536.133	80.5268	536.133	78.2598	536.133	79.8848	536.133	77.7466	536.133	79.1707	536.133	77.2029	536.133	78.4321	536.133	76.7082	536.133	77.758	536.133	76.3932	536.133	77.2798	536.133	76.3765	536.133	77.1137	536.133	76.6687	536.133	77.2645	536.133	77.1495	536.133	77.6041	536.133	77.6495	536.133	77.9579	536.133	78.0327	536.133	78.1887	536.133	78.2209
555.176	81.5558	555.176	81.2871	555.176	81.7213	555.176	80.9369	555.176	81.7777	555.176	80.5401	555.176	81.7331	555.176	80.1336	555.176	81.6007	555.176	79.7401	555.176	81.3894	555.176	79.3558	555.176	81.0932	555.176	78.9507	555.176	80.687	555.176	78.4827	555.176	80.1314	555.176	77.9189	555.176	79.3902	555.176	77.259	555.176	78.464	555.176	76.5646	555.176	77.4491	555.176	75.9833	555.176	76.6	555.176	75.7189	555.176	76.2505	555.176	75.8918	555.176	76.4899	555.176	76.4075	555.176	77.0391	555.176	77.0328	555.176	77.5574	555.176	77.5558	555.176	77.8497	555.176	77.8478
574.219	82.0239	574.219	81.6661	574.219	82.2077	574.219	81.1577	574.219	82.2108	574.219	80.5388	574.219	82.0439	574.219	79.8625	574.219	81.7356	574.219	79.1854	574.219	81.3316	574.219	78.5495	574.219	80.8878	574.219	77.9664	574.219	80.4519	574.219	77.4173	574.219	80.0372	574.219	76.8739	574.219	79.6096	574.219	76.3339	574.219	79.1033	574.219	75.8553	574.219	78.4672	574.219	75.5663	574.219	77.7261	574.219	75.6039	574.219	77.0372	574.219	75.9883	574.219	76.6586	574.219	76.5736	574.219	76.7322	574.219	77.1468	574.219	77.1038	574.219	77.5376	574.219	77.481	574.219	77.6533
594.727	81.6396	594.727	81.3544	594.727	81.8127	594.727	80.9852	594.727	81.8577	594.727	80.5683	594.727	81.7696	594.727	80.1385	594.727	81.5518	594.727	79.715	594.727	81.2132	594.727	79.2921	594.727	80.7667	594.727	78.8409	594.727	80.2287	594.727	78.3237	594.727	79.6216	594.727	77.7134	594.727	78.9775	594.727	77.0179	594.727	78.3415	594.727	76.3072	594.727	77.7718	594.727	75.7325	594.727	77.3336	594.727	75.483	594.727	77.0804	594.727	75.6457	594.727	77.0267	594.727	76.1067	594.727	77.1266	594.727	76.6464	594.727	77.2831	594.727	77.085	594.727	77.3832	594.727	77.3338
615.234	80.8721	615.234	80.4607	615.234	81.1108	615.234	79.9177	615.234	81.1651	615.234	79.3201	615.234	81.0464	615.234	78.7705	615.234	80.7839	615.234	78.3587	615.234	80.4203	615.234	78.1062	615.234	80.0049	615.234	77.9488	615.234	79.5806	615.234	77.7792	615.234	79.1699	615.234	77.5082	615.234	78.769	615.234	77.1046	615.234	78.3633	615.234	76.6219	615.234	77.9607	615.234	76.2145	615.234	77.622	615.234	76.0938	615.234	77.4528	615.234	76.3735	615.234	77.5261	615.234	76.9463	615.234	77.7975	615.234	77.5791	615.234	78.12	615.234	78.076	615.234	78.3351	615.234	78.3352
637.207	81.2362	637.207	80.8323	637.207	81.4321	637.207	80.237	637.207	81.4227	637.207	79.4962	637.207	81.2231	637.207	78.6941	637.207	80.8566	637.207	77.9475	637.207	80.3534	637.207	77.3634	637.207	79.7489	637.207	76.9736	637.207	79.0851	637.207	76.7134	637.207	78.4119	637.207	76.4788	637.207	77.7913	637.207	76.2076	637.207	77.2975	637.207	75.9351	637.207	77.01	637.207	75.8046	637.207	76.9866	637.207	75.9908	637.207	77.2271	637.207	76.5362	637.207	77.6559	637.207	77.2851	637.207	78.148	637.207	78.0121	637.207	78.5723	637.207	78.5521	637.207	78.8223	637.207	78.8265
659.18	81.7095	659.18	81.3463	659.18	81.8576	659.18	80.7797	659.18	81.7965	659.18	80.0487	659.18	81.544	659.18	79.2275	659.18	81.1253	659.18	78.4205	659.18	80.5704	659.18	77.7259	659.18	79.9104	659.18	77.1751	659.18	79.1734	659.18	76.7056	659.18	78.3814	659.18	76.2058	659.18	77.5561	659.18	75.598	659.18	76.7472	659.18	74.924	659.18	76.0903	659.18	74.4289	659.18	75.8283	659.18	74.5043	659.18	76.1438	659.18	75.2909	659.18	76.9111	659.18	76.4561	659.18	77.788	659.18	77.5732	659.18	78.4874	659.18	78.3969	659.18	78.8566	659.18	78.8321
682.617	82.2873	682.617	81.8647	682.617	82.466	682.617	81.2029	682.617	82.4131	682.617	80.3352	682.617	82.153	682.617	79.3435	682.617	81.7231	682.617	78.3723	682.617	81.1747	682.617	77.5935	682.617	80.5676	682.617	77.0916	682.617	79.9516	682.617	76.7784	682.617	79.3366	682.617	76.4617	682.617	78.6745	682.617	75.9826	682.617	77.8834	682.617	75.3127	682.617	76.9317	682.617	74.6454	682.617	75.9879	682.617	74.4354	682.617	75.5315	682.617	75.0368	682.617	75.9565	682.617	76.1927	682.617	76.9497	682.617	77.3663	682.617	77.9118	682.617	78.2174	682.617	78.5026	682.617	78.6096
707.52	82.8656	707.52	82.5805	707.52	82.9398	707.52	82.0819	707.52	82.8085	707.52	81.3767	707.52	82.4775	707.52	80.4898	707.52	81.9524	707.52	79.4764	707.52	81.2437	707.52	78.4309	707.52	80.38	707.52	77.4739	707.52	79.4277	707.52	76.6955	707.52	78.5041	707.52	76.0834	707.52	77.7358	707.52	75.5204	707.52	77.1483	707.52	74.8711	707.52	76.6113	707.52	74.1061	707.52	75.9718	707.52	73.4496	707.52	75.2878	707.52	73.3981	707.52	74.9554	707.52	74.186	707.52	75.3204	707.52	75.3539	707.52	76.0872	707.52	76.3226	707.52	76.6869	707.52	76.7936
732.422	82.453	732.422	82.1718	732.422	82.5348	732.422	81.6833	732.422	82.4259	732.422	80.9902	732.422	82.1288	732.422	80.1212	732.422	81.6387	732.422	79.1482	732.422	80.9468	732.422	78.1933	732.422	80.0555	732.422	77.3914	732.422	79.0087	732.422	76.8002	732.422	77.9363	732.422	76.3427	732.422	77.0635	732.422	75.8685	732.422	76.5733	732.422	75.2799	732.422	76.4054	732.422	74.6498	732.422	76.3333	732.422	74.2947	732.422	76.2418	732.422	74.582	732.422	76.2393	732.422	75.4492	732.422	76.4941	732.422	76.4402	732.422	76.9594	732.422	77.1737	732.422	77.3735	732.422	77.4866
757.324	82.8778	757.324	82.7194	757.324	82.8146	757.324	82.3204	757.324	82.5574	757.324	81.6759	757.324	82.1353	757.324	80.8041	757.324	81.5726	757.324	79.7611	757.324	80.8841	757.324	78.6611	757.324	80.0776	757.324	77.6759	757.324	79.1672	757.324	76.9613	757.324	78.193	757.324	76.5295	757.324	77.2317	757.324	76.2244	757.324	76.371	757.324	75.8483	757.324	75.6566	757.324	75.3008	757.324	75.1035	757.324	74.6823	757.324	74.8108	757.324	74.3508	757.324	74.9689	757.324	74.6686	757.324	75.5762	757.324	75.4943	757.324	76.3038	757.324	76.3273	757.324	76.7806	757.324	76.8008
785.156	82.9031	785.156	82.7849	785.156	82.8417	785.156	82.4685	785.156	82.6325	785.156	81.9521	785.156	82.3084	785.156	81.2492	785.156	81.8866	785.156	80.3858	785.156	81.3556	785.156	79.4009	785.156	80.6769	785.156	78.3471	785.156	79.8022	785.156	77.2836	785.156	78.7089	785.156	76.2517	785.156	77.4545	785.156	75.2464	785.156	76.2245	785.156	74.228	785.156	75.2629	785.156	73.2211	785.156	74.6545	785.156	72.4911	785.156	74.3177	785.156	72.5347	785.156	74.2863	785.156	73.4498	785.156	74.6854	785.156	74.6625	785.156	75.3623	785.156	75.6104	785.156	75.9181	785.156	76.0419
811.523	83.178	811.523	83.0069	811.523	83.0586	811.523	82.5393	811.523	82.6726	811.523	81.794	811.523	82.0599	811.523	80.8274	811.523	81.2751	811.523	79.7512	811.523	80.3848	811.523	78.727	811.523	79.4609	811.523	77.8971	811.523	78.5648	811.523	77.2744	811.523	77.7208	811.523	76.7231	811.523	76.8952	811.523	76.0663	811.523	76.0183	811.523	75.207	811.523	75.0787	811.523	74.2451	811.523	74.2828	811.523	73.6142	811.523	74.0947	811.523	73.8736	811.523	74.7447	811.523	74.9335	811.523	75.8217	811.523	76.1457	811.523	76.7924	811.523	77.0485	811.523	77.3761	811.523	77.4702
840.82	83.2503	840.82	83.0271	840.82	83.1938	840.82	82.534	840.82	82.8784	840.82	81.8168	840.82	82.3466	840.82	80.9544	840.82	81.6518	840.82	80.0398	840.82	80.8453	840.82	79.1458	840.82	79.9647	840.82	78.2979	840.82	79.0294	840.82	77.4774	840.82	78.0439	840.82	76.648	840.82	77.0036	840.82	75.7772	840.82	75.8892	840.82	74.8514	840.82	74.6738	840.82	73.923	840.82	73.4216	840.82	73.2182	840.82	72.5499	840.82	73.1464	840.82	72.7555	840.82	73.8623	840.82	73.9315	840.82	74.9371	840.82	75.2069	840.82	75.8292	840.82	76.0281	840.82	76.2329
870.117	83.9485	870.117	83.7235	870.117	83.8262	870.117	83.1377	870.117	83.388	870.117	82.2054	870.117	82.6805	870.117	80.9912	870.117	81.763	870.117	79.6495	870.117	80.7068	870.117	78.4455	870.117	79.5985	870.117	77.6424	870.117	78.5474	870.117	77.2546	870.117	77.677	870.117	77.0126	870.117	77.0503	870.117	76.5914	870.117	76.551	870.117	75.7504	870.117	75.8815	870.117	74.3579	870.117	74.7305	870.117	72.5767	870.117	73.0944	870.117	71.5226	870.117	72.0147	870.117	72.541	870.117	72.9687	870.117	74.449	870.117	74.7958	870.117	75.8661	870.117	76.0615	870.117	76.4236
900.879	85.259	900.879	85.0608	900.879	85.1331	900.879	84.5271	900.879	84.7077	900.879	83.6591	900.879	84.02	900.879	82.4727	900.879	83.1162	900.879	81.0116	900.879	82.0443	900.879	79.3916	900.879	80.8518	900.879	77.8806	900.879	79.6094	900.879	76.8821	900.879	78.4723	900.879	76.5787	900.879	77.6815	900.879	76.6498	900.879	77.3127	900.879	76.603	900.879	77.0226	900.879	76.0913	900.879	76.2809	900.879	74.9761	900.879	74.7912	900.879	73.595	900.879	73.1943	900.879	73.2887	900.879	73.5625	900.879	74.6908	900.879	75.4499	900.879	76.2962	900.879	76.8145	900.879	77.0924
933.105	85.3011	933.105	85.15	933.105	85.0827	933.105	84.6019	933.105	84.5448	933.105	83.665	933.105	83.7462	933.105	82.404	933.105	82.7307	933.105	80.9692	933.105	81.498	933.105	79.6023	933.105	79.9934	933.105	78.5472	933.105	78.1784	933.105	77.8831	933.105	76.3216	933.105	77.4837	933.105	75.4276	933.105	77.1445	933.105	76.0715	933.105	76.677	933.105	77.0379	933.105	75.93	933.105	77.2319	933.105	74.8676	933.105	76.2974	933.105	73.8574	933.105	74.5555	933.105	73.8605	933.105	73.8266	933.105	75.0873	933.105	75.1878	933.105	76.4186	933.105	76.6005	933.105	77.0238
965.332	85.2536	965.332	85.1005	965.332	85.0589	965.332	84.5467	965.332	84.5824	965.332	83.5496	965.332	83.8985	965.332	82.0817	965.332	83.0707	965.332	80.1667	965.332	82.1174	965.332	78.0116	965.332	80.9848	965.332	76.273	965.332	79.5527	965.332	75.8063	965.332	77.712	965.332	76.3955	965.332	75.6555	965.332	77.1252	965.332	74.451	965.332	77.4814	965.332	74.8831	965.332	77.3041	965.332	75.5706	965.332	76.6111	965.332	75.33	965.332	75.6852	965.332	74.1811	965.332	75.239	965.332	73.6201	965.332	75.7648	965.332	74.8951	965.332	76.6319	965.332	76.3854	965.332	76.979
1000.49	84.6248	1000.49	84.5841	1000.49	84.3319	1000.49	84.1854	1000.49	83.7562	1000.49	83.4141	1000.49	82.9856	1000.49	82.2553	1000.49	82.1308	1000.49	80.7015	1000.49	81.2726	1000.49	78.796	1000.49	80.392	1000.49	76.759	1000.49	79.3386	1000.49	75.169	1000.49	77.8718	1000.49	74.655	1000.49	75.8167	1000.49	74.9758	1000.49	73.6631	1000.49	75.3633	1000.49	73.2425	1000.49	75.3534	1000.49	74.3283	1000.49	74.8493	1000.49	74.7544	1000.49	74.1229	1000.49	73.8653	1000.49	73.8711	1000.49	72.4909	1000.49	74.4682	1000.49	72.8253	1000.49	75.2264	1000.49	74.3982	1000.49	75.3236
1035.64	84.7594	1035.64	84.7778	1035.64	84.3943	1035.64	84.4225	1035.64	83.7493	1035.64	83.6892	1035.64	82.9269	1035.64	82.569	1035.64	82.0369	1035.64	81.0256	1035.64	81.155	1035.64	78.9863	1035.64	80.2922	1035.64	76.3546	1035.64	79.3934	1035.64	73.161	1035.64	78.3681	1035.64	70.4466	1035.64	77.1656	1035.64	70.6535	1035.64	75.9155	1035.64	72.5313	1035.64	74.9715	1035.64	73.8617	1035.64	74.4166	1035.64	74.1814	1035.64	73.6707	1035.64	73.6601	1035.64	72.3159	1035.64	73.1194	1035.64	71.5341	1035.64	73.6911	1035.64	72.9633	1035.64	74.8701	1035.64	74.7349	1035.64	75.4009
1072.27	84.8933	1072.27	84.8452	1072.27	84.5394	1072.27	84.3823	1072.27	83.8397	1072.27	83.5263	1072.27	82.8905	1072.27	82.3204	1072.27	81.8067	1072.27	80.8222	1072.27	80.6767	1072.27	79.1154	1072.27	79.5088	1072.27	77.3361	1072.27	78.2076	1072.27	75.6861	1072.27	76.6253	1072.27	74.3637	1072.27	74.765	1072.27	73.4261	1072.27	73.2912	1072.27	72.7694	1072.27	73.3084	1072.27	72.2641	1072.27	74.1141	1072.27	71.8724	1072.27	74.2569	1072.27	71.7519	1072.27	73.3325	1072.27	72.2412	1072.27	72.241	1072.27	73.3239	1072.27	72.735	1072.27	74.3615	1072.27	74.068	1072.27	74.7091
1108.89	85.2016	1108.89	85.0046	1108.89	84.9263	1108.89	84.3925	1108.89	84.1741	1108.89	83.4481	1108.89	83.0137	1108.89	82.2447	1108.89	81.6027	1108.89	80.8193	1108.89	80.1722	1108.89	79.1817	1108.89	78.934	1108.89	77.384	1108.89	77.9163	1108.89	75.6573	1108.89	76.8918	1108.89	74.4614	1108.89	75.5595	1108.89	74.0313	1108.89	74.0023	1108.89	73.9521	1108.89	73.2567	1108.89	73.6851	1108.89	73.8218	1108.89	73.086	1108.89	74.1562	1108.89	72.5928	1108.89	73.2204	1108.89	73.0274	1108.89	71.7487	1108.89	74.3051	1108.89	72.4879	1108.89	75.4005	1108.89	74.5112	1108.89	75.5768
1148.44	84.8878	1148.44	84.6234	1148.44	84.6732	1148.44	83.9358	1148.44	83.986	1148.44	82.9258	1148.44	82.9028	1148.44	81.7089	1148.44	81.5633	1148.44	80.3715	1148.44	80.137	1148.44	78.9441	1148.44	78.7649	1148.44	77.4303	1148.44	77.4845	1148.44	75.906	1148.44	76.1582	1148.44	74.6232	1148.44	74.5295	1148.44	73.8673	1148.44	72.6581	1148.44	73.4997	1148.44	71.8393	1148.44	72.9416	1148.44	72.8433	1148.44	71.6951	1148.44	73.7117	1148.44	70.0358	1148.44	73.3124	1148.44	70.1587	1148.44	72.2113	1148.44	72.4541	1148.44	72.5208	1148.44	74.3341	1148.44	74.0744	1148.44	74.8871
1189.45	84.7908	1189.45	84.5662	1189.45	84.5362	1189.45	83.8845	1189.45	83.833	1189.45	82.8205	1189.45	82.7594	1189.45	81.4944	1189.45	81.4233	1189.45	80.039	1189.45	79.9317	1189.45	78.5419	1189.45	78.3717	1189.45	77.0255	1189.45	76.8096	1189.45	75.5547	1189.45	75.2541	1189.45	74.4238	1189.45	73.6138	1189.45	73.9957	1189.45	71.979	1189.45	74.0303	1189.45	71.3598	1189.45	73.7506	1189.45	72.3177	1189.45	72.4488	1189.45	73.1544	1189.45	69.6526	1189.45	72.6901	1189.45	66.982	1189.45	71.2922	1189.45	69.5207	1189.45	71.2923	1189.45	72.4686	1189.45	72.843	1189.45	73.5228
1230.47	84.3963	1230.47	84.2849	1230.47	84.0737	1230.47	83.7363	1230.47	83.3556	1230.47	82.7573	1230.47	82.3358	1230.47	81.3576	1230.47	81.1481	1230.47	79.5695	1230.47	79.9146	1230.47	77.4912	1230.47	78.7076	1230.47	75.3296	1230.47	77.5398	1230.47	73.4287	1230.47	76.3118	1230.47	72.3168	1230.47	74.7204	1230.47	72.4409	1230.47	72.31	1230.47	73.3619	1230.47	69.3465	1230.47	74.0782	1230.47	69.0915	1230.47	73.8609	1230.47	70.8517	1230.47	72.3043	1230.47	71.3764	1230.47	69.7896	1230.47	71.2608	1230.47	69.7987	1230.47	72.3186	1230.47	72.3889	1230.47	73.7093	1230.47	73.8849
1274.41	84.2958	1274.41	84.1496	1274.41	83.8993	1274.41	83.4806	1274.41	83.0236	1274.41	82.3604	1274.41	81.8062	1274.41	80.8754	1274.41	80.3929	1274.41	79.1145	1274.41	78.864	1274.41	77.1721	1274.41	77.2451	1274.41	75.1052	1274.41	75.6306	1274.41	72.8256	1274.41	74.3345	1274.41	70.1802	1274.41	73.6528	1274.41	68.1409	1274.41	73.1339	1274.41	69.2777	1274.41	72.0106	1274.41	71.4824	1274.41	70.6383	1274.41	72.3543	1274.41	70.4472	1274.41	71.4266	1274.41	70.5126	1274.41	69.0539	1274.41	69.9008	1274.41	68.7063	1274.41	70.6044	1274.41	71.3446	1274.41	72.3659	1274.41	72.8281
1319.82	84.1702	1319.82	83.8671	1319.82	83.7971	1319.82	82.9798	1319.82	82.7594	1319.82	81.6604	1319.82	81.1996	1319.82	80.0426	1319.82	79.3998	1319.82	78.1702	1319.82	77.7056	1319.82	76.0442	1319.82	76.3012	1319.82	73.8185	1319.82	75.0168	1319.82	71.8503	1319.82	73.4207	1319.82	70.2262	1319.82	71.2122	1319.82	68.7704	1319.82	69.2302	1319.82	68.4332	1319.82	69.466	1319.82	70.0347	1319.82	70.7034	1319.82	71.538	1319.82	71.137	1319.82	71.3884	1319.82	70.391	1319.82	69.0259	1319.82	69.1734	1319.82	66.8307	1319.82	70.0303	1319.82	69.926	1319.82	71.9309	1319.82	72.1544
1366.7	83.9394	1366.7	83.5001	1366.7	83.6891	1366.7	82.5462	1366.7	82.6526	1366.7	81.2766	1366.7	80.8628	1366.7	79.8013	1366.7	78.5854	1366.7	78.021	1366.7	76.4313	1366.7	75.6808	1366.7	75.1306	1366.7	72.6762	1366.7	74.7775	1366.7	69.6845	1366.7	74.6267	1366.7	68.3085	1366.7	73.7407	1366.7	68.1689	1366.7	71.2919	1366.7	68.0302	1366.7	67.0085	1366.7	69.0476	1366.7	67.3011	1366.7	71.1026	1366.7	70.8561	1366.7	71.9972	1366.7	71.854	1366.7	70.7164	1366.7	70.7648	1366.7	67.7033	1366.7	69.9959	1366.7	68.2969	1366.7	70.917	1366.7	70.7111
1413.57	84.2525	1413.57	83.9584	1413.57	83.6927	1413.57	82.918	1413.57	82.2633	1413.57	81.3228	1413.57	80.1014	1413.57	79.4636	1413.57	77.6227	1413.57	77.6732	1413.57	75.5732	1413.57	76.0983	1413.57	74.5025	1413.57	74.5826	1413.57	74.1332	1413.57	72.9226	1413.57	73.948	1413.57	71.0582	1413.57	73.6548	1413.57	68.8026	1413.57	72.7901	1413.57	65.7317	1413.57	70.5148	1413.57	64.816	1413.57	66.9606	1413.57	68.3783	1413.57	68.0525	1413.57	70.567	1413.57	70.584	1413.57	70.4341	1413.57	71.2104	1413.57	68.983	1413.57	71.5072	1413.57	69.4977	1413.57	71.9967	1413.57	71.3957
1463.38	83.8425	1463.38	83.898	1463.38	83.1021	1463.38	83.3203	1463.38	81.6147	1463.38	82.1777	1463.38	79.3789	1463.38	80.6321	1463.38	76.5998	1463.38	78.9092	1463.38	73.834	1463.38	77.0612	1463.38	71.8783	1463.38	74.8266	1463.38	71.1961	1463.38	72.0058	1463.38	71.4806	1463.38	69.7474	1463.38	71.8676	1463.38	69.779	1463.38	71.4682	1463.38	69.6027	1463.38	69.7295	1463.38	67.2097	1463.38	67.8347	1463.38	65.7102	1463.38	68.4806	1463.38	68.7389	1463.38	68.7131	1463.38	70.0551	1463.38	68.4966	1463.38	69.0295	1463.38	70.8676	1463.38	68.8372	1463.38	72.3423	1463.38	71.2853
1516.11	83.7174	1516.11	84.1349	1516.11	82.5699	1516.11	83.793	1516.11	80.7133	1516.11	82.6997	1516.11	78.1741	1516.11	80.9916	1516.11	75.094	1516.11	78.9861	1516.11	72.131	1516.11	76.9629	1516.11	70.5931	1516.11	74.6846	1516.11	70.1848	1516.11	71.308	1516.11	69.6415	1516.11	66.5003	1516.11	69.7436	1516.11	66.4331	1516.11	70.7281	1516.11	68.583	1516.11	70.3156	1516.11	67.8417	1516.11	67.7234	1516.11	65.7099	1516.11	67.3014	1516.11	67.3868	1516.11	68.324	1516.11	69.6709	1516.11	66.0527	1516.11	69.9125	1516.11	67.4807	1516.11	69.8365	1516.11	70.9371	1516.11	71.1111
1568.85	83.7285	1568.85	84.1048	1568.85	82.5938	1568.85	83.7442	1568.85	80.5955	1568.85	82.6136	1568.85	77.5823	1568.85	80.7133	1568.85	73.6767	1568.85	78.2535	1568.85	70.7796	1568.85	75.8401	1568.85	71.3694	1568.85	73.896	1568.85	72.6815	1568.85	71.4216	1568.85	72.6027	1568.85	66.1566	1568.85	70.6141	1568.85	54.7253	1568.85	67.8714	1568.85	64.1803	1568.85	67.2776	1568.85	67.1362	1568.85	66.8541	1568.85	66.9604	1568.85	66.5345	1568.85	66.8684	1568.85	67.1889	1568.85	68.4861	1568.85	65.6059	1568.85	69.6356	1568.85	67.6032	1568.85	70.6527	1568.85	71.3165	1568.85	71.8946
1624.51	83.952	1624.51	84.1565	1624.51	82.8105	1624.51	83.6846	1624.51	80.4168	1624.51	82.6536	1624.51	76.4794	1624.51	80.9749	1624.51	71.734	1624.51	78.4948	1624.51	71.1329	1624.51	75.4352	1624.51	73.2658	1624.51	73.0178	1624.51	74.5887	1624.51	72.1603	1624.51	74.8495	1624.51	71.085	1624.51	74.1672	1624.51	67.2265	1624.51	72.8788	1624.51	54.5617	1624.51	71.1408	1624.51	61.5585	1624.51	67.9723	1624.51	66.0215	1624.51	63.3313	1624.51	67.4784	1624.51	64.8824	1624.51	68.7409	1624.51	65.4144	1624.51	69.7219	1624.51	67.0773	1624.51	70.5148	1624.51	70.3974	1624.51	71.2452
1681.64	84.2293	1681.64	84.6806	1681.64	82.6867	1681.64	84.1001	1681.64	79.9529	1681.64	82.5455	1681.64	76.2385	1681.64	80.2074	1681.64	72.9429	1681.64	77.4134	1681.64	71.6253	1681.64	74.4246	1681.64	71.8924	1681.64	71.8382	1681.64	72.9199	1681.64	71.3538	1681.64	73.4432	1681.64	71.4946	1681.64	72.9806	1681.64	69.7474	1681.64	72.5878	1681.64	65.4589	1681.64	72.981	1681.64	60.5754	1681.64	72.0796	1681.64	62.9327	1681.64	66.9424	1681.64	65.7288	1681.64	57.3792	1681.64	67.0866	1681.64	66.1954	1681.64	68.3976	1681.64	66.6525	1681.64	69.9418	1681.64	67.8563	1681.64	70.0992
1741.7	83.3137	1741.7	84.1945	1741.7	81.5868	1741.7	84.004	1741.7	79.1255	1741.7	82.6955	1741.7	75.508	1741.7	80.525	1741.7	69.3895	1741.7	77.7918	1741.7	63.2405	1741.7	74.082	1741.7	66.3644	1741.7	67.4908	1741.7	68.7682	1741.7	61.7465	1741.7	70.1033	1741.7	68.0186	1741.7	68.7709	1741.7	69.1666	1741.7	67.4239	1741.7	66.5639	1741.7	70.7378	1741.7	62.2659	1741.7	72.5971	1741.7	64.9167	1741.7	71.6466	1741.7	66.7169	1741.7	66.0228	1741.7	65.6328	1741.7	57.1509	1741.7	64.4906	1741.7	68.5259	1741.7	66.9896	1741.7	70.4133	1741.7	69.4796
1803.22	82.9104	1803.22	83.3258	1803.22	81.6402	1803.22	83.1327	1803.22	78.8433	1803.22	82.405	1803.22	72.3991	1803.22	81.2085	1803.22	58.9809	1803.22	79.4187	1803.22	73.4686	1803.22	76.7075	1803.22	76.2729	1803.22	72.9416	1803.22	77.118	1803.22	68.7787	1803.22	77.659	1803.22	65.5533	1803.22	76.9502	1803.22	61.3052	1803.22	73.9507	1803.22	56.034	1803.22	68.2684	1803.22	62.672	1803.22	64.4119	1803.22	62.5241	1803.22	68.9389	1803.22	56.9711	1803.22	70.2177	1803.22	63.0442	1803.22	63.5791	1803.22	64.6672	1803.22	63.3799	1803.22	67.5983	1803.22	71.0612	1803.22	71.2431
1866.21	83.6329	1866.21	83.4682	1866.21	82.3209	1866.21	82.605	1866.21	78.3845	1866.21	81.6198	1866.21	66.6869	1866.21	80.5617	1866.21	71.2105	1866.21	79.0972	1866.21	77.0904	1866.21	77.2027	1866.21	78.2271	1866.21	75.4148	1866.21	78.0525	1866.21	73.7887	1866.21	78.092	1866.21	71.2154	1866.21	77.7858	1866.21	67.249	1866.21	76.4574	1866.21	66.6718	1866.21	74.4641	1866.21	67.848	1866.21	71.4742	1866.21	64.9517	1866.21	66.6231	1866.21	57.5046	1866.21	67.8768	1866.21	64.6313	1866.21	66.337	1866.21	66.8657	1866.21	62.3427	1866.21	68.9337	1866.21	69.8894	1866.21	71.1548
1932.13	84.0487	1932.13	83.9926	1932.13	82.0794	1932.13	82.7142	1932.13	76.5956	1932.13	80.9966	1932.13	61.7814	1932.13	79.4543	1932.13	73.9329	1932.13	78.2695	1932.13	77.083	1932.13	77.3333	1932.13	77.0575	1932.13	76.3612	1932.13	76.0582	1932.13	74.6074	1932.13	75.5714	1932.13	70.755	1932.13	75.2099	1932.13	63.2349	1932.13	73.9755	1932.13	64.5189	1932.13	72.8892	1932.13	68.2169	1932.13	73.0842	1932.13	67.608	1932.13	71.7044	1932.13	65.2962	1932.13	67.5246	1932.13	65.926	1932.13	63.9125	1932.13	66.1539	1932.13	64.4542	1932.13	68.0724	1932.13	68.1124	1932.13	69.6276
1999.51	82.1134	1999.51	83.0401	1999.51	80.5406	1999.51	83.4061	1999.51	77.2815	1999.51	83.2065	1999.51	66.6795	1999.51	81.8102	1999.51	71.7021	1999.51	78.1156	1999.51	78.3624	1999.51	70.3112	1999.51	79.6501	1999.51	56.8203	1999.51	78.7077	1999.51	65.1263	1999.51	77.2571	1999.51	66.5438	1999.51	75.5508	1999.51	66.9041	1999.51	73.9303	1999.51	64.2188	1999.51	74.6296	1999.51	66.3211	1999.51	75.3667	1999.51	67.8167	1999.51	72.9865	1999.51	67.0701	1999.51	66.7276	1999.51	67.7055	1999.51	67.2344	1999.51	65.8163	1999.51	66.5666	1999.51	67.4015	1999.51	66.9498	1999.51	69.3379
2069.82	82.6504	2069.82	82.3513	2069.82	81.4779	2069.82	82.4313	2069.82	76.1047	2069.82	82.7109	2069.82	62.2298	2069.82	81.5905	2069.82	76.3766	2069.82	77.9914	2069.82	80.5053	2069.82	71.2248	2069.82	81.7192	2069.82	67.5412	2069.82	81.0155	2069.82	74.4933	2069.82	80.2042	2069.82	76.9613	2069.82	79.8079	2069.82	76.2511	2069.82	76.9233	2069.82	73.3647	2069.82	63.2609	2069.82	72.0905	2069.82	72.3184	2069.82	71.6041	2069.82	75.9934	2069.82	70.5535	2069.82	72.1066	2069.82	68.9721	2069.82	52.3392	2069.82	63.0266	2069.82	70.0457	2069.82	63.3968	2069.82	69.2082	2069.82	65.5519
2143.07	83.611	2143.07	83.4971	2143.07	82.0991	2143.07	83.1713	2143.07	75.2898	2143.07	82.579	2143.07	69.4163	2143.07	81.0994	2143.07	78.9983	2143.07	78.5338	2143.07	81.4348	2143.07	74.2137	2143.07	82.7213	2143.07	71.0147	2143.07	82.6949	2143.07	77.3369	2143.07	82.4	2143.07	80.1905	2143.07	83.033	2143.07	80.2386	2143.07	82.1758	2143.07	78.0484	2143.07	77.2848	2143.07	74.4465	2143.07	65.2182	2143.07	71.712	2143.07	74.345	2143.07	72.3179	2143.07	74.9048	2143.07	70.4848	2143.07	64.5172	2143.07	60.7735	2143.07	70.2634	2143.07	41.7205	2143.07	72.1216	2143.07	64.3782
2219.24	83.165	2219.24	83.8261	2219.24	80.8877	2219.24	83.264	2219.24	74.2311	2219.24	81.7309	2219.24	68.6396	2219.24	79.3262	2219.24	77.8971	2219.24	75.3891	2219.24	79.7338	2219.24	70.2408	2219.24	80.0172	2219.24	66.7097	2219.24	79.1933	2219.24	62.0799	2219.24	76.6666	2219.24	48.488	2219.24	75.3372	2219.24	57.291	2219.24	74.5668	2219.24	59.6953	2219.24	73.7465	2219.24	64.8448	2219.24	73.7719	2219.24	60.6374	2219.24	70.2831	2219.24	52.3488	2219.24	67.9495	2219.24	59.0485	2219.24	63.3799	2219.24	64.2431	2219.24	67.1615	2219.24	62.8746	2219.24	70.3461	2219.24	66.2113
2296.88	82.7408	2296.88	83.1563	2296.88	80.447	2296.88	82.7426	2296.88	72.9785	2296.88	81.4182	2296.88	69.678	2296.88	78.5193	2296.88	78.9804	2296.88	73.3733	2296.88	80.8216	2296.88	64.7635	2296.88	80.5156	2296.88	63.4499	2296.88	79.6514	2296.88	65.0767	2296.88	77.6385	2296.88	70.0628	2296.88	75.746	2296.88	70.0834	2296.88	74.6622	2296.88	63.9414	2296.88	72.5814	2296.88	66.6742	2296.88	73.0322	2296.88	66.5563	2296.88	71.5438	2296.88	61.002	2296.88	69.5107	2296.88	58.8327	2296.88	62.9245	2296.88	61.0802	2296.88	65.2567	2296.88	62.2492	2296.88	69.2984	2296.88	64.3581
2378.91	82.9861	2378.91	83.6065	2378.91	80.7811	2378.91	83.0744	2378.91	72.9729	2378.91	80.8045	2378.91	71.15	2378.91	76.6509	2378.91	79.6338	2378.91	70.1167	2378.91	81.4735	2378.91	46.2715	2378.91	81.1862	2378.91	68.1396	2378.91	79.7585	2378.91	67.3462	2378.91	77.6574	2378.91	66.8836	2378.91	76.2496	2378.91	67.9329	2378.91	74.6012	2378.91	66.8892	2378.91	72.3858	2378.91	65.421	2378.91	72.1769	2378.91	66.7539	2378.91	71.491	2378.91	64.5483	2378.91	71.1483	2378.91	60.5011	2378.91	66.7981	2378.91	57.7355	2378.91	61.2181	2378.91	61.564	2378.91	68.5206	2378.91	65.0996
2462.4	82.7073	2462.4	83.6842	2462.4	80.5808	2462.4	83.1037	2462.4	73.8196	2462.4	80.0402	2462.4	71.2142	2462.4	73.3742	2462.4	80.0497	2462.4	56.4093	2462.4	81.7599	2462.4	60.4624	2462.4	81.2153	2462.4	64.7697	2462.4	79.5635	2462.4	68.344	2462.4	76.1388	2462.4	70.1286	2462.4	72.6743	2462.4	69.8649	2462.4	70.7516	2462.4	69.4164	2462.4	70.0432	2462.4	68.6095	2462.4	73.0828	2462.4	68.8239	2462.4	71.6634	2462.4	67.6547	2462.4	71.0874	2462.4	62.8108	2462.4	66.287	2462.4	55.2637	2462.4	63.9163	2462.4	58.9946	2462.4	68.6593	2462.4	65.1104
2548.83	82.2646	2548.83	83.5652	2548.83	79.061	2548.83	82.2109	2548.83	73.0386	2548.83	78.0975	2548.83	73.1576	2548.83	71.4448	2548.83	80.7125	2548.83	65.8698	2548.83	82.5533	2548.83	67.6879	2548.83	81.7794	2548.83	67.2391	2548.83	80.1528	2548.83	67.1171	2548.83	77.6737	2548.83	68.5203	2548.83	75.7573	2548.83	68.1367	2548.83	74.7718	2548.83	69.5331	2548.83	69.9371	2548.83	69.4427	2548.83	71.4538	2548.83	67.2181	2548.83	71.9743	2548.83	68.2427	2548.83	70.3694	2548.83	65.9849	2548.83	68.8382	2548.83	54.831	2548.83	59.137	2548.83	53.0579	2548.83	67.1232	2548.83	64.1421
2639.65	82.9368	2639.65	83.6835	2639.65	79.2405	2639.65	81.7615	2639.65	71.6611	2639.65	77.4169	2639.65	74.8279	2639.65	70.7721	2639.65	80.8092	2639.65	64.381	2639.65	82.6933	2639.65	69.6675	2639.65	82.0469	2639.65	73.3005	2639.65	79.7167	2639.65	73.1182	2639.65	76.2522	2639.65	73.3743	2639.65	73.7664	2639.65	73.1416	2639.65	74.0988	2639.65	70.0359	2639.65	73.1253	2639.65	70.1425	2639.65	70.8436	2639.65	70.0403	2639.65	71.3243	2639.65	67.6826	2639.65	70.4022	2639.65	65.774	2639.65	67.3248	2639.65	54.1759	2639.65	58.5319	2639.65	53.3764	2639.65	67.8515	2639.65	62.1405
2731.93	83.1443	2731.93	83.2873	2731.93	79.861	2731.93	81.1795	2731.93	72.8424	2731.93	77.2648	2731.93	75.5327	2731.93	68.7266	2731.93	80.8185	2731.93	68.7863	2731.93	82.4549	2731.93	72.1907	2731.93	81.7188	2731.93	71.5167	2731.93	79.4393	2731.93	69.7835	2731.93	75.9033	2731.93	69.2678	2731.93	73.6809	2731.93	70.195	2731.93	73.7959	2731.93	69.2689	2731.93	70.883	2731.93	69.4167	2731.93	71.6591	2731.93	69.7028	2731.93	70.9146	2731.93	67.0363	2731.93	69.4573	2731.93	65.908	2731.93	67.8016	2731.93	58.1843	2731.93	61.8105	2731.93	57.7075	2731.93	68.4866	2731.93	62.3271
2828.61	82.47	2828.61	83.0242	2828.61	79.5772	2828.61	81.4044	2828.61	73.2047	2828.61	75.8301	2828.61	77.1573	2828.61	71.5333	2828.61	81.2985	2828.61	74.2928	2828.61	82.3626	2828.61	73.6698	2828.61	80.9807	2828.61	73.3928	2828.61	78.2221	2828.61	73.114	2828.61	75.6395	2828.61	71.0391	2828.61	74.296	2828.61	70.2667	2828.61	75.6303	2828.61	70.8593	2828.61	73.6632	2828.61	69.2278	2828.61	69.3744	2828.61	70.8502	2828.61	70.1048	2828.61	70.1446	2828.61	68.7051	2828.61	67.1479	2828.61	65.7663	2828.61	62.286	2828.61	63.6015	2828.61	55.2959	2828.61	68.2034	2828.61	61.7455
2928.22	82.4035	2928.22	83.1182	2928.22	79.4093	2928.22	80.529	2928.22	73.9205	2928.22	75.569	2928.22	77.0371	2928.22	72.9423	2928.22	81.4844	2928.22	72.3961	2928.22	82.4566	2928.22	73.0405	2928.22	81.265	2928.22	71.7415	2928.22	77.6994	2928.22	70.5961	2928.22	73.1573	2928.22	70.8756	2928.22	71.301	2928.22	72.0573	2928.22	72.2056	2928.22	71.337	2928.22	73.2986	2928.22	69.111	2928.22	71.5518	2928.22	70.3963	2928.22	71.0851	2928.22	69.8298	2928.22	70.4647	2928.22	68.2837	2928.22	69.5731	2928.22	64.4929	2928.22	66.0022	2928.22	55.0961	2928.22	68.359	2928.22	59.7535
3030.76	82.9198	3030.76	83.171	3030.76	79.4258	3030.76	80.5462	3030.76	75.5671	3030.76	76.2758	3030.76	77.3357	3030.76	73.454	3030.76	81.1798	3030.76	73.9331	3030.76	82.4793	3030.76	73.9031	3030.76	81.2339	3030.76	74.6733	3030.76	77.9998	3030.76	73.9044	3030.76	74.1593	3030.76	71.0265	3030.76	73.4714	3030.76	69.8643	3030.76	72.5053	3030.76	70.4553	3030.76	70.3404	3030.76	69.5314	3030.76	70.5264	3030.76	69.2137	3030.76	70.1631	3030.76	69.738	3030.76	70.1977	3030.76	68.1914	3030.76	68.4361	3030.76	64.5521	3030.76	64.2591	3030.76	52.4009	3030.76	66.2164	3030.76	58.0236
3137.7	82.2893	3137.7	82.7096	3137.7	79.3999	3137.7	80.4083	3137.7	75.6877	3137.7	76.4365	3137.7	78.1856	3137.7	75.8474	3137.7	81.2795	3137.7	75.2778	3137.7	82.2893	3137.7	74.4718	3137.7	81.2921	3137.7	73.3742	3137.7	78.8977	3137.7	72.6726	3137.7	76.146	3137.7	73.3044	3137.7	74.7359	3137.7	72.7215	3137.7	73.2262	3137.7	72.5341	3137.7	69.2823	3137.7	70.7628	3137.7	70.7683	3137.7	70.7281	3137.7	70.5778	3137.7	70.1502	3137.7	68.814	3137.7	68.7477	3137.7	68.864	3137.7	66.8937	3137.7	66.1556	3137.7	52.3174	3137.7	66.2161	3137.7	48.3941
3249.02	82.5929	3249.02	82.8474	3249.02	79.4416	3249.02	79.7442	3249.02	77.0828	3249.02	76.9032	3249.02	78.5272	3249.02	75.364	3249.02	81.013	3249.02	74.308	3249.02	81.9072	3249.02	74.836	3249.02	81.0548	3249.02	74.5927	3249.02	78.5966	3249.02	74.9311	3249.02	75.6261	3249.02	75.0093	3249.02	74.1377	3249.02	73.2036	3249.02	72.7921	3249.02	71.9568	3249.02	67.8426	3249.02	70.7254	3249.02	68.6859	3249.02	70.0949	3249.02	70.5452	3249.02	70.3653	3249.02	68.8937	3249.02	68.1634	3249.02	68.0533	3249.02	66.3719	3249.02	64.5392	3249.02	54.2994	3249.02	63.3143	3249.02	54.3807
3363.28	82.5944	3363.28	82.8691	3363.28	78.7656	3363.28	80.5317	3363.28	76.9847	3363.28	78.4664	3363.28	78.5655	3363.28	74.7004	3363.28	80.8371	3363.28	74.8792	3363.28	81.4016	3363.28	76.8044	3363.28	80.2481	3363.28	76.766	3363.28	77.3149	3363.28	74.8801	3363.28	73.814	3363.28	71.7385	3363.28	71.3825	3363.28	70.1545	3363.28	70.2967	3363.28	72.5968	3363.28	68.8123	3363.28	72.1296	3363.28	67.4739	3363.28	70.4088	3363.28	70.7369	3363.28	71.0183	3363.28	67.295	3363.28	67.5212	3363.28	67.8573	3363.28	65.6345	3363.28	67.0993	3363.28	56.1953	3363.28	65.5548	3363.28	56.7543
3481.93	82.9873	3481.93	82.8062	3481.93	79.6478	3481.93	81.3761	3481.93	77.5556	3481.93	78.52	3481.93	78.494	3481.93	75.4085	3481.93	80.1889	3481.93	77.0425	3481.93	81.2542	3481.93	77.6524	3481.93	79.7886	3481.93	76.0167	3481.93	76.6832	3481.93	74.1102	3481.93	71.4621	3481.93	74.3497	3481.93	63.5217	3481.93	72.9672	3481.93	62.9742	3481.93	71.9474	3481.93	65.5975	3481.93	71.844	3481.93	66.2464	3481.93	71.0668	3481.93	70.5688	3481.93	71.699	3481.93	65.6407	3481.93	69.0946	3481.93	66.909	3481.93	64.6245	3481.93	68.8512	3481.93	55.1479	3481.93	66.5418	3481.93	54.7814
3604.98	82.431	3604.98	82.857	3604.98	79.4307	3604.98	81.8238	3604.98	78.3818	3604.98	78.3824	3604.98	79.5562	3604.98	77.2432	3604.98	79.2311	3604.98	78.6395	3604.98	80.3846	3604.98	77.8138	3604.98	79.5778	3604.98	76.831	3604.98	75.6652	3604.98	75.215	3604.98	70.9551	3604.98	73.449	3604.98	65.9506	3604.98	71.8566	3604.98	58.7123	3604.98	71.4569	3604.98	59.1703	3604.98	71.6433	3604.98	64.5089	3604.98	70.3029	3604.98	69.6751	3604.98	71.53	3604.98	63.8493	3604.98	69.656	3604.98	65.7918	3604.98	66.0797	3604.98	68.6305	3604.98	57.8582	3604.98	62.7281	3604.98	52.4655
3732.42	82.9198	3732.42	83.3197	3732.42	80.1856	3732.42	82.0024	3732.42	78.8355	3732.42	77.6857	3732.42	79.7611	3732.42	78.4026	3732.42	79.3482	3732.42	79.4408	3732.42	79.928	3732.42	78.4906	3732.42	79.4022	3732.42	77.3884	3732.42	77.0226	3732.42	74.4177	3732.42	74.046	3732.42	72.9035	3732.42	72.3077	3732.42	72.627	3732.42	66.4469	3732.42	71.4664	3732.42	62.0963	3732.42	72.2348	3732.42	62.9639	3732.42	71.0973	3732.42	70.3965	3732.42	71.4895	3732.42	62.1551	3732.42	70.4742	3732.42	65.8592	3732.42	66.3042	3732.42	68.0438	3732.42	59.2241	3732.42	60.433	3732.42	54.7145
3864.26	82.328	3864.26	83.8144	3864.26	79.813	3864.26	81.9318	3864.26	79.0646	3864.26	77.9522	3864.26	80.3421	3864.26	79.7223	3864.26	78.6304	3864.26	79.5419	3864.26	79.3982	3864.26	78.4916	3864.26	79.3731	3864.26	77.1099	3864.26	77.1229	3864.26	75.7488	3864.26	76.2634	3864.26	74.4936	3864.26	75.0583	3864.26	72.5174	3864.26	70.0232	3864.26	71.1625	3864.26	67.8211	3864.26	71.6038	3864.26	63.8584	3864.26	70.8343	3864.26	68.5072	3864.26	71.5774	3864.26	60.223	3864.26	70.0953	3864.26	64.7297	3864.26	67.1613	3864.26	67.9023	3864.26	58.8004	3864.26	63.1595	3864.26	55.8041
4000.49	82.6575	4000.49	84.0242	4000.49	79.8496	4000.49	81.2433	4000.49	79.4395	4000.49	78.4609	4000.49	80.456	4000.49	80.5285	4000.49	78.2324	4000.49	80.4136	4000.49	78.8309	4000.49	79.5481	4000.49	80.3181	4000.49	77.8303	4000.49	78.8565	4000.49	75.8257	4000.49	75.7044	4000.49	73.801	4000.49	71.1726	4000.49	72.6736	4000.49	68.541	4000.49	70.9404	4000.49	70.5031	4000.49	71.0386	4000.49	64.8362	4000.49	68.9133	4000.49	67.4905	4000.49	71.149	4000.49	58.2069	4000.49	70.0805	4000.49	63.9794	4000.49	66.1734	4000.49	67.0248	4000.49	61.5066	4000.49	61.9991	4000.49	49.5931
4141.11	82.9535	4141.11	84.2447	4141.11	80.0139	4141.11	80.8347	4141.11	79.8881	4141.11	79.834	4141.11	81.2321	4141.11	80.8699	4141.11	78.523	4141.11	80.4412	4141.11	77.701	4141.11	79.256	4141.11	81.107	4141.11	76.883	4141.11	79.5232	4141.11	74.203	4141.11	77.2253	4141.11	71.7367	4141.11	72.4654	4141.11	71.2991	4141.11	67.3124	4141.11	70.3248	4141.11	69.8292	4141.11	70.7503	4141.11	68.498	4141.11	69.0348	4141.11	69.3627	4141.11	69.5667	4141.11	60.5354	4141.11	70.0863	4141.11	62.8685	4141.11	65.3481	4141.11	67.0868	4141.11	61.4458	4141.11	62.6505	4141.11	45.0243
4287.6	83.0608	4287.6	83.8757	4287.6	79.9133	4287.6	80.4016	4287.6	80.6613	4287.6	80.7384	4287.6	81.6775	4287.6	80.7125	4287.6	79.7268	4287.6	81.0585	4287.6	75.9286	4287.6	79.3399	4287.6	80.0082	4287.6	75.6184	4287.6	79.6467	4287.6	74.6562	4287.6	78.2127	4287.6	71.9312	4287.6	73.7734	4287.6	69.0972	4287.6	62.3935	4287.6	68.3223	4287.6	66.6303	4287.6	68.1042	4287.6	66.0556	4287.6	67.1453	4287.6	69.1784	4287.6	67.1333	4287.6	62.3888	4287.6	69.1731	4287.6	59.7119	4287.6	65.8093	4287.6	66.4468	4287.6	61.2637	4287.6	60.2676	4287.6	48.1859
4438.48	83.6814	4438.48	83.8541	4438.48	79.7953	4438.48	81.2395	4438.48	80.9191	4438.48	81.1579	4438.48	81.8845	4438.48	81.1614	4438.48	79.7102	4438.48	80.2535	4438.48	76.0454	4438.48	77.1364	4438.48	79.768	4438.48	74.7156	4438.48	78.1868	4438.48	71.8076	4438.48	76.4818	4438.48	71.338	4438.48	69.8751	4438.48	70.4625	4438.48	64.8754	4438.48	68.9722	4438.48	61.6003	4438.48	70.2167	4438.48	62.3274	4438.48	67.5504	4438.48	67.2287	4438.48	67.4858	4438.48	56.6542	4438.48	68.9447	4438.48	57.2334	4438.48	66.5955	4438.48	67.237	4438.48	62.3737	4438.48	61.6724	4438.48	54.7978
4595.21	83.8235	4595.21	83.6065	4595.21	80.3261	4595.21	81.4069	4595.21	81.7329	4595.21	81.2457	4595.21	82.1421	4595.21	81.0554	4595.21	80.0216	4595.21	79.649	4595.21	76.4167	4595.21	76.5911	4595.21	79.7481	4595.21	73.7359	4595.21	78.3259	4595.21	73.7468	4595.21	73.2514	4595.21	71.4912	4595.21	66.8413	4595.21	67.9279	4595.21	63.7806	4595.21	67.6872	4595.21	68.3035	4595.21	68.5484	4595.21	59.0212	4595.21	67.3019	4595.21	63.699	4595.21	66.4621	4595.21	59.4437	4595.21	69.1933	4595.21	61.2372	4595.21	66.9848	4595.21	66.114	4595.21	63.8939	4595.21	59.8972	4595.21	57.4663
4756.35	83.6695	4756.35	83.7065	4756.35	80.2184	4756.35	82.1268	4756.35	81.4822	4756.35	81.6822	4756.35	82.4135	4756.35	81.0876	4756.35	79.853	4756.35	78.9996	4756.35	75.3565	4756.35	77.0477	4756.35	79.8625	4756.35	75.5643	4756.35	78.231	4756.35	73.4159	4756.35	73.7249	4756.35	71.6443	4756.35	71.0079	4756.35	70.9851	4756.35	63.1104	4756.35	68.982	4756.35	68.6047	4756.35	68.2112	4756.35	63.2011	4756.35	68.0438	4756.35	63.6156	4756.35	66.8324	4756.35	60.1573	4756.35	69.3163	4756.35	58.2492	4756.35	67.509	4756.35	65.1488	4756.35	64.5419	4756.35	57.6752	4756.35	54.6988
4924.8	83.7011	4924.8	83.8668	4924.8	79.8048	4924.8	82.3781	4924.8	81.974	4924.8	81.8513	4924.8	82.8449	4924.8	80.8052	4924.8	79.8736	4924.8	78.3364	4924.8	74.605	4924.8	77.5517	4924.8	78.8069	4924.8	75.376	4924.8	78.4287	4924.8	73.5683	4924.8	76.2283	4924.8	70.0583	4924.8	72.3171	4924.8	67.4472	4924.8	65.3764	4924.8	68.9444	4924.8	69.187	4924.8	68.2062	4924.8	66.1965	4924.8	66.5946	4924.8	62.2963	4924.8	66.8464	4924.8	59.2523	4924.8	69.2024	4924.8	51.8199	4924.8	67.1571	4924.8	64.1023	4924.8	65.1582	4924.8	59.0357	4924.8	60.0042
5097.66	83.7934	5097.66	83.8997	5097.66	80.5938	5097.66	82.0926	5097.66	81.8838	5097.66	81.5956	5097.66	82.933	5097.66	80.3011	5097.66	80.3129	5097.66	79.0475	5097.66	75.335	5097.66	77.3248	5097.66	78.2153	5097.66	75.0385	5097.66	78.7199	5097.66	73.8704	5097.66	76.0143	5097.66	71.4306	5097.66	69.5541	5097.66	68.5842	5097.66	62.2045	5097.66	66.6282	5097.66	66.3058	5097.66	65.3486	5097.66	67.8504	5097.66	64.7298	5097.66	62.928	5097.66	64.2086	5097.66	58.9409	5097.66	67.9696	5097.66	54.716	5097.66	67.2296	5097.66	64.5567	5097.66	62.9351	5097.66	58.0395	5097.66	57.2022
5277.83	83.9466	5277.83	83.8997	5277.83	80.2626	5277.83	81.7965	5277.83	81.7865	5277.83	81.2705	5277.83	83.158	5277.83	80.2625	5277.83	79.9989	5277.83	79.434	5277.83	74.8679	5277.83	77.5947	5277.83	78.1658	5277.83	73.3338	5277.83	78.9671	5277.83	70.7372	5277.83	77.5029	5277.83	68.6775	5277.83	72.2031	5277.83	67.022	5277.83	64.3159	5277.83	66.53	5277.83	65.4599	5277.83	65.3591	5277.83	65.2868	5277.83	65.0634	5277.83	61.8958	5277.83	62.6435	5277.83	57.2131	5277.83	66.9342	5277.83	55.4441	5277.83	65.9338	5277.83	63.5784	5277.83	65.1261	5277.83	59.7897	5277.83	59.9507
5463.87	83.7855	5463.87	83.9793	5463.87	80.6233	5463.87	81.8539	5463.87	81.3021	5463.87	81.0539	5463.87	82.6262	5463.87	79.8315	5463.87	80.182	5463.87	78.9594	5463.87	74.8461	5463.87	75.513	5463.87	77.6142	5463.87	72.6359	5463.87	77.8102	5463.87	71.4204	5463.87	76.5125	5463.87	67.7836	5463.87	72.7454	5463.87	66.4741	5463.87	63.8897	5463.87	66.7287	5463.87	65.1734	5463.87	65.126	5463.87	63.3272	5463.87	64.9823	5463.87	65.8254	5463.87	63.3392	5463.87	58.8919	5463.87	66.9302	5463.87	54.4585	5463.87	66.9939	5463.87	58.0556	5463.87	63.2412	5463.87	56.8088	5463.87	61.6147
5657.23	83.9156	5657.23	83.9559	5657.23	79.4681	5657.23	81.4739	5657.23	82.1451	5657.23	80.8302	5657.23	82.5626	5657.23	80.1971	5657.23	79.845	5657.23	78.2023	5657.23	75.3746	5657.23	73.9204	5657.23	76.9692	5657.23	71.9813	5657.23	77.6384	5657.23	71.7296	5657.23	75.0135	5657.23	69.9182	5657.23	69.1022	5657.23	68.4609	5657.23	71.3117	5657.23	67.4056	5657.23	69.11	5657.23	65.7567	5657.23	51.2943	5657.23	65.3301	5657.23	65.5433	5657.23	64.1572	5657.23	60.097	5657.23	65.9491	5657.23	50.9016	5657.23	66.7467	5657.23	60.5514	5657.23	65.3667	5657.23	58.216	5657.23	59.857
5856.45	84.1758	5856.45	83.7868	5856.45	79.2195	5856.45	80.7612	5856.45	81.2851	5856.45	81.1231	5856.45	82.2702	5856.45	80.534	5856.45	79.8644	5856.45	77.9449	5856.45	74.5676	5856.45	73.8712	5856.45	77.0634	5856.45	73.4306	5856.45	77.1922	5856.45	70.5806	5856.45	74.9498	5856.45	67.9219	5856.45	65.1693	5856.45	67.4624	5856.45	67.4096	5856.45	67.1404	5856.45	68.4733	5856.45	65.4369	5856.45	57.7375	5856.45	65.1958	5856.45	61.3892	5856.45	64.9208	5856.45	59.5271	5856.45	66.2426	5856.45	45.4695	5856.45	66.233	5856.45	61.2684	5856.45	64.4569	5856.45	55.917	5856.45	61.3815
6062.99	84.7847	6062.99	83.2706	6062.99	79.0752	6062.99	80.2675	6062.99	80.7006	6062.99	82.0636	6062.99	82.1544	6062.99	80.5553	6062.99	79.6209	6062.99	76.6945	6062.99	75.0019	6062.99	74.6053	6062.99	76.7865	6062.99	72.8598	6062.99	77.0197	6062.99	71.2245	6062.99	73.8162	6062.99	69.6095	6062.99	68.439	6062.99	68.3345	6062.99	66.2117	6062.99	66.9013	6062.99	68.8069	6062.99	64.6255	6062.99	57.4752	6062.99	65.2736	6062.99	61.5991	6062.99	64.6916	6062.99	59.902	6062.99	66.7982	6062.99	53.4729	6062.99	65.8363	6062.99	60.6634	6062.99	64.5595	6062.99	57.8265	6062.99	61.8865
6276.86	84.7673	6276.86	81.5195	6276.86	80.0779	6276.86	81.604	6276.86	79.7664	6276.86	82.6636	6276.86	81.784	6276.86	78.8117	6276.86	79.5111	6276.86	76.6051	6276.86	76.0697	6276.86	75.2635	6276.86	75.4855	6276.86	74.2705	6276.86	75.8331	6276.86	71.8249	6276.86	71.0262	6276.86	70.1192	6276.86	68.0853	6276.86	68.9527	6276.86	62.6814	6276.86	67.2328	6276.86	65.8011	6276.86	65.5183	6276.86	50.8445	6276.86	64.0516	6276.86	58.177	6276.86	64.7687	6276.86	55.4615	6276.86	67.0838	6276.86	52.0827	6276.86	66.7426	6276.86	57.9942	6276.86	63.9917	6276.86	56.9317	6276.86	62.2708
6498.05	83.9711	6498.05	80.6394	6498.05	81.6968	6498.05	82.4109	6498.05	78.4796	6498.05	81.4967	6498.05	81.9929	6498.05	77.8388	6498.05	79.8408	6498.05	77.7737	6498.05	75.1148	6498.05	75.4137	6498.05	74.6336	6498.05	74.8389	6498.05	75.5243	6498.05	71.4145	6498.05	70.5806	6498.05	69.5978	6498.05	67.415	6498.05	67.756	6498.05	61.6451	6498.05	65.7183	6498.05	63.2995	6498.05	64.8402	6498.05	58.7802	6498.05	63.1732	6498.05	55.9299	6498.05	62.4434	6498.05	55.8205	6498.05	65.3644	6498.05	51.63	6498.05	65.464	6498.05	59.0329	6498.05	63.5382	6498.05	56.5984	6498.05	62.207
6726.56	82.8953	6726.56	81.0268	6726.56	81.4586	6726.56	82.3847	6726.56	79.5977	6726.56	80.0977	6726.56	81.2651	6726.56	78.4993	6726.56	79.9663	6726.56	77.855	6726.56	76.1601	6726.56	75.6553	6726.56	72.9717	6726.56	74.0822	6726.56	74.708	6726.56	70.8233	6726.56	73.5147	6726.56	69.4123	6726.56	67.7051	6726.56	66.0294	6726.56	61.691	6726.56	65.2733	6726.56	60.9864	6726.56	64.1146	6726.56	53.803	6726.56	62.3868	6726.56	50.3546	6726.56	60.8817	6726.56	55.8222	6726.56	63.4957	6726.56	49.6083	6726.56	65.0024	6726.56	58.8649	6726.56	62.2827	6726.56	59.0643	6726.56	61.2291
6963.87	82.7067	6963.87	81.2912	6963.87	81.2251	6963.87	81.8367	6963.87	80.1297	6963.87	79.5264	6963.87	81.1539	6963.87	78.6817	6963.87	80.5111	6963.87	77.4671	6963.87	75.9979	6963.87	75.4624	6963.87	72.5584	6963.87	73.5443	6963.87	74.3222	6963.87	70.7296	6963.87	74.3153	6963.87	68.2792	6963.87	65.9992	6963.87	65.9937	6963.87	58.9719	6963.87	64.9363	6963.87	60.5057	6963.87	61.9485	6963.87	48.4231	6963.87	61.2398	6963.87	57.3975	6963.87	60.7807	6963.87	58.3194	6963.87	63.4328	6963.87	46.7665	6963.87	63.8492	6963.87	57.5829	6963.87	61.8559	6963.87	54.3981	6963.87	61.0448
7209.96	82.7387	7209.96	80.8787	7209.96	81.1531	7209.96	81.6216	7209.96	80.5071	7209.96	79.0217	7209.96	80.4862	7209.96	78.7496	7209.96	80.8067	7209.96	77.3092	7209.96	77.8666	7209.96	75.1918	7209.96	72.6232	7209.96	73.5089	7209.96	76.5796	7209.96	70.5453	7209.96	75.7497	7209.96	66.3004	7209.96	69.7945	7209.96	65.7245	7209.96	50.2027	7209.96	63.3505	7209.96	59.3104	7209.96	60.7143	7209.96	54.5966	7209.96	58.4791	7209.96	57.183	7209.96	59.6043	7209.96	58.1995	7209.96	61.3354	7209.96	47.6004	7209.96	62.7153	7209.96	59.0563	7209.96	60.3619	7209.96	59.0561	7209.96	60.3116
7464.84	82.6008	7464.84	80.6921	7464.84	81.1123	7464.84	81.658	7464.84	80.2803	7464.84	78.9348	7464.84	80.4201	7464.84	79.3185	7464.84	80.5306	7464.84	77.3653	7464.84	78.9206	7464.84	75.125	7464.84	73.1964	7464.84	72.4958	7464.84	76.0686	7464.84	68.6127	7464.84	73.3254	7464.84	65.1359	7464.84	69.8781	7464.84	65.7426	7464.84	62.8917	7464.84	61.629	7464.84	56.3347	7464.84	61.0814	7464.84	56.28	7464.84	57.9071	7464.84	59.1522	7464.84	57.9334	7464.84	55.7874	7464.84	61.4873	7464.84	44.3555	7464.84	61.1025	7464.84	56.3875	7464.84	58.7671	7464.84	54.0858	7464.84	58.1961
7727.05	82.3159	7727.05	81.2846	7727.05	81.7478	7727.05	81.181	7727.05	80.2737	7727.05	79.6076	7727.05	80.477	7727.05	79.6849	7727.05	80.3797	7727.05	77.7631	7727.05	78.9341	7727.05	74.7166	7727.05	72.8914	7727.05	71.6048	7727.05	75.0604	7727.05	68.5102	7727.05	72.1876	7727.05	67.8681	7727.05	70.9287	7727.05	65.913	7727.05	64.6479	7727.05	61.7023	7727.05	53.9952	7727.05	62.0281	7727.05	55.2387	7727.05	58.7297	7727.05	51.726	7727.05	58.3245	7727.05	56.7266	7727.05	60.9907	7727.05	49.954	7727.05	61.4717	7727.05	53.8958	7727.05	58.4551	7727.05	57.1478	7727.05	58.163
7999.51	81.5052	7999.51	81.2913	7999.51	81.9415	7999.51	80.4252	7999.51	80.5752	7999.51	80.1835	7999.51	80.4682	7999.51	79.5754	7999.51	80.0723	7999.51	77.9677	7999.51	78.9338	7999.51	74.0897	7999.51	72.6208	7999.51	72.5774	7999.51	74.2569	7999.51	67.9471	7999.51	68.9402	7999.51	67.6825	7999.51	69.9788	7999.51	64.133	7999.51	64.9787	7999.51	62.3669	7999.51	59.7814	7999.51	61.3923	7999.51	58.8955	7999.51	58.5461	7999.51	51.0627	7999.51	57.2234	7999.51	59.7195	7999.51	59.8334	7999.51	51.7995	7999.51	60.403	7999.51	54.6311	7999.51	56.1151	7999.51	56.3058	7999.51	56.6094
8282.23	81.27	8282.23	81.1695	8282.23	81.9256	8282.23	80.4028	8282.23	81.0068	8282.23	80.0649	8282.23	80.5292	8282.23	79.9562	8282.23	79.2303	8282.23	77.1165	8282.23	78.6208	8282.23	73.9373	8282.23	71.1106	8282.23	70.8864	8282.23	73.1608	8282.23	65.874	8282.23	65.5116	8282.23	65.7484	8282.23	66.2935	8282.23	62.1727	8282.23	61.9583	8282.23	62.9163	8282.23	64.4458	8282.23	60.5811	8282.23	53.5178	8282.23	58.7793	8282.23	55.7863	8282.23	56.691	8282.23	60.5559	8282.23	58.9045	8282.23	48.3155	8282.23	56.7311	8282.23	45.8126	8282.23	54.143	8282.23	56.4214	8282.23	55.3839
8573.73	81.3345	8573.73	81.0766	8573.73	82.0689	8573.73	80.5273	8573.73	81.2651	8573.73	80.1297	8573.73	80.6964	8573.73	79.9204	8573.73	78.7854	8573.73	76.0628	8573.73	78.8914	8573.73	73.6374	8573.73	70.234	8573.73	69.5485	8573.73	73.2259	8573.73	68.3009	8573.73	72.4022	8573.73	65.4186	8573.73	66.8216	8573.73	63.7038	8573.73	44.3397	8573.73	62.8724	8573.73	63.2518	8573.73	59.6458	8573.73	46.6682	8573.73	59.6439	8573.73	53.6079	8573.73	57.3478	8573.73	58.2681	8573.73	58.6687	8573.73	47.263	8573.73	57.7481	8573.73	53.8115	8573.73	51.2568	8573.73	55.2875	8573.73	54.3774
8876.95	82.054	8876.95	81.3184	8876.95	82.2972	8876.95	80.645	8876.95	81.5797	8876.95	80.6441	8876.95	80.6976	8876.95	79.1692	8876.95	78.6383	8876.95	75.6248	8876.95	78.9022	8876.95	73.5709	8876.95	71.5566	8876.95	70.8666	8876.95	73.4758	8876.95	68.0203	8876.95	74.0288	8876.95	65.2756	8876.95	68.4806	8876.95	63.097	8876.95	54.7645	8876.95	60.6655	8876.95	63.5833	8876.95	59.0106	8876.95	53.6155	8876.95	57.9754	8876.95	47.3749	8876.95	56.4931	8876.95	55.1985	8876.95	57.058	8876.95	54.9219	8876.95	58.0339	8876.95	51.9619	8876.95	48.6496	8876.95	54.6106	8876.95	54.223
9188.96	82.8039	9188.96	81.5748	9188.96	82.7005	9188.96	81.3995	9188.96	81.9233	9188.96	80.7127	9188.96	80.5379	9188.96	78.4454	9188.96	78.5774	9188.96	75.6497	9188.96	78.4337	9188.96	73.7301	9188.96	72.5487	9188.96	70.7848	9188.96	71.2883	9188.96	66.8948	9188.96	70.7337	9188.96	63.5836	9188.96	66.0866	9188.96	61.4226	9188.96	58.9564	9188.96	59.0163	9188.96	61.957	9188.96	58.6458	9188.96	55.9246	9188.96	56.1104	9188.96	47.1441	9188.96	53.5226	9188.96	50.8713	9188.96	54.821	9188.96	53.8467	9188.96	56.8802	9188.96	45.7487	9188.96	41.696	9188.96	54.2591	9188.96	52.0187
9514.16	83.4239	9514.16	82.1888	9514.16	83.385	9514.16	82.2323	9514.16	82.1335	9514.16	80.2168	9514.16	80.6401	9514.16	78.4635	9514.16	78.7929	9514.16	75.7125	9514.16	78.5994	9514.16	73.7132	9514.16	73.9919	9514.16	70.1727	9514.16	71.573	9514.16	66.4479	9514.16	69.5144	9514.16	63.3748	9514.16	61.9302	9514.16	59.8449	9514.16	44.7164	9514.16	57.4535	9514.16	57.7883	9514.16	58.3656	9514.16	56.1492	9514.16	56.6724	9514.16	29.2959	9514.16	52.4373	9514.16	50.9672	9514.16	55.191	9514.16	54.1581	9514.16	55.8133	9514.16	49.8133	9514.16	42.0665	9514.16	52.491	9514.16	44.6935
9849.61	83.7879	9849.61	83.1876	9849.61	84.0315	9849.61	82.5386	9849.61	82.4245	9849.61	80.1844	9849.61	80.8188	9849.61	78.7675	9849.61	78.6246	9849.61	75.7706	9849.61	78.2929	9849.61	73.8222	9849.61	74.4796	9849.61	70.147	9849.61	72.2252	9849.61	67.0608	9849.61	69.7951	9849.61	63.5381	9849.61	66.1426	9849.61	60.6109	9849.61	57.8936	9849.61	56.7809	9849.61	48.3724	9849.61	56.7956	9849.61	48.2962	9849.61	55.0025	9849.61	48.794	9849.61	53.3549	9849.61	51.5365	9849.61	54.443	9849.61	53.541	9849.61	54.2348	9849.61	46.2552	9849.61	48.5236	9849.61	51.2784	9849.61	42.3695
10196.8	84.2162	10196.8	84.0185	10196.8	84.4945	10196.8	82.6464	10196.8	82.9508	10196.8	80.5693	10196.8	81.0263	10196.8	78.4548	10196.8	79.0102	10196.8	76.0143	10196.8	77.8872	10196.8	73.7168	10196.8	73.9972	10196.8	70.0005	10196.8	70.7685	10196.8	66.2897	10196.8	69.0949	10196.8	63.0565	10196.8	64.1088	10196.8	58.7788	10196.8	56.6038	10196.8	56.15	10196.8	50.2432	10196.8	56.2105	10196.8	31.7273	10196.8	50.3056	10196.8	53.0726	10196.8	52.9486	10196.8	47.7319	10196.8	54.0725	10196.8	51.198	10196.8	52.9403	10196.8	49.3997	10196.8	49.5256	10196.8	49.3092	10196.8	39.0042
10555.7	84.4026	10555.7	84.1714	10555.7	84.4347	10555.7	82.8865	10555.7	83.2166	10555.7	80.4461	10555.7	81.3967	10555.7	78.6716	10555.7	78.6583	10555.7	75.8481	10555.7	77.4046	10555.7	73.6204	10555.7	74.0366	10555.7	68.9429	10555.7	67.8406	10555.7	64.4317	10555.7	65.7787	10555.7	60.7079	10555.7	65.3573	10555.7	56.8827	10555.7	60.2346	10555.7	56.1247	10555.7	50.1737	10555.7	54.8602	10555.7	48.1224	10555.7	48.3049	10555.7	38.3476	10555.7	50.9667	10555.7	41.8017	10555.7	54.9883	10555.7	51.9036	10555.7	52.6994	10555.7	49.7977	10555.7	50.5414	10555.7	44.2735	10555.7	37.2417
10927.7	84.7995	10927.7	84.5223	10927.7	84.5971	10927.7	83.0908	10927.7	83.414	10927.7	80.552	10927.7	81.5625	10927.7	78.9274	10927.7	78.6182	10927.7	75.8413	10927.7	76.5215	10927.7	73.2627	10927.7	72.4551	10927.7	66.9584	10927.7	65.8204	10927.7	64.1318	10927.7	66.3438	10927.7	59.7723	10927.7	58.7277	10927.7	57.2063	10927.7	54.0333	10927.7	55.932	10927.7	50.9371	10927.7	53.8058	10927.7	48.4147	10927.7	47.6657	10927.7	43.5897	10927.7	52.2451	10927.7	43.8183	10927.7	54.011	10927.7	49.2235	10927.7	53.462	10927.7	47.7005	10927.7	51.0227	10927.7	43.8182	10927.7	30.0589
11313	84.7629	11313	84.779	11313	84.6021	11313	83.0371	11313	83.3133	11313	80.8181	11313	81.4285	11313	79.0021	11313	78.61	11313	75.7256	11313	76.0334	11313	71.9992	11313	71.1152	11313	65.9499	11313	66.606	11313	63.2902	11313	67.4613	11313	58.6733	11313	57.9653	11313	55.9603	11313	57.9427	11313	54.3324	11313	46.7512	11313	55.3044	11313	44.9752	11313	47.477	11313	49.8294	11313	51.2267	11313	40.661	11313	52.3312	11313	46.1017	11313	52.8176	11313	45.0034	11313	50.2091	11313	42.0892	11313	35.3805
11712.9	85.1556	11712.9	84.9154	11712.9	84.6626	11712.9	83.0646	11712.9	83.3635	11712.9	80.6924	11712.9	81.3321	11712.9	79.1707	11712.9	78.4478	11712.9	75.3092	11712.9	76.0412	11712.9	71.1081	11712.9	71.4778	11712.9	64.9634	11712.9	65.9571	11712.9	63.4568	11712.9	62.3021	11712.9	57.9276	11712.9	55.352	11712.9	55.7688	11712.9	58.2333	11712.9	54.3744	11712.9	49.2748	11712.9	55.0919	11712.9	32.6984	11712.9	47.7424	11712.9	50.0795	11712.9	51.8918	11712.9	45.0195	11712.9	51.1568	11712.9	45.2521	11712.9	53.1686	11712.9	46.5124	11712.9	48.814	11712.9	39.4016	11712.9	39.8882
12126	85.3521	12126	85.0279	12126	84.7154	12126	83.1636	12126	83.4168	12126	80.5041	12126	81.1781	12126	79.1126	12126	78.451	12126	74.3675	12126	75.4499	12126	70.4891	12126	70.3616	12126	64.5671	12126	63.4955	12126	62.946	12126	61.215	12126	57.3274	12126	44.2996	12126	53.4155	12126	57.9085	12126	52.7606	12126	54.3732	12126	53.6663	12126	48.4226	12126	49.726	12126	44.4293	12126	51.1849	12126	43.5476	12126	49.9216	12126	44.6291	12126	52.3955	12126	42.1311	12126	46.1167	12126	37.9491	12126	33.535
12553.7	85.6905	12553.7	85.2974	12553.7	84.8907	12553.7	83.1324	12553.7	83.4884	12553.7	80.4522	12553.7	81.0758	12553.7	78.4565	12553.7	78.0345	12553.7	73.8364	12553.7	74.0735	12553.7	69.6004	12553.7	69.0992	12553.7	64.3649	12553.7	60.6849	12553.7	61.1489	12553.7	61.6374	12553.7	56.0218	12553.7	47.8795	12553.7	51.8021	12553.7	57.1012	12553.7	49.9853	12553.7	53.8323	12553.7	52.0321	12553.7	46.0937	12553.7	48.6259	12553.7	48.0272	12553.7	48.1598	12553.7	40.9593	12553.7	47.799	12553.7	45.3646	12553.7	51.7696	12553.7	45.9255	12553.7	44.2433	12553.7	38.4247	12553.7	33.8095
12996.1	85.9292	12996.1	85.4867	12996.1	85.0259	12996.1	83.1545	12996.1	83.5123	12996.1	80.2985	12996.1	80.7543	12996.1	77.6964	12996.1	77.3692	12996.1	72.9388	12996.1	72.7719	12996.1	68.6649	12996.1	67.2968	12996.1	62.4346	12996.1	58.4348	12996.1	59.5174	12996.1	60.084	12996.1	55.2417	12996.1	49.1564	12996.1	48.6238	12996.1	54.9368	12996.1	49.4058	12996.1	49.9044	12996.1	49.9073	12996.1	12.1616	12996.1	47.3379	12996.1	45.2467	12996.1	45.9988	12996.1	44.8812	12996.1	47.464	12996.1	43.6866	12996.1	50.2031	12996.1	43.2043	12996.1	42.4917	12996.1	40.6746	12996.1	35.0233
13454.6	85.8805	13454.6	85.5542	13454.6	85.0603	13454.6	83.1569	13454.6	83.498	13454.6	80.1584	13454.6	80.6777	13454.6	76.9437	13454.6	76.7488	13454.6	72.0589	13454.6	71.5454	13454.6	67.4181	13454.6	64.5717	13454.6	61.2762	13454.6	59.2612	13454.6	57.8122	13454.6	57.4827	13454.6	53.6967	13454.6	49.3695	13454.6	47.9583	13454.6	54.813	13454.6	48.7604	13454.6	39.9904	13454.6	48.1743	13454.6	45.8276	13454.6	46.7977	13454.6	43.3388	13454.6	42.7729	13454.6	43.7933	13454.6	48.2414	13454.6	34.056	13454.6	49.5495	13454.6	43.8057	13454.6	43.6833	13454.6	39.7126	13454.6	36.1472
13929.2	85.6928	13929.2	85.225	13929.2	84.7595	13929.2	82.8109	13929.2	83.2003	13929.2	79.7983	13929.2	80.1908	13929.2	76.1383	13929.2	75.9824	13929.2	71.178	13929.2	70.9769	13929.2	66.3408	13929.2	62.8171	13929.2	59.715	13929.2	57.5516	13929.2	56.3733	13929.2	53.933	13929.2	51.3497	13929.2	46.8476	13929.2	48.4148	13929.2	52.4012	13929.2	47.9444	13929.2	40.9494	13929.2	46.1722	13929.2	43.6373	13929.2	45.2971	13929.2	37.9822	13929.2	41.5448	13929.2	35.6798	13929.2	48.1235	13929.2	30.2438	13929.2	47.2536	13929.2	42.5914	13929.2	45.304	13929.2	39.9983	13929.2	34.6985
14419.9	84.8572	14419.9	84.3067	14419.9	83.9838	14419.9	81.7407	14419.9	82.2593	14419.9	78.615	14419.9	79.0992	14419.9	74.7674	14419.9	74.7223	14419.9	69.9296	14419.9	69.8178	14419.9	64.9604	14419.9	62.9839	14419.9	58.4843	14419.9	59.2314	14419.9	53.9253	14419.9	54.6464	14419.9	50.066	14419.9	50.9504	14419.9	47.4555	14419.9	50.6739	14419.9	46.3176	14419.9	40.4805	14419.9	44.9645	14419.9	41.251	14419.9	46.4886	14419.9	45.2256	14419.9	40.9974	14419.9	39.1291	14419.9	47.0921	14419.9	38.3566	14419.9	47.0423	14419.9	43.427	14419.9	47.2167	14419.9	44.0725	14419.9	36.537
14928.2	82.6438	14928.2	82.1201	14928.2	81.9343	14928.2	80.378	14928.2	80.8657	14928.2	77.0775	14928.2	78.2377	14928.2	75.0022	14928.2	74.8818	14928.2	71.9745	14928.2	71.2912	14928.2	67.4389	14928.2	67.5817	14928.2	61.3648	14928.2	60.9609	14928.2	57.3679	14928.2	55.3518	14928.2	53.5503	14928.2	53.1713	14928.2	51.3968	14928.2	55.9213	14928.2	48.2066	14928.2	46.0916	14928.2	45.7425	14928.2	48.8284	14928.2	48.5331	14928.2	44.1623	14928.2	44.8712	14928.2	42.5015	14928.2	47.402	14928.2	39.3365	14928.2	49.998	14928.2	44.6609	14928.2	48.4343	14928.2	43.7187	14928.2	38.7746
15455.6	87.433	15455.6	86.8557	15455.6	86.8641	15455.6	83.5357	15455.6	84.368	15455.6	78.7999	15455.6	80.429	15455.6	74.6727	15455.6	75.0516	15455.6	68.4158	15455.6	69.0585	15455.6	63.4996	15455.6	61.9578	15455.6	54.8889	15455.6	55.9247	15455.6	53.6562	15455.6	51.7242	15455.6	45.9812	15455.6	35.4233	15455.6	42.5824	15455.6	52.3826	15455.6	37.2386	15455.6	49.3209	15455.6	33.5025	15455.6	39.8166	15455.6	35.2904	15455.6	28.4152	15455.6	33.3767	15455.6	26.4048	15455.6	29.7211	15455.6	31.5282	15455.6	36.8492	15455.6	42.7498	15455.6	37.3112	15455.6	35.9192	15455.6	32.1965
16000.5	86.9241	16000.5	86.0776	16000.5	86.0494	16000.5	82.5629	16000.5	83.596	16000.5	77.3086	16000.5	79.0605	16000.5	70.9939	16000.5	72.4819	16000.5	61.832	16000.5	63.2645	16000.5	52.2216	16000.5	51.5389	16000.5	50.3407	16000.5	45.9019	16000.5	49.8807	16000.5	50.506	16000.5	45.9272	16000.5	41.7529	16000.5	43.1985	16000.5	44.8764	16000.5	40.5853	16000.5	49.901	16000.5	38.078	16000.5	34.7374	16000.5	42.5619	16000.5	36.5621	16000.5	38.1591	16000.5	29.1405	16000.5	36.6562	16000.5	27.7898	16000.5	40.5653	16000.5	42.0868	16000.5	43.8401	16000.5	36.3485	16000.5	38.4817
16564.5	86.0621	16564.5	85.0557	16564.5	85.1321	16564.5	81.4332	16564.5	82.5317	16564.5	75.6841	16564.5	77.7289	16564.5	68.7084	16564.5	70.1771	16564.5	57.7867	16564.5	58.628	16564.5	54.1814	16564.5	57.2161	16564.5	54.2227	16564.5	51.2641	16564.5	51.3139	16564.5	52.2398	16564.5	45.9464	16564.5	42.8419	16564.5	44.7017	16564.5	37.4815	16564.5	43.1468	16564.5	51.2554	16564.5	40.0002	16564.5	37.5359	16564.5	43.3106	16564.5	32.6667	16564.5	36.1867	16564.5	34.6443	16564.5	40.982	16564.5	27.924	16564.5	42.0812	16564.5	42.0384	16564.5	44.1491	16564.5	36.0111	16564.5	36.7507
17148.9	85.3047	17148.9	84.2339	17148.9	84.3867	17148.9	80.1624	17148.9	81.478	17148.9	73.991	17148.9	76.117	17148.9	66.9524	17148.9	67.3283	17148.9	55.3675	17148.9	56.9391	17148.9	57.7124	17148.9	57.1486	17148.9	55.703	17148.9	53.023	17148.9	51.3226	17148.9	51.9753	17148.9	46.7051	17148.9	43.3323	17148.9	44.9664	17148.9	34.9098	17148.9	44.1038	17148.9	47.8752	17148.9	37.0884	17148.9	21.3701	17148.9	42.1145	17148.9	31.3795	17148.9	36.1796	17148.9	35.1672	17148.9	41.4883	17148.9	26.043	17148.9	41.7807	17148.9	40.0488	17148.9	44.6051	17148.9	34.3154	17148.9	36.832
17752.4	84.4191	17752.4	83.41	17752.4	83.4649	17752.4	78.925	17752.4	80.3666	17752.4	72.5025	17752.4	74.4616	17752.4	64.7093	17752.4	64.1186	17752.4	58.7363	17752.4	55.399	17752.4	58.6736	17752.4	58.6226	17752.4	55.3613	17752.4	54.0558	17752.4	52.2983	17752.4	52.0166	17752.4	47.3951	17752.4	46.0322	17752.4	44.9855	17752.4	37.5012	17752.4	41.9608	17752.4	47.8708	17752.4	34.4367	17752.4	36.6133	17752.4	42.3532	17752.4	31.9804	17752.4	35.7513	17752.4	37.3464	17752.4	41.3138	17752.4	29.1433	17752.4	41.0001	17752.4	40.3819	17752.4	45.4129	17752.4	34.5593	17752.4	34.9778
18379.4	83.2536	18379.4	82.4078	18379.4	82.2793	18379.4	77.521	18379.4	78.8504	18379.4	71.3178	18379.4	72.4456	18379.4	61.7226	18379.4	61.035	18379.4	60.1159	18379.4	53.6376	18379.4	58.4111	18379.4	59.7808	18379.4	55.9464	18379.4	54.7583	18379.4	51.6699	18379.4	51.1976	18379.4	47.5607	18379.4	44.0443	18379.4	43.6323	18379.4	38.7061	18379.4	41.4392	18379.4	47.5239	18379.4	36.841	18379.4	40.0609	18379.4	40.8171	18379.4	31.5322	18379.4	34.8676	18379.4	31.3745	18379.4	40.9506	18379.4	32.5896	18379.4	39.8503	18379.4	39.0234	18379.4	44.5909	18379.4	34.4283	18379.4	34.14
19026.9	82.1358	19026.9	81.4294	19026.9	81.0826	19026.9	76.029	19026.9	77.0025	19026.9	69.725	19026.9	70.2195	19026.9	58.1122	19026.9	57.7753	19026.9	59.4089	19026.9	53.9556	19026.9	57.9815	19026.9	57.9837	19026.9	55.7314	19026.9	54.2771	19026.9	50.9276	19026.9	48.6846	19026.9	45.9293	19026.9	36.5312	19026.9	41.3287	19026.9	42.9093	19026.9	39.0994	19026.9	45.1982	19026.9	36.8706	19026.9	42.0855	19026.9	38.1396	19026.9	38.5478	19026.9	34.1902	19026.9	36.4752	19026.9	38.7122	19026.9	33.4557	19026.9	36.4315	19026.9	38.8265	19026.9	42.4716	19026.9	28.9628	19026.9	30.6688
19697.8	81.356	19697.8	80.5306	19697.8	80.2407	19697.8	74.5474	19697.8	75.4309	19697.8	67.0882	19697.8	68.2072	19697.8	56.082	19697.8	52.6122	19697.8	59.2053	19697.8	55.9182	19697.8	58.0434	19697.8	58.3159	19697.8	55.1212	19697.8	50.4718	19697.8	48.4204	19697.8	46.8681	19697.8	44.0415	19697.8	32.8992	19697.8	36.6395	19697.8	38.6588	19697.8	35.8856	19697.8	46.5124	19697.8	35.7445	19697.8	42.6863	19697.8	35.9023	19697.8	42.1968	19697.8	34.0079	19697.8	39.2723	19697.8	34.9119	19697.8	32.3835	19697.8	34.1711	19697.8	35.5246	19697.8	39.667	19697.8	30.4412	19697.8	28.5097
19999.5	81.1704	19999.5	80.1108	19999.5	79.8748	19999.5	74.1895	19999.5	74.302	19999.5	65.6441	19999.5	66.6829	19999.5	55.506	19999.5	53.1093	19999.5	58.7989	19999.5	57.2952	19999.5	58.3188	19999.5	59.614	19999.5	53.6191	19999.5	48.1869	19999.5	48.4515	19999.5	49.011	19999.5	43.5038	19999.5	34.9561	19999.5	30.3918	19999.5	43.676	19999.5	38.3681	19999.5	50.8197	19999.5	34.0264	19999.5	43.1016	19999.5	35.7028	19999.5	47.8717	19999.5	34.3397	19999.5	46.6327	19999.5	35.9504	19999.5	38.0203	19999.5	36.5739	19999.5	40.0461	19999.5	28.6466	19999.5	41.8294	19999.5	30.835
