"SPL Horizontal"
"On-Axis"		"10°"		"-10°"		"20°"		"-20°"		"30°"		"-30°"		"40°"		"-40°"		"50°"		"-50°"		"60°"		"-60°"		"70°"		"-70°"		"80°"		"-80°"		"90°"		"-90°"		"100°"		"-100°"		"110°"		"-110°"		"120°"		"-120°"		"130°"		"-130°"		"140°"		"-140°"		"150°"		"-150°"		"160°"		"-160°"		"170°"		"-170°"		"180°"
"Frequency / Hz"	"Sound Pressure Level / dB (re 20 µPa/V)  [2.83V at 1m]"	"Frequency / Hz"	"Sound Pressure Level / dB (re 20 µPa/V)  [2.83V at 1m]"	"Frequency / Hz"	"Sound Pressure Level / dB (re 20 µPa/V)  [2.83V at 1m]"	"Frequency / Hz"	"Sound Pressure Level / dB (re 20 µPa/V)  [2.83V at 1m]"	"Frequency / Hz"	"Sound Pressure Level / dB (re 20 µPa/V)  [2.83V at 1m]"	"Frequency / Hz"	"Sound Pressure Level / dB (re 20 µPa/V)  [2.83V at 1m]"	"Frequency / Hz"	"Sound Pressure Level / dB (re 20 µPa/V)  [2.83V at 1m]"	"Frequency / Hz"	"Sound Pressure Level / dB (re 20 µPa/V)  [2.83V at 1m]"	"Frequency / Hz"	"Sound Pressure Level / dB (re 20 µPa/V)  [2.83V at 1m]"	"Frequency / Hz"	"Sound Pressure Level / dB (re 20 µPa/V)  [2.83V at 1m]"	"Frequency / Hz"	"Sound Pressure Level / dB (re 20 µPa/V)  [2.83V at 1m]"	"Frequency / Hz"	"Sound Pressure Level / dB (re 20 µPa/V)  [2.83V at 1m]"	"Frequency / Hz"	"Sound Pressure Level / dB (re 20 µPa/V)  [2.83V at 1m]"	"Frequency / Hz"	"Sound Pressure Level / dB (re 20 µPa/V)  [2.83V at 1m]"	"Frequency / Hz"	"Sound Pressure Level / dB (re 20 µPa/V)  [2.83V at 1m]"	"Frequency / Hz"	"Sound Pressure Level / dB (re 20 µPa/V)  [2.83V at 1m]"	"Frequency / Hz"	"Sound Pressure Level / dB (re 20 µPa/V)  [2.83V at 1m]"	"Frequency / Hz"	"Sound Pressure Level / dB (re 20 µPa/V)  [2.83V at 1m]"	"Frequency / Hz"	"Sound Pressure Level / dB (re 20 µPa/V)  [2.83V at 1m]"	"Frequency / Hz"	"Sound Pressure Level / dB (re 20 µPa/V)  [2.83V at 1m]"	"Frequency / Hz"	"Sound Pressure Level / dB (re 20 µPa/V)  [2.83V at 1m]"	"Frequency / Hz"	"Sound Pressure Level / dB (re 20 µPa/V)  [2.83V at 1m]"	"Frequency / Hz"	"Sound Pressure Level / dB (re 20 µPa/V)  [2.83V at 1m]"	"Frequency / Hz"	"Sound Pressure Level / dB (re 20 µPa/V)  [2.83V at 1m]"	"Frequency / Hz"	"Sound Pressure Level / dB (re 20 µPa/V)  [2.83V at 1m]"	"Frequency / Hz"	"Sound Pressure Level / dB (re 20 µPa/V)  [2.83V at 1m]"	"Frequency / Hz"	"Sound Pressure Level / dB (re 20 µPa/V)  [2.83V at 1m]"	"Frequency / Hz"	"Sound Pressure Level / dB (re 20 µPa/V)  [2.83V at 1m]"	"Frequency / Hz"	"Sound Pressure Level / dB (re 20 µPa/V)  [2.83V at 1m]"	"Frequency / Hz"	"Sound Pressure Level / dB (re 20 µPa/V)  [2.83V at 1m]"	"Frequency / Hz"	"Sound Pressure Level / dB (re 20 µPa/V)  [2.83V at 1m]"	"Frequency / Hz"	"Sound Pressure Level / dB (re 20 µPa/V)  [2.83V at 1m]"	"Frequency / Hz"	"Sound Pressure Level / dB (re 20 µPa/V)  [2.83V at 1m]"	"Frequency / Hz"	"Sound Pressure Level / dB (re 20 µPa/V)  [2.83V at 1m]"	"Frequency / Hz"	"Sound Pressure Level / dB (re 20 µPa/V)  [2.83V at 1m]"	"Frequency / Hz"	"Sound Pressure Level / dB (re 20 µPa/V)  [2.83V at 1m]"
20.5078	57.7493	20.5078	57.7327	20.5078	57.7626	20.5078	57.7133	20.5078	57.7715	20.5078	57.692	20.5078	57.7749	20.5078	57.6691	20.5078	57.7718	20.5078	57.645	20.5078	57.7612	20.5078	57.6197	20.5078	57.7422	20.5078	57.5934	20.5078	57.7145	20.5078	57.5663	20.5078	57.6783	20.5078	57.5388	20.5078	57.6348	20.5078	57.5115	20.5078	57.5865	20.5078	57.4853	20.5078	57.5366	20.5078	57.4611	20.5078	57.489	20.5078	57.4397	20.5078	57.4474	20.5078	57.4214	20.5078	57.4147	20.5078	57.4063	20.5078	57.3922	20.5078	57.3939	20.5078	57.3796	20.5078	57.3843	20.5078	57.3755	20.5078	57.3777
21.9727	57.7284	21.9727	57.7093	21.9727	57.7431	21.9727	57.687	21.9727	57.7525	21.9727	57.6622	21.9727	57.7554	21.9727	57.6357	21.9727	57.7509	21.9727	57.608	21.9727	57.7378	21.9727	57.5797	21.9727	57.7156	21.9727	57.5508	21.9727	57.684	21.9727	57.5218	21.9727	57.6434	21.9727	57.493	21.9727	57.5952	21.9727	57.4649	21.9727	57.5419	21.9727	57.4381	21.9727	57.4869	21.9727	57.4131	21.9727	57.4342	21.9727	57.3906	21.9727	57.3879	21.9727	57.3704	21.9727	57.3513	21.9727	57.3526	21.9727	57.3261	21.9727	57.3369	21.9727	57.3126	21.9727	57.3236	21.9727	57.3093	21.9727	57.3137
23.4375	57.7259	23.4375	57.7066	23.4375	57.7352	23.4375	57.6782	23.4375	57.7337	23.4375	57.6415	23.4375	57.7206	23.4375	57.5971	23.4375	57.695	23.4375	57.5457	23.4375	57.6562	23.4375	57.4878	23.4375	57.6041	23.4375	57.4239	23.4375	57.5388	23.4375	57.3547	23.4375	57.4611	23.4375	57.2811	23.4375	57.3731	23.4375	57.2045	23.4375	57.2776	23.4375	57.1268	23.4375	57.1789	23.4375	57.0506	23.4375	57.0819	23.4375	56.9787	23.4375	56.9919	23.4375	56.914	23.4375	56.9138	23.4375	56.8592	23.4375	56.8514	23.4375	56.8167	23.4375	56.8074	23.4375	56.7885	23.4375	56.7826	23.4375	56.7766
24.9023	59.202	24.9023	59.1798	24.9023	59.2157	24.9023	59.1496	24.9023	59.2207	24.9023	59.1119	24.9023	59.2166	24.9023	59.0677	24.9023	59.2034	24.9023	59.0176	24.9023	59.1812	24.9023	58.9628	24.9023	59.1503	24.9023	58.9043	24.9023	59.1112	24.9023	58.8436	24.9023	59.0647	24.9023	58.7825	24.9023	59.0119	24.9023	58.7231	24.9023	58.9545	24.9023	58.6677	24.9023	58.8944	24.9023	58.6189	24.9023	58.8337	24.9023	58.5792	24.9023	58.7747	24.9023	58.5506	24.9023	58.719	24.9023	58.5343	24.9023	58.6684	24.9023	58.5305	24.9023	58.624	24.9023	58.5388	24.9023	58.5869	24.9023	58.558
26.3672	60.0681	26.3672	60.0584	26.3672	60.0675	26.3672	60.0389	26.3672	60.0563	26.3672	60.0103	26.3672	60.0344	26.3672	59.9732	26.3672	60.0018	26.3672	59.9285	26.3672	59.959	26.3672	59.877	26.3672	59.9066	26.3672	59.8198	26.3672	59.8456	26.3672	59.7579	26.3672	59.7776	26.3672	59.6927	26.3672	59.7047	26.3672	59.6258	26.3672	59.6292	26.3672	59.5591	26.3672	59.5542	26.3672	59.4945	26.3672	59.4828	26.3672	59.4343	26.3672	59.4179	26.3672	59.3807	26.3672	59.3625	26.3672	59.3356	26.3672	59.3185	26.3672	59.3008	26.3672	59.2876	26.3672	59.2776	26.3672	59.2705	26.3672	59.2673
27.832	60.6889	27.832	60.6808	27.832	60.6865	27.832	60.6625	27.832	60.6735	27.832	60.6343	27.832	60.6501	27.832	60.597	27.832	60.6165	27.832	60.5514	27.832	60.5731	27.832	60.4985	27.832	60.5207	27.832	60.4397	27.832	60.4602	27.832	60.3763	27.832	60.393	27.832	60.31	27.832	60.3211	27.832	60.2425	27.832	60.2467	27.832	60.1759	27.832	60.1726	27.832	60.1121	27.832	60.102	27.832	60.053	27.832	60.0379	27.832	60.0007	27.832	59.9831	27.832	59.9567	27.832	59.9398	27.832	59.9228	27.832	59.9094	27.832	59.9001	27.832	59.8928	27.832	59.8898
29.2969	61.5341	29.2969	61.5273	29.2969	61.5305	29.2969	61.5101	29.2969	61.5162	29.2969	61.483	29.2969	61.4914	29.2969	61.4465	29.2969	61.4562	29.2969	61.4013	29.2969	61.411	29.2969	61.3484	29.2969	61.3566	29.2969	61.2891	29.2969	61.2938	29.2969	61.2247	29.2969	61.2241	29.2969	61.1571	29.2969	61.1492	29.2969	61.0881	29.2969	61.0716	29.2969	61.0198	29.2969	60.9942	29.2969	60.9542	29.2969	60.9205	29.2969	60.8931	29.2969	60.8537	29.2969	60.8382	29.2969	60.7973	29.2969	60.791	29.2969	60.7536	29.2969	60.7531	29.2969	60.7245	29.2969	60.7261	29.2969	60.7106	29.2969	60.7114
30.7617	62.3509	30.7617	62.3482	30.7617	62.3448	30.7617	62.3369	30.7617	62.33	30.7617	62.3172	30.7617	62.3066	30.7617	62.2895	30.7617	62.275	30.7617	62.2544	30.7617	62.2358	30.7617	62.2128	30.7617	62.1896	30.7617	62.1657	30.7617	62.1375	30.7617	62.1142	30.7617	62.0808	30.7617	62.0599	30.7617	62.021	30.7617	62.0042	30.7617	61.9602	30.7617	61.9489	30.7617	61.9007	30.7617	61.8956	30.7617	61.8448	30.7617	61.8459	30.7617	61.7951	30.7617	61.8011	30.7617	61.7538	30.7617	61.7627	30.7617	61.7225	30.7617	61.7316	30.7617	61.7023	30.7617	61.7091	30.7617	61.6936	30.7617	61.6961
32.2266	62.999	32.2266	63.0034	32.2266	62.9852	32.2266	62.9984	32.2266	62.9621	32.2266	62.9843	32.2266	62.9302	32.2266	62.9615	32.2266	62.8901	32.2266	62.9305	32.2266	62.8426	32.2266	62.8921	32.2266	62.789	32.2266	62.8473	32.2266	62.7306	32.2266	62.7973	32.2266	62.6694	32.2266	62.7434	32.2266	62.6073	32.2266	62.6873	32.2266	62.5467	32.2266	62.6305	32.2266	62.4899	32.2266	62.5749	32.2266	62.4393	32.2266	62.5221	32.2266	62.397	32.2266	62.4735	32.2266	62.3646	32.2266	62.4304	32.2266	62.3432	32.2266	62.3939	32.2266	62.3329	32.2266	62.365	32.2266	62.3336	32.2266	62.3446
33.6914	63.6781	33.6914	63.6804	33.6914	63.6648	33.6914	63.6721	33.6914	63.6407	33.6914	63.6532	33.6914	63.6062	33.6914	63.6244	33.6914	63.5619	33.6914	63.5864	33.6914	63.5086	33.6914	63.5401	33.6914	63.4476	33.6914	63.4866	33.6914	63.3806	33.6914	63.4272	33.6914	63.3094	33.6914	63.3636	33.6914	63.2365	33.6914	63.2974	33.6914	63.1644	33.6914	63.2307	33.6914	63.096	33.6914	63.1653	33.6914	63.0341	33.6914	63.1033	33.6914	62.9812	33.6914	63.0464	33.6914	62.9394	33.6914	62.9963	33.6914	62.9101	33.6914	62.9545	33.6914	62.894	33.6914	62.9223	33.6914	62.8911	33.6914	62.9008
35.1562	64.4222	35.1562	64.4202	35.1562	64.4141	35.1562	64.4083	35.1562	64.3958	35.1562	64.387	35.1562	64.3675	35.1562	64.3569	35.1562	64.3297	35.1562	64.3189	35.1562	64.2832	35.1562	64.2738	35.1562	64.2292	35.1562	64.2228	35.1562	64.1692	35.1562	64.1671	35.1562	64.1048	35.1562	64.108	35.1562	64.0384	35.1562	64.0471	35.1562	63.9723	35.1562	63.9862	35.1562	63.909	35.1562	63.927	35.1562	63.8509	35.1562	63.8715	35.1562	63.8003	35.1562	63.8215	35.1562	63.759	35.1562	63.7785	35.1562	63.7283	35.1562	63.744	35.1562	63.7088	35.1562	63.719	35.1562	63.7009	35.1562	63.7045
36.6211	64.9383	36.6211	64.9249	36.6211	64.9408	36.6211	64.9009	36.6211	64.9323	36.6211	64.8671	36.6211	64.913	36.6211	64.8244	36.6211	64.8835	36.6211	64.774	36.6211	64.8445	36.6211	64.7175	36.6211	64.7971	36.6211	64.6565	36.6211	64.7428	36.6211	64.5928	36.6211	64.6831	36.6211	64.5286	36.6211	64.6199	36.6211	64.4656	36.6211	64.5551	36.6211	64.406	36.6211	64.4909	36.6211	64.3515	36.6211	64.4293	36.6211	64.3038	36.6211	64.3722	36.6211	64.2644	36.6211	64.3215	36.6211	64.2344	36.6211	64.2786	36.6211	64.2146	36.6211	64.2448	36.6211	64.2057	36.6211	64.221	36.6211	64.2078
38.0859	65.8231	38.0859	65.8187	38.0859	65.8164	38.0859	65.8034	38.0859	65.7988	38.0859	65.7777	38.0859	65.7707	38.0859	65.7423	38.0859	65.7329	38.0859	65.6981	38.0859	65.6863	38.0859	65.6464	38.0859	65.6322	38.0859	65.5887	38.0859	65.5721	38.0859	65.5266	38.0859	65.5079	38.0859	65.4621	38.0859	65.4416	38.0859	65.397	38.0859	65.3753	38.0859	65.3333	38.0859	65.311	38.0859	65.2731	38.0859	65.2511	38.0859	65.2181	38.0859	65.1974	38.0859	65.17	38.0859	65.1516	38.0859	65.1303	38.0859	65.1154	38.0859	65.1002	38.0859	65.0896	38.0859	65.0805	38.0859	65.075	38.0859	65.072
39.5508	66.3633	39.5508	66.3579	39.5508	66.3572	39.5508	66.3412	39.5508	66.3398	39.5508	66.3139	39.5508	66.3114	39.5508	66.2767	39.5508	66.2729	39.5508	66.2308	39.5508	66.2252	39.5508	66.1775	39.5508	66.1699	39.5508	66.1184	39.5508	66.1085	39.5508	66.0553	39.5508	66.043	39.5508	65.9902	39.5508	65.9755	39.5508	65.9249	39.5508	65.9081	39.5508	65.8614	39.5508	65.8431	39.5508	65.8015	39.5508	65.7826	39.5508	65.7469	39.5508	65.7286	39.5508	65.6993	39.5508	65.6827	39.5508	65.66	39.5508	65.6463	39.5508	65.6303	39.5508	65.6204	39.5508	65.6109	39.5508	65.6058	39.5508	65.6026
41.0156	66.9592	41.0156	66.953	41.0156	66.9534	41.0156	66.9351	41.0156	66.9356	41.0156	66.906	41.0156	66.9065	41.0156	66.8666	41.0156	66.8667	41.0156	66.8181	41.0156	66.8175	41.0156	66.7621	41.0156	66.7603	41.0156	66.7001	41.0156	66.6969	41.0156	66.6342	41.0156	66.6292	41.0156	66.5664	41.0156	66.5594	41.0156	66.4986	41.0156	66.4899	41.0156	66.4329	41.0156	66.4227	41.0156	66.3712	41.0156	66.3601	41.0156	66.3153	41.0156	66.304	41.0156	66.2668	41.0156	66.2562	41.0156	66.2269	41.0156	66.218	41.0156	66.197	41.0156	66.1906	41.0156	66.178	41.0156	66.1746	41.0156	66.1704
42.4805	67.5861	42.4805	67.5795	42.4805	67.5802	42.4805	67.5606	42.4805	67.5619	42.4805	67.53	42.4805	67.5317	42.4805	67.4887	42.4805	67.4906	42.4805	67.4379	42.4805	67.4397	42.4805	67.3793	42.4805	67.3807	42.4805	67.3146	42.4805	67.3153	42.4805	67.2458	42.4805	67.2457	42.4805	67.1751	42.4805	67.174	42.4805	67.1045	42.4805	67.1024	42.4805	67.0363	42.4805	67.0333	42.4805	66.9724	42.4805	66.9688	42.4805	66.9145	42.4805	66.9107	42.4805	66.8645	42.4805	66.8608	42.4805	66.8238	42.4805	66.8206	42.4805	66.7936	42.4805	66.7913	42.4805	66.7748	42.4805	66.7736	42.4805	66.768
43.9453	68.1774	43.9453	68.1701	43.9453	68.1713	43.9453	68.1498	43.9453	68.1522	43.9453	68.1171	43.9453	68.1205	43.9453	68.073	43.9453	68.0771	43.9453	68.0187	43.9453	68.0234	43.9453	67.956	43.9453	67.961	43.9453	67.8867	43.9453	67.8918	43.9453	67.8131	43.9453	67.818	43.9453	67.7373	43.9453	67.7419	43.9453	67.6617	43.9453	67.6657	43.9453	67.5886	43.9453	67.592	43.9453	67.5202	43.9453	67.5228	43.9453	67.4584	43.9453	67.4603	43.9453	67.4051	43.9453	67.4064	43.9453	67.3619	43.9453	67.3627	43.9453	67.3301	43.9453	67.3305	43.9453	67.3106	43.9453	67.3108	43.9453	67.3041
45.4102	68.6731	45.4102	68.6674	45.4102	68.6657	45.4102	68.6488	45.4102	68.6454	45.4102	68.6179	45.4102	68.6126	45.4102	68.5757	45.4102	68.5683	45.4102	68.5234	45.4102	68.5137	45.4102	68.4626	45.4102	68.4505	45.4102	68.3951	45.4102	68.3806	45.4102	68.3229	45.4102	68.3061	45.4102	68.2482	45.4102	68.2293	45.4102	68.1731	45.4102	68.1526	45.4102	68.0998	45.4102	68.0785	45.4102	68.0304	45.4102	68.0092	45.4102	67.9671	45.4102	67.9469	45.4102	67.9115	45.4102	67.8936	45.4102	67.8655	45.4102	67.8509	45.4102	67.8306	45.4102	67.8203	45.4102	67.808	45.4102	67.8027	45.4102	67.7986
46.875	69.229	46.875	69.2191	46.875	69.2257	46.875	69.1963	46.875	69.2092	46.875	69.1615	46.875	69.18	46.875	69.1157	46.875	69.1389	46.875	69.0606	46.875	69.0871	46.875	68.9977	46.875	69.0263	46.875	68.9291	46.875	68.9583	46.875	68.8568	46.875	68.8853	46.875	68.7831	46.875	68.8096	46.875	68.71	46.875	68.7335	46.875	68.6396	46.875	68.6596	46.875	68.574	46.875	68.5899	46.875	68.5147	46.875	68.5268	46.875	68.4636	46.875	68.4721	46.875	68.4221	46.875	68.4277	46.875	68.3915	46.875	68.3948	46.875	68.3729	46.875	68.3744	46.875	68.3671
48.3398	69.6032	48.3398	69.587	48.3398	69.6075	48.3398	69.5594	48.3398	69.6	48.3398	69.5212	48.3398	69.581	48.3398	69.4736	48.3398	69.5514	48.3398	69.418	48.3398	69.5123	48.3398	69.3563	48.3398	69.4652	48.3398	69.2906	48.3398	69.4117	48.3398	69.2231	48.3398	69.3536	48.3398	69.1561	48.3398	69.2927	48.3398	69.0919	48.3398	69.2308	48.3398	69.0325	48.3398	69.1696	48.3398	68.9799	48.3398	69.1104	48.3398	68.9357	48.3398	69.0547	48.3398	68.9011	48.3398	69.0039	48.3398	68.8772	48.3398	68.959	48.3398	68.8644	48.3398	68.9213	48.3398	68.8629	48.3398	68.8921	48.3398	68.8723
51.2695	70.9084	51.2695	70.9127	51.2695	70.8903	51.2695	70.9031	51.2695	70.8587	51.2695	70.8803	51.2695	70.8147	51.2695	70.8451	51.2695	70.7594	51.2695	70.799	51.2695	70.6949	51.2695	70.7437	51.2695	70.6232	51.2695	70.6811	51.2695	70.5468	51.2695	70.6135	51.2695	70.4685	51.2695	70.5431	51.2695	70.3911	51.2695	70.4721	51.2695	70.3174	51.2695	70.4025	51.2695	70.2499	51.2695	70.3362	51.2695	70.1908	51.2695	70.2746	51.2695	70.1421	51.2695	70.2191	51.2695	70.1049	51.2695	70.1707	51.2695	70.0798	51.2695	70.1304	51.2695	70.0672	51.2695	70.0991	51.2695	70.0666	51.2695	70.0775
52.7344	71.4277	52.7344	71.4311	52.7344	71.4099	52.7344	71.4201	52.7344	71.3779	52.7344	71.3954	52.7344	71.3327	52.7344	71.3579	52.7344	71.2756	52.7344	71.3091	52.7344	71.2084	52.7344	71.2506	52.7344	71.1331	52.7344	71.1845	52.7344	71.0524	52.7344	71.1127	52.7344	70.9689	52.7344	71.0375	52.7344	70.8854	52.7344	70.961	52.7344	70.8047	52.7344	70.8851	52.7344	70.7297	52.7344	70.8118	52.7344	70.6626	52.7344	70.7429	52.7344	70.6059	52.7344	70.68	52.7344	70.5611	52.7344	70.6247	52.7344	70.5296	52.7344	70.5785	52.7344	70.5121	52.7344	70.5429	52.7344	70.5087	52.7344	70.5193
54.1992	71.8682	54.1992	71.8599	54.1992	71.8626	54.1992	71.8384	54.1992	71.8432	54.1992	71.8047	54.1992	71.8102	54.1992	71.7602	54.1992	71.7644	54.1992	71.7065	54.1992	71.7073	54.1992	71.6455	54.1992	71.6406	54.1992	71.5792	54.1992	71.5666	54.1992	71.5096	54.1992	71.4878	54.1992	71.4386	54.1992	71.407	54.1992	71.3682	54.1992	71.3271	54.1992	71.3	54.1992	71.2511	54.1992	71.2354	54.1992	71.1814	54.1992	71.1758	54.1992	71.1206	54.1992	71.1226	54.1992	71.0707	54.1992	71.0771	54.1992	71.033	54.1992	71.0405	54.1992	71.0084	54.1992	71.0143	54.1992	70.9973	54.1992	70.9995
55.6641	72.2733	55.6641	72.2574	55.6641	72.2758	55.6641	72.2284	55.6641	72.2648	55.6641	72.1875	55.6641	72.2406	55.6641	72.136	55.6641	72.2043	55.6641	72.0757	55.6641	72.1571	55.6641	72.009	55.6641	72.1008	55.6641	71.938	55.6641	72.0374	55.6641	71.8653	55.6641	71.9692	55.6641	71.7935	55.6641	71.8985	55.6641	71.7247	55.6641	71.8276	55.6641	71.6612	55.6641	71.7588	55.6641	71.6047	55.6641	71.6941	55.6641	71.5565	55.6641	71.6351	55.6641	71.5178	55.6641	71.5833	55.6641	71.4891	55.6641	71.5399	55.6641	71.471	55.6641	71.5056	55.6641	71.4637	55.6641	71.4812	55.6641	71.4672
58.5938	73.1844	58.5938	73.1726	58.5938	73.182	58.5938	73.1472	58.5938	73.1657	58.5938	73.109	58.5938	73.136	58.5938	73.0594	58.5938	73.0939	58.5938	73.0003	58.5938	73.0411	58.5938	72.9338	58.5938	72.9795	58.5938	72.8623	58.5938	72.9113	58.5938	72.7883	58.5938	72.8389	58.5938	72.7145	58.5938	72.765	58.5938	72.6431	58.5938	72.6919	58.5938	72.5765	58.5938	72.622	58.5938	72.5165	58.5938	72.5574	58.5938	72.4644	58.5938	72.4998	58.5938	72.4215	58.5938	72.4505	58.5938	72.3884	58.5938	72.4105	58.5938	72.3657	58.5938	72.3805	58.5938	72.3534	58.5938	72.3609	58.5938	72.3518
60.0586	73.6167	60.0586	73.6045	60.0586	73.6144	60.0586	73.5785	60.0586	73.598	60.0586	73.5395	60.0586	73.5678	60.0586	73.4892	60.0586	73.5252	60.0586	73.4293	60.0586	73.4716	60.0586	73.3622	60.0586	73.4091	60.0586	73.2903	60.0586	73.3401	60.0586	73.2163	60.0586	73.2671	60.0586	73.1428	60.0586	73.1927	60.0586	73.0722	60.0586	73.1195	60.0586	73.0066	60.0586	73.0499	60.0586	72.9479	60.0586	72.986	60.0586	72.8972	60.0586	72.9294	60.0586	72.8556	60.0586	72.8814	60.0586	72.8235	60.0586	72.8428	60.0586	72.8014	60.0586	72.8142	60.0586	72.7894	60.0586	72.7957	60.0586	72.7874
62.9883	74.406	62.9883	74.3918	62.9883	74.4052	62.9883	74.3633	62.9883	74.3897	62.9883	74.3213	62.9883	74.3601	62.9883	74.2674	62.9883	74.3177	62.9883	74.2038	62.9883	74.2641	62.9883	74.1328	62.9883	74.2016	62.9883	74.0572	62.9883	74.1325	62.9883	73.9799	62.9883	74.0596	62.9883	73.9038	62.9883	73.9855	62.9883	73.8316	62.9883	73.9127	62.9883	73.7657	62.9883	73.8437	62.9883	73.7078	62.9883	73.7802	62.9883	73.6593	62.9883	73.7238	62.9883	73.6211	62.9883	73.6754	62.9883	73.5933	62.9883	73.6357	62.9883	73.5759	62.9883	73.6051	62.9883	73.5687	62.9883	73.5836	62.9883	73.5714
64.4531	74.7841	64.4531	74.771	64.4531	74.7818	64.4531	74.7429	64.4531	74.7644	64.4531	74.7009	64.4531	74.7324	64.4531	74.6465	64.4531	74.6873	64.4531	74.5818	64.4531	74.6308	64.4531	74.5093	64.4531	74.5651	64.4531	74.4316	64.4531	74.4928	64.4531	74.3518	64.4531	74.4165	64.4531	74.2727	64.4531	74.3391	64.4531	74.1973	64.4531	74.2632	64.4531	74.1278	64.4531	74.1913	64.4531	74.0663	64.4531	74.1253	64.4531	74.0142	64.4531	74.0669	64.4531	73.9725	64.4531	74.0171	64.4531	73.9416	64.4531	73.9766	64.4531	73.9216	64.4531	73.9457	64.4531	73.9123	64.4531	73.9245	64.4531	73.9133
67.3828	75.6298	67.3828	75.6181	67.3828	75.6262	67.3828	75.5915	67.3828	75.6073	67.3828	75.5509	67.3828	75.5739	67.3828	75.498	67.3828	75.5275	67.3828	75.4347	67.3828	75.4696	67.3828	75.3636	67.3828	75.4027	67.3828	75.2872	67.3828	75.3293	67.3828	75.2086	67.3828	75.2522	67.3828	75.1307	67.3828	75.1742	67.3828	75.056	67.3828	75.0981	67.3828	74.9869	67.3828	75.0263	67.3828	74.9255	67.3828	74.9609	67.3828	74.8729	67.3828	74.9035	67.3828	74.8302	67.3828	74.8552	67.3828	74.7976	67.3828	74.8166	67.3828	74.7754	67.3828	74.7882	67.3828	74.7634	67.3828	74.7699	67.3828	74.7616
68.8477	76.0076	68.8477	75.9959	68.8477	76.004	68.8477	75.9693	68.8477	75.9852	68.8477	75.9289	68.8477	75.952	68.8477	75.8763	68.8477	75.9057	68.8477	75.8136	68.8477	75.8481	68.8477	75.7432	68.8477	75.7815	68.8477	75.6678	68.8477	75.7086	68.8477	75.5905	68.8477	75.6321	68.8477	75.5139	68.8477	75.5549	68.8477	75.4409	68.8477	75.4798	68.8477	75.3736	68.8477	75.4093	68.8477	75.3138	68.8477	75.3454	68.8477	75.2629	68.8477	75.2896	68.8477	75.2216	68.8477	75.2431	68.8477	75.1902	68.8477	75.2063	68.8477	75.1686	68.8477	75.1793	68.8477	75.1569	68.8477	75.1622	68.8477	75.1547
71.7773	76.6853	71.7773	76.6731	71.7773	76.6821	71.7773	76.6459	71.7773	76.6637	71.7773	76.605	71.7773	76.6306	71.7773	76.5519	71.7773	76.5845	71.7773	76.489	71.7773	76.5271	71.7773	76.4188	71.7773	76.4609	71.7773	76.3442	71.7773	76.3886	71.7773	76.2682	71.7773	76.3131	71.7773	76.1937	71.7773	76.2374	71.7773	76.1234	71.7773	76.1643	71.7773	76.0594	71.7773	76.0963	71.7773	76.0034	71.7773	76.0354	71.7773	75.9563	71.7773	75.9829	71.7773	75.9188	71.7773	75.9397	71.7773	75.8906	71.7773	75.906	71.7773	75.8716	71.7773	75.8817	71.7773	75.8614	71.7773	75.8663	71.7773	75.8596
74.707	77.2845	74.707	77.2728	74.707	77.2804	74.707	77.2456	74.707	77.2607	74.707	77.2044	74.707	77.2261	74.707	77.1507	74.707	77.1782	74.707	77.0869	74.707	77.1189	74.707	77.0158	74.707	77.0509	74.707	76.9403	74.707	76.977	74.707	76.8635	74.707	76.9003	74.707	76.7884	74.707	76.8238	74.707	76.7178	74.707	76.7506	74.707	76.6539	74.707	76.683	74.707	76.5981	74.707	76.6229	74.707	76.5516	74.707	76.5718	74.707	76.5146	74.707	76.5302	74.707	76.4869	74.707	76.4982	74.707	76.4682	74.707	76.4754	74.707	76.4578	74.707	76.4614	74.707	76.4556
77.6367	77.8349	77.6367	77.822	77.6367	77.8316	77.6367	77.7934	77.6367	77.8121	77.6367	77.7505	77.6367	77.7773	77.6367	77.695	77.6367	77.7286	77.6367	77.6295	77.6367	77.6682	77.6367	77.5568	77.6367	77.5986	77.6367	77.4799	77.6367	77.5229	77.6367	77.4021	77.6367	77.4443	77.6367	77.3264	77.6367	77.3661	77.6367	77.2555	77.6367	77.2912	77.6367	77.1916	77.6367	77.2223	77.6367	77.1362	77.6367	77.1614	77.6367	77.0901	77.6367	77.1098	77.6367	77.0535	77.6367	77.0681	77.6367	77.0262	77.6367	77.0362	77.6367	77.0077	77.6367	77.0138	77.6367	76.9973	77.6367	77.0002	77.6367	76.9949
79.1016	78.111	79.1016	78.097	79.1016	78.1088	79.1016	78.0673	79.1016	78.0903	79.1016	78.0231	79.1016	78.0565	79.1016	77.9666	79.1016	78.0087	79.1016	77.9002	79.1016	77.9491	79.1016	77.8267	79.1016	77.8803	79.1016	77.7494	79.1016	77.8054	79.1016	77.6714	79.1016	77.7274	79.1016	77.5959	79.1016	77.6498	79.1016	77.5256	79.1016	77.5753	79.1016	77.4626	79.1016	77.5068	79.1016	77.4084	79.1016	77.446	79.1016	77.3637	79.1016	77.3944	79.1016	77.3287	79.1016	77.3524	79.1016	77.303	79.1016	77.3201	79.1016	77.286	79.1016	77.297	79.1016	77.2771	79.1016	77.2824	79.1016	77.2759
82.0312	78.5817	82.0312	78.5676	82.0312	78.5794	82.0312	78.5375	82.0312	78.5607	82.0312	78.4928	82.0312	78.5265	82.0312	78.4355	82.0312	78.4785	82.0312	78.3682	82.0312	78.4188	82.0312	78.2939	82.0312	78.3503	82.0312	78.2159	82.0312	78.2758	82.0312	78.1376	82.0312	78.1988	82.0312	78.062	82.0312	78.1223	82.0312	77.9919	82.0312	78.0494	82.0312	77.9296	82.0312	77.9824	82.0312	77.8763	82.0312	77.9231	82.0312	77.8328	82.0312	77.8726	82.0312	77.7992	82.0312	77.8313	82.0312	77.775	82.0312	77.7992	82.0312	77.7596	82.0312	77.7757	82.0312	77.7522	82.0312	77.7603	82.0312	77.7525
84.9609	78.9579	84.9609	78.9453	84.9609	78.9542	84.9609	78.9169	84.9609	78.9344	84.9609	78.8742	84.9609	78.8994	84.9609	78.8194	84.9609	78.8512	84.9609	78.7551	84.9609	78.792	84.9609	78.6845	84.9609	78.725	84.9609	78.6112	84.9609	78.6535	84.9609	78.5386	84.9609	78.5808	84.9609	78.4697	84.9609	78.5103	84.9609	78.4072	84.9609	78.4447	84.9609	78.353	84.9609	78.3864	84.9609	78.3081	84.9609	78.3366	84.9609	78.2726	84.9609	78.296	84.9609	78.2461	84.9609	78.2643	84.9609	78.2276	84.9609	78.2408	84.9609	78.216	84.9609	78.2246	84.9609	78.2103	84.9609	78.2145	84.9609	78.2098
87.8906	79.314	87.8906	79.3017	87.8906	79.3091	87.8906	79.2727	87.8906	79.2872	87.8906	79.2287	87.8906	79.2495	87.8906	79.1721	87.8906	79.1981	87.8906	79.1061	87.8906	79.1358	87.8906	79.0344	87.8906	79.0662	87.8906	78.9607	87.8906	78.9931	87.8906	78.8892	87.8906	78.9205	87.8906	78.8232	87.8906	78.8522	87.8906	78.7656	87.8906	78.7913	87.8906	78.7182	87.8906	78.7401	87.8906	78.6817	87.8906	78.6996	87.8906	78.6557	87.8906	78.6697	87.8906	78.6387	87.8906	78.6493	87.8906	78.629	87.8906	78.6365	87.8906	78.6243	87.8906	78.629	87.8906	78.6227	87.8906	78.6251	87.8906	78.6232
90.8203	79.7047	90.8203	79.69	90.8203	79.7002	90.8203	79.657	90.8203	79.677	90.8203	79.6074	90.8203	79.6362	90.8203	79.5437	90.8203	79.58	90.8203	79.4693	90.8203	79.5113	90.8203	79.3882	90.8203	79.4338	90.8203	79.3047	90.8203	79.3517	90.8203	79.223	90.8203	79.2693	90.8203	79.1473	90.8203	79.1908	90.8203	79.0807	90.8203	79.1197	90.8203	79.0254	90.8203	79.0589	90.8203	78.9824	90.8203	79.0097	90.8203	78.9513	90.8203	78.9725	90.8203	78.9307	90.8203	78.9462	90.8203	78.9185	90.8203	78.9291	90.8203	78.9123	90.8203	78.9188	90.8203	78.9101	90.8203	78.9131	90.8203	78.9104
95.2148	80.1079	95.2148	80.0939	95.2148	80.1022	95.2148	80.0607	95.2148	80.077	95.2148	80.01	95.2148	80.0336	95.2148	79.9445	95.2148	79.9742	95.2148	79.8674	95.2148	79.9018	95.2148	79.7827	95.2148	79.8202	95.2148	79.6948	95.2148	79.7336	95.2148	79.6081	95.2148	79.6466	95.2148	79.5267	95.2148	79.5634	95.2148	79.4542	95.2148	79.4877	95.2148	79.393	95.2148	79.4223	95.2148	79.3443	95.2148	79.3689	95.2148	79.3081	95.2148	79.3278	95.2148	79.2831	95.2148	79.2982	95.2148	79.2674	95.2148	79.2781	95.2148	79.2588	95.2148	79.2656	95.2148	79.2552	95.2148	79.2585	95.2148	79.2552
98.1445	80.3429	98.1445	80.3284	98.1445	80.3369	98.1445	80.2942	98.1445	80.3106	98.1445	80.242	98.1445	80.2654	98.1445	80.1747	98.1445	80.2035	98.1445	80.0957	98.1445	80.128	98.1445	80.0093	98.1445	80.043	98.1445	79.92	98.1445	79.9529	98.1445	79.8324	98.1445	79.8625	98.1445	79.7507	98.1445	79.7764	98.1445	79.6785	98.1445	79.6987	98.1445	79.618	98.1445	79.6322	98.1445	79.5703	98.1445	79.5788	98.1445	79.535	98.1445	79.5387	98.1445	79.5107	98.1445	79.5108	98.1445	79.4951	98.1445	79.4933	98.1445	79.4858	98.1445	79.4837	98.1445	79.4808	98.1445	79.4794	98.1445	79.4787
101.074	80.522	101.074	80.5049	101.074	80.5174	101.074	80.4671	101.074	80.4915	101.074	80.4103	101.074	80.4457	101.074	80.3373	101.074	80.3822	101.074	80.2518	101.074	80.3045	101.074	80.1582	101.074	80.2164	101.074	80.0614	101.074	80.1228	101.074	79.9664	101.074	80.0285	101.074	79.8778	101.074	79.9382	101.074	79.7995	101.074	79.856	101.074	79.7342	101.074	79.7851	101.074	79.6832	101.074	79.7272	101.074	79.6463	101.074	79.6827	101.074	79.622	101.074	79.6505	101.074	79.6078	101.074	79.6287	101.074	79.6011	101.074	79.6147	101.074	79.5995	101.074	79.6061	101.074	79.6013
105.469	80.7178	105.469	80.7022	105.469	80.7109	105.469	80.6648	105.469	80.6817	105.469	80.6074	105.469	80.6316	105.469	80.5329	105.469	80.5629	105.469	80.4447	105.469	80.4789	105.469	80.3473	105.469	80.3837	105.469	80.2453	105.469	80.282	105.469	80.1437	105.469	80.1788	105.469	80.0472	105.469	80.0792	105.469	79.9596	105.469	79.9874	105.469	79.884	105.469	79.9071	105.469	79.822	105.469	79.8403	105.469	79.774	105.469	79.7878	105.469	79.7389	105.469	79.7489	105.469	79.7151	105.469	79.7219	105.469	79.7004	105.469	79.7045	105.469	79.6929	105.469	79.6948	105.469	79.6911
108.398	80.7231	108.398	80.7105	108.398	80.715	108.398	80.6778	108.398	80.6864	108.398	80.6269	108.398	80.639	108.398	80.5605	108.398	80.5751	108.398	80.4822	108.398	80.4981	108.398	80.3963	108.398	80.4121	108.398	80.3075	108.398	80.3218	108.398	80.2205	108.398	80.232	108.398	80.1395	108.398	80.1473	108.398	80.0679	108.398	80.0714	108.398	80.008	108.398	80.0073	108.398	79.9606	108.398	79.9564	108.398	79.9254	108.398	79.9187	108.398	79.9009	108.398	79.8931	108.398	79.8848	108.398	79.8774	108.398	79.8749	108.398	79.8692	108.398	79.8692	108.398	79.8661	108.398	79.8663
112.793	80.7732	112.793	80.7602	112.793	80.7636	112.793	80.7257	112.793	80.7322	112.793	80.6715	112.793	80.6806	112.793	80.6009	112.793	80.6119	112.793	80.5182	112.793	80.53	112.793	80.4285	112.793	80.4401	112.793	80.3375	112.793	80.3474	112.793	80.2506	112.793	80.2575	112.793	80.1728	112.793	80.1757	112.793	80.1079	112.793	80.1061	112.793	80.058	112.793	80.0516	112.793	80.0235	112.793	80.0129	112.793	80.0027	112.793	79.9894	112.793	79.9928	112.793	79.9785	112.793	79.9898	112.793	79.9767	112.793	79.99	112.793	79.98	112.793	79.9903	112.793	79.9849	112.793	79.9888
117.188	80.8151	117.188	80.8004	117.188	80.8052	117.188	80.762	117.188	80.7711	117.188	80.7021	117.188	80.7146	117.188	80.6243	117.188	80.6389	117.188	80.5331	117.188	80.5485	117.188	80.4342	117.188	80.4488	117.188	80.3334	117.188	80.3458	117.188	80.2369	117.188	80.246	117.188	80.1501	117.188	80.155	117.188	80.0774	117.188	80.0778	117.188	80.0213	117.188	80.0173	117.188	79.9824	117.188	79.9747	117.188	79.9591	117.188	79.9488	117.188	79.9483	117.188	79.9368	117.188	79.9456	117.188	79.9348	117.188	79.9466	117.188	79.9382	117.188	79.9478	117.188	79.9432	117.188	79.9469
120.117	80.9371	120.117	80.9162	120.117	80.9317	120.117	80.8703	120.117	80.9001	120.117	80.8019	120.117	80.8441	120.117	80.7151	120.117	80.7667	120.117	80.6148	120.117	80.6723	120.117	80.5072	120.117	80.5666	120.117	80.3986	120.117	80.456	120.117	80.2953	120.117	80.3474	120.117	80.2031	120.117	80.2473	120.117	80.1263	120.117	80.1613	120.117	80.0675	120.117	80.0931	120.117	80.0269	120.117	80.044	120.117	80.0029	120.117	80.013	120.117	79.9921	120.117	79.9972	120.117	79.9902	120.117	79.9922	120.117	79.9927	120.117	79.9931	120.117	79.9958	120.117	79.9957	120.117	79.997
124.512	81.0136	124.512	80.9921	124.512	81.0085	124.512	80.945	124.512	80.9773	124.512	80.8748	124.512	80.9219	124.512	80.7854	124.512	80.8456	124.512	80.6821	124.512	80.7528	124.512	80.5711	124.512	80.6493	124.512	80.4596	124.512	80.5413	124.512	80.3547	124.512	80.4357	124.512	80.2626	124.512	80.3389	124.512	80.1882	124.512	80.2563	124.512	80.1342	124.512	80.1917	124.512	80.1006	124.512	80.1464	124.512	80.0852	124.512	80.1195	124.512	80.0835	124.512	80.1077	124.512	80.0904	124.512	80.1062	124.512	80.1004	124.512	80.1097	124.512	80.1091	124.512	80.1133	124.512	80.1136
128.906	81.0243	128.906	81.0034	128.906	81.0166	128.906	80.9547	128.906	80.981	128.906	80.8807	128.906	80.9197	128.906	80.7851	128.906	80.8361	128.906	80.6734	128.906	80.7353	128.906	80.5524	128.906	80.6234	128.906	80.4295	128.906	80.5075	128.906	80.313	128.906	80.3948	128.906	80.2104	128.906	80.2924	128.906	80.1276	128.906	80.2064	128.906	80.0683	128.906	80.1404	128.906	80.033	128.906	80.0958	128.906	80.0191	128.906	80.071	128.906	80.0217	128.906	80.0622	128.906	80.0343	128.906	80.0636	128.906	80.0503	128.906	80.0691	128.906	80.064	128.906	80.0732	128.906	80.072
133.301	80.9883	133.301	80.9696	133.301	80.9781	133.301	80.9228	133.301	80.9395	133.301	80.8499	133.301	80.8746	133.301	80.7547	133.301	80.7868	133.301	80.6422	133.301	80.6808	133.301	80.5185	133.301	80.5625	133.301	80.3909	133.301	80.4386	133.301	80.267	133.301	80.3166	133.301	80.1543	133.301	80.2035	133.301	80.0591	133.301	80.1058	133.301	79.9856	133.301	80.0277	133.301	79.9352	133.301	79.9714	133.301	79.9066	133.301	79.9359	133.301	79.8957	133.301	79.918	133.301	79.8968	133.301	79.9125	133.301	79.9037	133.301	79.9136	133.301	79.9112	133.301	79.9159	133.301	79.9156
139.16	80.833	139.16	80.8152	139.16	80.8214	139.16	80.7688	139.16	80.7812	139.16	80.6962	139.16	80.7149	139.16	80.6012	139.16	80.6264	139.16	80.4894	139.16	80.521	139.16	80.3676	139.16	80.4052	139.16	80.2433	139.16	80.2864	139.16	80.1246	139.16	80.172	139.16	80.0192	139.16	80.0691	139.16	79.9333	139.16	79.9835	139.16	79.8707	139.16	79.9188	139.16	79.8324	139.16	79.8759	139.16	79.816	139.16	79.8532	139.16	79.8167	139.16	79.8464	139.16	79.8279	139.16	79.8498	139.16	79.8428	139.16	79.857	139.16	79.8557	139.16	79.8626	139.16	79.8627
143.555	80.786	143.555	80.7714	143.555	80.769	143.555	80.7262	143.555	80.7212	143.555	80.6528	143.555	80.6455	143.555	80.5557	143.555	80.5462	143.555	80.4408	143.555	80.4296	143.555	80.3151	143.555	80.3031	143.555	80.1868	143.555	80.1754	143.555	80.0642	143.555	80.055	143.555	79.9554	143.555	79.95	143.555	79.8668	143.555	79.8662	143.555	79.8025	143.555	79.8073	143.555	79.7636	143.555	79.7731	143.555	79.7478	143.555	79.7607	143.555	79.7501	143.555	79.7643	143.555	79.7636	143.555	79.7768	143.555	79.7809	143.555	79.791	143.555	79.7955	143.555	79.801	143.555	79.8028
147.949	80.831	147.949	80.8188	147.949	80.809	147.949	80.7736	147.949	80.7534	147.949	80.6985	147.949	80.6669	147.949	80.598	147.949	80.5538	147.949	80.4787	147.949	80.4207	147.949	80.3485	147.949	80.2759	147.949	80.2163	147.949	80.1293	147.949	80.0913	147.949	79.9915	147.949	79.9823	147.949	79.8729	147.949	79.896	147.949	79.7818	147.949	79.8364	147.949	79.7231	147.949	79.8038	147.949	79.6974	147.949	79.7947	147.949	79.7005	147.949	79.8028	147.949	79.7247	147.949	79.8196	147.949	79.7602	147.949	79.8367	147.949	79.7969	147.949	79.8463	147.949	79.8264	147.949	79.8436
153.809	80.8081	153.809	80.7806	153.809	80.8012	153.809	80.7201	153.809	80.7602	153.809	80.6296	153.809	80.6866	153.809	80.514	153.809	80.5841	153.809	80.3793	153.809	80.4577	153.809	80.2335	153.809	80.3141	153.809	80.0856	153.809	80.1619	153.809	79.9451	153.809	80.0104	153.809	79.8214	153.809	79.8699	153.809	79.7221	153.809	79.7498	153.809	79.6519	153.809	79.6577	153.809	79.6117	153.809	79.5978	153.809	79.5981	153.809	79.5695	153.809	79.604	153.809	79.5681	153.809	79.6202	153.809	79.5848	153.809	79.6375	153.809	79.6095	153.809	79.6477	153.809	79.6324	153.809	79.6463
159.668	80.6323	159.668	80.6095	159.668	80.6213	159.668	80.5542	159.668	80.5768	159.668	80.4696	159.668	80.5014	159.668	80.3607	159.668	80.3993	159.668	80.234	159.668	80.2764	159.668	80.097	159.668	80.1402	159.668	79.9584	159.668	79.999	159.668	79.8264	159.668	79.8617	159.668	79.709	159.668	79.7365	159.668	79.6121	159.668	79.6305	159.668	79.5395	159.668	79.5484	159.668	79.4919	159.668	79.4921	159.668	79.4668	159.668	79.4603	159.668	79.4592	159.668	79.4488	159.668	79.4627	159.668	79.4514	159.668	79.4704	159.668	79.4611	159.668	79.4765	159.668	79.4712	159.668	79.477
165.527	80.3656	165.527	80.336	165.527	80.3526	165.527	80.2655	165.527	80.2981	165.527	80.1581	165.527	80.2058	165.527	80.0208	165.527	80.0818	165.527	79.8628	165.527	79.9348	165.527	79.6958	165.527	79.7754	165.527	79.5327	165.527	79.616	165.527	79.3867	165.527	79.4688	165.527	79.2686	165.527	79.3446	165.527	79.1857	165.527	79.251	165.527	79.1399	165.527	79.1909	165.527	79.1274	165.527	79.1626	165.527	79.1402	165.527	79.1602	165.527	79.168	165.527	79.1755	165.527	79.2003	165.527	79.1996	165.527	79.2283	165.527	79.2244	165.527	79.2463	165.527	79.2432	165.527	79.2513
171.387	80.4915	171.387	80.471	171.387	80.4718	171.387	80.4117	171.387	80.4121	171.387	80.3167	171.387	80.3144	171.387	80.1909	171.387	80.1825	171.387	80.0412	171.387	80.0223	171.387	79.8765	171.387	79.842	171.387	79.7076	171.387	79.652	171.387	79.5464	171.387	79.4652	171.387	79.4049	171.387	79.2957	171.387	79.2933	171.387	79.1572	171.387	79.2178	171.387	79.0602	171.387	79.1793	171.387	79.0098	171.387	79.1726	171.387	79.0041	171.387	79.1878	171.387	79.0338	171.387	79.2122	171.387	79.0852	171.387	79.2332	171.387	79.1431	171.387	79.2404	171.387	79.1937	171.387	79.2277
177.246	80.3022	177.246	80.2648	177.246	80.2977	177.246	80.187	177.246	80.2519	177.246	80.0726	177.246	80.1678	177.246	79.9276	177.246	80.0505	177.246	79.7603	177.246	79.9077	177.246	79.5813	177.246	79.7486	177.246	79.4026	177.246	79.5846	177.246	79.2377	177.246	79.4272	177.246	79.099	177.246	79.2878	177.246	78.9967	177.246	79.1758	177.246	78.9364	177.246	79.0969	177.246	78.9178	177.246	79.0527	177.246	78.9342	177.246	79.0398	177.246	78.9744	177.246	79.0507	177.246	79.0249	177.246	79.0753	177.246	79.0728	177.246	79.1022	177.246	79.1079	177.246	79.1211	177.246	79.1243
183.105	80.3647	183.105	80.3288	183.105	80.3559	183.105	80.2499	183.105	80.3031	183.105	80.132	183.105	80.209	183.105	79.9813	183.105	80.0786	183.105	79.8066	183.105	79.9194	183.105	79.619	183.105	79.7413	183.105	79.4315	183.105	79.5567	183.105	79.2578	183.105	79.3792	183.105	79.111	183.105	79.2229	183.105	79.0013	183.105	79.0995	183.105	78.934	183.105	79.0167	183.105	78.9088	183.105	78.9758	183.105	78.9191	183.105	78.9716	183.105	78.9541	183.105	78.9937	183.105	79.0006	183.105	79.0289	183.105	79.0458	183.105	79.0641	183.105	79.0792	183.105	79.0882	183.105	79.0941
188.965	80.4167	188.965	80.3836	188.965	80.4032	188.965	80.3049	188.965	80.344	188.965	80.1842	188.965	80.2423	188.965	80.0275	188.965	80.1036	188.965	79.8435	188.965	79.9356	188.965	79.6436	188.965	79.7483	188.965	79.4419	188.965	79.554	188.965	79.2534	188.965	79.3666	188.965	79.0933	188.965	79.2002	188.965	78.9734	188.965	79.0673	188.965	78.9004	188.965	78.9765	188.965	78.8739	188.965	78.93	188.965	78.8864	188.965	78.9236	188.965	78.9252	188.965	78.9468	188.965	78.9753	188.965	78.986	188.965	79.0224	188.965	79.0266	188.965	79.0554	188.965	79.0566	188.965	79.0673
196.289	80.2009	196.289	80.1666	196.289	80.1862	196.289	80.0848	196.289	80.1236	196.289	79.9595	196.289	80.0171	196.289	79.7981	196.289	79.8729	196.289	79.6109	196.289	79.7003	196.289	79.4113	196.289	79.5113	196.289	79.2154	196.289	79.32	196.289	79.0404	196.289	79.142	196.289	78.9025	196.289	78.9929	196.289	78.8136	196.289	78.8854	196.289	78.7786	196.289	78.8271	196.289	78.7937	196.289	78.8185	196.289	78.8475	196.289	78.8523	196.289	78.9236	196.289	78.9149	196.289	79.004	196.289	78.9893	196.289	79.0725	196.289	79.0586	196.289	79.1167	196.289	79.1085	196.289	79.1292
203.613	80.2939	203.613	80.2564	203.613	80.2757	203.613	80.1638	203.613	80.2032	203.613	80.0194	203.613	80.0805	203.613	79.8293	203.613	79.9139	203.613	79.6028	203.613	79.7128	203.613	79.3531	203.613	79.4894	203.613	79.0977	203.613	79.2591	203.613	78.8571	203.613	79.0396	203.613	78.6533	203.613	78.8492	203.613	78.5057	203.613	78.704	203.613	78.4266	203.613	78.6144	203.613	78.4169	203.613	78.5825	203.613	78.4659	203.613	78.6013	203.613	78.5534	203.613	78.6556	203.613	78.655	203.613	78.7257	203.613	78.7481	203.613	78.7914	203.613	78.8147	203.613	78.835	203.613	78.8445
210.938	80.2546	210.938	80.2387	210.938	80.2157	210.938	80.1686	210.938	80.123	210.938	80.047	210.938	79.9796	210.938	79.8786	210.938	79.7909	210.938	79.6706	210.938	79.5653	210.938	79.4336	210.938	79.3144	210.938	79.1813	210.938	79.0534	210.938	78.9311	210.938	78.8009	210.938	78.7022	210.938	78.5768	210.938	78.5133	210.938	78.3993	210.938	78.3791	210.938	78.2814	210.938	78.3058	210.938	78.2268	210.938	78.2894	210.938	78.229	210.938	78.3164	210.938	78.2726	210.938	78.3673	210.938	78.3373	210.938	78.4211	210.938	78.4025	210.938	78.4597	210.938	78.4508	210.938	78.4711
218.262	80.2476	218.262	80.2142	218.262	80.2265	218.262	80.128	218.262	80.1515	218.262	79.993	218.262	80.0254	218.262	79.8152	218.262	79.8535	218.262	79.6034	218.262	79.6443	218.262	79.3689	218.262	79.4094	218.262	79.1258	218.262	79.1637	218.262	78.8909	218.262	78.9251	218.262	78.6822	218.262	78.7126	218.262	78.5164	218.262	78.5438	218.262	78.4054	218.262	78.4307	218.262	78.3532	218.262	78.3767	218.262	78.3538	218.262	78.3751	218.262	78.3933	218.262	78.4115	218.262	78.4525	218.262	78.4668	218.262	78.5121	218.262	78.5218	218.262	78.5559	218.262	78.5607	218.262	78.5732
225.586	80.1232	225.586	80.0887	225.586	80.1007	225.586	79.9995	225.586	80.0212	225.586	79.8609	225.586	79.8877	225.586	79.6814	225.586	79.706	225.586	79.4724	225.586	79.4853	225.586	79.248	225.586	79.238	225.586	79.0251	225.586	78.9809	225.586	78.8215	225.586	78.7345	225.586	78.654	225.586	78.5212	225.586	78.5355	225.586	78.3623	225.586	78.4724	225.586	78.2725	225.586	78.4627	225.586	78.2554	225.586	78.4963	225.586	78.3017	225.586	78.5572	225.586	78.3913	225.586	78.6264	225.586	78.499	225.586	78.6858	225.586	78.6008	225.586	78.7199	225.586	78.6777	225.586	78.7186
232.91	80.1784	232.91	80.1358	232.91	80.1558	232.91	80.0292	232.91	80.0692	232.91	79.8625	232.91	79.9223	232.91	79.6423	232.91	79.7222	232.91	79.3792	232.91	79.479	232.91	79.0882	232.91	79.2074	232.91	78.7893	232.91	78.926	232.91	78.5077	232.91	78.6572	232.91	78.2705	232.91	78.4247	232.91	78.1023	232.91	78.2502	232.91	78.0182	232.91	78.148	232.91	78.0186	232.91	78.1213	232.91	78.0884	232.91	78.1603	232.91	78.201	232.91	78.2447	232.91	78.3262	232.91	78.3483	232.91	78.4362	232.91	78.4449	232.91	78.5103	232.91	78.5127	232.91	78.5366
241.699	80.0195	241.699	79.986	241.699	79.9847	241.699	79.887	241.699	79.8805	241.699	79.7273	241.699	79.7085	241.699	79.5136	241.699	79.4731	241.699	79.2554	241.699	79.1827	241.699	78.9658	241.699	78.8512	241.699	78.6625	241.699	78.4981	241.699	78.3687	241.699	78.1498	241.699	78.1109	241.699	77.8379	241.699	77.915	241.699	77.5949	241.699	77.7991	241.699	77.4472	241.699	77.767	241.699	77.4058	241.699	77.8063	241.699	77.4618	241.699	77.8909	241.699	77.588	241.699	77.9893	241.699	77.7476	241.699	78.0711	241.699	77.9038	241.699	78.1126	241.699	78.0273	241.699	78.0993
250.488	80.2236	250.488	80.1602	250.488	80.2166	250.488	80.0284	250.488	80.139	250.488	79.8318	250.488	79.9923	250.488	79.5765	250.488	79.7799	250.488	79.2712	250.488	79.5083	250.488	78.9288	250.488	79.1877	250.488	78.5674	250.488	78.8337	250.488	78.2114	250.488	78.468	250.488	77.8909	250.488	78.1186	250.488	77.637	250.488	77.8167	250.488	77.474	250.488	77.5911	250.488	77.4096	250.488	77.4601	250.488	77.4316	250.488	77.4243	250.488	77.5113	250.488	77.4659	250.488	77.6136	250.488	77.554	250.488	77.7058	250.488	77.6535	250.488	77.7637	250.488	77.7338	250.488	77.7737
259.277	80.4628	259.277	80.4062	259.277	80.455	259.277	80.2863	259.277	80.3833	259.277	80.1062	259.277	80.2495	259.277	79.8707	259.277	80.0567	259.277	79.5874	259.277	79.8093	259.277	79.2665	259.277	79.5141	259.277	78.9222	259.277	79.1811	259.277	78.5731	259.277	78.8251	259.277	78.2427	259.277	78.4666	259.277	77.9573	259.277	78.1317	259.277	77.7408	259.277	77.8485	259.277	77.6073	259.277	77.6413	259.277	77.5551	259.277	77.5224	259.277	77.5658	259.277	77.4871	259.277	77.6103	259.277	77.5147	259.277	77.6583	259.277	77.5752	259.277	77.6855	259.277	77.6378	259.277	77.6788
268.066	80.3207	268.066	80.2805	268.066	80.2954	268.066	80.1758	268.066	80.2059	268.066	80.011	268.066	80.0565	268.066	79.7932	268.066	79.8545	268.066	79.533	268.066	79.61	268.066	79.2446	268.066	79.3365	268.066	78.9463	268.066	79.0509	268.066	78.66	268.066	78.7737	268.066	78.4098	268.066	78.5272	268.066	78.2183	268.066	78.3329	268.066	78.1016	268.066	78.2068	268.066	78.0638	268.066	78.154	268.066	78.0951	268.066	78.1668	268.066	78.1736	268.066	78.2262	268.066	78.2719	268.066	78.3071	268.066	78.3638	268.066	78.3845	268.066	78.4287	268.066	78.4381	268.066	78.4546
276.855	80.1883	276.855	80.1196	276.855	80.1768	276.855	79.9719	276.855	80.0854	276.855	79.7483	276.855	79.9162	276.855	79.4539	276.855	79.6736	276.855	79.098	276.855	79.3653	276.855	78.6951	276.855	79.0045	276.855	78.2674	276.855	78.6114	276.855	77.8462	276.855	78.2155	276.855	77.4707	276.855	77.8546	276.855	77.183	276.855	77.5695	276.855	77.0173	276.855	77.393	276.855	76.987	276.855	77.3376	276.855	77.0778	276.855	77.3894	276.855	77.2517	276.855	77.5121	276.855	77.4591	276.855	77.6597	276.855	77.6531	276.855	77.7888	276.855	77.7977	276.855	77.866	276.855	77.8711
287.109	80.389	287.109	80.3582	287.109	80.3501	287.109	80.256	287.109	80.2455	287.109	80.0825	287.109	80.0807	287.109	79.8395	287.109	79.863	287.109	79.5311	287.109	79.5999	287.109	79.1652	287.109	79.2987	287.109	78.7564	287.109	78.9663	287.109	78.3291	287.109	78.6115	287.109	77.9194	287.109	78.2479	287.109	77.5714	287.109	77.8985	287.109	77.3261	287.109	77.5956	287.109	77.2061	287.109	77.3751	287.109	77.2046	287.109	77.2623	287.109	77.288	287.109	77.2576	287.109	77.4088	287.109	77.3332	287.109	77.5213	287.109	77.444	287.109	77.5908	287.109	77.544	287.109	77.5986
297.363	80.4735	297.363	80.4365	297.363	80.4342	297.363	80.3266	297.363	80.3178	297.363	80.1493	297.363	80.126	297.363	79.9115	297.363	79.8639	297.363	79.6214	297.363	79.5407	297.363	79.2885	297.363	79.1708	297.363	78.9246	297.363	78.7743	297.363	78.5461	297.363	78.3777	297.363	78.1753	297.363	78.0121	297.363	77.841	297.363	77.7088	297.363	77.573	297.363	77.4919	297.363	77.3941	297.363	77.3705	297.363	77.3104	297.363	77.3353	297.363	77.3084	297.363	77.3622	297.363	77.3596	297.363	77.4202	297.363	77.4306	297.363	77.48	297.363	77.492	297.363	77.5191	297.363	77.5241
307.617	80.2401	307.617	80.2132	307.617	80.1968	307.617	80.1168	307.617	80.0855	307.617	79.9536	307.617	79.9111	307.617	79.7283	307.617	79.6816	307.617	79.4475	307.617	79.4077	307.617	79.1198	307.617	79.1024	307.617	78.7572	307.617	78.7813	307.617	78.3775	307.617	78.4621	307.617	78.0074	307.617	78.1652	307.617	77.6831	307.617	77.9136	307.617	77.4455	307.617	77.7305	307.617	77.3271	307.617	77.6337	307.617	77.3357	307.617	77.6271	307.617	77.4475	307.617	77.695	307.617	77.6155	307.617	77.8043	307.617	77.7878	307.617	77.9131	307.617	77.9212	307.617	77.9835	307.617	77.9893
319.336	79.7867	319.336	79.7371	319.336	79.7458	319.336	79.6058	319.336	79.6106	319.336	79.4064	319.336	79.3832	319.336	79.155	319.336	79.0718	319.336	78.868	319.336	78.6912	319.336	78.5595	319.336	78.2635	319.336	78.2397	319.336	77.8171	319.336	77.9145	319.336	77.3853	319.336	77.5886	319.336	77.0024	319.336	77.2697	319.336	76.699	319.336	76.9742	319.336	76.4963	319.336	76.7286	319.336	76.4018	319.336	76.5637	319.336	76.4058	319.336	76.499	319.336	76.4821	319.336	76.5271	319.336	76.5928	319.336	76.6124	319.336	76.6969	319.336	76.7054	319.336	76.7601	319.336	76.7626
329.59	80.2936	329.59	80.1918	329.59	80.2728	329.59	79.9692	329.59	80.1331	329.59	79.6339	329.59	79.8823	329.59	79.2043	329.59	79.5321	329.59	78.7107	329.59	79.0992	329.59	78.1977	329.59	78.6056	329.59	77.7199	329.59	78.0798	329.59	77.3313	329.59	77.5558	329.59	77.0673	329.59	77.0711	329.59	76.9311	329.59	76.6618	329.59	76.8934	329.59	76.3564	329.59	76.9083	329.59	76.1706	329.59	76.9321	329.59	76.1031	329.59	76.9363	329.59	76.1358	329.59	76.9092	329.59	76.2382	329.59	76.8507	329.59	76.3763	329.59	76.7644	329.59	76.521	329.59	76.6533
341.309	80.6179	341.309	80.5222	341.309	80.6131	341.309	80.3272	341.309	80.5089	341.309	80.0368	341.309	80.3082	341.309	79.6589	341.309	80.0164	341.309	79.207	341.309	79.6421	341.309	78.7021	341.309	79.1987	341.309	78.174	341.309	78.7072	341.309	77.6605	341.309	78.1981	341.309	77.2049	341.309	77.7115	341.309	76.8493	341.309	77.2922	341.309	76.6245	341.309	76.9779	341.309	76.5395	341.309	76.787	341.309	76.5747	341.309	76.7133	341.309	76.6872	341.309	76.7307	341.309	76.8252	341.309	76.8042	341.309	76.9437	341.309	76.8979	341.309	77.0136	341.309	76.9798	341.309	77.024
353.027	80.5195	353.027	80.4375	353.027	80.4948	353.027	80.2481	353.027	80.3677	353.027	79.954	353.027	80.146	353.027	79.5623	353.027	79.8419	353.027	79.0863	353.027	79.4724	353.027	78.5467	353.027	79.0588	353.027	77.9726	353.027	78.624	353.027	77.4004	353.027	78.1899	353.027	76.8705	353.027	77.7733	353.027	76.4214	353.027	77.3866	353.027	76.0846	353.027	77.0403	353.027	75.879	353.027	76.7476	353.027	75.8049	353.027	76.5236	353.027	75.8411	353.027	76.3783	353.027	75.9469	353.027	76.3068	353.027	76.0745	353.027	76.2852	353.027	76.1833	353.027	76.2781	353.027	76.2511
366.211	80.575	366.211	80.571	366.211	80.4371	366.211	80.4242	366.211	80.1645	366.211	80.1402	366.211	79.7722	366.211	79.7347	366.211	79.2883	366.211	79.2386	366.211	78.7596	366.211	78.7033	366.211	78.254	366.211	78.1985	366.211	77.8519	366.211	77.7965	366.211	77.6188	366.211	77.5418	366.211	77.5705	366.211	77.4285	366.211	77.6625	366.211	77.4077	366.211	77.8143	366.211	77.4197	366.211	77.9486	366.211	77.4237	366.211	78.015	366.211	77.408	366.211	77.9966	366.211	77.3857	366.211	77.9045	366.211	77.3808	366.211	77.7677	366.211	77.4147	366.211	77.6215	366.211	77.497
379.395	81.4349	379.395	81.3542	379.395	81.3628	379.395	81.1238	379.395	81.1302	379.395	80.7418	379.395	80.7255	379.395	80.2047	379.395	80.1363	379.395	79.5152	379.395	79.3568	379.395	78.699	379.395	78.402	379.395	77.8322	379.395	77.3371	379.395	77.0694	379.395	76.3203	379.395	76.6195	379.395	75.614	379.395	76.6129	379.395	75.4504	379.395	76.9779	379.395	75.8104	379.395	77.5107	379.395	76.4493	379.395	78.0318	379.395	77.1259	379.395	78.4457	379.395	77.7114	379.395	78.7236	379.395	78.1664	379.395	78.8722	379.395	78.4965	379.395	78.9109	379.395	78.7214	379.395	78.8579
392.578	81.6051	392.578	81.5242	392.578	81.5726	392.578	81.3286	392.578	81.4223	392.578	81.0127	392.578	81.1438	392.578	80.5677	392.578	80.7212	392.578	79.9847	392.578	80.1358	392.578	79.2616	392.578	79.3724	392.578	78.4151	392.578	78.4335	392.578	77.5051	392.578	77.3694	392.578	76.6639	392.578	76.3267	392.578	76.0961	392.578	75.578	392.578	75.977	392.578	75.3978	392.578	76.2981	392.578	75.7958	392.578	76.8714	392.578	76.5047	392.578	77.4884	392.578	77.2467	392.578	78.0179	392.578	77.8687	392.578	78.4024	392.578	78.3178	392.578	78.6264	392.578	78.5883	392.578	78.6888
405.762	81.314	405.762	81.2049	405.762	81.3285	405.762	81.0001	405.762	81.2444	405.762	80.6941	405.762	81.0527	405.762	80.2779	405.762	80.7403	405.762	79.742	405.762	80.2914	405.762	79.0824	405.762	79.6907	405.762	78.3129	405.762	78.9313	405.762	77.4872	405.762	78.0299	405.762	76.7234	405.762	77.0584	405.762	76.2019	405.762	76.1848	405.762	76.0805	405.762	75.6668	405.762	76.3643	405.762	75.6939	405.762	76.8993	405.762	76.1924	405.762	77.4969	405.762	76.9016	405.762	78.0248	405.762	77.5916	405.762	78.4131	405.762	78.1395	405.762	78.6302	405.762	78.4993	405.762	78.6617
420.41	81.6748	420.41	81.6302	420.41	81.6156	420.41	81.4735	420.41	81.4571	420.41	81.1932	420.41	81.1987	420.41	80.7743	420.41	80.8336	420.41	80.1996	420.41	80.3486	420.41	79.453	420.41	79.7267	420.41	78.5305	420.41	78.9565	420.41	77.4652	420.41	78.0504	420.41	76.3745	420.41	77.0771	420.41	75.5071	420.41	76.2001	420.41	75.1687	420.41	75.6628	420.41	75.4495	420.41	75.6347	420.41	76.1137	420.41	76.0424	420.41	76.8529	420.41	76.6495	420.41	77.4785	420.41	77.2495	420.41	77.9172	420.41	77.7316	420.41	78.1542	420.41	78.0521	420.41	78.1959
435.059	81.5379	435.059	81.5067	435.059	81.4961	435.059	81.3953	435.059	81.38	435.059	81.1892	435.059	81.1801	435.059	80.8668	435.059	80.8793	435.059	80.4019	435.059	80.4555	435.059	79.7672	435.059	79.8859	435.059	78.9427	435.059	79.1568	435.059	77.9344	435.059	78.2802	435.059	76.8118	435.059	77.3234	435.059	75.7679	435.059	76.4452	435.059	75.1287	435.059	75.8878	435.059	75.1449	435.059	75.836	435.059	75.7128	435.059	76.2383	435.059	76.4999	435.059	76.8597	435.059	77.2423	435.059	77.4759	435.059	77.8152	435.059	77.9564	435.059	78.1771	435.059	78.2442	435.059	78.3198
451.172	81.3602	451.172	81.3543	451.172	81.2826	451.172	81.2648	451.172	81.1179	451.172	81.0851	451.172	80.8596	451.172	80.8001	451.172	80.4983	451.172	80.3848	451.172	80.0215	451.172	79.8064	451.172	79.4132	451.172	79.0308	451.172	78.6571	451.172	78.0383	451.172	77.7453	451.172	76.8578	451.172	76.7043	451.172	75.6389	451.172	75.6466	451.172	74.7287	451.172	74.8295	451.172	74.5331	451.172	74.5821	451.172	75.0711	451.172	74.9933	451.172	75.9456	451.172	75.788	451.172	76.7881	451.172	76.6238	451.172	77.4238	451.172	77.2983	451.172	77.7976	451.172	77.7315	451.172	77.8997
465.82	81.7504	465.82	81.674	465.82	81.7293	465.82	81.5061	465.82	81.6039	465.82	81.2496	465.82	81.3664	465.82	80.9025	465.82	81.0071	465.82	80.4558	465.82	80.5112	465.82	79.8933	465.82	79.8585	465.82	79.1946	465.82	79.0257	465.82	78.3446	465.82	77.998	465.82	77.3569	465.82	76.7998	465.82	76.3222	465.82	75.5541	465.82	75.4679	465.82	74.5548	465.82	75.112	465.82	74.1863	465.82	75.3837	465.82	74.556	465.82	76.0515	465.82	75.3582	465.82	76.7753	465.82	76.2272	465.82	77.3382	465.82	76.9538	465.82	77.6506	465.82	77.4514	465.82	77.688
483.398	81.7596	483.398	81.6764	483.398	81.772	483.398	81.5158	483.398	81.7178	483.398	81.2713	483.398	81.5933	483.398	80.9352	483.398	81.3822	483.398	80.4936	483.398	81.0552	483.398	79.9233	483.398	80.5739	483.398	79.1945	483.398	79.8986	483.398	78.2854	483.398	79.0002	483.398	77.2113	483.398	77.8831	483.398	76.0759	483.398	76.6322	483.398	75.131	483.398	75.4917	483.398	74.7217	483.398	74.8651	483.398	74.9903	483.398	75.001	483.398	75.6997	483.398	75.6777	483.398	76.4974	483.398	76.4823	483.398	77.1546	483.398	77.1484	483.398	77.5705	483.398	77.5685	483.398	77.7109
499.512	81.5761	499.512	81.5591	499.512	81.5362	499.512	81.473	499.512	81.4438	499.512	81.2979	499.512	81.2954	499.512	81.0065	499.512	81.078	499.512	80.5661	499.512	80.7684	499.512	79.9417	499.512	80.3347	499.512	79.1028	499.512	79.7406	499.512	78.0384	499.512	78.9555	499.512	76.7909	499.512	77.9743	499.512	75.5297	499.512	76.8601	499.512	74.6247	499.512	75.8143	499.512	74.4823	499.512	75.1988	499.512	75.0875	499.512	75.2905	499.512	76.0214	499.512	75.9457	499.512	76.9161	499.512	76.7733	499.512	77.5979	499.512	77.4838	499.512	78.0065	499.512	77.9479	499.512	78.1246
517.09	81.6114	517.09	81.5519	517.09	81.6038	517.09	81.4341	517.09	81.5173	517.09	81.2585	517.09	81.3392	517.09	81.0125	517.09	81.055	517.09	80.6676	517.09	80.6476	517.09	80.1826	517.09	80.0969	517.09	79.5115	517.09	79.3823	517.09	78.6168	517.09	78.4898	517.09	77.4955	517.09	77.4295	517.09	76.2354	517.09	76.2728	517.09	75.111	517.09	75.2133	517.09	74.5785	517.09	74.5815	517.09	74.875	517.09	74.634	517.09	75.6907	517.09	75.2588	517.09	76.566	517.09	76.0991	517.09	77.238	517.09	76.8651	517.09	77.6114	517.09	77.4081	517.09	77.6656
536.133	81.7007	536.133	81.6552	536.133	81.6715	536.133	81.5294	536.133	81.5725	536.133	81.3176	536.133	81.4032	536.133	81.0109	536.133	81.1531	536.133	80.5926	536.133	80.7981	536.133	80.0357	536.133	80.3018	536.133	79.3044	536.133	79.6218	536.133	78.3643	536.133	78.7221	536.133	77.2088	536.133	77.5989	536.133	75.9232	536.133	76.3389	536.133	74.7986	536.133	75.2195	536.133	74.3358	536.133	74.7078	536.133	74.7775	536.133	75.0481	536.133	75.753	536.133	75.9227	536.133	76.767	536.133	76.8653	536.133	77.5607	536.133	77.6134	536.133	78.0506	536.133	78.0733	536.133	78.2209
555.176	81.5558	555.176	81.5462	555.176	81.5031	555.176	81.4743	555.176	81.3912	555.176	81.3382	555.176	81.2238	555.176	81.1263	555.176	80.9976	555.176	80.8109	555.176	80.6923	555.176	80.3479	555.176	80.2657	555.176	79.6839	555.176	79.6557	555.176	78.7669	555.176	78.791	555.176	77.568	555.176	77.612	555.176	76.1328	555.176	76.1272	555.176	74.7035	555.176	74.5704	555.176	73.838	555.176	73.6233	555.176	74.0234	555.176	73.9425	555.176	74.9817	555.176	75.1105	555.176	76.0927	555.176	76.3284	555.176	77.0041	555.176	77.2282	555.176	77.5995	555.176	77.7314	555.176	77.8478
574.219	82.0239	574.219	81.9429	574.219	82.0368	574.219	81.7966	574.219	81.977	574.219	81.5833	574.219	81.8357	574.219	81.292	574.219	81.5972	574.219	80.8948	574.219	81.2341	574.219	80.3425	574.219	80.7059	574.219	79.5645	574.219	79.9586	574.219	78.4734	574.219	78.9278	574.219	76.981	574.219	77.5464	574.219	75.0607	574.219	75.7778	574.219	73.0099	574.219	73.7525	574.219	71.9739	574.219	72.1576	574.219	72.8785	574.219	72.1658	574.219	74.605	574.219	73.5743	574.219	76.0956	574.219	75.188	574.219	77.0919	574.219	76.4552	574.219	77.5985	574.219	77.2745	574.219	77.6533
594.727	81.6396	594.727	81.616	594.727	81.6663	594.727	81.5878	594.727	81.7031	594.727	81.5439	594.727	81.7478	594.727	81.4615	594.727	81.7762	594.727	81.2983	594.727	81.7357	594.727	80.9922	594.727	81.5502	594.727	80.4661	594.727	81.1317	594.727	79.6336	594.727	80.3889	594.727	78.404	594.727	79.2318	594.727	76.7054	594.727	77.5848	594.727	74.5982	594.727	75.4663	594.727	72.6949	594.727	73.325	594.727	72.3928	594.727	72.4974	594.727	73.7349	594.727	73.5361	594.727	75.3165	594.727	75.0983	594.727	76.4831	594.727	76.3278	594.727	77.1453	594.727	77.0669	594.727	77.3338
615.234	80.8721	615.234	80.9206	615.234	80.8035	615.234	80.9685	615.234	80.7253	615.234	81.0402	615.234	80.6771	615.234	81.13	615.234	80.6952	615.234	81.1834	615.234	80.7683	615.234	81.1066	615.234	80.8185	615.234	80.7885	615.234	80.7219	615.234	80.1141	615.234	80.3418	615.234	78.9641	615.234	79.5456	615.234	77.2153	615.234	78.2129	615.234	74.8141	615.234	76.2851	615.234	72.2934	615.234	74.0572	615.234	71.7933	615.234	72.9148	615.234	73.7155	615.234	73.9912	615.234	75.7962	615.234	75.8097	615.234	77.2523	615.234	77.2312	615.234	78.0746	615.234	78.0623	615.234	78.3352
637.207	81.2362	637.207	81.1323	637.207	81.2126	637.207	80.9423	637.207	81.0885	637.207	80.7704	637.207	80.9428	637.207	80.7355	637.207	80.8663	637.207	80.8772	637.207	80.8978	637.207	81.1018	637.207	80.9801	637.207	81.2316	637.207	80.9807	637.207	81.0875	637.207	80.7474	637.207	80.5209	637.207	80.1431	637.207	79.4049	637.207	79.0508	637.207	77.635	637.207	77.39	637.207	75.2729	637.207	75.2703	637.207	73.281	637.207	73.5948	637.207	73.6985	637.207	73.987	637.207	75.7046	637.207	75.7955	637.207	77.4515	637.207	77.4538	637.207	78.4926	637.207	78.4803	637.207	78.8265
659.18	81.7095	659.18	81.5374	659.18	81.6663	659.18	81.1653	659.18	81.4319	659.18	80.6616	659.18	81.0718	659.18	80.1627	659.18	80.6961	659.18	79.8383	659.18	80.4306	659.18	79.7707	659.18	80.3361	659.18	79.8534	659.18	80.3384	659.18	79.8551	659.18	80.2575	659.18	79.55	659.18	79.8915	659.18	78.7731	659.18	79.0656	659.18	77.4408	659.18	77.6497	659.18	75.6842	659.18	75.6613	659.18	74.3069	659.18	73.7811	659.18	74.6158	659.18	73.763	659.18	76.1729	659.18	75.5129	659.18	77.6626	659.18	77.2776	659.18	78.5785	659.18	78.4058	659.18	78.8321
682.617	82.2873	682.617	82.2334	682.617	82.1054	682.617	81.958	682.617	81.7097	682.617	81.5103	682.617	81.1675	682.617	80.9755	682.617	80.597	682.617	80.4588	682.617	80.1401	682.617	80.0318	682.617	79.8771	682.617	79.666	682.617	79.746	682.617	79.2216	682.617	79.5664	682.617	78.503	682.617	79.1329	682.617	77.317	682.617	78.2744	682.617	75.5332	682.617	76.8872	682.617	73.3501	682.617	75.0726	682.617	72.171	682.617	73.6277	682.617	73.4759	682.617	73.9584	682.617	75.6438	682.617	75.6285	682.617	77.3303	682.617	77.2315	682.617	78.3109	682.617	78.2494	682.617	78.6096
707.52	82.8656	707.52	82.7766	707.52	82.7743	707.52	82.5165	707.52	82.4998	707.52	82.1093	707.52	82.0482	707.52	81.6074	707.52	81.448	707.52	81.0923	707.52	80.7686	707.52	80.6418	707.52	80.1169	707.52	80.2658	707.52	79.5813	707.52	79.8681	707.52	79.139	707.52	79.2745	707.52	78.6251	707.52	78.2856	707.52	77.8	707.52	76.7045	707.52	76.4239	707.52	74.3912	707.52	74.3342	707.52	71.7218	707.52	71.8773	707.52	70.9438	707.52	71.138	707.52	72.9263	707.52	73.0364	707.52	75.0482	707.52	75.1192	707.52	76.3527	707.52	76.392	707.52	76.7936
732.422	82.453	732.422	82.3163	732.422	82.345	732.422	81.9497	732.422	82.0103	732.422	81.4053	732.422	81.5048	732.422	80.7807	732.422	80.9284	732.422	80.2071	732.422	80.405	732.422	79.7852	732.422	80.0172	732.422	79.4978	732.422	79.7317	732.422	79.1954	732.422	79.3986	732.422	78.6718	732.422	78.8198	732.422	77.7374	732.422	77.8032	732.422	76.2632	732.422	76.1862	732.422	74.3229	732.422	73.9413	732.422	72.7269	732.422	71.8013	732.422	73.0077	732.422	71.8945	732.422	74.6947	732.422	73.9334	732.422	76.2764	732.422	75.847	732.422	77.2298	732.422	77.037	732.422	77.4866
757.324	82.8778	757.324	82.7203	757.324	82.7887	757.324	82.3298	757.324	82.4496	757.324	81.7368	757.324	81.8768	757.324	81.0112	757.324	81.1309	757.324	80.2827	757.324	80.3445	757.324	79.7086	757.324	79.7049	757.324	79.3516	757.324	79.3339	757.324	79.0821	757.324	79.1465	757.324	78.6422	757.324	78.8885	757.324	77.7659	757.324	78.2816	757.324	76.2244	757.324	77.0923	757.324	73.8848	757.324	75.1536	757.324	71.3099	757.324	72.6322	757.324	71.0957	757.324	71.2037	757.324	73.3449	757.324	72.6498	757.324	75.3826	757.324	74.796	757.324	76.5286	757.324	76.2304	757.324	76.8008
785.156	82.9031	785.156	82.7546	785.156	82.8156	785.156	82.3787	785.156	82.5025	785.156	81.8138	785.156	81.9898	785.156	81.1434	785.156	81.3228	785.156	80.496	785.156	80.5758	785.156	79.9997	785.156	79.8529	785.156	79.687	785.156	79.2541	785.156	79.4407	785.156	78.7966	785.156	79.0455	785.156	78.3572	785.156	78.265	785.156	77.7034	785.156	76.8628	785.156	76.5698	785.156	74.5897	785.156	74.7225	785.156	71.3878	785.156	72.2007	785.156	69.2293	785.156	70.5159	785.156	71.2437	785.156	71.8735	785.156	73.9096	785.156	74.1219	785.156	75.5097	785.156	75.5791	785.156	76.0419
811.523	83.178	811.523	82.9293	811.523	83.1311	811.523	82.3776	811.523	82.7927	811.523	81.529	811.523	82.1676	811.523	80.4431	811.523	81.2899	811.523	79.2947	811.523	80.2763	811.523	78.3867	811.523	79.3665	811.523	77.9478	811.523	78.8076	811.523	77.8441	811.523	78.5714	811.523	77.6879	811.523	78.314	811.523	77.1327	811.523	77.6348	811.523	75.9648	811.523	76.2096	811.523	74.1594	811.523	73.7976	811.523	72.3523	811.523	70.7912	811.523	72.3477	811.523	70.4471	811.523	74.1704	811.523	73.2363	811.523	75.9954	811.523	75.6344	811.523	77.1246	811.523	77.0051	811.523	77.4702
840.82	83.2503	840.82	83.0357	840.82	83.1883	840.82	82.5473	840.82	82.8418	840.82	81.7849	840.82	82.211	840.82	80.777	840.82	81.3311	840.82	79.6469	840.82	80.3124	840.82	78.6715	840.82	79.3752	840.82	78.1451	840.82	78.7783	840.82	78.0181	840.82	78.5727	840.82	77.8758	840.82	78.4811	840.82	77.2774	840.82	78.1013	840.82	75.8862	840.82	77.0765	840.82	73.4308	840.82	75.0735	840.82	70.1719	840.82	71.8015	840.82	69.5006	840.82	68.6093	840.82	72.3446	840.82	70.447	840.82	74.7368	840.82	73.5931	840.82	75.9918	840.82	75.4848	840.82	76.2329
870.117	83.9485	870.117	83.8574	870.117	83.7852	870.117	83.4877	870.117	83.3713	870.117	82.8012	870.117	82.6968	870.117	81.7678	870.117	81.7611	870.117	80.424	870.117	80.6262	870.117	78.9897	870.117	79.4944	870.117	77.9323	870.117	78.6954	870.117	77.5679	870.117	78.3914	870.117	77.5368	870.117	78.315	870.117	77.1895	870.117	78.0073	870.117	76.0242	870.117	77.0848	870.117	73.566	870.117	75.2202	870.117	69.1302	870.117	72.1064	870.117	65.5906	870.117	68.7588	870.117	70.4099	870.117	70.3289	870.117	74.0957	870.117	73.68	870.117	75.9322	870.117	75.708	870.117	76.4236
900.879	85.259	900.879	85.0948	900.879	85.1793	900.879	84.6923	900.879	84.8462	900.879	84.0455	900.879	84.2492	900.879	83.1368	900.879	83.3768	900.879	81.9644	900.879	82.2318	900.879	80.6201	900.879	80.8936	900.879	79.4019	900.879	79.6349	900.879	78.7281	900.879	78.8973	900.879	78.6147	900.879	78.7908	900.879	78.52	900.879	78.8039	900.879	77.8427	900.879	78.2984	900.879	76.0859	900.879	76.7639	900.879	72.6492	900.879	73.651	900.879	67.724	900.879	69.0065	900.879	69.8473	900.879	70.0295	900.879	74.1427	900.879	74.1637	900.879	76.3965	900.879	76.4158	900.879	77.0924
933.105	85.3011	933.105	85.1623	933.105	85.2413	933.105	84.8183	933.105	84.961	933.105	84.2333	933.105	84.419	933.105	83.3587	933.105	83.5714	933.105	82.1748	933.105	82.3976	933.105	80.7802	933.105	80.96	933.105	79.5116	933.105	79.5296	933.105	78.8356	933.105	78.6307	933.105	78.7684	933.105	78.5242	933.105	78.7531	933.105	78.7066	933.105	78.2167	933.105	78.4646	933.105	76.734	933.105	77.2887	933.105	73.8769	933.105	74.7527	933.105	69.8655	933.105	70.8313	933.105	70.3832	933.105	70.178	933.105	74.1446	933.105	73.8098	933.105	76.3749	933.105	76.2163	933.105	77.0238
965.332	85.2536	965.332	85.1083	965.332	85.1619	965.332	84.7391	965.332	84.8382	965.332	84.163	965.332	84.2938	965.332	83.3743	965.332	83.5242	965.332	82.3348	965.332	82.5055	965.332	81.0211	965.332	81.2305	965.332	79.548	965.332	79.8008	965.332	78.3034	965.332	78.5359	965.332	77.7018	965.332	77.8241	965.332	77.5184	965.332	77.5621	965.332	77.0387	965.332	77.1151	965.332	75.6414	965.332	75.8261	965.332	72.9096	965.332	73.1539	965.332	69.8002	965.332	69.4441	965.332	71.2862	965.332	70.3051	965.332	74.5313	965.332	73.9993	965.332	76.4374	965.332	76.2233	965.332	76.979
1000.49	84.6248	1000.49	84.5192	1000.49	84.5357	1000.49	84.1944	1000.49	84.2617	1000.49	83.6194	1000.49	83.7878	1000.49	82.7653	1000.49	83.0774	1000.49	81.6302	1000.49	82.0964	1000.49	80.3062	1000.49	80.8635	1000.49	79.0802	1000.49	79.5264	1000.49	78.3668	1000.49	78.41	1000.49	78.2228	1000.49	77.8192	1000.49	78.1475	1000.49	77.6123	1000.49	77.5478	1000.49	77.2384	1000.49	75.9356	1000.49	76.1035	1000.49	72.7148	1000.49	73.5575	1000.49	67.2943	1000.49	68.4889	1000.49	67.431	1000.49	64.7344	1000.49	72.2459	1000.49	70.8313	1000.49	74.7173	1000.49	74.2026	1000.49	75.3236
1035.64	84.7594	1035.64	84.6057	1035.64	84.7016	1035.64	84.2423	1035.64	84.4338	1035.64	83.6609	1035.64	83.9546	1035.64	82.8233	1035.64	83.244	1035.64	81.6653	1035.64	82.254	1035.64	80.1567	1035.64	80.9295	1035.64	78.4452	1035.64	79.3043	1035.64	77.0621	1035.64	77.7212	1035.64	76.6286	1035.64	76.8842	1035.64	76.8457	1035.64	76.9394	1035.64	76.7864	1035.64	77.0368	1035.64	75.725	1035.64	76.3343	1035.64	72.9714	1035.64	74.1833	1035.64	67.3261	1035.64	69.5801	1035.64	65.5669	1035.64	64.5875	1035.64	71.6809	1035.64	70.5262	1035.64	74.6495	1035.64	74.2062	1035.64	75.4009
1072.27	84.8933	1072.27	84.7311	1072.27	84.8476	1072.27	84.3811	1072.27	84.5723	1072.27	83.8431	1072.27	84.0535	1072.27	83.084	1072.27	83.281	1072.27	82.0519	1072.27	82.247	1072.27	80.7314	1072.27	80.9705	1072.27	79.2574	1072.27	79.5653	1072.27	78.0446	1072.27	78.3233	1072.27	77.5334	1072.27	77.6127	1072.27	77.4946	1072.27	77.4342	1072.27	77.1961	1072.27	77.2769	1072.27	76.0041	1072.27	76.509	1072.27	73.3281	1072.27	74.5307	1072.27	68.4236	1072.27	70.6706	1072.27	66.3302	1072.27	66.8223	1072.27	71.2315	1072.27	70.3998	1072.27	74.0018	1072.27	73.6007	1072.27	74.7091
1108.89	85.2016	1108.89	85.0804	1108.89	85.066	1108.89	84.6854	1108.89	84.7108	1108.89	84.0331	1108.89	84.1644	1108.89	83.1483	1108.89	83.4243	1108.89	82.0129	1108.89	82.4539	1108.89	80.5435	1108.89	81.1975	1108.89	78.673	1108.89	79.6295	1108.89	76.6457	1108.89	77.9064	1108.89	75.4313	1108.89	76.6118	1108.89	75.6318	1108.89	76.3357	1108.89	76.0933	1108.89	76.5247	1108.89	75.6344	1108.89	76.1013	1108.89	73.5155	1108.89	74.2683	1108.89	68.8408	1108.89	70.1511	1108.89	66.5019	1108.89	65.5008	1108.89	71.957	1108.89	70.5308	1108.89	74.9033	1108.89	74.2632	1108.89	75.5768
1148.44	84.8878	1148.44	84.7475	1148.44	84.8034	1148.44	84.3965	1148.44	84.4921	1148.44	83.8471	1148.44	83.9609	1148.44	83.0931	1148.44	83.2071	1148.44	82.1028	1148.44	82.2018	1148.44	80.8335	1148.44	80.8994	1148.44	79.2955	1148.44	79.294	1148.44	77.7148	1148.44	77.5855	1148.44	76.6714	1148.44	76.4141	1148.44	76.5246	1148.44	76.3196	1148.44	76.6411	1148.44	76.6328	1148.44	76.0697	1148.44	76.2741	1148.44	73.9909	1148.44	74.466	1148.44	69.1538	1148.44	70.2432	1148.44	63.7916	1148.44	64.281	1148.44	70.5178	1148.44	69.6484	1148.44	74.0247	1148.44	73.6089	1148.44	74.8871
1189.45	84.7908	1189.45	84.6589	1189.45	84.6398	1189.45	84.2609	1189.45	84.2241	1189.45	83.6481	1189.45	83.5919	1189.45	82.8749	1189.45	82.8029	1189.45	81.9292	1189.45	81.8849	1189.45	80.6959	1189.45	80.7993	1189.45	79.035	1189.45	79.4698	1189.45	77.0384	1189.45	77.8978	1189.45	75.536	1189.45	76.3938	1189.45	75.5388	1189.45	75.6365	1189.45	76.1763	1189.45	75.7226	1189.45	76.0901	1189.45	75.6961	1189.45	74.5383	1189.45	74.5541	1189.45	70.5867	1189.45	71.2706	1189.45	62.5366	1189.45	64.0164	1189.45	67.5235	1189.45	66.7484	1189.45	72.2796	1189.45	72.0146	1189.45	73.5228
1230.47	84.3963	1230.47	84.1944	1230.47	84.2812	1230.47	83.7228	1230.47	83.8513	1230.47	83.0493	1230.47	83.1497	1230.47	82.2158	1230.47	82.229	1230.47	81.2208	1230.47	81.118	1230.47	80.0391	1230.47	79.7938	1230.47	78.6617	1230.47	78.1818	1230.47	77.1891	1230.47	76.2822	1230.47	75.9866	1230.47	74.5764	1230.47	75.5284	1230.47	74.1259	1230.47	75.6123	1230.47	74.7492	1230.47	75.3322	1230.47	74.9989	1230.47	73.7474	1230.47	73.8624	1230.47	69.7642	1230.47	70.4389	1230.47	64.3762	1230.47	64.6847	1230.47	69.4001	1230.47	68.4739	1230.47	72.9787	1230.47	72.5717	1230.47	73.8849
1274.41	84.2958	1274.41	84.0617	1274.41	84.1869	1274.41	83.5075	1274.41	83.7281	1274.41	82.6769	1274.41	82.9436	1274.41	81.6547	1274.41	81.8975	1274.41	80.5357	1274.41	80.676	1274.41	79.297	1274.41	79.3465	1274.41	77.7299	1274.41	77.917	1274.41	75.6607	1274.41	76.3626	1274.41	73.6282	1274.41	74.8515	1274.41	73.2756	1274.41	74.0578	1274.41	74.304	1274.41	74.3473	1274.41	74.7956	1274.41	74.6937	1274.41	73.8014	1274.41	73.8797	1274.41	70.5935	1274.41	70.8468	1274.41	65.266	1274.41	63.6308	1274.41	68.1427	1274.41	65.3877	1274.41	71.925	1274.41	71.064	1274.41	72.8281
1319.82	84.1702	1319.82	83.9452	1319.82	84.0283	1319.82	83.366	1319.82	83.5407	1319.82	82.4754	1319.82	82.7666	1319.82	81.3512	1319.82	81.7837	1319.82	80.0837	1319.82	80.6455	1319.82	78.7079	1319.82	79.3497	1319.82	77.1808	1319.82	77.8524	1319.82	75.5443	1319.82	76.1274	1319.82	74.2036	1319.82	74.3112	1319.82	73.7464	1319.82	73.0089	1319.82	73.963	1319.82	72.9301	1319.82	73.8865	1319.82	73.3381	1319.82	72.5252	1319.82	72.7548	1319.82	68.5018	1319.82	69.8283	1319.82	58.5248	1319.82	61.1145	1319.82	66.4242	1319.82	63.5462	1319.82	71.1393	1319.82	70.2821	1319.82	72.1544
1366.7	83.9394	1366.7	83.7845	1366.7	83.8057	1366.7	83.3413	1366.7	83.4079	1366.7	82.6282	1366.7	82.7676	1366.7	81.6664	1366.7	81.8912	1366.7	80.5017	1366.7	80.7893	1366.7	79.2048	1366.7	79.4705	1366.7	77.7579	1366.7	77.8931	1366.7	75.9619	1366.7	76.0064	1366.7	73.7536	1366.7	74.0762	1366.7	72.2444	1366.7	73.0672	1366.7	72.7313	1366.7	73.4057	1366.7	73.3541	1366.7	73.9145	1366.7	72.3537	1366.7	73.4553	1366.7	68.5725	1366.7	71.092	1366.7	58.8964	1366.7	64.7037	1366.7	64.4953	1366.7	60.4249	1366.7	69.6225	1366.7	68.5195	1366.7	70.7111
1413.57	84.2525	1413.57	84.0453	1413.57	84.0765	1413.57	83.4956	1413.57	83.5591	1413.57	82.7065	1413.57	82.804	1413.57	81.7944	1413.57	81.9101	1413.57	80.8091	1413.57	80.9107	1413.57	79.6687	1413.57	79.7713	1413.57	78.1945	1413.57	78.4024	1413.57	76.2488	1413.57	76.6807	1413.57	74.0457	1413.57	74.6507	1413.57	72.8297	1413.57	73.1639	1413.57	73.6126	1413.57	73.4704	1413.57	74.6769	1413.57	74.4991	1413.57	74.3608	1413.57	74.5144	1413.57	71.538	1413.57	72.4624	1413.57	63.4892	1413.57	66.5456	1413.57	64.3306	1413.57	60.739	1413.57	70.3249	1413.57	68.9706	1413.57	71.3957
1463.38	83.8425	1463.38	83.6839	1463.38	83.6489	1463.38	83.1725	1463.38	83.1372	1463.38	82.3413	1463.38	82.3735	1463.38	81.2764	1463.38	81.4442	1463.38	80.1313	1463.38	80.4198	1463.38	79.0238	1463.38	79.3142	1463.38	77.857	1463.38	78.0779	1463.38	76.367	1463.38	76.5909	1463.38	74.4255	1463.38	74.6926	1463.38	72.6421	1463.38	72.6851	1463.38	72.6476	1463.38	72.2348	1463.38	73.8687	1463.38	73.3943	1463.38	74.0522	1463.38	73.7828	1463.38	71.7768	1463.38	72.0308	1463.38	64.6655	1463.38	66.6157	1463.38	63.4948	1463.38	61.792	1463.38	70.0216	1463.38	68.9523	1463.38	71.2853
1516.11	83.7174	1516.11	83.4932	1516.11	83.5642	1516.11	82.8671	1516.11	83.0942	1516.11	81.9292	1516.11	82.3384	1516.11	80.8162	1516.11	81.328	1516.11	79.5608	1516.11	80.1641	1516.11	78.1698	1516.11	79.0071	1516.11	76.7622	1516.11	77.8946	1516.11	75.2804	1516.11	76.5804	1516.11	73.3238	1516.11	74.6926	1516.11	71.4029	1516.11	72.3848	1516.11	71.9499	1516.11	71.7155	1516.11	73.5223	1516.11	73.2907	1516.11	73.5874	1516.11	74.2147	1516.11	71.2648	1516.11	73.0209	1516.11	65.2885	1516.11	68.3643	1516.11	63.9439	1516.11	61.8538	1516.11	69.6074	1516.11	68.8233	1516.11	71.1111
1568.85	83.7285	1568.85	83.3771	1568.85	83.6313	1568.85	82.5856	1568.85	83.1166	1568.85	81.465	1568.85	82.2392	1568.85	80.2261	1568.85	81.1097	1568.85	78.9756	1568.85	79.9238	1568.85	77.6331	1568.85	78.8228	1568.85	76.2499	1568.85	77.6612	1568.85	74.9567	1568.85	76.1554	1568.85	73.3093	1568.85	74.2113	1568.85	70.8394	1568.85	72.2061	1568.85	69.9756	1568.85	71.8345	1568.85	72.0853	1568.85	73.5533	1568.85	73.0317	1568.85	74.6147	1568.85	71.1386	1568.85	73.4097	1568.85	63.9567	1568.85	68.6481	1568.85	63.6289	1568.85	63.4033	1568.85	70.4986	1568.85	69.6593	1568.85	71.8946
1624.51	83.952	1624.51	83.5358	1624.51	83.928	1624.51	82.737	1624.51	83.4719	1624.51	81.6358	1624.51	82.6507	1624.51	80.3397	1624.51	81.5648	1624.51	79.0153	1624.51	80.3627	1624.51	77.7603	1624.51	79.1959	1624.51	76.4868	1624.51	78.082	1624.51	75.0723	1624.51	76.8776	1624.51	73.3301	1624.51	75.3499	1624.51	70.9835	1624.51	73.296	1624.51	69.5519	1624.51	71.6299	1624.51	71.4741	1624.51	72.5845	1624.51	73.1267	1624.51	73.9661	1624.51	72.2136	1624.51	73.1994	1624.51	66.6322	1624.51	68.7347	1624.51	57.169	1624.51	61.5152	1624.51	69.1178	1624.51	68.8843	1624.51	71.2452
1681.64	84.2293	1681.64	83.897	1681.64	84.1113	1681.64	83.154	1681.64	83.5806	1681.64	82.0448	1681.64	82.7276	1681.64	80.6055	1681.64	81.6227	1681.64	79.0274	1681.64	80.3593	1681.64	77.6878	1681.64	79.1399	1681.64	76.607	1681.64	78.0935	1681.64	75.3195	1681.64	76.9909	1681.64	73.5576	1681.64	75.4085	1681.64	71.3251	1681.64	73.0827	1681.64	69.5241	1681.64	70.6227	1681.64	71.0333	1681.64	70.8946	1681.64	73.0736	1681.64	72.8888	1681.64	72.7426	1681.64	73.0222	1681.64	68.7424	1681.64	69.4757	1681.64	57.7144	1681.64	59.9487	1681.64	67.0358	1681.64	67.6264	1681.64	70.0992
1741.7	83.3137	1741.7	83.0638	1741.7	83.195	1741.7	82.4566	1741.7	82.7386	1741.7	81.4967	1741.7	81.9652	1741.7	80.1493	1741.7	80.8592	1741.7	78.517	1741.7	79.5143	1741.7	77.0471	1741.7	78.2469	1741.7	76.0313	1741.7	77.2655	1741.7	75.0141	1741.7	76.3248	1741.7	73.7127	1741.7	75.0448	1741.7	72.2728	1741.7	73.1671	1741.7	70.6516	1741.7	71.0687	1741.7	70.9128	1741.7	71.099	1741.7	72.935	1741.7	72.8384	1741.7	73.0075	1741.7	73.1329	1741.7	69.6641	1741.7	70.4454	1741.7	62.9233	1741.7	63.4281	1741.7	67.2489	1741.7	66.5356	1741.7	69.4796
1803.22	82.9104	1803.22	82.7382	1803.22	82.7873	1803.22	82.162	1803.22	82.3835	1803.22	81.1994	1803.22	81.6141	1803.22	80.0136	1803.22	80.4756	1803.22	78.6707	1803.22	79.0941	1803.22	77.1958	1803.22	77.6671	1803.22	75.8253	1803.22	76.442	1803.22	74.5255	1803.22	75.4864	1803.22	72.9152	1803.22	74.4762	1803.22	71.0701	1803.22	72.8974	1803.22	69.2347	1803.22	70.3516	1803.22	69.4779	1803.22	69.2817	1803.22	71.6564	1803.22	71.5687	1803.22	71.7915	1803.22	72.2548	1803.22	68.4759	1803.22	69.5682	1803.22	65.0178	1803.22	64.3023	1803.22	69.6865	1803.22	68.5839	1803.22	71.2431
1866.21	83.6329	1866.21	83.4604	1866.21	83.5343	1866.21	82.8812	1866.21	83.2084	1866.21	81.9015	1866.21	82.5568	1866.21	80.709	1866.21	81.5171	1866.21	79.3824	1866.21	80.1951	1866.21	77.8531	1866.21	78.8374	1866.21	76.3385	1866.21	77.6707	1866.21	75.0775	1866.21	76.682	1866.21	73.6913	1866.21	75.6711	1866.21	71.8456	1866.21	74.3085	1866.21	69.198	1866.21	72.169	1866.21	67.2321	1866.21	70.4565	1866.21	69.8368	1866.21	71.6241	1866.21	70.8227	1866.21	72.3412	1866.21	67.5006	1866.21	69.689	1866.21	63.3582	1866.21	61.8961	1866.21	69.287	1866.21	68.2108	1866.21	71.1548
1932.13	84.0487	1932.13	83.8813	1932.13	83.8891	1932.13	83.4266	1932.13	83.3925	1932.13	82.6581	1932.13	82.615	1932.13	81.5414	1932.13	81.5967	1932.13	80.1895	1932.13	80.3055	1932.13	78.7908	1932.13	78.808	1932.13	77.3851	1932.13	77.4256	1932.13	76.0453	1932.13	76.1663	1932.13	74.8057	1932.13	74.7259	1932.13	73.3066	1932.13	73.4652	1932.13	71.2928	1932.13	72.1389	1932.13	69.1369	1932.13	70.5638	1932.13	69.4347	1932.13	71.4952	1932.13	70.6699	1932.13	72.397	1932.13	68.0536	1932.13	69.9228	1932.13	57.7493	1932.13	59.9279	1932.13	67.4251	1932.13	65.3659	1932.13	69.6276
1999.51	82.1134	1999.51	81.9119	1999.51	82.0259	1999.51	81.5166	1999.51	81.6041	1999.51	80.9364	1999.51	80.9399	1999.51	80.1497	1999.51	80.1311	1999.51	79.1438	1999.51	79.1497	1999.51	77.9734	1999.51	77.9339	1999.51	76.8407	1999.51	76.6777	1999.51	75.7145	1999.51	75.555	1999.51	74.2428	1999.51	74.143	1999.51	72.3639	1999.51	72.4446	1999.51	70.1978	1999.51	70.8144	1999.51	68.2556	1999.51	68.7316	1999.51	68.7494	1999.51	69.1253	1999.51	69.1805	1999.51	71.19	1999.51	65.4416	1999.51	70.1118	1999.51	50.6053	1999.51	61.543	1999.51	67.1518	1999.51	64.0122	1999.51	69.3379
2069.82	82.6504	2069.82	82.2758	2069.82	82.8265	2069.82	81.7524	2069.82	82.6847	2069.82	81.128	2069.82	82.1716	2069.82	80.2566	2069.82	81.3991	2069.82	78.8093	2069.82	80.4226	2069.82	77.1234	2069.82	79.0942	2069.82	76.065	2069.82	77.5343	2069.82	75.0802	2069.82	76.3912	2069.82	73.4782	2069.82	75.3722	2069.82	71.7592	2069.82	73.9702	2069.82	70.4775	2069.82	72.5105	2069.82	69.2382	2069.82	70.2214	2069.82	69.7577	2069.82	69.8087	2069.82	71.6678	2069.82	71.563	2069.82	70.5886	2069.82	70.6199	2069.82	61.629	2069.82	65.1693	2069.82	61.9633	2069.82	56.9633	2069.82	65.5519
2143.07	83.611	2143.07	83.4785	2143.07	83.4476	2143.07	82.9226	2143.07	83.0575	2143.07	82.1396	2143.07	82.5281	2143.07	81.5167	2143.07	81.9571	2143.07	80.6341	2143.07	81.1283	2143.07	78.8008	2143.07	79.693	2143.07	76.8293	2143.07	77.762	2143.07	75.9879	2143.07	76.4948	2143.07	74.8492	2143.07	76.2588	2143.07	73.0772	2143.07	75.3023	2143.07	71.4399	2143.07	73.767	2143.07	69.5239	2143.07	72.7192	2143.07	70.0125	2143.07	72.2687	2143.07	72.4885	2143.07	73.2663	2143.07	72.8361	2143.07	72.5363	2143.07	68.4382	2143.07	67.7042	2143.07	60.2611	2143.07	60.2624	2143.07	64.3782
2219.24	83.165	2219.24	83.1104	2219.24	82.947	2219.24	82.6716	2219.24	82.5621	2219.24	81.9519	2219.24	81.9589	2219.24	81.2451	2219.24	81.11	2219.24	80.4608	2219.24	80.2673	2219.24	79.2288	2219.24	79.2993	2219.24	77.4439	2219.24	77.8205	2219.24	75.8429	2219.24	75.9881	2219.24	74.8644	2219.24	74.1491	2219.24	72.8755	2219.24	73.1793	2219.24	71.0891	2219.24	72.4395	2219.24	70.4599	2219.24	70.543	2219.24	69.5134	2219.24	69.1148	2219.24	71.6343	2219.24	71.4654	2219.24	70.9787	2219.24	71.6952	2219.24	64.7893	2219.24	65.2605	2219.24	60.5214	2219.24	61.2608	2219.24	66.2113
2296.88	82.7408	2296.88	82.6571	2296.88	82.5929	2296.88	82.241	2296.88	82.3167	2296.88	81.653	2296.88	81.7207	2296.88	80.951	2296.88	80.8681	2296.88	80.1588	2296.88	79.9841	2296.88	78.9854	2296.88	78.9453	2296.88	77.1689	2296.88	77.3532	2296.88	75.4257	2296.88	75.7753	2296.88	74.4119	2296.88	74.7979	2296.88	73.1271	2296.88	73.0242	2296.88	71.1265	2296.88	71.2145	2296.88	69.5648	2296.88	70.09	2296.88	68.7378	2296.88	68.2077	2296.88	70.7126	2296.88	70.1193	2296.88	70.7421	2296.88	71.4771	2296.88	64.8981	2296.88	67.6476	2296.88	61.2932	2296.88	58.5122	2296.88	64.3581
2378.91	82.9861	2378.91	82.8905	2378.91	83.0452	2378.91	82.713	2378.91	82.9652	2378.91	82.3074	2378.91	82.5642	2378.91	81.6436	2378.91	81.7873	2378.91	80.7633	2378.91	80.8225	2378.91	79.4511	2378.91	79.7078	2378.91	77.4187	2378.91	78.0808	2378.91	75.3018	2378.91	76.1145	2378.91	74.2824	2378.91	74.8968	2378.91	72.868	2378.91	73.6671	2378.91	71.2388	2378.91	71.9345	2378.91	69.9342	2378.91	71.105	2378.91	67.8061	2378.91	69.4324	2378.91	70.3313	2378.91	70.1623	2378.91	71.1062	2378.91	71.3296	2378.91	66.2471	2378.91	67.3202	2378.91	60.7887	2378.91	62.3694	2378.91	65.0996
2462.4	82.7073	2462.4	82.6189	2462.4	82.7866	2462.4	82.6487	2462.4	82.7488	2462.4	82.4421	2462.4	82.4901	2462.4	81.7347	2462.4	81.8372	2462.4	80.8732	2462.4	80.9244	2462.4	79.8821	2462.4	79.854	2462.4	78.2507	2462.4	78.1527	2462.4	76.1536	2462.4	76.0912	2462.4	74.9404	2462.4	74.764	2462.4	73.9707	2462.4	73.3853	2462.4	71.8889	2462.4	71.7274	2462.4	70.9914	2462.4	71.0528	2462.4	69.3004	2462.4	69.4412	2462.4	69.3532	2462.4	69.0797	2462.4	70.7041	2462.4	70.9254	2462.4	66.5985	2462.4	67.6905	2462.4	61.5776	2462.4	59.848	2462.4	65.1104
2548.83	82.2646	2548.83	82.2715	2548.83	82.326	2548.83	82.2804	2548.83	82.281	2548.83	82.0539	2548.83	82.0629	2548.83	81.3799	2548.83	81.5596	2548.83	80.3849	2548.83	80.5439	2548.83	79.3652	2548.83	79.355	2548.83	77.8337	2548.83	78.08	2548.83	75.4702	2548.83	75.8382	2548.83	73.7129	2548.83	73.8966	2548.83	73.0071	2548.83	73.0742	2548.83	72.0013	2548.83	71.2338	2548.83	71.1592	2548.83	70.804	2548.83	69.6268	2548.83	69.7	2548.83	69.3115	2548.83	68.0404	2548.83	70.2434	2548.83	69.7093	2548.83	65.8971	2548.83	67.623	2548.83	61.5854	2548.83	59.3999	2548.83	64.1421
2639.65	82.9368	2639.65	82.9765	2639.65	82.9587	2639.65	82.8606	2639.65	82.8972	2639.65	82.4744	2639.65	82.7383	2639.65	81.7867	2639.65	82.326	2639.65	80.5788	2639.65	81.252	2639.65	79.1508	2639.65	79.7322	2639.65	77.6823	2639.65	78.1192	2639.65	75.6819	2639.65	76.2659	2639.65	73.8794	2639.65	74.5899	2639.65	72.4412	2639.65	73.2611	2639.65	70.6459	2639.65	71.5714	2639.65	70.9329	2639.65	70.637	2639.65	70.0801	2639.65	70.2319	2639.65	69.1627	2639.65	68.6757	2639.65	69.5217	2639.65	70.0406	2639.65	66.2186	2639.65	67.3543	2639.65	57.2112	2639.65	58.6819	2639.65	62.1405
2731.93	83.1443	2731.93	83.2353	2731.93	83.0543	2731.93	83.2241	2731.93	83.0646	2731.93	82.9814	2731.93	82.9781	2731.93	82.3398	2731.93	82.5287	2731.93	81.1576	2731.93	81.5639	2731.93	79.6813	2731.93	80.0563	2731.93	78.1235	2731.93	78.3602	2731.93	75.9776	2731.93	76.1053	2731.93	73.8695	2731.93	74.091	2731.93	72.8086	2731.93	73.4105	2731.93	71.1919	2731.93	71.4377	2731.93	71.4255	2731.93	70.9592	2731.93	70.7912	2731.93	70.9019	2731.93	69.4794	2731.93	69.6774	2731.93	70.9038	2731.93	70.0934	2731.93	66.7123	2731.93	67.7771	2731.93	59.086	2731.93	58.1232	2731.93	62.3271
2828.61	82.47	2828.61	82.6008	2828.61	82.4837	2828.61	82.8154	2828.61	82.7303	2828.61	82.9168	2828.61	82.7916	2828.61	82.4118	2828.61	82.4049	2828.61	81.3004	2828.61	81.5755	2828.61	79.9378	2828.61	80.2476	2828.61	78.4606	2828.61	78.6942	2828.61	76.2879	2828.61	76.4956	2828.61	73.8142	2828.61	73.5873	2828.61	72.8025	2828.61	72.6298	2828.61	69.5402	2828.61	70.8408	2828.61	69.3682	2828.61	69.1111	2828.61	70.164	2828.61	70.6962	2828.61	69.5792	2828.61	69.1286	2828.61	70.5306	2828.61	70.8115	2828.61	67.7127	2828.61	69.1454	2828.61	57.6726	2828.61	58.2318	2828.61	61.7455
2928.22	82.4035	2928.22	82.3982	2928.22	82.562	2928.22	82.6071	2928.22	82.6491	2928.22	82.5992	2928.22	82.5661	2928.22	82.2239	2928.22	82.2019	2928.22	81.0177	2928.22	81.456	2928.22	79.2144	2928.22	79.9292	2928.22	77.7847	2928.22	78.2079	2928.22	76.071	2928.22	76.5829	2928.22	73.6755	2928.22	73.5121	2928.22	72.8257	2928.22	72.2631	2928.22	71.1225	2928.22	71.2771	2928.22	68.394	2928.22	68.7987	2928.22	69.9015	2928.22	70.0549	2928.22	67.8829	2928.22	69.0407	2928.22	70.1199	2928.22	69.3511	2928.22	67.9907	2928.22	68.9196	2928.22	56.0626	2928.22	58.272	2928.22	59.7535
3030.76	82.9198	3030.76	83.0794	3030.76	83.1122	3030.76	83.3603	3030.76	83.352	3030.76	83.2353	3030.76	83.2844	3030.76	82.7007	3030.76	82.7384	3030.76	81.7069	3030.76	81.7123	3030.76	79.7923	3030.76	80.3073	3030.76	77.7599	3030.76	78.5109	3030.76	75.9644	3030.76	76.9774	3030.76	73.0322	3030.76	74.6574	3030.76	71.7573	3030.76	71.715	3030.76	71.1411	3030.76	71.7461	3030.76	68.3451	3030.76	69.8125	3030.76	69.3904	3030.76	69.3745	3030.76	68.2565	3030.76	68.4472	3030.76	69.5231	3030.76	69.3173	3030.76	68.3285	3030.76	69.0404	3030.76	57.5775	3030.76	59.9985	3030.76	58.0236
3137.7	82.2893	3137.7	82.542	3137.7	82.4682	3137.7	82.7661	3137.7	82.8727	3137.7	82.6845	3137.7	82.9671	3137.7	82.2757	3137.7	82.472	3137.7	81.4889	3137.7	81.4772	3137.7	79.885	3137.7	80.0265	3137.7	77.7397	3137.7	77.9964	3137.7	76.464	3137.7	76.3035	3137.7	74.4262	3137.7	74.688	3137.7	72.2615	3137.7	72.2278	3137.7	71.6026	3137.7	71.6744	3137.7	69.6937	3137.7	69.2845	3137.7	69.5664	3137.7	70.7229	3137.7	67.8814	3137.7	70.1833	3137.7	69.4467	3137.7	68.2201	3137.7	67.6916	3137.7	68.7733	3137.7	56.4638	3137.7	61.8309	3137.7	48.3941
3249.02	82.5929	3249.02	82.8304	3249.02	82.7918	3249.02	83.168	3249.02	83.2085	3249.02	82.9811	3249.02	83.3382	3249.02	82.0913	3249.02	82.7481	3249.02	80.9016	3249.02	81.5271	3249.02	79.3756	3249.02	79.9235	3249.02	77.0042	3249.02	77.9399	3249.02	74.9004	3249.02	75.9562	3249.02	73.221	3249.02	74.7533	3249.02	71.3141	3249.02	73.0121	3249.02	71.0359	3249.02	71.1572	3249.02	69.852	3249.02	69.6055	3249.02	70.7532	3249.02	70.41	3249.02	68.9629	3249.02	70.6794	3249.02	67.9912	3249.02	69.7246	3249.02	67.742	3249.02	69.7965	3249.02	59.029	3249.02	62.062	3249.02	54.3807
3363.28	82.5944	3363.28	82.8098	3363.28	82.6537	3363.28	83.1545	3363.28	83.0165	3363.28	83.3146	3363.28	83.1468	3363.28	82.6494	3363.28	82.5599	3363.28	81.3493	3363.28	81.3803	3363.28	80.0885	3363.28	79.7477	3363.28	78.3166	3363.28	77.7764	3363.28	76.0207	3363.28	75.4963	3363.28	74.092	3363.28	73.3897	3363.28	71.7311	3363.28	71.668	3363.28	71.3401	3363.28	71.1715	3363.28	69.1631	3363.28	69.9148	3363.28	70.3496	3363.28	69.1807	3363.28	69.9957	3363.28	70.9075	3363.28	68.4161	3363.28	69.0505	3363.28	69.2126	3363.28	69.7032	3363.28	60.8126	3363.28	63.8831	3363.28	56.7543
3481.93	82.9873	3481.93	83.0595	3481.93	83.2322	3481.93	83.3088	3481.93	83.5112	3481.93	83.192	3481.93	83.5728	3481.93	82.5817	3481.93	83.1286	3481.93	81.1582	3481.93	81.9357	3481.93	79.0227	3481.93	80.2098	3481.93	77.1345	3481.93	78.2444	3481.93	75.1685	3481.93	76.0478	3481.93	73.5934	3481.93	74.196	3481.93	71.5244	3481.93	72.3151	3481.93	70.8293	3481.93	70.7613	3481.93	69.8725	3481.93	70.5915	3481.93	68.9812	3481.93	69.3341	3481.93	70.1527	3481.93	71.461	3481.93	68.845	3481.93	69.1637	3481.93	68.3939	3481.93	68.8718	3481.93	61.1115	3481.93	63.3063	3481.93	54.7814
3604.98	82.431	3604.98	82.6846	3604.98	82.7126	3604.98	83.1535	3604.98	83.1435	3604.98	83.1652	3604.98	83.1802	3604.98	82.6315	3604.98	82.6204	3604.98	81.5682	3604.98	81.4948	3604.98	79.6557	3604.98	79.7796	3604.98	77.329	3604.98	77.5599	3604.98	75.0549	3604.98	75.2643	3604.98	72.9313	3604.98	73.269	3604.98	71.2998	3604.98	71.8815	3604.98	69.5658	3604.98	69.5888	3604.98	70.0282	3604.98	70.1264	3604.98	68.8304	3604.98	69.2321	3604.98	69.9944	3604.98	70.6126	3604.98	68.9461	3604.98	69.8663	3604.98	68.2824	3604.98	68.0017	3604.98	60.8724	3604.98	64.1663	3604.98	52.4655
3732.42	82.9198	3732.42	83.1315	3732.42	83.2492	3732.42	83.4383	3732.42	83.6998	3732.42	83.3317	3732.42	83.8378	3732.42	82.5359	3732.42	83.3605	3732.42	81.1162	3732.42	82.0638	3732.42	79.484	3732.42	80.5602	3732.42	77.25	3732.42	78.5546	3732.42	75.0323	3732.42	76.2309	3732.42	72.8751	3732.42	73.7801	3732.42	71.4039	3732.42	72.3134	3732.42	69.3952	3732.42	70.495	3732.42	69.355	3732.42	69.7013	3732.42	69.2679	3732.42	68.9126	3732.42	70.0601	3732.42	70.8426	3732.42	69.4479	3732.42	70.6323	3732.42	67.8245	3732.42	69.1338	3732.42	60.7323	3732.42	64.3412	3732.42	54.7145
3864.26	82.328	3864.26	82.617	3864.26	82.5559	3864.26	83.095	3864.26	83.0891	3864.26	82.9842	3864.26	83.1416	3864.26	82.5342	3864.26	82.7993	3864.26	81.1558	3864.26	81.5698	3864.26	79.3275	3864.26	79.7732	3864.26	77.3434	3864.26	78.0584	3864.26	74.9695	3864.26	75.8036	3864.26	72.5742	3864.26	73.3579	3864.26	71.0734	3864.26	71.0098	3864.26	69.2521	3864.26	70.4387	3864.26	68.3266	3864.26	68.585	3864.26	69.5948	3864.26	69.1696	3864.26	69.547	3864.26	70.6997	3864.26	69.3698	3864.26	70.0588	3864.26	67.4954	3864.26	68.7372	3864.26	62.1617	3864.26	62.2888	3864.26	55.8041
4000.49	82.6575	4000.49	82.8899	4000.49	82.8665	4000.49	83.2137	4000.49	83.3827	4000.49	83.1063	4000.49	83.5448	4000.49	82.3828	4000.49	82.9325	4000.49	80.9974	4000.49	81.8954	4000.49	79.1261	4000.49	80.2557	4000.49	77.1856	4000.49	78.1258	4000.49	74.7991	4000.49	75.9355	4000.49	72.6627	4000.49	74.0528	4000.49	70.5861	4000.49	71.9883	4000.49	69.5453	4000.49	70.7439	4000.49	68.6347	4000.49	69.3651	4000.49	68.2018	4000.49	68.3953	4000.49	70.1134	4000.49	69.8331	4000.49	68.5047	4000.49	70.6331	4000.49	68.2631	4000.49	69.1236	4000.49	60.8527	4000.49	64.5136	4000.49	49.5931
4141.11	82.9535	4141.11	82.947	4141.11	82.9933	4141.11	83.149	4141.11	83.1782	4141.11	83.0342	4141.11	83.2112	4141.11	82.3819	4141.11	82.8402	4141.11	81.1369	4141.11	81.6647	4141.11	79.1012	4141.11	79.9807	4141.11	77.2354	4141.11	78.005	4141.11	74.7587	4141.11	75.3175	4141.11	72.3732	4141.11	73.4969	4141.11	70.0478	4141.11	71.3097	4141.11	69.2995	4141.11	70.4158	4141.11	68.5853	4141.11	67.5342	4141.11	68.9294	4141.11	69.8368	4141.11	69.3152	4141.11	70.2368	4141.11	68.7581	4141.11	70.6132	4141.11	67.1356	4141.11	68.3988	4141.11	61.2725	4141.11	63.9572	4141.11	45.0243
4287.6	83.0608	4287.6	83.0973	4287.6	83.2719	4287.6	82.9768	4287.6	83.3379	4287.6	82.7706	4287.6	83.2153	4287.6	81.8339	4287.6	82.6639	4287.6	80.7393	4287.6	81.7829	4287.6	78.8402	4287.6	79.8095	4287.6	76.6865	4287.6	77.9026	4287.6	74.3924	4287.6	75.9722	4287.6	72.4837	4287.6	72.9901	4287.6	70.3329	4287.6	70.4743	4287.6	69.2175	4287.6	69.9134	4287.6	66.8258	4287.6	69.2593	4287.6	68.2915	4287.6	67.6257	4287.6	68.8119	4287.6	69.0265	4287.6	68.5343	4287.6	69.7768	4287.6	66.9866	4287.6	67.0145	4287.6	59.6458	4287.6	62.37	4287.6	48.1859
4438.48	83.6814	4438.48	83.6288	4438.48	83.6012	4438.48	83.3355	4438.48	83.4184	4438.48	83.0347	4438.48	83.236	4438.48	82.4149	4438.48	82.5142	4438.48	81.1367	4438.48	81.5993	4438.48	79.5523	4438.48	80.1301	4438.48	77.1861	4438.48	77.8523	4438.48	74.6208	4438.48	75.9076	4438.48	71.9601	4438.48	74.0527	4438.48	69.0601	4438.48	71.8418	4438.48	68.9563	4438.48	69.6772	4438.48	67.1144	4438.48	67.7748	4438.48	67.9561	4438.48	68.5642	4438.48	67.8201	4438.48	67.4344	4438.48	67.3232	4438.48	70.2833	4438.48	64.9031	4438.48	65.5077	4438.48	59.969	4438.48	63.4595	4438.48	54.7978
4595.21	83.8235	4595.21	83.6732	4595.21	83.6634	4595.21	83.0421	4595.21	83.3264	4595.21	82.3756	4595.21	83.1315	4595.21	81.7686	4595.21	82.7489	4595.21	80.6474	4595.21	81.6046	4595.21	78.8725	4595.21	80.3037	4595.21	76.8631	4595.21	78.4653	4595.21	74.6974	4595.21	75.7056	4595.21	71.8949	4595.21	73.0381	4595.21	70.4519	4595.21	71.2988	4595.21	68.7981	4595.21	69.346	4595.21	67.615	4595.21	69.289	4595.21	67.9263	4595.21	68.1464	4595.21	68.2434	4595.21	68.1411	4595.21	69.6324	4595.21	69.6937	4595.21	63.2522	4595.21	66.2752	4595.21	62.2423	4595.21	58.2995	4595.21	57.4663
4756.35	83.6695	4756.35	83.4819	4756.35	83.763	4756.35	83.1876	4756.35	83.4894	4756.35	82.6774	4756.35	83.0971	4756.35	82.2257	4756.35	82.6792	4756.35	81.423	4756.35	82.1323	4756.35	79.6809	4756.35	80.6343	4756.35	77.1258	4756.35	78.4402	4756.35	74.6064	4756.35	76.3715	4756.35	72.087	4756.35	73.9312	4756.35	69.6109	4756.35	71.5515	4756.35	67.8599	4756.35	68.955	4756.35	67.2098	4756.35	68.7642	4756.35	67.8781	4756.35	69.5598	4756.35	68.4616	4756.35	69.145	4756.35	68.8434	4756.35	69.4093	4756.35	65.9863	4756.35	66.2678	4756.35	60.5133	4756.35	62.2254	4756.35	54.6988
4924.8	83.7011	4924.8	83.2272	4924.8	83.4726	4924.8	82.8341	4924.8	83.1508	4924.8	82.4672	4924.8	83.159	4924.8	81.792	4924.8	82.6927	4924.8	80.6973	4924.8	81.8968	4924.8	78.9075	4924.8	80.612	4924.8	76.4655	4924.8	78.0834	4924.8	73.6579	4924.8	75.4506	4924.8	70.2915	4924.8	73.2939	4924.8	69.4601	4924.8	71.1928	4924.8	66.8328	4924.8	68.5932	4924.8	66.4511	4924.8	67.9898	4924.8	67.5981	4924.8	67.5268	4924.8	67.8169	4924.8	69.0558	4924.8	68.0316	4924.8	69.5219	4924.8	63.7765	4924.8	65.0719	4924.8	59.5636	4924.8	62.8671	4924.8	60.0042
5097.66	83.7934	5097.66	83.3928	5097.66	83.6525	5097.66	82.3688	5097.66	83.176	5097.66	82.1958	5097.66	83.1324	5097.66	81.5024	5097.66	83.0575	5097.66	80.2546	5097.66	82.2968	5097.66	78.4853	5097.66	80.6661	5097.66	76.5982	5097.66	78.5626	5097.66	73.6127	5097.66	75.4702	5097.66	70.8348	5097.66	72.8229	5097.66	68.6563	5097.66	70.5259	5097.66	67.2225	5097.66	68.1441	5097.66	65.9685	5097.66	68.4334	5097.66	65.2823	5097.66	66.7417	5097.66	67.9681	5097.66	69.0002	5097.66	68.4251	5097.66	69.342	5097.66	62.7899	5097.66	64.9174	5097.66	62.0573	5097.66	55.119	5097.66	57.2022
5277.83	83.9466	5277.83	83.2707	5277.83	83.7146	5277.83	82.4412	5277.83	83.0838	5277.83	81.8587	5277.83	82.9015	5277.83	81.4596	5277.83	82.4175	5277.83	80.0952	5277.83	81.5148	5277.83	77.9674	5277.83	79.9967	5277.83	75.2715	5277.83	77.6032	5277.83	72.85	5277.83	75.265	5277.83	69.8265	5277.83	72.5416	5277.83	67.6909	5277.83	69.9127	5277.83	65.6074	5277.83	67.1037	5277.83	65.4183	5277.83	67.0619	5277.83	64.5204	5277.83	66.6575	5277.83	65.1149	5277.83	67.3414	5277.83	66.9893	5277.83	67.8515	5277.83	62.4847	5277.83	63.4596	5277.83	56.5662	5277.83	56.2371	5277.83	59.9507
5463.87	83.7855	5463.87	83.1508	5463.87	83.5579	5463.87	82.0432	5463.87	82.8492	5463.87	81.4762	5463.87	82.6098	5463.87	80.7913	5463.87	82.3972	5463.87	79.2023	5463.87	81.5308	5463.87	77.1657	5463.87	79.6831	5463.87	74.3756	5463.87	77.4648	5463.87	71.2164	5463.87	74.4022	5463.87	68.6521	5463.87	71.7489	5463.87	66.538	5463.87	69.6602	5463.87	64.2924	5463.87	67.2166	5463.87	64.8251	5463.87	66.8181	5463.87	65.2169	5463.87	67.1342	5463.87	64.9821	5463.87	65.6893	5463.87	66.251	5463.87	67.4731	5463.87	60.1003	5463.87	62.6363	5463.87	55.204	5463.87	56.4585	5463.87	61.6147
5657.23	83.9156	5657.23	83.0514	5657.23	83.6551	5657.23	81.8197	5657.23	82.7163	5657.23	80.732	5657.23	81.9552	5657.23	80.0619	5657.23	81.6324	5657.23	78.5408	5657.23	80.5841	5657.23	76.3802	5657.23	78.8974	5657.23	74.1279	5657.23	76.4765	5657.23	71.2323	5657.23	73.8038	5657.23	68.5492	5657.23	71.3422	5657.23	66.3465	5657.23	68.8814	5657.23	64.8631	5657.23	66.1271	5657.23	63.2311	5657.23	65.6431	5657.23	65.9373	5657.23	65.3241	5657.23	64.8503	5657.23	66.3819	5657.23	66.1625	5657.23	65.9648	5657.23	60.3711	5657.23	62.6054	5657.23	56.7723	5657.23	51.4255	5657.23	59.857
5856.45	84.1758	5856.45	83.0964	5856.45	83.7266	5856.45	81.531	5856.45	82.6829	5856.45	80.4609	5856.45	81.5894	5856.45	80.0195	5856.45	81.2046	5856.45	78.8062	5856.45	80.6338	5856.45	77.102	5856.45	78.8097	5856.45	74.6417	5856.45	76.5695	5856.45	72.0924	5856.45	73.7498	5856.45	69.4915	5856.45	71.2064	5856.45	66.5603	5856.45	68.8835	5856.45	64.8139	5856.45	67.176	5856.45	62.0424	5856.45	65.1728	5856.45	65.0968	5856.45	67.2189	5856.45	64.7294	5856.45	65.3887	5856.45	65.8448	5856.45	65.5312	5856.45	60.3873	5856.45	61.1016	5856.45	49.9032	5856.45	53.6982	5856.45	61.3815
6062.99	84.7847	6062.99	83.8044	6062.99	84.362	6062.99	82.2895	6062.99	83.0317	6062.99	81.3287	6062.99	81.9731	6062.99	80.7657	6062.99	81.4015	6062.99	79.9976	6062.99	80.713	6062.99	78.357	6062.99	79.2036	6062.99	76.1805	6062.99	77.2662	6062.99	73.1258	6062.99	74.4099	6062.99	70.3062	6062.99	71.6503	6062.99	67.3157	6062.99	68.8177	6062.99	66.0371	6062.99	66.7174	6062.99	64.2162	6062.99	64.8936	6062.99	66.0123	6062.99	66.5028	6062.99	64.2027	6062.99	65.9035	6062.99	65.1046	6062.99	64.9482	6062.99	59.8797	6062.99	62.092	6062.99	52.058	6062.99	53.5464	6062.99	61.8865
6276.86	84.7673	6276.86	83.8195	6276.86	84.3082	6276.86	82.4385	6276.86	82.9586	6276.86	81.5415	6276.86	81.8367	6276.86	81.159	6276.86	81.3857	6276.86	80.46	6276.86	80.9697	6276.86	78.925	6276.86	79.583	6276.86	76.4295	6276.86	77.1831	6276.86	73.5294	6276.86	74.5768	6276.86	70.9083	6276.86	71.9716	6276.86	68.2667	6276.86	68.9661	6276.86	65.8394	6276.86	67.6215	6276.86	63.9136	6276.86	65.7067	6276.86	66.3218	6276.86	65.7074	6276.86	64.6573	6276.86	66.3567	6276.86	64.8817	6276.86	64.7473	6276.86	59.8626	6276.86	62.1667	6276.86	50.5827	6276.86	50.7071	6276.86	62.2708
6498.05	83.9711	6498.05	83.3597	6498.05	83.4473	6498.05	82.1183	6498.05	82.4097	6498.05	81.4951	6498.05	81.5344	6498.05	81.2612	6498.05	81.2119	6498.05	80.6845	6498.05	80.5775	6498.05	79.4729	6498.05	79.4907	6498.05	77.2444	6498.05	77.4434	6498.05	74.526	6498.05	74.956	6498.05	71.654	6498.05	71.5275	6498.05	68.8194	6498.05	68.766	6498.05	67.1633	6498.05	66.1742	6498.05	65.658	6498.05	63.8214	6498.05	66.7654	6498.05	65.7523	6498.05	64.5021	6498.05	65.5611	6498.05	65.0934	6498.05	64.26	6498.05	59.6083	6498.05	60.3891	6498.05	50.6649	6498.05	51.6095	6498.05	62.207
6726.56	82.8953	6726.56	82.396	6726.56	82.564	6726.56	81.5698	6726.56	81.8873	6726.56	80.9039	6726.56	80.9526	6726.56	80.965	6726.56	80.701	6726.56	80.6094	6726.56	80.1801	6726.56	79.4871	6726.56	78.8182	6726.56	77.321	6726.56	76.8025	6726.56	74.3016	6726.56	73.8445	6726.56	71.5349	6726.56	70.8663	6726.56	69.2674	6726.56	67.9198	6726.56	66.0952	6726.56	66.9784	6726.56	64.8083	6726.56	64.9364	6726.56	66.4343	6726.56	64.2279	6726.56	63.8354	6726.56	64.1803	6726.56	64.8163	6726.56	63.0333	6726.56	60.0685	6726.56	58.8008	6726.56	54.4218	6726.56	48.0223	6726.56	61.2291
6963.87	82.7067	6963.87	82.3628	6963.87	82.4885	6963.87	81.7053	6963.87	81.8303	6963.87	80.7873	6963.87	80.844	6963.87	80.8138	6963.87	80.3612	6963.87	80.4604	6963.87	79.7273	6963.87	79.3495	6963.87	78.6626	6963.87	77.0304	6963.87	76.4708	6963.87	74.2296	6963.87	73.8905	6963.87	71.0175	6963.87	70.7934	6963.87	68.6379	6963.87	67.6049	6963.87	65.3895	6963.87	65.5705	6963.87	64.6852	6963.87	64.1665	6963.87	65.6051	6963.87	63.6047	6963.87	63.8318	6963.87	63.8519	6963.87	64.3476	6963.87	62.1253	6963.87	59.8731	6963.87	59.2476	6963.87	53.4027	6963.87	50.9261	6963.87	61.0448
7209.96	82.7387	7209.96	82.6976	7209.96	82.4917	7209.96	82.0124	7209.96	82.0088	7209.96	81.1032	7209.96	80.6315	7209.96	80.8305	7209.96	79.9379	7209.96	80.5964	7209.96	79.642	7209.96	79.3997	7209.96	78.4405	7209.96	77.2349	7209.96	76.3452	7209.96	74.2591	7209.96	73.5954	7209.96	71.1622	7209.96	70.3924	7209.96	68.3092	7209.96	67.61	7209.96	65.4496	7209.96	65.3208	7209.96	65.7009	7209.96	63.832	7209.96	64.9064	7209.96	63.5575	7209.96	63.4693	7209.96	61.6836	7209.96	63.867	7209.96	61.5512	7209.96	58.9073	7209.96	58.2125	7209.96	55.5095	7209.96	48.3486	7209.96	60.3116
7464.84	82.6008	7464.84	82.7147	7464.84	82.5808	7464.84	82.2806	7464.84	81.9893	7464.84	80.9484	7464.84	80.5155	7464.84	80.6619	7464.84	79.8007	7464.84	80.5716	7464.84	79.657	7464.84	79.3737	7464.84	78.5225	7464.84	77.1042	7464.84	76.1282	7464.84	73.8962	7464.84	73.4489	7464.84	71.1799	7464.84	70.3632	7464.84	68.482	7464.84	67.1546	7464.84	65.1169	7464.84	64.3304	7464.84	64.8943	7464.84	63.8245	7464.84	64.4896	7464.84	63.3866	7464.84	63.2741	7464.84	61.831	7464.84	62.804	7464.84	60.7953	7464.84	58.7668	7464.84	58.758	7464.84	55.2318	7464.84	51.8975	7464.84	58.1961
7727.05	82.3159	7727.05	82.439	7727.05	82.1533	7727.05	81.8874	7727.05	81.5722	7727.05	80.463	7727.05	80.0377	7727.05	80.1064	7727.05	79.2876	7727.05	80.1992	7727.05	79.3805	7727.05	79.0025	7727.05	78.4899	7727.05	76.546	7727.05	76.3067	7727.05	73.4348	7727.05	73.6476	7727.05	70.8225	7727.05	70.0038	7727.05	67.6284	7727.05	67.5985	7727.05	65.5759	7727.05	64.1678	7727.05	65.4081	7727.05	63.893	7727.05	62.9396	7727.05	61.1767	7727.05	62.3764	7727.05	63.4077	7727.05	62.1323	7727.05	61.0185	7727.05	57.3881	7727.05	58.279	7727.05	55.4421	7727.05	51.9191	7727.05	58.163
7999.51	81.5052	7999.51	81.8894	7999.51	81.6258	7999.51	81.3208	7999.51	80.9151	7999.51	79.833	7999.51	79.3169	7999.51	79.5516	7999.51	78.6323	7999.51	79.6585	7999.51	78.8831	7999.51	78.7626	7999.51	78.096	7999.51	76.3448	7999.51	76.3205	7999.51	73.2679	7999.51	73.5417	7999.51	70.7128	7999.51	70.1141	7999.51	67.1939	7999.51	67.3878	7999.51	64.7311	7999.51	64.1974	7999.51	64.2174	7999.51	64.2222	7999.51	62.8412	7999.51	61.4031	7999.51	61.3858	7999.51	62.4061	7999.51	61.3047	7999.51	60.8862	7999.51	56.8754	7999.51	57.3983	7999.51	56.3543	7999.51	54.8358	7999.51	56.6094
8282.23	81.27	8282.23	81.3977	8282.23	81.292	8282.23	80.878	8282.23	80.4219	8282.23	79.5732	8282.23	78.8295	8282.23	79.2756	8282.23	78.2811	8282.23	79.433	8282.23	78.5538	8282.23	78.4344	8282.23	77.972	8282.23	75.7697	8282.23	75.8897	8282.23	72.9052	8282.23	73.1935	8282.23	69.9139	8282.23	69.209	8282.23	66.2765	8282.23	67.1345	8282.23	64.3285	8282.23	63.3272	8282.23	64.1295	8282.23	62.7525	8282.23	60.8605	8282.23	60.511	8282.23	62.031	8282.23	62.6351	8282.23	60.6262	8282.23	60.6008	8282.23	56.638	8282.23	55.3408	8282.23	56.3738	8282.23	54.914	8282.23	55.3839
8573.73	81.3345	8573.73	81.4863	8573.73	81.262	8573.73	81.1546	8573.73	80.8212	8573.73	80.0421	8573.73	79.4973	8573.73	79.3559	8573.73	78.5752	8573.73	79.192	8573.73	78.5256	8573.73	78.0914	8573.73	77.769	8573.73	75.5312	8573.73	75.4184	8573.73	72.897	8573.73	72.5806	8573.73	69.3852	8573.73	69.4125	8573.73	65.8397	8573.73	66.8638	8573.73	63.2673	8573.73	63.0505	8573.73	63.0989	8573.73	61.4149	8573.73	60.3747	8573.73	58.9742	8573.73	61.4504	8573.73	61.6881	8573.73	59.1045	8573.73	59.5375	8573.73	55.9892	8573.73	54.7583	8573.73	55.5401	8573.73	55.3295	8573.73	54.3774
8876.95	82.054	8876.95	82.0665	8876.95	81.9105	8876.95	81.7438	8876.95	81.6291	8876.95	80.5377	8876.95	80.4524	8876.95	79.2463	8876.95	78.8767	8876.95	78.9502	8876.95	78.6582	8876.95	77.9781	8876.95	77.8545	8876.95	75.6895	8876.95	75.6065	8876.95	72.8057	8876.95	72.8082	8876.95	69.1922	8876.95	69.6598	8876.95	65.7265	8876.95	66.9154	8876.95	63.2019	8876.95	63.2577	8876.95	62.8956	8876.95	61.4333	8876.95	59.6586	8876.95	59.6337	8876.95	60.2724	8876.95	61.5224	8876.95	58.0984	8876.95	58.3213	8876.95	58.2531	8876.95	55.5836	8876.95	55.919	8876.95	56.114	8876.95	54.223
9188.96	82.8039	9188.96	82.5958	9188.96	82.612	9188.96	82.0113	9188.96	82.0683	9188.96	80.9322	9188.96	80.8655	9188.96	79.1836	9188.96	78.9359	9188.96	78.9191	9188.96	78.6911	9188.96	78.0182	9188.96	77.9495	9188.96	75.66	9188.96	75.8258	9188.96	72.2613	9188.96	72.955	9188.96	69.1815	9188.96	69.4822	9188.96	65.4546	9188.96	66.2706	9188.96	62.9853	9188.96	62.9962	9188.96	62.0596	9188.96	60.8608	9188.96	58.9849	9188.96	58.1077	9188.96	61.2591	9188.96	62.0019	9188.96	57.5171	9188.96	57.9148	9188.96	58.1139	9188.96	56.1435	9188.96	55.6771	9188.96	57.198	9188.96	52.0187
9514.16	83.4239	9514.16	82.8712	9514.16	83.0287	9514.16	82.1241	9514.16	82.3451	9514.16	81.0403	9514.16	81.2798	9514.16	79.2829	9514.16	79.2575	9514.16	78.8251	9514.16	78.6402	9514.16	77.7429	9514.16	77.8692	9514.16	75.2413	9514.16	75.6165	9514.16	71.7422	9514.16	72.6257	9514.16	68.5592	9514.16	68.5932	9514.16	64.7565	9514.16	65.2654	9514.16	62.1949	9514.16	62.1234	9514.16	60.5484	9514.16	60.7368	9514.16	57.426	9514.16	57.0883	9514.16	60.2811	9514.16	61.2839	9514.16	54.9339	9514.16	57.0042	9514.16	57.0354	9514.16	55.4579	9514.16	55.713	9514.16	56.9719	9514.16	44.6935
9849.61	83.7879	9849.61	83.2231	9849.61	83.3833	9849.61	82.6229	9849.61	82.8241	9849.61	81.3196	9849.61	81.8296	9849.61	79.4307	9849.61	79.5355	9849.61	78.5043	9849.61	78.403	9849.61	77.2972	9849.61	77.532	9849.61	74.5386	9849.61	74.9927	9849.61	71.061	9849.61	71.6304	9849.61	67.5712	9849.61	67.8129	9849.61	63.2971	9849.61	64.7246	9849.61	61.6892	9849.61	61.3629	9849.61	59.3856	9849.61	58.9431	9849.61	56.1086	9849.61	56.8701	9849.61	59.9459	9849.61	60.3129	9849.61	54.7259	9849.61	56.4871	9849.61	56.4262	9849.61	54.0856	9849.61	55.5582	9849.61	56.4102	9849.61	42.3695
10196.8	84.2162	10196.8	83.6584	10196.8	83.8278	10196.8	83.0926	10196.8	83.1913	10196.8	81.5647	10196.8	81.9436	10196.8	79.1863	10196.8	79.4802	10196.8	78.0873	10196.8	78.1678	10196.8	76.6547	10196.8	76.9965	10196.8	73.685	10196.8	74.2589	10196.8	70.2871	10196.8	70.7807	10196.8	66.7973	10196.8	67.2687	10196.8	62.2059	10196.8	64.0912	10196.8	60.5914	10196.8	60.2779	10196.8	58.5459	10196.8	57.7147	10196.8	55.4577	10196.8	57.7127	10196.8	60.218	10196.8	58.4667	10196.8	54.1019	10196.8	54.8043	10196.8	55.0864	10196.8	53.9519	10196.8	53.5488	10196.8	55.0724	10196.8	39.0042
10555.7	84.4026	10555.7	83.8453	10555.7	84.1592	10555.7	83.0757	10555.7	83.2332	10555.7	81.5089	10555.7	81.8496	10555.7	78.9332	10555.7	79.28	10555.7	77.5943	10555.7	77.9126	10555.7	75.8728	10555.7	76.3757	10555.7	72.7733	10555.7	73.3324	10555.7	68.9182	10555.7	69.8736	10555.7	65.2576	10555.7	66.0938	10555.7	61.4078	10555.7	62.2179	10555.7	58.4517	10555.7	58.4429	10555.7	57.7968	10555.7	56.6455	10555.7	57.0621	10555.7	56.3847	10555.7	59.4216	10555.7	56.7225	10555.7	53.6279	10555.7	51.8702	10555.7	54.7094	10555.7	52.1574	10555.7	52.4844	10555.7	53.4327	10555.7	37.2417
10927.7	84.7995	10927.7	84.0815	10927.7	84.3544	10927.7	82.9385	10927.7	83.2263	10927.7	81.221	10927.7	81.5509	10927.7	78.5915	10927.7	78.978	10927.7	76.8154	10927.7	76.905	10927.7	74.8212	10927.7	74.8351	10927.7	71.683	10927.7	71.7092	10927.7	67.4615	10927.7	68.1336	10927.7	64.4644	10927.7	63.606	10927.7	60.0439	10927.7	59.4916	10927.7	57.6673	10927.7	56.2491	10927.7	55.0842	10927.7	54.4706	10927.7	55.7861	10927.7	53.8223	10927.7	57.932	10927.7	54.4642	10927.7	53.2998	10927.7	50.1329	10927.7	51.8182	10927.7	48.8737	10927.7	51.155	10927.7	51.2645	10927.7	30.0589
11313	84.7629	11313	84.3013	11313	84.4091	11313	83.1918	11313	83.3245	11313	81.3964	11313	81.4841	11313	78.4543	11313	78.5984	11313	75.88	11313	75.7914	11313	73.392	11313	73.1304	11313	70.4136	11313	70.0361	11313	66.8016	11313	65.9153	11313	63.3308	11313	61.7164	11313	58.3224	11313	58.1269	11313	56.1495	11313	54.6136	11313	53.1603	11313	51.9614	11313	53.3348	11313	51.5102	11313	55.6265	11313	51.4783	11313	49.4894	11313	50.2995	11313	50.3692	11313	46.444	11313	49.5079	11313	49.8204	11313	35.3805
11712.9	85.1556	11712.9	84.5828	11712.9	84.776	11712.9	83.1765	11712.9	83.5668	11712.9	81.2852	11712.9	81.4939	11712.9	78.0239	11712.9	78.2694	11712.9	75.4141	11712.9	75.2245	11712.9	72.6618	11712.9	71.9514	11712.9	69.0921	11712.9	68.0175	11712.9	65.9228	11712.9	63.3882	11712.9	61.1778	11712.9	59.5579	11712.9	56.6424	11712.9	56.6811	11712.9	54.2938	11712.9	51.9645	11712.9	51.9409	11712.9	48.519	11712.9	52.8233	11712.9	48.5652	11712.9	54.4203	11712.9	48.0667	11712.9	46.2152	11712.9	48.4337	11712.9	51.293	11712.9	45.2809	11712.9	48.5312	11712.9	47.5981	11712.9	39.8882
12126	85.3521	12126	84.8952	12126	85.0421	12126	83.5252	12126	83.7531	12126	81.6264	12126	81.5938	12126	78.0659	12126	78.3191	12126	74.9133	12126	75.1501	12126	71.9146	12126	71.3869	12126	68.0936	12126	67.154	12126	63.8401	12126	62.1457	12126	59.508	12126	57.6342	12126	56.3465	12126	54.1997	12126	53.4252	12126	50.8254	12126	50.2118	12126	46.7079	12126	52.7979	12126	48.808	12126	52.278	12126	48.6137	12126	46.3755	12126	46.177	12126	49.1495	12126	37.3671	12126	48.6858	12126	44.1194	12126	33.535
12553.7	85.6905	12553.7	85.248	12553.7	85.4768	12553.7	83.7912	12553.7	84.137	12553.7	81.7191	12553.7	81.8817	12553.7	78.1259	12553.7	78.4766	12553.7	74.9791	12553.7	75.0155	12553.7	71.7925	12553.7	71.2339	12553.7	67.9677	12553.7	67.1231	12553.7	63.8934	12553.7	62.0926	12553.7	60.072	12553.7	57.9603	12553.7	56.2194	12553.7	54.391	12553.7	53.0511	12553.7	52.3389	12553.7	49.1033	12553.7	47.0627	12553.7	52.8092	12553.7	49.5083	12553.7	50.3596	12553.7	50.5156	12553.7	47.0389	12553.7	45.3288	12553.7	46.1896	12553.7	36.8606	12553.7	47.3387	12553.7	41.2792	12553.7	33.8095
12996.1	85.9292	12996.1	85.4686	12996.1	85.6573	12996.1	83.9484	12996.1	84.4449	12996.1	81.9103	12996.1	82.1902	12996.1	78.4393	12996.1	78.7081	12996.1	74.9818	12996.1	75.1774	12996.1	71.7317	12996.1	71.4053	12996.1	67.4242	12996.1	66.9862	12996.1	64.2711	12996.1	63.1657	12996.1	59.9159	12996.1	59.5032	12996.1	56.2047	12996.1	56.2479	12996.1	51.9985	12996.1	52.8357	12996.1	49.189	12996.1	49.0437	12996.1	52.44	12996.1	49.6212	12996.1	49.0849	12996.1	50.9672	12996.1	44.6998	12996.1	43.9587	12996.1	45.5227	12996.1	38.8423	12996.1	46.5276	12996.1	43.2976	12996.1	35.0233
13454.6	85.8805	13454.6	85.3693	13454.6	85.5527	13454.6	83.7787	13454.6	84.2129	13454.6	81.6225	13454.6	81.8284	13454.6	77.9506	13454.6	78.2512	13454.6	74.0638	13454.6	74.4055	13454.6	70.4686	13454.6	70.4384	13454.6	65.9415	13454.6	65.7361	13454.6	62.917	13454.6	62.5156	13454.6	59.3964	13454.6	59.1352	13454.6	55.6887	13454.6	55.4652	13454.6	51.7494	13454.6	51.515	13454.6	46.875	13454.6	48.8454	13454.6	48.9779	13454.6	47.7749	13454.6	49.2689	13454.6	49.6277	13454.6	42.7224	13454.6	44.3044	13454.6	47.4523	13454.6	33.1895	13454.6	45.8665	13454.6	43.1167	13454.6	36.1472
13929.2	85.6928	13929.2	85.2025	13929.2	85.4018	13929.2	83.4761	13929.2	83.9017	13929.2	81.0545	13929.2	81.2731	13929.2	76.9959	13929.2	77.3753	13929.2	72.5667	13929.2	73.0658	13929.2	68.914	13929.2	69.0661	13929.2	64.8347	13929.2	65.1533	13929.2	62.3827	13929.2	62.744	13929.2	59.3766	13929.2	59.5099	13929.2	56.1313	13929.2	55.8824	13929.2	52.4122	13929.2	52.1866	13929.2	47.9061	13929.2	50.0975	13929.2	48.6538	13929.2	47.9706	13929.2	49.1629	13929.2	51.2867	13929.2	43.0657	13929.2	44.5637	13929.2	47.058	13929.2	38.0717	13929.2	46.7512	13929.2	40.7408	13929.2	34.6985
14419.9	84.8572	14419.9	84.1485	14419.9	84.5665	14419.9	82.5525	14419.9	83.0866	14419.9	80.0762	14419.9	80.438	14419.9	76.3616	14419.9	76.8222	14419.9	71.7886	14419.9	72.4734	14419.9	69.4385	14419.9	69.6802	14419.9	66.5141	14419.9	67.3586	14419.9	64.222	14419.9	65.2173	14419.9	61.0152	14419.9	62.0949	14419.9	56.632	14419.9	58.2795	14419.9	53.647	14419.9	55.005	14419.9	50.211	14419.9	51.4193	14419.9	49.7395	14419.9	49.2516	14419.9	50.1363	14419.9	52.6157	14419.9	43.8107	14419.9	47.0483	14419.9	48.5302	14419.9	42.193	14419.9	47.3248	14419.9	42.6144	14419.9	36.537
14928.2	82.6438	14928.2	82.2429	14928.2	82.5086	14928.2	81.3047	14928.2	81.9245	14928.2	79.9186	14928.2	80.4154	14928.2	77.4894	14928.2	78.1421	14928.2	73.831	14928.2	74.7795	14928.2	71.9737	14928.2	72.3567	14928.2	68.5594	14928.2	69.7181	14928.2	65.6171	14928.2	66.6345	14928.2	61.7945	14928.2	62.9374	14928.2	57.3495	14928.2	59.0292	14928.2	55.151	14928.2	56.3053	14928.2	51.1963	14928.2	51.4515	14928.2	50.5188	14928.2	47.4321	14928.2	50.6623	14928.2	51.3717	14928.2	42.8462	14928.2	48.679	14928.2	48.356	14928.2	42.9704	14928.2	46.8203	14928.2	37.0079	14928.2	38.7746
15455.6	87.433	15455.6	86.6877	15455.6	86.959	15455.6	84.8011	15455.6	85.2232	15455.6	81.7893	15455.6	81.9993	15455.6	77.4393	15455.6	77.8993	15455.6	71.6595	15455.6	72.62	15455.6	65.1953	15455.6	65.9686	15455.6	54.7802	15455.6	57.5235	15455.6	45.6544	15455.6	46.7092	15455.6	36.6842	15455.6	42.0781	15455.6	37.0808	15455.6	39.8131	15455.6	34.5942	15455.6	37.3715	15455.6	31.2291	15455.6	32.1414	15455.6	31.1122	15455.6	30.5367	15455.6	21.5418	15455.6	39.7592	15455.6	28.0838	15455.6	40.8897	15455.6	36.6031	15455.6	30.0122	15455.6	28.544	15455.6	39.9306	15455.6	32.1965
16000.5	86.9241	16000.5	86.1098	16000.5	86.3464	16000.5	83.9726	16000.5	84.3689	16000.5	80.4971	16000.5	80.592	16000.5	74.8728	16000.5	75.1815	16000.5	66.8712	16000.5	67.227	16000.5	58.291	16000.5	55.0098	16000.5	58.4447	16000.5	57.9179	16000.5	57.978	16000.5	58.2042	16000.5	55.4939	16000.5	55.8582	16000.5	51.6033	16000.5	51.5384	16000.5	48.7791	16000.5	46.7129	16000.5	45.0799	16000.5	45.5061	16000.5	42.6964	16000.5	28.1152	16000.5	42.2799	16000.5	44.9875	16000.5	26.274	16000.5	46.9443	16000.5	45.9253	16000.5	34.3282	16000.5	41.8089	16000.5	40.3793	16000.5	38.4817
16564.5	86.0621	16564.5	85.2788	16564.5	85.4678	16564.5	83.0133	16564.5	83.2576	16564.5	79.2905	16564.5	79.0415	16564.5	73.1484	16564.5	72.7392	16564.5	63.6963	16564.5	62.1551	16564.5	60.4889	16564.5	59.5406	16564.5	62.4064	16564.5	63.0285	16564.5	60.4621	16564.5	61.8677	16564.5	57.7282	16564.5	58.7048	16564.5	53.4218	16564.5	54.3145	16564.5	50.1484	16564.5	50.6007	16564.5	46.431	16564.5	48.4399	16564.5	42.6074	16564.5	33.5133	16564.5	43.6227	16564.5	45.6027	16564.5	30.1294	16564.5	48.3922	16564.5	46.4837	16564.5	32.1528	16564.5	41.7136	16564.5	41.1392	16564.5	36.7507
17148.9	85.3047	17148.9	84.5693	17148.9	84.5244	17148.9	82.234	17148.9	82.0999	17148.9	78.1433	17148.9	77.3541	17148.9	71.506	17148.9	69.8448	17148.9	61.152	17148.9	57.967	17148.9	62.9061	17148.9	63.4524	17148.9	64.278	17148.9	65.061	17148.9	61.7371	17148.9	63.3917	17148.9	58.4946	17148.9	59.6644	17148.9	54.7149	17148.9	55.007	17148.9	50.9326	17148.9	51.347	17148.9	45.6437	17148.9	48.8691	17148.9	41.9318	17148.9	40.2438	17148.9	44.5691	17148.9	44.2907	17148.9	32.3994	17148.9	47.6605	17148.9	46.086	17148.9	33.9605	17148.9	41.1651	17148.9	38.3439	17148.9	36.832
17752.4	84.4191	17752.4	83.6464	17752.4	83.4439	17752.4	81.2602	17752.4	80.6908	17752.4	76.7527	17752.4	75.317	17752.4	69.3171	17752.4	66.7475	17752.4	60.5275	17752.4	60.4168	17752.4	64.2543	17752.4	65.2194	17752.4	65.3461	17752.4	65.7645	17752.4	62.6256	17752.4	63.3821	17752.4	59.1374	17752.4	59.5404	17752.4	54.8799	17752.4	54.7566	17752.4	50.5046	17752.4	51.1488	17752.4	45.9607	17752.4	47.6368	17752.4	37.9632	17752.4	39.4692	17752.4	44.1617	17752.4	42.8389	17752.4	33.7274	17752.4	46.6071	17752.4	44.1072	17752.4	36.7269	17752.4	40.3214	17752.4	37.3329	17752.4	34.9778
18379.4	83.2536	18379.4	82.406	18379.4	82.1568	18379.4	79.7524	18379.4	78.9416	18379.4	74.6421	18379.4	72.7744	18379.4	66.2648	18379.4	64.1103	18379.4	61.9506	18379.4	62.7642	18379.4	64.9547	18379.4	65.1439	18379.4	65.5549	18379.4	64.8609	18379.4	62.1515	18379.4	62.1431	18379.4	58.6162	18379.4	58.1846	18379.4	54.5547	18379.4	53.1205	18379.4	50.0636	18379.4	49.4013	18379.4	45.6787	18379.4	46.5446	18379.4	36.1119	18379.4	39.1211	18379.4	42.9559	18379.4	42.4252	18379.4	34.8065	18379.4	43.504	18379.4	41.9122	18379.4	38.1646	18379.4	38.5816	18379.4	33.4517	18379.4	34.14
19026.9	82.1358	19026.9	81.2134	19026.9	80.8872	19026.9	78.1769	19026.9	77.3826	19026.9	72.3368	19026.9	70.4647	19026.9	63.6472	19026.9	62.8476	19026.9	62.9548	19026.9	63.7201	19026.9	64.8423	19026.9	64.6572	19026.9	64.7834	19026.9	63.6457	19026.9	60.9974	19026.9	60.4117	19026.9	57.3109	19026.9	56.092	19026.9	52.6922	19026.9	50.7265	19026.9	48.4195	19026.9	47.3465	19026.9	44.5518	19026.9	45.0348	19026.9	30.9458	19026.9	38.4263	19026.9	40.4403	19026.9	40.8806	19026.9	32.8492	19026.9	40.9665	19026.9	39.8111	19026.9	36.6856	19026.9	38.3817	19026.9	31.1819	19026.9	30.6688
19697.8	81.356	19697.8	80.2758	19697.8	80.0876	19697.8	76.8307	19697.8	76.2929	19697.8	70.3491	19697.8	68.9174	19697.8	62.0602	19697.8	63.5587	19697.8	63.7825	19697.8	64.8512	19697.8	64.2822	19697.8	64.3964	19697.8	63.7641	19697.8	62.6676	19697.8	59.7551	19697.8	59.3158	19697.8	56.0065	19697.8	54.7862	19697.8	50.5663	19697.8	49.4161	19697.8	46.1082	19697.8	45.0941	19697.8	43.1411	19697.8	42.3466	19697.8	30.8232	19697.8	38.0583	19697.8	37.0241	19697.8	41.276	19697.8	32.3882	19697.8	37.2507	19697.8	35.8209	19697.8	37.6866	19697.8	37.3119	19697.8	20.5049	19697.8	28.5097
19999.5	81.1704	19999.5	79.7901	19999.5	79.6998	19999.5	76.1023	19999.5	75.7142	19999.5	68.7811	19999.5	68.1224	19999.5	61.6127	19999.5	63.9052	19999.5	64.2928	19999.5	65.0652	19999.5	63.9192	19999.5	64.2032	19999.5	63.4766	19999.5	62.5634	19999.5	59.4487	19999.5	59.0082	19999.5	55.2024	19999.5	54.0473	19999.5	48.4117	19999.5	50.8768	19999.5	47.6214	19999.5	43.6419	19999.5	42.4501	19999.5	41.8494	19999.5	35.7493	19999.5	31.2422	19999.5	30.5619	19999.5	42.2745	19999.5	32.1149	19999.5	39.5581	19999.5	33.9848	19999.5	30.5602	19999.5	40.9377	19999.5	38.4074	19999.5	30.835
