"SPL Horizontal"
"On-Axis"		"10°"		"-10°"		"20°"		"-20°"		"30°"		"-30°"		"40°"		"-40°"		"50°"		"-50°"		"60°"		"-60°"		"70°"		"-70°"		"80°"		"-80°"		"90°"		"-90°"		"100°"		"-100°"		"110°"		"-110°"		"120°"		"-120°"		"130°"		"-130°"		"140°"		"-140°"		"150°"		"-150°"		"160°"		"-160°"		"170°"		"-170°"		"180°"
"Frequency / Hz"	"Sound Pressure Level / dB (re 20 µPa/V)  [2.83  V @ 1. m]"	"Frequency / Hz"	"Sound Pressure Level / dB (re 20 µPa/V)  [2.83  V @ 1. m]"	"Frequency / Hz"	"Sound Pressure Level / dB (re 20 µPa/V)  [2.83  V @ 1. m]"	"Frequency / Hz"	"Sound Pressure Level / dB (re 20 µPa/V)  [2.83  V @ 1. m]"	"Frequency / Hz"	"Sound Pressure Level / dB (re 20 µPa/V)  [2.83  V @ 1. m]"	"Frequency / Hz"	"Sound Pressure Level / dB (re 20 µPa/V)  [2.83  V @ 1. m]"	"Frequency / Hz"	"Sound Pressure Level / dB (re 20 µPa/V)  [2.83  V @ 1. m]"	"Frequency / Hz"	"Sound Pressure Level / dB (re 20 µPa/V)  [2.83  V @ 1. m]"	"Frequency / Hz"	"Sound Pressure Level / dB (re 20 µPa/V)  [2.83  V @ 1. m]"	"Frequency / Hz"	"Sound Pressure Level / dB (re 20 µPa/V)  [2.83  V @ 1. m]"	"Frequency / Hz"	"Sound Pressure Level / dB (re 20 µPa/V)  [2.83  V @ 1. m]"	"Frequency / Hz"	"Sound Pressure Level / dB (re 20 µPa/V)  [2.83  V @ 1. m]"	"Frequency / Hz"	"Sound Pressure Level / dB (re 20 µPa/V)  [2.83  V @ 1. m]"	"Frequency / Hz"	"Sound Pressure Level / dB (re 20 µPa/V)  [2.83  V @ 1. m]"	"Frequency / Hz"	"Sound Pressure Level / dB (re 20 µPa/V)  [2.83  V @ 1. m]"	"Frequency / Hz"	"Sound Pressure Level / dB (re 20 µPa/V)  [2.83  V @ 1. m]"	"Frequency / Hz"	"Sound Pressure Level / dB (re 20 µPa/V)  [2.83  V @ 1. m]"	"Frequency / Hz"	"Sound Pressure Level / dB (re 20 µPa/V)  [2.83  V @ 1. m]"	"Frequency / Hz"	"Sound Pressure Level / dB (re 20 µPa/V)  [2.83  V @ 1. m]"	"Frequency / Hz"	"Sound Pressure Level / dB (re 20 µPa/V)  [2.83  V @ 1. m]"	"Frequency / Hz"	"Sound Pressure Level / dB (re 20 µPa/V)  [2.83  V @ 1. m]"	"Frequency / Hz"	"Sound Pressure Level / dB (re 20 µPa/V)  [2.83  V @ 1. m]"	"Frequency / Hz"	"Sound Pressure Level / dB (re 20 µPa/V)  [2.83  V @ 1. m]"	"Frequency / Hz"	"Sound Pressure Level / dB (re 20 µPa/V)  [2.83  V @ 1. m]"	"Frequency / Hz"	"Sound Pressure Level / dB (re 20 µPa/V)  [2.83  V @ 1. m]"	"Frequency / Hz"	"Sound Pressure Level / dB (re 20 µPa/V)  [2.83  V @ 1. m]"	"Frequency / Hz"	"Sound Pressure Level / dB (re 20 µPa/V)  [2.83  V @ 1. m]"	"Frequency / Hz"	"Sound Pressure Level / dB (re 20 µPa/V)  [2.83  V @ 1. m]"	"Frequency / Hz"	"Sound Pressure Level / dB (re 20 µPa/V)  [2.83  V @ 1. m]"	"Frequency / Hz"	"Sound Pressure Level / dB (re 20 µPa/V)  [2.83  V @ 1. m]"	"Frequency / Hz"	"Sound Pressure Level / dB (re 20 µPa/V)  [2.83  V @ 1. m]"	"Frequency / Hz"	"Sound Pressure Level / dB (re 20 µPa/V)  [2.83  V @ 1. m]"	"Frequency / Hz"	"Sound Pressure Level / dB (re 20 µPa/V)  [2.83  V @ 1. m]"	"Frequency / Hz"	"Sound Pressure Level / dB (re 20 µPa/V)  [2.83  V @ 1. m]"	"Frequency / Hz"	"Sound Pressure Level / dB (re 20 µPa/V)  [2.83  V @ 1. m]"	"Frequency / Hz"	"Sound Pressure Level / dB (re 20 µPa/V)  [2.83  V @ 1. m]"
20.5078	68.4932	20.5078	68.5127	20.5078	68.4816	20.5078	68.539	20.5078	68.4792	20.5078	68.5715	20.5078	68.4878	20.5078	68.6098	20.5078	68.5089	20.5078	68.6538	20.5078	68.5441	20.5078	68.7034	20.5078	68.5939	20.5078	68.7584	20.5078	68.6582	20.5078	68.8186	20.5078	68.7357	20.5078	68.8837	20.5078	68.824	20.5078	68.953	20.5078	68.9197	20.5078	69.0257	20.5078	69.0188	20.5078	69.1006	20.5078	69.1168	20.5078	69.1758	20.5078	69.2089	20.5078	69.2485	20.5078	69.2905	20.5078	69.3149	20.5078	69.3568	20.5078	69.3703	20.5078	69.4038	20.5078	69.4103	20.5078	69.4288	20.5078	69.4306
21.9727	65.5969	21.9727	65.646	21.9727	65.5445	21.9727	65.6917	21.9727	65.4894	21.9727	65.7336	21.9727	65.4322	21.9727	65.7712	21.9727	65.3746	21.9727	65.8034	21.9727	65.3187	21.9727	65.829	21.9727	65.2671	21.9727	65.8465	21.9727	65.2225	21.9727	65.8543	21.9727	65.1872	21.9727	65.8511	21.9727	65.1629	21.9727	65.8359	21.9727	65.1502	21.9727	65.8082	21.9727	65.1492	21.9727	65.7684	21.9727	65.159	21.9727	65.7179	21.9727	65.1786	21.9727	65.6588	21.9727	65.2071	21.9727	65.5941	21.9727	65.2437	21.9727	65.527	21.9727	65.288	21.9727	65.4606	21.9727	65.3395	21.9727	65.3974
23.4375	67.7307	23.4375	67.7534	23.4375	67.705	23.4375	67.7738	23.4375	67.6758	23.4375	67.7921	23.4375	67.6428	23.4375	67.8082	23.4375	67.6061	23.4375	67.8211	23.4375	67.5664	23.4375	67.8296	23.4375	67.5248	23.4375	67.8322	23.4375	67.4826	23.4375	67.8273	23.4375	67.4413	23.4375	67.8138	23.4375	67.4026	23.4375	67.7907	23.4375	67.3681	23.4375	67.7582	23.4375	67.3392	23.4375	67.717	23.4375	67.3176	23.4375	67.6684	23.4375	67.3048	23.4375	67.6146	23.4375	67.302	23.4375	67.558	23.4375	67.3101	23.4375	67.5014	23.4375	67.3294	23.4375	67.4478	23.4375	67.3597	23.4375	67.3997
24.9023	69.1838	24.9023	69.1881	24.9023	69.1759	24.9023	69.1884	24.9023	69.1648	24.9023	69.1842	24.9023	69.1509	24.9023	69.1751	24.9023	69.1346	24.9023	69.1608	24.9023	69.1163	24.9023	69.1413	24.9023	69.0964	24.9023	69.1169	24.9023	69.0753	24.9023	69.0882	24.9023	69.0532	24.9023	69.0563	24.9023	69.0306	24.9023	69.0227	24.9023	69.0077	24.9023	68.9889	24.9023	68.9849	24.9023	68.9568	24.9023	68.9626	24.9023	68.9279	24.9023	68.9412	24.9023	68.9038	24.9023	68.9212	24.9023	68.8855	24.9023	68.9032	24.9023	68.8736	24.9023	68.8879	24.9023	68.8684	24.9023	68.8764	24.9023	68.8695
26.3672	69.7332	26.3672	69.7269	26.3672	69.7351	26.3672	69.7161	26.3672	69.7324	26.3672	69.7006	26.3672	69.7251	26.3672	69.6802	26.3672	69.7132	26.3672	69.6551	26.3672	69.6966	26.3672	69.6253	26.3672	69.6754	26.3672	69.5912	26.3672	69.6497	26.3672	69.5537	26.3672	69.62	26.3672	69.5141	26.3672	69.5871	26.3672	69.4742	26.3672	69.5519	26.3672	69.4358	26.3672	69.5159	26.3672	69.401	26.3672	69.4804	26.3672	69.3717	26.3672	69.4467	26.3672	69.3493	26.3672	69.4159	26.3672	69.3344	26.3672	69.3887	26.3672	69.3272	26.3672	69.3657	26.3672	69.3274	26.3672	69.3474	26.3672	69.3344
27.832	69.9909	27.832	69.9948	27.832	69.9854	27.832	69.9968	27.832	69.9782	27.832	69.9965	27.832	69.9692	27.832	69.9931	27.832	69.9581	27.832	69.9858	27.832	69.9445	27.832	69.9735	27.832	69.9283	27.832	69.9558	27.832	69.9091	27.832	69.9322	27.832	69.8872	27.832	69.9031	27.832	69.8628	27.832	69.8693	27.832	69.8366	27.832	69.8324	27.832	69.8092	27.832	69.7945	27.832	69.7816	27.832	69.7581	27.832	69.7545	27.832	69.7256	27.832	69.7291	27.832	69.6992	27.832	69.7064	27.832	69.6803	27.832	69.6877	27.832	69.67	27.832	69.6746	27.832	69.6683
29.2969	71.2754	29.2969	71.2804	29.2969	71.2662	29.2969	71.2809	29.2969	71.2531	29.2969	71.2765	29.2969	71.2359	29.2969	71.2668	29.2969	71.2148	29.2969	71.2512	29.2969	71.1897	29.2969	71.2292	29.2969	71.1607	29.2969	71.2006	29.2969	71.1281	29.2969	71.1656	29.2969	71.0923	29.2969	71.1249	29.2969	71.0543	29.2969	71.0798	29.2969	71.0152	29.2969	71.0321	29.2969	70.9763	29.2969	70.9842	29.2969	70.9389	29.2969	70.9386	29.2969	70.9044	29.2969	70.8977	29.2969	70.8739	29.2969	70.8637	29.2969	70.8487	29.2969	70.8382	29.2969	70.8298	29.2969	70.8221	29.2969	70.8185	29.2969	70.8157
30.7617	72.1122	30.7617	72.1151	30.7617	72.1031	30.7617	72.1118	30.7617	72.088	30.7617	72.102	30.7617	72.0669	30.7617	72.0857	30.7617	72.0398	30.7617	72.0627	30.7617	72.0069	30.7617	72.0332	30.7617	71.9686	30.7617	71.9976	30.7617	71.9257	30.7617	71.9566	30.7617	71.8793	30.7617	71.9113	30.7617	71.8311	30.7617	71.8632	30.7617	71.7829	30.7617	71.8142	30.7617	71.7368	30.7617	71.7661	30.7617	71.6946	30.7617	71.721	30.7617	71.658	30.7617	71.6805	30.7617	71.6282	30.7617	71.6463	30.7617	71.606	30.7617	71.6191	30.7617	71.5919	30.7617	71.5999	30.7617	71.5862	30.7617	71.5888
32.2266	72.6139	32.2266	72.6184	32.2266	72.604	32.2266	72.617	32.2266	72.5887	32.2266	72.6096	32.2266	72.5682	32.2266	72.5956	32.2266	72.5425	32.2266	72.5749	32.2266	72.5118	32.2266	72.5473	32.2266	72.4761	32.2266	72.5131	32.2266	72.436	32.2266	72.4729	32.2266	72.3925	32.2266	72.4276	32.2266	72.3467	32.2266	72.3789	32.2266	72.3004	32.2266	72.3287	32.2266	72.2553	32.2266	72.2792	32.2266	72.2135	32.2266	72.2326	32.2266	72.1765	32.2266	72.191	32.2266	72.1458	32.2266	72.1561	32.2266	72.1223	32.2266	72.129	32.2266	72.1067	32.2266	72.1104	32.2266	72.0993	32.2266	72.1005
33.6914	73.4012	33.6914	73.4052	33.6914	73.3914	33.6914	73.4029	33.6914	73.3758	33.6914	73.3941	33.6914	73.3545	33.6914	73.3784	33.6914	73.3274	33.6914	73.3554	33.6914	73.2947	33.6914	73.3251	33.6914	73.2564	33.6914	73.2875	33.6914	73.213	33.6914	73.2434	33.6914	73.1652	33.6914	73.1939	33.6914	73.1142	33.6914	73.1406	33.6914	73.0617	33.6914	73.0855	33.6914	73.0098	33.6914	73.0308	33.6914	72.9607	33.6914	72.9788	33.6914	72.9166	33.6914	72.9318	33.6914	72.8795	33.6914	72.8916	33.6914	72.8509	33.6914	72.8598	33.6914	72.8319	33.6914	72.8373	33.6914	72.8232	33.6914	72.825
35.1562	74.1366	35.1562	74.1374	35.1562	74.1295	35.1562	74.1317	35.1562	74.1162	35.1562	74.119	35.1562	74.097	35.1562	74.0994	35.1562	74.072	35.1562	74.0726	35.1562	74.0412	35.1562	74.0389	35.1562	74.005	35.1562	73.9989	35.1562	73.9638	35.1562	73.9533	35.1562	73.9184	35.1562	73.9035	35.1562	73.8699	35.1562	73.8513	35.1562	73.8198	35.1562	73.7986	35.1562	73.7698	35.1562	73.7475	35.1562	73.722	35.1562	73.7002	35.1562	73.6783	35.1562	73.6585	35.1562	73.6406	35.1562	73.624	35.1562	73.6103	35.1562	73.5978	35.1562	73.5886	35.1562	73.5809	35.1562	73.5762	35.1562	73.5736
36.6211	74.7716	36.6211	74.7738	36.6211	74.7624	36.6211	74.7689	36.6211	74.7467	36.6211	74.7566	36.6211	74.7244	36.6211	74.7366	36.6211	74.696	36.6211	74.7089	36.6211	74.6616	36.6211	74.6737	36.6211	74.6216	36.6211	74.6316	36.6211	74.5766	36.6211	74.5836	36.6211	74.5277	36.6211	74.5311	36.6211	74.4761	36.6211	74.4759	36.6211	74.4234	36.6211	74.4202	36.6211	74.3716	36.6211	74.3662	36.6211	74.3225	36.6211	74.3161	36.6211	74.2782	36.6211	74.2717	36.6211	74.2404	36.6211	74.2347	36.6211	74.2106	36.6211	74.2062	36.6211	74.1898	36.6211	74.1871	36.6211	74.1788	36.6211	74.1779
38.0859	75.3492	38.0859	75.3496	38.0859	75.3412	38.0859	75.3423	38.0859	75.3258	38.0859	75.327	38.0859	75.3031	38.0859	75.3037	38.0859	75.2734	38.0859	75.2723	38.0859	75.2368	38.0859	75.2332	38.0859	75.1937	38.0859	75.1869	38.0859	75.1448	38.0859	75.1344	38.0859	75.0911	38.0859	75.0772	38.0859	75.034	38.0859	75.0171	38.0859	74.9754	38.0859	74.9563	38.0859	74.9173	38.0859	74.8971	38.0859	74.862	38.0859	74.8419	38.0859	74.8115	38.0859	74.793	38.0859	74.7681	38.0859	74.7522	38.0859	74.7332	38.0859	74.7211	38.0859	74.7083	38.0859	74.7007	38.0859	74.6943	38.0859	74.6917
39.5508	75.9179	39.5508	75.9161	39.5508	75.9135	39.5508	75.908	39.5508	75.9028	39.5508	75.8936	39.5508	75.8859	39.5508	75.8729	39.5508	75.8628	39.5508	75.8459	39.5508	75.8337	39.5508	75.8128	39.5508	75.7988	39.5508	75.774	39.5508	75.7587	39.5508	75.7302	39.5508	75.7142	39.5508	75.6825	39.5508	75.6666	39.5508	75.6324	39.5508	75.6172	39.5508	75.5816	39.5508	75.5679	39.5508	75.5322	39.5508	75.5203	39.5508	75.486	39.5508	75.4764	39.5508	75.4451	39.5508	75.4377	39.5508	75.4112	39.5508	75.4059	39.5508	75.3857	39.5508	75.3824	39.5508	75.3697	39.5508	75.3681	39.5508	75.3638
41.0156	76.467	41.0156	76.4608	41.0156	76.4686	41.0156	76.45	41.0156	76.4654	41.0156	76.4347	41.0156	76.4576	41.0156	76.415	41.0156	76.4449	41.0156	76.3913	41.0156	76.4276	41.0156	76.3641	41.0156	76.4057	41.0156	76.334	41.0156	76.3795	41.0156	76.3019	41.0156	76.3496	41.0156	76.269	41.0156	76.317	41.0156	76.2364	41.0156	76.2828	41.0156	76.2053	41.0156	76.2484	41.0156	76.1768	41.0156	76.2153	41.0156	76.1518	41.0156	76.1848	41.0156	76.1311	41.0156	76.158	41.0156	76.1154	41.0156	76.1357	41.0156	76.1049	41.0156	76.1185	41.0156	76.0998	41.0156	76.1067	41.0156	76.1004
42.4805	76.926	42.4805	76.9297	42.4805	76.9142	42.4805	76.925	42.4805	76.8948	42.4805	76.9118	42.4805	76.8684	42.4805	76.8903	42.4805	76.8356	42.4805	76.8606	42.4805	76.7972	42.4805	76.8236	42.4805	76.7545	42.4805	76.7805	42.4805	76.7087	42.4805	76.7328	42.4805	76.6615	42.4805	76.6826	42.4805	76.6147	42.4805	76.6322	42.4805	76.5702	42.4805	76.5837	42.4805	76.5298	42.4805	76.5393	42.4805	76.4948	42.4805	76.5006	42.4805	76.466	42.4805	76.4687	42.4805	76.4436	42.4805	76.444	42.4805	76.4273	42.4805	76.4264	42.4805	76.4166	42.4805	76.4155	42.4805	76.4111	42.4805	76.4106
43.9453	77.4811	43.9453	77.4817	43.9453	77.47	43.9453	77.4717	43.9453	77.4491	43.9453	77.4511	43.9453	77.4188	43.9453	77.4202	43.9453	77.3802	43.9453	77.3797	43.9453	77.3343	43.9453	77.3306	43.9453	77.2825	43.9453	77.2746	43.9453	77.2263	43.9453	77.2137	43.9453	77.1675	43.9453	77.1502	43.9453	77.1081	43.9453	77.0868	43.9453	77.0502	43.9453	77.0259	43.9453	76.9957	43.9453	76.97	43.9453	76.9462	43.9453	76.9208	43.9453	76.9032	43.9453	76.8796	43.9453	76.8674	43.9453	76.8472	43.9453	76.8393	43.9453	76.8238	43.9453	76.8193	43.9453	76.8096	43.9453	76.8076	43.9453	76.8042
45.4102	78.1356	45.4102	78.1355	45.4102	78.124	45.4102	78.1237	45.4102	78.1009	45.4102	78.1003	45.4102	78.0666	45.4102	78.0659	45.4102	78.0218	45.4102	78.0209	45.4102	77.9674	45.4102	77.9665	45.4102	77.9044	45.4102	77.9039	45.4102	77.8346	45.4102	77.8351	45.4102	77.7598	45.4102	77.7621	45.4102	77.6826	45.4102	77.6873	45.4102	77.6057	45.4102	77.6134	45.4102	77.5321	45.4102	77.5428	45.4102	77.4647	45.4102	77.4776	45.4102	77.406	45.4102	77.4199	45.4102	77.3579	45.4102	77.3712	45.4102	77.3217	45.4102	77.3327	45.4102	77.2983	45.4102	77.3055	45.4102	77.2879	45.4102	77.2904
46.875	78.6777	46.875	78.6681	46.875	78.6777	46.875	78.6492	46.875	78.668	46.875	78.6214	46.875	78.6487	46.875	78.5853	46.875	78.62	46.875	78.5416	46.875	78.5823	46.875	78.4914	46.875	78.5364	46.875	78.4361	46.875	78.4831	46.875	78.3772	46.875	78.4241	46.875	78.3165	46.875	78.3612	46.875	78.2558	46.875	78.2965	46.875	78.1972	46.875	78.2328	46.875	78.1425	46.875	78.1724	46.875	78.0934	46.875	78.1176	46.875	78.0514	46.875	78.0703	46.875	78.0179	46.875	78.0318	46.875	77.9938	46.875	78.003	46.875	77.9801	46.875	77.9847	46.875	77.977
48.3398	79.1581	48.3398	79.1576	48.3398	79.1509	48.3398	79.1492	48.3398	79.1359	48.3398	79.133	48.3398	79.1134	48.3398	79.1093	48.3398	79.0836	48.3398	79.0783	48.3398	79.0471	48.3398	79.0407	48.3398	79.0045	48.3398	78.9973	48.3398	78.957	48.3398	78.9493	48.3398	78.9058	48.3398	78.8981	48.3398	78.8528	48.3398	78.8455	48.3398	78.7999	48.3398	78.7933	48.3398	78.749	48.3398	78.7435	48.3398	78.7022	48.3398	78.6977	48.3398	78.6611	48.3398	78.6576	48.3398	78.6269	48.3398	78.6244	48.3398	78.6007	48.3398	78.599	48.3398	78.5828	48.3398	78.5818	48.3398	78.5737	48.3398	78.5733
51.2695	80.5218	51.2695	80.5285	51.2695	80.5023	51.2695	80.5223	51.2695	80.4708	51.2695	80.5033	51.2695	80.4282	51.2695	80.4723	51.2695	80.376	51.2695	80.4301	51.2695	80.3161	51.2695	80.3783	51.2695	80.2504	51.2695	80.3188	51.2695	80.1814	51.2695	80.2538	51.2695	80.1116	51.2695	80.1859	51.2695	80.0434	51.2695	80.1177	51.2695	79.9792	51.2695	80.0514	51.2695	79.921	51.2695	79.9893	51.2695	79.8705	51.2695	79.933	51.2695	79.8288	51.2695	79.8836	51.2695	79.7968	51.2695	79.8418	51.2695	79.7747	51.2695	79.8083	51.2695	79.7626	51.2695	79.7833	51.2695	79.7601	51.2695	79.7672
52.7344	81.0709	52.7344	81.0803	52.7344	81.048	52.7344	81.076	52.7344	81.0123	52.7344	81.0584	52.7344	80.965	52.7344	81.0282	52.7344	80.9076	52.7344	80.9867	52.7344	80.8425	52.7344	80.9357	52.7344	80.7723	52.7344	80.8775	52.7344	80.7001	52.7344	80.8146	52.7344	80.6289	52.7344	80.7499	52.7344	80.5619	52.7344	80.686	52.7344	80.5017	52.7344	80.6252	52.7344	80.4504	52.7344	80.5693	52.7344	80.4092	52.7344	80.5193	52.7344	80.3785	52.7344	80.4756	52.7344	80.3582	52.7344	80.4384	52.7344	80.3475	52.7344	80.4075	52.7344	80.3455	52.7344	80.3825	52.7344	80.3511	52.7344	80.3637
54.1992	81.3585	54.1992	81.348	54.1992	81.3544	54.1992	81.3234	54.1992	81.3359	54.1992	81.2858	54.1992	81.3039	54.1992	81.2368	54.1992	81.2596	54.1992	81.1786	54.1992	81.2053	54.1992	81.114	54.1992	81.1434	54.1992	81.0462	54.1992	81.0772	54.1992	80.9785	54.1992	81.0098	54.1992	80.9143	54.1992	80.9448	54.1992	80.8564	54.1992	80.8853	54.1992	80.8071	54.1992	80.8335	54.1992	80.7675	54.1992	80.791	54.1992	80.738	54.1992	80.7581	54.1992	80.7176	54.1992	80.7341	54.1992	80.705	54.1992	80.7176	54.1992	80.6983	54.1992	80.7069	54.1992	80.696	54.1992	80.7003	54.1992	80.6968
55.6641	81.7384	55.6641	81.722	55.6641	81.7385	55.6641	81.6901	55.6641	81.7223	55.6641	81.6437	55.6641	81.6903	55.6641	81.5849	55.6641	81.6439	55.6641	81.5159	55.6641	81.5847	55.6641	81.4399	55.6641	81.5154	55.6641	81.36	55.6641	81.4388	55.6641	81.28	55.6641	81.3587	55.6641	81.2035	55.6641	81.2788	55.6641	81.1338	55.6641	81.203	55.6641	81.0734	55.6641	81.1347	55.6641	81.0241	55.6641	81.0762	55.6641	80.9865	55.6641	81.029	55.6641	80.9599	55.6641	80.993	55.6641	80.9431	55.6641	80.9672	55.6641	80.9341	55.6641	80.9497	55.6641	80.9311	55.6641	80.9388	55.6641	80.9327
58.5938	82.5335	58.5938	82.5244	58.5938	82.5274	58.5938	82.5004	58.5938	82.5066	58.5938	82.462	58.5938	82.4716	58.5938	82.4106	58.5938	82.4239	58.5938	82.3477	58.5938	82.365	58.5938	82.2755	58.5938	82.2969	58.5938	82.1966	58.5938	82.2219	58.5938	82.1139	58.5938	82.1426	58.5938	82.0305	58.5938	82.0617	58.5938	81.9495	58.5938	81.982	58.5938	81.8737	58.5938	81.9062	58.5938	81.8057	58.5938	81.8366	58.5938	81.7472	58.5938	81.7752	58.5938	81.6995	58.5938	81.7233	58.5938	81.6632	58.5938	81.6818	58.5938	81.6383	58.5938	81.6511	58.5938	81.6249	58.5938	81.6314	58.5938	81.6226
60.0586	83.0334	60.0586	83.0277	60.0586	83.0235	60.0586	83.0068	60.0586	82.9982	60.0586	82.9713	60.0586	82.9586	60.0586	82.9228	60.0586	82.9061	60.0586	82.8632	60.0586	82.8428	60.0586	82.7947	60.0586	82.7709	60.0586	82.7201	60.0586	82.6935	60.0586	82.6423	60.0586	82.6134	60.0586	82.564	60.0586	82.5337	60.0586	82.4881	60.0586	82.4572	60.0586	82.4169	60.0586	82.3863	60.0586	82.3523	60.0586	82.3231	60.0586	82.2956	60.0586	82.2689	60.0586	82.2478	60.0586	82.2248	60.0586	82.2095	60.0586	82.1911	60.0586	82.1809	60.0586	82.1681	60.0586	82.1623	60.0586	82.1557	60.0586	82.1538
62.9883	83.8709	62.9883	83.8607	62.9883	83.865	62.9883	83.835	62.9883	83.8433	62.9883	83.7949	62.9883	83.8068	62.9883	83.7426	62.9883	83.7574	62.9883	83.6808	62.9883	83.6977	62.9883	83.6127	62.9883	83.6305	62.9883	83.542	62.9883	83.5594	62.9883	83.4722	62.9883	83.4878	62.9883	83.4066	62.9883	83.4192	62.9883	83.3479	62.9883	83.3566	62.9883	83.298	62.9883	83.3021	62.9883	83.2576	62.9883	83.2571	62.9883	83.2263	62.9883	83.2221	62.9883	83.2033	62.9883	83.1966	62.9883	83.187	62.9883	83.1796	62.9883	83.1759	62.9883	83.1697	62.9883	83.1689	62.9883	83.1653	62.9883	83.1653
64.4531	84.2403	64.4531	84.2282	64.4531	84.2357	64.4531	84.2002	64.4531	84.2148	64.4531	84.1574	64.4531	84.1789	64.4531	84.1022	64.4531	84.1299	64.4531	84.0374	64.4531	84.0704	64.4531	83.9666	64.4531	84.0036	64.4531	83.8934	64.4531	83.933	64.4531	83.8219	64.4531	83.8625	64.4531	83.7555	64.4531	83.7953	64.4531	83.6972	64.4531	83.7345	64.4531	83.6488	64.4531	83.6822	64.4531	83.6111	64.4531	83.6395	64.4531	83.5839	64.4531	83.6067	64.4531	83.5657	64.4531	83.5829	64.4531	83.5548	64.4531	83.5668	64.4531	83.5492	64.4531	83.5567	64.4531	83.5473	64.4531	83.5508	64.4531	83.5478
67.3828	84.9779	67.3828	84.9624	67.3828	84.9756	67.3828	84.9295	67.3828	84.9558	67.3828	84.8809	67.3828	84.9197	67.3828	84.819	67.3828	84.8697	67.3828	84.7472	67.3828	84.8086	67.3828	84.6693	67.3828	84.7401	67.3828	84.5897	67.3828	84.6679	67.3828	84.5127	67.3828	84.5962	67.3828	84.4425	67.3828	84.5284	67.3828	84.3822	67.3828	84.4678	67.3828	84.334	67.3828	84.4161	67.3828	84.2987	67.3828	84.3745	67.3828	84.2757	67.3828	84.3426	67.3828	84.2633	67.3828	84.3191	67.3828	84.2592	67.3828	84.3023	67.3828	84.2608	67.3828	84.2901	67.3828	84.2658	67.3828	84.2806	67.3828	84.2727
68.8477	85.3075	68.8477	85.2895	68.8477	85.3069	68.8477	85.2535	68.8477	85.288	68.8477	85.2012	68.8477	85.2522	68.8477	85.1353	68.8477	85.2019	68.8477	85.0595	68.8477	85.1402	68.8477	84.9779	68.8477	85.071	68.8477	84.8953	68.8477	84.9985	68.8477	84.8166	68.8477	84.9269	68.8477	84.746	68.8477	84.86	68.8477	84.687	68.8477	84.801	68.8477	84.6419	68.8477	84.7519	68.8477	84.6112	68.8477	84.7133	68.8477	84.594	68.8477	84.6847	68.8477	84.5881	68.8477	84.6643	68.8477	84.5906	68.8477	84.6498	68.8477	84.5983	68.8477	84.6387	68.8477	84.6084	68.8477	84.6288	68.8477	84.6188
71.7773	85.9215	71.7773	85.9049	71.7773	85.9176	71.7773	85.8681	71.7773	85.8937	71.7773	85.813	71.7773	85.8517	71.7773	85.7424	71.7773	85.7944	71.7773	85.6602	71.7773	85.7255	71.7773	85.5712	71.7773	85.6495	71.7773	85.4807	71.7773	85.5712	71.7773	85.3941	71.7773	85.4955	71.7773	85.3167	71.7773	85.4266	71.7773	85.2525	71.7773	85.3677	71.7773	85.2044	71.7773	85.3208	71.7773	85.1732	71.7773	85.2861	71.7773	85.158	71.7773	85.2623	71.7773	85.1561	71.7773	85.2469	71.7773	85.1639	71.7773	85.2365	71.7773	85.1773	71.7773	85.2279	71.7773	85.1925	71.7773	85.2185	71.7773	85.2067
74.707	86.5125	74.707	86.4989	74.707	86.5042	74.707	86.464	74.707	86.4749	74.707	86.4095	74.707	86.4263	74.707	86.3385	74.707	86.3618	74.707	86.2551	74.707	86.2854	74.707	86.164	74.707	86.2019	74.707	86.0708	74.707	86.1167	74.707	85.9811	74.707	86.0349	74.707	85.9	74.707	85.9612	74.707	85.8319	74.707	85.899	74.707	85.7795	74.707	85.8503	74.707	85.7438	74.707	85.8153	74.707	85.7241	74.707	85.7926	74.707	85.7179	74.707	85.7792	74.707	85.7215	74.707	85.7716	74.707	85.7308	74.707	85.7664	74.707	85.7421	74.707	85.7606	74.707	85.7525
77.6367	87.0139	77.6367	87.0002	77.6367	87.005	77.6367	86.9647	77.6367	86.9744	77.6367	86.9094	77.6367	86.9241	77.6367	86.8376	77.6367	86.8576	77.6367	86.7537	77.6367	86.7794	77.6367	86.663	77.6367	86.6947	77.6367	86.5712	77.6367	86.6092	77.6367	86.4841	77.6367	86.5284	77.6367	86.4069	77.6367	86.4571	77.6367	86.3436	77.6367	86.3989	77.6367	86.2968	77.6367	86.3554	77.6367	86.267	77.6367	86.3265	77.6367	86.253	77.6367	86.3103	77.6367	86.2518	77.6367	86.3034	77.6367	86.2594	77.6367	86.3017	77.6367	86.2713	77.6367	86.3015	77.6367	86.2837	77.6367	86.2994	77.6367	86.2935
79.1016	87.2447	79.1016	87.2311	79.1016	87.2348	79.1016	87.1948	79.1016	87.2023	79.1016	87.1381	79.1016	87.1493	79.1016	87.0643	79.1016	87.0794	79.1016	86.9783	79.1016	86.9973	79.1016	86.8856	79.1016	86.9087	79.1016	86.7922	79.1016	86.8197	79.1016	86.704	79.1016	86.7361	79.1016	86.6265	79.1016	86.6633	79.1016	86.5638	79.1016	86.6048	79.1016	86.5183	79.1016	86.5625	79.1016	86.4906	79.1016	86.5362	79.1016	86.4789	79.1016	86.5235	79.1016	86.48	79.1016	86.5207	79.1016	86.4895	79.1016	86.5234	79.1016	86.5027	79.1016	86.527	79.1016	86.5153	79.1016	86.528	79.1016	86.5242
82.0312	87.6785	82.0312	87.6673	82.0312	87.6642	82.0312	87.6315	82.0312	87.6251	82.0312	87.5733	82.0312	87.5638	82.0312	87.4966	82.0312	87.4839	82.0312	87.4065	82.0312	87.3908	82.0312	87.3089	82.0312	87.2905	82.0312	87.2102	82.0312	87.1896	82.0312	87.1167	82.0312	87.0947	82.0312	87.0342	82.0312	87.0116	82.0312	86.9669	82.0312	86.9448	82.0312	86.9171	82.0312	86.8966	82.0312	86.8851	82.0312	86.867	82.0312	86.8689	82.0312	86.8539	82.0312	86.8651	82.0312	86.8534	82.0312	86.8689	82.0312	86.8606	82.0312	86.8757	82.0312	86.8704	82.0312	86.8812	82.0312	86.8786	82.0312	86.8825
84.9609	87.9364	84.9609	87.9235	84.9609	87.9234	84.9609	87.8854	84.9609	87.8853	84.9609	87.8251	84.9609	87.8246	84.9609	87.7465	84.9609	87.7454	84.9609	87.6554	84.9609	87.6532	84.9609	87.5582	84.9609	87.5544	84.9609	87.4618	84.9609	87.4559	84.9609	87.3727	84.9609	87.3642	84.9609	87.2966	84.9609	87.2851	84.9609	87.2373	84.9609	87.2226	84.9609	87.1965	84.9609	87.179	84.9609	87.1734	84.9609	87.1539	84.9609	87.1653	84.9609	87.145	84.9609	87.1679	84.9609	87.1484	84.9609	87.176	84.9609	87.1593	84.9609	87.1848	84.9609	87.1726	84.9609	87.1904	84.9609	87.1839	84.9609	87.1903
87.8906	88.2239	87.8906	88.2108	87.8906	88.2084	87.8906	88.1702	87.8906	88.1655	87.8906	88.1049	87.8906	88.0983	87.8906	88.0195	87.8906	88.0114	87.8906	87.9202	87.8906	87.9112	87.8906	87.8144	87.8906	87.8051	87.8906	87.7101	87.8906	87.701	87.8906	87.6151	87.8906	87.6066	87.8906	87.5359	87.8906	87.5281	87.8906	87.4773	87.8906	87.4701	87.8906	87.4412	87.8906	87.4343	87.8906	87.4265	87.8906	87.4197	87.8906	87.4296	87.8906	87.4226	87.8906	87.4446	87.8906	87.4378	87.8906	87.4651	87.8906	87.4589	87.8906	87.4845	87.8906	87.4798	87.8906	87.4978	87.8906	87.4952	87.8906	87.5017
90.8203	88.4272	90.8203	88.4134	90.8203	88.4103	90.8203	88.37	90.8203	88.3639	90.8203	88.3	90.8203	88.291	90.8203	88.2084	90.8203	88.1968	90.8203	88.1016	90.8203	88.088	90.8203	87.9876	90.8203	87.9724	90.8203	87.8747	90.8203	87.8588	90.8203	87.7715	90.8203	87.7556	90.8203	87.6852	90.8203	87.6701	90.8203	87.6211	90.8203	87.6074	90.8203	87.5816	90.8203	87.5697	90.8203	87.5659	90.8203	87.556	90.8203	87.5702	90.8203	87.5622	90.8203	87.5882	90.8203	87.582	90.8203	87.6126	90.8203	87.608	90.8203	87.6361	90.8203	87.6331	90.8203	87.6526	90.8203	87.651	90.8203	87.658
95.2148	88.6407	95.2148	88.6273	95.2148	88.6197	95.2148	88.5806	95.2148	88.5655	95.2148	88.5039	95.2148	88.4816	95.2148	88.4028	95.2148	88.3739	95.2148	88.2846	95.2148	88.2501	95.2148	88.1581	95.2148	88.1193	95.2148	88.0329	95.2148	87.9916	95.2148	87.9182	95.2148	87.8767	95.2148	87.8224	95.2148	87.783	95.2148	87.7515	95.2148	87.7163	95.2148	87.7082	95.2148	87.6787	95.2148	87.6919	95.2148	87.6688	95.2148	87.6982	95.2148	87.6815	95.2148	87.7203	95.2148	87.7091	95.2148	87.7497	95.2148	87.7428	95.2148	87.7779	95.2148	87.7742	95.2148	87.7979	95.2148	87.7963	95.2148	87.8046
98.1445	88.7621	98.1445	88.7419	98.1445	88.7457	98.1445	88.6864	98.1445	88.694	98.1445	88.5992	98.1445	88.6106	98.1445	88.4863	98.1445	88.5017	98.1445	88.3557	98.1445	88.375	98.1445	88.217	98.1445	88.2402	98.1445	88.0805	98.1445	88.1075	98.1445	87.9566	98.1445	87.987	98.1445	87.8543	98.1445	87.8874	98.1445	87.78	98.1445	87.8149	98.1445	87.7369	98.1445	87.7723	98.1445	87.7238	98.1445	87.7581	98.1445	87.7359	98.1445	87.7674	98.1445	87.7652	98.1445	87.7925	98.1445	87.8025	98.1445	87.8241	98.1445	87.8382	98.1445	87.8532	98.1445	87.8647	98.1445	87.8724	98.1445	87.8767
101.074	88.7882	101.074	88.7654	101.074	88.7721	101.074	88.7048	101.074	88.7184	101.074	88.61	101.074	88.631	101.074	88.4871	101.074	88.516	101.074	88.3442	101.074	88.3813	101.074	88.1913	101.074	88.2368	101.074	88.0393	101.074	88.0928	101.074	87.8992	101.074	87.9597	101.074	87.7811	101.074	87.8468	101.074	87.6926	101.074	87.761	101.074	87.6376	101.074	87.7057	101.074	87.6159	101.074	87.6805	101.074	87.6227	101.074	87.6807	101.074	87.6497	101.074	87.6987	101.074	87.687	101.074	87.7251	101.074	87.7244	101.074	87.7503	101.074	87.7533	101.074	87.7664	101.074	87.7679
105.469	88.934	105.469	88.9116	105.469	88.9153	105.469	88.8494	105.469	88.8573	105.469	88.7511	105.469	88.7641	105.469	88.6232	105.469	88.6425	105.469	88.4741	105.469	88.5013	105.469	88.3143	105.469	88.3508	105.469	88.155	105.469	88.2022	105.469	88.0074	105.469	88.066	105.469	87.8816	105.469	87.9511	105.469	87.7849	105.469	87.8634	105.469	87.7212	105.469	87.8054	105.469	87.6899	105.469	87.7753	105.469	87.6868	105.469	87.7682	105.469	87.7044	105.469	87.7766	105.469	87.7337	105.469	87.7921	105.469	87.7657	105.469	87.8066	105.469	87.7926	105.469	87.8137	105.469	87.8094
108.398	88.9969	108.398	88.9797	108.398	88.9709	108.398	88.9207	108.398	88.9034	108.398	88.824	108.398	88.7988	108.398	88.6964	108.398	88.6642	108.398	88.547	108.398	88.5094	108.398	88.3868	108.398	88.3456	108.398	88.2277	108.398	88.1851	108.398	88.0815	108.398	88.0401	108.398	87.9587	108.398	87.9208	108.398	87.8669	108.398	87.8344	108.398	87.8099	108.398	87.7839	108.398	87.7865	108.398	87.7673	108.398	87.7916	108.398	87.7786	108.398	87.8165	108.398	87.8084	108.398	87.8507	108.398	87.8462	108.398	87.8839	108.398	87.8817	108.398	87.9076	108.398	87.9068	108.398	87.9159
112.793	88.9737	112.793	88.946	112.793	88.9562	112.793	88.8746	112.793	88.8949	112.793	88.7644	112.793	88.7945	112.793	88.6228	112.793	88.6623	112.793	88.4601	112.793	88.5083	112.793	88.2882	112.793	88.3445	112.793	88.1203	112.793	88.1836	112.793	87.9693	112.793	88.0384	112.793	87.8464	112.793	87.9194	112.793	87.7596	112.793	87.8344	112.793	87.7123	112.793	87.786	112.793	87.7027	112.793	87.7725	112.793	87.7243	112.793	87.787	112.793	87.7667	112.793	87.8197	112.793	87.818	112.793	87.8593	112.793	87.8666	112.793	87.8947	112.793	87.9028	112.793	87.917	112.793	87.9204
117.188	88.946	117.188	88.9217	117.188	88.9212	117.188	88.85	117.188	88.8486	117.188	88.7359	117.188	88.7331	117.188	88.5875	117.188	88.5825	117.188	88.4153	117.188	88.4073	117.188	88.2318	117.188	88.2204	117.188	88.0509	117.188	88.036	117.188	87.8863	117.188	87.8684	117.188	87.75	117.188	87.7303	117.188	87.6511	117.188	87.6311	117.188	87.5939	117.188	87.5754	117.188	87.5774	117.188	87.5615	117.188	87.5948	117.188	87.5824	117.188	87.6354	117.188	87.6265	117.188	87.6859	117.188	87.6801	117.188	87.7332	117.188	87.7298	117.188	87.7663	117.188	87.7647	117.188	87.7776
120.117	88.9989	120.117	88.9684	120.117	88.9796	120.117	88.89	120.117	88.9121	120.117	88.769	120.117	88.8012	120.117	88.6136	120.117	88.6548	120.117	88.4349	120.117	88.4835	120.117	88.2459	120.117	88.3001	120.117	88.0608	120.117	88.1185	120.117	87.8936	120.117	87.9526	120.117	87.7566	120.117	87.8148	120.117	87.6585	120.117	87.7142	120.117	87.6036	120.117	87.6554	120.117	87.5901	120.117	87.6374	120.117	87.6115	120.117	87.6535	120.117	87.6567	120.117	87.6926	120.117	87.7124	120.117	87.7411	120.117	87.7655	120.117	87.7857	120.117	87.8047	120.117	87.8152	120.117	87.8222
124.512	88.8971	124.512	88.8702	124.512	88.8717	124.512	88.7926	124.512	88.7961	124.512	88.6696	124.512	88.6759	124.512	88.5097	124.512	88.5203	124.512	88.3246	124.512	88.3413	124.512	88.1285	124.512	88.153	124.512	87.9369	124.512	87.9707	124.512	87.765	124.512	87.8092	124.512	87.6265	124.512	87.6809	124.512	87.5313	124.512	87.5944	124.512	87.4836	124.512	87.5529	124.512	87.4817	124.512	87.5532	124.512	87.5174	124.512	87.5867	124.512	87.5781	124.512	87.6407	124.512	87.649	124.512	87.7004	124.512	87.7153	124.512	87.7519	124.512	87.7646	124.512	87.7836	124.512	87.7885
128.906	88.8013	128.906	88.7807	128.906	88.7655	128.906	88.7052	128.906	88.6758	128.906	88.5802	128.906	88.5386	128.906	88.4146	128.906	88.3639	128.906	88.2208	128.906	88.1649	128.906	88.0136	128.906	87.9573	128.906	87.8093	128.906	87.7578	128.906	87.6245	128.906	87.5829	128.906	87.474	128.906	87.4464	128.906	87.3688	128.906	87.3576	128.906	87.3141	128.906	87.3196	128.906	87.3087	128.906	87.3287	128.906	87.3443	128.906	87.3745	128.906	87.4076	128.906	87.4423	128.906	87.4826	128.906	87.5156	128.906	87.5528	128.906	87.5784	128.906	87.6043	128.906	87.6183	128.906	87.6276
133.301	88.6981	133.301	88.678	133.301	88.6583	133.301	88.5999	133.301	88.5608	133.301	88.4699	133.301	88.4121	133.301	88.2978	133.301	88.2225	133.301	88.097	133.301	88.006	133.301	87.8832	133.301	87.7795	133.301	87.6736	133.301	87.5615	133.301	87.4854	133.301	87.37	133.301	87.3337	133.301	87.2208	133.301	87.2292	133.301	87.1249	133.301	87.1769	133.301	87.086	133.301	87.1747	133.301	87.1005	133.301	87.2136	133.301	87.1571	133.301	87.2794	133.301	87.2395	133.301	87.355	133.301	87.3291	133.301	87.4232	133.301	87.4083	133.301	87.4696	133.301	87.4629	133.301	87.4841
139.16	88.4682	139.16	88.4395	139.16	88.4332	139.16	88.3496	139.16	88.3366	139.16	88.2055	139.16	88.185	139.16	88.0182	139.16	87.9893	139.16	87.8028	139.16	87.7643	139.16	87.5768	139.16	87.5279	139.16	87.3592	139.16	87.2998	139.16	87.1685	139.16	87.0994	139.16	87.0207	139.16	86.944	139.16	86.9264	139.16	86.8454	139.16	86.8894	139.16	86.8085	139.16	86.9057	139.16	86.8293	139.16	86.964	139.16	86.896	139.16	87.0475	139.16	86.991	139.16	87.1372	139.16	87.094	139.16	87.2147	139.16	87.1858	139.16	87.265	139.16	87.2505	139.16	87.278
143.555	88.2707	143.555	88.2329	143.555	88.2426	143.555	88.1322	143.555	88.1507	143.555	87.9762	143.555	88.0016	143.555	87.7768	143.555	87.8065	143.555	87.5499	143.555	87.5807	143.555	87.3143	143.555	87.3426	143.555	87.0906	143.555	87.1128	143.555	86.8986	143.555	86.9116	143.555	86.7552	143.555	86.7571	143.555	86.6718	143.555	86.662	143.555	86.6515	143.555	86.6312	143.555	86.6888	143.555	86.6608	143.555	86.7703	143.555	86.7382	143.555	86.8765	143.555	86.8446	143.555	86.9862	143.555	86.9585	143.555	87.0793	143.555	87.0589	143.555	87.1396	143.555	87.1288	143.555	87.1572
147.949	88.3219	147.949	88.286	147.949	88.2834	147.949	88.1779	147.949	88.1733	147.949	88.005	147.949	87.9995	147.949	87.7796	147.949	87.7749	147.949	87.5189	147.949	87.5164	147.949	87.2436	147.949	87.2447	147.949	86.9769	147.949	86.9826	147.949	86.7425	147.949	86.7528	147.949	86.561	147.949	86.5749	147.949	86.4471	147.949	86.4629	147.949	86.4063	147.949	86.4216	147.949	86.4335	147.949	86.4461	147.949	86.5136	147.949	86.5222	147.949	86.625	147.949	86.6294	147.949	86.7433	147.949	86.7444	147.949	86.8457	147.949	86.8451	147.949	86.9144	147.949	86.9136	147.949	86.9382
153.809	88.1634	153.809	88.1319	153.809	88.1151	153.809	88.0235	153.809	87.9897	153.809	87.846	153.809	87.7948	153.809	87.6118	153.809	87.5432	153.809	87.3381	153.809	87.2528	153.809	87.0457	153.809	86.9454	153.809	86.7581	153.809	86.646	153.809	86.4996	153.809	86.3806	153.809	86.2925	153.809	86.1729	153.809	86.154	153.809	86.0403	153.809	86.0928	153.809	85.9906	153.809	86.106	153.809	86.0191	153.809	86.1798	153.809	86.1096	153.809	86.2914	153.809	86.2374	153.809	86.414	153.809	86.3749	153.809	86.5213	153.809	86.4959	153.809	86.5923	153.809	86.5798	153.809	86.6134
159.668	88.2871	159.668	88.2466	159.668	88.2452	159.668	88.1269	159.668	88.123	159.668	87.9363	159.668	87.9285	159.668	87.6886	159.668	87.6743	159.668	87.4018	159.668	87.3784	159.668	87.0974	159.668	87.0625	159.668	86.7993	159.668	86.7513	159.668	86.5314	159.668	86.4706	159.668	86.3155	159.668	86.2441	159.668	86.1677	159.668	86.0905	159.668	86.0962	159.668	86.0192	159.668	86.0986	159.668	86.0277	159.668	86.1618	159.668	86.1014	159.668	86.2645	159.668	86.2168	159.668	86.3804	159.668	86.3458	159.668	86.4838	159.668	86.4615	159.668	86.5531	159.668	86.5423	159.668	86.5743
165.527	88.1471	165.527	88.1037	165.527	88.1049	165.527	87.9781	165.527	87.9799	165.527	87.7793	165.527	87.7808	165.527	87.5223	165.527	87.522	165.527	87.2269	165.527	87.2229	165.527	86.9172	165.527	86.9074	165.527	86.6197	165.527	86.6018	165.527	86.361	165.527	86.3332	165.527	86.1644	165.527	86.126	165.527	86.0466	165.527	85.9984	165.527	86.0137	165.527	85.9585	165.527	86.0595	165.527	86.0017	165.527	86.1663	165.527	86.111	165.527	86.3083	165.527	86.2599	165.527	86.4563	165.527	86.4181	165.527	86.5826	165.527	86.5564	165.527	86.6652	165.527	86.652	165.527	86.6899
171.387	87.8729	171.387	87.8206	171.387	87.8332	171.387	87.6793	171.387	87.7048	171.387	87.4586	171.387	87.4976	171.387	87.1741	171.387	87.2272	171.387	86.8472	171.387	86.915	171.387	86.5039	171.387	86.5865	171.387	86.1735	171.387	86.2701	171.387	85.8857	171.387	85.9942	171.387	85.6671	171.387	85.7845	171.387	85.5373	171.387	85.6597	171.387	85.5045	171.387	85.6276	171.387	85.5631	171.387	85.6826	171.387	85.6943	171.387	85.8056	171.387	85.8691	171.387	85.9674	171.387	86.0542	171.387	86.1342	171.387	86.2176	171.387	86.2744	171.387	86.3332	171.387	86.3627	171.387	86.3839
177.246	87.6135	177.246	87.5762	177.246	87.5518	177.246	87.4431	177.246	87.395	177.246	87.2239	177.246	87.1538	177.246	86.935	177.246	86.8458	177.246	86.5992	177.246	86.4951	177.246	86.2446	177.246	86.1313	177.246	85.9033	177.246	85.7873	177.246	85.6085	177.246	85.4965	177.246	85.3902	177.246	85.2881	177.246	85.27	177.246	85.1822	177.246	85.2557	177.246	85.1848	177.246	85.339	177.246	85.286	177.246	85.4965	177.246	85.4607	177.246	85.6948	177.246	85.674	177.246	85.8972	177.246	85.8877	177.246	86.0698	177.246	86.067	177.246	86.1853	177.246	86.1851	177.246	86.2261
183.105	87.5465	183.105	87.5097	183.105	87.4773	183.105	87.3703	183.105	87.306	183.105	87.1389	183.105	87.0432	183.105	86.8322	183.105	86.7071	183.105	86.4739	183.105	86.3228	183.105	86.093	183.105	85.9212	183.105	85.7231	183.105	85.5375	183.105	85.3994	183.105	85.208	183.105	85.155	183.105	84.965	183.105	85.0147	183.105	84.8318	183.105	84.9888	183.105	84.8171	183.105	85.0693	183.105	84.912	183.105	85.2304	183.105	85.0912	183.105	85.4346	183.105	85.3177	183.105	85.6411	183.105	85.5504	183.105	85.813	183.105	85.7513	183.105	85.9216	183.105	85.8905	183.105	85.9494
188.965	87.6285	188.965	87.5755	188.965	87.5676	188.965	87.4132	188.965	87.3949	188.965	87.1527	188.965	87.1195	188.965	86.8118	188.965	86.7576	188.965	86.4142	188.965	86.3326	188.965	85.9895	188.965	85.8755	188.965	85.5719	188.965	85.4234	188.965	85.1981	188.965	85.0178	188.965	84.9042	188.965	84.6991	188.965	84.7196	188.965	84.4999	188.965	84.6599	188.965	84.436	188.965	84.7205	188.965	84.5015	188.965	84.8752	188.965	84.6695	188.965	85.0821	188.965	84.8986	188.965	85.2942	188.965	85.1429	188.965	85.4686	188.965	85.3602	188.965	85.5736	188.965	85.5169	188.965	85.5912
196.289	87.5273	196.289	87.4584	196.289	87.4817	196.289	87.2794	196.289	87.3244	196.289	87.0017	196.289	87.0652	196.289	86.6435	196.289	86.7205	196.289	86.2297	196.289	86.3135	196.289	85.7905	196.289	85.8733	196.289	85.3603	196.289	85.4341	196.289	84.9756	196.289	85.0332	196.289	84.6716	196.289	84.7078	196.289	84.4774	196.289	84.4896	196.289	84.41	196.289	84.3978	196.289	84.4671	196.289	84.4331	196.289	84.6257	196.289	84.5753	196.289	84.845	196.289	84.7866	196.289	85.0766	196.289	85.0202	196.289	85.2743	196.289	85.2299	196.289	85.4021	196.289	85.3777	196.289	85.4385
203.613	87.2091	203.613	87.1307	203.613	87.1668	203.613	86.9355	203.613	87.0078	203.613	86.6355	203.613	86.7439	203.613	86.2508	203.613	86.394	203.613	85.8095	203.613	85.9838	203.613	85.3464	203.613	85.5447	203.613	84.9011	203.613	85.1126	203.613	84.5143	203.613	84.7253	203.613	84.223	203.613	84.4186	203.613	84.0543	203.613	84.2211	203.613	84.0192	203.613	84.1482	203.613	84.1087	203.613	84.1967	203.613	84.2947	203.613	84.344	203.613	84.5348	203.613	84.5528	203.613	84.7811	203.613	84.7789	203.613	84.9895	203.613	84.979	203.613	85.1257	203.613	85.1175	203.613	85.1699
210.938	87.1235	210.938	87.0623	210.938	87.056	210.938	86.8765	210.938	86.8643	210.938	86.5785	210.938	86.5617	210.938	86.189	210.938	86.1698	210.938	85.7363	210.938	85.7182	210.938	85.2553	210.938	85.2432	210.938	84.786	210.938	84.785	210.938	84.3704	210.938	84.385	210.938	84.0476	210.938	84.0798	210.938	83.848	210.938	83.896	210.938	83.7858	210.938	83.8444	210.938	83.8546	210.938	83.9163	210.938	84.0267	210.938	84.0843	210.938	84.2595	210.938	84.3077	210.938	84.5046	210.938	84.5408	210.938	84.7167	210.938	84.7405	210.938	84.8608	210.938	84.8725	210.938	84.9152
218.262	86.8302	218.262	86.7574	218.262	86.7581	218.262	86.5441	218.262	86.5466	218.262	86.2044	218.262	86.2115	218.262	85.7629	218.262	85.7791	218.262	85.2543	218.262	85.2863	218.262	84.7232	218.262	84.7788	218.262	84.2224	218.262	84.3088	218.262	83.8077	218.262	83.9276	218.262	83.529	218.262	83.6771	218.262	83.4178	218.262	83.579	218.262	83.4774	218.262	83.6296	218.262	83.6802	218.262	83.8016	218.262	83.9763	218.262	84.0531	218.262	84.3068	218.262	84.3381	218.262	84.6163	218.262	84.6136	218.262	84.8615	218.262	84.8435	218.262	85.0136	218.262	84.9989	218.262	85.0594
225.586	87.2417	225.586	87.175	225.586	87.1504	225.586	86.9539	225.586	86.9053	225.586	86.5903	225.586	86.5192	225.586	86.1045	225.586	86.0142	225.586	85.5271	225.586	85.4232	225.586	84.9005	225.586	84.7923	225.586	84.2804	225.586	84.1826	225.586	83.7361	225.586	83.6686	225.586	83.3431	225.586	83.3286	225.586	83.1654	225.586	83.2209	225.586	83.2301	225.586	83.3578	225.586	83.5116	225.586	83.695	225.586	83.94	225.586	84.1501	225.586	84.4279	225.586	84.6332	225.586	84.8947	225.586	85.069	225.586	85.2785	225.586	85.4034	225.586	85.5378	225.586	85.6026	225.586	85.6488
232.91	87.4483	232.91	87.3715	232.91	87.3638	232.91	87.1381	232.91	87.1208	232.91	86.7606	232.91	86.7303	232.91	86.259	232.91	86.2112	232.91	85.6604	232.91	85.5908	232.91	84.9994	232.91	84.9053	232.91	84.3203	232.91	84.2026	232.91	83.6792	232.91	83.5452	232.91	83.1471	232.91	83.0112	232.91	82.8034	232.91	82.6852	232.91	82.7122	232.91	82.6294	232.91	82.8879	232.91	82.8474	232.91	83.2764	232.91	83.2717	232.91	83.7762	232.91	83.7934	232.91	84.2787	232.91	84.3035	232.91	84.6965	232.91	84.7183	232.91	84.9712	232.91	84.9836	232.91	85.0706
241.699	87.0896	241.699	86.9911	241.699	87.0211	241.699	86.7306	241.699	86.7899	241.699	86.3218	241.699	86.4088	241.699	85.7876	241.699	85.899	241.699	85.1594	241.699	85.29	241.699	84.4772	241.699	84.6193	241.699	83.7895	241.699	83.9326	241.699	83.1531	241.699	83.2853	241.699	82.6334	241.699	82.7431	241.699	82.2976	241.699	82.3774	241.699	82.1985	241.699	82.2479	241.699	82.3485	241.699	82.3734	241.699	82.7035	241.699	82.712	241.699	83.1739	241.699	83.1728	241.699	83.6565	241.699	83.6506	241.699	84.062	241.699	84.0551	241.699	84.3275	241.699	84.3231	241.699	84.418
250.488	87.672	250.488	87.5917	250.488	87.5771	250.488	87.3404	250.488	87.3118	250.488	86.9303	250.488	86.8891	250.488	86.3814	250.488	86.3304	250.488	85.72	250.488	85.6648	250.488	84.9783	250.488	84.9277	250.488	84.1926	250.488	84.1602	250.488	83.4055	250.488	83.4094	250.488	82.6688	250.488	82.7309	250.488	82.0497	250.488	82.1912	250.488	81.6276	250.488	81.8598	250.488	81.4715	250.488	81.7836	250.488	81.5974	250.488	81.9528	250.488	81.9433	250.488	82.2909	250.488	82.3924	250.488	82.6857	250.488	82.8218	250.488	83.0299	250.488	83.1379	250.488	83.2449	250.488	83.2853
259.277	87.111	259.277	87.0378	259.277	87.0058	259.277	86.7923	259.277	86.727	259.277	86.3908	259.277	86.2906	259.277	85.8597	259.277	85.7229	259.277	85.2341	259.277	85.0607	259.277	84.556	259.277	84.3487	259.277	83.8732	259.277	83.6383	259.277	83.2381	259.277	82.9857	259.277	82.7076	259.277	82.4517	259.277	82.3393	259.277	82.0981	259.277	82.1799	259.277	81.9747	259.277	82.2448	259.277	82.0952	259.277	82.5029	259.277	82.4183	259.277	82.8817	259.277	82.856	259.277	83.2921	259.277	83.3057	259.277	83.6519	259.277	83.6798	259.277	83.899	259.277	83.9192	259.277	83.9939
268.066	86.9627	268.066	86.845	268.066	86.8955	268.066	86.5501	268.066	86.6456	268.066	86.0955	268.066	86.2252	268.066	85.507	268.066	85.6552	268.066	84.8168	268.066	84.9643	268.066	84.062	268.066	84.1876	268.066	83.2829	268.066	83.3662	268.066	82.5246	268.066	82.5513	268.066	81.8441	268.066	81.812	268.066	81.3175	268.066	81.2427	268.066	81.0359	268.066	80.9524	268.066	81.068	268.066	81.0142	268.066	81.4041	268.066	81.4005	268.066	81.9405	268.066	81.9809	268.066	82.5302	268.066	82.5917	268.066	83.0427	268.066	83.1	268.066	83.3899	268.066	83.4237	268.066	83.523
276.855	86.9165	276.855	86.809	276.855	86.8521	276.855	86.5284	276.855	86.6248	276.855	86.0813	276.855	86.2497	276.855	85.4841	276.855	85.7468	276.855	84.7643	276.855	85.1388	276.855	83.962	276.855	84.4502	276.855	83.1306	276.855	83.7064	276.855	82.3332	276.855	82.9371	276.855	81.6374	276.855	82.1813	276.855	81.1088	276.855	81.4955	276.855	80.8041	276.855	80.9617	276.855	80.7592	276.855	80.6784	276.855	80.9688	276.855	80.7163	276.855	81.3697	276.855	81.0529	276.855	81.85	276.855	81.5615	276.855	82.2839	276.855	82.0759	276.855	82.5663	276.855	82.4595	276.855	82.6319
287.109	86.7679	287.109	86.675	287.109	86.6714	287.109	86.4042	287.109	86.3879	287.109	85.9786	287.109	85.9349	287.109	85.4308	287.109	85.3447	287.109	84.7988	287.109	84.6632	287.109	84.1222	287.109	83.9443	287.109	83.4397	287.109	83.2425	287.109	82.7895	287.109	82.6055	287.109	82.2139	287.109	82.0724	287.109	81.7649	287.109	81.6808	287.109	81.5008	287.109	81.4726	287.109	81.4647	287.109	81.4841	287.109	81.6541	287.109	81.7149	287.109	82.0099	287.109	82.1046	287.109	82.4372	287.109	82.5482	287.109	82.837	287.109	82.9362	287.109	83.1273	287.109	83.1859	287.109	83.2522
297.363	86.97	297.363	86.8765	297.363	86.8499	297.363	86.578	297.363	86.5223	297.363	86.0982	297.363	86.0078	297.363	85.4732	297.363	85.3398	297.363	84.7473	297.363	84.5619	297.363	83.965	297.363	83.7254	297.363	83.1646	297.363	82.8852	297.363	82.3765	297.363	82.096	297.363	81.6362	297.363	81.4078	297.363	81.0088	297.363	80.8668	297.363	80.6079	297.363	80.5213	297.363	80.5582	297.363	80.4243	297.363	80.8856	297.363	80.6095	297.363	81.4586	297.363	81.0463	297.363	82.0725	297.363	81.6234	297.363	82.5622	297.363	82.1934	297.363	82.8356	297.363	82.6311	297.363	82.8575
307.617	86.4393	307.617	86.2953	307.617	86.3452	307.617	85.9219	307.617	86.022	307.617	85.3454	307.617	85.4971	307.617	84.6108	307.617	84.8159	307.617	83.7805	307.617	84.0395	307.617	82.9304	307.617	83.2386	307.617	82.1376	307.617	82.4837	307.617	81.4647	307.617	81.834	307.617	80.9464	307.617	81.3314	307.617	80.5934	307.617	81.0005	307.617	80.4121	307.617	80.8538	307.617	80.4242	307.617	80.8941	307.617	80.6545	307.617	81.109	307.617	81.0846	307.617	81.4595	307.617	81.6212	307.617	81.8757	307.617	82.1278	307.617	82.2669	307.617	82.4851	307.617	82.5411	307.617	82.6262
319.336	86.1062	319.336	85.9722	319.336	85.9969	319.336	85.6053	319.336	85.6469	319.336	85.0281	319.336	85.0727	319.336	84.2744	319.336	84.3053	319.336	83.3892	319.336	83.3897	319.336	82.4267	319.336	82.3825	319.336	81.449	319.336	81.3514	319.336	80.5236	319.336	80.3773	319.336	79.7261	319.336	79.5633	319.336	79.1468	319.336	79.0385	319.336	78.8874	319.336	78.9235	319.336	79.0207	319.336	79.2464	319.336	79.5213	319.336	79.8943	319.336	80.2502	319.336	80.6735	319.336	81.0243	319.336	81.4061	319.336	81.6918	319.336	81.9716	319.336	82.1557	319.336	82.302	319.336	82.3653
329.59	85.6179	329.59	85.4778	329.59	85.5227	329.59	85.1132	329.59	85.1993	329.59	84.5525	329.59	84.6723	329.59	83.84	329.59	83.9814	329.59	83.031	329.59	83.178	329.59	82.1857	329.59	82.3179	329.59	81.3612	329.59	81.4537	329.59	80.608	329.59	80.6295	329.59	79.9723	329.59	79.8882	329.59	79.5044	329.59	79.2916	329.59	79.2658	329.59	78.9406	329.59	79.3156	329.59	78.9513	329.59	79.6656	329.59	79.3583	329.59	80.24	329.59	80.0435	329.59	80.8947	329.59	80.7998	329.59	81.4772	329.59	81.4446	329.59	81.8721	329.59	81.8655	329.59	82.0109
341.309	85.632	341.309	85.5063	341.309	85.4655	341.309	85.098	341.309	85.0144	341.309	84.4343	341.309	84.3038	341.309	83.5615	341.309	83.38	341.309	82.544	341.309	82.3122	341.309	81.4584	341.309	81.1929	341.309	80.3844	341.309	80.1293	341.309	79.398	341.309	79.2243	341.309	78.5808	341.309	78.5574	341.309	78.0452	341.309	78.1822	341.309	77.9355	341.309	78.1461	341.309	78.3394	341.309	78.4909	341.309	79.1685	341.309	79.1963	341.309	80.1887	341.309	80.1275	341.309	81.1647	341.309	81.0801	341.309	81.9386	341.309	81.8726	341.309	82.4238	341.309	82.3903	341.309	82.5788
353.027	85.4987	353.027	85.3669	353.027	85.3936	353.027	85.0028	353.027	85.0591	353.027	84.4248	353.027	84.5144	353.027	83.6662	353.027	83.789	353.027	82.7755	353.027	82.9221	353.027	81.8119	353.027	81.9594	353.027	80.8335	353.027	80.9469	353.027	79.8812	353.027	79.9233	353.027	78.9697	353.027	78.9167	353.027	78.1057	353.027	77.9625	353.027	77.3523	353.027	77.1597	353.027	76.9228	353.027	76.739	353.027	77.1279	353.027	76.9769	353.027	78.0082	353.027	77.8669	353.027	79.1846	353.027	79.0423	353.027	80.2304	353.027	80.109	353.027	80.9037	353.027	80.8335	353.027	81.1102
366.211	86.001	366.211	85.8139	366.211	85.864	366.211	85.3173	366.211	85.4106	366.211	84.5497	366.211	84.6702	366.211	83.5731	366.211	83.6938	366.211	82.4687	366.211	82.5524	366.211	81.325	366.211	81.3322	366.211	80.2182	366.211	80.1248	366.211	79.193	366.211	79.0116	366.211	78.2599	366.211	78.0484	366.211	77.4232	366.211	77.2572	366.211	76.743	366.211	76.6501	366.211	76.3908	366.211	76.2928	366.211	76.5772	366.211	76.3448	366.211	77.3033	366.211	76.9227	366.211	78.2802	366.211	77.8744	366.211	79.1652	366.211	78.8535	366.211	79.7338	366.211	79.5708	366.211	79.8786
379.395	84.6027	379.395	84.445	379.395	84.4847	379.395	84.0287	379.395	84.0974	379.395	83.3904	379.395	83.4734	379.395	82.5843	379.395	82.6709	379.395	81.6784	379.395	81.7646	379.395	80.745	379.395	80.8299	379.395	79.8447	379.395	79.926	379.395	79.0104	379.395	79.0904	379.395	78.2432	379.395	78.3446	379.395	77.5242	379.395	77.7064	379.395	76.8493	379.395	77.2049	379.395	76.2939	379.395	76.8979	379.395	76.0588	379.395	76.8689	379.395	76.3472	379.395	77.1701	379.395	77.0903	379.395	77.731	379.395	77.9536	379.395	78.3509	379.395	78.6175	379.395	78.7997	379.395	78.9117
392.578	83.7437	392.578	83.5312	392.578	83.5841	392.578	82.9597	392.578	83.0627	392.578	82.071	392.578	82.2159	392.578	80.948	392.578	81.1165	392.578	79.7263	392.578	79.886	392.578	78.5856	392.578	78.6924	392.578	77.6954	392.578	77.7093	392.578	77.1331	392.578	77.041	392.578	76.8542	392.578	76.6792	392.578	76.7488	392.578	76.5379	392.578	76.7274	392.578	76.5283	392.578	76.7756	392.578	76.6207	392.578	76.9555	392.578	76.8596	392.578	77.3349	392.578	77.2986	392.578	77.8854	392.578	77.8957	392.578	78.465	392.578	78.4967	392.578	78.9022	392.578	78.9271	392.578	79.0727
405.762	84.4564	405.762	84.2866	405.762	84.2262	405.762	83.7195	405.762	83.6102	405.762	82.7782	405.762	82.6407	405.762	81.514	405.762	81.3739	405.762	80.0204	405.762	79.9007	405.762	78.4486	405.762	78.3585	405.762	77.0057	405.762	76.9264	405.762	75.8989	405.762	75.7828	405.762	75.2396	405.762	75.0344	405.762	75.0118	405.762	74.6904	405.762	75.1509	405.762	74.7248	405.762	75.6185	405.762	75.1447	405.762	76.3765	405.762	75.948	405.762	77.3197	405.762	77.0137	405.762	78.2795	405.762	78.1106	405.762	79.0882	405.762	79.0193	405.762	79.6221	405.762	79.6035	405.762	79.8057
420.41	86.875	420.41	86.7381	420.41	86.5997	420.41	86.2083	420.41	85.9234	420.41	85.3357	420.41	84.8903	420.41	84.2023	420.41	83.5826	420.41	82.921	420.41	82.1245	420.41	81.626	420.41	80.6752	420.41	80.4467	420.41	79.399	420.41	79.4709	420.41	78.4115	420.41	78.7209	420.41	77.7378	420.41	78.1732	420.41	77.3209	420.41	77.8195	420.41	77.0855	420.41	77.7448	420.41	77.0263	420.41	78.1217	420.41	77.2636	420.41	78.9944	420.41	77.9492	420.41	80.1009	420.41	79.0291	420.41	81.0621	420.41	80.2025	420.41	81.6146	420.41	81.1432	420.41	81.6437
435.059	89.1296	435.059	88.9446	435.059	88.8545	435.059	88.3047	435.059	88.1269	435.059	87.2289	435.059	86.9749	435.059	85.7603	435.059	85.4591	435.059	83.9945	435.059	83.6884	435.059	82.1159	435.059	81.8308	435.059	80.3976	435.059	80.1022	435.059	79.0972	435.059	78.7145	435.059	78.3094	435.059	77.8087	435.059	77.977	435.059	77.4368	435.059	78.0558	435.059	77.6038	435.059	78.6186	435.059	78.3069	435.059	79.7175	435.059	79.4985	435.059	81.1625	435.059	80.9966	435.059	82.6106	435.059	82.5033	435.059	83.7888	435.059	83.7398	435.059	84.5451	435.059	84.5317	435.059	84.8035
451.172	90.1164	451.172	89.8813	451.172	89.8849	451.172	89.1824	451.172	89.1876	451.172	88.0315	451.172	88.0286	451.172	86.4617	451.172	86.4237	451.172	84.5457	451.172	84.4222	451.172	82.4254	451.172	82.1528	451.172	80.3519	451.172	79.8995	451.172	78.6809	451.172	78.1252	451.172	77.6899	451.172	77.2196	451.172	77.3297	451.172	77.0947	451.172	77.3291	451.172	77.3144	451.172	77.5331	451.172	77.575	451.172	78.0509	451.172	77.9503	451.172	79.045	451.172	78.7669	451.172	80.366	451.172	80.0651	451.172	81.6155	451.172	81.4111	451.172	82.4624	451.172	82.3691	451.172	82.7334
465.82	89.1933	465.82	89.0211	465.82	88.912	465.82	88.4013	465.82	88.1838	465.82	87.3496	465.82	87.031	465.82	85.8925	465.82	85.4975	465.82	84.0772	465.82	83.6564	465.82	81.9944	465.82	81.6213	465.82	79.813	465.82	79.5568	465.82	77.7928	465.82	77.6715	465.82	76.2213	465.82	76.1699	465.82	75.2853	465.82	75.1845	465.82	75.0427	465.82	74.7821	465.82	75.5434	465.82	75.059	465.82	76.7853	465.82	76.1032	465.82	78.4877	465.82	77.738	465.82	80.1916	465.82	79.5221	465.82	81.5403	465.82	81.051	465.82	82.3466	465.82	82.0908	465.82	82.5346
483.398	88.4291	483.398	88.1714	483.398	88.1602	483.398	87.4084	483.398	87.365	483.398	86.1865	483.398	86.0685	483.398	84.5875	483.398	84.3332	483.398	82.7428	483.398	82.286	483.398	80.8408	483.398	80.1561	483.398	79.0938	483.398	78.2771	483.398	77.6572	483.398	76.9565	483.398	76.5627	483.398	76.2543	483.398	75.7179	483.398	75.946	483.398	74.9838	483.398	75.698	483.398	74.4217	483.398	75.2882	483.398	74.6123	483.398	74.9607	483.398	76.0643	483.398	75.6543	483.398	78.1365	483.398	77.5777	483.398	79.947	483.398	79.5951	483.398	81.095	483.398	80.9474	483.398	81.4467
499.512	88.1616	499.512	87.8803	499.512	87.8262	499.512	86.9829	499.512	86.8782	499.512	85.4743	499.512	85.3283	499.512	83.3772	499.512	83.199	499.512	80.7845	499.512	80.543	499.512	77.9972	499.512	77.5085	499.512	75.6889	499.512	74.528	499.512	74.5418	499.512	72.5305	499.512	74.4318	499.512	72.2745	499.512	74.7892	499.512	73.2794	499.512	75.2833	499.512	74.6403	499.512	75.9008	499.512	75.8263	499.512	76.8176	499.512	76.7207	499.512	78.1084	499.512	77.5643	499.512	79.5445	499.512	78.6771	499.512	80.766	499.512	79.98	499.512	81.5011	499.512	81.063	499.512	81.6086
517.09	88.8835	517.09	88.5901	517.09	88.5845	517.09	87.6866	517.09	87.701	517.09	86.1495	517.09	86.2209	517.09	83.9454	517.09	84.1019	517.09	81.0251	517.09	81.2678	517.09	77.3481	517.09	77.6282	517.09	73.0591	517.09	73.1936	517.09	69.2116	517.09	68.7055	517.09	68.0445	517.09	67.0429	517.09	69.1983	517.09	68.7885	517.09	70.8849	517.09	71.0455	517.09	72.6547	517.09	72.897	517.09	74.6448	517.09	74.5096	517.09	76.7985	517.09	76.2468	517.09	78.7528	517.09	78.1054	517.09	80.207	517.09	79.7227	517.09	81.046	517.09	80.8041	517.09	81.2477
536.133	89.195	536.133	88.9622	536.133	88.8755	536.133	88.1728	536.133	88.005	536.133	86.8146	536.133	86.5863	536.133	84.8629	536.133	84.6286	536.133	82.2799	536.133	82.1529	536.133	79.019	536.133	79.1954	536.133	75.0432	536.133	75.8015	536.133	70.419	536.133	71.9994	536.133	65.8798	536.133	67.7838	536.133	64.0079	536.133	63.7758	536.133	65.3917	536.133	64.2449	536.133	68.2666	536.133	68.6941	536.133	72.0849	536.133	72.9368	536.133	75.8403	536.133	76.3851	536.133	78.8304	536.133	79.0293	536.133	80.8896	536.133	80.8941	536.133	82.0561	536.133	82.0149	536.133	82.41
555.176	87.9293	555.176	87.6932	555.176	87.6047	555.176	86.8939	555.176	86.7434	555.176	85.5402	555.176	85.3914	555.176	83.6399	555.176	83.5966	555.176	81.1915	555.176	81.372	555.176	78.1997	555.176	78.6788	555.176	74.7678	555.176	75.4944	555.176	71.3082	555.176	72.0045	555.176	68.492	555.176	68.7611	555.176	66.2479	555.176	66.3531	555.176	63.3716	555.176	65.0532	555.176	60.4729	555.176	65.0622	555.176	66.1708	555.176	67.3773	555.176	72.212	555.176	71.6738	555.176	76.2421	555.176	75.6335	555.176	78.8042	555.176	78.4201	555.176	80.2101	555.176	80.0371	555.176	80.6103
574.219	88.9754	574.219	88.6854	574.219	88.6495	574.219	87.7831	574.219	87.6911	574.219	86.2594	574.219	86.0777	574.219	84.0919	574.219	83.7931	574.219	81.2453	574.219	80.8363	574.219	77.7024	574.219	77.2116	574.219	73.6043	574.219	72.9292	574.219	69.5829	574.219	68.0457	574.219	66.8363	574.219	62.4616	574.219	65.683	574.219	56.0353	574.219	64.3127	574.219	57.6234	574.219	58.2041	574.219	62.5772	574.219	59.5753	574.219	67.2957	574.219	71.2712	574.219	72.4686	574.219	76.8209	574.219	76.8697	574.219	80.0637	574.219	79.9541	574.219	81.8113	574.219	81.7433	574.219	82.3465
594.727	87.7771	594.727	87.4394	594.727	87.5197	594.727	86.5391	594.727	86.6562	594.727	85.1106	594.727	85.2074	594.727	83.1678	594.727	83.2168	594.727	80.6811	594.727	80.7221	594.727	77.5693	594.727	77.7375	594.727	73.7769	594.727	74.3104	594.727	69.5511	594.727	70.771	594.727	65.5492	594.727	67.9521	594.727	62.2969	594.727	65.8387	594.727	61.4529	594.727	62.5002	594.727	60.3614	594.727	52.5262	594.727	58.3842	594.727	58.9998	594.727	69.006	594.727	69.0771	594.727	75.351	594.727	74.7369	594.727	78.9417	594.727	78.3391	594.727	80.7706	594.727	80.4275	594.727	81.2231
615.234	86.804	615.234	86.4031	615.234	86.471	615.234	85.279	615.234	85.4443	615.234	83.4956	615.234	83.8195	615.234	81.1586	615.234	81.7496	615.234	78.3553	615.234	79.383	615.234	75.0518	615.234	76.7179	615.234	71.0856	615.234	73.6085	615.234	66.5983	615.234	70.297	615.234	63.3909	615.234	68.1219	615.234	63.2741	615.234	67.6002	615.234	64.4687	615.234	67.3944	615.234	64.6798	615.234	66.0465	615.234	59.9598	615.234	59.9974	615.234	58.5042	615.234	64.3949	615.234	71.0845	615.234	73.286	615.234	76.3364	615.234	77.6036	615.234	79.0451	615.234	79.6527	615.234	80.0833
637.207	87.2722	637.207	86.9266	637.207	86.7974	637.207	85.7488	637.207	85.5116	637.207	83.7339	637.207	83.4194	637.207	80.8948	637.207	80.5414	637.207	77.2753	637.207	76.9737	637.207	72.951	637.207	72.9382	637.207	67.9321	637.207	68.5535	637.207	62.3062	637.207	63.4698	637.207	59.8313	637.207	59.7515	637.207	61.4578	637.207	61.9276	637.207	62.9017	637.207	64.2497	637.207	64.4415	637.207	65.4347	637.207	64.2217	637.207	64.7449	637.207	55.7583	637.207	57.9467	637.207	64.3312	637.207	63.6538	637.207	73.1793	637.207	72.6714	637.207	76.9163	637.207	76.6567	637.207	77.9437
659.18	86.3349	659.18	85.9827	659.18	85.858	659.18	84.8045	659.18	84.5089	659.18	82.7469	659.18	82.2072	659.18	79.6773	659.18	78.8388	659.18	75.351	659.18	74.3178	659.18	69.2855	659.18	68.9392	659.18	60.2141	659.18	63.8775	659.18	54.4542	659.18	58.2236	659.18	59.3797	659.18	51.7597	659.18	61.9002	659.18	59.8759	659.18	63.2631	659.18	62.5465	659.18	62.6821	659.18	63.0968	659.18	60.135	659.18	65.034	659.18	64.3021	659.18	67.0835	659.18	70.6339	659.18	69.1608	659.18	74.7356	659.18	72.6558	659.18	76.8701	659.18	75.7198	659.18	77.1803
682.617	87.0939	682.617	86.6524	682.617	86.6087	682.617	85.314	682.617	85.214	682.617	83.1308	682.617	82.9126	682.617	80.0307	682.617	79.5537	682.617	75.565	682.617	74.5948	682.617	68.4206	682.617	66.4465	682.617	51.2727	682.617	56.421	682.617	56.6875	682.617	62.0761	682.617	60.098	682.617	62.8224	682.617	62.313	682.617	61.6425	682.617	62.6453	682.617	58.5992	682.617	57.7492	682.617	48.5293	682.617	54.5688	682.617	55.5469	682.617	66.6318	682.617	66.098	682.617	72.5795	682.617	72.4779	682.617	76.5581	682.617	76.6485	682.617	78.9808	682.617	79.0464	682.617	79.8168
707.52	87.6918	707.52	87.329	707.52	87.1073	707.52	85.9783	707.52	85.5575	707.52	83.5297	707.52	82.9721	707.52	79.8034	707.52	79.2139	707.52	74.4693	707.52	74.0052	707.52	66.0415	707.52	66.5953	707.52	50.6222	707.52	55.2534	707.52	65.0655	707.52	57.8791	707.52	67.5252	707.52	61.3272	707.52	66.6712	707.52	63.8296	707.52	64.2626	707.52	66.903	707.52	62.4155	707.52	68.6531	707.52	57.8668	707.52	67.4493	707.52	53.2323	707.52	60.1789	707.52	67.8971	707.52	66.796	707.52	74.3831	707.52	74.4288	707.52	77.9107	707.52	77.9935	707.52	79.0679
732.422	87.0534	732.422	86.7047	732.422	86.3302	732.422	85.2791	732.422	84.5223	732.422	82.6935	732.422	81.6077	732.422	78.662	732.422	77.4202	732.422	72.3223	732.422	71.2621	732.422	60.2096	732.422	63.1545	732.422	62.2169	732.422	64.9696	732.422	67.1681	732.422	67.0886	732.422	68.837	732.422	67.4172	732.422	68.4675	732.422	66.8966	732.422	66.4402	732.422	66.0261	732.422	65.2879	732.422	65.6381	732.422	63.6797	732.422	63.5605	732.422	59.822	732.422	43.4123	732.422	70.0374	732.422	66.6637	732.422	75.4645	732.422	73.6035	732.422	77.8945	732.422	76.961	732.422	78.3161
757.324	87.1138	757.324	86.7018	757.324	86.4059	757.324	85.0826	757.324	84.5261	757.324	82.0319	757.324	81.2258	757.324	77.1545	757.324	75.9784	757.324	70.0667	757.324	67.8137	757.324	65.2859	757.324	61.8016	757.324	66.7258	757.324	66.2846	757.324	66.2962	757.324	67.9692	757.324	65.7194	757.324	67.6987	757.324	68.5773	757.324	67.5179	757.324	70.3242	757.324	66.2977	757.324	69.8692	757.324	61.0465	757.324	67.6402	757.324	61.25	757.324	61.9309	757.324	56.2363	757.324	64.2901	757.324	66.5596	757.324	72.763	757.324	75.1788	757.324	76.8612	757.324	78.2683	757.324	78.5899
785.156	86.9445	785.156	86.2201	785.156	86.3909	785.156	84.1552	785.156	84.5167	785.156	80.5427	785.156	81.0908	785.156	74.5247	785.156	75.3099	785.156	59.8513	785.156	63.7446	785.156	67.1665	785.156	67.0647	785.156	71.6394	785.156	71.2717	785.156	72.1373	785.156	72.3143	785.156	71.0791	785.156	72.4359	785.156	69.6252	785.156	71.8497	785.156	69.536	785.156	71.0507	785.156	70.7587	785.156	70.0676	785.156	70.6231	785.156	66.6943	785.156	66.703	785.156	55.2326	785.156	57.4154	785.156	61.8236	785.156	71.2098	785.156	71.6117	785.156	76.4946	785.156	76.6141	785.156	78.1584
811.523	87.6612	811.523	87.0256	811.523	86.9417	811.523	84.9454	811.523	84.8057	811.523	81.1153	811.523	80.9386	811.523	74.5568	811.523	74.2019	811.523	62.4857	811.523	55.5573	811.523	69.6319	811.523	68.9652	811.523	73.0776	811.523	73.0752	811.523	73.0589	811.523	73.8511	811.523	71.0765	811.523	72.5211	811.523	69.0106	811.523	70.3819	811.523	69.3168	811.523	69.7985	811.523	71.0778	811.523	68.9424	811.523	71.1721	811.523	68.4096	811.523	67.9958	811.523	68.0383	811.523	62.6282	811.523	53.4202	811.523	72.4921	811.523	70.9358	811.523	77.3935	811.523	77.2101	811.523	78.8081
840.82	87.749	840.82	87.2281	840.82	87.056	840.82	85.3058	840.82	85.0983	840.82	81.4784	840.82	81.4687	840.82	74.1805	840.82	74.7318	840.82	48.9071	840.82	60.8569	840.82	71.9079	840.82	71.6521	840.82	75.6292	840.82	74.3007	840.82	75.8939	840.82	73.6223	840.82	73.3028	840.82	71.1497	840.82	69.7098	840.82	70.6346	840.82	68.562	840.82	72.725	840.82	68.0396	840.82	72.7653	840.82	70.5289	840.82	69.2298	840.82	70.7144	840.82	60.4425	840.82	61.2347	840.82	56.8122	840.82	68.7428	840.82	70.5792	840.82	75.7712	840.82	75.966	840.82	77.4931
870.117	87.9657	870.117	86.9523	870.117	87.5408	870.117	84.6829	870.117	85.321	870.117	80.7923	870.117	80.6942	870.117	72.8245	870.117	71.2746	870.117	65.0512	870.117	67.0789	870.117	74.6204	870.117	75.7158	870.117	76.6146	870.117	78.4409	870.117	76.9623	870.117	78.6732	870.117	76.2098	870.117	76.9231	870.117	73.3976	870.117	73.5732	870.117	70.2657	870.117	68.5429	870.117	69.8889	870.117	64.5141	870.117	66.8182	870.117	69.3104	870.117	63.3884	870.117	68.7081	870.117	58.058	870.117	61.4295	870.117	72.2385	870.117	72.8514	870.117	78.5303	870.117	78.3011	870.117	80.1035
900.879	88.4408	900.879	87.8811	900.879	87.5176	900.879	85.5671	900.879	85.1181	900.879	80.8551	900.879	80.8278	900.879	71.3803	900.879	72.8993	900.879	64.6959	900.879	58.9955	900.879	74.7373	900.879	73.945	900.879	77.9459	900.879	77.8	900.879	78.6359	900.879	78.7698	900.879	78.1855	900.879	78.2379	900.879	77.6905	900.879	77.3276	900.879	76.7088	900.879	75.6832	900.879	74.688	900.879	71.7912	900.879	72.5204	900.879	69.8643	900.879	71.9282	900.879	71.0057	900.879	71.5877	900.879	68.759	900.879	73.3204	900.879	72.4371	900.879	77.8491	900.879	78.0747	900.879	79.7305
933.105	88.856	933.105	88.1374	933.105	87.9755	933.105	85.683	933.105	85.4011	933.105	80.9129	933.105	80.7812	933.105	71.4212	933.105	73.4176	933.105	70.824	933.105	71.6523	933.105	76.9619	933.105	76.1933	933.105	78.8316	933.105	77.8425	933.105	79.038	933.105	78.3766	933.105	78.0459	933.105	78.7177	933.105	76.0893	933.105	77.8045	933.105	75.2334	933.105	75.7188	933.105	75.0798	933.105	73.8856	933.105	74.1474	933.105	70.4403	933.105	73.1579	933.105	68.7246	933.105	68.8168	933.105	63.0319	933.105	62.8258	933.105	67.4811	933.105	74.2502	933.105	75.7648	933.105	77.353
965.332	88.2505	965.332	87.5063	965.332	87.1606	965.332	84.5969	965.332	84.1181	965.332	78.4269	965.332	77.7926	965.332	64.0376	965.332	68.4037	965.332	74.9701	965.332	74.1693	965.332	78.9018	965.332	77.0547	965.332	80.2775	965.332	79.3681	965.332	80.7471	965.332	80.0814	965.332	80.2143	965.332	78.9181	965.332	77.6857	965.332	77.5862	965.332	74.228	965.332	76.6535	965.332	74.585	965.332	74.3671	965.332	73.294	965.332	71.2195	965.332	70.8188	965.332	69.8623	965.332	69.5303	965.332	66.3641	965.332	60.4344	965.332	68.6756	965.332	75.4553	965.332	76.3074	965.332	78.3278
1,000.49	87.6775	1,000.49	86.6957	1,000.49	86.5546	1,000.49	83.5405	1,000.49	83.0468	1,000.49	77.3816	1,000.49	75.9086	1,000.49	67.681	1,000.49	69.353	1,000.49	75.201	1,000.49	76.1203	1,000.49	77.9423	1,000.49	78.2315	1,000.49	78.6872	1,000.49	78.4716	1,000.49	79.249	1,000.49	78.9391	1,000.49	78.7108	1,000.49	78.8627	1,000.49	76.3535	1,000.49	76.6394	1,000.49	73.9722	1,000.49	74.8152	1,000.49	73.6785	1,000.49	75.4198	1,000.49	72.8998	1,000.49	73.5066	1,000.49	71.9384	1,000.49	72.1875	1,000.49	68.0408	1,000.49	70.5013	1,000.49	55.8258	1,000.49	43.3521	1,000.49	73.1692	1,000.49	73.4659	1,000.49	76.5039
1,035.64	88.4927	1,035.64	87.6447	1,035.64	87.2736	1,035.64	84.2133	1,035.64	83.5544	1,035.64	75.6568	1,035.64	74.9006	1,035.64	67.8152	1,035.64	66.2855	1,035.64	76.1418	1,035.64	75.651	1,035.64	78.1786	1,035.64	77.2988	1,035.64	78.8892	1,035.64	78.5226	1,035.64	79.4556	1,035.64	79.6017	1,035.64	80.1813	1,035.64	79.3422	1,035.64	79.2252	1,035.64	77.8754	1,035.64	75.4831	1,035.64	75.4954	1,035.64	72.4383	1,035.64	73.3449	1,035.64	70.1773	1,035.64	72.5378	1,035.64	69.0358	1,035.64	71.7257	1,035.64	69.5153	1,035.64	69.2178	1,035.64	58.9925	1,035.64	55.1345	1,035.64	75.2609	1,035.64	73.9406	1,035.64	77.2351
1,072.27	88.0491	1,072.27	87.1114	1,072.27	86.8707	1,072.27	83.6884	1,072.27	83.5263	1,072.27	75.4809	1,072.27	76.2097	1,072.27	69.8518	1,072.27	68.4361	1,072.27	77.8897	1,072.27	76.4513	1,072.27	79.5014	1,072.27	77.897	1,072.27	79.3198	1,072.27	76.8768	1,072.27	78.0951	1,072.27	76.1902	1,072.27	77.6419	1,072.27	77.5069	1,072.27	77.2595	1,072.27	76.3865	1,072.27	75.167	1,072.27	72.0152	1,072.27	74.5936	1,072.27	69.7156	1,072.27	73.8124	1,072.27	67.5605	1,072.27	70.1564	1,072.27	65.48	1,072.27	69.4842	1,072.27	67.3751	1,072.27	56.9017	1,072.27	58.9494	1,072.27	73.7523	1,072.27	74.2095	1,072.27	77.9119
1,108.89	87.6373	1,108.89	86.6251	1,108.89	86.3127	1,108.89	82.8674	1,108.89	82.6531	1,108.89	74.0773	1,108.89	75.1176	1,108.89	70.7394	1,108.89	71.2967	1,108.89	78.4991	1,108.89	78.6701	1,108.89	79.4596	1,108.89	80.3089	1,108.89	78.3039	1,108.89	79.1512	1,108.89	77.4377	1,108.89	77.4029	1,108.89	77.076	1,108.89	77.585	1,108.89	77.3527	1,108.89	77.7373	1,108.89	75.8988	1,108.89	75.7459	1,108.89	72.1566	1,108.89	73.3711	1,108.89	70.3412	1,108.89	70.744	1,108.89	65.6498	1,108.89	63.8383	1,108.89	68.1217	1,108.89	63.0981	1,108.89	62.3831	1,108.89	58.1679	1,108.89	72.0614	1,108.89	72.0187	1,108.89	75.0467
1,148.44	87.6826	1,148.44	86.4082	1,148.44	86.3048	1,148.44	82.3353	1,148.44	81.9318	1,148.44	72.7876	1,148.44	72.72	1,148.44	72.7534	1,148.44	74.6421	1,148.44	78.6395	1,148.44	79.0154	1,148.44	79.8218	1,148.44	79.9843	1,148.44	78.9107	1,148.44	79.7971	1,148.44	76.9844	1,148.44	77.8776	1,148.44	76.7292	1,148.44	77.1332	1,148.44	76.9798	1,148.44	78.3976	1,148.44	75.2048	1,148.44	77.5476	1,148.44	74.2468	1,148.44	75.3274	1,148.44	73.8313	1,148.44	73.2421	1,148.44	69.0129	1,148.44	66.7488	1,148.44	65.9086	1,148.44	61.5983	1,148.44	57.3847	1,148.44	60.8337	1,148.44	73.1981	1,148.44	72.452	1,148.44	76.4523
1,189.45	88.215	1,189.45	86.6762	1,189.45	86.7187	1,189.45	81.3562	1,189.45	81.7083	1,189.45	70.1185	1,189.45	70.3436	1,189.45	77.0493	1,189.45	77.0866	1,189.45	80.7565	1,189.45	81.0349	1,189.45	81.4312	1,189.45	81.8679	1,189.45	80.3272	1,189.45	81.19	1,189.45	78.4978	1,189.45	79.6823	1,189.45	77.1978	1,189.45	79.0124	1,189.45	76.7035	1,189.45	78.7845	1,189.45	76.422	1,189.45	77.6405	1,189.45	75.5475	1,189.45	76.9101	1,189.45	73.214	1,189.45	76.5103	1,189.45	69.555	1,189.45	72.5743	1,189.45	58.0163	1,189.45	66.9612	1,189.45	63.3615	1,189.45	62.2551	1,189.45	73.4527	1,189.45	70.7266	1,189.45	75.8252
1,230.47	88.4667	1,230.47	86.9892	1,230.47	86.7683	1,230.47	81.2477	1,230.47	80.9416	1,230.47	61.5908	1,230.47	70.1467	1,230.47	78.6493	1,230.47	78.838	1,230.47	81.5329	1,230.47	81.3177	1,230.47	81.741	1,230.47	81.3106	1,230.47	80.3124	1,230.47	80.153	1,230.47	77.3601	1,230.47	77.7247	1,230.47	74.8378	1,230.47	74.9471	1,230.47	76.0502	1,230.47	75.4924	1,230.47	75.6785	1,230.47	76.642	1,230.47	75.4594	1,230.47	76.2617	1,230.47	75.9834	1,230.47	76.097	1,230.47	72.4558	1,230.47	72.5216	1,230.47	62.0308	1,230.47	58.4837	1,230.47	64.1736	1,230.47	63.0902	1,230.47	74.5449	1,230.47	74.0502	1,230.47	77.811
1,274.41	88.3295	1,274.41	87.0349	1,274.41	86.7897	1,274.41	81.6859	1,274.41	81.1624	1,274.41	56.2138	1,274.41	69.6272	1,274.41	76.9338	1,274.41	78.6169	1,274.41	80.2572	1,274.41	80.6984	1,274.41	80.3165	1,274.41	80.3118	1,274.41	79.2376	1,274.41	79.3036	1,274.41	77.1332	1,274.41	77.7365	1,274.41	73.7696	1,274.41	75.289	1,274.41	74.2642	1,274.41	73.486	1,274.41	75.0826	1,274.41	72.7464	1,274.41	74.6472	1,274.41	71.6226	1,274.41	76.6241	1,274.41	74.6937	1,274.41	75.8091	1,274.41	72.4045	1,274.41	70.2384	1,274.41	57.303	1,274.41	60.7178	1,274.41	62.6255	1,274.41	70.9641	1,274.41	73.9859	1,274.41	75.9605
1,319.82	86.8971	1,319.82	85.6631	1,319.82	84.576	1,319.82	80.1119	1,319.82	76.1468	1,319.82	56.6809	1,319.82	71.0706	1,319.82	78.1033	1,319.82	79.6684	1,319.82	80.2062	1,319.82	81.1293	1,319.82	79.9363	1,319.82	79.7654	1,319.82	78.9728	1,319.82	77.1192	1,319.82	77.3812	1,319.82	74.2078	1,319.82	74.5144	1,319.82	71.8387	1,319.82	70.3453	1,319.82	71.9975	1,319.82	71.7883	1,319.82	71.0524	1,319.82	70.7358	1,319.82	70.7112	1,319.82	72.5594	1,319.82	72.4984	1,319.82	71.7444	1,319.82	72.9028	1,319.82	66.2693	1,319.82	66.5965	1,319.82	36.8108	1,319.82	58.8573	1,319.82	69.048	1,319.82	71.7383	1,319.82	75.303
1,366.7	87.1294	1,366.7	85.4626	1,366.7	85.5045	1,366.7	79.1796	1,366.7	78.5253	1,366.7	60.6755	1,366.7	67.7666	1,366.7	77.7709	1,366.7	78.4785	1,366.7	80.7183	1,366.7	80.4162	1,366.7	79.8439	1,366.7	79.6837	1,366.7	77.051	1,366.7	76.9759	1,366.7	75.7383	1,366.7	73.4232	1,366.7	73.3149	1,366.7	69.7214	1,366.7	69.3349	1,366.7	67.8555	1,366.7	69.6528	1,366.7	69.4017	1,366.7	69.4366	1,366.7	70.309	1,366.7	73.0035	1,366.7	70.9565	1,366.7	72.729	1,366.7	72.8474	1,366.7	70.2183	1,366.7	66.382	1,366.7	54.8147	1,366.7	54.9623	1,366.7	71.4746	1,366.7	70.5063	1,366.7	75.1549
1,413.57	87.4454	1,413.57	85.9568	1,413.57	85.2951	1,413.57	79.7736	1,413.57	78.4963	1,413.57	49.2886	1,413.57	66.9213	1,413.57	76.4469	1,413.57	78.9873	1,413.57	78.4543	1,413.57	81.1164	1,413.57	77.233	1,413.57	79.7336	1,413.57	75.4761	1,413.57	76.9094	1,413.57	73.0855	1,413.57	74.4064	1,413.57	68.2659	1,413.57	71.4735	1,413.57	62.8113	1,413.57	69.3684	1,413.57	62.8377	1,413.57	63.5625	1,413.57	65.4702	1,413.57	65.3856	1,413.57	72.0714	1,413.57	66.7149	1,413.57	73.5913	1,413.57	70.1934	1,413.57	69.7579	1,413.57	63.5216	1,413.57	65.1954	1,413.57	47.0149	1,413.57	68.9392	1,413.57	67.4883	1,413.57	73.3502
1,463.38	87.8858	1,463.38	86.0529	1,463.38	86.253	1,463.38	80.2939	1,463.38	79.6637	1,463.38	64.1332	1,463.38	63.1562	1,463.38	76.3235	1,463.38	75.7239	1,463.38	78.2208	1,463.38	77.9459	1,463.38	77.6591	1,463.38	77.4024	1,463.38	73.6546	1,463.38	75.0718	1,463.38	70.1866	1,463.38	71.7225	1,463.38	67.5181	1,463.38	69.3291	1,463.38	62.9621	1,463.38	66.7423	1,463.38	59.105	1,463.38	68.517	1,463.38	49.5396	1,463.38	66.1372	1,463.38	62.4358	1,463.38	69.5296	1,463.38	69.4574	1,463.38	68.5888	1,463.38	68.2297	1,463.38	63.2736	1,463.38	64.6587	1,463.38	56.785	1,463.38	50.3994	1,463.38	64.1108	1,463.38	67.251
1,516.11	87.6499	1,516.11	86.1151	1,516.11	85.5519	1,516.11	80.4546	1,516.11	79.0595	1,516.11	48.8986	1,516.11	51.3919	1,516.11	76.3821	1,516.11	74.434	1,516.11	77.1958	1,516.11	76.1023	1,516.11	76.4946	1,516.11	74.2563	1,516.11	74.3708	1,516.11	70.8137	1,516.11	69.8747	1,516.11	66.1923	1,516.11	66.8781	1,516.11	60.9549	1,516.11	67.0511	1,516.11	57.1025	1,516.11	64.8515	1,516.11	66.443	1,516.11	63.2189	1,516.11	65.9201	1,516.11	61.368	1,516.11	68.2092	1,516.11	62.936	1,516.11	65.9036	1,516.11	63.1178	1,516.11	65.2546	1,516.11	60.2624	1,516.11	55.0451	1,516.11	61.9597	1,516.11	68.4454	1,516.11	71.6788
1,568.85	86.4647	1,568.85	84.6576	1,568.85	84.5806	1,568.85	78.9385	1,568.85	78.3642	1,568.85	50.0035	1,568.85	49.2943	1,568.85	73.9604	1,568.85	73.3504	1,568.85	74.0683	1,568.85	74.1372	1,568.85	73.2537	1,568.85	70.4056	1,568.85	71.687	1,568.85	70.0733	1,568.85	65.7101	1,568.85	68.4758	1,568.85	61.7721	1,568.85	64.9499	1,568.85	63.4696	1,568.85	63.0053	1,568.85	65.35	1,568.85	61.8105	1,568.85	66.1264	1,568.85	65.5345	1,568.85	63.6911	1,568.85	64.933	1,568.85	53.9878	1,568.85	66.7025	1,568.85	54.4858	1,568.85	65.5131	1,568.85	52.3579	1,568.85	58.221	1,568.85	67.0595	1,568.85	66.5467	1,568.85	71.9029
1,624.51	86.2632	1,624.51	84.7491	1,624.51	84.7658	1,624.51	79.6238	1,624.51	78.7693	1,624.51	64.3661	1,624.51	67.7117	1,624.51	71.4414	1,624.51	70.8443	1,624.51	70.8132	1,624.51	70.9447	1,624.51	61.0428	1,624.51	67.2177	1,624.51	59.3302	1,624.51	61.6629	1,624.51	62.7209	1,624.51	61.3866	1,624.51	64.6166	1,624.51	63.4904	1,624.51	55.3378	1,624.51	61.5553	1,624.51	59.9326	1,624.51	53.8784	1,624.51	63.2151	1,624.51	53.8329	1,624.51	63.6008	1,624.51	55.0031	1,624.51	63.7547	1,624.51	57.1134	1,624.51	62.7989	1,624.51	59.9537	1,624.51	64.1982	1,624.51	56.7952	1,624.51	67.605	1,624.51	64.3008	1,624.51	71.1394
1,681.64	86.2574	1,681.64	84.415	1,681.64	84.194	1,681.64	78.1887	1,681.64	77.3675	1,681.64	64.7649	1,681.64	67.9766	1,681.64	68.9319	1,681.64	71.7655	1,681.64	66.993	1,681.64	71.6908	1,681.64	66.3354	1,681.64	69.8433	1,681.64	66.3992	1,681.64	66.8581	1,681.64	69.3291	1,681.64	66.9933	1,681.64	68.335	1,681.64	68.6334	1,681.64	68.0931	1,681.64	64.0306	1,681.64	57.7483	1,681.64	63.0284	1,681.64	68.7558	1,681.64	57.1972	1,681.64	68.7207	1,681.64	64.0195	1,681.64	66.1301	1,681.64	54.2805	1,681.64	53.7547	1,681.64	47.1301	1,681.64	61.0009	1,681.64	58.9041	1,681.64	65.0341	1,681.64	64.0059	1,681.64	68.7147
1,741.7	86.9819	1,741.7	85.1692	1,741.7	84.9421	1,741.7	78.3243	1,741.7	79.0953	1,741.7	68.3205	1,741.7	72.7008	1,741.7	71.0469	1,741.7	75.0904	1,741.7	71.5	1,741.7	73.8431	1,741.7	70.7706	1,741.7	73.5227	1,741.7	71.8622	1,741.7	71.8585	1,741.7	69.4584	1,741.7	71.0256	1,741.7	68.6753	1,741.7	73.8905	1,741.7	71.0155	1,741.7	70.9996	1,741.7	66.6723	1,741.7	67.696	1,741.7	65.2533	1,741.7	58.9992	1,741.7	67.4138	1,741.7	68.0075	1,741.7	68.2872	1,741.7	69.4005	1,741.7	67.4294	1,741.7	68.9514	1,741.7	57.5222	1,741.7	60.1201	1,741.7	64.99	1,741.7	58.9674	1,741.7	71.7019
1,803.22	87.9817	1,803.22	85.7983	1,803.22	85.2583	1,803.22	80.0887	1,803.22	76.9498	1,803.22	74.4302	1,803.22	72.9041	1,803.22	75.2534	1,803.22	75.0983	1,803.22	74.9954	1,803.22	73.1031	1,803.22	75.5743	1,803.22	73.9309	1,803.22	74.9601	1,803.22	73.1053	1,803.22	72.8767	1,803.22	72.9072	1,803.22	70.5946	1,803.22	72.5277	1,803.22	71.8834	1,803.22	67.3952	1,803.22	65.4759	1,803.22	70.1713	1,803.22	63.2661	1,803.22	65.8545	1,803.22	65.2981	1,803.22	69.4772	1,803.22	66.889	1,803.22	69.9037	1,803.22	62.1923	1,803.22	69.6833	1,803.22	53.2829	1,803.22	56.7762	1,803.22	62.8733	1,803.22	67.0635	1,803.22	72.1228
1,866.21	87.0069	1,866.21	84.8316	1,866.21	84.8518	1,866.21	78.5605	1,866.21	75.6811	1,866.21	76.403	1,866.21	69.113	1,866.21	77.9541	1,866.21	74.3712	1,866.21	75.6422	1,866.21	74.649	1,866.21	74.9399	1,866.21	74.3278	1,866.21	76.7131	1,866.21	74.3939	1,866.21	75.3539	1,866.21	74.0807	1,866.21	74.8947	1,866.21	73.3554	1,866.21	73.0693	1,866.21	71.9423	1,866.21	72.311	1,866.21	67.5024	1,866.21	70.9133	1,866.21	71.3067	1,866.21	71.171	1,866.21	68.8566	1,866.21	73.1997	1,866.21	66.2576	1,866.21	70.3981	1,866.21	72.1712	1,866.21	62.2274	1,866.21	64.799	1,866.21	52.1087	1,866.21	61.8043	1,866.21	70.2944
1,932.13	86.7691	1,932.13	83.4872	1,932.13	85.1675	1,932.13	75.0013	1,932.13	77.1179	1,932.13	72.6194	1,932.13	68.8057	1,932.13	76.6004	1,932.13	73.3304	1,932.13	76.4206	1,932.13	71.9139	1,932.13	77.3937	1,932.13	70.8594	1,932.13	77.5173	1,932.13	71.3646	1,932.13	75.8625	1,932.13	73.3903	1,932.13	71.5203	1,932.13	65.4886	1,932.13	71.6972	1,932.13	64.6825	1,932.13	71.0141	1,932.13	67.3489	1,932.13	67.5165	1,932.13	69.2695	1,932.13	72.0904	1,932.13	67.9502	1,932.13	74.6376	1,932.13	62.6142	1,932.13	70.2627	1,932.13	69.4524	1,932.13	58.9926	1,932.13	61.6927	1,932.13	64.6432	1,932.13	64.1852	1,932.13	72.6606
1,999.51	88.0323	1,999.51	85.8557	1,999.51	85.451	1,999.51	77.2416	1,999.51	78.6877	1,999.51	73.037	1,999.51	76.4002	1,999.51	77.4168	1,999.51	77.8649	1,999.51	78.7928	1,999.51	77.213	1,999.51	79.7682	1,999.51	77.7085	1,999.51	78.78	1,999.51	77.4028	1,999.51	77.3926	1,999.51	76.6714	1,999.51	74.8812	1,999.51	75.1238	1,999.51	74.1785	1,999.51	73.3499	1,999.51	72.1876	1,999.51	72.3673	1,999.51	71.7356	1,999.51	69.7502	1,999.51	71.1127	1,999.51	71.8984	1,999.51	70.5237	1,999.51	69.9141	1,999.51	72.27	1,999.51	70.7331	1,999.51	64.818	1,999.51	64.0758	1,999.51	65.606	1,999.51	61.2539	1,999.51	74.8503
2,069.82	88.2218	2,069.82	86.6546	2,069.82	85.4035	2,069.82	79.2387	2,069.82	76.8386	2,069.82	73.2233	2,069.82	75.475	2,069.82	76.9252	2,069.82	77.4139	2,069.82	79.3977	2,069.82	78.0105	2,069.82	81.4776	2,069.82	80.1819	2,069.82	81.3273	2,069.82	80.3245	2,069.82	80.0102	2,069.82	78.947	2,069.82	76.1886	2,069.82	76.8454	2,069.82	75.7134	2,069.82	75.6873	2,069.82	74.3185	2,069.82	73.6044	2,069.82	72.1338	2,069.82	73.9008	2,069.82	71.0026	2,069.82	72.6798	2,069.82	70.8467	2,069.82	71.1458	2,069.82	70.7946	2,069.82	72.8814	2,069.82	67.301	2,069.82	67.9739	2,069.82	64.7002	2,069.82	65.9383	2,069.82	75.6386
2,143.07	87.5869	2,143.07	85.5906	2,143.07	84.9504	2,143.07	78.6614	2,143.07	76.5961	2,143.07	71.1955	2,143.07	70.8993	2,143.07	75.7408	2,143.07	74.8329	2,143.07	79.0747	2,143.07	78.6275	2,143.07	82.6068	2,143.07	80.7219	2,143.07	82.7434	2,143.07	81.1084	2,143.07	80.9752	2,143.07	79.2337	2,143.07	78.545	2,143.07	77.3912	2,143.07	76.5826	2,143.07	75.3651	2,143.07	75.4319	2,143.07	73.4432	2,143.07	75.0448	2,143.07	73.089	2,143.07	73.143	2,143.07	72.2048	2,143.07	73.5613	2,143.07	72.6604	2,143.07	70.2017	2,143.07	71.4003	2,143.07	67.6845	2,143.07	66.5713	2,143.07	56.6589	2,143.07	65.0726	2,143.07	75.0011
2,219.24	87.2436	2,219.24	85.6533	2,219.24	85.3978	2,219.24	78.8245	2,219.24	78.8175	2,219.24	67.5202	2,219.24	69.4256	2,219.24	75.1313	2,219.24	74.7626	2,219.24	81.0612	2,219.24	80.3266	2,219.24	83.3506	2,219.24	82.5055	2,219.24	83.3629	2,219.24	82.143	2,219.24	81.5907	2,219.24	80.4537	2,219.24	77.9496	2,219.24	77.2339	2,219.24	76.3228	2,219.24	76.1081	2,219.24	76.7498	2,219.24	74.826	2,219.24	75.6993	2,219.24	72.9081	2,219.24	74.574	2,219.24	72.2236	2,219.24	76.1112	2,219.24	73.6884	2,219.24	71.6355	2,219.24	69.8242	2,219.24	66.1882	2,219.24	64.8269	2,219.24	61.8379	2,219.24	65.5304	2,219.24	75.0477
2,296.88	87.8776	2,296.88	86.9017	2,296.88	86.1137	2,296.88	81.4506	2,296.88	80.1905	2,296.88	74.3023	2,296.88	74.1672	2,296.88	77.9493	2,296.88	79.0354	2,296.88	83.1874	2,296.88	82.8478	2,296.88	84.864	2,296.88	84.4447	2,296.88	83.5772	2,296.88	82.9936	2,296.88	81.7775	2,296.88	81.2276	2,296.88	78.0367	2,296.88	78.6541	2,296.88	74.9016	2,296.88	76.6508	2,296.88	74.8289	2,296.88	74.9582	2,296.88	74.5033	2,296.88	75.1322	2,296.88	75.3963	2,296.88	74.9623	2,296.88	75.0613	2,296.88	75.4652	2,296.88	70.5276	2,296.88	70.8741	2,296.88	67.9875	2,296.88	64.277	2,296.88	59.4438	2,296.88	63.8161	2,296.88	74.5328
2,378.91	87.1375	2,378.91	86.4594	2,378.91	85.932	2,378.91	82.1783	2,378.91	80.6235	2,378.91	76.4997	2,378.91	74.2147	2,378.91	80.7603	2,378.91	79.4164	2,378.91	84.7487	2,378.91	83.7017	2,378.91	86.1376	2,378.91	84.5281	2,378.91	84.5211	2,378.91	83.0241	2,378.91	82.9933	2,378.91	80.0394	2,378.91	79.6635	2,378.91	75.0021	2,378.91	75.4025	2,378.91	75.1613	2,378.91	73.2194	2,378.91	73.835	2,378.91	75.3824	2,378.91	74.251	2,378.91	73.6542	2,378.91	72.2965	2,378.91	74.3879	2,378.91	74.7884	2,378.91	69.3037	2,378.91	68.1224	2,378.91	69.6167	2,378.91	65.3274	2,378.91	65.0249	2,378.91	67.5867	2,378.91	73.9336
2,462.4	85.7059	2,462.4	84.9496	2,462.4	85.0812	2,462.4	81.6028	2,462.4	81.2405	2,462.4	77.5932	2,462.4	76.3821	2,462.4	81.8665	2,462.4	81.1023	2,462.4	85.1363	2,462.4	84.1825	2,462.4	86.0065	2,462.4	84.2166	2,462.4	84.5194	2,462.4	83.0248	2,462.4	81.4467	2,462.4	80.3012	2,462.4	79.1246	2,462.4	77.6261	2,462.4	76.3028	2,462.4	73.1456	2,462.4	75.5579	2,462.4	72.8195	2,462.4	76.0555	2,462.4	74.2506	2,462.4	74.4697	2,462.4	71.1078	2,462.4	76.0109	2,462.4	74.9815	2,462.4	68.8659	2,462.4	68.0921	2,462.4	66.5947	2,462.4	60.885	2,462.4	67.1171	2,462.4	63.9936	2,462.4	74.3054
2,548.83	85.9784	2,548.83	85.1302	2,548.83	85.0191	2,548.83	82.3169	2,548.83	81.1236	2,548.83	79.081	2,548.83	78.1311	2,548.83	81.7989	2,548.83	82.3511	2,548.83	85.5436	2,548.83	85.3519	2,548.83	85.5125	2,548.83	84.7839	2,548.83	84.3358	2,548.83	83.5613	2,548.83	78.7623	2,548.83	80.9135	2,548.83	77.8576	2,548.83	77.9444	2,548.83	74.1783	2,548.83	73.995	2,548.83	73.3439	2,548.83	73.1265	2,548.83	74.7466	2,548.83	75.2632	2,548.83	74.5886	2,548.83	74.004	2,548.83	75.972	2,548.83	75.3708	2,548.83	71.9745	2,548.83	70.8972	2,548.83	61.9443	2,548.83	61.5756	2,548.83	67.2597	2,548.83	70.3121	2,548.83	72.9873
2,639.65	86.3734	2,639.65	84.8356	2,639.65	84.999	2,639.65	82.6286	2,639.65	80.6277	2,639.65	79.425	2,639.65	79.1406	2,639.65	82.2362	2,639.65	82.2897	2,639.65	85.9109	2,639.65	84.4885	2,639.65	85.2573	2,639.65	84.0027	2,639.65	84.5694	2,639.65	82.2256	2,639.65	81.1817	2,639.65	79.7266	2,639.65	79.1085	2,639.65	77.7428	2,639.65	75.2639	2,639.65	73.1233	2,639.65	75.4998	2,639.65	72.4209	2,639.65	73.9106	2,639.65	74.3747	2,639.65	74.4035	2,639.65	74.7836	2,639.65	76.7703	2,639.65	75.7745	2,639.65	73.1273	2,639.65	70.6175	2,639.65	60.6509	2,639.65	63.9892	2,639.65	68.4745	2,639.65	71.0743	2,639.65	71.4076
2,731.93	86.5768	2,731.93	83.952	2,731.93	84.7539	2,731.93	82.4674	2,731.93	81.6608	2,731.93	80.0246	2,731.93	81.0748	2,731.93	82.4605	2,731.93	81.698	2,731.93	85.1598	2,731.93	84.0387	2,731.93	85.2655	2,731.93	84.0312	2,731.93	83.8504	2,731.93	83.1404	2,731.93	82.065	2,731.93	81.1234	2,731.93	79.9245	2,731.93	78.2153	2,731.93	77.0641	2,731.93	75.2894	2,731.93	74.9462	2,731.93	72.1037	2,731.93	73.6041	2,731.93	73.1856	2,731.93	76.456	2,731.93	75.3407	2,731.93	75.7637	2,731.93	74.2198	2,731.93	71.7161	2,731.93	71.479	2,731.93	59.2484	2,731.93	64.4926	2,731.93	69.1076	2,731.93	70.6287	2,731.93	70.5701
2,828.61	86.3906	2,828.61	84.9334	2,828.61	84.7268	2,828.61	82.5874	2,828.61	82.3913	2,828.61	82.4718	2,828.61	81.6626	2,828.61	82.0469	2,828.61	81.5544	2,828.61	85.1049	2,828.61	84.0765	2,828.61	85.9912	2,828.61	85.3868	2,828.61	85.0121	2,828.61	84.5744	2,828.61	83.488	2,828.61	82.8246	2,828.61	80.2101	2,828.61	79.3053	2,828.61	77.5214	2,828.61	77.7057	2,828.61	73.4015	2,828.61	75.0574	2,828.61	76.0828	2,828.61	74.3862	2,828.61	75.549	2,828.61	75.8067	2,828.61	74.9007	2,828.61	75.6193	2,828.61	72.5809	2,828.61	72.2956	2,828.61	59.6026	2,828.61	62.9778	2,828.61	70.194	2,828.61	71.2062	2,828.61	70.1399
2,928.22	85.8958	2,928.22	84.6209	2,928.22	83.5656	2,928.22	83.2464	2,928.22	82.4077	2,928.22	83.5526	2,928.22	80.9182	2,928.22	81.5179	2,928.22	80.0888	2,928.22	84.5286	2,928.22	83.2098	2,928.22	86.8056	2,928.22	85.7017	2,928.22	85.8541	2,928.22	84.1171	2,928.22	84.713	2,928.22	81.5768	2,928.22	80.9016	2,928.22	77.667	2,928.22	78.5155	2,928.22	76.4734	2,928.22	75.3872	2,928.22	75.0096	2,928.22	75.8005	2,928.22	75.0388	2,928.22	74.9664	2,928.22	75.5874	2,928.22	73.6128	2,928.22	73.4543	2,928.22	70.9912	2,928.22	72.5445	2,928.22	62.9603	2,928.22	63.2276	2,928.22	71.3306	2,928.22	69.6983	2,928.22	67.4473
3,030.76	86.1918	3,030.76	85.3975	3,030.76	84.9695	3,030.76	83.9189	3,030.76	83.6655	3,030.76	83.4397	3,030.76	82.5508	3,030.76	81.8532	3,030.76	81.6243	3,030.76	84.8777	3,030.76	83.7765	3,030.76	86.6893	3,030.76	85.5302	3,030.76	85.9054	3,030.76	84.8464	3,030.76	84.5353	3,030.76	81.6944	3,030.76	79.5179	3,030.76	78.1775	3,030.76	78.2114	3,030.76	75.6539	3,030.76	75.6951	3,030.76	75.2538	3,030.76	75.8439	3,030.76	75.7625	3,030.76	76.049	3,030.76	73.8069	3,030.76	75.0079	3,030.76	74.083	3,030.76	71.3805	3,030.76	70.229	3,030.76	63.0323	3,030.76	63.994	3,030.76	72.7341	3,030.76	71.049	3,030.76	65.1058
3,137.7	86.2933	3,137.7	86.3894	3,137.7	84.6673	3,137.7	84.9954	3,137.7	84.8148	3,137.7	84.6832	3,137.7	82.5821	3,137.7	83.1611	3,137.7	82.1278	3,137.7	85.344	3,137.7	84.1297	3,137.7	87.2126	3,137.7	85.7364	3,137.7	87.1144	3,137.7	84.6735	3,137.7	83.9747	3,137.7	82.3737	3,137.7	80.1262	3,137.7	78.2852	3,137.7	77.6894	3,137.7	74.5246	3,137.7	74.7553	3,137.7	75.1532	3,137.7	75.187	3,137.7	76.0817	3,137.7	77.2491	3,137.7	75.0167	3,137.7	75.2899	3,137.7	74.7849	3,137.7	71.2447	3,137.7	70.9502	3,137.7	65.2172	3,137.7	62.8966	3,137.7	70.9986	3,137.7	71.8727	3,137.7	59.1756
3,249.02	84.8399	3,249.02	85.8088	3,249.02	85.2	3,249.02	85.4146	3,249.02	84.4998	3,249.02	83.9489	3,249.02	82.8769	3,249.02	83.1826	3,249.02	82.7511	3,249.02	83.5028	3,249.02	84.0236	3,249.02	86.7416	3,249.02	85.2292	3,249.02	86.1827	3,249.02	83.8619	3,249.02	82.2045	3,249.02	81.0657	3,249.02	80.1028	3,249.02	77.6281	3,249.02	76.0035	3,249.02	73.8775	3,249.02	74.9808	3,249.02	74.6858	3,249.02	74.9882	3,249.02	73.4982	3,249.02	75.7474	3,249.02	75.0634	3,249.02	75.3102	3,249.02	74.8847	3,249.02	70.1641	3,249.02	68.3946	3,249.02	62.8973	3,249.02	64.5053	3,249.02	70.0625	3,249.02	68.8668	3,249.02	61.8323
3,363.28	84.5876	3,363.28	86.4253	3,363.28	85.2547	3,363.28	85.3656	3,363.28	85.1304	3,363.28	84.8508	3,363.28	83.9539	3,363.28	84.7086	3,363.28	84.0677	3,363.28	83.6255	3,363.28	83.9723	3,363.28	85.3463	3,363.28	85.2701	3,363.28	84.6046	3,363.28	83.6776	3,363.28	82.0014	3,363.28	82.1352	3,363.28	77.8757	3,363.28	78.2087	3,363.28	74.4294	3,363.28	75.841	3,363.28	75.159	3,363.28	73.4922	3,363.28	74.8046	3,363.28	73.8372	3,363.28	75.2003	3,363.28	75.4391	3,363.28	76.1476	3,363.28	75.6168	3,363.28	68.7341	3,363.28	67.9458	3,363.28	67.3479	3,363.28	64.3274	3,363.28	68.5189	3,363.28	68.2213	3,363.28	59.8548
3,481.93	84.6213	3,481.93	86.0112	3,481.93	86.3527	3,481.93	85.9627	3,481.93	84.624	3,481.93	85.7642	3,481.93	85.4113	3,481.93	85.7604	3,481.93	84.7741	3,481.93	82.6946	3,481.93	84.4578	3,481.93	85.7679	3,481.93	84.882	3,481.93	84.4086	3,481.93	84.3995	3,481.93	82.5713	3,481.93	82.5766	3,481.93	80.2183	3,481.93	79.3051	3,481.93	76.3861	3,481.93	77.077	3,481.93	74.7231	3,481.93	73.6829	3,481.93	74.6518	3,481.93	76.1859	3,481.93	75.2108	3,481.93	75.7857	3,481.93	75.5766	3,481.93	75.0429	3,481.93	65.6973	3,481.93	67.7874	3,481.93	70.5752	3,481.93	71.1311	3,481.93	72.7376	3,481.93	69.4624	3,481.93	60.7255
3,604.98	85.8229	3,604.98	85.3043	3,604.98	86.0261	3,604.98	85.4041	3,604.98	84.0822	3,604.98	86.0828	3,604.98	86.4864	3,604.98	85.0759	3,604.98	84.8707	3,604.98	83.0204	3,604.98	83.3086	3,604.98	84.6874	3,604.98	84.392	3,604.98	84.4774	3,604.98	84.7585	3,604.98	83.1187	3,604.98	82.172	3,604.98	80.7532	3,604.98	79.886	3,604.98	77.4452	3,604.98	75.1942	3,604.98	75.2513	3,604.98	74.617	3,604.98	75.8808	3,604.98	75.7374	3,604.98	76.5237	3,604.98	74.6939	3,604.98	76.1676	3,604.98	73.5352	3,604.98	64.1644	3,604.98	66.1941	3,604.98	72.0589	3,604.98	71.8959	3,604.98	71.1512	3,604.98	67.2638	3,604.98	62.6672
3,732.42	87.9729	3,732.42	85.2303	3,732.42	86.372	3,732.42	86.2584	3,732.42	84.9135	3,732.42	87.7229	3,732.42	87.7453	3,732.42	85.6563	3,732.42	84.6649	3,732.42	82.6036	3,732.42	82.6689	3,732.42	85.202	3,732.42	85.4041	3,732.42	85.5646	3,732.42	85.6347	3,732.42	84.3125	3,732.42	83.7453	3,732.42	80.4037	3,732.42	80.3693	3,732.42	77.1582	3,732.42	76.2686	3,732.42	74.8872	3,732.42	73.709	3,732.42	75.1709	3,732.42	75.6264	3,732.42	75.586	3,732.42	77.543	3,732.42	74.9035	3,732.42	74.7221	3,732.42	59.9536	3,732.42	62.2792	3,732.42	72.3062	3,732.42	71.7814	3,732.42	69.8361	3,732.42	67.4277	3,732.42	58.9668
3,864.26	88.3554	3,864.26	85.3077	3,864.26	85.2658	3,864.26	86.2413	3,864.26	86.5812	3,864.26	87.5724	3,864.26	88.2	3,864.26	85.5094	3,864.26	84.8176	3,864.26	82.9912	3,864.26	82.3509	3,864.26	85.1767	3,864.26	84.924	3,864.26	86.3313	3,864.26	85.6477	3,864.26	84.026	3,864.26	82.4021	3,864.26	81.1114	3,864.26	79.6094	3,864.26	77.5328	3,864.26	76.036	3,864.26	74.3	3,864.26	73.3383	3,864.26	76.1453	3,864.26	75.4879	3,864.26	76.4301	3,864.26	76.3344	3,864.26	74.3646	3,864.26	75.8362	3,864.26	35.5637	3,864.26	56.246	3,864.26	71.8948	3,864.26	71.7303	3,864.26	67.6904	3,864.26	64.9385	3,864.26	64.4561
4,000.49	88.5486	4,000.49	85.396	4,000.49	84.9999	4,000.49	86.2639	4,000.49	87.6577	4,000.49	87.6274	4,000.49	87.9208	4,000.49	84.8541	4,000.49	84.4755	4,000.49	82.597	4,000.49	81.1902	4,000.49	83.6371	4,000.49	84.9449	4,000.49	85.1257	4,000.49	84.9389	4,000.49	82.4867	4,000.49	82.6977	4,000.49	79.472	4,000.49	78.9986	4,000.49	74.1091	4,000.49	75.0522	4,000.49	71.4363	4,000.49	75.0458	4,000.49	74.3587	4,000.49	73.8091	4,000.49	76.7726	4,000.49	74.8827	4,000.49	73.3677	4,000.49	72.5255	4,000.49	55.8242	4,000.49	60.4577	4,000.49	69.5247	4,000.49	71.6309	4,000.49	66.3478	4,000.49	64.7673	4,000.49	56.9725
4,141.11	88.9072	4,141.11	85.9874	4,141.11	84.6206	4,141.11	86.4247	4,141.11	88.1016	4,141.11	87.5919	4,141.11	87.7051	4,141.11	85.7847	4,141.11	85.8959	4,141.11	82.388	4,141.11	81.9633	4,141.11	83.8504	4,141.11	84.1196	4,141.11	84.9066	4,141.11	84.0802	4,141.11	82.1627	4,141.11	81.1682	4,141.11	78.7231	4,141.11	78.2868	4,141.11	73.6837	4,141.11	73.4442	4,141.11	70.2396	4,141.11	72.9168	4,141.11	73.1671	4,141.11	73.1766	4,141.11	75.888	4,141.11	75.6655	4,141.11	72.5386	4,141.11	70.9569	4,141.11	48.8758	4,141.11	60.9373	4,141.11	67.9393	4,141.11	70.5115	4,141.11	61.7826	4,141.11	64.5705	4,141.11	61.0671
4,287.6	88.4746	4,287.6	86.9266	4,287.6	85.1964	4,287.6	87.6911	4,287.6	87.3048	4,287.6	88.2153	4,287.6	87.4113	4,287.6	87.768	4,287.6	85.4938	4,287.6	82.7632	4,287.6	82.0579	4,287.6	83.858	4,287.6	82.6995	4,287.6	83.5523	4,287.6	83.0856	4,287.6	81.0343	4,287.6	81.4996	4,287.6	76.6399	4,287.6	77.5677	4,287.6	73.6364	4,287.6	73.342	4,287.6	70.4694	4,287.6	69.5089	4,287.6	72.3845	4,287.6	72.481	4,287.6	74.1974	4,287.6	74.3043	4,287.6	72.1507	4,287.6	73.001	4,287.6	60.3324	4,287.6	59.2496	4,287.6	67.3772	4,287.6	71.5877	4,287.6	60.8037	4,287.6	54.785	4,287.6	64.5049
4,438.48	87.6152	4,438.48	86.3664	4,438.48	87.2754	4,438.48	86.6605	4,438.48	85.6358	4,438.48	87.9861	4,438.48	87.5507	4,438.48	87.269	4,438.48	86.0398	4,438.48	81.6531	4,438.48	82.8332	4,438.48	83.0687	4,438.48	82.761	4,438.48	82.756	4,438.48	82.3839	4,438.48	80.2791	4,438.48	81.0539	4,438.48	76.4408	4,438.48	77.1172	4,438.48	73.4236	4,438.48	73.0469	4,438.48	69.5206	4,438.48	69.6158	4,438.48	69.9991	4,438.48	73.3464	4,438.48	73.8672	4,438.48	74.8123	4,438.48	67.3097	4,438.48	70.5073	4,438.48	62.3558	4,438.48	59.3505	4,438.48	70.6051	4,438.48	71.2663	4,438.48	63.3558	4,438.48	58.7326	4,438.48	63.8863
4,595.21	86.7664	4,595.21	85.984	4,595.21	88.0004	4,595.21	86.2216	4,595.21	84.8879	4,595.21	88.6304	4,595.21	87.386	4,595.21	86.7317	4,595.21	86.7333	4,595.21	82.9164	4,595.21	83.5061	4,595.21	80.8653	4,595.21	81.7178	4,595.21	82.3445	4,595.21	82.4621	4,595.21	80.9949	4,595.21	79.0843	4,595.21	76.2548	4,595.21	75.6114	4,595.21	72.9846	4,595.21	70.2074	4,595.21	68.4702	4,595.21	69.722	4,595.21	70.0907	4,595.21	73.3823	4,595.21	73.5473	4,595.21	73.5756	4,595.21	72.0812	4,595.21	70.0326	4,595.21	43.6488	4,595.21	40.4674	4,595.21	67.1114	4,595.21	70.0498	4,595.21	63.7102	4,595.21	62.618	4,595.21	62.458
4,756.35	86.5334	4,756.35	85.2314	4,756.35	86.6065	4,756.35	85.3702	4,756.35	86.1291	4,756.35	86.8665	4,756.35	87.9673	4,756.35	84.4982	4,756.35	88.1244	4,756.35	81.2381	4,756.35	84.2823	4,756.35	78.887	4,756.35	80.7457	4,756.35	81.9358	4,756.35	81.2847	4,756.35	81.2123	4,756.35	79.745	4,756.35	75.6303	4,756.35	75.7263	4,756.35	73.198	4,756.35	72.7009	4,756.35	65.9834	4,756.35	68.3472	4,756.35	70.0359	4,756.35	70.0723	4,756.35	74.6161	4,756.35	72.7336	4,756.35	69.5945	4,756.35	71.4572	4,756.35	62.7837	4,756.35	58.2926	4,756.35	68.9078	4,756.35	66.5256	4,756.35	49.9487	4,756.35	57.2815	4,756.35	55.9784
4,924.8	85.5929	4,924.8	86.3956	4,924.8	83.8613	4,924.8	84.9919	4,924.8	86.0593	4,924.8	86.9489	4,924.8	87.9203	4,924.8	87.5089	4,924.8	87.5002	4,924.8	84.136	4,924.8	81.8128	4,924.8	80.8676	4,924.8	79.3	4,924.8	83.062	4,924.8	81.2619	4,924.8	80.2818	4,924.8	79.0849	4,924.8	76.2769	4,924.8	75.2787	4,924.8	65.9089	4,924.8	72.8507	4,924.8	71.3288	4,924.8	69.7231	4,924.8	70.5354	4,924.8	71.7119	4,924.8	73.9044	4,924.8	71.0898	4,924.8	67.9396	4,924.8	70.0935	4,924.8	62.7866	4,924.8	62.3727	4,924.8	67.2802	4,924.8	65.0765	4,924.8	59.576	4,924.8	55.3833	4,924.8	62.7365
5,097.66	86.2569	5,097.66	87.3214	5,097.66	85.8441	5,097.66	86.366	5,097.66	87.0634	5,097.66	87.8666	5,097.66	88.6875	5,097.66	88.2255	5,097.66	86.1967	5,097.66	84.5826	5,097.66	80.2384	5,097.66	80.4852	5,097.66	80.6369	5,097.66	81.839	5,097.66	82.1666	5,097.66	80.0111	5,097.66	80.3159	5,097.66	78.1891	5,097.66	77.4995	5,097.66	73.3148	5,097.66	69.6204	5,097.66	72.841	5,097.66	68.5001	5,097.66	70.8376	5,097.66	72.7224	5,097.66	70.4438	5,097.66	65.7794	5,097.66	66.593	5,097.66	66.468	5,097.66	63.4254	5,097.66	63.4455	5,097.66	65.4201	5,097.66	64.7174	5,097.66	58.2513	5,097.66	57.0086	5,097.66	62.3587
5,277.83	86.0754	5,277.83	85.9258	5,277.83	86.9813	5,277.83	87.7911	5,277.83	86.6676	5,277.83	87.8793	5,277.83	87.2001	5,277.83	87.8914	5,277.83	84.7536	5,277.83	85.5156	5,277.83	82.6466	5,277.83	82.4804	5,277.83	79.6708	5,277.83	83.0194	5,277.83	81.7648	5,277.83	83.0463	5,277.83	80.6862	5,277.83	79.7103	5,277.83	77.3708	5,277.83	77.4451	5,277.83	72.346	5,277.83	73.122	5,277.83	69.3809	5,277.83	73.4996	5,277.83	70.1396	5,277.83	68.2046	5,277.83	65.5728	5,277.83	68.5362	5,277.83	54.3819	5,277.83	65.4387	5,277.83	57.6946	5,277.83	67.0363	5,277.83	67.0143	5,277.83	62.8452	5,277.83	60.8673	5,277.83	61.8841
5,463.87	86.8815	5,463.87	86.1364	5,463.87	86	5,463.87	88.9427	5,463.87	87.1722	5,463.87	88.0142	5,463.87	85.3177	5,463.87	87.5851	5,463.87	85.8994	5,463.87	85.2746	5,463.87	84.197	5,463.87	81.3727	5,463.87	79.9336	5,463.87	81.7913	5,463.87	81.176	5,463.87	82.6091	5,463.87	80.0622	5,463.87	74.3788	5,463.87	74.5294	5,463.87	75.3425	5,463.87	73.0102	5,463.87	69.0481	5,463.87	68.5315	5,463.87	73.1818	5,463.87	66.9008	5,463.87	69.7831	5,463.87	66.68	5,463.87	66.0324	5,463.87	62.0068	5,463.87	59.3322	5,463.87	66.0828	5,463.87	68.9241	5,463.87	65.7877	5,463.87	57.875	5,463.87	57.0905	5,463.87	65.5219
5,657.23	86.1993	5,657.23	85.1233	5,657.23	83.6411	5,657.23	86.4097	5,657.23	87.1629	5,657.23	85.9258	5,657.23	84.2345	5,657.23	85.6358	5,657.23	86.297	5,657.23	83.3588	5,657.23	84.1845	5,657.23	82.3976	5,657.23	80.5662	5,657.23	82.3493	5,657.23	79.3542	5,657.23	82.6388	5,657.23	78.0123	5,657.23	77.188	5,657.23	72.0713	5,657.23	76.1239	5,657.23	73.5399	5,657.23	68.4394	5,657.23	64.7485	5,657.23	66.9635	5,657.23	64.8121	5,657.23	71.6985	5,657.23	70.586	5,657.23	58.6116	5,657.23	59.388	5,657.23	61.8214	5,657.23	61.4087	5,657.23	67.0127	5,657.23	63.172	5,657.23	59.1572	5,657.23	57.5242	5,657.23	62.7962
5,856.45	85.6693	5,856.45	84.8525	5,856.45	85.6344	5,856.45	85.1618	5,856.45	86.2267	5,856.45	84.8547	5,856.45	85.2187	5,856.45	86.9803	5,856.45	85.9527	5,856.45	85.0854	5,856.45	83.0227	5,856.45	82.9997	5,856.45	80.8269	5,856.45	82.623	5,856.45	78.4897	5,856.45	80.2118	5,856.45	74.8404	5,856.45	79.1936	5,856.45	75.3966	5,856.45	68.7288	5,856.45	69.2354	5,856.45	61.7953	5,856.45	56.1906	5,856.45	59.071	5,856.45	62.0829	5,856.45	72.4978	5,856.45	72.1649	5,856.45	64.8564	5,856.45	63.1616	5,856.45	63.2975	5,856.45	59.1103	5,856.45	66.1546	5,856.45	63.1371	5,856.45	57.7912	5,856.45	57.5309	5,856.45	59.3651
6,062.99	86.2922	6,062.99	85.0031	6,062.99	86.2483	6,062.99	86.3408	6,062.99	84.4171	6,062.99	84.8736	6,062.99	84.3018	6,062.99	87.7839	6,062.99	85.1004	6,062.99	85.9968	6,062.99	83.2046	6,062.99	80.6828	6,062.99	77.2906	6,062.99	80.2435	6,062.99	76.737	6,062.99	77.1842	6,062.99	77.9052	6,062.99	77.8039	6,062.99	75.1016	6,062.99	66.8603	6,062.99	70.2034	6,062.99	66.7096	6,062.99	63.996	6,062.99	65.7571	6,062.99	53.1066	6,062.99	70.6039	6,062.99	70.8325	6,062.99	67.6793	6,062.99	62.2963	6,062.99	62.4488	6,062.99	58.4906	6,062.99	65.1215	6,062.99	59.6978	6,062.99	56.7904	6,062.99	48.8029	6,062.99	58.3874
6,276.86	87.285	6,276.86	86.0092	6,276.86	85.1011	6,276.86	86.3022	6,276.86	85.0127	6,276.86	86.084	6,276.86	82.9612	6,276.86	86.7396	6,276.86	84.9865	6,276.86	86.6498	6,276.86	84.0326	6,276.86	80.2895	6,276.86	77.7069	6,276.86	78.6803	6,276.86	78.958	6,276.86	78.8161	6,276.86	78.5849	6,276.86	76.2816	6,276.86	75.9739	6,276.86	73.2484	6,276.86	65.5943	6,276.86	58.7211	6,276.86	61.9691	6,276.86	58.5211	6,276.86	67.5546	6,276.86	68.6808	6,276.86	72.3609	6,276.86	66.566	6,276.86	61.5086	6,276.86	60.4569	6,276.86	61.0629	6,276.86	61.2514	6,276.86	61.4716	6,276.86	57.689	6,276.86	56.9345	6,276.86	59.2358
6,498.05	88.0427	6,498.05	87.1996	6,498.05	86.3185	6,498.05	85.1801	6,498.05	85.6813	6,498.05	85.995	6,498.05	84.395	6,498.05	84.8688	6,498.05	84.4767	6,498.05	86.3933	6,498.05	83.9168	6,498.05	82.493	6,498.05	80.9997	6,498.05	79.8612	6,498.05	80.0588	6,498.05	77.3635	6,498.05	74.5776	6,498.05	74.015	6,498.05	73.3903	6,498.05	69.9729	6,498.05	68.7524	6,498.05	66.9519	6,498.05	64.4096	6,498.05	68.0646	6,498.05	66.2194	6,498.05	72.4481	6,498.05	64.947	6,498.05	64.4921	6,498.05	55.1663	6,498.05	55.2209	6,498.05	64.0223	6,498.05	63.8377	6,498.05	58.5052	6,498.05	46.0637	6,498.05	58.2238	6,498.05	60.8184
6,726.56	88.3688	6,726.56	87.3818	6,726.56	87.7352	6,726.56	85.5358	6,726.56	85.4806	6,726.56	84.6078	6,726.56	84.6119	6,726.56	84.8056	6,726.56	83.5943	6,726.56	85.1117	6,726.56	83.7194	6,726.56	83.7678	6,726.56	79.7891	6,726.56	82.0327	6,726.56	76.5304	6,726.56	77.5582	6,726.56	75.0919	6,726.56	75.4439	6,726.56	73.6386	6,726.56	68.2955	6,726.56	68.3382	6,726.56	70.7411	6,726.56	62.8236	6,726.56	68.122	6,726.56	60.6259	6,726.56	71.4586	6,726.56	68.1438	6,726.56	63.9715	6,726.56	55.1999	6,726.56	61.0972	6,726.56	60.2615	6,726.56	60.0274	6,726.56	59.1008	6,726.56	56.5396	6,726.56	61.676	6,726.56	58.2262
6,963.87	88.6363	6,963.87	87.6879	6,963.87	86.6928	6,963.87	86.4464	6,963.87	85.5913	6,963.87	85.5386	6,963.87	82.9896	6,963.87	85.4414	6,963.87	83.0506	6,963.87	85.3902	6,963.87	84.2474	6,963.87	82.983	6,963.87	75.963	6,963.87	81.5589	6,963.87	77.1251	6,963.87	79.7513	6,963.87	78.4547	6,963.87	75.0317	6,963.87	73.8502	6,963.87	71.2839	6,963.87	67.3057	6,963.87	68.9264	6,963.87	58.9231	6,963.87	65.8197	6,963.87	39.6263	6,963.87	65.4402	6,963.87	71.1082	6,963.87	61.7657	6,963.87	61.718	6,963.87	47.9135	6,963.87	55.7649	6,963.87	60.0658	6,963.87	63.8842	6,963.87	60.0749	6,963.87	62.3675	6,963.87	50.1416
7,209.96	89.238	7,209.96	87.6935	7,209.96	86.7999	7,209.96	86.2677	7,209.96	86.0389	7,209.96	85.9384	7,209.96	83.6333	7,209.96	84.4867	7,209.96	82.3018	7,209.96	85.2968	7,209.96	83.3384	7,209.96	80.2889	7,209.96	78.0001	7,209.96	79.6012	7,209.96	79.8143	7,209.96	80.1521	7,209.96	76.1276	7,209.96	71.6154	7,209.96	69.7228	7,209.96	73.3235	7,209.96	68.2495	7,209.96	64.8661	7,209.96	65.1376	7,209.96	64.0626	7,209.96	60.8552	7,209.96	63.3898	7,209.96	67.6241	7,209.96	45.6719	7,209.96	57.1697	7,209.96	59.4254	7,209.96	57.0407	7,209.96	55.3922	7,209.96	63.585	7,209.96	60.1465	7,209.96	60.3101	7,209.96	53.6248
7,464.84	88.8237	7,464.84	87.9174	7,464.84	88.057	7,464.84	86.5973	7,464.84	85.5904	7,464.84	85.6652	7,464.84	85.1989	7,464.84	83.5137	7,464.84	81.6033	7,464.84	85.1579	7,464.84	81.3951	7,464.84	81.3621	7,464.84	79.4503	7,464.84	79.3079	7,464.84	78.3539	7,464.84	80.1529	7,464.84	77.1066	7,464.84	74.1398	7,464.84	70.9354	7,464.84	74.0842	7,464.84	70.0551	7,464.84	59.341	7,464.84	63.0765	7,464.84	57.6513	7,464.84	64.4098	7,464.84	56.3378	7,464.84	67.1979	7,464.84	58.7047	7,464.84	57.1513	7,464.84	58.3926	7,464.84	39.0186	7,464.84	55.4708	7,464.84	61.2645	7,464.84	58.866	7,464.84	53.2154	7,464.84	54.6048
7,727.05	88.8888	7,727.05	88.6018	7,727.05	88.3829	7,727.05	86.9529	7,727.05	85.5342	7,727.05	85.8077	7,727.05	84.7008	7,727.05	83.9148	7,727.05	83.3629	7,727.05	84.0654	7,727.05	81.4305	7,727.05	81.0516	7,727.05	78.2309	7,727.05	79.8856	7,727.05	76.856	7,727.05	81.5715	7,727.05	78.957	7,727.05	75.0327	7,727.05	72.9583	7,727.05	73.4499	7,727.05	72.7102	7,727.05	64.8273	7,727.05	64.8701	7,727.05	65.1138	7,727.05	64.7246	7,727.05	66.0831	7,727.05	64.6053	7,727.05	61.6087	7,727.05	47.006	7,727.05	60.3907	7,727.05	58.9338	7,727.05	62.8979	7,727.05	63.9198	7,727.05	55.3377	7,727.05	56.0258	7,727.05	49.3094
7,999.51	88.892	7,999.51	89.0058	7,999.51	87.8369	7,999.51	87.0776	7,999.51	86.032	7,999.51	85.8686	7,999.51	84.9533	7,999.51	83.8229	7,999.51	81.9981	7,999.51	82.3923	7,999.51	82.0076	7,999.51	81.2491	7,999.51	79.2051	7,999.51	80.2047	7,999.51	75.2295	7,999.51	80.218	7,999.51	78.115	7,999.51	73.9252	7,999.51	65.3826	7,999.51	71.5014	7,999.51	70.4257	7,999.51	65.9223	7,999.51	55.1663	7,999.51	65.6011	7,999.51	57.3789	7,999.51	64.9582	7,999.51	65.3902	7,999.51	56.3021	7,999.51	49.5899	7,999.51	62.4888	7,999.51	50.2746	7,999.51	64.3265	7,999.51	62.616	7,999.51	58.6397	7,999.51	57.7954	7,999.51	57.0307
8,282.23	88.3453	8,282.23	88.193	8,282.23	87.9498	8,282.23	86.5504	8,282.23	85.4528	8,282.23	85.7669	8,282.23	85.4159	8,282.23	83.5437	8,282.23	81.3621	8,282.23	82.3943	8,282.23	81.2731	8,282.23	81.1067	8,282.23	80.2135	8,282.23	79.0179	8,282.23	76.9747	8,282.23	77.5069	8,282.23	75.2061	8,282.23	72.7592	8,282.23	68.7749	8,282.23	66.6411	8,282.23	66.5787	8,282.23	66.9812	8,282.23	59.0422	8,282.23	61.2478	8,282.23	51.6472	8,282.23	63.0734	8,282.23	61.4118	8,282.23	53.4146	8,282.23	54.7235	8,282.23	59.2	8,282.23	56.0369	8,282.23	61.4779	8,282.23	63.0455	8,282.23	58.3297	8,282.23	58.176	8,282.23	55.9477
8,573.73	88.5125	8,573.73	88.1428	8,573.73	87.4317	8,573.73	86.9804	8,573.73	86.2615	8,573.73	85.7705	8,573.73	84.8304	8,573.73	83.957	8,573.73	82.8545	8,573.73	82.3035	8,573.73	80.8807	8,573.73	80.3342	8,573.73	78.7538	8,573.73	78.1572	8,573.73	76.8303	8,573.73	76.4863	8,573.73	72.8739	8,573.73	71.7971	8,573.73	69.7218	8,573.73	64.9305	8,573.73	63.7678	8,573.73	63.6264	8,573.73	59.6148	8,573.73	62.8479	8,573.73	58.7568	8,573.73	62.5285	8,573.73	64.6404	8,573.73	58.3027	8,573.73	50.1791	8,573.73	55.1306	8,573.73	54.8161	8,573.73	58.3531	8,573.73	58.6735	8,573.73	59.1208	8,573.73	51.9695	8,573.73	54.0732
8,876.95	88.2123	8,876.95	87.5861	8,876.95	87.0984	8,876.95	86.599	8,876.95	85.9809	8,876.95	84.838	8,876.95	83.1658	8,876.95	84.2219	8,876.95	82.4314	8,876.95	81.8098	8,876.95	81.1091	8,876.95	78.7058	8,876.95	77.1059	8,876.95	76.2098	8,876.95	76.1624	8,876.95	74.6305	8,876.95	70.6883	8,876.95	71.6311	8,876.95	68.9425	8,876.95	65.5682	8,876.95	64.2071	8,876.95	54.3689	8,876.95	57.4423	8,876.95	55.6922	8,876.95	52.0062	8,876.95	57.4223	8,876.95	62.2447	8,876.95	54.603	8,876.95	50.4149	8,876.95	58.9852	8,876.95	52.4652	8,876.95	60.5692	8,876.95	61.4448	8,876.95	53.4377	8,876.95	47.4907	8,876.95	50.5534
9,188.96	87.6882	9,188.96	87.367	9,188.96	86.978	9,188.96	86.3089	9,188.96	85.5856	9,188.96	84.5613	9,188.96	83.1492	9,188.96	83.8894	9,188.96	81.9332	9,188.96	80.4974	9,188.96	79.2021	9,188.96	77.6126	9,188.96	76.283	9,188.96	73.8569	9,188.96	74.3314	9,188.96	74.5625	9,188.96	72.1454	9,188.96	71.3329	9,188.96	68.2622	9,188.96	65.981	9,188.96	66.1941	9,188.96	53.13	9,188.96	59.2553	9,188.96	56.6538	9,188.96	49.73	9,188.96	52.8739	9,188.96	61.2348	9,188.96	37.3693	9,188.96	51.134	9,188.96	50.8492	9,188.96	45.9172	9,188.96	60.6169	9,188.96	58.5844	9,188.96	52.3495	9,188.96	41.6387	9,188.96	48.1417
9,514.16	86.8715	9,514.16	86.9612	9,514.16	86.3938	9,514.16	85.8029	9,514.16	85.0952	9,514.16	83.8843	9,514.16	82.6856	9,514.16	82.9377	9,514.16	82.4587	9,514.16	80.6103	9,514.16	78.3267	9,514.16	78.3622	9,514.16	77.2681	9,514.16	72.9525	9,514.16	72.9051	9,514.16	74.0094	9,514.16	70.6554	9,514.16	73.6107	9,514.16	69.0871	9,514.16	64.0556	9,514.16	63.1711	9,514.16	59.2792	9,514.16	58.0444	9,514.16	53.4438	9,514.16	45.9566	9,514.16	52.9587	9,514.16	59.52	9,514.16	50.6502	9,514.16	53.464	9,514.16	53.8493	9,514.16	57.6251	9,514.16	58.8976	9,514.16	59.8291	9,514.16	47.4725	9,514.16	47.8758	9,514.16	50.5091
9,849.61	85.9203	9,849.61	86.5859	9,849.61	86.2406	9,849.61	84.8007	9,849.61	84.1403	9,849.61	83.461	9,849.61	83.511	9,849.61	82.4923	9,849.61	81.5862	9,849.61	80.4529	9,849.61	79.7787	9,849.61	77.0023	9,849.61	75.7975	9,849.61	73.9232	9,849.61	73.2798	9,849.61	72.5576	9,849.61	70.5304	9,849.61	71.6519	9,849.61	70.3627	9,849.61	64.4754	9,849.61	65.8654	9,849.61	60.5058	9,849.61	59.8171	9,849.61	56.5559	9,849.61	51.0165	9,849.61	59.7403	9,849.61	62.4583	9,849.61	54.8976	9,849.61	51.9388	9,849.61	58.7595	9,849.61	55.5421	9,849.61	51.8804	9,849.61	57.0389	9,849.61	53.913	9,849.61	52.6376	9,849.61	52.0261
10,196.8	85.1561	10,196.8	86.0118	10,196.8	85.8128	10,196.8	85.0499	10,196.8	84.7714	10,196.8	84.1074	10,196.8	83.4414	10,196.8	82.4849	10,196.8	81.4286	10,196.8	80.0478	10,196.8	78.7332	10,196.8	76.9291	10,196.8	76.444	10,196.8	72.3708	10,196.8	72.2668	10,196.8	72.0692	10,196.8	70.983	10,196.8	69.6741	10,196.8	68.3814	10,196.8	64.3423	10,196.8	64.3556	10,196.8	59.9672	10,196.8	58.6686	10,196.8	57.4603	10,196.8	41.6264	10,196.8	58.2963	10,196.8	58.5629	10,196.8	52.7558	10,196.8	53.1267	10,196.8	56.1732	10,196.8	54.7341	10,196.8	50.1537	10,196.8	56.9133	10,196.8	53.2871	10,196.8	51.7867	10,196.8	52.7441
10,555.7	84.8878	10,555.7	85.1597	10,555.7	85.3174	10,555.7	84.9839	10,555.7	85.0338	10,555.7	83.7186	10,555.7	83.5193	10,555.7	81.2456	10,555.7	80.5635	10,555.7	80.2168	10,555.7	78.6227	10,555.7	76.4949	10,555.7	74.9603	10,555.7	73.3188	10,555.7	72.3856	10,555.7	71.299	10,555.7	68.6751	10,555.7	68.9826	10,555.7	66.9791	10,555.7	63.7226	10,555.7	60.1567	10,555.7	60.0139	10,555.7	54.3112	10,555.7	55.285	10,555.7	51.8414	10,555.7	53.3183	10,555.7	52.4454	10,555.7	49.7553	10,555.7	48.1507	10,555.7	49.1564	10,555.7	53.3251	10,555.7	58.3192	10,555.7	57.8332	10,555.7	48.8974	10,555.7	49.5288	10,555.7	48.0759
10,927.7	84.2522	10,927.7	84.9768	10,927.7	85.0608	10,927.7	84.8702	10,927.7	84.9783	10,927.7	83.7362	10,927.7	83.1405	10,927.7	81.0823	10,927.7	79.5812	10,927.7	79.3461	10,927.7	77.2664	10,927.7	75.187	10,927.7	73.8489	10,927.7	71.1053	10,927.7	67.8726	10,927.7	67.2441	10,927.7	63.5665	10,927.7	66.1483	10,927.7	61.7579	10,927.7	57.6545	10,927.7	58.2053	10,927.7	57.6883	10,927.7	53.114	10,927.7	54.9254	10,927.7	51.8081	10,927.7	51.6981	10,927.7	53.0909	10,927.7	46.5136	10,927.7	42.3643	10,927.7	53.1468	10,927.7	50.9519	10,927.7	58.5622	10,927.7	57.0577	10,927.7	49.3745	10,927.7	51.6278	10,927.7	39.4163
11,313	84.3703	11,313	84.7622	11,313	85.0395	11,313	84.4979	11,313	84.4255	11,313	83.545	11,313	82.7672	11,313	80.7295	11,313	79.6145	11,313	79.2094	11,313	76.6123	11,313	74.4303	11,313	72.0632	11,313	68.2542	11,313	65.6931	11,313	64.0673	11,313	58.6101	11,313	63.6244	11,313	58.2146	11,313	57.5254	11,313	50.8154	11,313	38.4135	11,313	47.7968	11,313	50.9354	11,313	50.7931	11,313	44.8269	11,313	46.86	11,313	48.1946	11,313	42.3809	11,313	48.1727	11,313	49.1512	11,313	56.4284	11,313	51.8591	11,313	40.9388	11,313	50.6217	11,313	44.6291
11,712.9	84.0253	11,712.9	84.1337	11,712.9	84.6199	11,712.9	84.239	11,712.9	84.1866	11,712.9	83.3095	11,712.9	82.448	11,712.9	80.3707	11,712.9	79.1904	11,712.9	77.9405	11,712.9	75.6997	11,712.9	72.9087	11,712.9	69.0029	11,712.9	65.9118	11,712.9	60.3668	11,712.9	61.8406	11,712.9	59.1965	11,712.9	59.7937	11,712.9	59.8588	11,712.9	50.1117	11,712.9	53.4516	11,712.9	41.1172	11,712.9	45.3885	11,712.9	47.753	11,712.9	45.0715	11,712.9	46.9921	11,712.9	43.3298	11,712.9	40.7322	11,712.9	30.6655	11,712.9	52.5666	11,712.9	48.9418	11,712.9	51.1024	11,712.9	49.0419	11,712.9	45.2002	11,712.9	50.5862	11,712.9	48.3776
12,126	85.0948	12,126	85.0619	12,126	85.295	12,126	84.5609	12,126	84.7958	12,126	83.6964	12,126	82.7519	12,126	79.9248	12,126	79.7196	12,126	76.2722	12,126	75.5161	12,126	70.705	12,126	69.0151	12,126	61.9	12,126	63.1199	12,126	55.7408	12,126	64.9559	12,126	50.2418	12,126	62.1483	12,126	48.7282	12,126	57.7205	12,126	31.4845	12,126	53.6439	12,126	47.2978	12,126	44.8404	12,126	43.6508	12,126	42.8739	12,126	42.3768	12,126	41.5125	12,126	49.2109	12,126	49.6322	12,126	51.3198	12,126	49.7235	12,126	43.2825	12,126	47.1283	12,126	43.4664
12,553.7	85.6898	12,553.7	85.1197	12,553.7	85.6194	12,553.7	84.5926	12,553.7	85.0204	12,553.7	82.847	12,553.7	83.0873	12,553.7	79.0939	12,553.7	79.6466	12,553.7	74.9309	12,553.7	75.3098	12,553.7	65.09	12,553.7	68.8521	12,553.7	58.4605	12,553.7	64.7484	12,553.7	50.8828	12,553.7	64.0269	12,553.7	52.819	12,553.7	62.8532	12,553.7	46.5809	12,553.7	58.842	12,553.7	25.3134	12,553.7	52.2684	12,553.7	44.0335	12,553.7	29.0481	12,553.7	45.6619	12,553.7	37.0467	12,553.7	47.9023	12,553.7	40.4537	12,553.7	43.0133	12,553.7	47.9607	12,553.7	42.719	12,553.7	48.8158	12,553.7	51.3714	12,553.7	53.1855	12,553.7	48.2902
12,996.1	86.8982	12,996.1	85.9676	12,996.1	86.2039	12,996.1	85.2748	12,996.1	85.6254	12,996.1	82.4586	12,996.1	82.9884	12,996.1	78.4237	12,996.1	78.7729	12,996.1	72.7585	12,996.1	74.1456	12,996.1	61.5143	12,996.1	67.8807	12,996.1	47.726	12,996.1	64.7375	12,996.1	55.0969	12,996.1	66.027	12,996.1	55.6547	12,996.1	61.9809	12,996.1	53.4623	12,996.1	59.0418	12,996.1	44.875	12,996.1	53.3081	12,996.1	46.9481	12,996.1	46.1847	12,996.1	47.1145	12,996.1	50.9852	12,996.1	48.246	12,996.1	45.8719	12,996.1	46.1005	12,996.1	28.0935	12,996.1	48.7055	12,996.1	48.0064	12,996.1	50.6542	12,996.1	49.157	12,996.1	42.9611
13,454.6	87.5125	13,454.6	86.5791	13,454.6	86.7	13,454.6	85.246	13,454.6	85.7621	13,454.6	81.4574	13,454.6	82.5014	13,454.6	77.5159	13,454.6	77.6046	13,454.6	72.1743	13,454.6	72.8015	13,454.6	64.1712	13,454.6	68.3997	13,454.6	62.0729	13,454.6	66.901	13,454.6	62.1942	13,454.6	68.3188	13,454.6	57.9449	13,454.6	64.2714	13,454.6	58.3731	13,454.6	59.5948	13,454.6	49.1124	13,454.6	50.9902	13,454.6	52.224	13,454.6	49.1239	13,454.6	47.0109	13,454.6	49.1117	13,454.6	52.2677	13,454.6	46.9173	13,454.6	39.1054	13,454.6	39.0025	13,454.6	46.906	13,454.6	47.6371	13,454.6	51.4415	13,454.6	46.3497	13,454.6	45.5616
13,929.2	87.6421	13,929.2	86.7334	13,929.2	86.5716	13,929.2	84.8352	13,929.2	85.0485	13,929.2	80.8172	13,929.2	80.8834	13,929.2	77.2784	13,929.2	76.3231	13,929.2	71.7996	13,929.2	72.134	13,929.2	69.3448	13,929.2	71.7225	13,929.2	63.2393	13,929.2	68.9039	13,929.2	64.5	13,929.2	69.0716	13,929.2	63.0908	13,929.2	65.0691	13,929.2	59.9573	13,929.2	62.9209	13,929.2	42.2622	13,929.2	54.346	13,929.2	51.693	13,929.2	49.9744	13,929.2	42.0469	13,929.2	57.269	13,929.2	51.8183	13,929.2	46.2709	13,929.2	48.2464	13,929.2	47.9179	13,929.2	48.563	13,929.2	44.1922	13,929.2	34.3569	13,929.2	38.8433	13,929.2	35.9102
14,419.9	87.43	14,419.9	86.645	14,419.9	86.3501	14,419.9	84.327	14,419.9	84.0738	14,419.9	80.4487	14,419.9	78.289	14,419.9	76.4291	14,419.9	73.128	14,419.9	73.8879	14,419.9	72.9065	14,419.9	70.6223	14,419.9	73.7267	14,419.9	65.0773	14,419.9	70.7904	14,419.9	66.7833	14,419.9	69.7213	14,419.9	63.757	14,419.9	65.6045	14,419.9	62.4205	14,419.9	62.6186	14,419.9	46.6714	14,419.9	53.5178	14,419.9	55.4985	14,419.9	55.3442	14,419.9	52.0838	14,419.9	58.5358	14,419.9	46.3926	14,419.9	45.7639	14,419.9	48.7812	14,419.9	49.642	14,419.9	46.503	14,419.9	37.0583	14,419.9	44.4276	14,419.9	44.505	14,419.9	39.8262
14,928.2	87.5164	14,928.2	87.5564	14,928.2	86.2038	14,928.2	84.1292	14,928.2	82.4996	14,928.2	81.2718	14,928.2	77.7572	14,928.2	76.9363	14,928.2	74.3725	14,928.2	74.0288	14,928.2	73.9206	14,928.2	70.0779	14,928.2	74.4601	14,928.2	64.1989	14,928.2	71.0655	14,928.2	63.7041	14,928.2	68.5935	14,928.2	62.5553	14,928.2	65.0261	14,928.2	54.4926	14,928.2	62.081	14,928.2	42.9321	14,928.2	54.4599	14,928.2	52.6532	14,928.2	50.7083	14,928.2	46.6101	14,928.2	58.6084	14,928.2	45.8011	14,928.2	39.3765	14,928.2	49.5322	14,928.2	48.126	14,928.2	45.2816	14,928.2	46.9245	14,928.2	43.5488	14,928.2	44.3726	14,928.2	47.9073
15,455.6	87.859	15,455.6	88.226	15,455.6	86.5071	15,455.6	84.7367	15,455.6	81.3291	15,455.6	81.271	15,455.6	77.7233	15,455.6	77.7107	15,455.6	75.5341	15,455.6	74.2353	15,455.6	73.4061	15,455.6	69.4716	15,455.6	73.0385	15,455.6	60.7769	15,455.6	71.8801	15,455.6	60.7949	15,455.6	66.2854	15,455.6	58.565	15,455.6	62.7438	15,455.6	56.5187	15,455.6	59.0833	15,455.6	46.4315	15,455.6	52.9187	15,455.6	52.1071	15,455.6	49.1989	15,455.6	45.7246	15,455.6	57.5731	15,455.6	45.4116	15,455.6	40.8199	15,455.6	44.467	15,455.6	48.0126	15,455.6	29.5195	15,455.6	46.6956	15,455.6	47.9762	15,455.6	47.0564	15,455.6	46.1661
16,000.5	88.2311	16,000.5	88.3373	16,000.5	86.2248	16,000.5	85.3799	16,000.5	80.7941	16,000.5	81.0519	16,000.5	76.871	16,000.5	77.6676	16,000.5	74.7073	16,000.5	73.6283	16,000.5	72.3693	16,000.5	66.1758	16,000.5	70.5556	16,000.5	55.3285	16,000.5	68.8952	16,000.5	57.5432	16,000.5	62.334	16,000.5	59.2151	16,000.5	58.2787	16,000.5	52.9661	16,000.5	51.8964	16,000.5	47.337	16,000.5	48.7882	16,000.5	50.5071	16,000.5	42.3202	16,000.5	37.2538	16,000.5	53.5138	16,000.5	47.6716	16,000.5	36.0347	16,000.5	41.356	16,000.5	48.3967	16,000.5	35.2243	16,000.5	45.7819	16,000.5	47.9303	16,000.5	46.1089	16,000.5	42.912
16,564.5	87.9209	16,564.5	88.3911	16,564.5	85.8916	16,564.5	85.9484	16,564.5	80.9071	16,564.5	81.6901	16,564.5	77.4978	16,564.5	76.9101	16,564.5	73.3478	16,564.5	69.7639	16,564.5	67.6555	16,564.5	59.7576	16,564.5	65.8554	16,564.5	63.0318	16,564.5	60.976	16,564.5	58.5182	16,564.5	55.5612	16,564.5	58.2419	16,564.5	47.9257	16,564.5	52.0083	16,564.5	44.5121	16,564.5	44.279	16,564.5	41.497	16,564.5	51.8626	16,564.5	41.4639	16,564.5	41.0873	16,564.5	46.7723	16,564.5	49.3212	16,564.5	36.1483	16,564.5	41.2335	16,564.5	36.0083	16,564.5	44.5557	16,564.5	42.9454	16,564.5	38.15	16,564.5	43.1984	16,564.5	42.2267
17,148.9	86.6096	17,148.9	87.9072	17,148.9	85.5944	17,148.9	86.2995	17,148.9	81.7254	17,148.9	82.3421	17,148.9	77.018	17,148.9	75.5162	17,148.9	69.9791	17,148.9	63.5085	17,148.9	63.0084	17,148.9	67.2942	17,148.9	56.5149	17,148.9	69.2071	17,148.9	54.5127	17,148.9	63.2425	17,148.9	53.3342	17,148.9	60.195	17,148.9	50.2571	17,148.9	55.3368	17,148.9	42.3403	17,148.9	47.4054	17,148.9	37.6628	17,148.9	50.7069	17,148.9	37.3784	17,148.9	43.2882	17,148.9	48.7035	17,148.9	46.8991	17,148.9	41.2565	17,148.9	41.7577	17,148.9	39.0416	17,148.9	47.7954	17,148.9	43.297	17,148.9	40.2672	17,148.9	34.0959	17,148.9	42.774
17,752.4	85.2023	17,752.4	86.7367	17,752.4	85.2999	17,752.4	86.1888	17,752.4	82.6332	17,752.4	81.4706	17,752.4	75.5293	17,752.4	72.0953	17,752.4	60.5319	17,752.4	61.9274	17,752.4	68.1073	17,752.4	71.4637	17,752.4	64.6927	17,752.4	71.8756	17,752.4	66.0937	17,752.4	64.7974	17,752.4	62.6437	17,752.4	61.7442	17,752.4	55.4801	17,752.4	55.7546	17,752.4	44.609	17,752.4	45.8063	17,752.4	29.0665	17,752.4	49.0855	17,752.4	28.6723	17,752.4	50.001	17,752.4	43.118	17,752.4	40.2329	17,752.4	37.9357	17,752.4	39.9525	17,752.4	44.4247	17,752.4	49.4633	17,752.4	43.8444	17,752.4	44.0097	17,752.4	39.2051	17,752.4	35.8645
18,379.4	84.9105	18,379.4	85.366	18,379.4	84.5682	18,379.4	85.3477	18,379.4	82.1966	18,379.4	79.4696	18,379.4	72.4527	18,379.4	64.0059	18,379.4	68.0621	18,379.4	66.1951	18,379.4	69.5381	18,379.4	73.4319	18,379.4	66.8255	18,379.4	72.2342	18,379.4	66.8965	18,379.4	64.1295	18,379.4	60.483	18,379.4	61.8949	18,379.4	47.7437	18,379.4	52.9375	18,379.4	46.1243	18,379.4	46.7602	18,379.4	40.4911	18,379.4	50.6517	18,379.4	44.8978	18,379.4	50.3343	18,379.4	48.7874	18,379.4	29.3439	18,379.4	37.6045	18,379.4	40.0368	18,379.4	44.7799	18,379.4	48.5183	18,379.4	46.3079	18,379.4	46.9766	18,379.4	38.5454	18,379.4	40.7172
19,026.9	84.3464	19,026.9	83.5708	19,026.9	82.5395	19,026.9	83.3657	19,026.9	80.5643	19,026.9	76.273	19,026.9	70.8555	19,026.9	59.9705	19,026.9	71.8376	19,026.9	70.0547	19,026.9	67.3803	19,026.9	73.4859	19,026.9	66.6935	19,026.9	71.5414	19,026.9	62.8151	19,026.9	62.8486	19,026.9	55.6773	19,026.9	60.2707	19,026.9	45.6311	19,026.9	44.1076	19,026.9	42.7211	19,026.9	47.8672	19,026.9	43.3554	19,026.9	46.4237	19,026.9	42.5033	19,026.9	48.4129	19,026.9	46.3328	19,026.9	43.9935	19,026.9	40.9037	19,026.9	35.522	19,026.9	45.8016	19,026.9	47.2632	19,026.9	50.8027	19,026.9	51.0903	19,026.9	36.2274	19,026.9	46.7501
19,697.8	82.7895	19,697.8	81.789	19,697.8	80.2507	19,697.8	80.735	19,697.8	78.6677	19,697.8	72.5372	19,697.8	74.0214	19,697.8	66.6405	19,697.8	71.8396	19,697.8	70.6737	19,697.8	65.5141	19,697.8	71.4918	19,697.8	61.5678	19,697.8	69.1142	19,697.8	53.282	19,697.8	60.7598	19,697.8	40.3139	19,697.8	55.2745	19,697.8	40.9169	19,697.8	46.2462	19,697.8	39.7689	19,697.8	48.8725	19,697.8	40.9397	19,697.8	43.5233	19,697.8	38.3148	19,697.8	44.7956	19,697.8	43.3445	19,697.8	39.7028	19,697.8	40.3806	19,697.8	45.039	19,697.8	46.4079	19,697.8	46.7658	19,697.8	47.0273	19,697.8	46.4945	19,697.8	37.4186	19,697.8	46.544
19,999.5	82.3523	19,999.5	81.4393	19,999.5	79.2278	19,999.5	79.2912	19,999.5	77.2329	19,999.5	71.2303	19,999.5	74.3611	19,999.5	66.7085	19,999.5	71.3414	19,999.5	71.1657	19,999.5	64.5088	19,999.5	70.5803	19,999.5	57.0414	19,999.5	67.7331	19,999.5	48.8778	19,999.5	60.1196	19,999.5	43.0921	19,999.5	52.2731	19,999.5	41.0348	19,999.5	46.0482	19,999.5	31.1408	19,999.5	54.2775	19,999.5	45.4626	19,999.5	47.9181	19,999.5	45.8372	19,999.5	48.3907	19,999.5	43.6381	19,999.5	45.2283	19,999.5	43.3297	19,999.5	46.1483	19,999.5	38.0497	19,999.5	48.7054	19,999.5	46.9761	19,999.5	49.2881	19,999.5	35.3487	19,999.5	47.9576
