"SPL Vertical"
"On-Axis"		"10°"		"-10°"		"20°"		"-20°"		"30°"		"-30°"		"40°"		"-40°"		"50°"		"-50°"		"60°"		"-60°"		"70°"		"-70°"		"80°"		"-80°"		"90°"		"-90°"		"100°"		"-100°"		"110°"		"-110°"		"120°"		"-120°"		"130°"		"-130°"		"140°"		"-140°"		"150°"		"-150°"		"160°"		"-160°"		"170°"		"-170°"		"180°"
"Frequency [Hz]"	"Sound Pessure Level [dB]  / [2.83V 1m] "	"Frequency [Hz]"	"Sound Pessure Level [dB]  / [2.83V 1m] "	"Frequency [Hz]"	"Sound Pessure Level [dB]  / [2.83V 1m] "	"Frequency [Hz]"	"Sound Pessure Level [dB]  / [2.83V 1m] "	"Frequency [Hz]"	"Sound Pessure Level [dB]  / [2.83V 1m] "	"Frequency [Hz]"	"Sound Pessure Level [dB]  / [2.83V 1m] "	"Frequency [Hz]"	"Sound Pessure Level [dB]  / [2.83V 1m] "	"Frequency [Hz]"	"Sound Pessure Level [dB]  / [2.83V 1m] "	"Frequency [Hz]"	"Sound Pessure Level [dB]  / [2.83V 1m] "	"Frequency [Hz]"	"Sound Pessure Level [dB]  / [2.83V 1m] "	"Frequency [Hz]"	"Sound Pessure Level [dB]  / [2.83V 1m] "	"Frequency [Hz]"	"Sound Pessure Level [dB]  / [2.83V 1m] "	"Frequency [Hz]"	"Sound Pessure Level [dB]  / [2.83V 1m] "	"Frequency [Hz]"	"Sound Pessure Level [dB]  / [2.83V 1m] "	"Frequency [Hz]"	"Sound Pessure Level [dB]  / [2.83V 1m] "	"Frequency [Hz]"	"Sound Pessure Level [dB]  / [2.83V 1m] "	"Frequency [Hz]"	"Sound Pessure Level [dB]  / [2.83V 1m] "	"Frequency [Hz]"	"Sound Pessure Level [dB]  / [2.83V 1m] "	"Frequency [Hz]"	"Sound Pessure Level [dB]  / [2.83V 1m] "	"Frequency [Hz]"	"Sound Pessure Level [dB]  / [2.83V 1m] "	"Frequency [Hz]"	"Sound Pessure Level [dB]  / [2.83V 1m] "	"Frequency [Hz]"	"Sound Pessure Level [dB]  / [2.83V 1m] "	"Frequency [Hz]"	"Sound Pessure Level [dB]  / [2.83V 1m] "	"Frequency [Hz]"	"Sound Pessure Level [dB]  / [2.83V 1m] "	"Frequency [Hz]"	"Sound Pessure Level [dB]  / [2.83V 1m] "	"Frequency [Hz]"	"Sound Pessure Level [dB]  / [2.83V 1m] "	"Frequency [Hz]"	"Sound Pessure Level [dB]  / [2.83V 1m] "	"Frequency [Hz]"	"Sound Pessure Level [dB]  / [2.83V 1m] "	"Frequency [Hz]"	"Sound Pessure Level [dB]  / [2.83V 1m] "	"Frequency [Hz]"	"Sound Pessure Level [dB]  / [2.83V 1m] "	"Frequency [Hz]"	"Sound Pessure Level [dB]  / [2.83V 1m] "	"Frequency [Hz]"	"Sound Pessure Level [dB]  / [2.83V 1m] "	"Frequency [Hz]"	"Sound Pessure Level [dB]  / [2.83V 1m] "	"Frequency [Hz]"	"Sound Pessure Level [dB]  / [2.83V 1m] "	"Frequency [Hz]"	"Sound Pessure Level [dB]  / [2.83V 1m] "	"Frequency [Hz]"	"Sound Pessure Level [dB]  / [2.83V 1m] "
20.5078	38.9421	20.5078	38.7544	20.5078	39.6441	20.5078	39.1192	20.5078	40.7557	20.5078	39.9792	20.5078	42.1497	20.5078	41.2012	20.5078	43.7068	20.5078	42.6334	20.5078	45.3301	20.5078	44.1515	20.5078	46.9477	20.5078	45.673	20.5078	48.5085	20.5078	47.1495	20.5078	49.9767	20.5078	48.5551	20.5078	51.3272	20.5078	49.8762	20.5078	52.5422	20.5078	51.1045	20.5078	53.609	20.5078	52.233	20.5078	54.5181	20.5078	53.2537	20.5078	55.2623	20.5078	54.157	20.5078	55.8357	20.5078	54.931	20.5078	56.2336	20.5078	55.563	20.5078	56.4528	20.5078	56.0407	20.5078	56.4921	20.5078	56.3531
21.9727	45.5831	21.9727	45.7699	21.9727	45.1092	21.9727	45.6941	21.9727	44.3014	21.9727	45.3621	21.9727	43.0859	21.9727	44.7625	21.9727	41.3694	21.9727	43.8659	21.9727	39.1579	21.9727	42.6246	21.9727	37.2699	21.9727	40.9894	21.9727	38.0368	21.9727	39.0199	21.9727	40.9494	21.9727	37.3624	21.9727	43.8318	21.9727	37.6575	21.9727	46.1628	21.9727	39.9598	21.9727	47.9791	21.9727	42.6154	21.9727	49.368	21.9727	44.9324	21.9727	50.3948	21.9727	46.8358	21.9727	51.1027	21.9727	48.3701	21.9727	51.5189	21.9727	49.5817	21.9727	51.6602	21.9727	50.5025	21.9727	51.5363	21.9727	51.1511
23.4375	39.6323	23.4375	39.2645	23.4375	40.5462	23.4375	39.5012	23.4375	41.8597	23.4375	40.2798	23.4375	43.406	23.4375	41.452	23.4375	45.046	23.4375	42.8527	23.4375	46.6826	23.4375	44.3477	23.4375	48.2538	23.4375	45.8465	23.4375	49.7213	23.4375	47.2951	23.4375	51.0607	23.4375	48.6639	23.4375	52.2558	23.4375	49.9375	23.4375	53.2962	23.4375	51.1079	23.4375	54.1759	23.4375	52.1698	23.4375	54.8935	23.4375	53.1189	23.4375	55.4511	23.4375	53.9503	23.4375	55.8532	23.4375	54.659	23.4375	56.1051	23.4375	55.2397	23.4375	56.2116	23.4375	55.6881	23.4375	56.1761	23.4375	56.001
24.9023	45.7782	24.9023	45.4046	24.9023	46.2291	24.9023	45.0951	24.9023	46.7842	24.9023	44.86	24.9023	47.4702	24.9023	44.7382	24.9023	48.2978	24.9023	44.7926	24.9023	49.2517	24.9023	45.09	24.9023	50.2914	24.9023	45.6663	24.9023	51.3625	24.9023	46.5009	24.9023	52.4093	24.9023	47.525	24.9023	53.3833	24.9023	48.6525	24.9023	54.2471	24.9023	49.8074	24.9023	54.9745	24.9023	50.9341	24.9023	55.5494	24.9023	51.9951	24.9023	55.964	24.9023	52.9662	24.9023	56.2168	24.9023	53.8311	24.9023	56.3106	24.9023	54.5785	24.9023	56.2503	24.9023	55.2002	24.9023	56.0415	24.9023	55.6897
26.3672	45.3332	26.3672	45.2841	26.3672	45.3469	26.3672	45.1784	26.3672	45.4002	26.3672	45.0441	26.3672	45.6216	26.3672	44.9571	26.3672	46.1544	26.3672	45.035	26.3672	47.0695	26.3672	45.401	26.3672	48.3051	26.3672	46.1171	26.3672	49.7107	26.3672	47.1407	26.3672	51.136	26.3672	48.3571	26.3672	52.4752	26.3672	49.6454	26.3672	53.6677	26.3672	50.9163	26.3672	54.6834	26.3672	52.1147	26.3672	55.5104	26.3672	53.2091	26.3672	56.1474	26.3672	54.1813	26.3672	56.5982	26.3672	55.0199	26.3672	56.8687	26.3672	55.7166	26.3672	56.9653	26.3672	56.2646	26.3672	56.8936	26.3672	56.6585
27.832	53.4283	27.832	53.3531	27.832	53.4849	27.832	53.2588	27.832	53.5389	27.832	53.1583	27.832	53.6234	27.832	53.0766	27.832	53.7875	27.832	53.0496	27.832	54.0857	27.832	53.1196	27.832	54.5572	27.832	53.3265	27.832	55.2034	27.832	53.6955	27.832	55.983	27.832	54.2266	27.832	56.8275	27.832	54.8938	27.832	57.6658	27.832	55.6533	27.832	58.4393	27.832	56.4557	27.832	59.1072	27.832	57.2548	27.832	59.6443	27.832	58.0122	27.832	60.037	27.832	58.6969	27.832	60.279	27.832	59.285	27.832	60.369	27.832	59.7583	27.832	60.3089	27.832	60.103
29.2969	52.8204	29.2969	52.9178	29.2969	52.6523	29.2969	52.941	29.2969	52.433	29.2969	52.8976	29.2969	52.2062	29.2969	52.8044	29.2969	52.0492	29.2969	52.6884	29.2969	52.0703	29.2969	52.5876	29.2969	52.3736	29.2969	52.55	29.2969	52.9958	29.2969	52.6269	29.2969	53.872	29.2969	52.86	29.2969	54.8737	29.2969	53.2669	29.2969	55.8733	29.2969	53.8326	29.2969	56.7787	29.2969	54.5153	29.2969	57.5357	29.2969	55.2607	29.2969	58.1174	29.2969	56.0151	29.2969	58.5143	29.2969	56.7331	29.2969	58.7274	29.2969	57.3787	29.2969	58.7635	29.2969	57.9243	29.2969	58.6329	29.2969	58.3482
30.7617	52.704	30.7617	52.8385	30.7617	52.4694	30.7617	52.8774	30.7617	52.1545	30.7617	52.8377	30.7617	51.8257	30.7617	52.7456	30.7617	51.6219	30.7617	52.6359	30.7617	51.7395	30.7617	52.5544	30.7617	52.3228	30.7617	52.5554	30.7617	53.3301	30.7617	52.6939	30.7617	54.5664	30.7617	53.0106	30.7617	55.8298	30.7617	53.5156	30.7617	56.9884	30.7617	54.1844	30.7617	57.9753	30.7617	54.9675	30.7617	58.7621	30.7617	55.8072	30.7617	59.3402	30.7617	56.6502	30.7617	59.711	30.7617	57.4529	30.7617	59.8814	30.7617	58.1809	30.7617	59.8619	30.7617	58.8069	30.7617	59.6658	30.7617	59.3084
32.2266	55.4112	32.2266	55.4729	32.2266	55.2966	32.2266	55.4632	32.2266	55.1672	32.2266	55.3782	32.2266	55.0826	32.2266	55.2259	32.2266	55.119	32.2266	55.0256	32.2266	55.3468	32.2266	54.8086	32.2266	55.7988	32.2266	54.6192	32.2266	56.449	32.2266	54.5127	32.2266	57.2244	32.2266	54.5469	32.2266	58.0366	32.2266	54.7653	32.2266	58.8078	32.2266	55.1796	32.2266	59.4806	32.2266	55.764	32.2266	60.018	32.2266	56.4659	32.2266	60.3986	32.2266	57.2242	32.2266	60.6129	32.2266	57.983	32.2266	60.6598	32.2266	58.6977	32.2266	60.5443	32.2266	59.3343	32.2266	60.2758	32.2266	59.867
33.6914	55.354	33.6914	55.3253	33.6914	55.346	33.6914	55.2455	33.6914	55.3332	33.6914	55.1143	33.6914	55.3661	33.6914	54.9434	33.6914	55.5097	33.6914	54.7567	33.6914	55.8241	33.6914	54.5907	33.6914	56.3368	33.6914	54.4933	33.6914	57.0235	33.6914	54.5174	33.6914	57.817	33.6914	54.7072	33.6914	58.6348	33.6914	55.0827	33.6914	59.4035	33.6914	55.6299	33.6914	60.0686	33.6914	56.3073	33.6914	60.5951	33.6914	57.0606	33.6914	60.964	33.6914	57.8368	33.6914	61.1677	33.6914	58.5918	33.6914	61.2073	33.6914	59.2915	33.6914	61.0896	33.6914	59.9101	33.6914	60.8252	33.6914	60.427
35.1562	56.3773	35.1562	56.3376	35.1562	56.444	35.1562	56.3063	35.1562	56.5731	35.1562	56.2815	35.1562	56.8125	35.1562	56.2755	35.1562	57.2082	35.1562	56.3114	35.1562	57.7842	35.1562	56.4188	35.1562	58.5257	35.1562	56.6268	35.1562	59.382	35.1562	56.9562	35.1562	60.2835	35.1562	57.4126	35.1562	61.1622	35.1562	57.9841	35.1562	61.9627	35.1562	58.6447	35.1562	62.6453	35.1562	59.361	35.1562	63.1849	35.1562	60.0991	35.1562	63.5677	35.1562	60.8282	35.1562	63.7892	35.1562	61.5219	35.1562	63.8519	35.1562	62.158	35.1562	63.7636	35.1562	62.7171	35.1562	63.5357	35.1562	63.1818
36.6211	60.2247	36.6211	60.1836	36.6211	60.2805	36.6211	60.1464	36.6211	60.3705	36.6211	60.1106	36.6211	60.5208	36.6211	60.0809	36.6211	60.7598	36.6211	60.0688	36.6211	61.1094	36.6211	60.0906	36.6211	61.5752	36.6211	60.1654	36.6211	62.1403	36.6211	60.3117	36.6211	62.7685	36.6211	60.544	36.6211	63.4124	36.6211	60.8683	36.6211	64.0242	36.6211	61.2805	36.6211	64.5628	36.6211	61.7666	36.6211	64.9974	36.6211	62.3051	36.6211	65.3075	36.6211	62.8704	36.6211	65.4827	36.6211	63.4357	36.6211	65.5207	36.6211	63.9753	36.6211	65.4261	36.6211	64.465	36.6211	65.2088	36.6211	64.8827
38.0859	62.3635	38.0859	62.296	38.0859	62.4408	38.0859	62.232	38.0859	62.5398	38.0859	62.1708	38.0859	62.678	38.0859	62.1171	38.0859	62.8753	38.0859	62.0802	38.0859	63.1502	38.0859	62.0734	38.0859	63.5121	38.0859	62.1129	38.0859	63.9562	38.0859	62.215	38.0859	64.4612	38.0859	62.3934	38.0859	64.9932	38.0859	62.6557	38.0859	65.5126	38.0859	63.0015	38.0859	65.9815	38.0859	63.4213	38.0859	66.3685	38.0859	63.8976	38.0859	66.6507	38.0859	64.4073	38.0859	66.8142	38.0859	64.9248	38.0859	66.8533	38.0859	65.4238	38.0859	66.7695	38.0859	65.8792	38.0859	66.5703	38.0859	66.268
39.5508	63.226	39.5508	63.1896	39.5508	63.2615	39.5508	63.1458	39.5508	63.3082	39.5508	63.0938	39.5508	63.3846	39.5508	63.0377	39.5508	63.5133	39.5508	62.9859	39.5508	63.7162	39.5508	62.9507	39.5508	64.0075	39.5508	62.9471	39.5508	64.3861	39.5508	62.9916	39.5508	64.8325	39.5508	63.0994	39.5508	65.3129	39.5508	63.2816	39.5508	65.7866	39.5508	63.5422	39.5508	66.2146	39.5508	63.8767	39.5508	66.5646	39.5508	64.2723	39.5508	66.8144	39.5508	64.7094	39.5508	66.9512	39.5508	65.1644	39.5508	66.9712	39.5508	65.6123	39.5508	66.8779	39.5508	66.0288	39.5508	66.6801	39.5508	66.3914
41.0156	64.0241	41.0156	64.0006	41.0156	64.051	41.0156	63.9728	41.0156	64.0949	41.0156	63.939	41.0156	64.1752	41.0156	63.9026	41.0156	64.3138	41.0156	63.8714	41.0156	64.5298	41.0156	63.857	41.0156	64.833	41.0156	63.8734	41.0156	65.2177	41.0156	63.9354	41.0156	65.6625	41.0156	64.0565	41.0156	66.1343	41.0156	64.2461	41.0156	66.5955	41.0156	64.5071	41.0156	67.0103	41.0156	64.8347	41.0156	67.3496	41.0156	65.2164	41.0156	67.5928	41.0156	65.6339	41.0156	67.7282	41.0156	66.0654	41.0156	67.7525	41.0156	66.4879	41.0156	67.6691	41.0156	66.8789	41.0156	67.4867	41.0156	67.218
42.4805	66.0627	42.4805	66.0239	42.4805	66.1022	42.4805	65.9802	42.4805	66.1523	42.4805	65.9309	42.4805	66.2276	42.4805	65.879	42.4805	66.3449	42.4805	65.8316	42.4805	66.5207	42.4805	65.7989	42.4805	66.7661	42.4805	65.7935	42.4805	67.082	42.4805	65.829	42.4805	67.4563	42.4805	65.9186	42.4805	67.8646	42.4805	66.0723	42.4805	68.2748	42.4805	66.2948	42.4805	68.6527	42.4805	66.5839	42.4805	68.9681	42.4805	66.9298	42.4805	69.1979	42.4805	67.3162	42.4805	69.3276	42.4805	67.7225	42.4805	69.3513	42.4805	68.1258	42.4805	69.2706	42.4805	68.5028	42.4805	69.0932	42.4805	68.8318
43.9453	67.1983	43.9453	67.1382	43.9453	67.2632	43.9453	67.0776	43.9453	67.3421	43.9453	67.0161	43.9453	67.4485	43.9453	66.9569	43.9453	67.5975	43.9453	66.9071	43.9453	67.8029	43.9453	66.8764	43.9453	68.0728	43.9453	66.8766	43.9453	68.4049	43.9453	66.9202	43.9453	68.7847	43.9453	67.0186	43.9453	69.1876	43.9453	67.1801	43.9453	69.5826	43.9453	67.4077	43.9453	69.9381	43.9453	67.6984	43.9453	70.2264	43.9453	68.0426	43.9453	70.4269	43.9453	68.4253	43.9453	70.5273	43.9453	68.8278	43.9453	70.5233	43.9453	69.2295	43.9453	70.4183	43.9453	69.609	43.9453	70.2213	43.9453	69.946
45.4102	68.4535	45.4102	68.374	45.4102	68.5424	45.4102	68.3003	45.4102	68.6475	45.4102	68.2327	45.4102	68.7783	45.4102	68.1742	45.4102	68.9456	45.4102	68.1309	45.4102	69.159	45.4102	68.1109	45.4102	69.4236	45.4102	68.1241	45.4102	69.7367	45.4102	68.1804	45.4102	70.0866	45.4102	68.2885	45.4102	70.4529	45.4102	68.4544	45.4102	70.8099	45.4102	68.6801	45.4102	71.1302	45.4102	68.9621	45.4102	71.3896	45.4102	69.2917	45.4102	71.5691	45.4102	69.6557	45.4102	71.6567	45.4102	70.0371	45.4102	71.6483	45.4102	70.4173	45.4102	71.5459	45.4102	70.7766	45.4102	71.3577	45.4102	71.0961
46.875	69.6291	46.875	69.5472	46.875	69.717	46.875	69.4691	46.875	69.8163	46.875	69.3957	46.875	69.9349	46.875	69.3303	46.875	70.0825	46.875	69.2786	46.875	70.2683	46.875	69.2482	46.875	70.4982	46.875	69.2478	46.875	70.7715	46.875	69.2863	46.875	71.0791	46.875	69.3719	46.875	71.4036	46.875	69.5104	46.875	71.7216	46.875	69.7042	46.875	72.0078	46.875	69.9513	46.875	72.2387	46.875	70.2448	46.875	72.3958	46.875	70.5732	46.875	72.4676	46.875	70.9218	46.875	72.4499	46.875	71.2731	46.875	72.345	46.875	71.6088	46.875	72.1611	46.875	71.9106
48.3398	70.8747	48.3398	70.7874	48.3398	70.9677	48.3398	70.7044	48.3398	71.0709	48.3398	70.6272	48.3398	71.1911	48.3398	70.5596	48.3398	71.337	48.3398	70.5073	48.3398	71.5167	48.3398	70.4774	48.3398	71.7353	48.3398	70.4778	48.3398	71.9922	48.3398	70.5164	48.3398	72.2791	48.3398	70.5999	48.3398	72.5801	48.3398	70.7332	48.3398	72.874	48.3398	70.9176	48.3398	73.1373	48.3398	71.151	48.3398	73.3481	48.3398	71.4269	48.3398	73.4891	48.3398	71.7352	48.3398	73.5494	48.3398	72.0625	48.3398	73.5252	48.3398	72.3933	48.3398	73.4192	48.3398	72.7109	48.3398	73.2395	48.3398	72.9985
51.2695	73.0441	51.2695	72.9605	51.2695	73.1362	51.2695	72.884	51.2695	73.2398	51.2695	72.8151	51.2695	73.3595	51.2695	72.7561	51.2695	73.5005	51.2695	72.7107	51.2695	73.6673	51.2695	72.6839	51.2695	73.8623	51.2695	72.6816	51.2695	74.0839	51.2695	72.7098	51.2695	74.3252	51.2695	72.7742	51.2695	74.574	51.2695	72.8794	51.2695	74.8138	51.2695	73.0276	51.2695	75.0261	51.2695	73.2181	51.2695	75.1929	51.2695	73.4469	51.2695	75.2998	51.2695	73.7066	51.2695	75.3373	51.2695	73.9865	51.2695	75.3022	51.2695	74.2736	51.2695	75.197	51.2695	74.5532	51.2695	75.0292	51.2695	74.81
52.7344	73.6983	52.7344	73.6172	52.7344	73.7916	52.7344	73.5468	52.7344	73.9001	52.7344	73.4875	52.7344	74.0271	52.7344	73.441	52.7344	74.1767	52.7344	73.4104	52.7344	74.3514	52.7344	73.4004	52.7344	74.552	52.7344	73.4157	52.7344	74.7757	52.7344	73.4618	52.7344	75.0157	52.7344	73.5431	52.7344	75.2606	52.7344	73.6631	52.7344	75.4955	52.7344	73.8227	52.7344	75.7036	52.7344	74.0206	52.7344	75.8688	52.7344	74.252	52.7344	75.9779	52.7344	74.5091	52.7344	76.0222	52.7344	74.7814	52.7344	75.9985	52.7344	75.0564	52.7344	75.9086	52.7344	75.3201	52.7344	75.7589	52.7344	75.5587
54.1992	74.7645	54.1992	74.671	54.1992	74.868	54.1992	74.5872	54.1992	74.9826	54.1992	74.5137	54.1992	75.1099	54.1992	74.452	54.1992	75.2515	54.1992	74.405	54.1992	75.4091	54.1992	74.3763	54.1992	75.5831	54.1992	74.3705	54.1992	75.772	54.1992	74.3924	54.1992	75.9714	54.1992	74.4465	54.1992	76.1725	54.1992	74.5363	54.1992	76.3633	54.1992	74.6638	54.1992	76.529	54.1992	74.8284	54.1992	76.6549	54.1992	75.0268	54.1992	76.7288	54.1992	75.2528	54.1992	76.7432	54.1992	75.4975	54.1992	76.6955	54.1992	75.75	54.1992	76.5887	54.1992	75.9982	54.1992	76.4299	54.1992	76.2291
55.6641	75.0543	55.6641	74.9597	55.6641	75.165	55.6641	74.8807	55.6641	75.2934	55.6641	74.8178	55.6641	75.4421	55.6641	74.7731	55.6641	75.6136	55.6641	74.7495	55.6641	75.8095	55.6641	74.7506	55.6641	76.0298	55.6641	74.7806	55.6641	76.2708	55.6641	74.8432	55.6641	76.5249	55.6641	74.9415	55.6641	76.7801	55.6641	75.077	55.6641	77.0207	55.6641	75.2496	55.6641	77.2299	55.6641	75.4569	55.6641	77.3916	55.6641	75.694	55.6641	77.493	55.6641	75.9538	55.6641	77.5266	55.6641	76.2273	55.6641	77.4902	55.6641	76.5037	55.6641	77.3873	55.6641	76.7709	55.6641	77.2255	55.6641	77.0158
58.5938	76.4918	58.5938	76.3935	58.5938	76.6042	58.5938	76.3102	58.5938	76.7299	58.5938	76.2434	58.5938	76.8687	58.5938	76.1946	58.5938	77.0201	58.5938	76.1658	58.5938	77.1838	58.5938	76.159	58.5938	77.3585	58.5938	76.1766	58.5938	77.5415	58.5938	76.2205	58.5938	77.7279	58.5938	76.2927	58.5938	77.9101	58.5938	76.3942	58.5938	78.0784	58.5938	76.5252	58.5938	78.2216	58.5938	76.6844	58.5938	78.3286	58.5938	76.8688	58.5938	78.3901	58.5938	77.0739	58.5938	78.3999	58.5938	77.2929	58.5938	78.356	58.5938	77.5173	58.5938	78.2606	58.5938	77.7372	58.5938	78.1196	58.5938	77.9416
60.0586	76.8838	60.0586	76.7845	60.0586	76.9965	60.0586	76.6998	60.0586	77.1219	60.0586	76.6314	60.0586	77.2595	60.0586	76.581	60.0586	77.4092	60.0586	76.5507	60.0586	77.5705	60.0586	76.5429	60.0586	77.7423	60.0586	76.5598	60.0586	77.9218	60.0586	76.6033	60.0586	78.1042	60.0586	76.6751	60.0586	78.2822	60.0586	76.7761	60.0586	78.4464	60.0586	76.9062	60.0586	78.5859	60.0586	77.0641	60.0586	78.6899	60.0586	77.2469	60.0586	78.7494	60.0586	77.4498	60.0586	78.7583	60.0586	77.6661	60.0586	78.7147	60.0586	77.8877	60.0586	78.6205	60.0586	78.1046	60.0586	78.4815	60.0586	78.3062
62.9883	77.6242	62.9883	77.5227	62.9883	77.7382	62.9883	77.4352	62.9883	77.8634	62.9883	77.3637	62.9883	77.9986	62.9883	77.31	62.9883	78.1428	62.9883	77.2761	62.9883	78.2948	62.9883	77.2638	62.9883	78.4527	62.9883	77.2748	62.9883	78.6135	62.9883	77.3108	62.9883	78.7729	62.9883	77.3726	62.9883	78.9246	62.9883	77.4611	62.9883	79.0609	62.9883	77.5758	62.9883	79.1728	62.9883	77.7156	62.9883	79.2517	62.9883	77.878	62.9883	79.2905	62.9883	78.0591	62.9883	79.2844	62.9883	78.2532	62.9883	79.2323	62.9883	78.4533	62.9883	79.1363	62.9883	78.6511	62.9883	79.002	62.9883	78.8372
64.4531	77.8926	64.4531	77.7899	64.4531	78.0079	64.4531	77.7016	64.4531	78.1343	64.4531	77.6292	64.4531	78.2706	64.4531	77.5745	64.4531	78.415	64.4531	77.5393	64.4531	78.5658	64.4531	77.5253	64.4531	78.7206	64.4531	77.534	64.4531	78.8761	64.4531	77.5669	64.4531	79.0278	64.4531	77.6248	64.4531	79.1697	64.4531	77.7083	64.4531	79.2947	64.4531	77.8171	64.4531	79.395	64.4531	77.9501	64.4531	79.4631	64.4531	78.105	64.4531	79.4925	64.4531	78.2781	64.4531	79.4793	64.4531	78.4644	64.4531	79.4227	64.4531	78.6572	64.4531	79.325	64.4531	78.8486	64.4531	79.1915	64.4531	79.0298
67.3828	78.3848	67.3828	78.2753	67.3828	78.5068	67.3828	78.1802	67.3828	78.6388	67.3828	78.1014	67.3828	78.7782	67.3828	78.0407	67.3828	78.9221	67.3828	77.9993	67.3828	79.0676	67.3828	77.9786	67.3828	79.2112	67.3828	77.9797	67.3828	79.3494	67.3828	78.0034	67.3828	79.4781	67.3828	78.0502	67.3828	79.5924	67.3828	78.1204	67.3828	79.687	67.3828	78.2137	67.3828	79.7564	67.3828	78.3291	67.3828	79.7952	67.3828	78.4648	67.3828	79.799	67.3828	78.6179	67.3828	79.7657	67.3828	78.7842	67.3828	79.6955	67.3828	78.9583	67.3828	79.5912	67.3828	79.1338	67.3828	79.458	67.3828	79.303
68.8477	78.5879	68.8477	78.478	68.8477	78.7084	68.8477	78.3813	68.8477	78.837	68.8477	78.3	68.8477	78.9709	68.8477	78.2361	68.8477	79.1076	68.8477	78.1913	68.8477	79.244	68.8477	78.167	68.8477	79.3773	68.8477	78.1644	68.8477	79.5042	68.8477	78.1843	68.8477	79.6212	68.8477	78.2272	68.8477	79.7242	68.8477	78.2931	68.8477	79.8085	68.8477	78.3817	68.8477	79.8693	68.8477	78.4918	68.8477	79.9018	68.8477	78.6216	68.8477	79.9022	68.8477	78.7682	68.8477	79.8682	68.8477	78.9275	68.8477	79.7999	68.8477	79.0942	68.8477	79.6997	68.8477	79.2621	68.8477	79.5723	68.8477	79.424
71.7773	78.9483	71.7773	78.84	71.7773	79.0673	71.7773	78.7451	71.7773	79.1941	71.7773	78.6659	71.7773	79.3257	71.7773	78.6044	71.7773	79.4586	71.7773	78.5623	71.7773	79.5897	71.7773	78.5406	71.7773	79.7154	71.7773	78.5404	71.7773	79.8325	71.7773	78.5618	71.7773	79.9376	71.7773	78.6051	71.7773	80.0273	71.7773	78.6699	71.7773	80.0981	71.7773	78.7552	71.7773	80.1465	71.7773	78.8598	71.7773	80.1691	71.7773	78.9816	71.7773	80.1633	71.7773	79.1177	71.7773	80.1275	71.7773	79.2644	71.7773	80.0619	71.7773	79.417	71.7773	79.9688	71.7773	79.5699	71.7773	79.8521	71.7773	79.7171
74.707	79.1877	74.707	79.082	74.707	79.3047	74.707	78.9906	74.707	79.4298	74.707	78.9157	74.707	79.5596	74.707	78.8591	74.707	79.6901	74.707	78.8222	74.707	79.8175	74.707	78.8057	74.707	79.9383	74.707	78.8099	74.707	80.0489	74.707	78.8346	74.707	80.1461	74.707	78.8794	74.707	80.2271	74.707	78.9434	74.707	80.2888	74.707	79.0252	74.707	80.3283	74.707	79.1233	74.707	80.3432	74.707	79.2356	74.707	80.3314	74.707	79.3598	74.707	80.2922	74.707	79.4926	74.707	80.2267	74.707	79.6304	74.707	80.1371	74.707	79.7689	74.707	80.0276	74.707	79.9031
77.6367	79.3382	77.6367	79.2354	77.6367	79.453	77.6367	79.1477	77.6367	79.5767	77.6367	79.0774	77.6367	79.7054	77.6367	79.0262	77.6367	79.8355	77.6367	78.9953	77.6367	79.963	77.6367	78.9851	77.6367	80.0842	77.6367	78.9955	77.6367	80.1955	77.6367	79.0258	77.6367	80.2935	77.6367	79.0751	77.6367	80.3748	77.6367	79.1421	77.6367	80.4362	77.6367	79.225	77.6367	80.4752	77.6367	79.3223	77.6367	80.4892	77.6367	79.4319	77.6367	80.4771	77.6367	79.5514	77.6367	80.4387	77.6367	79.6781	77.6367	80.3753	77.6367	79.809	77.6367	80.2894	77.6367	79.9401	77.6367	80.1852	77.6367	80.0671
79.1016	79.5039	79.1016	79.4033	79.1016	79.6175	79.1016	79.3183	79.1016	79.7408	79.1016	79.2512	79.1016	79.8703	79.1016	79.2034	79.1016	80.0018	79.1016	79.1758	79.1016	80.1313	79.1016	79.1686	79.1016	80.2544	79.1016	79.1815	79.1016	80.3671	79.1016	79.2135	79.1016	80.4651	79.1016	79.2636	79.1016	80.545	79.1016	79.3302	79.1016	80.6038	79.1016	79.4117	79.1016	80.6389	79.1016	79.5062	79.1016	80.6488	79.1016	79.6119	79.1016	80.6327	79.1016	79.7267	79.1016	80.5913	79.1016	79.8482	79.1016	80.5261	79.1016	79.9736	79.1016	80.4402	79.1016	80.0996	79.1016	80.3375	79.1016	80.2224
82.0312	79.8701	82.0312	79.7674	82.0312	79.9867	82.0312	79.6815	82.0312	80.1135	82.0312	79.6147	82.0312	80.2464	82.0312	79.5682	82.0312	80.3807	82.0312	79.5426	82.0312	80.5116	82.0312	79.5377	82.0312	80.6341	82.0312	79.5526	82.0312	80.7436	82.0312	79.5861	82.0312	80.8359	82.0312	79.6363	82.0312	80.9077	82.0312	79.7016	82.0312	80.9565	82.0312	79.78	82.0312	80.981	82.0312	79.8698	82.0312	80.9807	82.0312	79.9691	82.0312	80.9559	82.0312	80.0763	82.0312	80.9081	82.0312	80.1896	82.0312	80.8393	82.0312	80.3067	82.0312	80.7528	82.0312	80.4251	82.0312	80.6521	82.0312	80.5415
84.9609	80.0669	84.9609	79.9625	84.9609	80.1847	84.9609	79.8747	84.9609	80.3118	84.9609	79.8057	84.9609	80.4434	84.9609	79.7567	84.9609	80.5741	84.9609	79.728	84.9609	80.6984	84.9609	79.7191	84.9609	80.8108	84.9609	79.7291	84.9609	80.9066	84.9609	79.7563	84.9609	80.982	84.9609	79.7991	84.9609	81.0343	84.9609	79.8554	84.9609	81.0624	84.9609	79.9235	84.9609	81.0663	84.9609	80.0017	84.9609	81.0473	84.9609	80.0883	84.9609	81.0075	84.9609	80.1819	84.9609	80.9494	84.9609	80.281	84.9609	80.8758	84.9609	80.384	84.9609	80.7899	84.9609	80.4889	84.9609	80.6947	84.9609	80.5934
87.8906	80.3281	87.8906	80.2173	87.8906	80.4498	87.8906	80.1211	87.8906	80.578	87.8906	80.0423	87.8906	80.7074	87.8906	79.9824	87.8906	80.8324	87.8906	79.9423	87.8906	80.9475	87.8906	79.9219	87.8906	81.0474	87.8906	79.9203	87.8906	81.1277	87.8906	79.9363	87.8906	81.1853	87.8906	79.9681	87.8906	81.2182	87.8906	80.0138	87.8906	81.2262	87.8906	80.0715	87.8906	81.2103	87.8906	80.1393	87.8906	81.1727	87.8906	80.2156	87.8906	81.1166	87.8906	80.299	87.8906	81.0454	87.8906	80.3881	87.8906	80.9627	87.8906	80.4817	87.8906	80.8717	87.8906	80.5786	87.8906	80.7757	87.8906	80.6772
90.8203	80.5629	90.8203	80.4489	90.8203	80.6877	90.8203	80.3501	90.8203	80.8186	90.8203	80.2693	90.8203	80.9502	90.8203	80.2086	90.8203	81.0769	90.8203	80.1691	90.8203	81.1932	90.8203	80.1505	90.8203	81.2943	90.8203	80.1521	90.8203	81.376	90.8203	80.1723	90.8203	81.4352	90.8203	80.2091	90.8203	81.4702	90.8203	80.2604	90.8203	81.4807	90.8203	80.3238	90.8203	81.4679	90.8203	80.3972	90.8203	81.4338	90.8203	80.4788	90.8203	81.3814	90.8203	80.5667	90.8203	81.3139	90.8203	80.6596	90.8203	81.2345	90.8203	80.7561	90.8203	81.1462	90.8203	80.8548	90.8203	81.0519	90.8203	80.954
95.2148	80.9027	95.2148	80.7921	95.2148	81.0239	95.2148	80.6959	95.2148	81.1507	95.2148	80.6172	95.2148	81.2781	95.2148	80.5579	95.2148	81.4003	95.2148	80.5188	95.2148	81.5118	95.2148	80.4997	95.2148	81.6074	95.2148	80.4995	95.2148	81.6825	95.2148	80.5164	95.2148	81.7335	95.2148	80.5482	95.2148	81.7586	95.2148	80.5925	95.2148	81.7575	95.2148	80.6469	95.2148	81.7319	95.2148	80.7093	95.2148	81.6849	95.2148	80.7781	95.2148	81.6206	95.2148	80.8518	95.2148	81.5435	95.2148	80.9299	95.2148	81.458	95.2148	81.0118	95.2148	81.368	95.2148	81.0973	95.2148	81.2765	95.2148	81.1858
98.1445	81.0378	98.1445	80.9255	98.1445	81.1608	98.1445	80.8279	98.1445	81.2893	98.1445	80.7481	98.1445	81.4181	98.1445	80.6881	98.1445	81.5414	98.1445	80.649	98.1445	81.6535	98.1445	80.6306	98.1445	81.7492	98.1445	80.6317	98.1445	81.824	98.1445	80.6506	98.1445	81.8745	98.1445	80.6851	98.1445	81.8991	98.1445	80.7325	98.1445	81.8979	98.1445	80.7902	98.1445	81.8728	98.1445	80.856	98.1445	81.8269	98.1445	80.9279	98.1445	81.7645	98.1445	81.0044	98.1445	81.6898	98.1445	81.0845	98.1445	81.6071	98.1445	81.1676	98.1445	81.5197	98.1445	81.2534	98.1445	81.4304	98.1445	81.3412
101.074	81.2341	101.074	81.1269	101.074	81.3506	101.074	81.0329	101.074	81.4717	101.074	80.9551	101.074	81.592	101.074	80.8956	101.074	81.706	101.074	80.8551	101.074	81.8081	101.074	80.8336	101.074	81.8934	101.074	80.8303	101.074	81.9577	101.074	80.8434	101.074	81.9983	101.074	80.8712	101.074	82.0139	101.074	80.9114	101.074	82.0054	101.074	80.9619	101.074	81.975	101.074	81.0206	101.074	81.9265	101.074	81.0858	101.074	81.8643	101.074	81.1561	101.074	81.7924	101.074	81.2303	101.074	81.7146	101.074	81.3076	101.074	81.6335	101.074	81.3873	101.074	81.5511	101.074	81.4687
105.469	81.5865	105.469	81.4817	105.469	81.6961	105.469	81.3862	105.469	81.8059	105.469	81.3041	105.469	81.9112	105.469	81.2382	105.469	82.0075	105.469	81.1908	105.469	82.0905	105.469	81.1624	105.469	82.1563	105.469	81.1529	105.469	82.2017	105.469	81.1607	105.469	82.2244	105.469	81.1837	105.469	82.2235	105.469	81.219	105.469	82.1999	105.469	81.2636	105.469	82.1565	105.469	81.3145	105.469	82.0973	105.469	81.3694	105.469	82.0277	105.469	81.4263	105.469	81.9527	105.469	81.4844	105.469	81.8767	105.469	81.5433	105.469	81.8028	105.469	81.6036	105.469	81.7326	105.469	81.6664
108.398	81.7145	108.398	81.6257	108.398	81.8103	108.398	81.5475	108.398	81.9092	108.398	81.4824	108.398	82.0066	108.398	81.4323	108.398	82.0978	108.398	81.3981	108.398	82.1776	108.398	81.3797	108.398	82.2412	108.398	81.3761	108.398	82.2843	108.398	81.3856	108.398	82.3042	108.398	81.406	108.398	82.2998	108.398	81.4351	108.398	82.2724	108.398	81.4703	108.398	82.2256	108.398	81.5097	108.398	82.1649	108.398	81.5515	108.398	82.0962	108.398	81.5947	108.398	82.0253	108.398	81.6387	108.398	81.9565	108.398	81.6838	108.398	81.8923	108.398	81.7305	108.398	81.8336	108.398	81.78
112.793	82.1822	112.793	82.0846	112.793	82.2868	112.793	81.998	112.793	82.3938	112.793	81.9253	112.793	82.4979	112.793	81.8686	112.793	82.5932	112.793	81.8288	112.793	82.6741	112.793	81.8058	112.793	82.735	112.793	81.7985	112.793	82.7715	112.793	81.8049	112.793	82.7807	112.793	81.8225	112.793	82.7617	112.793	81.8483	112.793	82.7166	112.793	81.8796	112.793	82.6497	112.793	81.9137	112.793	82.5679	112.793	81.9487	112.793	82.479	112.793	81.9833	112.793	82.3907	112.793	82.0174	112.793	82.3092	112.793	82.0518	112.793	82.2382	112.793	82.0884	112.793	82.1787	112.793	82.1297
117.188	82.3912	117.188	82.2941	117.188	82.4939	117.188	82.2067	117.188	82.5975	117.188	82.1323	117.188	82.6969	117.188	82.0733	117.188	82.7867	117.188	82.0306	117.188	82.8615	117.188	82.0044	117.188	82.9166	117.188	81.9935	117.188	82.9479	117.188	81.9961	117.188	82.9531	117.188	82.0095	117.188	82.9315	117.188	82.0309	117.188	82.8847	117.188	82.0571	117.188	82.8165	117.188	82.0857	117.188	82.7329	117.188	82.1147	117.188	82.6411	117.188	82.1431	117.188	82.5486	117.188	82.1711	117.188	82.462	117.188	82.2002	117.188	82.3862	117.188	82.233	117.188	82.3232	117.188	82.2729
120.117	82.5974	120.117	82.5112	120.117	82.6882	120.117	82.4339	120.117	82.779	120.117	82.3688	120.117	82.8653	120.117	82.3187	120.117	82.9424	120.117	82.2847	120.117	83.0062	120.117	82.267	120.117	83.0533	120.117	82.2647	120.117	83.0806	120.117	82.2757	120.117	83.0865	120.117	82.2972	120.117	83.0707	120.117	82.3261	120.117	83.0347	120.117	82.3592	120.117	82.9818	120.117	82.3935	120.117	82.9172	120.117	82.4267	120.117	82.8466	120.117	82.4573	120.117	82.776	120.117	82.4853	120.117	82.7106	120.117	82.5116	120.117	82.6538	120.117	82.5386	120.117	82.607	120.117	82.5693
124.512	82.8527	124.512	82.7495	124.512	82.9622	124.512	82.6579	124.512	83.0725	124.512	82.5822	124.512	83.1779	124.512	82.5258	124.512	83.2726	124.512	82.4905	124.512	83.3514	124.512	82.4767	124.512	83.4098	124.512	82.4833	124.512	83.4441	124.512	82.5079	124.512	83.4526	124.512	82.547	124.512	83.4356	124.512	82.5964	124.512	83.396	124.512	82.6517	124.512	83.339	124.512	82.7086	124.512	83.2718	124.512	82.7635	124.512	83.2019	124.512	82.8134	124.512	83.1359	124.512	82.8572	124.512	83.0783	124.512	82.8946	124.512	83.0305	124.512	82.9274	124.512	82.9916	124.512	82.9585
128.906	83.2248	128.906	83.1272	128.906	83.3297	128.906	83.0414	128.906	83.4364	128.906	82.9707	128.906	83.5388	128.906	82.9168	128.906	83.6307	128.906	82.88	128.906	83.7057	128.906	82.8591	128.906	83.7584	128.906	82.852	128.906	83.7841	128.906	82.8561	128.906	83.78	128.906	82.8684	128.906	83.7456	128.906	82.8859	128.906	83.6836	128.906	82.9063	128.906	83.5997	128.906	82.9274	128.906	83.5021	128.906	82.948	128.906	83.4003	128.906	82.9674	128.906	83.3033	128.906	82.986	128.906	83.2182	128.906	83.0052	128.906	83.1486	128.906	83.0274	128.906	83.0953	128.906	83.0561
133.301	83.5498	133.301	83.4553	133.301	83.65	133.301	83.3708	133.301	83.7508	133.301	83.3	133.301	83.847	133.301	83.2451	133.301	83.933	133.301	83.2074	133.301	84.0033	133.301	83.1864	133.301	84.0526	133.301	83.1807	133.301	84.0764	133.301	83.1875	133.301	84.0721	133.301	83.2036	133.301	84.039	133.301	83.2255	133.301	83.9798	133.301	83.25	133.301	83.9	133.301	83.2742	133.301	83.8074	133.301	83.2962	133.301	83.711	133.301	83.3152	133.301	83.6195	133.301	83.3317	133.301	83.5394	133.301	83.3476	133.301	83.4745	133.301	83.3659	133.301	83.4255	133.301	83.3905
139.16	83.7515	139.16	83.6514	139.16	83.8555	139.16	83.56	139.16	83.9585	139.16	83.4815	139.16	84.0556	139.16	83.4195	139.16	84.1418	139.16	83.3764	139.16	84.2122	139.16	83.3529	139.16	84.262	139.16	83.3484	139.16	84.2872	139.16	83.3604	139.16	84.2851	139.16	83.3855	139.16	84.2552	139.16	83.4192	139.16	84.1999	139.16	83.457	139.16	84.1243	139.16	83.4947	139.16	84.036	139.16	83.5289	139.16	83.9437	139.16	83.5578	139.16	83.8562	139.16	83.5811	139.16	83.78	139.16	83.6004	139.16	83.719	139.16	83.6191	139.16	83.6738	139.16	83.6419
143.555	84.0258	143.555	83.9202	143.555	84.1351	143.555	83.8231	143.555	84.2429	143.555	83.7391	143.555	84.3438	143.555	83.6719	143.555	84.4324	143.555	83.6241	143.555	84.5035	143.555	83.5969	143.555	84.5524	143.555	83.5898	143.555	84.5754	143.555	83.6007	143.555	84.5705	143.555	83.6261	143.555	84.5381	143.555	83.6617	143.555	84.481	143.555	83.7027	143.555	84.4048	143.555	83.7445	143.555	84.3169	143.555	83.7834	143.555	84.2257	143.555	83.8172	143.555	84.139	143.555	83.8454	143.555	84.0631	143.555	83.8694	143.555	84.0012	143.555	83.8924	143.555	83.9539	143.555	83.919
147.949	84.2606	147.949	84.1517	147.949	84.3715	147.949	84.0504	147.949	84.4788	147.949	83.9614	147.949	84.5766	147.949	83.8887	147.949	84.6593	147.949	83.8351	147.949	84.7219	147.949	83.8018	147.949	84.7604	147.949	83.7887	147.949	84.7723	147.949	83.794	147.949	84.7566	147.949	83.8147	147.949	84.7147	147.949	83.8468	147.949	84.6506	147.949	83.8858	147.949	84.5704	147.949	83.9272	147.949	84.482	147.949	83.9672	147.949	84.3935	147.949	84.0033	147.949	84.3122	147.949	84.0343	147.949	84.2427	147.949	84.061	147.949	84.1871	147.949	84.0857	147.949	84.1446	147.949	84.1121
153.809	84.4982	153.809	84.3974	153.809	84.5972	153.809	84.2993	153.809	84.6896	153.809	84.2085	153.809	84.7707	153.809	84.1287	153.809	84.8359	153.809	84.0633	153.809	84.8813	153.809	84.0145	153.809	84.9034	153.809	83.9838	153.809	84.9	153.809	83.9713	153.809	84.8705	153.809	83.9757	153.809	84.8166	153.809	83.9947	153.809	84.7429	153.809	84.0248	153.809	84.6565	153.809	84.0618	153.809	84.5663	153.809	84.1015	153.809	84.4811	153.809	84.1401	153.809	84.4079	153.809	84.1748	153.809	84.35	153.809	84.2043	153.809	84.3072	153.809	84.2291	153.809	84.2761	153.809	84.2517
159.668	84.8364	159.668	84.7561	159.668	84.9134	159.668	84.6765	159.668	84.9836	159.668	84.6011	159.668	85.0438	159.668	84.5329	159.668	85.0916	159.668	84.4746	159.668	85.1248	159.668	84.4275	159.668	85.1415	159.668	84.3923	159.668	85.1399	159.668	84.3688	159.668	85.1187	159.668	84.3561	159.668	85.0774	159.668	84.3526	159.668	85.0173	159.668	84.3566	159.668	84.9421	159.668	84.3661	159.668	84.8573	159.668	84.3793	159.668	84.7703	159.668	84.3948	159.668	84.6881	159.668	84.4118	159.668	84.6162	159.668	84.4303	159.668	84.5575	159.668	84.4516	159.668	84.512	159.668	84.4778
165.527	85.0325	165.527	84.9332	165.527	85.1261	165.527	84.8322	165.527	85.2105	165.527	84.7342	165.527	85.2832	165.527	84.6446	165.527	85.3411	165.527	84.5681	165.527	85.3807	165.527	84.5086	165.527	85.3981	165.527	84.468	165.527	85.3894	165.527	84.4462	165.527	85.3522	165.527	84.4412	165.527	85.2867	165.527	84.4491	165.527	85.1963	165.527	84.4654	165.527	85.0885	165.527	84.4852	165.527	84.9732	165.527	84.5046	165.527	84.8614	165.527	84.5207	165.527	84.7624	165.527	84.5327	165.527	84.6826	165.527	84.5415	165.527	84.6243	165.527	84.5501	165.527	84.5859	165.527	84.563
171.387	85.2602	171.387	85.1519	171.387	85.3662	171.387	85.0478	171.387	85.4639	171.387	84.9542	171.387	85.5476	171.387	84.8767	171.387	85.6126	171.387	84.8196	171.387	85.6547	171.387	84.7853	171.387	85.6711	171.387	84.7734	171.387	85.6601	171.387	84.7812	171.387	85.6215	171.387	84.8037	171.387	85.5571	171.387	84.8345	171.387	85.4706	171.387	84.8669	171.387	85.3679	171.387	84.8945	171.387	85.2571	171.387	84.9127	171.387	85.1478	171.387	84.919	171.387	85.0495	171.387	84.914	171.387	84.9706	171.387	84.9012	171.387	84.9161	171.387	84.887	171.387	84.8869	171.387	84.8794
177.246	85.1634	177.246	85.0605	177.246	85.2586	177.246	84.9561	177.246	85.3415	177.246	84.8568	177.246	85.4092	177.246	84.7693	177.246	85.4606	177.246	84.6986	177.246	85.4957	177.246	84.6481	177.246	85.5148	177.246	84.6187	177.246	85.518	177.246	84.6096	177.246	85.5047	177.246	84.6184	177.246	85.4743	177.246	84.6419	177.246	85.427	177.246	84.6762	177.246	85.365	177.246	84.7176	177.246	85.2925	177.246	84.7618	177.246	85.2155	177.246	84.8053	177.246	85.141	177.246	84.8454	177.246	85.0749	177.246	84.8807	177.246	85.0203	177.246	84.9122	177.246	84.9774	177.246	84.9429
183.105	85.529	183.105	85.3902	183.105	85.6658	183.105	85.2591	183.105	85.7926	183.105	85.1457	183.105	85.9028	183.105	85.0597	183.105	85.9916	183.105	85.0085	183.105	86.0548	183.105	84.996	183.105	86.0899	183.105	85.0213	183.105	86.0954	183.105	85.0786	183.105	86.0717	183.105	85.1585	183.105	86.0213	183.105	85.2488	183.105	85.949	183.105	85.3373	183.105	85.8618	183.105	85.4134	183.105	85.7681	183.105	85.4698	183.105	85.6772	183.105	85.5033	183.105	85.5981	183.105	85.5151	183.105	85.5376	183.105	85.5105	183.105	85.4996	183.105	85.4974	183.105	85.4836	183.105	85.4854
188.965	85.667	188.965	85.572	188.965	85.7491	188.965	85.4684	188.965	85.8153	188.965	85.361	188.965	85.8634	188.965	85.2549	188.965	85.8923	188.965	85.1551	188.965	85.9014	188.965	85.0669	188.965	85.8909	188.965	84.9952	188.965	85.861	188.965	84.9442	188.965	85.8131	188.965	84.9165	188.965	85.7494	188.965	84.9122	188.965	85.6737	188.965	84.9289	188.965	85.5913	188.965	84.9614	188.965	85.5077	188.965	85.003	188.965	85.4284	188.965	85.0471	188.965	85.3578	188.965	85.0884	188.965	85.2987	188.965	85.1244	188.965	85.2514	188.965	85.1553	188.965	85.2143	188.965	85.1838
196.289	85.7239	196.289	85.6377	196.289	85.8053	196.289	85.5528	196.289	85.877	196.289	85.4749	196.289	85.9349	196.289	85.4095	196.289	85.9763	196.289	85.3601	196.289	85.9994	196.289	85.3283	196.289	86.0033	196.289	85.313	196.289	85.9881	196.289	85.3117	196.289	85.9545	196.289	85.3202	196.289	85.9038	196.289	85.3338	196.289	85.8383	196.289	85.3482	196.289	85.7613	196.289	85.3597	196.289	85.6775	196.289	85.3658	196.289	85.5927	196.289	85.3656	196.289	85.5136	196.289	85.3602	196.289	85.4464	196.289	85.3525	196.289	85.3959	196.289	85.3468	196.289	85.3638	196.289	85.3488
203.613	86.1099	203.613	85.9724	203.613	86.2345	203.613	85.8293	203.613	86.3377	203.613	85.6873	203.613	86.4103	203.613	85.5524	203.613	86.442	203.613	85.4301	203.613	86.4236	203.613	85.3247	203.613	86.3487	203.613	85.2396	203.613	86.2165	203.613	85.1772	203.613	86.0341	203.613	85.1393	203.613	85.8186	203.613	85.1259	203.613	85.5958	203.613	85.1357	203.613	85.3965	203.613	85.1647	203.613	85.248	203.613	85.2061	203.613	85.1651	203.613	85.2515	203.613	85.1451	203.613	85.2914	203.613	85.171	203.613	85.3175	203.613	85.2196	203.613	85.3236	203.613	85.2698	203.613	85.307
210.938	85.6715	210.938	85.5767	210.938	85.7493	210.938	85.4734	210.938	85.8052	210.938	85.3722	210.938	85.8395	210.938	85.2841	210.938	85.8579	210.938	85.2181	210.938	85.8695	210.938	85.18	210.938	85.8841	210.938	85.1711	210.938	85.907	210.938	85.188	210.938	85.9365	210.938	85.224	210.938	85.963	210.938	85.2701	210.938	85.9728	210.938	85.3174	210.938	85.9535	210.938	85.3584	210.938	85.8994	210.938	85.3883	210.938	85.8147	210.938	85.4053	210.938	85.7126	210.938	85.4114	210.938	85.6105	210.938	85.4117	210.938	85.5244	210.938	85.4142	210.938	85.4633	210.938	85.4285
218.262	85.5645	218.262	85.4534	218.262	85.6571	218.262	85.332	218.262	85.7274	218.262	85.2109	218.262	85.775	218.262	85.1028	218.262	85.803	218.262	85.0196	218.262	85.8157	218.262	84.9714	218.262	85.8173	218.262	84.9645	218.262	85.8119	218.262	85.0004	218.262	85.8034	218.262	85.0752	218.262	85.797	218.262	85.1805	218.262	85.7983	218.262	85.3046	218.262	85.8115	218.262	85.4354	218.262	85.8372	218.262	85.5616	218.262	85.8709	218.262	85.6747	218.262	85.9054	218.262	85.7695	218.262	85.9331	218.262	85.8437	218.262	85.9485	218.262	85.8975	218.262	85.9487	218.262	85.9321
225.586	85.6701	225.586	85.5543	225.586	85.7614	225.586	85.4207	225.586	85.8252	225.586	85.2791	225.586	85.862	225.586	85.1409	225.586	85.8744	225.586	85.017	225.586	85.8656	225.586	84.9169	225.586	85.8386	225.586	84.8475	225.586	85.7959	225.586	84.8134	225.586	85.7407	225.586	84.8164	225.586	85.679	225.586	84.8563	225.586	85.6199	225.586	84.9293	225.586	85.5737	225.586	85.0284	225.586	85.5485	225.586	85.1433	225.586	85.5457	225.586	85.2618	225.586	85.5597	225.586	85.3721	225.586	85.58	225.586	85.4647	225.586	85.5954	225.586	85.5339	225.586	85.5967	225.586	85.5775
232.91	86.0172	232.91	85.9131	232.91	86.0864	232.91	85.7838	232.91	86.1158	232.91	85.6425	232.91	86.1052	232.91	85.5049	232.91	86.059	232.91	85.3867	232.91	85.9861	232.91	85.3004	232.91	85.8989	232.91	85.2525	232.91	85.8112	232.91	85.2425	232.91	85.7349	232.91	85.2632	232.91	85.6774	232.91	85.3035	232.91	85.6411	232.91	85.3518	232.91	85.6244	232.91	85.399	232.91	85.6228	232.91	85.4404	232.91	85.6306	232.91	85.4757	232.91	85.6406	232.91	85.5073	232.91	85.646	232.91	85.5383	232.91	85.6416	232.91	85.57	232.91	85.6257	232.91	85.6004
241.699	86.4628	241.699	86.307	241.699	86.5775	241.699	86.119	241.699	86.6441	241.699	85.91	241.699	86.6584	241.699	85.6924	241.699	86.6197	241.699	85.4802	241.699	86.5305	241.699	85.2876	241.699	86.3973	241.699	85.1285	241.699	86.2292	241.699	85.0141	241.699	86.0392	241.699	84.9509	241.699	85.8446	241.699	84.9393	241.699	85.6668	241.699	84.9726	241.699	85.5273	241.699	85.0389	241.699	85.44	241.699	85.1233	241.699	85.4044	241.699	85.2114	241.699	85.4063	241.699	85.2922	241.699	85.4251	241.699	85.3585	241.699	85.443	241.699	85.4071	241.699	85.4486	241.699	85.4371
250.488	86.5807	250.488	86.4167	250.488	86.7031	250.488	86.2194	250.488	86.7774	250.488	85.9989	250.488	86.7995	250.488	85.7655	250.488	86.768	250.488	85.5292	250.488	86.6837	250.488	85.299	250.488	86.5494	250.488	85.0834	250.488	86.3696	250.488	84.8902	250.488	86.1517	250.488	84.7268	250.488	85.9082	250.488	84.6003	250.488	85.6574	250.488	84.516	250.488	85.4217	250.488	84.4763	250.488	85.2227	250.488	84.479	250.488	85.0739	250.488	84.5171	250.488	84.9758	250.488	84.5798	250.488	84.9163	250.488	84.654	250.488	84.8767	250.488	84.7273	250.488	84.8387	250.488	84.7902
259.277	86.3999	259.277	86.2252	259.277	86.5335	259.277	86.0194	259.277	86.6225	259.277	85.7992	259.277	86.6692	259.277	85.5855	259.277	86.6789	259.277	85.4002	259.277	86.6565	259.277	85.2613	259.277	86.6037	259.277	85.1793	259.277	86.5182	259.277	85.1543	259.277	86.3956	259.277	85.1765	259.277	86.2342	259.277	85.2294	259.277	86.0412	259.277	85.2947	259.277	85.8353	259.277	85.3567	259.277	85.6447	259.277	85.4052	259.277	85.4971	259.277	85.4364	259.277	85.4078	259.277	85.4511	259.277	85.3736	259.277	85.4523	259.277	85.3776	259.277	85.4424	259.277	85.3994	259.277	85.4237
268.066	86.5494	268.066	86.4017	268.066	86.6604	268.066	86.2245	268.066	86.7283	268.066	86.0241	268.066	86.7502	268.066	85.8056	268.066	86.7289	268.066	85.5751	268.066	86.6736	268.066	85.3426	268.066	86.5973	268.066	85.1242	268.066	86.5117	268.066	84.942	268.066	86.4226	268.066	84.8187	268.066	86.3275	268.066	84.769	268.066	86.2194	268.066	84.7915	268.066	86.0928	268.066	84.868	268.066	85.9479	268.066	84.9696	268.066	85.7926	268.066	85.0681	268.066	85.6393	268.066	85.1451	268.066	85.502	268.066	85.1962	268.066	85.3916	268.066	85.2301	268.066	85.3132	268.066	85.2633
276.855	86.2949	276.855	86.1801	276.855	86.3733	276.855	86.0423	276.855	86.4074	276.855	85.8966	276.855	86.3964	276.855	85.7553	276.855	86.347	276.855	85.6248	276.855	86.271	276.855	85.5046	276.855	86.1822	276.855	85.3907	276.855	86.0945	276.855	85.2815	276.855	86.0204	276.855	85.1832	276.855	85.9701	276.855	85.1107	276.855	85.949	276.855	85.0825	276.855	85.9546	276.855	85.1103	276.855	85.975	276.855	85.1914	276.855	85.9933	276.855	85.3088	276.855	85.9943	276.855	85.4399	276.855	85.9706	276.855	85.566	276.855	85.9227	276.855	85.6777	276.855	85.8556	276.855	85.7737
287.109	86.3727	287.109	86.267	287.109	86.434	287.109	86.1296	287.109	86.4467	287.109	85.9791	287.109	86.4146	287.109	85.8354	287.109	86.3466	287.109	85.7128	287.109	86.2521	287.109	85.6157	287.109	86.1394	287.109	85.5386	287.109	86.0153	287.109	85.4699	287.109	85.8879	287.109	85.4005	287.109	85.769	287.109	85.3302	287.109	85.6739	287.109	85.2695	287.109	85.6169	287.109	85.2356	287.109	85.6035	287.109	85.2437	287.109	85.6262	287.109	85.2977	287.109	85.6671	287.109	85.3871	287.109	85.7051	287.109	85.4919	287.109	85.7235	287.109	85.5907	287.109	85.7121	287.109	85.6671
297.363	86.466	297.363	86.3172	297.363	86.5478	297.363	86.1095	297.363	86.5607	297.363	85.8577	297.363	86.5095	297.363	85.5845	297.363	86.4055	297.363	85.3201	297.363	86.2651	297.363	85.0977	297.363	86.1047	297.363	84.9449	297.363	85.9355	297.363	84.8734	297.363	85.7636	297.363	84.8744	297.363	85.5993	297.363	84.9239	297.363	85.4659	297.363	84.9946	297.363	85.3979	297.363	85.0675	297.363	85.418	297.363	85.1379	297.363	85.514	297.363	85.2128	297.363	85.6386	297.363	85.3028	297.363	85.7369	297.363	85.4124	297.363	85.7733	297.363	85.535	297.363	85.7404	297.363	85.6527
307.617	86.4779	307.617	86.354	307.617	86.5435	307.617	86.187	307.617	86.5404	307.617	85.9937	307.617	86.4672	307.617	85.7884	307.617	86.3332	307.617	85.5819	307.617	86.1578	307.617	85.3816	307.617	85.966	307.617	85.1935	307.617	85.781	307.617	85.0246	307.617	85.6161	307.617	84.8841	307.617	85.4706	307.617	84.7813	307.617	85.3341	307.617	84.7223	307.617	85.2005	307.617	84.7064	307.617	85.0797	307.617	84.7268	307.617	84.9957	307.617	84.7734	307.617	84.9671	307.617	84.8367	307.617	84.9866	307.617	84.9075	307.617	85.0226	307.617	84.9747	307.617	85.0407	307.617	85.0237
319.336	86.549	319.336	86.3494	319.336	86.6724	319.336	86.0903	319.336	86.7113	319.336	85.7966	319.336	86.6646	319.336	85.4979	319.336	86.5365	319.336	85.2232	319.336	86.335	319.336	84.9941	319.336	86.0719	319.336	84.8213	319.336	85.7645	319.336	84.7053	319.336	85.44	319.336	84.6411	319.336	85.1374	319.336	84.6221	319.336	84.9034	319.336	84.6416	319.336	84.7747	319.336	84.6912	319.336	84.7564	319.336	84.7598	319.336	84.8172	319.336	84.8352	319.336	84.9089	319.336	84.9071	319.336	84.9915	319.336	84.9693	319.336	85.044	319.336	85.0185	319.336	85.0623	319.336	85.0514
329.59	85.9292	329.59	85.7589	329.59	86.0404	329.59	85.5466	329.59	86.083	329.59	85.3143	329.59	86.0561	329.59	85.0842	329.59	85.9662	329.59	84.874	329.59	85.8259	329.59	84.6944	329.59	85.6507	329.59	84.5488	329.59	85.4562	329.59	84.4363	329.59	85.2547	329.59	84.355	329.59	85.056	329.59	84.304	329.59	84.8713	329.59	84.2842	329.59	84.7169	329.59	84.2952	329.59	84.6105	329.59	84.3329	329.59	84.5603	329.59	84.3886	329.59	84.5568	329.59	84.4512	329.59	84.5774	329.59	84.5103	329.59	84.5983	329.59	84.5585	329.59	84.6046	329.59	84.5911
341.309	86.3068	341.309	86.1185	341.309	86.4111	341.309	85.8581	341.309	86.4295	341.309	85.5467	341.309	86.3717	341.309	85.212	341.309	86.2562	341.309	84.8861	341.309	86.1057	341.309	84.6014	341.309	85.9389	341.309	84.3842	341.309	85.7634	341.309	84.2487	341.309	85.5772	341.309	84.1943	341.309	85.3791	341.309	84.2077	341.309	85.1825	341.309	84.2697	341.309	85.0198	341.309	84.3613	341.309	84.9261	341.309	84.4677	341.309	84.9126	341.309	84.5796	341.309	84.9555	341.309	84.6916	341.309	85.0118	341.309	84.8001	341.309	85.0437	341.309	84.8998	341.309	85.0334	341.309	84.9818
353.027	86.1259	353.027	85.9407	353.027	86.2294	353.027	85.6962	353.027	86.2408	353.027	85.4208	353.027	86.1656	353.027	85.1413	353.027	86.0256	353.027	84.8777	353.027	85.8531	353.027	84.642	353.027	85.6792	353.027	84.4403	353.027	85.5212	353.027	84.2777	353.027	85.375	353.027	84.1596	353.027	85.2226	353.027	84.09	353.027	85.0496	353.027	84.068	353.027	84.862	353.027	84.086	353.027	84.6867	353.027	84.1316	353.027	84.5548	353.027	84.1915	353.027	84.4803	353.027	84.2557	353.027	84.4525	353.027	84.3172	353.027	84.4459	353.027	84.3713	353.027	84.4368	353.027	84.4125
366.211	86.1272	366.211	85.9769	366.211	86.1685	366.211	85.7312	366.211	86.0975	366.211	85.4137	366.211	85.9232	366.211	85.0563	366.211	85.6704	366.211	84.6968	366.211	85.3812	366.211	84.3726	366.211	85.1099	366.211	84.1137	366.211	84.9064	366.211	83.9384	366.211	84.7924	366.211	83.8541	366.211	84.7511	366.211	83.861	366.211	84.7447	366.211	83.9521	366.211	84.7461	366.211	84.1102	366.211	84.7554	366.211	84.3066	366.211	84.7868	366.211	84.5072	366.211	84.8443	366.211	84.6832	366.211	84.9112	366.211	84.8187	366.211	84.9627	366.211	84.9114	366.211	84.9821	366.211	84.9651
379.395	86.3426	379.395	86.1287	379.395	86.4586	379.395	85.8327	379.395	86.4709	379.395	85.4783	379.395	86.3828	379.395	85.0937	379.395	86.2028	379.395	84.7085	379.395	85.9412	379.395	84.3511	379.395	85.6101	379.395	84.0477	379.395	85.2302	379.395	83.8193	379.395	84.8385	379.395	83.6785	379.395	84.4882	379.395	83.6274	379.395	84.2364	379.395	83.6574	379.395	84.1226	379.395	83.752	379.395	84.1541	379.395	83.8918	379.395	84.3018	379.395	84.06	379.395	84.5073	379.395	84.2441	379.395	84.6995	379.395	84.4339	379.395	84.8192	379.395	84.6144	379.395	84.8377	379.395	84.7601
392.578	86.234	392.578	85.9953	392.578	86.3683	392.578	85.6714	392.578	86.3897	392.578	85.2935	392.578	86.2967	392.578	84.9024	392.578	86.0939	392.578	84.5399	392.578	85.7953	392.578	84.2399	392.578	85.4275	392.578	84.0211	392.578	85.0286	392.578	83.886	392.578	84.6409	392.578	83.8247	392.578	84.3018	392.578	83.8208	392.578	84.0371	392.578	83.8579	392.578	83.8596	392.578	83.9224	392.578	83.7707	392.578	84.0033	392.578	83.7628	392.578	84.0893	392.578	83.8221	392.578	84.1671	392.578	83.9267	392.578	84.2226	392.578	84.0471	392.578	84.2432	392.578	84.1522	392.578	84.2204
405.762	86.2444	405.762	86.0571	405.762	86.3057	405.762	85.7582	405.762	86.2347	405.762	85.3689	405.762	86.0384	405.762	84.9184	405.762	85.7438	405.762	84.4451	405.762	85.4001	405.762	83.9949	405.762	85.0668	405.762	83.6128	405.762	84.7881	405.762	83.3336	405.762	84.5713	405.762	83.1761	405.762	84.394	405.762	83.1446	405.762	84.2388	405.762	83.2304	405.762	84.1188	405.762	83.41	405.762	84.0658	405.762	83.6458	405.762	84.0936	405.762	83.8934	405.762	84.1802	405.762	84.1135	405.762	84.285	405.762	84.2809	405.762	84.3734	405.762	84.3866	405.762	84.4259	405.762	84.4327
420.41	86.258	420.41	86.0752	420.41	86.2941	420.41	85.7725	420.41	86.1735	420.41	85.3824	420.41	85.9166	420.41	84.9354	420.41	85.5778	420.41	84.4631	420.41	85.2347	420.41	84.0082	420.41	84.955	420.41	83.6303	420.41	84.7579	420.41	83.3928	420.41	84.6047	420.41	83.3301	420.41	84.4357	420.41	83.4217	420.41	84.2291	420.41	83.6035	420.41	84.0371	420.41	83.8058	420.41	83.959	420.41	83.9846	420.41	84.0528	420.41	84.1315	420.41	84.2708	420.41	84.2616	420.41	84.5011	420.41	84.3925	420.41	84.6531	420.41	84.5255	420.41	84.694	420.41	84.6388
435.059	85.9902	435.059	85.8746	435.059	85.9387	435.059	85.5987	435.059	85.7326	435.059	85.1814	435.059	85.41	435.059	84.6506	435.059	85.0359	435.059	84.0463	435.059	84.6942	435.059	83.4275	435.059	84.4646	435.059	82.8745	435.059	84.3829	435.059	82.479	435.059	84.4119	435.059	82.3165	435.059	84.463	435.059	82.4149	435.059	84.4642	435.059	82.74	435.059	84.4101	435.059	83.2095	435.059	84.3593	435.059	83.7247	435.059	84.3831	435.059	84.2	435.059	84.5054	435.059	84.5793	435.059	84.6865	435.059	84.8397	435.059	84.8615	435.059	84.9841	435.059	84.9825	435.059	85.0271
451.172	86.9927	451.172	86.764	451.172	87.0479	451.172	86.3701	451.172	86.9262	451.172	85.83	451.172	86.6256	451.172	85.176	451.172	86.1505	451.172	84.4548	451.172	85.5257	451.172	83.7221	451.172	84.8176	451.172	83.0364	451.172	84.1446	451.172	82.4523	451.172	83.6449	451.172	82.0214	451.172	83.3899	451.172	81.792	451.172	83.3267	451.172	81.798	451.172	83.3434	451.172	82.0365	451.172	83.3821	451.172	82.4603	451.172	83.4761	451.172	82.9929	451.172	83.6869	451.172	83.549	451.172	84.006	451.172	84.0458	451.172	84.3356	451.172	84.4103	451.172	84.5559	451.172	84.5882
465.82	87.1086	465.82	86.8492	465.82	87.1705	465.82	86.4094	465.82	87.0365	465.82	85.8221	465.82	86.7293	465.82	85.1352	465.82	86.2899	465.82	84.4086	465.82	85.7635	465.82	83.7045	465.82	85.1815	465.82	83.0705	465.82	84.5622	465.82	82.5272	465.82	83.9431	465.82	82.0741	465.82	83.4243	465.82	81.7203	465.82	83.1571	465.82	81.5166	465.82	83.2297	465.82	81.5504	465.82	83.5655	465.82	81.8778	465.82	83.9906	465.82	82.4526	465.82	84.3706	465.82	83.1435	465.82	84.6524	465.82	83.8094	465.82	84.82	465.82	84.3466	465.82	84.8475	465.82	84.6972
483.398	87.128	483.398	86.8975	483.398	87.1522	483.398	86.4879	483.398	86.952	483.398	85.938	483.398	86.5236	483.398	85.3029	483.398	85.894	483.398	84.6515	483.398	85.1376	483.398	84.0512	483.398	84.3764	483.398	83.5454	483.398	83.7487	483.398	83.14	483.398	83.3522	483.398	82.8141	483.398	83.1998	483.398	82.5487	483.398	83.2297	483.398	82.3482	483.398	83.3648	483.398	82.2362	483.398	83.5568	483.398	82.2339	483.398	83.7804	483.398	82.3473	483.398	83.9982	483.398	82.5733	483.398	84.1468	483.398	82.9009	483.398	84.1594	483.398	83.2968	483.398	84.0018	483.398	83.6923
499.512	87.1468	499.512	86.8917	499.512	87.1757	499.512	86.4329	499.512	86.9746	499.512	85.8135	499.512	86.5629	499.512	85.098	499.512	85.9859	499.512	84.3678	499.512	85.3082	499.512	83.7014	499.512	84.5939	499.512	83.1499	499.512	83.8878	499.512	82.7257	499.512	83.2193	499.512	82.419	499.512	82.634	499.512	82.2241	499.512	82.2367	499.512	82.1505	499.512	82.1779	499.512	82.2107	499.512	82.5163	499.512	82.4031	499.512	83.1088	499.512	82.7071	499.512	83.7164	499.512	83.0883	499.512	84.1659	499.512	83.5026	499.512	84.3904	499.512	83.897	499.512	84.3942	499.512	84.2132
517.09	87.5374	517.09	87.2423	517.09	87.5928	517.09	86.715	517.09	87.4348	517.09	85.9988	517.09	87.1155	517.09	85.1746	517.09	86.696	517.09	84.352	517.09	86.2223	517.09	83.6452	517.09	85.7128	517.09	83.1301	517.09	85.1652	517.09	82.8072	517.09	84.5622	517.09	82.602	517.09	83.8693	517.09	82.415	517.09	83.0551	517.09	82.1817	517.09	82.1819	517.09	81.9088	517.09	81.5452	517.09	81.6794	517.09	81.5714	517.09	81.6283	517.09	82.2497	517.09	81.867	517.09	83.0747	517.09	82.3799	517.09	83.6314	517.09	83.0061	517.09	83.7765	517.09	83.531
536.133	87.3032	536.133	86.9753	536.133	87.355	536.133	86.4097	536.133	87.1215	536.133	85.6642	536.133	86.6342	536.133	84.8049	536.133	85.9728	536.133	83.8958	536.133	85.255	536.133	83.0027	536.133	84.606	536.133	82.2186	536.133	84.1222	536.133	81.6659	536.133	83.8432	536.133	81.4198	536.133	83.7278	536.133	81.4287	536.133	83.6489	536.133	81.5619	536.133	83.4521	536.133	81.7167	536.133	83.0688	536.133	81.8591	536.133	82.6292	536.133	82.0039	536.133	82.4286	536.133	82.1813	536.133	82.5911	536.133	82.4121	536.133	82.8782	536.133	82.6823	536.133	83.0126	536.133	82.9206
555.176	87.8849	555.176	87.5917	555.176	87.8522	555.176	87.0185	555.176	87.4882	555.176	86.2451	555.176	86.8353	555.176	85.3758	555.176	85.9818	555.176	84.5166	555.176	85.04	555.176	83.7474	555.176	84.1104	555.176	83.107	555.176	83.2578	555.176	82.5969	555.176	82.5257	555.176	82.1965	555.176	82.0201	555.176	81.8873	555.176	81.9426	555.176	81.6765	555.176	82.3514	555.176	81.5946	555.176	82.9526	555.176	81.6612	555.176	83.3749	555.176	81.854	555.176	83.4768	555.176	82.1185	555.176	83.3561	555.176	82.4023	555.176	83.1875	555.176	82.6676	555.176	83.0439	555.176	82.8842
574.219	87.8721	574.219	87.5103	574.219	87.9954	574.219	86.9305	574.219	87.8816	574.219	86.1769	574.219	87.5363	574.219	85.3034	574.219	86.9532	574.219	84.3566	574.219	86.1232	574.219	83.3854	574.219	85.0786	574.219	82.4838	574.219	83.9428	574.219	81.8192	574.219	82.9248	574.219	81.5474	574.219	82.2168	574.219	81.6388	574.219	81.8654	574.219	81.8624	574.219	81.7886	574.219	81.9753	574.219	81.9264	574.219	81.8908	574.219	82.2884	574.219	81.7276	574.219	82.8216	574.219	81.7337	574.219	83.3352	574.219	82.0669	574.219	83.6198	574.219	82.6343	574.219	83.5702	574.219	83.2029
594.727	87.8949	594.727	87.4466	594.727	88.0666	594.727	86.7677	594.727	87.9642	594.727	85.9469	594.727	87.6183	594.727	85.0815	594.727	87.0593	594.727	84.2397	594.727	86.3105	594.727	83.448	594.727	85.4114	594.727	82.7056	594.727	84.4434	594.727	82.0177	594.727	83.5181	594.727	81.4365	594.727	82.7271	594.727	81.0786	594.727	82.0815	594.727	81.0368	594.727	81.5072	594.727	81.2221	594.727	80.9927	594.727	81.4158	594.727	80.7818	594.727	81.4938	594.727	81.1707	594.727	81.5294	594.727	81.9566	594.727	81.7133	594.727	82.6129	594.727	82.1288	594.727	82.8293	594.727	82.5997
615.234	87.568	615.234	87.1794	615.234	87.6685	615.234	86.5663	615.234	87.456	615.234	85.8151	615.234	86.9498	615.234	85.0029	615.234	86.219	615.234	84.1717	615.234	85.3803	615.234	83.3414	615.234	84.5634	615.234	82.5513	615.234	83.8383	615.234	81.882	615.234	83.1777	615.234	81.4262	615.234	82.5506	615.234	81.221	615.234	82.0863	615.234	81.2081	615.234	82.0094	615.234	81.2683	615.234	82.2565	615.234	81.295	615.234	82.4651	615.234	81.2479	615.234	82.4171	615.234	81.1785	615.234	82.2148	615.234	81.2065	615.234	82.0532	615.234	81.408	615.234	81.9221	615.234	81.6991
637.207	87.2446	637.207	86.7337	637.207	87.4957	637.207	86.0472	637.207	87.4564	637.207	85.2826	637.207	87.1489	637.207	84.4837	637.207	86.6167	637.207	83.6199	637.207	85.8799	637.207	82.6675	637.207	84.9345	637.207	81.7299	637.207	83.8345	637.207	81.0645	637.207	82.7707	637.207	80.8904	637.207	81.9631	637.207	81.1219	637.207	81.4272	637.207	81.4259	637.207	81.046	637.207	81.5196	637.207	80.868	637.207	81.3309	637.207	81.0675	637.207	80.9855	637.207	81.5631	637.207	80.7206	637.207	82.0097	637.207	80.7386	637.207	82.1572	637.207	81.0643	637.207	81.9686	637.207	81.5448
659.18	87.1468	659.18	86.7148	659.18	87.3651	659.18	86.112	659.18	87.3646	659.18	85.3843	659.18	87.1765	659.18	84.5652	659.18	86.8117	659.18	83.7111	659.18	86.2084	659.18	82.9318	659.18	85.2715	659.18	82.3293	659.18	83.9876	659.18	81.8827	659.18	82.5124	659.18	81.4763	659.18	81.1816	659.18	81.0958	659.18	80.4297	659.18	80.9136	659.18	80.3434	659.18	81.0449	659.18	80.4153	659.18	81.315	659.18	80.3507	659.18	81.428	659.18	80.4777	659.18	81.2389	659.18	81.0206	659.18	80.9071	659.18	81.5361	659.18	80.843	659.18	81.584	659.18	81.2037
682.617	87.0826	682.617	86.7208	682.617	87.2077	682.617	86.1821	682.617	87.039	682.617	85.5015	682.617	86.5361	682.617	84.6759	682.617	85.7061	682.617	83.7126	682.617	84.6841	682.617	82.7071	682.617	83.7911	682.617	81.8433	682.617	83.3384	682.617	81.2759	682.617	83.2294	682.617	81.0229	682.617	82.9907	682.617	80.9953	682.617	82.3038	682.617	81.0902	682.617	81.436	682.617	81.2293	682.617	81.0877	682.617	81.3436	682.617	81.363	682.617	81.3662	682.617	81.6524	682.617	81.2621	682.617	81.6406	682.617	81.0874	682.617	81.4568	682.617	80.9941	682.617	81.2578	682.617	81.0762
707.52	86.7771	707.52	86.4481	707.52	86.8911	707.52	85.9247	707.52	86.8194	707.52	85.2623	707.52	86.6303	707.52	84.5249	707.52	86.3586	707.52	83.7521	707.52	85.9363	707.52	82.9701	707.52	85.2603	707.52	82.2706	707.52	84.3306	707.52	81.8052	707.52	83.2717	707.52	81.588	707.52	82.1809	707.52	81.4612	707.52	80.9914	707.52	81.3231	707.52	79.6436	707.52	81.1878	707.52	78.528	707.52	81.0354	707.52	78.3986	707.52	80.7236	707.52	79.0528	707.52	80.0961	707.52	79.5863	707.52	79.2175	707.52	79.6153	707.52	78.5678	707.52	79.1975	707.52	78.6501
732.422	86.7767	732.422	86.4125	732.422	86.9136	732.422	85.9203	732.422	86.822	732.422	85.4109	732.422	86.58	732.422	84.8672	732.422	86.2592	732.422	84.1411	732.422	85.832	732.422	83.1129	732.422	85.1573	732.422	81.8595	732.422	84.0919	732.422	80.7553	732.422	82.6755	732.422	80.2947	732.422	81.3341	732.422	80.5712	732.422	80.7741	732.422	81.2121	732.422	80.8994	732.422	81.8458	732.422	80.7085	732.422	82.2839	732.422	79.7785	732.422	82.4027	732.422	79.0606	732.422	82.0654	732.422	79.4369	732.422	81.2123	732.422	79.8214	732.422	80.1015	732.422	79.6097	732.422	79.45
757.324	86.6955	757.324	86.4808	757.324	86.7483	757.324	86.1816	757.324	86.5482	757.324	85.7769	757.324	86.0517	757.324	85.129	757.324	85.2712	757.324	84.0741	757.324	84.3209	757.324	82.5727	757.324	83.5217	757.324	80.8435	757.324	83.2001	757.324	79.3761	757.324	83.2052	757.324	78.6757	757.324	82.9418	757.324	78.878	757.324	81.9807	757.324	79.6829	757.324	80.7784	757.324	80.6349	757.324	80.4271	757.324	81.3969	757.324	80.6192	757.324	81.7872	757.324	80.3994	757.324	81.6898	757.324	79.7678	757.324	81.0663	757.324	79.2418	757.324	80.1089	757.324	79.0585	757.324	79.3154
785.156	86.6934	785.156	86.5257	785.156	86.6899	785.156	86.2124	785.156	86.572	785.156	85.7529	785.156	86.4033	785.156	85.0285	785.156	86.0874	785.156	83.8596	785.156	85.4626	785.156	82.1545	785.156	84.617	785.156	80.1653	785.156	83.9315	785.156	78.7898	785.156	83.5609	785.156	78.9075	785.156	83.1116	785.156	80.0107	785.156	82.0616	785.156	81.1949	785.156	80.0811	785.156	82.1564	785.156	77.1828	785.156	82.8786	785.156	74.6987	785.156	83.2574	785.156	74.7197	785.156	83.0643	785.156	75.2943	785.156	82.0915	785.156	75.2419	785.156	80.2752	785.156	75.8161	785.156	77.8668
811.523	87.7694	811.523	87.6655	811.523	87.5389	811.523	87.3029	811.523	86.845	811.523	86.6179	811.523	85.6255	811.523	85.4358	811.523	84.0619	811.523	83.5912	811.523	82.7963	811.523	81.005	811.523	82.6124	811.523	77.7049	811.523	83.3364	811.523	74.4593	811.523	83.9584	811.523	75.2401	811.523	83.8301	811.523	79.0026	811.523	83.0401	811.523	81.9199	811.523	82.0591	811.523	83.7031	811.523	80.983	811.523	84.6814	811.523	79.2276	811.523	85.1268	811.523	76.2626	811.523	85.1513	811.523	73.4562	811.523	84.6998	811.523	75.0005	811.523	83.6152	811.523	78.7034	811.523	81.6829
840.82	89.6528	840.82	89.7083	840.82	89.3948	840.82	89.5487	840.82	88.952	840.82	89.1053	840.82	88.2819	840.82	88.2396	840.82	87.122	840.82	86.8421	840.82	85.1328	840.82	85.0003	840.82	82.5277	840.82	83.0257	840.82	80.8962	840.82	80.7517	840.82	81.5056	840.82	76.3859	840.82	82.9526	840.82	55.9561	840.82	84.0188	840.82	75.8122	840.82	84.5207	840.82	81.9735	840.82	84.6697	840.82	85.0543	840.82	84.673	840.82	86.8749	840.82	84.6142	840.82	87.8862	840.82	84.6087	840.82	88.1952	840.82	84.949	840.82	87.8534	840.82	85.8344	840.82	86.9691
870.117	89.0578	870.117	88.7428	870.117	89.0377	870.117	88.1863	870.117	88.6626	870.117	87.5086	870.117	87.8726	870.117	86.7294	870.117	86.4938	870.117	85.7896	870.117	84.4232	870.117	84.7253	870.117	81.8799	870.117	83.6789	870.117	79.6516	870.117	82.5631	870.117	79.7785	870.117	80.8208	870.117	81.6359	870.117	77.5343	870.117	83.0542	870.117	70.3535	870.117	83.9016	870.117	64.2008	870.117	84.3842	870.117	76.5277	870.117	84.4383	870.117	81.5884	870.117	84.3254	870.117	84.5367	870.117	84.8331	870.117	86.2655	870.117	85.9419	870.117	87.1233	870.117	86.884	870.117	87.3002
900.879	88.5213	900.879	88.1996	900.879	88.569	900.879	87.6364	900.879	88.3914	900.879	86.8772	900.879	87.9927	900.879	85.9031	900.879	87.2071	900.879	84.7338	900.879	85.8434	900.879	83.5988	900.879	83.8013	900.879	82.9418	900.879	80.9933	900.879	82.8592	900.879	78.3154	900.879	82.5973	900.879	78.2181	900.879	81.1364	900.879	79.9289	900.879	77.3745	900.879	82.0551	900.879	67.5257	900.879	84.0075	900.879	69.3666	900.879	85.1766	900.879	77.5277	900.879	85.4029	900.879	81.144	900.879	85.1431	900.879	83.2614	900.879	85.0925	900.879	84.5832	900.879	85.3094	900.879	85.2505
933.105	87.9754	933.105	87.6062	933.105	88.0631	933.105	87.0763	933.105	87.855	933.105	86.418	933.105	87.4523	933.105	85.5369	933.105	86.8472	933.105	84.4355	933.105	85.8138	933.105	83.4548	933.105	84.2017	933.105	82.9818	933.105	82.1986	933.105	82.7707	933.105	79.8659	933.105	82.4407	933.105	77.3214	933.105	81.6782	933.105	77.2679	933.105	80.1149	933.105	79.3057	933.105	77.2258	933.105	80.5986	933.105	71.4718	933.105	81.3009	933.105	70.2207	933.105	82.3604	933.105	76.5885	933.105	83.5927	933.105	80.0556	933.105	84.2421	933.105	82.1808	933.105	84.1919	933.105	83.522
965.332	88.088	965.332	88.0757	965.332	87.9888	965.332	87.7344	965.332	87.7548	965.332	86.7487	965.332	87.2099	965.332	85.0845	965.332	86.2651	965.332	83.347	965.332	85.1449	965.332	82.4641	965.332	84.0297	965.332	82.3878	965.332	82.8305	965.332	82.2249	965.332	81.7721	965.332	81.7544	965.332	80.8325	965.332	81.3398	965.332	79.6183	965.332	80.7956	965.332	79.3847	965.332	79.2412	965.332	80.935	965.332	75.8881	965.332	82.1657	965.332	74.1215	965.332	82.6404	965.332	77.5635	965.332	82.942	965.332	80.0375	965.332	83.1767	965.332	81.2842	965.332	82.9435	965.332	82.2043
1,000.49	88.6587	1,000.49	88.6385	1,000.49	88.3166	1,000.49	88.2256	1,000.49	87.7287	1,000.49	87.3935	1,000.49	87.1207	1,000.49	86.1153	1,000.49	86.6486	1,000.49	84.4977	1,000.49	86.0848	1,000.49	83.0775	1,000.49	84.8386	1,000.49	82.3199	1,000.49	82.4975	1,000.49	82.112	1,000.49	79.5661	1,000.49	82.0574	1,000.49	78.0416	1,000.49	81.3716	1,000.49	78.3165	1,000.49	80.0592	1,000.49	77.8441	1,000.49	78.8252	1,000.49	76.7293	1,000.49	77.9751	1,000.49	76.9443	1,000.49	77.1208	1,000.49	78.3746	1,000.49	75.9003	1,000.49	80.1439	1,000.49	75.8655	1,000.49	81.5917	1,000.49	78.2189	1,000.49	81.8562	1,000.49	80.6464
1,035.64	88.98	1,035.64	89.0911	1,035.64	88.8055	1,035.64	88.8824	1,035.64	88.5742	1,035.64	88.0058	1,035.64	88.1482	1,035.64	86.3801	1,035.64	87.4923	1,035.64	84.6205	1,035.64	86.6432	1,035.64	83.6417	1,035.64	85.4809	1,035.64	83.103	1,035.64	83.9979	1,035.64	81.8338	1,035.64	82.5996	1,035.64	79.6517	1,035.64	81.4809	1,035.64	78.2686	1,035.64	80.0941	1,035.64	78.8367	1,035.64	78.8944	1,035.64	79.4234	1,035.64	79.8935	1,035.64	78.9166	1,035.64	81.6946	1,035.64	78.8881	1,035.64	82.4943	1,035.64	80.2142	1,035.64	82.3511	1,035.64	81.1828	1,035.64	82.138	1,035.64	81.2867	1,035.64	81.8563	1,035.64	81.374
1,072.27	88.6117	1,072.27	88.6729	1,072.27	88.3337	1,072.27	88.35	1,072.27	88.0439	1,072.27	87.503	1,072.27	87.6305	1,072.27	86.1935	1,072.27	86.7927	1,072.27	85.0127	1,072.27	85.7393	1,072.27	84.5418	1,072.27	84.9398	1,072.27	84.3824	1,072.27	83.6283	1,072.27	83.5058	1,072.27	81.5845	1,072.27	81.4727	1,072.27	80.7379	1,072.27	79.6089	1,072.27	80.455	1,072.27	79.7074	1,072.27	79.5054	1,072.27	80.3238	1,072.27	78.9026	1,072.27	79.7339	1,072.27	79.1705	1,072.27	78.4303	1,072.27	79.6638	1,072.27	78.6304	1,072.27	80.9308	1,072.27	79.6646	1,072.27	81.731	1,072.27	79.9716	1,072.27	81.2095	1,072.27	80.3075
1,108.89	88.6376	1,108.89	88.4069	1,108.89	88.5539	1,108.89	87.9273	1,108.89	88.1004	1,108.89	87.3488	1,108.89	87.2529	1,108.89	86.9133	1,108.89	86.4414	1,108.89	86.6165	1,108.89	86.1522	1,108.89	85.7857	1,108.89	85.6693	1,108.89	83.7816	1,108.89	83.9569	1,108.89	81.7898	1,108.89	81.0916	1,108.89	81.3978	1,108.89	78.0148	1,108.89	81.0485	1,108.89	77.9335	1,108.89	79.6386	1,108.89	79.8632	1,108.89	78.7841	1,108.89	80.1129	1,108.89	78.9309	1,108.89	80.0324	1,108.89	78.7794	1,108.89	80.7782	1,108.89	79.005	1,108.89	80.6583	1,108.89	80.0968	1,108.89	80.2143	1,108.89	80.8158	1,108.89	80.314	1,108.89	80.7098
1,148.44	87.8567	1,148.44	87.6591	1,148.44	87.9859	1,148.44	87.2554	1,148.44	87.9204	1,148.44	86.4717	1,148.44	87.4368	1,148.44	85.6016	1,148.44	86.3547	1,148.44	85.2769	1,148.44	84.7214	1,148.44	85.169	1,148.44	83.1034	1,148.44	83.9212	1,148.44	82.4076	1,148.44	80.7259	1,148.44	82.3992	1,148.44	77.4214	1,148.44	81.4648	1,148.44	77.9717	1,148.44	79.6353	1,148.44	79.6957	1,148.44	79.8821	1,148.44	79.7556	1,148.44	81.6614	1,148.44	78.7454	1,148.44	81.055	1,148.44	78.1515	1,148.44	78.3241	1,148.44	78.5213	1,148.44	79.8408	1,148.44	79.1125	1,148.44	80.7204	1,148.44	79.0456	1,148.44	79.5794	1,148.44	78.753
1,189.45	88.1525	1,189.45	87.956	1,189.45	88.2715	1,189.45	87.7243	1,189.45	87.9245	1,189.45	87.1413	1,189.45	86.9654	1,189.45	86.2603	1,189.45	85.7633	1,189.45	85.231	1,189.45	84.817	1,189.45	83.7711	1,189.45	83.8344	1,189.45	82.2721	1,189.45	82.2261	1,189.45	80.7687	1,189.45	80.3891	1,189.45	79.6642	1,189.45	78.3546	1,189.45	77.037	1,189.45	76.923	1,189.45	74.2369	1,189.45	77.8422	1,189.45	76.3176	1,189.45	78.3465	1,189.45	78.154	1,189.45	79.0073	1,189.45	78.7807	1,189.45	79.5714	1,189.45	78.9982	1,189.45	78.3894	1,189.45	79.6938	1,189.45	77.4567	1,189.45	80.0791	1,189.45	78.4088	1,189.45	79.5443
1,230.47	88.9987	1,230.47	88.839	1,230.47	88.7154	1,230.47	88.2119	1,230.47	88.0275	1,230.47	87.2918	1,230.47	87.1076	1,230.47	86.4389	1,230.47	86.3426	1,230.47	85.4869	1,230.47	85.5865	1,230.47	83.5769	1,230.47	84.4061	1,230.47	81.2708	1,230.47	82.9989	1,230.47	79.9837	1,230.47	81.4197	1,230.47	79.6108	1,230.47	80.1413	1,230.47	78.1811	1,230.47	78.8355	1,230.47	75.5775	1,230.47	77.9884	1,230.47	74.2292	1,230.47	80.4064	1,230.47	75.6013	1,230.47	81.6572	1,230.47	77.4129	1,230.47	78.7056	1,230.47	78.587	1,230.47	76.7955	1,230.47	79.2141	1,230.47	78.124	1,230.47	79.2289	1,230.47	78.5239	1,230.47	78.8256
1,274.41	89.0274	1,274.41	88.5305	1,274.41	89.3348	1,274.41	87.8397	1,274.41	88.8617	1,274.41	86.6605	1,274.41	87.4023	1,274.41	85.5944	1,274.41	85.5921	1,274.41	84.9638	1,274.41	84.3101	1,274.41	83.3468	1,274.41	83.267	1,274.41	80.2443	1,274.41	81.4316	1,274.41	79.5056	1,274.41	78.9577	1,274.41	81.5179	1,274.41	76.9094	1,274.41	81.6943	1,274.41	76.1957	1,274.41	79.1993	1,274.41	77.7721	1,274.41	76.1901	1,274.41	78.7422	1,274.41	76.0001	1,274.41	78.3066	1,274.41	78.0451	1,274.41	77.6218	1,274.41	79.7108	1,274.41	78.29	1,274.41	80.3118	1,274.41	78.1853	1,274.41	79.9843	1,274.41	78.542	1,274.41	79.2844
1,319.82	89.4849	1,319.82	89.6657	1,319.82	89.3848	1,319.82	88.7719	1,319.82	89.2527	1,319.82	86.8892	1,319.82	88.0762	1,319.82	85.6322	1,319.82	86.3674	1,319.82	84.5493	1,319.82	84.9805	1,319.82	82.356	1,319.82	83.7493	1,319.82	80.7612	1,319.82	82.737	1,319.82	80.4986	1,319.82	80.3992	1,319.82	79.541	1,319.82	78.3355	1,319.82	79.2941	1,319.82	77.792	1,319.82	79.2092	1,319.82	77.8678	1,319.82	77.7999	1,319.82	78.1526	1,319.82	76.5327	1,319.82	79.5173	1,319.82	76.2046	1,319.82	80.7023	1,319.82	78.0092	1,319.82	79.7486	1,319.82	79.8503	1,319.82	78.4742	1,319.82	79.4383	1,319.82	78.6556	1,319.82	78.4723
1,366.7	89.6491	1,366.7	89.6888	1,366.7	89.5726	1,366.7	88.8176	1,366.7	89.423	1,366.7	87.6729	1,366.7	88.5858	1,366.7	87.1281	1,366.7	87.3343	1,366.7	85.857	1,366.7	85.6168	1,366.7	83.9027	1,366.7	83.2624	1,366.7	83.0473	1,366.7	80.923	1,366.7	82.0131	1,366.7	79.5071	1,366.7	79.5564	1,366.7	77.2946	1,366.7	77.3185	1,366.7	75.1214	1,366.7	79.0585	1,366.7	78.2808	1,366.7	79.8907	1,366.7	78.545	1,366.7	77.9123	1,366.7	80.4517	1,366.7	76.4868	1,366.7	81.4574	1,366.7	77.8531	1,366.7	79.0671	1,366.7	78.3342	1,366.7	78.8174	1,366.7	78.3775	1,366.7	79.1536	1,366.7	78.6039
1,413.57	89.7845	1,413.57	89.7936	1,413.57	89.3514	1,413.57	88.6594	1,413.57	89.2276	1,413.57	87.8106	1,413.57	88.8654	1,413.57	87.3239	1,413.57	87.381	1,413.57	85.484	1,413.57	84.4457	1,413.57	84.1789	1,413.57	82.1724	1,413.57	84.4964	1,413.57	81.5446	1,413.57	82.1681	1,413.57	80.2186	1,413.57	79.8394	1,413.57	78.6803	1,413.57	80.0125	1,413.57	78.0926	1,413.57	79.1646	1,413.57	76.0123	1,413.57	78.3905	1,413.57	76.9736	1,413.57	78.1284	1,413.57	77.9633	1,413.57	77.133	1,413.57	78.7442	1,413.57	78.696	1,413.57	80.7386	1,413.57	80.7274	1,413.57	76.9754	1,413.57	80.4764	1,413.57	75.7693	1,413.57	78.4147
1,463.38	89.1463	1,463.38	88.8742	1,463.38	88.7933	1,463.38	88.1591	1,463.38	88.9868	1,463.38	88.2894	1,463.38	89.1095	1,463.38	87.3218	1,463.38	87.8285	1,463.38	84.1555	1,463.38	85.8616	1,463.38	83.0684	1,463.38	83.3864	1,463.38	83.9028	1,463.38	81.1332	1,463.38	81.9263	1,463.38	81.205	1,463.38	77.7157	1,463.38	79.7724	1,463.38	78.0315	1,463.38	74.5555	1,463.38	78.9651	1,463.38	75.5481	1,463.38	78.1929	1,463.38	76.2184	1,463.38	78.2925	1,463.38	75.166	1,463.38	76.0853	1,463.38	77.2409	1,463.38	77.4485	1,463.38	76.8898	1,463.38	81.2212	1,463.38	75.6074	1,463.38	80.2876	1,463.38	74.3412	1,463.38	75.7345
1,516.11	87.8859	1,516.11	87.5578	1,516.11	87.5857	1,516.11	87.7287	1,516.11	87.7303	1,516.11	88.3267	1,516.11	88.0594	1,516.11	86.333	1,516.11	87.9441	1,516.11	84.191	1,516.11	86.676	1,516.11	84.5424	1,516.11	84.7794	1,516.11	82.1001	1,516.11	82.7185	1,516.11	77.1482	1,516.11	78.6644	1,516.11	76.4539	1,516.11	76.4088	1,516.11	75.0428	1,516.11	77.3254	1,516.11	75.6637	1,516.11	79.6434	1,516.11	77.9523	1,516.11	78.4014	1,516.11	76.2799	1,516.11	79.2575	1,516.11	75.2164	1,516.11	79.1251	1,516.11	78.7576	1,516.11	76.1087	1,516.11	81.8516	1,516.11	73.5402	1,516.11	81.3153	1,516.11	69.705	1,516.11	75.5427
1,568.85	87.9391	1,568.85	86.8816	1,568.85	88.2125	1,568.85	87.5357	1,568.85	87.6413	1,568.85	88.4031	1,568.85	87.7256	1,568.85	86.7196	1,568.85	87.5649	1,568.85	84.75	1,568.85	86.46	1,568.85	83.2582	1,568.85	85.1808	1,568.85	79.2134	1,568.85	83.1302	1,568.85	74.4193	1,568.85	80.6239	1,568.85	76.7089	1,568.85	76.5216	1,568.85	76.984	1,568.85	74.546	1,568.85	72.9668	1,568.85	76.9624	1,568.85	68.997	1,568.85	78.8718	1,568.85	76.1291	1,568.85	81.0428	1,568.85	77.0497	1,568.85	79.8522	1,568.85	73.974	1,568.85	76.6075	1,568.85	78.5628	1,568.85	75.7614	1,568.85	80.4632	1,568.85	76.3917	1,568.85	79.0234
1,624.51	87.9804	1,624.51	87.0586	1,624.51	88.0875	1,624.51	87.2792	1,624.51	87.0241	1,624.51	86.9723	1,624.51	86.4982	1,624.51	85.3808	1,624.51	86.2926	1,624.51	85.8095	1,624.51	85.043	1,624.51	83.5198	1,624.51	83.1909	1,624.51	76.7857	1,624.51	81.9501	1,624.51	77.7194	1,624.51	81.4748	1,624.51	77.9759	1,624.51	79.4363	1,624.51	76.2832	1,624.51	74.5979	1,624.51	77.2262	1,624.51	77.1734	1,624.51	77.4702	1,624.51	76.0377	1,624.51	74.8223	1,624.51	76.9615	1,624.51	75.5216	1,624.51	79.0686	1,624.51	70.9434	1,624.51	80.0058	1,624.51	71.527	1,624.51	76.2068	1,624.51	75.1392	1,624.51	78.1618	1,624.51	79.5353
1,681.64	87.6779	1,681.64	87.0151	1,681.64	87.9492	1,681.64	86.8911	1,681.64	87.0756	1,681.64	85.9153	1,681.64	87.4538	1,681.64	85.6248	1,681.64	86.285	1,681.64	84.6672	1,681.64	83.2709	1,681.64	79.5574	1,681.64	82.7612	1,681.64	77.4439	1,681.64	80.9085	1,681.64	76.6405	1,681.64	79.2127	1,681.64	75.1078	1,681.64	75.0219	1,681.64	78.8466	1,681.64	73.4053	1,681.64	81.8473	1,681.64	73.7439	1,681.64	80.9549	1,681.64	75.9035	1,681.64	63.8632	1,681.64	78.8273	1,681.64	72.1454	1,681.64	82.8941	1,681.64	78.4921	1,681.64	76.1602	1,681.64	76.377	1,681.64	75.9745	1,681.64	78.4796	1,681.64	77.5823	1,681.64	75.0951
1,741.7	87.0636	1,741.7	87.4244	1,741.7	87.4812	1,741.7	87.0212	1,741.7	88.0053	1,741.7	85.0914	1,741.7	88.1094	1,741.7	85.3773	1,741.7	85.8158	1,741.7	84.3222	1,741.7	84.3827	1,741.7	77.64	1,741.7	82.4946	1,741.7	77.5422	1,741.7	79.7863	1,741.7	79.7175	1,741.7	78.5026	1,741.7	75.5292	1,741.7	77.0849	1,741.7	76.4692	1,741.7	77.7687	1,741.7	75.3245	1,741.7	77.232	1,741.7	75.9994	1,741.7	76.2213	1,741.7	78.1685	1,741.7	69.5339	1,741.7	74.6118	1,741.7	79.4641	1,741.7	73.7487	1,741.7	79.7358	1,741.7	73.3835	1,741.7	73.8215	1,741.7	73.6226	1,741.7	66.021	1,741.7	67.4878
1,803.22	86.4806	1,803.22	87.2578	1,803.22	87.3537	1,803.22	86.3364	1,803.22	88.5917	1,803.22	83.2301	1,803.22	87.2609	1,803.22	82.8213	1,803.22	86.0934	1,803.22	83.3307	1,803.22	82.9191	1,803.22	81.4069	1,803.22	81.6559	1,803.22	81.7365	1,803.22	82.5951	1,803.22	81.1408	1,803.22	78.3449	1,803.22	75.303	1,803.22	75.4291	1,803.22	71.3292	1,803.22	76.458	1,803.22	72.2837	1,803.22	78.7361	1,803.22	79.8201	1,803.22	74.5368	1,803.22	77.9536	1,803.22	78.7794	1,803.22	66.8453	1,803.22	78.2579	1,803.22	73.1391	1,803.22	69.2389	1,803.22	74.6133	1,803.22	74.2876	1,803.22	75.6314	1,803.22	72.6013	1,803.22	71.6749
1,866.21	85.077	1,866.21	86.5735	1,866.21	85.9523	1,866.21	85.2252	1,866.21	87.6638	1,866.21	83.5054	1,866.21	86.5838	1,866.21	83.5987	1,866.21	85.0664	1,866.21	82.1448	1,866.21	80.9642	1,866.21	82.5612	1,866.21	79.4975	1,866.21	84.2945	1,866.21	80.7231	1,866.21	81.1863	1,866.21	73.7445	1,866.21	77.8171	1,866.21	70.4091	1,866.21	70.1443	1,866.21	74.6255	1,866.21	71.1611	1,866.21	79.5869	1,866.21	78.3345	1,866.21	77.433	1,866.21	76.6506	1,866.21	74.5286	1,866.21	73.0629	1,866.21	79.3592	1,866.21	67.9554	1,866.21	72.7919	1,866.21	68.309	1,866.21	62.9746	1,866.21	71.4752	1,866.21	73.4523	1,866.21	74.36
1,932.13	84.9997	1,932.13	85.6437	1,932.13	85.6874	1,932.13	85.9079	1,932.13	86.0289	1,932.13	86.4208	1,932.13	84.9348	1,932.13	85.7029	1,932.13	86.8325	1,932.13	81.0131	1,932.13	84.1044	1,932.13	78.9043	1,932.13	72.15	1,932.13	79.9309	1,932.13	68.7698	1,932.13	80.3777	1,932.13	75.2032	1,932.13	78.3266	1,932.13	80.1664	1,932.13	77.4672	1,932.13	74.9332	1,932.13	73.9959	1,932.13	76.9445	1,932.13	76.451	1,932.13	78.1389	1,932.13	75.0292	1,932.13	76.4742	1,932.13	77.9957	1,932.13	78.5733	1,932.13	59.3535	1,932.13	74.6311	1,932.13	72.6775	1,932.13	74.5323	1,932.13	73.4969	1,932.13	75.932	1,932.13	73.7294
1,999.51	86.8733	1,999.51	83.2861	1,999.51	86.6911	1,999.51	84.8828	1,999.51	83.9524	1,999.51	86.4465	1,999.51	86.7576	1,999.51	82.0402	1,999.51	86.3987	1,999.51	77.7498	1,999.51	80.0609	1,999.51	80.8114	1,999.51	78.6859	1,999.51	73.5891	1,999.51	69.9082	1,999.51	71.9452	1,999.51	77.8564	1,999.51	75.2497	1,999.51	78.6501	1,999.51	68.4595	1,999.51	75.4178	1,999.51	80.1183	1,999.51	73.9486	1,999.51	77.9189	1,999.51	75.2196	1,999.51	70.6224	1,999.51	65.7168	1,999.51	73.4463	1,999.51	77.3385	1,999.51	71.6955	1,999.51	76.6526	1,999.51	59.3803	1,999.51	72.7809	1,999.51	57.4902	1,999.51	72.5324	1,999.51	71.6326
2,069.82	87.5157	2,069.82	85.0747	2,069.82	87.5267	2,069.82	83.6235	2,069.82	85.868	2,069.82	83.418	2,069.82	86.4828	2,069.82	79.0048	2,069.82	84.2972	2,069.82	80.2373	2,069.82	79.5809	2,069.82	80.6418	2,069.82	78.5899	2,069.82	65.4329	2,069.82	77.6092	2,069.82	57.8157	2,069.82	77.8012	2,069.82	67.3364	2,069.82	74.3097	2,069.82	73.113	2,069.82	71.0169	2,069.82	78.3528	2,069.82	70.8381	2,069.82	76.3562	2,069.82	72.8182	2,069.82	75.8915	2,069.82	70.8872	2,069.82	77.8289	2,069.82	76.2529	2,069.82	71.0734	2,069.82	75.4934	2,069.82	62.8586	2,069.82	75.7338	2,069.82	68.5696	2,069.82	71.4042	2,069.82	67.0824
2,143.07	86.4837	2,143.07	86.6021	2,143.07	88.2108	2,143.07	85.4998	2,143.07	86.6724	2,143.07	79.9175	2,143.07	85.5629	2,143.07	80.945	2,143.07	84.8074	2,143.07	83.2315	2,143.07	78.5751	2,143.07	76.5558	2,143.07	78.7166	2,143.07	72.5259	2,143.07	74.9605	2,143.07	71.166	2,143.07	73.0522	2,143.07	71.5355	2,143.07	70.2263	2,143.07	71.1426	2,143.07	72.0442	2,143.07	72.6977	2,143.07	74.7993	2,143.07	62.2554	2,143.07	64.2177	2,143.07	74.8263	2,143.07	62.8471	2,143.07	77.1916	2,143.07	77.8757	2,143.07	75.5007	2,143.07	77.0084	2,143.07	74.2761	2,143.07	72.4397	2,143.07	67.7526	2,143.07	67.9603	2,143.07	65.9657
2,219.24	86.7237	2,219.24	86.1286	2,219.24	87.3157	2,219.24	86.2445	2,219.24	86.1091	2,219.24	82.98	2,219.24	86.2152	2,219.24	81.6354	2,219.24	80.5531	2,219.24	81.4657	2,219.24	78.1465	2,219.24	74.8855	2,219.24	77.428	2,219.24	74.7207	2,219.24	78.9846	2,219.24	76.2436	2,219.24	71.5055	2,219.24	64.7865	2,219.24	62.7701	2,219.24	67.3119	2,219.24	69.3904	2,219.24	74.7739	2,219.24	64.288	2,219.24	74.1183	2,219.24	71.0822	2,219.24	70.9551	2,219.24	64.848	2,219.24	73.1058	2,219.24	73.262	2,219.24	71.0197	2,219.24	71.0182	2,219.24	68.5741	2,219.24	72.724	2,219.24	64.6852	2,219.24	69.4901	2,219.24	54.5996
2,296.88	86.7588	2,296.88	86.3943	2,296.88	86.1779	2,296.88	86.3414	2,296.88	84.5574	2,296.88	83.1982	2,296.88	85.556	2,296.88	82.1057	2,296.88	81.1783	2,296.88	78.69	2,296.88	74.8592	2,296.88	75.6161	2,296.88	75.6923	2,296.88	74.4297	2,296.88	76.4715	2,296.88	73.7181	2,296.88	69.2746	2,296.88	71.8579	2,296.88	59.1266	2,296.88	64.9713	2,296.88	67.6492	2,296.88	62.2889	2,296.88	69.8123	2,296.88	64.201	2,296.88	73.4222	2,296.88	64.8859	2,296.88	42.9006	2,296.88	71.552	2,296.88	68.159	2,296.88	70.5298	2,296.88	71.6537	2,296.88	66.262	2,296.88	70.8155	2,296.88	63.6184	2,296.88	70.1075	2,296.88	66.0997
2,378.91	87.6698	2,378.91	87.459	2,378.91	87.3967	2,378.91	84.2344	2,378.91	84.617	2,378.91	83.0593	2,378.91	83.7566	2,378.91	81.0724	2,378.91	81.6137	2,378.91	74.968	2,378.91	79.074	2,378.91	77.6494	2,378.91	76.3002	2,378.91	72.5639	2,378.91	76.5048	2,378.91	76.3421	2,378.91	72.0499	2,378.91	79.438	2,378.91	62.7491	2,378.91	79.8696	2,378.91	59.4377	2,378.91	74.1352	2,378.91	66.5109	2,378.91	63.9828	2,378.91	70.8145	2,378.91	71.6704	2,378.91	69.7306	2,378.91	69.9312	2,378.91	49.6381	2,378.91	71.9865	2,378.91	72.1138	2,378.91	69.4369	2,378.91	63.9582	2,378.91	61.6345	2,378.91	67.0521	2,378.91	62.5924
2,462.4	89.0512	2,462.4	88.4596	2,462.4	88.3824	2,462.4	85.4588	2,462.4	85.7589	2,462.4	82.2106	2,462.4	81.3358	2,462.4	77.8082	2,462.4	77.4331	2,462.4	77.4117	2,462.4	77.2702	2,462.4	78.0089	2,462.4	77.822	2,462.4	75.6017	2,462.4	77.6145	2,462.4	74.2631	2,462.4	72.4249	2,462.4	72.2613	2,462.4	70.8857	2,462.4	73.7072	2,462.4	70.4925	2,462.4	73.5671	2,462.4	74.4441	2,462.4	71.6614	2,462.4	63.297	2,462.4	67.1733	2,462.4	70.3612	2,462.4	68.5911	2,462.4	60.9346	2,462.4	71.5231	2,462.4	71.4926	2,462.4	71.5668	2,462.4	70.2808	2,462.4	67.1567	2,462.4	69.2313	2,462.4	63.292
2,548.83	88.5353	2,548.83	88.3314	2,548.83	88.106	2,548.83	85.3899	2,548.83	86.8982	2,548.83	79.4176	2,548.83	82.4888	2,548.83	78.2478	2,548.83	74.2414	2,548.83	78.5017	2,548.83	74.6238	2,548.83	77.9189	2,548.83	77.553	2,548.83	78.2211	2,548.83	74.0294	2,548.83	75.1022	2,548.83	75.2147	2,548.83	71.8145	2,548.83	70.4046	2,548.83	71.8328	2,548.83	68.5335	2,548.83	74.8119	2,548.83	71.498	2,548.83	75.1428	2,548.83	71.3589	2,548.83	70.9569	2,548.83	62.6777	2,548.83	66.8324	2,548.83	56.1947	2,548.83	66.8678	2,548.83	69.7166	2,548.83	71.7476	2,548.83	68.8988	2,548.83	70.9979	2,548.83	64.7398	2,548.83	71.7918
2,639.65	87.9412	2,639.65	87.5068	2,639.65	87.3977	2,639.65	84.6167	2,639.65	86.4527	2,639.65	79.1245	2,639.65	82.4426	2,639.65	78.4505	2,639.65	74.6585	2,639.65	78.3721	2,639.65	75.5781	2,639.65	77.2579	2,639.65	76.9731	2,639.65	76.125	2,639.65	78.0096	2,639.65	77.0754	2,639.65	77.5746	2,639.65	76.7109	2,639.65	73.7536	2,639.65	72.4894	2,639.65	70.8951	2,639.65	68.4155	2,639.65	72.4441	2,639.65	72.903	2,639.65	73.065	2,639.65	73.0445	2,639.65	70.1647	2,639.65	72.6177	2,639.65	64.7463	2,639.65	67.8277	2,639.65	63.2981	2,639.65	63.5879	2,639.65	65.2934	2,639.65	63.8015	2,639.65	73.3526	2,639.65	72.2119
2,731.93	87.7731	2,731.93	86.2815	2,731.93	86.7739	2,731.93	83.1465	2,731.93	84.941	2,731.93	77.9912	2,731.93	81.3366	2,731.93	75.721	2,731.93	75.0414	2,731.93	78.1387	2,731.93	76.2671	2,731.93	78.3055	2,731.93	77.0956	2,731.93	77.4293	2,731.93	78.5544	2,731.93	74.8553	2,731.93	76.9794	2,731.93	71.6312	2,731.93	72.0036	2,731.93	70.2227	2,731.93	67.535	2,731.93	73.0288	2,731.93	74.3729	2,731.93	72.6841	2,731.93	70.1463	2,731.93	68.7398	2,731.93	69.7082	2,731.93	69.9752	2,731.93	66.2035	2,731.93	70.9743	2,731.93	70.3114	2,731.93	65.275	2,731.93	71.6174	2,731.93	65.3992	2,731.93	72.0998	2,731.93	61.9434
2,828.61	88.2524	2,828.61	87.2919	2,828.61	87.4881	2,828.61	81.8809	2,828.61	83.6138	2,828.61	75.7311	2,828.61	78.4378	2,828.61	75.2798	2,828.61	69.3133	2,828.61	78.2526	2,828.61	79.6619	2,828.61	79.8879	2,828.61	77.9164	2,828.61	77.7959	2,828.61	77.8	2,828.61	76.5366	2,828.61	77.9889	2,828.61	72.9011	2,828.61	70.6037	2,828.61	74.5657	2,828.61	59.9526	2,828.61	69.8086	2,828.61	72.9527	2,828.61	75.6104	2,828.61	70.8167	2,828.61	73.966	2,828.61	61.4739	2,828.61	69.0009	2,828.61	61.4209	2,828.61	67.6046	2,828.61	71.7106	2,828.61	70.256	2,828.61	69.3926	2,828.61	69.0781	2,828.61	69.1295	2,828.61	70.7473
2,928.22	89.3146	2,928.22	88.604	2,928.22	87.3668	2,928.22	83.0809	2,928.22	84.0277	2,928.22	71.6032	2,928.22	76.5151	2,928.22	75.9777	2,928.22	70.2995	2,928.22	79.5959	2,928.22	79.133	2,928.22	80.2258	2,928.22	80.7474	2,928.22	76.1623	2,928.22	79.4852	2,928.22	75.2463	2,928.22	78.256	2,928.22	77.1946	2,928.22	69.4481	2,928.22	74.2191	2,928.22	65.4152	2,928.22	71.8239	2,928.22	72.2367	2,928.22	70.9728	2,928.22	70.3036	2,928.22	74.8849	2,928.22	65.2811	2,928.22	72.4945	2,928.22	51.9734	2,928.22	67.0398	2,928.22	69.9339	2,928.22	68.3983	2,928.22	62.7215	2,928.22	60.6907	2,928.22	71.6996	2,928.22	72.9919
3,030.76	89.8582	3,030.76	87.9732	3,030.76	87.5999	3,030.76	83.4983	3,030.76	83.4663	3,030.76	66.9379	3,030.76	72.5944	3,030.76	77.7189	3,030.76	76.8122	3,030.76	80.1386	3,030.76	80.1449	3,030.76	78.9598	3,030.76	81.6599	3,030.76	77.7581	3,030.76	80.6396	3,030.76	77.6117	3,030.76	76.8427	3,030.76	73.3668	3,030.76	74.076	3,030.76	72.8397	3,030.76	65.7577	3,030.76	73.3535	3,030.76	73.2324	3,030.76	68.7337	3,030.76	72.7187	3,030.76	72.5377	3,030.76	67.7546	3,030.76	72.7735	3,030.76	58.2041	3,030.76	68.1727	3,030.76	67.7862	3,030.76	66.2429	3,030.76	63.0073	3,030.76	57.0077	3,030.76	74.2248	3,030.76	72.6226
3,137.7	89.5875	3,137.7	87.5808	3,137.7	88.0933	3,137.7	83.7279	3,137.7	82.8467	3,137.7	50.4259	3,137.7	71.1289	3,137.7	78.2806	3,137.7	77.8953	3,137.7	80.0837	3,137.7	83.0507	3,137.7	79.491	3,137.7	80.2486	3,137.7	81.0799	3,137.7	80.803	3,137.7	76.7766	3,137.7	72.9142	3,137.7	74.2478	3,137.7	75.1391	3,137.7	75.332	3,137.7	68.3773	3,137.7	74.2845	3,137.7	70.1533	3,137.7	72.6323	3,137.7	73.6999	3,137.7	69.088	3,137.7	71.27	3,137.7	72.5642	3,137.7	65.8635	3,137.7	66.8834	3,137.7	66.8952	3,137.7	60.9594	3,137.7	64.5299	3,137.7	65.3362	3,137.7	76.8561	3,137.7	71.1975
3,249.02	88.8712	3,249.02	87.4007	3,249.02	87.5924	3,249.02	81.55	3,249.02	82.3153	3,249.02	71.3801	3,249.02	72.3792	3,249.02	79.2811	3,249.02	78.4863	3,249.02	79.6526	3,249.02	83.8487	3,249.02	80.4301	3,249.02	81.5717	3,249.02	78.604	3,249.02	80.2766	3,249.02	77.2141	3,249.02	64.0892	3,249.02	78.1466	3,249.02	76.5305	3,249.02	73.4088	3,249.02	73.6371	3,249.02	73.2085	3,249.02	71.1553	3,249.02	72.5259	3,249.02	68.7645	3,249.02	71.7909	3,249.02	70.6772	3,249.02	71.4271	3,249.02	67.0638	3,249.02	70.356	3,249.02	65.3883	3,249.02	63.3912	3,249.02	68.6179	3,249.02	66.311	3,249.02	75.3666	3,249.02	71.7054
3,363.28	88.8646	3,363.28	87.6267	3,363.28	87.3985	3,363.28	81.2753	3,363.28	81.6216	3,363.28	74.8434	3,363.28	71.9849	3,363.28	79.3664	3,363.28	78.6676	3,363.28	80.9061	3,363.28	83.158	3,363.28	80.8503	3,363.28	82.4315	3,363.28	79.0538	3,363.28	82.4271	3,363.28	79.7862	3,363.28	75.7729	3,363.28	74.2278	3,363.28	78.1505	3,363.28	72.6838	3,363.28	76.5184	3,363.28	72.3014	3,363.28	73.5606	3,363.28	72.9645	3,363.28	70.7649	3,363.28	70.2939	3,363.28	68.8424	3,363.28	71.1088	3,363.28	61.4254	3,363.28	68.4895	3,363.28	67.6466	3,363.28	65.1147	3,363.28	70.3155	3,363.28	62.3931	3,363.28	73.8644	3,363.28	70.2596
3,481.93	89.1081	3,481.93	87.738	3,481.93	87.279	3,481.93	81.9532	3,481.93	81.3177	3,481.93	78.5138	3,481.93	74.0796	3,481.93	79.4093	3,481.93	79.8836	3,481.93	82.2002	3,481.93	82.8787	3,481.93	80.354	3,481.93	83.6988	3,481.93	79.789	3,481.93	83.6781	3,481.93	74.3962	3,481.93	79.1472	3,481.93	75.1031	3,481.93	79.6689	3,481.93	72.7842	3,481.93	76.2935	3,481.93	70.8742	3,481.93	73.744	3,481.93	71.9824	3,481.93	69.9948	3,481.93	72.4642	3,481.93	66.6879	3,481.93	69.9398	3,481.93	44.2495	3,481.93	67.0861	3,481.93	69.7749	3,481.93	65.907	3,481.93	69.7513	3,481.93	64.6162	3,481.93	73.9437	3,481.93	69.8157
3,604.98	89.1478	3,604.98	87.2829	3,604.98	87.3197	3,604.98	81.8783	3,604.98	79.1398	3,604.98	80.5823	3,604.98	78.7214	3,604.98	81.1407	3,604.98	81.8555	3,604.98	81.5545	3,604.98	82.6428	3,604.98	81.7935	3,604.98	85.8715	3,604.98	78.1949	3,604.98	81.0264	3,604.98	78.7181	3,604.98	82.0389	3,604.98	75.7459	3,604.98	79.622	3,604.98	73.3256	3,604.98	74.9812	3,604.98	72.7456	3,604.98	74.7287	3,604.98	70.552	3,604.98	73.1225	3,604.98	71.3672	3,604.98	67.4373	3,604.98	70.3117	3,604.98	55.0895	3,604.98	68.388	3,604.98	70.1833	3,604.98	63.4889	3,604.98	69.4351	3,604.98	64.9708	3,604.98	74.0413	3,604.98	71.4949
3,732.42	89.1907	3,732.42	87.3001	3,732.42	87.9717	3,732.42	82.7083	3,732.42	80.1049	3,732.42	80.1629	3,732.42	78.5098	3,732.42	80.7571	3,732.42	81.1877	3,732.42	82.2751	3,732.42	81.4963	3,732.42	80.4971	3,732.42	86.1048	3,732.42	78.6042	3,732.42	81.5407	3,732.42	78.051	3,732.42	80.8546	3,732.42	73.9806	3,732.42	76.2356	3,732.42	74.3304	3,732.42	75.3718	3,732.42	71.2535	3,732.42	72.7158	3,732.42	71.1184	3,732.42	73.9561	3,732.42	72.228	3,732.42	69.6777	3,732.42	68.9219	3,732.42	58.5631	3,732.42	69.6952	3,732.42	70.257	3,732.42	61.1496	3,732.42	67.8872	3,732.42	62.403	3,732.42	74.2639	3,732.42	72.1259
3,864.26	87.6243	3,864.26	86.6045	3,864.26	86.7517	3,864.26	83.0667	3,864.26	81.2974	3,864.26	78.1733	3,864.26	78.757	3,864.26	82.377	3,864.26	81.2871	3,864.26	81.5506	3,864.26	82.6098	3,864.26	80.8348	3,864.26	85.6508	3,864.26	80.5968	3,864.26	81.3248	3,864.26	77.0062	3,864.26	79.3792	3,864.26	75.8292	3,864.26	68.4282	3,864.26	72.798	3,864.26	71.2095	3,864.26	73.2152	3,864.26	71.6028	3,864.26	71.7252	3,864.26	74.0288	3,864.26	71.8452	3,864.26	65.7317	3,864.26	70.2447	3,864.26	60.4706	3,864.26	69.6558	3,864.26	69.489	3,864.26	62.1805	3,864.26	70.9826	3,864.26	64.8815	3,864.26	73.2666	3,864.26	72.0747
4,000.49	86.9999	4,000.49	85.8972	4,000.49	85.495	4,000.49	82.1729	4,000.49	80.5917	4,000.49	79.4891	4,000.49	77.1072	4,000.49	81.8967	4,000.49	79.2859	4,000.49	81.2798	4,000.49	82.6444	4,000.49	81.1999	4,000.49	83.987	4,000.49	78.6879	4,000.49	78.145	4,000.49	77.9874	4,000.49	80.2073	4,000.49	75.0549	4,000.49	72.5952	4,000.49	71.7618	4,000.49	53.7235	4,000.49	70.1877	4,000.49	63.9575	4,000.49	70.7133	4,000.49	73.4256	4,000.49	70.6018	4,000.49	67.8064	4,000.49	70.4816	4,000.49	64.7697	4,000.49	66.3885	4,000.49	67.0232	4,000.49	63.1174	4,000.49	70.3689	4,000.49	66.4504	4,000.49	71.8671	4,000.49	70.9177
4,141.11	87.7836	4,141.11	85.5841	4,141.11	86.6554	4,141.11	81.4249	4,141.11	80.6618	4,141.11	80.0904	4,141.11	75.7655	4,141.11	81.5756	4,141.11	79.0172	4,141.11	82.3642	4,141.11	81.7719	4,141.11	80.5598	4,141.11	81.1622	4,141.11	79.9	4,141.11	77.1914	4,141.11	74.6383	4,141.11	77.5693	4,141.11	73.7343	4,141.11	69.8733	4,141.11	71.1061	4,141.11	65.8841	4,141.11	69.6244	4,141.11	70.9416	4,141.11	69.5152	4,141.11	71.5954	4,141.11	69.2966	4,141.11	70.4626	4,141.11	68.8331	4,141.11	67.5482	4,141.11	65.5075	4,141.11	67.2806	4,141.11	61.2329	4,141.11	68.2908	4,141.11	65.2068	4,141.11	72.8033	4,141.11	71.2352
4,287.6	87.8574	4,287.6	87.0044	4,287.6	85.8181	4,287.6	84.1531	4,287.6	81.4742	4,287.6	82.0276	4,287.6	75.2602	4,287.6	83.0837	4,287.6	80.0932	4,287.6	82.6924	4,287.6	81.0088	4,287.6	80.3705	4,287.6	81.0157	4,287.6	77.9045	4,287.6	78.9202	4,287.6	76.3719	4,287.6	75.6864	4,287.6	72.2797	4,287.6	61.331	4,287.6	70.4208	4,287.6	70.6101	4,287.6	69.5957	4,287.6	71.9199	4,287.6	67.559	4,287.6	65.586	4,287.6	67.5162	4,287.6	68.8765	4,287.6	65.4393	4,287.6	64.4925	4,287.6	64.2906	4,287.6	66.8508	4,287.6	60.1264	4,287.6	69.0001	4,287.6	61.5662	4,287.6	71.012	4,287.6	70.542
4,438.48	87.5837	4,438.48	86.599	4,438.48	86.6769	4,438.48	83.6043	4,438.48	82.3274	4,438.48	84.0972	4,438.48	80.0322	4,438.48	83.8606	4,438.48	81.1513	4,438.48	83.4243	4,438.48	82.3683	4,438.48	80.2858	4,438.48	81.12	4,438.48	79.0068	4,438.48	80.8576	4,438.48	75.8859	4,438.48	71.8593	4,438.48	73.6635	4,438.48	64.9416	4,438.48	71.5863	4,438.48	70.8376	4,438.48	67.8593	4,438.48	72.0402	4,438.48	67.0824	4,438.48	67.3638	4,438.48	67.3782	4,438.48	71.3655	4,438.48	63.6435	4,438.48	63.9895	4,438.48	64.8001	4,438.48	67.4523	4,438.48	57.7211	4,438.48	70.3021	4,438.48	61.1311	4,438.48	70.502	4,438.48	69.395
4,595.21	86.802	4,595.21	87.0737	4,595.21	85.2332	4,595.21	84.8849	4,595.21	82.6174	4,595.21	84.0717	4,595.21	80.7887	4,595.21	85.4973	4,595.21	82.4844	4,595.21	83.8542	4,595.21	82.6964	4,595.21	81.4802	4,595.21	82.6299	4,595.21	78.3292	4,595.21	80.416	4,595.21	76.6479	4,595.21	68.5731	4,595.21	72.3752	4,595.21	71.1302	4,595.21	70.0637	4,595.21	67.0307	4,595.21	68.1667	4,595.21	72.5181	4,595.21	66.8883	4,595.21	68.2416	4,595.21	65.8737	4,595.21	71.5678	4,595.21	63.3334	4,595.21	61.1907	4,595.21	58.577	4,595.21	66.1443	4,595.21	53.187	4,595.21	68.1631	4,595.21	46.4589	4,595.21	69.1145	4,595.21	68.3068
4,756.35	88.0835	4,756.35	87.6291	4,756.35	85.6504	4,756.35	86.198	4,756.35	82.9855	4,756.35	85.1886	4,756.35	83.4042	4,756.35	85.9323	4,756.35	82.1405	4,756.35	83.0731	4,756.35	81.9748	4,756.35	81.5461	4,756.35	82.2171	4,756.35	79.3555	4,756.35	80.8219	4,756.35	74.57	4,756.35	71.128	4,756.35	74.4515	4,756.35	73.5962	4,756.35	71.5737	4,756.35	61.8907	4,756.35	70.524	4,756.35	64.2073	4,756.35	68.3437	4,756.35	70.9719	4,756.35	66.599	4,756.35	66.4067	4,756.35	65.3502	4,756.35	66.5903	4,756.35	61.2692	4,756.35	67.9154	4,756.35	55.6244	4,756.35	67.4642	4,756.35	51.1655	4,756.35	68.3097	4,756.35	66.8683
4,924.8	87.4264	4,924.8	87.4058	4,924.8	85.46	4,924.8	85.1271	4,924.8	84.6968	4,924.8	85.8899	4,924.8	84.2777	4,924.8	84.9653	4,924.8	82.8477	4,924.8	83.9509	4,924.8	81.7736	4,924.8	79.9948	4,924.8	81.7988	4,924.8	78.5733	4,924.8	80.2793	4,924.8	75.1828	4,924.8	70.9934	4,924.8	73.1519	4,924.8	65.8578	4,924.8	71.4743	4,924.8	69.9546	4,924.8	69.1016	4,924.8	61.2646	4,924.8	67.145	4,924.8	70.4103	4,924.8	67.1717	4,924.8	64.788	4,924.8	66.879	4,924.8	71.3031	4,924.8	60.6991	4,924.8	66.2047	4,924.8	61.8285	4,924.8	69.8308	4,924.8	53.5482	4,924.8	67.855	4,924.8	66.47
5,097.66	87.2256	5,097.66	86.8204	5,097.66	84.2404	5,097.66	85.9065	5,097.66	86.5413	5,097.66	86.1382	5,097.66	84.9807	5,097.66	84.9535	5,097.66	82.2439	5,097.66	83.1009	5,097.66	82.5135	5,097.66	80.0166	5,097.66	81.2336	5,097.66	78.5188	5,097.66	78.9685	5,097.66	74.5526	5,097.66	74.3908	5,097.66	73.52	5,097.66	70.1351	5,097.66	71.5084	5,097.66	71.8301	5,097.66	71.0259	5,097.66	60.5279	5,097.66	69.4868	5,097.66	62.2002	5,097.66	68.4576	5,097.66	67.8704	5,097.66	67.8096	5,097.66	69.8144	5,097.66	62.3057	5,097.66	62.5538	5,097.66	58.196	5,097.66	69.8687	5,097.66	55.5763	5,097.66	67.5597	5,097.66	66.4807
5,277.83	87.6248	5,277.83	87.6504	5,277.83	85.6654	5,277.83	85.7161	5,277.83	85.2023	5,277.83	86.1636	5,277.83	85.0552	5,277.83	84.9001	5,277.83	83.3995	5,277.83	82.6183	5,277.83	81.959	5,277.83	80.4722	5,277.83	79.2729	5,277.83	77.7017	5,277.83	79.358	5,277.83	76.0981	5,277.83	77.0282	5,277.83	73.3895	5,277.83	73.8947	5,277.83	71.4812	5,277.83	72.0184	5,277.83	70.1758	5,277.83	66.2374	5,277.83	68.963	5,277.83	66.179	5,277.83	68.5159	5,277.83	67.732	5,277.83	67.9739	5,277.83	68.8308	5,277.83	65.8823	5,277.83	64.4703	5,277.83	61.6996	5,277.83	66.9459	5,277.83	56.1133	5,277.83	67.9867	5,277.83	62.9891
5,463.87	87.4895	5,463.87	86.8241	5,463.87	84.7798	5,463.87	86.3543	5,463.87	83.0187	5,463.87	85.4678	5,463.87	84.812	5,463.87	84.3885	5,463.87	85.2551	5,463.87	82.0637	5,463.87	80.4824	5,463.87	79.9598	5,463.87	76.4088	5,463.87	78.6707	5,463.87	78.144	5,463.87	74.5904	5,463.87	77.4245	5,463.87	73.786	5,463.87	75.9171	5,463.87	71.3778	5,463.87	72.7117	5,463.87	69.1816	5,463.87	59.978	5,463.87	68.8634	5,463.87	63.091	5,463.87	69.118	5,463.87	66.8606	5,463.87	68.1603	5,463.87	65.4927	5,463.87	65.9109	5,463.87	66.5901	5,463.87	62.1131	5,463.87	65.8216	5,463.87	58.6802	5,463.87	68.5392	5,463.87	63.8788
5,657.23	87.6718	5,657.23	86.7144	5,657.23	84.9823	5,657.23	86.6377	5,657.23	85.0581	5,657.23	85.215	5,657.23	84.9785	5,657.23	84.6913	5,657.23	85.1134	5,657.23	82.6698	5,657.23	77.6358	5,657.23	80.6342	5,657.23	75.618	5,657.23	78.3518	5,657.23	78.5869	5,657.23	76.0451	5,657.23	77.1766	5,657.23	73.1764	5,657.23	74.0539	5,657.23	71.4479	5,657.23	72.8439	5,657.23	68.6003	5,657.23	56.9307	5,657.23	68.1736	5,657.23	64.4335	5,657.23	69.0015	5,657.23	64.1022	5,657.23	66.9491	5,657.23	68.6847	5,657.23	67.0122	5,657.23	62.8232	5,657.23	61.732	5,657.23	68.7588	5,657.23	40.9556	5,657.23	69.0488	5,657.23	63.9709
5,856.45	87.9334	5,856.45	87.006	5,856.45	84.8874	5,856.45	86.4734	5,856.45	86.1584	5,856.45	84.7301	5,856.45	85.7673	5,856.45	83.6096	5,856.45	84.0602	5,856.45	82.5716	5,856.45	77.7712	5,856.45	79.9471	5,856.45	77.7483	5,856.45	78.4967	5,856.45	80.6368	5,856.45	73.9082	5,856.45	77.6993	5,856.45	71.4201	5,856.45	72.0805	5,856.45	69.6082	5,856.45	67.7173	5,856.45	66.9833	5,856.45	43.2633	5,856.45	65.8234	5,856.45	62.9898	5,856.45	66.0043	5,856.45	66.4103	5,856.45	66.0069	5,856.45	70.6142	5,856.45	65.6706	5,856.45	58.941	5,856.45	55.3371	5,856.45	67.5761	5,856.45	59.4633	5,856.45	69.964	5,856.45	63.8148
6,062.99	88.3008	6,062.99	87.2012	6,062.99	85.7305	6,062.99	86.1954	6,062.99	83.6996	6,062.99	84.5	6,062.99	87.0656	6,062.99	83.2676	6,062.99	83.5303	6,062.99	81.5332	6,062.99	76.885	6,062.99	79.1651	6,062.99	80.7337	6,062.99	76.1955	6,062.99	80.7728	6,062.99	71.5487	6,062.99	76.3255	6,062.99	68.9323	6,062.99	74.8253	6,062.99	66.5532	6,062.99	68.8585	6,062.99	66.1149	6,062.99	41.8382	6,062.99	63.8811	6,062.99	61.9431	6,062.99	63.7591	6,062.99	64.5564	6,062.99	64.2779	6,062.99	70.0118	6,062.99	65.6665	6,062.99	62.9454	6,062.99	59.7027	6,062.99	63.4351	6,062.99	58.3241	6,062.99	68.5587	6,062.99	63.0629
6,276.86	87.8271	6,276.86	86.8606	6,276.86	85.8113	6,276.86	85.4773	6,276.86	82.9508	6,276.86	84.3419	6,276.86	86.0397	6,276.86	83.1343	6,276.86	80.7086	6,276.86	81.2573	6,276.86	72.5429	6,276.86	77.8801	6,276.86	80.917	6,276.86	73.4004	6,276.86	80.3552	6,276.86	71.629	6,276.86	73.9209	6,276.86	68.3815	6,276.86	73.0908	6,276.86	67.9089	6,276.86	67.7629	6,276.86	66.4057	6,276.86	49.7926	6,276.86	63.3554	6,276.86	61.853	6,276.86	61.7551	6,276.86	65.6356	6,276.86	65.1833	6,276.86	68.2214	6,276.86	62.6732	6,276.86	62.9561	6,276.86	64.1434	6,276.86	66.1676	6,276.86	58.865	6,276.86	65.9847	6,276.86	62.3637
6,498.05	87.881	6,498.05	87.3636	6,498.05	87.1396	6,498.05	85.6834	6,498.05	84.2734	6,498.05	85.3822	6,498.05	84.3519	6,498.05	84.1716	6,498.05	75.7327	6,498.05	81.0279	6,498.05	75.5567	6,498.05	77.7034	6,498.05	79.8544	6,498.05	75.135	6,498.05	79.4984	6,498.05	70.6213	6,498.05	76.1446	6,498.05	70.1514	6,498.05	74.1543	6,498.05	66.8492	6,498.05	60.2443	6,498.05	65.6894	6,498.05	45.5213	6,498.05	66.6149	6,498.05	65.2164	6,498.05	63.7171	6,498.05	64.2199	6,498.05	67.347	6,498.05	62.8817	6,498.05	63.4523	6,498.05	62.8888	6,498.05	65.9975	6,498.05	67.1462	6,498.05	57.6552	6,498.05	64.4681	6,498.05	65.1716
6,726.56	87.5317	6,726.56	87.2988	6,726.56	87.6957	6,726.56	85.8172	6,726.56	84.9954	6,726.56	85.9904	6,726.56	82.7928	6,726.56	84.2831	6,726.56	78.5831	6,726.56	80.454	6,726.56	75.4248	6,726.56	77.9427	6,726.56	79.1978	6,726.56	74.9778	6,726.56	77.9584	6,726.56	71.5615	6,726.56	77.7183	6,726.56	70.0892	6,726.56	71.2778	6,726.56	68.3086	6,726.56	54.279	6,726.56	65.4972	6,726.56	54.6154	6,726.56	67.5006	6,726.56	68.9297	6,726.56	64.7856	6,726.56	58.0139	6,726.56	67.4457	6,726.56	61.8437	6,726.56	64.0937	6,726.56	63.6974	6,726.56	65.2037	6,726.56	66.8242	6,726.56	61.5157	6,726.56	66.6429	6,726.56	62.0795
6,963.87	88.2806	6,963.87	87.8076	6,963.87	87.0648	6,963.87	86.7608	6,963.87	85.4568	6,963.87	85.9148	6,963.87	84.3649	6,963.87	84.367	6,963.87	81.0111	6,963.87	80.0018	6,963.87	77.2236	6,963.87	77.8026	6,963.87	78.6201	6,963.87	75.2836	6,963.87	78.3511	6,963.87	73.2989	6,963.87	80.2404	6,963.87	69.8921	6,963.87	68.2871	6,963.87	68.8113	6,963.87	63.8227	6,963.87	66.4562	6,963.87	63.3058	6,963.87	66.1141	6,963.87	68.5709	6,963.87	66.2138	6,963.87	57.9301	6,963.87	68.4594	6,963.87	65.2128	6,963.87	65.097	6,963.87	63.8586	6,963.87	65.5852	6,963.87	66.6888	6,963.87	64.3882	6,963.87	65.7942	6,963.87	63.2009
7,209.96	89.0709	7,209.96	88.0398	7,209.96	88.2166	7,209.96	87.6985	7,209.96	86.2819	7,209.96	86.1114	7,209.96	86.7131	7,209.96	83.6889	7,209.96	83.8499	7,209.96	80.5587	7,209.96	79.0787	7,209.96	77.9834	7,209.96	77.6983	7,209.96	75.9754	7,209.96	79.8589	7,209.96	73.4764	7,209.96	80.4517	7,209.96	69.4052	7,209.96	61.1852	7,209.96	69.2317	7,209.96	50.9091	7,209.96	67.5101	7,209.96	65.419	7,209.96	67.7313	7,209.96	68.6268	7,209.96	66.0366	7,209.96	58.3403	7,209.96	67.3417	7,209.96	66.8267	7,209.96	67.7821	7,209.96	61.5901	7,209.96	67.1149	7,209.96	65.268	7,209.96	64.3907	7,209.96	64.7311	7,209.96	64.988
7,464.84	88.8335	7,464.84	88.3604	7,464.84	88.8481	7,464.84	87.8333	7,464.84	87.6346	7,464.84	86.3042	7,464.84	87.1536	7,464.84	83.5965	7,464.84	84.8038	7,464.84	81.0041	7,464.84	77.3887	7,464.84	78.6054	7,464.84	78.5887	7,464.84	75.238	7,464.84	79.1139	7,464.84	74.908	7,464.84	76.6074	7,464.84	71.0577	7,464.84	67.869	7,464.84	69.1209	7,464.84	64.7894	7,464.84	67.3988	7,464.84	61.6808	7,464.84	65.902	7,464.84	66.3186	7,464.84	67.2631	7,464.84	64.4628	7,464.84	66.2315	7,464.84	64.4915	7,464.84	67.9011	7,464.84	58.5909	7,464.84	66.7307	7,464.84	67.5048	7,464.84	63.7615	7,464.84	68.4579	7,464.84	64.136
7,727.05	89.6567	7,727.05	88.9664	7,727.05	88.7984	7,727.05	88.5361	7,727.05	87.3328	7,727.05	86.1719	7,727.05	86.8911	7,727.05	83.0041	7,727.05	84.3074	7,727.05	81.267	7,727.05	76.0706	7,727.05	78.6658	7,727.05	76.6402	7,727.05	76.6696	7,727.05	78.3698	7,727.05	73.5255	7,727.05	75.0189	7,727.05	70.1873	7,727.05	70.4771	7,727.05	68.707	7,727.05	63.2294	7,727.05	67.6792	7,727.05	59.6345	7,727.05	65.3427	7,727.05	57.5824	7,727.05	66.1852	7,727.05	65.7076	7,727.05	66.3743	7,727.05	66.2147	7,727.05	68.2215	7,727.05	62.5966	7,727.05	67.6683	7,727.05	65.8492	7,727.05	66.7572	7,727.05	65.5595	7,727.05	63.4763
7,999.51	88.9979	7,999.51	88.7984	7,999.51	89.3544	7,999.51	88.1797	7,999.51	87.4372	7,999.51	85.0691	7,999.51	85.0345	7,999.51	82.9034	7,999.51	84.2045	7,999.51	80.3202	7,999.51	75.1993	7,999.51	78.7782	7,999.51	77.4687	7,999.51	75.0317	7,999.51	76.995	7,999.51	73.5387	7,999.51	71.7963	7,999.51	69.2866	7,999.51	68.009	7,999.51	66.0502	7,999.51	65.5786	7,999.51	68.034	7,999.51	58.9911	7,999.51	65.0045	7,999.51	57.6233	7,999.51	65.0904	7,999.51	63.2844	7,999.51	65.4937	7,999.51	65.1942	7,999.51	68.681	7,999.51	63.9067	7,999.51	66.8178	7,999.51	66.6612	7,999.51	67.4823	7,999.51	66.579	7,999.51	63.5996
8,282.23	88.7094	8,282.23	88.4422	8,282.23	88.4927	8,282.23	87.6608	8,282.23	87.5103	8,282.23	84.3839	8,282.23	84.099	8,282.23	82.3311	8,282.23	83.2251	8,282.23	80.5916	8,282.23	78.9327	8,282.23	80.0627	8,282.23	77.6604	8,282.23	75.575	8,282.23	72.7195	8,282.23	74.6308	8,282.23	71.3197	8,282.23	70.6298	8,282.23	63.5211	8,282.23	68.2929	8,282.23	69.0653	8,282.23	65.7286	8,282.23	52.3275	8,282.23	67.3031	8,282.23	47.6586	8,282.23	65.7291	8,282.23	64.0782	8,282.23	65.0787	8,282.23	63.34	8,282.23	68.323	8,282.23	64.0806	8,282.23	67.679	8,282.23	67.0025	8,282.23	69.369	8,282.23	66.4323	8,282.23	64.3032
8,573.73	88.391	8,573.73	87.2708	8,573.73	88.2098	8,573.73	86.6488	8,573.73	88.0359	8,573.73	83.7203	8,573.73	83.8479	8,573.73	82.8157	8,573.73	82.4869	8,573.73	81.9538	8,573.73	81.0325	8,573.73	80.5291	8,573.73	72.7906	8,573.73	77.0275	8,573.73	74.1713	8,573.73	74.0502	8,573.73	76.8669	8,573.73	68.0303	8,573.73	67.4051	8,573.73	65.3401	8,573.73	68.0097	8,573.73	66.5558	8,573.73	49.6996	8,573.73	66.6889	8,573.73	58.2557	8,573.73	63.7445	8,573.73	66.4015	8,573.73	66.448	8,573.73	61.5103	8,573.73	67.3766	8,573.73	63.2409	8,573.73	65.2551	8,573.73	66.5462	8,573.73	68.0283	8,573.73	62.0762	8,573.73	63.3482
8,876.95	87.686	8,876.95	87.0552	8,876.95	86.9982	8,876.95	86.1144	8,876.95	87.7203	8,876.95	83.6655	8,876.95	85.4154	8,876.95	82.9942	8,876.95	81.5303	8,876.95	82.0087	8,876.95	80.3262	8,876.95	80.6999	8,876.95	71.5365	8,876.95	75.116	8,876.95	77.2231	8,876.95	72.6347	8,876.95	78.7766	8,876.95	70.6831	8,876.95	71.2797	8,876.95	66.3372	8,876.95	68.671	8,876.95	65.2297	8,876.95	54.9918	8,876.95	67.4529	8,876.95	57.7675	8,876.95	65.1827	8,876.95	65.9601	8,876.95	65.9705	8,876.95	61.9432	8,876.95	66.6788	8,876.95	62.8866	8,876.95	67.2439	8,876.95	63.7807	8,876.95	69.6184	8,876.95	61.653	8,876.95	63.8783
9,188.96	86.8477	9,188.96	85.9981	9,188.96	86.8469	9,188.96	83.9378	9,188.96	86.692	9,188.96	83.6021	9,188.96	86.0643	9,188.96	83.2301	9,188.96	82.6125	9,188.96	81.8018	9,188.96	80.7576	9,188.96	80.0134	9,188.96	61.1032	9,188.96	76.2173	9,188.96	80.8834	9,188.96	72.9771	9,188.96	79.6875	9,188.96	70.6616	9,188.96	74.4024	9,188.96	67.4708	9,188.96	65.1522	9,188.96	65.3977	9,188.96	59.3676	9,188.96	64.3829	9,188.96	59.56	9,188.96	65.6549	9,188.96	63.6241	9,188.96	65.9578	9,188.96	61.1484	9,188.96	66.0732	9,188.96	54.9401	9,188.96	66.0445	9,188.96	63.978	9,188.96	68.6406	9,188.96	58.0891	9,188.96	63.0263
9,514.16	86.5693	9,514.16	85.3144	9,514.16	86.2311	9,514.16	84.4899	9,514.16	86.9954	9,514.16	83.5759	9,514.16	85.1378	9,514.16	83.0328	9,514.16	84.517	9,514.16	82.0616	9,514.16	80.6327	9,514.16	79.448	9,514.16	73.3126	9,514.16	75.5223	9,514.16	80.7953	9,514.16	73.524	9,514.16	79.8851	9,514.16	68.3492	9,514.16	70.8147	9,514.16	65.065	9,514.16	62.1388	9,514.16	65.3056	9,514.16	62.0459	9,514.16	64.6613	9,514.16	59.4399	9,514.16	63.2593	9,514.16	60.5787	9,514.16	64.7051	9,514.16	58.4221	9,514.16	65.9344	9,514.16	64.5719	9,514.16	64.9808	9,514.16	61.9384	9,514.16	67.6624	9,514.16	58.365	9,514.16	64.146
9,849.61	86.9119	9,849.61	85.8529	9,849.61	86.361	9,849.61	85.4911	9,849.61	86.1173	9,849.61	83.8447	9,849.61	85.127	9,849.61	83.1134	9,849.61	84.6066	9,849.61	81.047	9,849.61	80.1533	9,849.61	78.9367	9,849.61	77.9802	9,849.61	72.8587	9,849.61	77.6889	9,849.61	71.5164	9,849.61	77.0924	9,849.61	67.2616	9,849.61	55.9475	9,849.61	63.4638	9,849.61	66.9909	9,849.61	63.9941	9,849.61	58.428	9,849.61	63.3506	9,849.61	50.3807	9,849.61	63.2084	9,849.61	55.2046	9,849.61	63.0553	9,849.61	61.4557	9,849.61	63.6879	9,849.61	63.5699	9,849.61	62.897	9,849.61	62.7937	9,849.61	68.01	9,849.61	58.5622	9,849.61	64.7022
10,196.8	87.44	10,196.8	86.6664	10,196.8	86.9622	10,196.8	86.2363	10,196.8	85.6493	10,196.8	84.823	10,196.8	85.4699	10,196.8	82.933	10,196.8	83.5527	10,196.8	79.8647	10,196.8	77.9577	10,196.8	78.2962	10,196.8	78.5563	10,196.8	71.6177	10,196.8	72.7608	10,196.8	70.3862	10,196.8	73.9469	10,196.8	66.8875	10,196.8	66.6068	10,196.8	64.5064	10,196.8	68.6497	10,196.8	64.3005	10,196.8	57.8241	10,196.8	62.4264	10,196.8	47.0174	10,196.8	63.4521	10,196.8	60.7455	10,196.8	63.1988	10,196.8	60.4001	10,196.8	61.3369	10,196.8	61.5065	10,196.8	63.1917	10,196.8	60.6489	10,196.8	67.5038	10,196.8	56.39	10,196.8	63.2537
10,555.7	87.7927	10,555.7	87.6175	10,555.7	87.4702	10,555.7	87.5928	10,555.7	85.7829	10,555.7	85.4227	10,555.7	84.4303	10,555.7	82.53	10,555.7	82.7945	10,555.7	79.1606	10,555.7	76.3847	10,555.7	76.6524	10,555.7	76.7107	10,555.7	71.031	10,555.7	70.6355	10,555.7	69.9566	10,555.7	70.286	10,555.7	66.8282	10,555.7	67.9828	10,555.7	63.5203	10,555.7	69.6486	10,555.7	63.5233	10,555.7	56.4454	10,555.7	63.2387	10,555.7	53.5756	10,555.7	62.5788	10,555.7	60.4871	10,555.7	58.7979	10,555.7	56.3453	10,555.7	62.9455	10,555.7	62.6002	10,555.7	62.9511	10,555.7	59.3613	10,555.7	64.8606	10,555.7	53.8139	10,555.7	61.5419
10,927.7	88.1211	10,927.7	87.8253	10,927.7	88.4411	10,927.7	87.9234	10,927.7	86.5161	10,927.7	85.9427	10,927.7	83.0856	10,927.7	83.1574	10,927.7	82.0485	10,927.7	78.7655	10,927.7	78.3844	10,927.7	76.8749	10,927.7	72.5469	10,927.7	72.1203	10,927.7	70.1517	10,927.7	71.1606	10,927.7	67.5103	10,927.7	68.3892	10,927.7	67.2968	10,927.7	62.7365	10,927.7	71.3371	10,927.7	63.421	10,927.7	60.1448	10,927.7	63.7805	10,927.7	55.4796	10,927.7	63.9094	10,927.7	52.4995	10,927.7	60.3089	10,927.7	55.3264	10,927.7	63.4533	10,927.7	61.9627	10,927.7	62.9127	10,927.7	59.4472	10,927.7	65.0608	10,927.7	56.8295	10,927.7	62.1532
11,313	88.2808	11,313	87.4495	11,313	88.3844	11,313	87.369	11,313	87.2271	11,313	86.15	11,313	84.2055	11,313	83.7331	11,313	82.3488	11,313	78.6401	11,313	78.4448	11,313	77.2161	11,313	67.2748	11,313	73.045	11,313	66.7563	11,313	69.988	11,313	70.4954	11,313	67.4479	11,313	67.5413	11,313	61.5166	11,313	71.95	11,313	63.2822	11,313	61.0669	11,313	62.1063	11,313	53.8227	11,313	62.5762	11,313	42.9573	11,313	60.5198	11,313	52.4293	11,313	62.8251	11,313	61.5435	11,313	61.5	11,313	57.2819	11,313	64.05	11,313	53.4952	11,313	60.9788
11,712.9	88.4306	11,712.9	88.4525	11,712.9	88.2545	11,712.9	87.4163	11,712.9	87.462	11,712.9	85.9492	11,712.9	86.1037	11,712.9	83.3845	11,712.9	80.7888	11,712.9	79.1554	11,712.9	78.3584	11,712.9	77.8347	11,712.9	70.6236	11,712.9	71.403	11,712.9	63.8266	11,712.9	67.5098	11,712.9	68.091	11,712.9	62.9965	11,712.9	66.1542	11,712.9	58.2006	11,712.9	72.4764	11,712.9	55.353	11,712.9	62.8177	11,712.9	57.561	11,712.9	51.7972	11,712.9	57.4675	11,712.9	52.1745	11,712.9	55.6345	11,712.9	52.1747	11,712.9	57.9335	11,712.9	60.7824	11,712.9	57.2874	11,712.9	56.0397	11,712.9	61.2309	11,712.9	53.6754	11,712.9	58.5673
12,126	88.962	12,126	89.497	12,126	88.7003	12,126	88.1847	12,126	87.7886	12,126	85.6241	12,126	85.3068	12,126	82.7534	12,126	80.6896	12,126	79.6491	12,126	77.3761	12,126	78.0464	12,126	68.7467	12,126	71.0368	12,126	59.4922	12,126	65.9319	12,126	64.8029	12,126	61.6639	12,126	67.661	12,126	55.1745	12,126	72.9195	12,126	48.554	12,126	61.6425	12,126	50.742	12,126	47.5689	12,126	50.2208	12,126	52.7589	12,126	46.9623	12,126	50.4758	12,126	49.2305	12,126	59.7479	12,126	50.9864	12,126	54.2604	12,126	55.0907	12,126	30.9745	12,126	53.0271
12,553.7	89.3634	12,553.7	89.9863	12,553.7	89.0434	12,553.7	88.9295	12,553.7	87.9336	12,553.7	85.7971	12,553.7	84.5311	12,553.7	82.4084	12,553.7	81.6123	12,553.7	79.3723	12,553.7	75.0271	12,553.7	77.6022	12,553.7	68.6498	12,553.7	70.5139	12,553.7	58.5666	12,553.7	63.212	12,553.7	65.7084	12,553.7	57.8914	12,553.7	68.1082	12,553.7	53.5272	12,553.7	74.0443	12,553.7	38.2051	12,553.7	61.9182	12,553.7	50.3507	12,553.7	47.9291	12,553.7	39.8481	12,553.7	52.0318	12,553.7	47.0868	12,553.7	53.9359	12,553.7	43.8552	12,553.7	56.4743	12,553.7	43.6298	12,553.7	52.4459	12,553.7	54.0365	12,553.7	39.731	12,553.7	53.113
12,996.1	89.8823	12,996.1	90.6007	12,996.1	89.2417	12,996.1	89.5089	12,996.1	88.3366	12,996.1	86.4253	12,996.1	85.1573	12,996.1	82.5669	12,996.1	81.843	12,996.1	78.7545	12,996.1	72.5754	12,996.1	76.2752	12,996.1	69.9035	12,996.1	67.53	12,996.1	64.4698	12,996.1	59.2232	12,996.1	67.1198	12,996.1	51.7724	12,996.1	67.0761	12,996.1	52.642	12,996.1	74.1271	12,996.1	47.1313	12,996.1	60.5515	12,996.1	50.6144	12,996.1	39.9699	12,996.1	42.3772	12,996.1	51.3551	12,996.1	41.5669	12,996.1	53.3777	12,996.1	40.4998	12,996.1	54.0602	12,996.1	24.9468	12,996.1	46.7578	12,996.1	52.3579	12,996.1	47.4951	12,996.1	51.5613
13,454.6	90.4512	13,454.6	91.1839	13,454.6	89.3797	13,454.6	90.1012	13,454.6	87.8169	13,454.6	86.7881	13,454.6	84.7411	13,454.6	83.0587	13,454.6	79.885	13,454.6	77.8744	13,454.6	73.5257	13,454.6	73.9864	13,454.6	70.8668	13,454.6	63.0203	13,454.6	64.1606	13,454.6	52.7711	13,454.6	65.4966	13,454.6	44.0103	13,454.6	67.2415	13,454.6	47.8248	13,454.6	73.6059	13,454.6	50.8215	13,454.6	62.2608	13,454.6	47.05	13,454.6	49.4242	13,454.6	44.4205	13,454.6	48.5875	13,454.6	38.4216	13,454.6	52.9615	13,454.6	42.6002	13,454.6	54.9821	13,454.6	36.216	13,454.6	49.28	13,454.6	50.2263	13,454.6	47.7868	13,454.6	49.4612
13,929.2	91.1999	13,929.2	91.8364	13,929.2	90.1333	13,929.2	90.4088	13,929.2	88.1621	13,929.2	87.095	13,929.2	84.4087	13,929.2	83.138	13,929.2	78.8105	13,929.2	77.0807	13,929.2	73.2685	13,929.2	72.4366	13,929.2	68.8251	13,929.2	57.9915	13,929.2	54.7378	13,929.2	50.2864	13,929.2	62.4482	13,929.2	42.6475	13,929.2	63.7697	13,929.2	47.2068	13,929.2	73.1076	13,929.2	50.8059	13,929.2	60.8898	13,929.2	45.6595	13,929.2	46.0716	13,929.2	47.0864	13,929.2	47.5522	13,929.2	36.5798	13,929.2	54.5403	13,929.2	41.2651	13,929.2	55.9297	13,929.2	43.7503	13,929.2	47.1328	13,929.2	47.2258	13,929.2	49.4645	13,929.2	50.1833
14,419.9	91.791	14,419.9	92.1826	14,419.9	90.5223	14,419.9	90.3052	14,419.9	87.7357	14,419.9	87.1929	14,419.9	83.9995	14,419.9	82.6901	14,419.9	78.508	14,419.9	75.7796	14,419.9	70.8575	14,419.9	70.8804	14,419.9	67.0527	14,419.9	57.657	14,419.9	55.96	14,419.9	56.2886	14,419.9	58.3688	14,419.9	55.1646	14,419.9	61.7985	14,419.9	49.1288	14,419.9	72.7392	14,419.9	21.3808	14,419.9	60.5527	14,419.9	48.4649	14,419.9	49.6895	14,419.9	48.2113	14,419.9	43.7518	14,419.9	43.2882	14,419.9	54.2085	14,419.9	47.1834	14,419.9	54.6788	14,419.9	44.0682	14,419.9	48.3268	14,419.9	47.8501	14,419.9	48.927	14,419.9	43.4586
14,928.2	92.304	14,928.2	92.4624	14,928.2	90.9553	14,928.2	90.5913	14,928.2	87.9715	14,928.2	87.2682	14,928.2	83.4544	14,928.2	81.9114	14,928.2	77.6895	14,928.2	73.5827	14,928.2	69.6212	14,928.2	69.1215	14,928.2	64.7329	14,928.2	64.6117	14,928.2	60.0985	14,928.2	64.109	14,928.2	55.4784	14,928.2	61.9823	14,928.2	55.7217	14,928.2	57.3938	14,928.2	71.0716	14,928.2	54.0422	14,928.2	58.6987	14,928.2	56.9979	14,928.2	48.443	14,928.2	55.6465	14,928.2	46.2737	14,928.2	53.9588	14,928.2	54.6068	14,928.2	55.5653	14,928.2	53.5923	14,928.2	52.9216	14,928.2	40.8736	14,928.2	51.3891	14,928.2	49.7237	14,928.2	47.1304
15,455.6	92.6667	15,455.6	92.7642	15,455.6	91.6063	15,455.6	91.2719	15,455.6	88.3306	15,455.6	87.7295	15,455.6	83.318	15,455.6	81.5207	15,455.6	75.3226	15,455.6	68.435	15,455.6	64.6194	15,455.6	68.2982	15,455.6	63.9773	15,455.6	70.0594	15,455.6	65.3996	15,455.6	69.3843	15,455.6	55.0484	15,455.6	65.2639	15,455.6	53.8642	15,455.6	62.3806	15,455.6	68.7832	15,455.6	59.2709	15,455.6	56.9673	15,455.6	62.1634	15,455.6	46.678	15,455.6	61.6982	15,455.6	49.1858	15,455.6	59.9166	15,455.6	56.7818	15,455.6	60.4544	15,455.6	50.5836	15,455.6	56.8687	15,455.6	52.1106	15,455.6	55.5329	15,455.6	51.0009	15,455.6	54.9155
16,000.5	92.6603	16,000.5	93.0973	16,000.5	91.6009	16,000.5	91.6771	16,000.5	88.7303	16,000.5	87.9829	16,000.5	82.7855	16,000.5	81.7387	16,000.5	68.0637	16,000.5	62.6477	16,000.5	61.097	16,000.5	69.7901	16,000.5	70.5912	16,000.5	72.0347	16,000.5	69.2542	16,000.5	70.6135	16,000.5	60.8287	16,000.5	66.0037	16,000.5	60.8316	16,000.5	64.3513	16,000.5	67.9904	16,000.5	59.4686	16,000.5	58.6866	16,000.5	63.5572	16,000.5	37.4637	16,000.5	63.3044	16,000.5	46.6859	16,000.5	61.7067	16,000.5	57.2545	16,000.5	61.3325	16,000.5	47.0695	16,000.5	57.7806	16,000.5	54.6938	16,000.5	55.9673	16,000.5	48.2833	16,000.5	56.8354
16,564.5	92.3335	16,564.5	93.0847	16,564.5	91.096	16,564.5	91.2227	16,564.5	88.2657	16,564.5	87.885	16,564.5	82.0292	16,564.5	81.2699	16,564.5	68.698	16,564.5	63.8748	16,564.5	66.6853	16,564.5	69.6499	16,564.5	72.2345	16,564.5	71.9199	16,564.5	69.7684	16,564.5	70.338	16,564.5	58.2489	16,564.5	65.2553	16,564.5	59.4906	16,564.5	63.3268	16,564.5	66.2787	16,564.5	57.8364	16,564.5	58.987	16,564.5	62.823	16,564.5	47.3102	16,564.5	62.1957	16,564.5	48.0695	16,564.5	59.4851	16,564.5	56.738	16,564.5	60.2835	16,564.5	49.7716	16,564.5	56.16	16,564.5	53.4688	16,564.5	54.1194	16,564.5	46.6145	16,564.5	55.3357
17,148.9	92.0981	17,148.9	92.7474	17,148.9	90.7792	17,148.9	90.6162	17,148.9	87.5527	17,148.9	87.0613	17,148.9	80.931	17,148.9	79.8278	17,148.9	66.0375	17,148.9	61.9102	17,148.9	67.5238	17,148.9	68.655	17,148.9	66.2184	17,148.9	70.9132	17,148.9	66.8504	17,148.9	67.9204	17,148.9	51.95	17,148.9	62.3246	17,148.9	56.1228	17,148.9	61.1441	17,148.9	64.0969	17,148.9	55.2508	17,148.9	57.2078	17,148.9	60.0628	17,148.9	45.8488	17,148.9	59.1873	17,148.9	45.074	17,148.9	56.0721	17,148.9	52.5449	17,148.9	58.2605	17,148.9	48.4291	17,148.9	53.1088	17,148.9	54.4917	17,148.9	52.9106	17,148.9	45.2952	17,148.9	53.7777
17,752.4	91.6234	17,752.4	92.3659	17,752.4	90.2042	17,752.4	89.9674	17,752.4	86.4008	17,752.4	86.1711	17,752.4	79.7917	17,752.4	78.1388	17,752.4	57.4874	17,752.4	53.1941	17,752.4	66.9776	17,752.4	70.1646	17,752.4	66.7156	17,752.4	69.3153	17,752.4	60.4126	17,752.4	66.5142	17,752.4	51.9088	17,752.4	60.7228	17,752.4	53.2244	17,752.4	59.9628	17,752.4	63.9049	17,752.4	55.6979	17,752.4	54.8089	17,752.4	58.6914	17,752.4	30.3007	17,752.4	56.8103	17,752.4	42.5785	17,752.4	55.5976	17,752.4	45.9768	17,752.4	55.8158	17,752.4	43.7322	17,752.4	49.984	17,752.4	50.2623	17,752.4	51.7868	17,752.4	44.6954	17,752.4	51.5391
18,379.4	91.1213	18,379.4	91.6481	18,379.4	89.1653	18,379.4	89.1729	18,379.4	84.5144	18,379.4	84.9987	18,379.4	78.5123	18,379.4	76.4933	18,379.4	56.453	18,379.4	59.8503	18,379.4	64.9992	18,379.4	70.0146	18,379.4	66.3091	18,379.4	69.1163	18,379.4	61.857	18,379.4	65.5836	18,379.4	49.9512	18,379.4	59.3288	18,379.4	44.756	18,379.4	58.4308	18,379.4	62.8856	18,379.4	56.2131	18,379.4	54.0457	18,379.4	57.1597	18,379.4	36.9167	18,379.4	54.8984	18,379.4	37.429	18,379.4	55.4992	18,379.4	49.1677	18,379.4	56.1979	18,379.4	41.4692	18,379.4	52.1747	18,379.4	47.2615	18,379.4	50.3645	18,379.4	45.6668	18,379.4	49.9638
19,026.9	90.8773	19,026.9	91.0974	19,026.9	87.933	19,026.9	88.0706	19,026.9	82.2479	19,026.9	83.22	19,026.9	75.0065	19,026.9	73.8999	19,026.9	58.7378	19,026.9	61.4914	19,026.9	58.3335	19,026.9	69.1055	19,026.9	55.2249	19,026.9	68.2555	19,026.9	57.7322	19,026.9	64.2091	19,026.9	42.3268	19,026.9	56.7201	19,026.9	47.2388	19,026.9	55.8076	19,026.9	61.0637	19,026.9	53.4649	19,026.9	51.217	19,026.9	53.9237	19,026.9	31.677	19,026.9	54.1076	19,026.9	12.0142	19,026.9	52.8634	19,026.9	46.2436	19,026.9	53.0816	19,026.9	34.9731	19,026.9	49.2735	19,026.9	47.6413	19,026.9	49.7675	19,026.9	43.5644	19,026.9	49.7677
19,697.8	90.3771	19,697.8	90.537	19,697.8	87.0827	19,697.8	86.6765	19,697.8	80.1689	19,697.8	80.5897	19,697.8	67.9344	19,697.8	70.1936	19,697.8	66.8022	19,697.8	62.7868	19,697.8	63.7228	19,697.8	66.7418	19,697.8	58.3463	19,697.8	66.1046	19,697.8	38.1801	19,697.8	61.4115	19,697.8	49.1757	19,697.8	50.8096	19,697.8	43.7812	19,697.8	50.8452	19,697.8	60.3984	19,697.8	49.3003	19,697.8	50.9708	19,697.8	48.8151	19,697.8	37.3398	19,697.8	48.8664	19,697.8	40.74	19,697.8	41.1576	19,697.8	44.045	19,697.8	41.8779	19,697.8	41.9202	19,697.8	38.8051	19,697.8	48.9664	19,697.8	42.553	19,697.8	37.1481	19,697.8	47.1907
19,999.5	90.0337	19,999.5	90.231	19,999.5	86.7162	19,999.5	86.0851	19,999.5	79.8377	19,999.5	79.4127	19,999.5	63.3304	19,999.5	67.735	19,999.5	70.6488	19,999.5	64.1054	19,999.5	66.8718	19,999.5	64.2795	19,999.5	59.3095	19,999.5	65.5322	19,999.5	55.7449	19,999.5	57.0061	19,999.5	47.4993	19,999.5	51.7849	19,999.5	50.5324	19,999.5	45.5532	19,999.5	61.4969	19,999.5	48.9889	19,999.5	51.783	19,999.5	35.2631	19,999.5	46.209	19,999.5	43.8842	19,999.5	46.2543	19,999.5	46.3389	19,999.5	48.9899	19,999.5	48.4219	19,999.5	53.5761	19,999.5	46.6243	19,999.5	56.2232	19,999.5	42.567	19,999.5	50.9721	19,999.5	46.1153
