"SPL Horizontal"
"On-Axis"		"10°"		"-10°"		"20°"		"-20°"		"30°"		"-30°"		"40°"		"-40°"		"50°"		"-50°"		"60°"		"-60°"		"70°"		"-70°"		"80°"		"-80°"		"90°"		"-90°"		"100°"		"-100°"		"110°"		"-110°"		"120°"		"-120°"		"130°"		"-130°"		"140°"		"-140°"		"150°"		"-150°"		"160°"		"-160°"		"170°"		"-170°"		"180°"
"Frequency [Hz]"	"Sound Pessure Level [dB]  / [2.83V 1m] "	"Frequency [Hz]"	"Sound Pessure Level [dB]  / [2.83V 1m] "	"Frequency [Hz]"	"Sound Pessure Level [dB]  / [2.83V 1m] "	"Frequency [Hz]"	"Sound Pessure Level [dB]  / [2.83V 1m] "	"Frequency [Hz]"	"Sound Pessure Level [dB]  / [2.83V 1m] "	"Frequency [Hz]"	"Sound Pessure Level [dB]  / [2.83V 1m] "	"Frequency [Hz]"	"Sound Pessure Level [dB]  / [2.83V 1m] "	"Frequency [Hz]"	"Sound Pessure Level [dB]  / [2.83V 1m] "	"Frequency [Hz]"	"Sound Pessure Level [dB]  / [2.83V 1m] "	"Frequency [Hz]"	"Sound Pessure Level [dB]  / [2.83V 1m] "	"Frequency [Hz]"	"Sound Pessure Level [dB]  / [2.83V 1m] "	"Frequency [Hz]"	"Sound Pessure Level [dB]  / [2.83V 1m] "	"Frequency [Hz]"	"Sound Pessure Level [dB]  / [2.83V 1m] "	"Frequency [Hz]"	"Sound Pessure Level [dB]  / [2.83V 1m] "	"Frequency [Hz]"	"Sound Pessure Level [dB]  / [2.83V 1m] "	"Frequency [Hz]"	"Sound Pessure Level [dB]  / [2.83V 1m] "	"Frequency [Hz]"	"Sound Pessure Level [dB]  / [2.83V 1m] "	"Frequency [Hz]"	"Sound Pessure Level [dB]  / [2.83V 1m] "	"Frequency [Hz]"	"Sound Pessure Level [dB]  / [2.83V 1m] "	"Frequency [Hz]"	"Sound Pessure Level [dB]  / [2.83V 1m] "	"Frequency [Hz]"	"Sound Pessure Level [dB]  / [2.83V 1m] "	"Frequency [Hz]"	"Sound Pessure Level [dB]  / [2.83V 1m] "	"Frequency [Hz]"	"Sound Pessure Level [dB]  / [2.83V 1m] "	"Frequency [Hz]"	"Sound Pessure Level [dB]  / [2.83V 1m] "	"Frequency [Hz]"	"Sound Pessure Level [dB]  / [2.83V 1m] "	"Frequency [Hz]"	"Sound Pessure Level [dB]  / [2.83V 1m] "	"Frequency [Hz]"	"Sound Pessure Level [dB]  / [2.83V 1m] "	"Frequency [Hz]"	"Sound Pessure Level [dB]  / [2.83V 1m] "	"Frequency [Hz]"	"Sound Pessure Level [dB]  / [2.83V 1m] "	"Frequency [Hz]"	"Sound Pessure Level [dB]  / [2.83V 1m] "	"Frequency [Hz]"	"Sound Pessure Level [dB]  / [2.83V 1m] "	"Frequency [Hz]"	"Sound Pessure Level [dB]  / [2.83V 1m] "	"Frequency [Hz]"	"Sound Pessure Level [dB]  / [2.83V 1m] "	"Frequency [Hz]"	"Sound Pessure Level [dB]  / [2.83V 1m] "	"Frequency [Hz]"	"Sound Pessure Level [dB]  / [2.83V 1m] "	"Frequency [Hz]"	"Sound Pessure Level [dB]  / [2.83V 1m] "
20.5078	38.9421	20.5078	39.8223	20.5078	38.4678	20.5078	40.9988	20.5078	38.4466	20.5078	42.3495	20.5078	38.8539	20.5078	43.7783	20.5078	39.6306	20.5078	45.2237	20.5078	40.7171	20.5078	46.6489	20.5078	42.0564	20.5078	48.0318	20.5078	43.5836	20.5078	49.3571	20.5078	45.2247	20.5078	50.612	20.5078	46.9041	20.5078	51.7844	20.5078	48.5548	20.5078	52.8611	20.5078	50.1232	20.5078	53.8274	20.5078	51.5683	20.5078	54.6668	20.5078	52.8592	20.5078	55.3619	20.5078	53.9721	20.5078	55.8945	20.5078	54.8888	20.5078	56.2473	20.5078	55.5957	20.5078	56.4044	20.5078	56.0846	20.5078	56.3531
21.9727	45.5831	21.9727	45.317	21.9727	45.6639	21.9727	44.8741	21.9727	45.5426	21.9727	44.2592	21.9727	45.1908	21.9727	43.4846	21.9727	44.5629	21.9727	42.598	21.9727	43.5848	21.9727	41.7407	21.9727	42.1317	21.9727	41.2176	21.9727	39.9901	21.9727	41.416	21.9727	36.8757	21.9727	42.4348	21.9727	33.7039	21.9727	43.9501	21.9727	35.7896	21.9727	45.5771	21.9727	40.1661	21.9727	47.0924	21.9727	43.57	21.9727	48.4015	21.9727	46.0805	21.9727	49.47	21.9727	47.9453	21.9727	50.2859	21.9727	49.3134	21.9727	50.8434	21.9727	50.2708	21.9727	51.1357	21.9727	50.8714	21.9727	51.1511
23.4375	39.6323	23.4375	40.6868	23.4375	38.9786	23.4375	41.9804	23.4375	38.8667	23.4375	43.3798	23.4375	39.3498	23.4375	44.7948	23.4375	40.3627	23.4375	46.1719	23.4375	41.7581	23.4375	47.4832	23.4375	43.3727	23.4375	48.7158	23.4375	45.0714	23.4375	49.8651	23.4375	46.7592	23.4375	50.9292	23.4375	48.3744	23.4375	51.9066	23.4375	49.8785	23.4375	52.795	23.4375	51.2471	23.4375	53.5911	23.4375	52.4634	23.4375	54.2905	23.4375	53.5145	23.4375	54.8866	23.4375	54.3893	23.4375	55.3703	23.4375	55.0786	23.4375	55.7283	23.4375	55.5765	23.4375	55.9444	23.4375	55.8822	23.4375	56.001
24.9023	45.7782	24.9023	46.1601	24.9023	45.4373	24.9023	46.5931	24.9023	45.1486	24.9023	47.098	24.9023	44.9506	24.9023	47.6932	24.9023	44.9069	24.9023	48.3841	24.9023	45.0918	24.9023	49.159	24.9023	45.5618	24.9023	49.9916	24.9023	46.3243	24.9023	50.8482	24.9023	47.3288	24.9023	51.695	24.9023	48.4869	24.9023	52.5021	24.9023	49.7048	24.9023	53.2467	24.9023	50.9039	24.9023	53.9126	24.9023	52.027	24.9023	54.4889	24.9023	53.0348	24.9023	54.9674	24.9023	53.9006	24.9023	55.3394	24.9023	54.6065	24.9023	55.5936	24.9023	55.1416	24.9023	55.7156	24.9023	55.5016	24.9023	55.6897
26.3672	45.3332	26.3672	45.2954	26.3672	45.3371	26.3672	45.2601	26.3672	45.3119	26.3672	45.3029	26.3672	45.3035	26.3672	45.5229	26.3672	45.3982	26.3672	46.0029	26.3672	45.7081	26.3672	46.7628	26.3672	46.3275	26.3672	47.7474	26.3672	47.2743	26.3672	48.8622	26.3672	48.4722	26.3672	50.017	26.3672	49.7971	26.3672	51.1474	26.3672	51.1336	26.3672	52.2156	26.3672	52.4005	26.3672	53.2019	26.3672	53.5473	26.3672	54.0951	26.3672	54.5428	26.3672	54.8851	26.3672	55.3656	26.3672	55.5577	26.3672	55.9987	26.3672	56.093	26.3672	56.4289	26.3672	56.4675	26.3672	56.6488	26.3672	56.6585
27.832	53.4283	27.832	53.4433	27.832	53.4008	27.832	53.445	27.832	53.3739	27.832	53.4447	27.832	53.373	27.832	53.466	27.832	53.4322	27.832	53.5429	27.832	53.5882	27.832	53.7154	27.832	53.8709	27.832	54.0196	27.832	54.2931	27.832	54.4746	27.832	54.8461	27.832	55.0724	27.832	55.5024	27.832	55.7788	27.832	56.2239	27.832	56.5445	27.832	56.9705	27.832	57.3178	27.832	57.704	27.832	58.0532	27.832	58.3893	27.832	58.714	27.832	58.9942	27.832	59.2706	27.832	59.4897	27.832	59.6992	27.832	59.8508	27.832	59.9811	27.832	60.0589	27.832	60.103
29.2969	52.8204	29.2969	52.7929	29.2969	52.7905	29.2969	52.7159	29.2969	52.7053	29.2969	52.6076	29.2969	52.5774	29.2969	52.4985	29.2969	52.4322	29.2969	52.4328	29.2969	52.3107	29.2969	52.465	29.2969	52.2685	29.2969	52.6482	29.2969	52.3674	29.2969	53.015	29.2969	52.656	29.2969	53.5602	29.2969	53.1482	29.2969	54.2412	29.2969	53.8144	29.2969	54.9954	29.2969	54.5933	29.2969	55.7593	29.2969	55.4129	29.2969	56.4808	29.2969	56.2071	29.2969	57.12	29.2969	56.9221	29.2969	57.6473	29.2969	57.5173	29.2969	58.0393	29.2969	57.964	29.2969	58.2775	29.2969	58.2438	29.2969	58.3482
30.7617	52.704	30.7617	52.4347	30.7617	52.8856	30.7617	52.0779	30.7617	52.9935	30.7617	51.6558	30.7617	53.0529	30.7617	51.2248	30.7617	53.0981	30.7617	50.8901	30.7617	53.1711	30.7617	50.8007	30.7617	53.3173	30.7617	51.0922	30.7617	53.5793	30.7617	51.7924	30.7617	53.9859	30.7617	52.7948	30.7617	54.5414	30.7617	53.9362	30.7617	55.2212	30.7617	55.0793	30.7617	55.977	30.7617	56.1378	30.7617	56.75	30.7617	57.0662	30.7617	57.4834	30.7617	57.843	30.7617	58.1299	30.7617	58.4588	30.7617	58.6546	30.7617	58.9097	30.7617	59.0342	30.7617	59.1934	30.7617	59.2545	30.7617	59.3084
32.2266	55.4112	32.2266	55.389	32.2266	55.3807	32.2266	55.3231	32.2266	55.2987	32.2266	55.2331	32.2266	55.1765	32.2266	55.1503	32.2266	55.0374	32.2266	55.1158	32.2266	54.9179	32.2266	55.1752	32.2266	54.8669	32.2266	55.3657	32.2266	54.9375	32.2266	55.7031	32.2266	55.1716	32.2266	56.1742	32.2266	55.5801	32.2266	56.7417	32.2266	56.1356	32.2266	57.3566	32.2266	56.7823	32.2266	57.9696	32.2266	57.4561	32.2266	58.5389	32.2266	58.1008	32.2266	59.0314	32.2266	58.6751	32.2266	59.4233	32.2266	59.152	32.2266	59.6987	32.2266	59.5152	32.2266	59.848	32.2266	59.7553	32.2266	59.867
33.6914	55.354	33.6914	55.2579	33.6914	55.4016	33.6914	55.1241	33.6914	55.403	33.6914	54.977	33.6914	55.3723	33.6914	54.8564	33.6914	55.3357	33.6914	54.8152	33.6914	55.3299	33.6914	54.9095	33.6914	55.3977	33.6914	55.1802	33.6914	55.5787	33.6914	55.6336	33.6914	55.8969	33.6914	56.2371	33.6914	56.3505	33.6914	56.9326	33.6914	56.9116	33.6914	57.6573	33.6914	57.5352	33.6914	58.3564	33.6914	58.1712	33.6914	58.9884	33.6914	58.7754	33.6914	59.524	33.6914	59.3134	33.6914	59.9439	33.6914	59.761	33.6914	60.2368	33.6914	60.1023	33.6914	60.398	33.6914	60.3268	33.6914	60.427
35.1562	56.3773	35.1562	56.3096	35.1562	56.4601	35.1562	56.2703	35.1562	56.5583	35.1562	56.2863	35.1562	56.684	35.1562	56.3936	35.1562	56.8582	35.1562	56.6279	35.1562	57.1059	35.1562	57.011	35.1562	57.4496	35.1562	57.5406	35.1562	57.9012	35.1562	58.1895	35.1562	58.4561	35.1562	58.914	35.1562	59.0921	35.1562	59.6661	35.1562	59.7744	35.1562	60.4024	35.1562	60.4635	35.1562	61.0882	35.1562	61.1223	35.1562	61.6985	35.1562	61.72	35.1562	62.2161	35.1562	62.2331	35.1562	62.6296	35.1562	62.6449	35.1562	62.9316	35.1562	62.9441	35.1562	63.1169	35.1562	63.1241	35.1562	63.1818
36.6211	60.2247	36.6211	60.2078	36.6211	60.247	36.6211	60.204	36.6211	60.2745	36.6211	60.2276	36.6211	60.3144	36.6211	60.2978	36.6211	60.3797	36.6211	60.4354	36.6211	60.4875	36.6211	60.6573	36.6211	60.6556	36.6211	60.9717	36.6211	60.8978	36.6211	61.3738	36.6211	61.2197	36.6211	61.8457	36.6211	61.6156	36.6211	62.3597	36.6211	62.0692	36.6211	62.8842	36.6211	62.5567	36.6211	63.3882	36.6211	63.051	36.6211	63.8454	36.6211	63.5248	36.6211	64.2351	36.6211	63.9538	36.6211	64.5422	36.6211	64.3178	36.6211	64.7564	36.6211	64.6009	36.6211	64.8709	36.6211	64.7915	36.6211	64.8827
38.0859	62.3635	38.0859	62.3722	38.0859	62.3595	38.0859	62.3909	38.0859	62.3603	38.0859	62.4298	38.0859	62.3715	38.0859	62.5023	38.0859	62.4041	38.0859	62.6232	38.0859	62.4722	38.0859	62.8055	38.0859	62.5909	38.0859	63.057	38.0859	62.7725	38.0859	63.3772	38.0859	63.0236	38.0859	63.7556	38.0859	63.3419	38.0859	64.1732	38.0859	63.7165	38.0859	64.6056	38.0859	64.1292	38.0859	65.027	38.0859	64.5574	38.0859	65.414	38.0859	64.9774	38.0859	65.7462	38.0859	65.3667	38.0859	66.0078	38.0859	65.7053	38.0859	66.1867	38.0859	65.9764	38.0859	66.2747	38.0859	66.167	38.0859	66.268
39.5508	63.226	39.5508	63.228	39.5508	63.2204	39.5508	63.2305	39.5508	63.2118	39.5508	63.2424	39.5508	63.206	39.5508	63.2765	39.5508	63.213	39.5508	63.3479	39.5508	63.2457	39.5508	63.4709	39.5508	63.3184	39.5508	63.6557	39.5508	63.444	39.5508	63.9047	39.5508	63.6305	39.5508	64.2104	39.5508	63.8793	39.5508	64.5569	39.5508	64.1832	39.5508	64.9226	39.5508	64.5278	39.5508	65.2847	39.5508	64.8933	39.5508	65.6217	39.5508	65.2576	39.5508	65.9148	39.5508	65.5988	39.5508	66.1486	39.5508	65.8974	39.5508	66.3111	39.5508	66.1369	39.5508	66.3936	39.5508	66.3045	39.5508	66.3914
41.0156	64.0241	41.0156	64.0328	41.0156	64.0152	41.0156	64.0456	41.0156	64.006	41.0156	64.0703	41.0156	64.0011	41.0156	64.1173	41.0156	64.0093	41.0156	64.1979	41.0156	64.0426	41.0156	64.3227	41.0156	64.115	41.0156	64.499	41.0156	64.2397	41.0156	64.729	41.0156	64.4259	41.0156	65.0085	41.0156	64.6765	41.0156	65.3272	41.0156	64.9857	41.0156	65.6703	41.0156	65.3395	41.0156	66.0197	41.0156	65.717	41.0156	66.356	41.0156	66.0939	41.0156	66.6594	41.0156	66.4454	41.0156	66.9112	41.0156	66.7493	41.0156	67.0956	41.0156	66.9872	41.0156	67.2003	41.0156	67.1461	41.0156	67.218
42.4805	66.0627	42.4805	66.0373	42.4805	66.0841	42.4805	66.0112	42.4805	66.1016	42.4805	65.9912	42.4805	66.1191	42.4805	65.9872	42.4805	66.144	42.4805	66.0111	42.4805	66.1863	42.4805	66.0754	42.4805	66.2583	42.4805	66.1906	42.4805	66.372	42.4805	66.3628	42.4805	66.5368	42.4805	66.5919	42.4805	66.7561	42.4805	66.8703	42.4805	67.0257	42.4805	67.1846	42.4805	67.3331	42.4805	67.5168	42.4805	67.6592	42.4805	67.8471	42.4805	67.981	42.4805	68.1554	42.4805	68.2755	42.4805	68.4226	42.4805	68.5218	42.4805	68.6323	42.4805	68.7033	42.4805	68.7716	42.4805	68.8087	42.4805	68.8318
43.9453	67.1983	43.9453	67.2349	43.9453	67.1612	43.9453	67.2735	43.9453	67.1249	43.9453	67.3199	43.9453	67.0946	43.9453	67.3821	43.9453	67.0798	43.9453	67.4693	43.9453	67.0925	43.9453	67.5898	43.9453	67.1465	43.9453	67.7495	43.9453	67.254	43.9453	67.9501	43.9453	67.4228	43.9453	68.1883	43.9453	67.6537	43.9453	68.4558	43.9453	67.9387	43.9453	68.7401	43.9453	68.2626	43.9453	69.026	43.9453	68.6045	43.9453	69.2972	43.9453	68.9421	43.9453	69.5376	43.9453	69.2538	43.9453	69.7329	43.9453	69.5215	43.9453	69.8713	43.9453	69.7316	43.9453	69.9441	43.9453	69.8747	43.9453	69.946
45.4102	68.4535	45.4102	68.4718	45.4102	68.4396	45.4102	68.4958	45.4102	68.4317	45.4102	68.5295	45.4102	68.4343	45.4102	68.5788	45.4102	68.4547	45.4102	68.651	45.4102	68.5017	45.4102	68.7533	45.4102	68.5847	45.4102	68.8916	45.4102	68.7115	45.4102	69.0693	45.4102	68.8862	45.4102	69.2856	45.4102	69.1077	45.4102	69.5351	45.4102	69.3691	45.4102	69.8077	45.4102	69.6581	45.4102	70.0895	45.4102	69.9588	45.4102	70.3642	45.4102	70.2531	45.4102	70.6145	45.4102	70.5236	45.4102	70.8244	45.4102	70.7545	45.4102	70.9804	45.4102	70.9327	45.4102	71.0729	45.4102	71.0485	45.4102	71.0961
46.875	69.6291	46.875	69.6543	46.875	69.6062	46.875	69.6822	46.875	69.5878	46.875	69.7152	46.875	69.5787	46.875	69.758	46.875	69.5857	46.875	69.8163	46.875	69.6172	46.875	69.8965	46.875	69.6817	46.875	70.0049	46.875	69.7863	46.875	70.1463	46.875	69.9348	46.875	70.3227	46.875	70.1263	46.875	70.5319	46.875	70.3547	46.875	70.7664	46.875	70.6094	46.875	71.0141	46.875	70.8762	46.875	71.259	46.875	71.1393	46.875	71.4838	46.875	71.3828	46.875	71.6726	46.875	71.5924	46.875	71.812	46.875	71.7559	46.875	71.893	46.875	71.864	46.875	71.9106
48.3398	70.8747	48.3398	70.8794	48.3398	70.8714	48.3398	70.8857	48.3398	70.8717	48.3398	70.8968	48.3398	70.8801	48.3398	70.9182	48.3398	70.9026	48.3398	70.9577	48.3398	70.946	48.3398	71.024	48.3398	71.0169	48.3398	71.125	48.3398	71.1204	48.3398	71.2658	48.3398	71.2592	48.3398	71.4467	48.3398	71.4323	48.3398	71.6623	48.3398	71.6347	48.3398	71.9013	48.3398	71.8581	48.3398	72.1487	48.3398	72.0909	48.3398	72.3878	48.3398	72.3204	48.3398	72.6027	48.3398	72.5332	48.3398	72.7797	48.3398	72.7171	48.3398	72.9084	48.3398	72.8612	48.3398	72.9824	48.3398	72.957	48.3398	72.9985
51.2695	73.0441	51.2695	73.0544	51.2695	73.0366	51.2695	73.0689	51.2695	73.032	51.2695	73.0907	51.2695	73.0325	51.2695	73.1243	51.2695	73.0423	51.2695	73.1747	51.2695	73.0666	51.2695	73.2469	51.2695	73.1116	51.2695	73.345	51.2695	73.1829	51.2695	73.4707	51.2695	73.2846	51.2695	73.6229	51.2695	73.4175	51.2695	73.797	51.2695	73.5793	51.2695	73.9854	51.2695	73.7637	51.2695	74.1779	51.2695	73.9618	51.2695	74.3631	51.2695	74.1623	51.2695	74.529	51.2695	74.3535	51.2695	74.6647	51.2695	74.5236	51.2695	74.7608	51.2695	74.6618	51.2695	74.8104	51.2695	74.7594	51.2695	74.81
52.7344	73.6983	52.7344	73.7293	52.7344	73.6727	52.7344	73.7668	52.7344	73.6532	52.7344	73.8132	52.7344	73.6424	52.7344	73.8719	52.7344	73.6449	52.7344	73.947	52.7344	73.6663	52.7344	74.0419	52.7344	73.7129	52.7344	74.1591	52.7344	73.79	52.7344	74.2993	52.7344	73.9009	52.7344	74.4604	52.7344	74.0455	52.7344	74.6378	52.7344	74.2205	52.7344	74.8242	52.7344	74.4188	52.7344	75.0101	52.7344	74.631	52.7344	75.1847	52.7344	74.8455	52.7344	75.3372	52.7344	75.0504	52.7344	75.4579	52.7344	75.2336	52.7344	75.5385	52.7344	75.3847	52.7344	75.5731	52.7344	75.495	52.7344	75.5587
54.1992	74.7645	54.1992	74.7861	54.1992	74.746	54.1992	74.8111	54.1992	74.7319	54.1992	74.841	54.1992	74.7245	54.1992	74.8782	54.1992	74.7277	54.1992	74.9255	54.1992	74.7461	54.1992	74.986	54.1992	74.7846	54.1992	75.0624	54.1992	74.8471	54.1992	75.1564	54.1992	74.9365	54.1992	75.2682	54.1992	75.053	54.1992	75.3961	54.1992	75.1942	54.1992	75.5364	54.1992	75.3551	54.1992	75.6832	54.1992	75.5275	54.1992	75.8285	54.1992	75.7016	54.1992	75.9636	54.1992	75.866	54.1992	76.079	54.1992	76.0095	54.1992	76.1663	54.1992	76.1223	54.1992	76.218	54.1992	76.1969	54.1992	76.2291
55.6641	75.0543	55.6641	75.0649	55.6641	75.052	55.6641	75.084	55.6641	75.06	55.6641	75.1132	55.6641	75.0816	55.6641	75.1557	55.6641	75.1216	55.6641	75.2152	55.6641	75.1848	55.6641	75.2957	55.6641	75.2753	55.6641	75.4005	55.6641	75.3952	55.6641	75.5311	55.6641	75.5442	55.6641	75.687	55.6641	75.7188	55.6641	75.8646	55.6641	75.9128	55.6641	76.0575	55.6641	76.1174	55.6641	76.2566	55.6641	76.3226	55.6641	76.4514	55.6641	76.5173	55.6641	76.631	55.6641	76.691	55.6641	76.785	55.6641	76.8343	55.6641	76.9047	55.6641	76.9395	55.6641	76.9831	55.6641	77.0011	55.6641	77.0158
58.5938	76.4918	58.5938	76.5026	58.5938	76.4912	58.5938	76.5239	58.5938	76.5008	58.5938	76.5567	58.5938	76.5214	58.5938	76.6022	58.5938	76.5539	58.5938	76.6618	58.5938	76.5996	58.5938	76.7369	58.5938	76.6599	58.5938	76.8281	58.5938	76.7362	58.5938	76.9353	58.5938	76.829	58.5938	77.0569	58.5938	76.9383	58.5938	77.1901	58.5938	77.0625	58.5938	77.3302	58.5938	77.1985	58.5938	77.4714	58.5938	77.3412	58.5938	77.6066	58.5938	77.4843	58.5938	77.7281	58.5938	77.6203	58.5938	77.8283	58.5938	77.741	58.5938	77.9004	58.5938	77.839	58.5938	77.9392	58.5938	77.9074	58.5938	77.9416
60.0586	76.8838	60.0586	76.8939	60.0586	76.8834	60.0586	76.9141	60.0586	76.8929	60.0586	76.9449	60.0586	76.9132	60.0586	76.9877	60.0586	76.9453	60.0586	77.0437	60.0586	76.991	60.0586	77.1141	60.0586	77.0518	60.0586	77.1998	60.0586	77.129	60.0586	77.3009	60.0586	77.2235	60.0586	77.4163	60.0586	77.3347	60.0586	77.5437	60.0586	77.4609	60.0586	77.679	60.0586	77.5981	60.0586	77.8169	60.0586	77.741	60.0586	77.9505	60.0586	77.8825	60.0586	78.0724	60.0586	78.0148	60.0586	78.1749	60.0586	78.1298	60.0586	78.2513	60.0586	78.2203	60.0586	78.2961	60.0586	78.2804	60.0586	78.3062
62.9883	77.6242	62.9883	77.6394	62.9883	77.6183	62.9883	77.6638	62.9883	77.6223	62.9883	77.6976	62.9883	77.637	62.9883	77.7412	62.9883	77.6635	62.9883	77.7953	62.9883	77.7031	62.9883	77.8603	62.9883	77.7569	62.9883	77.9366	62.9883	77.8256	62.9883	78.0238	62.9883	77.9095	62.9883	78.121	62.9883	78.0076	62.9883	78.2263	62.9883	78.1176	62.9883	78.3367	62.9883	78.2361	62.9883	78.4481	62.9883	78.3584	62.9883	78.5554	62.9883	78.4787	62.9883	78.6528	62.9883	78.5906	62.9883	78.7346	62.9883	78.6876	62.9883	78.7952	62.9883	78.7639	62.9883	78.8304	62.9883	78.8148	62.9883	78.8372
64.4531	77.8926	64.4531	77.9069	64.4531	77.8875	64.4531	77.9302	64.4531	77.8921	64.4531	77.9627	64.4531	77.9071	64.4531	78.0046	64.4531	77.9334	64.4531	78.0564	64.4531	77.9718	64.4531	78.1184	64.4531	78.0232	64.4531	78.1909	64.4531	78.0881	64.4531	78.2734	64.4531	78.1663	64.4531	78.3652	64.4531	78.2569	64.4531	78.4644	64.4531	78.3582	64.4531	78.5681	64.4531	78.4671	64.4531	78.6724	64.4531	78.5798	64.4531	78.7725	64.4531	78.6911	64.4531	78.8629	64.4531	78.7953	64.4531	78.9383	64.4531	78.8862	64.4531	78.9937	64.4531	78.9584	64.4531	79.025	64.4531	79.0072	64.4531	79.0298
67.3828	78.3848	67.3828	78.3994	67.3828	78.3787	67.3828	78.422	67.3828	78.3814	67.3828	78.4523	67.3828	78.3938	67.3828	78.4902	67.3828	78.4164	67.3828	78.5358	67.3828	78.4499	67.3828	78.5889	67.3828	78.4946	67.3828	78.6493	67.3828	78.5506	67.3828	78.7164	67.3828	78.6174	67.3828	78.7894	67.3828	78.694	67.3828	78.8667	67.3828	78.7783	67.3828	78.9463	67.3828	78.8678	67.3828	79.0256	67.3828	78.9588	67.3828	79.1015	67.3828	79.0473	67.3828	79.1703	67.3828	79.1286	67.3828	79.2282	67.3828	79.1982	67.3828	79.2716	67.3828	79.2524	67.3828	79.2972	67.3828	79.2879	67.3828	79.303
68.8477	78.5879	68.8477	78.5969	68.8477	78.5865	68.8477	78.6135	68.8477	78.5931	68.8477	78.6374	68.8477	78.6082	68.8477	78.6688	68.8477	78.632	68.8477	78.7075	68.8477	78.6649	68.8477	78.7536	68.8477	78.707	68.8477	78.8069	68.8477	78.7582	68.8477	78.8668	68.8477	78.8182	68.8477	78.9325	68.8477	78.886	68.8477	79.0029	68.8477	78.9605	68.8477	79.076	68.8477	79.0397	68.8477	79.1498	68.8477	79.1206	68.8477	79.2214	68.8477	79.1995	68.8477	79.2874	68.8477	79.2724	68.8477	79.3441	68.8477	79.3348	68.8477	79.3878	68.8477	79.3827	68.8477	79.4153	68.8477	79.413	68.8477	79.424
71.7773	78.9483	71.7773	78.9499	71.7773	78.9552	71.7773	78.9599	71.7773	78.9701	71.7773	78.9783	71.7773	78.993	71.7773	79.005	71.7773	79.0232	71.7773	79.0395	71.7773	79.0604	71.7773	79.0815	71.7773	79.1038	71.7773	79.1302	71.7773	79.153	71.7773	79.1852	71.7773	79.2076	71.7773	79.2457	71.7773	79.2671	71.7773	79.3107	71.7773	79.3309	71.7773	79.379	71.7773	79.3979	71.7773	79.4484	71.7773	79.4661	71.7773	79.5164	71.7773	79.5329	71.7773	79.5797	71.7773	79.5944	71.7773	79.6346	71.7773	79.6469	71.7773	79.6776	71.7773	79.6865	71.7773	79.7058	71.7773	79.7105	71.7773	79.7171
74.707	79.1877	74.707	79.187	74.707	79.1973	74.707	79.1957	74.707	79.2153	74.707	79.2137	74.707	79.241	74.707	79.2406	74.707	79.2736	74.707	79.2759	74.707	79.3123	74.707	79.3186	74.707	79.3561	74.707	79.3679	74.707	79.4044	74.707	79.4228	74.707	79.4564	74.707	79.4823	74.707	79.5116	74.707	79.5451	74.707	79.5691	74.707	79.6097	74.707	79.6281	74.707	79.6739	74.707	79.687	74.707	79.7352	74.707	79.7437	74.707	79.7907	74.707	79.7958	74.707	79.8375	74.707	79.8403	74.707	79.8731	74.707	79.8744	74.707	79.8954	74.707	79.8959	74.707	79.9031
77.6367	79.3382	77.6367	79.3384	77.6367	79.3479	77.6367	79.349	77.6367	79.3667	77.6367	79.3698	77.6367	79.3937	77.6367	79.4005	77.6367	79.4278	77.6367	79.4401	77.6367	79.468	77.6367	79.4875	77.6367	79.5137	77.6367	79.5414	77.6367	79.564	77.6367	79.6003	77.6367	79.6185	77.6367	79.6626	77.6367	79.6762	77.6367	79.7268	77.6367	79.7361	77.6367	79.7908	77.6367	79.7968	77.6367	79.8528	77.6367	79.8567	77.6367	79.9106	77.6367	79.9134	77.6367	79.9622	77.6367	79.9646	77.6367	80.0055	77.6367	80.0078	77.6367	80.0386	77.6367	80.0404	77.6367	80.0595	77.6367	80.0606	77.6367	80.0671
79.1016	79.5039	79.1016	79.5067	79.1016	79.5115	79.1016	79.5203	79.1016	79.5287	79.1016	79.5445	79.1016	79.5548	79.1016	79.5788	79.1016	79.5887	79.1016	79.6222	79.1016	79.6297	79.1016	79.6731	79.1016	79.6768	79.1016	79.7299	79.1016	79.7293	79.1016	79.7906	79.1016	79.786	79.1016	79.8531	79.1016	79.8457	79.1016	79.9156	79.1016	79.9069	79.1016	79.976	79.1016	79.9678	79.1016	80.0329	79.1016	80.0265	79.1016	80.0848	79.1016	80.0809	79.1016	80.1304	79.1016	80.1291	79.1016	80.1684	79.1016	80.1689	79.1016	80.1973	79.1016	80.1986	79.1016	80.2157	79.1016	80.2167	79.1016	80.2224
82.0312	79.8701	82.0312	79.877	82.0312	79.8743	82.0312	79.895	82.0312	79.8893	82.0312	79.9233	82.0312	79.9146	82.0312	79.961	82.0312	79.9491	82.0312	80.0065	82.0312	79.9916	82.0312	80.0581	82.0312	80.0407	82.0312	80.1135	82.0312	80.0947	82.0312	80.1707	82.0312	80.152	82.0312	80.2278	82.0312	80.2107	82.0312	80.2829	82.0312	80.2692	82.0312	80.335	82.0312	80.3258	82.0312	80.3828	82.0312	80.3788	82.0312	80.4259	82.0312	80.4267	82.0312	80.4634	82.0312	80.4678	82.0312	80.4948	82.0312	80.5007	82.0312	80.5189	82.0312	80.5245	82.0312	80.5349	82.0312	80.5381	82.0312	80.5415
84.9609	80.0669	84.9609	80.0739	84.9609	80.0712	84.9609	80.0922	84.9609	80.0863	84.9609	80.1209	84.9609	80.1111	84.9609	80.1584	84.9609	80.144	84.9609	80.2028	84.9609	80.1834	84.9609	80.2515	84.9609	80.2273	84.9609	80.3019	84.9609	80.2739	84.9609	80.3516	84.9609	80.3213	84.9609	80.3985	84.9609	80.368	84.9609	80.4412	84.9609	80.4124	84.9609	80.4785	84.9609	80.4532	84.9609	80.5103	84.9609	80.4897	84.9609	80.5366	84.9609	80.521	84.9609	80.5575	84.9609	80.5468	84.9609	80.5736	84.9609	80.5669	84.9609	80.585	84.9609	80.5813	84.9609	80.5916	84.9609	80.59	84.9609	80.5934
87.8906	80.3281	87.8906	80.3288	87.8906	80.3372	87.8906	80.3393	87.8906	80.3554	87.8906	80.3587	87.8906	80.3817	87.8906	80.3856	87.8906	80.4142	87.8906	80.418	87.8906	80.451	87.8906	80.4538	87.8906	80.4899	87.8906	80.4905	87.8906	80.5287	87.8906	80.5261	87.8906	80.5655	87.8906	80.5588	87.8906	80.5985	87.8906	80.5873	87.8906	80.6265	87.8906	80.611	87.8906	80.6488	87.8906	80.6298	87.8906	80.6651	87.8906	80.644	87.8906	80.676	87.8906	80.6544	87.8906	80.682	87.8906	80.6621	87.8906	80.6841	87.8906	80.668	87.8906	80.6834	87.8906	80.6729	87.8906	80.6809	87.8906	80.6772
90.8203	80.5629	90.8203	80.5738	90.8203	80.5628	90.8203	80.5952	90.8203	80.5734	90.8203	80.6255	90.8203	80.5936	90.8203	80.6627	90.8203	80.6215	90.8203	80.7045	90.8203	80.655	90.8203	80.7481	90.8203	80.6918	90.8203	80.7911	90.8203	80.7297	90.8203	80.8312	90.8203	80.7665	90.8203	80.8667	90.8203	80.801	90.8203	80.8963	90.8203	80.832	90.8203	80.9197	90.8203	80.859	90.8203	80.9368	90.8203	80.882	90.8203	80.9484	90.8203	80.9012	90.8203	80.9555	90.8203	80.917	90.8203	80.9589	90.8203	80.9299	90.8203	80.9595	90.8203	80.9402	90.8203	80.9578	90.8203	80.9482	90.8203	80.954
95.2148	80.9027	95.2148	80.9086	95.2148	80.9065	95.2148	80.9236	95.2148	80.9198	95.2148	80.9462	95.2148	80.9419	95.2148	80.9748	95.2148	80.9713	95.2148	81.0072	95.2148	81.0058	95.2148	81.0411	95.2148	81.0432	95.2148	81.0743	95.2148	81.0809	95.2148	81.1045	95.2148	81.1165	95.2148	81.1301	95.2148	81.1478	95.2148	81.1499	95.2148	81.1733	95.2148	81.1637	95.2148	81.1922	95.2148	81.1719	95.2148	81.2041	95.2148	81.1757	95.2148	81.2095	95.2148	81.1768	95.2148	81.2095	95.2148	81.1771	95.2148	81.2055	95.2148	81.1782	95.2148	81.1992	95.2148	81.181	95.2148	81.1922	95.2148	81.1858
98.1445	81.0378	98.1445	81.0464	98.1445	81.0401	98.1445	81.0652	98.1445	81.053	98.1445	81.0929	98.1445	81.0754	98.1445	81.1272	98.1445	81.1056	98.1445	81.1654	98.1445	81.1414	98.1445	81.2048	98.1445	81.1802	98.1445	81.2422	98.1445	81.2196	98.1445	81.2755	98.1445	81.2569	98.1445	81.3025	98.1445	81.29	98.1445	81.3225	98.1445	81.3173	98.1445	81.3353	98.1445	81.3378	98.1445	81.3417	98.1445	81.3513	98.1445	81.3431	98.1445	81.3581	98.1445	81.3416	98.1445	81.3594	98.1445	81.3392	98.1445	81.3568	98.1445	81.3377	98.1445	81.3517	98.1445	81.3383	98.1445	81.3461	98.1445	81.3412
101.074	81.2341	101.074	81.2375	101.074	81.2411	101.074	81.251	101.074	81.258	101.074	81.2732	101.074	81.2835	101.074	81.3021	101.074	81.3157	101.074	81.3347	101.074	81.3524	101.074	81.3681	101.074	81.391	101.074	81.3992	101.074	81.429	101.074	81.4254	101.074	81.4636	101.074	81.4451	101.074	81.4927	101.074	81.4576	101.074	81.5145	101.074	81.4633	101.074	81.5278	101.074	81.4636	101.074	81.5326	101.074	81.4607	101.074	81.5298	101.074	81.457	101.074	81.521	101.074	81.4548	101.074	81.5084	101.074	81.4555	101.074	81.4943	101.074	81.4602	101.074	81.4805	101.074	81.4687
105.469	81.5865	105.469	81.5849	105.469	81.5952	105.469	81.591	105.469	81.6102	105.469	81.6043	105.469	81.6301	105.469	81.6237	105.469	81.6531	105.469	81.6477	105.469	81.6774	105.469	81.6741	105.469	81.7009	105.469	81.7003	105.469	81.7218	105.469	81.7238	105.469	81.7383	105.469	81.7421	105.469	81.749	105.469	81.7532	105.469	81.753	105.469	81.7558	105.469	81.7501	105.469	81.7499	105.469	81.741	105.469	81.7367	105.469	81.7269	105.469	81.7189	105.469	81.7102	105.469	81.6997	105.469	81.6933	105.469	81.6827	105.469	81.6789	105.469	81.671	105.469	81.6693	105.469	81.6664
108.398	81.7145	108.398	81.7178	108.398	81.7182	108.398	81.7276	108.398	81.7287	108.398	81.7431	108.398	81.745	108.398	81.7628	108.398	81.7657	108.398	81.7847	108.398	81.7888	108.398	81.8065	108.398	81.8121	108.398	81.8261	108.398	81.8335	108.398	81.8411	108.398	81.8508	108.398	81.8498	108.398	81.8628	108.398	81.8511	108.398	81.8686	108.398	81.845	108.398	81.8683	108.398	81.8328	108.398	81.8625	108.398	81.8168	108.398	81.8521	108.398	81.8	108.398	81.8382	108.398	81.7858	108.398	81.8222	108.398	81.7769	108.398	81.8058	108.398	81.7749	108.398	81.791	108.398	81.78
112.793	82.1822	112.793	82.2002	112.793	82.1708	112.793	82.2243	112.793	82.1663	112.793	82.2531	112.793	82.1682	112.793	82.285	112.793	82.1753	112.793	82.3177	112.793	82.1859	112.793	82.3485	112.793	82.1981	112.793	82.3744	112.793	82.2093	112.793	82.3925	112.793	82.217	112.793	82.4001	112.793	82.2193	112.793	82.3957	112.793	82.2148	112.793	82.3786	112.793	82.2035	112.793	82.3501	112.793	82.1864	112.793	82.3125	112.793	82.166	112.793	82.2697	112.793	82.1454	112.793	82.2259	112.793	82.1283	112.793	82.1856	112.793	82.1183	112.793	82.1526	112.793	82.1183	112.793	82.1297
117.188	82.3912	117.188	82.3877	117.188	82.4	117.188	82.3899	117.188	82.4131	117.188	82.3976	117.188	82.4292	117.188	82.4096	117.188	82.4468	117.188	82.4239	117.188	82.4644	117.188	82.4381	117.188	82.4803	117.188	82.4492	117.188	82.493	117.188	82.4545	117.188	82.5008	117.188	82.4517	117.188	82.5022	117.188	82.4399	117.188	82.4958	117.188	82.4192	117.188	82.4808	117.188	82.3913	117.188	82.4571	117.188	82.3592	117.188	82.4257	117.188	82.3268	117.188	82.3893	117.188	82.2985	117.188	82.3516	117.188	82.2782	117.188	82.3168	117.188	82.2691	117.188	82.2895	117.188	82.2729
120.117	82.5974	120.117	82.5912	120.117	82.6099	120.117	82.5916	120.117	82.6279	120.117	82.5977	120.117	82.6497	120.117	82.6077	120.117	82.6734	120.117	82.6194	120.117	82.6971	120.117	82.6298	120.117	82.719	120.117	82.6365	120.117	82.7376	120.117	82.6376	120.117	82.7515	120.117	82.6321	120.117	82.7596	120.117	82.6201	120.117	82.761	120.117	82.603	120.117	82.7549	120.117	82.5833	120.117	82.741	120.117	82.564	120.117	82.7197	120.117	82.5484	120.117	82.6921	120.117	82.5397	120.117	82.6605	120.117	82.54	120.117	82.6274	120.117	82.55	120.117	82.596	120.117	82.5693
124.512	82.8527	124.512	82.8391	124.512	82.874	124.512	82.8328	124.512	82.9028	124.512	82.8323	124.512	82.9379	124.512	82.8358	124.512	82.9774	124.512	82.8409	124.512	83.0191	124.512	82.8457	124.512	83.0606	124.512	82.8484	124.512	83.0993	124.512	82.8481	124.512	83.133	124.512	82.8447	124.512	83.1594	124.512	82.8389	124.512	83.1766	124.512	82.8325	124.512	83.183	124.512	82.8279	124.512	83.1776	124.512	82.8282	124.512	83.1605	124.512	82.8359	124.512	83.1324	124.512	82.853	124.512	83.0952	124.512	82.8799	124.512	83.0517	124.512	82.9158	124.512	83.005	124.512	82.9585
128.906	83.2248	128.906	83.241	128.906	83.213	128.906	83.2611	128.906	83.2059	128.906	83.284	128.906	83.2031	128.906	83.3081	128.906	83.2038	128.906	83.3312	128.906	83.2067	128.906	83.3505	128.906	83.2101	128.906	83.3634	128.906	83.2119	128.906	83.3675	128.906	83.21	128.906	83.361	128.906	83.2029	128.906	83.343	128.906	83.1895	128.906	83.3141	128.906	83.17	128.906	83.2761	128.906	83.1456	128.906	83.2319	128.906	83.1188	128.906	83.1856	128.906	83.0925	128.906	83.1413	128.906	83.0704	128.906	83.103	128.906	83.0554	128.906	83.074	128.906	83.0501	128.906	83.0561
133.301	83.5498	133.301	83.5611	133.301	83.5418	133.301	83.5757	133.301	83.5365	133.301	83.5931	133.301	83.5332	133.301	83.6124	133.301	83.531	133.301	83.6319	133.301	83.5288	133.301	83.6494	133.301	83.5254	133.301	83.6626	133.301	83.5197	133.301	83.6689	133.301	83.5108	133.301	83.6663	133.301	83.498	133.301	83.6534	133.301	83.4815	133.301	83.6303	133.301	83.4618	133.301	83.5981	133.301	83.4404	133.301	83.5592	133.301	83.4192	133.301	83.5173	133.301	83.4006	133.301	83.4761	133.301	83.3867	133.301	83.4395	133.301	83.3794	133.301	83.4104	133.301	83.3803	133.301	83.3905
139.16	83.7515	139.16	83.7561	139.16	83.7504	139.16	83.7635	139.16	83.753	139.16	83.7731	139.16	83.7592	139.16	83.7837	139.16	83.7684	139.16	83.7942	139.16	83.7796	139.16	83.8032	139.16	83.7912	139.16	83.8091	139.16	83.8011	139.16	83.8104	139.16	83.8075	139.16	83.806	139.16	83.8086	139.16	83.7952	139.16	83.8029	139.16	83.7779	139.16	83.7902	139.16	83.755	139.16	83.7709	139.16	83.7283	139.16	83.7464	139.16	83.7005	139.16	83.719	139.16	83.675	139.16	83.6918	139.16	83.6551	139.16	83.6679	139.16	83.6435	139.16	83.6505	139.16	83.6419
143.555	84.0258	143.555	84.0272	143.555	84.0275	143.555	84.0309	143.555	84.0326	143.555	84.0361	143.555	84.0411	143.555	84.042	143.555	84.0529	143.555	84.0473	143.555	84.0669	143.555	84.051	143.555	84.0819	143.555	84.052	143.555	84.096	143.555	84.0495	143.555	84.1071	143.555	84.0427	143.555	84.1131	143.555	84.0312	143.555	84.1119	143.555	84.0151	143.555	84.1025	143.555	83.995	143.555	84.0846	143.555	83.9726	143.555	84.0589	143.555	83.95	143.555	84.0276	143.555	83.9304	143.555	83.994	143.555	83.917	143.555	83.9622	143.555	83.9126	143.555	83.9361	143.555	83.919
147.949	84.2606	147.949	84.2654	147.949	84.2583	147.949	84.2724	147.949	84.2583	147.949	84.2811	147.949	84.2605	147.949	84.2906	147.949	84.2644	147.949	84.2994	147.949	84.2693	147.949	84.3058	147.949	84.2744	147.949	84.3083	147.949	84.2786	147.949	84.3052	147.949	84.2805	147.949	84.2958	147.949	84.2787	147.949	84.2797	147.949	84.2719	147.949	84.2575	147.949	84.2591	147.949	84.2305	147.949	84.2403	147.949	84.201	147.949	84.2162	147.949	84.1718	147.949	84.1889	147.949	84.1457	147.949	84.1615	147.949	84.1258	147.949	84.1375	147.949	84.1141	147.949	84.1203	147.949	84.1121
153.809	84.4982	153.809	84.5036	153.809	84.4886	153.809	84.506	153.809	84.4743	153.809	84.5066	153.809	84.4557	153.809	84.5066	153.809	84.4336	153.809	84.5067	153.809	84.4092	153.809	84.5066	153.809	84.3838	153.809	84.5052	153.809	84.3587	153.809	84.5007	153.809	84.3345	153.809	84.4912	153.809	84.3119	153.809	84.4754	153.809	84.2915	153.809	84.4528	153.809	84.2738	153.809	84.4239	153.809	84.259	153.809	84.3907	153.809	84.2476	153.809	84.3558	153.809	84.2397	153.809	84.3223	153.809	84.2356	153.809	84.2928	153.809	84.2357	153.809	84.269	153.809	84.2408	153.809	84.2517
159.668	84.8364	159.668	84.8444	159.668	84.8274	159.668	84.8512	159.668	84.8178	159.668	84.8562	159.668	84.8083	159.668	84.8588	159.668	84.7989	159.668	84.8579	159.668	84.7897	159.668	84.8522	159.668	84.7801	159.668	84.8401	159.668	84.769	159.668	84.8201	159.668	84.7546	159.668	84.7912	159.668	84.7353	159.668	84.7534	159.668	84.7099	159.668	84.7084	159.668	84.6781	159.668	84.6591	159.668	84.6411	159.668	84.6097	159.668	84.6015	159.668	84.5644	159.668	84.5628	159.668	84.5268	159.668	84.5285	159.668	84.4991	159.668	84.5016	159.668	84.4827	159.668	84.4843	159.668	84.4778
165.527	85.0325	165.527	85.0382	165.527	85.0204	165.527	85.0383	165.527	85.0014	165.527	85.0343	165.527	84.9764	165.527	85.0274	165.527	84.9468	165.527	85.0189	165.527	84.9142	165.527	85.0093	165.527	84.8806	165.527	84.9984	165.527	84.8468	165.527	84.9847	165.527	84.8131	165.527	84.9663	165.527	84.7793	165.527	84.9406	165.527	84.7445	165.527	84.9057	165.527	84.7085	165.527	84.8608	165.527	84.6712	165.527	84.8074	165.527	84.6342	165.527	84.7486	165.527	84.5999	165.527	84.6894	165.527	84.5719	165.527	84.6355	165.527	84.5542	165.527	84.592	165.527	84.5505	165.527	84.563
171.387	85.2602	171.387	85.24	171.387	85.2799	171.387	85.2201	171.387	85.2976	171.387	85.2006	171.387	85.3112	171.387	85.1811	171.387	85.3188	171.387	85.1604	171.387	85.3186	171.387	85.1377	171.387	85.3096	171.387	85.1122	171.387	85.2913	171.387	85.084	171.387	85.2641	171.387	85.0538	171.387	85.2291	171.387	85.0224	171.387	85.1877	171.387	84.991	171.387	85.1417	171.387	84.9605	171.387	85.0933	171.387	84.9321	171.387	85.045	171.387	84.9072	171.387	84.9991	171.387	84.8877	171.387	84.9578	171.387	84.8756	171.387	84.923	171.387	84.8725	171.387	84.8965	171.387	84.8794
177.246	85.1634	177.246	85.1789	177.246	85.1491	177.246	85.195	177.246	85.137	177.246	85.2115	177.246	85.1283	177.246	85.2284	177.246	85.1244	177.246	85.2456	177.246	85.1261	177.246	85.2627	177.246	85.133	177.246	85.2789	177.246	85.1432	177.246	85.2923	177.246	85.1532	177.246	85.3001	177.246	85.1585	177.246	85.299	177.246	85.1551	177.246	85.2853	177.246	85.1399	177.246	85.2563	177.246	85.1124	177.246	85.2114	177.246	85.0745	177.246	85.1531	177.246	85.0307	177.246	85.0877	177.246	84.9877	177.246	85.0244	177.246	84.9537	177.246	84.9734	177.246	84.9368	177.246	84.9429
183.105	85.529	183.105	85.5302	183.105	85.5196	183.105	85.5239	183.105	85.5026	183.105	85.5111	183.105	85.4791	183.105	85.4935	183.105	85.4519	183.105	85.4733	183.105	85.4244	183.105	85.4529	183.105	85.4007	183.105	85.4348	183.105	85.3851	183.105	85.421	183.105	85.3802	183.105	85.4128	183.105	85.3868	183.105	85.4101	183.105	85.4025	183.105	85.4124	183.105	85.4232	183.105	85.4184	183.105	85.4441	183.105	85.4274	183.105	85.4619	183.105	85.4389	183.105	85.475	183.105	85.4519	183.105	85.4837	183.105	85.4653	183.105	85.4885	183.105	85.4771	183.105	85.4892	183.105	85.4854
188.965	85.667	188.965	85.6607	188.965	85.6628	188.965	85.6461	188.965	85.6465	188.965	85.6256	188.965	85.6171	188.965	85.6013	188.965	85.5746	188.965	85.5751	188.965	85.5207	188.965	85.5483	188.965	85.4587	188.965	85.5221	188.965	85.3933	188.965	85.4968	188.965	85.3306	188.965	85.4726	188.965	85.2764	188.965	85.4492	188.965	85.2344	188.965	85.425	188.965	85.2057	188.965	85.3978	188.965	85.188	188.965	85.3655	188.965	85.1773	188.965	85.3276	188.965	85.1701	188.965	85.2861	188.965	85.165	188.965	85.2451	188.965	85.1636	188.965	85.2097	188.965	85.1688	188.965	85.1838
196.289	85.7239	196.289	85.7229	196.289	85.717	196.289	85.7158	196.289	85.7011	196.289	85.7042	196.289	85.6763	196.289	85.6892	196.289	85.6435	196.289	85.6711	196.289	85.6045	196.289	85.6498	196.289	85.5616	196.289	85.6251	196.289	85.5175	196.289	85.5976	196.289	85.4752	196.289	85.5687	196.289	85.4376	196.289	85.5403	196.289	85.4068	196.289	85.5135	196.289	85.3839	196.289	85.4887	196.289	85.3681	196.289	85.4646	196.289	85.3575	196.289	85.4399	196.289	85.3498	196.289	85.414	196.289	85.3437	196.289	85.388	196.289	85.3398	196.289	85.3652	196.289	85.3406	196.289	85.3488
203.613	86.1099	203.613	86.0873	203.613	86.1091	203.613	86.0417	203.613	86.0874	203.613	85.976	203.613	86.0494	203.613	85.8955	203.613	86.001	203.613	85.8059	203.613	85.9477	203.613	85.7123	203.613	85.894	203.613	85.6184	203.613	85.8421	203.613	85.527	203.613	85.7917	203.613	85.4415	203.613	85.7407	203.613	85.3664	203.613	85.6875	203.613	85.307	203.613	85.6316	203.613	85.2672	203.613	85.5743	203.613	85.2477	203.613	85.5176	203.613	85.2453	203.613	85.4634	203.613	85.2542	203.613	85.4135	203.613	85.2687	203.613	85.3699	203.613	85.286	203.613	85.3343	203.613	85.307
210.938	85.6715	210.938	85.6544	210.938	85.6866	210.938	85.6367	210.938	85.6984	210.938	85.6196	210.938	85.7057	210.938	85.6047	210.938	85.7075	210.938	85.5927	210.938	85.7032	210.938	85.5828	210.938	85.6927	210.938	85.573	210.938	85.6768	210.938	85.5602	210.938	85.6556	210.938	85.5421	210.938	85.6281	210.938	85.5192	210.938	85.5923	210.938	85.4949	210.938	85.5481	210.938	85.474	210.938	85.499	210.938	85.4602	210.938	85.4527	210.938	85.4536	210.938	85.4183	210.938	85.4511	210.938	85.4015	210.938	85.4481	210.938	85.4018	210.938	85.4409	210.938	85.4134	210.938	85.4285
218.262	85.5645	218.262	85.5823	218.262	85.5349	218.262	85.5878	218.262	85.4973	218.262	85.5836	218.262	85.4575	218.262	85.575	218.262	85.4226	218.262	85.569	218.262	85.399	218.262	85.5712	218.262	85.3916	218.262	85.5841	218.262	85.4028	218.262	85.6051	218.262	85.434	218.262	85.6288	218.262	85.4849	218.262	85.65	218.262	85.5534	218.262	85.6674	218.262	85.6336	218.262	85.6845	218.262	85.7173	218.262	85.7072	218.262	85.7957	218.262	85.7411	218.262	85.8621	218.262	85.7874	218.262	85.9121	218.262	85.8413	218.262	85.9423	218.262	85.8933	218.262	85.9494	218.262	85.9321
225.586	85.6701	225.586	85.68	225.586	85.6424	225.586	85.6712	225.586	85.5983	225.586	85.6447	225.586	85.5397	225.586	85.6048	225.586	85.4693	225.586	85.5599	225.586	85.392	225.586	85.5215	225.586	85.3157	225.586	85.501	225.586	85.2507	225.586	85.5061	225.586	85.2079	225.586	85.5365	225.586	85.1947	225.586	85.5839	225.586	85.2121	225.586	85.6344	225.586	85.2534	225.586	85.674	225.586	85.307	225.586	85.6938	225.586	85.3622	225.586	85.6921	225.586	85.4129	225.586	85.6738	225.586	85.4584	225.586	85.6457	225.586	85.5002	225.586	85.6129	225.586	85.5399	225.586	85.5775
232.91	86.0172	232.91	86.0168	232.91	85.988	232.91	85.9875	232.91	85.9302	232.91	85.9321	232.91	85.8463	232.91	85.8557	232.91	85.7393	232.91	85.7655	232.91	85.6133	232.91	85.6707	232.91	85.4738	232.91	85.5814	232.91	85.3302	232.91	85.5073	232.91	85.1972	232.91	85.4571	232.91	85.0949	232.91	85.4362	232.91	85.0427	232.91	85.4458	232.91	85.0511	232.91	85.4808	232.91	85.1141	232.91	85.5296	232.91	85.2117	232.91	85.5778	232.91	85.3196	232.91	85.613	232.91	85.4186	232.91	85.6286	232.91	85.4991	232.91	85.6239	232.91	85.5592	232.91	85.6004
241.699	86.4628	241.699	86.4656	241.699	86.4252	241.699	86.4319	241.699	86.3584	241.699	86.3644	241.699	86.2704	241.699	86.2693	241.699	86.1692	241.699	86.1552	241.699	86.0604	241.699	86.0316	241.699	85.9457	241.699	85.9078	241.699	85.8239	241.699	85.7916	241.699	85.6949	241.699	85.6891	241.699	85.5645	241.699	85.604	241.699	85.4463	241.699	85.5377	241.699	85.3591	241.699	85.4894	241.699	85.3179	241.699	85.4561	241.699	85.3243	241.699	85.4339	241.699	85.3629	241.699	85.4207	241.699	85.4084	241.699	85.417	241.699	85.4391	241.699	85.4237	241.699	85.4466	241.699	85.4371
250.488	86.5807	250.488	86.5901	250.488	86.5288	250.488	86.5646	250.488	86.4286	250.488	86.5103	250.488	86.2807	250.488	86.431	250.488	86.0951	250.488	86.3285	250.488	85.8916	250.488	86.2043	250.488	85.6951	250.488	86.0607	250.488	85.5266	250.488	85.9007	250.488	85.3948	250.488	85.7271	250.488	85.294	250.488	85.5449	250.488	85.21	250.488	85.3628	250.488	85.1293	250.488	85.1936	250.488	85.0458	250.488	85.0504	250.488	84.9628	250.488	84.9416	250.488	84.8895	250.488	84.8681	250.488	84.835	250.488	84.8241	250.488	84.8028	250.488	84.8007	250.488	84.7899	250.488	84.7902
259.277	86.3999	259.277	86.3648	259.277	86.4028	259.277	86.3014	259.277	86.3693	259.277	86.2141	259.277	86.2962	259.277	86.1081	259.277	86.1829	259.277	85.9905	259.277	86.0347	259.277	85.8708	259.277	85.862	259.277	85.7611	259.277	85.6791	259.277	85.6734	259.277	85.4993	259.277	85.6154	259.277	85.3334	259.277	85.5873	259.277	85.19	259.277	85.5824	259.277	85.0786	259.277	85.5913	259.277	85.0095	259.277	85.6043	259.277	84.9909	259.277	85.6117	259.277	85.0235	259.277	85.6036	259.277	85.0993	259.277	85.5716	259.277	85.203	259.277	85.5111	259.277	85.3167	259.277	85.4237
268.066	86.5494	268.066	86.467	268.066	86.5932	268.066	86.3488	268.066	86.5969	268.066	86.2001	268.066	86.558	268.066	86.0283	268.066	86.4737	268.066	85.8424	268.066	86.3447	268.066	85.6527	268.066	86.1787	268.066	85.4749	268.066	85.9911	268.066	85.332	268.066	85.8006	268.066	85.25	268.066	85.6226	268.066	85.2444	268.066	85.4649	268.066	85.3084	268.066	85.3294	268.066	85.4132	268.066	85.2153	268.066	85.5198	268.066	85.1227	268.066	85.5908	268.066	85.0564	268.066	85.599	268.066	85.0271	268.066	85.5351	268.066	85.0495	268.066	85.4118	268.066	85.1318	268.066	85.2633
276.855	86.2949	276.855	86.2959	276.855	86.2802	276.855	86.2776	276.855	86.2594	276.855	86.2386	276.855	86.2357	276.855	86.18	276.855	86.2036	276.855	86.0988	276.855	86.1506	276.855	85.9849	276.855	86.0656	276.855	85.8236	276.855	85.9482	276.855	85.6078	276.855	85.8134	276.855	85.3521	276.855	85.6885	276.855	85.1019	276.855	85.6023	276.855	84.9248	276.855	85.5725	276.855	84.8807	276.855	85.5953	276.855	84.9839	276.855	85.6483	276.855	85.1898	276.855	85.7036	276.855	85.421	276.855	85.7443	276.855	85.61	276.855	85.7687	276.855	85.7254	276.855	85.7807	276.855	85.7737
287.109	86.3727	287.109	86.2994	287.109	86.4039	287.109	86.1998	287.109	86.3832	287.109	86.091	287.109	86.3115	287.109	85.9877	287.109	86.2016	287.109	85.8993	287.109	86.0752	287.109	85.8283	287.109	85.9528	287.109	85.768	287.109	85.8422	287.109	85.7036	287.109	85.7325	287.109	85.6196	287.109	85.603	287.109	85.5102	287.109	85.445	287.109	85.3909	287.109	85.2791	287.109	85.2996	287.109	85.1514	287.109	85.2797	287.109	85.1074	287.109	85.3488	287.109	85.1606	287.109	85.478	287.109	85.2863	287.109	85.6066	287.109	85.4403	287.109	85.6783	287.109	85.5792	287.109	85.6671
297.363	86.466	297.363	86.439	297.363	86.4498	297.363	86.3569	297.363	86.3988	297.363	86.2138	297.363	86.3131	297.363	86.0183	297.363	86.1852	297.363	85.7975	297.363	86.0073	297.363	85.592	297.363	85.7832	297.363	85.4448	297.363	85.5391	297.363	85.3871	297.363	85.3229	297.363	85.423	297.363	85.1822	297.363	85.5201	297.363	85.1336	297.363	85.6155	297.363	85.1583	297.363	85.6461	297.363	85.2306	297.363	85.5874	297.363	85.342	297.363	85.4748	297.363	85.4889	297.363	85.3882	297.363	85.6421	297.363	85.3975	297.363	85.7453	297.363	85.5072	297.363	85.7498	297.363	85.6527
307.617	86.4779	307.617	86.5335	307.617	86.3922	307.617	86.5443	307.617	86.2886	307.617	86.4971	307.617	86.1751	307.617	86.3837	307.617	86.0571	307.617	86.2027	307.617	85.9405	307.617	85.9581	307.617	85.8316	307.617	85.6582	307.617	85.7332	307.617	85.3233	307.617	85.6423	307.617	84.9978	307.617	85.5512	307.617	84.7527	307.617	85.4526	307.617	84.6557	307.617	85.34	307.617	84.72	307.617	85.2104	307.617	84.8843	307.617	85.0721	307.617	85.0531	307.617	84.9512	307.617	85.1542	307.617	84.8823	307.617	85.1664	307.617	84.8821	307.617	85.1107	307.617	84.9382	307.617	85.0237
319.336	86.549	319.336	86.4504	319.336	86.5613	319.336	86.2728	319.336	86.489	319.336	86.0331	319.336	86.3416	319.336	85.7559	319.336	86.1341	319.336	85.4707	319.336	85.8849	319.336	85.206	319.336	85.614	319.336	84.9796	319.336	85.3453	319.336	84.7905	319.336	85.112	319.336	84.6274	319.336	84.9548	319.336	84.4921	319.336	84.9031	319.336	84.4184	319.336	84.948	319.336	84.4505	319.336	85.0374	319.336	84.592	319.336	85.1079	319.336	84.7843	319.336	85.125	319.336	84.9487	319.336	85.0976	319.336	85.0402	319.336	85.0603	319.336	85.063	319.336	85.0433	319.336	85.0514
329.59	85.9292	329.59	85.8762	329.59	85.9685	329.59	85.8179	329.59	85.9753	329.59	85.7532	329.59	85.9288	329.59	85.6761	329.59	85.818	329.59	85.5793	329.59	85.6505	329.59	85.4561	329.59	85.4488	329.59	85.3025	329.59	85.2373	329.59	85.1209	329.59	85.0288	329.59	84.9202	329.59	84.8246	329.59	84.7147	329.59	84.6285	329.59	84.5263	329.59	84.4586	329.59	84.3894	329.59	84.34	329.59	84.3409	329.59	84.2854	329.59	84.3902	329.59	84.2873	329.59	84.4981	329.59	84.3309	329.59	84.5965	329.59	84.4065	329.59	84.6315	329.59	84.5025	329.59	84.5911
341.309	86.3068	341.309	86.2545	341.309	86.2657	341.309	86.1088	341.309	86.1397	341.309	85.8811	341.309	85.9422	341.309	85.5985	341.309	85.688	341.309	85.3065	341.309	85.3928	341.309	85.0611	341.309	85.0777	341.309	84.905	341.309	84.7757	341.309	84.8382	341.309	84.534	341.309	84.8176	341.309	84.4017	341.309	84.789	341.309	84.4036	341.309	84.7258	341.309	84.5191	341.309	84.6424	341.309	84.6927	341.309	84.579	341.309	84.8661	341.309	84.5721	341.309	85.0019	341.309	84.6313	341.309	85.083	341.309	84.7387	341.309	85.1042	341.309	84.8648	341.309	85.0672	341.309	84.9818
353.027	86.1259	353.027	86.0703	353.027	86.1185	353.027	85.9588	353.027	86.0461	353.027	85.8001	353.027	85.9145	353.027	85.6002	353.027	85.7365	353.027	85.3634	353.027	85.5279	353.027	85.0972	353.027	85.3	353.027	84.8238	353.027	85.0511	353.027	84.5872	353.027	84.7654	353.027	84.4375	353.027	84.4298	353.027	84.3954	353.027	84.0657	353.027	84.4339	353.027	83.7433	353.027	84.5015	353.027	83.5471	353.027	84.5605	353.027	83.5115	353.027	84.5999	353.027	83.6047	353.027	84.6194	353.027	83.7766	353.027	84.6089	353.027	83.9912	353.027	84.5458	353.027	84.2165	353.027	84.4125
366.211	86.1272	366.211	86.0563	366.211	86.1367	366.211	85.9106	366.211	86.0964	366.211	85.6878	366.211	86.0064	366.211	85.4026	366.211	85.8578	366.211	85.0846	366.211	85.6478	366.211	84.7697	366.211	85.3959	366.211	84.4854	366.211	85.1461	366.211	84.2389	366.211	84.9428	366.211	84.0249	366.211	84.7981	366.211	83.858	366.211	84.6872	366.211	83.7897	366.211	84.5821	366.211	83.8727	366.211	84.4888	366.211	84.0986	366.211	84.4461	366.211	84.392	366.211	84.4874	366.211	84.6645	366.211	84.6059	366.211	84.86	366.211	84.7575	366.211	84.9594	366.211	84.89	366.211	84.9651
379.395	86.3426	379.395	86.2877	379.395	86.329	379.395	86.1671	379.395	86.2458	379.395	85.9741	379.395	86.1015	379.395	85.6952	379.395	85.9117	379.395	85.327	379.395	85.6865	379.395	84.8962	379.395	85.4279	379.395	84.4638	379.395	85.1408	379.395	84.1015	379.395	84.8499	379.395	83.8515	379.395	84.6016	379.395	83.7094	379.395	84.4443	379.395	83.653	379.395	84.4026	379.395	83.677	379.395	84.4672	379.395	83.7892	379.395	84.6033	379.395	83.9768	379.395	84.7611	379.395	84.1974	379.395	84.8843	379.395	84.4098	379.395	84.9283	379.395	84.5982	379.395	84.8802	379.395	84.7601
392.578	86.234	392.578	86.1407	392.578	86.2393	392.578	85.9842	392.578	86.146	392.578	85.7969	392.578	85.9567	392.578	85.6003	392.578	85.6863	392.578	85.3879	392.578	85.361	392.578	85.1298	392.578	85.0144	392.578	84.8072	392.578	84.6792	392.578	84.4494	392.578	84.3831	392.578	84.1316	392.578	84.1492	392.578	83.9186	392.578	83.9965	392.578	83.8132	392.578	83.9331	392.578	83.7812	392.578	83.9521	392.578	83.8078	392.578	84.0338	392.578	83.8915	392.578	84.1448	392.578	84.0055	392.578	84.2395	392.578	84.1047	392.578	84.2801	392.578	84.1709	392.578	84.2641	392.578	84.2204
405.762	86.2444	405.762	86.1104	405.762	86.2573	405.762	85.8569	405.762	86.1596	405.762	85.5156	405.762	85.9578	405.762	85.1503	405.762	85.6524	405.762	84.8267	405.762	85.2513	405.762	84.5686	405.762	84.7875	405.762	84.3492	405.762	84.3247	405.762	84.1371	405.762	83.9404	405.762	83.9523	405.762	83.6916	405.762	83.8605	405.762	83.5901	405.762	83.8974	405.762	83.6035	405.762	84.0147	405.762	83.6804	405.762	84.1304	405.762	83.7818	405.762	84.2109	405.762	83.9	405.762	84.2794	405.762	84.0445	405.762	84.3584	405.762	84.2083	405.762	84.4255	405.762	84.3536	405.762	84.4327
420.41	86.258	420.41	86.2252	420.41	86.1955	420.41	86.0882	420.41	86.0419	420.41	85.8352	420.41	85.8094	420.41	85.4626	420.41	85.5282	420.41	84.9921	420.41	85.2337	420.41	84.4884	420.41	84.9393	420.41	84.0523	420.41	84.6257	420.41	83.7525	420.41	84.2653	420.41	83.5572	420.41	83.8694	420.41	83.3879	420.41	83.5196	420.41	83.2407	420.41	83.3338	420.41	83.2151	420.41	83.3613	420.41	83.396	420.41	83.5347	420.41	83.7406	420.41	83.7589	420.41	84.1246	420.41	84.0001	420.41	84.4412	420.41	84.2585	420.41	84.6236	420.41	84.497	420.41	84.6388
435.059	85.9902	435.059	85.9257	435.059	85.994	435.059	85.812	435.059	85.9175	435.059	85.6428	435.059	85.7426	435.059	85.3923	435.059	85.466	435.059	85.0264	435.059	85.1085	435.059	84.5317	435.059	84.7096	435.059	83.9555	435.059	84.306	435.059	83.4271	435.059	83.9187	435.059	83.1036	435.059	83.5769	435.059	83.0416	435.059	83.3501	435.059	83.1648	435.059	83.3308	435.059	83.3906	435.059	83.5511	435.059	83.7143	435.059	83.9249	435.059	84.1415	435.059	84.3042	435.059	84.5927	435.059	84.5868	435.059	84.9296	435.059	84.7688	435.059	85.0659	435.059	84.9074	435.059	85.0271
451.172	86.9927	451.172	86.8642	451.172	86.9616	451.172	86.5729	451.172	86.7918	451.172	86.1354	451.172	86.507	451.172	85.5842	451.172	86.1176	451.172	84.9682	451.172	85.6227	451.172	84.3515	451.172	85.0379	451.172	83.7982	451.172	84.4257	451.172	83.3572	451.172	83.8868	451.172	83.0728	451.172	83.4966	451.172	82.9936	451.172	83.2598	451.172	83.123	451.172	83.1655	451.172	83.3684	451.172	83.2547	451.172	83.6092	451.172	83.555	451.172	83.8035	451.172	83.977	451.172	83.9903	451.172	84.3605	451.172	84.2041	451.172	84.5955	451.172	84.4208	451.172	84.6607	451.172	84.5882
465.82	87.1086	465.82	87.0018	465.82	87.0837	465.82	86.7378	465.82	86.9499	465.82	86.319	465.82	86.7092	465.82	85.7841	465.82	86.3498	465.82	85.1798	465.82	85.86	465.82	84.5232	465.82	85.238	465.82	83.8169	465.82	84.5146	465.82	83.1171	465.82	83.7904	465.82	82.5637	465.82	83.2317	465.82	82.2937	465.82	82.9569	465.82	82.3385	465.82	82.9257	465.82	82.6452	465.82	83.0265	465.82	83.1274	465.82	83.23	465.82	83.6614	465.82	83.5705	465.82	84.1186	465.82	84.0089	465.82	84.4347	465.82	84.4058	465.82	84.6202	465.82	84.6411	465.82	84.6972
483.398	87.128	483.398	87.0177	483.398	87.1467	483.398	86.8253	483.398	87.047	483.398	86.5339	483.398	86.8012	483.398	86.1128	483.398	86.3968	483.398	85.5482	483.398	85.8487	483.398	84.8627	483.398	85.1981	483.398	84.1027	483.398	84.4916	483.398	83.3111	483.398	83.7527	483.398	82.5345	483.398	82.9853	483.398	81.8641	483.398	82.2378	483.398	81.4317	483.398	81.668	483.398	81.3364	483.398	81.4721	483.398	81.5895	483.398	81.6806	483.398	82.1099	483.398	82.1309	483.398	82.7367	483.398	82.649	483.398	83.2872	483.398	83.1315	483.398	83.6255	483.398	83.5052	483.398	83.6923
499.512	87.1468	499.512	86.9889	499.512	87.1776	499.512	86.7408	499.512	87.0574	499.512	86.4173	499.512	86.7855	499.512	85.9856	499.512	86.3738	499.512	85.3921	499.512	85.8369	499.512	84.6314	499.512	85.1931	499.512	83.7961	499.512	84.4665	499.512	83.0442	499.512	83.688	499.512	82.4857	499.512	82.9167	499.512	82.1195	499.512	82.2898	499.512	81.9281	499.512	81.9987	499.512	81.9747	499.512	82.112	499.512	82.3152	499.512	82.4842	499.512	82.869	499.512	82.9218	499.512	83.4625	499.512	83.3329	499.512	83.9378	499.512	83.7064	499.512	84.1977	499.512	84.0227	499.512	84.2132
517.09	87.5374	517.09	87.4499	517.09	87.4445	517.09	87.1585	517.09	87.2346	517.09	86.6942	517.09	86.9784	517.09	86.1285	517.09	86.7038	517.09	85.5136	517.09	86.3614	517.09	84.8108	517.09	85.8581	517.09	83.8961	517.09	85.1541	517.09	82.6864	517.09	84.3342	517.09	81.3585	517.09	83.549	517.09	80.475	517.09	82.855	517.09	80.461	517.09	82.2163	517.09	80.9815	517.09	81.7401	517.09	81.5449	517.09	81.7009	517.09	82.0269	517.09	82.1171	517.09	82.5113	517.09	82.6719	517.09	83.0089	517.09	83.1276	517.09	83.3895	517.09	83.4251	517.09	83.531
536.133	87.3032	536.133	87.232	536.133	87.2549	536.133	87.0542	536.133	87.0698	536.133	86.7762	536.133	86.7369	536.133	86.404	536.133	86.261	536.133	85.9398	536.133	85.6666	536.133	85.3658	536.133	84.9861	536.133	84.6542	536.133	84.2354	536.133	83.815	536.133	83.408	536.133	82.9098	536.133	82.5376	536.133	81.9994	536.133	81.7893	536.133	81.1573	536.133	81.3992	536.133	80.6384	536.133	81.4214	536.133	80.7788	536.133	81.6972	536.133	81.4296	536.133	82.0906	536.133	82.0943	536.133	82.516	536.133	82.5263	536.133	82.8441	536.133	82.769	536.133	82.9728	536.133	82.9206
555.176	87.8849	555.176	87.8415	555.176	87.8538	555.176	87.7171	555.176	87.7189	555.176	87.4548	555.176	87.4583	555.176	86.9943	555.176	87.0775	555.176	86.34	555.176	86.59	555.176	85.5673	555.176	85.9948	555.176	84.7352	555.176	85.2874	555.176	83.8232	555.176	84.4831	555.176	82.8372	555.176	83.5894	555.176	81.9578	555.176	82.5665	555.176	81.4093	555.176	81.4379	555.176	81.1698	555.176	80.561	555.176	81.1393	555.176	80.479	555.176	81.4166	555.176	81.0809	555.176	82.0282	555.176	81.7636	555.176	82.654	555.176	82.2506	555.176	82.9556	555.176	82.606	555.176	82.8842
574.219	87.8721	574.219	87.7544	574.219	87.9077	574.219	87.5708	574.219	87.8231	574.219	87.3111	574.219	87.6002	574.219	86.9642	574.219	87.2553	574.219	86.5123	574.219	86.8043	574.219	85.9195	574.219	86.2279	574.219	85.1628	574.219	85.4811	574.219	84.2592	574.219	84.5438	574.219	83.2339	574.219	83.4791	574.219	82.1375	574.219	82.4604	574.219	81.1861	574.219	81.7172	574.219	80.7075	574.219	81.3668	574.219	80.7282	574.219	81.319	574.219	81.0349	574.219	81.4738	574.219	81.5601	574.219	81.8723	574.219	82.2565	574.219	82.4853	574.219	82.8979	574.219	83.0324	574.219	83.2029
594.727	87.8949	594.727	87.7919	594.727	87.8238	594.727	87.526	594.727	87.6259	594.727	87.1273	594.727	87.3712	594.727	86.6094	594.727	87.0667	594.727	85.995	594.727	86.6312	594.727	85.33	594.727	85.9804	594.727	84.6131	594.727	85.1415	594.727	83.7823	594.727	84.2599	594.727	82.86	594.727	83.4356	594.727	82.035	594.727	82.5652	594.727	81.4872	594.727	81.4973	594.727	81.2378	594.727	80.4188	594.727	81.3136	594.727	79.9797	594.727	81.7458	594.727	80.4614	594.727	82.3113	594.727	81.2712	594.727	82.6823	594.727	81.9145	594.727	82.7482	594.727	82.3291	594.727	82.5997
615.234	87.568	615.234	87.4552	615.234	87.5878	615.234	87.2547	615.234	87.4817	615.234	86.9607	615.234	87.2205	615.234	86.5696	615.234	86.8269	615.234	86.0533	615.234	86.367	615.234	85.3566	615.234	85.8598	615.234	84.458	615.234	85.2173	615.234	83.4178	615.234	84.3372	615.234	82.3533	615.234	83.2653	615.234	81.3738	615.234	82.1956	615.234	80.5864	615.234	81.2389	615.234	80.1586	615.234	80.3786	615.234	80.2292	615.234	79.8169	615.234	80.7125	615.234	79.8491	615.234	81.3256	615.234	80.2952	615.234	81.7817	615.234	80.8064	615.234	81.9083	615.234	81.2857	615.234	81.6991
637.207	87.2446	637.207	87.257	637.207	87.1343	637.207	87.1137	637.207	86.9964	637.207	86.824	637.207	86.8325	637.207	86.4282	637.207	86.5734	637.207	85.9317	637.207	86.1669	637.207	85.3357	637.207	85.632	637.207	84.6986	637.207	84.9971	637.207	84.0205	637.207	84.2146	637.207	83.1043	637.207	83.2185	637.207	81.7714	637.207	82.0908	637.207	80.2959	637.207	81.0681	637.207	79.4406	637.207	80.317	637.207	79.3152	637.207	79.9223	637.207	79.3388	637.207	80.0854	637.207	79.5013	637.207	80.7769	637.207	80.0785	637.207	81.4846	637.207	80.8903	637.207	81.7777	637.207	81.5448
659.18	87.1468	659.18	87	659.18	87.1966	659.18	86.8002	659.18	87.0788	659.18	86.5089	659.18	86.8022	659.18	86.091	659.18	86.446	659.18	85.5919	659.18	86.036	659.18	85.0249	659.18	85.5063	659.18	84.2504	659.18	84.8281	659.18	83.1584	659.18	84.068	659.18	81.9538	659.18	83.2203	659.18	81.0104	659.18	82.1409	659.18	80.2504	659.18	80.799	659.18	79.4179	659.18	79.5168	659.18	78.9914	659.18	78.7387	659.18	79.5703	659.18	78.6168	659.18	80.5454	659.18	79.0928	659.18	81.2155	659.18	79.8929	659.18	81.4175	659.18	80.6628	659.18	81.2037
682.617	87.0826	682.617	86.912	682.617	87.1683	682.617	86.7156	682.617	87.0744	682.617	86.4836	682.617	86.7433	682.617	86.1305	682.617	86.2555	682.617	85.57	682.617	85.8095	682.617	84.8385	682.617	85.4805	682.617	84.1093	682.617	85.0633	682.617	83.4269	682.617	84.3164	682.617	82.5398	682.617	83.2696	682.617	81.296	682.617	82.1447	682.617	80.1326	682.617	80.9858	682.617	79.6213	682.617	79.8204	682.617	79.5092	682.617	79.1961	682.617	79.6712	682.617	79.4425	682.617	80.3042	682.617	79.8826	682.617	81.0255	682.617	80.1804	682.617	81.3124	682.617	80.5872	682.617	81.0762
707.52	86.7771	707.52	86.8008	707.52	86.6096	707.52	86.6441	707.52	86.3821	707.52	86.32	707.52	86.2091	707.52	85.9286	707.52	86.0876	707.52	85.5554	707.52	85.848	707.52	85.0981	707.52	85.3596	707.52	84.3821	707.52	84.6666	707.52	83.4449	707.52	83.8575	707.52	82.5241	707.52	82.9322	707.52	81.6803	707.52	81.8919	707.52	80.676	707.52	80.7872	707.52	79.445	707.52	79.5632	707.52	78.4769	707.52	78.2499	707.52	78.0878	707.52	77.6196	707.52	77.8573	707.52	78.2188	707.52	77.7373	707.52	78.9763	707.52	78.0497	707.52	79.0924	707.52	78.6501
732.422	86.7767	732.422	86.6601	732.422	86.7604	732.422	86.3886	732.422	86.675	732.422	86.0172	732.422	86.489	732.422	85.5796	732.422	86.13	732.422	85.0808	732.422	85.6382	732.422	84.5472	732.422	85.1186	732.422	83.978	732.422	84.5938	732.422	83.3077	732.422	84.0095	732.422	82.4647	732.422	83.3098	732.422	81.3825	732.422	82.4496	732.422	80.0454	732.422	81.4581	732.422	78.7942	732.422	80.4418	732.422	78.296	732.422	79.3963	732.422	78.5369	732.422	78.4668	732.422	78.9011	732.422	78.3063	732.422	79.2078	732.422	78.8875	732.422	79.4041	732.422	79.36	732.422	79.45
757.324	86.6955	757.324	86.5276	757.324	86.8525	757.324	86.385	757.324	86.7835	757.324	86.1152	757.324	86.4353	757.324	85.6946	757.324	86.0018	757.324	85.2593	757.324	85.6431	757.324	84.8616	757.324	85.2819	757.324	84.4475	757.324	84.788	757.324	83.9773	757.324	84.2455	757.324	83.3516	757.324	83.8402	757.324	82.4116	757.324	83.4207	757.324	81.1656	757.324	82.5078	757.324	79.8076	757.324	80.9939	757.324	78.4686	757.324	79.622	757.324	77.4474	757.324	79.0621	757.324	77.5471	757.324	78.6956	757.324	78.6432	757.324	78.2444	757.324	79.4737	757.324	78.5234	757.324	79.3154
785.156	86.6934	785.156	86.6092	785.156	86.4282	785.156	86.1264	785.156	86.1509	785.156	85.6396	785.156	85.8998	785.156	85.2611	785.156	85.5283	785.156	84.6253	785.156	85.141	785.156	83.7755	785.156	84.8812	785.156	83.313	785.156	84.6203	785.156	83.2408	785.156	84.2658	785.156	83.0654	785.156	83.8498	785.156	82.7718	785.156	83.3178	785.156	82.3724	785.156	82.7062	785.156	81.3342	785.156	82.1884	785.156	79.4788	785.156	81.6013	785.156	78.0347	785.156	80.4573	785.156	77.9329	785.156	78.892	785.156	78.1224	785.156	77.8943	785.156	78.0077	785.156	77.7628	785.156	77.8668
811.523	87.7694	811.523	87.4268	811.523	87.8155	811.523	86.9097	811.523	87.4636	811.523	86.1242	811.523	86.9112	811.523	85.1576	811.523	86.2443	811.523	84.3622	811.523	85.2241	811.523	83.8078	811.523	84.0284	811.523	83.6406	811.523	83.3734	811.523	84.212	811.523	83.4288	811.523	84.8448	811.523	83.8049	811.523	84.7847	811.523	84.2807	811.523	84.4143	811.523	84.6329	811.523	84.4417	811.523	84.5463	811.523	84.3824	811.523	84.0725	811.523	83.3859	811.523	83.6304	811.523	81.8786	811.523	83.2771	811.523	81.2782	811.523	82.6795	811.523	81.5068	811.523	81.9981	811.523	81.6829
840.82	89.6528	840.82	89.5018	840.82	89.6496	840.82	89.2283	840.82	89.3733	840.82	88.5954	840.82	88.8147	840.82	87.3673	840.82	87.9503	840.82	85.5184	840.82	86.702	840.82	83.1664	840.82	85.0033	840.82	80.2356	840.82	82.7022	840.82	76.5651	840.82	79.9272	840.82	76.443	840.82	78.1344	840.82	80.5068	840.82	79.3075	840.82	83.4383	840.82	82.01	840.82	85.1175	840.82	84.1811	840.82	86.1544	840.82	85.4906	840.82	86.9046	840.82	86.3026	840.82	87.3206	840.82	86.9391	840.82	87.2582	840.82	87.2999	840.82	86.9736	840.82	87.2324	840.82	86.9691
870.117	89.0578	870.117	88.9513	870.117	89.0553	870.117	88.584	870.117	89.0623	870.117	88.1095	870.117	88.7987	870.117	87.6437	870.117	88.1187	870.117	87.0203	870.117	87.3288	870.117	85.9653	870.117	86.5167	870.117	84.261	870.117	85.233	870.117	81.8733	870.117	83.0604	870.117	78.6546	870.117	79.9264	870.117	74.236	870.117	76.1893	870.117	75.0687	870.117	74.0631	870.117	79.4093	870.117	77.7707	870.117	82.1891	870.117	81.8196	870.117	84.3131	870.117	83.9516	870.117	85.8997	870.117	85.0003	870.117	86.7849	870.117	85.9825	870.117	87.1895	870.117	86.9087	870.117	87.3002
900.879	88.5213	900.879	88.3774	900.879	88.4865	900.879	88.2351	900.879	88.2928	900.879	88.1138	900.879	88.1301	900.879	87.7666	900.879	88.0312	900.879	87.1107	900.879	87.7244	900.879	86.2766	900.879	86.9132	900.879	85.0954	900.879	85.6711	900.879	83.1293	900.879	84.3117	900.879	80.3191	900.879	82.5183	900.879	76.9559	900.879	79.1346	900.879	73.3387	900.879	73.5984	900.879	74.4857	900.879	72.187	900.879	78.9331	900.879	75.9096	900.879	81.8051	900.879	79.9246	900.879	83.5717	900.879	83.1035	900.879	84.7302	900.879	84.7056	900.879	85.2436	900.879	85.1456	900.879	85.2505
933.105	87.9754	933.105	87.961	933.105	88.0447	933.105	87.8284	933.105	87.991	933.105	87.4398	933.105	87.7697	933.105	87.2046	933.105	87.3433	933.105	87.1073	933.105	86.6421	933.105	86.5086	933.105	86.0729	933.105	85.4949	933.105	85.7785	933.105	84.5692	933.105	84.8751	933.105	83.1419	933.105	82.899	933.105	80.1423	933.105	80.4559	933.105	74.8421	933.105	77.6692	933.105	69.199	933.105	73.105	933.105	72.5595	933.105	72.092	933.105	77.4771	933.105	76.1636	933.105	80.6805	933.105	78.7234	933.105	82.2307	933.105	81.1845	933.105	82.9931	933.105	83.0601	933.105	83.522
965.332	88.088	965.332	87.84	965.332	87.94	965.332	87.6004	965.332	87.6217	965.332	87.6343	965.332	87.4645	965.332	87.3279	965.332	87.467	965.332	86.5115	965.332	87.3086	965.332	85.9566	965.332	86.5913	965.332	85.5499	965.332	85.564	965.332	84.3322	965.332	84.8548	965.332	82.5259	965.332	84.0619	965.332	81.0245	965.332	82.2298	965.332	78.7489	965.332	79.334	965.332	74.0864	965.332	75.5186	965.332	71.7788	965.332	68.9475	965.332	76.1927	965.332	73.0869	965.332	78.9487	965.332	78.0964	965.332	80.704	965.332	80.3549	965.332	81.8499	965.332	81.6153	965.332	82.2043
1,000.49	88.6587	1,000.49	88.4711	1,000.49	88.5738	1,000.49	88.0673	1,000.49	88.3456	1,000.49	87.5999	1,000.49	87.9743	1,000.49	87.1871	1,000.49	87.267	1,000.49	86.7963	1,000.49	86.4752	1,000.49	86.1637	1,000.49	86.0222	1,000.49	85.3692	1,000.49	85.4645	1,000.49	84.8883	1,000.49	84.2834	1,000.49	84.2937	1,000.49	82.9582	1,000.49	82.4023	1,000.49	81.69	1,000.49	78.9016	1,000.49	79.4822	1,000.49	75.9678	1,000.49	75.6958	1,000.49	74.5893	1,000.49	72.1652	1,000.49	74.5098	1,000.49	71.4965	1,000.49	77.7792	1,000.49	74.535	1,000.49	80.1938	1,000.49	78.3434	1,000.49	80.7108	1,000.49	80.2848	1,000.49	80.6464
1,035.64	88.98	1,035.64	88.8839	1,035.64	88.851	1,035.64	88.6347	1,035.64	88.5964	1,035.64	88.24	1,035.64	88.3113	1,035.64	87.6759	1,035.64	87.9427	1,035.64	87.1427	1,035.64	87.4244	1,035.64	86.5439	1,035.64	86.7029	1,035.64	85.5576	1,035.64	85.9028	1,035.64	84.2665	1,035.64	85.2066	1,035.64	82.9195	1,035.64	84.3645	1,035.64	81.4314	1,035.64	83.0694	1,035.64	79.4181	1,035.64	81.3618	1,035.64	76.8896	1,035.64	78.9209	1,035.64	75.7841	1,035.64	74.8537	1,035.64	77.0823	1,035.64	72.1372	1,035.64	78.1276	1,035.64	75.1452	1,035.64	79.578	1,035.64	77.6145	1,035.64	81.1558	1,035.64	79.8288	1,035.64	81.374
1,072.27	88.6117	1,072.27	88.5255	1,072.27	88.8956	1,072.27	88.5478	1,072.27	88.7109	1,072.27	87.9969	1,072.27	88.1384	1,072.27	87.2469	1,072.27	87.6827	1,072.27	86.8064	1,072.27	87.1795	1,072.27	86.2033	1,072.27	86.227	1,072.27	85.3835	1,072.27	85.145	1,072.27	84.2355	1,072.27	84.3746	1,072.27	82.4092	1,072.27	83.5763	1,072.27	81.1836	1,072.27	82.4325	1,072.27	80.3362	1,072.27	80.6183	1,072.27	76.585	1,072.27	77.5972	1,072.27	70.57	1,072.27	74.5054	1,072.27	75.5817	1,072.27	72.8313	1,072.27	76.9922	1,072.27	75.5728	1,072.27	77.9327	1,072.27	78.0831	1,072.27	80.1871	1,072.27	79.0069	1,072.27	80.3075
1,108.89	88.6376	1,108.89	88.2758	1,108.89	88.6969	1,108.89	87.983	1,108.89	88.08	1,108.89	87.3888	1,108.89	87.4952	1,108.89	86.7435	1,108.89	86.8623	1,108.89	86.2702	1,108.89	86.0778	1,108.89	85.5018	1,108.89	86.1765	1,108.89	84.7476	1,108.89	86.0369	1,108.89	84.3418	1,108.89	84.5233	1,108.89	83.2757	1,108.89	83.7371	1,108.89	81.1109	1,108.89	83.7009	1,108.89	78.9193	1,108.89	81.7184	1,108.89	77.3618	1,108.89	78.5719	1,108.89	75.6591	1,108.89	76.1787	1,108.89	74.4876	1,108.89	73.2907	1,108.89	77.3221	1,108.89	72.1289	1,108.89	79.0957	1,108.89	75.3173	1,108.89	79.821	1,108.89	79.416	1,108.89	80.7098
1,148.44	87.8567	1,148.44	87.8332	1,148.44	87.7866	1,148.44	87.6536	1,148.44	87.8031	1,148.44	87.2816	1,148.44	87.4032	1,148.44	86.5199	1,148.44	86.8282	1,148.44	85.7894	1,148.44	86.4351	1,148.44	85.07	1,148.44	85.5173	1,148.44	84.4187	1,148.44	84.589	1,148.44	84.056	1,148.44	84.1843	1,148.44	82.666	1,148.44	83.311	1,148.44	80.5319	1,148.44	82.1689	1,148.44	78.9413	1,148.44	80.5717	1,148.44	75.4517	1,148.44	78.2205	1,148.44	71.4977	1,148.44	76.8304	1,148.44	71.5147	1,148.44	73.2602	1,148.44	74.6686	1,148.44	73.283	1,148.44	77.1512	1,148.44	76.3468	1,148.44	78.4118	1,148.44	77.6866	1,148.44	78.753
1,189.45	88.1525	1,189.45	87.6879	1,189.45	88.3927	1,189.45	87.4467	1,189.45	87.814	1,189.45	86.7109	1,189.45	87.3671	1,189.45	85.8039	1,189.45	87.0737	1,189.45	85.3972	1,189.45	86.0116	1,189.45	84.7196	1,189.45	85.2125	1,189.45	83.6359	1,189.45	85.145	1,189.45	82.7955	1,189.45	84.2158	1,189.45	81.9623	1,189.45	82.9306	1,189.45	80.3845	1,189.45	82.3075	1,189.45	77.9521	1,189.45	81.1654	1,189.45	75.3128	1,189.45	78.6101	1,189.45	71.8461	1,189.45	75.1236	1,189.45	69.9532	1,189.45	72.4704	1,189.45	76.2615	1,189.45	73.3258	1,189.45	78.5046	1,189.45	74.4948	1,189.45	79.1201	1,189.45	77.5589	1,189.45	79.5443
1,230.47	88.9987	1,230.47	88.5413	1,230.47	88.8596	1,230.47	87.85	1,230.47	88.4851	1,230.47	87.2888	1,230.47	87.9972	1,230.47	86.5613	1,230.47	87.0444	1,230.47	85.781	1,230.47	86.453	1,230.47	85.168	1,230.47	86.1383	1,230.47	84.0139	1,230.47	85.1387	1,230.47	83.0015	1,230.47	84.5169	1,230.47	82.7602	1,230.47	84.2506	1,230.47	81.7483	1,230.47	83.3582	1,230.47	79.4259	1,230.47	82.1279	1,230.47	75.9194	1,230.47	79.8355	1,230.47	71.9849	1,230.47	76.458	1,230.47	70.5833	1,230.47	74.09	1,230.47	73.8065	1,230.47	72.6206	1,230.47	76.3258	1,230.47	75.7607	1,230.47	78.6057	1,230.47	77.9245	1,230.47	78.8256
1,274.41	89.0274	1,274.41	88.8001	1,274.41	89.0257	1,274.41	88.4891	1,274.41	88.8365	1,274.41	87.8285	1,274.41	88.3266	1,274.41	86.9321	1,274.41	87.7638	1,274.41	86.2037	1,274.41	86.977	1,274.41	85.2282	1,274.41	85.7998	1,274.41	84.7943	1,274.41	85.1588	1,274.41	84.2692	1,274.41	84.2625	1,274.41	82.9388	1,274.41	82.9707	1,274.41	81.9135	1,274.41	82.4525	1,274.41	79.8897	1,274.41	81.1123	1,274.41	76.8714	1,274.41	79.2101	1,274.41	73.0715	1,274.41	77.5003	1,274.41	69.4286	1,274.41	74.2367	1,274.41	73.9378	1,274.41	74.3175	1,274.41	77.7396	1,274.41	76.2659	1,274.41	79.6614	1,274.41	78.2879	1,274.41	79.2844
1,319.82	89.4849	1,319.82	89.1833	1,319.82	89.2971	1,319.82	88.5148	1,319.82	88.9103	1,319.82	87.7156	1,319.82	88.3692	1,319.82	87.0811	1,319.82	87.8434	1,319.82	86.4753	1,319.82	86.9025	1,319.82	85.3774	1,319.82	86.0613	1,319.82	84.4576	1,319.82	85.4259	1,319.82	83.3489	1,319.82	84.3306	1,319.82	82.5452	1,319.82	83.8642	1,319.82	81.5653	1,319.82	82.4693	1,319.82	80.1027	1,319.82	80.3037	1,319.82	79.1407	1,319.82	79.2944	1,319.82	74.6185	1,319.82	76.0554	1,319.82	67.7826	1,319.82	70.3707	1,319.82	68.5003	1,319.82	65.5824	1,319.82	75.3583	1,319.82	74.0254	1,319.82	77.5887	1,319.82	77.7237	1,319.82	78.4723
1,366.7	89.6491	1,366.7	89.5847	1,366.7	89.7035	1,366.7	89.0694	1,366.7	89.6091	1,366.7	88.1973	1,366.7	88.776	1,366.7	86.8784	1,366.7	87.6562	1,366.7	85.6414	1,366.7	86.8328	1,366.7	85.0529	1,366.7	85.6914	1,366.7	84.0096	1,366.7	84.2409	1,366.7	82.8865	1,366.7	84.1017	1,366.7	82.5804	1,366.7	83.6001	1,366.7	82.745	1,366.7	82.8955	1,366.7	82.6031	1,366.7	82.7085	1,366.7	81.2176	1,366.7	81.122	1,366.7	78.1018	1,366.7	79.6148	1,366.7	73.3891	1,366.7	75.7322	1,366.7	73.8709	1,366.7	70.6484	1,366.7	75.4065	1,366.7	73.9544	1,366.7	78.0402	1,366.7	76.7305	1,366.7	78.6039
1,413.57	89.7845	1,413.57	89.1988	1,413.57	89.4504	1,413.57	88.5894	1,413.57	88.857	1,413.57	88.1875	1,413.57	88.351	1,413.57	87.1244	1,413.57	87.4127	1,413.57	86.1203	1,413.57	86.9237	1,413.57	85.3011	1,413.57	86.0513	1,413.57	84.3147	1,413.57	84.9687	1,413.57	83.9293	1,413.57	84.2733	1,413.57	82.8883	1,413.57	83.1955	1,413.57	81.346	1,413.57	81.7595	1,413.57	79.7184	1,413.57	80.206	1,413.57	76.9586	1,413.57	79.8007	1,413.57	72.1876	1,413.57	76.8985	1,413.57	70.5023	1,413.57	71.4366	1,413.57	72.8856	1,413.57	67.6794	1,413.57	75.7871	1,413.57	72.6181	1,413.57	78.3099	1,413.57	76.414	1,413.57	78.4147
1,463.38	89.1463	1,463.38	88.8888	1,463.38	88.8286	1,463.38	88.1197	1,463.38	88.2163	1,463.38	87.2802	1,463.38	87.4855	1,463.38	86.6821	1,463.38	86.6236	1,463.38	85.7875	1,463.38	85.5513	1,463.38	84.7392	1,463.38	84.2964	1,463.38	83.969	1,463.38	83.9452	1,463.38	83.6245	1,463.38	82.7373	1,463.38	82.6832	1,463.38	81.7059	1,463.38	80.6717	1,463.38	80.2234	1,463.38	79.3038	1,463.38	79.2031	1,463.38	77.3014	1,463.38	78.2964	1,463.38	74.5921	1,463.38	75.736	1,463.38	71.026	1,463.38	74.3832	1,463.38	72.1083	1,463.38	69.3261	1,463.38	75.9458	1,463.38	73.3923	1,463.38	75.2884	1,463.38	76.7668	1,463.38	75.7345
1,516.11	87.8859	1,516.11	87.4444	1,516.11	87.8706	1,516.11	87.0568	1,516.11	87.0744	1,516.11	86.6476	1,516.11	86.5352	1,516.11	84.6383	1,516.11	86.1128	1,516.11	83.6172	1,516.11	83.9959	1,516.11	82.9536	1,516.11	82.4491	1,516.11	81.3848	1,516.11	81.7385	1,516.11	81.1235	1,516.11	80.9898	1,516.11	79.4186	1,516.11	81.1903	1,516.11	77.0942	1,516.11	80.2845	1,516.11	76.0428	1,516.11	77.9041	1,516.11	75.0161	1,516.11	75.1058	1,516.11	69.996	1,516.11	74.7205	1,516.11	68.8468	1,516.11	72.6971	1,516.11	74.678	1,516.11	66.288	1,516.11	73.14	1,516.11	72.7699	1,516.11	76.2183	1,516.11	74.5668	1,516.11	75.5427
1,568.85	87.9391	1,568.85	87.0939	1,568.85	87.4349	1,568.85	86.7442	1,568.85	87.1662	1,568.85	85.2543	1,568.85	86.7269	1,568.85	83.6497	1,568.85	85.1971	1,568.85	83.5136	1,568.85	83.3993	1,568.85	81.2167	1,568.85	82.1657	1,568.85	80.3637	1,568.85	81.1654	1,568.85	80.3255	1,568.85	81.46	1,568.85	79.5129	1,568.85	81.2605	1,568.85	78.6227	1,568.85	80.3748	1,568.85	76.395	1,568.85	79.9781	1,568.85	75.4292	1,568.85	77.7633	1,568.85	70.2048	1,568.85	75.568	1,568.85	66.0185	1,568.85	63.795	1,568.85	71.812	1,568.85	72.8334	1,568.85	78.006	1,568.85	75.1232	1,568.85	78.382	1,568.85	78.6815	1,568.85	79.0234
1,624.51	87.9804	1,624.51	86.7126	1,624.51	88.0677	1,624.51	86.0163	1,624.51	86.9429	1,624.51	84.5566	1,624.51	86.4723	1,624.51	82.8627	1,624.51	85.0823	1,624.51	80.98	1,624.51	82.9097	1,624.51	77.6123	1,624.51	81.1812	1,624.51	77.7067	1,624.51	79.5343	1,624.51	77.7206	1,624.51	78.2362	1,624.51	77.8607	1,624.51	78.5151	1,624.51	78.6547	1,624.51	77.8846	1,624.51	76.3367	1,624.51	77.4226	1,624.51	73.7541	1,624.51	78.0331	1,624.51	69.0454	1,624.51	75.324	1,624.51	65.734	1,624.51	67.6297	1,624.51	71.3191	1,624.51	67.0581	1,624.51	76.109	1,624.51	73.8816	1,624.51	77.2293	1,624.51	79.4063	1,624.51	79.5353
1,681.64	87.6779	1,681.64	86.9938	1,681.64	87.3541	1,681.64	86.5402	1,681.64	87.3927	1,681.64	85.8492	1,681.64	86.6642	1,681.64	83.6116	1,681.64	85.8545	1,681.64	82.7521	1,681.64	84.2449	1,681.64	80.2281	1,681.64	82.7625	1,681.64	77.9759	1,681.64	79.8004	1,681.64	74.2118	1,681.64	79.5064	1,681.64	77.0555	1,681.64	76.9931	1,681.64	76.3037	1,681.64	77.1012	1,681.64	78.2105	1,681.64	77.0129	1,681.64	74.9852	1,681.64	75.7193	1,681.64	76.4953	1,681.64	74.769	1,681.64	67.2927	1,681.64	72.2667	1,681.64	62.6205	1,681.64	68.5358	1,681.64	58.3008	1,681.64	62.485	1,681.64	72.8078	1,681.64	56.9646	1,681.64	75.0951
1,741.7	87.0636	1,741.7	86.4179	1,741.7	87.3394	1,741.7	85.926	1,741.7	86.1493	1,741.7	84.7502	1,741.7	85.0333	1,741.7	84.1087	1,741.7	84.7175	1,741.7	81.3167	1,741.7	82.6317	1,741.7	80.0291	1,741.7	81.7936	1,741.7	76.7252	1,741.7	79.5389	1,741.7	77.3976	1,741.7	79.5664	1,741.7	77.1897	1,741.7	77.4674	1,741.7	75.2058	1,741.7	77.6958	1,741.7	74.1538	1,741.7	77.0286	1,741.7	74.1667	1,741.7	75.0786	1,741.7	71.4392	1,741.7	74.0466	1,741.7	64.5938	1,741.7	74.2747	1,741.7	61.7079	1,741.7	58.4943	1,741.7	68.3373	1,741.7	63.9611	1,741.7	70.4564	1,741.7	70.3736	1,741.7	67.4878
1,803.22	86.4806	1,803.22	86.3413	1,803.22	86.1119	1,803.22	86.2029	1,803.22	86.7064	1,803.22	85.0485	1,803.22	85.3047	1,803.22	82.8583	1,803.22	84.2248	1,803.22	81.42	1,803.22	81.9207	1,803.22	79.8125	1,803.22	80.6881	1,803.22	78.6841	1,803.22	79.0561	1,803.22	80.1921	1,803.22	76.6773	1,803.22	79.1968	1,803.22	76.3698	1,803.22	77.5752	1,803.22	77.2403	1,803.22	78.2784	1,803.22	73.5281	1,803.22	75.7201	1,803.22	72.672	1,803.22	74.5623	1,803.22	72.8124	1,803.22	70.5131	1,803.22	66.9588	1,803.22	68.4009	1,803.22	65.9287	1,803.22	64.0698	1,803.22	62.5674	1,803.22	69.0256	1,803.22	71.5166	1,803.22	71.6749
1,866.21	85.077	1,866.21	85.8629	1,866.21	85.2749	1,866.21	85.3793	1,866.21	84.4658	1,866.21	83.4156	1,866.21	85.3394	1,866.21	81.9246	1,866.21	83.0219	1,866.21	82.5765	1,866.21	82.9334	1,866.21	80.2779	1,866.21	82.1164	1,866.21	77.5339	1,866.21	81.8541	1,866.21	78.0497	1,866.21	80.0497	1,866.21	77.8368	1,866.21	78.759	1,866.21	75.7033	1,866.21	75.9844	1,866.21	74.4971	1,866.21	73.1421	1,866.21	71.3053	1,866.21	75.1857	1,866.21	65.5355	1,866.21	74.4338	1,866.21	65.8565	1,866.21	62.529	1,866.21	67.7284	1,866.21	62.4424	1,866.21	66.4989	1,866.21	66.0493	1,866.21	72.023	1,866.21	71.8192	1,866.21	74.36
1,932.13	84.9997	1,932.13	85.6479	1,932.13	84.3045	1,932.13	84.1066	1,932.13	84.2927	1,932.13	83.2585	1,932.13	84.4399	1,932.13	83.3278	1,932.13	82.9655	1,932.13	80.7944	1,932.13	81.7506	1,932.13	79.6747	1,932.13	81.4216	1,932.13	76.4168	1,932.13	78.1291	1,932.13	74.763	1,932.13	72.9765	1,932.13	75.1732	1,932.13	72.5862	1,932.13	73.0228	1,932.13	75.9856	1,932.13	75.5387	1,932.13	77.1432	1,932.13	74.4804	1,932.13	79.0473	1,932.13	70.5155	1,932.13	76.9098	1,932.13	69.1322	1,932.13	68.0779	1,932.13	64.2138	1,932.13	69.5464	1,932.13	68.2374	1,932.13	58.96	1,932.13	71.5773	1,932.13	69.0931	1,932.13	73.7294
1,999.51	86.8733	1,999.51	86.4125	1,999.51	85.2523	1,999.51	84.9237	1,999.51	86.1842	1,999.51	84.3353	1,999.51	85.2818	1,999.51	82.8247	1,999.51	83.66	1,999.51	80.592	1,999.51	81.902	1,999.51	79.5784	1,999.51	78.5446	1,999.51	76.0365	1,999.51	78.2541	1,999.51	71.2858	1,999.51	79.0093	1,999.51	63.9695	1,999.51	77.3896	1,999.51	73.7084	1,999.51	76.7225	1,999.51	78.0954	1,999.51	75.0146	1,999.51	77.3873	1,999.51	78.4088	1,999.51	74.8527	1,999.51	77.2617	1,999.51	70.0339	1,999.51	70.9227	1,999.51	58.2911	1,999.51	73.7192	1,999.51	69.2716	1,999.51	58.8103	1,999.51	73.2755	1,999.51	68.8438	1,999.51	71.6326
2,069.82	87.5157	2,069.82	87.0393	2,069.82	87.0167	2,069.82	85.7707	2,069.82	86.7389	2,069.82	85.0812	2,069.82	85.4884	2,069.82	82.6951	2,069.82	83.8212	2,069.82	82.1762	2,069.82	83.2239	2,069.82	80.937	2,069.82	83.1043	2,069.82	79.2522	2,069.82	81.9461	2,069.82	77.4033	2,069.82	80.6663	2,069.82	74.295	2,069.82	78.1848	2,069.82	70.8362	2,069.82	73.979	2,069.82	75.6612	2,069.82	75.8885	2,069.82	75.7464	2,069.82	78.6118	2,069.82	77.4294	2,069.82	76.0048	2,069.82	71.9154	2,069.82	76.6019	2,069.82	70.0391	2,069.82	70.5448	2,069.82	57.8879	2,069.82	61.8757	2,069.82	70.3809	2,069.82	61.9977	2,069.82	67.0824
2,143.07	86.4837	2,143.07	86.9325	2,143.07	86.8703	2,143.07	86.2957	2,143.07	86.8961	2,143.07	85.102	2,143.07	85.4361	2,143.07	84.2447	2,143.07	84.3541	2,143.07	81.2607	2,143.07	83.006	2,143.07	79.0288	2,143.07	82.0682	2,143.07	77.2633	2,143.07	79.9409	2,143.07	72.4027	2,143.07	77.7469	2,143.07	73.5766	2,143.07	74.2153	2,143.07	72.0982	2,143.07	73.3651	2,143.07	72.1337	2,143.07	77.794	2,143.07	77.7456	2,143.07	75.0062	2,143.07	78.1241	2,143.07	76.5078	2,143.07	78.0098	2,143.07	76.1132	2,143.07	71.7138	2,143.07	70.7097	2,143.07	56.7299	2,143.07	63.9371	2,143.07	66.4052	2,143.07	59.778	2,143.07	65.9657
2,219.24	86.7237	2,219.24	85.8996	2,219.24	86.2802	2,219.24	86.2297	2,219.24	86.2546	2,219.24	85.2522	2,219.24	84.2923	2,219.24	83.1138	2,219.24	82.2781	2,219.24	81.0691	2,219.24	82.3103	2,219.24	80.0939	2,219.24	81.4495	2,219.24	78.4398	2,219.24	79.4463	2,219.24	75.283	2,219.24	78.9229	2,219.24	73.5611	2,219.24	74.7456	2,219.24	74.5223	2,219.24	71.157	2,219.24	75.8943	2,219.24	69.174	2,219.24	75.7244	2,219.24	68.2941	2,219.24	74.0675	2,219.24	74.4905	2,219.24	75.5332	2,219.24	72.9695	2,219.24	69.3688	2,219.24	74.7512	2,219.24	68.9853	2,219.24	66.5212	2,219.24	65.8464	2,219.24	63.4373	2,219.24	54.5996
2,296.88	86.7588	2,296.88	86.6092	2,296.88	86.3466	2,296.88	85.1673	2,296.88	85.8962	2,296.88	84.803	2,296.88	84.7248	2,296.88	82.4146	2,296.88	83.5362	2,296.88	80.6932	2,296.88	82.27	2,296.88	80.6806	2,296.88	81.2298	2,296.88	79.5715	2,296.88	79.8193	2,296.88	76.004	2,296.88	78.3343	2,296.88	74.5267	2,296.88	77.2109	2,296.88	73.8167	2,296.88	74.3374	2,296.88	68.3945	2,296.88	74.3464	2,296.88	72.5073	2,296.88	68.804	2,296.88	75.6411	2,296.88	74.7409	2,296.88	74.4414	2,296.88	75.1276	2,296.88	68.4085	2,296.88	74.1107	2,296.88	66.5347	2,296.88	64.8954	2,296.88	67.3902	2,296.88	64.1001	2,296.88	66.0997
2,378.91	87.6698	2,378.91	87.4353	2,378.91	87.1416	2,378.91	85.9947	2,378.91	87.6567	2,378.91	85.0857	2,378.91	87.2471	2,378.91	83.0837	2,378.91	85.1162	2,378.91	81.6916	2,378.91	82.8772	2,378.91	79.9602	2,378.91	82.0394	2,378.91	80.742	2,378.91	81.2011	2,378.91	78.8048	2,378.91	79.5511	2,378.91	77.5924	2,378.91	78.388	2,378.91	72.732	2,378.91	75.5071	2,378.91	72.5093	2,378.91	74.9641	2,378.91	73.7929	2,378.91	74.8839	2,378.91	74.4947	2,378.91	76.2508	2,378.91	72.0477	2,378.91	75.8073	2,378.91	71.5766	2,378.91	73.2539	2,378.91	66.516	2,378.91	70.7559	2,378.91	64.432	2,378.91	68.8824	2,378.91	62.5924
2,462.4	89.0512	2,462.4	88.7412	2,462.4	89.1141	2,462.4	87.9731	2,462.4	88.5913	2,462.4	86.5739	2,462.4	87.4616	2,462.4	84.8456	2,462.4	86.0349	2,462.4	82.9489	2,462.4	84.4447	2,462.4	80.9917	2,462.4	82.7319	2,462.4	79.5045	2,462.4	81.0948	2,462.4	78.6474	2,462.4	79.788	2,462.4	77.0609	2,462.4	78.8137	2,462.4	74.3396	2,462.4	76.2678	2,462.4	72.1914	2,462.4	73.6924	2,462.4	73.4639	2,462.4	72.7496	2,462.4	75.7657	2,462.4	75.3838	2,462.4	76.3104	2,462.4	76.71	2,462.4	73.9555	2,462.4	75.4321	2,462.4	67.7324	2,462.4	71.1475	2,462.4	59.2691	2,462.4	64.086	2,462.4	63.292
2,548.83	88.5353	2,548.83	88.5203	2,548.83	88.4404	2,548.83	87.4614	2,548.83	88.1115	2,548.83	86.5539	2,548.83	86.8978	2,548.83	84.887	2,548.83	85.6892	2,548.83	83.2551	2,548.83	83.9391	2,548.83	80.9332	2,548.83	81.9667	2,548.83	79.8243	2,548.83	79.7139	2,548.83	77.7332	2,548.83	78.0799	2,548.83	77.6698	2,548.83	77.4902	2,548.83	75.6105	2,548.83	76.3242	2,548.83	73.1431	2,548.83	74.0707	2,548.83	71.9811	2,548.83	71.3586	2,548.83	72.9214	2,548.83	71.7072	2,548.83	74.8323	2,548.83	73.9962	2,548.83	74.6659	2,548.83	73.6005	2,548.83	73.38	2,548.83	72.6048	2,548.83	71.1891	2,548.83	72.1348	2,548.83	71.7918
2,639.65	87.9412	2,639.65	87.4813	2,639.65	87.7971	2,639.65	86.4602	2,639.65	86.9758	2,639.65	85.1437	2,639.65	85.6881	2,639.65	83.2738	2,639.65	84.2191	2,639.65	81.6931	2,639.65	82.7051	2,639.65	80.0062	2,639.65	81.1322	2,639.65	77.9236	2,639.65	79.3097	2,639.65	76.7067	2,639.65	77.0868	2,639.65	76.0809	2,639.65	75.2771	2,639.65	74.3685	2,639.65	74.3685	2,639.65	73.8756	2,639.65	72.9844	2,639.65	73.1147	2,639.65	71.1393	2,639.65	72.2247	2,639.65	72.5931	2,639.65	70.0109	2,639.65	70.301	2,639.65	65.0853	2,639.65	67.9927	2,639.65	66.7111	2,639.65	61.303	2,639.65	71.1953	2,639.65	67.1762	2,639.65	72.2119
2,731.93	87.7731	2,731.93	87.2444	2,731.93	87.6572	2,731.93	86.411	2,731.93	87.089	2,731.93	85.2233	2,731.93	86.0643	2,731.93	83.431	2,731.93	84.6409	2,731.93	80.7757	2,731.93	82.7934	2,731.93	78.7612	2,731.93	80.7481	2,731.93	76.5483	2,731.93	78.8788	2,731.93	76.5494	2,731.93	77.4949	2,731.93	74.6405	2,731.93	76.5573	2,731.93	73.8172	2,731.93	75.6156	2,731.93	71.1406	2,731.93	72.6287	2,731.93	72.6965	2,731.93	71.7679	2,731.93	73.4647	2,731.93	72.4041	2,731.93	73.1317	2,731.93	73.4251	2,731.93	71.1811	2,731.93	72.9546	2,731.93	63.9291	2,731.93	69.273	2,731.93	57.0446	2,731.93	62.3151	2,731.93	61.9434
2,828.61	88.2524	2,828.61	87.632	2,828.61	88.5236	2,828.61	87.2108	2,828.61	87.5946	2,828.61	85.8726	2,828.61	86.7363	2,828.61	84.561	2,828.61	85.4605	2,828.61	83.1791	2,828.61	84.0479	2,828.61	80.637	2,828.61	81.6961	2,828.61	78.3531	2,828.61	79.4242	2,828.61	77.4787	2,828.61	77.3647	2,828.61	76.0168	2,828.61	76.5066	2,828.61	75.4753	2,828.61	76.2124	2,828.61	73.8941	2,828.61	75.1832	2,828.61	70.3673	2,828.61	72.6959	2,828.61	71.9124	2,828.61	71.3982	2,828.61	74.1096	2,828.61	73.5578	2,828.61	73.4464	2,828.61	73.476	2,828.61	70.798	2,828.61	72.0003	2,828.61	71.1145	2,828.61	69.9035	2,828.61	70.7473
2,928.22	89.3146	2,928.22	88.9715	2,928.22	89.2552	2,928.22	88.0178	2,928.22	88.6628	2,928.22	86.7916	2,928.22	87.5507	2,928.22	85.5441	2,928.22	86.0818	2,928.22	84.2306	2,928.22	84.5238	2,928.22	82.0221	2,928.22	82.9571	2,928.22	80.3719	2,928.22	80.7547	2,928.22	78.4333	2,928.22	78.4499	2,928.22	76.6728	2,928.22	76.2585	2,928.22	76.2645	2,928.22	75.5139	2,928.22	75.0196	2,928.22	75.7443	2,928.22	73.2341	2,928.22	73.8773	2,928.22	71.8753	2,928.22	72.5573	2,928.22	73.9726	2,928.22	73.0476	2,928.22	73.6546	2,928.22	73.0393	2,928.22	72.6422	2,928.22	70.4508	2,928.22	72.9949	2,928.22	70.9062	2,928.22	72.9919
3,030.76	89.8582	3,030.76	89.3624	3,030.76	89.9023	3,030.76	88.5065	3,030.76	88.8933	3,030.76	87.3091	3,030.76	87.8154	3,030.76	85.759	3,030.76	86.3977	3,030.76	84.577	3,030.76	84.8869	3,030.76	82.6429	3,030.76	83.1415	3,030.76	81.28	3,030.76	81.4225	3,030.76	78.6823	3,030.76	79.4421	3,030.76	76.9434	3,030.76	77.3736	3,030.76	76.3792	3,030.76	76.0282	3,030.76	74.9223	3,030.76	75.2115	3,030.76	73.2655	3,030.76	74.0714	3,030.76	72.8902	3,030.76	72.0007	3,030.76	73.9134	3,030.76	73.0408	3,030.76	72.5664	3,030.76	73.1943	3,030.76	71.1056	3,030.76	70.54	3,030.76	71.4841	3,030.76	71.7563	3,030.76	72.6226
3,137.7	89.5875	3,137.7	89.1658	3,137.7	89.3076	3,137.7	88.2408	3,137.7	88.834	3,137.7	87.1036	3,137.7	87.6171	3,137.7	86.0787	3,137.7	86.3599	3,137.7	84.5371	3,137.7	84.4834	3,137.7	82.6896	3,137.7	82.8741	3,137.7	81.3337	3,137.7	81.1399	3,137.7	78.9194	3,137.7	79.5927	3,137.7	77.333	3,137.7	77.6286	3,137.7	76.2029	3,137.7	75.7015	3,137.7	75.2325	3,137.7	75.1775	3,137.7	73.2903	3,137.7	74.1434	3,137.7	72.7778	3,137.7	72.6992	3,137.7	73.3074	3,137.7	72.9979	3,137.7	70.1563	3,137.7	71.5455	3,137.7	66.6832	3,137.7	67.4019	3,137.7	69.9499	3,137.7	66.7995	3,137.7	71.1975
3,249.02	88.8712	3,249.02	88.6075	3,249.02	88.8038	3,249.02	87.67	3,249.02	88.2682	3,249.02	86.6717	3,249.02	87.1319	3,249.02	85.2959	3,249.02	85.8517	3,249.02	83.7103	3,249.02	84.3601	3,249.02	82.07	3,249.02	82.893	3,249.02	80.206	3,249.02	80.9821	3,249.02	77.8956	3,249.02	79.4582	3,249.02	76.3108	3,249.02	77.9313	3,249.02	76.3744	3,249.02	76.0694	3,249.02	74.3038	3,249.02	75.6943	3,249.02	72.4722	3,249.02	73.9721	3,249.02	72.6642	3,249.02	72.7376	3,249.02	73.6769	3,249.02	71.334	3,249.02	72.4088	3,249.02	73.0763	3,249.02	66.1596	3,249.02	70.438	3,249.02	69.0239	3,249.02	65.2248	3,249.02	71.7054
3,363.28	88.8646	3,363.28	88.7625	3,363.28	88.4606	3,363.28	87.7703	3,363.28	88.3374	3,363.28	86.686	3,363.28	87.1523	3,363.28	85.8236	3,363.28	85.8709	3,363.28	83.9577	3,363.28	84.2729	3,363.28	82.5923	3,363.28	83.1407	3,363.28	80.527	3,363.28	81.4489	3,363.28	78.0302	3,363.28	78.8758	3,363.28	75.7802	3,363.28	76.1617	3,363.28	75.129	3,363.28	75.5307	3,363.28	74.4983	3,363.28	74.8956	3,363.28	73.0918	3,363.28	73.7093	3,363.28	72.9523	3,363.28	72	3,363.28	72.8172	3,363.28	72.3501	3,363.28	71.4643	3,363.28	72.8553	3,363.28	68.4476	3,363.28	70.4395	3,363.28	68.3633	3,363.28	68.8042	3,363.28	70.2596
3,481.93	89.1081	3,481.93	88.8578	3,481.93	89.0859	3,481.93	88.2967	3,481.93	88.1578	3,481.93	87.248	3,481.93	87.2474	3,481.93	85.5605	3,481.93	85.658	3,481.93	83.5709	3,481.93	84.6514	3,481.93	82.4636	3,481.93	83.3563	3,481.93	80.6643	3,481.93	81.612	3,481.93	78.4032	3,481.93	79.3352	3,481.93	75.674	3,481.93	77.3633	3,481.93	75.5049	3,481.93	74.8411	3,481.93	75.3536	3,481.93	75.1367	3,481.93	73.5387	3,481.93	74.3625	3,481.93	72.7703	3,481.93	72.4911	3,481.93	73.6838	3,481.93	73.4911	3,481.93	73.451	3,481.93	73.1466	3,481.93	69.486	3,481.93	71.3984	3,481.93	69.1745	3,481.93	66.7484	3,481.93	69.8157
3,604.98	89.1478	3,604.98	88.682	3,604.98	89.1633	3,604.98	87.686	3,604.98	88.1617	3,604.98	86.8882	3,604.98	87.6486	3,604.98	85.1204	3,604.98	86.5792	3,604.98	84.0059	3,604.98	85.4517	3,604.98	82.0432	3,604.98	83.673	3,604.98	80.2338	3,604.98	81.5582	3,604.98	78.4872	3,604.98	80.3876	3,604.98	75.6905	3,604.98	77.8736	3,604.98	75.2984	3,604.98	76.0971	3,604.98	74.4906	3,604.98	76.0811	3,604.98	74.4172	3,604.98	75.7878	3,604.98	70.2631	3,604.98	74.4784	3,604.98	73.387	3,604.98	73.7441	3,604.98	73.8559	3,604.98	74.7563	3,604.98	68.5176	3,604.98	73.0646	3,604.98	70.6263	3,604.98	68.26	3,604.98	71.4949
3,732.42	89.1907	3,732.42	88.5751	3,732.42	89.262	3,732.42	88.31	3,732.42	88.5455	3,732.42	87.2815	3,732.42	87.6975	3,732.42	85.3673	3,732.42	86.7536	3,732.42	84.3714	3,732.42	85.4198	3,732.42	82.6598	3,732.42	83.3255	3,732.42	81.6023	3,732.42	81.8566	3,732.42	79.2612	3,732.42	79.9196	3,732.42	76.8813	3,732.42	77.3716	3,732.42	73.6544	3,732.42	75.5063	3,732.42	75.1555	3,732.42	74.2187	3,732.42	74.9499	3,732.42	74.2692	3,732.42	71.9537	3,732.42	74.0545	3,732.42	74.2719	3,732.42	72.9483	3,732.42	73.9062	3,732.42	75.2853	3,732.42	70.9419	3,732.42	73.2506	3,732.42	70.5761	3,732.42	69.3473	3,732.42	72.1259
3,864.26	87.6243	3,864.26	87.4802	3,864.26	87.3833	3,864.26	86.9609	3,864.26	87.5099	3,864.26	85.9299	3,864.26	86.6445	3,864.26	85.0308	3,864.26	85.5509	3,864.26	83.2451	3,864.26	83.9956	3,864.26	81.3925	3,864.26	81.3724	3,864.26	79.7995	3,864.26	79.9387	3,864.26	77.2236	3,864.26	78.8407	3,864.26	75.634	3,864.26	76.0605	3,864.26	72.5775	3,864.26	73.8378	3,864.26	74.3744	3,864.26	72.5068	3,864.26	73.4909	3,864.26	74.5131	3,864.26	69.8583	3,864.26	71.6406	3,864.26	72.649	3,864.26	71.382	3,864.26	73.6788	3,864.26	73.264	3,864.26	69.7411	3,864.26	73.1506	3,864.26	70.856	3,864.26	69.1558	3,864.26	72.0747
4,000.49	86.9999	4,000.49	87.3879	4,000.49	86.7338	4,000.49	86.7494	4,000.49	87.1483	4,000.49	85.6245	4,000.49	86.2239	4,000.49	84.5616	4,000.49	85.2218	4,000.49	81.8651	4,000.49	83.2289	4,000.49	79.985	4,000.49	81.8029	4,000.49	78.2479	4,000.49	80.9048	4,000.49	76.6541	4,000.49	78.16	4,000.49	74.3997	4,000.49	76.3152	4,000.49	72.1129	4,000.49	74.7937	4,000.49	72.5118	4,000.49	73.5425	4,000.49	73.5969	4,000.49	74.203	4,000.49	71.7373	4,000.49	73.1408	4,000.49	71.5985	4,000.49	71.3433	4,000.49	73.0815	4,000.49	73.7678	4,000.49	68.056	4,000.49	71.8221	4,000.49	69.392	4,000.49	67.8722	4,000.49	70.9177
4,141.11	87.7836	4,141.11	87.3775	4,141.11	87.8595	4,141.11	87.2596	4,141.11	86.8018	4,141.11	85.9126	4,141.11	86.0697	4,141.11	83.5697	4,141.11	84.267	4,141.11	81.8408	4,141.11	82.6242	4,141.11	80.0594	4,141.11	81.3157	4,141.11	78.7179	4,141.11	80.1472	4,141.11	78.0472	4,141.11	77.9731	4,141.11	76.2534	4,141.11	77.3218	4,141.11	72.0447	4,141.11	73.7274	4,141.11	72.5776	4,141.11	70.9526	4,141.11	74.4679	4,141.11	73.7359	4,141.11	74.5875	4,141.11	73.5039	4,141.11	72.722	4,141.11	70.5376	4,141.11	73.4112	4,141.11	73.0597	4,141.11	70.2939	4,141.11	72.2463	4,141.11	69.3205	4,141.11	66.5262	4,141.11	71.2352
4,287.6	87.8574	4,287.6	87.1035	4,287.6	87.6477	4,287.6	86.4466	4,287.6	86.4243	4,287.6	84.2769	4,287.6	84.5453	4,287.6	82.4618	4,287.6	83.8348	4,287.6	81.4738	4,287.6	82.5142	4,287.6	80.7081	4,287.6	81.4192	4,287.6	79.1699	4,287.6	79.9318	4,287.6	77.2633	4,287.6	77.8385	4,287.6	76.9058	4,287.6	77.5222	4,287.6	74.4716	4,287.6	75.4462	4,287.6	71.0727	4,287.6	73.2429	4,287.6	72.577	4,287.6	72.1921	4,287.6	73.3991	4,287.6	73.348	4,287.6	71.3899	4,287.6	72.7666	4,287.6	72.9985	4,287.6	72.4529	4,287.6	68.9031	4,287.6	72.911	4,287.6	67.6646	4,287.6	64.8991	4,287.6	70.542
4,438.48	87.5837	4,438.48	87.5187	4,438.48	87.2517	4,438.48	85.3049	4,438.48	86.6976	4,438.48	84.7376	4,438.48	85.207	4,438.48	84.3036	4,438.48	84.4403	4,438.48	83.5628	4,438.48	83.607	4,438.48	81.5998	4,438.48	81.9936	4,438.48	79.8441	4,438.48	79.9848	4,438.48	78.3783	4,438.48	78.7011	4,438.48	77.124	4,438.48	77.985	4,438.48	76.1751	4,438.48	75.5128	4,438.48	69.8076	4,438.48	72.6606	4,438.48	72.6739	4,438.48	71.9008	4,438.48	72.8027	4,438.48	73.6452	4,438.48	70.596	4,438.48	71.236	4,438.48	72.9852	4,438.48	72.621	4,438.48	69.2389	4,438.48	72.6382	4,438.48	65.9748	4,438.48	65.8897	4,438.48	69.395
4,595.21	86.802	4,595.21	86.1122	4,595.21	87.5207	4,595.21	86.2028	4,595.21	86.2366	4,595.21	85.5092	4,595.21	86.3244	4,595.21	85.4478	4,595.21	85.1479	4,595.21	84.3258	4,595.21	83.0441	4,595.21	81.9451	4,595.21	82.1865	4,595.21	79.2494	4,595.21	80.7482	4,595.21	78.6588	4,595.21	78.3694	4,595.21	76.2178	4,595.21	76.7047	4,595.21	74.5868	4,595.21	74.952	4,595.21	72.0444	4,595.21	72.5289	4,595.21	72.6752	4,595.21	71.5586	4,595.21	73.8487	4,595.21	71.9416	4,595.21	71.5576	4,595.21	71.539	4,595.21	74.4556	4,595.21	70.441	4,595.21	69.9971	4,595.21	73.0906	4,595.21	65.2696	4,595.21	68.371	4,595.21	68.3068
4,756.35	88.0835	4,756.35	87.3065	4,756.35	88.162	4,756.35	87.7082	4,756.35	88.1462	4,756.35	87.3526	4,756.35	87.6374	4,756.35	86.5507	4,756.35	87.1152	4,756.35	84.9549	4,756.35	85.9294	4,756.35	83.3537	4,756.35	83.8388	4,756.35	81.6367	4,756.35	81.1151	4,756.35	78.2984	4,756.35	80.5421	4,756.35	77.4097	4,756.35	77.3441	4,756.35	73.6423	4,756.35	75.2558	4,756.35	73.2257	4,756.35	74.6887	4,756.35	71.2689	4,756.35	70.9304	4,756.35	71.9728	4,756.35	73.4671	4,756.35	71.7729	4,756.35	73.3837	4,756.35	72.7697	4,756.35	72.1733	4,756.35	70.0135	4,756.35	74.2963	4,756.35	63.5124	4,756.35	68.5731	4,756.35	66.8683
4,924.8	87.4264	4,924.8	87.8256	4,924.8	87.0522	4,924.8	87.597	4,924.8	88.5592	4,924.8	87.9442	4,924.8	88.5158	4,924.8	87.161	4,924.8	88.2589	4,924.8	85.4097	4,924.8	86.8075	4,924.8	82.845	4,924.8	84.8478	4,924.8	81.1089	4,924.8	82.1107	4,924.8	78.4267	4,924.8	78.7842	4,924.8	77.0211	4,924.8	76.7427	4,924.8	75.8831	4,924.8	74.4464	4,924.8	72.465	4,924.8	73.3753	4,924.8	71.9925	4,924.8	70.7388	4,924.8	71.2034	4,924.8	71.2599	4,924.8	70.2154	4,924.8	70.9929	4,924.8	72.5416	4,924.8	70.907	4,924.8	72.1867	4,924.8	72.5231	4,924.8	65.6433	4,924.8	63.4919	4,924.8	66.47
5,097.66	87.2256	5,097.66	87.9378	5,097.66	88.25	5,097.66	88.8363	5,097.66	88.0533	5,097.66	88.2648	5,097.66	89.5751	5,097.66	86.8482	5,097.66	88.3403	5,097.66	84.4872	5,097.66	86.6256	5,097.66	81.6672	5,097.66	84.6635	5,097.66	77.4928	5,097.66	81.7537	5,097.66	77.4233	5,097.66	78.61	5,097.66	72.9352	5,097.66	76.7304	5,097.66	73.3782	5,097.66	74.4831	5,097.66	70.1387	5,097.66	72.2168	5,097.66	70.4215	5,097.66	70.1486	5,097.66	72.1101	5,097.66	69.5665	5,097.66	64.8804	5,097.66	70.3108	5,097.66	72.4567	5,097.66	67.5253	5,097.66	68.6049	5,097.66	70.1633	5,097.66	61.0656	5,097.66	67.0912	5,097.66	66.4807
5,277.83	87.6248	5,277.83	88.5707	5,277.83	87.4995	5,277.83	89.2419	5,277.83	89.0638	5,277.83	88.7496	5,277.83	88.801	5,277.83	87.595	5,277.83	88.6294	5,277.83	85.2214	5,277.83	87.1261	5,277.83	82.9508	5,277.83	84.361	5,277.83	81.0963	5,277.83	81.6575	5,277.83	78.7875	5,277.83	80.7969	5,277.83	77.1526	5,277.83	77.1184	5,277.83	70.3379	5,277.83	75.2233	5,277.83	70.5189	5,277.83	74.1163	5,277.83	68.9395	5,277.83	70.5991	5,277.83	69.7673	5,277.83	70.6713	5,277.83	69.3012	5,277.83	72.0358	5,277.83	68.2741	5,277.83	68.2588	5,277.83	69.0774	5,277.83	72.1699	5,277.83	62.5026	5,277.83	66.5256	5,277.83	62.9891
5,463.87	87.4895	5,463.87	88.0929	5,463.87	87.841	5,463.87	88.3129	5,463.87	88.7602	5,463.87	87.8001	5,463.87	89.0101	5,463.87	85.9545	5,463.87	88.1701	5,463.87	84.4486	5,463.87	86.6465	5,463.87	81.5048	5,463.87	84.5956	5,463.87	80.6527	5,463.87	83.2244	5,463.87	76.8055	5,463.87	79.1245	5,463.87	76.1016	5,463.87	77.3828	5,463.87	73.1597	5,463.87	75.9066	5,463.87	71.3767	5,463.87	73.503	5,463.87	69.6403	5,463.87	71.4292	5,463.87	70.8382	5,463.87	72.0017	5,463.87	69.6362	5,463.87	72.146	5,463.87	69.5319	5,463.87	70.1809	5,463.87	70.6655	5,463.87	71.0074	5,463.87	59.9718	5,463.87	66.582	5,463.87	63.8788
5,657.23	87.6718	5,657.23	88.3117	5,657.23	88.3434	5,657.23	88.6008	5,657.23	88.1898	5,657.23	87.7713	5,657.23	88.5336	5,657.23	86.5011	5,657.23	87.6838	5,657.23	84.5622	5,657.23	85.7471	5,657.23	82.3442	5,657.23	84.392	5,657.23	79.2763	5,657.23	81.7884	5,657.23	77.8041	5,657.23	79.974	5,657.23	74.8977	5,657.23	77.6346	5,657.23	72.9054	5,657.23	75.1279	5,657.23	72.2556	5,657.23	72.9111	5,657.23	69.0488	5,657.23	71.6488	5,657.23	70.0377	5,657.23	70.257	5,657.23	69.6248	5,657.23	71.436	5,657.23	68.6458	5,657.23	67.4853	5,657.23	70.0369	5,657.23	70.631	5,657.23	60.7058	5,657.23	64.7658	5,657.23	63.9709
5,856.45	87.9334	5,856.45	87.9349	5,856.45	87.6629	5,856.45	87.5459	5,856.45	88.1503	5,856.45	86.3388	5,856.45	87.3866	5,856.45	85.3787	5,856.45	87.2515	5,856.45	83.4634	5,856.45	86.0133	5,856.45	82.1143	5,856.45	84.0203	5,856.45	79.4701	5,856.45	82.1936	5,856.45	77.6068	5,856.45	80.1744	5,856.45	75.7504	5,856.45	76.9647	5,856.45	72.8209	5,856.45	74.9377	5,856.45	71.5519	5,856.45	71.1739	5,856.45	70.8001	5,856.45	70.1036	5,856.45	71.5062	5,856.45	66.9978	5,856.45	71.8714	5,856.45	71.9694	5,856.45	69.9028	5,856.45	70.0965	5,856.45	69.4889	5,856.45	70.2977	5,856.45	62.8498	5,856.45	68.4676	5,856.45	63.8148
6,062.99	88.3008	6,062.99	88.0917	6,062.99	88.5142	6,062.99	87.8371	6,062.99	87.9798	6,062.99	87.1297	6,062.99	87.6088	6,062.99	85.9634	6,062.99	86.5966	6,062.99	84.9816	6,062.99	85.6307	6,062.99	83.2061	6,062.99	84.2187	6,062.99	81.8257	6,062.99	82.7923	6,062.99	78.1131	6,062.99	79.4774	6,062.99	75.9237	6,062.99	77.2131	6,062.99	74.1654	6,062.99	75.3841	6,062.99	72.5561	6,062.99	72.3041	6,062.99	70.807	6,062.99	70.2557	6,062.99	68.136	6,062.99	67.53	6,062.99	73.118	6,062.99	70.8756	6,062.99	68.3488	6,062.99	68.6904	6,062.99	68.7326	6,062.99	69.6742	6,062.99	63.2598	6,062.99	68.3286	6,062.99	63.0629
6,276.86	87.8271	6,276.86	87.2389	6,276.86	87.8594	6,276.86	86.6651	6,276.86	87.0617	6,276.86	85.9497	6,276.86	87.106	6,276.86	85.4254	6,276.86	86.2429	6,276.86	83.8749	6,276.86	85.2576	6,276.86	82.0277	6,276.86	83.7071	6,276.86	79.3107	6,276.86	81.3592	6,276.86	76.5913	6,276.86	80.1435	6,276.86	74.1293	6,276.86	77.0183	6,276.86	73.9395	6,276.86	75.0739	6,276.86	72.1944	6,276.86	73.0094	6,276.86	70.7534	6,276.86	69.0566	6,276.86	70.402	6,276.86	69.3486	6,276.86	70.9206	6,276.86	69.9526	6,276.86	67.7633	6,276.86	70.7178	6,276.86	70.0068	6,276.86	70.6466	6,276.86	55.8128	6,276.86	67.1373	6,276.86	62.3637
6,498.05	87.881	6,498.05	87.5232	6,498.05	87.6472	6,498.05	86.8814	6,498.05	87.3921	6,498.05	86.5919	6,498.05	86.6412	6,498.05	86.2627	6,498.05	86.5561	6,498.05	84.5901	6,498.05	85.9486	6,498.05	83.3156	6,498.05	84.3961	6,498.05	80.2816	6,498.05	82.4972	6,498.05	78.4473	6,498.05	79.9022	6,498.05	75.9976	6,498.05	77.4855	6,498.05	74.6178	6,498.05	75.3308	6,498.05	71.2237	6,498.05	73.9429	6,498.05	69.2694	6,498.05	69.4649	6,498.05	68.0233	6,498.05	70.2509	6,498.05	71.7419	6,498.05	69.326	6,498.05	67.9709	6,498.05	71.1657	6,498.05	70.2088	6,498.05	68.5852	6,498.05	51.8965	6,498.05	66.6417	6,498.05	65.1716
6,726.56	87.5317	6,726.56	87.2956	6,726.56	87.8333	6,726.56	86.7291	6,726.56	86.6098	6,726.56	86.6821	6,726.56	86.6854	6,726.56	86.2957	6,726.56	86.1885	6,726.56	85.8101	6,726.56	85.4139	6,726.56	82.7582	6,726.56	84.5332	6,726.56	80.7211	6,726.56	82.1171	6,726.56	79.4268	6,726.56	79.6997	6,726.56	76.482	6,726.56	76.6199	6,726.56	74.6582	6,726.56	74.826	6,726.56	70.6897	6,726.56	72.9012	6,726.56	69.4147	6,726.56	69.6187	6,726.56	67.0483	6,726.56	70.6928	6,726.56	69.4992	6,726.56	70.3588	6,726.56	68.4237	6,726.56	70.9539	6,726.56	71.8518	6,726.56	70.2282	6,726.56	53.9499	6,726.56	67.643	6,726.56	62.0795
6,963.87	88.2806	6,963.87	87.7585	6,963.87	88.2416	6,963.87	87.372	6,963.87	87.5282	6,963.87	87.4329	6,963.87	87.3746	6,963.87	87.0845	6,963.87	87.5234	6,963.87	85.3964	6,963.87	86.654	6,963.87	83.9852	6,963.87	84.9327	6,963.87	82.0939	6,963.87	82.5222	6,963.87	79.9186	6,963.87	80.2923	6,963.87	76.3304	6,963.87	77.3393	6,963.87	73.378	6,963.87	74.7475	6,963.87	72.5541	6,963.87	74.1336	6,963.87	67.9338	6,963.87	69.8361	6,963.87	69.6723	6,963.87	68.8347	6,963.87	71.3192	6,963.87	69.167	6,963.87	69.9971	6,963.87	71.4504	6,963.87	71.1833	6,963.87	70.0286	6,963.87	43.4822	6,963.87	69.8251	6,963.87	63.2009
7,209.96	89.0709	7,209.96	88.2084	7,209.96	88.8799	7,209.96	87.8556	7,209.96	88.3388	7,209.96	88.0141	7,209.96	88.2392	7,209.96	87.663	7,209.96	88.3863	7,209.96	86.3945	7,209.96	87.9483	7,209.96	84.5532	7,209.96	86.0828	7,209.96	82.6721	7,209.96	84.8993	7,209.96	80.4743	7,209.96	81.6137	7,209.96	77.9964	7,209.96	79.2874	7,209.96	74.5595	7,209.96	76.7987	7,209.96	71.9088	7,209.96	74.7064	7,209.96	70.9864	7,209.96	73.682	7,209.96	71.4147	7,209.96	72.1604	7,209.96	71.6097	7,209.96	71.8613	7,209.96	70.1497	7,209.96	73.5403	7,209.96	72.4699	7,209.96	70.876	7,209.96	53.2642	7,209.96	70.7569	7,209.96	64.988
7,464.84	88.8335	7,464.84	88.1306	7,464.84	88.6838	7,464.84	88.12	7,464.84	88.3634	7,464.84	87.8765	7,464.84	88.5124	7,464.84	87.9287	7,464.84	87.9541	7,464.84	87.0111	7,464.84	87.3258	7,464.84	84.9623	7,464.84	86.2161	7,464.84	83.1433	7,464.84	84.4106	7,464.84	80.9737	7,464.84	82.1945	7,464.84	78.2812	7,464.84	79.2345	7,464.84	74.7049	7,464.84	77.0909	7,464.84	73.6268	7,464.84	74.0349	7,464.84	71.0113	7,464.84	72.8743	7,464.84	71.4326	7,464.84	68.9447	7,464.84	71.1347	7,464.84	70.9322	7,464.84	71.7641	7,464.84	73.4098	7,464.84	72.137	7,464.84	69.2134	7,464.84	56.7961	7,464.84	71.0276	7,464.84	64.136
7,727.05	89.6567	7,727.05	89.2661	7,727.05	89.6327	7,727.05	88.8598	7,727.05	89.4803	7,727.05	88.8101	7,727.05	89.4318	7,727.05	88.6656	7,727.05	89.5238	7,727.05	87.4005	7,727.05	88.8588	7,727.05	86.2757	7,727.05	87.8919	7,727.05	83.9127	7,727.05	86.4067	7,727.05	80.9941	7,727.05	82.9999	7,727.05	78.2245	7,727.05	80.7661	7,727.05	74.5507	7,727.05	77.8678	7,727.05	72.8172	7,727.05	75.9511	7,727.05	70.7647	7,727.05	73.2179	7,727.05	72.2004	7,727.05	71.0784	7,727.05	71.6642	7,727.05	73.0103	7,727.05	71.53	7,727.05	73.6456	7,727.05	71.9994	7,727.05	70.1461	7,727.05	53.9925	7,727.05	71.1379	7,727.05	63.4763
7,999.51	88.9979	7,999.51	88.8068	7,999.51	89.2169	7,999.51	88.5668	7,999.51	89.4493	7,999.51	88.1255	7,999.51	89.1422	7,999.51	88.0599	7,999.51	88.9768	7,999.51	87.3716	7,999.51	88.5773	7,999.51	85.6027	7,999.51	87.6206	7,999.51	83.4125	7,999.51	85.6635	7,999.51	80.6637	7,999.51	83.9424	7,999.51	77.587	7,999.51	80.1913	7,999.51	75.6774	7,999.51	77.608	7,999.51	73.5438	7,999.51	75.2345	7,999.51	71.6625	7,999.51	74.1666	7,999.51	71.6833	7,999.51	68.5606	7,999.51	71.4612	7,999.51	72.044	7,999.51	72.0692	7,999.51	73.2523	7,999.51	70.3815	7,999.51	68.5581	7,999.51	57.5583	7,999.51	69.7131	7,999.51	63.5996
8,282.23	88.7094	8,282.23	88.7345	8,282.23	89.1493	8,282.23	88.3138	8,282.23	88.9339	8,282.23	88.0607	8,282.23	88.8757	8,282.23	88.0313	8,282.23	88.9957	8,282.23	87.2475	8,282.23	88.654	8,282.23	85.7527	8,282.23	87.7893	8,282.23	83.1168	8,282.23	85.9224	8,282.23	80.2958	8,282.23	82.9801	8,282.23	76.1585	8,282.23	80.0479	8,282.23	74.485	8,282.23	76.8794	8,282.23	72.8864	8,282.23	75.5283	8,282.23	69.021	8,282.23	72.0689	8,282.23	70.1508	8,282.23	68.419	8,282.23	70.0241	8,282.23	73.0559	8,282.23	71.4305	8,282.23	72.1362	8,282.23	68.4435	8,282.23	68.4306	8,282.23	59.0641	8,282.23	68.7623	8,282.23	64.3032
8,573.73	88.391	8,573.73	88.4585	8,573.73	88.4149	8,573.73	88.1077	8,573.73	88.667	8,573.73	87.4092	8,573.73	87.5468	8,573.73	87.7701	8,573.73	87.241	8,573.73	86.9911	8,573.73	87.2075	8,573.73	84.7472	8,573.73	86.2713	8,573.73	82.1485	8,573.73	83.9758	8,573.73	79.184	8,573.73	81.8122	8,573.73	75.3857	8,573.73	77.9582	8,573.73	74.1136	8,573.73	73.8392	8,573.73	71.2385	8,573.73	73.4595	8,573.73	69.3366	8,573.73	69.7901	8,573.73	67.9995	8,573.73	65.7435	8,573.73	69.1229	8,573.73	69.7959	8,573.73	71.542	8,573.73	70.7872	8,573.73	67.0166	8,573.73	67.2233	8,573.73	61.4926	8,573.73	67.3916	8,573.73	63.3482
8,876.95	87.686	8,876.95	87.9054	8,876.95	88.0538	8,876.95	87.4152	8,876.95	87.0826	8,876.95	87.2768	8,876.95	86.9104	8,876.95	87.3199	8,876.95	86.9963	8,876.95	86.4558	8,876.95	86.6073	8,876.95	84.1234	8,876.95	85.11	8,876.95	80.906	8,876.95	82.3746	8,876.95	78.3296	8,876.95	78.9933	8,876.95	74.3243	8,876.95	75.9351	8,876.95	71.9838	8,876.95	72.7131	8,876.95	70.6763	8,876.95	71.2059	8,876.95	67.3287	8,876.95	67.9689	8,876.95	66.4671	8,876.95	63.971	8,876.95	69.8144	8,876.95	68.2112	8,876.95	71.12	8,876.95	68.5129	8,876.95	66.1256	8,876.95	68.4439	8,876.95	60.6501	8,876.95	66.4538	8,876.95	63.8783
9,188.96	86.8477	9,188.96	86.4423	9,188.96	86.7107	9,188.96	86.5107	9,188.96	86.3187	9,188.96	86.6207	9,188.96	86.2533	9,188.96	86.8673	9,188.96	86.4579	9,188.96	85.1926	9,188.96	85.8822	9,188.96	82.4228	9,188.96	84.0997	9,188.96	79.9658	9,188.96	81.2365	9,188.96	76.4462	9,188.96	77.5111	9,188.96	74.0569	9,188.96	75.0431	9,188.96	70.879	9,188.96	72.484	9,188.96	68.403	9,188.96	69.343	9,188.96	66.0968	9,188.96	68.0228	9,188.96	65.6044	9,188.96	61.9586	9,188.96	68.6352	9,188.96	65.8218	9,188.96	70.6367	9,188.96	67.9288	9,188.96	66.3594	9,188.96	70.5077	9,188.96	56.2809	9,188.96	67.3069	9,188.96	63.0263
9,514.16	86.5693	9,514.16	85.9502	9,514.16	86.7751	9,514.16	86.2886	9,514.16	85.9823	9,514.16	86.9314	9,514.16	86.4456	9,514.16	86.849	9,514.16	86.6349	9,514.16	84.8195	9,514.16	86.1039	9,514.16	82.0056	9,514.16	83.8079	9,514.16	78.6224	9,514.16	81.2772	9,514.16	76.2795	9,514.16	78.1269	9,514.16	73.515	9,514.16	75.0675	9,514.16	70.868	9,514.16	73.013	9,514.16	68.5352	9,514.16	69.2186	9,514.16	66.6146	9,514.16	69.008	9,514.16	67.013	9,514.16	64.9643	9,514.16	68.7914	9,514.16	65.9214	9,514.16	69.8377	9,514.16	69.0024	9,514.16	65.439	9,514.16	70.3843	9,514.16	53.7529	9,514.16	66.6361	9,514.16	64.146
9,849.61	86.9119	9,849.61	86.2874	9,849.61	86.6091	9,849.61	86.7123	9,849.61	85.8338	9,849.61	87.1672	9,849.61	86.705	9,849.61	86.5719	9,849.61	86.7766	9,849.61	84.4989	9,849.61	85.0733	9,849.61	81.8368	9,849.61	83.1065	9,849.61	79.2862	9,849.61	80.3803	9,849.61	76.2675	9,849.61	77.6935	9,849.61	73.5167	9,849.61	73.9865	9,849.61	69.951	9,849.61	71.8231	9,849.61	67.1475	9,849.61	68.9661	9,849.61	68.0552	9,849.61	66.9459	9,849.61	65.555	9,849.61	64.3687	9,849.61	68.3764	9,849.61	65.3753	9,849.61	70.07	9,849.61	68.9308	9,849.61	64.6807	9,849.61	68.6889	9,849.61	48.7482	9,849.61	65.8925	9,849.61	64.7022
10,196.8	87.44	10,196.8	86.8634	10,196.8	87.1894	10,196.8	87.1676	10,196.8	86.9376	10,196.8	87.4674	10,196.8	87.2726	10,196.8	86.4854	10,196.8	86.766	10,196.8	84.2997	10,196.8	84.922	10,196.8	82.0507	10,196.8	82.7603	10,196.8	78.5604	10,196.8	79.8567	10,196.8	76.0778	10,196.8	77.0021	10,196.8	72.8991	10,196.8	73.1051	10,196.8	70.8677	10,196.8	71.1305	10,196.8	67.1226	10,196.8	66.582	10,196.8	66.0207	10,196.8	66.0822	10,196.8	65.3581	10,196.8	62.3681	10,196.8	67.6785	10,196.8	65.0463	10,196.8	68.614	10,196.8	68.3553	10,196.8	63.6355	10,196.8	67.9031	10,196.8	25.4239	10,196.8	64.4568	10,196.8	63.2537
10,555.7	87.7927	10,555.7	87.4286	10,555.7	87.8947	10,555.7	87.9607	10,555.7	87.778	10,555.7	87.5084	10,555.7	88.032	10,555.7	86.2852	10,555.7	86.8961	10,555.7	83.9471	10,555.7	85.3473	10,555.7	81.2396	10,555.7	82.5516	10,555.7	77.9088	10,555.7	79.1478	10,555.7	74.8378	10,555.7	76.1144	10,555.7	71.3814	10,555.7	72.7832	10,555.7	68.9023	10,555.7	68.711	10,555.7	66.5558	10,555.7	67.8424	10,555.7	65.647	10,555.7	65.4983	10,555.7	63.3546	10,555.7	57.2408	10,555.7	65.7945	10,555.7	63.752	10,555.7	68.1198	10,555.7	67.4101	10,555.7	62.8213	10,555.7	67.1792	10,555.7	52.1237	10,555.7	63.1111	10,555.7	61.5419
10,927.7	88.1211	10,927.7	88.2894	10,927.7	88.4595	10,927.7	88.3877	10,927.7	88.5098	10,927.7	87.4478	10,927.7	88.3522	10,927.7	86.3207	10,927.7	87.4185	10,927.7	84.1092	10,927.7	85.6652	10,927.7	80.7368	10,927.7	82.6417	10,927.7	76.5323	10,927.7	79.2882	10,927.7	74.2557	10,927.7	76.484	10,927.7	70.639	10,927.7	73.4264	10,927.7	68.6516	10,927.7	70.1829	10,927.7	65.4684	10,927.7	68.9104	10,927.7	63.3138	10,927.7	66.4306	10,927.7	60.4878	10,927.7	59.3024	10,927.7	65.8029	10,927.7	64.6413	10,927.7	67.1973	10,927.7	66.7905	10,927.7	62.0927	10,927.7	67.3361	10,927.7	51.2422	10,927.7	59.9346	10,927.7	62.1532
11,313	88.2808	11,313	88.9025	11,313	88.6946	11,313	88.3433	11,313	88.8077	11,313	86.9353	11,313	88.302	11,313	86.6657	11,313	87.2226	11,313	84.0507	11,313	85.3563	11,313	80.1008	11,313	82.1977	11,313	76.5429	11,313	78.6303	11,313	75.0203	11,313	76.6923	11,313	70.0173	11,313	72.7693	11,313	68.2492	11,313	70.0659	11,313	65.2571	11,313	68.2109	11,313	62.909	11,313	65.9351	11,313	62.5202	11,313	58.8344	11,313	64.7666	11,313	64.6912	11,313	65.5945	11,313	66.7397	11,313	62.1532	11,313	65.9502	11,313	49.3838	11,313	58.968	11,313	60.9788
11,712.9	88.4306	11,712.9	89.4617	11,712.9	89.0724	11,712.9	88.313	11,712.9	89.4935	11,712.9	87.1652	11,712.9	88.2358	11,712.9	86.1012	11,712.9	87.1083	11,712.9	83.3919	11,712.9	85.1536	11,712.9	80.5734	11,712.9	82.4058	11,712.9	77.4249	11,712.9	78.9031	11,712.9	74.0639	11,712.9	75.7526	11,712.9	69.1565	11,712.9	71.697	11,712.9	66.1904	11,712.9	67.5612	11,712.9	62.8671	11,712.9	65.8842	11,712.9	59.7345	11,712.9	62.2361	11,712.9	58.7375	11,712.9	43.7856	11,712.9	64.0351	11,712.9	61.9674	11,712.9	63.7577	11,712.9	64.9922	11,712.9	61.7254	11,712.9	65.3332	11,712.9	44.0028	11,712.9	54.1979	11,712.9	58.5673
12,126	88.962	12,126	89.9416	12,126	89.5246	12,126	89.2481	12,126	90.2259	12,126	87.3657	12,126	88.4947	12,126	85.2657	12,126	86.3679	12,126	83.5998	12,126	84.5086	12,126	80.6976	12,126	82.367	12,126	75.6136	12,126	78.2518	12,126	71.2495	12,126	73.2761	12,126	65.4652	12,126	68.6555	12,126	63.7123	12,126	62.1202	12,126	57.6355	12,126	60.8434	12,126	57.0252	12,126	58.0387	12,126	52.7448	12,126	53.6738	12,126	61.2833	12,126	57.996	12,126	61.1225	12,126	61.964	12,126	59.6354	12,126	62.202	12,126	31.8583	12,126	47.8827	12,126	53.0271
12,553.7	89.3634	12,553.7	90.1638	12,553.7	89.8835	12,553.7	89.5915	12,553.7	90.2583	12,553.7	86.9077	12,553.7	88.5418	12,553.7	85.4119	12,553.7	85.8885	12,553.7	83.1756	12,553.7	84.1327	12,553.7	79.3026	12,553.7	81.2708	12,553.7	73.3587	12,553.7	76.5294	12,553.7	69.2949	12,553.7	71.028	12,553.7	64.9335	12,553.7	67.4088	12,553.7	64.4437	12,553.7	60.3699	12,553.7	59.6405	12,553.7	60.5229	12,553.7	58.0718	12,553.7	55.5421	12,553.7	48.2663	12,553.7	56.9766	12,553.7	55.4769	12,553.7	50.5886	12,553.7	61.0812	12,553.7	61.0665	12,553.7	58.5236	12,553.7	59.6713	12,553.7	37.5678	12,553.7	48.9833	12,553.7	53.113
12,996.1	89.8823	12,996.1	90.3848	12,996.1	90.2463	12,996.1	89.551	12,996.1	90.3914	12,996.1	87.3105	12,996.1	88.687	12,996.1	85.8276	12,996.1	86.2893	12,996.1	82.5467	12,996.1	84.087	12,996.1	78.4354	12,996.1	80.1599	12,996.1	72.2997	12,996.1	74.6883	12,996.1	68.9498	12,996.1	70.1618	12,996.1	65.8621	12,996.1	68.1499	12,996.1	64.3288	12,996.1	63.6014	12,996.1	61.1909	12,996.1	62.422	12,996.1	57.6609	12,996.1	58.1977	12,996.1	54.8973	12,996.1	60.9423	12,996.1	54.7067	12,996.1	53.823	12,996.1	60.9879	12,996.1	57.9264	12,996.1	58.0605	12,996.1	58.032	12,996.1	34.1806	12,996.1	50.0096	12,996.1	51.5613
13,454.6	90.4512	13,454.6	90.6412	13,454.6	90.7605	13,454.6	89.8751	13,454.6	90.635	13,454.6	87.8816	13,454.6	89.2206	13,454.6	85.7719	13,454.6	87.0253	13,454.6	82.2301	13,454.6	84.2877	13,454.6	77.5364	13,454.6	80.5288	13,454.6	71.2269	13,454.6	75.3659	13,454.6	68.6535	13,454.6	71.2741	13,454.6	66.2528	13,454.6	69.936	13,454.6	64.6914	13,454.6	66.4964	13,454.6	62.0252	13,454.6	64.4802	13,454.6	59.6119	13,454.6	61.6145	13,454.6	51.4464	13,454.6	62.3419	13,454.6	47.5487	13,454.6	55.1914	13,454.6	58.9273	13,454.6	54.897	13,454.6	57.3472	13,454.6	58.4286	13,454.6	37.9379	13,454.6	49.5319	13,454.6	49.4612
13,929.2	91.1999	13,929.2	91.2399	13,929.2	91.4395	13,929.2	90.3123	13,929.2	91.0574	13,929.2	88.2737	13,929.2	89.7951	13,929.2	85.4393	13,929.2	87.3606	13,929.2	81.6849	13,929.2	84.269	13,929.2	76.37	13,929.2	80.6238	13,929.2	70.8691	13,929.2	75.4916	13,929.2	69.0795	13,929.2	71.9181	13,929.2	67.7123	13,929.2	71.0399	13,929.2	64.4014	13,929.2	66.8816	13,929.2	62.1369	13,929.2	65.3208	13,929.2	60.7851	13,929.2	61.5152	13,929.2	47.5756	13,929.2	63.2463	13,929.2	40.7179	13,929.2	56.2315	13,929.2	58.9066	13,929.2	55.6039	13,929.2	57.8762	13,929.2	58.6075	13,929.2	42.579	13,929.2	47.7137	13,929.2	50.1833
14,419.9	91.791	14,419.9	91.5811	14,419.9	91.8807	14,419.9	90.4723	14,419.9	91.2796	14,419.9	88.1923	14,419.9	89.9905	14,419.9	84.9944	14,419.9	87.0653	14,419.9	80.8258	14,419.9	83.8986	14,419.9	75.8174	14,419.9	79.7923	14,419.9	72.764	14,419.9	75.0397	14,419.9	69.9772	14,419.9	72.6536	14,419.9	68.1629	14,419.9	70.8374	14,419.9	64.5244	14,419.9	66.6029	14,419.9	63.1605	14,419.9	65.1872	14,419.9	60.0769	14,419.9	60.9141	14,419.9	51.3162	14,419.9	63.8364	14,419.9	46.5328	14,419.9	56.7672	14,419.9	57.7235	14,419.9	55.899	14,419.9	57.5891	14,419.9	57.6737	14,419.9	33.7156	14,419.9	48.1696	14,419.9	43.4586
14,928.2	92.304	14,928.2	91.8089	14,928.2	92.2788	14,928.2	90.588	14,928.2	91.3885	14,928.2	88.0252	14,928.2	90.1917	14,928.2	84.7295	14,928.2	86.9856	14,928.2	79.949	14,928.2	83.5105	14,928.2	75.8327	14,928.2	78.8349	14,928.2	73.7698	14,928.2	75.2872	14,928.2	70.6026	14,928.2	73.3078	14,928.2	68.7203	14,928.2	70.7075	14,928.2	63.8475	14,928.2	66.3837	14,928.2	63.7319	14,928.2	64.801	14,928.2	60.1953	14,928.2	60.3532	14,928.2	55.7275	14,928.2	63.4486	14,928.2	48.8369	14,928.2	58.0466	14,928.2	57.4821	14,928.2	54.2697	14,928.2	55.6608	14,928.2	55.2684	14,928.2	50.7037	14,928.2	50.3743	14,928.2	47.1304
15,455.6	92.6667	15,455.6	91.9223	15,455.6	92.5101	15,455.6	90.8701	15,455.6	91.5628	15,455.6	88.3491	15,455.6	90.286	15,455.6	84.8206	15,455.6	87.1756	15,455.6	79.0378	15,455.6	82.8501	15,455.6	76.0506	15,455.6	77.9318	15,455.6	73.8519	15,455.6	75.1697	15,455.6	69.9244	15,455.6	72.3099	15,455.6	68.561	15,455.6	69.739	15,455.6	63.0977	15,455.6	65.4144	15,455.6	63.083	15,455.6	64.0295	15,455.6	60.463	15,455.6	59.4391	15,455.6	56.3483	15,455.6	62.737	15,455.6	48.8509	15,455.6	58.0308	15,455.6	57.1765	15,455.6	55.0641	15,455.6	53.9595	15,455.6	54.3577	15,455.6	55.9354	15,455.6	51.962	15,455.6	54.9155
16,000.5	92.6603	16,000.5	91.7799	16,000.5	92.3842	16,000.5	90.7314	16,000.5	91.4982	16,000.5	87.9497	16,000.5	90.0139	16,000.5	83.9068	16,000.5	86.7848	16,000.5	77.5891	16,000.5	81.771	16,000.5	74.4816	16,000.5	76.8451	16,000.5	70.6629	16,000.5	73.1565	16,000.5	67.9059	16,000.5	68.8776	16,000.5	67.2029	16,000.5	67.4967	16,000.5	62.085	16,000.5	64.7088	16,000.5	62.6017	16,000.5	61.8391	16,000.5	59.3085	16,000.5	58.3916	16,000.5	55.417	16,000.5	60.6744	16,000.5	49.7772	16,000.5	55.75	16,000.5	56.2107	16,000.5	53.2996	16,000.5	52.1292	16,000.5	52.4633	16,000.5	56.4202	16,000.5	52.6436	16,000.5	56.8354
16,564.5	92.3335	16,564.5	91.4276	16,564.5	92.16	16,564.5	90.0114	16,564.5	91.2117	16,564.5	87.2243	16,564.5	89.409	16,564.5	82.4016	16,564.5	85.8173	16,564.5	75.6365	16,564.5	79.7138	16,564.5	70.6718	16,564.5	73.5097	16,564.5	67.3289	16,564.5	67.7199	16,564.5	66.3491	16,564.5	66.5135	16,564.5	65.5462	16,564.5	65.3289	16,564.5	60.3635	16,564.5	62.929	16,564.5	60.5771	16,564.5	59.4161	16,564.5	55.7522	16,564.5	57.8838	16,564.5	55.9021	16,564.5	59.1295	16,564.5	50.1321	16,564.5	55.0601	16,564.5	56.6067	16,564.5	49.1995	16,564.5	52.4058	16,564.5	47.8469	16,564.5	53.893	16,564.5	52.115	16,564.5	55.3357
17,148.9	92.0981	17,148.9	91.2313	17,148.9	91.9795	17,148.9	89.4742	17,148.9	90.9832	17,148.9	86.3113	17,148.9	88.6868	17,148.9	79.8873	17,148.9	84.6751	17,148.9	72.0024	17,148.9	77.3337	17,148.9	68.2245	17,148.9	68.0598	17,148.9	70.8305	17,148.9	69.1302	17,148.9	67.728	17,148.9	69.1738	17,148.9	65.2148	17,148.9	65.9093	17,148.9	61.3497	17,148.9	63.4577	17,148.9	60.3652	17,148.9	60.781	17,148.9	56.903	17,148.9	59.238	17,148.9	57.0585	17,148.9	56.4512	17,148.9	50.058	17,148.9	55.9391	17,148.9	56.2951	17,148.9	41.5503	17,148.9	49.1059	17,148.9	49.0339	17,148.9	50.81	17,148.9	45.3059	17,148.9	53.7777
17,752.4	91.6234	17,752.4	90.6266	17,752.4	91.6115	17,752.4	88.5845	17,752.4	90.2539	17,752.4	84.8575	17,752.4	87.7921	17,752.4	77.1996	17,752.4	82.7962	17,752.4	67.515	17,752.4	74.7522	17,752.4	71.9946	17,752.4	68.6749	17,752.4	71.7333	17,752.4	72.1988	17,752.4	67.7298	17,752.4	68.8981	17,752.4	63.8532	17,752.4	66.1616	17,752.4	60.8174	17,752.4	62.6456	17,752.4	58.9127	17,752.4	60.7401	17,752.4	56.2079	17,752.4	57.6519	17,752.4	57.4129	17,752.4	56.2724	17,752.4	48.5303	17,752.4	56.2094	17,752.4	54.2729	17,752.4	44.3712	17,752.4	47.659	17,752.4	53.145	17,752.4	49.648	17,752.4	44.3541	17,752.4	51.5391
18,379.4	91.1213	18,379.4	89.9755	18,379.4	91.0429	18,379.4	87.4482	18,379.4	89.4233	18,379.4	83.07	18,379.4	86.7874	18,379.4	75.2285	18,379.4	80.7092	18,379.4	68.9576	18,379.4	70.6778	18,379.4	73.0165	18,379.4	72.1589	18,379.4	69.6327	18,379.4	72.3729	18,379.4	66.0408	18,379.4	68.7861	18,379.4	63.9363	18,379.4	65.4282	18,379.4	60.128	18,379.4	62.2885	18,379.4	58.4325	18,379.4	60.0596	18,379.4	52.7974	18,379.4	55.5539	18,379.4	55.4832	18,379.4	57.9483	18,379.4	48.2684	18,379.4	55.1106	18,379.4	52.3403	18,379.4	48.9278	18,379.4	47.3359	18,379.4	51.2882	18,379.4	45.2989	18,379.4	42.8061	18,379.4	49.9638
19,026.9	90.8773	19,026.9	89.4634	19,026.9	90.648	19,026.9	86.6265	19,026.9	88.6345	19,026.9	81.3188	19,026.9	85.4239	19,026.9	72.2022	19,026.9	78.5059	19,026.9	72.6885	19,026.9	67.6509	19,026.9	72.2889	19,026.9	73.426	19,026.9	70.3447	19,026.9	71.3725	19,026.9	67.6133	19,026.9	69.4514	19,026.9	64.4162	19,026.9	65.5879	19,026.9	61.647	19,026.9	63.458	19,026.9	57.5971	19,026.9	58.1769	19,026.9	52.4046	19,026.9	56.2317	19,026.9	52.8684	19,026.9	57.4716	19,026.9	48.1811	19,026.9	52.7919	19,026.9	49.7745	19,026.9	48.725	19,026.9	48.2705	19,026.9	51.5718	19,026.9	43.0471	19,026.9	42.0449	19,026.9	49.7677
19,697.8	90.3771	19,697.8	88.7532	19,697.8	89.9418	19,697.8	85.7797	19,697.8	87.7771	19,697.8	79.4532	19,697.8	83.7874	19,697.8	69.6117	19,697.8	75.8159	19,697.8	72.9469	19,697.8	69.6419	19,697.8	72.0643	19,697.8	72.9374	19,697.8	71.44	19,697.8	72.6408	19,697.8	67.8271	19,697.8	70.8464	19,697.8	62.9787	19,697.8	65.6438	19,697.8	61.237	19,697.8	62.874	19,697.8	55.9632	19,697.8	56.9994	19,697.8	52.7053	19,697.8	55.9641	19,697.8	51.9112	19,697.8	50.2955	19,697.8	51.3596	19,697.8	48.9506	19,697.8	48.7816	19,697.8	47.3907	19,697.8	49.8818	19,697.8	49.9068	19,697.8	46.2505	19,697.8	42.1428	19,697.8	47.1907
19,999.5	90.0337	19,999.5	88.3529	19,999.5	89.4471	19,999.5	85.4412	19,999.5	87.2963	19,999.5	79.2476	19,999.5	82.9411	19,999.5	68.0471	19,999.5	74.6149	19,999.5	71.6456	19,999.5	69.3631	19,999.5	71.8341	19,999.5	73.2516	19,999.5	70.7119	19,999.5	72.8044	19,999.5	66.8936	19,999.5	70.3472	19,999.5	58.3315	19,999.5	66.1958	19,999.5	61.7885	19,999.5	60.211	19,999.5	61.7527	19,999.5	56.5711	19,999.5	54.6084	19,999.5	57.0322	19,999.5	59.5558	19,999.5	60.6245	19,999.5	65.0807	19,999.5	50.6185	19,999.5	56.7682	19,999.5	53.4977	19,999.5	59.0565	19,999.5	54.2222	19,999.5	53.0115	19,999.5	46.7712	19,999.5	46.1153
