"SPL Horizontal"
"On-Axis"		"10°"		"-10°"		"20°"		"-20°"		"30°"		"-30°"		"40°"		"-40°"		"50°"		"-50°"		"60°"		"-60°"		"70°"		"-70°"		"80°"		"-80°"		"90°"		"-90°"		"100°"		"-100°"		"110°"		"-110°"		"120°"		"-120°"		"130°"		"-130°"		"140°"		"-140°"		"150°"		"-150°"		"160°"		"-160°"		"170°"		"-170°"		"180°"
"Frequency / Hz"	"Sound Pressure Level / dB (re 20 µPa/V)  [2.83V at 1m]"	"Frequency / Hz"	"Sound Pressure Level / dB (re 20 µPa/V)  [2.83V at 1m]"	"Frequency / Hz"	"Sound Pressure Level / dB (re 20 µPa/V)  [2.83V at 1m]"	"Frequency / Hz"	"Sound Pressure Level / dB (re 20 µPa/V)  [2.83V at 1m]"	"Frequency / Hz"	"Sound Pressure Level / dB (re 20 µPa/V)  [2.83V at 1m]"	"Frequency / Hz"	"Sound Pressure Level / dB (re 20 µPa/V)  [2.83V at 1m]"	"Frequency / Hz"	"Sound Pressure Level / dB (re 20 µPa/V)  [2.83V at 1m]"	"Frequency / Hz"	"Sound Pressure Level / dB (re 20 µPa/V)  [2.83V at 1m]"	"Frequency / Hz"	"Sound Pressure Level / dB (re 20 µPa/V)  [2.83V at 1m]"	"Frequency / Hz"	"Sound Pressure Level / dB (re 20 µPa/V)  [2.83V at 1m]"	"Frequency / Hz"	"Sound Pressure Level / dB (re 20 µPa/V)  [2.83V at 1m]"	"Frequency / Hz"	"Sound Pressure Level / dB (re 20 µPa/V)  [2.83V at 1m]"	"Frequency / Hz"	"Sound Pressure Level / dB (re 20 µPa/V)  [2.83V at 1m]"	"Frequency / Hz"	"Sound Pressure Level / dB (re 20 µPa/V)  [2.83V at 1m]"	"Frequency / Hz"	"Sound Pressure Level / dB (re 20 µPa/V)  [2.83V at 1m]"	"Frequency / Hz"	"Sound Pressure Level / dB (re 20 µPa/V)  [2.83V at 1m]"	"Frequency / Hz"	"Sound Pressure Level / dB (re 20 µPa/V)  [2.83V at 1m]"	"Frequency / Hz"	"Sound Pressure Level / dB (re 20 µPa/V)  [2.83V at 1m]"	"Frequency / Hz"	"Sound Pressure Level / dB (re 20 µPa/V)  [2.83V at 1m]"	"Frequency / Hz"	"Sound Pressure Level / dB (re 20 µPa/V)  [2.83V at 1m]"	"Frequency / Hz"	"Sound Pressure Level / dB (re 20 µPa/V)  [2.83V at 1m]"	"Frequency / Hz"	"Sound Pressure Level / dB (re 20 µPa/V)  [2.83V at 1m]"	"Frequency / Hz"	"Sound Pressure Level / dB (re 20 µPa/V)  [2.83V at 1m]"	"Frequency / Hz"	"Sound Pressure Level / dB (re 20 µPa/V)  [2.83V at 1m]"	"Frequency / Hz"	"Sound Pressure Level / dB (re 20 µPa/V)  [2.83V at 1m]"	"Frequency / Hz"	"Sound Pressure Level / dB (re 20 µPa/V)  [2.83V at 1m]"	"Frequency / Hz"	"Sound Pressure Level / dB (re 20 µPa/V)  [2.83V at 1m]"	"Frequency / Hz"	"Sound Pressure Level / dB (re 20 µPa/V)  [2.83V at 1m]"	"Frequency / Hz"	"Sound Pressure Level / dB (re 20 µPa/V)  [2.83V at 1m]"	"Frequency / Hz"	"Sound Pressure Level / dB (re 20 µPa/V)  [2.83V at 1m]"	"Frequency / Hz"	"Sound Pressure Level / dB (re 20 µPa/V)  [2.83V at 1m]"	"Frequency / Hz"	"Sound Pressure Level / dB (re 20 µPa/V)  [2.83V at 1m]"	"Frequency / Hz"	"Sound Pressure Level / dB (re 20 µPa/V)  [2.83V at 1m]"	"Frequency / Hz"	"Sound Pressure Level / dB (re 20 µPa/V)  [2.83V at 1m]"	"Frequency / Hz"	"Sound Pressure Level / dB (re 20 µPa/V)  [2.83V at 1m]"	"Frequency / Hz"	"Sound Pressure Level / dB (re 20 µPa/V)  [2.83V at 1m]"
20.5078	48.5259	20.5078	48.3985	20.5078	48.3555	20.5078	47.9736	20.5078	47.8668	20.5078	47.2361	20.5078	47.0135	20.5078	46.1697	20.5078	45.7165	20.5078	44.8076	20.5078	43.8716	20.5078	43.4163	20.5078	41.5054	20.5078	42.8307	20.5078	39.7423	20.5078	43.9062	20.5078	41.1715	20.5078	46.068	20.5078	44.4225	20.5078	48.3471	20.5078	47.3998	20.5078	50.3637	20.5078	49.7964	20.5078	52.0537	20.5078	51.7008	20.5078	53.4337	20.5078	53.2091	20.5078	54.5302	20.5078	54.3867	20.5078	55.3644	20.5078	55.2744	20.5078	55.9498	20.5078	55.8973	20.5078	56.2943	20.5078	56.2701	20.5078	56.4012
21.9727	50.756	21.9727	50.648	21.9727	50.6136	21.9727	50.2909	21.9727	50.2129	21.9727	49.6841	21.9727	49.5417	21.9727	48.8416	21.9727	48.5972	21.9727	47.8404	21.9727	47.4364	21.9727	46.9314	21.9727	46.318	21.9727	46.6374	21.9727	45.8885	21.9727	47.4098	21.9727	46.7604	21.9727	49.0148	21.9727	48.5902	21.9727	50.8761	21.9727	50.6351	21.9727	52.6404	21.9727	52.5135	21.9727	54.182	21.9727	54.1204	21.9727	55.4732	21.9727	55.4474	21.9727	56.516	21.9727	56.5087	21.9727	57.3185	21.9727	57.3196	21.9727	57.8879	21.9727	57.8913	21.9727	58.2286	21.9727	58.231	21.9727	58.3429
23.4375	52.7629	23.4375	52.6663	23.4375	52.6432	23.4375	52.3567	23.4375	52.303	23.4375	51.8414	23.4375	51.7394	23.4375	51.1464	23.4375	50.9646	23.4375	50.3533	23.4375	50.0429	23.4375	49.6654	23.4375	49.1753	23.4375	49.4419	23.4375	48.7833	23.4375	49.9946	23.4375	49.3005	23.4375	51.2387	23.4375	50.6528	23.4375	52.7979	23.4375	52.3598	23.4375	54.3609	23.4375	54.0469	23.4375	55.7752	23.4375	55.5518	23.4375	56.9844	23.4375	56.8256	23.4375	57.9722	23.4375	57.8603	23.4375	58.7363	23.4375	58.6601	23.4375	59.2778	23.4375	59.2303	23.4375	59.5979	23.4375	59.5751	23.4375	59.6971
24.9023	53.18	24.9023	53.0761	24.9023	53.0239	24.9023	52.712	24.9023	52.6	24.9023	52.0827	24.9023	51.8944	24.9023	51.1938	24.9023	50.9017	24.9023	50.1095	24.9023	49.6791	24.9023	49.0763	24.9023	48.5049	24.9023	48.6696	24.9023	48.0894	24.9023	49.4397	24.9023	49.0664	24.9023	51.1324	24.9023	50.9949	24.9023	53.0848	24.9023	53.0889	24.9023	54.9142	24.9023	54.984	24.9023	56.4986	24.9023	56.5925	24.9023	57.8184	24.9023	57.9144	24.9023	58.8814	24.9023	58.9675	24.9023	59.6997	24.9023	59.7688	24.9023	60.2822	24.9023	60.3303	24.9023	60.6349	24.9023	60.6594	24.9023	60.7604
26.3672	55.2147	26.3672	55.106	26.3672	55.1443	26.3672	54.8228	26.3672	54.9001	26.3672	54.3849	26.3672	54.5016	26.3672	53.8445	26.3672	53.9986	26.3672	53.3187	26.3672	53.5003	26.3672	53.0182	26.3672	53.2031	26.3672	53.1972	26.3672	53.3497	26.3672	53.9669	26.3672	54.0627	26.3672	55.181	26.3672	55.2233	26.3672	56.5805	26.3672	56.5871	26.3672	57.9654	26.3672	57.9529	26.3672	59.2278	26.3672	59.2072	26.3672	60.3196	26.3672	60.2969	26.3672	61.221	26.3672	61.2	26.3672	61.9247	26.3672	61.9073	26.3672	62.4275	26.3672	62.4153	26.3672	62.7283	26.3672	62.722	26.3672	62.8265
27.832	57.4106	27.832	57.3194	27.832	57.3487	27.832	57.0813	27.832	57.1366	27.832	56.7163	27.832	56.7897	27.832	56.2702	27.832	56.3458	27.832	55.8356	27.832	55.8851	27.832	55.5679	27.832	55.5512	27.832	55.6553	27.832	55.5377	27.832	56.2091	27.832	55.9899	27.832	57.1674	27.832	56.8849	27.832	58.3482	27.832	58.0497	27.832	59.5732	27.832	59.2919	27.832	60.7248	27.832	60.4774	27.832	61.7396	27.832	61.5325	27.832	62.5859	27.832	62.421	27.832	63.2487	27.832	63.1258	27.832	63.7202	27.832	63.6387	27.832	63.9964	27.832	63.9558	27.832	64.0751
29.2969	57.5639	29.2969	57.4514	29.2969	57.516	29.2969	57.1877	29.2969	57.3105	29.2969	56.8	29.2969	56.965	29.2969	56.3486	29.2969	56.5248	29.2969	55.9499	29.2969	56.0856	29.2969	55.7846	29.2969	55.8143	29.2969	56.0393	29.2969	55.9192	29.2969	56.775	29.2969	56.5245	29.2969	57.8711	29.2969	57.5581	29.2969	59.1289	29.2969	58.8175	29.2969	60.386	29.2969	60.1122	29.2969	61.5461	29.2969	61.3223	29.2969	62.5599	29.2969	62.3862	29.2969	63.4035	29.2969	63.275	29.2969	64.0653	29.2969	63.9757	29.2969	64.5386	29.2969	64.4823	29.2969	64.8192	29.2969	64.7921	29.2969	64.9043
30.7617	59.2525	30.7617	59.2185	30.7617	59.1946	30.7617	59.1041	30.7617	59.0495	30.7617	58.9386	30.7617	58.8408	30.7617	58.7741	30.7617	58.6168	30.7617	58.6875	30.7617	58.4571	30.7617	58.7705	30.7617	58.4668	30.7617	59.0988	30.7617	58.7435	30.7617	59.6926	30.7617	59.3253	30.7617	60.5033	30.7617	60.1632	30.7617	61.4407	30.7617	61.1518	30.7617	62.4119	30.7617	62.1815	30.7617	63.3438	30.7617	63.1685	30.7617	64.186	30.7617	64.0576	30.7617	64.9059	30.7617	64.8153	30.7617	65.4822	30.7617	65.4215	30.7617	65.9008	30.7617	65.8638	30.7617	66.1524	30.7617	66.1349	30.7617	66.2313
32.2266	62.0582	32.2266	62.0453	32.2266	62.0055	32.2266	61.972	32.2266	61.8934	32.2266	61.856	32.2266	61.7413	32.2266	61.7293	32.2266	61.5845	32.2266	61.6398	32.2266	61.4757	32.2266	61.6478	32.2266	61.4811	32.2266	61.8131	32.2266	61.6637	32.2266	62.1733	32.2266	62.0583	32.2266	62.7246	32.2266	62.6522	32.2266	63.4221	32.2266	63.3902	32.2266	64.1984	32.2266	64.1979	32.2266	64.9851	32.2266	65.005	32.2266	65.7255	32.2266	65.7556	32.2266	66.3777	32.2266	66.4098	32.2266	66.912	32.2266	66.9404	32.2266	67.3082	32.2266	67.3291	32.2266	67.5533	32.2266	67.5643	32.2266	67.6396
33.6914	64.0604	33.6914	63.9939	33.6914	64.0423	33.6914	63.8453	33.6914	63.9448	33.6914	63.626	33.6914	63.7822	33.6914	63.3596	33.6914	63.5807	33.6914	63.0866	33.6914	63.3821	33.6914	62.868	33.6914	63.2452	33.6914	62.7811	33.6914	63.2387	33.6914	62.8997	33.6914	63.4215	33.6914	63.2611	33.6914	63.816	33.6914	63.8433	33.6914	64.3942	33.6914	64.575	33.6914	65.0899	33.6914	65.3679	33.6914	65.8252	33.6914	66.1434	33.6914	66.5312	33.6914	66.8431	33.6914	67.1558	33.6914	67.4276	33.6914	67.6629	33.6914	67.8714	33.6914	68.0285	33.6914	68.159	33.6914	68.2376	33.6914	68.282
35.1562	62.6137	35.1562	62.4909	35.1562	62.6215	35.1562	62.2574	35.1562	62.52	35.1562	61.931	35.1562	62.3255	35.1562	61.5507	35.1562	62.0695	35.1562	61.1894	35.1562	61.8058	35.1562	60.9596	35.1562	61.6153	35.1562	60.9933	35.1562	61.5981	35.1562	61.3792	35.1562	61.8402	35.1562	62.0995	35.1562	62.3672	35.1562	63.0412	35.1562	63.1266	35.1562	64.0664	35.1562	64.0176	35.1562	65.0658	35.1562	64.9377	35.1562	65.9687	35.1562	65.8075	35.1562	66.7343	35.1562	66.5736	35.1562	67.3394	35.1562	67.2022	35.1562	67.7707	35.1562	67.672	35.1562	68.0211	35.1562	67.9697	35.1562	68.0873
36.6211	64.1293	36.6211	64.145	36.6211	64.1266	36.6211	64.1824	36.6211	64.1399	36.6211	64.2602	36.6211	64.1833	36.6211	64.4036	36.6211	64.2804	36.6211	64.6392	36.6211	64.4599	36.6211	64.9862	36.6211	64.7476	36.6211	65.4496	36.6211	65.1582	36.6211	66.017	36.6211	65.688	36.6211	66.6609	36.6211	66.3146	36.6211	67.3458	36.6211	67.0025	36.6211	68.0344	36.6211	67.7115	36.6211	68.6928	36.6211	68.4029	36.6211	69.292	36.6211	69.0435	36.6211	69.8084	36.6211	69.6064	36.6211	70.2234	36.6211	70.0706	36.6211	70.5227	36.6211	70.4204	36.6211	70.6961	36.6211	70.6449	36.6211	70.7375
38.0859	66.7318	38.0859	66.7223	38.0859	66.7105	38.0859	66.6869	38.0859	66.6615	38.0859	66.6389	38.0859	66.5964	38.0859	66.5998	38.0859	66.5356	38.0859	66.5986	38.0859	66.508	38.0859	66.6681	38.0859	66.5481	38.0859	66.8385	38.0859	66.6899	38.0859	67.1283	38.0859	66.9563	38.0859	67.5367	38.0859	67.3508	38.0859	68.0424	38.0859	67.8542	38.0859	68.609	38.0859	68.4293	38.0859	69.1938	38.0859	69.0311	38.0859	69.7556	38.0859	69.6156	38.0859	70.2587	38.0859	70.1449	38.0859	70.6749	38.0859	70.5888	38.0859	70.9827	38.0859	70.9251	38.0859	71.1674	38.0859	71.1385	38.0859	71.2203
39.5508	67.977	39.5508	67.9635	39.5508	67.9708	39.5508	67.9346	39.5508	67.9479	39.5508	67.9019	39.5508	67.9184	39.5508	67.8839	39.5508	67.8995	39.5508	67.9049	39.5508	67.9145	39.5508	67.9922	39.5508	67.9906	39.5508	68.1698	39.5508	68.153	39.5508	68.4522	39.5508	68.4182	39.5508	68.8381	39.5508	68.7881	39.5508	69.3094	39.5508	69.2473	39.5508	69.8354	39.5508	69.7666	39.5508	70.3788	39.5508	70.3093	39.5508	70.9028	39.5508	70.8379	39.5508	71.3745	39.5508	71.3183	39.5508	71.767	39.5508	71.7225	39.5508	72.0594	39.5508	72.0287	39.5508	72.2374	39.5508	72.2218	39.5508	72.2924
41.0156	69.0466	41.0156	69.0343	41.0156	69.0433	41.0156	69.0104	41.0156	69.0269	41.0156	68.9857	41.0156	69.0065	41.0156	68.9771	41.0156	68.9975	41.0156	69.0064	41.0156	69.0208	41.0156	69.0977	41.0156	69.1003	41.0156	69.2725	41.0156	69.2583	41.0156	69.5432	41.0156	69.51	41.0156	69.9087	41.0156	69.8575	41.0156	70.3533	41.0156	70.2879	41.0156	70.8492	41.0156	70.7756	41.0156	71.3626	41.0156	71.2872	41.0156	71.859	41.0156	71.7877	41.0156	72.3071	41.0156	72.2449	41.0156	72.6806	41.0156	72.6311	41.0156	72.9592	41.0156	72.9249	41.0156	73.1285	41.0156	73.111	41.0156	73.18
42.4805	70.2734	42.4805	70.2654	42.4805	70.2724	42.4805	70.2519	42.4805	70.2643	42.4805	70.2422	42.4805	70.2567	42.4805	70.2505	42.4805	70.2626	42.4805	70.2951	42.4805	70.2993	42.4805	70.3954	42.4805	70.3863	42.4805	70.5685	42.4805	70.5421	42.4805	70.8244	42.4805	70.779	42.4805	71.1621	42.4805	71.099	42.4805	71.5686	42.4805	71.4922	42.4805	72.0208	42.4805	71.9371	42.4805	72.4898	42.4805	72.4053	42.4805	72.9449	42.4805	72.8658	42.4805	73.3573	42.4805	73.2887	42.4805	73.7024	42.4805	73.6479	42.4805	73.9603	42.4805	73.9226	42.4805	74.1167	42.4805	74.0975	42.4805	74.1634
43.9453	71.313	43.9453	71.3108	43.9453	71.309	43.9453	71.3055	43.9453	71.3007	43.9453	71.3052	43.9453	71.295	43.9453	71.322	43.9453	71.3033	43.9453	71.3716	43.9453	71.3412	43.9453	71.4711	43.9453	71.4258	43.9453	71.6351	43.9453	71.5734	43.9453	71.8729	43.9453	71.7952	43.9453	72.1844	43.9453	72.0934	43.9453	72.559	43.9453	72.4595	43.9453	72.9771	43.9453	72.875	43.9453	73.4126	43.9453	73.314	43.9453	73.8375	43.9453	73.7478	43.9453	74.2245	43.9453	74.148	43.9453	74.5494	43.9453	74.4895	43.9453	74.7928	43.9453	74.7517	43.9453	74.9404	43.9453	74.9194	43.9453	74.9835
45.4102	72.4084	45.4102	72.41	45.4102	72.4066	45.4102	72.414	45.4102	72.4061	45.4102	72.4271	45.4102	72.4129	45.4102	72.4596	45.4102	72.4364	45.4102	72.5243	45.4102	72.4895	45.4102	72.6348	45.4102	72.586	45.4102	72.8028	45.4102	72.7389	45.4102	73.0351	45.4102	72.9566	45.4102	73.331	45.4102	73.2405	45.4102	73.6814	45.4102	73.5832	45.4102	74.0693	45.4102	73.9688	45.4102	74.4721	45.4102	74.3749	45.4102	74.8649	45.4102	74.7762	45.4102	75.2231	45.4102	75.1472	45.4102	75.5242	45.4102	75.4646	45.4102	75.75	45.4102	75.709	45.4102	75.8868	45.4102	75.866	45.4102	75.9263
46.875	73.3595	46.875	73.3659	46.875	73.3552	46.875	73.3767	46.875	73.3545	46.875	73.3974	46.875	73.3624	46.875	73.4365	46.875	73.3871	46.875	73.5049	46.875	73.4395	46.875	73.6138	46.875	73.5316	46.875	73.7729	46.875	73.6744	46.875	73.9881	46.875	73.8754	46.875	74.259	46.875	74.1362	46.875	74.5784	46.875	74.4506	46.875	74.9317	46.875	74.805	46.875	75.2995	46.875	75.1798	46.875	75.6593	46.875	75.552	46.875	75.9884	46.875	75.8979	46.875	76.2659	46.875	76.1954	46.875	76.474	46.875	76.4258	46.875	76.5993	46.875	76.5749	46.875	76.6338
48.3398	74.4784	48.3398	74.4912	48.3398	74.4689	48.3398	74.5083	48.3398	74.4645	48.3398	74.5336	48.3398	74.4697	48.3398	74.5735	48.3398	74.4918	48.3398	74.6364	48.3398	74.5398	48.3398	74.7312	48.3398	74.6235	48.3398	74.8665	48.3398	74.7519	48.3398	75.0478	48.3398	74.931	48.3398	75.2765	48.3398	75.1621	48.3398	75.5481	48.3398	75.4401	48.3398	75.852	48.3398	75.7537	48.3398	76.1724	48.3398	76.0862	48.3398	76.49	48.3398	76.4174	48.3398	76.7842	48.3398	76.726	48.3398	77.0353	48.3398	76.9918	48.3398	77.226	48.3398	77.1972	48.3398	77.3433	48.3398	77.3289	48.3398	77.3785
51.2695	76.0818	51.2695	76.0797	51.2695	76.0909	51.2695	76.0862	51.2695	76.1079	51.2695	76.1052	51.2695	76.1358	51.2695	76.1425	51.2695	76.18	51.2695	76.2054	51.2695	76.247	51.2695	76.3016	51.2695	76.3442	51.2695	76.4378	51.2695	76.4783	51.2695	76.6184	51.2695	76.6539	51.2695	76.8434	51.2695	76.8719	51.2695	77.108	51.2695	77.1284	51.2695	77.402	51.2695	77.4145	51.2695	77.7107	51.2695	77.7162	51.2695	78.0162	51.2695	78.0166	51.2695	78.2994	51.2695	78.2967	51.2695	78.5419	51.2695	78.5379	51.2695	78.7275	51.2695	78.7239	51.2695	78.8436	51.2695	78.8415	51.2695	78.8825
52.7344	76.8015	52.7344	76.8043	52.7344	76.8101	52.7344	76.8199	52.7344	76.8307	52.7344	76.8513	52.7344	76.8659	52.7344	76.9029	52.7344	76.9196	52.7344	76.9803	52.7344	76.997	52.7344	77.0889	52.7344	77.1036	52.7344	77.2337	52.7344	77.2444	52.7344	77.417	52.7344	77.4223	52.7344	77.6383	52.7344	77.6375	52.7344	77.8927	52.7344	77.8859	52.7344	78.171	52.7344	78.1593	52.7344	78.4604	52.7344	78.4452	52.7344	78.7449	52.7344	78.7283	52.7344	79.0078	52.7344	78.9916	52.7344	79.2322	52.7344	79.2183	52.7344	79.4034	52.7344	79.3932	52.7344	79.5098	52.7344	79.5045	52.7344	79.5443
54.1992	77.4335	54.1992	77.4401	54.1992	77.4405	54.1992	77.4612	54.1992	77.4617	54.1992	77.4989	54.1992	77.499	54.1992	77.5565	54.1992	77.5556	54.1992	77.6382	54.1992	77.6354	54.1992	77.7481	54.1992	77.7427	54.1992	77.8896	54.1992	77.8808	54.1992	78.0645	54.1992	78.0519	54.1992	78.2718	54.1992	78.2553	54.1992	78.5072	54.1992	78.4872	54.1992	78.7629	54.1992	78.7402	54.1992	79.0276	54.1992	79.0035	54.1992	79.2874	54.1992	79.2635	54.1992	79.5272	54.1992	79.5052	54.1992	79.7318	54.1992	79.7134	54.1992	79.8877	54.1992	79.8745	54.1992	79.9843	54.1992	79.9774	54.1992	80.0149
55.6641	78.1417	55.6641	78.1471	55.6641	78.1504	55.6641	78.1672	55.6641	78.1734	55.6641	78.2038	55.6641	78.2122	55.6641	78.2594	55.6641	78.269	55.6641	78.3372	55.6641	78.3468	55.6641	78.4403	55.6641	78.4486	55.6641	78.5713	55.6641	78.577	55.6641	78.7314	55.6641	78.7334	55.6641	78.9197	55.6641	78.9173	55.6641	79.1325	55.6641	79.1257	55.6641	79.3631	55.6641	79.3522	55.6641	79.6018	55.6641	79.5879	55.6641	79.8365	55.6641	79.821	55.6641	80.0536	55.6641	80.0382	55.6641	80.2394	55.6641	80.2259	55.6641	80.3814	55.6641	80.3714	55.6641	80.4697	55.6641	80.4644	55.6641	80.498
58.5938	79.2364	58.5938	79.2445	58.5938	79.2437	58.5938	79.2685	58.5938	79.2667	58.5938	79.3093	58.5938	79.3061	58.5938	79.3684	58.5938	79.3632	58.5938	79.4474	58.5938	79.4395	58.5938	79.548	58.5938	79.5368	58.5938	79.6713	58.5938	79.6564	58.5938	79.8177	58.5938	79.7988	58.5938	79.986	58.5938	79.9632	58.5938	80.1732	58.5938	80.1469	58.5938	80.3737	58.5938	80.3451	58.5938	80.58	58.5938	80.5504	58.5938	80.782	58.5938	80.7533	58.5938	80.9687	58.5938	80.9427	58.5938	81.1284	58.5938	81.1069	58.5938	81.2502	58.5938	81.2349	58.5938	81.3254	58.5938	81.3175	58.5938	81.3484
60.0586	79.7551	60.0586	79.7637	60.0586	79.7627	60.0586	79.7889	60.0586	79.7868	60.0586	79.8312	60.0586	79.8276	60.0586	79.8915	60.0586	79.886	60.0586	79.9709	60.0586	79.963	60.0586	80.0703	60.0586	80.0594	60.0586	80.1901	60.0586	80.176	60.0586	80.3303	60.0586	80.3127	60.0586	80.4893	60.0586	80.4686	60.0586	80.6644	60.0586	80.641	60.0586	80.8507	60.0586	80.8254	60.0586	81.0413	60.0586	81.0154	60.0586	81.2275	60.0586	81.2025	60.0586	81.3994	60.0586	81.3769	60.0586	81.5464	60.0586	81.5278	60.0586	81.6587	60.0586	81.6454	60.0586	81.7281	60.0586	81.7212	60.0586	81.7495
62.9883	80.654	62.9883	80.6642	62.9883	80.6604	62.9883	80.6911	62.9883	80.6835	62.9883	80.7347	62.9883	80.7234	62.9883	80.7947	62.9883	80.7799	62.9883	80.8712	62.9883	80.8531	62.9883	80.9639	62.9883	80.9428	62.9883	81.0725	62.9883	81.0486	62.9883	81.1959	62.9883	81.1698	62.9883	81.3329	62.9883	81.3051	62.9883	81.481	62.9883	81.452	62.9883	81.6364	62.9883	81.6072	62.9883	81.7942	62.9883	81.7657	62.9883	81.9476	62.9883	81.921	62.9883	82.0888	62.9883	82.0654	62.9883	82.2096	62.9883	82.1906	62.9883	82.3017	62.9883	82.2883	62.9883	82.3585	62.9883	82.3516	62.9883	82.3756
64.4531	80.9852	64.4531	80.9948	64.4531	80.9926	64.4531	81.0212	64.4531	81.0169	64.4531	81.0642	64.4531	81.0577	64.4531	81.1233	64.4531	81.1149	64.4531	81.198	64.4531	81.1878	64.4531	81.2878	64.4531	81.2759	64.4531	81.3917	64.4531	81.3782	64.4531	81.5086	64.4531	81.4937	64.4531	81.637	64.4531	81.6208	64.4531	81.7746	64.4531	81.7572	64.4531	81.9179	64.4531	81.9	64.4531	82.0627	64.4531	82.0446	64.4531	82.203	64.4531	82.1855	64.4531	82.332	64.4531	82.3162	64.4531	82.4422	64.4531	82.4291	64.4531	82.5265	64.4531	82.5171	64.4531	82.5787	64.4531	82.5738	64.4531	82.5949
67.3828	81.5907	67.3828	81.5996	67.3828	81.5992	67.3828	81.6256	67.3828	81.6248	67.3828	81.668	67.3828	81.667	67.3828	81.7259	67.3828	81.7247	67.3828	81.7981	67.3828	81.7968	67.3828	81.883	67.3828	81.8817	67.3828	81.9792	67.3828	81.9779	67.3828	82.085	67.3828	82.0836	67.3828	82.1986	67.3828	82.1969	67.3828	82.3177	67.3828	82.3158	67.3828	82.4399	67.3828	82.4375	67.3828	82.5616	67.3828	82.5588	67.3828	82.6786	67.3828	82.6755	67.3828	82.7857	67.3828	82.7826	67.3828	82.8773	67.3828	82.8744	67.3828	82.9476	67.3828	82.9454	67.3828	82.9918	67.3828	82.9906	67.3828	83.0064
68.8477	81.8219	68.8477	81.8311	68.8477	81.8304	68.8477	81.8577	68.8477	81.8564	68.8477	81.9009	68.8477	81.8991	68.8477	81.9594	68.8477	81.9573	68.8477	82.0316	68.8477	82.0293	68.8477	82.1157	68.8477	82.1133	68.8477	82.2097	68.8477	82.2073	68.8477	82.3117	68.8477	82.3094	68.8477	82.4197	68.8477	82.4173	68.8477	82.5316	68.8477	82.529	68.8477	82.6449	68.8477	82.6421	68.8477	82.7566	68.8477	82.7536	68.8477	82.8632	68.8477	82.86	68.8477	82.9603	68.8477	82.9571	68.8477	83.043	68.8477	83.0401	68.8477	83.1063	68.8477	83.1041	68.8477	83.1459	68.8477	83.1448	68.8477	83.1591
71.7773	82.3524	71.7773	82.3619	71.7773	82.361	71.7773	82.3892	71.7773	82.3874	71.7773	82.4331	71.7773	82.4305	71.7773	82.4918	71.7773	82.4887	71.7773	82.563	71.7773	82.5597	71.7773	82.6444	71.7773	82.641	71.7773	82.7334	71.7773	82.7301	71.7773	82.8274	71.7773	82.8242	71.7773	82.9241	71.7773	82.9212	71.7773	83.0215	71.7773	83.0187	71.7773	83.1175	71.7773	83.1147	71.7773	83.2099	71.7773	83.2071	71.7773	83.2962	71.7773	83.2934	71.7773	83.3736	71.7773	83.371	71.7773	83.4388	71.7773	83.4365	71.7773	83.4884	71.7773	83.4866	71.7773	83.5193	71.7773	83.5184	71.7773	83.5295
74.707	82.775	74.707	82.7844	74.707	82.7839	74.707	82.8115	74.707	82.8106	74.707	82.855	74.707	82.8538	74.707	82.9127	74.707	82.9114	74.707	82.9819	74.707	82.9808	74.707	83.0596	74.707	83.0589	74.707	83.1427	74.707	83.1426	74.707	83.2283	74.707	83.2288	74.707	83.3138	74.707	83.3149	74.707	83.3971	74.707	83.3986	74.707	83.4764	74.707	83.4782	74.707	83.5503	74.707	83.5521	74.707	83.6175	74.707	83.619	74.707	83.6763	74.707	83.6775	74.707	83.725	74.707	83.7258	74.707	83.7617	74.707	83.7622	74.707	83.7847	74.707	83.7849	74.707	83.7925
77.6367	82.9832	77.6367	82.9928	77.6367	82.992	77.6367	83.02	77.6367	83.0185	77.6367	83.0634	77.6367	83.0615	77.6367	83.1204	77.6367	83.1183	77.6367	83.1879	77.6367	83.186	77.6367	83.2625	77.6367	83.261	77.6367	83.3407	77.6367	83.3399	77.6367	83.419	77.6367	83.4191	77.6367	83.4947	77.6367	83.4957	77.6367	83.5657	77.6367	83.5674	77.6367	83.6303	77.6367	83.6327	77.6367	83.6878	77.6367	83.6904	77.6367	83.7376	77.6367	83.7402	77.6367	83.7794	77.6367	83.7818	77.6367	83.813	77.6367	83.8149	77.6367	83.8377	77.6367	83.839	77.6367	83.853	77.6367	83.8536	77.6367	83.8583
79.1016	83.0937	79.1016	83.1035	79.1016	83.1023	79.1016	83.1309	79.1016	83.1286	79.1016	83.1742	79.1016	83.1712	79.1016	83.2309	79.1016	83.2274	79.1016	83.2976	79.1016	83.2941	79.1016	83.3706	79.1016	83.3676	79.1016	83.4464	79.1016	83.4441	79.1016	83.5212	79.1016	83.5199	79.1016	83.5923	79.1016	83.5921	79.1016	83.6575	79.1016	83.6582	79.1016	83.7152	79.1016	83.7168	79.1016	83.7649	79.1016	83.767	79.1016	83.8065	79.1016	83.8089	79.1016	83.8404	79.1016	83.8426	79.1016	83.8667	79.1016	83.8686	79.1016	83.8857	79.1016	83.887	79.1016	83.8973	79.1016	83.898	79.1016	83.9014
82.0312	83.4018	82.0312	83.4114	82.0312	83.4105	82.0312	83.4384	82.0312	83.4368	82.0312	83.4812	82.0312	83.479	82.0312	83.5368	82.0312	83.5344	82.0312	83.6016	82.0312	83.5993	82.0312	83.6717	82.0312	83.6699	82.0312	83.7429	82.0312	83.7419	82.0312	83.8114	82.0312	83.8114	82.0312	83.8741	82.0312	83.8751	82.0312	83.9286	82.0312	83.9306	82.0312	83.9736	82.0312	83.9764	82.0312	84.0091	82.0312	84.0123	82.0312	84.0356	82.0312	84.0389	82.0312	84.0544	82.0312	84.0576	82.0312	84.0672	82.0312	84.0698	82.0312	84.0753	82.0312	84.0771	82.0312	84.0799	82.0312	84.0808	82.0312	84.0817
84.9609	83.62	84.9609	83.6293	84.9609	83.6286	84.9609	83.6559	84.9609	83.6546	84.9609	83.6978	84.9609	83.6959	84.9609	83.7521	84.9609	83.7498	84.9609	83.815	84.9609	83.8123	84.9609	83.8822	84.9609	83.8792	84.9609	83.9492	84.9609	83.9461	84.9609	84.012	84.9609	84.0088	84.9609	84.0671	84.9609	84.0638	84.9609	84.1121	84.9609	84.1088	84.9609	84.1457	84.9609	84.1425	84.9609	84.1682	84.9609	84.1649	84.9609	84.1807	84.9609	84.1776	84.9609	84.1856	84.9609	84.1826	84.9609	84.1853	84.9609	84.1828	84.9609	84.1827	84.9609	84.1808	84.9609	84.1799	84.9609	84.1789	84.9609	84.1784
87.8906	83.7146	87.8906	83.7213	87.8906	83.7255	87.8906	83.7449	87.8906	83.7531	87.8906	83.7836	87.8906	83.7956	87.8906	83.8343	87.8906	83.8499	87.8906	83.8932	87.8906	83.9121	87.8906	83.9558	87.8906	83.9775	87.8906	84.0177	87.8906	84.0417	87.8906	84.0745	87.8906	84.1004	87.8906	84.1229	87.8906	84.1498	87.8906	84.1602	87.8906	84.1874	87.8906	84.1854	87.8906	84.2122	87.8906	84.1989	87.8906	84.2243	87.8906	84.2025	87.8906	84.2255	87.8906	84.1989	87.8906	84.2187	87.8906	84.1918	87.8906	84.2074	87.8906	84.1845	87.8906	84.1954	87.8906	84.18	87.8906	84.1856	87.8906	84.1802
90.8203	83.9479	90.8203	83.9508	90.8203	83.9616	90.8203	83.9698	90.8203	83.9915	90.8203	84.003	90.8203	84.0354	90.8203	84.0473	90.8203	84.0903	90.8203	84.0989	90.8203	84.1522	90.8203	84.1535	90.8203	84.2165	90.8203	84.2065	90.8203	84.2785	90.8203	84.2539	90.8203	84.3335	90.8203	84.2921	90.8203	84.3777	90.8203	84.319	90.8203	84.4082	90.8203	84.3337	90.8203	84.4239	90.8203	84.3372	90.8203	84.4249	90.8203	84.3318	90.8203	84.4133	90.8203	84.3211	90.8203	84.3924	90.8203	84.3092	90.8203	84.3667	90.8203	84.3004	90.8203	84.3408	90.8203	84.2981	90.8203	84.3189	90.8203	84.3041
95.2148	84.0837	95.2148	84.0907	95.2148	84.0929	95.2148	84.1132	95.2148	84.1177	95.2148	84.149	95.2148	84.1562	95.2148	84.1952	95.2148	84.2054	95.2148	84.2474	95.2148	84.2611	95.2148	84.3012	95.2148	84.3186	95.2148	84.3516	95.2148	84.3729	95.2148	84.3941	95.2148	84.4193	95.2148	84.425	95.2148	84.4537	95.2148	84.4417	95.2148	84.4731	95.2148	84.4433	95.2148	84.4763	95.2148	84.4308	95.2148	84.464	95.2148	84.4072	95.2148	84.4389	95.2148	84.3771	95.2148	84.4054	95.2148	84.346	95.2148	84.3691	95.2148	84.3198	95.2148	84.3362	95.2148	84.3036	95.2148	84.3121	95.2148	84.3007
98.1445	84.1527	98.1445	84.161	98.1445	84.1599	98.1445	84.184	98.1445	84.182	98.1445	84.2196	98.1445	84.2171	98.1445	84.2645	98.1445	84.2622	98.1445	84.3147	98.1445	84.3132	98.1445	84.3653	98.1445	84.3654	98.1445	84.4113	98.1445	84.4136	98.1445	84.4481	98.1445	84.453	98.1445	84.4717	98.1445	84.4794	98.1445	84.4796	98.1445	84.4899	98.1445	84.4708	98.1445	84.4834	98.1445	84.4468	98.1445	84.4608	98.1445	84.4107	98.1445	84.4251	98.1445	84.3679	98.1445	84.3816	98.1445	84.325	98.1445	84.3366	98.1445	84.2887	98.1445	84.2971	98.1445	84.2651	98.1445	84.2696	98.1445	84.2583
101.074	84.204	101.074	84.212	101.074	84.2105	101.074	84.2337	101.074	84.231	101.074	84.267	101.074	84.2635	101.074	84.3089	101.074	84.3051	101.074	84.3552	101.074	84.3518	101.074	84.401	101.074	84.3988	101.074	84.4414	101.074	84.4411	101.074	84.4716	101.074	84.4738	101.074	84.4877	101.074	84.4926	101.074	84.487	101.074	84.4948	101.074	84.4688	101.074	84.4791	101.074	84.4345	101.074	84.4467	101.074	84.388	101.074	84.401	101.074	84.3349	101.074	84.3477	101.074	84.2828	101.074	84.2938	101.074	84.2391	101.074	84.2473	101.074	84.2107	101.074	84.2151	101.074	84.2023
105.469	84.3249	105.469	84.3306	105.469	84.3325	105.469	84.3489	105.469	84.3527	105.469	84.378	105.469	84.3837	105.469	84.4146	105.469	84.4224	105.469	84.4547	105.469	84.4648	105.469	84.4935	105.469	84.506	105.469	84.526	105.469	84.5411	105.469	84.5473	105.469	84.5649	105.469	84.5534	105.469	84.5734	105.469	84.5416	105.469	84.5636	105.469	84.5112	105.469	84.5347	105.469	84.4641	105.469	84.488	105.469	84.4044	105.469	84.4276	105.469	84.3388	105.469	84.3599	105.469	84.2754	105.469	84.2929	105.469	84.2231	105.469	84.2356	105.469	84.1895	105.469	84.1961	105.469	84.1799
108.398	84.3247	108.398	84.3296	108.398	84.333	108.398	84.3471	108.398	84.354	108.398	84.3753	108.398	84.3858	108.398	84.4112	108.398	84.4254	108.398	84.4507	108.398	84.4686	108.398	84.4889	108.398	84.5108	108.398	84.5207	108.398	84.5466	108.398	84.5412	108.398	84.571	108.398	84.5463	108.398	84.5795	108.398	84.5332	108.398	84.5692	108.398	84.5012	108.398	84.5389	108.398	84.452	108.398	84.49	108.398	84.3901	108.398	84.4265	108.398	84.3222	108.398	84.3551	108.398	84.2571	108.398	84.2842	108.398	84.2036	108.398	84.223	108.398	84.17	108.398	84.1801	108.398	84.1616
112.793	84.285	112.793	84.2912	112.793	84.2918	112.793	84.3097	112.793	84.311	112.793	84.3385	112.793	84.341	112.793	84.3748	112.793	84.3791	112.793	84.4144	112.793	84.4213	112.793	84.4526	112.793	84.4629	112.793	84.4844	112.793	84.4987	112.793	84.5044	112.793	84.5234	112.793	84.5086	112.793	84.5323	112.793	84.4938	112.793	84.5221	112.793	84.4594	112.793	84.4914	112.793	84.4071	112.793	84.4414	112.793	84.3413	112.793	84.3759	112.793	84.2693	112.793	84.3017	112.793	84.2001	112.793	84.2276	112.793	84.1434	112.793	84.1635	112.793	84.1077	112.793	84.1183	112.793	84.0988
117.188	84.2176	117.188	84.2282	117.188	84.2184	117.188	84.2495	117.188	84.2303	117.188	84.2799	117.188	84.2517	117.188	84.3164	117.188	84.2801	117.188	84.3554	117.188	84.3122	117.188	84.3919	117.188	84.3434	117.188	84.4209	117.188	84.369	117.188	84.437	117.188	84.384	117.188	84.4358	117.188	84.3838	117.188	84.4142	117.188	84.3652	117.188	84.3711	117.188	84.327	117.188	84.3083	117.188	84.2704	117.188	84.2307	117.188	84.1997	117.188	84.1457	117.188	84.1219	117.188	84.0633	117.188	84.0463	117.188	83.9937	117.188	83.983	117.188	83.9466	117.188	83.9415	117.188	83.9285
120.117	84.2929	120.117	84.2992	120.117	84.2965	120.117	84.3149	120.117	84.3092	120.117	84.3387	120.117	84.3295	120.117	84.3684	120.117	84.3551	120.117	84.4007	120.117	84.3826	120.117	84.4311	120.117	84.4079	120.117	84.4548	120.117	84.4263	120.117	84.4667	120.117	84.4331	120.117	84.4621	120.117	84.4242	120.117	84.4377	120.117	84.3965	120.117	84.3923	120.117	84.3493	120.117	84.3273	120.117	84.2843	120.117	84.2469	120.117	84.2061	120.117	84.1587	120.117	84.1223	120.117	84.0723	120.117	84.0425	120.117	83.9985	120.117	83.9773	120.117	83.9471	120.117	83.9361	120.117	83.9253
124.512	84.4333	124.512	84.4317	124.512	84.4439	124.512	84.4385	124.512	84.4629	124.512	84.4528	124.512	84.4888	124.512	84.4722	124.512	84.5193	124.512	84.4939	124.512	84.5512	124.512	84.5139	124.512	84.5803	124.512	84.5277	124.512	84.6018	124.512	84.5306	124.512	84.6109	124.512	84.5184	124.512	84.6029	124.512	84.4884	124.512	84.5749	124.512	84.4396	124.512	84.5254	124.512	84.3738	124.512	84.456	124.512	84.2956	124.512	84.3712	124.512	84.2127	124.512	84.2784	124.512	84.1348	124.512	84.1873	124.512	84.0721	124.512	84.1089	124.512	84.0342	124.512	84.0531	124.512	84.0272
128.906	84.4	128.906	84.4011	128.906	84.4066	128.906	84.4094	128.906	84.4207	128.906	84.4238	128.906	84.4412	128.906	84.4422	128.906	84.4662	128.906	84.4618	128.906	84.4927	128.906	84.4787	128.906	84.5169	128.906	84.4886	128.906	84.5342	128.906	84.487	128.906	84.5397	128.906	84.47	128.906	84.5289	128.906	84.4348	128.906	84.4985	128.906	84.3806	128.906	84.4471	128.906	84.3094	128.906	84.376	128.906	84.2262	128.906	84.2897	128.906	84.1387	128.906	84.1956	128.906	84.0569	128.906	84.1036	128.906	83.9913	128.906	84.0245	128.906	83.9512	128.906	83.9685	128.906	83.943
133.301	84.3897	133.301	84.3903	133.301	84.3948	133.301	84.3963	133.301	84.4054	133.301	84.4065	133.301	84.4202	133.301	84.4189	133.301	84.4375	133.301	84.4308	133.301	84.4544	133.301	84.4383	133.301	84.4671	133.301	84.4371	133.301	84.4713	133.301	84.4227	133.301	84.4621	133.301	84.3913	133.301	84.4355	133.301	84.34	133.301	84.3882	133.301	84.2686	133.301	84.3193	133.301	84.1793	133.301	84.2307	133.301	84.078	133.301	84.1274	133.301	83.9731	133.301	84.0178	133.301	83.8758	133.301	83.9127	133.301	83.7975	133.301	83.8239	133.301	83.7486	133.301	83.7624	133.301	83.7362
139.16	84.2466	139.16	84.2507	139.16	84.2489	139.16	84.2607	139.16	84.2572	139.16	84.2755	139.16	84.2709	139.16	84.293	139.16	84.288	139.16	84.3103	139.16	84.3059	139.16	84.3235	139.16	84.3207	139.16	84.3279	139.16	84.3277	139.16	84.3186	139.16	84.322	139.16	84.2911	139.16	84.2986	139.16	84.2424	139.16	84.2543	139.16	84.1718	139.16	84.1877	139.16	84.0815	139.16	84.1005	139.16	83.9774	139.16	83.9981	139.16	83.8685	139.16	83.8889	139.16	83.7662	139.16	83.7842	139.16	83.6829	139.16	83.6964	139.16	83.6295	139.16	83.6367	139.16	83.6133
143.555	84.1678	143.555	84.1691	143.555	84.171	143.555	84.1746	143.555	84.1785	143.555	84.1836	143.555	84.1899	143.555	84.1945	143.555	84.204	143.555	84.2051	143.555	84.2186	143.555	84.2119	143.555	84.2304	143.555	84.2106	143.555	84.2352	143.555	84.1965	143.555	84.228	143.555	84.1653	143.555	84.2042	143.555	84.1139	143.555	84.1601	143.555	84.0416	143.555	84.0941	143.555	83.9507	143.555	84.0075	143.555	83.8471	143.555	83.905	143.555	83.74	143.555	83.795	143.555	83.641	143.555	83.6883	143.555	83.5622	143.555	83.597	143.555	83.5142	143.555	83.5327	143.555	83.5038
147.949	84.1761	147.949	84.1812	147.949	84.1728	147.949	84.1881	147.949	84.1716	147.949	84.1965	147.949	84.1723	147.949	84.2056	147.949	84.1743	147.949	84.2137	147.949	84.1764	147.949	84.2183	147.949	84.1764	147.949	84.2159	147.949	84.1709	147.949	84.2023	147.949	84.156	147.949	84.1736	147.949	84.1277	147.949	84.1265	147.949	84.0828	147.949	84.0602	147.949	84.0201	147.949	83.9762	147.949	83.9409	147.949	83.8794	147.949	83.8497	147.949	83.7778	147.949	83.7542	147.949	83.6817	147.949	83.6643	147.949	83.6019	147.949	83.5906	147.949	83.5484	147.949	83.5428	147.949	83.5279
153.809	84.2742	153.809	84.2751	153.809	84.2722	153.809	84.2751	153.809	84.2692	153.809	84.2737	153.809	84.2649	153.809	84.2702	153.809	84.2585	153.809	84.2629	153.809	84.2486	153.809	84.2494	153.809	84.2331	153.809	84.2265	153.809	84.209	153.809	84.1907	153.809	84.1728	153.809	84.1388	153.809	84.1214	153.809	84.0688	153.809	84.0528	153.809	83.9809	153.809	83.9668	153.809	83.8782	153.809	83.8662	153.809	83.7665	153.809	83.7566	153.809	83.6542	153.809	83.6464	153.809	83.5515	153.809	83.5456	153.809	83.4686	153.809	83.4646	153.809	83.4144	153.809	83.4124	153.809	83.3949
159.668	84.0574	159.668	84.0547	159.668	84.0618	159.668	84.0541	159.668	84.0679	159.668	84.0552	159.668	84.0748	159.668	84.0571	159.668	84.0816	159.668	84.0574	159.668	84.086	159.668	84.0526	159.668	84.085	159.668	84.0381	159.668	84.074	159.668	84.0085	159.668	84.0479	159.668	83.9588	159.668	84.0017	159.668	83.8857	159.668	83.9318	159.668	83.7887	159.668	83.8371	159.668	83.6709	159.668	83.7201	159.668	83.5397	159.668	83.5873	159.668	83.406	159.668	83.4492	159.668	83.2831	159.668	83.319	159.668	83.185	159.668	83.2107	159.668	83.1236	159.668	83.137	159.668	83.1068
165.527	83.7988	165.527	83.7975	165.527	83.7969	165.527	83.7937	165.527	83.7919	165.527	83.7886	165.527	83.7846	165.527	83.7832	165.527	83.776	165.527	83.7778	165.527	83.7664	165.527	83.7709	165.527	83.7548	165.527	83.7591	165.527	83.7387	165.527	83.7373	165.527	83.714	165.527	83.7	165.527	83.6757	165.527	83.6424	165.527	83.6197	165.527	83.5618	165.527	83.5432	165.527	83.4597	165.527	83.4468	165.527	83.3415	165.527	83.3349	165.527	83.2172	165.527	83.2162	165.527	83.0999	165.527	83.1025	165.527	83.0036	165.527	83.0073	165.527	82.9409	165.527	82.9434	165.527	82.92
171.387	83.7779	171.387	83.7685	171.387	83.7736	171.387	83.7463	171.387	83.7557	171.387	83.7129	171.387	83.7251	171.387	83.6701	171.387	83.6828	171.387	83.6199	171.387	83.6302	171.387	83.5637	171.387	83.5681	171.387	83.502	171.387	83.4966	171.387	83.4343	171.387	83.4152	171.387	83.3595	171.387	83.3234	171.387	83.2761	171.387	83.2213	171.387	83.1833	171.387	83.1106	171.387	83.0817	171.387	82.9948	171.387	82.9743	171.387	82.8798	171.387	82.8663	171.387	82.7731	171.387	82.7649	171.387	82.6833	171.387	82.6787	171.387	82.6182	171.387	82.6159	171.387	82.5837	171.387	82.583
177.246	83.8634	177.246	83.8556	177.246	83.8644	177.246	83.8414	177.246	83.8587	177.246	83.8217	177.246	83.847	177.246	83.7972	177.246	83.8299	177.246	83.7677	177.246	83.8078	177.246	83.7321	177.246	83.7794	177.246	83.6878	177.246	83.7426	177.246	83.6317	177.246	83.6939	177.246	83.5606	177.246	83.6295	177.246	83.473	177.246	83.5469	177.246	83.3698	177.246	83.4454	177.246	83.2547	177.246	83.328	177.246	83.1347	177.246	83.201	177.246	83.0187	177.246	83.0742	177.246	82.9166	177.246	82.9586	177.246	82.8377	177.246	82.8654	177.246	82.7896	177.246	82.8032	177.246	82.7774
183.105	83.8195	183.105	83.8013	183.105	83.8241	183.105	83.7707	183.105	83.8154	183.105	83.7296	183.105	83.7942	183.105	83.6803	183.105	83.7624	183.105	83.6247	183.105	83.7214	183.105	83.5634	183.105	83.672	183.105	83.4959	183.105	83.614	183.105	83.4202	183.105	83.5456	183.105	83.3339	183.105	83.4647	183.105	83.2351	183.105	83.3692	183.105	83.1238	183.105	83.2585	183.105	83.0033	183.105	83.1348	183.105	82.8797	183.105	83.0031	183.105	82.7621	183.105	82.8714	183.105	82.6608	183.105	82.7499	183.105	82.5856	183.105	82.6487	183.105	82.5442	183.105	82.577	183.105	82.5411
188.965	83.8461	188.965	83.8345	188.965	83.8445	188.965	83.8106	188.965	83.8301	188.965	83.7759	188.965	83.8039	188.965	83.7325	188.965	83.7677	188.965	83.6819	188.965	83.7228	188.965	83.6249	188.965	83.6697	188.965	83.5606	188.965	83.608	188.965	83.4872	188.965	83.536	188.965	83.4025	188.965	83.4519	188.965	83.3048	188.965	83.3542	188.965	83.1946	188.965	83.2434	188.965	83.0748	188.965	83.1223	188.965	82.9517	188.965	82.9965	188.965	82.8337	188.965	82.8739	188.965	82.7306	188.965	82.7638	188.965	82.6516	188.965	82.6754	188.965	82.6038	188.965	82.6163	188.965	82.5917
196.289	83.6848	196.289	83.6772	196.289	83.6756	196.289	83.6532	196.289	83.6511	196.289	83.6149	196.289	83.6141	196.289	83.5653	196.289	83.5686	196.289	83.5078	196.289	83.5181	196.289	83.445	196.289	83.4654	196.289	83.3781	196.289	83.4113	196.289	83.3072	196.289	83.3548	196.289	83.2315	196.289	83.2934	196.289	83.1501	196.289	83.2249	196.289	83.0639	196.289	83.1479	196.289	82.9754	196.289	83.0637	196.289	82.8892	196.289	82.9757	196.289	82.8113	196.289	82.8896	196.289	82.7476	196.289	82.8117	196.289	82.7027	196.289	82.7481	196.289	82.6797	196.289	82.7032	196.289	82.6799
203.613	83.6978	203.613	83.684	203.613	83.6851	203.613	83.6445	203.613	83.6466	203.613	83.5825	203.613	83.5855	203.613	83.5022	203.613	83.5061	203.613	83.408	203.613	83.4137	203.613	83.3041	203.613	83.313	203.613	83.1933	203.613	83.2078	203.613	83.0775	203.613	83.1005	203.613	82.9579	203.613	82.9922	203.613	82.8362	203.613	82.8835	203.613	82.7152	203.613	82.7754	203.613	82.5999	203.613	82.6702	203.613	82.4962	203.613	82.5714	203.613	82.4101	203.613	82.4831	203.613	82.3457	203.613	82.4089	203.613	82.3048	203.613	82.3512	203.613	82.2867	203.613	82.3112	203.613	82.2894
210.938	83.7561	210.938	83.7447	210.938	83.7362	210.938	83.7022	210.938	83.6869	210.938	83.6301	210.938	83.6113	210.938	83.5316	210.938	83.5137	210.938	83.4107	210.938	83.3987	210.938	83.272	210.938	83.2704	210.938	83.1199	210.938	83.1321	210.938	82.9587	210.938	82.9861	210.938	82.792	210.938	82.834	210.938	82.6241	210.938	82.6781	210.938	82.4597	210.938	82.5218	210.938	82.305	210.938	82.3706	210.938	82.1669	210.938	82.2314	210.938	82.0519	210.938	82.1108	210.938	81.9648	210.938	82.0139	210.938	81.9073	210.938	81.9426	210.938	81.8782	210.938	81.8967	210.938	81.8752
218.262	83.7953	218.262	83.7901	218.262	83.7747	218.262	83.7602	218.262	83.7284	218.262	83.7076	218.262	83.6579	218.262	83.6349	218.262	83.566	218.262	83.5439	218.262	83.456	218.262	83.4356	218.262	83.3312	218.262	83.3102	218.262	83.1943	218.262	83.1673	218.262	83.0472	218.262	83.0071	218.262	82.8917	218.262	82.8318	218.262	82.7297	218.262	82.6466	218.262	82.5647	218.262	82.4601	218.262	82.402	218.262	82.2834	218.262	82.2487	218.262	82.1282	218.262	82.1128	218.262	82.0036	218.262	82.0011	218.262	81.9151	218.262	81.9184	218.262	81.8639	218.262	81.8671	218.262	81.8485
225.586	83.5729	225.586	83.5597	225.586	83.5592	225.586	83.5217	225.586	83.519	225.586	83.4627	225.586	83.4551	225.586	83.3874	225.586	83.3715	225.586	83.3008	225.586	83.2732	225.586	83.2064	225.586	83.165	225.586	83.1062	225.586	83.0504	225.586	83.0003	225.586	82.932	225.586	82.8882	225.586	82.811	225.586	82.7699	225.586	82.6889	225.586	82.6472	225.586	82.568	225.586	82.5245	225.586	82.452	225.586	82.4083	225.586	82.3463	225.586	82.3057	225.586	82.2562	225.586	82.2223	225.586	82.1861	225.586	82.1614	225.586	82.1379	225.586	82.1233	225.586	82.1118	225.586	82.107
232.91	83.4084	232.91	83.3794	232.91	83.3982	232.91	83.3133	232.91	83.3495	232.91	83.2147	232.91	83.2658	232.91	83.0904	232.91	83.1523	232.91	82.9486	232.91	83.0155	232.91	82.7972	232.91	82.8625	232.91	82.6434	232.91	82.6999	232.91	82.4923	232.91	82.534	232.91	82.3474	232.91	82.3706	232.91	82.2116	232.91	82.2159	232.91	82.0874	232.91	82.0762	232.91	81.9785	232.91	81.9575	232.91	81.8889	232.91	81.8645	232.91	81.8213	232.91	81.7987	232.91	81.7756	232.91	81.7581	232.91	81.7486	232.91	81.7372	232.91	81.7348	232.91	81.7293	232.91	81.7291
241.699	83.565	241.699	83.562	241.699	83.5262	241.699	83.519	241.699	83.4462	241.699	83.4394	241.699	83.3283	241.699	83.3279	241.699	83.1784	241.699	83.1894	241.699	83.004	241.699	83.0287	241.699	82.8136	241.699	82.8503	241.699	82.6153	241.699	82.6588	241.699	82.4161	241.699	82.46	241.699	82.2217	241.699	82.2616	241.699	82.0376	241.699	82.0735	241.699	81.8698	241.699	81.9065	241.699	81.7257	241.699	81.7698	241.699	81.6125	241.699	81.668	241.699	81.535	241.699	81.5989	241.699	81.4929	241.699	81.5548	241.699	81.4801	241.699	81.5256	241.699	81.4868	241.699	81.5035
250.488	83.2719	250.488	83.2342	250.488	83.261	250.488	83.152	250.488	83.1997	250.488	83.0312	250.488	83.0885	250.488	82.8791	250.488	82.93	250.488	82.7031	250.488	82.7291	250.488	82.5102	250.488	82.4929	250.488	82.3054	250.488	82.2306	250.488	82.0921	250.488	81.954	250.488	81.873	250.488	81.677	250.488	81.6515	250.488	81.4152	250.488	81.4338	250.488	81.1841	250.488	81.23	250.488	80.9969	250.488	81.0527	250.488	80.8612	250.488	80.9131	250.488	80.7761	250.488	80.8167	250.488	80.7328	250.488	80.7601	250.488	80.7174	250.488	80.7325	250.488	80.716	250.488	80.7208
259.277	84.0048	259.277	83.9517	259.277	84.0096	259.277	83.8525	259.277	83.9654	259.277	83.7108	259.277	83.8727	259.277	83.5319	259.277	83.7328	259.277	83.3215	259.277	83.5471	259.277	83.0859	259.277	83.3175	259.277	82.8312	259.277	83.0465	259.277	82.5642	259.277	82.7385	259.277	82.2921	259.277	82.4013	259.277	82.0234	259.277	82.0478	259.277	81.7676	259.277	81.6967	259.277	81.5339	259.277	81.3718	259.277	81.3299	259.277	81.098	259.277	81.1591	259.277	80.8943	259.277	81.0205	259.277	80.7681	259.277	80.9097	259.277	80.7133	259.277	80.8217	259.277	80.7147	259.277	80.755
268.066	83.8536	268.066	83.8113	268.066	83.8543	268.066	83.7276	268.066	83.8162	268.066	83.6058	268.066	83.7442	268.066	83.4519	268.066	83.644	268.066	83.2728	268.066	83.5207	268.066	83.0756	268.066	83.3774	268.066	82.8664	268.066	83.2149	268.066	82.6498	268.066	83.0325	268.066	82.4301	268.066	82.8301	268.066	82.2126	268.066	82.6101	268.066	82.0053	268.066	82.3799	268.066	81.8185	268.066	82.152	268.066	81.6631	268.066	81.942	268.066	81.5469	268.066	81.7644	268.066	81.472	268.066	81.6278	268.066	81.4338	268.066	81.5325	268.066	81.4245	268.066	81.4719	268.066	81.4376
276.855	83.5008	276.855	83.4799	276.855	83.4704	276.855	83.409	276.855	83.3901	276.855	83.2918	276.855	83.2638	276.855	83.134	276.855	83.0985	276.855	82.9426	276.855	82.9035	276.855	82.7254	276.855	82.6895	276.855	82.4908	276.855	82.4677	276.855	82.247	276.855	82.249	276.855	82.0035	276.855	82.0427	276.855	81.7717	276.855	81.8575	276.855	81.5664	276.855	81.7006	276.855	81.4037	276.855	81.5777	276.855	81.2969	276.855	81.4921	276.855	81.25	276.855	81.4418	276.855	81.2544	276.855	81.4187	276.855	81.2909	276.855	81.4095	276.855	81.3373	276.855	81.399	276.855	81.3759
287.109	83.5257	287.109	83.4877	287.109	83.5143	287.109	83.4002	287.109	83.4573	287.109	83.2664	287.109	83.3603	287.109	83.0926	287.109	83.2282	287.109	82.8866	287.109	83.0635	287.109	82.6557	287.109	82.8647	287.109	82.4056	287.109	82.6273	287.109	82.141	287.109	82.3473	287.109	81.8666	287.109	82.0259	287.109	81.5895	287.109	81.675	287.109	81.3211	287.109	81.3194	287.109	81.0774	287.109	80.9955	287.109	80.8763	287.109	80.7406	287.109	80.7311	287.109	80.5786	287.109	80.6433	287.109	80.5079	287.109	80.6	287.109	80.5031	287.109	80.5785	287.109	80.5291	287.109	80.5577
297.363	83.8713	297.363	83.851	297.363	83.8261	297.363	83.7661	297.363	83.7172	297.363	83.6201	297.363	83.5501	297.363	83.4187	297.363	83.3338	297.363	83.1698	297.363	83.0803	297.363	82.8835	297.363	82.8028	297.363	82.571	297.363	82.5128	297.363	82.2436	297.363	82.2179	297.363	81.911	297.363	81.9213	297.363	81.5814	297.363	81.6243	297.363	81.2625	297.363	81.3299	297.363	80.9633	297.363	81.0454	297.363	80.6947	297.363	80.7823	297.363	80.4689	297.363	80.5532	297.363	80.2955	297.363	80.368	297.363	80.1787	297.363	80.2318	297.363	80.1172	297.363	80.1452	297.363	80.107
307.617	83.556	307.617	83.5411	307.617	83.5289	307.617	83.4876	307.617	83.4584	307.617	83.3993	307.617	83.3458	307.617	83.279	307.617	83.1952	307.617	83.1268	307.617	83.0134	307.617	82.9407	307.617	82.8075	307.617	82.7189	307.617	82.5841	307.617	82.4631	307.617	82.3472	307.617	82.1821	307.617	82.0999	307.617	81.8941	307.617	81.8471	307.617	81.6246	307.617	81.6001	307.617	81.4007	307.617	81.3782	307.617	81.2415	307.617	81.2052	307.617	81.1513	307.617	81.0985	307.617	81.1176	307.617	81.0587	307.617	81.1169	307.617	81.0672	307.617	81.1233	307.617	81.0953	307.617	81.1179
319.336	82.9841	319.336	82.9339	319.336	82.9823	319.336	82.8404	319.336	82.9253	319.336	82.7167	319.336	82.8148	319.336	82.5773	319.336	82.6563	319.336	82.4342	319.336	82.4576	319.336	82.2922	319.336	82.2269	319.336	82.1471	319.336	81.9715	319.336	81.9878	319.336	81.6985	319.336	81.8029	319.336	81.4156	319.336	81.5882	319.336	81.1341	319.336	81.3527	319.336	80.8709	319.336	81.1189	319.336	80.6486	319.336	80.9158	319.336	80.4895	319.336	80.7659	319.336	80.4066	319.336	80.6736	319.336	80.3957	319.336	80.6235	319.336	80.4349	319.336	80.5896	319.336	80.4944	319.336	80.5493
329.59	82.8962	329.59	82.8354	329.59	82.8805	329.59	82.7043	329.59	82.7902	329.59	82.5178	329.59	82.6343	329.59	82.2982	329.59	82.4268	329.59	82.071	329.59	82.1847	329.59	81.8572	329.59	81.9249	329.59	81.6665	329.59	81.6605	329.59	81.4933	329.59	81.398	329.59	81.3213	329.59	81.1363	329.59	81.1337	329.59	80.8712	329.59	80.9232	329.59	80.6027	329.59	80.6987	329.59	80.3425	329.59	80.4824	329.59	80.1149	329.59	80.2993	329.59	79.9486	329.59	80.1632	329.59	79.8609	329.59	80.0695	329.59	79.8469	329.59	80.0003	329.59	79.8822	329.59	79.9387
341.309	83.108	341.309	83.0088	341.309	83.1275	341.309	82.8309	341.309	83.0731	341.309	82.5834	341.309	82.957	341.309	82.2845	341.309	82.7949	341.309	81.9613	341.309	82.6037	341.309	81.6479	341.309	82.3975	341.309	81.3785	341.309	82.1852	341.309	81.1771	341.309	81.969	341.309	81.0475	341.309	81.7461	341.309	80.9713	341.309	81.512	341.309	80.9163	341.309	81.2651	341.309	80.8515	341.309	81.0106	341.309	80.7587	341.309	80.7621	341.309	80.6374	341.309	80.5399	341.309	80.5017	341.309	80.3643	341.309	80.3725	341.309	80.2492	341.309	80.2696	341.309	80.1984	341.309	80.2079
353.027	83.1425	353.027	83.0171	353.027	83.1367	353.027	82.7636	353.027	83.0028	353.027	82.3934	353.027	82.7504	353.027	81.9299	353.027	82.3978	353.027	81.4137	353.027	81.9758	353.027	80.9033	353.027	81.5301	353.027	80.4665	353.027	81.119	353.027	80.1576	353.027	80.8004	353.027	79.9953	353.027	80.6107	353.027	79.9596	353.027	80.5478	353.027	80.0113	353.027	80.5739	353.027	80.1151	353.027	80.6384	353.027	80.2467	353.027	80.7018	353.027	80.3885	353.027	80.7462	353.027	80.5238	353.027	80.7711	353.027	80.6366	353.027	80.7821	353.027	80.7165	353.027	80.7812	353.027	80.7625
366.211	83.8879	366.211	83.8692	366.211	83.8067	366.211	83.7456	366.211	83.6301	366.211	83.5122	366.211	83.3632	366.211	83.1644	366.211	83.0135	366.211	82.7017	366.211	82.5942	366.211	82.1333	366.211	82.1285	366.211	81.4891	366.211	81.6536	366.211	80.8339	366.211	81.2222	366.211	80.2718	366.211	80.8945	366.211	79.9201	366.211	80.7179	366.211	79.8431	366.211	80.7032	366.211	80.0044	366.211	80.8166	366.211	80.299	366.211	80.9975	366.211	80.6236	366.211	81.1851	366.211	80.9147	366.211	81.3361	366.211	81.1464	366.211	81.4284	366.211	81.3132	366.211	81.4549	366.211	81.416
379.395	84.0273	379.395	84.0066	379.395	83.9452	379.395	83.8861	379.395	83.7571	379.395	83.6685	379.395	83.4604	379.395	83.3558	379.395	83.0537	379.395	82.9506	379.395	82.5379	379.395	82.4585	379.395	81.9204	379.395	81.8937	379.395	81.2222	379.395	81.2862	379.395	80.4912	379.395	80.6914	379.395	79.8166	379.395	80.1933	379.395	79.3275	379.395	79.888	379.395	79.1448	379.395	79.8367	379.395	79.2978	379.395	80.0218	379.395	79.6949	379.395	80.3532	379.395	80.1888	379.395	80.7203	379.395	80.6546	379.395	81.0351	379.395	81.0171	379.395	81.243	379.395	81.2412	379.395	81.3158
392.578	84.313	392.578	84.2059	392.578	84.3315	392.578	84.0129	392.578	84.2585	392.578	83.7365	392.578	84.0901	392.578	83.3782	392.578	83.8216	392.578	82.9373	392.578	83.4471	392.578	82.4121	392.578	82.9607	392.578	81.8033	392.578	82.36	392.578	81.123	392.578	81.6525	392.578	80.4096	392.578	80.8676	392.578	79.7409	392.578	80.0756	392.578	79.2317	392.578	79.399	392.578	78.9896	392.578	78.9853	392.578	79.0435	392.578	78.919	392.578	79.3164	392.578	79.1481	392.578	79.6757	392.578	79.5229	392.578	80.0014	392.578	79.893	392.578	80.2137	392.578	80.1587	392.578	80.2704
405.762	84.2087	405.762	84.1395	405.762	84.1925	405.762	83.985	405.762	84.0913	405.762	83.7449	405.762	83.9058	405.762	83.4188	405.762	83.6356	405.762	83.0057	405.762	83.279	405.762	82.5061	405.762	82.8334	405.762	81.927	405.762	82.2975	405.762	81.2904	405.762	81.678	405.762	80.6461	405.762	81.0011	405.762	80.0796	405.762	80.3278	405.762	79.6979	405.762	79.7632	405.762	79.5802	405.762	79.433	405.762	79.7204	405.762	79.4113	405.762	80.0266	405.762	79.6575	405.762	80.3767	405.762	80.0417	405.762	80.6698	405.762	80.4262	405.762	80.8415	405.762	80.7153	405.762	80.8593
420.41	84.0211	420.41	83.9586	420.41	83.9899	420.41	83.7957	420.41	83.8729	420.41	83.5274	420.41	83.6769	420.41	83.1518	420.41	83.4056	420.41	82.6713	420.41	83.0589	420.41	82.0949	420.41	82.6334	420.41	81.4433	420.41	82.1264	420.41	80.754	420.41	81.5436	420.41	80.085	420.41	80.9103	420.41	79.5128	420.41	80.2823	420.41	79.1187	420.41	79.7489	420.41	78.9625	420.41	79.4109	420.41	79.052	420.41	79.3271	420.41	79.3287	420.41	79.4711	420.41	79.6886	420.41	79.7453	420.41	80.0233	420.41	80.035	420.41	80.2513	420.41	80.2486	420.41	80.3289
435.059	84.1731	435.059	84.1629	435.059	84.0951	435.059	84.0615	435.059	83.9324	435.059	83.8659	435.059	83.6886	435.059	83.5727	435.059	83.3658	435.059	83.1766	435.059	82.9635	435.059	82.6691	435.059	82.4759	435.059	82.0392	435.059	81.8924	435.059	81.279	435.059	81.2021	435.059	80.3997	435.059	80.41	435.059	79.4631	435.059	79.5659	435.059	78.6212	435.059	78.8022	435.059	78.108	435.059	78.3294	435.059	78.0928	435.059	78.3087	435.059	78.5038	435.059	78.6863	435.059	79.0948	435.059	79.2355	435.059	79.6413	435.059	79.7379	435.059	80.0155	435.059	80.065	435.059	80.1619
451.172	83.697	451.172	83.6515	451.172	83.6663	451.172	83.5345	451.172	83.5577	451.172	83.35	451.172	83.3726	451.172	83.0971	451.172	83.1142	451.172	82.7655	451.172	82.7835	451.172	82.3336	451.172	82.3762	451.172	81.7733	451.172	81.8812	451.172	81.0628	451.172	81.2863	451.172	80.2124	451.172	80.5911	451.172	79.3065	451.172	79.8296	451.172	78.5408	451.172	79.1012	451.172	78.1712	451.172	78.58	451.172	78.3096	451.172	78.4402	451.172	78.8019	451.172	78.7046	451.172	79.389	451.172	79.2056	451.172	79.8826	451.172	79.7226	451.172	80.1871	451.172	80.1002	451.172	80.2627
465.82	84.0819	465.82	84.051	465.82	84.0078	465.82	83.9204	465.82	83.8306	465.82	83.7021	465.82	83.5586	465.82	83.4105	465.82	83.2031	465.82	83.0558	465.82	82.774	465.82	82.6371	465.82	82.275	465.82	82.1368	465.82	81.7011	465.82	81.5226	465.82	81.0395	465.82	80.7607	465.82	80.278	465.82	79.8432	465.82	79.4246	465.82	78.8364	465.82	78.543	465.82	77.9385	465.82	77.7907	465.82	77.4503	465.82	77.3956	465.82	77.5324	465.82	77.4869	465.82	78.008	465.82	77.9403	465.82	78.5543	465.82	78.4855	465.82	78.9417	465.82	78.8999	465.82	79.0649
483.398	83.797	483.398	83.7034	483.398	83.8075	483.398	83.5359	483.398	83.7294	483.398	83.3059	483.398	83.5598	483.398	83.0207	483.398	83.2949	483.398	82.6771	483.398	82.9277	483.398	82.2588	483.398	82.4466	483.398	81.74	483.398	81.8371	483.398	81.0938	483.398	81.0868	483.398	80.3036	483.398	80.1991	483.398	79.3863	483.398	79.2226	483.398	78.4355	483.398	78.2956	483.398	77.6736	483.398	77.6589	483.398	77.3925	483.398	77.526	483.398	77.6836	483.398	77.868	483.398	78.3032	483.398	78.4377	483.398	78.9242	483.398	78.9863	483.398	79.3459	483.398	79.3632	483.398	79.494
499.512	83.9894	499.512	83.9379	499.512	83.9685	499.512	83.8039	499.512	83.8856	499.512	83.581	499.512	83.7486	499.512	83.2673	499.512	83.5585	499.512	82.8625	499.512	83.3068	499.512	82.3633	499.512	82.9746	499.512	81.7607	499.512	82.534	499.512	81.046	499.512	81.9531	499.512	80.2266	499.512	81.2023	499.512	79.347	499.512	80.2685	499.512	78.5048	499.512	79.1904	499.512	77.8465	499.512	78.1272	499.512	77.524	499.512	77.4016	499.512	77.6015	499.512	77.3073	499.512	77.9844	499.512	77.753	499.512	78.466	499.512	78.3568	499.512	78.8427	499.512	78.8103	499.512	78.9779
517.09	83.5467	517.09	83.5121	517.09	83.495	517.09	83.3998	517.09	83.3568	517.09	83.2211	517.09	83.1423	517.09	82.9839	517.09	82.8687	517.09	82.6874	517.09	82.5506	517.09	82.3181	517.09	82.1861	517.09	81.8461	517.09	81.7483	517.09	81.226	517.09	81.1883	517.09	80.4064	517.09	80.4537	517.09	79.3603	517.09	79.5186	517.09	78.1515	517.09	78.429	517.09	77.0394	517.09	77.3711	517.09	76.4694	517.09	76.6934	517.09	76.6636	517.09	76.6788	517.09	77.3153	517.09	77.2008	517.09	77.9889	517.09	77.8655	517.09	78.4385	517.09	78.3685	517.09	78.5717
536.133	83.3713	536.133	83.2885	536.133	83.3371	536.133	83.0997	536.133	83.1888	536.133	82.8309	536.133	82.9399	536.133	82.5175	536.133	82.6102	536.133	82.1898	536.133	82.2214	536.133	81.8528	536.133	81.7896	536.133	81.4742	536.133	81.3173	536.133	80.9911	536.133	80.7876	536.133	80.3322	536.133	80.1709	536.133	79.4512	536.133	79.4515	536.133	78.3839	536.133	78.6735	536.133	77.3485	536.133	77.9834	536.133	76.7815	536.133	77.6018	536.133	76.9833	536.133	77.6594	536.133	77.6948	536.133	78.0558	536.133	78.4375	536.133	78.5539	536.133	78.9315	536.133	78.9444	536.133	79.0947
555.176	83.404	555.176	83.3638	555.176	83.3356	555.176	83.2193	555.176	83.1667	555.176	82.9849	555.176	82.9172	555.176	82.6799	555.176	82.6141	555.176	82.3212	555.176	82.2814	555.176	81.9156	555.176	81.927	555.176	81.4514	555.176	81.5327	555.176	80.8969	555.176	81.0537	555.176	80.2108	555.176	80.4286	555.176	79.3656	555.176	79.5991	555.176	78.3848	555.176	78.5528	555.176	77.3977	555.176	77.4137	555.176	76.6809	555.176	76.5541	555.176	76.535	555.176	76.4258	555.176	76.962	555.176	76.9868	555.176	77.6269	555.176	77.7324	555.176	78.1787	555.176	78.2619	555.176	78.4163
574.219	83.5269	574.219	83.4157	574.219	83.4839	574.219	83.1588	574.219	83.2905	574.219	82.7758	574.219	82.9649	574.219	82.2954	574.219	82.5389	574.219	81.752	574.219	82.0524	574.219	81.1791	574.219	81.5411	574.219	80.5961	574.219	81.0177	574.219	79.9894	574.219	80.4561	574.219	79.303	574.219	79.7927	574.219	78.4602	574.219	78.9518	574.219	77.4318	574.219	77.8934	574.219	76.3592	574.219	76.6988	574.219	75.658	574.219	75.6912	574.219	75.7437	574.219	75.3758	574.219	76.4512	574.219	75.8819	574.219	77.2433	574.219	76.7439	574.219	77.752	574.219	77.4746	574.219	77.8355
594.727	84.0178	594.727	83.9607	594.727	83.943	594.727	83.7687	594.727	83.7466	594.727	83.4502	594.727	83.4436	594.727	83.0292	594.727	83.0538	594.727	82.5441	594.727	82.601	594.727	82.0349	594.727	82.1084	594.727	81.5197	594.727	81.5878	594.727	80.9756	594.727	81.0279	594.727	80.3405	594.727	80.3906	594.727	79.5395	594.727	79.6256	594.727	78.5306	594.727	78.7028	594.727	77.3761	594.727	77.6699	594.727	76.3305	594.727	76.7275	594.727	75.796	594.727	76.2115	594.727	75.9405	594.727	76.2923	594.727	76.4681	594.727	76.7228	594.727	76.9726	594.727	77.1094	594.727	77.2129
615.234	84.2319	615.234	84.1508	615.234	84.1483	615.234	83.9122	615.234	83.9019	615.234	83.5311	615.234	83.5031	615.234	83.0283	615.234	82.9716	615.234	82.4278	615.234	82.336	615.234	81.7552	615.234	81.6314	615.234	81.0368	615.234	80.8921	615.234	80.2941	615.234	80.1428	615.234	79.5408	615.234	79.3949	615.234	78.7902	615.234	78.6534	615.234	78.0779	615.234	77.9408	615.234	77.4928	615.234	77.3454	615.234	77.1918	615.234	77.0457	615.234	77.3142	615.234	77.1942	615.234	77.8042	615.234	77.7159	615.234	78.4047	615.234	78.3414	615.234	78.8536	615.234	78.818	615.234	79.0041
637.207	84.9004	637.207	84.8449	637.207	84.8523	637.207	84.685	637.207	84.7049	637.207	84.4211	637.207	84.4656	637.207	84.0497	637.207	84.1377	637.207	83.5616	637.207	83.7151	637.207	82.9457	637.207	83.1839	637.207	82.1975	637.207	82.5295	637.207	81.3294	637.207	81.7386	637.207	80.3674	637.207	80.7933	637.207	79.3281	637.207	79.6742	637.207	78.2102	637.207	78.4077	637.207	77.0698	637.207	77.1717	637.207	76.1765	637.207	76.3605	637.207	75.9635	637.207	76.3055	637.207	76.4858	637.207	76.8391	637.207	77.2728	637.207	77.5091	637.207	77.885	637.207	77.9913	637.207	78.1346
659.18	84.3128	659.18	84.2613	659.18	84.2573	659.18	84.1144	659.18	84.0969	659.18	83.8964	659.18	83.8465	659.18	83.636	659.18	83.5296	659.18	83.3491	659.18	83.1692	659.18	83.0204	659.18	82.7704	659.18	82.5961	659.18	82.3091	659.18	81.997	659.18	81.7404	659.18	81.1532	659.18	81.0221	659.18	80.0593	659.18	80.1358	659.18	78.8558	659.18	79.1143	659.18	77.8864	659.18	78.1093	659.18	77.5358	659.18	77.463	659.18	77.8457	659.18	77.5192	659.18	78.5023	659.18	78.1746	659.18	79.1724	659.18	78.9735	659.18	79.6418	659.18	79.5608	659.18	79.7897
682.617	85.0931	682.617	84.9656	682.617	85.0568	682.617	84.6806	682.617	84.8678	682.617	84.2609	682.617	84.5528	682.617	83.7411	682.617	84.1455	682.617	83.1593	682.617	83.6736	682.617	82.5455	682.617	83.1428	682.617	81.9056	682.617	82.5285	682.617	81.2104	682.617	81.7823	682.617	80.3996	682.617	80.8581	682.617	79.4142	682.617	79.7496	682.617	78.2829	682.617	78.5416	682.617	77.2905	682.617	77.4836	682.617	77.0309	682.617	77.0166	682.617	77.7564	682.617	77.4457	682.617	78.9179	682.617	78.4796	682.617	79.9226	682.617	79.5557	682.617	80.5217	682.617	80.3237	682.617	80.656
707.52	85.2255	707.52	85.1783	707.52	85.1263	707.52	84.9907	707.52	84.8841	707.52	84.678	707.52	84.5141	707.52	84.2654	707.52	84.0459	707.52	83.7814	707.52	83.5203	707.52	83.2398	707.52	82.9754	707.52	82.6193	707.52	82.4175	707.52	81.8535	707.52	81.7903	707.52	80.8358	707.52	80.9682	707.52	79.4385	707.52	79.7844	707.52	77.5735	707.52	78.1038	707.52	75.4462	707.52	76.0632	707.52	74.192	707.52	74.7121	707.52	75.0292	707.52	75.3919	707.52	76.8372	707.52	77.1097	707.52	78.3801	707.52	78.5682	707.52	79.3402	707.52	79.435	707.52	79.6898
732.422	84.7266	732.422	84.6325	732.422	84.6709	732.422	84.4076	732.422	84.4735	732.422	84.0938	732.422	84.1655	732.422	83.7381	732.422	83.7914	732.422	83.3678	732.422	83.3908	732.422	82.9743	732.422	82.9723	732.422	82.5159	732.422	82.4911	732.422	81.929	732.422	81.856	732.422	81.1335	732.422	80.9594	732.422	80.0406	732.422	79.7078	732.422	78.5922	732.422	78.0609	732.422	76.9137	732.422	76.164	732.422	75.6477	732.422	74.7111	732.422	75.7197	732.422	74.7802	732.422	76.8346	732.422	76.0811	732.422	77.9811	732.422	77.4691	732.422	78.6797	732.422	78.4208	732.422	78.8284
757.324	84.5619	757.324	84.4072	757.324	84.4832	757.324	84.0424	757.324	84.1857	757.324	83.5303	757.324	83.7234	757.324	82.9703	757.324	83.1885	757.324	82.4722	757.324	82.6855	757.324	82.0955	757.324	82.2749	757.324	81.7913	757.324	81.9278	757.324	81.4074	757.324	81.5363	757.324	80.748	757.324	80.9539	757.324	79.6274	757.324	80.0255	757.324	77.9185	757.324	78.6124	757.324	75.7638	757.324	76.6919	757.324	74.3122	757.324	74.7953	757.324	75.1326	757.324	74.5286	757.324	77.0417	757.324	76.148	757.324	78.5928	757.324	77.9532	757.324	79.4653	757.324	79.1564	757.324	79.6535
785.156	84.7815	785.156	84.7456	785.156	84.6471	785.156	84.5365	785.156	84.3546	785.156	84.1644	785.156	83.9247	785.156	83.6583	785.156	83.388	785.156	83.0631	785.156	82.7902	785.156	82.4232	785.156	82.1917	785.156	81.7571	785.156	81.6397	785.156	81.0381	785.156	81.1094	785.156	80.1828	785.156	80.4706	785.156	79.0438	785.156	79.519	785.156	77.4207	785.156	78.0392	785.156	75.1861	785.156	75.9127	785.156	72.9865	785.156	73.6164	785.156	73.1582	785.156	73.1452	785.156	75.3791	785.156	74.9382	785.156	77.3232	785.156	76.8706	785.156	78.4028	785.156	78.1319	785.156	78.6488
811.523	84.1645	811.523	83.9894	811.523	84.0872	811.523	83.5851	811.523	83.7724	811.523	83.0152	811.523	83.2748	811.523	82.3848	811.523	82.6875	811.523	81.8193	811.523	82.1189	811.523	81.4016	811.523	81.6398	811.523	81.099	811.523	81.2378	811.523	80.7665	811.523	80.8274	811.523	80.2263	811.523	80.29	811.523	79.3366	811.523	79.4932	811.523	78.0235	811.523	78.2958	811.523	76.3574	811.523	76.617	811.523	74.8307	811.523	74.7878	811.523	74.5059	811.523	74.1596	811.523	75.5954	811.523	75.4107	811.523	77.0156	811.523	77.0459	811.523	78.0351	811.523	78.1067	811.523	78.4255
840.82	84.5609	840.82	84.3803	840.82	84.4841	840.82	83.9516	840.82	84.1569	840.82	83.3158	840.82	83.6027	840.82	82.5679	840.82	82.8793	840.82	81.8642	840.82	82.115	840.82	81.3557	840.82	81.4984	840.82	81.0546	840.82	81.1367	840.82	80.7985	840.82	80.9023	840.82	80.3508	840.82	80.5173	840.82	79.4829	840.82	79.7384	840.82	78.0078	840.82	78.4157	840.82	75.8899	840.82	76.5086	840.82	73.7864	840.82	74.396	840.82	73.6645	840.82	73.6988	840.82	75.5656	840.82	75.2816	840.82	77.4914	840.82	77.2642	840.82	78.6865	840.82	78.5753	840.82	79.0492
870.117	84.2738	870.117	84.0792	870.117	84.1966	870.117	83.6369	870.117	83.8599	870.117	83.0124	870.117	83.3207	870.117	82.3186	870.117	82.687	870.117	81.6883	870.117	82.0929	870.117	81.2018	870.117	81.6292	870.117	80.8277	870.117	81.2708	870.117	80.4197	870.117	80.8733	870.117	79.7569	870.117	80.2368	870.117	78.6065	870.117	79.1713	870.117	76.7932	870.117	77.5513	870.117	74.3735	870.117	75.4756	870.117	72.402	870.117	73.7713	870.117	72.9534	870.117	73.8693	870.117	75.023	870.117	75.3657	870.117	76.7985	870.117	76.8902	870.117	77.8717	870.117	77.8894	870.117	78.2287
900.879	84.8971	900.879	84.6815	900.879	84.7656	900.879	84.1129	900.879	84.2952	900.879	83.2204	900.879	83.5014	900.879	82.142	900.879	82.4705	900.879	81.2053	900.879	81.4811	900.879	80.7869	900.879	80.9782	900.879	80.8667	900.879	81.0791	900.879	81.0054	900.879	81.3224	900.879	80.7664	900.879	81.1743	900.879	79.8436	900.879	80.3028	900.879	77.9791	900.879	78.4852	900.879	75.0959	900.879	75.6049	900.879	72.8691	900.879	72.8323	900.879	74.5987	900.879	74.0265	900.879	77.3506	900.879	76.9604	900.879	79.2265	900.879	79.0287	900.879	80.2349	900.879	80.1543	900.879	80.5286
933.105	86.444	933.105	86.274	933.105	86.2444	933.105	85.7337	933.105	85.6503	933.105	84.7922	933.105	84.6262	933.105	83.4094	933.105	83.1576	933.105	81.6411	933.105	81.3487	933.105	79.9482	933.105	79.6869	933.105	79.3182	933.105	79.0642	933.105	79.8434	933.105	79.5009	933.105	80.3689	933.105	79.9575	933.105	80.0521	933.105	79.6966	933.105	78.4388	933.105	78.3744	933.105	75.1179	933.105	75.7699	933.105	71.74	933.105	72.7997	933.105	75.0326	933.105	74.3564	933.105	78.9818	933.105	78.1065	933.105	81.3819	933.105	80.7586	933.105	82.6033	933.105	82.2847	933.105	82.8797
965.332	86.2458	965.332	86.1071	965.332	86.0893	965.332	85.6537	965.332	85.6326	965.332	84.8405	965.332	84.8543	965.332	83.6229	965.332	83.7268	965.332	82.0344	965.332	82.2615	965.332	80.3645	965.332	80.6592	965.332	79.3055	965.332	79.5155	965.332	79.2732	965.332	79.361	965.332	79.6002	965.332	79.6885	965.332	79.3877	965.332	79.5897	965.332	78.0206	965.332	78.4699	965.332	74.8127	965.332	75.76	965.332	69.0058	965.332	70.6337	965.332	70.7616	965.332	70.0981	965.332	76.2593	965.332	75.8669	965.332	79.3015	965.332	79.2164	965.332	80.8527	965.332	80.8651	965.332	81.3481
1000.49	85.8046	1000.49	85.6631	1000.49	85.7096	1000.49	85.2501	1000.49	85.361	1000.49	84.5017	1000.49	84.6831	1000.49	83.3413	1000.49	83.5733	1000.49	81.7304	1000.49	81.9827	1000.49	79.9021	1000.49	80.1198	1000.49	78.7857	1000.49	78.8019	1000.49	79.116	1000.49	78.8202	1000.49	79.861	1000.49	79.3961	1000.49	79.8438	1000.49	79.3431	1000.49	78.4296	1000.49	77.9649	1000.49	74.7134	1000.49	74.4286	1000.49	64.9919	1000.49	65.4382	1000.49	69.9557	1000.49	67.2885	1000.49	76.8269	1000.49	75.2631	1000.49	79.891	1000.49	78.8292	1000.49	81.2403	1000.49	80.6818	1000.49	81.4478
1035.64	85.7585	1035.64	85.5612	1035.64	85.7598	1035.64	85.1866	1035.64	85.4945	1035.64	84.5621	1035.64	84.8928	1035.64	83.5444	1035.64	83.8949	1035.64	81.9954	1035.64	82.4299	1035.64	79.9563	1035.64	80.4901	1035.64	78.1806	1035.64	78.6409	1035.64	78.1956	1035.64	78.401	1035.64	79.4713	1035.64	79.5174	1035.64	80.2047	1035.64	80.1696	1035.64	79.4837	1035.64	79.4982	1035.64	76.4933	1035.64	76.9211	1035.64	68.3141	1035.64	70.4555	1035.64	67.7028	1035.64	62.4071	1035.64	76.2739	1035.64	74.9426	1035.64	79.7806	1035.64	79.3642	1035.64	81.4601	1035.64	81.3814	1035.64	81.9779
1072.27	86.0049	1072.27	85.9369	1072.27	85.9622	1072.27	85.7149	1072.27	85.7971	1072.27	85.2408	1072.27	85.4268	1072.27	84.3413	1072.27	84.6939	1072.27	82.7619	1072.27	83.3751	1072.27	80.2233	1072.27	81.2099	1072.27	77.0558	1072.27	78.2579	1072.27	76.6169	1072.27	76.8257	1072.27	79.1908	1072.27	78.8504	1072.27	81.0121	1072.27	80.8117	1072.27	81.3087	1072.27	81.3232	1072.27	79.8781	1072.27	80.1417	1072.27	76.074	1072.27	76.679	1072.27	70.328	1072.27	69.3885	1072.27	75.1994	1072.27	72.4314	1072.27	79.6134	1072.27	78.2141	1072.27	81.5774	1072.27	80.9257	1072.27	81.9386
1108.89	86.3277	1108.89	86.2053	1108.89	86.3201	1108.89	85.9785	1108.89	86.1882	1108.89	85.6581	1108.89	85.9368	1108.89	85.1521	1108.89	85.4921	1108.89	84.2144	1108.89	84.6536	1108.89	82.4466	1108.89	83.092	1108.89	79.2676	1108.89	80.3488	1108.89	74.5284	1108.89	76.3645	1108.89	75.079	1108.89	75.9862	1108.89	79.112	1108.89	79.512	1108.89	81.0414	1108.89	81.471	1108.89	80.9523	1108.89	81.4382	1108.89	78.8201	1108.89	79.267	1108.89	74.4821	1108.89	74.054	1108.89	73.4407	1108.89	70.5779	1108.89	77.8042	1108.89	76.903	1108.89	80.3917	1108.89	80.1289	1108.89	81.1218
1148.44	86.3373	1148.44	86.2936	1148.44	86.2842	1148.44	86.1312	1148.44	86.1648	1148.44	85.849	1148.44	85.9784	1148.44	85.4248	1148.44	85.6481	1148.44	84.7235	1148.44	85.0073	1148.44	83.4381	1148.44	83.8141	1148.44	81.1305	1148.44	81.7462	1148.44	77.5627	1148.44	78.5793	1148.44	75.6008	1148.44	76.367	1148.44	78.372	1148.44	78.5591	1148.44	80.6539	1148.44	80.7173	1148.44	81.1142	1148.44	81.0356	1148.44	79.547	1148.44	79.3178	1148.44	75.0451	1148.44	74.7556	1148.44	67.3557	1148.44	66.2211	1148.44	74.2934	1148.44	73.4752	1148.44	78.241	1148.44	77.881	1148.44	79.2083
1189.45	86.462	1189.45	86.2308	1189.45	86.3839	1189.45	85.7801	1189.45	86.0163	1189.45	85.3017	1189.45	85.4718	1189.45	84.923	1189.45	84.9295	1189.45	84.5047	1189.45	84.452	1189.45	83.6949	1189.45	83.7475	1189.45	82.037	1189.45	82.2521	1189.45	78.9066	1189.45	79.3246	1189.45	74.4115	1189.45	75.0454	1189.45	75.7761	1189.45	75.5345	1189.45	79.427	1189.45	79.0169	1189.45	80.7884	1189.45	80.5324	1189.45	79.9987	1189.45	79.971	1189.45	76.8208	1189.45	77.0189	1189.45	70.3287	1189.45	70.1313	1189.45	71.1369	1189.45	70.2717	1189.45	75.9903	1189.45	75.875	1189.45	77.3978
1230.47	86.2974	1230.47	86.0787	1230.47	86.1348	1230.47	85.5055	1230.47	85.6386	1230.47	84.6769	1230.47	84.9383	1230.47	83.805	1230.47	84.1937	1230.47	83.1326	1230.47	83.4932	1230.47	82.565	1230.47	82.7464	1230.47	81.575	1230.47	81.6346	1230.47	79.6093	1230.47	79.6767	1230.47	76.5984	1230.47	76.573	1230.47	74.9366	1230.47	74.5502	1230.47	76.9676	1230.47	76.8321	1230.47	78.8295	1230.47	78.9436	1230.47	78.8984	1230.47	79.1967	1230.47	76.6386	1230.47	77.2589	1230.47	70.3016	1230.47	71.7514	1230.47	57.648	1230.47	54.6058	1230.47	71.1202	1230.47	70.5946	1230.47	73.3419
1274.41	86.5969	1274.41	86.3976	1274.41	86.4238	1274.41	85.7789	1274.41	85.9252	1274.41	84.7866	1274.41	85.1149	1274.41	83.6072	1274.41	84.0462	1274.41	82.4585	1274.41	82.911	1274.41	81.3896	1274.41	81.9039	1274.41	80.2196	1274.41	80.8445	1274.41	78.5625	1274.41	79.2362	1274.41	76.058	1274.41	76.7951	1274.41	74.1003	1274.41	74.398	1274.41	75.6757	1274.41	74.8435	1274.41	77.528	1274.41	76.8136	1274.41	77.5357	1274.41	77.3428	1274.41	75.279	1274.41	75.332	1274.41	69.9578	1274.41	69.2619	1274.41	65.321	1274.41	63.9056	1274.41	70.3223	1274.41	70.5984	1274.41	72.194
1319.82	86.4699	1319.82	86.2227	1319.82	86.3817	1319.82	85.6746	1319.82	85.9328	1319.82	84.8225	1319.82	85.1652	1319.82	83.6914	1319.82	84.181	1319.82	82.4224	1319.82	83.1015	1319.82	81.1576	1319.82	81.9878	1319.82	79.779	1319.82	80.712	1319.82	77.9438	1319.82	78.9761	1319.82	75.6265	1319.82	76.6299	1319.82	74.4349	1319.82	74.6625	1319.82	75.4849	1319.82	75.083	1319.82	76.2438	1319.82	76.2954	1319.82	75.3646	1319.82	76.2312	1319.82	72.2058	1319.82	73.9863	1319.82	64.5016	1319.82	67.729	1319.82	66.3442	1319.82	65.0356	1319.82	72.4174	1319.82	72.0269	1319.82	73.9242
1366.7	86.632	1366.7	86.446	1366.7	86.4571	1366.7	85.8455	1366.7	86.0018	1366.7	84.8946	1366.7	85.298	1366.7	83.7854	1366.7	84.3277	1366.7	82.6762	1366.7	83.1232	1366.7	81.5048	1366.7	81.8627	1366.7	80.0582	1366.7	80.6603	1366.7	78.0816	1366.7	79.234	1366.7	75.2229	1366.7	77.2137	1366.7	71.9978	1366.7	75.1697	1366.7	72.5098	1366.7	74.9135	1366.7	74.6925	1366.7	75.842	1366.7	74.7799	1366.7	75.9849	1366.7	71.7619	1366.7	74.1454	1366.7	63.1057	1366.7	68.4606	1366.7	67.3343	1366.7	66.3481	1366.7	73.0941	1366.7	72.9156	1366.7	74.6664
1413.57	86.9374	1413.57	86.6396	1413.57	86.7438	1413.57	85.9128	1413.57	86.0929	1413.57	84.8782	1413.57	85.1167	1413.57	83.6855	1413.57	83.9865	1413.57	82.4672	1413.57	82.8509	1413.57	81.2446	1413.57	81.798	1413.57	79.8767	1413.57	80.7135	1413.57	78.1221	1413.57	79.1976	1413.57	75.837	1413.57	76.9308	1413.57	73.8557	1413.57	74.6761	1413.57	74.5079	1413.57	74.7242	1413.57	76.1521	1413.57	76.0596	1413.57	76.0979	1413.57	76.2213	1413.57	73.1258	1413.57	73.9413	1413.57	63.5002	1413.57	67.1652	1413.57	66.0328	1413.57	67.6045	1413.57	72.9567	1413.57	73.4462	1413.57	74.7901
1463.38	86.9152	1463.38	86.6282	1463.38	86.7993	1463.38	86.0006	1463.38	86.2224	1463.38	85.0163	1463.38	85.25	1463.38	83.6667	1463.38	84.0938	1463.38	82.196	1463.38	82.9239	1463.38	81.0559	1463.38	81.714	1463.38	80.201	1463.38	80.3921	1463.38	79.1067	1463.38	78.8344	1463.38	77.4611	1463.38	76.709	1463.38	75.2215	1463.38	74.229	1463.38	73.8388	1463.38	73.9182	1463.38	75.2097	1463.38	75.5885	1463.38	75.8438	1463.38	76.0974	1463.38	73.3642	1463.38	74.0643	1463.38	64.0485	1463.38	66.7204	1463.38	65.5416	1463.38	66.3748	1463.38	72.909	1463.38	73.3748	1463.38	74.7991
1516.11	86.4009	1516.11	86.1331	1516.11	86.3101	1516.11	85.6113	1516.11	85.7395	1516.11	84.8083	1516.11	84.679	1516.11	83.6068	1516.11	83.2957	1516.11	82.0474	1516.11	81.8385	1516.11	80.5147	1516.11	80.3656	1516.11	79.3128	1516.11	78.8183	1516.11	78.0131	1516.11	77.3348	1516.11	76.1222	1516.11	75.8076	1516.11	74.1475	1516.11	73.8005	1516.11	73.2956	1516.11	72.7375	1516.11	74.4135	1516.11	74.0901	1516.11	75.5862	1516.11	74.8232	1516.11	74.3067	1516.11	73.0126	1516.11	67.9466	1516.11	65.9002	1516.11	62.8283	1516.11	63.5545	1516.11	72.0122	1516.11	72.0347	1516.11	73.9449
1568.85	85.9862	1568.85	85.6704	1568.85	85.8057	1568.85	84.9254	1568.85	85.1408	1568.85	83.9006	1568.85	84.0233	1568.85	82.6323	1568.85	82.5775	1568.85	81.0915	1568.85	81.0723	1568.85	79.6276	1568.85	79.6542	1568.85	78.55	1568.85	78.2084	1568.85	77.1707	1568.85	76.7251	1568.85	74.8326	1568.85	75.0787	1568.85	72.4473	1568.85	72.8979	1568.85	71.97	1568.85	71.1637	1568.85	73.2092	1568.85	71.6451	1568.85	74.0769	1568.85	72.1733	1568.85	72.5413	1568.85	70.6496	1568.85	65.6142	1568.85	64.6893	1568.85	65.7275	1568.85	61.892	1568.85	72.269	1568.85	70.7583	1568.85	73.344
1624.51	85.9402	1624.51	85.6276	1624.51	85.7608	1624.51	84.7854	1624.51	85.2239	1624.51	83.6131	1624.51	84.2851	1624.51	82.2479	1624.51	82.8629	1624.51	80.6601	1624.51	81.2048	1624.51	79.1159	1624.51	79.6812	1624.51	78.0831	1624.51	78.2736	1624.51	77.1274	1624.51	76.8795	1624.51	75.4518	1624.51	75.3085	1624.51	73.116	1624.51	73.1554	1624.51	71.2249	1624.51	71.5502	1624.51	71.706	1624.51	72.1661	1624.51	72.9921	1624.51	72.4293	1624.51	71.6608	1624.51	69.9694	1624.51	62.6503	1624.51	60.2259	1624.51	65.9399	1624.51	63.314	1624.51	72.6858	1624.51	71.0181	1624.51	73.4793
1681.64	85.6357	1681.64	85.3609	1681.64	85.4924	1681.64	84.6646	1681.64	84.9647	1681.64	83.517	1681.64	84.042	1681.64	81.9164	1681.64	82.6136	1681.64	80.0649	1681.64	80.7915	1681.64	78.4243	1681.64	79.2377	1681.64	77.2714	1681.64	78.3236	1681.64	76.1423	1681.64	77.2482	1681.64	74.2129	1681.64	75.2624	1681.64	71.6115	1681.64	72.5829	1681.64	71.2078	1681.64	70.9818	1681.64	72.44	1681.64	72.1927	1681.64	73.0759	1681.64	73.4136	1681.64	72.363	1681.64	72.2213	1681.64	67.7426	1681.64	66.2118	1681.64	60.9064	1681.64	57.3036	1681.64	70.354	1681.64	69.6877	1681.64	72.233
1741.7	85.4327	1741.7	85.1977	1741.7	85.2829	1741.7	84.516	1741.7	84.7309	1741.7	83.4028	1741.7	83.7662	1741.7	81.9681	1741.7	82.3881	1741.7	80.1083	1741.7	80.52	1741.7	77.8071	1741.7	78.4098	1741.7	75.9345	1741.7	77.0279	1741.7	75.1353	1741.7	76.4078	1741.7	74.049	1741.7	75.3984	1741.7	71.6144	1741.7	73.3497	1741.7	70.2886	1741.7	70.687	1741.7	72.3779	1741.7	71.6839	1741.7	73.6575	1741.7	73.8377	1741.7	72.8123	1741.7	73.0489	1741.7	67.8184	1741.7	67.6654	1741.7	55.2531	1741.7	58.8864	1741.7	69.727	1741.7	69.5026	1741.7	71.9573
1803.22	84.8383	1803.22	84.5802	1803.22	84.657	1803.22	83.7197	1803.22	84.108	1803.22	82.3857	1803.22	83.1519	1803.22	80.9292	1803.22	81.8461	1803.22	79.4119	1803.22	80.2243	1803.22	77.592	1803.22	78.4029	1803.22	75.5699	1803.22	76.6981	1803.22	74.4953	1803.22	75.4739	1803.22	74.0706	1803.22	74.8939	1803.22	72.2016	1803.22	73.5725	1803.22	69.7786	1803.22	69.9443	1803.22	71.507	1803.22	69.4326	1803.22	73.5968	1803.22	73.1651	1803.22	73.4959	1803.22	73.8542	1803.22	69.6322	1803.22	70.6129	1803.22	53.8639	1803.22	61.1331	1803.22	67.5557	1803.22	66.2703	1803.22	69.7868
1866.21	85.1133	1866.21	84.6668	1866.21	84.9739	1866.21	83.6991	1866.21	84.2075	1866.21	82.2115	1866.21	83.0121	1866.21	80.4337	1866.21	81.688	1866.21	78.7669	1866.21	80.2512	1866.21	77.1803	1866.21	78.674	1866.21	75.5229	1866.21	77.2097	1866.21	74.4711	1866.21	76.0348	1866.21	74.1534	1866.21	75.1998	1866.21	72.3448	1866.21	74.457	1866.21	68.3057	1866.21	72.7113	1866.21	69.8003	1866.21	71.2634	1866.21	72.6412	1866.21	73.5991	1866.21	72.9627	1866.21	74.8112	1866.21	69.858	1866.21	72.4596	1866.21	56.7804	1866.21	63.3565	1866.21	63.2911	1866.21	59.6918	1866.21	66.0041
1932.13	85.6509	1932.13	85.1899	1932.13	85.4521	1932.13	84.3044	1932.13	84.5018	1932.13	82.9849	1932.13	83.1411	1932.13	81.329	1932.13	81.7662	1932.13	79.737	1932.13	80.3676	1932.13	78.2749	1932.13	78.7852	1932.13	76.8301	1932.13	77.1726	1932.13	75.4869	1932.13	75.8856	1932.13	74.2939	1932.13	74.8915	1932.13	72.9125	1932.13	74.0516	1932.13	69.9943	1932.13	72.8727	1932.13	68.1668	1932.13	71.6633	1932.13	71.9758	1932.13	73.616	1932.13	73.3448	1932.13	74.7812	1932.13	70.9671	1932.13	72.42	1932.13	60.8043	1932.13	63.3891	1932.13	61.6245	1932.13	60.2619	1932.13	66.1308
1999.51	85.2479	1999.51	84.9455	1999.51	84.9833	1999.51	84.2412	1999.51	84.1762	1999.51	83.3218	1999.51	82.981	1999.51	82.1155	1999.51	81.5454	1999.51	80.5004	1999.51	79.9603	1999.51	78.8511	1999.51	78.3164	1999.51	77.4855	1999.51	76.8251	1999.51	75.8836	1999.51	75.3123	1999.51	74.1227	1999.51	73.4897	1999.51	73.2466	1999.51	72.1392	1999.51	72.0359	1999.51	70.7786	1999.51	69.848	1999.51	67.5882	1999.51	71.9068	1999.51	70.3093	1999.51	72.923	1999.51	73.5381	1999.51	71.1853	1999.51	72.0682	1999.51	65.012	1999.51	64.2508	1999.51	60.242	1999.51	60.3435	1999.51	66.4101
2069.82	85.1929	2069.82	84.7661	2069.82	85.0821	2069.82	83.9303	2069.82	84.4499	2069.82	82.9606	2069.82	83.3634	2069.82	81.804	2069.82	82.0174	2069.82	80.1959	2069.82	80.5523	2069.82	78.3098	2069.82	78.8647	2069.82	76.7604	2069.82	77.3234	2069.82	75.4469	2069.82	76.4519	2069.82	74.0781	2069.82	75.137	2069.82	73.1446	2069.82	73.1002	2069.82	71.6364	2069.82	71.4973	2069.82	69.6097	2069.82	68.9761	2069.82	71.2078	2069.82	67.6322	2069.82	72.9795	2069.82	70.9533	2069.82	70.8544	2069.82	71.0938	2069.82	62.8971	2069.82	64.6875	2069.82	66.3934	2069.82	62.0156	2069.82	68.6526
2143.07	86.4308	2143.07	85.9523	2143.07	86.2244	2143.07	85.0226	2143.07	85.4438	2143.07	84.0497	2143.07	84.3937	2143.07	82.9372	2143.07	83.1709	2143.07	81.3376	2143.07	81.7323	2143.07	79.3854	2143.07	80.1265	2143.07	77.2057	2143.07	78.4408	2143.07	75.7256	2143.07	77.4307	2143.07	75.3404	2143.07	76.9342	2143.07	74.2732	2143.07	75.2495	2143.07	71.8768	2143.07	73.2308	2143.07	69.6817	2143.07	71.9454	2143.07	70.1286	2143.07	70.8525	2143.07	72.273	2143.07	72.2935	2143.07	71.5821	2143.07	72.6417	2143.07	63.3354	2143.07	67.9775	2143.07	63.5371	2143.07	62.2834	2143.07	68.2344
2219.24	86.1922	2219.24	85.7813	2219.24	85.8681	2219.24	84.8633	2219.24	84.9267	2219.24	83.9732	2219.24	83.8821	2219.24	83.0925	2219.24	82.9991	2219.24	82.0359	2219.24	81.8232	2219.24	80.9655	2219.24	80.203	2219.24	79.1947	2219.24	78.4832	2219.24	76.7972	2219.24	77.3159	2219.24	75.3665	2219.24	76.8333	2219.24	74.5447	2219.24	75.4402	2219.24	73.2145	2219.24	72.6155	2219.24	72.0219	2219.24	71.5905	2219.24	71.3939	2219.24	70.6291	2219.24	72.4169	2219.24	73.0544	2219.24	71.669	2219.24	72.357	2219.24	64.8699	2219.24	65.6756	2219.24	64.6433	2219.24	64.654	2219.24	70.1408
2296.88	85.4991	2296.88	85.1917	2296.88	85.2357	2296.88	84.3371	2296.88	84.5558	2296.88	83.2774	2296.88	83.5569	2296.88	82.3364	2296.88	82.5249	2296.88	81.4922	2296.88	81.5629	2296.88	80.4523	2296.88	80.3917	2296.88	78.9541	2296.88	78.7994	2296.88	77.0966	2296.88	76.8144	2296.88	75.9881	2296.88	75.3843	2296.88	74.7962	2296.88	74.1229	2296.88	72.9233	2296.88	72.0253	2296.88	72.451	2296.88	70.8314	2296.88	72.2936	2296.88	70.0625	2296.88	73.3707	2296.88	72.0376	2296.88	72.5392	2296.88	72.1622	2296.88	64.9944	2296.88	66.1066	2296.88	64.0656	2296.88	60.222	2296.88	68.2934
2378.91	86.506	2378.91	86.2159	2378.91	86.3119	2378.91	85.4819	2378.91	85.7357	2378.91	84.3757	2378.91	84.842	2378.91	83.219	2378.91	83.7541	2378.91	82.2052	2378.91	82.7342	2378.91	81.0401	2378.91	81.6536	2378.91	79.3945	2378.91	80.3482	2378.91	77.5753	2378.91	78.7202	2378.91	76.3585	2378.91	77.1286	2378.91	74.8702	2378.91	75.7512	2378.91	73.4294	2378.91	73.9254	2378.91	71.9613	2378.91	72.374	2378.91	71.1317	2378.91	70.8545	2378.91	73.217	2378.91	72.7819	2378.91	73.5397	2378.91	73.7735	2378.91	67.6206	2378.91	69.2192	2378.91	60.6924	2378.91	57.9199	2378.91	65.776
2462.4	86.666	2462.4	86.4299	2462.4	86.5142	2462.4	86.0204	2462.4	85.9691	2462.4	85.2407	2462.4	85.1915	2462.4	84.1928	2462.4	83.9982	2462.4	83.2124	2462.4	82.7832	2462.4	82.1396	2462.4	81.7968	2462.4	80.5265	2462.4	80.5338	2462.4	78.4787	2462.4	78.9655	2462.4	77.1959	2462.4	77.4087	2462.4	75.7515	2462.4	75.6864	2462.4	73.1362	2462.4	73.917	2462.4	72.6047	2462.4	73.5712	2462.4	71.0207	2462.4	71.8622	2462.4	72.3573	2462.4	72.383	2462.4	74.2417	2462.4	74.3348	2462.4	69.9894	2462.4	70.4803	2462.4	62.848	2462.4	62.009	2462.4	66.962
2548.83	85.41	2548.83	85.3207	2548.83	85.4486	2548.83	85.0699	2548.83	85.1951	2548.83	84.5078	2548.83	84.6133	2548.83	83.4657	2548.83	83.5831	2548.83	82.1984	2548.83	82.2943	2548.83	81.2615	2548.83	81.2631	2548.83	79.8802	2548.83	79.8059	2548.83	77.6899	2548.83	77.8941	2548.83	76.9332	2548.83	76.79	2548.83	76.3505	2548.83	75.4741	2548.83	73.3229	2548.83	72.5868	2548.83	72.2468	2548.83	72.2937	2548.83	71.3336	2548.83	72.0545	2548.83	71.0111	2548.83	70.2413	2548.83	73.3168	2548.83	73.5868	2548.83	70.0028	2548.83	71.2654	2548.83	66.7689	2548.83	63.9385	2548.83	67.698
2639.65	85.2734	2639.65	85.1384	2639.65	85.3779	2639.65	85.0749	2639.65	85.2919	2639.65	84.8519	2639.65	84.9698	2639.65	84.0503	2639.65	84.2922	2639.65	82.6327	2639.65	83.0613	2639.65	81.2057	2639.65	81.7405	2639.65	79.787	2639.65	80.275	2639.65	77.1518	2639.65	77.9512	2639.65	74.9685	2639.65	76.4954	2639.65	74.5	2639.65	76.1124	2639.65	72.5564	2639.65	73.7785	2639.65	70.9834	2639.65	72.1864	2639.65	71.0382	2639.65	71.7513	2639.65	69.645	2639.65	70.1257	2639.65	71.5094	2639.65	71.7319	2639.65	68.2812	2639.65	69.7899	2639.65	64.4421	2639.65	64.3051	2639.65	68.6741
2731.93	85.1709	2731.93	85.1493	2731.93	85.0946	2731.93	85.0032	2731.93	84.9639	2731.93	84.6928	2731.93	84.6969	2731.93	84.0995	2731.93	84.2523	2731.93	82.8201	2731.93	83.3063	2731.93	81.4645	2731.93	81.7703	2731.93	80.2964	2731.93	80.16	2731.93	78.1689	2731.93	77.8646	2731.93	75.4992	2731.93	75.1503	2731.93	74.9971	2731.93	74.7689	2731.93	73.032	2731.93	73.8228	2731.93	70.4423	2731.93	71.4392	2731.93	71.0358	2731.93	71.4625	2731.93	69.8099	2731.93	69.4824	2731.93	71.687	2731.93	71.8827	2731.93	68.3937	2731.93	70.0065	2731.93	64.0844	2731.93	63.2302	2731.93	68.8676
2828.61	84.9192	2828.61	84.7869	2828.61	84.8845	2828.61	84.64	2828.61	84.8282	2828.61	84.3401	2828.61	84.6177	2828.61	83.7916	2828.61	84.1413	2828.61	82.7537	2828.61	83.3014	2828.61	81.1823	2828.61	81.6297	2828.61	79.929	2828.61	80.1369	2828.61	78.0871	2828.61	78.2838	2828.61	75.1377	2828.61	75.2042	2828.61	73.9022	2828.61	73.8874	2828.61	73.7341	2828.61	73.0091	2828.61	72.26	2828.61	71.6566	2828.61	70.9099	2828.61	71.685	2828.61	68.9466	2828.61	68.8588	2828.61	70.9364	2828.61	69.98	2828.61	68.6144	2828.61	69.236	2828.61	63.0512	2828.61	61.4462	2828.61	66.2784
2928.22	84.4471	2928.22	84.4398	2928.22	84.5157	2928.22	84.2643	2928.22	84.6133	2928.22	84.1715	2928.22	84.5916	2928.22	83.5407	2928.22	84.1837	2928.22	82.616	2928.22	83.1533	2928.22	80.7611	2928.22	81.5147	2928.22	78.962	2928.22	79.8559	2928.22	77.5855	2928.22	78.384	2928.22	75.2463	2928.22	75.7539	2928.22	73.7278	2928.22	73.9616	2928.22	72.8052	2928.22	72.4652	2928.22	71.5762	2928.22	70.9698	2928.22	72.4335	2928.22	72.147	2928.22	69.222	2928.22	69.7082	2928.22	70.9677	2928.22	70.0262	2928.22	69.7684	2928.22	69.534	2928.22	61.5431	2928.22	59.9265	2928.22	66.6185
3030.76	84.7333	3030.76	84.8252	3030.76	84.887	3030.76	84.963	3030.76	84.9651	3030.76	84.7989	3030.76	84.7563	3030.76	84.0633	3030.76	84.0766	3030.76	82.9812	3030.76	83.0321	3030.76	81.3251	3030.76	81.7354	3030.76	79.2522	3030.76	79.8188	3030.76	77.6041	3030.76	78.1475	3030.76	75.3608	3030.76	76.0847	3030.76	72.8054	3030.76	74.0478	3030.76	71.028	3030.76	73.1694	3030.76	69.6226	3030.76	70.1334	3030.76	70.9752	3030.76	71.5893	3030.76	68.8212	3030.76	70.5117	3030.76	69.6142	3030.76	69.2995	3030.76	67.3466	3030.76	69.6381	3030.76	56.8429	3030.76	58.23	3030.76	63.3608
3137.7	84.6992	3137.7	85.0494	3137.7	84.8094	3137.7	85.288	3137.7	85.0137	3137.7	85.141	3137.7	84.8493	3137.7	84.4021	3137.7	84.1232	3137.7	83.2048	3137.7	82.8529	3137.7	81.6673	3137.7	81.271	3137.7	79.5313	3137.7	79.3143	3137.7	77.7129	3137.7	77.6207	3137.7	75.6673	3137.7	75.7701	3137.7	74.1575	3137.7	73.4154	3137.7	72.135	3137.7	72.3353	3137.7	68.5766	3137.7	69.1032	3137.7	70.3686	3137.7	70.0499	3137.7	68.7804	3137.7	69.3699	3137.7	70.3143	3137.7	70.3272	3137.7	70.3346	3137.7	70.7268	3137.7	60.0396	3137.7	62.16	3137.7	62.8287
3249.02	84.7375	3249.02	85.1385	3249.02	85.0283	3249.02	85.4248	3249.02	85.4687	3249.02	85.1822	3249.02	85.4203	3249.02	84.398	3249.02	84.6625	3249.02	82.9773	3249.02	83.4495	3249.02	81.1494	3249.02	81.7702	3249.02	78.6906	3249.02	79.6274	3249.02	76.6587	3249.02	77.7682	3249.02	74.9587	3249.02	75.5884	3249.02	73.3459	3249.02	73.5047	3249.02	72.594	3249.02	72.8505	3249.02	69.9704	3249.02	70.3583	3249.02	69.9892	3249.02	71.0753	3249.02	68.4441	3249.02	69.1881	3249.02	69.2259	3249.02	68.7969	3249.02	69.8933	3249.02	70.3539	3249.02	61.7351	3249.02	63.5263	3249.02	60.6235
3363.28	84.3375	3363.28	84.6728	3363.28	84.4716	3363.28	85.213	3363.28	84.9529	3363.28	85.3592	3363.28	85.0374	3363.28	84.6611	3363.28	84.4931	3363.28	83.5058	3363.28	83.1831	3363.28	81.7779	3363.28	81.1263	3363.28	79.3614	3363.28	79.0854	3363.28	77.273	3363.28	77.2132	3363.28	75.4118	3363.28	75.3737	3363.28	72.8229	3363.28	72.5884	3363.28	72.2993	3363.28	70.932	3363.28	69.952	3363.28	68.7158	3363.28	70.948	3363.28	70.5898	3363.28	69.464	3363.28	69.7161	3363.28	67.7731	3363.28	68.0295	3363.28	70.4781	3363.28	70.0709	3363.28	64.3153	3363.28	64.9051	3363.28	62.2945
3481.93	84.7368	3481.93	84.7499	3481.93	84.894	3481.93	84.8585	3481.93	85.0877	3481.93	84.7905	3481.93	85.1153	3481.93	84.0172	3481.93	84.4715	3481.93	82.5601	3481.93	83.3455	3481.93	81.0274	3481.93	81.7573	3481.93	78.7428	3481.93	79.7009	3481.93	76.3495	3481.93	77.6137	3481.93	74.7531	3481.93	75.9919	3481.93	72.5925	3481.93	74.145	3481.93	72.0814	3481.93	72.5508	3481.93	69.4588	3481.93	70.2536	3481.93	71.1001	3481.93	70.1301	3481.93	70.8268	3481.93	71.3948	3481.93	68.4599	3481.93	68.3458	3481.93	69.7963	3481.93	70.593	3481.93	63.3291	3481.93	64.5033	3481.93	63.9847
3604.98	84.867	3604.98	84.983	3604.98	84.7483	3604.98	85.0826	3604.98	84.8132	3604.98	84.8824	3604.98	84.6691	3604.98	84.1673	3604.98	84.0051	3604.98	82.8139	3604.98	82.6961	3604.98	81.2623	3604.98	80.8912	3604.98	79.399	3604.98	78.9334	3604.98	77.1729	3604.98	76.6064	3604.98	74.6972	3604.98	74.6433	3604.98	72.4535	3604.98	72.5357	3604.98	70.9787	3604.98	71.5419	3604.98	69.0068	3604.98	69.6469	3604.98	68.5761	3604.98	68.8189	3604.98	70.2762	3604.98	70.8756	3604.98	68.1452	3604.98	67.1727	3604.98	69.1567	3604.98	69.8222	3604.98	64.7013	3604.98	63.1192	3604.98	64.2398
3732.42	85.0933	3732.42	85.0397	3732.42	85.1612	3732.42	84.899	3732.42	85.0521	3732.42	84.4501	3732.42	84.7195	3732.42	83.6676	3732.42	84.1753	3732.42	82.3841	3732.42	83.1	3732.42	80.659	3732.42	81.5489	3732.42	78.9612	3732.42	79.5863	3732.42	76.8954	3732.42	77.2763	3732.42	74.9386	3732.42	75.1875	3732.42	72.8206	3732.42	72.8648	3732.42	71.6568	3732.42	71.1174	3732.42	70.4146	3732.42	70.1339	3732.42	68.8513	3732.42	68.5957	3732.42	70.4274	3732.42	70.3666	3732.42	68.2989	3732.42	67.4791	3732.42	70.5053	3732.42	70.0612	3732.42	64.7101	3732.42	65.1308	3732.42	63.7443
3864.26	85.1292	3864.26	85.19	3864.26	85.1671	3864.26	85.2068	3864.26	85.0833	3864.26	84.805	3864.26	84.525	3864.26	83.9229	3864.26	83.6964	3864.26	82.6869	3864.26	82.4778	3864.26	81.1527	3864.26	81.0169	3864.26	79.2256	3864.26	79.2528	3864.26	76.9612	3864.26	77.2006	3864.26	74.7882	3864.26	75.0744	3864.26	72.3096	3864.26	72.7373	3864.26	70.7002	3864.26	70.5588	3864.26	69.4786	3864.26	69.8517	3864.26	68.5964	3864.26	67.3732	3864.26	70.6532	3864.26	70.3017	3864.26	67.5476	3864.26	67.8302	3864.26	70.1132	3864.26	69.6656	3864.26	63.801	3864.26	66.0762	3864.26	62.7324
4000.49	85.3205	4000.49	85.1741	4000.49	85.2814	4000.49	84.9173	4000.49	85.1678	4000.49	84.315	4000.49	84.7229	4000.49	83.4258	4000.49	83.8664	4000.49	82.4265	4000.49	82.6746	4000.49	80.7502	4000.49	80.9412	4000.49	78.8135	4000.49	79.2458	4000.49	76.6355	4000.49	77.2437	4000.49	74.4056	4000.49	74.8029	4000.49	72.4647	4000.49	72.1532	4000.49	70.4495	4000.49	70.8513	4000.49	69.1349	4000.49	69.4944	4000.49	67.5924	4000.49	67.4885	4000.49	71.1361	4000.49	71.035	4000.49	68.1036	4000.49	68.3527	4000.49	69.1035	4000.49	70.0504	4000.49	64.4809	4000.49	63.9044	4000.49	63.7583
4141.11	85.1859	4141.11	85.1145	4141.11	85.04	4141.11	84.884	4141.11	84.8081	4141.11	84.4722	4141.11	84.4729	4141.11	83.7417	4141.11	83.5948	4141.11	82.8219	4141.11	82.6238	4141.11	81.3005	4141.11	81.119	4141.11	79.3903	4141.11	79.0236	4141.11	77.1399	4141.11	76.9625	4141.11	75.0277	4141.11	74.803	4141.11	72.1735	4141.11	72.4847	4141.11	70.7159	4141.11	70.0989	4141.11	69.57	4141.11	69.714	4141.11	66.0977	4141.11	64.5018	4141.11	69.8845	4141.11	68.3424	4141.11	67.6216	4141.11	67.8928	4141.11	70.083	4141.11	69.6833	4141.11	63.0247	4141.11	64.7323	4141.11	62.0917
4287.6	85.0731	4287.6	84.7449	4287.6	84.8531	4287.6	84.1785	4287.6	84.2841	4287.6	83.7245	4287.6	83.9932	4287.6	83.2749	4287.6	83.6487	4287.6	82.3613	4287.6	82.6742	4287.6	80.8761	4287.6	81.325	4287.6	79.1641	4287.6	78.9963	4287.6	76.8967	4287.6	76.8307	4287.6	74.558	4287.6	74.6597	4287.6	72.426	4287.6	72.9941	4287.6	70.5018	4287.6	69.891	4287.6	70.2171	4287.6	68.6401	4287.6	67.215	4287.6	69.2993	4287.6	68.7175	4287.6	68.5716	4287.6	67.7195	4287.6	67.6953	4287.6	69.7842	4287.6	69.2206	4287.6	64.2831	4287.6	65.285	4287.6	60.0182
4438.48	85.0097	4438.48	84.7479	4438.48	84.7685	4438.48	84.2518	4438.48	84.0323	4438.48	83.7801	4438.48	83.5571	4438.48	83.3753	4438.48	83.3222	4438.48	82.3263	4438.48	82.2963	4438.48	81.0615	4438.48	80.7195	4438.48	78.866	4438.48	78.7536	4438.48	76.7105	4438.48	76.2889	4438.48	73.4358	4438.48	73.4203	4438.48	71.3387	4438.48	71.037	4438.48	68.7446	4438.48	68.5296	4438.48	68.5394	4438.48	68.3171	4438.48	66.9853	4438.48	66.8458	4438.48	68.7502	4438.48	69.782	4438.48	67.7329	4438.48	68.0715	4438.48	68.4287	4438.48	68.2815	4438.48	64.8503	4438.48	63.4729	4438.48	59.97
4595.21	84.6971	4595.21	84.2704	4595.21	84.3692	4595.21	83.5938	4595.21	83.5923	4595.21	82.7356	4595.21	83.08	4595.21	82.4071	4595.21	82.8027	4595.21	81.5146	4595.21	81.9371	4595.21	80.0361	4595.21	80.3969	4595.21	78.0159	4595.21	78.3313	4595.21	75.7922	4595.21	76.6699	4595.21	73.6784	4595.21	73.6773	4595.21	71.1541	4595.21	71.2167	4595.21	68.7659	4595.21	68.8368	4595.21	67.9649	4595.21	67.7917	4595.21	67.2149	4595.21	66.9102	4595.21	67.4801	4595.21	65.6807	4595.21	66.6289	4595.21	68.6915	4595.21	68.1734	4595.21	66.2466	4595.21	60.5413	4595.21	65.8472	4595.21	59.9816
4756.35	85.0334	4756.35	84.6151	4756.35	84.7028	4756.35	83.8789	4756.35	83.7022	4756.35	83.0762	4756.35	83.1544	4756.35	82.4453	4756.35	82.5675	4756.35	81.5306	4756.35	81.5736	4756.35	80.0701	4756.35	80.3711	4756.35	78.5252	4756.35	78.2824	4756.35	76.0435	4756.35	75.7418	4756.35	72.9924	4756.35	73.2841	4756.35	70.7539	4756.35	71.2109	4756.35	67.0458	4756.35	67.5603	4756.35	66.5255	4756.35	66.9761	4756.35	64.4188	4756.35	64.4194	4756.35	65.4725	4756.35	65.0595	4756.35	66.9018	4756.35	67.8185	4756.35	65.8634	4756.35	66.1435	4756.35	61.3924	4756.35	63.2879	4756.35	56.3272
4924.8	85.151	4924.8	84.8286	4924.8	84.8944	4924.8	83.954	4924.8	83.984	4924.8	83.1335	4924.8	83.0617	4924.8	82.1797	4924.8	82.4696	4924.8	81.2775	4924.8	81.6883	4924.8	79.5243	4924.8	80.0844	4924.8	77.6494	4924.8	78.338	4924.8	74.9574	4924.8	75.7228	4924.8	72.6516	4924.8	73.4034	4924.8	71.1896	4924.8	71.1445	4924.8	68.285	4924.8	68.5642	4924.8	67.0595	4924.8	67.2615	4924.8	65.6925	4924.8	66.234	4924.8	65.8689	4924.8	65.6851	4924.8	68.1981	4924.8	68.095	4924.8	65.7483	4924.8	66.4267	4924.8	62.0906	4924.8	60.2731	4924.8	59.7773
5097.66	85.2559	5097.66	84.8265	5097.66	85.0156	5097.66	84.1704	5097.66	84.1498	5097.66	83.4672	5097.66	83.4259	5097.66	82.5138	5097.66	82.5119	5097.66	81.6115	5097.66	81.5795	5097.66	79.8181	5097.66	79.9322	5097.66	77.7513	5097.66	77.7611	5097.66	75.3495	5097.66	75.503	5097.66	73.0936	5097.66	73.6812	5097.66	70.6649	5097.66	70.8936	5097.66	67.5176	5097.66	68.4613	5097.66	66.4839	5097.66	66.7315	5097.66	64.3719	5097.66	64.0002	5097.66	64.234	5097.66	64.929	5097.66	66.8077	5097.66	67.8455	5097.66	67.6117	5097.66	65.6806	5097.66	61.4364	5097.66	65.3139	5097.66	62.8719
5277.83	85.2064	5277.83	84.9903	5277.83	84.8566	5277.83	84.2324	5277.83	84.0186	5277.83	83.4628	5277.83	83.3237	5277.83	82.6477	5277.83	82.8112	5277.83	81.4444	5277.83	81.4913	5277.83	79.9357	5277.83	80.0803	5277.83	78.0777	5277.83	78.2794	5277.83	75.3953	5277.83	75.375	5277.83	72.7431	5277.83	73.48	5277.83	69.3073	5277.83	70.762	5277.83	68.0961	5277.83	69.0391	5277.83	66.5237	5277.83	66.6352	5277.83	64.4012	5277.83	65.8035	5277.83	66.3322	5277.83	65.5981	5277.83	67.3839	5277.83	67.6273	5277.83	66.2947	5277.83	65.4167	5277.83	60.4498	5277.83	65.2045	5277.83	57.2522
5463.87	85.0181	5463.87	84.7561	5463.87	84.8651	5463.87	84.3628	5463.87	84.1801	5463.87	83.4121	5463.87	83.5221	5463.87	82.6445	5463.87	82.8786	5463.87	81.4674	5463.87	81.9459	5463.87	79.8568	5463.87	80.2608	5463.87	78.1878	5463.87	78.7419	5463.87	75.9446	5463.87	76.7776	5463.87	73.6764	5463.87	73.7988	5463.87	71.2333	5463.87	70.5643	5463.87	69.6407	5463.87	69.2413	5463.87	66.7514	5463.87	66.984	5463.87	65.7693	5463.87	67.2252	5463.87	65.4328	5463.87	66.6629	5463.87	67.7344	5463.87	68.128	5463.87	65.252	5463.87	65.5102	5463.87	63.2263	5463.87	63.3513	5463.87	61.3073
5657.23	84.5314	5657.23	84.3159	5657.23	84.4	5657.23	83.808	5657.23	83.9381	5657.23	83.3449	5657.23	83.2129	5657.23	82.8248	5657.23	82.8442	5657.23	81.7122	5657.23	82.01	5657.23	80.5246	5657.23	80.8285	5657.23	78.4626	5657.23	79.1888	5657.23	76.4472	5657.23	76.4097	5657.23	73.9979	5657.23	74.4252	5657.23	71.4374	5657.23	71.727	5657.23	69.6773	5657.23	70.0497	5657.23	66.5436	5657.23	67.3165	5657.23	65.2394	5657.23	65.931	5657.23	64.7117	5657.23	66.6565	5657.23	67.9916	5657.23	68.1456	5657.23	65.7643	5657.23	65.2857	5657.23	60.6713	5657.23	64.0973	5657.23	61.6931
5856.45	84.5912	5856.45	84.5706	5856.45	84.5539	5856.45	84.1723	5856.45	84.0077	5856.45	83.3477	5856.45	83.3577	5856.45	82.7974	5856.45	82.8531	5856.45	82.2484	5856.45	82.5853	5856.45	81.3255	5856.45	81.2408	5856.45	80.203	5856.45	79.8541	5856.45	77.6866	5856.45	78.0264	5856.45	74.7372	5856.45	74.8757	5856.45	71.2591	5856.45	71.9663	5856.45	69.4679	5856.45	69.8723	5856.45	67.111	5856.45	67.0239	5856.45	66.5017	5856.45	66.7136	5856.45	65.6022	5856.45	66.5122	5856.45	68.409	5856.45	67.9781	5856.45	64.8096	5856.45	65.9963	5856.45	62.0352	5856.45	64.5065	5856.45	59.6905
6062.99	84.4454	6062.99	84.6239	6062.99	84.509	6062.99	84.1238	6062.99	84.1588	6062.99	83.3931	6062.99	83.0139	6062.99	83.0036	6062.99	82.4149	6062.99	82.475	6062.99	82.2431	6062.99	81.705	6062.99	81.577	6062.99	79.552	6062.99	79.9192	6062.99	77.5069	6062.99	77.558	6062.99	74.2281	6062.99	75.1871	6062.99	72.0759	6062.99	72.341	6062.99	69.9829	6062.99	70.673	6062.99	67.0085	6062.99	68.2399	6062.99	67.4219	6062.99	66.5062	6062.99	66.0428	6062.99	65.8474	6062.99	68.2904	6062.99	66.9171	6062.99	63.9744	6062.99	64.9422	6062.99	60.4956	6062.99	61.8307	6062.99	62.1005
6276.86	84.4975	6276.86	84.6381	6276.86	84.6247	6276.86	84.1759	6276.86	84.1002	6276.86	82.825	6276.86	82.8327	6276.86	82.1904	6276.86	82.0469	6276.86	82.1491	6276.86	82.1274	6276.86	81.5188	6276.86	81.3238	6276.86	80.0428	6276.86	80.0805	6276.86	77.5134	6276.86	77.7478	6276.86	75.1798	6276.86	74.7833	6276.86	71.6562	6276.86	72.5988	6276.86	70.1817	6276.86	69.6794	6276.86	67.6658	6276.86	67.4859	6276.86	66.685	6276.86	67.5997	6276.86	66.569	6276.86	64.8492	6276.86	67.7802	6276.86	67.0374	6276.86	64.5069	6276.86	64.4723	6276.86	57.2469	6276.86	63.7507	6276.86	63.1512
6498.05	85.0317	6498.05	85.1034	6498.05	85.2137	6498.05	84.4607	6498.05	84.6852	6498.05	82.9838	6498.05	83.1714	6498.05	82.3833	6498.05	82.3657	6498.05	82.2665	6498.05	82.335	6498.05	81.6356	6498.05	81.508	6498.05	79.5062	6498.05	79.998	6498.05	77.3977	6498.05	77.423	6498.05	74.2425	6498.05	74.8969	6498.05	72.3899	6498.05	71.6382	6498.05	69.168	6498.05	69.669	6498.05	66.0207	6498.05	66.9089	6498.05	66.4228	6498.05	65.6226	6498.05	65.6556	6498.05	66.0014	6498.05	67.4901	6498.05	66.5199	6498.05	63.2465	6498.05	65.785	6498.05	60.9044	6498.05	62.403	6498.05	62.0452
6726.56	85.4248	6726.56	85.3651	6726.56	85.312	6726.56	84.4449	6726.56	84.5056	6726.56	83.2274	6726.56	82.9876	6726.56	82.4231	6726.56	82.1339	6726.56	82.1765	6726.56	82.0648	6726.56	81.2433	6726.56	80.9835	6726.56	79.3731	6726.56	79.4124	6726.56	76.9634	6726.56	76.9794	6726.56	73.9141	6726.56	73.7103	6726.56	70.0159	6726.56	71.2096	6726.56	68.1503	6726.56	67.8537	6726.56	65.0163	6726.56	65.3455	6726.56	65.0189	6726.56	66.3086	6726.56	64.6045	6726.56	64.4111	6726.56	66.6646	6726.56	66.1825	6726.56	63.784	6726.56	65.9313	6726.56	60.0852	6726.56	62.3064	6726.56	59.841
6963.87	85.0114	6963.87	84.7517	6963.87	84.796	6963.87	83.8061	6963.87	83.8708	6963.87	82.5666	6963.87	82.4551	6963.87	82.0885	6963.87	81.9027	6963.87	81.8877	6963.87	81.6776	6963.87	80.9271	6963.87	80.5665	6963.87	78.857	6963.87	78.8515	6963.87	76.3313	6963.87	76.2174	6963.87	72.6664	6963.87	73.6668	6963.87	70.9167	6963.87	70.3655	6963.87	67.7193	6963.87	67.9073	6963.87	65.3823	6963.87	66.1401	6963.87	63.9142	6963.87	63.8423	6963.87	64.5072	6963.87	65.1432	6963.87	66.1275	6963.87	65.7264	6963.87	63.3966	6963.87	65.8691	6963.87	59.9931	6963.87	62.227	6963.87	61.0074
7209.96	84.6477	7209.96	84.1882	7209.96	84.131	7209.96	83.1298	7209.96	83.1071	7209.96	82.5809	7209.96	82.2188	7209.96	82.201	7209.96	81.8969	7209.96	81.7912	7209.96	81.6434	7209.96	80.6648	7209.96	80.5066	7209.96	78.6953	7209.96	78.8409	7209.96	76.144	7209.96	76.0817	7209.96	72.6456	7209.96	73.2491	7209.96	69.3658	7209.96	70.3696	7209.96	66.4085	7209.96	67.2681	7209.96	64.0824	7209.96	65.7414	7209.96	64.4764	7209.96	62.9238	7209.96	63.9247	7209.96	64.3554	7209.96	65.291	7209.96	64.9397	7209.96	64.2201	7209.96	66.1204	7209.96	58.586	7209.96	60.8949	7209.96	59.8482
7464.84	84.6954	7464.84	84.1354	7464.84	83.9604	7464.84	83.3032	7464.84	83.3059	7464.84	83.0706	7464.84	82.9251	7464.84	82.7996	7464.84	82.7125	7464.84	82.1933	7464.84	82.2236	7464.84	81.0711	7464.84	80.9975	7464.84	79.1381	7464.84	79.1234	7464.84	76.3583	7464.84	76.7096	7464.84	73.2834	7464.84	73.9864	7464.84	70.6492	7464.84	70.4404	7464.84	67.3618	7464.84	67.7157	7464.84	65.2928	7464.84	64.7069	7464.84	64.5063	7464.84	63.6077	7464.84	63.084	7464.84	63.8691	7464.84	65.9157	7464.84	64.8587	7464.84	63.8428	7464.84	65.5072	7464.84	58.746	7464.84	61.2812	7464.84	59.3175
7727.05	85.1206	7727.05	84.4767	7727.05	84.4335	7727.05	84.0522	7727.05	84.0205	7727.05	83.7613	7727.05	83.8652	7727.05	83.3023	7727.05	83.4606	7727.05	82.5548	7727.05	82.7149	7727.05	81.5371	7727.05	81.6451	7727.05	79.5936	7727.05	79.9646	7727.05	76.9979	7727.05	77.4809	7727.05	73.9108	7727.05	74.4076	7727.05	71.0205	7727.05	71.118	7727.05	67.2079	7727.05	68.5227	7727.05	64.9799	7727.05	65.5144	7727.05	64.1568	7727.05	63.865	7727.05	63.6294	7727.05	62.845	7727.05	65.8434	7727.05	64.9536	7727.05	65.005	7727.05	65.8344	7727.05	58.0285	7727.05	59.5706	7727.05	59.9076
7999.51	85.8074	7999.51	85.0013	7999.51	85.119	7999.51	84.697	7999.51	84.9259	7999.51	84.5101	7999.51	84.6982	7999.51	83.6533	7999.51	83.9843	7999.51	82.9262	7999.51	83.1259	7999.51	81.9013	7999.51	81.8757	7999.51	80.0471	7999.51	80.0209	7999.51	77.5629	7999.51	77.6821	7999.51	74.2669	7999.51	74.6421	7999.51	71.2375	7999.51	71.5642	7999.51	68.0094	7999.51	68.9835	7999.51	65.2709	7999.51	66.3918	7999.51	62.788	7999.51	62.7758	7999.51	63.2981	7999.51	62.7816	7999.51	65.5967	7999.51	65.2469	7999.51	64.8835	7999.51	66.331	7999.51	57.7348	7999.51	59.8321	7999.51	59.9522
8282.23	86.2171	8282.23	85.6357	8282.23	85.7437	8282.23	85.3958	8282.23	85.6995	8282.23	85.0921	8282.23	85.183	8282.23	83.8612	8282.23	84.2156	8282.23	83.0135	8282.23	83.2834	8282.23	81.9532	8282.23	82.0218	8282.23	79.9133	8282.23	79.9568	8282.23	77.186	8282.23	77.5146	8282.23	74.1893	8282.23	74.5037	8282.23	70.887	8282.23	71.2722	8282.23	68.0666	8282.23	68.0742	8282.23	65.4116	8282.23	66.0446	8282.23	62.659	8282.23	62.9299	8282.23	62.9106	8282.23	62.9631	8282.23	64.7819	8282.23	65.0758	8282.23	65.7279	8282.23	65.8882	8282.23	57.9252	8282.23	60.0673	8282.23	58.3441
8573.73	86.4515	8573.73	86.0347	8573.73	86.1835	8573.73	85.8951	8573.73	86.0728	8573.73	85.2136	8573.73	85.3205	8573.73	83.8225	8573.73	84.0718	8573.73	82.9269	8573.73	83.1332	8573.73	81.9136	8573.73	81.9675	8573.73	79.7179	8573.73	79.8919	8573.73	77.1372	8573.73	77.3113	8573.73	73.6389	8573.73	74.2275	8573.73	70.2335	8573.73	70.9552	8573.73	67.5679	8573.73	67.2768	8573.73	65.3344	8573.73	65.9073	8573.73	62.0498	8573.73	62.0365	8573.73	62.8102	8573.73	63.9076	8573.73	64.3207	8573.73	64.5759	8573.73	63.9827	8573.73	65.4006	8573.73	56.7204	8573.73	58.4423	8573.73	57.7872
8876.95	86.0351	8876.95	85.8427	8876.95	86.0781	8876.95	85.5398	8876.95	85.8865	8876.95	84.6891	8876.95	84.7846	8876.95	83.3822	8876.95	83.5155	8876.95	82.3596	8876.95	82.4666	8876.95	81.294	8876.95	81.3927	8876.95	78.95	8876.95	79.4663	8876.95	76.0693	8876.95	76.929	8876.95	73.1393	8876.95	73.7376	8876.95	69.3549	8876.95	70.0169	8876.95	66.6152	8876.95	67.2765	8876.95	64.1009	8876.95	64.3699	8876.95	60.1076	8876.95	61.5813	8876.95	61.5347	8876.95	63.4684	8876.95	63.8941	8876.95	64.3483	8876.95	62.8351	8876.95	64.5008	8876.95	54.9311	8876.95	57.2402	8876.95	55.4832
9188.96	85.5378	9188.96	85.5037	9188.96	85.6692	9188.96	84.917	9188.96	85.3409	9188.96	83.8842	9188.96	84.0709	9188.96	82.8523	9188.96	82.9126	9188.96	81.66	9188.96	81.4356	9188.96	80.4485	9188.96	80.2781	9188.96	78.0441	9188.96	78.196	9188.96	75.1798	9188.96	75.828	9188.96	72.1811	9188.96	72.3304	9188.96	68.1924	9188.96	68.5374	9188.96	65.3894	9188.96	65.7898	9188.96	62.141	9188.96	62.5638	9188.96	57.6669	9188.96	58.5475	9188.96	60.9053	9188.96	62.6401	9188.96	63.1802	9188.96	63.4886	9188.96	61.6277	9188.96	62.7676	9188.96	51.2909	9188.96	53.3119	9188.96	56.2462
9514.16	85.6482	9514.16	85.9165	9514.16	85.9585	9514.16	85.4378	9514.16	85.7164	9514.16	83.9615	9514.16	84.3911	9514.16	82.6331	9514.16	83.0792	9514.16	80.8955	9514.16	81.1527	9514.16	79.4923	9514.16	79.8039	9514.16	77.1937	9514.16	77.38	9514.16	74.7489	9514.16	75.4538	9514.16	70.9781	9514.16	71.6067	9514.16	67.496	9514.16	68.3579	9514.16	64.7356	9514.16	64.9774	9514.16	61.0825	9514.16	62.025	9514.16	58.0404	9514.16	58.068	9514.16	59.3511	9514.16	60.9638	9514.16	62.6342	9514.16	61.9667	9514.16	60.1002	9514.16	62.2549	9514.16	48.1301	9514.16	54.5368	9514.16	55.09
9849.61	86.4279	9849.61	86.7262	9849.61	86.7299	9849.61	86.071	9849.61	86.3732	9849.61	84.4856	9849.61	84.8641	9849.61	82.5601	9849.61	83.3287	9849.61	80.8951	9849.61	81.5129	9849.61	79.607	9849.61	80.3564	9849.61	77.0976	9849.61	78.0262	9849.61	74.3199	9849.61	75.5899	9849.61	70.5015	9849.61	72.1781	9849.61	66.8306	9849.61	68.4202	9849.61	64.4362	9849.61	64.9441	9849.61	60.7437	9849.61	61.2909	9849.61	56.6256	9849.61	57.8414	9849.61	59.7252	9849.61	61.0969	9849.61	62.2164	9849.61	61.9766	9849.61	60.9831	9849.61	62.5661	9849.61	49.2616	9849.61	54.2308	9849.61	54.0734
10196.8	87.0544	10196.8	87.1923	10196.8	87.3063	10196.8	86.3684	10196.8	86.8357	10196.8	84.5456	10196.8	85.1827	10196.8	82.5795	10196.8	83.5892	10196.8	81.0808	10196.8	81.6354	10196.8	79.6072	10196.8	80.3308	10196.8	76.9357	10196.8	77.9308	10196.8	73.8249	10196.8	75.033	10196.8	70.2233	10196.8	71.4271	10196.8	66.3343	10196.8	67.6401	10196.8	63.5855	10196.8	64.559	10196.8	59.4955	10196.8	60.818	10196.8	56.3184	10196.8	57.199	10196.8	58.2453	10196.8	60.4297	10196.8	60.2962	10196.8	60.852	10196.8	60.5452	10196.8	62.4805	10196.8	48.0856	10196.8	53.2637	10196.8	53.9405
10555.7	87.4286	10555.7	87.1938	10555.7	87.249	10555.7	86.2989	10555.7	86.7673	10555.7	84.6242	10555.7	85.2729	10555.7	82.6498	10555.7	83.6393	10555.7	80.7509	10555.7	81.4197	10555.7	78.8728	10555.7	79.7882	10555.7	76.01	10555.7	77.0221	10555.7	72.5772	10555.7	74.0517	10555.7	69.263	10555.7	70.3935	10555.7	65.5557	10555.7	66.1564	10555.7	62.2485	10555.7	63.8091	10555.7	58.2741	10555.7	60.6288	10555.7	53.9854	10555.7	57.2159	10555.7	56.6522	10555.7	59.327	10555.7	57.6989	10555.7	59.5421	10555.7	60.5693	10555.7	60.4293	10555.7	49.5239	10555.7	52.9375	10555.7	52.0969
10927.7	87.1697	10927.7	86.9111	10927.7	87.1079	10927.7	86.1711	10927.7	86.6259	10927.7	84.7006	10927.7	85.0741	10927.7	82.6665	10927.7	83.2373	10927.7	80.3722	10927.7	80.8888	10927.7	78.0486	10927.7	79.08	10927.7	74.7019	10927.7	75.8311	10927.7	71.5361	10927.7	73.2031	10927.7	67.8635	10927.7	69.5966	10927.7	64.0465	10927.7	65.4436	10927.7	61.2384	10927.7	61.6911	10927.7	56.7167	10927.7	59.8984	10927.7	55.0746	10927.7	55.7414	10927.7	55.2848	10927.7	57.2196	10927.7	57.1358	10927.7	58.2451	10927.7	59.3589	10927.7	58.7013	10927.7	49.9827	10927.7	50.0605	10927.7	48.7681
11313	87.3583	11313	86.6829	11313	87.1342	11313	85.8821	11313	86.4408	11313	84.3551	11313	84.7484	11313	82.2306	11313	82.8407	11313	80.0874	11313	80.2556	11313	77.4314	11313	78.1911	11313	74.0201	11313	74.4986	11313	70.2562	11313	71.7012	11313	66.5828	11313	68.1452	11313	63.429	11313	64.2718	11313	59.6659	11313	60.7589	11313	56.3386	11313	58.496	11313	55.7752	11313	54.5158	11313	52.146	11313	54.1949	11313	56.081	11313	53.0425	11313	58.6966	11313	57.4507	11313	46.8895	11313	48.3559	11313	47.9233
11712.9	87.3793	11712.9	86.6575	11712.9	87.0051	11712.9	86.0177	11712.9	86.2414	11712.9	84.4941	11712.9	84.5943	11712.9	82.1824	11712.9	82.6219	11712.9	79.4273	11712.9	79.5354	11712.9	76.4062	11712.9	77.136	11712.9	73.1798	11712.9	73.552	11712.9	69.5101	11712.9	70.3515	11712.9	66.7977	11712.9	66.696	11712.9	63.8788	11712.9	62.8741	11712.9	60.0573	11712.9	60.1012	11712.9	57.1608	11712.9	58.5772	11712.9	55.6263	11712.9	53.7051	11712.9	51.9518	11712.9	51.8501	11712.9	53.8312	11712.9	50.6941	11712.9	57.972	11712.9	56.0825	11712.9	47.1308	11712.9	47.7893	11712.9	48.4477
12126	87.778	12126	86.8294	12126	87.1978	12126	85.8892	12126	86.4295	12126	84.2931	12126	84.6563	12126	81.9071	12126	82.4315	12126	79.1163	12126	79.0289	12126	76.1369	12126	76.2721	12126	73.1269	12126	72.716	12126	70.0068	12126	69.7485	12126	67.0534	12126	66.21	12126	63.5396	12126	62.4697	12126	60.3002	12126	59.3557	12126	57.2707	12126	57.7265	12126	55.4543	12126	53.5127	12126	51.1787	12126	48.992	12126	51.8864	12126	50.0416	12126	56.5053	12126	53.9719	12126	47.5124	12126	46.4904	12126	46.9776
12553.7	87.6448	12553.7	86.7306	12553.7	87.0849	12553.7	85.8276	12553.7	86.1316	12553.7	84.2818	12553.7	84.4618	12553.7	81.5595	12553.7	82.1266	12553.7	78.6047	12553.7	78.7023	12553.7	75.6825	12553.7	75.7118	12553.7	72.8405	12553.7	72.0027	12553.7	70.2093	12553.7	69.4715	12553.7	67.2215	12553.7	66.2794	12553.7	64.2047	12553.7	62.9535	12553.7	60.3769	12553.7	58.7906	12553.7	57.9723	12553.7	57.5384	12553.7	55.0579	12553.7	54.7439	12553.7	51.727	12553.7	48.137	12553.7	50.3064	12553.7	44.9738	12553.7	56.072	12553.7	52.3118	12553.7	46.7413	12553.7	44.4398	12553.7	44.5821
12996.1	87.6763	12996.1	86.5945	12996.1	87.0684	12996.1	85.575	12996.1	85.824	12996.1	84.03	12996.1	84.2046	12996.1	81.2136	12996.1	81.7218	12996.1	78.2617	12996.1	78.1123	12996.1	75.5518	12996.1	75.1513	12996.1	73.3176	12996.1	72.372	12996.1	71.0312	12996.1	69.9219	12996.1	67.6775	12996.1	67.103	12996.1	64.8854	12996.1	63.4514	12996.1	60.591	12996.1	59.5821	12996.1	58.7432	12996.1	58.237	12996.1	56.4096	12996.1	55.4025	12996.1	52.2274	12996.1	49.333	12996.1	50.0748	12996.1	43.3255	12996.1	55.4155	12996.1	50.8018	12996.1	46.0357	12996.1	47.9294	12996.1	41.861
13454.6	87.6389	13454.6	86.7132	13454.6	87.1692	13454.6	85.3916	13454.6	85.8205	13454.6	84.0796	13454.6	84.3036	13454.6	81.0816	13454.6	81.5051	13454.6	78.3858	13454.6	78.1064	13454.6	75.7889	13454.6	75.3178	13454.6	73.8394	13454.6	73.0533	13454.6	71.5477	13454.6	70.8345	13454.6	68.0818	13454.6	67.9918	13454.6	65.0962	13454.6	64.0127	13454.6	60.9775	13454.6	60.2945	13454.6	58.7149	13454.6	58.7983	13454.6	56.4663	13454.6	55.5524	13454.6	52.3533	13454.6	48.8815	13454.6	50.1865	13454.6	35.8426	13454.6	54.8653	13454.6	50.4116	13454.6	45.938	13454.6	48.8924	13454.6	35.2498
13929.2	87.7586	13929.2	86.6988	13929.2	87.2373	13929.2	85.3992	13929.2	85.715	13929.2	84.2083	13929.2	84.2197	13929.2	81.089	13929.2	81.3293	13929.2	78.2878	13929.2	77.8857	13929.2	76.107	13929.2	75.3482	13929.2	74.0472	13929.2	73.1123	13929.2	71.5513	13929.2	70.7391	13929.2	67.9963	13929.2	67.661	13929.2	64.7242	13929.2	63.4278	13929.2	60.5599	13929.2	59.6441	13929.2	58.8121	13929.2	58.4305	13929.2	56.263	13929.2	54.5855	13929.2	51.3172	13929.2	48.4609	13929.2	48.8343	13929.2	32.7644	13929.2	52.9569	13929.2	47.6198	13929.2	45.523	13929.2	46.6235	13929.2	26.1312
14419.9	88.0388	14419.9	87.271	14419.9	87.6125	14419.9	85.7336	14419.9	85.9967	14419.9	84.4964	14419.9	84.313	14419.9	81.3597	14419.9	81.2629	14419.9	78.32	14419.9	77.3929	14419.9	76.0479	14419.9	75.0388	14419.9	73.4134	14419.9	71.9339	14419.9	70.2081	14419.9	69.0113	14419.9	67.0306	14419.9	66.1012	14419.9	63.434	14419.9	61.4788	14419.9	59.5904	14419.9	58.8013	14419.9	57.886	14419.9	56.1581	14419.9	54.4569	14419.9	50.5441	14419.9	50.0149	14419.9	45.7131	14419.9	48.107	14419.9	42.664	14419.9	49.9854	14419.9	44.4431	14419.9	46.9121	14419.9	46.8265	14419.9	36.4816
14928.2	88.2808	14928.2	87.5408	14928.2	87.9168	14928.2	85.9959	14928.2	86.0609	14928.2	84.5717	14928.2	84.0876	14928.2	81.2699	14928.2	80.9096	14928.2	78.0694	14928.2	76.9012	14928.2	75.2611	14928.2	74.1228	14928.2	71.9609	14928.2	70.4661	14928.2	68.3975	14928.2	67.2064	14928.2	65.4092	14928.2	64.2146	14928.2	61.5343	14928.2	59.3484	14928.2	58.3385	14928.2	57.4873	14928.2	56.1266	14928.2	54.2886	14928.2	52.3003	14928.2	49.2274	14928.2	47.7615	14928.2	39.7132	14928.2	47.1421	14928.2	42.2995	14928.2	46.5344	14928.2	46.6768	14928.2	44.9097	14928.2	40.884	14928.2	40.0263
15455.6	87.9948	15455.6	87.3511	15455.6	87.691	15455.6	85.6395	15455.6	85.8518	15455.6	84.0359	15455.6	83.6727	15455.6	80.4679	15455.6	80.0181	15455.6	76.6726	15455.6	75.6506	15455.6	72.9291	15455.6	71.8455	15455.6	68.9677	15455.6	68.0121	15455.6	65.6355	15455.6	64.8341	15455.6	62.8095	15455.6	62.9208	15455.6	59.1255	15455.6	58.6748	15455.6	56.1072	15455.6	55.7964	15455.6	54.3502	15455.6	52.8006	15455.6	46.0027	15455.6	47.8961	15455.6	39.1456	15455.6	38.348	15455.6	44.6609	15455.6	41.5209	15455.6	48.383	15455.6	40.2845	15455.6	40.2495	15455.6	32.3301	15455.6	33.9414
16000.5	87.3247	16000.5	86.7561	16000.5	87.1704	16000.5	84.9628	16000.5	85.3274	16000.5	83.1068	16000.5	83.0982	16000.5	79.001	16000.5	79.3268	16000.5	74.8055	16000.5	74.6512	16000.5	69.6208	16000.5	69.7021	16000.5	64.718	16000.5	66.1714	16000.5	62.0205	16000.5	63.1125	16000.5	59.5618	16000.5	61.4809	16000.5	55.4866	16000.5	57.3577	16000.5	53.739	16000.5	54.4141	16000.5	51.1306	16000.5	51.5456	16000.5	41.6772	16000.5	46.3961	16000.5	26.8882	16000.5	38.6997	16000.5	40.9198	16000.5	45.2637	16000.5	46.5291	16000.5	40.7276	16000.5	34.1588	16000.5	21.0391	16000.5	37.3568
16564.5	87.0922	16564.5	86.4209	16564.5	86.9938	16564.5	84.4892	16564.5	85.0824	16564.5	82.2947	16564.5	82.6177	16564.5	77.8225	16564.5	78.7053	16564.5	72.4138	16564.5	72.9197	16564.5	65.1189	16564.5	66.2693	16564.5	60.2912	16564.5	62.8221	16564.5	60.0404	16564.5	60.6837	16564.5	58.3577	16564.5	59.938	16564.5	53.6078	16564.5	55.8513	16564.5	52.6756	16564.5	53.1444	16564.5	50.1135	16564.5	48.3915	16564.5	44.2687	16564.5	43.8408	16564.5	37.1682	16564.5	32.4846	16564.5	36.8179	16564.5	44.8912	16564.5	45.6299	16564.5	43.762	16564.5	22.7267	16564.5	28.974	16564.5	35.9403
17148.9	87.132	17148.9	86.3721	17148.9	86.9586	17148.9	84.2771	17148.9	84.8774	17148.9	81.7003	17148.9	82.085	17148.9	76.4394	17148.9	77.4727	17148.9	69.3016	17148.9	70.0715	17148.9	59.9532	17148.9	59.107	17148.9	62.5312	17148.9	62.5467	17148.9	62.9627	17148.9	63.0179	17148.9	60.6505	17148.9	60.8129	17148.9	55.749	17148.9	57.0884	17148.9	54.2518	17148.9	54.7518	17148.9	50.9241	17148.9	48.2812	17148.9	46.2731	17148.9	42.1391	17148.9	43.5108	17148.9	31.7468	17148.9	37.7211	17148.9	46.2962	17148.9	46.2305	17148.9	45.3571	17148.9	34.692	17148.9	31.8576	17148.9	34.8221
17752.4	86.912	17752.4	86.2047	17752.4	86.8144	17752.4	83.8607	17752.4	84.4521	17752.4	81.1229	17752.4	81.1983	17752.4	75.0661	17752.4	75.8422	17752.4	65.7033	17752.4	65.4286	17752.4	63.3285	17752.4	58.127	17752.4	66.7358	17752.4	66.5604	17752.4	66.3374	17752.4	66.1771	17752.4	63.2055	17752.4	63.1342	17752.4	58.4249	17752.4	59.2651	17752.4	56.7654	17752.4	56.4186	17752.4	52.5961	17752.4	51.2797	17752.4	47.0802	17752.4	44.9788	17752.4	43.9027	17752.4	38.3367	17752.4	39.3322	17752.4	48.2226	17752.4	46.6872	17752.4	45.614	17752.4	30.6551	17752.4	34.4733	17752.4	37.8794
18379.4	86.4449	18379.4	85.7947	18379.4	86.2695	18379.4	83.2474	18379.4	83.6517	18379.4	80.2112	18379.4	79.9467	18379.4	73.4135	18379.4	73.8819	18379.4	61.1295	18379.4	57.7679	18379.4	66.2419	18379.4	64.4459	18379.4	68.3709	18379.4	68.3643	18379.4	67.4221	18379.4	67.4264	18379.4	63.8265	18379.4	64.0438	18379.4	59.2642	18379.4	59.6601	18379.4	57.2478	18379.4	57.0476	18379.4	52.9732	18379.4	52.1846	18379.4	46.6479	18379.4	45.9652	18379.4	44.8753	18379.4	37.1663	18379.4	41.0805	18379.4	48.1944	18379.4	45.7606	18379.4	41.0509	18379.4	29.838	18379.4	35.1188	18379.4	40.9259
19026.9	86.0862	19026.9	85.4106	19026.9	85.9577	19026.9	82.4854	19026.9	83.0398	19026.9	79.2077	19026.9	79.0291	19026.9	71.1694	19026.9	71.8264	19026.9	58.6531	19026.9	55.0767	19026.9	67.7801	19026.9	67.211	19026.9	68.9915	19026.9	69.2417	19026.9	67.7766	19026.9	68.0375	19026.9	64.1603	19026.9	64.4703	19026.9	59.6814	19026.9	59.858	19026.9	57.3888	19026.9	57.5795	19026.9	53.3355	19026.9	52.1774	19026.9	46.4022	19026.9	46.3141	19026.9	45.5191	19026.9	37.5899	19026.9	41.2442	19026.9	47.86	19026.9	43.0974	19026.9	34.9253	19026.9	31.0981	19026.9	33.0763	19026.9	42.4881
19697.8	86.1783	19697.8	85.534	19697.8	86.0709	19697.8	82.2186	19697.8	82.6809	19697.8	78.5744	19697.8	78.2043	19697.8	68.8222	19697.8	68.9361	19697.8	63.9969	19697.8	63.3407	19697.8	69.3063	19697.8	69.0969	19697.8	70.1647	19697.8	70.2118	19697.8	68.697	19697.8	68.9668	19697.8	65.058	19697.8	65.1475	19697.8	60.4393	19697.8	60.5497	19697.8	58.1875	19697.8	57.8179	19697.8	53.8174	19697.8	52.5166	19697.8	46.384	19697.8	45.498	19697.8	45.1713	19697.8	40.4344	19697.8	41.3179	19697.8	48.3017	19697.8	38.8291	19697.8	39.7804	19697.8	22.895	19697.8	35.9552	19697.8	42.9218
19999.5	86.506	19999.5	85.716	19999.5	86.0045	19999.5	82.0739	19999.5	82.2297	19999.5	77.9654	19999.5	77.6891	19999.5	67.1104	19999.5	66.4324	19999.5	65.363	19999.5	65.6128	19999.5	69.652	19999.5	70.1081	19999.5	70.6029	19999.5	70.5113	19999.5	69.1644	19999.5	69.7345	19999.5	65.4757	19999.5	65.5705	19999.5	61.2993	19999.5	61.769	19999.5	59.5624	19999.5	58.3449	19999.5	55.2628	19999.5	54.1391	19999.5	48.2646	19999.5	43.8158	19999.5	46.2079	19999.5	40.9412	19999.5	47.3815	19999.5	43.8274	19999.5	44.2727	19999.5	40.3497	19999.5	37.5386	19999.5	46.367	19999.5	38.9057
