"SPL Vertical"
"On-Axis"		"10°"		"-10°"		"20°"		"-20°"		"30°"		"-30°"		"40°"		"-40°"		"50°"		"-50°"		"60°"		"-60°"		"70°"		"-70°"		"80°"		"-80°"		"90°"		"-90°"		"100°"		"-100°"		"110°"		"-110°"		"120°"		"-120°"		"130°"		"-130°"		"140°"		"-140°"		"150°"		"-150°"		"160°"		"-160°"		"170°"		"-170°"		"180°"
"Frequency / Hz"	"Sound Pressure Level / dB (re 20 µPa/V)  [2.83V at 1m]"	"Frequency / Hz"	"Sound Pressure Level / dB (re 20 µPa/V)  [2.83V at 1m]"	"Frequency / Hz"	"Sound Pressure Level / dB (re 20 µPa/V)  [2.83V at 1m]"	"Frequency / Hz"	"Sound Pressure Level / dB (re 20 µPa/V)  [2.83V at 1m]"	"Frequency / Hz"	"Sound Pressure Level / dB (re 20 µPa/V)  [2.83V at 1m]"	"Frequency / Hz"	"Sound Pressure Level / dB (re 20 µPa/V)  [2.83V at 1m]"	"Frequency / Hz"	"Sound Pressure Level / dB (re 20 µPa/V)  [2.83V at 1m]"	"Frequency / Hz"	"Sound Pressure Level / dB (re 20 µPa/V)  [2.83V at 1m]"	"Frequency / Hz"	"Sound Pressure Level / dB (re 20 µPa/V)  [2.83V at 1m]"	"Frequency / Hz"	"Sound Pressure Level / dB (re 20 µPa/V)  [2.83V at 1m]"	"Frequency / Hz"	"Sound Pressure Level / dB (re 20 µPa/V)  [2.83V at 1m]"	"Frequency / Hz"	"Sound Pressure Level / dB (re 20 µPa/V)  [2.83V at 1m]"	"Frequency / Hz"	"Sound Pressure Level / dB (re 20 µPa/V)  [2.83V at 1m]"	"Frequency / Hz"	"Sound Pressure Level / dB (re 20 µPa/V)  [2.83V at 1m]"	"Frequency / Hz"	"Sound Pressure Level / dB (re 20 µPa/V)  [2.83V at 1m]"	"Frequency / Hz"	"Sound Pressure Level / dB (re 20 µPa/V)  [2.83V at 1m]"	"Frequency / Hz"	"Sound Pressure Level / dB (re 20 µPa/V)  [2.83V at 1m]"	"Frequency / Hz"	"Sound Pressure Level / dB (re 20 µPa/V)  [2.83V at 1m]"	"Frequency / Hz"	"Sound Pressure Level / dB (re 20 µPa/V)  [2.83V at 1m]"	"Frequency / Hz"	"Sound Pressure Level / dB (re 20 µPa/V)  [2.83V at 1m]"	"Frequency / Hz"	"Sound Pressure Level / dB (re 20 µPa/V)  [2.83V at 1m]"	"Frequency / Hz"	"Sound Pressure Level / dB (re 20 µPa/V)  [2.83V at 1m]"	"Frequency / Hz"	"Sound Pressure Level / dB (re 20 µPa/V)  [2.83V at 1m]"	"Frequency / Hz"	"Sound Pressure Level / dB (re 20 µPa/V)  [2.83V at 1m]"	"Frequency / Hz"	"Sound Pressure Level / dB (re 20 µPa/V)  [2.83V at 1m]"	"Frequency / Hz"	"Sound Pressure Level / dB (re 20 µPa/V)  [2.83V at 1m]"	"Frequency / Hz"	"Sound Pressure Level / dB (re 20 µPa/V)  [2.83V at 1m]"	"Frequency / Hz"	"Sound Pressure Level / dB (re 20 µPa/V)  [2.83V at 1m]"	"Frequency / Hz"	"Sound Pressure Level / dB (re 20 µPa/V)  [2.83V at 1m]"	"Frequency / Hz"	"Sound Pressure Level / dB (re 20 µPa/V)  [2.83V at 1m]"	"Frequency / Hz"	"Sound Pressure Level / dB (re 20 µPa/V)  [2.83V at 1m]"	"Frequency / Hz"	"Sound Pressure Level / dB (re 20 µPa/V)  [2.83V at 1m]"	"Frequency / Hz"	"Sound Pressure Level / dB (re 20 µPa/V)  [2.83V at 1m]"	"Frequency / Hz"	"Sound Pressure Level / dB (re 20 µPa/V)  [2.83V at 1m]"	"Frequency / Hz"	"Sound Pressure Level / dB (re 20 µPa/V)  [2.83V at 1m]"	"Frequency / Hz"	"Sound Pressure Level / dB (re 20 µPa/V)  [2.83V at 1m]"
20.5078	48.5259	20.5078	47.6036	20.5078	49.1284	20.5078	46.3408	20.5078	49.4248	20.5078	44.7582	20.5078	49.4113	20.5078	43.1059	20.5078	49.0608	20.5078	42.2708	20.5078	48.3167	20.5078	43.2565	20.5078	47.0794	20.5078	45.438	20.5078	45.1947	20.5078	47.7403	20.5078	42.5502	20.5078	49.7748	20.5078	40.1816	20.5078	51.4918	20.5078	41.7385	20.5078	52.9186	20.5078	45.4464	20.5078	54.0879	20.5078	48.6032	20.5078	55.0232	20.5078	51.0168	20.5078	55.7381	20.5078	52.8528	20.5078	56.2375	20.5078	54.2402	20.5078	56.5201	20.5078	55.2618	20.5078	56.5787	20.5078	55.9704	20.5078	56.4012
21.9727	50.756	21.9727	50.0027	21.9727	51.2549	21.9727	49.0101	21.9727	51.4955	21.9727	47.8498	21.9727	51.4695	21.9727	46.7598	21.9727	51.1586	21.9727	46.2629	21.9727	50.5349	21.9727	46.8624	21.9727	49.5705	21.9727	48.3706	21.9727	48.2866	21.9727	50.1938	21.9727	46.9306	21.9727	51.955	21.9727	46.3215	21.9727	53.5212	21.9727	47.3492	21.9727	54.8645	21.9727	49.4688	21.9727	55.9883	21.9727	51.6879	21.9727	56.901	21.9727	53.6121	21.9727	57.6084	21.9727	55.1764	21.9727	58.1115	21.9727	56.4014	21.9727	58.4069	21.9727	57.3197	21.9727	58.4875	21.9727	57.9594	21.9727	58.3429
23.4375	52.7629	23.4375	52.0877	23.4375	53.2255	23.4375	51.2284	23.4375	53.4641	23.4375	50.2668	23.4375	53.4685	23.4375	49.4087	23.4375	53.2249	23.4375	49.0275	23.4375	52.7167	23.4375	49.4634	23.4375	51.9356	23.4375	50.6422	23.4375	50.9215	23.4375	52.1735	23.4375	49.8722	23.4375	53.7347	23.4375	49.3137	23.4375	55.1717	23.4375	49.8731	23.4375	56.4299	23.4375	51.4335	23.4375	57.4952	23.4375	53.3156	23.4375	58.3656	23.4375	55.0753	23.4375	59.0406	23.4375	56.5637	23.4375	59.5179	23.4375	57.756	23.4375	59.7921	23.4375	58.6637	23.4375	59.8554	23.4375	59.3049	23.4375	59.6971
24.9023	53.18	24.9023	52.359	24.9023	53.7311	24.9023	51.2775	24.9023	54.0134	24.9023	50.007	24.9023	54.0211	24.9023	48.8162	24.9023	53.7372	24.9023	48.3246	24.9023	53.1315	24.9023	49.0833	24.9023	52.1677	24.9023	50.769	24.9023	50.8401	24.9023	52.6973	24.9023	49.3333	24.9023	54.5041	24.9023	48.4344	24.9023	56.0835	24.9023	49.2777	24.9023	57.4237	24.9023	51.449	24.9023	58.536	24.9023	53.7807	24.9023	59.4327	24.9023	55.7989	24.9023	60.1213	24.9023	57.4332	24.9023	60.6036	24.9023	58.7113	24.9023	60.8763	24.9023	59.6717	24.9023	60.9322	24.9023	60.3465	24.9023	60.7604
26.3672	55.2147	26.3672	54.6797	26.3672	55.5946	26.3672	54.0497	26.3672	55.7889	26.3672	53.4437	26.3672	55.7801	26.3672	53.062	26.3672	55.5568	26.3672	53.1385	26.3672	55.1183	26.3672	53.7791	26.3672	54.4934	26.3672	54.8623	26.3672	53.7884	26.3672	56.1569	26.3672	53.2649	26.3672	57.4757	26.3672	53.3282	26.3672	58.713	26.3672	54.2032	26.3672	59.8194	26.3672	55.6486	26.3672	60.7732	26.3672	57.2541	26.3672	61.5642	26.3672	58.7571	26.3672	62.1857	26.3672	60.0494	26.3672	62.6309	26.3672	61.0998	26.3672	62.8923	26.3672	61.9069	26.3672	62.9608	26.3672	62.4789	26.3672	62.8265
27.832	57.4106	27.832	56.9363	27.832	57.7516	27.832	56.3775	27.832	57.9327	27.832	55.8248	27.832	57.9388	27.832	55.4268	27.832	57.7621	27.832	55.3671	27.832	57.4057	27.832	55.769	27.832	56.8986	27.832	56.5971	27.832	56.3276	27.832	57.6895	27.832	55.8829	27.832	58.8729	27.832	55.852	27.832	60.0271	27.832	56.4414	27.832	61.085	27.832	57.5595	27.832	62.0118	27.832	58.9144	27.832	62.7893	27.832	60.2555	27.832	63.4057	27.832	61.4477	27.832	63.8518	27.832	62.4356	27.832	64.1183	27.832	63.202	27.832	64.1959	27.832	63.7466	27.832	64.0751
29.2969	57.5639	29.2969	57.0376	29.2969	57.9513	29.2969	56.432	29.2969	58.1703	29.2969	55.8617	29.2969	58.206	29.2969	55.5125	29.2969	58.0526	29.2969	55.5937	29.2969	57.7176	29.2969	56.1985	29.2969	57.2372	29.2969	57.2202	29.2969	56.7106	29.2969	58.4509	29.2969	56.343	29.2969	59.7154	29.2969	56.4214	29.2969	60.91	29.2969	57.118	29.2969	61.9833	29.2969	58.3055	29.2969	62.9113	29.2969	59.6923	29.2969	63.682	29.2969	61.0456	29.2969	64.2876	29.2969	62.2436	29.2969	64.7207	29.2969	63.2369	29.2969	64.9735	29.2969	64.0106	29.2969	65.0377	29.2969	64.5645	29.2969	64.9043
30.7617	59.2525	30.7617	58.9511	30.7617	59.495	30.7617	58.6517	30.7617	59.6413	30.7617	58.4414	30.7617	59.6718	30.7617	58.4227	30.7617	59.5829	30.7617	58.6778	30.7617	59.3904	30.7617	59.226	30.7617	59.1398	30.7617	60.012	30.7617	58.9206	30.7617	60.9398	30.7617	58.8698	30.7617	61.9153	30.7617	59.1314	30.7617	62.8675	30.7617	59.7678	30.7617	63.749	30.7617	60.7067	30.7617	64.5299	30.7617	61.7954	30.7617	65.19	30.7617	62.8891	30.7617	65.7145	30.7617	63.8901	30.7617	66.0911	30.7617	64.7441	30.7617	66.3091	30.7617	65.4246	30.7617	66.3586	30.7617	65.921	30.7617	66.2313
32.2266	62.0582	32.2266	61.8488	32.2266	62.2262	32.2266	61.638	32.2266	62.3262	32.2266	61.4795	32.2266	62.3435	32.2266	61.4352	32.2266	62.2756	32.2266	61.5613	32.2266	62.1349	32.2266	61.8881	32.2266	61.9552	32.2266	62.4064	32.2266	61.7985	32.2266	63.0716	32.2266	61.7553	32.2266	63.822	32.2266	61.9229	32.2266	64.5971	32.2266	62.3586	32.2266	65.3472	32.2266	63.0407	32.2266	66.0343	32.2266	63.8792	32.2266	66.6306	32.2266	64.7645	32.2266	67.1148	32.2266	65.6054	32.2266	67.4701	32.2266	66.3409	32.2266	67.6828	32.2266	66.9354	32.2266	67.7421	32.2266	67.3707	32.2266	67.6396
33.6914	64.0604	33.6914	63.7672	33.6914	64.2826	33.6914	63.4328	33.6914	64.4151	33.6914	63.1017	33.6914	64.4474	33.6914	62.8358	33.6914	64.3767	33.6914	62.7081	33.6914	64.2098	33.6914	62.7846	33.6914	63.9685	33.6914	63.0967	33.6914	63.6975	33.6914	63.6242	33.6914	63.4721	33.6914	64.3053	33.6914	63.3934	33.6914	65.0631	33.6914	63.5568	33.6914	65.8276	33.6914	63.9982	33.6914	66.5447	33.6914	64.6671	33.6914	67.1756	33.6914	65.456	33.6914	67.6925	33.6914	66.2539	33.6914	68.0751	33.6914	66.977	33.6914	68.308	33.6914	67.5725	33.6914	68.3796	33.6914	68.0119	33.6914	68.282
35.1562	62.6137	35.1562	62.212	35.1562	62.9151	35.1562	61.7484	35.1562	63.0955	35.1562	61.2893	35.1562	63.1449	35.1562	60.9364	35.1562	63.0627	35.1562	60.8159	35.1562	62.8594	35.1562	61.0292	35.1562	62.5656	35.1562	61.5908	35.1562	62.2442	35.1562	62.4175	35.1562	62.0029	35.1562	63.3831	35.1562	61.984	35.1562	64.3756	35.1562	62.3034	35.1562	65.318	35.1562	62.9693	35.1562	66.1628	35.1562	63.872	35.1562	66.8817	35.1562	64.8594	35.1562	67.4566	35.1562	65.8067	35.1562	67.8743	35.1562	66.6352	35.1562	68.1243	35.1562	67.3026	35.1562	68.1976	35.1562	67.789	35.1562	68.0873
36.6211	64.1293	36.6211	64.1041	36.6211	64.1934	36.6211	64.1523	36.6211	64.2689	36.6211	64.307	36.6211	64.3395	36.6211	64.5915	36.6211	64.4029	36.6211	65.0108	36.6211	64.4723	36.6211	65.5497	36.6211	64.5763	36.6211	66.178	36.6211	64.7559	36.6211	66.8587	36.6211	65.0536	36.6211	67.5553	36.6211	65.4973	36.6211	68.2362	36.6211	66.0855	36.6211	68.875	36.6211	66.7847	36.6211	69.4504	36.6211	67.5411	36.6211	69.9445	36.6211	68.2971	36.6211	70.3424	36.6211	69.0028	36.6211	70.6308	36.6211	69.6206	36.6211	70.7984	36.6211	70.1248	36.6211	70.8361	36.6211	70.4998	36.6211	70.7375
38.0859	66.7318	38.0859	66.6066	38.0859	66.8424	38.0859	66.4929	38.0859	66.9202	38.0859	66.4227	38.0859	66.9549	38.0859	66.4305	38.0859	66.9452	38.0859	66.5464	38.0859	66.9005	38.0859	66.7885	38.0859	66.8424	38.0859	67.1563	38.0859	66.8069	38.0859	67.6308	38.0859	66.841	38.0859	68.1794	38.0859	66.9935	38.0859	68.764	38.0859	67.2972	38.0859	69.3474	38.0859	67.7524	38.0859	69.8965	38.0859	68.324	38.0859	70.3833	38.0859	68.9545	38.0859	70.7849	38.0859	69.5822	38.0859	71.0824	38.0859	70.1547	38.0859	71.2608	38.0859	70.6334	38.0859	71.309	38.0859	70.9933	38.0859	71.2203
39.5508	67.977	39.5508	67.8726	39.5508	68.076	39.5508	67.7858	39.5508	68.1532	39.5508	67.7439	39.5508	68.1992	39.5508	67.7755	39.5508	68.2129	39.5508	67.9044	39.5508	68.2024	39.5508	68.1441	39.5508	68.1865	39.5508	68.4933	39.5508	68.195	39.5508	68.9356	39.5508	68.2658	39.5508	69.4437	39.5508	68.4365	39.5508	69.9849	39.5508	68.732	39.5508	70.5262	39.5508	69.152	39.5508	71.0377	39.5508	69.669	39.5508	71.4932	39.5508	70.2365	39.5508	71.8705	39.5508	70.8029	39.5508	72.1516	39.5508	71.3218	39.5508	72.3219	39.5508	71.7577	39.5508	72.3709	39.5508	72.086	39.5508	72.2924
41.0156	69.0466	41.0156	68.9522	41.0156	69.1382	41.0156	68.8755	41.0156	69.212	41.0156	68.8411	41.0156	69.2598	41.0156	68.8743	41.0156	69.2807	41.0156	68.9966	41.0156	69.2823	41.0156	69.2207	41.0156	69.2817	41.0156	69.5462	41.0156	69.3055	41.0156	69.9596	41.0156	69.387	41.0156	70.4367	41.0156	69.5588	41.0156	70.9481	41.0156	69.8423	41.0156	71.4628	41.0156	70.2376	41.0156	71.9521	41.0156	70.7209	41.0156	72.3904	41.0156	71.2512	41.0156	72.7557	41.0156	71.7816	41.0156	73.0297	41.0156	72.2689	41.0156	73.1981	41.0156	72.6789	41.0156	73.2501	41.0156	72.9874	41.0156	73.18
42.4805	70.2734	42.4805	70.196	42.4805	70.3524	42.4805	70.1376	42.4805	70.4203	42.4805	70.1187	42.4805	70.47	42.4805	70.1602	42.4805	70.5009	42.4805	70.2798	42.4805	70.5195	42.4805	70.488	42.4805	70.5407	42.4805	70.7851	42.4805	70.5865	42.4805	71.1606	42.4805	70.6839	42.4805	71.5948	42.4805	70.8592	42.4805	72.0626	42.4805	71.129	42.4805	72.5368	42.4805	71.4931	42.4805	72.991	42.4805	71.9322	42.4805	73.4009	42.4805	72.4122	42.4805	73.7452	42.4805	72.893	42.4805	74.0059	42.4805	73.3359	42.4805	74.1686	42.4805	73.7092	42.4805	74.2229	42.4805	73.9899	42.4805	74.1634
43.9453	71.313	43.9453	71.2437	43.9453	71.3856	43.9453	71.1931	43.9453	71.4502	43.9453	71.1793	43.9453	71.5004	43.9453	71.2206	43.9453	71.5355	43.9453	71.3327	43.9453	71.5616	43.9453	71.5252	43.9453	71.5913	43.9453	71.7992	43.9453	71.644	43.9453	72.146	43.9453	71.743	43.9453	72.5488	43.9453	71.9111	43.9453	72.9852	43.9453	72.1632	43.9453	73.4303	43.9453	72.4997	43.9453	73.859	43.9453	72.9047	43.9453	74.248	43.9453	73.3485	43.9453	74.5764	43.9453	73.7949	43.9453	74.8264	43.9453	74.2082	43.9453	74.9835	43.9453	74.5578	43.9453	75.0377	43.9453	74.8212	43.9453	74.9835
45.4102	72.4084	45.4102	72.3532	45.4102	72.4714	45.4102	72.3188	45.4102	72.5325	45.4102	72.3202	45.4102	72.5863	45.4102	72.3724	45.4102	72.6325	45.4102	72.4881	45.4102	72.6759	45.4102	72.6749	45.4102	72.7272	45.4102	72.9335	45.4102	72.8022	45.4102	73.2567	45.4102	72.9195	45.4102	73.6303	45.4102	73.0965	45.4102	74.035	45.4102	73.3442	45.4102	74.4487	45.4102	73.6621	45.4102	74.8491	45.4102	74.0364	45.4102	75.2142	45.4102	74.4423	45.4102	75.5244	45.4102	74.849	45.4102	75.7625	45.4102	75.225	45.4102	75.9146	45.4102	75.5428	45.4102	75.971	45.4102	75.7813	45.4102	75.9263
46.875	73.3595	46.875	73.3093	46.875	73.4189	46.875	73.2797	46.875	73.479	46.875	73.2835	46.875	73.5348	46.875	73.3337	46.875	73.5857	46.875	73.4411	46.875	73.6357	46.875	73.6126	46.875	73.6934	46.875	73.8489	46.875	73.7718	46.875	74.1443	46.875	73.8865	46.875	74.4867	46.875	74.0523	46.875	74.8594	46.875	74.2788	46.875	75.2424	46.875	74.5666	46.875	75.6151	46.875	74.9048	46.875	75.9568	46.875	75.2728	46.875	76.2485	46.875	75.6433	46.875	76.4736	46.875	75.9878	46.875	76.6185	46.875	76.2804	46.875	76.6735	46.875	76.5004	46.875	76.6338
48.3398	74.4784	48.3398	74.4357	48.3398	74.5306	48.3398	74.4116	48.3398	74.5851	48.3398	74.4168	48.3398	74.6374	48.3398	74.4617	48.3398	74.6866	48.3398	74.5552	48.3398	74.7355	48.3398	74.7032	48.3398	74.7908	48.3398	74.907	48.3398	74.8628	48.3398	75.1625	48.3398	74.9643	48.3398	75.4605	48.3398	75.1078	48.3398	75.7874	48.3398	75.3021	48.3398	76.1262	48.3398	75.5492	48.3398	76.4584	48.3398	75.8415	48.3398	76.7652	48.3398	76.1624	48.3398	77.0288	48.3398	76.4889	48.3398	77.233	48.3398	76.7955	48.3398	77.3647	48.3398	77.0582	48.3398	77.4147	48.3398	77.2572	48.3398	77.3785
51.2695	76.0818	51.2695	76.0485	51.2695	76.1264	51.2695	76.0339	51.2695	76.1769	51.2695	76.0465	51.2695	76.2298	51.2695	76.0948	51.2695	76.2849	51.2695	76.1862	51.2695	76.3447	51.2695	76.3257	51.2695	76.415	51.2695	76.5147	51.2695	76.5042	51.2695	76.7503	51.2695	76.6219	51.2695	77.0252	51.2695	76.7775	51.2695	77.328	51.2695	76.9766	51.2695	77.6441	51.2695	77.2192	51.2695	77.9569	51.2695	77.4976	51.2695	78.2493	51.2695	77.7969	51.2695	78.5042	51.2695	78.0967	51.2695	78.7061	51.2695	78.3746	51.2695	78.842	51.2695	78.6091	51.2695	78.9025	51.2695	78.7826	51.2695	78.8825
52.7344	76.8015	52.7344	76.7731	52.7344	76.8449	52.7344	76.7658	52.7344	76.8987	52.7344	76.7865	52.7344	76.96	52.7344	76.8418	52.7344	77.0282	52.7344	76.9375	52.7344	77.1049	52.7344	77.0772	52.7344	77.1945	52.7344	77.2616	52.7344	77.3029	52.7344	77.4879	52.7344	77.4372	52.7344	77.7495	52.7344	77.6038	52.7344	78.0362	52.7344	77.806	52.7344	78.3352	52.7344	78.0425	52.7344	78.6317	52.7344	78.3059	52.7344	78.9099	52.7344	78.5829	52.7344	79.1542	52.7344	78.8558	52.7344	79.3503	52.7344	79.1052	52.7344	79.4859	52.7344	79.3126	52.7344	79.5521	52.7344	79.4626	52.7344	79.5443
54.1992	77.4335	54.1992	77.4108	54.1992	77.4728	54.1992	77.4095	54.1992	77.5248	54.1992	77.435	54.1992	77.5871	54.1992	77.4926	54.1992	77.6591	54.1992	77.5867	54.1992	77.7418	54.1992	77.7201	54.1992	77.8383	54.1992	77.893	54.1992	77.9527	54.1992	78.103	54.1992	78.0901	54.1992	78.3443	54.1992	78.2544	54.1992	78.6083	54.1992	78.4477	54.1992	78.8836	54.1992	78.6681	54.1992	79.1571	54.1992	78.9091	54.1992	79.4146	54.1992	79.1594	54.1992	79.6416	54.1992	79.4044	54.1992	79.8249	54.1992	79.6273	54.1992	79.9531	54.1992	79.8119	54.1992	80.0179	54.1992	79.9445	54.1992	80.0149
55.6641	78.1417	55.6641	78.1227	55.6641	78.1771	55.6641	78.1239	55.6641	78.2258	55.6641	78.1496	55.6641	78.2857	55.6641	78.204	55.6641	78.3561	55.6641	78.2906	55.6641	78.4374	55.6641	78.4115	55.6641	78.5317	55.6641	78.5672	55.6641	78.6419	55.6641	78.7558	55.6641	78.7714	55.6641	78.9725	55.6641	78.9233	55.6641	79.2101	55.6641	79.0988	55.6641	79.4589	55.6641	79.2966	55.6641	79.7071	55.6641	79.5115	55.6641	79.942	55.6641	79.7344	55.6641	80.1501	55.6641	79.9526	55.6641	80.319	55.6641	80.1517	55.6641	80.4379	55.6641	80.3171	55.6641	80.4989	55.6641	80.4357	55.6641	80.498
58.5938	79.2364	58.5938	79.2207	58.5938	79.2691	58.5938	79.2247	58.5938	79.3166	58.5938	79.2511	58.5938	79.3774	58.5938	79.3026	58.5938	79.4506	58.5938	79.3815	58.5938	79.5359	58.5938	79.489	58.5938	79.6339	58.5938	79.6255	58.5938	79.7457	58.5938	79.7893	58.5938	79.8729	58.5938	79.9771	58.5938	80.0165	58.5938	80.1831	58.5938	80.1768	58.5938	80.3998	58.5938	80.352	58.5938	80.6175	58.5938	80.5378	58.5938	80.8255	58.5938	80.7271	58.5938	81.012	58.5938	80.91	58.5938	81.1661	58.5938	81.0749	58.5938	81.2778	58.5938	81.2097	58.5938	81.3399	58.5938	81.3036	58.5938	81.3484
60.0586	79.7551	60.0586	79.7415	60.0586	79.7862	60.0586	79.7474	60.0586	79.8332	60.0586	79.7748	60.0586	79.8946	60.0586	79.8257	60.0586	79.9694	60.0586	79.9016	60.0586	80.0571	60.0586	80.0035	60.0586	80.1575	60.0586	80.1312	60.0586	80.2709	60.0586	80.2835	60.0586	80.3978	60.0586	80.4572	60.0586	80.5384	60.0586	80.6476	60.0586	80.692	60.0586	80.8481	60.0586	80.8568	60.0586	81.0501	60.0586	81.0289	60.0586	81.244	60.0586	81.2018	60.0586	81.4191	60.0586	81.3671	60.0586	81.5653	60.0586	81.5144	60.0586	81.6732	60.0586	81.6333	60.0586	81.7358	60.0586	81.714	60.0586	81.7495
62.9883	80.654	62.9883	80.6411	62.9883	80.6841	62.9883	80.6464	62.9883	80.7305	62.9883	80.6708	62.9883	80.7921	62.9883	80.715	62.9883	80.8678	62.9883	80.7798	62.9883	80.9564	62.9883	80.8654	62.9883	81.057	62.9883	80.9717	62.9883	81.1683	62.9883	81.0976	62.9883	81.2892	62.9883	81.2412	62.9883	81.4185	62.9883	81.3992	62.9883	81.5547	62.9883	81.5667	62.9883	81.6956	62.9883	81.7373	62.9883	81.8378	62.9883	81.9033	62.9883	81.9765	62.9883	82.0561	62.9883	82.1057	62.9883	82.1868	62.9883	82.2176	62.9883	82.2874	62.9883	82.3045	62.9883	82.3516	62.9883	82.359	62.9883	82.3756
64.4531	80.9852	64.4531	80.9736	64.4531	81.0141	64.4531	80.9796	64.4531	81.0596	64.4531	81.0038	64.4531	81.1207	64.4531	81.0465	64.4531	81.1963	64.4531	81.1077	64.4531	81.2851	64.4531	81.1876	64.4531	81.3856	64.4531	81.2859	64.4531	81.4961	64.4531	81.4015	64.4531	81.6147	64.4531	81.533	64.4531	81.7398	64.4531	81.6774	64.4531	81.8692	64.4531	81.8308	64.4531	82.0007	64.4531	81.9876	64.4531	82.131	64.4531	82.1411	64.4531	82.2561	64.4531	82.2835	64.4531	82.3705	64.4531	82.4067	64.4531	82.468	64.4531	82.5032	64.4531	82.5418	64.4531	82.5672	64.4531	82.5857	64.4531	82.5949
67.3828	81.5907	67.3828	81.5782	67.3828	81.6205	67.3828	81.5827	67.3828	81.6672	67.3828	81.604	67.3828	81.7302	67.3828	81.6415	67.3828	81.8083	67.3828	81.6948	67.3828	81.8996	67.3828	81.7634	67.3828	82.0017	67.3828	81.8467	67.3828	82.1121	67.3828	81.9441	67.3828	82.2278	67.3828	82.0544	67.3828	82.3459	67.3828	82.1757	67.3828	82.4637	67.3828	82.3053	67.3828	82.5783	67.3828	82.4392	67.3828	82.6871	67.3828	82.5723	67.3828	82.7868	67.3828	82.6983	67.3828	82.8736	67.3828	82.8106	67.3828	82.9434	67.3828	82.9026	67.3828	82.9915	67.3828	82.9691	67.3828	83.0135	67.3828	83.0064
68.8477	81.8219	68.8477	81.8097	68.8477	81.8516	68.8477	81.8145	68.8477	81.8986	68.8477	81.8355	68.8477	81.9624	68.8477	81.8719	68.8477	82.0418	68.8477	81.9229	68.8477	82.1345	68.8477	81.9877	68.8477	82.2381	68.8477	82.0656	68.8477	82.3492	68.8477	82.1558	68.8477	82.4644	68.8477	82.2574	68.8477	82.5805	68.8477	82.3689	68.8477	82.694	68.8477	82.4882	68.8477	82.8022	68.8477	82.6118	68.8477	82.9023	68.8477	82.7355	68.8477	82.9914	68.8477	82.8538	68.8477	83.0665	68.8477	82.9607	68.8477	83.1242	68.8477	83.0503	68.8477	83.1609	68.8477	83.1176	68.8477	83.1733	68.8477	83.1591
71.7773	82.3524	71.7773	82.3411	71.7773	82.3812	71.7773	82.3464	71.7773	82.428	71.7773	82.3668	71.7773	82.4923	71.7773	82.4008	71.7773	82.5728	71.7773	82.447	71.7773	82.667	71.7773	82.5041	71.7773	82.7717	71.7773	82.571	71.7773	82.8829	71.7773	82.6469	71.7773	82.9963	71.7773	82.7313	71.7773	83.1075	71.7773	82.8234	71.7773	83.2126	71.7773	82.9219	71.7773	83.3082	71.7773	83.0249	71.7773	83.3916	71.7773	83.1296	71.7773	83.4607	71.7773	83.2321	71.7773	83.5135	71.7773	83.3279	71.7773	83.5482	71.7773	83.4121	71.7773	83.5633	71.7773	83.4805	71.7773	83.5573	71.7773	83.5295
74.707	82.775	74.707	82.7642	74.707	82.8032	74.707	82.7693	74.707	82.8497	74.707	82.7885	74.707	82.914	74.707	82.8195	74.707	82.9948	74.707	82.8605	74.707	83.0893	74.707	82.9096	74.707	83.1939	74.707	82.9656	74.707	83.304	74.707	83.0277	74.707	83.4143	74.707	83.0955	74.707	83.52	74.707	83.1688	74.707	83.6164	74.707	83.2473	74.707	83.6997	74.707	83.3304	74.707	83.7672	74.707	83.4165	74.707	83.8172	74.707	83.5036	74.707	83.849	74.707	83.5883	74.707	83.8621	74.707	83.6672	74.707	83.8567	74.707	83.7364	74.707	83.8332	74.707	83.7925
77.6367	82.9832	77.6367	82.9727	77.6367	83.011	77.6367	82.9776	77.6367	83.0571	77.6367	82.9955	77.6367	83.1213	77.6367	83.0239	77.6367	83.2022	77.6367	83.0601	77.6367	83.2968	77.6367	83.1023	77.6367	83.4011	77.6367	83.1488	77.6367	83.51	77.6367	83.1987	77.6367	83.6177	77.6367	83.2519	77.6367	83.7185	77.6367	83.3086	77.6367	83.8073	77.6367	83.3693	77.6367	83.8799	77.6367	83.4345	77.6367	83.9336	77.6367	83.504	77.6367	83.967	77.6367	83.577	77.6367	83.9801	77.6367	83.6518	77.6367	83.9739	77.6367	83.7257	77.6367	83.9501	77.6367	83.7956	77.6367	83.9108	77.6367	83.8583
79.1016	83.0937	79.1016	83.083	79.1016	83.1217	79.1016	83.0874	79.1016	83.1678	79.1016	83.1044	79.1016	83.2322	79.1016	83.1312	79.1016	83.3132	79.1016	83.165	79.1016	83.408	79.1016	83.2038	79.1016	83.5121	79.1016	83.2457	79.1016	83.6202	79.1016	83.2899	79.1016	83.7265	79.1016	83.3363	79.1016	83.8248	79.1016	83.3854	79.1016	83.9099	79.1016	83.4379	79.1016	83.9774	79.1016	83.4948	79.1016	84.0245	79.1016	83.5566	79.1016	84.05	79.1016	83.6232	79.1016	84.0543	79.1016	83.6933	79.1016	84.0389	79.1016	83.765	79.1016	84.0064	79.1016	83.8354	79.1016	83.9595	79.1016	83.9014
82.0312	83.4018	82.0312	83.3905	82.0312	83.4301	82.0312	83.3938	82.0312	83.4767	82.0312	83.4089	82.0312	83.5414	82.0312	83.4326	82.0312	83.6228	82.0312	83.4619	82.0312	83.7176	82.0312	83.4942	82.0312	83.8213	82.0312	83.5276	82.0312	83.9282	82.0312	83.5611	82.0312	84.0319	82.0312	83.5948	82.0312	84.1257	82.0312	83.6293	82.0312	84.204	82.0312	83.6663	82.0312	84.2619	82.0312	83.7075	82.0312	84.2967	82.0312	83.7546	82.0312	84.3074	82.0312	83.8087	82.0312	84.295	82.0312	83.8701	82.0312	84.2621	82.0312	83.9377	82.0312	84.2126	82.0312	84.0093	82.0312	84.1509	82.0312	84.0817
84.9609	83.62	84.9609	83.609	84.9609	83.6476	84.9609	83.6121	84.9609	83.6932	84.9609	83.6259	84.9609	83.7569	84.9609	83.6471	84.9609	83.8372	84.9609	83.6723	84.9609	83.9309	84.9609	83.6985	84.9609	84.0332	84.9609	83.7238	84.9609	84.1381	84.9609	83.747	84.9609	84.2389	84.9609	83.7683	84.9609	84.3286	84.9609	83.7887	84.9609	84.4008	84.9609	83.8105	84.9609	84.4507	84.9609	83.8363	84.9609	84.475	84.9609	83.869	84.9609	84.4729	84.9609	83.9111	84.9609	84.446	84.9609	83.964	84.9609	84.3977	84.9609	84.0275	84.9609	84.333	84.9609	84.1001	84.9609	84.2579	84.9609	84.1784
87.8906	83.7146	87.8906	83.6996	87.8906	83.746	87.8906	83.6983	87.8906	83.7951	87.8906	83.7074	87.8906	83.862	87.8906	83.7232	87.8906	83.9452	87.8906	83.7422	87.8906	84.0411	87.8906	83.7614	87.8906	84.145	87.8906	83.7785	87.8906	84.2506	87.8906	83.7924	87.8906	84.3508	87.8906	83.8033	87.8906	84.4384	87.8906	83.8127	87.8906	84.5065	87.8906	83.8232	87.8906	84.5499	87.8906	83.8384	87.8906	84.5651	87.8906	83.8621	87.8906	84.5513	87.8906	83.8977	87.8906	84.5102	87.8906	83.9477	87.8906	84.4459	87.8906	84.0128	87.8906	84.3646	87.8906	84.0914	87.8906	84.2735	87.8906	84.1802
90.8203	83.9479	90.8203	83.9282	90.8203	83.9833	90.8203	83.9218	90.8203	84.036	90.8203	83.9252	90.8203	84.1058	90.8203	83.9348	90.8203	84.191	90.8203	83.9469	90.8203	84.2883	90.8203	83.9584	90.8203	84.3926	90.8203	83.967	90.8203	84.4973	90.8203	83.9715	90.8203	84.595	90.8203	83.9722	90.8203	84.6782	90.8203	83.9707	90.8203	84.7398	90.8203	83.9702	90.8203	84.7741	90.8203	83.9746	90.8203	84.7777	90.8203	83.9886	90.8203	84.7499	90.8203	84.0166	90.8203	84.693	90.8203	84.0618	90.8203	84.6121	90.8203	84.1258	90.8203	84.5146	90.8203	84.2078	90.8203	84.409	90.8203	84.3041
95.2148	84.0837	95.2148	84.0658	95.2148	84.1167	95.2148	84.0602	95.2148	84.1665	95.2148	84.0633	95.2148	84.2331	95.2148	84.0711	95.2148	84.315	95.2148	84.0797	95.2148	84.4089	95.2148	84.0856	95.2148	84.5095	95.2148	84.0864	95.2148	84.6104	95.2148	84.0806	95.2148	84.7039	95.2148	84.0685	95.2148	84.7818	95.2148	84.052	95.2148	84.8367	95.2148	84.0347	95.2148	84.8624	95.2148	84.0215	95.2148	84.8552	95.2148	84.0182	95.2148	84.8144	95.2148	84.0306	95.2148	84.7426	95.2148	84.0636	95.2148	84.646	95.2148	84.1202	95.2148	84.5332	95.2148	84.2003	95.2148	84.4147	95.2148	84.3007
98.1445	84.1527	98.1445	84.1346	98.1445	84.1852	98.1445	84.128	98.1445	84.2336	98.1445	84.1293	98.1445	84.2983	98.1445	84.1342	98.1445	84.3776	98.1445	84.1389	98.1445	84.4682	98.1445	84.1395	98.1445	84.565	98.1445	84.1335	98.1445	84.6615	98.1445	84.1194	98.1445	84.7499	98.1445	84.0975	98.1445	84.8221	98.1445	84.0699	98.1445	84.8702	98.1445	84.0403	98.1445	84.888	98.1445	84.0145	98.1445	84.8717	98.1445	83.9988	98.1445	84.8205	98.1445	84.0004	98.1445	84.7377	98.1445	84.0249	98.1445	84.6297	98.1445	84.0764	98.1445	84.5062	98.1445	84.1553	98.1445	84.3786	98.1445	84.2583
101.074	84.204	101.074	84.1853	101.074	84.2361	101.074	84.1772	101.074	84.2833	101.074	84.176	101.074	84.3457	101.074	84.1774	101.074	84.4221	101.074	84.1774	101.074	84.5091	101.074	84.1722	101.074	84.6019	101.074	84.159	101.074	84.6939	101.074	84.1365	101.074	84.7775	101.074	84.1049	101.074	84.8443	101.074	84.0664	101.074	84.8863	101.074	84.0253	101.074	84.8972	101.074	83.9877	101.074	84.8726	101.074	83.9609	101.074	84.8121	101.074	83.9527	101.074	84.7188	101.074	83.9699	101.074	84.6	101.074	84.0173	101.074	84.466	101.074	84.0958	101.074	84.3293	101.074	84.2023
105.469	84.3249	105.469	84.3034	105.469	84.3587	105.469	84.2914	105.469	84.4062	105.469	84.2852	105.469	84.4676	105.469	84.2807	105.469	84.5413	105.469	84.2736	105.469	84.6243	105.469	84.2601	105.469	84.7116	105.469	84.2374	105.469	84.7969	105.469	84.2038	105.469	84.8724	105.469	84.1598	105.469	84.93	105.469	84.1077	105.469	84.9618	105.469	84.0522	105.469	84.9613	105.469	84.0001	105.469	84.9243	105.469	83.9596	105.469	84.8504	105.469	83.9397	105.469	84.7432	105.469	83.9482	105.469	84.6104	105.469	83.9908	105.469	84.4632	105.469	84.0691	105.469	84.3152	105.469	84.1799
108.398	84.3247	108.398	84.3028	108.398	84.3589	108.398	84.2906	108.398	84.4072	108.398	84.2844	108.398	84.4694	108.398	84.2798	108.398	84.5443	108.398	84.2725	108.398	84.6285	108.398	84.2585	108.398	84.7172	108.398	84.2348	108.398	84.8038	108.398	84.1998	108.398	84.8807	108.398	84.1536	108.398	84.9393	108.398	84.0988	108.398	84.9715	108.398	84.0402	108.398	84.9705	108.398	83.9846	108.398	84.932	108.398	83.9409	108.398	84.8554	108.398	83.9184	108.398	84.7443	108.398	83.9253	108.398	84.6067	108.398	83.9678	108.398	84.4544	108.398	84.0477	108.398	84.3013	108.398	84.1616
112.793	84.285	112.793	84.2631	112.793	84.3193	112.793	84.2508	112.793	84.3673	112.793	84.2443	112.793	84.4294	112.793	84.2394	112.793	84.5042	112.793	84.2316	112.793	84.5886	112.793	84.2167	112.793	84.6779	112.793	84.1916	112.793	84.7658	112.793	84.1544	112.793	84.8444	112.793	84.1054	112.793	84.905	112.793	84.047	112.793	84.9389	112.793	83.9841	112.793	84.9389	112.793	83.9241	112.793	84.9001	112.793	83.8762	112.793	84.8214	112.793	83.8503	112.793	84.7064	112.793	83.8554	112.793	84.5634	112.793	83.8981	112.793	84.4045	112.793	83.9803	112.793	84.2445	112.793	84.0988
117.188	84.2176	117.188	84.1963	117.188	84.2498	117.188	84.1834	117.188	84.2944	117.188	84.1754	117.188	84.3515	117.188	84.168	117.188	84.42	117.188	84.1566	117.188	84.4973	117.188	84.1372	117.188	84.5791	117.188	84.1063	117.188	84.6596	117.188	84.062	117.188	84.7313	117.188	84.0045	117.188	84.7858	117.188	83.9364	117.188	84.8141	117.188	83.8628	117.188	84.8086	117.188	83.7916	117.188	84.7643	117.188	83.7325	117.188	84.6796	117.188	83.6964	117.188	84.558	117.188	83.6931	117.188	84.4081	117.188	83.73	117.188	84.2427	117.188	83.8096	117.188	84.0775	117.188	83.9285
120.117	84.2929	120.117	84.2625	120.117	84.3327	120.117	84.2394	120.117	84.3828	120.117	84.2208	120.117	84.4428	120.117	84.2029	120.117	84.5116	120.117	84.1815	120.117	84.5867	120.117	84.1527	120.117	84.6642	120.117	84.1132	120.117	84.7389	120.117	84.0611	120.117	84.804	120.117	83.9966	120.117	84.8514	120.117	83.9224	120.117	84.8729	120.117	83.8438	120.117	84.8609	120.117	83.7688	120.117	84.81	120.117	83.7077	120.117	84.7186	120.117	83.6715	120.117	84.5899	120.117	83.6704	120.117	84.4321	120.117	83.7119	120.117	84.2579	120.117	83.7981	120.117	84.0835	120.117	83.9253
124.512	84.4333	124.512	84.3982	124.512	84.4771	124.512	84.3696	124.512	84.5303	124.512	84.3448	124.512	84.5928	124.512	84.3203	124.512	84.6636	124.512	84.292	124.512	84.7402	124.512	84.2562	124.512	84.8189	124.512	84.2099	124.512	84.8943	124.512	84.1515	124.512	84.9596	124.512	84.0814	124.512	85.0065	124.512	84.0026	124.512	85.0265	124.512	83.9207	124.512	85.0117	124.512	83.844	124.512	84.9569	124.512	83.7829	124.512	84.8603	124.512	83.7486	124.512	84.7251	124.512	83.7514	124.512	84.5597	124.512	83.7985	124.512	84.3772	124.512	83.8918	124.512	84.194	124.512	84.0272
128.906	84.4	128.906	84.3703	128.906	84.4372	128.906	84.3462	128.906	84.483	128.906	84.3247	128.906	84.5377	128.906	84.3022	128.906	84.6004	128.906	84.2747	128.906	84.6695	128.906	84.2384	128.906	84.7415	128.906	84.1903	128.906	84.8118	128.906	84.1287	128.906	84.8735	128.906	84.0541	128.906	84.9184	128.906	83.9696	128.906	84.9375	128.906	83.8812	128.906	84.9227	128.906	83.7972	128.906	84.868	128.906	83.7286	128.906	84.7716	128.906	83.6869	128.906	84.6364	128.906	83.6826	128.906	84.4711	128.906	83.7234	128.906	84.2891	128.906	83.8116	128.906	84.1073	128.906	83.943
133.301	84.3897	133.301	84.3563	133.301	84.4288	133.301	84.3268	133.301	84.4741	133.301	84.2985	133.301	84.5256	133.301	84.2681	133.301	84.5823	133.301	84.2314	133.301	84.6425	133.301	84.1845	133.301	84.7032	133.301	84.1243	133.301	84.7601	133.301	84.0491	133.301	84.8068	133.301	83.9594	133.301	84.8357	133.301	83.8584	133.301	84.8384	133.301	83.7524	133.301	84.8067	133.301	83.6506	133.301	84.7352	133.301	83.5646	133.301	84.6221	133.301	83.507	133.301	84.4709	133.301	83.4897	133.301	84.2909	133.301	83.5212	133.301	84.0965	133.301	83.6046	133.301	83.9055	133.301	83.7362
139.16	84.2466	139.16	84.2116	139.16	84.2882	139.16	84.1815	139.16	84.3369	139.16	84.1539	139.16	84.3923	139.16	84.125	139.16	84.4534	139.16	84.0906	139.16	84.5185	139.16	84.0464	139.16	84.5844	139.16	83.9889	139.16	84.6466	139.16	83.9159	139.16	84.6986	139.16	83.8279	139.16	84.7322	139.16	83.7278	139.16	84.7384	139.16	83.6221	139.16	84.7088	139.16	83.5202	139.16	84.6375	139.16	83.4339	139.16	84.5225	139.16	83.3763	139.16	84.3679	139.16	83.3594	139.16	84.1831	139.16	83.3922	139.16	83.9834	139.16	83.4781	139.16	83.7871	139.16	83.6133
143.555	84.1678	143.555	84.1299	143.555	84.211	143.555	84.0962	143.555	84.2595	143.555	84.0646	143.555	84.3131	143.555	84.0318	143.555	84.3708	143.555	83.9938	143.555	84.4314	143.555	83.9464	143.555	84.4924	143.555	83.8861	143.555	84.55	143.555	83.8106	143.555	84.5984	143.555	83.7202	143.555	84.6297	143.555	83.618	143.555	84.6348	143.555	83.5104	143.555	84.605	143.555	83.4069	143.555	84.534	143.555	83.3197	143.555	84.4193	143.555	83.2618	143.555	84.2644	143.555	83.2454	143.555	84.0788	143.555	83.2792	143.555	83.8777	143.555	83.3667	143.555	83.6796	143.555	83.5038
147.949	84.1761	147.949	84.1304	147.949	84.225	147.949	84.0878	147.949	84.2768	147.949	84.0468	147.949	84.3312	147.949	84.0051	147.949	84.3874	147.949	83.9593	147.949	84.4447	147.949	83.9058	147.949	84.5018	147.949	83.8412	147.949	84.5558	147.949	83.7638	147.949	84.6018	147.949	83.6738	147.949	84.6326	147.949	83.5744	147.949	84.6392	147.949	83.472	147.949	84.6129	147.949	83.3759	147.949	84.5465	147.949	83.2979	147.949	84.4371	147.949	83.2504	147.949	84.2871	147.949	83.2447	147.949	84.1053	147.949	83.2887	147.949	83.906	147.949	83.3846	147.949	83.7072	147.949	83.5279
153.809	84.2742	153.809	84.226	153.809	84.3222	153.809	84.1773	153.809	84.3698	153.809	84.1267	153.809	84.4165	153.809	84.0719	153.809	84.4618	153.809	84.0097	153.809	84.5051	153.809	83.9371	153.809	84.5454	153.809	83.8513	153.809	84.5804	153.809	83.7515	153.809	84.6058	153.809	83.6387	153.809	84.6154	153.809	83.5174	153.809	84.6013	153.809	83.3947	153.809	84.5551	153.809	83.2811	153.809	84.4707	153.809	83.1888	153.809	84.3452	153.809	83.1305	153.809	84.1816	153.809	83.1174	153.809	83.9889	153.809	83.157	153.809	83.7814	153.809	83.2511	153.809	83.5771	153.809	83.3949
159.668	84.0574	159.668	84.0067	159.668	84.1113	159.668	83.9591	159.668	84.1677	159.668	83.9129	159.668	84.2253	159.668	83.8651	159.668	84.2828	159.668	83.8113	159.668	84.3385	159.668	83.7468	159.668	84.3904	159.668	83.6675	159.668	84.4348	159.668	83.5707	159.668	84.4662	159.668	83.4568	159.668	84.4771	159.668	83.3294	159.668	84.4584	159.668	83.1959	159.668	84.4015	159.668	83.0671	159.668	84.3004	159.668	82.9569	159.668	84.1534	159.668	82.8797	159.668	83.9655	159.668	82.8492	159.668	83.7481	159.668	82.8753	159.668	83.5187	159.668	82.9623	159.668	83.298	159.668	83.1068
165.527	83.7988	165.527	83.7419	165.527	83.8563	165.527	83.6865	165.527	83.9132	165.527	83.6322	165.527	83.9686	165.527	83.5773	165.527	84.0222	165.527	83.5185	165.527	84.0741	165.527	83.4519	165.527	84.124	165.527	83.3735	165.527	84.1699	165.527	83.2808	165.527	84.207	165.527	83.1739	165.527	84.2273	165.527	83.0561	165.527	84.2207	165.527	82.9344	165.527	84.1767	165.527	82.819	165.527	84.0877	165.527	82.7227	165.527	83.951	165.527	82.6593	165.527	83.7708	165.527	82.6411	165.527	83.5588	165.527	82.6772	165.527	83.3325	165.527	82.7713	165.527	83.1127	165.527	82.92
171.387	83.7779	171.387	83.689	171.387	83.8603	171.387	83.596	171.387	83.9336	171.387	83.5002	171.387	83.9959	171.387	83.4014	171.387	84.0462	171.387	83.298	171.387	84.085	171.387	83.1872	171.387	84.113	171.387	83.0665	171.387	84.1305	171.387	82.9343	171.387	84.136	171.387	82.7918	171.387	84.1247	171.387	82.6435	171.387	84.0892	171.387	82.4981	171.387	84.0205	171.387	82.3675	171.387	83.9102	171.387	82.2661	171.387	83.7541	171.387	82.2088	171.387	83.5538	171.387	82.2077	171.387	83.3185	171.387	82.2705	171.387	83.0642	171.387	82.3979	171.387	82.8117	171.387	82.583
177.246	83.8634	177.246	83.7917	177.246	83.93	177.246	83.7163	177.246	83.9904	177.246	83.6374	177.246	84.0439	177.246	83.5541	177.246	84.0908	177.246	83.4641	177.246	84.132	177.246	83.3647	177.246	84.1683	177.246	83.2531	177.246	84.1986	177.246	83.1284	177.246	84.2194	177.246	82.9919	177.246	84.2239	177.246	82.8489	177.246	84.2025	177.246	82.7081	177.246	84.1454	177.246	82.5815	177.246	84.0444	177.246	82.483	177.246	83.8963	177.246	82.4268	177.246	83.7041	177.246	82.4244	177.246	83.4782	177.246	82.4827	177.246	83.2348	177.246	82.6025	177.246	82.9943	177.246	82.7774
183.105	83.8195	183.105	83.7449	183.105	83.8845	183.105	83.6629	183.105	83.938	183.105	83.5747	183.105	83.9791	183.105	83.4801	183.105	84.0085	183.105	83.3775	183.105	84.0283	183.105	83.2643	183.105	84.0407	183.105	83.1381	183.105	84.0472	183.105	82.998	183.105	84.0462	183.105	82.8457	183.105	84.0323	183.105	82.6868	183.105	83.9966	183.105	82.5309	183.105	83.9287	183.105	82.3905	183.105	83.8198	183.105	82.2805	183.105	83.6655	183.105	82.2147	183.105	83.4686	183.105	82.2046	183.105	83.2394	183.105	82.2565	183.105	82.9947	183.105	82.3707	183.105	82.755	183.105	82.5411
188.965	83.8461	188.965	83.7728	188.965	83.9098	188.965	83.6921	188.965	83.9615	188.965	83.6058	188.965	84.0003	188.965	83.5137	188.965	84.0267	188.965	83.4141	188.965	84.0431	188.965	83.3041	188.965	84.0525	188.965	83.1811	188.965	84.0567	188.965	83.0438	188.965	84.0549	188.965	82.8938	188.965	84.042	188.965	82.7366	188.965	84.0092	188.965	82.5818	188.965	83.9457	188.965	82.4423	188.965	83.8421	188.965	82.3328	188.965	83.6938	188.965	82.2676	188.965	83.5028	188.965	82.2577	188.965	83.279	188.965	82.3095	188.965	83.039	188.965	82.423	188.965	82.803	188.965	82.5917
196.289	83.6848	196.289	83.602	196.289	83.7553	196.289	83.5101	196.289	83.8106	196.289	83.4123	196.289	83.8501	196.289	83.3102	196.289	83.8752	196.289	83.2035	196.289	83.8897	196.289	83.091	196.289	83.8987	196.289	82.971	196.289	83.9059	196.289	82.8431	196.289	83.9121	196.289	82.7094	196.289	83.9134	196.289	82.5755	196.289	83.9013	196.289	82.4509	196.289	83.8642	196.289	82.3474	196.289	83.7915	196.289	82.2779	196.289	83.6764	196.289	82.2538	196.289	83.5186	196.289	82.2824	196.289	83.3251	196.289	82.3662	196.289	83.1091	196.289	82.5016	196.289	82.888	196.289	82.6799
203.613	83.6978	203.613	83.6127	203.613	83.7616	203.613	83.51	203.613	83.8012	203.613	83.3934	203.613	83.8157	203.613	83.2653	203.613	83.8074	203.613	83.1264	203.613	83.7814	203.613	82.9767	203.613	83.7446	203.613	82.8159	203.613	83.7037	203.613	82.6454	203.613	83.6625	203.613	82.4697	203.613	83.6198	203.613	82.2967	203.613	83.5691	203.613	82.1382	203.613	83.5001	203.613	82.0084	203.613	83.4029	203.613	81.9209	203.613	83.271	203.613	81.8863	203.613	83.1044	203.613	81.9095	203.613	82.9099	203.613	81.9892	203.613	82.6993	203.613	82.1192	203.613	82.4874	203.613	82.2894
210.938	83.7561	210.938	83.6702	210.938	83.8154	210.938	83.5625	210.938	83.8438	210.938	83.4376	210.938	83.8392	210.938	83.298	210.938	83.8029	210.938	83.1447	210.938	83.7396	210.938	82.9771	210.938	83.657	210.938	82.7945	210.938	83.5643	210.938	82.5974	210.938	83.4687	210.938	82.3897	210.938	83.3731	210.938	82.1794	210.938	83.2742	210.938	81.9791	210.938	83.1637	210.938	81.8043	210.938	83.0324	210.938	81.6714	210.938	82.8737	210.938	81.5934	210.938	82.6877	210.938	81.5773	210.938	82.4813	210.938	81.6233	210.938	82.2671	210.938	81.7258	210.938	82.0601	210.938	81.8752
218.262	83.7953	218.262	83.7043	218.262	83.8657	218.262	83.5978	218.262	83.9104	218.262	83.4799	218.262	83.9261	218.262	83.3521	218.262	83.9123	218.262	83.2138	218.262	83.8715	218.262	83.0623	218.262	83.8087	218.262	82.8948	218.262	83.7298	218.262	82.7102	218.262	83.6392	218.262	82.5106	218.262	83.5378	218.262	82.303	218.262	83.4219	218.262	82.0988	218.262	83.2849	218.262	81.9134	218.262	83.1204	218.262	81.7629	218.262	82.926	218.262	81.6614	218.262	82.7062	218.262	81.6183	218.262	82.4723	218.262	81.6369	218.262	82.2403	218.262	81.7155	218.262	82.0273	218.262	81.8485
225.586	83.5729	225.586	83.4748	225.586	83.6508	225.586	83.3626	225.586	83.7037	225.586	83.2415	225.586	83.7294	225.586	83.1148	225.586	83.729	225.586	82.9831	225.586	83.7071	225.586	82.845	225.586	83.6705	225.586	82.6984	225.586	83.6261	225.586	82.5424	225.586	83.5777	225.586	82.3796	225.586	83.5241	225.586	82.2165	225.586	83.4587	225.586	82.064	225.586	83.3714	225.586	81.9352	225.586	83.253	225.586	81.843	225.586	83.099	225.586	81.7972	225.586	82.9126	225.586	81.8024	225.586	82.7046	225.586	81.8585	225.586	82.4904	225.586	81.9618	225.586	82.2866	225.586	82.107
232.91	83.4084	232.91	83.2953	232.91	83.4915	232.91	83.161	232.91	83.5375	232.91	83.0135	232.91	83.5425	232.91	82.8584	232.91	83.5077	232.91	82.6983	232.91	83.4393	232.91	82.5326	232.91	83.3483	232.91	82.3597	232.91	83.2471	232.91	82.1792	232.91	83.1466	232.91	81.9945	232.91	83.0515	232.91	81.8137	232.91	82.9587	232.91	81.6496	232.91	82.8592	232.91	81.517	232.91	82.7424	232.91	81.4295	232.91	82.6017	232.91	81.395	232.91	82.4374	232.91	81.4144	232.91	82.2567	232.91	81.4823	232.91	82.0711	232.91	81.59	232.91	81.8921	232.91	81.7291
241.699	83.565	241.699	83.4388	241.699	83.656	241.699	83.2854	241.699	83.7054	241.699	83.1125	241.699	83.7103	241.699	82.9266	241.699	83.6716	241.699	82.7315	241.699	83.595	241.699	82.5288	241.699	83.49	241.699	82.3189	241.699	83.3674	241.699	82.1034	241.699	83.2368	241.699	81.8869	241.699	83.1031	241.699	81.6782	241.699	82.965	241.699	81.4906	241.699	82.8166	241.699	81.339	241.699	82.6513	241.699	81.2367	241.699	82.4661	241.699	81.1913	241.699	82.2648	241.699	81.2026	241.699	82.0569	241.699	81.2643	241.699	81.8544	241.699	81.3672	241.699	81.6675	241.699	81.5035
250.488	83.2719	250.488	83.1108	250.488	83.3879	250.488	82.9145	250.488	83.4511	250.488	82.6934	250.488	83.4579	250.488	82.4562	250.488	83.4093	250.488	82.209	250.488	83.3124	250.488	81.9553	250.488	83.1787	250.488	81.6969	250.488	83.0224	250.488	81.4367	250.488	82.8561	250.488	81.1809	250.488	82.6861	250.488	80.9402	250.488	82.5103	250.488	80.7293	250.488	82.32	250.488	80.5641	250.488	82.1059	250.488	80.4563	250.488	81.8656	250.488	80.4104	250.488	81.607	250.488	80.4223	250.488	81.347	250.488	80.483	250.488	81.1047	250.488	80.5839	250.488	80.8942	250.488	80.7208
259.277	84.0048	259.277	83.8492	259.277	84.1167	259.277	83.6575	259.277	84.1779	259.277	83.4365	259.277	84.1837	259.277	83.191	259.277	84.1329	259.277	82.9234	259.277	84.0284	259.277	82.6339	259.277	83.8778	259.277	82.3229	259.277	83.6917	259.277	81.9924	259.277	83.4818	259.277	81.6499	259.277	83.2573	259.277	81.3093	259.277	83.0218	259.277	80.9916	259.277	82.7726	259.277	80.7219	259.277	82.504	259.277	80.5235	259.277	82.2121	259.277	80.4109	259.277	81.9004	259.277	80.3866	259.277	81.581	259.277	80.4433	259.277	81.2722	259.277	80.5694	259.277	80.9922	259.277	80.755
268.066	83.8536	268.066	83.7052	268.066	83.9634	268.066	83.5284	268.066	84.0269	268.066	83.3333	268.066	84.0408	268.066	83.1278	268.066	84.0067	268.066	82.9157	268.066	83.9316	268.066	82.6969	268.066	83.8264	268.066	82.4691	268.066	83.7036	268.066	82.2304	268.066	83.5732	268.066	81.9829	268.066	83.4391	268.066	81.7352	268.066	83.2971	268.066	81.5022	268.066	83.1367	268.066	81.3037	268.066	82.946	268.066	81.159	268.066	82.7193	268.066	81.082	268.066	82.4605	268.066	81.077	268.066	82.1838	268.066	81.1403	268.066	81.9093	268.066	81.2632	268.066	81.6559	268.066	81.4376
276.855	83.5008	276.855	83.3494	276.855	83.6094	276.855	83.1652	276.855	83.6668	276.855	82.9581	276.855	83.6679	276.855	82.7361	276.855	83.6125	276.855	82.5046	276.855	83.506	276.855	82.2664	276.855	83.3596	276.855	82.024	276.855	83.1886	276.855	81.7814	276.855	83.0092	276.855	81.5467	276.855	82.8337	276.855	81.3333	276.855	82.6666	276.855	81.1578	276.855	82.5048	276.855	81.0364	276.855	82.3415	276.855	80.9786	276.855	82.1721	276.855	80.9839	276.855	81.9979	276.855	81.0415	276.855	81.8255	276.855	81.135	276.855	81.6625	276.855	81.2494	276.855	81.5129	276.855	81.3759
287.109	83.5257	287.109	83.3569	287.109	83.647	287.109	83.1505	287.109	83.7139	287.109	82.9173	287.109	83.7239	287.109	82.6661	287.109	83.679	287.109	82.4014	287.109	83.5853	287.109	82.124	287.109	83.452	287.109	81.832	287.109	83.2888	287.109	81.5253	287.109	83.1038	287.109	81.2095	287.109	82.9007	287.109	80.8996	287.109	82.6774	287.109	80.6194	287.109	82.4278	287.109	80.3969	287.109	82.1473	287.109	80.2549	287.109	81.8394	287.109	80.2012	287.109	81.52	287.109	80.225	287.109	81.2145	287.109	80.3042	287.109	80.9474	287.109	80.4178	287.109	80.7301	287.109	80.5577
297.363	83.8713	297.363	83.6872	297.363	84.002	297.363	83.461	297.363	84.0701	297.363	83.204	297.363	84.0711	297.363	82.9249	297.363	84.0063	297.363	82.6288	297.363	83.8831	297.363	82.3171	297.363	83.7139	297.363	81.989	297.363	83.5124	297.363	81.6444	297.363	83.2896	297.363	81.2877	297.363	83.05	297.363	80.9297	297.363	82.7905	297.363	80.5885	297.363	82.5034	297.363	80.2868	297.363	82.1815	297.363	80.0474	297.363	81.8237	297.363	79.8871	297.363	81.4397	297.363	79.8142	297.363	81.0501	297.363	79.8289	297.363	80.6821	297.363	79.9278	297.363	80.3616	297.363	80.107
307.617	83.556	307.617	83.3677	307.617	83.7016	307.617	83.1502	307.617	83.794	307.617	82.9169	307.617	83.8281	307.617	82.6781	307.617	83.805	307.617	82.4386	307.617	83.7328	307.617	82.1979	307.617	83.6249	307.617	81.9531	307.617	83.4968	307.617	81.7027	307.617	83.3602	307.617	81.4513	307.617	83.2172	307.617	81.2121	307.617	83.0587	307.617	81.0053	307.617	82.8694	307.617	80.8528	307.617	82.6368	307.617	80.7694	307.617	82.3611	307.617	80.7561	307.617	82.0595	307.617	80.7998	307.617	81.7615	307.617	80.8816	307.617	81.4972	307.617	80.9878	307.617	81.2832	307.617	81.1179
319.336	82.9841	319.336	82.782	319.336	83.1374	319.336	82.5452	319.336	83.2339	319.336	82.2905	319.336	83.2731	319.336	82.0328	319.336	83.2619	319.336	81.7814	319.336	83.2123	319.336	81.5378	319.336	83.1385	319.336	81.2981	319.336	83.0516	319.336	81.058	319.336	82.9557	319.336	80.8182	319.336	82.8444	319.336	80.5881	319.336	82.703	319.336	80.3856	319.336	82.5145	319.336	80.2323	319.336	82.2679	319.336	80.1455	319.336	81.9667	319.336	80.1302	319.336	81.6314	319.336	80.1773	319.336	81.2957	319.336	80.27	319.336	80.9935	319.336	80.3946	319.336	80.7448	319.336	80.5493
329.59	82.8962	329.59	82.674	329.59	83.0416	329.59	82.3859	329.59	83.1084	329.59	82.0497	329.59	83.1051	329.59	81.6874	329.59	83.0497	329.59	81.3205	329.59	82.967	329.59	80.9659	329.59	82.883	329.59	80.6337	329.59	82.8153	329.59	80.3284	329.59	82.7648	329.59	80.0529	329.59	82.712	329.59	79.8122	329.59	82.6237	329.59	79.6158	329.59	82.4646	329.59	79.476	329.59	82.2111	329.59	79.4028	329.59	81.8616	329.59	79.399	329.59	81.4402	329.59	79.4582	329.59	80.9928	329.59	79.5699	329.59	80.572	329.59	79.7281	329.59	80.2167	329.59	79.9387
341.309	83.108	341.309	82.959	341.309	83.1598	341.309	82.7236	341.309	83.112	341.309	82.4188	341.309	82.9738	341.309	82.0647	341.309	82.7694	341.309	81.6809	341.309	82.5399	341.309	81.2842	341.309	82.3409	341.309	80.8868	341.309	82.2279	341.309	80.4987	341.309	82.231	341.309	80.1309	341.309	82.334	341.309	79.7992	341.309	82.4767	341.309	79.5245	341.309	82.5804	341.309	79.3292	341.309	82.577	341.309	79.2298	341.309	82.4262	341.309	79.2327	341.309	82.122	341.309	79.3353	341.309	81.6913	341.309	79.5328	341.309	81.187	341.309	79.8238	341.309	80.6737	341.309	80.2079
353.027	83.1425	353.027	83.0097	353.027	83.1583	353.027	82.7771	353.027	83.0431	353.027	82.4626	353.027	82.7896	353.027	82.0844	353.027	82.4033	353.027	81.6601	353.027	81.9133	353.027	81.2092	353.027	81.3843	353.027	80.7549	353.027	80.9205	353.027	80.3266	353.027	80.6382	353.027	79.9594	353.027	80.6007	353.027	79.6879	353.027	80.7684	353.027	79.5368	353.027	81.0289	353.027	79.5117	353.027	81.2688	353.027	79.5979	353.027	81.4175	353.027	79.7677	353.027	81.4507	353.027	79.9908	353.027	81.3766	353.027	80.242	353.027	81.2193	353.027	80.5034	353.027	81.0067	353.027	80.7625
366.211	83.8879	366.211	83.6997	366.211	83.9782	366.211	83.4294	366.211	83.9543	366.211	83.0909	366.211	83.8025	366.211	82.6949	366.211	83.5152	366.211	82.2501	366.211	83.0962	366.211	81.7675	366.211	82.5687	366.211	81.2655	366.211	81.9862	366.211	80.7771	366.211	81.4382	366.211	80.3506	366.211	81.0351	366.211	80.0423	366.211	80.8579	366.211	79.8965	366.211	80.9048	366.211	79.924	366.211	81.0937	366.211	80.0962	366.211	81.3196	366.211	80.3599	366.211	81.5045	366.211	80.6599	366.211	81.6096	366.211	80.9529	366.211	81.6255	366.211	81.2106	366.211	81.5577	366.211	81.416
379.395	84.0273	379.395	83.7827	379.395	84.183	379.395	83.4718	379.395	84.2283	379.395	83.1147	379.395	84.1453	379.395	82.7245	379.395	83.9215	379.395	82.3049	379.395	83.5523	379.395	81.8519	379.395	83.0457	379.395	81.3616	379.395	82.4294	379.395	80.843	379.395	81.7612	379.395	80.331	379.395	81.1324	379.395	79.8944	379.395	80.651	379.395	79.6231	379.395	80.3962	379.395	79.5867	379.395	80.3746	379.395	79.7854	379.395	80.5239	379.395	80.1436	379.395	80.7581	379.395	80.5531	379.395	81.0026	379.395	80.9196	379.395	81.2024	379.395	81.183	379.395	81.3167	379.395	81.3158
392.578	84.313	392.578	84.0389	392.578	84.487	392.578	83.6811	392.578	84.5489	392.578	83.2582	392.578	84.491	392.578	82.7887	392.578	84.3099	392.578	82.2864	392.578	84.0071	392.578	81.7584	392.578	83.5904	392.578	81.207	392.578	83.0776	392.578	80.6379	392.578	82.5009	392.578	80.0723	392.578	81.9097	392.578	79.5575	392.578	81.3654	392.578	79.1656	392.578	80.9238	392.578	78.9691	392.578	80.6142	392.578	78.9984	392.578	80.4315	392.578	79.2156	392.578	80.3491	392.578	79.5324	392.578	80.3328	392.578	79.8537	392.578	80.3439	392.578	80.1103	392.578	80.338	392.578	80.2704
405.762	84.2087	405.762	83.9824	405.762	84.3444	405.762	83.6786	405.762	84.3782	405.762	83.3094	405.762	84.302	405.762	82.8842	405.762	84.1127	405.762	82.4078	405.762	83.8137	405.762	81.8817	405.762	83.4173	405.762	81.3087	405.762	82.9462	405.762	80.7015	405.762	82.4346	405.762	80.0946	405.762	81.9268	405.762	79.5534	405.762	81.4717	405.762	79.1713	405.762	81.1133	405.762	79.0352	405.762	80.8795	405.762	79.17	405.762	80.773	405.762	79.5118	405.762	80.7709	405.762	79.9441	405.762	80.8309	405.762	80.3551	405.762	80.9006	405.762	80.6705	405.762	80.9258	405.762	80.8593
420.41	84.0211	420.41	83.782	420.41	84.1587	420.41	83.46	420.41	84.1822	420.41	83.0769	420.41	84.0851	420.41	82.6537	420.41	83.8681	420.41	82.2048	420.41	83.5395	420.41	81.7346	420.41	83.1177	420.41	81.239	420.41	82.6319	420.41	80.7153	420.41	82.1211	420.41	80.1772	420.41	81.6281	420.41	79.668	420.41	81.1883	420.41	79.2626	420.41	80.8228	420.41	79.0436	420.41	80.5405	420.41	79.0549	420.41	80.3494	420.41	79.2668	420.41	80.2577	420.41	79.5905	420.41	80.259	420.41	79.9228	420.41	80.3148	420.41	80.1831	420.41	80.3599	420.41	80.3289
435.059	84.1731	435.059	83.9337	435.059	84.3136	435.059	83.611	435.059	84.3419	435.059	83.2215	435.059	84.248	435.059	82.7781	435.059	84.026	435.059	82.2865	435.059	83.6761	435.059	81.7432	435.059	83.209	435.059	81.1404	435.059	82.6509	435.059	80.4783	435.059	82.0449	435.059	79.7836	435.059	81.4453	435.059	79.1289	435.059	80.9016	435.059	78.6357	435.059	80.4442	435.059	78.4303	435.059	80.0879	435.059	78.5563	435.059	79.8492	435.059	78.9288	435.059	79.752	435.059	79.3915	435.059	79.8001	435.059	79.8013	435.059	79.9465	435.059	80.069	435.059	80.0993	435.059	80.1619
451.172	83.697	451.172	83.4953	451.172	83.8141	451.172	83.2275	451.172	83.8319	451.172	82.9103	451.172	83.7428	451.172	82.5531	451.172	83.548	451.172	82.1534	451.172	83.2579	451.172	81.6988	451.172	82.8904	451.172	81.1747	451.172	82.4681	451.172	80.5775	451.172	82.0131	451.172	79.9315	451.172	81.5431	451.172	79.3053	451.172	81.0735	451.172	78.8143	451.172	80.6261	451.172	78.5844	451.172	80.2393	451.172	78.6721	451.172	79.9673	451.172	79.0126	451.172	79.856	451.172	79.4613	451.172	79.9069	451.172	79.8743	451.172	80.0587	451.172	80.155	451.172	80.2099	451.172	80.2627
465.82	84.0819	465.82	83.8367	465.82	84.2185	465.82	83.5078	465.82	84.2283	465.82	83.1213	465.82	84.103	465.82	82.6966	465.82	83.8452	465.82	82.2389	465.82	83.4682	465.82	81.7379	465.82	82.997	465.82	81.1727	465.82	82.4672	465.82	80.5261	465.82	81.9206	465.82	79.8024	465.82	81.3934	465.82	79.0494	465.82	80.8977	465.82	78.3751	465.82	80.4159	465.82	77.9326	465.82	79.9228	465.82	77.8363	465.82	79.4304	465.82	78.0609	465.82	79.0177	465.82	78.448	465.82	78.7962	465.82	78.8143	465.82	78.8045	465.82	79.0344	465.82	78.9473	465.82	79.0649
483.398	83.797	483.398	83.5445	483.398	83.9372	483.398	83.2002	483.398	83.953	483.398	82.792	483.398	83.8393	483.398	82.3469	483.398	83.5958	483.398	81.8796	483.398	83.2296	483.398	81.3838	483.398	82.7595	483.398	80.8358	483.398	82.2212	483.398	80.2111	483.398	81.6654	483.398	79.5093	483.398	81.142	483.398	78.7819	483.398	80.6766	483.398	78.1514	483.398	80.2616	483.398	77.788	483.398	79.8801	483.398	77.8046	483.398	79.5439	483.398	78.1498	483.398	79.3082	483.398	78.6419	483.398	79.2312	483.398	79.0948	483.398	79.3044	483.398	79.3917	483.398	79.4337	483.398	79.494
499.512	83.9894	499.512	83.8129	499.512	84.075	499.512	83.5583	499.512	84.0567	499.512	83.2352	499.512	83.9253	499.512	82.8464	499.512	83.6783	499.512	82.3863	499.512	83.3219	499.512	81.842	499.512	82.8735	499.512	81.1965	499.512	82.3625	499.512	80.4367	499.512	81.827	499.512	79.5679	499.512	81.3055	499.512	78.641	499.512	80.8234	499.512	77.787	499.512	80.3829	499.512	77.2185	499.512	79.9668	499.512	77.1152	499.512	79.5656	499.512	77.4475	499.512	79.2121	499.512	77.9894	499.512	78.9801	499.512	78.5021	499.512	78.9151	499.512	78.8437	499.512	78.9599	499.512	78.9779
517.09	83.5467	517.09	83.2692	517.09	83.7257	517.09	82.9392	517.09	83.7766	517.09	82.6074	517.09	83.6869	517.09	82.3045	517.09	83.458	517.09	82.0184	517.09	83.1017	517.09	81.6932	517.09	82.64	517.09	81.2525	517.09	82.1068	517.09	80.6285	517.09	81.5475	517.09	79.7865	517.09	81.0062	517.09	78.7518	517.09	80.5037	517.09	77.6557	517.09	80.0239	517.09	76.7788	517.09	79.5368	517.09	76.4531	517.09	79.0496	517.09	76.7462	517.09	78.6414	517.09	77.3714	517.09	78.4231	517.09	77.9897	517.09	78.424	517.09	78.4077	517.09	78.5321	517.09	78.5717
536.133	83.3713	536.133	83.1009	536.133	83.5173	536.133	82.7538	536.133	83.5117	536.133	82.3897	536.133	83.3467	536.133	82.0574	536.133	83.0309	536.133	81.766	536.133	82.5891	536.133	81.4738	536.133	82.0659	536.133	81.1094	536.133	81.5283	536.133	80.6068	536.133	81.0549	536.133	79.9371	536.133	80.7004	536.133	79.1324	536.133	80.4513	536.133	78.3101	536.133	80.2246	536.133	77.676	536.133	79.9273	536.133	77.4398	536.133	79.535	536.133	77.6445	536.133	79.1378	536.133	78.1179	536.133	78.8976	536.133	78.6182	536.133	78.8949	536.133	78.9689	536.133	79.0247	536.133	79.0947
555.176	83.404	555.176	83.0498	555.176	83.62	555.176	82.6049	555.176	83.6714	555.176	82.1383	555.176	83.5477	555.176	81.7206	555.176	83.2507	555.176	81.3864	555.176	82.799	555.176	81.1044	555.176	82.2369	555.176	80.7884	555.176	81.6406	555.176	80.3376	555.176	81.1049	555.176	79.6748	555.176	80.6989	555.176	78.7789	555.176	80.4167	555.176	77.7323	555.176	80.1722	555.176	76.7927	555.176	79.8518	555.176	76.3594	555.176	79.3887	555.176	76.6172	555.176	78.8314	555.176	77.2817	555.176	78.3671	555.176	77.9344	555.176	78.195	555.176	78.3308	555.176	78.2924	555.176	78.4163
574.219	83.5269	574.219	83.0339	574.219	83.7922	574.219	82.3697	574.219	83.8146	574.219	81.6539	574.219	83.601	574.219	81.0586	574.219	83.1682	574.219	80.7199	574.219	82.5419	574.219	80.6205	574.219	81.7687	574.219	80.5977	574.219	80.9447	574.219	80.466	574.219	80.239	574.219	80.1015	574.219	79.8344	574.219	79.4563	574.219	79.7555	574.219	78.5632	574.219	79.7965	574.219	77.5737	574.219	79.6863	574.219	76.8003	574.219	79.268	574.219	76.5824	574.219	78.5822	574.219	76.9198	574.219	77.8973	574.219	77.4434	574.219	77.5697	574.219	77.7962	574.219	77.6553	574.219	77.8355
594.727	84.0178	594.727	83.6251	594.727	84.1932	594.727	83.0252	594.727	84.154	594.727	82.2636	594.727	83.9017	594.727	81.447	594.727	83.4329	594.727	80.737	594.727	82.7448	594.727	80.2643	594.727	81.8488	594.727	80.0094	594.727	80.8003	594.727	79.8073	594.727	79.7497	594.727	79.4734	594.727	78.9759	594.727	78.9007	594.727	78.7491	594.727	78.093	594.727	79.0143	594.727	77.1887	594.727	79.3927	594.727	76.4669	594.727	79.5233	594.727	76.2049	594.727	79.2481	594.727	76.3991	594.727	78.6288	594.727	76.7667	594.727	77.9234	594.727	77.051	594.727	77.4332	594.727	77.2129
615.234	84.2319	615.234	83.7948	615.234	84.4274	615.234	83.1143	615.234	84.3971	615.234	82.2251	615.234	84.1576	615.234	81.2307	615.234	83.7175	615.234	80.3183	615.234	83.0754	615.234	79.6889	615.234	82.2238	615.234	79.392	615.234	81.1676	615.234	79.2666	615.234	79.9674	615.234	79.0876	615.234	78.8171	615.234	78.7127	615.234	78.0852	615.234	78.1334	615.234	78.0672	615.234	77.4978	615.234	78.5837	615.234	77.0965	615.234	79.1673	615.234	77.1718	615.234	79.5068	615.234	77.652	615.234	79.5473	615.234	78.2395	615.234	79.401	615.234	78.7067	615.234	79.2086	615.234	79.0041
637.207	84.9004	637.207	84.6191	637.207	84.9954	637.207	84.1323	637.207	84.9227	637.207	83.4324	637.207	84.6938	637.207	82.5426	637.207	84.31	637.207	81.5456	637.207	83.7614	637.207	80.5993	637.207	83.0292	637.207	79.8799	637.207	82.0955	637.207	79.438	637.207	80.9672	637.207	79.135	637.207	79.7314	637.207	78.7676	637.207	78.6436	637.207	78.2172	637.207	78.0927	637.207	77.5219	637.207	78.1977	637.207	76.9008	637.207	78.5827	637.207	76.66	637.207	78.827	637.207	76.8996	637.207	78.7929	637.207	77.3872	637.207	78.5815	637.207	77.8351	637.207	78.3509	637.207	78.1346
659.18	84.3128	659.18	84.0284	659.18	84.4408	659.18	83.5806	659.18	84.4213	659.18	82.9715	659.18	84.2603	659.18	82.2276	659.18	83.957	659.18	81.4223	659.18	83.5017	659.18	80.6829	659.18	82.8791	659.18	80.1396	659.18	82.0807	659.18	79.821	659.18	81.1271	659.18	79.617	659.18	80.1032	659.18	79.3695	659.18	79.2017	659.18	78.9848	659.18	78.7072	659.18	78.4937	659.18	78.7829	659.18	78.0725	659.18	79.2458	659.18	77.9702	659.18	79.7438	659.18	78.284	659.18	80.0535	659.18	78.8396	659.18	80.1349	659.18	79.3859	659.18	80.036	659.18	79.7897
682.617	85.0931	682.617	84.7055	682.617	85.2304	682.617	84.0681	682.617	85.1428	682.617	83.223	682.617	84.8682	682.617	82.2654	682.617	84.4441	682.617	81.3319	682.617	83.8969	682.617	80.5506	682.617	83.2346	682.617	79.974	682.617	82.4502	682.617	79.562	682.617	81.5354	682.617	79.2292	682.617	80.5089	682.617	78.9007	682.617	79.462	682.617	78.5513	682.617	78.6139	682.617	78.2414	682.617	78.2639	682.617	78.1291	682.617	78.5199	682.617	78.3781	682.617	79.1526	682.617	78.9749	682.617	79.8449	682.617	79.7018	682.617	80.3896	682.617	80.3126	682.617	80.6782	682.617	80.656
707.52	85.2255	707.52	84.917	707.52	85.3264	707.52	84.3958	707.52	85.2257	707.52	83.6554	707.52	84.9363	707.52	82.6996	707.52	84.4781	707.52	81.5762	707.52	83.8719	707.52	80.4195	707.52	83.1312	707.52	79.4438	707.52	82.2596	707.52	78.8036	707.52	81.2609	707.52	78.4377	707.52	80.1688	707.52	78.145	707.52	79.0933	707.52	77.7891	707.52	78.2383	707.52	77.4045	707.52	77.7872	707.52	77.201	707.52	77.7319	707.52	77.4274	707.52	77.9539	707.52	78.0881	707.52	78.3949	707.52	78.8841	707.52	78.9737	707.52	79.4811	707.52	79.4813	707.52	79.6898
732.422	84.7266	732.422	84.5764	732.422	84.6723	732.422	84.1828	732.422	84.4559	732.422	83.5268	732.422	84.1107	732.422	82.6312	732.422	83.6531	732.422	81.5884	732.422	83.0832	732.422	80.5751	732.422	82.3976	732.422	79.7899	732.422	81.6112	732.422	79.293	732.422	80.7675	732.422	78.9367	732.422	79.9225	732.422	78.5141	732.422	79.1312	732.422	77.94	732.422	78.4847	732.422	77.3374	732.422	78.1123	732.422	77.008	732.422	78.0387	732.422	77.1785	732.422	78.1289	732.422	77.7272	732.422	78.2723	732.422	78.3255	732.422	78.4684	732.422	78.7225	732.422	78.6957	732.422	78.8284
757.324	84.5619	757.324	84.3807	757.324	84.5061	757.324	83.9511	757.324	84.244	757.324	83.276	757.324	83.8213	757.324	82.3739	757.324	83.2853	757.324	81.2985	757.324	82.6688	757.324	80.1784	757.324	81.9803	757.324	79.2266	757.324	81.2057	757.324	78.6233	757.324	80.32	757.324	78.3381	757.324	79.3119	757.324	78.1607	757.324	78.2359	757.324	77.9056	757.324	77.305	757.324	77.5489	757.324	76.9062	757.324	77.2797	757.324	77.2364	757.324	77.4068	757.324	77.9787	757.324	78.0081	757.324	78.7133	757.324	78.7825	757.324	79.2629	757.324	79.384	757.324	79.5915	757.324	79.6535
785.156	84.7815	785.156	84.6325	785.156	84.7188	785.156	84.2611	785.156	84.4616	785.156	83.6568	785.156	84.0395	785.156	82.8144	785.156	83.4882	785.156	81.7559	785.156	82.8332	785.156	80.5678	785.156	82.0793	785.156	79.4243	785.156	81.2192	785.156	78.5251	785.156	80.2532	785.156	77.9237	785.156	79.1981	785.156	77.4592	785.156	78.0902	785.156	76.9322	785.156	77.0331	785.156	76.3296	785.156	76.2666	785.156	75.9433	785.156	76.0515	785.156	76.1768	785.156	76.3899	785.156	76.9869	785.156	77.0502	785.156	77.8898	785.156	77.7828	785.156	78.4927	785.156	78.3743	785.156	78.6488
811.523	84.1645	811.523	84.0943	811.523	84.0021	811.523	83.7823	811.523	83.6367	811.523	83.2321	811.523	83.1183	811.523	82.4524	811.523	82.5059	811.523	81.4635	811.523	81.8407	811.523	80.3449	811.523	81.1209	811.523	79.3048	811.523	80.3078	811.523	78.6272	811.523	79.3587	811.523	78.3773	811.523	78.2618	811.523	78.2827	811.523	77.098	811.523	78.0375	811.523	76.1833	811.523	77.5519	811.523	76.0124	811.523	77.0076	811.523	76.5859	811.523	76.7811	811.523	77.3355	811.523	77.0882	811.523	77.8875	811.523	77.6889	811.523	78.2188	811.523	78.1961	811.523	78.4027	811.523	78.4255
840.82	84.5609	840.82	84.4829	840.82	84.4189	840.82	84.179	840.82	84.0665	840.82	83.6242	840.82	83.5401	840.82	82.7689	840.82	82.9072	840.82	81.5575	840.82	82.2425	840.82	79.9782	840.82	81.5854	840.82	78.1952	840.82	80.9034	840.82	76.7735	840.82	80.0886	840.82	76.4	840.82	78.9907	840.82	76.8256	840.82	77.4695	840.82	77.2489	840.82	75.5427	840.82	77.2962	840.82	74.0061	840.82	77.0744	840.82	74.4982	840.82	76.9887	840.82	76.2887	840.82	77.3661	840.82	77.7644	840.82	78.0667	840.82	78.6233	840.82	78.7099	840.82	79.0209	840.82	79.0492
870.117	84.2738	870.117	84.1464	870.117	84.1671	870.117	83.8013	870.117	83.8297	870.117	83.2705	870.117	83.2868	870.117	82.5722	870.117	82.5895	870.117	81.6653	870.117	81.8143	870.117	80.4556	870.117	81.0593	870.117	78.9043	870.117	80.4224	870.117	77.2375	870.117	79.9053	870.117	76.0813	870.117	79.2958	870.117	75.8716	870.117	78.195	870.117	76.1686	870.117	76.1672	870.117	76.3872	870.117	73.2306	870.117	76.383	870.117	72.2439	870.117	76.3827	870.117	74.7855	870.117	76.697	870.117	76.9758	870.117	77.2992	870.117	78.0318	870.117	77.874	870.117	78.3284	870.117	78.2287
900.879	84.8971	900.879	84.6156	900.879	84.8699	900.879	84.0776	900.879	84.5098	900.879	83.3519	900.879	83.8307	900.879	82.5078	900.879	82.8893	900.879	81.5715	900.879	81.7889	900.879	80.4674	900.879	80.7096	900.879	79.0284	900.879	79.9298	900.879	77.1752	900.879	79.6524	900.879	75.3977	900.879	79.6779	900.879	74.974	900.879	79.4392	900.879	75.8959	900.879	78.2655	900.879	76.8472	900.879	75.3727	900.879	77.3687	900.879	70.8527	900.879	77.7077	900.879	73.3322	900.879	78.228	900.879	77.6789	900.879	79.0181	900.879	79.8849	900.879	79.8801	900.879	80.6554	900.879	80.5286
933.105	86.444	933.105	86.2412	933.105	86.4067	933.105	85.7565	933.105	86.1122	933.105	84.9444	933.105	85.5087	933.105	83.8619	933.105	84.5377	933.105	82.6835	933.105	83.1284	933.105	81.491	933.105	81.2243	933.105	80.0661	933.105	79.0093	933.105	78.0667	933.105	77.5201	933.105	75.4567	933.105	77.8922	933.105	73.3184	933.105	78.9052	933.105	73.4709	933.105	79.0155	933.105	74.9143	933.105	77.3399	933.105	76.3192	933.105	72.4955	933.105	77.6847	933.105	68.3588	933.105	79.228	933.105	76.412	933.105	80.857	933.105	80.5856	933.105	82.2148	933.105	82.4718	933.105	82.8797
965.332	86.2458	965.332	85.9504	965.332	86.2289	965.332	85.3656	965.332	85.903	965.332	84.5131	965.332	85.3335	965.332	83.4723	965.332	84.6107	965.332	82.4405	965.332	83.746	965.332	81.5733	965.332	82.6043	965.332	80.7225	965.332	80.9854	965.332	79.568	965.332	78.9645	965.332	78.0027	965.332	77.6434	965.332	76.4237	965.332	78.1529	965.332	75.5957	965.332	78.9461	965.332	75.6487	965.332	78.2701	965.332	76.1107	965.332	74.5949	965.332	76.8561	965.332	61.9307	965.332	77.9742	965.332	73.3351	965.332	79.353	965.332	78.8938	965.332	80.6351	965.332	80.9889	965.332	81.3481
1000.49	85.8046	1000.49	85.7171	1000.49	85.659	1000.49	85.3311	1000.49	85.2964	1000.49	84.546	1000.49	84.7434	1000.49	83.3539	1000.49	84.0536	1000.49	81.9934	1000.49	83.2325	1000.49	80.8492	1000.49	82.1452	1000.49	79.9344	1000.49	80.521	1000.49	78.7863	1000.49	78.2254	1000.49	77.0389	1000.49	76.4903	1000.49	75.0615	1000.49	77.5644	1000.49	74.4595	1000.49	79.2393	1000.49	75.5473	1000.49	79.3743	1000.49	76.7805	1000.49	77.0519	1000.49	77.7767	1000.49	69.3438	1000.49	78.8733	1000.49	67.1884	1000.49	80.148	1000.49	76.9597	1000.49	81.1948	1000.49	80.3427	1000.49	81.4478
1035.64	85.7585	1035.64	85.9347	1035.64	85.1846	1035.64	85.5153	1035.64	84.4798	1035.64	84.4065	1035.64	83.9097	1035.64	82.7131	1035.64	83.6013	1035.64	80.9806	1035.64	83.4183	1035.64	80.0706	1035.64	82.993	1035.64	79.8596	1035.64	81.8631	1035.64	79.3474	1035.64	79.5615	1035.64	78.0409	1035.64	76.2346	1035.64	76.4342	1035.64	75.981	1035.64	75.9794	1035.64	78.7974	1035.64	76.8008	1035.64	80.0159	1035.64	77.7923	1035.64	78.6101	1035.64	78.7479	1035.64	72.6246	1035.64	79.8329	1035.64	66.343	1035.64	80.9686	1035.64	77.2635	1035.64	81.8304	1035.64	80.8339	1035.64	81.9779
1072.27	86.0049	1072.27	86.2925	1072.27	85.4116	1072.27	86.2319	1072.27	84.4633	1072.27	85.5626	1072.27	83.3278	1072.27	83.9758	1072.27	82.4691	1072.27	81.467	1072.27	82.2142	1072.27	79.2402	1072.27	82.2794	1072.27	79.0188	1072.27	81.9912	1072.27	79.1968	1072.27	80.6372	1072.27	77.9249	1072.27	77.2836	1072.27	74.0206	1072.27	71.7207	1072.27	65.8289	1072.27	75.9157	1072.27	71.8441	1072.27	80.0433	1072.27	76.8453	1072.27	80.7236	1072.27	79.2118	1072.27	77.9128	1072.27	80.5986	1072.27	69.0942	1072.27	81.6151	1072.27	74.5576	1072.27	82.2116	1072.27	80.0109	1072.27	81.9386
1108.89	86.3277	1108.89	86.7673	1108.89	85.3441	1108.89	86.7331	1108.89	83.8665	1108.89	86.2062	1108.89	82.2074	1108.89	84.9795	1108.89	80.8915	1108.89	82.7452	1108.89	80.5222	1108.89	79.4088	1108.89	81.1885	1108.89	76.6422	1108.89	81.9155	1108.89	77.2853	1108.89	81.7027	1108.89	78.3007	1108.89	79.8232	1108.89	77.4966	1108.89	75.2343	1108.89	73.859	1108.89	73.07	1108.89	65.8287	1108.89	78.829	1108.89	71.9867	1108.89	81.2812	1108.89	77.2509	1108.89	80.5912	1108.89	79.9216	1108.89	76.3132	1108.89	81.4046	1108.89	71.7417	1108.89	81.9353	1108.89	77.9915	1108.89	81.1218
1148.44	86.3373	1148.44	86.5483	1148.44	85.7774	1148.44	86.4645	1148.44	84.8978	1148.44	86.0731	1148.44	83.801	1148.44	85.2091	1148.44	82.5714	1148.44	83.6634	1148.44	81.4282	1148.44	81.4351	1148.44	80.8677	1148.44	79.3246	1148.44	80.9836	1148.44	78.8145	1148.44	81.0117	1148.44	79.1556	1148.44	79.9128	1148.44	78.5686	1148.44	76.168	1148.44	75.9951	1148.44	67.7319	1148.44	69.7109	1148.44	76.3186	1148.44	68.266	1148.44	80.6476	1148.44	75.7697	1148.44	81.1506	1148.44	79.3892	1148.44	78.2097	1148.44	81.0476	1148.44	68.0162	1148.44	81.1476	1148.44	72.9366	1148.44	79.2083
1189.45	86.462	1189.45	86.3566	1189.45	86.3041	1189.45	86.1002	1189.45	85.8122	1189.45	85.742	1189.45	84.9756	1189.45	85.1353	1189.45	83.8015	1189.45	83.9398	1189.45	82.3435	1189.45	81.8093	1189.45	80.9369	1189.45	78.9837	1189.45	80.3856	1189.45	77.7939	1189.45	80.8566	1189.45	78.9576	1189.45	81.0032	1189.45	79.5398	1189.45	79.1934	1189.45	78.2431	1189.45	72.5012	1189.45	73.7929	1189.45	71.0613	1189.45	56.8252	1189.45	79.3566	1189.45	71.8212	1189.45	81.4404	1189.45	77.1514	1189.45	79.7978	1189.45	79.2413	1189.45	72.7618	1189.45	79.5125	1189.45	69.2254	1189.45	77.3978
1230.47	86.2974	1230.47	86.0753	1230.47	86.4163	1230.47	85.8559	1230.47	86.2176	1230.47	85.5519	1230.47	85.589	1230.47	85.0113	1230.47	84.5691	1230.47	84.0242	1230.47	83.2694	1230.47	82.2859	1230.47	81.803	1230.47	79.6991	1230.47	80.3571	1230.47	77.6854	1230.47	79.5553	1230.47	78.4498	1230.47	79.7635	1230.47	79.665	1230.47	79.5156	1230.47	79.4331	1230.47	76.5113	1230.47	77.1974	1230.47	63.4803	1230.47	71.7868	1230.47	75.414	1230.47	49.2814	1230.47	80.4866	1230.47	70.3652	1230.47	80.6697	1230.47	75.3784	1230.47	76.3456	1230.47	76.4646	1230.47	58.7047	1230.47	73.3419
1274.41	86.5969	1274.41	86.6133	1274.41	86.2844	1274.41	86.3862	1274.41	85.683	1274.41	85.9246	1274.41	84.9189	1274.41	85.2165	1274.41	84.1553	1274.41	84.2332	1274.41	83.4279	1274.41	82.7793	1274.41	82.5271	1274.41	80.5038	1274.41	81.1108	1274.41	77.4426	1274.41	79.2986	1274.41	75.8083	1274.41	78.4623	1274.41	77.4116	1274.41	78.7243	1274.41	78.9204	1274.41	77.6123	1274.41	78.5414	1274.41	72.6203	1274.41	75.356	1274.41	71.1718	1274.41	68.0845	1274.41	77.4741	1274.41	69.5139	1274.41	78.6254	1274.41	73.8894	1274.41	75.5291	1274.41	74.7539	1274.41	68.7296	1274.41	72.194
1319.82	86.4699	1319.82	86.4347	1319.82	85.946	1319.82	85.8537	1319.82	85.1594	1319.82	85.0269	1319.82	84.3912	1319.82	84.199	1319.82	83.6698	1319.82	83.3085	1319.82	83.0345	1319.82	82.1169	1319.82	82.5318	1319.82	80.5385	1319.82	81.7763	1319.82	78.9723	1319.82	80.3397	1319.82	77.8819	1319.82	78.8779	1319.82	77.0244	1319.82	78.4243	1319.82	76.5572	1319.82	77.4456	1319.82	76.391	1319.82	73.8981	1319.82	74.7298	1319.82	70.5313	1319.82	69.6734	1319.82	75.1438	1319.82	66.9405	1319.82	76.9099	1319.82	73.3481	1319.82	74.8679	1319.82	75.55	1319.82	71.0205	1319.82	73.9242
1366.7	86.632	1366.7	86.3573	1366.7	86.2948	1366.7	85.7439	1366.7	85.3956	1366.7	84.956	1366.7	84.3425	1366.7	83.8627	1366.7	83.4588	1366.7	82.3825	1366.7	82.7698	1366.7	80.732	1366.7	82.2669	1366.7	79.1909	1366.7	81.6751	1366.7	77.954	1366.7	80.4135	1366.7	77.3995	1366.7	78.535	1366.7	77.3489	1366.7	77.4007	1366.7	77.1581	1366.7	76.6933	1366.7	76.7001	1366.7	74.0451	1366.7	75.4826	1366.7	71.1777	1366.7	72.0891	1366.7	74.6781	1366.7	67.6901	1366.7	76.3659	1366.7	72.6602	1366.7	74.7538	1366.7	75.4229	1366.7	72.6089	1366.7	74.6664
1413.57	86.9374	1413.57	86.7226	1413.57	86.5532	1413.57	86.1427	1413.57	85.5806	1413.57	85.3408	1413.57	84.4183	1413.57	84.1731	1413.57	83.512	1413.57	82.2932	1413.57	82.924	1413.57	79.4706	1413.57	82.504	1413.57	76.1797	1413.57	81.9639	1413.57	73.3097	1413.57	81.0255	1413.57	70.7506	1413.57	79.7298	1413.57	71.8011	1413.57	78.2018	1413.57	75.3096	1413.57	76.414	1413.57	76.9105	1413.57	73.9949	1413.57	76.1992	1413.57	70.9835	1413.57	73.3733	1413.57	73.4824	1413.57	70.6118	1413.57	75.8179	1413.57	73.4204	1413.57	74.4504	1413.57	75.6996	1413.57	72.2328	1413.57	74.7901
1463.38	86.9152	1463.38	87.1385	1463.38	86.3093	1463.38	86.7515	1463.38	85.6465	1463.38	85.7612	1463.38	85.1102	1463.38	84.4542	1463.38	84.4373	1463.38	82.9283	1463.38	83.2398	1463.38	80.6167	1463.38	81.851	1463.38	76.9679	1463.38	81.0433	1463.38	73.5711	1463.38	80.2758	1463.38	73.4069	1463.38	79.1681	1463.38	72.2051	1463.38	78.9674	1463.38	66.7009	1463.38	78.8277	1463.38	71.0414	1463.38	76.2316	1463.38	74.8567	1463.38	70.2999	1463.38	74.4242	1463.38	72.9839	1463.38	71.4268	1463.38	75.9411	1463.38	73.3796	1463.38	74.4688	1463.38	76.1464	1463.38	71.2888	1463.38	74.7991
1516.11	86.4009	1516.11	86.652	1516.11	85.7366	1516.11	86.245	1516.11	85.2482	1516.11	85.286	1516.11	85.0247	1516.11	84.0651	1516.11	84.5171	1516.11	82.8615	1516.11	83.3432	1516.11	81.3182	1516.11	81.584	1516.11	78.6138	1516.11	79.8365	1516.11	74.4006	1516.11	78.5916	1516.11	72.0785	1516.11	77.5027	1516.11	73.934	1516.11	76.677	1516.11	72.8795	1516.11	76.6288	1516.11	67.0675	1516.11	75.7586	1516.11	72.6623	1516.11	72.8808	1516.11	75.0308	1516.11	72.1941	1516.11	73.1528	1516.11	74.1461	1516.11	73.717	1516.11	73.1479	1516.11	75.6268	1516.11	71.0158	1516.11	73.9449
1568.85	85.9862	1568.85	85.8067	1568.85	85.8789	1568.85	85.511	1568.85	85.4985	1568.85	84.8506	1568.85	84.979	1568.85	83.4466	1568.85	84.1964	1568.85	81.7158	1568.85	83.0865	1568.85	80.4839	1568.85	81.877	1568.85	79.3	1568.85	80.9006	1568.85	77.2578	1568.85	79.9331	1568.85	74.9872	1568.85	78.2689	1568.85	75.7251	1568.85	76.6134	1568.85	76.0209	1568.85	75.7149	1568.85	71.8713	1568.85	73.84	1568.85	67.0085	1568.85	71.6399	1568.85	72.083	1568.85	72.332	1568.85	71.9169	1568.85	73.9568	1568.85	72.4819	1568.85	73.4852	1568.85	74.3795	1568.85	72.1425	1568.85	73.344
1624.51	85.9402	1624.51	85.6349	1624.51	85.6668	1624.51	84.8389	1624.51	85.2594	1624.51	84.0558	1624.51	84.6637	1624.51	82.9917	1624.51	83.742	1624.51	81.2541	1624.51	82.7447	1624.51	79.3907	1624.51	81.5915	1624.51	77.797	1624.51	80.1605	1624.51	75.5493	1624.51	78.7736	1624.51	71.7558	1624.51	76.8328	1624.51	73.2337	1624.51	73.9275	1624.51	76.5079	1624.51	74.236	1624.51	75.8357	1624.51	74.6138	1624.51	72.3397	1624.51	71.8636	1624.51	71.184	1624.51	69.7261	1624.51	70.1049	1624.51	73.6821	1624.51	69.4928	1624.51	73.9776	1624.51	73.31	1624.51	71.6007	1624.51	73.4793
1681.64	85.6357	1681.64	85.7412	1681.64	85.4978	1681.64	85.17	1681.64	85.455	1681.64	84.0469	1681.64	84.6544	1681.64	82.6816	1681.64	82.7648	1681.64	80.9915	1681.64	80.8442	1681.64	79.3613	1681.64	80.4045	1681.64	78.0091	1681.64	80.4699	1681.64	76.7094	1681.64	79.3993	1681.64	74.8648	1681.64	77.3806	1681.64	71.7148	1681.64	75.4447	1681.64	74.3293	1681.64	74.0782	1681.64	75.8435	1681.64	73.1238	1681.64	73.4822	1681.64	70.9115	1681.64	72.4761	1681.64	67.982	1681.64	72.4954	1681.64	72.1222	1681.64	71.6941	1681.64	73.5077	1681.64	73.1492	1681.64	70.4977	1681.64	72.233
1741.7	85.4327	1741.7	85.637	1741.7	85.3925	1741.7	85.398	1741.7	85.1671	1741.7	84.1564	1741.7	84.3185	1741.7	82.2484	1741.7	82.8098	1741.7	79.9132	1741.7	80.8048	1741.7	77.3998	1741.7	78.9966	1741.7	76.0813	1741.7	78.5054	1741.7	76.2571	1741.7	78.2818	1741.7	76.0551	1741.7	76.7931	1741.7	73.2946	1741.7	73.8343	1741.7	73.0312	1741.7	72.141	1741.7	74.469	1741.7	73.8467	1741.7	72.2258	1741.7	73.8428	1741.7	69.6123	1741.7	69.9502	1741.7	69.8614	1741.7	71.5022	1741.7	70.437	1741.7	73.7958	1741.7	72.8036	1741.7	71.3609	1741.7	71.9573
1803.22	84.8383	1803.22	84.8862	1803.22	84.9109	1803.22	84.683	1803.22	84.8283	1803.22	83.6716	1803.22	84.08	1803.22	82.0002	1803.22	82.5066	1803.22	80.0925	1803.22	80.5556	1803.22	78.1311	1803.22	78.8961	1803.22	76.0198	1803.22	77.8246	1803.22	73.7732	1803.22	76.9482	1803.22	72.9234	1803.22	75.9311	1803.22	69.5555	1803.22	74.0806	1803.22	64.2193	1803.22	71.1609	1803.22	71.2809	1803.22	70.8465	1803.22	72.7723	1803.22	72.1232	1803.22	72.6675	1803.22	70.138	1803.22	71.7684	1803.22	69.912	1803.22	68.1906	1803.22	73.1048	1803.22	69.6858	1803.22	70.4709	1803.22	69.7868
1866.21	85.1133	1866.21	84.3271	1866.21	85.6144	1866.21	83.8759	1866.21	85.0896	1866.21	83.0723	1866.21	83.7118	1866.21	81.722	1866.21	82.0806	1866.21	80.0031	1866.21	80.1446	1866.21	77.5674	1866.21	77.8137	1866.21	75.2473	1866.21	76.4771	1866.21	72.5317	1866.21	76.5752	1866.21	69.8038	1866.21	76.3206	1866.21	69.8813	1866.21	74.2567	1866.21	65.2233	1866.21	69.6067	1866.21	63.6959	1866.21	69.5945	1866.21	68.9134	1866.21	72.2068	1866.21	71.5446	1866.21	71.1999	1866.21	72.7416	1866.21	70.3155	1866.21	70.5498	1866.21	73.0566	1866.21	67.8184	1866.21	70.7039	1866.21	66.0041
1932.13	85.6509	1932.13	84.4316	1932.13	85.9122	1932.13	83.0611	1932.13	85.2061	1932.13	82.3958	1932.13	83.694	1932.13	81.2187	1932.13	81.7405	1932.13	79.0185	1932.13	79.2451	1932.13	76.2155	1932.13	76.43	1932.13	74.274	1932.13	75.34	1932.13	73.3232	1932.13	75.9593	1932.13	71.0655	1932.13	75.4383	1932.13	71.4244	1932.13	73.6714	1932.13	70.8607	1932.13	71.6679	1932.13	66.2018	1932.13	69.9818	1932.13	67.5064	1932.13	71.0431	1932.13	69.9184	1932.13	71.2153	1932.13	72.047	1932.13	69.0705	1932.13	71.2861	1932.13	71.8105	1932.13	68.4346	1932.13	70.1636	1932.13	66.1308
1999.51	85.2479	1999.51	84.3682	1999.51	85.337	1999.51	82.9722	1999.51	84.7712	1999.51	81.3336	1999.51	83.5832	1999.51	79.6117	1999.51	81.4957	1999.51	78.4108	1999.51	78.9052	1999.51	77.3114	1999.51	76.8402	1999.51	75.4217	1999.51	75.7283	1999.51	73.5521	1999.51	76.083	1999.51	72.0139	1999.51	76.7071	1999.51	73.7053	1999.51	75.9253	1999.51	74.5548	1999.51	72.7974	1999.51	72.0495	1999.51	67.8501	1999.51	70.9707	1999.51	70.1896	1999.51	69.656	1999.51	71.0639	1999.51	68.8406	1999.51	68.5838	1999.51	70.5892	1999.51	71.9946	1999.51	69.3815	1999.51	71.6209	1999.51	66.4101
2069.82	85.1929	2069.82	84.1148	2069.82	85.3046	2069.82	82.2637	2069.82	84.7606	2069.82	80.7839	2069.82	83.1859	2069.82	79.5465	2069.82	80.5438	2069.82	78.2477	2069.82	78.0878	2069.82	77.1337	2069.82	76.66	2069.82	76.2032	2069.82	75.6155	2069.82	75.89	2069.82	75.0568	2069.82	73.5158	2069.82	74.9943	2069.82	70.1182	2069.82	74.5989	2069.82	73.2939	2069.82	73.901	2069.82	72.7201	2069.82	70.9349	2069.82	71.9523	2069.82	66.6849	2069.82	72.1512	2069.82	70.3267	2069.82	69.376	2069.82	68.4327	2069.82	68.9072	2069.82	71.0156	2069.82	69.1815	2069.82	72.5881	2069.82	68.6526
2143.07	86.4308	2143.07	84.0529	2143.07	86.8002	2143.07	81.1812	2143.07	85.3766	2143.07	80.1476	2143.07	82.9852	2143.07	79.6575	2143.07	80.167	2143.07	78.7869	2143.07	77.2746	2143.07	77.8098	2143.07	75.872	2143.07	75.6125	2143.07	76.0064	2143.07	72.9785	2143.07	75.8184	2143.07	71.6568	2143.07	74.2767	2143.07	62.4889	2143.07	72.6428	2143.07	69.2273	2143.07	72.9901	2143.07	73.0734	2143.07	71.9878	2143.07	71.8545	2143.07	65.5536	2143.07	71.7457	2143.07	67.0921	2143.07	70.1744	2143.07	67.5329	2143.07	66.3627	2143.07	70.8927	2143.07	66.8983	2143.07	73.4	2143.07	68.2344
2219.24	86.1922	2219.24	84.0955	2219.24	87.1087	2219.24	82.0562	2219.24	85.8229	2219.24	80.7046	2219.24	82.5079	2219.24	79.8057	2219.24	78.6998	2219.24	78.8283	2219.24	75.4769	2219.24	77.7644	2219.24	75.1662	2219.24	76.8663	2219.24	76.5684	2219.24	75.4592	2219.24	76.8608	2219.24	74.1502	2219.24	75.1747	2219.24	72.27	2219.24	72.8482	2219.24	69.1668	2219.24	72.0182	2219.24	71.51	2219.24	71.2525	2219.24	70.3023	2219.24	64.6234	2219.24	72.0758	2219.24	68.0252	2219.24	72.3015	2219.24	69.4529	2219.24	67.1302	2219.24	72.3196	2219.24	66.3363	2219.24	74.2475	2219.24	70.1408
2296.88	85.4991	2296.88	83.7972	2296.88	86.3552	2296.88	81.5594	2296.88	85.4147	2296.88	79.2506	2296.88	82.1017	2296.88	78.5374	2296.88	77.2039	2296.88	78.9843	2296.88	74.8954	2296.88	78.2887	2296.88	75.2808	2296.88	75.7264	2296.88	76.8071	2296.88	72.9756	2296.88	77.9628	2296.88	73.254	2296.88	77.7666	2296.88	71.4109	2296.88	76.6779	2296.88	69.6127	2296.88	72.196	2296.88	73.2333	2296.88	73.0691	2296.88	70.7567	2296.88	69.0754	2296.88	70.4687	2296.88	64.8311	2296.88	71.6219	2296.88	65.559	2296.88	67.6157	2296.88	71.7067	2296.88	64.521	2296.88	73.5475	2296.88	68.2934
2378.91	86.506	2378.91	83.4581	2378.91	87.1491	2378.91	79.5701	2378.91	85.2359	2378.91	77.9794	2378.91	81.2274	2378.91	77.825	2378.91	76.8966	2378.91	78.4498	2378.91	77.3623	2378.91	78.6154	2378.91	77.5493	2378.91	78.9974	2378.91	76.6198	2378.91	78.4746	2378.91	77.754	2378.91	77.3757	2378.91	77.0504	2378.91	77.4305	2378.91	74.7712	2378.91	70.4545	2378.91	72.0923	2378.91	72.4044	2378.91	72.0332	2378.91	73.7049	2378.91	72.0372	2378.91	70.125	2378.91	67.8679	2378.91	72.581	2378.91	60.7848	2378.91	67.7492	2378.91	68.5673	2378.91	63.9269	2378.91	71.9109	2378.91	65.776
2462.4	86.666	2462.4	83.3482	2462.4	87.5433	2462.4	78.0231	2462.4	85.6636	2462.4	76.2852	2462.4	80.8113	2462.4	78.0491	2462.4	76.5681	2462.4	79.3308	2462.4	78.1436	2462.4	80.251	2462.4	78.9213	2462.4	78.7222	2462.4	76.4334	2462.4	76.694	2462.4	77.4055	2462.4	73.346	2462.4	76.9205	2462.4	69.0264	2462.4	74.2302	2462.4	72.4025	2462.4	70.8258	2462.4	69.8727	2462.4	72.673	2462.4	74.159	2462.4	71.9095	2462.4	70.7816	2462.4	70.2512	2462.4	68.8554	2462.4	63.0321	2462.4	66.5894	2462.4	69.3296	2462.4	53.2176	2462.4	73.9681	2462.4	66.962
2548.83	85.41	2548.83	82.1247	2548.83	86.2286	2548.83	76.5187	2548.83	84.8168	2548.83	74.9496	2548.83	80.4959	2548.83	79.0938	2548.83	77.3327	2548.83	80.2999	2548.83	79.2056	2548.83	79.683	2548.83	80.0869	2548.83	78.9859	2548.83	78.6565	2548.83	76.8098	2548.83	78.5966	2548.83	75.7654	2548.83	79.7793	2548.83	76.4745	2548.83	79.3425	2548.83	73.2703	2548.83	76.0883	2548.83	71.0764	2548.83	71.9095	2548.83	73.8026	2548.83	72.9091	2548.83	72.751	2548.83	70.3506	2548.83	70.418	2548.83	67.9413	2548.83	67.2659	2548.83	66.5068	2548.83	56.6957	2548.83	73.0192	2548.83	67.698
2639.65	85.2734	2639.65	81.4055	2639.65	86.1722	2639.65	75.8264	2639.65	83.7387	2639.65	75.2766	2639.65	78.9623	2639.65	78.5316	2639.65	77.5767	2639.65	78.464	2639.65	80.3509	2639.65	78.0002	2639.65	80.5722	2639.65	76.9703	2639.65	78.3713	2639.65	75.5631	2639.65	76.3251	2639.65	77.0892	2639.65	78.2519	2639.65	73.1063	2639.65	78.7288	2639.65	73.3829	2639.65	78.9856	2639.65	71.6524	2639.65	72.6351	2639.65	70.2605	2639.65	73.7906	2639.65	72.7723	2639.65	68.5738	2639.65	70.1444	2639.65	71.9473	2639.65	65.7025	2639.65	55.1133	2639.65	54.0901	2639.65	72.4653	2639.65	68.6741
2731.93	85.1709	2731.93	81.8764	2731.93	85.9329	2731.93	74.4768	2731.93	83.3625	2731.93	74.3862	2731.93	77.0918	2731.93	77.6859	2731.93	76.4341	2731.93	78.9144	2731.93	80.1245	2731.93	79.4553	2731.93	80.8324	2731.93	79.6576	2731.93	78.9961	2731.93	78.1548	2731.93	77.227	2731.93	74.9036	2731.93	78.2755	2731.93	74.4271	2731.93	77.805	2731.93	69.9972	2731.93	77.1276	2731.93	70.7409	2731.93	73.0485	2731.93	71.6487	2731.93	72.0186	2731.93	71.7213	2731.93	68.0215	2731.93	69.5612	2731.93	68.8198	2731.93	66.4583	2731.93	64.1766	2731.93	56.2479	2731.93	73.3488	2731.93	68.8676
2828.61	84.9192	2828.61	81.5498	2828.61	85.5937	2828.61	71.4665	2828.61	83.0095	2828.61	71.0394	2828.61	75.6291	2828.61	77.6498	2828.61	76.7631	2828.61	80.8528	2828.61	80.2675	2828.61	80.3359	2828.61	81.0133	2828.61	78.4512	2828.61	78.4973	2828.61	76.788	2828.61	78.0079	2828.61	76.1896	2828.61	79.3031	2828.61	74.799	2828.61	78.475	2828.61	70.4121	2828.61	78.0313	2828.61	71.4215	2828.61	72.3569	2828.61	70.9646	2828.61	72.8924	2828.61	70.4909	2828.61	68.7845	2828.61	70.6945	2828.61	69.7104	2828.61	65.0513	2828.61	56.8304	2828.61	61.4235	2828.61	72.8481	2828.61	66.2784
2928.22	84.4471	2928.22	80.3282	2928.22	85.3768	2928.22	69.9877	2928.22	82.9718	2928.22	72.0717	2928.22	75.025	2928.22	80.09	2928.22	77.5174	2928.22	81.1535	2928.22	80.5368	2928.22	80.4827	2928.22	80.9391	2928.22	79.7287	2928.22	78.1986	2928.22	77.8953	2928.22	75.7115	2928.22	74.0758	2928.22	76.8418	2928.22	73.7495	2928.22	74.1434	2928.22	74.0672	2928.22	76.2906	2928.22	70.2844	2928.22	74.2819	2928.22	71.7669	2928.22	73.0641	2928.22	71.0003	2928.22	70.7398	2928.22	69.9562	2928.22	67.6929	2928.22	61.0784	2928.22	64.427	2928.22	58.0156	2928.22	72.4544	2928.22	66.6185
3030.76	84.7333	3030.76	81.0026	3030.76	84.9606	3030.76	68.2318	3030.76	81.7716	3030.76	74.4582	3030.76	71.589	3030.76	80.1116	3030.76	78.6077	3030.76	81.4878	3030.76	81.7267	3030.76	80.8869	3030.76	81.9666	3030.76	78.8012	3030.76	80.3488	3030.76	76.4233	3030.76	77.8	3030.76	75.0602	3030.76	77.603	3030.76	73.2808	3030.76	72.9628	3030.76	72.8349	3030.76	70.351	3030.76	67.5216	3030.76	72.9673	3030.76	70.9633	3030.76	72.3785	3030.76	69.6577	3030.76	70.878	3030.76	69.4854	3030.76	67.9265	3030.76	64.4135	3030.76	57.5058	3030.76	63.3355	3030.76	72.6336	3030.76	63.3608
3137.7	84.6992	3137.7	81.0178	3137.7	84.7267	3137.7	67.6499	3137.7	81.1286	3137.7	75.3183	3137.7	67.8312	3137.7	80.4973	3137.7	79.8473	3137.7	82.0008	3137.7	82.8273	3137.7	80.6261	3137.7	82.7748	3137.7	79.2975	3137.7	81.2202	3137.7	78.202	3137.7	78.2477	3137.7	74.5315	3137.7	76.1039	3137.7	71.5819	3137.7	69.0547	3137.7	69.3936	3137.7	69.3731	3137.7	69.8173	3137.7	73.2756	3137.7	68.3085	3137.7	71.8076	3137.7	69.3256	3137.7	71.1297	3137.7	68.7177	3137.7	68.2245	3137.7	65.7072	3137.7	58.7803	3137.7	61.1878	3137.7	73.0213	3137.7	62.8287
3249.02	84.7375	3249.02	80.3361	3249.02	84.612	3249.02	70.9781	3249.02	79.8912	3249.02	75.9166	3249.02	59.8856	3249.02	81.3612	3249.02	79.9577	3249.02	81.5607	3249.02	82.7835	3249.02	80.8122	3249.02	81.9331	3249.02	78.7211	3249.02	79.3888	3249.02	75.5467	3249.02	76.7984	3249.02	74.2764	3249.02	75.0798	3249.02	74.503	3249.02	69.5964	3249.02	70.1911	3249.02	58.2506	3249.02	70.5192	3249.02	70.6658	3249.02	68.6428	3249.02	70.6628	3249.02	68.9084	3249.02	71.0861	3249.02	64.6259	3249.02	67.3222	3249.02	63.9577	3249.02	57.4229	3249.02	59.0299	3249.02	71.3082	3249.02	60.6235
3363.28	84.3375	3363.28	81.627	3363.28	84.3537	3363.28	72.2339	3363.28	79.2261	3363.28	77.7791	3363.28	66.4463	3363.28	81.3105	3363.28	80.3819	3363.28	81.9229	3363.28	82.6399	3363.28	80.135	3363.28	81.2954	3363.28	76.8015	3363.28	78.0441	3363.28	75.996	3363.28	74.2587	3363.28	75.706	3363.28	68.6898	3363.28	72.3084	3363.28	55.3938	3363.28	70.5588	3363.28	50.3799	3363.28	66.3839	3363.28	65.6732	3363.28	68.8045	3363.28	70.9519	3363.28	67.9748	3363.28	70.7496	3363.28	66.3089	3363.28	66.573	3363.28	64.4287	3363.28	58.6975	3363.28	58.7381	3363.28	69.0961	3363.28	62.2945
3481.93	84.7368	3481.93	81.4928	3481.93	84.1345	3481.93	72.1555	3481.93	78.9184	3481.93	78.7449	3481.93	68.5127	3481.93	81.779	3481.93	80.9187	3481.93	81.371	3481.93	82.4742	3481.93	79.5694	3481.93	81.2143	3481.93	77.8336	3481.93	77.1933	3481.93	75.7669	3481.93	73.7378	3481.93	71.7921	3481.93	71.9142	3481.93	69.9521	3481.93	67.1327	3481.93	72.2754	3481.93	51.4756	3481.93	67.539	3481.93	65.5703	3481.93	67.9084	3481.93	70.7711	3481.93	69.1196	3481.93	69.7648	3481.93	66.6142	3481.93	64.2322	3481.93	63.6184	3481.93	60.9783	3481.93	57.6303	3481.93	68.7148	3481.93	63.9847
3604.98	84.867	3604.98	82.1305	3604.98	83.616	3604.98	73.6403	3604.98	78.098	3604.98	79.2352	3604.98	71.83	3604.98	81.8439	3604.98	80.9305	3604.98	80.8863	3604.98	82.2181	3604.98	79.8333	3604.98	80.8872	3604.98	78.0164	3604.98	76.733	3604.98	75.3775	3604.98	73.2838	3604.98	73.3723	3604.98	73.9312	3604.98	72.3276	3604.98	70.504	3604.98	71.5544	3604.98	58.7376	3604.98	68.57	3604.98	66.1215	3604.98	67.026	3604.98	68.4667	3604.98	68.7067	3604.98	68.572	3604.98	66.5315	3604.98	63.105	3604.98	64.3202	3604.98	64.5605	3604.98	55.9442	3604.98	70.3972	3604.98	64.2398
3732.42	85.0933	3732.42	81.7175	3732.42	83.4543	3732.42	73.7516	3732.42	77.3424	3732.42	80.2222	3732.42	73.4353	3732.42	81.808	3732.42	80.0987	3732.42	81.2798	3732.42	81.4505	3732.42	79.9268	3732.42	80.5764	3732.42	77.7162	3732.42	77.9974	3732.42	75.7959	3732.42	75.1039	3732.42	73.9694	3732.42	73.312	3732.42	71.5637	3732.42	69.9066	3732.42	70.2356	3732.42	65.0629	3732.42	65.9772	3732.42	67.3688	3732.42	66.6447	3732.42	67.59	3732.42	66.9472	3732.42	68.1775	3732.42	66.2655	3732.42	60.9914	3732.42	62.738	3732.42	63.4323	3732.42	52.6177	3732.42	68.5661	3732.42	63.7443
3864.26	85.1292	3864.26	81.7824	3864.26	82.9397	3864.26	75.5931	3864.26	77.2148	3864.26	80.1224	3864.26	76.1524	3864.26	81.9177	3864.26	79.6553	3864.26	81.3752	3864.26	80.8963	3864.26	79.2857	3864.26	79.9518	3864.26	77.6174	3864.26	77.7341	3864.26	73.9159	3864.26	76.8875	3864.26	72.4395	3864.26	72.8434	3864.26	71.5459	3864.26	68.6747	3864.26	69.5931	3864.26	69.101	3864.26	68.0715	3864.26	69.1598	3864.26	63.9477	3864.26	66.1229	3864.26	65.5906	3864.26	67.9451	3864.26	64.4223	3864.26	60.7022	3864.26	60.2892	3864.26	63.7469	3864.26	50.4576	3864.26	67.1265	3864.26	62.7324
4000.49	85.3205	4000.49	81.156	4000.49	82.7569	4000.49	77.1044	4000.49	76.6192	4000.49	80.4713	4000.49	78.4114	4000.49	82.1325	4000.49	78.7855	4000.49	80.9684	4000.49	79.7971	4000.49	78.3941	4000.49	79.3135	4000.49	75.6431	4000.49	76.456	4000.49	73.2572	4000.49	74.5897	4000.49	72.0764	4000.49	68.346	4000.49	70.9489	4000.49	70.3245	4000.49	68.3005	4000.49	72.1324	4000.49	67.1561	4000.49	68.343	4000.49	64.7235	4000.49	66.3104	4000.49	65.5333	4000.49	67.9291	4000.49	65.3402	4000.49	58.3475	4000.49	60.6178	4000.49	64.93	4000.49	44.8404	4000.49	66.8161	4000.49	63.7583
4141.11	85.1859	4141.11	81.5522	4141.11	82.9101	4141.11	77.8381	4141.11	75.3509	4141.11	81.2663	4141.11	80.2956	4141.11	82.2017	4141.11	78.7168	4141.11	80.3162	4141.11	77.9627	4141.11	77.9095	4141.11	78.3424	4141.11	75.6416	4141.11	75.819	4141.11	74.0449	4141.11	75.7546	4141.11	72.5217	4141.11	68.5334	4141.11	71.637	4141.11	70.4209	4141.11	69.8417	4141.11	68.9358	4141.11	67.9141	4141.11	68.1637	4141.11	63.8236	4141.11	69.0885	4141.11	64.0231	4141.11	66.6809	4141.11	63.1136	4141.11	60.5112	4141.11	58.7513	4141.11	65.5861	4141.11	37.7445	4141.11	65.9207	4141.11	62.0917
4287.6	85.0731	4287.6	81.6791	4287.6	82.8545	4287.6	77.905	4287.6	75.5736	4287.6	81.8303	4287.6	80.7412	4287.6	81.9147	4287.6	78.9623	4287.6	79.2584	4287.6	76.2107	4287.6	76.6787	4287.6	78.0815	4287.6	75.1497	4287.6	75.328	4287.6	72.5891	4287.6	75.9429	4287.6	71.2258	4287.6	61.6198	4287.6	71.8379	4287.6	67.0072	4287.6	69.3197	4287.6	67.1711	4287.6	68.7085	4287.6	65.6456	4287.6	64.329	4287.6	69.4079	4287.6	65.6401	4287.6	66.1217	4287.6	65.1684	4287.6	61.5807	4287.6	58.7401	4287.6	64.4475	4287.6	47.9726	4287.6	66.721	4287.6	60.0182
4438.48	85.0097	4438.48	81.9442	4438.48	82.5462	4438.48	77.8845	4438.48	75.2888	4438.48	82.1397	4438.48	82.0096	4438.48	81.1904	4438.48	79.065	4438.48	78.5601	4438.48	73.9371	4438.48	77.5689	4438.48	76.7959	4438.48	75.3961	4438.48	74.5777	4438.48	74.7996	4438.48	73.5601	4438.48	72.1204	4438.48	69.0452	4438.48	70.1615	4438.48	66.8239	4438.48	68.713	4438.48	72.5219	4438.48	68.0388	4438.48	66.843	4438.48	64.1564	4438.48	65.4599	4438.48	65.1905	4438.48	65.7495	4438.48	64.0524	4438.48	53.5091	4438.48	59.0131	4438.48	62.5939	4438.48	48.1205	4438.48	64.2807	4438.48	59.97
4595.21	84.6971	4595.21	81.0925	4595.21	82.4256	4595.21	78.0332	4595.21	73.7193	4595.21	81.8885	4595.21	81.8375	4595.21	80.1894	4595.21	79.4422	4595.21	78.0026	4595.21	71.9566	4595.21	76.1644	4595.21	75.5631	4595.21	75.2122	4595.21	75.1145	4595.21	72.0086	4595.21	73.1472	4595.21	71.4509	4595.21	73.2969	4595.21	71.003	4595.21	67.9784	4595.21	67.8666	4595.21	73.2965	4595.21	66.8869	4595.21	70.0948	4595.21	63.5447	4595.21	64.6374	4595.21	65.1633	4595.21	65.5636	4595.21	65.0052	4595.21	55.2302	4595.21	59.8729	4595.21	62.2246	4595.21	52.0792	4595.21	64.9159	4595.21	59.9816
4756.35	85.0334	4756.35	80.7595	4756.35	82.8567	4756.35	79.9373	4756.35	73.4897	4756.35	81.587	4756.35	82.5058	4756.35	79.6152	4756.35	80.5274	4756.35	77.8009	4756.35	72.1446	4756.35	76.6892	4756.35	76.149	4756.35	74.6424	4756.35	75.149	4756.35	74.4679	4756.35	74.7668	4756.35	71.7553	4756.35	73.806	4756.35	69.0371	4756.35	69.8053	4756.35	68.1752	4756.35	71.7087	4756.35	66.9751	4756.35	71.19	4756.35	64.3431	4756.35	67.8413	4756.35	64.6596	4756.35	65.608	4756.35	65.5461	4756.35	60.3905	4756.35	61.3872	4756.35	65.505	4756.35	48.6929	4756.35	63.1629	4756.35	56.3272
4924.8	85.151	4924.8	80.5023	4924.8	83.1599	4924.8	80.5887	4924.8	75.4491	4924.8	81.7044	4924.8	82.3446	4924.8	79.9421	4924.8	81.4252	4924.8	78.4918	4924.8	71.6077	4924.8	77.5637	4924.8	77.1094	4924.8	76.5094	4924.8	77.3649	4924.8	73.297	4924.8	75.9052	4924.8	71.4859	4924.8	72.1824	4924.8	71.2502	4924.8	66.1669	4924.8	66.3994	4924.8	67.9254	4924.8	65.1534	4924.8	72.2691	4924.8	62.2434	4924.8	67.9669	4924.8	63.18	4924.8	63.0127	4924.8	65.3283	4924.8	59.2112	4924.8	63.0845	4924.8	64.779	4924.8	53.2291	4924.8	64.4939	4924.8	59.7773
5097.66	85.2559	5097.66	80.4662	5097.66	83.5815	5097.66	81.1472	5097.66	76.3932	5097.66	81.8364	5097.66	82.6379	5097.66	80.1777	5097.66	81.6889	5097.66	78.5557	5097.66	71.2305	5097.66	77.5925	5097.66	76.7305	5097.66	75.1699	5097.66	76.641	5097.66	72.616	5097.66	76.5476	5097.66	70.4473	5097.66	71.206	5097.66	66.7265	5097.66	67.2998	5097.66	68.3902	5097.66	69.4357	5097.66	66.1838	5097.66	71.3174	5097.66	63.5357	5097.66	67.5948	5097.66	62.7383	5097.66	64.0076	5097.66	62.7122	5097.66	58.0907	5097.66	62.9938	5097.66	61.6914	5097.66	58.1229	5097.66	64.2544	5097.66	62.8719
5277.83	85.2064	5277.83	80.4254	5277.83	83.7276	5277.83	81.4738	5277.83	77.7744	5277.83	82.0162	5277.83	82.5224	5277.83	80.12	5277.83	82.22	5277.83	78.178	5277.83	71.2143	5277.83	76.069	5277.83	77.0279	5277.83	74.1826	5277.83	77.6474	5277.83	71.3521	5277.83	77.0766	5277.83	70.1456	5277.83	70.6955	5277.83	67.9088	5277.83	68.8319	5277.83	66.4794	5277.83	70.1709	5277.83	63.6533	5277.83	66.7275	5277.83	62.8908	5277.83	68.3667	5277.83	60.5447	5277.83	64.4552	5277.83	62.9989	5277.83	59.8991	5277.83	62.2571	5277.83	63.9179	5277.83	58.1007	5277.83	61.6814	5277.83	57.2522
5463.87	85.0181	5463.87	80.3411	5463.87	83.5599	5463.87	81.6476	5463.87	79.0863	5463.87	82.428	5463.87	82.4621	5463.87	79.7993	5463.87	82.1208	5463.87	78.0801	5463.87	71.4731	5463.87	75.9803	5463.87	77.3977	5463.87	73.5198	5463.87	77.3864	5463.87	71.2514	5463.87	76.846	5463.87	68.599	5463.87	69.7567	5463.87	68.0098	5463.87	67.1547	5463.87	66.3713	5463.87	71.0599	5463.87	64.543	5463.87	64.5814	5463.87	62.8478	5463.87	68.9753	5463.87	61.4088	5463.87	67.0621	5463.87	63.3457	5463.87	58.7568	5463.87	62.8514	5463.87	64.8009	5463.87	59.3614	5463.87	63.2219	5463.87	61.3073
5657.23	84.5314	5657.23	80.1226	5657.23	83.6451	5657.23	82.3768	5657.23	79.783	5657.23	81.9703	5657.23	82.7219	5657.23	79.3501	5657.23	82.2139	5657.23	77.3999	5657.23	73.8662	5657.23	76.1702	5657.23	76.4692	5657.23	74.8018	5657.23	78.1535	5657.23	72.0961	5657.23	72.8203	5657.23	69.9638	5657.23	70.2828	5657.23	67.881	5657.23	68.3632	5657.23	67.0099	5657.23	69.6266	5657.23	64.3419	5657.23	64.397	5657.23	64.4716	5657.23	67.7383	5657.23	62.4536	5657.23	66.2015	5657.23	63.9856	5657.23	49.7446	5657.23	61.9341	5657.23	62.6632	5657.23	60.8999	5657.23	60.822	5657.23	61.6931
5856.45	84.5912	5856.45	80.2024	5856.45	84.0727	5856.45	82.6681	5856.45	80.7771	5856.45	81.4475	5856.45	82.9625	5856.45	78.7272	5856.45	82.3321	5856.45	77.2284	5856.45	74.4448	5856.45	76.7703	5856.45	76.0355	5856.45	74.0561	5856.45	77.3834	5856.45	71.209	5856.45	73.7352	5856.45	69.2711	5856.45	71.7871	5856.45	66.7642	5856.45	65.412	5856.45	64.8619	5856.45	63.8558	5856.45	63.4493	5856.45	66.6183	5856.45	62.1333	5856.45	66.3319	5856.45	61.9927	5856.45	59.3619	5856.45	64.0304	5856.45	57.825	5856.45	62.9211	5856.45	63.3887	5856.45	55.8032	5856.45	61.8634	5856.45	59.6905
6062.99	84.4454	6062.99	80.791	6062.99	83.7007	6062.99	82.9126	6062.99	81.748	6062.99	81.4441	6062.99	83.0754	6062.99	78.1633	6062.99	82.4001	6062.99	78.7154	6062.99	74.5308	6062.99	76.2868	6062.99	76.2445	6062.99	73.942	6062.99	77.0534	6062.99	67.5028	6062.99	73.8059	6062.99	65.4177	6062.99	70.4169	6062.99	63.6506	6062.99	58.7196	6062.99	62.8188	6062.99	66.6641	6062.99	61.1919	6062.99	63.3931	6062.99	58.8779	6062.99	66.43	6062.99	58.4071	6062.99	61.4501	6062.99	62.464	6062.99	53.2158	6062.99	63.0154	6062.99	62.9761	6062.99	60.9888	6062.99	61.5784	6062.99	62.1005
6276.86	84.4975	6276.86	81.5438	6276.86	84.1177	6276.86	83.0957	6276.86	82.0789	6276.86	81.1001	6276.86	83.0007	6276.86	79.4829	6276.86	82.3062	6276.86	78.7263	6276.86	75.324	6276.86	75.9769	6276.86	73.7449	6276.86	70.8599	6276.86	75.9841	6276.86	69.1588	6276.86	74.3965	6276.86	67.1407	6276.86	69.6344	6276.86	64.8937	6276.86	55.9951	6276.86	63.271	6276.86	65.9516	6276.86	63.1286	6276.86	58.5166	6276.86	60.797	6276.86	60.1731	6276.86	56.2371	6276.86	61.516	6276.86	63.8391	6276.86	60.4159	6276.86	63.6164	6276.86	63.2635	6276.86	62.1337	6276.86	61.9046	6276.86	63.1512
6498.05	85.0317	6498.05	82.1593	6498.05	83.8316	6498.05	83.526	6498.05	82.698	6498.05	81.3746	6498.05	83.0214	6498.05	80.4058	6498.05	81.5736	6498.05	78.3695	6498.05	76.5496	6498.05	75.1067	6498.05	71.1277	6498.05	72.0578	6498.05	73.6722	6498.05	70.0795	6498.05	75.0449	6498.05	67.4214	6498.05	68.8621	6498.05	66.6807	6498.05	53.6184	6498.05	64.7097	6498.05	64.7455	6498.05	63.7245	6498.05	54.8075	6498.05	62.3323	6498.05	61.1438	6498.05	61.4443	6498.05	62.0949	6498.05	63.7042	6498.05	60.4373	6498.05	64.9958	6498.05	59.3514	6498.05	62.8837	6498.05	60.4761	6498.05	62.0452
6726.56	85.4248	6726.56	81.7247	6726.56	83.7319	6726.56	84.1097	6726.56	82.5331	6726.56	81.3027	6726.56	82.6948	6726.56	80.4316	6726.56	81.3633	6726.56	77.5437	6726.56	76.6707	6726.56	75.0661	6726.56	68.3609	6726.56	73.0723	6726.56	74.2489	6726.56	71.4576	6726.56	74.0968	6726.56	68.7313	6726.56	69.4257	6726.56	66.8665	6726.56	47.5605	6726.56	64.3384	6726.56	65.4839	6726.56	62.7641	6726.56	54.2184	6726.56	61.5723	6726.56	60.4816	6726.56	61.4062	6726.56	61.9246	6726.56	64.5682	6726.56	58.4174	6726.56	64.4375	6726.56	57.7943	6726.56	64.4013	6726.56	57.7865	6726.56	59.841
6963.87	85.0114	6963.87	82.2737	6963.87	84.3494	6963.87	84.0714	6963.87	81.8728	6963.87	81.0431	6963.87	82.4972	6963.87	79.945	6963.87	81.1957	6963.87	76.1927	6963.87	77.603	6963.87	74.7389	6963.87	69.0491	6963.87	72.5136	6963.87	73.8556	6963.87	69.6555	6963.87	71.9998	6963.87	68.4362	6963.87	69.6505	6963.87	64.8758	6963.87	53.311	6963.87	63.8797	6963.87	62.413	6963.87	62.1521	6963.87	58.8093	6963.87	59.7281	6963.87	60.5056	6963.87	59.4008	6963.87	61.9532	6963.87	64.3538	6963.87	55.2625	6963.87	63.9139	6963.87	58.8638	6963.87	60.5074	6963.87	61.3821	6963.87	61.0074
7209.96	84.6477	7209.96	83.7235	7209.96	85.1637	7209.96	83.8661	7209.96	82.0172	7209.96	81.5835	7209.96	82.7092	7209.96	78.7611	7209.96	81.2648	7209.96	75.5897	7209.96	78.6055	7209.96	74.3457	7209.96	69.5386	7209.96	72.5571	7209.96	74.1133	7209.96	69.3219	7209.96	71.9572	7209.96	67.0018	7209.96	71.2366	7209.96	65.1666	7209.96	54.9479	7209.96	63.6279	7209.96	60.0907	7209.96	62.6884	7209.96	52.7774	7209.96	59.2292	7209.96	62.5438	7209.96	57.9586	7209.96	59.8458	7209.96	64.9327	7209.96	49.3726	7209.96	62.9824	7209.96	58.2875	7209.96	63.751	7209.96	51.6007	7209.96	59.8482
7464.84	84.6954	7464.84	84.8178	7464.84	85.6889	7464.84	84.4291	7464.84	82.6195	7464.84	81.8482	7464.84	82.9058	7464.84	78.4532	7464.84	81.1328	7464.84	76.3168	7464.84	79.0025	7464.84	75.1506	7464.84	70.9346	7464.84	72.2228	7464.84	71.9169	7464.84	70.2228	7464.84	69.1253	7464.84	66.061	7464.84	66.3602	7464.84	65.9557	7464.84	59.6136	7464.84	63.047	7464.84	50.9591	7464.84	62.4374	7464.84	49.663	7464.84	58.2671	7464.84	61.158	7464.84	59.918	7464.84	57.52	7464.84	62.3139	7464.84	56.1466	7464.84	63.9083	7464.84	58.934	7464.84	61.2263	7464.84	58.0178	7464.84	59.3175
7727.05	85.1206	7727.05	85.6459	7727.05	85.8762	7727.05	84.9381	7727.05	83.6234	7727.05	82.2409	7727.05	83.2339	7727.05	79.1719	7727.05	80.8173	7727.05	76.5041	7727.05	79.0714	7727.05	74.7781	7727.05	68.5878	7727.05	72.0353	7727.05	72.8254	7727.05	69.9825	7727.05	71.162	7727.05	67.6656	7727.05	65.1861	7727.05	65.7566	7727.05	48.3111	7727.05	63.4325	7727.05	54.9011	7727.05	62.5001	7727.05	54.3646	7727.05	56.732	7727.05	60.0129	7727.05	57.6108	7727.05	55.1548	7727.05	62.1953	7727.05	56.0263	7727.05	63.3419	7727.05	59.1996	7727.05	61.5343	7727.05	56.442	7727.05	59.9076
7999.51	85.8074	7999.51	86.0285	7999.51	85.9921	7999.51	85.3137	7999.51	84.0094	7999.51	82.5361	7999.51	83.4835	7999.51	79.4695	7999.51	80.6423	7999.51	76.5385	7999.51	79.3996	7999.51	75.0446	7999.51	69.6979	7999.51	72.7765	7999.51	71.9245	7999.51	69.7841	7999.51	71.446	7999.51	68.5459	7999.51	67.9888	7999.51	65.5339	7999.51	57.1864	7999.51	63.7291	7999.51	56.7153	7999.51	61.8743	7999.51	48.1677	7999.51	56.9129	7999.51	63.123	7999.51	56.0535	7999.51	52.3432	7999.51	61.7004	7999.51	54.4822	7999.51	63.3102	7999.51	57.7065	7999.51	61.618	7999.51	57.0713	7999.51	59.9522
8282.23	86.2171	8282.23	86.2747	8282.23	86.3165	8282.23	85.3288	8282.23	84.2413	8282.23	82.7504	8282.23	83.32	8282.23	79.4098	8282.23	80.4656	8282.23	76.9121	8282.23	79.3378	8282.23	75.137	8282.23	72.4123	8282.23	71.9063	8282.23	70.3278	8282.23	69.6101	8282.23	70.7873	8282.23	67.1788	8282.23	67.1197	8282.23	63.7516	8282.23	61.6277	8282.23	62.3704	8282.23	56.1223	8282.23	61.1271	8282.23	47.0299	8282.23	55.7781	8282.23	62.0952	8282.23	54.0634	8282.23	49.8032	8282.23	59.5054	8282.23	54.8389	8282.23	61.8232	8282.23	57.3341	8282.23	60.7429	8282.23	57.2155	8282.23	58.3441
8573.73	86.4515	8573.73	86.4772	8573.73	86.4902	8573.73	85.1264	8573.73	84.3741	8573.73	82.6797	8573.73	83.4081	8573.73	79.0612	8573.73	80.5201	8573.73	77.3541	8573.73	78.6928	8573.73	74.2918	8573.73	72.3527	8573.73	70.5004	8573.73	68.8248	8573.73	67.745	8573.73	68.6789	8573.73	63.5028	8573.73	66.6167	8573.73	61.0685	8573.73	64.5926	8573.73	59.7855	8573.73	51.3112	8573.73	60.1811	8573.73	48.3063	8573.73	53.0233	8573.73	56.8851	8573.73	54.1929	8573.73	51.1894	8573.73	55.0983	8573.73	56.4299	8573.73	58.5363	8573.73	54.0215	8573.73	59.0145	8573.73	57.4407	8573.73	57.7872
8876.95	86.0351	8876.95	86.2495	8876.95	86.3855	8876.95	84.5872	8876.95	84.1109	8876.95	82.1174	8876.95	83.0002	8876.95	79.3792	8876.95	79.8993	8876.95	76.8345	8876.95	77.8512	8876.95	73.7821	8876.95	72.9724	8876.95	68.1905	8876.95	67.7125	8876.95	68.1263	8876.95	66.2555	8876.95	63.9804	8876.95	65.9451	8876.95	64.1773	8876.95	63.7902	8876.95	61.9615	8876.95	50.0307	8876.95	61.953	8876.95	45.9784	8876.95	57.3518	8876.95	56.3012	8876.95	59.2819	8876.95	50.5515	8876.95	49.5964	8876.95	53.7675	8876.95	56.6282	8876.95	51.5223	8876.95	56.5247	8876.95	56.1651	8876.95	55.4832
9188.96	85.5378	9188.96	85.5599	9188.96	85.6699	9188.96	83.8251	9188.96	83.3123	9188.96	81.7557	9188.96	82.2525	9188.96	80.3258	9188.96	79.295	9188.96	77.1574	9188.96	77.8888	9188.96	75.2842	9188.96	72.5208	9188.96	71.1103	9188.96	66.4574	9188.96	71.1965	9188.96	68.9414	9188.96	67.9189	9188.96	64.8431	9188.96	66.0779	9188.96	64.0186	9188.96	64.5647	9188.96	58.6985	9188.96	62.9546	9188.96	49.2487	9188.96	59.801	9188.96	60.1501	9188.96	61.4744	9188.96	47.5432	9188.96	53.5178	9188.96	45.3141	9188.96	58.0433	9188.96	56.7124	9188.96	58.5532	9188.96	52.686	9188.96	56.2462
9514.16	85.6482	9514.16	85.4131	9514.16	85.5737	9514.16	83.514	9514.16	83.0414	9514.16	82.6106	9514.16	82.042	9514.16	80.6905	9514.16	79.2609	9514.16	78.5439	9514.16	77.6122	9514.16	75.5287	9514.16	71.6055	9514.16	72.4419	9514.16	65.1369	9514.16	70.131	9514.16	67.9754	9514.16	67.4825	9514.16	63.2789	9514.16	65.3538	9514.16	63.7588	9514.16	63.8612	9514.16	58.7929	9514.16	62.0294	9514.16	49.2191	9514.16	57.9342	9514.16	58.9912	9514.16	60.0513	9514.16	51.4619	9514.16	54.0585	9514.16	52.7887	9514.16	58.331	9514.16	54.4055	9514.16	58.1395	9514.16	46.4956	9514.16	55.09
9849.61	86.4279	9849.61	85.8308	9849.61	85.8822	9849.61	84.2167	9849.61	83.4102	9849.61	82.9641	9849.61	81.7032	9849.61	81.0696	9849.61	78.8942	9849.61	78.4068	9849.61	76.6057	9849.61	75.3591	9849.61	71.088	9849.61	71.9043	9849.61	59.4931	9849.61	69.8577	9849.61	65.5727	9849.61	67.099	9849.61	59.1329	9849.61	63.7947	9849.61	61.5076	9849.61	63.0833	9849.61	56.4408	9849.61	61.5589	9849.61	42.2698	9849.61	57.6748	9849.61	51.3353	9849.61	58.9925	9849.61	52.5597	9849.61	53.5399	9849.61	51.4633	9849.61	57.7414	9849.61	52.13	9849.61	56.3135	9849.61	48.9829	9849.61	54.0734
10196.8	87.0544	10196.8	86.206	10196.8	85.9733	10196.8	84.8119	10196.8	83.6731	10196.8	83.1891	10196.8	81.4899	10196.8	81.3125	10196.8	78.2627	10196.8	78.0573	10196.8	75.1781	10196.8	75.4534	10196.8	69.7327	10196.8	71.4259	10196.8	62.6479	10196.8	69.5817	10196.8	66.3933	10196.8	65.8222	10196.8	57.2887	10196.8	63.4414	10196.8	59.1584	10196.8	62.177	10196.8	57.9545	10196.8	60.1257	10196.8	48.5743	10196.8	56.975	10196.8	46.5576	10196.8	58.5023	10196.8	53.0787	10196.8	49.9667	10196.8	50.6775	10196.8	55.9432	10196.8	51.7838	10196.8	56.066	10196.8	49.335	10196.8	53.9405
10555.7	87.4286	10555.7	86.4428	10555.7	86.3024	10555.7	84.851	10555.7	83.7836	10555.7	83.328	10555.7	81.6386	10555.7	80.7126	10555.7	77.8623	10555.7	77.711	10555.7	75.664	10555.7	74.6468	10555.7	70.9805	10555.7	70.7793	10555.7	65.8384	10555.7	67.8391	10555.7	67.2005	10555.7	65.3609	10555.7	61.5142	10555.7	61.2874	10555.7	52.3258	10555.7	60.5037	10555.7	56.6413	10555.7	58.6886	10555.7	48.7724	10555.7	54.9687	10555.7	50.3872	10555.7	57.836	10555.7	51.5508	10555.7	51.3637	10555.7	50.2042	10555.7	54.6973	10555.7	47.021	10555.7	53.6135	10555.7	49.4491	10555.7	52.0969
10927.7	87.1697	10927.7	86.154	10927.7	86.4003	10927.7	84.9318	10927.7	83.9224	10927.7	83.1832	10927.7	81.7974	10927.7	79.7502	10927.7	78.7645	10927.7	77.1465	10927.7	75.7662	10927.7	73.4386	10927.7	72.111	10927.7	70.1191	10927.7	64.7276	10927.7	65.7164	10927.7	65.4889	10927.7	62.8697	10927.7	60.8506	10927.7	59.6968	10927.7	55.0409	10927.7	59.4375	10927.7	56.8532	10927.7	56.7443	10927.7	39.6628	10927.7	54.8689	10927.7	45.4592	10927.7	55.2614	10927.7	53.639	10927.7	51.1812	10927.7	49.6722	10927.7	53.64	10927.7	46.3486	10927.7	48.8296	10927.7	50.8367	10927.7	48.7681
11313	87.3583	11313	86.1715	11313	86.5514	11313	85.1812	11313	84.1546	11313	82.9153	11313	81.8914	11313	79.6973	11313	79.1546	11313	76.4475	11313	75.3311	11313	72.6086	11313	71.9444	11313	67.1118	11313	62.2712	11313	64.5382	11313	63.8256	11313	61.0115	11313	57.4429	11313	58.9632	11313	45.4143	11313	56.8055	11313	58.3392	11313	55.1882	11313	45.8831	11313	53.4609	11313	49.1425	11313	52.9562	11313	51.5841	11313	52.7371	11313	46.2865	11313	52.1392	11313	43.9903	11313	46.3831	11313	50.8401	11313	47.9233
11712.9	87.3793	11712.9	86.591	11712.9	86.8884	11712.9	85.1788	11712.9	84.0561	11712.9	82.7672	11712.9	81.7779	11712.9	78.7507	11712.9	79.0389	11712.9	75.7638	11712.9	74.3388	11712.9	70.257	11712.9	70.2182	11712.9	66.0641	11712.9	62.6813	11712.9	61.9492	11712.9	63.4406	11712.9	59.4388	11712.9	54.0321	11712.9	54.8589	11712.9	41.2761	11712.9	55.0002	11712.9	58.7473	11712.9	52.7363	11712.9	43.4905	11712.9	50.1143	11712.9	54.0009	11712.9	52.1352	11712.9	51.6197	11712.9	51.9027	11712.9	47.1203	11712.9	50.9247	11712.9	47.2104	11712.9	41.8192	11712.9	48.6331	11712.9	48.4477
12126	87.778	12126	86.7573	12126	87.191	12126	85.084	12126	84.1177	12126	82.151	12126	81.5633	12126	78.3569	12126	78.3885	12126	74.7012	12126	73.3499	12126	68.5749	12126	67.7092	12126	63.2487	12126	61.0752	12126	61.4374	12126	59.4988	12126	57.9626	12126	53.886	12126	55.316	12126	49.4084	12126	53.8457	12126	56.6944	12126	50.4478	12126	35.7136	12126	50.535	12126	46.4929	12126	51.8496	12126	45.1473	12126	51.0384	12126	45.5581	12126	49.3852	12126	42.643	12126	36.8784	12126	49.9679	12126	46.9776
12553.7	87.6448	12553.7	86.7771	12553.7	87.2445	12553.7	84.9493	12553.7	84.1714	12553.7	81.5869	12553.7	81.271	12553.7	77.6576	12553.7	77.642	12553.7	74.1305	12553.7	72.9755	12553.7	67.1831	12553.7	66.1576	12553.7	63.7055	12553.7	61.0178	12553.7	60.5175	12553.7	56.9061	12553.7	58.4049	12553.7	49.512	12553.7	54.6165	12553.7	50.9051	12553.7	53.1592	12553.7	54.7703	12553.7	49.6748	12553.7	41.1788	12553.7	49.7232	12553.7	51.7794	12553.7	50.3835	12553.7	49.9624	12553.7	50.5527	12553.7	47.7097	12553.7	47.7892	12553.7	42.3179	12553.7	39.2943	12553.7	48.225	12553.7	44.5821
12996.1	87.6763	12996.1	86.9098	12996.1	87.1564	12996.1	84.9517	12996.1	84.2567	12996.1	81.4473	12996.1	80.8664	12996.1	77.1543	12996.1	77.038	12996.1	73.5568	12996.1	72.006	12996.1	66.3622	12996.1	65.4452	12996.1	63.0347	12996.1	60.9438	12996.1	58.6947	12996.1	56.2936	12996.1	55.2018	12996.1	48.4382	12996.1	50.895	12996.1	46.8731	12996.1	50.5354	12996.1	52.4804	12996.1	45.7551	12996.1	28.9725	12996.1	46.4064	12996.1	50.3436	12996.1	46.8972	12996.1	47.7953	12996.1	46.2994	12996.1	48.9754	12996.1	44.952	12996.1	32.3128	12996.1	32.2351	12996.1	48.5262	12996.1	41.861
13454.6	87.6389	13454.6	86.8968	13454.6	86.8403	13454.6	84.965	13454.6	84.036	13454.6	81.4454	13454.6	80.4852	13454.6	76.2122	13454.6	76.4052	13454.6	72.8445	13454.6	70.5928	13454.6	65.7876	13454.6	65.6483	13454.6	60.0863	13454.6	59.1127	13454.6	53.9854	13454.6	53.2052	13454.6	49.1278	13454.6	45.4677	13454.6	42.605	13454.6	44.0834	13454.6	40.3977	13454.6	50.3649	13454.6	36.9088	13454.6	43.481	13454.6	38.6289	13454.6	48.9935	13454.6	40.6474	13454.6	48.9265	13454.6	44.8005	13454.6	48.7027	13454.6	37.0152	13454.6	31.7397	13454.6	39.8752	13454.6	50.1136	13454.6	35.2498
13929.2	87.7586	13929.2	87.0453	13929.2	86.9858	13929.2	84.9564	13929.2	83.7009	13929.2	81.188	13929.2	80.1691	13929.2	75.4291	13929.2	75.2775	13929.2	70.9951	13929.2	68.7443	13929.2	63.8948	13929.2	61.4422	13929.2	56.3557	13929.2	56.2738	13929.2	50.6787	13929.2	49.7819	13929.2	45.4929	13929.2	39.5892	13929.2	45.265	13929.2	34.6865	13929.2	36.317	13929.2	49.6609	13929.2	37.3476	13929.2	41.3087	13929.2	31.8134	13929.2	47.577	13929.2	32.9241	13929.2	49.1561	13929.2	22.4756	13929.2	50.3781	13929.2	42.7107	13929.2	37.6478	13929.2	40.732	13929.2	50.474	13929.2	26.1312
14419.9	88.0388	14419.9	87.1454	14419.9	87.1756	14419.9	84.7105	14419.9	83.6061	14419.9	80.7577	14419.9	79.8076	14419.9	73.6863	14419.9	74.2149	14419.9	66.1412	14419.9	63.9065	14419.9	61.616	14419.9	57.7697	14419.9	57.5552	14419.9	58.0982	14419.9	59.6048	14419.9	54.1875	14419.9	57.5162	14419.9	47.4055	14419.9	55.029	14419.9	46.8381	14419.9	52.7825	14419.9	48.2248	14419.9	49.7055	14419.9	31.0899	14419.9	45.7161	14419.9	43.1809	14419.9	47.5064	14419.9	46.9016	14419.9	45.9426	14419.9	49.0589	14419.9	50.2851	14419.9	37.6296	14419.9	48.1476	14419.9	50.6493	14419.9	36.4816
14928.2	88.2808	14928.2	87.351	14928.2	87.5697	14928.2	84.4988	14928.2	83.5227	14928.2	80.2871	14928.2	79.8254	14928.2	71.0775	14928.2	72.4873	14928.2	54.5779	14928.2	57.6098	14928.2	62.2112	14928.2	60.0553	14928.2	62.5199	14928.2	63.6122	14928.2	63.2753	14928.2	56.4796	14928.2	61.3077	14928.2	51.6752	14928.2	58.6283	14928.2	55.0279	14928.2	56.8154	14928.2	53.5662	14928.2	52.4477	14928.2	42.1251	14928.2	49.7176	14928.2	38.8502	14928.2	51.1182	14928.2	35.1714	14928.2	50.4396	14928.2	47.7055	14928.2	52.8254	14928.2	42.2536	14928.2	48.4595	14928.2	49.2028	14928.2	40.0263
15455.6	87.9948	15455.6	87.121	15455.6	87.2262	15455.6	84.5178	15455.6	83.7588	15455.6	79.8638	15455.6	79.0605	15455.6	70.7724	15455.6	71.9014	15455.6	63.6337	15455.6	63.6425	15455.6	62.7201	15455.6	58.8681	15455.6	63.1756	15455.6	62.3223	15455.6	63.1012	15455.6	56.7849	15455.6	61.5712	15455.6	52.8895	15455.6	58.215	15455.6	56.654	15455.6	56.5798	15455.6	56.2605	15455.6	51.8465	15455.6	44.3104	15455.6	48.9969	15455.6	44.2816	15455.6	50.7315	15455.6	45.5861	15455.6	49.4274	15455.6	44.5299	15455.6	51.229	15455.6	45.4455	15455.6	45.9073	15455.6	45.9754	15455.6	33.9414
16000.5	87.3247	16000.5	86.803	16000.5	86.7102	16000.5	84.2991	16000.5	83.3752	16000.5	79.4724	16000.5	78.5189	16000.5	70.3617	16000.5	72.2941	16000.5	62.5473	16000.5	62.4868	16000.5	63.0868	16000.5	52.0946	16000.5	62.5531	16000.5	58.5317	16000.5	62.6972	16000.5	55.4171	16000.5	59.6681	16000.5	49.4549	16000.5	57.6895	16000.5	55.3574	16000.5	55.0461	16000.5	55.924	16000.5	50.2045	16000.5	41.532	16000.5	48.3953	16000.5	46.1706	16000.5	47.7865	16000.5	47.5174	16000.5	47.8763	16000.5	46.7296	16000.5	49.1783	16000.5	44.0723	16000.5	44.0483	16000.5	45.2175	16000.5	37.3568
16564.5	87.0922	16564.5	86.4324	16564.5	86.5237	16564.5	83.6181	16564.5	82.9452	16564.5	78.4477	16564.5	77.8559	16564.5	68.4416	16564.5	71.2886	16564.5	57.6565	16564.5	58.2944	16564.5	62.412	16564.5	57.6373	16564.5	60.9476	16564.5	59.6249	16564.5	60.439	16564.5	54.0311	16564.5	57.5119	16564.5	42.7752	16564.5	54.8752	16564.5	52.1385	16564.5	53.132	16564.5	53.503	16564.5	48.6025	16564.5	37.2561	16564.5	45.95	16564.5	41.705	16564.5	45.6495	16564.5	44.2399	16564.5	45.1736	16564.5	45.2249	16564.5	44.68	16564.5	43.5747	16564.5	35.1206	16564.5	43.2843	16564.5	35.9403
17148.9	87.132	17148.9	86.1762	17148.9	86.5267	17148.9	82.7702	17148.9	82.4049	17148.9	76.8769	17148.9	76.4852	17148.9	65.8614	17148.9	68.3964	17148.9	50.3316	17148.9	56.1414	17148.9	60.0619	17148.9	58.5315	17148.9	57.6567	17148.9	58.9231	17148.9	57.158	17148.9	53.2392	17148.9	52.9626	17148.9	43.6424	17148.9	50.5295	17148.9	48.5441	17148.9	48.1202	17148.9	52.3811	17148.9	43.4059	17148.9	30.6403	17148.9	41.3179	17148.9	39.6036	17148.9	42.026	17148.9	43.1181	17148.9	40.6617	17148.9	42.1855	17148.9	37.0546	17148.9	42.1516	17148.9	36.6203	17148.9	42.0583	17148.9	34.8221
17752.4	86.912	17752.4	85.9129	17752.4	86.2998	17752.4	81.9801	17752.4	81.6552	17752.4	75.3876	17752.4	74.7901	17752.4	62.2258	17752.4	64.3649	17752.4	41.152	17752.4	58.5108	17752.4	59.1867	17752.4	60.5181	17752.4	54.3912	17752.4	57.919	17752.4	54.9626	17752.4	51.4057	17752.4	49.6751	17752.4	41.2397	17752.4	47.9832	17752.4	46.5964	17752.4	43.0095	17752.4	53.4118	17752.4	39.2266	17752.4	32.9608	17752.4	38.8424	17752.4	38.4015	17752.4	38.0165	17752.4	42.6844	17752.4	31.4911	17752.4	41.2498	17752.4	34.1089	17752.4	42.1123	17752.4	39.7516	17752.4	43.486	17752.4	37.8794
18379.4	86.4449	18379.4	85.4458	18379.4	85.7687	18379.4	81.0097	18379.4	80.7545	18379.4	73.7639	18379.4	73.1163	18379.4	56.5526	18379.4	61.0517	18379.4	51.5272	18379.4	59.4284	18379.4	58.387	18379.4	60.2869	18379.4	54.157	18379.4	56.3595	18379.4	52.335	18379.4	51.4123	18379.4	46.446	18379.4	40.1213	18379.4	44.3787	18379.4	43.8712	18379.4	40.7566	18379.4	52.9337	18379.4	37.1447	18379.4	36.312	18379.4	35.3455	18379.4	37.7094	18379.4	35.0245	18379.4	41.5376	18379.4	19.4156	18379.4	39.8858	18379.4	25.6985	18379.4	41.3304	18379.4	42.5446	18379.4	45.2988	18379.4	40.9259
19026.9	86.0862	19026.9	85.0663	19026.9	85.2441	19026.9	80.1793	19026.9	79.7165	19026.9	72.4794	19026.9	71.3193	19026.9	52.0205	19026.9	58.7694	19026.9	55.8869	19026.9	61.0012	19026.9	57.8712	19026.9	57.5198	19026.9	53.0634	19026.9	55.3387	19026.9	50.1269	19026.9	47.8827	19026.9	44.2833	19026.9	39.5778	19026.9	38.1543	19026.9	41.734	19026.9	37.557	19026.9	51.3883	19026.9	32.4262	19026.9	43.4002	19026.9	28.6973	19026.9	32.3954	19026.9	23.4826	19026.9	38.7529	19026.9	19.3883	19026.9	36.8743	19026.9	29.7299	19026.9	40.851	19026.9	42.838	19026.9	45.6941	19026.9	42.4881
19697.8	86.1783	19697.8	84.9761	19697.8	85.1707	19697.8	79.4116	19697.8	78.9429	19697.8	70.8082	19697.8	69.3545	19697.8	54.0774	19697.8	59.4489	19697.8	59.4358	19697.8	61.0101	19697.8	57.0036	19697.8	58.5606	19697.8	50.9021	19697.8	53.9729	19697.8	42.6246	19697.8	45.8575	19697.8	39.6654	19697.8	43.8474	19697.8	35.3462	19697.8	40.0916	19697.8	34.3917	19697.8	52.7596	19697.8	27.6645	19697.8	46.6433	19697.8	27.7184	19697.8	25.6841	19697.8	27.2664	19697.8	33.6971	19697.8	29.2303	19697.8	34.0381	19697.8	35.9287	19697.8	41.2659	19697.8	44.3235	19697.8	44.6878	19697.8	42.9218
19999.5	86.506	19999.5	85.0206	19999.5	85.23	19999.5	79.086	19999.5	79.0515	19999.5	69.9967	19999.5	67.3932	19999.5	56.9101	19999.5	58.6106	19999.5	60.6536	19999.5	61.3333	19999.5	54.7838	19999.5	58.746	19999.5	53.0175	19999.5	53.3262	19999.5	46.2484	19999.5	48.685	19999.5	44.8308	19999.5	46.9832	19999.5	36.6623	19999.5	47.8122	19999.5	40.2518	19999.5	55.6735	19999.5	33.2261	19999.5	46.689	19999.5	43.6333	19999.5	45.2372	19999.5	40.1588	19999.5	46.4764	19999.5	45.9453	19999.5	47.3721	19999.5	42.5284	19999.5	48.548	19999.5	51.9967	19999.5	26.4151	19999.5	38.9057
