"SPL Vertical"
"On-Axis"		"10°"		"-10°"		"20°"		"-20°"		"30°"		"-30°"		"40°"		"-40°"		"50°"		"-50°"		"60°"		"-60°"		"70°"		"-70°"		"80°"		"-80°"		"90°"		"-90°"		"100°"		"-100°"		"110°"		"-110°"		"120°"		"-120°"		"130°"		"-130°"		"140°"		"-140°"		"150°"		"-150°"		"160°"		"-160°"		"170°"		"-170°"		"180°"
"Frequency [Hz]"	"Sound Pessure Level [dB]  / [2.83V 1m] "	"Frequency [Hz]"	"Sound Pessure Level [dB]  / [2.83V 1m] "	"Frequency [Hz]"	"Sound Pessure Level [dB]  / [2.83V 1m] "	"Frequency [Hz]"	"Sound Pessure Level [dB]  / [2.83V 1m] "	"Frequency [Hz]"	"Sound Pessure Level [dB]  / [2.83V 1m] "	"Frequency [Hz]"	"Sound Pessure Level [dB]  / [2.83V 1m] "	"Frequency [Hz]"	"Sound Pessure Level [dB]  / [2.83V 1m] "	"Frequency [Hz]"	"Sound Pessure Level [dB]  / [2.83V 1m] "	"Frequency [Hz]"	"Sound Pessure Level [dB]  / [2.83V 1m] "	"Frequency [Hz]"	"Sound Pessure Level [dB]  / [2.83V 1m] "	"Frequency [Hz]"	"Sound Pessure Level [dB]  / [2.83V 1m] "	"Frequency [Hz]"	"Sound Pessure Level [dB]  / [2.83V 1m] "	"Frequency [Hz]"	"Sound Pessure Level [dB]  / [2.83V 1m] "	"Frequency [Hz]"	"Sound Pessure Level [dB]  / [2.83V 1m] "	"Frequency [Hz]"	"Sound Pessure Level [dB]  / [2.83V 1m] "	"Frequency [Hz]"	"Sound Pessure Level [dB]  / [2.83V 1m] "	"Frequency [Hz]"	"Sound Pessure Level [dB]  / [2.83V 1m] "	"Frequency [Hz]"	"Sound Pessure Level [dB]  / [2.83V 1m] "	"Frequency [Hz]"	"Sound Pessure Level [dB]  / [2.83V 1m] "	"Frequency [Hz]"	"Sound Pessure Level [dB]  / [2.83V 1m] "	"Frequency [Hz]"	"Sound Pessure Level [dB]  / [2.83V 1m] "	"Frequency [Hz]"	"Sound Pessure Level [dB]  / [2.83V 1m] "	"Frequency [Hz]"	"Sound Pessure Level [dB]  / [2.83V 1m] "	"Frequency [Hz]"	"Sound Pessure Level [dB]  / [2.83V 1m] "	"Frequency [Hz]"	"Sound Pessure Level [dB]  / [2.83V 1m] "	"Frequency [Hz]"	"Sound Pessure Level [dB]  / [2.83V 1m] "	"Frequency [Hz]"	"Sound Pessure Level [dB]  / [2.83V 1m] "	"Frequency [Hz]"	"Sound Pessure Level [dB]  / [2.83V 1m] "	"Frequency [Hz]"	"Sound Pessure Level [dB]  / [2.83V 1m] "	"Frequency [Hz]"	"Sound Pessure Level [dB]  / [2.83V 1m] "	"Frequency [Hz]"	"Sound Pessure Level [dB]  / [2.83V 1m] "	"Frequency [Hz]"	"Sound Pessure Level [dB]  / [2.83V 1m] "	"Frequency [Hz]"	"Sound Pessure Level [dB]  / [2.83V 1m] "	"Frequency [Hz]"	"Sound Pessure Level [dB]  / [2.83V 1m] "	"Frequency [Hz]"	"Sound Pessure Level [dB]  / [2.83V 1m] "	"Frequency [Hz]"	"Sound Pessure Level [dB]  / [2.83V 1m] "
20.5078	46.0546	20.5078	45.5732	20.5078	46.3465	20.5078	44.9062	20.5078	46.4427	20.5078	44.0602	20.5078	46.3312	20.5078	43.0596	20.5078	45.9924	20.5078	41.9796	20.5078	45.3957	20.5078	41.0074	20.5078	44.4939	20.5078	40.4779	20.5078	43.2176	20.5078	40.7029	20.5078	41.4786	20.5078	41.6381	20.5078	39.2504	20.5078	42.9339	20.5078	37.0665	20.5078	44.2747	20.5078	36.9425	20.5078	45.4941	20.5078	39.2868	20.5078	46.5238	20.5078	41.9489	20.5078	47.3379	20.5078	44.1144	20.5078	47.9243	20.5078	45.7486	20.5078	48.2727	20.5078	46.9303	20.5078	48.3699	20.5078	47.7296	20.5078	48.1975
21.9727	39.3244	21.9727	38.2866	21.9727	40.1346	21.9727	37.2061	21.9727	40.662	21.9727	36.5788	21.9727	40.8805	21.9727	37.088	21.9727	40.7564	21.9727	38.7494	21.9727	40.2396	21.9727	40.8904	21.9727	39.2838	21.9727	43.0137	21.9727	37.9801	21.9727	44.9438	21.9727	37.0689	21.9727	46.6482	21.9727	38.118	21.9727	48.1359	21.9727	40.8865	21.9727	49.4224	21.9727	43.8182	21.9727	50.5196	21.9727	46.3279	21.9727	51.4334	21.9727	48.3625	21.9727	52.1638	21.9727	49.9726	21.9727	52.7055	21.9727	51.2117	21.9727	53.0486	21.9727	52.1223	21.9727	53.1797	21.9727	52.737	21.9727	53.0822
23.4375	31.6486	23.4375	30.0478	23.4375	34.3497	23.4375	33.9928	23.4375	35.8454	23.4375	38.5732	23.4375	36.1967	23.4375	42.1476	23.4375	35.4201	23.4375	44.9731	23.4375	33.418	23.4375	47.2899	23.4375	31.6947	23.4375	49.2432	23.4375	35.2836	23.4375	50.9204	23.4375	40.3378	23.4375	52.3759	23.4375	44.3672	23.4375	53.6437	23.4375	47.5308	23.4375	54.7438	23.4375	50.0726	23.4375	55.6871	23.4375	52.1415	23.4375	56.4766	23.4375	53.8259	23.4375	57.1096	23.4375	55.1807	23.4375	57.5789	23.4375	56.2416	23.4375	57.874	23.4375	57.0339	23.4375	57.9817	23.4375	57.577	23.4375	57.8877
24.9023	50.2605	24.9023	49.9731	24.9023	50.5121	24.9023	49.7514	24.9023	50.6656	24.9023	49.7312	24.9023	50.6895	24.9023	50.0396	24.9023	50.5797	24.9023	50.723	24.9023	50.3673	24.9023	51.7163	24.9023	50.1437	24.9023	52.8921	24.9023	50.0893	24.9023	54.1295	24.9023	50.4441	24.9023	55.3444	24.9023	51.3484	24.9023	56.4866	24.9023	52.6983	24.9023	57.5274	24.9023	54.2434	24.9023	58.4493	24.9023	55.7675	24.9023	59.239	24.9023	57.1462	24.9023	59.8843	24.9023	58.322	24.9023	60.3726	24.9023	59.2728	24.9023	60.6905	24.9023	59.9936	24.9023	60.8243	24.9023	60.487	24.9023	60.7605
26.3672	54.9703	26.3672	54.9836	26.3672	55.0142	26.3672	55.0967	26.3672	55.0798	26.3672	55.3494	26.3672	55.1458	26.3672	55.766	26.3672	55.2099	26.3672	56.3464	26.3672	55.294	26.3672	57.0656	26.3672	55.4473	26.3672	57.8829	26.3672	55.7416	26.3672	58.7532	26.3672	56.2471	26.3672	59.6354	26.3672	56.9934	26.3672	60.4954	26.3672	57.9448	26.3672	61.306	26.3672	59.0146	26.3672	62.0452	26.3672	60.1041	26.3672	62.6937	26.3672	61.1314	26.3672	63.2342	26.3672	62.04	26.3672	63.6501	26.3672	62.7952	26.3672	63.9259	26.3672	63.378	26.3672	64.0472	26.3672	63.7803	26.3672	64.0017
27.832	57.7856	27.832	57.6351	27.832	57.94	27.832	57.5436	27.832	58.0595	27.832	57.5754	27.832	58.1232	27.832	57.7892	27.832	58.1299	27.832	58.2164	27.832	58.1031	27.832	58.8476	27.832	58.0975	27.832	59.638	27.832	58.2007	27.832	60.5259	27.832	58.5153	27.832	61.4515	27.832	59.1108	27.832	62.3663	27.832	59.9753	27.832	63.2336	27.832	61.0179	27.832	64.0257	27.832	62.1187	27.832	64.721	27.832	63.1747	27.832	65.3006	27.832	64.1155	27.832	65.7475	27.832	64.8988	27.832	66.046	27.832	65.5024	27.832	66.1815	27.832	65.917	27.832	66.1416
29.2969	61.2283	29.2969	61.2499	29.2969	61.2494	29.2969	61.3472	29.2969	61.2858	29.2969	61.552	29.2969	61.3216	29.2969	61.8861	29.2969	61.3568	29.2969	62.3547	29.2969	61.4116	29.2969	62.9448	29.2969	61.5288	29.2969	63.6293	29.2969	61.7682	29.2969	64.3741	29.2969	62.1877	29.2969	65.1446	29.2969	62.8149	29.2969	65.9096	29.2969	63.6264	29.2969	66.6419	29.2969	64.5561	29.2969	67.3182	29.2969	65.5214	29.2969	67.9176	29.2969	66.4486	29.2969	68.4207	29.2969	67.2819	29.2969	68.8093	29.2969	67.9842	29.2969	69.0666	29.2969	68.5329	29.2969	69.1775	29.2969	68.9161	29.2969	69.13
30.7617	64.4862	30.7617	64.6074	30.7617	64.4116	30.7617	64.7888	30.7617	64.3759	30.7617	65.0446	30.7617	64.3793	30.7617	65.3853	30.7617	64.4322	30.7617	65.8139	30.7617	64.5536	30.7617	66.3244	30.7617	64.7678	30.7617	66.9026	30.7617	65.099	30.7617	67.5289	30.7617	65.5626	30.7617	68.1807	30.7617	66.1577	30.7617	68.8351	30.7617	66.864	30.7617	69.4695	30.7617	67.6439	30.7617	70.0623	30.7617	68.4506	30.7617	70.5926	30.7617	69.2364	30.7617	71.0401	30.7617	69.9585	30.7617	71.3854	30.7617	70.582	30.7617	71.6109	30.7617	71.0812	30.7617	71.7014	30.7617	71.4388	30.7617	71.6459
32.2266	67.9135	32.2266	67.8818	32.2266	67.9642	32.2266	67.8865	32.2266	68.0227	32.2266	67.9488	32.2266	68.0853	32.2266	68.0898	32.2266	68.1559	32.2266	68.3267	32.2266	68.2473	32.2266	68.6672	32.2266	68.38	32.2266	69.1073	32.2266	68.5804	32.2266	69.6317	32.2266	68.8753	32.2266	70.2165	32.2266	69.283	32.2266	70.834	32.2266	69.8047	32.2266	71.4551	32.2266	70.4193	32.2266	72.0522	32.2266	71.088	32.2266	72.5995	32.2266	71.7627	32.2266	73.0731	32.2266	72.3956	32.2266	73.4514	32.2266	72.9458	32.2266	73.7151	32.2266	73.382	32.2266	73.8483	32.2266	73.6835	32.2266	73.8396
33.6914	70.2117	33.6914	70.1929	33.6914	70.2703	33.6914	70.2286	33.6914	70.3567	33.6914	70.3326	33.6914	70.4625	33.6914	70.5161	33.6914	70.5846	33.6914	70.7843	33.6914	70.7261	33.6914	71.1357	33.6914	70.8969	33.6914	71.5615	33.6914	71.1123	33.6914	72.0469	33.6914	71.3905	33.6914	72.5728	33.6914	71.7468	33.6914	73.1184	33.6914	72.1867	33.6914	73.6617	33.6914	72.7006	33.6914	74.1811	33.6914	73.2635	33.6914	74.6552	33.6914	73.8395	33.6914	75.0638	33.6914	74.3888	33.6914	75.3875	33.6914	74.8744	33.6914	75.6092	33.6914	75.2664	33.6914	75.7147	33.6914	75.5436	33.6914	75.6942
35.1562	71.9408	35.1562	71.9499	35.1562	71.9751	35.1562	72.0162	35.1562	72.0414	35.1562	72.1528	35.1562	72.1329	35.1562	72.3698	35.1562	72.2492	35.1562	72.6711	35.1562	72.3972	35.1562	73.0537	35.1562	72.5906	35.1562	73.5075	35.1562	72.8479	35.1562	74.017	35.1562	73.1868	35.1562	74.5633	35.1562	73.6177	35.1562	75.126	35.1562	74.1371	35.1562	75.6842	35.1562	74.725	35.1562	76.2171	35.1562	75.348	35.1562	76.7048	35.1562	75.966	35.1562	77.1275	35.1562	76.5393	35.1562	77.4666	35.1562	77.0335	35.1562	77.705	35.1562	77.4226	35.1562	77.8279	35.1562	77.6891	35.1562	77.8245
36.6211	74.6633	36.6211	74.7079	36.6211	74.6617	36.6211	74.8013	36.6211	74.6983	36.6211	74.949	36.6211	74.7706	36.6211	75.155	36.6211	74.8793	36.6211	75.4205	36.6211	75.0284	36.6211	75.7435	36.6211	75.2252	36.6211	76.1184	36.6211	75.4784	36.6211	76.536	36.6211	75.7956	36.6211	76.9846	36.6211	76.1799	36.6211	77.45	36.6211	76.6263	36.6211	77.9162	36.6211	77.1206	36.6211	78.366	36.6211	77.6398	36.6211	78.7816	36.6211	78.1554	36.6211	79.1446	36.6211	78.6371	36.6211	79.4371	36.6211	79.0567	36.6211	79.6427	36.6211	79.3908	36.6211	79.7477	36.6211	79.6226	36.6211	79.7424
38.0859	77.0669	38.0859	77.0896	38.0859	77.0804	38.0859	77.1532	38.0859	77.1263	38.0859	77.2626	38.0859	77.2024	38.0859	77.4218	38.0859	77.3089	38.0859	77.6332	38.0859	77.4485	38.0859	77.8965	38.0859	77.6261	38.0859	78.2085	38.0859	77.8477	38.0859	78.5631	38.0859	78.1189	38.0859	78.9509	38.0859	78.4424	38.0859	79.3599	38.0859	78.8158	38.0859	79.7757	38.0859	79.2295	38.0859	80.1824	38.0859	79.6668	38.0859	80.5624	38.0859	80.1051	38.0859	80.8979	38.0859	80.5187	38.0859	81.1713	38.0859	80.8819	38.0859	81.3665	38.0859	81.1724	38.0859	81.4702	38.0859	81.3731	38.0859	81.4735
39.5508	78.8074	39.5508	78.8203	39.5508	78.8279	39.5508	78.8708	39.5508	78.8786	39.5508	78.9632	39.5508	78.9575	39.5508	79.1011	39.5508	79.0644	39.5508	79.2868	39.5508	79.201	39.5508	79.5207	39.5508	79.3708	39.5508	79.8005	39.5508	79.5786	39.5508	80.1212	39.5508	79.8288	39.5508	80.4751	39.5508	80.1238	39.5508	80.8515	39.5508	80.462	39.5508	81.2374	39.5508	80.8357	39.5508	81.618	39.5508	81.231	39.5508	81.9766	39.5508	81.6281	39.5508	82.296	39.5508	82.0039	39.5508	82.5589	39.5508	82.3345	39.5508	82.7495	39.5508	82.5984	39.5508	82.8546	39.5508	82.7789	39.5508	82.8655
41.0156	80.253	41.0156	80.2596	41.0156	80.2784	41.0156	80.3016	41.0156	80.333	41.0156	80.3824	41.0156	80.4151	41.0156	80.505	41.0156	80.5243	41.0156	80.6714	41.0156	80.6614	41.0156	80.8819	41.0156	80.8288	41.0156	81.1351	41.0156	81.0296	41.0156	81.4267	41.0156	81.2667	41.0156	81.7504	41.0156	81.5416	41.0156	82.097	41.0156	81.8526	41.0156	82.4551	41.0156	82.1934	41.0156	82.8108	41.0156	82.552	41.0156	83.1488	41.0156	82.9116	41.0156	83.4526	41.0156	83.2514	41.0156	83.7055	41.0156	83.5499	41.0156	83.892	41.0156	83.7868	41.0156	83.9991	41.0156	83.9463	41.0156	84.0183
42.4805	81.3039	42.4805	81.3113	42.4805	81.3269	42.4805	81.3519	42.4805	81.3783	42.4805	81.4283	42.4805	81.4566	42.4805	81.5426	42.4805	81.5612	42.4805	81.6963	42.4805	81.693	42.4805	81.8895	42.4805	81.8532	42.4805	82.1208	42.4805	82.0442	42.4805	82.3866	42.4805	82.2676	42.4805	82.6815	42.4805	82.5239	42.4805	82.9977	42.4805	82.8111	42.4805	83.325	42.4805	83.1231	42.4805	83.6512	42.4805	83.4496	42.4805	83.9622	42.4805	83.7755	42.4805	84.2427	42.4805	84.083	42.4805	84.4772	42.4805	84.3528	42.4805	84.6512	42.4805	84.5666	42.4805	84.7524	42.4805	84.7098	42.4805	84.7728
43.9453	82.2617	43.9453	82.2686	43.9453	82.2847	43.9453	82.3069	43.9453	82.3361	43.9453	82.3784	43.9453	82.415	43.9453	82.4843	43.9453	82.5209	43.9453	82.6258	43.9453	82.654	43.9453	82.8028	43.9453	82.8148	43.9453	83.0142	43.9453	83.0037	43.9453	83.2574	43.9453	83.2212	43.9453	83.5279	43.9453	83.4663	43.9453	83.8191	43.9453	83.7365	43.9453	84.1222	43.9453	84.0259	43.9453	84.4263	43.9453	84.3255	43.9453	84.7184	43.9453	84.6225	43.9453	84.9843	43.9453	84.9009	43.9453	85.2091	43.9453	85.1437	43.9453	85.3788	43.9453	85.3343	43.9453	85.4814	43.9453	85.459	43.9453	85.5091
45.4102	83.0177	45.4102	83.0226	45.4102	83.0423	45.4102	83.0582	45.4102	83.0956	45.4102	83.1254	45.4102	83.1767	45.4102	83.2251	45.4102	83.285	45.4102	83.3577	45.4102	83.42	45.4102	83.523	45.4102	83.5815	45.4102	83.7199	45.4102	83.7689	45.4102	83.9458	45.4102	83.9813	45.4102	84.197	45.4102	84.217	45.4102	84.4677	45.4102	84.4725	45.4102	84.7502	45.4102	84.7425	45.4102	85.0346	45.4102	85.0186	45.4102	85.3091	45.4102	85.2896	45.4102	85.5605	45.4102	85.5416	45.4102	85.7749	45.4102	85.7594	45.4102	85.939	45.4102	85.9284	45.4102	86.0415	45.4102	86.0363	45.4102	86.0749
46.875	83.6638	46.875	83.6646	46.875	83.6914	46.875	83.6946	46.875	83.7469	46.875	83.7543	46.875	83.8295	46.875	83.8439	46.875	83.9384	46.875	83.9635	46.875	84.0725	46.875	84.1129	46.875	84.2309	46.875	84.2909	46.875	84.4121	46.875	84.4955	46.875	84.6144	46.875	84.7236	46.875	84.8354	46.875	84.9703	46.875	85.0716	46.875	85.2291	46.875	85.3178	46.875	85.4913	46.875	85.5668	46.875	85.7464	46.875	85.8088	46.875	85.982	46.875	86.032	46.875	86.1853	46.875	86.2231	46.875	86.3437	46.875	86.3692	46.875	86.4462	46.875	86.4591	46.875	86.4856
48.3398	84.1479	48.3398	84.1465	48.3398	84.1775	48.3398	84.1737	48.3398	84.2352	48.3398	84.2294	48.3398	84.3201	48.3398	84.3135	48.3398	84.4312	48.3398	84.4255	48.3398	84.5672	48.3398	84.5647	48.3398	84.7262	48.3398	84.73	48.3398	84.9063	48.3398	84.9196	48.3398	85.1046	48.3398	85.1308	48.3398	85.3181	48.3398	85.3595	48.3398	85.5427	48.3398	85.6001	48.3398	85.7733	48.3398	85.8451	48.3398	86.0032	48.3398	86.0849	48.3398	86.2236	48.3398	86.3084	48.3398	86.4244	48.3398	86.5036	48.3398	86.5938	48.3398	86.6585	48.3398	86.7202	48.3398	86.7626	48.3398	86.7941	48.3398	86.8088
51.2695	84.7694	51.2695	84.7619	51.2695	84.8035	51.2695	84.7807	51.2695	84.8642	51.2695	84.8251	51.2695	84.9509	51.2695	84.8942	51.2695	85.0623	51.2695	84.987	51.2695	85.1964	51.2695	85.1027	51.2695	85.3507	51.2695	85.24	51.2695	85.5217	51.2695	85.3975	51.2695	85.7057	51.2695	85.5734	51.2695	85.8983	51.2695	85.7648	51.2695	86.095	51.2695	85.9676	51.2695	86.2907	51.2695	86.1762	51.2695	86.4797	51.2695	86.3832	51.2695	86.6555	51.2695	86.5796	51.2695	86.8104	51.2695	86.7552	51.2695	86.9359	51.2695	86.8996	51.2695	87.0238	51.2695	87.0035	51.2695	87.0668	51.2695	87.0603
52.7344	85.0132	52.7344	85.0035	52.7344	85.049	52.7344	85.0193	52.7344	85.111	52.7344	85.0595	52.7344	85.1988	52.7344	85.123	52.7344	85.311	52.7344	85.2087	52.7344	85.4454	52.7344	85.3153	52.7344	85.5988	52.7344	85.4416	52.7344	85.7674	52.7344	85.5865	52.7344	85.9468	52.7344	85.7482	52.7344	86.1321	52.7344	85.9243	52.7344	86.3185	52.7344	86.1115	52.7344	86.5007	52.7344	86.3049	52.7344	86.6735	52.7344	86.4981	52.7344	86.8309	52.7344	86.6831	52.7344	86.9666	52.7344	86.8505	52.7344	87.0733	52.7344	86.9907	52.7344	87.1442	52.7344	87.0951	52.7344	87.1734	52.7344	87.1571
54.1992	85.2092	54.1992	85.196	54.1992	85.2481	54.1992	85.2077	54.1992	85.3128	54.1992	85.2431	54.1992	85.4027	54.1992	85.3009	54.1992	85.5165	54.1992	85.3797	54.1992	85.6515	54.1992	85.4781	54.1992	85.8043	54.1992	85.595	54.1992	85.9707	54.1992	85.7289	54.1992	86.1458	54.1992	85.8784	54.1992	86.3244	54.1992	86.0413	54.1992	86.5012	54.1992	86.2149	54.1992	86.6711	54.1992	86.395	54.1992	86.8289	54.1992	86.5761	54.1992	86.9694	54.1992	86.7508	54.1992	87.087	54.1992	86.911	54.1992	87.1759	54.1992	87.0478	54.1992	87.2306	54.1992	87.153	54.1992	87.2463	54.1992	87.2203
55.6641	85.3669	55.6641	85.3521	55.6641	85.407	55.6641	85.3615	55.6641	85.4725	55.6641	85.394	55.6641	85.5629	55.6641	85.4477	55.6641	85.6766	55.6641	85.5213	55.6641	85.811	55.6641	85.613	55.6641	85.9623	55.6641	85.7215	55.6641	86.1261	55.6641	85.8453	55.6641	86.297	55.6641	85.9832	55.6641	86.4695	55.6641	86.1333	55.6641	86.6379	55.6641	86.2933	55.6641	86.7969	55.6641	86.4598	55.6641	86.9416	55.6641	86.6281	55.6641	87.0672	55.6641	86.7921	55.6641	87.169	55.6641	86.9443	55.6641	87.2423	55.6641	87.0766	55.6641	87.2828	55.6641	87.1815	55.6641	87.2869	55.6641	87.2528
58.5938	85.6015	58.5938	85.5795	58.5938	85.6469	58.5938	85.5797	58.5938	85.7158	58.5938	85.6007	58.5938	85.8076	58.5938	85.6405	58.5938	85.9205	58.5938	85.6974	58.5938	86.0514	58.5938	85.7697	58.5938	86.1962	58.5938	85.8557	58.5938	86.3499	58.5938	85.9543	58.5938	86.5068	58.5938	86.0645	58.5938	86.6607	58.5938	86.1852	58.5938	86.806	58.5938	86.3152	58.5938	86.9375	58.5938	86.4526	58.5938	87.0505	58.5938	86.5942	58.5938	87.1415	58.5938	86.7357	58.5938	87.2075	58.5938	86.8716	58.5938	87.246	58.5938	86.9954	58.5938	87.255	58.5938	87.1004	58.5938	87.2333	58.5938	87.1811
60.0586	85.6748	60.0586	85.6507	60.0586	85.7218	60.0586	85.6486	60.0586	85.7921	60.0586	85.6666	60.0586	85.8848	60.0586	85.7029	60.0586	85.998	60.0586	85.7553	60.0586	86.1286	60.0586	85.8221	60.0586	86.2722	60.0586	85.9015	60.0586	86.4236	60.0586	85.9922	60.0586	86.5767	60.0586	86.0933	60.0586	86.7253	60.0586	86.2039	60.0586	86.8634	60.0586	86.3231	60.0586	86.9856	60.0586	86.4494	60.0586	87.0875	60.0586	86.5805	60.0586	87.1658	60.0586	86.7128	60.0586	87.2183	60.0586	86.8416	60.0586	87.2434	60.0586	86.9612	60.0586	87.2401	60.0586	87.0657	60.0586	87.2085	60.0586	87.1495
62.9883	85.8337	62.9883	85.8061	62.9883	85.8831	62.9883	85.7992	62.9883	85.9549	62.9883	85.811	62.9883	86.0481	62.9883	85.8393	62.9883	86.1609	62.9883	85.8819	62.9883	86.29	62.9883	85.9365	62.9883	86.4306	62.9883	86.0014	62.9883	86.5772	62.9883	86.0753	62.9883	86.7233	62.9883	86.1573	62.9883	86.8621	62.9883	86.2472	62.9883	86.9872	62.9883	86.3446	62.9883	87.0929	62.9883	86.4494	62.9883	87.175	62.9883	86.5605	62.9883	87.2306	62.9883	86.676	62.9883	87.2582	62.9883	86.7929	62.9883	87.258	62.9883	86.9067	62.9883	87.2309	62.9883	87.0124	62.9883	87.1789	62.9883	87.1048
64.4531	85.8822	64.4531	85.8511	64.4531	85.9345	64.4531	85.84	64.4531	86.0083	64.4531	85.8469	64.4531	86.1028	64.4531	85.8697	64.4531	86.216	64.4531	85.9059	64.4531	86.3443	64.4531	85.9533	64.4531	86.4831	64.4531	86.0102	64.4531	86.6265	64.4531	86.0752	64.4531	86.7681	64.4531	86.1476	64.4531	86.901	64.4531	86.2273	64.4531	87.0186	64.4531	86.3145	64.4531	87.1152	64.4531	86.4092	64.4531	87.1866	64.4531	86.5112	64.4531	87.2301	64.4531	86.6194	64.4531	87.2449	64.4531	86.7312	64.4531	87.2316	64.4531	86.8431	64.4531	87.1922	64.4531	86.9501	64.4531	87.1295	64.4531	87.0473
67.3828	85.9895	67.3828	85.9494	67.3828	86.0493	67.3828	85.928	67.3828	86.1289	67.3828	85.9235	67.3828	86.2272	67.3828	85.9335	67.3828	86.3417	67.3828	85.9557	67.3828	86.4687	67.3828	85.9878	67.3828	86.6032	67.3828	86.0279	67.3828	86.7394	67.3828	86.0746	67.3828	86.8704	67.3828	86.1276	67.3828	86.9895	67.3828	86.1868	67.3828	87.09	67.3828	86.2533	67.3828	87.1662	67.3828	86.3279	67.3828	87.2142	67.3828	86.4117	67.3828	87.2319	67.3828	86.5048	67.3828	87.2194	67.3828	86.6063	67.3828	87.1787	67.3828	86.7138	67.3828	87.1137	67.3828	86.8235	67.3828	87.0292	67.3828	86.9305
68.8477	86.055	68.8477	86.0121	68.8477	86.1167	68.8477	85.9872	68.8477	86.1973	68.8477	85.9783	68.8477	86.2956	68.8477	85.9834	68.8477	86.4093	68.8477	86.0001	68.8477	86.5345	68.8477	86.026	68.8477	86.6665	68.8477	86.0593	68.8477	86.7994	68.8477	86.0989	68.8477	86.9264	68.8477	86.1441	68.8477	87.0405	68.8477	86.1953	68.8477	87.1351	68.8477	86.2535	68.8477	87.2044	68.8477	86.3202	68.8477	87.2443	68.8477	86.3965	68.8477	87.2527	68.8477	86.4834	68.8477	87.2302	68.8477	86.5804	68.8477	87.1793	68.8477	86.6858	68.8477	87.1045	68.8477	86.7962	68.8477	87.0115	68.8477	86.9067
71.7773	86.1781	71.7773	86.1308	71.7773	86.2427	71.7773	86.0998	71.7773	86.3243	71.7773	86.0837	71.7773	86.4216	71.7773	86.0803	71.7773	86.5324	71.7773	86.0874	71.7773	86.653	71.7773	86.1026	71.7773	86.7787	71.7773	86.1243	71.7773	86.9037	71.7773	86.151	71.7773	87.0215	71.7773	86.1824	71.7773	87.125	71.7773	86.2188	71.7773	87.2075	71.7773	86.2616	71.7773	87.2631	71.7773	86.3127	71.7773	87.2875	71.7773	86.3742	71.7773	87.2791	71.7773	86.448	71.7773	87.2387	71.7773	86.5348	71.7773	87.17	71.7773	86.6341	71.7773	87.0788	71.7773	86.7434	71.7773	86.9723	71.7773	86.8581
74.707	86.2486	74.707	86.1995	74.707	86.3143	74.707	86.1663	74.707	86.3963	74.707	86.1475	74.707	86.4933	74.707	86.141	74.707	86.6028	74.707	86.1444	74.707	86.7213	74.707	86.1554	74.707	86.8441	74.707	86.1717	74.707	86.9655	74.707	86.1919	74.707	87.0788	74.707	86.2154	74.707	87.1771	74.707	86.2427	74.707	87.2532	74.707	86.2752	74.707	87.3012	74.707	86.3152	74.707	87.3167	74.707	86.3656	74.707	87.2979	74.707	86.4291	74.707	87.2461	74.707	86.5078	74.707	87.1656	74.707	86.6019	74.707	87.0634	74.707	86.7098	74.707	86.9476	74.707	86.8271
77.6367	86.3169	77.6367	86.266	77.6367	86.3844	77.6367	86.2311	77.6367	86.4682	77.6367	86.2105	77.6367	86.5672	77.6367	86.202	77.6367	86.6786	77.6367	86.2031	77.6367	86.799	77.6367	86.2112	77.6367	86.9236	77.6367	86.2241	77.6367	87.0463	77.6367	86.2401	77.6367	87.1605	77.6367	86.2586	77.6367	87.2586	77.6367	86.28	77.6367	87.3333	77.6367	86.3058	77.6367	87.378	77.6367	86.3388	77.6367	87.388	77.6367	86.3823	77.6367	87.3614	77.6367	86.4399	77.6367	87.2999	77.6367	86.5145	77.6367	87.2083	77.6367	86.6072	77.6367	87.0946	77.6367	86.7169	77.6367	86.9683	77.6367	86.8395
79.1016	86.3409	79.1016	86.2888	79.1016	86.4095	79.1016	86.2525	79.1016	86.4944	79.1016	86.2306	79.1016	86.5942	79.1016	86.2207	79.1016	86.7063	79.1016	86.2203	79.1016	86.8272	79.1016	86.2268	79.1016	86.9521	79.1016	86.2378	79.1016	87.0752	79.1016	86.2517	79.1016	87.1895	79.1016	86.2676	79.1016	87.2876	79.1016	86.286	79.1016	87.3619	79.1016	86.3087	79.1016	87.4055	79.1016	86.3384	79.1016	87.4135	79.1016	86.3788	79.1016	87.3839	79.1016	86.434	79.1016	87.3182	79.1016	86.5072	79.1016	87.2216	79.1016	86.5999	79.1016	87.1024	79.1016	86.7113	79.1016	86.9707	79.1016	86.8372
82.0312	86.4718	82.0312	86.4162	82.0312	86.5417	82.0312	86.3744	82.0312	86.6254	82.0312	86.3451	82.0312	86.7213	82.0312	86.3263	82.0312	86.8271	82.0312	86.3155	82.0312	86.9393	82.0312	86.3102	82.0312	87.0535	82.0312	86.3079	82.0312	87.1642	82.0312	86.307	82.0312	87.2649	82.0312	86.307	82.0312	87.3485	82.0312	86.3084	82.0312	87.4075	82.0312	86.3134	82.0312	87.4353	82.0312	86.3256	82.0312	87.4273	82.0312	86.3494	82.0312	87.3816	82.0312	86.39	82.0312	87.3001	82.0312	86.4516	82.0312	87.1885	82.0312	86.5369	82.0312	87.0561	82.0312	86.6455	82.0312	86.9139	82.0312	86.7737
84.9609	86.5799	84.9609	86.5093	84.9609	86.6629	84.9609	86.4512	84.9609	86.7571	84.9609	86.4047	84.9609	86.8603	84.9609	86.368	84.9609	86.9692	84.9609	86.3389	84.9609	87.0797	84.9609	86.315	84.9609	87.187	84.9609	86.2941	84.9609	87.2854	84.9609	86.2746	84.9609	87.3686	84.9609	86.256	84.9609	87.4301	84.9609	86.2393	84.9609	87.4633	84.9609	86.2267	84.9609	87.4624	84.9609	86.2222	84.9609	87.424	84.9609	86.2308	84.9609	87.3474	84.9609	86.2583	84.9609	87.2361	84.9609	86.3099	84.9609	87.0974	84.9609	86.3893	84.9609	86.9419	84.9609	86.4971	84.9609	86.7822	84.9609	86.6304
87.8906	86.4626	87.8906	86.4022	87.8906	86.536	87.8906	86.3545	87.8906	86.6217	87.8906	86.3185	87.8906	86.7183	87.8906	86.2925	87.8906	86.8238	87.8906	86.2743	87.8906	86.9354	87.8906	86.2612	87.8906	87.0494	87.8906	86.251	87.8906	87.1609	87.8906	86.242	87.8906	87.2635	87.8906	86.2334	87.8906	87.3498	87.8906	86.226	87.8906	87.4112	87.8906	86.2221	87.8906	87.44	87.8906	86.2257	87.8906	87.4297	87.8906	86.2423	87.8906	87.3773	87.8906	86.278	87.8906	87.2843	87.8906	86.3382	87.8906	87.157	87.8906	86.4269	87.8906	87.0059	87.8906	86.5443	87.8906	86.8443	87.8906	86.6864
90.8203	86.4948	90.8203	86.4337	90.8203	86.5706	90.8203	86.387	90.8203	86.6606	90.8203	86.3534	90.8203	86.7634	90.8203	86.3309	90.8203	86.8766	90.8203	86.3169	90.8203	86.9972	90.8203	86.3087	90.8203	87.1211	90.8203	86.3038	90.8203	87.2431	90.8203	86.3002	90.8203	87.3564	90.8203	86.2973	90.8203	87.453	90.8203	86.2958	90.8203	87.5243	90.8203	86.298	90.8203	87.5618	90.8203	86.3082	90.8203	87.559	90.8203	86.3317	90.8203	87.5124	90.8203	86.3748	90.8203	87.423	90.8203	86.443	90.8203	87.2968	90.8203	86.5399	90.8203	87.1442	90.8203	86.6654	90.8203	86.9787	90.8203	86.8148
95.2148	86.6157	95.2148	86.5446	95.2148	86.6973	95.2148	86.4844	95.2148	86.7883	95.2148	86.435	95.2148	86.8872	95.2148	86.3954	95.2148	86.9923	95.2148	86.364	95.2148	87.1016	95.2148	86.3388	95.2148	87.2124	95.2148	86.318	95.2148	87.3208	95.2148	86.3001	95.2148	87.4215	95.2148	86.2846	95.2148	87.5073	95.2148	86.2727	95.2148	87.5698	95.2148	86.2667	95.2148	87.6001	95.2148	86.271	95.2148	87.5907	95.2148	86.2913	95.2148	87.5374	95.2148	86.3336	95.2148	87.4405	95.2148	86.4036	95.2148	87.3055	95.2148	86.5048	95.2148	87.1433	95.2148	86.6368	95.2148	86.9679	95.2148	86.7945
98.1445	86.6733	98.1445	86.6022	98.1445	86.7508	98.1445	86.538	98.1445	86.8338	98.1445	86.4807	98.1445	86.9213	98.1445	86.4295	98.1445	87.0122	98.1445	86.383	98.1445	87.1051	98.1445	86.3399	98.1445	87.1984	98.1445	86.2985	98.1445	87.2891	98.1445	86.2583	98.1445	87.3728	98.1445	86.2194	98.1445	87.443	98.1445	86.1838	98.1445	87.4917	98.1445	86.1551	98.1445	87.5099	98.1445	86.1387	98.1445	87.4898	98.1445	86.1412	98.1445	87.4261	98.1445	86.1701	98.1445	87.3185	98.1445	86.2316	98.1445	87.1722	98.1445	86.3298	98.1445	86.9982	98.1445	86.4639	98.1445	86.8114	98.1445	86.6282
101.074	86.6974	101.074	86.6285	101.074	86.771	101.074	86.5647	101.074	86.8485	101.074	86.5059	101.074	86.9291	101.074	86.4512	101.074	87.0118	101.074	86.3994	101.074	87.0956	101.074	86.3487	101.074	87.1791	101.074	86.298	101.074	87.2596	101.074	86.2464	101.074	87.3329	101.074	86.1945	101.074	87.3928	101.074	86.1443	101.074	87.4313	101.074	86.1	101.074	87.4395	101.074	86.0675	101.074	87.4093	101.074	86.0542	101.074	87.3355	101.074	86.0684	101.074	87.2177	101.074	86.1176	101.074	87.0617	101.074	86.2067	101.074	86.879	101.074	86.3358	101.074	86.6857	101.074	86.4993
105.469	86.701	105.469	86.6193	105.469	86.7892	105.469	86.5453	105.469	86.8818	105.469	86.4796	105.469	86.9763	105.469	86.4215	105.469	87.07	105.469	86.3695	105.469	87.1603	105.469	86.3218	105.469	87.2442	105.469	86.276	105.469	87.3181	105.469	86.2304	105.469	87.3777	105.469	86.1844	105.469	87.4174	105.469	86.1387	105.469	87.4305	105.469	86.0959	105.469	87.4105	105.469	86.061	105.469	87.3523	105.469	86.0407	105.469	87.2535	105.469	86.0433	105.469	87.1166	105.469	86.0766	105.469	86.9494	105.469	86.147	105.469	86.7642	105.469	86.2569	105.469	86.5767	105.469	86.4031
108.398	86.7835	108.398	86.6983	108.398	86.8723	108.398	86.6189	108.398	86.9623	108.398	86.5468	108.398	87.0514	108.398	86.4826	108.398	87.1378	108.398	86.426	108.398	87.2205	108.398	86.3761	108.398	87.2983	108.398	86.3312	108.398	87.3696	108.398	86.29	108.398	87.4313	108.398	86.2519	108.398	87.4786	108.398	86.2173	108.398	87.5045	108.398	86.1884	108.398	87.5014	108.398	86.1693	108.398	87.4623	108.398	86.1656	108.398	87.3832	108.398	86.1845	108.398	87.2646	108.398	86.2327	108.398	87.1124	108.398	86.3153	108.398	86.9382	108.398	86.4337	108.398	86.7568	108.398	86.584
112.793	86.9107	112.793	86.8203	112.793	87.0038	112.793	86.7352	112.793	87.0969	112.793	86.6575	112.793	87.1872	112.793	86.588	112.793	87.2724	112.793	86.5265	112.793	87.3507	112.793	86.4719	112.793	87.4206	112.793	86.4226	112.793	87.4802	112.793	86.3769	112.793	87.527	112.793	86.3339	112.793	87.557	112.793	86.2941	112.793	87.5648	112.793	86.2596	112.793	87.5444	112.793	86.2346	112.793	87.4904	112.793	86.2247	112.793	87.4	112.793	86.2371	112.793	87.2745	112.793	86.2785	112.793	87.1203	112.793	86.3537	112.793	86.9481	112.793	86.4642	112.793	86.772	112.793	86.6065
117.188	86.9308	117.188	86.8532	117.188	87.0108	117.188	86.7796	117.188	87.0914	117.188	86.7114	117.188	87.171	117.188	86.6492	117.188	87.2487	117.188	86.5926	117.188	87.3243	117.188	86.5411	117.188	87.3976	117.188	86.4937	117.188	87.4678	117.188	86.4498	117.188	87.5326	117.188	86.4095	117.188	87.587	117.188	86.3743	117.188	87.6237	117.188	86.3469	117.188	87.6339	117.188	86.3319	117.188	87.6091	117.188	86.3347	117.188	87.5438	117.188	86.3614	117.188	87.4375	117.188	86.4178	117.188	87.2957	117.188	86.5074	117.188	87.1292	117.188	86.6303	117.188	86.9528	117.188	86.782
120.117	87.019	120.117	86.9238	120.117	87.1107	120.117	86.8282	120.117	87.1958	120.117	86.7351	120.117	87.2719	120.117	86.6466	120.117	87.3377	120.117	86.5637	120.117	87.3934	120.117	86.4871	120.117	87.4402	120.117	86.4169	120.117	87.4798	120.117	86.3535	120.117	87.5131	120.117	86.2981	120.117	87.5392	120.117	86.2531	120.117	87.5545	120.117	86.2219	120.117	87.5526	120.117	86.2096	120.117	87.5259	120.117	86.2215	120.117	87.4675	120.117	86.2628	120.117	87.3739	120.117	86.3373	120.117	87.2463	120.117	86.4457	120.117	87.0914	120.117	86.5847	120.117	86.9203	120.117	86.7468
124.512	87.4659	124.512	87.359	124.512	87.5637	124.512	87.2474	124.512	87.6479	124.512	87.1342	124.512	87.7145	124.512	87.0213	124.512	87.7606	124.512	86.9089	124.512	87.785	124.512	86.7963	124.512	87.788	124.512	86.6824	124.512	87.7704	124.512	86.5669	124.512	87.7333	124.512	86.451	124.512	87.677	124.512	86.3377	124.512	87.6004	124.512	86.2328	124.512	87.5014	124.512	86.1436	124.512	87.3781	124.512	86.0789	124.512	87.2302	124.512	86.0472	124.512	87.0605	124.512	86.0554	124.512	86.8754	124.512	86.1073	124.512	86.6849	124.512	86.2025	124.512	86.5011	124.512	86.3365
128.906	87.3732	128.906	87.2818	128.906	87.4512	128.906	87.1792	128.906	87.5143	128.906	87.0675	128.906	87.5617	128.906	86.9483	128.906	87.5936	128.906	86.8221	128.906	87.6106	128.906	86.6892	128.906	87.6136	128.906	86.5496	128.906	87.6025	128.906	86.4041	128.906	87.5756	128.906	86.2547	128.906	87.5292	128.906	86.1057	128.906	87.4578	128.906	85.9636	128.906	87.3553	128.906	85.8374	128.906	87.2168	128.906	85.7374	128.906	87.041	128.906	85.6748	128.906	86.8323	128.906	85.6594	128.906	86.6013	128.906	85.6983	128.906	86.3639	128.906	85.7942	128.906	86.1387	128.906	85.944
133.301	87.3589	133.301	87.2569	133.301	87.4563	133.301	87.1529	133.301	87.5465	133.301	87.0488	133.301	87.6274	133.301	86.9458	133.301	87.6971	133.301	86.8439	133.301	87.7542	133.301	86.7419	133.301	87.7971	133.301	86.638	133.301	87.8237	133.301	86.5308	133.301	87.831	133.301	86.4198	133.301	87.8144	133.301	86.3067	133.301	87.7678	133.301	86.1958	133.301	87.6848	133.301	86.0945	133.301	87.5604	133.301	86.0129	133.301	87.3931	133.301	85.9629	133.301	87.1871	133.301	85.9564	133.301	86.9533	133.301	86.0029	133.301	86.7084	133.301	86.1072	133.301	86.4729	133.301	86.2671
139.16	87.2223	139.16	87.1113	139.16	87.3296	139.16	87.0017	139.16	87.4285	139.16	86.8983	139.16	87.5155	139.16	86.8043	139.16	87.5888	139.16	86.7215	139.16	87.6484	139.16	86.6496	139.16	87.6959	139.16	86.587	139.16	87.7326	139.16	86.5308	139.16	87.7587	139.16	86.4786	139.16	87.7709	139.16	86.4288	139.16	87.7629	139.16	86.3817	139.16	87.7259	139.16	86.3403	139.16	87.6516	139.16	86.3102	139.16	87.5356	139.16	86.2995	139.16	87.3794	139.16	86.3175	139.16	87.1922	139.16	86.373	139.16	86.9895	139.16	86.4715	139.16	86.7903	139.16	86.613
143.555	87.2978	143.555	87.1746	143.555	87.4062	143.555	87.0427	143.555	87.4945	143.555	86.9083	143.555	87.5594	143.555	86.7766	143.555	87.6	143.555	86.6518	143.555	87.6185	143.555	86.5366	143.555	87.6195	143.555	86.4324	143.555	87.6089	143.555	86.34	143.555	87.5919	143.555	86.2596	143.555	87.5705	143.555	86.192	143.555	87.5421	143.555	86.1389	143.555	87.4996	143.555	86.103	143.555	87.4335	143.555	86.0882	143.555	87.3357	143.555	86.0998	143.555	87.203	143.555	86.143	143.555	87.0393	143.555	86.2221	143.555	86.8554	143.555	86.3387	143.555	86.6667	143.555	86.4899
147.949	87.516	147.949	87.4102	147.949	87.6005	147.949	87.2875	147.949	87.6598	147.949	87.1515	147.949	87.6906	147.949	87.005	147.949	87.6914	147.949	86.85	147.949	87.6628	147.949	86.6879	147.949	87.6077	147.949	86.5206	147.949	87.5314	147.949	86.3511	147.949	87.4404	147.949	86.1841	147.949	87.3403	147.949	86.0262	147.949	87.2345	147.949	85.8855	147.949	87.1222	147.949	85.7711	147.949	86.9993	147.949	85.6919	147.949	86.8607	147.949	85.6552	147.949	86.703	147.949	85.6661	147.949	86.5273	147.949	85.7262	147.949	86.34	147.949	85.8329	147.949	86.1525	147.949	85.9788
153.809	87.1554	153.809	87.0269	153.809	87.2589	153.809	86.8782	153.809	87.3329	153.809	86.7139	153.809	87.3741	153.809	86.5378	153.809	87.3812	153.809	86.3528	153.809	87.3551	153.809	86.162	153.809	87.2989	153.809	85.9686	153.809	87.2169	153.809	85.7778	153.809	87.1139	153.809	85.5966	153.809	86.9937	153.809	85.4341	153.809	86.859	153.809	85.3006	153.809	86.7115	153.809	85.2057	153.809	86.5529	153.809	85.1566	153.809	86.3858	153.809	85.1562	153.809	86.2137	153.809	85.2024	153.809	86.0404	153.809	85.2889	153.809	85.8693	153.809	85.4071	153.809	85.7038	153.809	85.5479
159.668	87.0396	159.668	86.9043	159.668	87.1604	159.668	86.7591	159.668	87.2628	159.668	86.6087	159.668	87.3445	159.668	86.4564	159.668	87.4045	159.668	86.3036	159.668	87.443	159.668	86.1501	159.668	87.4602	159.668	85.9944	159.668	87.4553	159.668	85.8358	159.668	87.4256	159.668	85.6754	159.668	87.3669	159.668	85.5176	159.668	87.2732	159.668	85.3706	159.668	87.1395	159.668	85.2457	159.668	86.9634	159.668	85.1561	159.668	86.7475	159.668	85.1136	159.668	86.5006	159.668	85.1267	159.668	86.2364	159.668	85.1981	159.668	85.9715	159.668	85.3258	159.668	85.7225	159.668	85.5035
165.527	87.146	165.527	87.016	165.527	87.2655	165.527	86.8836	165.527	87.3674	165.527	86.7566	165.527	87.447	165.527	86.6399	165.527	87.5029	165.527	86.535	165.527	87.5365	165.527	86.4396	165.527	87.5513	165.527	86.348	165.527	87.5507	165.527	86.2542	165.527	87.5355	165.527	86.1528	165.527	87.5021	165.527	86.0422	165.527	87.4423	165.527	85.9248	165.527	87.3455	165.527	85.8086	165.527	87.2032	165.527	85.7053	165.527	87.0133	165.527	85.6296	165.527	86.7827	165.527	85.5959	165.527	86.5275	165.527	85.6158	165.527	86.2698	165.527	85.6961	165.527	86.033	165.527	85.8372
171.387	86.35	171.387	86.1507	171.387	86.5276	171.387	85.9419	171.387	86.6745	171.387	85.7367	171.387	86.7855	171.387	85.548	171.387	86.8605	171.387	85.3867	171.387	86.9047	171.387	85.2604	171.387	86.927	171.387	85.1728	171.387	86.9376	171.387	85.1239	171.387	86.9446	171.387	85.1111	171.387	86.9508	171.387	85.1303	171.387	86.9527	171.387	85.1774	171.387	86.9412	171.387	85.2486	171.387	86.9054	171.387	85.3412	171.387	86.8361	171.387	85.4535	171.387	86.7298	171.387	85.5838	171.387	86.5898	171.387	85.7308	171.387	86.4249	171.387	85.8927	171.387	86.2467	171.387	86.0665
177.246	86.8265	177.246	86.5751	177.246	87.047	177.246	86.3093	177.246	87.2264	177.246	86.0493	177.246	87.3607	177.246	85.8165	177.246	87.4511	177.246	85.629	177.246	87.5018	177.246	85.498	177.246	87.5185	177.246	85.4253	177.246	87.5064	177.246	85.4027	177.246	87.4694	177.246	85.4161	177.246	87.41	177.246	85.4492	177.246	87.3281	177.246	85.4891	177.246	87.2218	177.246	85.5288	177.246	87.0889	177.246	85.5685	177.246	86.9291	177.246	85.6134	177.246	86.7462	177.246	85.6718	177.246	86.5493	177.246	85.7518	177.246	86.3505	177.246	85.8593	177.246	86.1628	177.246	85.9969
183.105	86.9818	183.105	86.8003	183.105	87.1286	183.105	86.5855	183.105	87.2408	183.105	86.341	183.105	87.3187	183.105	86.0722	183.105	87.3617	183.105	85.7868	183.105	87.368	183.105	85.4943	183.105	87.335	183.105	85.2069	183.105	87.2605	183.105	84.9394	183.105	87.1435	183.105	84.7085	183.105	86.9846	183.105	84.5295	183.105	86.7864	183.105	84.4129	183.105	86.5539	183.105	84.361	183.105	86.2958	183.105	84.3676	183.105	86.0241	183.105	84.4209	183.105	85.7533	183.105	84.5077	183.105	85.4974	183.105	84.6177	183.105	85.2667	183.105	84.7461	183.105	85.066	183.105	84.8941
188.965	86.5102	188.965	86.3223	188.965	86.6601	188.965	86.1059	188.965	86.7641	188.965	85.8711	188.965	86.8178	188.965	85.6269	188.965	86.8231	188.965	85.3812	188.965	86.7884	188.965	85.1401	188.965	86.7281	188.965	84.9088	188.965	86.6584	188.965	84.6921	188.965	86.5915	188.965	84.4958	188.965	86.5299	188.965	84.3275	188.965	86.4651	188.965	84.1969	188.965	86.3805	188.965	84.1146	188.965	86.2591	188.965	84.0898	188.965	86.0901	188.965	84.1276	188.965	85.8738	188.965	84.2268	188.965	85.6209	188.965	84.3811	188.965	85.3487	188.965	84.5808	188.965	85.0753	188.965	84.8155
196.289	86.579	196.289	86.3867	196.289	86.7288	196.289	86.1624	196.289	86.83	196.289	85.9198	196.289	86.8823	196.289	85.6735	196.289	86.8911	196.289	85.4376	196.289	86.8663	196.289	85.2231	196.289	86.8211	196.289	85.0382	196.289	86.7684	196.289	84.8872	196.289	86.7175	196.289	84.7717	196.289	86.6708	196.289	84.6914	196.289	86.6218	196.289	84.6446	196.289	86.5565	196.289	84.6292	196.289	86.4583	196.289	84.643	196.289	86.3141	196.289	84.685	196.289	86.1211	196.289	84.756	196.289	85.8889	196.289	84.8588	196.289	85.6384	196.289	84.998	196.289	85.3943	196.289	85.1771
203.613	86.6133	203.613	86.3868	203.613	86.7773	203.613	86.107	203.613	86.8743	203.613	85.7866	203.613	86.906	203.613	85.4405	203.613	86.8802	203.613	85.085	203.613	86.81	203.613	84.7362	203.613	86.711	203.613	84.4104	203.613	86.598	203.613	84.1235	203.613	86.4801	203.613	83.8904	203.613	86.3594	203.613	83.725	203.613	86.2322	203.613	83.6372	203.613	86.0929	203.613	83.6307	203.613	85.9381	203.613	83.7012	203.613	85.7674	203.613	83.8364	203.613	85.5814	203.613	84.0196	203.613	85.3805	203.613	84.2338	203.613	85.1653	203.613	84.4648	203.613	84.9377	203.613	84.7021
210.938	86.405	210.938	86.1744	210.938	86.5787	210.938	85.8955	210.938	86.6922	210.938	85.5793	210.938	86.7483	210.938	85.2369	210.938	86.7563	210.938	84.8774	210.938	86.731	210.938	84.5075	210.938	86.6892	210.938	84.1328	210.938	86.646	210.938	83.7609	210.938	86.6079	210.938	83.4054	210.938	86.5681	210.938	83.088	210.938	86.5056	210.938	82.8378	210.938	86.3925	210.938	82.6844	210.938	86.2051	210.938	82.648	210.938	85.9333	210.938	82.7316	210.938	85.5842	210.938	82.921	210.938	85.1799	210.938	83.1935	210.938	84.7488	210.938	83.5271	210.938	84.3176	210.938	83.9059
218.262	86.2019	218.262	86.0418	218.262	86.2962	218.262	85.8213	218.262	86.3262	218.262	85.5517	218.262	86.2998	218.262	85.248	218.262	86.2305	218.262	84.9257	218.262	86.1363	218.262	84.5974	218.262	86.0379	218.262	84.2711	218.262	85.9559	218.262	83.9517	218.262	85.9059	218.262	83.6443	218.262	85.8931	218.262	83.3609	218.262	85.9084	218.262	83.1238	218.262	85.9301	218.262	82.966	218.262	85.9285	218.262	82.9225	218.262	85.8739	218.262	83.0167	218.262	85.7436	218.262	83.2474	218.262	85.5264	218.262	83.5884	218.262	85.2244	218.262	83.998	218.262	84.8517	218.262	84.4323
225.586	86.3639	225.586	86.2698	225.586	86.3635	225.586	86.0918	225.586	86.2712	225.586	85.8524	225.586	86.1043	225.586	85.5844	225.586	85.8974	225.586	85.3263	225.586	85.7023	225.586	85.1134	225.586	85.5799	225.586	84.9647	225.586	85.5797	225.586	84.8758	225.586	85.7135	225.586	84.8209	225.586	85.9425	225.586	84.7657	225.586	86.1933	225.586	84.6839	225.586	86.3893	225.586	84.5693	225.586	86.4761	225.586	84.4412	225.586	86.4309	225.586	84.3413	225.586	86.2596	225.586	84.3191	225.586	85.9874	225.586	84.4103	225.586	85.6488	225.586	84.6203	225.586	85.2812	225.586	84.9242
232.91	86.2513	232.91	86.1219	232.91	86.2597	232.91	85.8727	232.91	86.1507	232.91	85.5112	232.91	85.9326	232.91	85.0539	232.91	85.6195	232.91	84.5334	232.91	85.2345	232.91	84.0051	232.91	84.8168	232.91	83.5483	232.91	84.4335	232.91	83.2508	232.91	84.1851	232.91	83.1727	232.91	84.1758	232.91	83.3119	232.91	84.4422	232.91	83.6066	232.91	84.9078	232.91	83.9735	232.91	85.4272	232.91	84.3451	232.91	85.8674	232.91	84.6865	232.91	86.1513	232.91	84.9922	232.91	86.2579	232.91	85.2739	232.91	86.2069	232.91	85.5453	232.91	86.0407	232.91	85.8074
241.699	86.3973	241.699	86.1991	241.699	86.5294	241.699	85.9383	241.699	86.5896	241.699	85.6163	241.699	86.571	241.699	85.2321	241.699	86.4682	241.699	84.7852	241.699	86.2806	241.699	84.2796	241.699	86.016	241.699	83.7314	241.699	85.6932	241.699	83.1785	241.699	85.3406	241.699	82.6868	241.699	84.9947	241.699	82.3427	241.699	84.6993	241.699	82.2208	241.699	84.5005	241.699	82.3408	241.699	84.4307	241.699	82.6546	241.699	84.4842	241.699	83.0768	241.699	84.6096	241.699	83.5269	241.699	84.7317	241.699	83.9478	241.699	84.7857	241.699	84.3038	241.699	84.7354	241.699	84.5719
250.488	86.8102	250.488	86.606	250.488	86.9159	250.488	86.3177	250.488	86.91	250.488	85.9594	250.488	86.7841	250.488	85.5431	250.488	86.5387	250.488	85.0787	250.488	86.1881	250.488	84.575	250.488	85.7644	250.488	84.0422	250.488	85.3202	250.488	83.497	250.488	84.9236	250.488	82.9681	250.488	84.6395	250.488	82.5005	250.488	84.5023	250.488	82.1523	250.488	84.4965	250.488	81.98	250.488	84.5656	250.488	82.0134	250.488	84.641	250.488	82.2382	250.488	84.6665	250.488	82.6008	250.488	84.6087	250.488	83.0323	250.488	84.4546	250.488	83.4709	250.488	84.2055	250.488	83.8716
259.277	86.7493	259.277	86.6575	259.277	86.7532	259.277	86.4799	259.277	86.6713	259.277	86.2216	259.277	86.5089	259.277	85.8907	259.277	86.272	259.277	85.5	259.277	85.9642	259.277	85.0694	259.277	85.5882	259.277	84.6269	259.277	85.1527	259.277	84.2062	259.277	84.6827	259.277	83.8394	259.277	84.2287	259.277	83.5486	259.277	83.8657	259.277	83.3423	259.277	83.6726	259.277	83.2208	259.277	83.6878	259.277	83.1855	259.277	83.8724	259.277	83.2432	259.277	84.1245	259.277	83.3978	259.277	84.3332	259.277	83.6355	259.277	84.4225	259.277	83.9167	259.277	84.366	259.277	84.1813
268.066	86.3566	268.066	86.0784	268.066	86.5596	268.066	85.7423	268.066	86.6659	268.066	85.3599	268.066	86.6531	268.066	84.938	268.066	86.5038	268.066	84.4809	268.066	86.2137	268.066	83.9961	268.066	85.7964	268.066	83.5027	268.066	85.2868	268.066	83.0409	268.066	84.7399	268.066	82.6731	268.066	84.2256	268.066	82.4664	268.066	83.8177	268.066	82.4569	268.066	83.5752	268.066	82.6238	268.066	83.5193	268.066	82.9002	268.066	83.6197	268.066	83.212	268.066	83.8046	268.066	83.5067	268.066	83.991	268.066	83.7582	268.066	84.1159	268.066	83.9562	268.066	84.1495	268.066	84.0915
276.855	86.3137	276.855	86.1862	276.855	86.3685	276.855	85.9974	276.855	86.3428	276.855	85.7563	276.855	86.236	276.855	85.4658	276.855	86.0547	276.855	85.1237	276.855	85.8078	276.855	84.7282	276.855	85.5004	276.855	84.286	276.855	85.1337	276.855	83.8224	276.855	84.7093	276.855	83.3883	276.855	84.2393	276.855	83.0578	276.855	83.761	276.855	82.9044	276.855	83.3518	276.855	82.9621	276.855	83.1198	276.855	83.2014	276.855	83.1437	276.855	83.5444	276.855	83.4004	276.855	83.9036	276.855	83.7719	276.855	84.2069	276.855	84.1249	276.855	84.4043	276.855	84.3689	276.855	84.4637
287.109	86.6873	287.109	86.4547	287.109	86.8516	287.109	86.1754	287.109	86.9262	287.109	85.868	287.109	86.8915	287.109	85.5443	287.109	86.7306	287.109	85.2042	287.109	86.4338	287.109	84.8369	287.109	86.0051	287.109	84.4264	287.109	85.471	287.109	83.9648	287.109	84.8867	287.109	83.4696	287.109	84.333	287.109	83.002	287.109	83.8945	287.109	82.669	287.109	83.6255	287.109	82.5824	287.109	83.5315	287.109	82.7794	287.109	83.5854	287.109	83.1834	287.109	83.7517	287.109	83.6558	287.109	83.987	287.109	84.0714	287.109	84.2302	287.109	84.3512	287.109	84.4096	287.109	84.4624
297.363	86.9127	297.363	86.6179	297.363	87.1147	297.363	86.2436	297.363	87.2135	297.363	85.8064	297.363	87.203	297.363	85.3258	297.363	87.0812	297.363	84.8259	297.363	86.8484	297.363	84.3348	297.363	86.504	297.363	83.8826	297.363	86.0426	297.363	83.4951	297.363	85.4555	297.363	83.1879	297.363	84.7463	297.363	82.9658	297.363	83.9654	297.363	82.8308	297.363	83.2531	297.363	82.791	297.363	82.8234	297.363	82.8602	297.363	82.8084	297.363	83.0407	297.363	83.1105	297.363	83.3048	297.363	83.5041	297.363	83.5937	297.363	83.8176	297.363	83.8381	297.363	83.9791	297.363	83.9795
307.617	86.9087	307.617	86.6361	307.617	87.0964	307.617	86.2968	307.617	87.1834	307.617	85.9069	307.617	87.1591	307.617	85.4764	307.617	87.0196	307.617	85.0066	307.617	86.7686	307.617	84.4931	307.617	86.4165	307.617	83.9322	307.617	85.9789	307.617	83.3336	307.617	85.4722	307.617	82.7361	307.617	84.9107	307.617	82.2204	307.617	84.3155	307.617	81.8997	307.617	83.7377	307.617	81.8659	307.617	83.281	307.617	82.1212	307.617	83.0735	307.617	82.5698	307.617	83.1647	307.617	83.0793	307.617	83.4581	307.617	83.5375	307.617	83.7809	307.617	83.8689	307.617	83.9938	307.617	84.0278
319.336	86.4683	319.336	86.2146	319.336	86.6322	319.336	85.8875	319.336	86.696	319.336	85.5073	319.336	86.6567	319.336	85.0943	319.336	86.518	319.336	84.6653	319.336	86.2877	319.336	84.2306	319.336	85.9734	319.336	83.7948	319.336	85.5767	319.336	83.3602	319.336	85.0876	319.336	82.9361	319.336	84.4885	319.336	82.5492	319.336	83.7775	319.336	82.2509	319.336	83.0148	319.336	82.1065	319.336	82.3692	319.336	82.161	319.336	82.0723	319.336	82.4005	319.336	82.2156	319.336	82.749	319.336	82.6348	319.336	83.1025	319.336	83.077	319.336	83.3664	319.336	83.3762	319.336	83.4713
329.59	86.15	329.59	85.9199	329.59	86.2922	329.59	85.6165	329.59	86.3404	329.59	85.2589	329.59	86.2969	329.59	84.8654	329.59	86.1703	329.59	84.4494	329.59	85.9711	329.59	84.0179	329.59	85.7088	329.59	83.5739	329.59	85.3878	329.59	83.1205	329.59	85.0029	329.59	82.6688	329.59	84.5362	329.59	82.2464	329.59	83.9652	329.59	81.9043	329.59	83.2923	329.59	81.7082	329.59	82.5921	329.59	81.7083	329.59	82.0416	329.59	81.9003	329.59	81.8404	329.59	82.2138	329.59	82.0163	329.59	82.5415	329.59	82.379	329.59	82.7774	329.59	82.6986	329.59	82.8419
341.309	86.4325	341.309	86.176	341.309	86.577	341.309	85.8193	341.309	86.6076	341.309	85.3825	341.309	86.5313	341.309	84.8891	341.309	86.3589	341.309	84.3616	341.309	86.0998	341.309	83.8202	341.309	85.7609	341.309	83.2849	341.309	85.3477	341.309	82.7812	341.309	84.8653	341.309	82.3442	341.309	84.3192	341.309	82.0168	341.309	83.7243	341.309	81.8395	341.309	83.1253	341.309	81.8359	341.309	82.6167	341.309	82.0015	341.309	82.3246	341.309	82.2982	341.309	82.3259	341.309	82.6585	341.309	82.5696	341.309	82.9976	341.309	82.9061	341.309	83.2325	341.309	83.1824	341.309	83.3017
353.027	86.2311	353.027	85.9924	353.027	86.3627	353.027	85.6584	353.027	86.3846	353.027	85.2482	353.027	86.3016	353.027	84.7815	353.027	86.1217	353.027	84.2711	353.027	85.856	353.027	83.7197	353.027	85.5209	353.027	83.125	353.027	85.1362	353.027	82.4947	353.027	84.7121	353.027	81.8668	353.027	84.2331	353.027	81.3234	353.027	83.6617	353.027	80.9777	353.027	82.9794	353.027	80.9184	353.027	82.2567	353.027	81.1453	353.027	81.7008	353.027	81.5656	353.027	81.5495	353.027	82.0477	353.027	81.817	353.027	82.4718	353.027	82.2644	353.027	82.7467	353.027	82.6398	353.027	82.8112
366.211	86.5788	366.211	86.3705	366.211	86.677	366.211	86.0589	366.211	86.6597	366.211	85.65	366.211	86.5232	366.211	85.1459	366.211	86.2656	366.211	84.5445	366.211	85.8911	366.211	83.8453	366.211	85.4199	366.211	83.0601	366.211	84.8941	366.211	82.2299	366.211	84.3674	366.211	81.444	366.211	83.8744	366.211	80.8435	366.211	83.4041	366.211	80.5738	366.211	82.916	366.211	80.6865	366.211	82.406	366.211	81.0922	366.211	81.9739	366.211	81.6294	366.211	81.7942	366.211	82.1528	366.211	81.945	366.211	82.5633	366.211	82.2974	366.211	82.7991	366.211	82.6396	366.211	82.8254
379.395	86.4615	379.395	86.261	379.395	86.5931	379.395	86.0067	379.395	86.6417	379.395	85.7092	379.395	86.5952	379.395	85.3673	379.395	86.4446	379.395	84.9644	379.395	86.1858	379.395	84.4721	379.395	85.823	379.395	83.8617	379.395	85.3705	379.395	83.1205	379.395	84.8487	379.395	82.2747	379.395	84.2754	379.395	81.4187	379.395	83.6591	379.395	80.7331	379.395	83.0083	379.395	80.4286	379.395	82.3716	379.395	80.5931	379.395	81.8844	379.395	81.1069	379.395	81.7299	379.395	81.7495	379.395	81.9563	379.395	82.3318	379.395	82.3782	379.395	82.7301	379.395	82.7385	379.395	82.8731
392.578	85.7917	392.578	85.536	392.578	85.9516	392.578	85.2209	392.578	85.9924	392.578	84.8878	392.578	85.904	392.578	84.5672	392.578	85.6894	392.578	84.2597	392.578	85.3633	392.578	83.9293	392.578	84.9536	392.578	83.5154	392.578	84.5009	392.578	82.9586	392.578	84.0499	392.578	82.2335	392.578	83.6277	392.578	81.3928	392.578	83.2185	392.578	80.6163	392.578	82.7636	392.578	80.1925	392.578	82.2089	392.578	80.3148	392.578	81.5959	392.578	80.8711	392.578	81.1403	392.578	81.5641	392.578	81.1219	392.578	82.1413	392.578	81.5427	392.578	82.454	392.578	82.0822	392.578	82.4316
405.762	85.905	405.762	85.634	405.762	86.0373	405.762	85.2658	405.762	86.0096	405.762	84.8513	405.762	85.8228	405.762	84.4345	405.762	85.4989	405.762	84.0311	405.762	85.0754	405.762	83.6174	405.762	84.6004	405.762	83.1397	405.762	84.126	405.762	82.5455	405.762	83.6942	405.762	81.823	405.762	83.3169	405.762	81.0438	405.762	82.9655	405.762	80.3914	405.762	82.5911	405.762	80.1169	405.762	82.1705	405.762	80.3541	405.762	81.7562	405.762	80.9735	405.762	81.4965	405.762	81.6987	405.762	81.5486	405.762	82.2939	405.762	81.9	405.762	82.6205	405.762	82.3384	405.762	82.6248
420.41	85.9602	420.41	85.7171	420.41	86.0766	420.41	85.3775	420.41	86.0559	420.41	84.9824	420.41	85.9074	420.41	84.5683	420.41	85.6529	420.41	84.1514	420.41	85.319	420.41	83.7213	420.41	84.9318	420.41	83.2468	420.41	84.5138	420.41	82.6903	420.41	84.076	420.41	82.0247	420.41	83.6031	420.41	81.2536	420.41	83.0497	420.41	80.4431	420.41	82.3719	420.41	79.7676	420.41	81.6068	420.41	79.5003	420.41	80.9589	420.41	79.8146	420.41	80.7397	420.41	80.553	420.41	81.0425	420.41	81.36	420.41	81.5934	420.41	81.9516	420.41	82.0448	420.41	82.1888
435.059	85.8845	435.059	85.6303	435.059	85.9877	435.059	85.2579	435.059	85.9303	435.059	84.8181	435.059	85.7234	435.059	84.3622	435.059	85.392	435.059	83.9181	435.059	84.9716	435.059	83.4748	435.059	84.5086	435.059	82.992	435.059	84.0621	435.059	82.43	435.059	83.6866	435.059	81.7857	435.059	83.3905	435.059	81.1194	435.059	83.106	435.059	80.5599	435.059	82.7114	435.059	80.2633	435.059	82.1083	435.059	80.32	435.059	81.3347	435.059	80.6797	435.059	80.6753	435.059	81.1816	435.059	80.5379	435.059	81.642	435.059	80.9542	435.059	81.908	435.059	81.5178	435.059	81.8759
451.172	86.2751	451.172	85.9133	451.172	86.4526	451.172	85.4002	451.172	86.432	451.172	84.7936	451.172	86.2082	451.172	84.1615	451.172	85.7807	451.172	83.5458	451.172	85.1632	451.172	82.9333	451.172	84.403	451.172	82.2629	451.172	83.5967	451.172	81.4662	451.172	82.8801	451.172	80.5091	451.172	82.3593	451.172	79.4333	451.172	81.9966	451.172	78.4176	451.172	81.5871	451.172	77.8248	451.172	80.8902	451.172	78.0058	451.172	79.8222	451.172	78.8714	451.172	78.722	451.172	79.9565	451.172	78.4656	451.172	80.8475	451.172	79.3439	451.172	81.3043	451.172	80.483	451.172	81.196
465.82	86.0973	465.82	85.7482	465.82	86.2369	465.82	85.2254	465.82	86.1612	465.82	84.5964	465.82	85.8865	465.82	83.9457	465.82	85.4371	465.82	83.3349	465.82	84.8339	465.82	82.7599	465.82	84.0956	465.82	82.1509	465.82	83.2663	465.82	81.4184	465.82	82.4589	465.82	80.5094	465.82	81.8587	465.82	79.452	465.82	81.5984	465.82	78.402	465.82	81.5812	465.82	77.67	465.82	81.5183	465.82	77.586	465.82	81.1424	465.82	78.1591	465.82	80.3833	465.82	79.0195	465.82	79.5178	465.82	79.7504	465.82	79.1381	465.82	80.0865	465.82	79.4529	465.82	79.9373
483.398	86.4323	483.398	86.1145	483.398	86.5297	483.398	85.594	483.398	86.4298	483.398	84.942	483.398	86.1714	483.398	84.2743	483.398	85.7816	483.398	83.704	483.398	85.2619	483.398	83.2718	483.398	84.6004	483.398	82.9141	483.398	83.804	483.398	82.5037	483.398	82.9368	483.398	81.9143	483.398	82.1482	483.398	81.0634	483.398	81.6384	483.398	79.9409	483.398	81.4979	483.398	78.675	483.398	81.5744	483.398	77.661	483.398	81.5937	483.398	77.4763	483.398	81.3752	483.398	78.1827	483.398	80.9474	483.398	79.1675	483.398	80.5407	483.398	79.9037	483.398	80.3506	483.398	80.2437
499.512	87.0358	499.512	86.6627	499.512	87.1777	499.512	86.0526	499.512	87.1166	499.512	85.2446	499.512	86.8833	499.512	84.3419	499.512	86.4999	499.512	83.5025	499.512	85.975	499.512	82.8651	499.512	85.3052	499.512	82.4424	499.512	84.479	499.512	82.1031	499.512	83.4928	499.512	81.6711	499.512	82.3887	499.512	81.0322	499.512	81.3263	499.512	80.1918	499.512	80.63	499.512	79.3114	499.512	80.5877	499.512	78.7167	499.512	81.0764	499.512	78.734	499.512	81.6789	499.512	79.3591	499.512	82.0885	499.512	80.253	499.512	82.2123	499.512	81.0845	499.512	82.0734	499.512	81.6992
517.09	86.5881	517.09	86.2945	517.09	86.5774	517.09	85.7203	517.09	86.3083	517.09	84.9678	517.09	85.8769	517.09	84.2092	517.09	85.3937	517.09	83.6289	517.09	84.9417	517.09	83.3129	517.09	84.5523	517.09	83.1834	517.09	84.2045	517.09	83.0598	517.09	83.8399	517.09	82.7649	517.09	83.3803	517.09	82.1837	517.09	82.74	517.09	81.2835	517.09	81.8513	517.09	80.1605	517.09	80.7517	517.09	79.1706	517.09	79.7865	517.09	78.9536	517.09	79.6508	517.09	79.7674	517.09	80.5253	517.09	81.0289	517.09	81.674	517.09	82.0779	517.09	82.4431	517.09	82.5865
536.133	87.0556	536.133	86.6716	536.133	87.0694	536.133	85.9126	536.133	86.7447	536.133	84.824	536.133	86.1215	536.133	83.5402	536.133	85.2347	536.133	82.3414	536.133	84.1317	536.133	81.6147	536.133	82.9291	536.133	81.5345	536.133	81.8706	536.133	81.8255	536.133	81.2641	536.133	82.0741	536.133	81.2206	536.133	82.0434	536.133	81.4974	536.133	81.6892	536.133	81.7013	536.133	81.1059	536.133	81.5379	536.133	80.5259	536.133	80.947	536.133	80.304	536.133	80.267	536.133	80.6642	536.133	80.2115	536.133	81.3901	536.133	80.9576	536.133	82.0217	536.133	81.8106	536.133	82.2088
555.176	86.7833	555.176	86.5994	555.176	86.67	555.176	86.0844	555.176	86.3217	555.176	85.2399	555.176	85.8005	555.176	84.1088	555.176	85.1309	555.176	82.8048	555.176	84.3012	555.176	81.5645	555.176	83.307	555.176	80.7164	555.176	82.1805	555.176	80.4139	555.176	80.9931	555.176	80.4416	555.176	79.9066	555.176	80.4583	555.176	79.2717	555.176	80.2534	555.176	79.404	555.176	79.7887	555.176	80.0197	555.176	79.2077	555.176	80.4734	555.176	78.8519	555.176	80.4117	555.176	79.0481	555.176	79.9819	555.176	79.6674	555.176	79.7471	555.176	80.2126	555.176	80.0069	555.176	80.3178
574.219	86.6723	574.219	86.413	574.219	86.6718	574.219	85.8851	574.219	86.4395	574.219	85.1085	574.219	85.9924	574.219	84.1186	574.219	85.3293	574.219	82.964	574.219	84.471	574.219	81.7492	574.219	83.495	574.219	80.6868	574.219	82.5018	574.219	80.0025	574.219	81.5263	574.219	79.6873	574.219	80.5091	574.219	79.501	574.219	79.4314	574.219	79.2328	574.219	78.5682	574.219	78.8447	574.219	78.3919	574.219	78.5111	574.219	78.8114	574.219	78.5816	574.219	79.2922	574.219	79.2416	574.219	79.6944	574.219	80.1826	574.219	80.214	574.219	80.9092	574.219	80.8065	574.219	81.123
594.727	86.1884	594.727	85.9975	594.727	86.0738	594.727	85.5048	594.727	85.6921	594.727	84.7644	594.727	85.1005	594.727	83.862	594.727	84.3539	594.727	82.8744	594.727	83.4984	594.727	81.8408	594.727	82.581	594.727	80.7927	594.727	81.6718	594.727	79.8367	594.727	80.8662	594.727	79.172	594.727	80.2186	594.727	78.9066	594.727	79.6569	594.727	78.8831	594.727	79.025	594.727	78.8372	594.727	78.3094	594.727	78.6808	594.727	77.9679	594.727	78.6604	594.727	78.6585	594.727	79.189	594.727	80.0428	594.727	80.2272	594.727	81.2474	594.727	81.2523	594.727	81.8692	594.727	81.8536
615.234	86.1424	615.234	85.9644	615.234	86.069	615.234	85.5169	615.234	85.7778	615.234	84.801	615.234	85.2965	615.234	83.8263	615.234	84.6345	615.234	82.6189	615.234	83.8014	615.234	81.2734	615.234	82.8345	615.234	80.025	615.234	81.8026	615.234	79.2049	615.234	80.7703	615.234	78.9623	615.234	79.7564	615.234	79.1006	615.234	78.8201	615.234	79.2988	615.234	78.2745	615.234	79.3275	615.234	78.4157	615.234	79.1135	615.234	78.8372	615.234	78.7945	615.234	78.9546	615.234	78.7087	615.234	78.8137	615.234	79.0601	615.234	78.9533	615.234	79.5654	615.234	79.4499	615.234	79.7567
637.207	86.5079	637.207	86.1382	637.207	86.5893	637.207	85.4884	637.207	86.409	637.207	84.5855	637.207	86.0213	637.207	83.4584	637.207	85.456	637.207	82.1421	637.207	84.6833	637.207	80.7399	637.207	83.6792	637.207	79.5363	637.207	82.5247	637.207	78.887	637.207	81.3648	637.207	78.7513	637.207	80.2002	637.207	78.7342	637.207	78.8047	637.207	78.5919	637.207	77.1345	637.207	78.3689	637.207	76.1933	637.207	78.2899	637.207	77.0174	637.207	78.5761	637.207	78.4002	637.207	79.2708	637.207	79.4558	637.207	80.1761	637.207	80.2854	637.207	80.9331	637.207	80.9533	637.207	81.2254
659.18	85.6818	659.18	85.6568	659.18	85.4629	659.18	85.3713	659.18	85.0501	659.18	84.8408	659.18	84.4663	659.18	84.0652	659.18	83.6852	659.18	82.9926	659.18	82.7503	659.18	81.545	659.18	81.899	659.18	79.7307	659.18	81.4273	659.18	77.8638	659.18	81.3304	659.18	76.7629	659.18	81.2212	659.18	77.0117	659.18	80.6072	659.18	77.9118	659.18	79.0658	659.18	78.5716	659.18	76.3625	659.18	78.7271	659.18	74.1946	659.18	78.6131	659.18	76.4951	659.18	78.7695	659.18	79.4869	659.18	79.5456	659.18	81.1669	659.18	80.6221	659.18	81.7206	659.18	81.4578
682.617	87.0568	682.617	86.7709	682.617	87.0696	682.617	86.2416	682.617	86.8323	682.617	85.5337	682.617	86.3644	682.617	84.6981	682.617	85.6053	682.617	83.7316	682.617	84.4666	682.617	82.5763	682.617	83.0096	682.617	81.1806	682.617	81.6209	682.617	79.62	682.617	81.0644	682.617	78.2595	682.617	81.5429	682.617	77.6893	682.617	82.0659	682.617	78.0863	682.617	81.7656	682.617	79.0237	682.617	80.2874	682.617	80.0543	682.617	77.7616	682.617	80.9662	682.617	76.4237	682.617	81.7643	682.617	78.6669	682.617	82.5284	682.617	81.2784	682.617	83.173	682.617	82.8439	682.617	83.392
707.52	87.9704	707.52	87.5202	707.52	88.2147	707.52	86.8653	707.52	88.22	707.52	86.073	707.52	87.8704	707.52	85.2769	707.52	87.0518	707.52	84.5466	707.52	85.7768	707.52	83.7737	707.52	84.1868	707.52	82.7484	707.52	82.4818	707.52	81.3597	707.52	81.0732	707.52	79.7397	707.52	80.4946	707.52	78.2779	707.52	80.4674	707.52	77.4518	707.52	80.0055	707.52	77.4923	707.52	78.3195	707.52	78.248	707.52	75.1898	707.52	79.4726	707.52	73.822	707.52	80.983	707.52	77.507	707.52	82.4837	707.52	80.935	707.52	83.5463	707.52	82.9827	707.52	83.7949
732.422	87.3181	732.422	86.9851	732.422	87.3408	732.422	86.3993	732.422	87.0757	732.422	85.6929	732.422	86.5683	732.422	85.0002	732.422	85.8046	732.422	84.3495	732.422	84.7018	732.422	83.5948	732.422	83.21	732.422	82.4985	732.422	81.4	732.422	80.969	732.422	79.5175	732.422	79.2585	732.422	78.2952	732.422	77.9184	732.422	78.6822	732.422	77.3548	732.422	79.8534	732.422	77.479	732.422	80.1495	732.422	77.9891	732.422	78.5032	732.422	78.6515	732.422	74.6113	732.422	79.3911	732.422	75.1431	732.422	80.2423	732.422	79.1485	732.422	81.0755	732.422	81.0873	732.422	81.5156
757.324	87.7257	757.324	87.5103	757.324	87.6627	757.324	87.0113	757.324	87.3732	757.324	86.2681	757.324	86.8788	757.324	85.3428	757.324	86.1064	757.324	84.3202	757.324	84.9893	757.324	83.2464	757.324	83.5709	757.324	82.0091	757.324	81.881	757.324	80.4173	757.324	80.0456	757.324	78.5298	757.324	78.7977	757.324	77.065	757.324	78.7277	757.324	76.8851	757.324	79.193	757.324	77.3855	757.324	79.4706	757.324	77.8702	757.324	78.9963	757.324	78.7463	757.324	77.3448	757.324	80.3145	757.324	76.1823	757.324	81.9359	757.324	78.6775	757.324	82.9029	757.324	81.454	757.324	82.8282
785.156	87.4196	785.156	87.3032	785.156	87.2027	785.156	86.8279	785.156	86.7443	785.156	86.0594	785.156	86.0672	785.156	85.1195	785.156	85.1291	785.156	84.1537	785.156	84.0833	785.156	83.2399	785.156	83.1641	785.156	82.307	785.156	82.0259	785.156	81.1934	785.156	80.0827	785.156	79.6981	785.156	77.7093	785.156	77.7464	785.156	76.8102	785.156	76.0616	785.156	77.2148	785.156	75.9697	785.156	76.6227	785.156	76.9396	785.156	73.8927	785.156	77.847	785.156	69.2021	785.156	78.7562	785.156	72.325	785.156	80.1265	785.156	77.6775	785.156	81.4448	785.156	80.6775	785.156	81.8053
811.523	87.4962	811.523	87.5947	811.523	87.0394	811.523	87.2024	811.523	86.38	811.523	86.306	811.523	85.6224	811.523	85.0451	811.523	84.9264	811.523	83.7546	811.523	84.4353	811.523	82.8351	811.523	83.8533	811.523	82.2302	811.523	82.7072	811.523	81.4503	811.523	80.8146	811.523	80.1669	811.523	77.9282	811.523	78.2509	811.523	75.3332	811.523	75.76	811.523	77.4134	811.523	74.1261	811.523	79.4032	811.523	75.3673	811.523	78.6698	811.523	77.6532	811.523	73.3745	811.523	79.7184	811.523	65.0478	811.523	81.4357	811.523	77.5521	811.523	82.5634	811.523	81.4258	811.523	82.7204
840.82	87.5545	840.82	87.8143	840.82	86.9387	840.82	87.7131	840.82	86.0403	840.82	87.2719	840.82	85.0129	840.82	86.4064	840.82	84.1122	840.82	84.947	840.82	83.5653	840.82	82.9905	840.82	83.4114	840.82	81.3377	840.82	83.4474	840.82	80.8348	840.82	83.1583	840.82	80.9437	840.82	81.8516	840.82	80.5061	840.82	78.8799	840.82	78.9252	840.82	74.8566	840.82	76.7439	840.82	76.1663	840.82	76.0406	840.82	78.6485	840.82	77.0464	840.82	77.8938	840.82	78.1229	840.82	71.5735	840.82	79.2435	840.82	70.3315	840.82	80.3307	840.82	78.1846	840.82	80.4249
870.117	87.8493	870.117	88.0372	870.117	87.2243	870.117	87.8303	870.117	86.2215	870.117	87.2474	870.117	85.0712	870.117	86.1974	870.117	84.1424	870.117	84.5656	870.117	83.6614	870.117	82.4471	870.117	83.3971	870.117	80.3899	870.117	82.9352	870.117	79.2837	870.117	82.1103	870.117	79.2123	870.117	80.9821	870.117	79.1685	870.117	79.7295	870.117	78.4091	870.117	78.7694	870.117	76.6305	870.117	78.4032	870.117	74.2211	870.117	78.2991	870.117	74.3293	870.117	77.8604	870.117	77.0574	870.117	76.097	870.117	79.1807	870.117	71.886	870.117	79.8213	870.117	73.7963	870.117	78.3428
900.879	88.0182	900.879	88.2067	900.879	87.5325	900.879	87.9363	900.879	86.9103	900.879	87.1893	900.879	86.0688	900.879	85.8792	900.879	85.0804	900.879	83.8377	900.879	84.294	900.879	81.209	900.879	83.6402	900.879	78.9373	900.879	82.7469	900.879	78.1112	900.879	81.692	900.879	78.3556	900.879	80.6038	900.879	78.6586	900.879	79.0349	900.879	78.7855	900.879	76.828	900.879	78.8161	900.879	76.3641	900.879	78.4364	900.879	78.1241	900.879	77.3258	900.879	78.583	900.879	76.6281	900.879	76.6588	900.879	77.9657	900.879	74.7088	900.879	79.356	900.879	77.1554	900.879	79.2201
933.105	87.9349	933.105	87.8939	933.105	87.5421	933.105	87.5835	933.105	86.7077	933.105	86.9297	933.105	85.7684	933.105	85.6662	933.105	84.8212	933.105	83.7751	933.105	83.6704	933.105	81.7562	933.105	82.521	933.105	80.0402	933.105	81.559	933.105	78.1072	933.105	80.7031	933.105	75.627	933.105	80.1497	933.105	74.5476	933.105	79.915	933.105	75.5862	933.105	79.6345	933.105	76.8199	933.105	79.0979	933.105	77.2449	933.105	77.9868	933.105	76.7667	933.105	76.2941	933.105	76.6459	933.105	74.9309	933.105	78.175	933.105	73.8133	933.105	79.3665	933.105	75.219	933.105	78.3922
965.332	88.0407	965.332	88.2472	965.332	87.4652	965.332	87.8517	965.332	86.74	965.332	86.8399	965.332	85.7796	965.332	85.325	965.332	84.6889	965.332	83.4267	965.332	83.9493	965.332	81.257	965.332	83.3324	965.332	79.1561	965.332	82.1686	965.332	77.8523	965.332	80.7167	965.332	77.5659	965.332	79.6363	965.332	77.4045	965.332	78.3191	965.332	76.6615	965.332	76.2784	965.332	76.0574	965.332	76.4899	965.332	76.389	965.332	78.6417	965.332	76.5605	965.332	79.398	965.332	75.8822	965.332	78.1571	965.332	75.9397	965.332	76.1387	965.332	77.5415	965.332	76.6517	965.332	78.0107
1,000.49	87.7498	1,000.49	87.8833	1,000.49	87.4098	1,000.49	87.6923	1,000.49	86.907	1,000.49	87.0332	1,000.49	86.1255	1,000.49	85.7152	1,000.49	85.1314	1,000.49	83.4682	1,000.49	84.1638	1,000.49	80.3357	1,000.49	82.9038	1,000.49	77.4837	1,000.49	81.2068	1,000.49	76.693	1,000.49	80.2127	1,000.49	77.0711	1,000.49	80.1167	1,000.49	76.1728	1,000.49	79.5118	1,000.49	74.5954	1,000.49	78.4355	1,000.49	75.0606	1,000.49	77.0939	1,000.49	76.7292	1,000.49	75.021	1,000.49	77.0566	1,000.49	72.4974	1,000.49	76.21	1,000.49	73.5918	1,000.49	76.9074	1,000.49	74.8963	1,000.49	78.941	1,000.49	76.7416	1,000.49	79.0436
1,035.64	87.2725	1,035.64	87.482	1,035.64	86.9742	1,035.64	87.0557	1,035.64	86.6024	1,035.64	85.7813	1,035.64	85.8579	1,035.64	84.2012	1,035.64	85.1479	1,035.64	83.0833	1,035.64	84.4228	1,035.64	81.8348	1,035.64	82.7391	1,035.64	79.0226	1,035.64	80.6362	1,035.64	72.9474	1,035.64	79.9718	1,035.64	65.9066	1,035.64	80.4405	1,035.64	71.4283	1,035.64	79.7149	1,035.64	73.8964	1,035.64	76.8538	1,035.64	75.1293	1,035.64	75.9964	1,035.64	76.6557	1,035.64	78.6313	1,035.64	77.2374	1,035.64	79.2426	1,035.64	75.6824	1,035.64	78.6465	1,035.64	72.3897	1,035.64	79.1625	1,035.64	73.2466	1,035.64	77.8686	1,035.64	75.3187
1,072.27	87.4243	1,072.27	87.2311	1,072.27	87.4839	1,072.27	86.8843	1,072.27	87.2917	1,072.27	86.143	1,072.27	86.5095	1,072.27	84.3836	1,072.27	85.5854	1,072.27	81.5649	1,072.27	85.2627	1,072.27	79.85	1,072.27	84.5577	1,072.27	80.2299	1,072.27	82.7463	1,072.27	79.0535	1,072.27	80.883	1,072.27	72.433	1,072.27	77.8696	1,072.27	68.6064	1,072.27	77.0888	1,072.27	74.3781	1,072.27	79.6317	1,072.27	75.769	1,072.27	80.1062	1,072.27	75.8206	1,072.27	77.8114	1,072.27	77.0797	1,072.27	70.3102	1,072.27	78.2676	1,072.27	77.7182	1,072.27	77.4911	1,072.27	80.3738	1,072.27	75.9454	1,072.27	78.7052	1,072.27	76.4746
1,108.89	86.2909	1,108.89	85.9475	1,108.89	87.0119	1,108.89	85.7588	1,108.89	87.4498	1,108.89	84.9168	1,108.89	86.8284	1,108.89	82.84	1,108.89	85.1566	1,108.89	79.8704	1,108.89	83.0484	1,108.89	78.3507	1,108.89	81.4794	1,108.89	79.7965	1,108.89	81.497	1,108.89	80.7019	1,108.89	81.875	1,108.89	78.411	1,108.89	80.0445	1,108.89	72.4609	1,108.89	73.1584	1,108.89	59.7729	1,108.89	73.1821	1,108.89	76.3085	1,108.89	80.1949	1,108.89	79.5559	1,108.89	81.4629	1,108.89	79.9133	1,108.89	75.6547	1,108.89	79.8447	1,108.89	72.7453	1,108.89	79.5579	1,108.89	80.865	1,108.89	79.0316	1,108.89	81.3665	1,108.89	79.7191
1,148.44	86.4412	1,148.44	85.6948	1,148.44	87.3496	1,148.44	85.2034	1,148.44	87.9366	1,148.44	84.5607	1,148.44	87.8809	1,148.44	83.0313	1,148.44	87.1076	1,148.44	80.4976	1,148.44	85.2792	1,148.44	77.2432	1,148.44	82.4467	1,148.44	76.836	1,148.44	79.4653	1,148.44	79.8571	1,148.44	78.3037	1,148.44	79.9105	1,148.44	78.3902	1,148.44	77.0909	1,148.44	77.1728	1,148.44	68.103	1,148.44	67.8948	1,148.44	68.3755	1,148.44	77.479	1,148.44	76.9269	1,148.44	82.976	1,148.44	80.414	1,148.44	83.0217	1,148.44	82.1533	1,148.44	77.2634	1,148.44	82.8452	1,148.44	74.3186	1,148.44	82.9791	1,148.44	80.913	1,148.44	82.6763
1,189.45	86.9971	1,189.45	85.895	1,189.45	87.72	1,189.45	84.6605	1,189.45	87.8179	1,189.45	83.3016	1,189.45	87.298	1,189.45	81.8247	1,189.45	86.4779	1,189.45	80.733	1,189.45	85.131	1,189.45	79.227	1,189.45	82.8148	1,189.45	75.386	1,189.45	80.3169	1,189.45	74.2434	1,189.45	78.1154	1,189.45	77.8891	1,189.45	76.4183	1,189.45	79.1502	1,189.45	76.0116	1,189.45	76.8174	1,189.45	73.5472	1,189.45	69.4606	1,189.45	58.8048	1,189.45	65.3482	1,189.45	75.8275	1,189.45	72.8538	1,189.45	80.8807	1,189.45	75.5386	1,189.45	79.3628	1,189.45	76.8083	1,189.45	66.016	1,189.45	77.6691	1,189.45	73.4922	1,189.45	77.5853
1,230.47	87.1823	1,230.47	86.0493	1,230.47	87.7674	1,230.47	84.3689	1,230.47	87.7497	1,230.47	82.5093	1,230.47	87.1126	1,230.47	81.0253	1,230.47	86.0139	1,230.47	80.2543	1,230.47	84.5509	1,230.47	79.5886	1,230.47	82.9043	1,230.47	77.848	1,230.47	80.6232	1,230.47	74.6915	1,230.47	76.8288	1,230.47	72.9078	1,230.47	73.5337	1,230.47	74.7111	1,230.47	74.1769	1,230.47	75.96	1,230.47	73.0098	1,230.47	75.3054	1,230.47	66.8377	1,230.47	73.0652	1,230.47	72.5736	1,230.47	71.9822	1,230.47	77.6738	1,230.47	73.651	1,230.47	77.9126	1,230.47	74.9816	1,230.47	72.7478	1,230.47	74.8217	1,230.47	66.7311	1,230.47	72.7495
1,274.41	86.981	1,274.41	85.0977	1,274.41	87.9548	1,274.41	82.7073	1,274.41	87.8786	1,274.41	80.5653	1,274.41	86.8387	1,274.41	79.6546	1,274.41	85.1651	1,274.41	79.7505	1,274.41	83.2757	1,274.41	78.9859	1,274.41	81.1053	1,274.41	76.6009	1,274.41	79.0277	1,274.41	74.9747	1,274.41	77.0002	1,274.41	74.8602	1,274.41	74.0853	1,274.41	74.5458	1,274.41	70.9083	1,274.41	72.3189	1,274.41	70.4429	1,274.41	71.4219	1,274.41	72.4487	1,274.41	72.1129	1,274.41	70.9324	1,274.41	70.5676	1,274.41	72.2494	1,274.41	67.1903	1,274.41	75.4483	1,274.41	69.48	1,274.41	72.7432	1,274.41	70.1055	1,274.41	68.2176	1,274.41	69.2544
1,319.82	86.6266	1,319.82	84.2632	1,319.82	87.9925	1,319.82	81.0034	1,319.82	88.1087	1,319.82	77.8539	1,319.82	86.928	1,319.82	77.8274	1,319.82	84.5399	1,319.82	79.2794	1,319.82	81.3741	1,319.82	78.6679	1,319.82	78.6084	1,319.82	75.4307	1,319.82	75.7219	1,319.82	72.7244	1,319.82	72.1289	1,319.82	73.6434	1,319.82	65.7474	1,319.82	73.8917	1,319.82	61.6055	1,319.82	72.2673	1,319.82	64.8426	1,319.82	72.4365	1,319.82	63.0004	1,319.82	74.1063	1,319.82	66.5187	1,319.82	73.3886	1,319.82	73.1257	1,319.82	69.81	1,319.82	73.6395	1,319.82	69.8636	1,319.82	72.2745	1,319.82	70.024	1,319.82	69.2385	1,319.82	63.7734
1,366.7	85.7142	1,366.7	82.6974	1,366.7	87.3883	1,366.7	78.4765	1,366.7	87.9072	1,366.7	75.6674	1,366.7	86.9919	1,366.7	76.8523	1,366.7	84.3857	1,366.7	78.3065	1,366.7	80.6646	1,366.7	77.7823	1,366.7	75.7207	1,366.7	75.9568	1,366.7	70.292	1,366.7	74.584	1,366.7	69.6745	1,366.7	73.63	1,366.7	65.5649	1,366.7	74	1,366.7	51.9334	1,366.7	73.9902	1,366.7	42.0666	1,366.7	73.0117	1,366.7	65.2794	1,366.7	72.6863	1,366.7	69.3166	1,366.7	72.9477	1,366.7	65.2395	1,366.7	70.4758	1,366.7	70.359	1,366.7	64.0435	1,366.7	74.2676	1,366.7	57.1489	1,366.7	73.4242	1,366.7	66.6549
1,413.57	85.3824	1,413.57	81.525	1,413.57	86.9388	1,413.57	75.3535	1,413.57	87.3255	1,413.57	74.8367	1,413.57	86.6434	1,413.57	78.0183	1,413.57	84.1159	1,413.57	79.021	1,413.57	79.3654	1,413.57	77.2608	1,413.57	73.7586	1,413.57	76.5935	1,413.57	67.6899	1,413.57	77.772	1,413.57	50.3332	1,413.57	76.6925	1,413.57	58.7467	1,413.57	74.5644	1,413.57	62.0311	1,413.57	73.6179	1,413.57	63.2867	1,413.57	72.8593	1,413.57	61.8656	1,413.57	74.3168	1,413.57	67.1192	1,413.57	75.6027	1,413.57	56.7602	1,413.57	72.541	1,413.57	68.7732	1,413.57	58.6732	1,413.57	75.055	1,413.57	57.7036	1,413.57	74.9157	1,413.57	68.0884
1,463.38	84.1963	1,463.38	79.8412	1,463.38	86.384	1,463.38	70.4102	1,463.38	87.1833	1,463.38	71.5311	1,463.38	86.3806	1,463.38	78.5431	1,463.38	83.9417	1,463.38	79.5494	1,463.38	80.0501	1,463.38	77.9978	1,463.38	74.3053	1,463.38	77.3787	1,463.38	66.993	1,463.38	77.0867	1,463.38	64.0044	1,463.38	75.5752	1,463.38	66.2963	1,463.38	74.8169	1,463.38	59.1442	1,463.38	73.3347	1,463.38	63.531	1,463.38	73.2458	1,463.38	68.2809	1,463.38	73.2432	1,463.38	65.8951	1,463.38	74.4885	1,463.38	67.1713	1,463.38	73.2859	1,463.38	61.2429	1,463.38	66.2665	1,463.38	70.7482	1,463.38	58.2019	1,463.38	73.7866	1,463.38	69.8786
1,516.11	83.1721	1,516.11	77.5799	1,516.11	85.705	1,516.11	64.1014	1,516.11	86.3503	1,516.11	73.1519	1,516.11	85.4329	1,516.11	77.5688	1,516.11	82.5589	1,516.11	77.4039	1,516.11	78.3626	1,516.11	78.8872	1,516.11	73.6473	1,516.11	78.6206	1,516.11	68.9425	1,516.11	72.55	1,516.11	65.2269	1,516.11	69.6457	1,516.11	69.9386	1,516.11	71.4501	1,516.11	71.8431	1,516.11	70.7364	1,516.11	68.771	1,516.11	72.876	1,516.11	70.7054	1,516.11	73.6958	1,516.11	71.919	1,516.11	72.2104	1,516.11	68.7729	1,516.11	72.2339	1,516.11	66.6458	1,516.11	68.4998	1,516.11	69.1331	1,516.11	53.6075	1,516.11	70.1521	1,516.11	67.6902
1,568.85	83.0788	1,568.85	78.114	1,568.85	85.2458	1,568.85	70.5129	1,568.85	85.4915	1,568.85	75.1531	1,568.85	84.4087	1,568.85	77.3385	1,568.85	81.4217	1,568.85	77.9663	1,568.85	76.1416	1,568.85	79.2425	1,568.85	75.024	1,568.85	77.2645	1,568.85	74.9371	1,568.85	75.8467	1,568.85	72.4825	1,568.85	76.5515	1,568.85	70.8522	1,568.85	75.153	1,568.85	65.9878	1,568.85	71.3908	1,568.85	65.7311	1,568.85	69.1918	1,568.85	71.9774	1,568.85	72.7391	1,568.85	68.0775	1,568.85	71.8709	1,568.85	56.637	1,568.85	67.4364	1,568.85	46.5826	1,568.85	65.4764	1,568.85	66.6581	1,568.85	49.9321	1,568.85	71.6821	1,568.85	69.7162
1,624.51	83.7049	1,624.51	79.7341	1,624.51	86.0073	1,624.51	76.3728	1,624.51	85.2998	1,624.51	76.3568	1,624.51	84.0392	1,624.51	78.1657	1,624.51	82.4932	1,624.51	79.6255	1,624.51	78.443	1,624.51	79.9663	1,624.51	76.958	1,624.51	78.0325	1,624.51	75.9717	1,624.51	78.2872	1,624.51	71.0993	1,624.51	77.7758	1,624.51	65.9675	1,624.51	72.8424	1,624.51	72.0128	1,624.51	74.3178	1,624.51	73.0697	1,624.51	74.5211	1,624.51	66.6511	1,624.51	72.3593	1,624.51	66.0729	1,624.51	75.1893	1,624.51	68.0603	1,624.51	70.5671	1,624.51	67.3455	1,624.51	68.8548	1,624.51	66.9172	1,624.51	56.6593	1,624.51	70.2461	1,624.51	69.7286
1,681.64	84.7498	1,681.64	81.836	1,681.64	86.681	1,681.64	77.1462	1,681.64	85.4511	1,681.64	77.7491	1,681.64	81.8826	1,681.64	77.9341	1,681.64	81.1424	1,681.64	78.9219	1,681.64	79.8467	1,681.64	79.0259	1,681.64	76.0646	1,681.64	78.8783	1,681.64	75.5092	1,681.64	78.1989	1,681.64	76.3807	1,681.64	76.9002	1,681.64	73.9887	1,681.64	77.2488	1,681.64	71.7644	1,681.64	70.9957	1,681.64	71.3244	1,681.64	69.0079	1,681.64	74.8503	1,681.64	71.4699	1,681.64	69.7925	1,681.64	69.6233	1,681.64	67.7378	1,681.64	67.5062	1,681.64	67.2073	1,681.64	64.1642	1,681.64	60.942	1,681.64	67.5013	1,681.64	71.1291	1,681.64	68.6515
1,741.7	86.466	1,741.7	83.9158	1,741.7	87.0207	1,741.7	79.1846	1,741.7	85.9521	1,741.7	78.828	1,741.7	81.661	1,741.7	80.6086	1,741.7	79.4637	1,741.7	81.3529	1,741.7	79.3612	1,741.7	77.9846	1,741.7	77.9075	1,741.7	79.1379	1,741.7	78.7429	1,741.7	77.2419	1,741.7	78.2424	1,741.7	73.8908	1,741.7	76.5026	1,741.7	75.0356	1,741.7	74.1575	1,741.7	72.6698	1,741.7	63.9855	1,741.7	70.8013	1,741.7	73.8495	1,741.7	73.7291	1,741.7	71.5765	1,741.7	74.3431	1,741.7	67.3203	1,741.7	73.5419	1,741.7	70.8971	1,741.7	66.8256	1,741.7	72.3318	1,741.7	66.9691	1,741.7	74.3879	1,741.7	72.7066
1,803.22	86.4526	1,803.22	83.7475	1,803.22	86.9775	1,803.22	81.4168	1,803.22	86.0479	1,803.22	81.5943	1,803.22	82.5945	1,803.22	80.646	1,803.22	81.9073	1,803.22	76.6179	1,803.22	82.5387	1,803.22	79.5961	1,803.22	79.3151	1,803.22	81.9086	1,803.22	77.6796	1,803.22	78.3088	1,803.22	75.3357	1,803.22	79.1709	1,803.22	75.686	1,803.22	78.5785	1,803.22	73.2888	1,803.22	76.3828	1,803.22	71.9824	1,803.22	73.8915	1,803.22	75.8316	1,803.22	76.6677	1,803.22	77.8996	1,803.22	77.2416	1,803.22	67.6425	1,803.22	75.8748	1,803.22	74.4882	1,803.22	62.8348	1,803.22	70.3625	1,803.22	61.0285	1,803.22	71.8205	1,803.22	69.2359
1,866.21	86.2574	1,866.21	83.7337	1,866.21	85.9765	1,866.21	81.3762	1,866.21	84.4956	1,866.21	81.7014	1,866.21	82.2973	1,866.21	81.8162	1,866.21	81.2333	1,866.21	79.4681	1,866.21	79.3661	1,866.21	80.8866	1,866.21	78.684	1,866.21	79.7257	1,866.21	77.8663	1,866.21	77.0726	1,866.21	77.0775	1,866.21	79.1478	1,866.21	76.8975	1,866.21	73.3572	1,866.21	78.1675	1,866.21	74.1074	1,866.21	72.5564	1,866.21	69.6061	1,866.21	73.4618	1,866.21	74.9737	1,866.21	77.7574	1,866.21	75.5545	1,866.21	73.5514	1,866.21	76.177	1,866.21	68.0726	1,866.21	74.9546	1,866.21	69.1345	1,866.21	65.3191	1,866.21	66.9525	1,866.21	67.9435
1,932.13	85.8228	1,932.13	83.4129	1,932.13	85.7859	1,932.13	82.7216	1,932.13	85.3317	1,932.13	80.6742	1,932.13	79.8838	1,932.13	82.1354	1,932.13	76.7068	1,932.13	82.017	1,932.13	79.7225	1,932.13	81.3089	1,932.13	81.4411	1,932.13	77.648	1,932.13	76.374	1,932.13	80.1354	1,932.13	79.1795	1,932.13	76.6103	1,932.13	79.8324	1,932.13	75.5593	1,932.13	79.0728	1,932.13	77.1906	1,932.13	75.3029	1,932.13	71.1035	1,932.13	74.3666	1,932.13	67.0657	1,932.13	74.2443	1,932.13	70.7885	1,932.13	75.3793	1,932.13	50.9065	1,932.13	53.1221	1,932.13	72.1083	1,932.13	63.5776	1,932.13	68.9767	1,932.13	75.1599	1,932.13	69.3527
1,999.51	86.3088	1,999.51	82.4203	1,999.51	87.449	1,999.51	80.5754	1,999.51	84.1908	1,999.51	82.9697	1,999.51	80.6047	1,999.51	82.6978	1,999.51	80.6059	1,999.51	81.4216	1,999.51	81.1042	1,999.51	79.4462	1,999.51	81.6106	1,999.51	74.4226	1,999.51	80.8916	1,999.51	71.8244	1,999.51	80.1387	1,999.51	73.4389	1,999.51	77.6349	1,999.51	69.254	1,999.51	79.8164	1,999.51	71.4107	1,999.51	79.5699	1,999.51	78.3542	1,999.51	77.3945	1,999.51	79.026	1,999.51	65.7919	1,999.51	73.5031	1,999.51	77.1719	1,999.51	75.5796	1,999.51	49.1305	1,999.51	71.3736	1,999.51	64.0933	1,999.51	73.7582	1,999.51	71.9316	1,999.51	71.4684
2,069.82	86.1016	2,069.82	84.1817	2,069.82	87.337	2,069.82	81.3963	2,069.82	85.5351	2,069.82	82.0789	2,069.82	82.1271	2,069.82	83.7942	2,069.82	80.8458	2,069.82	83.05	2,069.82	83.276	2,069.82	79.8453	2,069.82	80.7382	2,069.82	83.1101	2,069.82	79.3384	2,069.82	79.2162	2,069.82	78.872	2,069.82	72.2822	2,069.82	74.1929	2,069.82	64.044	2,069.82	74.4721	2,069.82	65.483	2,069.82	74.6083	2,069.82	73.3142	2,069.82	75.9423	2,069.82	73.9769	2,069.82	74.7597	2,069.82	66.0122	2,069.82	71.9329	2,069.82	73.4042	2,069.82	66.6825	2,069.82	71.3866	2,069.82	66.642	2,069.82	63.3369	2,069.82	77.8075	2,069.82	72.1374
2,143.07	85.4698	2,143.07	84.191	2,143.07	87.8075	2,143.07	81.6168	2,143.07	86.4675	2,143.07	83.3442	2,143.07	80.3248	2,143.07	83.3782	2,143.07	78.6193	2,143.07	82.1838	2,143.07	82.6716	2,143.07	82.6655	2,143.07	81.1332	2,143.07	81.7048	2,143.07	79.474	2,143.07	75.0169	2,143.07	78.2488	2,143.07	77.3236	2,143.07	76.897	2,143.07	73.1776	2,143.07	69.3596	2,143.07	74.4687	2,143.07	73.9562	2,143.07	66.0526	2,143.07	74.5804	2,143.07	72.0361	2,143.07	75.8749	2,143.07	66.3254	2,143.07	63.6195	2,143.07	71.4526	2,143.07	74.0536	2,143.07	71.6704	2,143.07	59.4509	2,143.07	70.0838	2,143.07	73.6968	2,143.07	69.9804
2,219.24	85.0652	2,219.24	84.1854	2,219.24	86.1193	2,219.24	84.9865	2,219.24	85.2197	2,219.24	83.3987	2,219.24	78.1411	2,219.24	82.1897	2,219.24	77.4413	2,219.24	80.6518	2,219.24	82.4925	2,219.24	82.7851	2,219.24	82.3206	2,219.24	80.938	2,219.24	79.0581	2,219.24	79.2039	2,219.24	77.2035	2,219.24	79.5389	2,219.24	81.6152	2,219.24	74.962	2,219.24	78.956	2,219.24	74.0956	2,219.24	75.2992	2,219.24	73.2319	2,219.24	71.0384	2,219.24	69.9455	2,219.24	72.5189	2,219.24	74.7386	2,219.24	67.4023	2,219.24	70.9895	2,219.24	61.2548	2,219.24	59.4727	2,219.24	67.1643	2,219.24	68.8529	2,219.24	73.6509	2,219.24	69.3974
2,296.88	84.8594	2,296.88	82.6034	2,296.88	85.8123	2,296.88	83.6478	2,296.88	85.6681	2,296.88	84.5022	2,296.88	83.0514	2,296.88	83.2665	2,296.88	78.0249	2,296.88	83.8838	2,296.88	80.9213	2,296.88	83.08	2,296.88	83.3634	2,296.88	78.1035	2,296.88	83.2503	2,296.88	81.9154	2,296.88	76.4265	2,296.88	80.032	2,296.88	76.0658	2,296.88	77.2018	2,296.88	73.4445	2,296.88	76.556	2,296.88	75.1757	2,296.88	68.6625	2,296.88	72.6692	2,296.88	72.6959	2,296.88	71.6234	2,296.88	76.4064	2,296.88	68.9337	2,296.88	74.3076	2,296.88	57.3447	2,296.88	67.9552	2,296.88	63.8432	2,296.88	71.0759	2,296.88	69.1752	2,296.88	69.2294
2,378.91	85.9371	2,378.91	84.9162	2,378.91	84.509	2,378.91	84.1565	2,378.91	82.8416	2,378.91	85.3722	2,378.91	80.759	2,378.91	83.9073	2,378.91	76.6506	2,378.91	80.974	2,378.91	81.3446	2,378.91	77.358	2,378.91	82.5097	2,378.91	79.7901	2,378.91	82.2467	2,378.91	82.528	2,378.91	70.7548	2,378.91	75.7588	2,378.91	76.2831	2,378.91	74.9336	2,378.91	79.3471	2,378.91	77.2713	2,378.91	78.8194	2,378.91	74.4436	2,378.91	69.3603	2,378.91	70.78	2,378.91	74.0664	2,378.91	67.9625	2,378.91	70.2555	2,378.91	70.6233	2,378.91	70.8313	2,378.91	74.119	2,378.91	64.1898	2,378.91	72.5162	2,378.91	73.6199	2,378.91	68.611
2,462.4	86.8153	2,462.4	86.2856	2,462.4	86.814	2,462.4	84.2884	2,462.4	85.0194	2,462.4	84.2212	2,462.4	81.577	2,462.4	82.4854	2,462.4	80.3888	2,462.4	81.6672	2,462.4	82.6511	2,462.4	80.2019	2,462.4	82.736	2,462.4	79.1123	2,462.4	82.9159	2,462.4	77.3322	2,462.4	76.1539	2,462.4	76.6402	2,462.4	72.7945	2,462.4	71.902	2,462.4	76.7715	2,462.4	72.4362	2,462.4	73.6331	2,462.4	69.2537	2,462.4	74.1511	2,462.4	70.0116	2,462.4	70.0914	2,462.4	70.5451	2,462.4	67.4138	2,462.4	67.8885	2,462.4	60.2212	2,462.4	72.076	2,462.4	65.2841	2,462.4	73.9228	2,462.4	71.0101	2,462.4	71.0634
2,548.83	86.3479	2,548.83	85.6852	2,548.83	87.1636	2,548.83	85.7189	2,548.83	86.3054	2,548.83	84.0228	2,548.83	82.2111	2,548.83	83.2581	2,548.83	80.3666	2,548.83	81.7112	2,548.83	82.3434	2,548.83	80.6015	2,548.83	82.5151	2,548.83	77.63	2,548.83	81.1373	2,548.83	76.9254	2,548.83	78.5489	2,548.83	73.536	2,548.83	75.8228	2,548.83	72.4371	2,548.83	76.6703	2,548.83	72.8983	2,548.83	72.54	2,548.83	71.6636	2,548.83	72.8195	2,548.83	67.9978	2,548.83	70.5325	2,548.83	73.1585	2,548.83	65.8937	2,548.83	69.2274	2,548.83	54.3632	2,548.83	66.6807	2,548.83	68.9176	2,548.83	72.6646	2,548.83	73.1872	2,548.83	72.2212
2,639.65	84.6778	2,639.65	84.2365	2,639.65	85.7599	2,639.65	85.0678	2,639.65	86.5455	2,639.65	84.0953	2,639.65	84.0513	2,639.65	83.3944	2,639.65	80.4635	2,639.65	82.203	2,639.65	83.4045	2,639.65	80.6529	2,639.65	83.1367	2,639.65	78.7496	2,639.65	81.2555	2,639.65	77.9436	2,639.65	78.7153	2,639.65	76.5678	2,639.65	76.5745	2,639.65	73.8585	2,639.65	76.2388	2,639.65	71.3109	2,639.65	72.9418	2,639.65	74.2366	2,639.65	71.6548	2,639.65	66.5428	2,639.65	66.5084	2,639.65	72.6341	2,639.65	66.9909	2,639.65	72.4734	2,639.65	62.7002	2,639.65	69.3386	2,639.65	65.2323	2,639.65	67.1437	2,639.65	71.9852	2,639.65	68.6263
2,731.93	83.2739	2,731.93	83.4688	2,731.93	84.1905	2,731.93	82.6116	2,731.93	84.7549	2,731.93	84.6351	2,731.93	83.5801	2,731.93	83.4796	2,731.93	80.0274	2,731.93	82.7341	2,731.93	82.1928	2,731.93	79.8396	2,731.93	82.8427	2,731.93	78.3592	2,731.93	80.7939	2,731.93	74.7767	2,731.93	77.9242	2,731.93	75.8545	2,731.93	75.6328	2,731.93	70.6578	2,731.93	75.2432	2,731.93	70.3345	2,731.93	72.2578	2,731.93	70.4408	2,731.93	71.4287	2,731.93	69.2116	2,731.93	67.9093	2,731.93	69.0136	2,731.93	67.3494	2,731.93	73.0261	2,731.93	63.2882	2,731.93	70.3108	2,731.93	62.471	2,731.93	68.3727	2,731.93	70.2502	2,731.93	71.4716
2,828.61	85.3085	2,828.61	84.6594	2,828.61	84.5314	2,828.61	84.1779	2,828.61	83.984	2,828.61	84.1074	2,828.61	83.1671	2,828.61	83.5612	2,828.61	80.4421	2,828.61	81.0367	2,828.61	81.4333	2,828.61	79.9374	2,828.61	81.2599	2,828.61	75.962	2,828.61	79.3972	2,828.61	73.6304	2,828.61	78.2339	2,828.61	69.4014	2,828.61	77.6087	2,828.61	71.8167	2,828.61	70.4457	2,828.61	67.3801	2,828.61	66.277	2,828.61	68.4952	2,828.61	72.979	2,828.61	66.3845	2,828.61	60.9216	2,828.61	67.68	2,828.61	71.173	2,828.61	70.6385	2,828.61	64.6091	2,828.61	70.1873	2,828.61	63.8433	2,828.61	69.6638	2,828.61	68.0496	2,828.61	71.0071
2,928.22	86.7502	2,928.22	85.9748	2,928.22	85.0807	2,928.22	85.8816	2,928.22	85.3506	2,928.22	83.9148	2,928.22	84.0939	2,928.22	82.6705	2,928.22	81.0483	2,928.22	81.0295	2,928.22	81.5324	2,928.22	79.5292	2,928.22	81.2385	2,928.22	76.0966	2,928.22	78.6913	2,928.22	75.0489	2,928.22	78.4546	2,928.22	74.1153	2,928.22	75.0168	2,928.22	72.7103	2,928.22	65.8713	2,928.22	69.1916	2,928.22	68.767	2,928.22	65.0657	2,928.22	72.0846	2,928.22	61.5987	2,928.22	68.8984	2,928.22	60.6219	2,928.22	70.8471	2,928.22	69.6427	2,928.22	56.9357	2,928.22	68.3312	2,928.22	66.8137	2,928.22	70.6293	2,928.22	67.4115	2,928.22	72.3089
3,030.76	87.3001	3,030.76	86.2604	3,030.76	85.9091	3,030.76	86.0222	3,030.76	85.2969	3,030.76	84.4427	3,030.76	85.1123	3,030.76	82.4983	3,030.76	81.4391	3,030.76	80.6547	3,030.76	82.5014	3,030.76	76.5557	3,030.76	82.7923	3,030.76	77.3873	3,030.76	79.9044	3,030.76	75.7391	3,030.76	79.7095	3,030.76	72.0621	3,030.76	67.9564	3,030.76	69.5919	3,030.76	61.2564	3,030.76	70.6999	3,030.76	72.5037	3,030.76	67.8355	3,030.76	69.4142	3,030.76	65.118	3,030.76	72.1191	3,030.76	62.746	3,030.76	67.5551	3,030.76	64.584	3,030.76	53.6548	3,030.76	64.1048	3,030.76	65.5956	3,030.76	67.4391	3,030.76	64.3299	3,030.76	69.2907
3,137.7	86.8307	3,137.7	85.862	3,137.7	87.0878	3,137.7	86.1847	3,137.7	84.4138	3,137.7	85.0912	3,137.7	84.6392	3,137.7	82.4398	3,137.7	81.7704	3,137.7	80.6241	3,137.7	82.7479	3,137.7	78.1606	3,137.7	81.1044	3,137.7	76.5145	3,137.7	79.3293	3,137.7	73.7781	3,137.7	77.9721	3,137.7	74.1229	3,137.7	61.9487	3,137.7	72.748	3,137.7	69.5636	3,137.7	72.2446	3,137.7	69.684	3,137.7	70.4599	3,137.7	72.0764	3,137.7	67.4241	3,137.7	73.2537	3,137.7	64.9722	3,137.7	64.8798	3,137.7	65.6783	3,137.7	63.3216	3,137.7	65.4361	3,137.7	63.2693	3,137.7	67.8905	3,137.7	66.0771	3,137.7	68.2346
3,249.02	86.146	3,249.02	86.2732	3,249.02	86.6304	3,249.02	85.4552	3,249.02	84.7938	3,249.02	85.2225	3,249.02	84.4999	3,249.02	82.5565	3,249.02	81.799	3,249.02	80.3426	3,249.02	80.8717	3,249.02	78.3951	3,249.02	81.7865	3,249.02	76.1893	3,249.02	81.182	3,249.02	77.5471	3,249.02	75.6505	3,249.02	75.1384	3,249.02	64.245	3,249.02	72.8874	3,249.02	71.2215	3,249.02	69.0677	3,249.02	69.9837	3,249.02	71.2006	3,249.02	68.4497	3,249.02	62.3896	3,249.02	74.9869	3,249.02	68.17	3,249.02	66.9925	3,249.02	67.0978	3,249.02	64.2276	3,249.02	64.0808	3,249.02	62.7006	3,249.02	68.026	3,249.02	66.2642	3,249.02	69.905
3,363.28	86.6207	3,363.28	86.4117	3,363.28	86.8414	3,363.28	85.8069	3,363.28	85.0612	3,363.28	85.0034	3,363.28	85.0212	3,363.28	82.0253	3,363.28	81.4421	3,363.28	80.4429	3,363.28	79.4879	3,363.28	79.0995	3,363.28	81.149	3,363.28	77.5132	3,363.28	83.226	3,363.28	74.3963	3,363.28	75.5344	3,363.28	68.5245	3,363.28	72.5857	3,363.28	71.547	3,363.28	76.5677	3,363.28	68.6264	3,363.28	61.4104	3,363.28	71.4996	3,363.28	68.1301	3,363.28	64.8894	3,363.28	74.7198	3,363.28	66.2288	3,363.28	60.39	3,363.28	66.7233	3,363.28	64.2577	3,363.28	64.991	3,363.28	63.0616	3,363.28	66.393	3,363.28	67.5645	3,363.28	69.5956
3,481.93	87.1698	3,481.93	87.0382	3,481.93	87.1257	3,481.93	86.9706	3,481.93	85.9763	3,481.93	85.2563	3,481.93	85.1406	3,481.93	82.4312	3,481.93	82.4686	3,481.93	81.2287	3,481.93	75.6516	3,481.93	78.7363	3,481.93	80.8706	3,481.93	75.9684	3,481.93	83.8766	3,481.93	73.8735	3,481.93	75.8122	3,481.93	74.2862	3,481.93	76.2272	3,481.93	70.281	3,481.93	76.1449	3,481.93	68.0879	3,481.93	67.7762	3,481.93	69.2401	3,481.93	64.5291	3,481.93	68.2786	3,481.93	72.1451	3,481.93	65.494	3,481.93	58.4813	3,481.93	66.751	3,481.93	65.9134	3,481.93	63.1864	3,481.93	65.7022	3,481.93	65.4582	3,481.93	68.0836	3,481.93	67.824
3,604.98	87.7154	3,604.98	86.8823	3,604.98	86.734	3,604.98	86.7515	3,604.98	85.3993	3,604.98	85.0006	3,604.98	84.8773	3,604.98	82.3003	3,604.98	81.6906	3,604.98	81.1346	3,604.98	74.9832	3,604.98	78.4374	3,604.98	81.8183	3,604.98	77.2935	3,604.98	82.8444	3,604.98	76.1168	3,604.98	78.5399	3,604.98	71.2029	3,604.98	78.4777	3,604.98	71.1762	3,604.98	77.7841	3,604.98	70.0543	3,604.98	71.286	3,604.98	69.498	3,604.98	70.2274	3,604.98	68.737	3,604.98	72.4632	3,604.98	66.9543	3,604.98	58.3406	3,604.98	68.7948	3,604.98	65.8322	3,604.98	63.6856	3,604.98	62.0453	3,604.98	66.5101	3,604.98	66.1125	3,604.98	67.6711
3,732.42	87.8371	3,732.42	86.7171	3,732.42	87.8293	3,732.42	86.6148	3,732.42	85.0504	3,732.42	84.2236	3,732.42	84.5033	3,732.42	83.1146	3,732.42	81.5589	3,732.42	81.486	3,732.42	75.5204	3,732.42	78.5307	3,732.42	81.7128	3,732.42	76.664	3,732.42	81.6268	3,732.42	72.3011	3,732.42	78.6004	3,732.42	72.5194	3,732.42	77.1986	3,732.42	69.0562	3,732.42	77.2016	3,732.42	68.7897	3,732.42	72.8953	3,732.42	66.489	3,732.42	74.8194	3,732.42	69.3912	3,732.42	69.1306	3,732.42	63.9804	3,732.42	52.5506	3,732.42	69.6682	3,732.42	66.3823	3,732.42	64.9521	3,732.42	64.4502	3,732.42	67.1705	3,732.42	69.7453	3,732.42	69.421
3,864.26	86.8133	3,864.26	86.6112	3,864.26	87.4378	3,864.26	86.734	3,864.26	86.5276	3,864.26	83.7648	3,864.26	84.9683	3,864.26	82.9497	3,864.26	82.9522	3,864.26	81.1865	3,864.26	76.0049	3,864.26	78.4435	3,864.26	82.0312	3,864.26	76.7423	3,864.26	79.0668	3,864.26	75.7476	3,864.26	77.8562	3,864.26	73.0543	3,864.26	68.2637	3,864.26	70.6394	3,864.26	72.646	3,864.26	68.4294	3,864.26	72.4931	3,864.26	65.4747	3,864.26	72.3026	3,864.26	66.8575	3,864.26	67.6795	3,864.26	64.3011	3,864.26	62.2662	3,864.26	67.403	3,864.26	67.4218	3,864.26	65.2242	3,864.26	66.3564	3,864.26	64.4851	3,864.26	69.1157	3,864.26	70.0523
4,000.49	86.5612	4,000.49	87.1515	4,000.49	86.6039	4,000.49	85.9223	4,000.49	85.4132	4,000.49	84.5014	4,000.49	85.7325	4,000.49	81.9112	4,000.49	83.9577	4,000.49	81.0051	4,000.49	78.8473	4,000.49	77.4337	4,000.49	79.8897	4,000.49	76.7921	4,000.49	78.2661	4,000.49	71.6984	4,000.49	76.8224	4,000.49	69.3491	4,000.49	70.2671	4,000.49	68.8521	4,000.49	61.6075	4,000.49	67.5077	4,000.49	67.093	4,000.49	67.8259	4,000.49	70.0196	4,000.49	65.6121	4,000.49	68.283	4,000.49	60.2745	4,000.49	56.5037	4,000.49	67.2518	4,000.49	67.0169	4,000.49	63.475	4,000.49	59.7099	4,000.49	61.8717	4,000.49	66.758	4,000.49	68.686
4,141.11	87.3734	4,141.11	87.3203	4,141.11	87.8251	4,141.11	85.7391	4,141.11	85.7764	4,141.11	85.3606	4,141.11	85.5955	4,141.11	83.0332	4,141.11	84.7429	4,141.11	80.335	4,141.11	79.0467	4,141.11	78.3802	4,141.11	78.6053	4,141.11	73.9003	4,141.11	76.7504	4,141.11	74.4597	4,141.11	77.9087	4,141.11	73.6848	4,141.11	74.7557	4,141.11	68.9596	4,141.11	63.2753	4,141.11	68.1697	4,141.11	59.2394	4,141.11	62.3668	4,141.11	67.3995	4,141.11	67.4898	4,141.11	67.578	4,141.11	62.4175	4,141.11	58.2056	4,141.11	65.0173	4,141.11	67.1364	4,141.11	60.109	4,141.11	59.9915	4,141.11	63.2928	4,141.11	66.9189	4,141.11	67.281
4,287.6	87.7375	4,287.6	87.2227	4,287.6	87.5184	4,287.6	86.7244	4,287.6	86.301	4,287.6	85.1543	4,287.6	85.177	4,287.6	81.8713	4,287.6	85.0434	4,287.6	79.8327	4,287.6	79.8379	4,287.6	75.3309	4,287.6	78.1347	4,287.6	76.43	4,287.6	79.4316	4,287.6	70.5199	4,287.6	79.5635	4,287.6	70.4798	4,287.6	74.3779	4,287.6	70.3062	4,287.6	68.1424	4,287.6	65.5874	4,287.6	68.759	4,287.6	66.0435	4,287.6	62.7368	4,287.6	68.5548	4,287.6	64.7736	4,287.6	58.983	4,287.6	62.0874	4,287.6	66.2828	4,287.6	66.0692	4,287.6	61.1145	4,287.6	63.2244	4,287.6	61.8974	4,287.6	68.0191	4,287.6	67.5524
4,438.48	87.6824	4,438.48	86.8225	4,438.48	87.2672	4,438.48	86.5431	4,438.48	86.4763	4,438.48	84.6121	4,438.48	84.5649	4,438.48	82.4062	4,438.48	85.1375	4,438.48	79.9653	4,438.48	81.4021	4,438.48	76.1471	4,438.48	79.2778	4,438.48	74.1325	4,438.48	81.8354	4,438.48	74.7892	4,438.48	77.9342	4,438.48	73.6277	4,438.48	71.3026	4,438.48	69.2669	4,438.48	69.2494	4,438.48	69.2881	4,438.48	71.0623	4,438.48	66.5555	4,438.48	66.0788	4,438.48	66.9104	4,438.48	63.1243	4,438.48	65.1531	4,438.48	61.9189	4,438.48	64.5591	4,438.48	62.0692	4,438.48	60.7706	4,438.48	64.0218	4,438.48	62.3692	4,438.48	68.5572	4,438.48	68.9428
4,595.21	86.9144	4,595.21	86.5835	4,595.21	87.3616	4,595.21	86.3745	4,595.21	86.7143	4,595.21	84.5829	4,595.21	84.9243	4,595.21	80.6266	4,595.21	85.4372	4,595.21	78.8349	4,595.21	80.179	4,595.21	75.1892	4,595.21	79.207	4,595.21	76.782	4,595.21	80.3254	4,595.21	72.4933	4,595.21	76.0648	4,595.21	71.1599	4,595.21	71.449	4,595.21	70.1463	4,595.21	68.9691	4,595.21	68.1018	4,595.21	68.0653	4,595.21	60.9174	4,595.21	63.7414	4,595.21	65.0949	4,595.21	66.6246	4,595.21	63.9833	4,595.21	58.4898	4,595.21	64.3261	4,595.21	63.3008	4,595.21	63.9	4,595.21	63.2871	4,595.21	51.7325	4,595.21	66.2166	4,595.21	67.2618
4,756.35	88.0759	4,756.35	86.8737	4,756.35	87.0048	4,756.35	87.2083	4,756.35	86.2809	4,756.35	83.3505	4,756.35	85.4865	4,756.35	80.7376	4,756.35	83.9025	4,756.35	77.3905	4,756.35	78.9597	4,756.35	75.9223	4,756.35	77.9332	4,756.35	72.1488	4,756.35	78.4893	4,756.35	72.9343	4,756.35	76.3776	4,756.35	69.3631	4,756.35	68.7634	4,756.35	70.3491	4,756.35	52.0014	4,756.35	65.5032	4,756.35	45.0453	4,756.35	66.8818	4,756.35	62.4014	4,756.35	64.4736	4,756.35	66.0204	4,756.35	60.8396	4,756.35	57.2106	4,756.35	64.1048	4,756.35	63.7097	4,756.35	60.6363	4,756.35	62.2661	4,756.35	57.0758	4,756.35	65.6435	4,756.35	65.6805
4,924.8	87.5236	4,924.8	87.3581	4,924.8	87.7821	4,924.8	86.214	4,924.8	86.4252	4,924.8	83.8323	4,924.8	83.7837	4,924.8	80.4012	4,924.8	84.1822	4,924.8	78.2057	4,924.8	75.8677	4,924.8	74.0384	4,924.8	76.4391	4,924.8	73.8985	4,924.8	76.1872	4,924.8	69.5989	4,924.8	71.6457	4,924.8	71.2363	4,924.8	64.6314	4,924.8	68.0823	4,924.8	67.1944	4,924.8	68.3214	4,924.8	66.7207	4,924.8	67.2004	4,924.8	65.493	4,924.8	65.2905	4,924.8	66.7236	4,924.8	62.4467	4,924.8	51.2105	4,924.8	62.3194	4,924.8	61.2103	4,924.8	60.4539	4,924.8	56.61	4,924.8	52.4516	4,924.8	65.3324	4,924.8	66.5095
5,097.66	87.3345	5,097.66	86.5084	5,097.66	86.7353	5,097.66	86.2772	5,097.66	87.1054	5,097.66	83.4966	5,097.66	82.9212	5,097.66	79.5767	5,097.66	83.1476	5,097.66	78.298	5,097.66	78.305	5,097.66	75.5021	5,097.66	73.418	5,097.66	73.3641	5,097.66	72.4666	5,097.66	74.17	5,097.66	63.5173	5,097.66	67.7067	5,097.66	70.6463	5,097.66	69.7148	5,097.66	68.7806	5,097.66	66.2718	5,097.66	61.9481	5,097.66	64.5916	5,097.66	62.3742	5,097.66	64.5307	5,097.66	66.648	5,097.66	63.0812	5,097.66	56.9705	5,097.66	65.0849	5,097.66	61.0275	5,097.66	62.5477	5,097.66	53.8936	5,097.66	51.1657	5,097.66	66.1742	5,097.66	60.569
5,277.83	87.3534	5,277.83	87.2712	5,277.83	87.1316	5,277.83	85.848	5,277.83	85.8725	5,277.83	83.7318	5,277.83	83.8828	5,277.83	80.2339	5,277.83	82.5961	5,277.83	78.0436	5,277.83	78.7432	5,277.83	75.7635	5,277.83	66.9102	5,277.83	74.6922	5,277.83	73.6918	5,277.83	70.8271	5,277.83	71.3815	5,277.83	71.3278	5,277.83	71.2091	5,277.83	68.033	5,277.83	65.453	5,277.83	65.5387	5,277.83	67.6247	5,277.83	66.3043	5,277.83	63.4957	5,277.83	65.4808	5,277.83	67.4023	5,277.83	65.3588	5,277.83	52.2734	5,277.83	66.4538	5,277.83	63.3401	5,277.83	55.8939	5,277.83	55.5362	5,277.83	54.1271	5,277.83	60.4753	5,277.83	60.3937
5,463.87	86.7592	5,463.87	86.7821	5,463.87	86.8349	5,463.87	85.5671	5,463.87	85.688	5,463.87	82.5653	5,463.87	84.3579	5,463.87	79.8672	5,463.87	82.4801	5,463.87	77.3288	5,463.87	78.1449	5,463.87	76.5271	5,463.87	65.4669	5,463.87	74.6068	5,463.87	73.147	5,463.87	72.4246	5,463.87	74.5119	5,463.87	69.2381	5,463.87	69.8221	5,463.87	67.8457	5,463.87	64.7979	5,463.87	66.9301	5,463.87	69.5447	5,463.87	66.2084	5,463.87	59.4613	5,463.87	64.4263	5,463.87	67.1925	5,463.87	64.3756	5,463.87	58.5444	5,463.87	65.9328	5,463.87	59.9586	5,463.87	62.2989	5,463.87	59.5785	5,463.87	53.9629	5,463.87	60.0648	5,463.87	60.0728
5,657.23	87.0388	5,657.23	86.2252	5,657.23	86.5731	5,657.23	84.867	5,657.23	86.2796	5,657.23	83.0413	5,657.23	83.6501	5,657.23	79.3964	5,657.23	81.6733	5,657.23	77.5477	5,657.23	80.6917	5,657.23	75.5536	5,657.23	62.0928	5,657.23	73.8914	5,657.23	76.5352	5,657.23	71.2687	5,657.23	76.2757	5,657.23	70.5193	5,657.23	73.6133	5,657.23	67.6143	5,657.23	63.675	5,657.23	67.3195	5,657.23	71.2072	5,657.23	64.9968	5,657.23	54.403	5,657.23	64.3967	5,657.23	60.2037	5,657.23	64.3253	5,657.23	62.625	5,657.23	66.9268	5,657.23	61.1584	5,657.23	63.159	5,657.23	53.3609	5,657.23	53.4453	5,657.23	59.1595	5,657.23	59.4745
5,856.45	86.6593	5,856.45	86.435	5,856.45	85.3763	5,856.45	85.2447	5,856.45	85.7156	5,856.45	82.0799	5,856.45	83.0511	5,856.45	79.0924	5,856.45	80.8979	5,856.45	77.9263	5,856.45	80.6127	5,856.45	75.9305	5,856.45	72.5142	5,856.45	74.4814	5,856.45	75.6195	5,856.45	71.0961	5,856.45	76.7254	5,856.45	69.1177	5,856.45	75.0394	5,856.45	66.7493	5,856.45	51.2977	5,856.45	63.1487	5,856.45	69.7302	5,856.45	65.0852	5,856.45	58.0514	5,856.45	65.2341	5,856.45	60.813	5,856.45	64.7083	5,856.45	64.2247	5,856.45	65.2512	5,856.45	59.6558	5,856.45	64.8014	5,856.45	55.2149	5,856.45	51.4692	5,856.45	59.3523	5,856.45	60.7125
6,062.99	86.702	6,062.99	86.1138	6,062.99	86.3078	6,062.99	84.4635	6,062.99	83.8825	6,062.99	82.3513	6,062.99	81.7251	6,062.99	78.7821	6,062.99	80.1331	6,062.99	77.5285	6,062.99	79.5695	6,062.99	76.147	6,062.99	75.1559	6,062.99	73.3533	6,062.99	75.1799	6,062.99	70.5746	6,062.99	76.1629	6,062.99	68.1427	6,062.99	71.3092	6,062.99	67.2888	6,062.99	62.3822	6,062.99	65.3686	6,062.99	59.0202	6,062.99	64.2131	6,062.99	56.7043	6,062.99	63.4785	6,062.99	63.0101	6,062.99	64.2199	6,062.99	60.2614	6,062.99	65.2787	6,062.99	56.7243	6,062.99	63.8455	6,062.99	59.7587	6,062.99	56.058	6,062.99	59.8947	6,062.99	60.2982
6,276.86	86.3356	6,276.86	85.4097	6,276.86	86.049	6,276.86	84.4392	6,276.86	85.8725	6,276.86	81.4942	6,276.86	81.6837	6,276.86	79.8915	6,276.86	79.3865	6,276.86	77.7906	6,276.86	76.9129	6,276.86	76.2258	6,276.86	74.7151	6,276.86	73.7364	6,276.86	75.3662	6,276.86	70.9437	6,276.86	73.9273	6,276.86	67.9936	6,276.86	59.5907	6,276.86	65.0892	6,276.86	63.416	6,276.86	62.4452	6,276.86	54.4646	6,276.86	64.3737	6,276.86	53.078	6,276.86	62.1752	6,276.86	62.3	6,276.86	63.7563	6,276.86	55.7063	6,276.86	65.2767	6,276.86	57.3348	6,276.86	64.7943	6,276.86	58.357	6,276.86	57.0588	6,276.86	61.7101	6,276.86	61.124
6,498.05	86.6762	6,498.05	86.1228	6,498.05	85.518	6,498.05	84.488	6,498.05	84.4982	6,498.05	81.6097	6,498.05	82.3938	6,498.05	79.5794	6,498.05	78.1233	6,498.05	77.7748	6,498.05	76.2804	6,498.05	75.8242	6,498.05	76.53	6,498.05	73.195	6,498.05	74.2632	6,498.05	70.4133	6,498.05	73.2752	6,498.05	69.1689	6,498.05	64.6279	6,498.05	65.8592	6,498.05	67.9725	6,498.05	64.4253	6,498.05	58.1782	6,498.05	63.8966	6,498.05	54.0882	6,498.05	61.5361	6,498.05	62.4138	6,498.05	64.6919	6,498.05	48.6513	6,498.05	64.9389	6,498.05	56.1141	6,498.05	65.4824	6,498.05	47.6206	6,498.05	58.3836	6,498.05	57.0502	6,498.05	56.4626
6,726.56	86.5694	6,726.56	85.6952	6,726.56	85.8927	6,726.56	83.9921	6,726.56	82.5841	6,726.56	81.6214	6,726.56	81.8707	6,726.56	78.8574	6,726.56	78.8454	6,726.56	77.2476	6,726.56	73.8519	6,726.56	74.8281	6,726.56	75.3492	6,726.56	71.6915	6,726.56	68.986	6,726.56	68.9848	6,726.56	74.1589	6,726.56	66.5612	6,726.56	67.8478	6,726.56	65.4113	6,726.56	62.3338	6,726.56	63.6944	6,726.56	62.8371	6,726.56	62.2538	6,726.56	57.6432	6,726.56	60.6122	6,726.56	49.9802	6,726.56	64.1239	6,726.56	57.3549	6,726.56	64.2308	6,726.56	57.137	6,726.56	64.8659	6,726.56	55.5829	6,726.56	58.5916	6,726.56	58.5403	6,726.56	46.8635
6,963.87	86.7946	6,963.87	86.0262	6,963.87	86.3219	6,963.87	83.9315	6,963.87	84.3208	6,963.87	81.2581	6,963.87	80.6525	6,963.87	79.3783	6,963.87	80.2306	6,963.87	76.3198	6,963.87	74.1006	6,963.87	74.9395	6,963.87	73.6407	6,963.87	72.3703	6,963.87	61.2328	6,963.87	69.8635	6,963.87	73.9227	6,963.87	65.6549	6,963.87	69.6566	6,963.87	63.1491	6,963.87	53.5354	6,963.87	63.1332	6,963.87	56.745	6,963.87	62.2781	6,963.87	60.667	6,963.87	57.9012	6,963.87	54.616	6,963.87	63.9022	6,963.87	60.9074	6,963.87	63.1692	6,963.87	56.4194	6,963.87	64.4161	6,963.87	57.8565	6,963.87	58.7676	6,963.87	56.966	6,963.87	49.488
7,209.96	86.9821	7,209.96	86.1435	7,209.96	86.1319	7,209.96	83.889	7,209.96	83.8628	7,209.96	81.2111	7,209.96	81.1869	7,209.96	79.0091	7,209.96	80.5836	7,209.96	75.6791	7,209.96	75.4114	7,209.96	75.1513	7,209.96	70.1013	7,209.96	70.6417	7,209.96	65.1086	7,209.96	69.0131	7,209.96	74.7027	7,209.96	67.3486	7,209.96	69.8883	7,209.96	64.5711	7,209.96	59.2331	7,209.96	62.0569	7,209.96	48.659	7,209.96	62.7732	7,209.96	58.7058	7,209.96	60.5084	7,209.96	55.7791	7,209.96	63.1521	7,209.96	58.4398	7,209.96	62.2298	7,209.96	55.9301	7,209.96	64.2985	7,209.96	52.6083	7,209.96	61.5164	7,209.96	56.6428	7,209.96	50.5071
7,464.84	87.0062	7,464.84	86.1083	7,464.84	85.7967	7,464.84	83.6731	7,464.84	83.6255	7,464.84	81.5075	7,464.84	81.7484	7,464.84	78.4543	7,464.84	77.2781	7,464.84	76.6956	7,464.84	75.834	7,464.84	74.6791	7,464.84	70.1675	7,464.84	72.3171	7,464.84	63.9824	7,464.84	68.0871	7,464.84	71.5236	7,464.84	64.8272	7,464.84	63.861	7,464.84	62.6991	7,464.84	62.2783	7,464.84	60.8126	7,464.84	47.9743	7,464.84	62.3166	7,464.84	52.2604	7,464.84	60.3351	7,464.84	57.7304	7,464.84	61.9112	7,464.84	50.3962	7,464.84	58.962	7,464.84	53.5321	7,464.84	63.31	7,464.84	56.4949	7,464.84	60.0852	7,464.84	55.9162	7,464.84	49.8237
7,727.05	87.7341	7,727.05	86.2994	7,727.05	86.552	7,727.05	84.2779	7,727.05	83.3788	7,727.05	81.391	7,727.05	80.9383	7,727.05	79.1495	7,727.05	74.4033	7,727.05	76.6093	7,727.05	77.0172	7,727.05	75.1144	7,727.05	72.7205	7,727.05	71.1557	7,727.05	68.2949	7,727.05	68.2978	7,727.05	69.9155	7,727.05	66.1603	7,727.05	66.1256	7,727.05	64.0297	7,727.05	53.7097	7,727.05	61.363	7,727.05	55.6884	7,727.05	63.1933	7,727.05	56.0765	7,727.05	61.784	7,727.05	54.5401	7,727.05	63.5184	7,727.05	52.6867	7,727.05	61.5102	7,727.05	38.2417	7,727.05	64.9759	7,727.05	57.4981	7,727.05	60.5013	7,727.05	50.0062	7,727.05	50.2677
7,999.51	87.3497	7,999.51	86.0904	7,999.51	85.9616	7,999.51	84.1295	7,999.51	83.341	7,999.51	81.0489	7,999.51	79.3995	7,999.51	79.4373	7,999.51	76.5915	7,999.51	76.3975	7,999.51	77.5097	7,999.51	75.0055	7,999.51	74.8799	7,999.51	71.4989	7,999.51	67.0676	7,999.51	69.1546	7,999.51	68.3048	7,999.51	66.0816	7,999.51	65.3553	7,999.51	63.2831	7,999.51	60.7584	7,999.51	61.3688	7,999.51	56.2594	7,999.51	63.5357	7,999.51	54.6497	7,999.51	60.6457	7,999.51	54.3442	7,999.51	64.1042	7,999.51	54.8428	7,999.51	61.8049	7,999.51	50.1739	7,999.51	65.3888	7,999.51	53.6695	7,999.51	60.5874	7,999.51	56.4468	7,999.51	47.909
8,282.23	87.6691	8,282.23	86.7966	8,282.23	86.4239	8,282.23	84.0571	8,282.23	83.385	8,282.23	81.5067	8,282.23	80.7242	8,282.23	78.688	8,282.23	79.3684	8,282.23	76.7677	8,282.23	79.1933	8,282.23	74.9465	8,282.23	75.938	8,282.23	70.8815	8,282.23	66.9133	8,282.23	68.2775	8,282.23	62.6419	8,282.23	63.656	8,282.23	64.0282	8,282.23	63.8142	8,282.23	63.4223	8,282.23	60.6834	8,282.23	43.147	8,282.23	60.9469	8,282.23	56.2802	8,282.23	61.6497	8,282.23	53.9715	8,282.23	63.4888	8,282.23	56.1143	8,282.23	59.866	8,282.23	41.0957	8,282.23	63.9581	8,282.23	54.0919	8,282.23	62.4237	8,282.23	54.9383	8,282.23	51.4855
8,573.73	87.593	8,573.73	86.0909	8,573.73	86.4583	8,573.73	83.8101	8,573.73	83.3988	8,573.73	80.7851	8,573.73	81.79	8,573.73	79.9611	8,573.73	81.5089	8,573.73	76.5627	8,573.73	79.079	8,573.73	75.0915	8,573.73	73.6543	8,573.73	70.426	8,573.73	68.9855	8,573.73	70.0495	8,573.73	63.9006	8,573.73	67.3568	8,573.73	68.2082	8,573.73	63.5428	8,573.73	62.2835	8,573.73	60.0804	8,573.73	48.4231	8,573.73	61.8042	8,573.73	57.7078	8,573.73	59.6762	8,573.73	49.5576	8,573.73	62.9263	8,573.73	58.0411	8,573.73	61.903	8,573.73	44.3623	8,573.73	63.2106	8,573.73	55.6976	8,573.73	60.2277	8,573.73	53.568	8,573.73	51.2405
8,876.95	87.75	8,876.95	86.1202	8,876.95	86.4464	8,876.95	83.7809	8,876.95	82.8351	8,876.95	81.5134	8,876.95	81.5168	8,876.95	79.6435	8,876.95	81.3047	8,876.95	76.7643	8,876.95	79.0627	8,876.95	75.337	8,876.95	69.554	8,876.95	71.9025	8,876.95	71.8083	8,876.95	68.7985	8,876.95	70.1894	8,876.95	66.0415	8,876.95	69.062	8,876.95	63.2454	8,876.95	50.5966	8,876.95	61.1242	8,876.95	45.6777	8,876.95	57.9144	8,876.95	59.8964	8,876.95	59.5817	8,876.95	49.0507	8,876.95	62.446	8,876.95	57.4979	8,876.95	61.6361	8,876.95	44.3354	8,876.95	62.5634	8,876.95	51.6584	8,876.95	60.1263	8,876.95	50.4504	8,876.95	53.4237
9,188.96	86.945	9,188.96	86.1293	9,188.96	86.4492	9,188.96	83.5215	9,188.96	83.5693	9,188.96	81.5812	9,188.96	80.8248	9,188.96	80.1533	9,188.96	82.563	9,188.96	77.3945	9,188.96	78.3544	9,188.96	76.2935	9,188.96	66.716	9,188.96	71.7882	9,188.96	75.2492	9,188.96	70.2316	9,188.96	68.3287	9,188.96	66.3964	9,188.96	70.3004	9,188.96	62.2245	9,188.96	63.8872	9,188.96	63.6845	9,188.96	45.7705	9,188.96	61.0485	9,188.96	56.1055	9,188.96	61.0597	9,188.96	50.551	9,188.96	62.6694	9,188.96	55.0229	9,188.96	61.3963	9,188.96	40.1888	9,188.96	61.0629	9,188.96	50.7684	9,188.96	59.4478	9,188.96	54.038	9,188.96	49.9413
9,514.16	86.9266	9,514.16	85.8456	9,514.16	86.1966	9,514.16	83.6214	9,514.16	83.7331	9,514.16	81.7994	9,514.16	82.734	9,514.16	80.7652	9,514.16	81.6088	9,514.16	77.1522	9,514.16	78.0313	9,514.16	76.779	9,514.16	76.5175	9,514.16	72.5221	9,514.16	76.0329	9,514.16	69.9931	9,514.16	68.9614	9,514.16	67.896	9,514.16	69.7667	9,514.16	65.0553	9,514.16	65.7188	9,514.16	57.6641	9,514.16	34.8679	9,514.16	61.9574	9,514.16	54.543	9,514.16	62.116	9,514.16	56.1964	9,514.16	61.2426	9,514.16	52.5647	9,514.16	62.2633	9,514.16	46.938	9,514.16	61.5675	9,514.16	51.0815	9,514.16	56.9363	9,514.16	49.655	9,514.16	50.7389
9,849.61	86.5831	9,849.61	85.5724	9,849.61	85.53	9,849.61	83.6711	9,849.61	83.8849	9,849.61	82.5003	9,849.61	82.7886	9,849.61	80.1642	9,849.61	80.1195	9,849.61	78.4994	9,849.61	78.4791	9,849.61	76.9753	9,849.61	80.1338	9,849.61	71.9329	9,849.61	75.2001	9,849.61	70.1019	9,849.61	65.8338	9,849.61	67.0882	9,849.61	66.7055	9,849.61	63.4474	9,849.61	64.4249	9,849.61	63.8361	9,849.61	51.1231	9,849.61	59.6363	9,849.61	50.0436	9,849.61	61.7083	9,849.61	54.5578	9,849.61	62.4265	9,849.61	49.8438	9,849.61	62.4404	9,849.61	49.7913	9,849.61	61.7162	9,849.61	32.8329	9,849.61	56.4942	9,849.61	52.5527	9,849.61	52.3013
10,196.8	86.6809	10,196.8	85.7405	10,196.8	85.386	10,196.8	84.3759	10,196.8	84.0515	10,196.8	82.4142	10,196.8	82.2173	10,196.8	80.7362	10,196.8	80.0336	10,196.8	78.0942	10,196.8	77.1349	10,196.8	77.0624	10,196.8	80.6421	10,196.8	72.6061	10,196.8	73.0777	10,196.8	70.6088	10,196.8	54.0919	10,196.8	67.5052	10,196.8	64.7909	10,196.8	62.4498	10,196.8	61.6943	10,196.8	62.498	10,196.8	49.0197	10,196.8	62.6705	10,196.8	47.6202	10,196.8	60.7485	10,196.8	47.2405	10,196.8	62.1022	10,196.8	44.4657	10,196.8	63.4293	10,196.8	47.9739	10,196.8	62.0341	10,196.8	48.3172	10,196.8	56.2367	10,196.8	47.8462	10,196.8	50.5727
10,555.7	86.3926	10,555.7	85.2695	10,555.7	84.891	10,555.7	84.5322	10,555.7	84.2808	10,555.7	82.9391	10,555.7	83.2858	10,555.7	80.6072	10,555.7	81.5872	10,555.7	78.448	10,555.7	77.7998	10,555.7	77.2578	10,555.7	79.7648	10,555.7	73.2529	10,555.7	73.4283	10,555.7	69.8249	10,555.7	66.4027	10,555.7	66.4372	10,555.7	66.3907	10,555.7	63.2108	10,555.7	64.3548	10,555.7	58.433	10,555.7	55.0086	10,555.7	60.989	10,555.7	56.9899	10,555.7	62.1352	10,555.7	47.1922	10,555.7	61.8806	10,555.7	38.7714	10,555.7	63.0915	10,555.7	47.546	10,555.7	61.8621	10,555.7	55.157	10,555.7	55.9693	10,555.7	53.1346	10,555.7	54.6195
10,927.7	85.6804	10,927.7	84.7729	10,927.7	84.6036	10,927.7	84.7251	10,927.7	84.3022	10,927.7	82.9571	10,927.7	83.9953	10,927.7	81.7522	10,927.7	83.0469	10,927.7	77.9854	10,927.7	79.9743	10,927.7	78.2885	10,927.7	78.6081	10,927.7	72.4038	10,927.7	73.7801	10,927.7	69.7569	10,927.7	67.3109	10,927.7	66.2732	10,927.7	65.8156	10,927.7	63.4165	10,927.7	60.1316	10,927.7	61.388	10,927.7	41.1667	10,927.7	59.6008	10,927.7	56.2146	10,927.7	62.1291	10,927.7	52.5652	10,927.7	62.4065	10,927.7	46.5516	10,927.7	63.2206	10,927.7	47.3746	10,927.7	60.858	10,927.7	54.5333	10,927.7	51.1343	10,927.7	51.1141	10,927.7	50.5237
11,313	85.011	11,313	84.5021	11,313	84.8044	11,313	85.1048	11,313	85.3956	11,313	83.6359	11,313	83.27	11,313	81.6374	11,313	82.9876	11,313	79.1162	11,313	82.3982	11,313	78.3432	11,313	78.4029	11,313	72.053	11,313	72.4542	11,313	68.6117	11,313	67.1719	11,313	65.6069	11,313	61.4488	11,313	61.4709	11,313	67.5648	11,313	60.1263	11,313	55.9753	11,313	61.2994	11,313	55.9239	11,313	62.3464	11,313	49.9455	11,313	60.1501	11,313	44.9217	11,313	61.658	11,313	47.9814	11,313	57.6032	11,313	55.2923	11,313	55.3603	11,313	51.5991	11,313	49.9358
11,712.9	84.5584	11,712.9	84.3687	11,712.9	84.9076	11,712.9	85.3194	11,712.9	86.1657	11,712.9	84.0659	11,712.9	85.4046	11,712.9	81.8087	11,712.9	80.7607	11,712.9	78.8196	11,712.9	82.7741	11,712.9	77.9747	11,712.9	79.5015	11,712.9	71.4056	11,712.9	66.5888	11,712.9	68.8102	11,712.9	65.7176	11,712.9	66.1843	11,712.9	57.2572	11,712.9	62.3258	11,712.9	62.5034	11,712.9	57.1048	11,712.9	55.1916	11,712.9	59.4281	11,712.9	48.0357	11,712.9	60.6645	11,712.9	47.9171	11,712.9	60.9658	11,712.9	42.1985	11,712.9	60.995	11,712.9	53.8071	11,712.9	58.5303	11,712.9	54.6306	11,712.9	54.6752	11,712.9	52.8327	11,712.9	55.8089
12,126	84.1314	12,126	84.8804	12,126	85.4452	12,126	85.7891	12,126	86.5987	12,126	84.4669	12,126	84.8812	12,126	82.3429	12,126	82.8565	12,126	79.0099	12,126	81.7276	12,126	77.2946	12,126	77.8117	12,126	72.0821	12,126	63.9946	12,126	68.1785	12,126	64.3318	12,126	65.9075	12,126	57.6645	12,126	62.4205	12,126	60.3108	12,126	60.8265	12,126	54.0198	12,126	58.7064	12,126	47.6556	12,126	60.3341	12,126	33.0845	12,126	61.6897	12,126	40.2256	12,126	61.9554	12,126	52.7496	12,126	56.5873	12,126	47.2348	12,126	51.8495	12,126	50.7966	12,126	55.193
12,553.7	84.3259	12,553.7	85.6286	12,553.7	85.904	12,553.7	86.4304	12,553.7	87.0875	12,553.7	84.5434	12,553.7	86.3504	12,553.7	82.8331	12,553.7	84.1243	12,553.7	78.6461	12,553.7	80.3856	12,553.7	76.8012	12,553.7	77.26	12,553.7	71.4193	12,553.7	72.7611	12,553.7	67.8455	12,553.7	67.4403	12,553.7	64.5812	12,553.7	57.8314	12,553.7	59.5829	12,553.7	65.2143	12,553.7	60.298	12,553.7	55.282	12,553.7	56.4846	12,553.7	39.6791	12,553.7	60.0965	12,553.7	48.5087	12,553.7	60.9246	12,553.7	46.7451	12,553.7	61.265	12,553.7	50.6014	12,553.7	56.6761	12,553.7	51.0472	12,553.7	52.6426	12,553.7	47.2381	12,553.7	54.0199
12,996.1	84.9715	12,996.1	86.2244	12,996.1	86.3644	12,996.1	87.2002	12,996.1	87.4079	12,996.1	84.7107	12,996.1	86.161	12,996.1	82.9792	12,996.1	84.4254	12,996.1	78.6758	12,996.1	79.1668	12,996.1	76.4156	12,996.1	76.0384	12,996.1	70.3673	12,996.1	72.4839	12,996.1	66.8642	12,996.1	66.5314	12,996.1	63.3677	12,996.1	53.8988	12,996.1	59.2039	12,996.1	64.7421	12,996.1	54.818	12,996.1	57.7188	12,996.1	56.4428	12,996.1	45.5584	12,996.1	61.4518	12,996.1	42.7144	12,996.1	60.8436	12,996.1	40.825	12,996.1	60.2901	12,996.1	38.6391	12,996.1	55.1624	12,996.1	46.6047	12,996.1	47.1236	12,996.1	46.9005	12,996.1	51.4714
13,454.6	86.0563	13,454.6	87.0331	13,454.6	86.9499	13,454.6	87.8115	13,454.6	87.4259	13,454.6	84.9394	13,454.6	85.9643	13,454.6	82.8852	13,454.6	84.4539	13,454.6	77.9871	13,454.6	78.7333	13,454.6	75.9108	13,454.6	74.5934	13,454.6	69.3916	13,454.6	71.5404	13,454.6	66.0737	13,454.6	63.7089	13,454.6	63.5905	13,454.6	45.731	13,454.6	58.7164	13,454.6	63.2193	13,454.6	55.9626	13,454.6	58.0262	13,454.6	56.5385	13,454.6	52.5235	13,454.6	60.7404	13,454.6	32.5813	13,454.6	59.3619	13,454.6	43.2014	13,454.6	59.2218	13,454.6	49.8811	13,454.6	53.3239	13,454.6	51.2982	13,454.6	46.0136	13,454.6	51.3857	13,454.6	51.7211
13,929.2	87.1108	13,929.2	87.7819	13,929.2	87.4784	13,929.2	88.2444	13,929.2	87.6746	13,929.2	85.0814	13,929.2	85.9621	13,929.2	82.4366	13,929.2	82.7537	13,929.2	77.3247	13,929.2	77.8381	13,929.2	74.7514	13,929.2	74.5607	13,929.2	68.6812	13,929.2	70.07	13,929.2	65.2069	13,929.2	67.321	13,929.2	63.4094	13,929.2	30.3956	13,929.2	58.4129	13,929.2	64.2607	13,929.2	57.4504	13,929.2	61.2124	13,929.2	55.1073	13,929.2	45.1894	13,929.2	58.5492	13,929.2	39.5632	13,929.2	56.3029	13,929.2	46.1167	13,929.2	55.9561	13,929.2	48.1345	13,929.2	50.1947	13,929.2	53.8315	13,929.2	45.8381	13,929.2	50.8093	13,929.2	52.7646
14,419.9	87.7947	14,419.9	88.3474	14,419.9	88.0723	14,419.9	88.246	14,419.9	88.0823	14,419.9	85.0172	14,419.9	85.7407	14,419.9	81.9127	14,419.9	81.3461	14,419.9	76.4442	14,419.9	77.7742	14,419.9	73.6291	14,419.9	73.1761	14,419.9	69.135	14,419.9	66.5754	14,419.9	63.687	14,419.9	69.0329	14,419.9	61.1972	14,419.9	57.271	14,419.9	56.8815	14,419.9	65.4894	14,419.9	55.4932	14,419.9	60.4181	14,419.9	54.5484	14,419.9	38.1479	14,419.9	56.9508	14,419.9	45.3429	14,419.9	54.6827	14,419.9	48.1538	14,419.9	54.1598	14,419.9	50.0233	14,419.9	50.3963	14,419.9	49.223	14,419.9	45.7639	14,419.9	45.0561	14,419.9	50.6304
14,928.2	88.3902	14,928.2	88.5284	14,928.2	88.5182	14,928.2	87.9696	14,928.2	87.7828	14,928.2	84.5361	14,928.2	85.453	14,928.2	81.4779	14,928.2	81.7237	14,928.2	75.314	14,928.2	76.7189	14,928.2	72.548	14,928.2	68.1172	14,928.2	67.5463	14,928.2	69.619	14,928.2	61.6246	14,928.2	65.7098	14,928.2	58.9113	14,928.2	58.4882	14,928.2	53.9467	14,928.2	64.32	14,928.2	52.3509	14,928.2	58.0949	14,928.2	53.6715	14,928.2	42.9758	14,928.2	55.9771	14,928.2	24.9731	14,928.2	53.0203	14,928.2	47.1256	14,928.2	51.6881	14,928.2	49.1906	14,928.2	40.8969	14,928.2	45.132	14,928.2	34.4741	14,928.2	45.4814	14,928.2	47.5556
15,455.6	88.6648	15,455.6	88.586	15,455.6	88.5943	15,455.6	87.5853	15,455.6	87.2687	15,455.6	83.4048	15,455.6	84.4634	15,455.6	80.1586	15,455.6	80.6503	15,455.6	74.0287	15,455.6	76.0975	15,455.6	70.8197	15,455.6	69.4016	15,455.6	64.6762	15,455.6	68.6281	15,455.6	60.0118	15,455.6	61.1618	15,455.6	58.1036	15,455.6	54.5301	15,455.6	52.4914	15,455.6	62.9188	15,455.6	51.5676	15,455.6	54.4989	15,455.6	49.7624	15,455.6	43.4375	15,455.6	53.827	15,455.6	22.6544	15,455.6	51.7594	15,455.6	45.6744	15,455.6	50.3498	15,455.6	42.3316	15,455.6	42.7372	15,455.6	45.4935	15,455.6	44.1739	15,455.6	40.612	15,455.6	40.137
16,000.5	88.8079	16,000.5	88.2252	16,000.5	88.3471	16,000.5	86.6811	16,000.5	86.663	16,000.5	82.2382	16,000.5	83.1326	16,000.5	78.5697	16,000.5	78.5947	16,000.5	72.6103	16,000.5	74.0694	16,000.5	68.8345	16,000.5	70.5014	16,000.5	62.9002	16,000.5	62.0438	16,000.5	56.6259	16,000.5	60.6479	16,000.5	56.4352	16,000.5	55.6561	16,000.5	51.0384	16,000.5	61.2061	16,000.5	48.4554	16,000.5	54.9663	16,000.5	44.8925	16,000.5	41.9536	16,000.5	49.9468	16,000.5	33.2339	16,000.5	45.2266	16,000.5	42.9345	16,000.5	45.8573	16,000.5	30.2585	16,000.5	42.5278	16,000.5	47.3607	16,000.5	43.8099	16,000.5	44.0075	16,000.5	42.6676
16,564.5	88.7276	16,564.5	87.7739	16,564.5	87.8146	16,564.5	85.5709	16,564.5	85.6828	16,564.5	80.6348	16,564.5	82.1832	16,564.5	76.8988	16,564.5	76.9556	16,564.5	70.7004	16,564.5	71.9705	16,564.5	66.4314	16,564.5	66.7572	16,564.5	61.3776	16,564.5	61.0308	16,564.5	53.4577	16,564.5	59.6383	16,564.5	53.0824	16,564.5	48.4591	16,564.5	49.1877	16,564.5	59.4307	16,564.5	43.6093	16,564.5	51.6039	16,564.5	42.7776	16,564.5	43.8476	16,564.5	43.0084	16,564.5	33.8129	16,564.5	36.2128	16,564.5	35.6975	16,564.5	39.8864	16,564.5	17.3172	16,564.5	42.8285	16,564.5	38.624	16,564.5	40.357	16,564.5	40.6835	16,564.5	45.3017
17,148.9	88.6194	17,148.9	87.306	17,148.9	87.2642	17,148.9	84.5377	17,148.9	84.3982	17,148.9	78.9445	17,148.9	80.3566	17,148.9	75.0792	17,148.9	75.4359	17,148.9	68.8557	17,148.9	68.9762	17,148.9	63.9652	17,148.9	63.3651	17,148.9	59.1038	17,148.9	60.3633	17,148.9	50.8766	17,148.9	56.7528	17,148.9	48.9101	17,148.9	51.5889	17,148.9	46.4627	17,148.9	56.4052	17,148.9	40.2778	17,148.9	43.2126	17,148.9	39.9886	17,148.9	39.4032	17,148.9	37.6032	17,148.9	34.2504	17,148.9	18.6341	17,148.9	34.8892	17,148.9	31.5119	17,148.9	36.5306	17,148.9	40.0342	17,148.9	24.8965	17,148.9	35.2315	17,148.9	32.2556	17,148.9	31.9975
17,752.4	88.1109	17,752.4	86.5934	17,752.4	86.6939	17,752.4	83.0706	17,752.4	83.1204	17,752.4	77.0646	17,752.4	78.7751	17,752.4	73.1236	17,752.4	73.1999	17,752.4	66.7206	17,752.4	66.4239	17,752.4	61.1311	17,752.4	61.253	17,752.4	56.3677	17,752.4	51.0315	17,752.4	48.1003	17,752.4	51.7383	17,752.4	44.2228	17,752.4	47.5969	17,752.4	43.5042	17,752.4	52.9232	17,752.4	31.1264	17,752.4	42.895	17,752.4	35.9716	17,752.4	33.4046	17,752.4	32.2917	17,752.4	31.0999	17,752.4	22.1906	17,752.4	32.7893	17,752.4	35.9969	17,752.4	32.6987	17,752.4	38.8172	17,752.4	15.5904	17,752.4	38.2282	17,752.4	28.5807	17,752.4	43.7598
18,379.4	87.4922	18,379.4	85.9655	18,379.4	85.9647	18,379.4	81.9378	18,379.4	82.3761	18,379.4	74.9775	18,379.4	77.1586	18,379.4	70.5674	18,379.4	71.0546	18,379.4	63.3685	18,379.4	64.0639	18,379.4	58.9703	18,379.4	58.2749	18,379.4	53.5622	18,379.4	47.2664	18,379.4	44.4896	18,379.4	44.3373	18,379.4	43.0758	18,379.4	42.1229	18,379.4	39.7485	18,379.4	51.8936	18,379.4	33.5317	18,379.4	45.2487	18,379.4	34.0397	18,379.4	22.8152	18,379.4	39.3453	18,379.4	30.8038	18,379.4	30.843	18,379.4	27.7556	18,379.4	36.5316	18,379.4	29.9208	18,379.4	38.8178	18,379.4	27.4127	18,379.4	43.1661	18,379.4	31.7923	18,379.4	42.0945
19,026.9	86.9559	19,026.9	85.7221	19,026.9	85.5476	19,026.9	81.4116	19,026.9	81.8678	19,026.9	73.4375	19,026.9	76.2388	19,026.9	67.9637	19,026.9	69.3561	19,026.9	61.3039	19,026.9	62.3316	19,026.9	58.5634	19,026.9	53.2714	19,026.9	53.5404	19,026.9	48.3684	19,026.9	45.5877	19,026.9	47.5987	19,026.9	44.3126	19,026.9	41.0259	19,026.9	40.6185	19,026.9	47.7859	19,026.9	37.1418	19,026.9	44.0527	19,026.9	35.9364	19,026.9	22.5755	19,026.9	39.1293	19,026.9	23.7484	19,026.9	5.25195	19,026.9	28.4828	19,026.9	34.1232	19,026.9	28.5082	19,026.9	17.0869	19,026.9	32.3376	19,026.9	37.7316	19,026.9	32.7036	19,026.9	39.165
19,697.8	87.0119	19,697.8	85.8008	19,697.8	85.751	19,697.8	81.357	19,697.8	82.0378	19,697.8	72.2912	19,697.8	75.1901	19,697.8	66.23	19,697.8	67.0107	19,697.8	61.1599	19,697.8	59.429	19,697.8	60.2986	19,697.8	52.2068	19,697.8	55.8794	19,697.8	47.119	19,697.8	49.2444	19,697.8	45.6562	19,697.8	46.685	19,697.8	41.7271	19,697.8	41.7657	19,697.8	46.0965	19,697.8	40.5378	19,697.8	45.3718	19,697.8	37.0984	19,697.8	32.6653	19,697.8	36.5834	19,697.8	33.9032	19,697.8	30.7426	19,697.8	33.6576	19,697.8	38.3466	19,697.8	18.2307	19,697.8	41.8993	19,697.8	35.5189	19,697.8	41.0783	19,697.8	39.3232	19,697.8	44.9282
19,999.5	86.9619	19,999.5	85.8068	19,999.5	85.6519	19,999.5	81.3412	19,999.5	82.076	19,999.5	71.3942	19,999.5	74.8817	19,999.5	66.0651	19,999.5	66.4446	19,999.5	61.6026	19,999.5	50.9083	19,999.5	61.7493	19,999.5	56.9743	19,999.5	56.5826	19,999.5	44.0723	19,999.5	48.0084	19,999.5	45.3844	19,999.5	49.0668	19,999.5	38.9279	19,999.5	46.7724	19,999.5	43.9761	19,999.5	36.3361	19,999.5	53.2297	19,999.5	42.693	19,999.5	45.6046	19,999.5	51.1903	19,999.5	45.0769	19,999.5	43.4042	19,999.5	51.7274	19,999.5	48.3225	19,999.5	49.4702	19,999.5	44.1552	19,999.5	41.212	19,999.5	42.0093	19,999.5	39.9899	19,999.5	42.2938
