"SPL Horizontal"
"On-Axis"		"10°"		"-10°"		"20°"		"-20°"		"30°"		"-30°"		"40°"		"-40°"		"50°"		"-50°"		"60°"		"-60°"		"70°"		"-70°"		"80°"		"-80°"		"90°"		"-90°"		"100°"		"-100°"		"110°"		"-110°"		"120°"		"-120°"		"130°"		"-130°"		"140°"		"-140°"		"150°"		"-150°"		"160°"		"-160°"		"170°"		"-170°"		"180°"
"Frequency [Hz]"	"Sound Pessure Level [dB]  / [2.83V 1m] "	"Frequency [Hz]"	"Sound Pessure Level [dB]  / [2.83V 1m] "	"Frequency [Hz]"	"Sound Pessure Level [dB]  / [2.83V 1m] "	"Frequency [Hz]"	"Sound Pessure Level [dB]  / [2.83V 1m] "	"Frequency [Hz]"	"Sound Pessure Level [dB]  / [2.83V 1m] "	"Frequency [Hz]"	"Sound Pessure Level [dB]  / [2.83V 1m] "	"Frequency [Hz]"	"Sound Pessure Level [dB]  / [2.83V 1m] "	"Frequency [Hz]"	"Sound Pessure Level [dB]  / [2.83V 1m] "	"Frequency [Hz]"	"Sound Pessure Level [dB]  / [2.83V 1m] "	"Frequency [Hz]"	"Sound Pessure Level [dB]  / [2.83V 1m] "	"Frequency [Hz]"	"Sound Pessure Level [dB]  / [2.83V 1m] "	"Frequency [Hz]"	"Sound Pessure Level [dB]  / [2.83V 1m] "	"Frequency [Hz]"	"Sound Pessure Level [dB]  / [2.83V 1m] "	"Frequency [Hz]"	"Sound Pessure Level [dB]  / [2.83V 1m] "	"Frequency [Hz]"	"Sound Pessure Level [dB]  / [2.83V 1m] "	"Frequency [Hz]"	"Sound Pessure Level [dB]  / [2.83V 1m] "	"Frequency [Hz]"	"Sound Pessure Level [dB]  / [2.83V 1m] "	"Frequency [Hz]"	"Sound Pessure Level [dB]  / [2.83V 1m] "	"Frequency [Hz]"	"Sound Pessure Level [dB]  / [2.83V 1m] "	"Frequency [Hz]"	"Sound Pessure Level [dB]  / [2.83V 1m] "	"Frequency [Hz]"	"Sound Pessure Level [dB]  / [2.83V 1m] "	"Frequency [Hz]"	"Sound Pessure Level [dB]  / [2.83V 1m] "	"Frequency [Hz]"	"Sound Pessure Level [dB]  / [2.83V 1m] "	"Frequency [Hz]"	"Sound Pessure Level [dB]  / [2.83V 1m] "	"Frequency [Hz]"	"Sound Pessure Level [dB]  / [2.83V 1m] "	"Frequency [Hz]"	"Sound Pessure Level [dB]  / [2.83V 1m] "	"Frequency [Hz]"	"Sound Pessure Level [dB]  / [2.83V 1m] "	"Frequency [Hz]"	"Sound Pessure Level [dB]  / [2.83V 1m] "	"Frequency [Hz]"	"Sound Pessure Level [dB]  / [2.83V 1m] "	"Frequency [Hz]"	"Sound Pessure Level [dB]  / [2.83V 1m] "	"Frequency [Hz]"	"Sound Pessure Level [dB]  / [2.83V 1m] "	"Frequency [Hz]"	"Sound Pessure Level [dB]  / [2.83V 1m] "	"Frequency [Hz]"	"Sound Pessure Level [dB]  / [2.83V 1m] "	"Frequency [Hz]"	"Sound Pessure Level [dB]  / [2.83V 1m] "	"Frequency [Hz]"	"Sound Pessure Level [dB]  / [2.83V 1m] "	"Frequency [Hz]"	"Sound Pessure Level [dB]  / [2.83V 1m] "
20.5078	46.0546	20.5078	46.0936	20.5078	45.8135	20.5078	45.9359	20.5078	45.3573	20.5078	45.5824	20.5078	44.6639	20.5078	45.0341	20.5078	43.7003	20.5078	44.3003	20.5078	42.4247	20.5078	43.4166	20.5078	40.8025	20.5078	42.4815	20.5078	38.887	20.5078	41.7092	20.5078	37.1239	20.5078	41.4248	20.5078	36.7275	20.5078	41.8511	20.5078	38.243	20.5078	42.86	20.5078	40.4825	20.5078	44.1129	20.5078	42.5818	20.5078	45.3376	20.5078	44.331	20.5078	46.3931	20.5078	45.7226	20.5078	47.2213	20.5078	46.7829	20.5078	47.8018	20.5078	47.5368	20.5078	48.1283	20.5078	48.0035	20.5078	48.1975
21.9727	39.3244	21.9727	38.5891	21.9727	39.7757	21.9727	37.4994	21.9727	40.0041	21.9727	35.9869	21.9727	40.0784	21.9727	34.1295	21.9727	40.0995	21.9727	32.8347	21.9727	40.2252	21.9727	34.0524	21.9727	40.6564	21.9727	37.1307	21.9727	41.5374	21.9727	40.2609	21.9727	42.8387	21.9727	42.9655	21.9727	44.3839	21.9727	45.2519	21.9727	45.9832	21.9727	47.1849	21.9727	47.5088	21.9727	48.8127	21.9727	48.8929	21.9727	50.1637	21.9727	50.1029	21.9727	51.2524	21.9727	51.122	21.9727	52.0854	21.9727	51.9393	21.9727	52.6658	21.9727	52.5448	21.9727	52.9966	21.9727	52.9289	21.9727	53.0822
23.4375	31.6486	23.4375	30.0513	23.4375	32.1332	23.4375	27.4379	23.4375	32.1751	23.4375	28.77	23.4375	33.0375	23.4375	34.2672	23.4375	35.5534	23.4375	38.9009	23.4375	38.804	23.4375	42.5165	23.4375	41.9022	23.4375	45.4435	23.4375	44.62	23.4375	47.8866	23.4375	46.9707	23.4375	49.9636	23.4375	49.0107	23.4375	51.7445	23.4375	50.7917	23.4375	53.2712	23.4375	52.3517	23.4375	54.5681	23.4375	53.7143	23.4375	55.6487	23.4375	54.8911	23.4375	56.5187	23.4375	55.8835	23.4375	57.1793	23.4375	56.6869	23.4375	57.629	23.4375	57.2936	23.4375	57.8656	23.4375	57.6959	23.4375	57.8877
24.9023	50.2605	24.9023	50.1008	24.9023	50.3248	24.9023	49.8579	24.9023	50.3087	24.9023	49.581	24.9023	50.2545	24.9023	49.3724	24.9023	50.2355	24.9023	49.391	24.9023	50.3553	24.9023	49.8019	24.9023	50.7229	24.9023	50.6659	24.9023	51.4024	24.9023	51.8857	24.9023	52.371	24.9023	53.2841	24.9023	53.5348	24.9023	54.7058	24.9023	54.7801	24.9023	56.0517	24.9023	56.0127	24.9023	57.2671	24.9023	57.1668	24.9023	58.3228	24.9023	58.1989	24.9023	59.2016	24.9023	59.0798	24.9023	59.892	24.9023	59.7892	24.9023	60.3855	24.9023	60.3122	24.9023	60.6762	24.9023	60.6382	24.9023	60.7605
26.3672	54.9703	26.3672	54.9503	26.3672	55.0032	26.3672	54.9651	26.3672	55.0452	26.3672	55.0524	26.3672	55.1118	26.3672	55.2584	26.3672	55.237	26.3672	55.6243	26.3672	55.4679	26.3672	56.1705	26.3672	55.8523	26.3672	56.8854	26.3672	56.4193	26.3672	57.7296	26.3672	57.1636	26.3672	58.6496	26.3672	58.0449	26.3672	59.5921	26.3672	59.0034	26.3672	60.5121	26.3672	59.977	26.3672	61.3736	26.3672	60.9126	26.3672	62.148	26.3672	61.769	26.3672	62.8116	26.3672	62.5146	26.3672	63.3439	26.3672	63.1259	26.3672	63.7278	26.3672	63.585	26.3672	63.95	26.3672	63.8794	26.3672	64.0017
27.832	57.7856	27.832	57.8088	27.832	57.7297	27.832	57.8094	27.832	57.6494	27.832	57.8148	27.832	57.5725	27.832	57.8694	27.832	57.548	27.832	58.0294	27.832	57.6421	27.832	58.3501	27.832	57.9225	27.832	58.8655	27.832	58.431	27.832	59.572	27.832	59.1613	27.832	60.4274	27.832	60.06	27.832	61.368	27.832	61.0508	27.832	62.3273	27.832	62.0597	27.832	63.2482	27.832	63.0268	27.832	64.0863	27.832	63.9075	27.832	64.8086	27.832	64.6695	27.832	65.3905	27.832	65.2888	27.832	65.8143	27.832	65.7479	27.832	66.0672	27.832	66.0345	27.832	66.1416
29.2969	61.2283	29.2969	61.2329	29.2969	61.2358	29.2969	61.259	29.2969	61.2601	29.2969	61.3288	29.2969	61.3195	29.2969	61.4745	29.2969	61.4437	29.2969	61.731	29.2969	61.6688	29.2969	62.1261	29.2969	62.0266	29.2969	62.6694	29.2969	62.5334	29.2969	63.3466	29.2969	63.1812	29.2969	64.1232	29.2969	63.9395	29.2969	64.9536	29.2969	64.7637	29.2969	65.7907	29.2969	65.6058	29.2969	66.5924	29.2969	66.422	29.2969	67.3237	29.2969	67.1748	29.2969	67.9565	29.2969	67.8339	29.2969	68.4684	29.2969	68.3751	29.2969	68.8422	29.2969	68.7795	29.2969	69.0653	29.2969	69.0339	29.2969	69.13
30.7617	64.4862	30.7617	64.4969	30.7617	64.5176	30.7617	64.5537	30.7617	64.5951	30.7617	64.6674	30.7617	64.7292	30.7617	64.8538	30.7617	64.9353	30.7617	65.1296	30.7617	65.2291	30.7617	65.5074	30.7617	65.622	30.7617	65.9908	30.7617	66.1161	30.7617	66.5709	30.7617	66.7016	30.7617	67.2265	30.7617	67.3573	30.7617	67.928	30.7617	68.0541	30.7617	68.6419	30.7617	68.759	30.7617	69.335	30.7617	69.4394	30.7617	69.9767	30.7617	70.0654	30.7617	70.5407	30.7617	70.6117	30.7617	71.0048	30.7617	71.0573	30.7617	71.3513	30.7617	71.3855	30.7617	71.5675	30.7617	71.5843	30.7617	71.6459
32.2266	67.9135	32.2266	67.926	32.2266	67.9117	32.2266	67.9538	32.2266	67.9236	32.2266	68.0083	32.2266	67.9598	32.2266	68.1066	32.2266	68.0373	32.2266	68.2692	32.2266	68.1775	32.2266	68.5156	32.2266	68.4024	32.2266	68.8591	32.2266	68.7285	32.2266	69.3019	32.2266	69.1606	32.2266	69.833	32.2266	69.6889	32.2266	70.4296	32.2266	70.2898	32.2266	71.061	32.2266	70.9306	32.2266	71.6927	32.2266	71.5747	32.2266	72.2902	32.2266	72.1867	32.2266	72.822	32.2266	72.7349	32.2266	73.2609	32.2266	73.1926	32.2266	73.5858	32.2266	73.5385	32.2266	73.7816	32.2266	73.7574	32.2266	73.8396
33.6914	70.2117	33.6914	70.2353	33.6914	70.2173	33.6914	70.2898	33.6914	70.2551	33.6914	70.3808	33.6914	70.3322	33.6914	70.5173	33.6914	70.4589	33.6914	70.7099	33.6914	70.6471	33.6914	70.9685	33.6914	70.9072	33.6914	71.2992	33.6914	71.2454	33.6914	71.7023	33.6914	71.6609	33.6914	72.1702	33.6914	72.1438	33.6914	72.6873	33.6914	72.6758	33.6914	73.2316	33.6914	73.2327	33.6914	73.7771	33.6914	73.7867	33.6914	74.2963	33.6914	74.3102	33.6914	74.7627	33.6914	74.7773	33.6914	75.1527	33.6914	75.1653	33.6914	75.4469	33.6914	75.4559	33.6914	75.6304	33.6914	75.635	33.6914	75.6942
35.1562	71.9408	35.1562	71.9441	35.1562	71.971	35.1562	71.9834	35.1562	72.0369	35.1562	72.0658	35.1562	72.1451	35.1562	72.2017	35.1562	72.3052	35.1562	72.4034	35.1562	72.528	35.1562	72.6817	35.1562	72.8225	35.1562	73.0429	35.1562	73.1933	35.1562	73.4852	35.1562	73.6374	35.1562	73.9984	35.1562	74.1444	35.1562	74.5637	35.1562	74.6963	35.1562	75.1561	35.1562	75.2704	35.1562	75.7476	35.1562	75.8409	35.1562	76.3092	35.1562	76.3815	35.1562	76.8132	35.1562	76.8663	35.1562	77.235	35.1562	77.2715	35.1562	77.5536	35.1562	77.5762	35.1562	77.7534	35.1562	77.7641	35.1562	77.8245
36.6211	74.6633	36.6211	74.666	36.6211	74.6982	36.6211	74.7086	36.6211	74.7709	36.6211	74.7958	36.6211	74.8842	36.6211	74.934	36.6211	75.0424	36.6211	75.1295	36.6211	75.2504	36.6211	75.3877	36.6211	75.5124	36.6211	75.7102	36.6211	75.8304	36.6211	76.0943	36.6211	76.2025	36.6211	76.5316	36.6211	76.6222	36.6211	77.0082	36.6211	77.0781	36.6211	77.5056	36.6211	77.5544	36.6211	78.0021	36.6211	78.0315	36.6211	78.4744	36.6211	78.488	36.6211	78.8993	36.6211	78.9016	36.6211	79.2548	36.6211	79.2508	36.6211	79.5224	36.6211	79.5167	36.6211	79.6878	36.6211	79.684	36.6211	79.7424
38.0859	77.0669	38.0859	77.0797	38.0859	77.0865	38.0859	77.1263	38.0859	77.1385	38.0859	77.2101	38.0859	77.2253	38.0859	77.3358	38.0859	77.3503	38.0859	77.5083	38.0859	77.5177	38.0859	77.7316	38.0859	77.7315	38.0859	78.0074	38.0859	77.994	38.0859	78.3343	38.0859	78.305	38.0859	78.7065	38.0859	78.6605	38.0859	79.1135	38.0859	79.0521	38.0859	79.5407	38.0859	79.4671	38.0859	79.9698	38.0859	79.8891	38.0859	80.3804	38.0859	80.2988	38.0859	80.7512	38.0859	80.6753	38.0859	81.0617	38.0859	80.998	38.0859	81.294	38.0859	81.248	38.0859	81.4341	38.0859	81.41	38.0859	81.4735
39.5508	78.8074	39.5508	78.8278	39.5508	78.8171	39.5508	78.8797	39.5508	78.8575	39.5508	78.9655	39.5508	78.9303	39.5508	79.0887	39.5508	79.0386	39.5508	79.253	39.5508	79.1861	39.5508	79.4614	39.5508	79.3763	39.5508	79.7154	39.5508	79.6117	39.5508	80.0136	39.5508	79.8926	39.5508	80.3516	39.5508	80.2161	39.5508	80.7207	39.5508	80.5753	39.5508	81.1085	39.5508	80.9592	39.5508	81.4989	39.5508	81.3527	39.5508	81.8736	39.5508	81.7376	39.5508	82.2126	39.5508	82.0941	39.5508	82.4967	39.5508	82.4018	39.5508	82.7084	39.5508	82.6422	39.5508	82.8341	39.5508	82.8001	39.5508	82.8655
41.0156	80.253	41.0156	80.2699	41.0156	80.2655	41.0156	80.3171	41.0156	80.308	41.0156	80.3962	41.0156	80.3819	41.0156	80.5097	41.0156	80.4897	41.0156	80.6604	41.0156	80.6341	41.0156	80.8504	41.0156	80.8178	41.0156	81.0808	41.0156	81.0423	41.0156	81.3508	41.0156	81.3077	41.0156	81.6568	41.0156	81.6108	41.0156	81.992	41.0156	81.9453	41.0156	82.346	41.0156	82.3011	41.0156	82.7053	41.0156	82.6641	41.0156	83.0533	41.0156	83.0173	41.0156	83.3719	41.0156	83.3423	41.0156	83.6428	41.0156	83.6201	41.0156	83.8491	41.0156	83.8337	41.0156	83.9772	41.0156	83.9694	41.0156	84.0183
42.4805	81.3039	42.4805	81.332	42.4805	81.3049	42.4805	81.3895	42.4805	81.3355	42.4805	81.4773	42.4805	81.397	42.4805	81.5969	42.4805	81.4911	42.4805	81.7499	42.4805	81.6197	42.4805	81.9372	42.4805	81.7848	42.4805	82.1593	42.4805	81.9873	42.4805	82.4146	42.4805	82.2268	42.4805	82.6996	42.4805	82.5007	42.4805	83.0079	42.4805	82.8038	42.4805	83.33	42.4805	83.1275	42.4805	83.6535	42.4805	83.4601	42.4805	83.9638	42.4805	83.7872	42.4805	84.2444	42.4805	84.0923	42.4805	84.4791	42.4805	84.3582	42.4805	84.6527	42.4805	84.5687	42.4805	84.7531	42.4805	84.71	42.4805	84.7728
43.9453	82.2617	43.9453	82.289	43.9453	82.2636	43.9453	82.3455	43.9453	82.2948	43.9453	82.4316	43.9453	82.3562	43.9453	82.548	43.9453	82.4488	43.9453	82.6954	43.9453	82.5736	43.9453	82.8742	43.9453	82.7317	43.9453	83.0837	43.9453	82.9232	43.9453	83.3225	43.9453	83.1475	43.9453	83.5871	43.9453	83.4019	43.9453	83.8721	43.9453	83.6819	43.9453	84.1695	43.9453	83.9801	43.9453	84.4686	43.9453	84.2866	43.9453	84.7561	43.9453	84.5887	43.9453	85.017	43.9453	84.8715	43.9453	85.2358	43.9453	85.1192	43.9453	85.3978	43.9453	85.3162	43.9453	85.4914	43.9453	85.4493	43.9453	85.5091
45.4102	83.0177	45.4102	83.0448	45.4102	83.0195	45.4102	83.1008	45.4102	83.0507	45.4102	83.1855	45.4102	83.1117	45.4102	83.2991	45.4102	83.2031	45.4102	83.4415	45.4102	83.3255	45.4102	83.6123	45.4102	83.479	45.4102	83.811	45.4102	83.6632	45.4102	84.0356	45.4102	83.8769	45.4102	84.2831	45.4102	84.1174	45.4102	84.5487	45.4102	84.3803	45.4102	84.8252	45.4102	84.6589	45.4102	85.103	45.4102	84.9441	45.4102	85.3702	45.4102	85.2245	45.4102	85.6132	45.4102	85.4866	45.4102	85.8173	45.4102	85.7158	45.4102	85.969	45.4102	85.8979	45.4102	86.0572	45.4102	86.0205	45.4102	86.0749
46.875	83.6638	46.875	83.6873	46.875	83.6682	46.875	83.7386	46.875	83.7008	46.875	83.8172	46.875	83.7617	46.875	83.9229	46.875	83.851	46.875	84.0553	46.875	83.9688	46.875	84.2139	46.875	84.1145	46.875	84.3974	46.875	84.2874	46.875	84.6043	46.875	84.4861	46.875	84.8317	46.875	84.7078	46.875	85.0752	46.875	84.9486	46.875	85.3287	46.875	85.2028	46.875	85.5835	46.875	85.4623	46.875	85.8291	46.875	85.7171	46.875	86.053	46.875	85.955	46.875	86.2421	46.875	86.163	46.875	86.3835	46.875	86.3278	46.875	86.4669	46.875	86.4381	46.875	86.4856
48.3398	84.1479	48.3398	84.1694	48.3398	84.1543	48.3398	84.2188	48.3398	84.1887	48.3398	84.2958	48.3398	84.2508	48.3398	84.3995	48.3398	84.3401	48.3398	84.5292	48.3398	84.4559	48.3398	84.6836	48.3398	84.5973	48.3398	84.861	48.3398	84.7629	48.3398	85.0593	48.3398	84.9511	48.3398	85.2755	48.3398	85.1591	48.3398	85.5051	48.3398	85.3835	48.3398	85.7425	48.3398	85.6191	48.3398	85.9799	48.3398	85.8589	48.3398	86.2078	48.3398	86.0941	48.3398	86.4147	48.3398	86.3139	48.3398	86.5887	48.3398	86.5064	48.3398	86.7181	48.3398	86.6597	48.3398	86.7934	48.3398	86.7631	48.3398	86.8088
51.2695	84.7694	51.2695	84.7906	51.2695	84.7748	51.2695	84.838	51.2695	84.8068	51.2695	84.9107	51.2695	84.8649	51.2695	85.0073	51.2695	84.948	51.2695	85.1261	51.2695	85.0549	51.2695	85.2654	51.2695	85.1839	51.2695	85.4226	51.2695	85.3327	51.2695	85.5954	51.2695	85.4993	51.2695	85.7807	51.2695	85.6806	51.2695	85.975	51.2695	85.8734	51.2695	86.1736	51.2695	86.0733	51.2695	86.3708	51.2695	86.2748	51.2695	86.5593	51.2695	86.4709	51.2695	86.7305	51.2695	86.6533	51.2695	86.8748	51.2695	86.8125	51.2695	86.9827	51.2695	86.9389	51.2695	87.0463	51.2695	87.0236	51.2695	87.0603
52.7344	85.0132	52.7344	85.0346	52.7344	85.0179	52.7344	85.0817	52.7344	85.0487	52.7344	85.1533	52.7344	85.1049	52.7344	85.2479	52.7344	85.1853	52.7344	85.3635	52.7344	85.2883	52.7344	85.4977	52.7344	85.4119	52.7344	85.6479	52.7344	85.5537	52.7344	85.8115	52.7344	85.7114	52.7344	85.9854	52.7344	85.8819	52.7344	86.1662	52.7344	86.0619	52.7344	86.3497	52.7344	86.2474	52.7344	86.5308	52.7344	86.4335	52.7344	86.7033	52.7344	86.6141	52.7344	86.8593	52.7344	86.7817	52.7344	86.9905	52.7344	86.9279	52.7344	87.0882	52.7344	87.0442	52.7344	87.1453	52.7344	87.1225	52.7344	87.1571
54.1992	85.2092	54.1992	85.231	54.1992	85.2132	54.1992	85.278	54.1992	85.2428	54.1992	85.3488	54.1992	85.2973	54.1992	85.4416	54.1992	85.3754	54.1992	85.5541	54.1992	85.4753	54.1992	85.6837	54.1992	85.5948	54.1992	85.8276	54.1992	85.7312	54.1992	85.9828	54.1992	85.8817	54.1992	86.1462	54.1992	86.0435	54.1992	86.3146	54.1992	86.213	54.1992	86.4842	54.1992	86.3864	54.1992	86.6504	54.1992	86.5591	54.1992	86.8077	54.1992	86.7256	54.1992	86.9495	54.1992	86.8793	54.1992	87.0686	54.1992	87.0128	54.1992	87.1573	54.1992	87.1184	54.1992	87.2093	54.1992	87.1893	54.1992	87.2203
55.6641	85.3669	55.6641	85.3881	55.6641	85.3713	55.6641	85.4341	55.6641	85.401	55.6641	85.5035	55.6641	85.4552	55.6641	85.5942	55.6641	85.5325	55.6641	85.7038	55.6641	85.6306	55.6641	85.8292	55.6641	85.7471	55.6641	85.9673	55.6641	85.8791	55.6641	86.1151	55.6641	86.0234	55.6641	86.2693	55.6641	86.177	55.6641	86.4267	55.6641	86.3363	55.6641	86.5836	55.6641	86.4975	55.6641	86.7361	55.6641	86.6565	55.6641	86.8794	55.6641	86.8084	55.6641	87.008	55.6641	86.9475	55.6641	87.1155	55.6641	87.0676	55.6641	87.1956	55.6641	87.1622	55.6641	87.2426	55.6641	87.2254	55.6641	87.2528
58.5938	85.6015	58.5938	85.6171	58.5938	85.6094	58.5938	85.6557	58.5938	85.6405	58.5938	85.7157	58.5938	85.6938	58.5938	85.7951	58.5938	85.7673	58.5938	85.8913	58.5938	85.8586	58.5938	86.0011	58.5938	85.9648	58.5938	86.1213	58.5938	86.0825	58.5938	86.2485	58.5938	86.2085	58.5938	86.3795	58.5938	86.3394	58.5938	86.5111	58.5938	86.472	58.5938	86.6403	58.5938	86.6031	58.5938	86.7642	58.5938	86.7296	58.5938	86.8793	58.5938	86.8482	58.5938	86.9819	58.5938	86.9551	58.5938	87.0675	58.5938	87.046	58.5938	87.1318	58.5938	87.1166	58.5938	87.1705	58.5938	87.1627	58.5938	87.1811
60.0586	85.6748	60.0586	85.6902	60.0586	85.6827	60.0586	85.7282	60.0586	85.7135	60.0586	85.7873	60.0586	85.7661	60.0586	85.8653	60.0586	85.8383	60.0586	85.9593	60.0586	85.9276	60.0586	86.0658	60.0586	86.0307	60.0586	86.1815	60.0586	86.1441	60.0586	86.3028	60.0586	86.2645	60.0586	86.4263	60.0586	86.3882	60.0586	86.5489	60.0586	86.5121	60.0586	86.6678	60.0586	86.6331	60.0586	86.7803	60.0586	86.7484	60.0586	86.8837	60.0586	86.8551	60.0586	86.9749	60.0586	86.9502	60.0586	87.0505	60.0586	87.0306	60.0586	87.1068	60.0586	87.0927	60.0586	87.1405	60.0586	87.1331	60.0586	87.1495
62.9883	85.8337	62.9883	85.8474	62.9883	85.842	62.9883	85.8827	62.9883	85.8721	62.9883	85.9379	62.9883	85.9227	62.9883	86.0107	62.9883	85.9915	62.9883	86.0979	62.9883	86.0757	62.9883	86.1961	62.9883	86.1719	62.9883	86.3014	62.9883	86.2765	62.9883	86.4101	62.9883	86.3856	62.9883	86.5186	62.9883	86.4956	62.9883	86.624	62.9883	86.6032	62.9883	86.7237	62.9883	86.7055	62.9883	86.8157	62.9883	86.8001	62.9883	86.8982	62.9883	86.885	62.9883	86.9695	62.9883	86.9585	62.9883	87.0277	62.9883	87.019	62.9883	87.0709	62.9883	87.0647	62.9883	87.097	62.9883	87.0938	62.9883	87.1048
64.4531	85.8822	64.4531	85.8945	64.4531	85.8913	64.4531	85.9276	64.4531	85.9213	64.4531	85.9798	64.4531	85.971	64.4531	86.049	64.4531	86.0381	64.4531	86.1318	64.4531	86.1197	64.4531	86.2248	64.4531	86.2124	64.4531	86.324	64.4531	86.3124	64.4531	86.4257	64.4531	86.4157	64.4531	86.5264	64.4531	86.5187	64.4531	86.6229	64.4531	86.6179	64.4531	86.7128	64.4531	86.7106	64.4531	86.7946	64.4531	86.7947	64.4531	86.8668	64.4531	86.8685	64.4531	86.9285	64.4531	86.931	64.4531	86.9786	64.4531	86.981	64.4531	87.0159	64.4531	87.0178	64.4531	87.0391	64.4531	87.0401	64.4531	87.0473
67.3828	85.9895	67.3828	85.9962	67.3828	86.0023	67.3828	86.022	67.3828	86.034	67.3828	86.0653	67.3828	86.0834	67.3828	86.1239	67.3828	86.148	67.3828	86.1949	67.3828	86.2248	67.3828	86.2745	67.3828	86.3103	67.3828	86.3591	67.3828	86.4004	67.3828	86.4447	67.3828	86.4911	67.3828	86.528	67.3828	86.5786	67.3828	86.6059	67.3828	86.6596	67.3828	86.6766	67.3828	86.7316	67.3828	86.7387	67.3828	86.7928	67.3828	86.7919	67.3828	86.8425	67.3828	86.8364	67.3828	86.8809	67.3828	86.8724	67.3828	86.9082	67.3828	86.9001	67.3828	86.9253	67.3828	86.9196	67.3828	86.9325	67.3828	86.9305
68.8477	86.055	68.8477	86.0604	68.8477	86.0684	68.8477	86.084	68.8477	86.1	68.8477	86.1245	68.8477	86.1483	68.8477	86.1796	68.8477	86.2111	68.8477	86.2462	68.8477	86.2852	68.8477	86.3209	68.8477	86.367	68.8477	86.3999	68.8477	86.4525	68.8477	86.4793	68.8477	86.5376	68.8477	86.5559	68.8477	86.6186	68.8477	86.6266	68.8477	86.6922	68.8477	86.6897	68.8477	86.7559	68.8477	86.7439	68.8477	86.8085	68.8477	86.7894	68.8477	86.8493	68.8477	86.8265	68.8477	86.8789	68.8477	86.8562	68.8477	86.8983	68.8477	86.8791	68.8477	86.9086	68.8477	86.8959	68.8477	86.9111	68.8477	86.9067
71.7773	86.1781	71.7773	86.1818	71.7773	86.1919	71.7773	86.2023	71.7773	86.2225	71.7773	86.2383	71.7773	86.2684	71.7773	86.2875	71.7773	86.3275	71.7773	86.347	71.7773	86.3965	71.7773	86.4133	71.7773	86.4718	71.7773	86.4824	71.7773	86.5494	71.7773	86.5507	71.7773	86.625	71.7773	86.6146	71.7773	86.6949	71.7773	86.6712	71.7773	86.7558	71.7773	86.7188	71.7773	86.8052	71.7773	86.7566	71.7773	86.8419	71.7773	86.7852	71.7773	86.8658	71.7773	86.8064	71.7773	86.8782	71.7773	86.8222	71.7773	86.8811	71.7773	86.8351	71.7773	86.877	71.7773	86.8468	71.7773	86.8687	71.7773	86.8581
74.707	86.2486	74.707	86.2549	74.707	86.259	74.707	86.2775	74.707	86.2859	74.707	86.3148	74.707	86.3279	74.707	86.3644	74.707	86.3828	74.707	86.4232	74.707	86.4475	74.707	86.4876	74.707	86.5184	74.707	86.5534	74.707	86.5913	74.707	86.6167	74.707	86.6618	74.707	86.6739	74.707	86.7259	74.707	86.7221	74.707	86.78	74.707	86.7594	74.707	86.8216	74.707	86.7854	74.707	86.8493	74.707	86.8013	74.707	86.8636	74.707	86.8095	74.707	86.8663	74.707	86.8131	74.707	86.8604	74.707	86.8156	74.707	86.8496	74.707	86.8198	74.707	86.8376	74.707	86.8271
77.6367	86.3169	77.6367	86.3293	77.6367	86.3207	77.6367	86.3572	77.6367	86.3406	77.6367	86.3992	77.6367	86.3753	77.6367	86.4528	77.6367	86.4228	77.6367	86.5148	77.6367	86.4804	77.6367	86.5817	77.6367	86.5444	77.6367	86.6491	77.6367	86.6111	77.6367	86.713	77.6367	86.6761	77.6367	86.7693	77.6367	86.7353	77.6367	86.8149	77.6367	86.7853	77.6367	86.8476	77.6367	86.8234	77.6367	86.8669	77.6367	86.8484	77.6367	86.8737	77.6367	86.8607	77.6367	86.8707	77.6367	86.8624	77.6367	86.8617	77.6367	86.857	77.6367	86.8511	77.6367	86.8488	77.6367	86.8428	77.6367	86.8419	77.6367	86.8395
79.1016	86.3409	79.1016	86.3522	79.1016	86.3458	79.1016	86.3792	79.1016	86.3667	79.1016	86.4204	79.1016	86.4023	79.1016	86.4734	79.1016	86.4507	79.1016	86.535	79.1016	86.5089	79.1016	86.6013	79.1016	86.5735	79.1016	86.6682	79.1016	86.6403	79.1016	86.7312	79.1016	86.705	79.1016	86.7863	79.1016	86.7635	79.1016	86.8301	79.1016	86.8119	79.1016	86.8605	79.1016	86.8475	79.1016	86.8769	79.1016	86.8692	79.1016	86.8805	79.1016	86.8774	79.1016	86.8744	79.1016	86.8744	79.1016	86.8625	79.1016	86.8643	79.1016	86.8496	79.1016	86.8518	79.1016	86.8402	79.1016	86.8416	79.1016	86.8372
82.0312	86.4718	82.0312	86.4819	82.0312	86.4753	82.0312	86.5051	82.0312	86.4921	82.0312	86.5399	82.0312	86.5215	82.0312	86.5842	82.0312	86.5614	82.0312	86.6351	82.0312	86.6096	82.0312	86.6892	82.0312	86.6626	82.0312	86.7424	82.0312	86.7165	82.0312	86.7908	82.0312	86.7672	82.0312	86.8305	82.0312	86.8105	82.0312	86.8585	82.0312	86.8429	82.0312	86.8731	82.0312	86.862	82.0312	86.874	82.0312	86.867	82.0312	86.8627	82.0312	86.8589	82.0312	86.8426	82.0312	86.841	82.0312	86.8184	82.0312	86.8181	82.0312	86.7956	82.0312	86.7958	82.0312	86.7795	82.0312	86.7796	82.0312	86.7737
84.9609	86.5799	84.9609	86.5863	84.9609	86.5858	84.9609	86.6044	84.9609	86.6034	84.9609	86.6332	84.9609	86.6313	84.9609	86.6703	84.9609	86.6672	84.9609	86.7129	84.9609	86.7082	84.9609	86.7572	84.9609	86.7504	84.9609	86.799	84.9609	86.7899	84.9609	86.8341	84.9609	86.8223	84.9609	86.8582	84.9609	86.8439	84.9609	86.8682	84.9609	86.8517	84.9609	86.8623	84.9609	86.8442	84.9609	86.8405	84.9609	86.8218	84.9609	86.8051	84.9609	86.7869	84.9609	86.7609	84.9609	86.7442	84.9609	86.7142	84.9609	86.7002	84.9609	86.6725	84.9609	86.6623	84.9609	86.6428	84.9609	86.6374	84.9609	86.6304
87.8906	86.4626	87.8906	86.458	87.8906	86.4807	87.8906	86.4665	87.8906	86.5118	87.8906	86.487	87.8906	86.5546	87.8906	86.5176	87.8906	86.6069	87.8906	86.5558	87.8906	86.6659	87.8906	86.5983	87.8906	86.7276	87.8906	86.6411	87.8906	86.7877	87.8906	86.6802	87.8906	86.8415	87.8906	86.7118	87.8906	86.8844	87.8906	86.7326	87.8906	86.9127	87.8906	86.741	87.8906	86.9235	87.8906	86.737	87.8906	86.9161	87.8906	86.7229	87.8906	86.8915	87.8906	86.7032	87.8906	86.8532	87.8906	86.6839	87.8906	86.8067	87.8906	86.6714	87.8906	86.7588	87.8906	86.6712	87.8906	86.7167	87.8906	86.6864
90.8203	86.4948	90.8203	86.4957	90.8203	86.5071	90.8203	86.5096	90.8203	86.5325	90.8203	86.5355	90.8203	86.5701	90.8203	86.5721	90.8203	86.6183	90.8203	86.6169	90.8203	86.6749	90.8203	86.667	90.8203	86.7365	90.8203	86.7187	90.8203	86.7991	90.8203	86.7677	90.8203	86.8582	90.8203	86.8097	90.8203	86.9089	90.8203	86.8412	90.8203	86.9471	90.8203	86.8596	90.8203	86.9694	90.8203	86.8644	90.8203	86.9743	90.8203	86.8571	90.8203	86.9626	90.8203	86.8418	90.8203	86.9372	90.8203	86.8242	90.8203	86.9033	90.8203	86.8106	90.8203	86.8674	90.8203	86.8064	90.8203	86.8361	90.8203	86.8148
95.2148	86.6157	95.2148	86.6269	95.2148	86.6161	95.2148	86.6492	95.2148	86.628	95.2148	86.6814	95.2148	86.6507	95.2148	86.7218	95.2148	86.6829	95.2148	86.7679	95.2148	86.7224	95.2148	86.8166	95.2148	86.7662	95.2148	86.8643	95.2148	86.811	95.2148	86.9068	95.2148	86.8529	95.2148	86.94	95.2148	86.8878	95.2148	86.9604	95.2148	86.9122	95.2148	86.9657	95.2148	86.9234	95.2148	86.9556	95.2148	86.9203	95.2148	86.9319	95.2148	86.9039	95.2148	86.8988	95.2148	86.8776	95.2148	86.8622	95.2148	86.847	95.2148	86.8288	95.2148	86.8189	95.2148	86.8047	95.2148	86.7998	95.2148	86.7945
98.1445	86.6733	98.1445	86.6818	98.1445	86.6732	98.1445	86.6985	98.1445	86.681	98.1445	86.7228	98.1445	86.6959	98.1445	86.7533	98.1445	86.7164	98.1445	86.7877	98.1445	86.7406	98.1445	86.8232	98.1445	86.7663	98.1445	86.8564	98.1445	86.7907	98.1445	86.8833	98.1445	86.8107	98.1445	86.9001	98.1445	86.8231	98.1445	86.9038	98.1445	86.8254	98.1445	86.8924	98.1445	86.8159	98.1445	86.8658	98.1445	86.7942	98.1445	86.8259	98.1445	86.7623	98.1445	86.7772	98.1445	86.7238	98.1445	86.7259	98.1445	86.6846	98.1445	86.6794	98.1445	86.6514	98.1445	86.6451	98.1445	86.6309	98.1445	86.6282
101.074	86.6974	101.074	86.7015	101.074	86.7002	101.074	86.7132	101.074	86.7087	101.074	86.7328	101.074	86.7214	101.074	86.7592	101.074	86.7367	101.074	86.7905	101.074	86.7528	101.074	86.8236	101.074	86.7675	101.074	86.8545	101.074	86.7784	101.074	86.8784	101.074	86.7829	101.074	86.8908	101.074	86.7782	101.074	86.8878	101.074	86.7625	101.074	86.8668	101.074	86.7348	101.074	86.8276	101.074	86.696	101.074	86.7728	101.074	86.649	101.074	86.7073	101.074	86.5985	101.074	86.6387	101.074	86.5512	101.074	86.5757	101.074	86.5145	101.074	86.527	101.074	86.4956	101.074	86.4993
105.469	86.701	105.469	86.7021	105.469	86.7061	105.469	86.7086	105.469	86.7179	105.469	86.7197	105.469	86.7368	105.469	86.7348	105.469	86.7621	105.469	86.7525	105.469	86.7922	105.469	86.771	105.469	86.824	105.469	86.7876	105.469	86.8531	105.469	86.7987	105.469	86.8743	105.469	86.8004	105.469	86.8821	105.469	86.7891	105.469	86.8717	105.469	86.7618	105.469	86.8401	105.469	86.7176	105.469	86.7868	105.469	86.6582	105.469	86.715	105.469	86.5888	105.469	86.6318	105.469	86.5179	105.469	86.5475	105.469	86.4564	105.469	86.4743	105.469	86.4153	105.469	86.4235	105.469	86.4031
108.398	86.7835	108.398	86.7875	108.398	86.7856	108.398	86.7966	108.398	86.7949	108.398	86.8096	108.398	86.8121	108.398	86.8254	108.398	86.8374	108.398	86.8424	108.398	86.87	108.398	86.8584	108.398	86.9075	108.398	86.8703	108.398	86.9462	108.398	86.8748	108.398	86.9812	108.398	86.8684	108.398	87.0068	108.398	86.8483	108.398	87.0177	108.398	86.8134	108.398	87.0095	108.398	86.7651	108.398	86.9799	108.398	86.7077	108.398	86.9292	108.398	86.6489	108.398	86.8613	108.398	86.5986	108.398	86.7829	108.398	86.5667	108.398	86.7036	108.398	86.5608	108.398	86.6339	108.398	86.584
112.793	86.9107	112.793	86.9373	112.793	86.8874	112.793	86.9668	112.793	86.8683	112.793	86.9985	112.793	86.8542	112.793	87.0316	112.793	86.8455	112.793	87.0649	112.793	86.8417	112.793	87.096	112.793	86.8416	112.793	87.1217	112.793	86.8427	112.793	87.1374	112.793	86.8418	112.793	87.1385	112.793	86.8355	112.793	87.1209	112.793	86.8208	112.793	87.0823	112.793	86.7963	112.793	87.0231	112.793	86.7623	112.793	86.9473	112.793	86.7213	112.793	86.8619	112.793	86.6779	112.793	86.7761	112.793	86.638	112.793	86.6998	112.793	86.6086	112.793	86.6415	112.793	86.5963	112.793	86.6065
117.188	86.9308	117.188	86.9346	117.188	86.9285	117.188	86.9411	117.188	86.9271	117.188	86.9516	117.188	86.927	117.188	86.9675	117.188	86.9293	117.188	86.989	117.188	86.9351	117.188	87.0153	117.188	86.9446	117.188	87.044	117.188	86.957	117.188	87.0715	117.188	86.9695	117.188	87.0933	117.188	86.9777	117.188	87.1049	117.188	86.977	117.188	87.1023	117.188	86.9635	117.188	87.0831	117.188	86.9359	117.188	87.0469	117.188	86.8964	117.188	86.996	117.188	86.8508	117.188	86.9356	117.188	86.8079	117.188	86.8736	117.188	86.7775	117.188	86.8194	117.188	86.7675	117.188	86.782
120.117	87.019	120.117	87.0012	120.117	87.0309	120.117	86.9795	120.117	87.0358	120.117	86.9569	120.117	87.0341	120.117	86.9362	120.117	87.0274	120.117	86.9197	120.117	87.0182	120.117	86.9085	120.117	87.0093	120.117	86.9023	120.117	87.0025	120.117	86.8995	120.117	86.9981	120.117	86.8974	120.117	86.9946	120.117	86.8927	120.117	86.9884	120.117	86.8829	120.117	86.9756	120.117	86.8663	120.117	86.9529	120.117	86.843	120.117	86.9197	120.117	86.815	120.117	86.8782	120.117	86.7863	120.117	86.8337	120.117	86.7619	120.117	86.7929	120.117	86.7473	120.117	86.7625	120.117	86.7468
124.512	87.4659	124.512	87.4092	124.512	87.5078	124.512	87.3399	124.512	87.5334	124.512	87.2612	124.512	87.5425	124.512	87.1765	124.512	87.5358	124.512	87.0889	124.512	87.5148	124.512	87.0007	124.512	87.4811	124.512	86.9131	124.512	87.4365	124.512	86.8258	124.512	87.3818	124.512	86.7377	124.512	87.3169	124.512	86.6475	124.512	87.2408	124.512	86.5555	124.512	87.1518	124.512	86.4644	124.512	87.0488	124.512	86.3799	124.512	86.9323	124.512	86.3105	124.512	86.805	124.512	86.2654	124.512	86.6727	124.512	86.2526	124.512	86.5438	124.512	86.2763	124.512	86.4284	124.512	86.3365
128.906	87.3732	128.906	87.3616	128.906	87.3708	128.906	87.3348	128.906	87.356	128.906	87.2922	128.906	87.3305	128.906	87.2336	128.906	87.2955	128.906	87.1597	128.906	87.2517	128.906	87.0715	128.906	87.1995	128.906	86.9703	128.906	87.1386	128.906	86.8571	128.906	87.0683	128.906	86.7334	128.906	86.9876	128.906	86.601	128.906	86.8951	128.906	86.463	128.906	86.7894	128.906	86.3243	128.906	86.67	128.906	86.1917	128.906	86.538	128.906	86.0743	128.906	86.3978	128.906	85.9824	128.906	86.257	128.906	85.9259	128.906	86.1263	128.906	85.9122	128.906	86.0181	128.906	85.944
133.301	87.3589	133.301	87.372	133.301	87.3401	133.301	87.3777	133.301	87.3171	133.301	87.3739	133.301	87.2912	133.301	87.359	133.301	87.2628	133.301	87.3309	133.301	87.2317	133.301	87.2881	133.301	87.1964	133.301	87.2292	133.301	87.1547	133.301	87.1537	133.301	87.1041	133.301	87.0622	133.301	87.0422	133.301	86.9568	133.301	86.9674	133.301	86.841	133.301	86.8792	133.301	86.7196	133.301	86.7789	133.301	86.5989	133.301	86.6699	133.301	86.4859	133.301	86.5583	133.301	86.3886	133.301	86.4525	133.301	86.3152	133.301	86.3625	133.301	86.273	133.301	86.2981	133.301	86.2671
139.16	87.2223	139.16	87.2241	139.16	87.2154	139.16	87.2222	139.16	87.2037	139.16	87.2188	139.16	87.1886	139.16	87.2165	139.16	87.172	139.16	87.2168	139.16	87.1557	139.16	87.2192	139.16	87.1403	139.16	87.2205	139.16	87.1245	139.16	87.2154	139.16	87.1057	139.16	87.1975	139.16	87.0806	139.16	87.1609	139.16	87.0459	139.16	87.1026	139.16	87	139.16	87.0237	139.16	86.9429	139.16	86.9302	139.16	86.8769	139.16	86.8317	139.16	86.8062	139.16	86.7405	139.16	86.7367	139.16	86.6686	139.16	86.6759	139.16	86.6247	139.16	86.6319	139.16	86.613
143.555	87.2978	143.555	87.261	143.555	87.3182	143.555	87.2098	143.555	87.3225	143.555	87.1481	143.555	87.3129	143.555	87.0814	143.555	87.293	143.555	87.0159	143.555	87.2671	143.555	86.9567	143.555	87.2383	143.555	86.907	143.555	87.2084	143.555	86.8664	143.555	87.1765	143.555	86.8312	143.555	87.1398	143.555	86.7955	143.555	87.0943	143.555	86.7535	143.555	87.0365	143.555	86.7018	143.555	86.9648	143.555	86.6416	143.555	86.8806	143.555	86.579	143.555	86.7879	143.555	86.5235	143.555	86.6938	143.555	86.4853	143.555	86.6069	143.555	86.4727	143.555	86.5362	143.555	86.4899
147.949	87.516	147.949	87.4946	147.949	87.5102	147.949	87.4456	147.949	87.4795	147.949	87.3701	147.949	87.4274	147.949	87.2712	147.949	87.3586	147.949	87.1532	147.949	87.2784	147.949	87.0218	147.949	87.1913	147.949	86.8834	147.949	87.1006	147.949	86.7441	147.949	87.0073	147.949	86.609	147.949	86.9104	147.949	86.4811	147.949	86.8077	147.949	86.3616	147.949	86.6973	147.949	86.2512	147.949	86.5793	147.949	86.1514	147.949	86.4561	147.949	86.0661	147.949	86.3331	147.949	86.0011	147.949	86.2169	147.949	85.9625	147.949	86.1148	147.949	85.9546	147.949	86.0335	147.949	85.9788
153.809	87.1554	153.809	87.2008	153.809	87.0827	153.809	87.2152	153.809	86.9872	153.809	87.1967	153.809	86.8745	153.809	87.1443	153.809	86.7509	153.809	87.0587	153.809	86.6227	153.809	86.9419	153.809	86.4954	153.809	86.7976	153.809	86.3732	153.809	86.6311	153.809	86.2585	153.809	86.4493	153.809	86.1518	153.809	86.2612	153.809	86.0524	153.809	86.0774	153.809	85.959	153.809	85.9099	153.809	85.8708	153.809	85.7696	153.809	85.7883	153.809	85.6639	153.809	85.7139	153.809	85.5942	153.809	85.6508	153.809	85.5564	153.809	85.6017	153.809	85.5431	153.809	85.5675	153.809	85.5479
159.668	87.0396	159.668	87.0478	159.668	87.018	159.668	87.0468	159.668	86.9792	159.668	87.0396	159.668	86.921	159.668	87.0272	159.668	86.8435	159.668	87.0074	159.668	86.7488	159.668	86.9755	159.668	86.6408	159.668	86.9254	159.668	86.5237	159.668	86.8513	159.668	86.4015	159.668	86.7493	159.668	86.2771	159.668	86.6184	159.668	86.1524	159.668	86.4612	159.668	86.0286	159.668	86.2846	159.668	85.9075	159.668	86.0995	159.668	85.7921	159.668	85.9197	159.668	85.6871	159.668	85.7602	159.668	85.5988	159.668	85.6335	159.668	85.5344	159.668	85.5471	159.668	85.5007	159.668	85.5035
165.527	87.146	165.527	87.1406	165.527	87.1316	165.527	87.1175	165.527	87.0976	165.527	87.0805	165.527	87.0457	165.527	87.0348	165.527	86.9789	165.527	86.985	165.527	86.9004	165.527	86.934	165.527	86.8131	165.527	86.8815	165.527	86.7188	165.527	86.8245	165.527	86.6183	165.527	86.7582	165.527	86.5113	165.527	86.6778	165.527	86.3981	165.527	86.5809	165.527	86.2806	165.527	86.4676	165.527	86.1632	165.527	86.3418	165.527	86.0526	165.527	86.2108	165.527	85.9565	165.527	86.0847	165.527	85.8821	165.527	85.9745	165.527	85.8349	165.527	85.8899	165.527	85.8191	165.527	85.8372
171.387	86.35	171.387	86.2976	171.387	86.3919	171.387	86.2388	171.387	86.4223	171.387	86.1795	171.387	86.4427	171.387	86.1269	171.387	86.4564	171.387	86.0873	171.387	86.4673	171.387	86.0639	171.387	86.479	171.387	86.056	171.387	86.4929	171.387	86.0584	171.387	86.5082	171.387	86.0639	171.387	86.5214	171.387	86.0651	171.387	86.5272	171.387	86.0573	171.387	86.5197	171.387	86.0399	171.387	86.4945	171.387	86.0167	171.387	86.4493	171.387	85.9946	171.387	86.3852	171.387	85.9823	171.387	86.3066	171.387	85.9874	171.387	86.2209	171.387	86.0152	171.387	86.1376	171.387	86.0665
177.246	86.8265	177.246	86.8161	177.246	86.7957	177.246	86.7623	177.246	86.73	177.246	86.6671	177.246	86.6388	177.246	86.5368	177.246	86.5339	177.246	86.3822	177.246	86.4276	177.246	86.2172	177.246	86.3314	177.246	86.0581	177.246	86.2533	177.246	85.9203	177.246	86.1963	177.246	85.8173	177.246	86.1587	177.246	85.7574	177.246	86.1351	177.246	85.7419	177.246	86.1187	177.246	85.7644	177.246	86.1036	177.246	85.8117	177.246	86.0866	177.246	85.8674	177.246	86.067	177.246	85.9179	177.246	86.0466	177.246	85.9555	177.246	86.0276	177.246	85.9803	177.246	86.0114	177.246	85.9969
183.105	86.9818	183.105	86.9993	183.105	86.9099	183.105	86.9656	183.105	86.7845	183.105	86.8866	183.105	86.6111	183.105	86.7701	183.105	86.4	183.105	86.6239	183.105	86.1665	183.105	86.4538	183.105	85.9294	183.105	86.2619	183.105	85.7091	183.105	86.0468	183.105	85.5242	183.105	85.8056	183.105	85.3877	183.105	85.5392	183.105	85.3038	183.105	85.2582	183.105	85.2667	183.105	84.9868	183.105	85.2617	183.105	84.7606	183.105	85.2684	183.105	84.6152	183.105	85.2646	183.105	84.5708	183.105	85.2315	183.105	84.6225	183.105	85.1572	183.105	84.7428	183.105	85.0407	183.105	84.8941
188.965	86.5102	188.965	86.5617	188.965	86.421	188.965	86.5747	188.965	86.2954	188.965	86.5501	188.965	86.1354	188.965	86.4914	188.965	85.9444	188.965	86.4052	188.965	85.7279	188.965	86.3008	188.965	85.4949	188.965	86.1878	188.965	85.2581	188.965	86.0737	188.965	85.0326	188.965	85.9609	188.965	84.8335	188.965	85.8464	188.965	84.6731	188.965	85.7239	188.965	84.5588	188.965	85.5886	188.965	84.4938	188.965	85.4411	188.965	84.477	188.965	85.2891	188.965	84.5031	188.965	85.1446	188.965	84.5622	188.965	85.0173	188.965	84.6408	188.965	84.9095	188.965	84.7271	188.965	84.8155
196.289	86.579	196.289	86.5907	196.289	86.5291	196.289	86.5672	196.289	86.441	196.289	86.5139	196.289	86.3177	196.289	86.4384	196.289	86.1645	196.289	86.3495	196.289	85.9883	196.289	86.257	196.289	85.7968	196.289	86.17	196.289	85.598	196.289	86.0947	196.289	85.401	196.289	86.0333	196.289	85.2162	196.289	85.9822	196.289	85.0547	196.289	85.9336	196.289	84.9269	196.289	85.8778	196.289	84.8402	196.289	85.8059	196.289	84.7985	196.289	85.7127	196.289	84.8017	196.289	85.5974	196.289	84.8474	196.289	85.4642	196.289	84.9305	196.289	85.3209	196.289	85.0435	196.289	85.1771
203.613	86.6133	203.613	86.6318	203.613	86.5383	203.613	86.5931	203.613	86.411	203.613	86.4997	203.613	86.2391	203.613	86.3574	203.613	86.0337	203.613	86.1754	203.613	85.8079	203.613	85.9665	203.613	85.575	203.613	85.7465	203.613	85.3463	203.613	85.5332	203.613	85.1302	203.613	85.3438	203.613	84.9328	203.613	85.1906	203.613	84.7595	203.613	85.0766	203.613	84.6169	203.613	84.9954	203.613	84.5133	203.613	84.9359	203.613	84.4562	203.613	84.8881	203.613	84.4492	203.613	84.8457	203.613	84.4869	203.613	84.8045	203.613	84.5544	203.613	84.7589	203.613	84.6316	203.613	84.7021
210.938	86.405	210.938	86.3973	210.938	86.3632	210.938	86.3518	210.938	86.2649	210.938	86.2813	210.938	86.1096	210.938	86.1962	210.938	85.9043	210.938	86.1016	210.938	85.6627	210.938	85.9963	210.938	85.4019	210.938	85.8738	210.938	85.1379	210.938	85.727	210.938	84.8816	210.938	85.5532	210.938	84.6371	210.938	85.3589	210.938	84.4036	210.938	85.1591	210.938	84.1799	210.938	84.9707	210.938	83.969	210.938	84.8024	210.938	83.7831	210.938	84.6482	210.938	83.6444	210.938	84.4907	210.938	83.5796	210.938	84.3135	210.938	83.6072	210.938	84.1131	210.938	83.7247	210.938	83.9059
218.262	86.2019	218.262	86.0505	218.262	86.2818	218.262	85.8418	218.262	86.2821	218.262	85.5958	218.262	86.2011	218.262	85.3387	218.262	86.0443	218.262	85.0992	218.262	85.8258	218.262	84.9039	218.262	85.5686	218.262	84.7693	218.262	85.3033	218.262	84.6962	218.262	85.0631	218.262	84.6713	218.262	84.8756	218.262	84.6745	218.262	84.753	218.262	84.6871	218.262	84.6877	218.262	84.6961	218.262	84.6554	218.262	84.6928	218.262	84.627	218.262	84.6697	218.262	84.5823	218.262	84.6222	218.262	84.5201	218.262	84.5544	218.262	84.4584	218.262	84.4828	218.262	84.4233	218.262	84.4323
225.586	86.3639	225.586	86.3035	225.586	86.3574	225.586	86.1771	225.586	86.2888	225.586	85.9905	225.586	86.1669	225.586	85.7549	225.586	86.0029	225.586	85.4869	225.586	85.8094	225.586	85.2079	225.586	85.5996	225.586	84.9431	225.586	85.3896	225.586	84.7162	225.586	85.199	225.586	84.5425	225.586	85.05	225.586	84.425	225.586	84.9612	225.586	84.3589	225.586	84.9388	225.586	84.3401	225.586	84.9709	225.586	84.3694	225.586	85.0304	225.586	84.4454	225.586	85.0841	225.586	84.5565	225.586	85.1056	225.586	84.6837	225.586	85.0828	225.586	84.8097	225.586	85.0188	225.586	84.9242
232.91	86.2513	232.91	86.2088	232.91	86.2177	232.91	86.1001	232.91	86.1072	232.91	85.9434	232.91	85.9273	232.91	85.7634	232.91	85.693	232.91	85.586	232.91	85.4247	232.91	85.4311	232.91	85.1458	232.91	85.3069	232.91	84.8796	232.91	85.2099	232.91	84.6497	232.91	85.1305	232.91	84.4803	232.91	85.0619	232.91	84.3964	232.91	85.0058	232.91	84.4199	232.91	84.9759	232.91	84.5599	232.91	84.9958	232.91	84.8035	232.91	85.0888	232.91	85.1109	232.91	85.2591	232.91	85.422	232.91	85.4766	232.91	85.6717	232.91	85.6814	232.91	85.8082	232.91	85.8074
241.699	86.3973	241.699	86.2969	241.699	86.3909	241.699	86.0987	241.699	86.2684	241.699	85.8122	241.699	86.0242	241.699	85.4519	241.699	85.6616	241.699	85.0448	241.699	85.1995	241.699	84.6373	241.699	84.6778	241.699	84.2917	241.699	84.1587	241.699	84.069	241.699	83.7186	241.699	84.0004	241.699	83.4271	241.699	84.0692	241.699	83.3191	241.699	84.2208	241.699	83.3792	241.699	84.3916	241.699	83.5533	241.699	84.5336	241.699	83.7773	241.699	84.6252	241.699	84.0008	241.699	84.6662	241.699	84.1963	241.699	84.6664	241.699	84.3555	241.699	84.634	241.699	84.4796	241.699	84.5719
250.488	86.8102	250.488	86.7439	250.488	86.7908	250.488	86.5808	250.488	86.6944	250.488	86.3109	250.488	86.525	250.488	85.9302	250.488	86.2819	250.488	85.4468	250.488	85.9621	250.488	84.8891	250.488	85.5657	250.488	84.3116	250.488	85.1022	250.488	83.7927	250.488	84.5969	250.488	83.4122	250.488	84.0978	250.488	83.2161	250.488	83.6768	250.488	83.1922	250.488	83.4108	250.488	83.2831	250.488	83.3397	250.488	83.4212	250.488	83.4321	250.488	83.5569	250.488	83.6016	250.488	83.6681	250.488	83.7611	250.488	83.7541	250.488	83.8606	250.488	83.8217	250.488	83.8917	250.488	83.8716
259.277	86.7493	259.277	86.7448	259.277	86.6694	259.277	86.6562	259.277	86.5059	259.277	86.4837	259.277	86.2613	259.277	86.225	259.277	85.9402	259.277	85.8756	259.277	85.5494	259.277	85.433	259.277	85.1013	259.277	84.9069	259.277	84.6194	259.277	84.3359	259.277	84.1432	259.277	83.8009	259.277	83.7261	259.277	83.4153	259.277	83.4231	259.277	83.2687	259.277	83.2719	259.277	83.3566	259.277	83.2793	259.277	83.5812	259.277	83.4175	259.277	83.8246	259.277	83.6305	259.277	84.0126	259.277	83.8515	259.277	84.1258	259.277	84.0277	259.277	84.1772	259.277	84.136	259.277	84.1813
268.066	86.3566	268.066	86.2561	268.066	86.3716	268.066	86.0665	268.066	86.3072	268.066	85.7878	268.066	86.17	268.066	85.426	268.066	85.9648	268.066	84.9968	268.066	85.6924	268.066	84.5286	268.066	85.3472	268.066	84.0628	268.066	84.9201	268.066	83.6464	268.066	84.4076	268.066	83.321	268.066	83.8288	268.066	83.1161	268.066	83.2505	268.066	83.0503	268.066	82.7978	268.066	83.1261	268.066	82.6105	268.066	83.3165	268.066	82.7363	268.066	83.5629	268.066	83.0771	268.066	83.7989	268.066	83.4707	268.066	83.9778	268.066	83.7959	268.066	84.0785	268.066	84.0029	268.066	84.0915
276.855	86.3137	276.855	86.3109	276.855	86.2526	276.855	86.2409	276.855	86.1255	276.855	86.0925	276.855	85.9288	276.855	85.847	276.855	85.6628	276.855	85.4825	276.855	85.3326	276.855	84.9819	276.855	84.9483	276.855	84.348	276.855	84.5232	276.855	83.6256	276.855	84.0764	276.855	82.9253	276.855	83.6385	276.855	82.4172	276.855	83.2572	276.855	82.2536	276.855	82.9946	276.855	82.4579	276.855	82.9073	276.855	82.9103	276.855	83.0177	276.855	83.4433	276.855	83.2945	276.855	83.9237	276.855	83.6612	276.855	84.2727	276.855	84.0262	276.855	84.4548	276.855	84.3111	276.855	84.4637
287.109	86.6873	287.109	86.6516	287.109	86.6488	287.109	86.5455	287.109	86.531	287.109	86.3719	287.109	86.3285	287.109	86.1337	287.109	86.0383	287.109	85.8327	287.109	85.664	287.109	85.4657	287.109	85.2184	287.109	85.02	287.109	84.7184	287.109	84.4775	287.109	84.1747	287.109	83.837	287.109	83.589	287.109	83.1556	287.109	82.9773	287.109	82.5925	287.109	82.4122	287.109	82.3818	287.109	82.0385	287.109	82.6519	287.109	82.0011	287.109	83.2626	287.109	82.3216	287.109	83.9244	287.109	82.8794	287.109	84.4039	287.109	83.5101	287.109	84.5884	287.109	84.0745	287.109	84.4624
297.363	86.9127	297.363	86.8774	297.363	86.8903	297.363	86.7759	297.363	86.8096	297.363	86.5928	297.363	86.6611	297.363	86.3101	297.363	86.427	297.363	85.9184	297.363	86.0849	297.363	85.4337	297.363	85.6167	297.363	84.9121	297.363	85.0224	297.363	84.4454	297.363	84.3337	297.363	84.1175	297.363	83.6172	297.363	83.9406	297.363	82.9594	297.363	83.8492	297.363	82.4447	297.363	83.7691	297.363	82.1512	297.363	83.6876	297.363	82.1462	297.363	83.6557	297.363	82.437	297.363	83.722	297.363	82.9179	297.363	83.8619	297.363	83.417	297.363	83.9816	297.363	83.793	297.363	83.9795
307.617	86.9087	307.617	86.8705	307.617	86.8755	307.617	86.7614	307.617	86.7707	307.617	86.5774	307.617	86.5991	307.617	86.3065	307.617	86.3716	307.617	85.9273	307.617	86.0997	307.617	85.4099	307.617	85.7842	307.617	84.7261	307.617	85.4082	307.617	83.8798	307.617	84.9464	307.617	82.9615	307.617	84.3919	307.617	82.1963	307.617	83.7858	307.617	81.8643	307.617	83.2267	307.617	82.0514	307.617	82.8346	307.617	82.5651	307.617	82.685	307.617	83.1522	307.617	82.7747	307.617	83.6514	307.617	83.0446	307.617	83.9831	307.617	83.4094	307.617	84.1102	307.617	83.7697	307.617	84.0278
319.336	86.4683	319.336	86.3652	319.336	86.5126	319.336	86.2074	319.336	86.4862	319.336	85.9906	319.336	86.3747	319.336	85.7036	319.336	86.1664	319.336	85.3315	319.336	85.8572	319.336	84.8587	319.336	85.4509	319.336	84.2708	319.336	84.9558	319.336	83.5582	319.336	84.3813	319.336	82.7354	319.336	83.745	319.336	81.8908	319.336	83.0922	319.336	81.2445	319.336	82.5151	319.336	81.0771	319.336	82.1412	319.336	81.4469	319.336	82.0637	319.336	82.0961	319.336	82.2664	319.336	82.7283	319.336	82.6318	319.336	83.1881	319.336	83.0193	319.336	83.4339	319.336	83.321	319.336	83.4713
329.59	86.15	329.59	86.1002	329.59	86.1614	329.59	86.017	329.59	86.1221	329.59	85.8946	329.59	86.0154	329.59	85.7161	329.59	85.8249	329.59	85.4557	329.59	85.5375	329.59	85.0841	329.59	85.1456	329.59	84.5764	329.59	84.6492	329.59	83.9221	329.59	84.0569	329.59	83.1381	329.59	83.3872	329.59	82.2888	329.59	82.6765	329.59	81.5135	329.59	81.9985	329.59	81.023	329.59	81.4846	329.59	80.9827	329.59	81.2907	329.59	81.3449	329.59	81.4748	329.59	81.884	329.59	81.9129	329.59	82.3835	329.59	82.3875	329.59	82.7211	329.59	82.7252	329.59	82.8419
341.309	86.4325	341.309	86.4167	341.309	86.3438	341.309	86.2944	341.309	86.1556	341.309	86.0676	341.309	85.8756	341.309	85.7419	341.309	85.5102	341.309	85.3275	341.309	85.0605	341.309	84.8361	341.309	84.5198	341.309	84.2742	341.309	83.8831	341.309	83.638	341.309	83.1735	341.309	82.9236	341.309	82.4774	341.309	82.1641	341.309	81.9466	341.309	81.4764	341.309	81.7189	341.309	81.063	341.309	81.8047	341.309	81.0888	341.309	82.0934	341.309	81.5143	341.309	82.4589	341.309	82.1246	341.309	82.8172	341.309	82.6998	341.309	83.1115	341.309	83.1079	341.309	83.2899	341.309	83.3017
353.027	86.2311	353.027	86.1868	353.027	86.2225	353.027	86.0998	353.027	86.148	353.027	85.9708	353.027	85.9977	353.027	85.7869	353.027	85.7643	353.027	85.5237	353.027	85.4368	353.027	85.1532	353.027	84.9906	353.027	84.653	353.027	84.3797	353.027	84.0146	353.027	83.5408	353.027	83.2531	353.027	82.4175	353.027	82.4279	353.027	81.0278	353.027	81.6771	353.027	79.6192	353.027	81.2214	353.027	78.8091	353.027	81.2305	353.027	79.0886	353.027	81.6311	353.027	80.0789	353.027	82.1631	353.027	81.1434	353.027	82.5987	353.027	81.9841	353.027	82.8267	353.027	82.5367	353.027	82.8112
366.211	86.5788	366.211	86.4936	366.211	86.5985	366.211	86.3305	366.211	86.5625	366.211	86.0799	366.211	86.4715	366.211	85.7364	366.211	86.3124	366.211	85.2961	366.211	86.0587	366.211	84.7472	366.211	85.6793	366.211	84.0625	366.211	85.1494	366.211	83.2103	366.211	84.4534	366.211	82.2004	366.211	83.5722	366.211	81.1676	366.211	82.4737	366.211	80.4147	366.211	81.1578	366.211	80.2315	366.211	79.8189	366.211	80.5941	366.211	79.0471	366.211	81.2425	366.211	79.3904	366.211	81.94	366.211	80.4753	366.211	82.5193	366.211	81.5955	366.211	82.8465	366.211	82.4084	366.211	82.8254
379.395	86.4615	379.395	86.4601	379.395	86.4361	379.395	86.4303	379.395	86.3814	379.395	86.354	379.395	86.2999	379.395	86.1942	379.395	86.1945	379.395	85.9051	379.395	86.0514	379.395	85.4511	379.395	85.829	379.395	84.8151	379.395	85.47	379.395	83.9914	379.395	84.9316	379.395	82.9702	379.395	84.2101	379.395	81.7627	379.395	83.3425	379.395	80.5294	379.395	82.3939	379.395	79.7509	379.395	81.4811	379.395	79.9132	379.395	80.8496	379.395	80.7641	379.395	80.806	379.395	81.6906	379.395	81.3451	379.395	82.3831	379.395	82.0772	379.395	82.7806	379.395	82.636	379.395	82.8731
392.578	85.7917	392.578	85.7477	392.578	85.7697	392.578	85.6574	392.578	85.6786	392.578	85.5463	392.578	85.5291	392.578	85.4279	392.578	85.337	392.578	85.2905	392.578	85.1111	392.578	85.0953	392.578	84.8447	392.578	84.7823	392.578	84.5113	392.578	84.2817	392.578	84.0682	392.578	83.5313	392.578	83.4713	392.578	82.5072	392.578	82.7007	392.578	81.2885	392.578	81.8003	392.578	80.1809	392.578	80.9251	392.578	79.7249	392.578	80.3523	392.578	80.1584	392.578	80.337	392.578	81.0401	392.578	80.8476	392.578	81.845	392.578	81.5635	392.578	82.3302	392.578	82.1537	392.578	82.4316
405.762	85.905	405.762	85.8101	405.762	85.8884	405.762	85.6144	405.762	85.7639	405.762	85.3452	405.762	85.5429	405.762	85.0378	405.762	85.2403	405.762	84.7178	405.762	84.8681	405.762	84.3831	405.762	84.4269	405.762	83.9986	405.762	83.9001	405.762	83.508	405.762	83.262	405.762	82.8611	405.762	82.5048	405.762	82.052	405.762	81.6831	405.762	81.1703	405.762	80.9541	405.762	80.4467	405.762	80.5477	405.762	80.1953	405.762	80.6007	405.762	80.5408	405.762	81.0226	405.762	81.2468	405.762	81.5961	405.762	81.9579	405.762	82.1316	405.762	82.4451	405.762	82.5027	405.762	82.6248
420.41	85.9602	420.41	85.953	420.41	85.8891	420.41	85.8464	420.41	85.7645	420.41	85.6342	420.41	85.6063	420.41	85.3298	420.41	85.4212	420.41	84.9581	420.41	85.1936	420.41	84.5334	420.41	84.8828	420.41	84.0328	420.41	84.4349	420.41	83.3827	420.41	83.798	420.41	82.4822	420.41	82.9258	420.41	81.2854	420.41	81.767	420.41	79.9784	420.41	80.282	420.41	79.1585	420.41	78.5861	420.41	79.3626	420.41	77.3463	420.41	80.2415	420.41	77.633	420.41	81.1655	420.41	79.1256	420.41	81.8508	420.41	80.6502	420.41	82.2134	420.41	81.6914	420.41	82.1888
435.059	85.8845	435.059	85.8552	435.059	85.8602	435.059	85.7775	435.059	85.7512	435.059	85.6262	435.059	85.525	435.059	85.3605	435.059	85.1837	435.059	84.9481	435.059	84.7851	435.059	84.3796	435.059	84.4082	435.059	83.6671	435.059	84.0648	435.059	82.8289	435.059	83.6524	435.059	81.866	435.059	83.0183	435.059	80.7502	435.059	82.0757	435.059	79.4779	435.059	80.9063	435.059	78.2679	435.059	79.8176	435.059	77.7819	435.059	79.2353	435.059	78.5165	435.059	79.3572	435.059	79.8803	435.059	79.9958	435.059	81.0707	435.059	80.8142	435.059	81.7516	435.059	81.5149	435.059	81.8759
451.172	86.2751	451.172	86.0993	451.172	86.3249	451.172	85.8336	451.172	86.2378	451.172	85.521	451.172	86.0279	451.172	85.1928	451.172	85.7206	451.172	84.8695	451.172	85.345	451.172	84.5566	451.172	84.9323	451.172	84.2127	451.172	84.5031	451.172	83.7262	451.172	84.0331	451.172	82.9521	451.172	83.4271	451.172	81.7878	451.172	82.5427	451.172	80.251	451.172	81.2634	451.172	78.6036	451.172	79.6169	451.172	77.5537	451.172	78.0062	451.172	77.8733	451.172	77.3619	451.172	79.1619	451.172	78.1214	451.172	80.4244	451.172	79.4638	451.172	81.1458	451.172	80.5968	451.172	81.196
465.82	86.0973	465.82	86.0097	465.82	86.0478	465.82	85.8041	465.82	85.8656	465.82	85.5174	465.82	85.57	465.82	85.1804	465.82	85.1904	465.82	84.8023	465.82	84.7701	465.82	84.3819	465.82	84.3572	465.82	83.9178	465.82	83.9694	465.82	83.382	465.82	83.5673	465.82	82.6866	465.82	83.0687	465.82	81.7076	465.82	82.3796	465.82	80.3826	465.82	81.4128	465.82	78.8775	465.82	80.1468	465.82	77.7434	465.82	78.8278	465.82	77.5543	465.82	78.1672	465.82	78.1349	465.82	78.5761	465.82	78.9213	465.82	79.3797	465.82	79.5753	465.82	79.8926	465.82	79.9373
483.398	86.4323	483.398	86.3013	483.398	86.4107	483.398	86.0355	483.398	86.2365	483.398	85.6697	483.398	85.9228	483.398	85.2473	483.398	85.4919	483.398	84.8055	483.398	84.9737	483.398	84.364	483.398	84.4018	483.398	83.9171	483.398	83.8042	483.398	83.4248	483.398	83.1902	483.398	82.8029	483.398	82.5352	483.398	81.9386	483.398	81.7752	483.398	80.763	483.398	80.8359	483.398	79.4008	483.398	79.7177	483.398	78.361	483.398	78.6429	483.398	78.2574	483.398	78.1189	483.398	78.9092	483.398	78.4576	483.398	79.6532	483.398	79.2575	483.398	80.1328	483.398	79.9416	483.398	80.2437
499.512	87.0358	499.512	86.8656	499.512	87.0537	499.512	86.5814	499.512	86.8981	499.512	86.2122	499.512	86.57	499.512	85.7477	499.512	86.0875	499.512	85.1518	499.512	85.4829	499.512	84.422	499.512	84.7956	499.512	83.6224	499.512	84.0537	499.512	82.832	499.512	83.2545	499.512	82.068	499.512	82.3786	499.512	81.3077	499.512	81.4468	499.512	80.5877	499.512	80.5774	499.512	80.0397	499.512	79.9595	499.512	79.8216	499.512	79.7126	499.512	80.0315	499.512	79.805	499.512	80.6078	499.512	80.1564	499.512	81.2763	499.512	80.7013	499.512	81.7029	499.512	81.2966	499.512	81.6992
517.09	86.5881	517.09	86.585	517.09	86.4421	517.09	86.3847	517.09	86.2096	517.09	85.9925	517.09	85.9373	517.09	85.4818	517.09	85.6386	517.09	84.9392	517.09	85.2982	517.09	84.3628	517.09	84.8983	517.09	83.6439	517.09	84.4405	517.09	82.687	517.09	83.9285	517.09	81.5387	517.09	83.3172	517.09	80.3768	517.09	82.4964	517.09	79.3798	517.09	81.3671	517.09	78.7532	517.09	80.0228	517.09	78.8445	517.09	79.0075	517.09	79.7229	517.09	79.0806	517.09	80.9041	517.09	80.1031	517.09	81.9012	517.09	81.2916	517.09	82.4889	517.09	82.1741	517.09	82.5865
536.133	87.0556	536.133	86.8988	536.133	87.0551	536.133	86.6347	536.133	86.8745	536.133	86.3074	536.133	86.5212	536.133	85.926	536.133	86.0146	536.133	85.4764	536.133	85.3728	536.133	84.9541	536.133	84.6064	536.133	84.3538	536.133	83.7016	536.133	83.6003	536.133	82.6121	536.133	82.5076	536.133	81.3102	536.133	80.8422	536.133	79.8782	536.133	78.521	536.133	78.5288	536.133	76.3189	536.133	77.5588	536.133	76.4287	536.133	77.4724	536.133	78.3803	536.133	78.619	536.133	80.1396	536.133	80.2793	536.133	81.2628	536.133	81.5513	536.133	81.9005	536.133	82.1554	536.133	82.2088
555.176	86.7833	555.176	86.7032	555.176	86.7672	555.176	86.5394	555.176	86.6547	555.176	86.3026	555.176	86.4502	555.176	85.9802	555.176	86.1509	555.176	85.5385	555.176	85.7505	555.176	84.9476	555.176	85.2568	555.176	84.2033	555.176	84.6883	555.176	83.3223	555.176	84.0269	555.176	82.2999	555.176	83.1532	555.176	81.0482	555.176	81.8419	555.176	79.3936	555.176	79.8652	555.176	77.2873	555.176	77.2713	555.176	75.5142	555.176	75.1582	555.176	75.7934	555.176	75.3942	555.176	77.5576	555.176	77.0986	555.176	79.1622	555.176	78.7284	555.176	80.1001	555.176	79.8409	555.176	80.3178
574.219	86.6723	574.219	86.5119	574.219	86.6685	574.219	86.2282	574.219	86.4664	574.219	85.8562	574.219	86.0957	574.219	85.4578	574.219	85.6633	574.219	85.1169	574.219	85.2775	574.219	84.86	574.219	84.955	574.219	84.5821	574.219	84.6098	574.219	84.075	574.219	84.1111	574.219	83.1384	574.219	83.3435	574.219	81.6492	574.219	82.2337	574.219	79.5218	574.219	80.7222	574.219	76.747	574.219	78.7214	574.219	74.4929	574.219	76.3103	574.219	75.4627	574.219	74.8318	574.219	77.797	574.219	76.3319	574.219	79.5948	574.219	78.8508	574.219	80.73	574.219	80.5459	574.219	81.123
594.727	86.1884	594.727	86.1237	594.727	86.0939	594.727	85.8749	594.727	85.8767	594.727	85.4598	594.727	85.5549	594.727	84.945	594.727	85.1271	594.727	84.411	594.727	84.5983	594.727	83.8935	594.727	84.0054	594.727	83.3793	594.727	83.422	594.727	82.8539	594.727	82.9071	594.727	82.2665	594.727	82.3955	594.727	81.4574	594.727	81.6446	594.727	80.2492	594.727	80.3422	594.727	78.7323	594.727	78.3876	594.727	77.6203	594.727	76.6251	594.727	77.9393	594.727	76.9463	594.727	79.4653	594.727	78.6765	594.727	81.0041	594.727	80.2013	594.727	81.8367	594.727	81.252	594.727	81.8536
615.234	86.1424	615.234	86.0359	615.234	86.0639	615.234	85.7659	615.234	85.8239	615.234	85.3795	615.234	85.4601	615.234	84.9039	615.234	84.9943	615.234	84.3601	615.234	84.4534	615.234	83.821	615.234	83.9028	615.234	83.3476	615.234	83.3937	615.234	82.8245	615.234	82.8489	615.234	81.9892	615.234	82.0753	615.234	80.6486	615.234	80.9071	615.234	78.7971	615.234	79.2834	615.234	76.6511	615.234	77.2413	615.234	75.1246	615.234	75.179	615.234	75.7038	615.234	74.6536	615.234	77.3804	615.234	76.3904	615.234	78.6598	615.234	78.3812	615.234	79.4115	615.234	79.5128	615.234	79.7567
637.207	86.5079	637.207	86.3404	637.207	86.3959	637.207	85.9094	637.207	86.0414	637.207	85.3172	637.207	85.5002	637.207	84.7189	637.207	84.8484	637.207	84.2003	637.207	84.2053	637.207	83.738	637.207	83.6796	637.207	83.3218	637.207	83.2455	637.207	82.9469	637.207	82.7775	637.207	82.4236	637.207	82.2022	637.207	81.4018	637.207	81.4292	637.207	79.5864	637.207	80.1534	637.207	76.9763	637.207	77.9595	637.207	74.6358	637.207	75.0453	637.207	75.1543	637.207	74.2955	637.207	77.7167	637.207	76.6428	637.207	79.9158	637.207	78.9206	637.207	81.0931	637.207	80.4544	637.207	81.2254
659.18	85.6818	659.18	85.6068	659.18	85.6251	659.18	85.3482	659.18	85.4419	659.18	84.8507	659.18	85.1304	659.18	84.1779	659.18	84.6905	659.18	83.534	659.18	84.1104	659.18	83.0499	659.18	83.4358	659.18	82.6055	659.18	82.8063	659.18	81.9922	659.18	82.2357	659.18	81.082	659.18	81.4747	659.18	79.7763	659.18	80.2957	659.18	77.9105	659.18	78.7006	659.18	75.5952	659.18	76.7989	659.18	74.8675	659.18	75.0201	659.18	77.0939	659.18	75.3081	659.18	79.4236	659.18	77.723	659.18	80.8094	659.18	79.8349	659.18	81.4016	659.18	81.0106	659.18	81.4578
682.617	87.0568	682.617	86.8631	682.617	86.9905	682.617	86.4578	682.617	86.6876	682.617	85.9476	682.617	86.1573	682.617	85.361	682.617	85.4173	682.617	84.6796	682.617	84.6251	682.617	84.0671	682.617	84.0541	682.617	83.7464	682.617	83.8029	682.617	83.5225	682.617	83.6452	682.617	82.8969	682.617	83.2294	682.617	81.487	682.617	82.1965	682.617	79.0405	682.617	80.1113	682.617	75.3413	682.617	76.4359	682.617	72.92	682.617	71.8835	682.617	76.5409	682.617	73.9123	682.617	79.9948	682.617	78.1129	682.617	82.0496	682.617	80.9625	682.617	83.1452	682.617	82.6895	682.617	83.392
707.52	87.9704	707.52	87.8011	707.52	87.8745	707.52	87.37	707.52	87.4503	707.52	86.6381	707.52	86.7162	707.52	85.7057	707.52	85.8446	707.52	84.8438	707.52	85.052	707.52	84.2343	707.52	84.4435	707.52	83.9205	707.52	84.047	707.52	83.9308	707.52	83.8748	707.52	83.9402	707.52	83.7503	707.52	83.322	707.52	83.2807	707.52	81.536	707.52	82.0441	707.52	77.9445	707.52	79.4744	707.52	71.1054	707.52	74.2336	707.52	71.0872	707.52	67.4881	707.52	78.1718	707.52	75.6613	707.52	81.91	707.52	80.2685	707.52	83.6159	707.52	82.7006	707.52	83.7949
732.422	87.3181	732.422	87.2413	732.422	87.131	732.422	86.8581	732.422	86.7898	732.422	86.1983	732.422	86.3277	732.422	85.2945	732.422	85.6295	732.422	84.2359	732.422	84.6273	732.422	83.3328	732.422	83.5733	732.422	82.9373	732.422	82.9313	732.422	82.8813	732.422	82.7978	732.422	82.6301	732.422	82.7835	732.422	81.8228	732.422	82.4519	732.422	80.2221	732.422	81.4406	732.422	77.2755	732.422	79.2764	732.422	71.5914	732.422	75.0047	732.422	70.1461	732.422	69.3034	732.422	76.9298	732.422	74.5365	732.422	80.315	732.422	78.5959	732.422	81.5762	732.422	80.5702	732.422	81.5156
757.324	87.7257	757.324	87.5465	757.324	87.7798	757.324	87.1816	757.324	87.5753	757.324	86.4497	757.324	86.9776	757.324	85.3208	757.324	86.0059	757.324	84.0551	757.324	84.7785	757.324	83.0701	757.324	83.4361	757.324	82.6918	757.324	82.3925	757.324	82.9316	757.324	82.2719	757.324	83.2538	757.324	82.7827	757.324	82.9062	757.324	82.9737	757.324	81.2911	757.324	82.1752	757.324	77.71	757.324	79.8997	757.324	70.0946	757.324	75.3583	757.324	71.1875	757.324	68.833	757.324	78.0261	757.324	74.5462	757.324	81.1185	757.324	79.5237	757.324	82.525	757.324	81.9819	757.324	82.8282
785.156	87.4196	785.156	87.2194	785.156	87.3307	785.156	86.7214	785.156	87.0037	785.156	86.0031	785.156	86.434	785.156	85.066	785.156	85.5638	785.156	83.7425	785.156	84.4156	785.156	82.1376	785.156	83.2313	785.156	81.1928	785.156	82.4108	785.156	81.4545	785.156	82.209	785.156	81.9241	785.156	82.3592	785.156	81.8509	785.156	82.22	785.156	80.9074	785.156	81.3587	785.156	78.2732	785.156	79.4951	785.156	71.1688	785.156	75.5126	785.156	65.1322	785.156	62.8785	785.156	75.6693	785.156	73.3761	785.156	79.1968	785.156	79.2953	785.156	81.001	785.156	81.4471	785.156	81.8053
811.523	87.4962	811.523	87.3677	811.523	87.4312	811.523	87.0699	811.523	87.1332	811.523	86.4984	811.523	86.6396	811.523	85.524	811.523	85.9099	811.523	84.1889	811.523	84.7259	811.523	82.6614	811.523	83.0159	811.523	81.2634	811.523	81.4479	811.523	81.0837	811.523	81.0221	811.523	82.1728	811.523	81.5336	811.523	82.8725	811.523	82.2388	811.523	82.2967	811.523	82.408	811.523	79.9849	811.523	81.0465	811.523	74.6706	811.523	76.8009	811.523	50.2496	811.523	64.5201	811.523	75.5229	811.523	69.7908	811.523	80.7248	811.523	77.4845	811.523	82.6692	811.523	81.1069	811.523	82.7204
840.82	87.5545	840.82	87.4426	840.82	87.5395	840.82	87.1906	840.82	87.3616	840.82	86.7505	840.82	86.9309	840.82	85.9846	840.82	86.2124	840.82	84.7088	840.82	85.2249	840.82	82.9017	840.82	83.9063	840.82	80.8701	840.82	82.2295	840.82	79.2635	840.82	80.7881	840.82	79.3646	840.82	80.7889	840.82	80.9716	840.82	81.6727	840.82	81.9019	840.82	82.0841	840.82	81.139	840.82	81.5082	840.82	78.1044	840.82	79.4436	840.82	70.492	840.82	73.9602	840.82	64.7831	840.82	54.195	840.82	76.0767	840.82	74.7384	840.82	79.6993	840.82	78.988	840.82	80.4249
870.117	87.8493	870.117	87.756	870.117	87.8297	870.117	87.4233	870.117	87.6384	870.117	86.7124	870.117	87.1434	870.117	85.8498	870.117	86.3138	870.117	85.0926	870.117	85.3061	870.117	83.9922	870.117	84.212	870.117	81.9979	870.117	82.8043	870.117	80.3317	870.117	81.0942	870.117	80.6385	870.117	80.2417	870.117	81.1139	870.117	80.7529	870.117	81.0958	870.117	81.2938	870.117	80.6573	870.117	81.1239	870.117	78.4704	870.117	79.7298	870.117	71.6609	870.117	75.5823	870.117	61.3771	870.117	60.1255	870.117	73.5968	870.117	72.0236	870.117	77.0308	870.117	77.3793	870.117	78.3428
900.879	88.0182	900.879	87.7725	900.879	87.9464	900.879	87.4157	900.879	87.6847	900.879	87.1712	900.879	87.3222	900.879	86.6285	900.879	86.7651	900.879	85.3824	900.879	85.8607	900.879	83.8257	900.879	84.4091	900.879	82.423	900.879	82.5474	900.879	80.6219	900.879	81.017	900.879	78.8179	900.879	80.288	900.879	79.7432	900.879	80.2786	900.879	80.9661	900.879	80.8115	900.879	80.2886	900.879	80.6267	900.879	77.523	900.879	78.4458	900.879	71.9986	900.879	73.1226	900.879	57.4173	900.879	67.8568	900.879	73.8429	900.879	74.1207	900.879	78.5514	900.879	77.5953	900.879	79.2201
933.105	87.9349	933.105	87.8897	933.105	87.9585	933.105	87.5525	933.105	87.6789	933.105	86.6753	933.105	87.0167	933.105	85.7762	933.105	86.0884	933.105	85.0875	933.105	84.8436	933.105	83.8164	933.105	83.5106	933.105	81.6997	933.105	82.307	933.105	80.3776	933.105	80.7733	933.105	80.4493	933.105	79.425	933.105	80.3739	933.105	79.9477	933.105	80.2365	933.105	80.7119	933.105	80.1736	933.105	80.5557	933.105	78.5222	933.105	79.1315	933.105	72.8882	933.105	74.9984	933.105	67.9509	933.105	64.0704	933.105	74.1522	933.105	71.1875	933.105	77.19	933.105	76.9579	933.105	78.3922
965.332	88.0407	965.332	87.8722	965.332	87.6939	965.332	87.3806	965.332	87.2393	965.332	86.9224	965.332	86.8525	965.332	86.1611	965.332	86.2701	965.332	84.8614	965.332	85.3462	965.332	83.4327	965.332	83.8889	965.332	81.9887	965.332	81.7726	965.332	80.1964	965.332	79.7205	965.332	78.9928	965.332	78.8156	965.332	79.8533	965.332	79.0944	965.332	80.3405	965.332	79.8759	965.332	79.3515	965.332	79.58	965.332	77.0444	965.332	77.3365	965.332	71.9776	965.332	72.8565	965.332	52.9572	965.332	57.9195	965.332	73.5838	965.332	73.5602	965.332	77.2102	965.332	77.4449	965.332	78.0107
1,000.49	87.7498	1,000.49	87.5789	1,000.49	87.5076	1,000.49	87.1843	1,000.49	86.9371	1,000.49	86.6534	1,000.49	86.3196	1,000.49	85.8813	1,000.49	85.5086	1,000.49	84.7652	1,000.49	84.2176	1,000.49	83.2865	1,000.49	82.8136	1,000.49	81.3382	1,000.49	81.562	1,000.49	79.5029	1,000.49	79.7702	1,000.49	79.0928	1,000.49	77.5651	1,000.49	79.3395	1,000.49	77.5061	1,000.49	79.6762	1,000.49	78.2756	1,000.49	80.1701	1,000.49	78.773	1,000.49	79.2667	1,000.49	78.4756	1,000.49	74.4417	1,000.49	74.6585	1,000.49	66.5221	1,000.49	61.8469	1,000.49	73.9024	1,000.49	68.6651	1,000.49	77.8975	1,000.49	76.3164	1,000.49	79.0436
1,035.64	87.2725	1,035.64	87.099	1,035.64	87.1919	1,035.64	86.445	1,035.64	86.9097	1,035.64	85.6339	1,035.64	86.1698	1,035.64	84.9807	1,035.64	85.2544	1,035.64	84.1238	1,035.64	84.4588	1,035.64	82.7358	1,035.64	83.1264	1,035.64	81.0726	1,035.64	80.789	1,035.64	79.2535	1,035.64	78.3519	1,035.64	77.6048	1,035.64	76.7367	1,035.64	78.0986	1,035.64	76.0477	1,035.64	78.7466	1,035.64	77.3012	1,035.64	77.8683	1,035.64	77.6885	1,035.64	76.3168	1,035.64	75.1579	1,035.64	74.1797	1,035.64	71.672	1,035.64	67.6173	1,035.64	64.6491	1,035.64	71.8036	1,035.64	70.2667	1,035.64	74.5792	1,035.64	75.3894	1,035.64	75.3187
1,072.27	87.4243	1,072.27	87.1049	1,072.27	87.3082	1,072.27	86.7628	1,072.27	86.8153	1,072.27	86.3232	1,072.27	86.3238	1,072.27	85.4315	1,072.27	85.7436	1,072.27	84.29	1,072.27	84.6348	1,072.27	82.7444	1,072.27	82.9263	1,072.27	80.033	1,072.27	80.9485	1,072.27	77.0733	1,072.27	78.5095	1,072.27	76.2936	1,072.27	76.0505	1,072.27	76.9677	1,072.27	76.1531	1,072.27	77.8449	1,072.27	76.1224	1,072.27	77.0434	1,072.27	75.4662	1,072.27	74.0982	1,072.27	75.0763	1,072.27	70.5742	1,072.27	72.4532	1,072.27	69.2953	1,072.27	67.0844	1,072.27	72.5188	1,072.27	71.1271	1,072.27	75.4719	1,072.27	75.1939	1,072.27	76.4746
1,108.89	86.2909	1,108.89	86.056	1,108.89	86.3719	1,108.89	86.0162	1,108.89	85.7709	1,108.89	85.5684	1,108.89	85.316	1,108.89	84.9809	1,108.89	85.1026	1,108.89	84.4423	1,108.89	84.5176	1,108.89	83.1041	1,108.89	83.8138	1,108.89	80.5044	1,108.89	82.3115	1,108.89	77.2229	1,108.89	78.5084	1,108.89	76.1254	1,108.89	74.6713	1,108.89	78.3454	1,108.89	76.1231	1,108.89	78.9051	1,108.89	77.9857	1,108.89	77.2149	1,108.89	78.2005	1,108.89	73.2734	1,108.89	75.1958	1,108.89	61.9252	1,108.89	64.8961	1,108.89	71.5241	1,108.89	66.28	1,108.89	77.9263	1,108.89	75.0614	1,108.89	79.4193	1,108.89	78.9284	1,108.89	79.7191
1,148.44	86.4412	1,148.44	86.0338	1,148.44	86.6187	1,148.44	85.4085	1,148.44	85.7865	1,148.44	84.1628	1,148.44	84.1157	1,148.44	83.0467	1,148.44	83.2002	1,148.44	83.0035	1,148.44	83.3022	1,148.44	83.2772	1,148.44	83.2904	1,148.44	82.6526	1,148.44	82.8851	1,148.44	79.4689	1,148.44	81.5494	1,148.44	71.0192	1,148.44	77.5932	1,148.44	73.3265	1,148.44	70.1811	1,148.44	79.2101	1,148.44	76.6215	1,148.44	80.8561	1,148.44	79.9178	1,148.44	79.4621	1,148.44	80.6182	1,148.44	75.16	1,148.44	78.3003	1,148.44	75.9218	1,148.44	74.4735	1,148.44	80.3676	1,148.44	78.5045	1,148.44	82.322	1,148.44	81.5856	1,148.44	82.6763
1,189.45	86.9971	1,189.45	86.6139	1,189.45	86.8157	1,189.45	85.7414	1,189.45	86.2355	1,189.45	84.2265	1,189.45	85.3707	1,189.45	82.449	1,189.45	83.8725	1,189.45	81.2848	1,189.45	82.2403	1,189.45	80.7884	1,189.45	81.619	1,189.45	80.5724	1,189.45	81.3818	1,189.45	79.7119	1,189.45	80.4936	1,189.45	76.3387	1,189.45	78.8904	1,189.45	68.5324	1,189.45	75.085	1,189.45	74.3301	1,189.45	71.5638	1,189.45	78.2127	1,189.45	76.7826	1,189.45	79.1485	1,189.45	79.2699	1,189.45	78.2268	1,189.45	78.5582	1,189.45	74.5763	1,189.45	75.9184	1,189.45	73.4778	1,189.45	74.2898	1,189.45	76.9702	1,189.45	75.4926	1,189.45	77.5853
1,230.47	87.1823	1,230.47	86.7424	1,230.47	87.0364	1,230.47	85.9833	1,230.47	86.6537	1,230.47	85.1173	1,230.47	86.0213	1,230.47	83.7082	1,230.47	84.7374	1,230.47	81.6721	1,230.47	82.9009	1,230.47	80.1351	1,230.47	81.293	1,230.47	79.894	1,230.47	80.5669	1,230.47	79.0523	1,230.47	80.477	1,230.47	76.9562	1,230.47	79.6019	1,230.47	73.2502	1,230.47	76.5208	1,230.47	70.6871	1,230.47	73.1343	1,230.47	76.4065	1,230.47	75.5505	1,230.47	78.8058	1,230.47	78.8124	1,230.47	77.7343	1,230.47	79.184	1,230.47	72.9569	1,230.47	76.4085	1,230.47	70.0986	1,230.47	69.5637	1,230.47	72.5038	1,230.47	69.1486	1,230.47	72.7495
1,274.41	86.981	1,274.41	86.7846	1,274.41	87.0122	1,274.41	86.3088	1,274.41	86.4848	1,274.41	85.2874	1,274.41	85.7094	1,274.41	84.075	1,274.41	84.8489	1,274.41	82.4494	1,274.41	83.5302	1,274.41	80.623	1,274.41	81.6961	1,274.41	79.3776	1,274.41	80.1363	1,274.41	78.8907	1,274.41	79.4065	1,274.41	78.2777	1,274.41	78.5493	1,274.41	74.3088	1,274.41	76.155	1,274.41	67.8806	1,274.41	72.0602	1,274.41	73.465	1,274.41	74.0232	1,274.41	76.3116	1,274.41	76.6795	1,274.41	75.6918	1,274.41	77.1439	1,274.41	71.5242	1,274.41	74.7422	1,274.41	61.2983	1,274.41	65.9295	1,274.41	66.9352	1,274.41	63.6436	1,274.41	69.2544
1,319.82	86.6266	1,319.82	86.5445	1,319.82	86.259	1,319.82	85.8302	1,319.82	86.0929	1,319.82	84.9138	1,319.82	85.4688	1,319.82	83.7509	1,319.82	84.2669	1,319.82	82.2754	1,319.82	82.6275	1,319.82	80.0692	1,319.82	80.7176	1,319.82	78.7584	1,319.82	79.3903	1,319.82	78.9636	1,319.82	78.0615	1,319.82	77.6514	1,319.82	77.4098	1,319.82	74.857	1,319.82	76.1325	1,319.82	70.2207	1,319.82	72.3832	1,319.82	71.9354	1,319.82	72.1826	1,319.82	75.8629	1,319.82	75.1128	1,319.82	75.4728	1,319.82	76.0376	1,319.82	72.6389	1,319.82	74.3199	1,319.82	64.9591	1,319.82	69.0789	1,319.82	59.4095	1,319.82	45.7225	1,319.82	63.7734
1,366.7	85.7142	1,366.7	85.611	1,366.7	85.7313	1,366.7	85.2324	1,366.7	85.227	1,366.7	84.1783	1,366.7	84.2546	1,366.7	83.0767	1,366.7	83.3708	1,366.7	81.9646	1,366.7	82.5707	1,366.7	80.0376	1,366.7	81.0507	1,366.7	77.6964	1,366.7	78.7664	1,366.7	75.827	1,366.7	76.6142	1,366.7	73.9874	1,366.7	75.3938	1,366.7	72.5692	1,366.7	74.9087	1,366.7	72.3798	1,366.7	73.5485	1,366.7	71.4063	1,366.7	71.382	1,366.7	72.8675	1,366.7	72.813	1,366.7	74.6492	1,366.7	74.6158	1,366.7	73.9368	1,366.7	74.021	1,366.7	69.6658	1,366.7	69.6068	1,366.7	65.7345	1,366.7	62.3778	1,366.7	66.6549
1,413.57	85.3824	1,413.57	85.1171	1,413.57	85.2192	1,413.57	84.6081	1,413.57	84.5307	1,413.57	83.9333	1,413.57	83.595	1,413.57	82.3296	1,413.57	82.5677	1,413.57	80.5929	1,413.57	80.964	1,413.57	79.5095	1,413.57	79.3534	1,413.57	78.2818	1,413.57	78.0912	1,413.57	76.3769	1,413.57	77.0249	1,413.57	74.2115	1,413.57	75.42	1,413.57	73.644	1,413.57	73.0918	1,413.57	72.1757	1,413.57	71.4979	1,413.57	69.6846	1,413.57	71.5491	1,413.57	70.3568	1,413.57	70.055	1,413.57	68.8555	1,413.57	70.4458	1,413.57	67.8841	1,413.57	69.3992	1,413.57	67.0718	1,413.57	65.6279	1,413.57	68.5309	1,413.57	68.51	1,413.57	68.0884
1,463.38	84.1963	1,463.38	83.8767	1,463.38	83.9718	1,463.38	83.7028	1,463.38	83.5072	1,463.38	82.9195	1,463.38	83.0661	1,463.38	81.8441	1,463.38	81.6123	1,463.38	80.392	1,463.38	79.7372	1,463.38	78.1671	1,463.38	78.0622	1,463.38	77.3081	1,463.38	76.5849	1,463.38	76.593	1,463.38	75.2462	1,463.38	74.3231	1,463.38	74.0988	1,463.38	72.3124	1,463.38	71.0164	1,463.38	71.9224	1,463.38	69.1525	1,463.38	73.0146	1,463.38	70.9813	1,463.38	73.6222	1,463.38	73.1294	1,463.38	73.2513	1,463.38	72.9969	1,463.38	69.5118	1,463.38	68.2651	1,463.38	63.9192	1,463.38	62.1583	1,463.38	70.4066	1,463.38	66.8799	1,463.38	69.8786
1,516.11	83.1721	1,516.11	82.8906	1,516.11	82.9754	1,516.11	81.9603	1,516.11	82.5407	1,516.11	81.0335	1,516.11	81.3947	1,516.11	80.2803	1,516.11	80.0229	1,516.11	78.7535	1,516.11	79.4038	1,516.11	77.2324	1,516.11	77.8075	1,516.11	75.4694	1,516.11	76.3584	1,516.11	73.9205	1,516.11	74.8997	1,516.11	74.4551	1,516.11	72.5068	1,516.11	72.5079	1,516.11	72.5222	1,516.11	68.9366	1,516.11	71.2416	1,516.11	67.4123	1,516.11	69.3962	1,516.11	72.1745	1,516.11	70.5049	1,516.11	72.2427	1,516.11	72.8557	1,516.11	68.3399	1,516.11	70.9285	1,516.11	61.3106	1,516.11	64.7174	1,516.11	66.4005	1,516.11	61.4052	1,516.11	67.6902
1,568.85	83.0788	1,568.85	82.6066	1,568.85	82.9117	1,568.85	81.4288	1,568.85	82.2654	1,568.85	80.9855	1,568.85	80.8483	1,568.85	79.3349	1,568.85	80.3344	1,568.85	77.8253	1,568.85	79.2703	1,568.85	76.7359	1,568.85	77.8093	1,568.85	74.3054	1,568.85	75.6908	1,568.85	73.6959	1,568.85	73.8358	1,568.85	73.4035	1,568.85	73.2793	1,568.85	71.7437	1,568.85	71.0291	1,568.85	67.4951	1,568.85	70.7618	1,568.85	68.7055	1,568.85	68.5623	1,568.85	70.811	1,568.85	68.9203	1,568.85	72.6368	1,568.85	69.8478	1,568.85	69.626	1,568.85	68.7958	1,568.85	66.6173	1,568.85	64.4947	1,568.85	68.5849	1,568.85	65.678	1,568.85	69.7162
1,624.51	83.7049	1,624.51	83.4742	1,624.51	83.5503	1,624.51	82.9912	1,624.51	83.0715	1,624.51	82.1027	1,624.51	82.3454	1,624.51	81.2811	1,624.51	81.5916	1,624.51	79.1698	1,624.51	79.9386	1,624.51	77.3599	1,624.51	78.389	1,624.51	74.7993	1,624.51	77.7354	1,624.51	74.7999	1,624.51	76.7887	1,624.51	73.8121	1,624.51	75.7685	1,624.51	71.1883	1,624.51	74.5072	1,624.51	69.4459	1,624.51	69.9419	1,624.51	66.6748	1,624.51	68.5577	1,624.51	68.7537	1,624.51	69.8988	1,624.51	67.0769	1,624.51	71.1652	1,624.51	61.8035	1,624.51	71.382	1,624.51	54.5536	1,624.51	64.9613	1,624.51	69.0573	1,624.51	63.2909	1,624.51	69.7286
1,681.64	84.7498	1,681.64	84.8777	1,681.64	84.854	1,681.64	84.2549	1,681.64	84.573	1,681.64	83.0892	1,681.64	84.616	1,681.64	81.8201	1,681.64	82.5242	1,681.64	81.5421	1,681.64	81.7378	1,681.64	78.1021	1,681.64	81.7635	1,681.64	77.7384	1,681.64	79.898	1,681.64	78.5399	1,681.64	78.9061	1,681.64	73.8987	1,681.64	76.0344	1,681.64	72.103	1,681.64	73.8775	1,681.64	71.2473	1,681.64	71.8998	1,681.64	71.5473	1,681.64	71.6564	1,681.64	71.5402	1,681.64	71.2801	1,681.64	74.3154	1,681.64	72.1441	1,681.64	72.8026	1,681.64	73.309	1,681.64	62.7328	1,681.64	66.9914	1,681.64	66.902	1,681.64	68.8887	1,681.64	68.6515
1,741.7	86.466	1,741.7	86.2595	1,741.7	86.5849	1,741.7	85.3287	1,741.7	85.8988	1,741.7	84.3973	1,741.7	84.8318	1,741.7	83.8334	1,741.7	83.5809	1,741.7	81.9029	1,741.7	82.591	1,741.7	80.4299	1,741.7	80.0001	1,741.7	78.9355	1,741.7	79.9458	1,741.7	77.0341	1,741.7	77.6838	1,741.7	77.6233	1,741.7	76.1287	1,741.7	73.2713	1,741.7	75.1613	1,741.7	67.1247	1,741.7	72.4679	1,741.7	67.5047	1,741.7	69.2143	1,741.7	71.6499	1,741.7	72.085	1,741.7	71.7297	1,741.7	71.5752	1,741.7	64.9733	1,741.7	68.4966	1,741.7	58.0743	1,741.7	63.58	1,741.7	71.5715	1,741.7	66.8147	1,741.7	72.7066
1,803.22	86.4526	1,803.22	86.7287	1,803.22	85.9476	1,803.22	85.1427	1,803.22	86.1215	1,803.22	85.1122	1,803.22	84.7434	1,803.22	83.3201	1,803.22	84.2336	1,803.22	82.0273	1,803.22	82.1889	1,803.22	80.4389	1,803.22	80.6897	1,803.22	78.2843	1,803.22	77.7327	1,803.22	76.6674	1,803.22	75.4489	1,803.22	75.892	1,803.22	75.3484	1,803.22	71.6304	1,803.22	73.546	1,803.22	70.0955	1,803.22	72.5236	1,803.22	71.8335	1,803.22	70.4057	1,803.22	75.5557	1,803.22	68.7346	1,803.22	73.4029	1,803.22	74.9987	1,803.22	75.1397	1,803.22	75.2232	1,803.22	66.7556	1,803.22	69.9286	1,803.22	65.6026	1,803.22	63.578	1,803.22	69.2359
1,866.21	86.2574	1,866.21	84.5083	1,866.21	87.0733	1,866.21	85.3873	1,866.21	85.8431	1,866.21	84.8216	1,866.21	84.5666	1,866.21	82.7825	1,866.21	83.6114	1,866.21	81.8538	1,866.21	81.9722	1,866.21	80.4457	1,866.21	78.3238	1,866.21	77.3065	1,866.21	76.8704	1,866.21	76.6563	1,866.21	77.8493	1,866.21	76.8988	1,866.21	77.2804	1,866.21	76.488	1,866.21	72.2624	1,866.21	73.7185	1,866.21	71.1939	1,866.21	70.0796	1,866.21	70.1606	1,866.21	72.6273	1,866.21	71.3351	1,866.21	72.9153	1,866.21	70.8627	1,866.21	72.5405	1,866.21	75.2841	1,866.21	61.7265	1,866.21	70.2274	1,866.21	60.2376	1,866.21	67.0166	1,866.21	67.9435
1,932.13	85.8228	1,932.13	84.5822	1,932.13	85.535	1,932.13	85.3227	1,932.13	83.7771	1,932.13	83.2145	1,932.13	84.2924	1,932.13	83.4617	1,932.13	83.5287	1,932.13	80.2495	1,932.13	81.853	1,932.13	79.8628	1,932.13	81.2764	1,932.13	77.4698	1,932.13	76.7646	1,932.13	77.4413	1,932.13	76.429	1,932.13	74.0143	1,932.13	76.8929	1,932.13	68.2435	1,932.13	75.6787	1,932.13	70.8166	1,932.13	61.7121	1,932.13	67.7991	1,932.13	72.8179	1,932.13	69.1944	1,932.13	69.8076	1,932.13	74.6236	1,932.13	71.9069	1,932.13	72.9196	1,932.13	77.1647	1,932.13	74.9396	1,932.13	71.6844	1,932.13	70.1928	1,932.13	70.0352	1,932.13	69.3527
1,999.51	86.3088	1,999.51	86.4413	1,999.51	85.5424	1,999.51	85.223	1,999.51	85.4073	1,999.51	84.4364	1,999.51	84.262	1,999.51	83.8624	1,999.51	84.368	1,999.51	83.4564	1,999.51	83.1887	1,999.51	80.8437	1,999.51	79.4887	1,999.51	77.7582	1,999.51	79.6777	1,999.51	78.4152	1,999.51	76.8499	1,999.51	73.1325	1,999.51	75.0246	1,999.51	73.2253	1,999.51	66.3998	1,999.51	71.27	1,999.51	67.489	1,999.51	72.7608	1,999.51	70.2286	1,999.51	67.3735	1,999.51	61.7771	1,999.51	67.4599	1,999.51	68.8274	1,999.51	74.6724	1,999.51	70.4657	1,999.51	69.1936	1,999.51	73.8061	1,999.51	64.7155	1,999.51	73.5091	1,999.51	71.4684
2,069.82	86.1016	2,069.82	86.5028	2,069.82	86.006	2,069.82	85.513	2,069.82	85.3292	2,069.82	84.097	2,069.82	86.2543	2,069.82	83.1829	2,069.82	84.0132	2,069.82	82.5026	2,069.82	82.8673	2,069.82	81.3281	2,069.82	82.2748	2,069.82	79.3186	2,069.82	81.8906	2,069.82	74.8971	2,069.82	78.047	2,069.82	71.9395	2,069.82	75.9889	2,069.82	70.5188	2,069.82	72.9963	2,069.82	73.2703	2,069.82	73.3614	2,069.82	68.4893	2,069.82	72.169	2,069.82	59.0824	2,069.82	64.4628	2,069.82	59.1974	2,069.82	67.4974	2,069.82	66.9609	2,069.82	62.0585	2,069.82	69.5774	2,069.82	63.4097	2,069.82	71.1848	2,069.82	48.043	2,069.82	72.1374
2,143.07	85.4698	2,143.07	86.0264	2,143.07	85.4192	2,143.07	84.8871	2,143.07	85.5336	2,143.07	84.391	2,143.07	85.0946	2,143.07	83.874	2,143.07	84.0705	2,143.07	81.5336	2,143.07	82.346	2,143.07	80.2158	2,143.07	81.6106	2,143.07	80.1056	2,143.07	79.6264	2,143.07	76.2347	2,143.07	77.2321	2,143.07	71.0495	2,143.07	76.6554	2,143.07	70.6373	2,143.07	72.9958	2,143.07	72.8653	2,143.07	72.9984	2,143.07	69.8344	2,143.07	72.298	2,143.07	66.0502	2,143.07	65.7408	2,143.07	70.7877	2,143.07	63.108	2,143.07	70.2943	2,143.07	67.4468	2,143.07	64.9066	2,143.07	70.5705	2,143.07	70.9985	2,143.07	63.4733	2,143.07	69.9804
2,219.24	85.0652	2,219.24	84.6386	2,219.24	84.4046	2,219.24	84.7501	2,219.24	83.1768	2,219.24	83.0363	2,219.24	83.7984	2,219.24	81.7537	2,219.24	81.7694	2,219.24	80.7593	2,219.24	79.3818	2,219.24	79.6565	2,219.24	77.5224	2,219.24	76.0453	2,219.24	77.1679	2,219.24	77.1781	2,219.24	76.3058	2,219.24	74.0139	2,219.24	74.7951	2,219.24	71.8706	2,219.24	70.5202	2,219.24	71.156	2,219.24	73.2722	2,219.24	61.472	2,219.24	72.1942	2,219.24	64.8603	2,219.24	73.684	2,219.24	70.4531	2,219.24	66.5	2,219.24	69.1044	2,219.24	70.2172	2,219.24	60.4581	2,219.24	68.6996	2,219.24	65.184	2,219.24	68.3223	2,219.24	69.3974
2,296.88	84.8594	2,296.88	84.4512	2,296.88	84.481	2,296.88	84.5194	2,296.88	84.1829	2,296.88	82.5164	2,296.88	83.3017	2,296.88	82.4844	2,296.88	82.6837	2,296.88	80.8549	2,296.88	80.4327	2,296.88	79.1816	2,296.88	78.7277	2,296.88	78.4094	2,296.88	79.7998	2,296.88	75.7223	2,296.88	74.6747	2,296.88	75.7988	2,296.88	72.8581	2,296.88	73.3283	2,296.88	74.3354	2,296.88	65.8112	2,296.88	72.4763	2,296.88	70.0908	2,296.88	70.3888	2,296.88	69.8841	2,296.88	69.044	2,296.88	63.1173	2,296.88	66.9598	2,296.88	63.2923	2,296.88	68.1284	2,296.88	65.9793	2,296.88	67.2873	2,296.88	69.8197	2,296.88	67.3717	2,296.88	69.2294
2,378.91	85.9371	2,378.91	85.6525	2,378.91	85.3046	2,378.91	84.4565	2,378.91	84.8377	2,378.91	83.1753	2,378.91	85.2839	2,378.91	81.7206	2,378.91	84.0007	2,378.91	80.3461	2,378.91	81.9076	2,378.91	78.3543	2,378.91	79.8925	2,378.91	78.3463	2,378.91	79.5127	2,378.91	77.1713	2,378.91	77.5078	2,378.91	74.0819	2,378.91	76.5726	2,378.91	71.3007	2,378.91	68.0582	2,378.91	71.4264	2,378.91	70.6076	2,378.91	66.8761	2,378.91	69.2714	2,378.91	70.4009	2,378.91	72.4825	2,378.91	68.7321	2,378.91	69.4888	2,378.91	72.5875	2,378.91	67.8537	2,378.91	70.9686	2,378.91	53.8947	2,378.91	44.1945	2,378.91	67.1029	2,378.91	68.611
2,462.4	86.8153	2,462.4	86.7255	2,462.4	86.7423	2,462.4	85.9807	2,462.4	86.1656	2,462.4	84.8992	2,462.4	85.4785	2,462.4	83.6862	2,462.4	84.8958	2,462.4	82.4033	2,462.4	83.3128	2,462.4	80.1876	2,462.4	81.0515	2,462.4	78.1411	2,462.4	78.5141	2,462.4	76.3385	2,462.4	77.9839	2,462.4	73.8002	2,462.4	75.6717	2,462.4	71.4712	2,462.4	73.3469	2,462.4	68.954	2,462.4	72.0766	2,462.4	68.4659	2,462.4	63.1604	2,462.4	70.9967	2,462.4	72.6377	2,462.4	66.0001	2,462.4	72.2358	2,462.4	62.9618	2,462.4	66.3198	2,462.4	66.4903	2,462.4	64.9759	2,462.4	70.1632	2,462.4	67.3926	2,462.4	71.0634
2,548.83	86.3479	2,548.83	86.4526	2,548.83	86.1376	2,548.83	85.9523	2,548.83	86.0297	2,548.83	85.6999	2,548.83	84.8647	2,548.83	84.218	2,548.83	84.2029	2,548.83	82.254	2,548.83	82.8743	2,548.83	80.7931	2,548.83	81.0181	2,548.83	78.2925	2,548.83	78.226	2,548.83	75.9828	2,548.83	76.8317	2,548.83	75.4074	2,548.83	74.7139	2,548.83	71.5639	2,548.83	73.5718	2,548.83	70.5989	2,548.83	72.4008	2,548.83	67.2533	2,548.83	68.5026	2,548.83	71.0623	2,548.83	67.8397	2,548.83	70.959	2,548.83	72.8696	2,548.83	67.0067	2,548.83	67.5498	2,548.83	65.0116	2,548.83	62.6473	2,548.83	71.4654	2,548.83	67.2569	2,548.83	72.2212
2,639.65	84.6778	2,639.65	84.3414	2,639.65	84.6488	2,639.65	84.6191	2,639.65	84.221	2,639.65	84.3246	2,639.65	84.0345	2,639.65	83.9378	2,639.65	82.9744	2,639.65	81.9112	2,639.65	82.063	2,639.65	79.7505	2,639.65	80.4439	2,639.65	77.1855	2,639.65	78.2952	2,639.65	74.9773	2,639.65	76.2006	2,639.65	74.2389	2,639.65	74.639	2,639.65	71.2335	2,639.65	73.4869	2,639.65	70.7565	2,639.65	69.2099	2,639.65	67.9474	2,639.65	68.5108	2,639.65	67.501	2,639.65	66.1083	2,639.65	69.804	2,639.65	68.4206	2,639.65	66.0625	2,639.65	68.0173	2,639.65	59.0784	2,639.65	67.2445	2,639.65	65.2033	2,639.65	63.6638	2,639.65	68.6263
2,731.93	83.2739	2,731.93	83.2601	2,731.93	84.0773	2,731.93	83.5688	2,731.93	83.6257	2,731.93	82.6796	2,731.93	83.5243	2,731.93	82.4122	2,731.93	82.5206	2,731.93	81.5146	2,731.93	81.3726	2,731.93	78.5917	2,731.93	80.3491	2,731.93	76.9764	2,731.93	78.3519	2,731.93	75.3774	2,731.93	77.0552	2,731.93	70.4382	2,731.93	73.8285	2,731.93	71.2642	2,731.93	71.7457	2,731.93	67.789	2,731.93	71.2287	2,731.93	66.7166	2,731.93	67.7806	2,731.93	65.3938	2,731.93	67.6359	2,731.93	68.3801	2,731.93	67.7711	2,731.93	69.3953	2,731.93	67.454	2,731.93	61.7995	2,731.93	67.1153	2,731.93	67.8421	2,731.93	65.0252	2,731.93	71.4716
2,828.61	85.3085	2,828.61	85.2909	2,828.61	84.8589	2,828.61	84.6759	2,828.61	85.0065	2,828.61	84.1514	2,828.61	84.5135	2,828.61	82.3967	2,828.61	83.4412	2,828.61	81.1914	2,828.61	81.559	2,828.61	79.7959	2,828.61	80.7957	2,828.61	78.2643	2,828.61	79.3714	2,828.61	75.8709	2,828.61	76.669	2,828.61	72.1035	2,828.61	73.9479	2,828.61	70.3393	2,828.61	71.6112	2,828.61	68.9632	2,828.61	72.6576	2,828.61	64.7144	2,828.61	68.8599	2,828.61	64.5469	2,828.61	65.226	2,828.61	64.3264	2,828.61	69.2211	2,828.61	67.5971	2,828.61	67.9421	2,828.61	64.8998	2,828.61	68.5159	2,828.61	67.3201	2,828.61	68.3817	2,828.61	71.0071
2,928.22	86.7502	2,928.22	86.6758	2,928.22	86.2364	2,928.22	85.8339	2,928.22	85.9847	2,928.22	85.0446	2,928.22	85.3036	2,928.22	83.2967	2,928.22	84.4223	2,928.22	81.1411	2,928.22	82.5902	2,928.22	80.3938	2,928.22	80.6036	2,928.22	78.8635	2,928.22	79.3684	2,928.22	75.8395	2,928.22	77.8476	2,928.22	74.2095	2,928.22	75.6658	2,928.22	71.64	2,928.22	72.0047	2,928.22	70.1585	2,928.22	71.1743	2,928.22	68.5444	2,928.22	70.0177	2,928.22	65.9791	2,928.22	63.5484	2,928.22	66.8662	2,928.22	66.7276	2,928.22	68.2671	2,928.22	66.5075	2,928.22	67.8477	2,928.22	66.181	2,928.22	69.9172	2,928.22	67.2903	2,928.22	72.3089
3,030.76	87.3001	3,030.76	86.9283	3,030.76	86.6919	3,030.76	86.2816	3,030.76	85.956	3,030.76	85.4193	3,030.76	85.1776	3,030.76	84.0897	3,030.76	84.2106	3,030.76	81.4103	3,030.76	83.0781	3,030.76	80.1349	3,030.76	80.7101	3,030.76	77.389	3,030.76	79.1238	3,030.76	75.8615	3,030.76	77.4595	3,030.76	73.7668	3,030.76	74.3495	3,030.76	71.3938	3,030.76	72.1125	3,030.76	67.77	3,030.76	68.7541	3,030.76	67.1547	3,030.76	69.1051	3,030.76	64.3119	3,030.76	65.2931	3,030.76	64.2673	3,030.76	66.7458	3,030.76	67.7384	3,030.76	66.5775	3,030.76	68.6399	3,030.76	65.8409	3,030.76	65.7787	3,030.76	62.4361	3,030.76	69.2907
3,137.7	86.8307	3,137.7	86.5051	3,137.7	86.9531	3,137.7	86.1705	3,137.7	86.0163	3,137.7	85.1323	3,137.7	85.5612	3,137.7	83.839	3,137.7	84.5868	3,137.7	83.0649	3,137.7	83.3948	3,137.7	80.6388	3,137.7	81.1654	3,137.7	77.7714	3,137.7	79.0613	3,137.7	76.4178	3,137.7	76.6771	3,137.7	74.3248	3,137.7	73.826	3,137.7	71.4732	3,137.7	72.9474	3,137.7	68.6077	3,137.7	70.4293	3,137.7	68.1089	3,137.7	69.8707	3,137.7	63.2432	3,137.7	61.7258	3,137.7	68.1189	3,137.7	67.634	3,137.7	66.2765	3,137.7	67.8485	3,137.7	67.4816	3,137.7	68.8303	3,137.7	65.3623	3,137.7	63.063	3,137.7	68.2346
3,249.02	86.146	3,249.02	86.0273	3,249.02	86.2972	3,249.02	85.9902	3,249.02	86.2545	3,249.02	84.965	3,249.02	85.5908	3,249.02	83.5366	3,249.02	84.2802	3,249.02	82.1763	3,249.02	83.0998	3,249.02	80.413	3,249.02	81.5639	3,249.02	78.326	3,249.02	79.7864	3,249.02	76.7446	3,249.02	76.9539	3,249.02	73.7627	3,249.02	74.8439	3,249.02	71.0452	3,249.02	72.7111	3,249.02	70.3253	3,249.02	68.7223	3,249.02	67.9441	3,249.02	68.5488	3,249.02	61.3394	3,249.02	63.9136	3,249.02	67.1299	3,249.02	65.8622	3,249.02	62.8562	3,249.02	67.426	3,249.02	67.5062	3,249.02	69.5533	3,249.02	65.9112	3,249.02	65.5886	3,249.02	69.905
3,363.28	86.6207	3,363.28	86.4213	3,363.28	86.7926	3,363.28	85.6111	3,363.28	86.1022	3,363.28	84.69	3,363.28	85.265	3,363.28	83.1907	3,363.28	84.5668	3,363.28	82.0371	3,363.28	83.1084	3,363.28	79.4639	3,363.28	81.2627	3,363.28	77.894	3,363.28	79.336	3,363.28	75.5359	3,363.28	76.7708	3,363.28	73.8711	3,363.28	75.2008	3,363.28	70.5079	3,363.28	73.0308	3,363.28	69.1594	3,363.28	68.0972	3,363.28	66.8207	3,363.28	67.8197	3,363.28	62.8824	3,363.28	66.7986	3,363.28	65.5042	3,363.28	62.2834	3,363.28	61.3689	3,363.28	67.413	3,363.28	67.6359	3,363.28	66.7264	3,363.28	66.5667	3,363.28	67.9511	3,363.28	69.5956
3,481.93	87.1698	3,481.93	87.1147	3,481.93	86.6814	3,481.93	86.2323	3,481.93	86.3873	3,481.93	85.0509	3,481.93	85.099	3,481.93	84.0422	3,481.93	83.7943	3,481.93	81.3722	3,481.93	82.064	3,481.93	79.6717	3,481.93	81.4895	3,481.93	77.7455	3,481.93	79.2805	3,481.93	75.5658	3,481.93	76.8312	3,481.93	72.7895	3,481.93	74.5691	3,481.93	71.2905	3,481.93	72.9995	3,481.93	68.8689	3,481.93	70.6173	3,481.93	66.9832	3,481.93	67.5541	3,481.93	66.3843	3,481.93	67.8374	3,481.93	61.4117	3,481.93	58.889	3,481.93	63.9636	3,481.93	65.9029	3,481.93	67.2824	3,481.93	65.1071	3,481.93	63.0218	3,481.93	63.9678	3,481.93	67.824
3,604.98	87.7154	3,604.98	87.3508	3,604.98	87.1888	3,604.98	86.4975	3,604.98	86.8885	3,604.98	84.9605	3,604.98	85.8327	3,604.98	83.8001	3,604.98	84.7484	3,604.98	81.1853	3,604.98	83.7959	3,604.98	79.4049	3,604.98	82.503	3,604.98	77.7179	3,604.98	80.5514	3,604.98	76.1502	3,604.98	78.7462	3,604.98	73.3459	3,604.98	76.3218	3,604.98	71.505	3,604.98	74.445	3,604.98	69.339	3,604.98	71.929	3,604.98	67.9108	3,604.98	69.0897	3,604.98	65.8236	3,604.98	67.0978	3,604.98	66.0454	3,604.98	61.3215	3,604.98	63.6268	3,604.98	64.8535	3,604.98	65.8175	3,604.98	68.5826	3,604.98	62.6325	3,604.98	67.2888	3,604.98	67.6711
3,732.42	87.8371	3,732.42	87.254	3,732.42	87.8307	3,732.42	86.7264	3,732.42	86.779	3,732.42	85.6004	3,732.42	86.0033	3,732.42	83.748	3,732.42	85.0994	3,732.42	82.5076	3,732.42	84.5228	3,732.42	80.9736	3,732.42	83.0514	3,732.42	79.0193	3,732.42	80.5855	3,732.42	77.0655	3,732.42	78.8453	3,732.42	74.0066	3,732.42	76.518	3,732.42	73.2867	3,732.42	73.7377	3,732.42	69.468	3,732.42	71.7174	3,732.42	67.7071	3,732.42	69.928	3,732.42	66.1841	3,732.42	68.3179	3,732.42	65.1882	3,732.42	59.0082	3,732.42	68.8127	3,732.42	65.5972	3,732.42	65.6732	3,732.42	65.7841	3,732.42	65.5217	3,732.42	65.5536	3,732.42	69.421
3,864.26	86.8133	3,864.26	86.0328	3,864.26	86.7281	3,864.26	85.3664	3,864.26	85.9833	3,864.26	84.2684	3,864.26	85.5089	3,864.26	83.2139	3,864.26	84.8505	3,864.26	82.977	3,864.26	84.0431	3,864.26	81.0336	3,864.26	81.9419	3,864.26	78.7675	3,864.26	80.3126	3,864.26	76.3224	3,864.26	78.364	3,864.26	74.7808	3,864.26	76.0129	3,864.26	72.7234	3,864.26	73.2706	3,864.26	70.9007	3,864.26	71.7519	3,864.26	68.2113	3,864.26	68.5659	3,864.26	67.0416	3,864.26	66.4435	3,864.26	66.6018	3,864.26	65.1519	3,864.26	71.276	3,864.26	67.8557	3,864.26	67.3778	3,864.26	62.753	3,864.26	65.8024	3,864.26	64.3085	3,864.26	70.0523
4,000.49	86.5612	4,000.49	86.2035	4,000.49	86.3591	4,000.49	85.3438	4,000.49	86.36	4,000.49	84.6679	4,000.49	85.9906	4,000.49	84.5946	4,000.49	85.862	4,000.49	83.2758	4,000.49	84.7724	4,000.49	80.7646	4,000.49	82.8231	4,000.49	77.9423	4,000.49	80.7317	4,000.49	74.6727	4,000.49	78.3026	4,000.49	72.8014	4,000.49	75.8673	4,000.49	71.5156	4,000.49	73.1808	4,000.49	69.0149	4,000.49	71.3028	4,000.49	66.0896	4,000.49	68.7154	4,000.49	64.2354	4,000.49	68.337	4,000.49	66.6531	4,000.49	65.6879	4,000.49	68.0518	4,000.49	68.551	4,000.49	67.3498	4,000.49	66.9011	4,000.49	63.8199	4,000.49	67.7225	4,000.49	68.686
4,141.11	87.3734	4,141.11	87.285	4,141.11	87.1687	4,141.11	86.2074	4,141.11	86.6912	4,141.11	86.1167	4,141.11	86.5576	4,141.11	85.2179	4,141.11	85.9177	4,141.11	83.5606	4,141.11	84.6424	4,141.11	81.932	4,141.11	83.387	4,141.11	79.529	4,141.11	81.393	4,141.11	76.9753	4,141.11	77.9118	4,141.11	73.9279	4,141.11	75.797	4,141.11	73.0562	4,141.11	73.462	4,141.11	69.0494	4,141.11	71.0262	4,141.11	68.1539	4,141.11	67.2167	4,141.11	65.0013	4,141.11	64.5187	4,141.11	64.5593	4,141.11	61.8229	4,141.11	67.5378	4,141.11	68.1097	4,141.11	67.9737	4,141.11	67.9858	4,141.11	62.0061	4,141.11	66.3109	4,141.11	67.281
4,287.6	87.7375	4,287.6	86.8485	4,287.6	88.0044	4,287.6	86.7531	4,287.6	86.9649	4,287.6	86.0751	4,287.6	86.7622	4,287.6	84.7116	4,287.6	86.0699	4,287.6	83.0843	4,287.6	84.9939	4,287.6	81.4731	4,287.6	83.4536	4,287.6	79.2352	4,287.6	81.3987	4,287.6	77.1682	4,287.6	78.6799	4,287.6	74.0079	4,287.6	76.6199	4,287.6	72.1334	4,287.6	73.8595	4,287.6	71.5738	4,287.6	72.0343	4,287.6	70.5519	4,287.6	69.5606	4,287.6	68.277	4,287.6	66.7317	4,287.6	63.1626	4,287.6	62.3376	4,287.6	69.6186	4,287.6	69.39	4,287.6	68.0752	4,287.6	65.6952	4,287.6	66.5409	4,287.6	70.0884	4,287.6	67.5524
4,438.48	87.6824	4,438.48	87.4499	4,438.48	87.5576	4,438.48	86.7867	4,438.48	87.313	4,438.48	86.3246	4,438.48	86.1852	4,438.48	85.5482	4,438.48	86.3756	4,438.48	83.9383	4,438.48	85.4086	4,438.48	82.3622	4,438.48	82.9988	4,438.48	80.1279	4,438.48	80.8553	4,438.48	76.5101	4,438.48	79.1441	4,438.48	74.8601	4,438.48	76.2418	4,438.48	72.4024	4,438.48	74.0106	4,438.48	71.0553	4,438.48	71.7309	4,438.48	68.9678	4,438.48	69.9775	4,438.48	69.7966	4,438.48	65.5566	4,438.48	65.141	4,438.48	63.8992	4,438.48	68.592	4,438.48	69.4278	4,438.48	65.4115	4,438.48	64.9438	4,438.48	66.1198	4,438.48	69.5033	4,438.48	68.9428
4,595.21	86.9144	4,595.21	86.5848	4,595.21	87.0812	4,595.21	86.1595	4,595.21	86.9028	4,595.21	85.7594	4,595.21	86.9639	4,595.21	85.352	4,595.21	85.5741	4,595.21	84.2677	4,595.21	84.2183	4,595.21	81.5721	4,595.21	82.9864	4,595.21	79.4255	4,595.21	81.2801	4,595.21	77.9052	4,595.21	78.5591	4,595.21	75.696	4,595.21	76.7661	4,595.21	74.4089	4,595.21	73.5528	4,595.21	71.104	4,595.21	72.1908	4,595.21	68.2649	4,595.21	67.5906	4,595.21	65.3391	4,595.21	67.2503	4,595.21	66.2417	4,595.21	63.7809	4,595.21	67.9424	4,595.21	67.2365	4,595.21	66.9957	4,595.21	67.9556	4,595.21	64.0574	4,595.21	65.7155	4,595.21	67.2618
4,756.35	88.0759	4,756.35	87.6766	4,756.35	87.8952	4,756.35	87.7959	4,756.35	87.6436	4,756.35	86.6666	4,756.35	87.3773	4,756.35	85.6795	4,756.35	86.1524	4,756.35	83.7574	4,756.35	84.7283	4,756.35	81.5809	4,756.35	83.1464	4,756.35	79.263	4,756.35	81.6162	4,756.35	77.2881	4,756.35	79.742	4,756.35	73.3054	4,756.35	76.2861	4,756.35	70.3113	4,756.35	74.2191	4,756.35	69.7781	4,756.35	72.2159	4,756.35	67.8171	4,756.35	70.2063	4,756.35	63.4314	4,756.35	68.312	4,756.35	63.1513	4,756.35	62.502	4,756.35	68.7321	4,756.35	67.1375	4,756.35	66.638	4,756.35	68.6989	4,756.35	62.4089	4,756.35	68.85	4,756.35	65.6805
4,924.8	87.5236	4,924.8	87.5053	4,924.8	87.1967	4,924.8	86.6201	4,924.8	87.2859	4,924.8	86.4939	4,924.8	86.7314	4,924.8	85.3228	4,924.8	86.098	4,924.8	84.1051	4,924.8	85.1737	4,924.8	82.6026	4,924.8	83.4345	4,924.8	81.1327	4,924.8	81.4045	4,924.8	78.0399	4,924.8	79.2518	4,924.8	76.3172	4,924.8	76.2482	4,924.8	71.1027	4,924.8	74.5533	4,924.8	71.4339	4,924.8	72.9276	4,924.8	67.4877	4,924.8	68.1362	4,924.8	68.2174	4,924.8	66.582	4,924.8	65.955	4,924.8	61.1931	4,924.8	64.9703	4,924.8	66.2656	4,924.8	66.8021	4,924.8	67.0307	4,924.8	62.2759	4,924.8	68.5457	4,924.8	66.5095
5,097.66	87.3345	5,097.66	87.0245	5,097.66	87.5346	5,097.66	86.2886	5,097.66	87.3126	5,097.66	85.1867	5,097.66	87.0144	5,097.66	84.3028	5,097.66	85.9169	5,097.66	82.5612	5,097.66	84.4164	5,097.66	80.9901	5,097.66	82.8928	5,097.66	78.2743	5,097.66	81.1319	5,097.66	76.3564	5,097.66	78.1227	5,097.66	74.1715	5,097.66	76.1874	5,097.66	73.1885	5,097.66	73.6695	5,097.66	70.5501	5,097.66	71.4851	5,097.66	66.2472	5,097.66	69.5689	5,097.66	67.0281	5,097.66	68.0923	5,097.66	69.0956	5,097.66	64.214	5,097.66	67.4312	5,097.66	66.6276	5,097.66	68.2792	5,097.66	68.1875	5,097.66	63.4781	5,097.66	68.8021	5,097.66	60.569
5,277.83	87.3534	5,277.83	87.0933	5,277.83	87.2754	5,277.83	86.9822	5,277.83	87.039	5,277.83	86.5588	5,277.83	86.4592	5,277.83	85.5582	5,277.83	85.6677	5,277.83	84.2282	5,277.83	84.7178	5,277.83	82.1385	5,277.83	82.7044	5,277.83	79.9437	5,277.83	80.8963	5,277.83	77.6047	5,277.83	79.4777	5,277.83	73.6981	5,277.83	75.6064	5,277.83	71.1292	5,277.83	73.9135	5,277.83	68.3837	5,277.83	70.8234	5,277.83	66.8118	5,277.83	69.5322	5,277.83	62.8179	5,277.83	67.7332	5,277.83	64.289	5,277.83	63.4902	5,277.83	66.2596	5,277.83	66.917	5,277.83	66.7061	5,277.83	65.7524	5,277.83	64.2772	5,277.83	69.3096	5,277.83	60.3937
5,463.87	86.7592	5,463.87	86.7751	5,463.87	86.9003	5,463.87	86.2211	5,463.87	87.04	5,463.87	85.5349	5,463.87	86.4423	5,463.87	84.1919	5,463.87	85.9245	5,463.87	83.0761	5,463.87	85.0704	5,463.87	81.7058	5,463.87	83.3832	5,463.87	80.4539	5,463.87	81.8315	5,463.87	77.4353	5,463.87	78.3741	5,463.87	75.2187	5,463.87	76.4016	5,463.87	72.0364	5,463.87	72.9104	5,463.87	69.8379	5,463.87	71.5574	5,463.87	67.924	5,463.87	68.9424	5,463.87	66.8627	5,463.87	63.4036	5,463.87	63.453	5,463.87	62.4707	5,463.87	65.8311	5,463.87	65.1178	5,463.87	66.3859	5,463.87	64.143	5,463.87	64.4671	5,463.87	68.2858	5,463.87	60.0728
5,657.23	87.0388	5,657.23	87.2814	5,657.23	87.3725	5,657.23	87.0913	5,657.23	87.1525	5,657.23	86.144	5,657.23	86.9255	5,657.23	85.7353	5,657.23	85.7074	5,657.23	84.1972	5,657.23	84.5764	5,657.23	82.0544	5,657.23	83.1296	5,657.23	78.5347	5,657.23	80.6008	5,657.23	76.2182	5,657.23	78.5515	5,657.23	72.7297	5,657.23	76.4015	5,657.23	72.4615	5,657.23	73.6265	5,657.23	68.3496	5,657.23	71.2497	5,657.23	67.8542	5,657.23	69.328	5,657.23	62.029	5,657.23	67.9665	5,657.23	62.738	5,657.23	65.0221	5,657.23	66.4596	5,657.23	64.2454	5,657.23	63.3417	5,657.23	63.7204	5,657.23	63.2752	5,657.23	68.8729	5,657.23	59.4745
5,856.45	86.6593	5,856.45	86.7554	5,856.45	86.7348	5,856.45	86.2525	5,856.45	87.4387	5,856.45	85.3645	5,856.45	86.3915	5,856.45	84.7533	5,856.45	86.1108	5,856.45	83.7604	5,856.45	85.2749	5,856.45	81.7916	5,856.45	83.1099	5,856.45	79.7237	5,856.45	81.1848	5,856.45	77.207	5,856.45	79.3788	5,856.45	74.9599	5,856.45	76.155	5,856.45	72.6902	5,856.45	73.8762	5,856.45	71.2635	5,856.45	71.0172	5,856.45	68.5522	5,856.45	69.2581	5,856.45	66.3025	5,856.45	65.357	5,856.45	64.1121	5,856.45	64.256	5,856.45	65.3918	5,856.45	63.2499	5,856.45	65.0487	5,856.45	63.4078	5,856.45	63.0994	5,856.45	67.7487	5,856.45	60.7125
6,062.99	86.702	6,062.99	87.0564	6,062.99	87.1798	6,062.99	87.0335	6,062.99	87.3154	6,062.99	86.5577	6,062.99	87.0585	6,062.99	86.0924	6,062.99	86.1409	6,062.99	84.7043	6,062.99	84.9185	6,062.99	82.9664	6,062.99	83.5474	6,062.99	80.4448	6,062.99	81.3594	6,062.99	77.2442	6,062.99	79.4679	6,062.99	74.4123	6,062.99	76.273	6,062.99	71.4364	6,062.99	74.7478	6,062.99	69.7758	6,062.99	71.5093	6,062.99	68.3955	6,062.99	69.2603	6,062.99	66.4783	6,062.99	67.387	6,062.99	62.0001	6,062.99	64.903	6,062.99	62.1446	6,062.99	64.2109	6,062.99	62.3122	6,062.99	64.5534	6,062.99	63.953	6,062.99	66.6874	6,062.99	60.2982
6,276.86	86.3356	6,276.86	86.6951	6,276.86	86.8398	6,276.86	86.4384	6,276.86	87.2321	6,276.86	85.8246	6,276.86	86.7925	6,276.86	85.0251	6,276.86	86.4563	6,276.86	83.6067	6,276.86	85.3259	6,276.86	81.6561	6,276.86	82.8262	6,276.86	78.2764	6,276.86	80.5219	6,276.86	77.571	6,276.86	78.9513	6,276.86	74.6952	6,276.86	75.8141	6,276.86	73.8553	6,276.86	73.3165	6,276.86	71.0757	6,276.86	71.2538	6,276.86	67.1258	6,276.86	68.8437	6,276.86	64.1107	6,276.86	66.1316	6,276.86	61.5563	6,276.86	65.6588	6,276.86	63.3392	6,276.86	63.9767	6,276.86	64.5151	6,276.86	64.8181	6,276.86	60.4316	6,276.86	64.9786	6,276.86	61.124
6,498.05	86.6762	6,498.05	86.9264	6,498.05	86.9963	6,498.05	86.912	6,498.05	87.3211	6,498.05	86.7261	6,498.05	87.214	6,498.05	85.8082	6,498.05	86.4771	6,498.05	84.724	6,498.05	85.7187	6,498.05	82.8278	6,498.05	83.9789	6,498.05	80.5269	6,498.05	81.9273	6,498.05	78.0665	6,498.05	79.1485	6,498.05	75.1605	6,498.05	76.1308	6,498.05	71.9763	6,498.05	74.1172	6,498.05	69.9136	6,498.05	71.4465	6,498.05	67.4885	6,498.05	69.0868	6,498.05	65.1734	6,498.05	65.0438	6,498.05	61.5143	6,498.05	64.5962	6,498.05	61.579	6,498.05	64.344	6,498.05	64.0201	6,498.05	65.4335	6,498.05	60.4667	6,498.05	65.5501	6,498.05	56.4626
6,726.56	86.5694	6,726.56	86.7142	6,726.56	86.7446	6,726.56	86.7391	6,726.56	87.0678	6,726.56	86.5835	6,726.56	87.1166	6,726.56	85.6484	6,726.56	86.5231	6,726.56	84.5205	6,726.56	85.344	6,726.56	82.9241	6,726.56	83.6194	6,726.56	80.8581	6,726.56	81.7357	6,726.56	78.7194	6,726.56	78.7918	6,726.56	75.7904	6,726.56	76.2595	6,726.56	73.1869	6,726.56	72.7875	6,726.56	69.6606	6,726.56	70.9564	6,726.56	64.9783	6,726.56	69.6073	6,726.56	65.1921	6,726.56	65.7494	6,726.56	61.0233	6,726.56	63.8265	6,726.56	63.3033	6,726.56	60.4465	6,726.56	62.3717	6,726.56	64.4173	6,726.56	64.6054	6,726.56	66.133	6,726.56	46.8635
6,963.87	86.7946	6,963.87	86.6235	6,963.87	86.6518	6,963.87	86.8908	6,963.87	87.4458	6,963.87	86.5813	6,963.87	87.1512	6,963.87	85.5705	6,963.87	86.4635	6,963.87	84.2976	6,963.87	85.6489	6,963.87	82.5704	6,963.87	83.8035	6,963.87	80.0673	6,963.87	81.6592	6,963.87	76.7008	6,963.87	78.114	6,963.87	73.0377	6,963.87	75.653	6,963.87	70.7632	6,963.87	71.6363	6,963.87	67.114	6,963.87	71.1757	6,963.87	64.9642	6,963.87	68.5146	6,963.87	62.6611	6,963.87	63.4244	6,963.87	59.5791	6,963.87	61.9166	6,963.87	63.0509	6,963.87	63.1433	6,963.87	60.9227	6,963.87	66.1089	6,963.87	64.7496	6,963.87	65.6801	6,963.87	49.488
7,209.96	86.9821	7,209.96	86.6576	7,209.96	87.2031	7,209.96	86.9165	7,209.96	87.3596	7,209.96	86.7985	7,209.96	87.803	7,209.96	85.6975	7,209.96	86.9843	7,209.96	84.6942	7,209.96	85.7325	7,209.96	82.0723	7,209.96	84.1704	7,209.96	80.0143	7,209.96	81.8105	7,209.96	77.4655	7,209.96	78.8618	7,209.96	74.22	7,209.96	76.3224	7,209.96	71.6942	7,209.96	73.0983	7,209.96	68.0164	7,209.96	70.6523	7,209.96	67.1977	7,209.96	68.6998	7,209.96	63.8479	7,209.96	65	7,209.96	59.4811	7,209.96	63.8466	7,209.96	59.9927	7,209.96	58.7033	7,209.96	63.2462	7,209.96	65.0291	7,209.96	64.8618	7,209.96	65.0106	7,209.96	50.5071
7,464.84	87.0062	7,464.84	86.5394	7,464.84	86.6366	7,464.84	86.9687	7,464.84	86.9582	7,464.84	86.6466	7,464.84	86.8443	7,464.84	85.8448	7,464.84	86.2861	7,464.84	84.0983	7,464.84	85.2632	7,464.84	82.2995	7,464.84	83.0032	7,464.84	79.7143	7,464.84	80.5301	7,464.84	76.11	7,464.84	77.6689	7,464.84	72.9349	7,464.84	74.9433	7,464.84	70.7219	7,464.84	71.5034	7,464.84	67.0196	7,464.84	69.1893	7,464.84	67.1372	7,464.84	67.6359	7,464.84	61.3726	7,464.84	62.1801	7,464.84	60.281	7,464.84	60.7949	7,464.84	58.9269	7,464.84	58.4794	7,464.84	59.923	7,464.84	64.8277	7,464.84	65.6173	7,464.84	65.0654	7,464.84	49.8237
7,727.05	87.7341	7,727.05	87.3909	7,727.05	87.6896	7,727.05	87.231	7,727.05	87.7982	7,727.05	86.9029	7,727.05	87.862	7,727.05	85.9115	7,727.05	86.9846	7,727.05	84.1849	7,727.05	85.6311	7,727.05	81.5755	7,727.05	83.7804	7,727.05	79.6465	7,727.05	81.444	7,727.05	75.4925	7,727.05	78.3916	7,727.05	72.6462	7,727.05	75.6008	7,727.05	69.8763	7,727.05	72.2914	7,727.05	67.7482	7,727.05	69.8677	7,727.05	66.4218	7,727.05	66.9422	7,727.05	62.8916	7,727.05	65.0873	7,727.05	59.3251	7,727.05	62.5509	7,727.05	58.8481	7,727.05	59.9196	7,727.05	60.8749	7,727.05	65.1828	7,727.05	64.0304	7,727.05	64.0201	7,727.05	50.2677
7,999.51	87.3497	7,999.51	87.1233	7,999.51	87.3177	7,999.51	86.6391	7,999.51	87.4622	7,999.51	86.4286	7,999.51	87.4579	7,999.51	85.6315	7,999.51	86.6456	7,999.51	83.6305	7,999.51	85.2284	7,999.51	81.7435	7,999.51	83.1035	7,999.51	79.3467	7,999.51	80.762	7,999.51	75.3413	7,999.51	77.3011	7,999.51	72.843	7,999.51	74.0798	7,999.51	70.429	7,999.51	71.8129	7,999.51	68.3426	7,999.51	68.8953	7,999.51	65.9341	7,999.51	66.9545	7,999.51	62.7725	7,999.51	63.331	7,999.51	60.839	7,999.51	62.5387	7,999.51	57.6867	7,999.51	60.88	7,999.51	59.8521	7,999.51	63.7883	7,999.51	62.9467	7,999.51	63.3215	7,999.51	47.909
8,282.23	87.6691	8,282.23	87.5011	8,282.23	87.675	8,282.23	87.2109	8,282.23	87.9125	8,282.23	86.8478	8,282.23	87.8284	8,282.23	85.6047	8,282.23	86.9404	8,282.23	83.99	8,282.23	85.4141	8,282.23	81.6375	8,282.23	83.2562	8,282.23	78.8949	8,282.23	80.4778	8,282.23	75.0884	8,282.23	77.4613	8,282.23	71.4633	8,282.23	74.0057	8,282.23	69.0421	8,282.23	70.8436	8,282.23	67.3385	8,282.23	68.7698	8,282.23	65.1159	8,282.23	65.9841	8,282.23	60.7641	8,282.23	63.1075	8,282.23	57.5761	8,282.23	61.8873	8,282.23	56.4589	8,282.23	57.9881	8,282.23	57.3132	8,282.23	62.3305	8,282.23	61.8252	8,282.23	63.0942	8,282.23	51.4855
8,573.73	87.593	8,573.73	87.4569	8,573.73	87.6143	8,573.73	87.0896	8,573.73	87.3607	8,573.73	86.5856	8,573.73	87.387	8,573.73	85.4256	8,573.73	86.3912	8,573.73	83.8812	8,573.73	84.8394	8,573.73	81.2788	8,573.73	82.6093	8,573.73	77.7784	8,573.73	79.7917	8,573.73	75.0239	8,573.73	76.8173	8,573.73	71.6058	8,573.73	73.0634	8,573.73	67.9074	8,573.73	70.1034	8,573.73	67.3075	8,573.73	68.3081	8,573.73	63.8636	8,573.73	65.5751	8,573.73	60.6911	8,573.73	63.3214	8,573.73	59.9963	8,573.73	60.4477	8,573.73	54.3363	8,573.73	57.2588	8,573.73	57.031	8,573.73	59.4845	8,573.73	60.3762	8,573.73	60.3912	8,573.73	51.2405
8,876.95	87.75	8,876.95	87.3819	8,876.95	87.8518	8,876.95	86.9999	8,876.95	87.6552	8,876.95	86.4938	8,876.95	87.5168	8,876.95	85.1608	8,876.95	86.4649	8,876.95	83.1992	8,876.95	84.9391	8,876.95	80.723	8,876.95	82.3867	8,876.95	77.5552	8,876.95	79.4145	8,876.95	74.2669	8,876.95	76.6115	8,876.95	70.7131	8,876.95	72.623	8,876.95	67.0255	8,876.95	69.4129	8,876.95	65.8121	8,876.95	67.7706	8,876.95	63.5634	8,876.95	65.1042	8,876.95	60.1233	8,876.95	64.9769	8,876.95	60.5692	8,876.95	60.8331	8,876.95	57.4799	8,876.95	57.8854	8,876.95	57.1829	8,876.95	57.1389	8,876.95	57.3764	8,876.95	58.6087	8,876.95	53.4237
9,188.96	86.945	9,188.96	86.7121	9,188.96	87.0536	9,188.96	86.5711	9,188.96	86.9443	9,188.96	86.1153	9,188.96	86.8353	9,188.96	85.1409	9,188.96	85.8958	9,188.96	83.0334	9,188.96	84.3531	9,188.96	80.2324	9,188.96	81.2972	9,188.96	76.9502	9,188.96	78.8039	9,188.96	74.9105	9,188.96	75.2419	9,188.96	70.3208	9,188.96	72.093	9,188.96	67.9771	9,188.96	69.0019	9,188.96	64.696	9,188.96	66.2355	9,188.96	63.1768	9,188.96	63.741	9,188.96	62.2633	9,188.96	62.8073	9,188.96	60.0183	9,188.96	58.9357	9,188.96	55.8333	9,188.96	55.8577	9,188.96	56.2704	9,188.96	56.704	9,188.96	58.75	9,188.96	58.1774	9,188.96	49.9413
9,514.16	86.9266	9,514.16	86.9007	9,514.16	87.1464	9,514.16	86.4214	9,514.16	87.1956	9,514.16	86.1848	9,514.16	87.0631	9,514.16	84.8866	9,514.16	86.0628	9,514.16	83.0419	9,514.16	84.4585	9,514.16	79.9388	9,514.16	81.5165	9,514.16	76.5389	9,514.16	79.3457	9,514.16	73.0472	9,514.16	75.5206	9,514.16	69.2219	9,514.16	72.1773	9,514.16	67.0631	9,514.16	68.0034	9,514.16	65.5213	9,514.16	65.3769	9,514.16	60.7665	9,514.16	63.0587	9,514.16	59.7787	9,514.16	61.867	9,514.16	58.6348	9,514.16	59.5205	9,514.16	53.8918	9,514.16	57.6111	9,514.16	55.3692	9,514.16	57.4838	9,514.16	57.8492	9,514.16	55.2523	9,514.16	50.7389
9,849.61	86.5831	9,849.61	86.5608	9,849.61	86.7461	9,849.61	86.4289	9,849.61	86.8833	9,849.61	85.7784	9,849.61	86.6224	9,849.61	84.9009	9,849.61	85.938	9,849.61	82.4319	9,849.61	84.0342	9,849.61	79.6362	9,849.61	81.2467	9,849.61	76.531	9,849.61	78.9778	9,849.61	72.7925	9,849.61	75.1811	9,849.61	69.1594	9,849.61	71.3652	9,849.61	66.2465	9,849.61	67.2327	9,849.61	64.3	9,849.61	65.1606	9,849.61	59.8953	9,849.61	61.1158	9,849.61	57.6602	9,849.61	62.8807	9,849.61	58.4994	9,849.61	57.0864	9,849.61	51.9332	9,849.61	54.1031	9,849.61	55.7683	9,849.61	49.9764	9,849.61	57.7176	9,849.61	56.5281	9,849.61	52.3013
10,196.8	86.6809	10,196.8	86.4563	10,196.8	86.9816	10,196.8	85.9546	10,196.8	86.8791	10,196.8	85.5494	10,196.8	86.5074	10,196.8	84.5814	10,196.8	85.8214	10,196.8	82.2306	10,196.8	83.7836	10,196.8	79.7721	10,196.8	81.4399	10,196.8	76.1195	10,196.8	77.6914	10,196.8	71.9355	10,196.8	73.251	10,196.8	69.3093	10,196.8	70.2652	10,196.8	64.5839	10,196.8	66.7406	10,196.8	63.0042	10,196.8	64.2542	10,196.8	58.8129	10,196.8	61.4341	10,196.8	58.9785	10,196.8	62.0123	10,196.8	54.5158	10,196.8	59.0862	10,196.8	52.9483	10,196.8	51.6823	10,196.8	55.1946	10,196.8	50.3292	10,196.8	59.1727	10,196.8	55.6381	10,196.8	50.5727
10,555.7	86.3926	10,555.7	86.2485	10,555.7	86.6712	10,555.7	85.8247	10,555.7	86.81	10,555.7	85.4217	10,555.7	86.6027	10,555.7	84.2559	10,555.7	85.7228	10,555.7	82.3598	10,555.7	83.9239	10,555.7	78.8097	10,555.7	80.9236	10,555.7	75.4284	10,555.7	77.2876	10,555.7	71.802	10,555.7	73.3595	10,555.7	67.9573	10,555.7	70.0645	10,555.7	64.3053	10,555.7	66.5693	10,555.7	62.476	10,555.7	62.623	10,555.7	61.198	10,555.7	61.5836	10,555.7	56.5836	10,555.7	61.8407	10,555.7	55.4417	10,555.7	58.355	10,555.7	48.5487	10,555.7	54.2469	10,555.7	53.5165	10,555.7	55.8736	10,555.7	61.1423	10,555.7	54.7188	10,555.7	54.6195
10,927.7	85.6804	10,927.7	85.6687	10,927.7	85.8561	10,927.7	85.5425	10,927.7	86.1343	10,927.7	85.4693	10,927.7	86.2405	10,927.7	84.4077	10,927.7	85.6841	10,927.7	82.3956	10,927.7	84.221	10,927.7	79.0713	10,927.7	80.9034	10,927.7	75.6819	10,927.7	77.897	10,927.7	71.0683	10,927.7	73.8461	10,927.7	67.542	10,927.7	70.2416	10,927.7	64.4245	10,927.7	66.8184	10,927.7	62.0001	10,927.7	64.5749	10,927.7	61.1117	10,927.7	61.5946	10,927.7	55.4069	10,927.7	61.7038	10,927.7	54.2607	10,927.7	58.2073	10,927.7	51.2056	10,927.7	56.0978	10,927.7	52.4888	10,927.7	52.854	10,927.7	59.8486	10,927.7	55.3714	10,927.7	50.5237
11,313	85.011	11,313	85.0279	11,313	85.5158	11,313	85.0917	11,313	85.6151	11,313	85.1789	11,313	86.2228	11,313	84.5116	11,313	85.627	11,313	82.2338	11,313	84.0571	11,313	78.7529	11,313	81.0362	11,313	75.6504	11,313	77.7825	11,313	70.4853	11,313	73.4769	11,313	66.7045	11,313	69.7684	11,313	64.1153	11,313	67.0941	11,313	63.1561	11,313	64.5362	11,313	59.5731	11,313	60.6103	11,313	57.8652	11,313	61.11	11,313	54.9211	11,313	59.0574	11,313	53.8473	11,313	55.6393	11,313	52.553	11,313	53.9227	11,313	59.7293	11,313	55.7193	11,313	49.9358
11,712.9	84.5584	11,712.9	84.5592	11,712.9	84.8762	11,712.9	84.8294	11,712.9	85.1895	11,712.9	85.1512	11,712.9	85.9596	11,712.9	84.448	11,712.9	85.5182	11,712.9	81.9154	11,712.9	83.649	11,712.9	78.4716	11,712.9	80.6173	11,712.9	74.7378	11,712.9	76.9813	11,712.9	70.2908	11,712.9	73.8723	11,712.9	64.9313	11,712.9	69.3988	11,712.9	64.2076	11,712.9	65.003	11,712.9	61.4682	11,712.9	63.2608	11,712.9	58.0184	11,712.9	59.2213	11,712.9	55.0101	11,712.9	59.5959	11,712.9	55.0686	11,712.9	58.161	11,712.9	50.6997	11,712.9	54.0905	11,712.9	53.4087	11,712.9	52.3773	11,712.9	57.105	11,712.9	52.8927	11,712.9	55.8089
12,126	84.1314	12,126	84.5738	12,126	84.4661	12,126	84.6371	12,126	84.8289	12,126	84.7493	12,126	85.363	12,126	84.261	12,126	85.2105	12,126	81.7722	12,126	83.4312	12,126	78.0781	12,126	80.1574	12,126	73.4531	12,126	76.1758	12,126	69.7183	12,126	72.7503	12,126	65.4225	12,126	68.7034	12,126	63.5016	12,126	65.7095	12,126	60.6703	12,126	63.1271	12,126	57.2262	12,126	59.3827	12,126	56.1208	12,126	60.1311	12,126	52.8549	12,126	58.478	12,126	50.496	12,126	53.6784	12,126	52.6653	12,126	54.8277	12,126	58.5659	12,126	49.4476	12,126	55.193
12,553.7	84.3259	12,553.7	84.4132	12,553.7	84.2138	12,553.7	84.6121	12,553.7	84.7216	12,553.7	84.3541	12,553.7	84.9109	12,553.7	83.6615	12,553.7	84.5601	12,553.7	80.951	12,553.7	82.7145	12,553.7	77.0884	12,553.7	79.2342	12,553.7	71.8339	12,553.7	75.1212	12,553.7	69.3042	12,553.7	71.1753	12,553.7	64.0395	12,553.7	68.1689	12,553.7	61.1634	12,553.7	65.2485	12,553.7	59.4779	12,553.7	61.0721	12,553.7	57.3352	12,553.7	59.322	12,553.7	56.466	12,553.7	59.305	12,553.7	48.602	12,553.7	56.339	12,553.7	46.2241	12,553.7	51.9912	12,553.7	50.8828	12,553.7	47.155	12,553.7	57.077	12,553.7	50.8046	12,553.7	54.0199
12,996.1	84.9715	12,996.1	85.1002	12,996.1	84.6567	12,996.1	84.5395	12,996.1	84.4663	12,996.1	84.552	12,996.1	84.6965	12,996.1	82.9529	12,996.1	84.2589	12,996.1	80.2868	12,996.1	82.4293	12,996.1	75.7656	12,996.1	78.3811	12,996.1	70.7131	12,996.1	74.924	12,996.1	67.1028	12,996.1	71.5135	12,996.1	62.5149	12,996.1	67.3462	12,996.1	61.778	12,996.1	64.981	12,996.1	56.2839	12,996.1	60.5694	12,996.1	56.6941	12,996.1	59.5033	12,996.1	55.4726	12,996.1	56.3513	12,996.1	50.1669	12,996.1	54.178	12,996.1	36.8127	12,996.1	49.8516	12,996.1	47.2989	12,996.1	45.4879	12,996.1	56.8428	12,996.1	50.6944	12,996.1	51.4714
13,454.6	86.0563	13,454.6	85.6993	13,454.6	85.2886	13,454.6	85.0827	13,454.6	84.5051	13,454.6	84.3579	13,454.6	84.1883	13,454.6	82.6177	13,454.6	83.666	13,454.6	79.7303	13,454.6	81.6938	13,454.6	75.3065	13,454.6	77.9431	13,454.6	70.3422	13,454.6	74.8089	13,454.6	66.7083	13,454.6	70.4076	13,454.6	61.5236	13,454.6	67.0837	13,454.6	58.9761	13,454.6	64.206	13,454.6	56.6742	13,454.6	59.5041	13,454.6	56.0207	13,454.6	57.4393	13,454.6	55.4528	13,454.6	56.1258	13,454.6	52.0189	13,454.6	54.3968	13,454.6	40.3584	13,454.6	51.6811	13,454.6	45.7625	13,454.6	46.8484	13,454.6	53.7013	13,454.6	42.7125	13,454.6	51.7211
13,929.2	87.1108	13,929.2	86.9139	13,929.2	86.258	13,929.2	85.7794	13,929.2	84.7954	13,929.2	84.6927	13,929.2	84.105	13,929.2	82.7718	13,929.2	83.1916	13,929.2	78.9589	13,929.2	81.091	13,929.2	74.0496	13,929.2	77.5808	13,929.2	69.1565	13,929.2	73.5264	13,929.2	64.8784	13,929.2	70.0709	13,929.2	60.3205	13,929.2	66.0681	13,929.2	57.6852	13,929.2	61.6967	13,929.2	54.4255	13,929.2	58.9976	13,929.2	55.2848	13,929.2	57.594	13,929.2	48.3949	13,929.2	53.5105	13,929.2	50.2402	13,929.2	51.4693	13,929.2	41.0291	13,929.2	48.8146	13,929.2	39.5709	13,929.2	49.9511	13,929.2	51.3979	13,929.2	38.2323	13,929.2	52.7646
14,419.9	87.7947	14,419.9	87.493	14,419.9	87.1074	14,419.9	86.3248	14,419.9	85.2523	14,419.9	84.5582	14,419.9	83.6126	14,419.9	82.0151	14,419.9	82.4982	14,419.9	78.5485	14,419.9	80.3101	14,419.9	72.7579	14,419.9	76.3267	14,419.9	67.6011	14,419.9	72.3815	14,419.9	63.7363	14,419.9	68.91	14,419.9	56.5544	14,419.9	65.5994	14,419.9	54.8706	14,419.9	61.9072	14,419.9	51.1679	14,419.9	58.9291	14,419.9	54.3331	14,419.9	56.9965	14,419.9	49.8485	14,419.9	50.4833	14,419.9	45.5285	14,419.9	50.3908	14,419.9	42.5001	14,419.9	47.9566	14,419.9	45.4221	14,419.9	48.9122	14,419.9	47.5332	14,419.9	43.5058	14,419.9	50.6304
14,928.2	88.3902	14,928.2	87.8122	14,928.2	87.6954	14,928.2	86.3867	14,928.2	85.8413	14,928.2	84.1502	14,928.2	83.7415	14,928.2	81.0761	14,928.2	81.6952	14,928.2	76.7139	14,928.2	79.2655	14,928.2	70.2427	14,928.2	75.3332	14,928.2	64.8332	14,928.2	71.4422	14,928.2	59.1796	14,928.2	67.0404	14,928.2	53.7577	14,928.2	64.0801	14,928.2	50.957	14,928.2	60.233	14,928.2	48.0932	14,928.2	57.1	14,928.2	49.6129	14,928.2	54.5049	14,928.2	42.2006	14,928.2	52.3867	14,928.2	15.4226	14,928.2	50.272	14,928.2	33.9863	14,928.2	44.1884	14,928.2	47.8234	14,928.2	45.331	14,928.2	37.5782	14,928.2	34.4359	14,928.2	47.5556
15,455.6	88.6648	15,455.6	88.0634	15,455.6	88.0001	15,455.6	86.3719	15,455.6	86.0602	15,455.6	83.5832	15,455.6	83.2536	15,455.6	79.2531	15,455.6	80.6718	15,455.6	74.0909	15,455.6	77.9664	15,455.6	67.6643	15,455.6	73.929	15,455.6	60.6806	15,455.6	69.4804	15,455.6	54.5756	15,455.6	65.8218	15,455.6	43.7136	15,455.6	62.0882	15,455.6	46.7301	15,455.6	57.9263	15,455.6	39.2754	15,455.6	54.796	15,455.6	39.6955	15,455.6	52.9385	15,455.6	38.7361	15,455.6	47.0587	15,455.6	33.6824	15,455.6	46.1721	15,455.6	31.94	15,455.6	35.4833	15,455.6	42.4239	15,455.6	47.5493	15,455.6	46.2327	15,455.6	40.0177	15,455.6	40.137
16,000.5	88.8079	16,000.5	87.9996	16,000.5	88.0752	16,000.5	86.1223	16,000.5	86.1079	16,000.5	82.9478	16,000.5	82.8685	16,000.5	77.8315	16,000.5	79.2902	16,000.5	71.7368	16,000.5	76.0442	16,000.5	64.6102	16,000.5	72.1483	16,000.5	56.8124	16,000.5	67.9065	16,000.5	51.9785	16,000.5	62.6107	16,000.5	40.6669	16,000.5	59.1812	16,000.5	36.621	16,000.5	55.1707	16,000.5	40.7367	16,000.5	51.86	16,000.5	31.9659	16,000.5	47.3054	16,000.5	31.162	16,000.5	39.9044	16,000.5	31.897	16,000.5	41.2645	16,000.5	23.0229	16,000.5	15.9009	16,000.5	40.6228	16,000.5	42.7397	16,000.5	45.3411	16,000.5	38.18	16,000.5	42.6676
16,564.5	88.7276	16,564.5	87.7963	16,564.5	88.1875	16,564.5	85.6167	16,564.5	86.1237	16,564.5	82.3194	16,564.5	82.6487	16,564.5	76.4783	16,564.5	78.2814	16,564.5	69.6203	16,564.5	74.3213	16,564.5	62.5271	16,564.5	70.3218	16,564.5	56.5875	16,564.5	65.828	16,564.5	52.6694	16,564.5	61.6687	16,564.5	44.6016	16,564.5	57.5199	16,564.5	43.5696	16,564.5	52.3519	16,564.5	43.9103	16,564.5	49.7685	16,564.5	26.7809	16,564.5	42.81	16,564.5	39.3204	16,564.5	44.0865	16,564.5	26.3959	16,564.5	32.485	16,564.5	31.7136	16,564.5	26.2402	16,564.5	41.1604	16,564.5	42.8664	16,564.5	41.1514	16,564.5	31.5344	16,564.5	45.3017
17,148.9	88.6194	17,148.9	87.4737	17,148.9	88.0989	17,148.9	85.2666	17,148.9	86.06	17,148.9	81.371	17,148.9	82.2789	17,148.9	74.8204	17,148.9	76.9892	17,148.9	68.0399	17,148.9	72.4521	17,148.9	62.8081	17,148.9	68.6996	17,148.9	59.0227	17,148.9	65.067	17,148.9	55.8867	17,148.9	60.659	17,148.9	49.3634	17,148.9	55.6192	17,148.9	45.8998	17,148.9	50.5877	17,148.9	44.3079	17,148.9	46.7481	17,148.9	39.4221	17,148.9	37.4406	17,148.9	42.3412	17,148.9	41.8702	17,148.9	20.5648	17,148.9	36.0087	17,148.9	42.6887	17,148.9	35.5046	17,148.9	40.3346	17,148.9	42.445	17,148.9	33.1403	17,148.9	36.6963	17,148.9	31.9975
17,752.4	88.1109	17,752.4	86.8542	17,752.4	87.6066	17,752.4	84.3865	17,752.4	85.7043	17,752.4	80.0819	17,752.4	81.9535	17,752.4	72.2292	17,752.4	75.8365	17,752.4	67.0296	17,752.4	70.4097	17,752.4	64.624	17,752.4	67.6175	17,752.4	61.9589	17,752.4	64.4058	17,752.4	58.0542	17,752.4	60.0597	17,752.4	54.5137	17,752.4	54.8617	17,752.4	47.4641	17,752.4	50.5785	17,752.4	45.5298	17,752.4	46.4199	17,752.4	43.437	17,752.4	37.67	17,752.4	42.485	17,752.4	43.2553	17,752.4	32.2907	17,752.4	38.0544	17,752.4	41.9827	17,752.4	34.5736	17,752.4	30.6543	17,752.4	43.5806	17,752.4	37.0297	17,752.4	41.2676	17,752.4	43.7598
18,379.4	87.4922	18,379.4	86.0224	18,379.4	86.9831	18,379.4	83.2765	18,379.4	85.144	18,379.4	78.1895	18,379.4	81.3404	18,379.4	68.3011	18,379.4	74.8009	18,379.4	66.7661	18,379.4	68.4535	18,379.4	66.3201	18,379.4	66.1704	18,379.4	64.0207	18,379.4	63.7176	18,379.4	60.061	18,379.4	59.5002	18,379.4	55.7847	18,379.4	53.8263	18,379.4	50.521	18,379.4	51.0734	18,379.4	49.1326	18,379.4	45.1091	18,379.4	41.3138	18,379.4	41.7078	18,379.4	40.4663	18,379.4	41.9493	18,379.4	36.2044	18,379.4	36.8977	18,379.4	43.0611	18,379.4	21.5809	18,379.4	37.6562	18,379.4	43.5073	18,379.4	32.2786	18,379.4	34.9851	18,379.4	42.0945
19,026.9	86.9559	19,026.9	85.3501	19,026.9	86.424	19,026.9	82.4365	19,026.9	84.6154	19,026.9	76.8987	19,026.9	80.6681	19,026.9	64.5128	19,026.9	73.9785	19,026.9	67.0946	19,026.9	67.8143	19,026.9	67.3733	19,026.9	66.1077	19,026.9	64.9449	19,026.9	63.1827	19,026.9	60.8082	19,026.9	59.4192	19,026.9	55.8422	19,026.9	53.1916	19,026.9	52.4453	19,026.9	51.3664	19,026.9	49.9328	19,026.9	44.6305	19,026.9	44.2237	19,026.9	43.1229	19,026.9	39.9628	19,026.9	42.3563	19,026.9	32.9126	19,026.9	27.9193	19,026.9	44.0449	19,026.9	35.2215	19,026.9	43.6077	19,026.9	44.2281	19,026.9	39.0446	19,026.9	38.5901	19,026.9	39.165
19,697.8	87.0119	19,697.8	85.193	19,697.8	86.2423	19,697.8	81.9726	19,697.8	84.0903	19,697.8	75.7543	19,697.8	79.8124	19,697.8	62.8277	19,697.8	72.9463	19,697.8	67.804	19,697.8	68.1007	19,697.8	68.1572	19,697.8	66.9239	19,697.8	65.2166	19,697.8	63.3576	19,697.8	61.4368	19,697.8	60.348	19,697.8	54.9315	19,697.8	53.2898	19,697.8	53.4576	19,697.8	51.5454	19,697.8	49.1627	19,697.8	44.5233	19,697.8	45.61	19,697.8	42.6486	19,697.8	36.9998	19,697.8	42.2701	19,697.8	26.4099	19,697.8	24.1439	19,697.8	43.9544	19,697.8	41.8146	19,697.8	43.7342	19,697.8	43.1476	19,697.8	44.1131	19,697.8	42.708	19,697.8	44.9282
19,999.5	86.9619	19,999.5	85.2713	19,999.5	86.0708	19,999.5	81.8503	19,999.5	83.7292	19,999.5	75.4726	19,999.5	79.0524	19,999.5	61.5302	19,999.5	72.6109	19,999.5	68.0266	19,999.5	68.3024	19,999.5	67.4528	19,999.5	66.9539	19,999.5	64.1451	19,999.5	64.1424	19,999.5	62.3495	19,999.5	60.2969	19,999.5	56.0589	19,999.5	54.6643	19,999.5	51.2919	19,999.5	53.4168	19,999.5	37.5134	19,999.5	44.5071	19,999.5	41.1695	19,999.5	52.4629	19,999.5	42.5958	19,999.5	39.0829	19,999.5	39.5443	19,999.5	33.3168	19,999.5	43.3727	19,999.5	45.382	19,999.5	44.1367	19,999.5	42.3611	19,999.5	44.8641	19,999.5	50.447	19,999.5	42.2938
