"SPL Vertical"
"On-Axis"		"10°"		"-10°"		"20°"		"-20°"		"30°"		"-30°"		"40°"		"-40°"		"50°"		"-50°"		"60°"		"-60°"		"70°"		"-70°"		"80°"		"-80°"		"90°"		"-90°"		"100°"		"-100°"		"110°"		"-110°"		"120°"		"-120°"		"130°"		"-130°"		"140°"		"-140°"		"150°"		"-150°"		"160°"		"-160°"		"170°"		"-170°"		"180°"
"Frequency / Hz"	"Sound Pressure Level / dB (re 20 µPa/V)  [2.83V at 1m]"	"Frequency / Hz"	"Sound Pressure Level / dB (re 20 µPa/V)  [2.83V at 1m]"	"Frequency / Hz"	"Sound Pressure Level / dB (re 20 µPa/V)  [2.83V at 1m]"	"Frequency / Hz"	"Sound Pressure Level / dB (re 20 µPa/V)  [2.83V at 1m]"	"Frequency / Hz"	"Sound Pressure Level / dB (re 20 µPa/V)  [2.83V at 1m]"	"Frequency / Hz"	"Sound Pressure Level / dB (re 20 µPa/V)  [2.83V at 1m]"	"Frequency / Hz"	"Sound Pressure Level / dB (re 20 µPa/V)  [2.83V at 1m]"	"Frequency / Hz"	"Sound Pressure Level / dB (re 20 µPa/V)  [2.83V at 1m]"	"Frequency / Hz"	"Sound Pressure Level / dB (re 20 µPa/V)  [2.83V at 1m]"	"Frequency / Hz"	"Sound Pressure Level / dB (re 20 µPa/V)  [2.83V at 1m]"	"Frequency / Hz"	"Sound Pressure Level / dB (re 20 µPa/V)  [2.83V at 1m]"	"Frequency / Hz"	"Sound Pressure Level / dB (re 20 µPa/V)  [2.83V at 1m]"	"Frequency / Hz"	"Sound Pressure Level / dB (re 20 µPa/V)  [2.83V at 1m]"	"Frequency / Hz"	"Sound Pressure Level / dB (re 20 µPa/V)  [2.83V at 1m]"	"Frequency / Hz"	"Sound Pressure Level / dB (re 20 µPa/V)  [2.83V at 1m]"	"Frequency / Hz"	"Sound Pressure Level / dB (re 20 µPa/V)  [2.83V at 1m]"	"Frequency / Hz"	"Sound Pressure Level / dB (re 20 µPa/V)  [2.83V at 1m]"	"Frequency / Hz"	"Sound Pressure Level / dB (re 20 µPa/V)  [2.83V at 1m]"	"Frequency / Hz"	"Sound Pressure Level / dB (re 20 µPa/V)  [2.83V at 1m]"	"Frequency / Hz"	"Sound Pressure Level / dB (re 20 µPa/V)  [2.83V at 1m]"	"Frequency / Hz"	"Sound Pressure Level / dB (re 20 µPa/V)  [2.83V at 1m]"	"Frequency / Hz"	"Sound Pressure Level / dB (re 20 µPa/V)  [2.83V at 1m]"	"Frequency / Hz"	"Sound Pressure Level / dB (re 20 µPa/V)  [2.83V at 1m]"	"Frequency / Hz"	"Sound Pressure Level / dB (re 20 µPa/V)  [2.83V at 1m]"	"Frequency / Hz"	"Sound Pressure Level / dB (re 20 µPa/V)  [2.83V at 1m]"	"Frequency / Hz"	"Sound Pressure Level / dB (re 20 µPa/V)  [2.83V at 1m]"	"Frequency / Hz"	"Sound Pressure Level / dB (re 20 µPa/V)  [2.83V at 1m]"	"Frequency / Hz"	"Sound Pressure Level / dB (re 20 µPa/V)  [2.83V at 1m]"	"Frequency / Hz"	"Sound Pressure Level / dB (re 20 µPa/V)  [2.83V at 1m]"	"Frequency / Hz"	"Sound Pressure Level / dB (re 20 µPa/V)  [2.83V at 1m]"	"Frequency / Hz"	"Sound Pressure Level / dB (re 20 µPa/V)  [2.83V at 1m]"	"Frequency / Hz"	"Sound Pressure Level / dB (re 20 µPa/V)  [2.83V at 1m]"	"Frequency / Hz"	"Sound Pressure Level / dB (re 20 µPa/V)  [2.83V at 1m]"	"Frequency / Hz"	"Sound Pressure Level / dB (re 20 µPa/V)  [2.83V at 1m]"	"Frequency / Hz"	"Sound Pressure Level / dB (re 20 µPa/V)  [2.83V at 1m]"	"Frequency / Hz"	"Sound Pressure Level / dB (re 20 µPa/V)  [2.83V at 1m]"
20.5078	49.771	20.5078	49.4618	20.5078	50.1015	20.5078	49.184	20.5078	50.4419	20.5078	48.9461	20.5078	50.7802	20.5078	48.7542	20.5078	51.1044	20.5078	48.6127	20.5078	51.4034	20.5078	48.5238	20.5078	51.6671	20.5078	48.4883	20.5078	51.8871	20.5078	48.5058	20.5078	52.0569	20.5078	48.5748	20.5078	52.1715	20.5078	48.693	20.5078	52.2282	20.5078	48.8572	20.5078	52.2259	20.5078	49.0633	20.5078	52.1654	20.5078	49.3062	20.5078	52.0491	20.5078	49.5799	20.5078	51.8814	20.5078	49.8773	20.5078	51.6678	20.5078	50.1904	20.5078	51.4153	20.5078	50.5101	20.5078	51.1321	20.5078	50.8272
21.9727	51.6556	21.9727	51.3866	21.9727	51.9463	21.9727	51.147	21.9727	52.2497	21.9727	50.9423	21.9727	52.5553	21.9727	50.7766	21.9727	52.8523	21.9727	50.652	21.9727	53.1299	21.9727	50.5698	21.9727	53.3781	21.9727	50.5306	21.9727	53.5881	21.9727	50.5344	21.9727	53.7524	21.9727	50.5811	21.9727	53.8656	21.9727	50.6705	21.9727	53.9238	21.9727	50.8017	21.9727	53.9254	21.9727	50.9732	21.9727	53.8703	21.9727	51.1822	21.9727	53.7606	21.9727	51.4244	21.9727	53.6002	21.9727	51.694	21.9727	53.3946	21.9727	51.9836	21.9727	53.1511	21.9727	52.2842	21.9727	52.8783	21.9727	52.5859
23.4375	53.7657	23.4375	53.4878	23.4375	54.0614	23.4375	53.2355	23.4375	54.3659	23.4375	53.0154	23.4375	54.6691	23.4375	52.8323	23.4375	54.9609	23.4375	52.6897	23.4375	55.2312	23.4375	52.5902	23.4375	55.4709	23.4375	52.5354	23.4375	55.6718	23.4375	52.5263	23.4375	55.8272	23.4375	52.5636	23.4375	55.932	23.4375	52.6473	23.4375	55.9828	23.4375	52.7765	23.4375	55.9777	23.4375	52.9494	23.4375	55.917	23.4375	53.1627	23.4375	55.8024	23.4375	53.4113	23.4375	55.6375	23.4375	53.6885	23.4375	55.4276	23.4375	53.9861	23.4375	55.1794	23.4375	54.2943	23.4375	54.9014	23.4375	54.603
24.9023	54.4932	24.9023	54.1941	24.9023	54.8067	24.9023	53.9179	24.9023	55.1246	24.9023	53.6712	24.9023	55.4358	24.9023	53.4588	24.9023	55.7288	24.9023	53.2835	24.9023	55.9925	24.9023	53.1471	24.9023	56.2166	24.9023	53.0508	24.9023	56.3925	24.9023	52.9952	24.9023	56.5132	24.9023	52.9812	24.9023	56.5737	24.9023	53.0099	24.9023	56.5715	24.9023	53.0823	24.9023	56.506	24.9023	53.1993	24.9023	56.3794	24.9023	53.361	24.9023	56.196	24.9023	53.5662	24.9023	55.9624	24.9023	53.8117	24.9023	55.6875	24.9023	54.0923	24.9023	55.3816	24.9023	54.4001	24.9023	55.0568	24.9023	54.7255
26.3672	56.9797	26.3672	56.7127	26.3672	57.2608	26.3672	56.4671	26.3672	57.5474	26.3672	56.2485	26.3672	57.8295	26.3672	56.0607	26.3672	58.0967	26.3672	55.9061	26.3672	58.3386	26.3672	55.786	26.3672	58.5457	26.3672	55.7013	26.3672	58.7095	26.3672	55.6526	26.3672	58.8233	26.3672	55.6409	26.3672	58.8823	26.3672	55.667	26.3672	58.8836	26.3672	55.7321	26.3672	58.8267	26.3672	55.837	26.3672	58.7134	26.3672	55.9821	26.3672	58.5477	26.3672	56.1663	26.3672	58.3358	26.3672	56.3871	26.3672	58.086	26.3672	56.64	26.3672	57.808	26.3672	56.9181	26.3672	57.513	26.3672	57.2126
27.832	58.8145	27.832	58.5756	27.832	59.0657	27.832	58.3553	27.832	59.3219	27.832	58.158	27.832	59.5741	27.832	57.9867	27.832	59.813	27.832	57.8432	27.832	60.029	27.832	57.7286	27.832	60.213	27.832	57.6437	27.832	60.3571	27.832	57.589	27.832	60.4548	27.832	57.5657	27.832	60.5012	27.832	57.575	27.832	60.4937	27.832	57.6185	27.832	60.4318	27.832	57.6979	27.832	60.3174	27.832	57.8142	27.832	60.1545	27.832	57.9677	27.832	59.9495	27.832	58.1571	27.832	59.7107	27.832	58.3789	27.832	59.448	27.832	58.6276	27.832	59.1725	27.832	58.8953
29.2969	60.4392	29.2969	60.1987	29.2969	60.6969	29.2969	59.9818	29.2969	60.964	29.2969	59.7932	29.2969	61.2315	29.2969	59.6359	29.2969	61.4897	29.2969	59.5119	29.2969	61.7289	29.2969	59.4223	29.2969	61.9398	29.2969	59.3677	29.2969	62.114	29.2969	59.3484	29.2969	62.2448	29.2969	59.3648	29.2969	62.3269	29.2969	59.4173	29.2969	62.3571	29.2969	59.5063	29.2969	62.3342	29.2969	59.6315	29.2969	62.2589	29.2969	59.7918	29.2969	62.134	29.2969	59.9851	29.2969	61.9643	29.2969	60.2077	29.2969	61.7564	29.2969	60.4541	29.2969	61.5183	29.2969	60.7173	29.2969	61.2592	29.2969	60.9888
30.7617	63.0397	30.7617	62.8292	30.7617	63.261	30.7617	62.6352	30.7617	63.4859	30.7617	62.4622	30.7617	63.7069	30.7617	62.3136	30.7617	63.9156	30.7617	62.1914	30.7617	64.1038	30.7617	62.0971	30.7617	64.2639	30.7617	62.0314	30.7617	64.3889	30.7617	61.9947	30.7617	64.4735	30.7617	61.9871	30.7617	64.5138	30.7617	62.0089	30.7617	64.508	30.7617	62.0602	30.7617	64.4558	30.7617	62.1412	30.7617	64.3594	30.7617	62.2515	30.7617	64.2228	30.7617	62.3903	30.7617	64.0515	30.7617	62.5559	30.7617	63.8528	30.7617	62.7454	30.7617	63.6351	30.7617	62.9544	30.7617	63.407	30.7617	63.1774
32.2266	65.2513	32.2266	65.0798	32.2266	65.4301	32.2266	64.9196	32.2266	65.6113	32.2266	64.7738	32.2266	65.7889	32.2266	64.6444	32.2266	65.9566	32.2266	64.5329	32.2266	66.1073	32.2266	64.4404	32.2266	66.2345	32.2266	64.3679	32.2266	66.332	32.2266	64.3162	32.2266	66.3946	32.2266	64.2865	32.2266	66.4188	32.2266	64.2801	32.2266	66.4024	32.2266	64.2984	32.2266	66.3451	32.2266	64.3429	32.2266	66.2488	32.2266	64.4147	32.2266	66.117	32.2266	64.5145	32.2266	65.9552	32.2266	64.6417	32.2266	65.7706	32.2266	64.7947	32.2266	65.5711	32.2266	64.97	32.2266	65.3655	32.2266	65.1625
33.6914	66.4126	33.6914	66.2421	33.6914	66.5936	33.6914	66.086	33.6914	66.7797	33.6914	65.9473	33.6914	66.9648	33.6914	65.828	33.6914	67.142	33.6914	65.7294	33.6914	67.3042	33.6914	65.6522	33.6914	67.4443	33.6914	65.5969	33.6914	67.556	33.6914	65.5639	33.6914	67.6339	33.6914	65.5537	33.6914	67.6741	33.6914	65.5672	33.6914	67.6742	33.6914	65.6049	33.6914	67.6337	33.6914	65.6677	33.6914	67.5541	33.6914	65.7561	33.6914	67.4385	33.6914	65.8697	33.6914	67.2919	33.6914	66.0077	33.6914	67.1208	33.6914	66.1677	33.6914	66.9326	33.6914	66.346	33.6914	66.7355	33.6914	66.5374
35.1562	67.7105	35.1562	67.542	35.1562	67.8916	35.1562	67.3903	35.1562	68.0795	35.1562	67.2589	35.1562	68.2681	35.1562	67.1499	35.1562	68.4501	35.1562	67.0648	35.1562	68.6185	35.1562	67.0042	35.1562	68.7662	35.1562	66.9683	35.1562	68.8871	35.1562	66.9571	35.1562	68.976	35.1562	66.9704	35.1562	69.0291	35.1562	67.0078	35.1562	69.0441	35.1562	67.069	35.1562	69.0205	35.1562	67.1535	35.1562	68.9595	35.1562	67.2604	35.1562	68.8642	35.1562	67.3882	35.1562	68.7386	35.1562	67.535	35.1562	68.5885	35.1562	67.698	35.1562	68.4201	35.1562	67.8732	35.1562	68.2403	35.1562	68.0559
36.6211	69.4011	36.6211	69.2206	36.6211	69.5867	36.6211	69.0505	36.6211	69.7717	36.6211	68.8952	36.6211	69.9495	36.6211	68.7582	36.6211	70.1137	36.6211	68.6422	36.6211	70.2578	36.6211	68.5491	36.6211	70.3758	36.6211	68.4802	36.6211	70.4626	36.6211	68.4363	36.6211	70.5142	36.6211	68.4177	36.6211	70.5281	36.6211	68.4246	36.6211	70.5034	36.6211	68.4567	36.6211	70.4408	36.6211	68.5139	36.6211	70.3428	36.6211	68.5955	36.6211	70.2136	36.6211	68.7008	36.6211	70.0588	36.6211	68.8284	36.6211	69.8849	36.6211	68.9765	36.6211	69.6993	36.6211	69.1421	36.6211	69.5091	36.6211	69.3214
38.0859	71.3765	38.0859	71.232	38.0859	71.5259	38.0859	71.0966	38.0859	71.6757	38.0859	70.9734	38.0859	71.8205	38.0859	70.8648	38.0859	71.9548	38.0859	70.7727	38.0859	72.0728	38.0859	70.6982	38.0859	72.1695	38.0859	70.6421	38.0859	72.2402	38.0859	70.605	38.0859	72.2814	38.0859	70.587	38.0859	72.2908	38.0859	70.5885	38.0859	72.2677	38.0859	70.6095	38.0859	72.2127	38.0859	70.6501	38.0859	72.1283	38.0859	70.7103	38.0859	72.0183	38.0859	70.7899	38.0859	71.8876	38.0859	70.8882	38.0859	71.7422	38.0859	71.0041	38.0859	71.5883	38.0859	71.1355	38.0859	71.4321	38.0859	71.2795
39.5508	72.268	39.5508	72.1234	39.5508	72.4142	39.5508	71.9846	39.5508	72.5574	39.5508	71.8551	39.5508	72.6925	39.5508	71.7378	39.5508	72.8144	39.5508	71.635	39.5508	72.9181	39.5508	71.5484	39.5508	72.9987	39.5508	71.4792	39.5508	73.0524	39.5508	71.4285	39.5508	73.0763	39.5508	71.3968	39.5508	73.0686	39.5508	71.3844	39.5508	73.0291	39.5508	71.3918	39.5508	72.959	39.5508	71.4191	39.5508	72.8613	39.5508	71.4665	39.5508	72.7401	39.5508	71.5339	39.5508	72.6009	39.5508	71.621	39.5508	72.4497	39.5508	71.7269	39.5508	72.2931	39.5508	71.8502	39.5508	72.1374	39.5508	71.9882
41.0156	73.0658	41.0156	72.9274	41.0156	73.2053	41.0156	72.7939	41.0156	73.3412	41.0156	72.6687	41.0156	73.4688	41.0156	72.5547	41.0156	73.5832	41.0156	72.4541	41.0156	73.6796	41.0156	72.3685	41.0156	73.7534	41.0156	72.2994	41.0156	73.8012	41.0156	72.2475	41.0156	73.8199	41.0156	72.2135	41.0156	73.8083	41.0156	72.198	41.0156	73.7661	41.0156	72.2012	41.0156	73.6948	41.0156	72.2235	41.0156	73.5972	41.0156	72.2652	41.0156	73.4776	41.0156	72.3261	41.0156	73.3414	41.0156	72.4063	41.0156	73.1945	41.0156	72.505	41.0156	73.0434	41.0156	72.6208	41.0156	72.8939	41.0156	72.7516
42.4805	73.7852	42.4805	73.6511	42.4805	73.9191	42.4805	73.5209	42.4805	74.0486	42.4805	73.3979	42.4805	74.1691	42.4805	73.2849	42.4805	74.2759	42.4805	73.1843	42.4805	74.3644	42.4805	73.0979	42.4805	74.4305	42.4805	73.027	42.4805	74.4708	42.4805	72.9727	42.4805	74.4829	42.4805	72.9356	42.4805	74.4655	42.4805	72.9163	42.4805	74.4187	42.4805	72.9152	42.4805	74.3443	42.4805	72.9325	42.4805	74.2451	42.4805	72.9685	42.4805	74.1255	42.4805	73.0233	42.4805	73.9909	42.4805	73.0968	42.4805	73.8473	42.4805	73.1885	42.4805	73.7006	42.4805	73.2973	42.4805	73.5569	42.4805	73.421
43.9453	74.3923	43.9453	74.262	43.9453	74.5214	43.9453	74.1342	43.9453	74.6451	43.9453	74.0125	43.9453	74.7589	43.9453	73.8997	43.9453	74.8584	43.9453	73.7982	43.9453	74.9393	43.9453	73.71	43.9453	74.9977	43.9453	73.6365	43.9453	75.0306	43.9453	73.5788	43.9453	75.0358	43.9453	73.5378	43.9453	75.0122	43.9453	73.5139	43.9453	74.9603	43.9453	73.5078	43.9453	74.8819	43.9453	73.5196	43.9453	74.7802	43.9453	73.5498	43.9453	74.6595	43.9453	73.5984	43.9453	74.5254	43.9453	73.6654	43.9453	74.3837	43.9453	73.7506	43.9453	74.2404	43.9453	73.8529	43.9453	74.1011	43.9453	73.9706
45.4102	74.8732	45.4102	74.7467	45.4102	74.9981	45.4102	74.6226	45.4102	75.1175	45.4102	74.5041	45.4102	75.2269	45.4102	74.3941	45.4102	75.3222	45.4102	74.2951	45.4102	75.3991	45.4102	74.2088	45.4102	75.454	45.4102	74.1367	45.4102	75.4839	45.4102	74.08	45.4102	75.4868	45.4102	74.0395	45.4102	75.4619	45.4102	74.0155	45.4102	75.4095	45.4102	74.0086	45.4102	75.3317	45.4102	74.0191	45.4102	75.2315	45.4102	74.0471	45.4102	75.1135	45.4102	74.0928	45.4102	74.9828	45.4102	74.1563	45.4102	74.8453	45.4102	74.2373	45.4102	74.7068	45.4102	74.3349	45.4102	74.5727	45.4102	74.4475
46.875	75.2722	46.875	75.1481	46.875	75.3947	46.875	75.026	46.875	75.5113	46.875	74.9093	46.875	75.6178	46.875	74.801	46.875	75.71	46.875	74.7036	46.875	75.7839	46.875	74.6189	46.875	75.836	46.875	74.5485	46.875	75.8635	46.875	74.4934	46.875	75.8646	46.875	74.4543	46.875	75.8386	46.875	74.4318	46.875	75.7861	46.875	74.4259	46.875	75.7091	46.875	74.437	46.875	75.6109	46.875	74.465	46.875	75.4958	46.875	74.5099	46.875	75.369	46.875	74.5718	46.875	75.236	46.875	74.6502	46.875	75.1024	46.875	74.7443	46.875	74.9732	46.875	74.8528
48.3398	75.6658	48.3398	75.5429	48.3398	75.786	48.3398	75.4211	48.3398	75.8993	48.3398	75.3039	48.3398	76.0017	48.3398	75.1944	48.3398	76.089	48.3398	75.0952	48.3398	76.1574	48.3398	75.0083	48.3398	76.2037	48.3398	74.9353	48.3398	76.2251	48.3398	74.8774	48.3398	76.2203	48.3398	74.8354	48.3398	76.1888	48.3398	74.8097	48.3398	76.1314	48.3398	74.8007	48.3398	76.0504	48.3398	74.8082	48.3398	75.9493	48.3398	74.8326	48.3398	75.8326	48.3398	74.8736	48.3398	75.7055	48.3398	74.9312	48.3398	75.5735	48.3398	75.0053	48.3398	75.442	48.3398	75.095	48.3398	75.3159	48.3398	75.1992
51.2695	76.2327	51.2695	76.1109	51.2695	76.3487	51.2695	75.9875	51.2695	76.4548	51.2695	75.8661	51.2695	76.5469	51.2695	75.7502	51.2695	76.6211	51.2695	75.6428	51.2695	76.6738	51.2695	75.5463	51.2695	76.7022	51.2695	75.4629	51.2695	76.7044	51.2695	75.3941	51.2695	76.6795	51.2695	75.3409	51.2695	76.6281	51.2695	75.3039	51.2695	76.552	51.2695	75.2836	51.2695	76.4546	51.2695	75.2798	51.2695	76.3403	51.2695	75.2927	51.2695	76.2145	51.2695	75.3219	51.2695	76.0828	51.2695	75.3674	51.2695	75.9508	51.2695	75.4289	51.2695	75.8235	51.2695	75.5062	51.2695	75.7052	51.2695	75.5987
52.7344	76.5406	52.7344	76.4191	52.7344	76.6561	52.7344	76.2955	52.7344	76.7613	52.7344	76.1737	52.7344	76.8521	52.7344	76.0571	52.7344	76.9246	52.7344	75.949	52.7344	76.9754	52.7344	75.8519	52.7344	77.0019	52.7344	75.7679	52.7344	77.0022	52.7344	75.6986	52.7344	76.9756	52.7344	75.6451	52.7344	76.9228	52.7344	75.608	52.7344	76.8458	52.7344	75.5877	52.7344	76.748	52.7344	75.5841	52.7344	76.6339	52.7344	75.5971	52.7344	76.5088	52.7344	75.6263	52.7344	76.3783	52.7344	75.6716	52.7344	76.2478	52.7344	75.7327	52.7344	76.1222	52.7344	75.8092	52.7344	76.0055	52.7344	75.9005
54.1992	76.8746	54.1992	76.7536	54.1992	76.989	54.1992	76.6302	54.1992	77.0926	54.1992	76.5081	54.1992	77.1814	54.1992	76.3911	54.1992	77.2516	54.1992	76.2823	54.1992	77.2999	54.1992	76.1845	54.1992	77.3237	54.1992	76.0998	54.1992	77.3214	54.1992	76.0299	54.1992	77.2926	54.1992	75.976	54.1992	77.238	54.1992	75.9387	54.1992	77.1599	54.1992	75.9182	54.1992	77.0616	54.1992	75.9145	54.1992	76.9478	54.1992	75.9272	54.1992	76.8236	54.1992	75.956	54.1992	76.6946	54.1992	76.0006	54.1992	76.5661	54.1992	76.0607	54.1992	76.4427	54.1992	76.1358	54.1992	76.3282	54.1992	76.2253
55.6641	77.2108	55.6641	77.0924	55.6641	77.3222	55.6641	76.9713	55.6641	77.4226	55.6641	76.8512	55.6641	77.508	55.6641	76.7358	55.6641	77.5749	55.6641	76.6283	55.6641	77.6199	55.6641	76.5316	55.6641	77.6408	55.6641	76.4478	55.6641	77.6361	55.6641	76.3787	55.6641	77.6055	55.6641	76.3254	55.6641	77.5499	55.6641	76.2884	55.6641	77.4716	55.6641	76.2681	55.6641	77.3742	55.6641	76.2641	55.6641	77.2622	55.6641	76.2762	55.6641	77.1407	55.6641	76.3039	55.6641	77.0152	55.6641	76.3468	55.6641	76.8907	55.6641	76.4045	55.6641	76.7716	55.6641	76.4766	55.6641	76.6614	55.6641	76.5625
58.5938	77.8748	58.5938	77.7588	58.5938	77.9832	58.5938	77.6391	58.5938	78.0799	58.5938	77.5199	58.5938	78.1609	58.5938	77.4047	58.5938	78.2228	58.5938	77.297	58.5938	78.2627	58.5938	77.1996	58.5938	78.2785	58.5938	77.115	58.5938	78.2688	58.5938	77.0448	58.5938	78.2338	58.5938	76.9903	58.5938	78.1747	58.5938	76.9522	58.5938	78.0939	58.5938	76.9304	58.5938	77.9952	58.5938	76.9249	58.5938	77.8832	58.5938	76.935	58.5938	77.7632	58.5938	76.9604	58.5938	77.6402	58.5938	77.0004	58.5938	77.5192	58.5938	77.0547	58.5938	77.4044	58.5938	77.1229	58.5938	77.2987	58.5938	77.2045
60.0586	78.1908	60.0586	78.0748	60.0586	78.299	60.0586	77.9551	60.0586	78.3953	60.0586	77.8357	60.0586	78.4759	60.0586	77.7205	60.0586	78.5373	60.0586	77.6129	60.0586	78.5767	60.0586	77.5159	60.0586	78.5921	60.0586	77.4319	60.0586	78.5824	60.0586	77.3628	60.0586	78.5476	60.0586	77.3097	60.0586	78.4892	60.0586	77.2733	60.0586	78.4096	60.0586	77.2535	60.0586	78.3126	60.0586	77.25	60.0586	78.2027	60.0586	77.2622	60.0586	78.085	60.0586	77.2895	60.0586	77.9646	60.0586	77.331	60.0586	77.8461	60.0586	77.3863	60.0586	77.7333	60.0586	77.4548	60.0586	77.6293	60.0586	77.536
62.9883	78.7852	62.9883	78.6715	62.9883	78.8901	62.9883	78.5533	62.9883	78.9824	62.9883	78.4345	62.9883	79.0583	62.9883	78.3193	62.9883	79.1146	62.9883	78.2113	62.9883	79.1489	62.9883	78.1137	62.9883	79.1594	62.9883	78.0292	62.9883	79.1456	62.9883	77.9599	62.9883	79.1077	62.9883	77.907	62.9883	79.0476	62.9883	77.8713	62.9883	78.9679	62.9883	77.8526	62.9883	78.8726	62.9883	77.8505	62.9883	78.7661	62.9883	77.8641	62.9883	78.6532	62.9883	77.8923	62.9883	78.5386	62.9883	77.9342	62.9883	78.4265	62.9883	77.9887	62.9883	78.3201	62.9883	78.0553	62.9883	78.2217	62.9883	78.1332
64.4531	79.0472	64.4531	78.9362	64.4531	79.1486	64.4531	78.8197	64.4531	79.2366	64.4531	78.7018	64.4531	79.3076	64.4531	78.5865	64.4531	79.3586	64.4531	78.4776	64.4531	79.3873	64.4531	78.3785	64.4531	79.3923	64.4531	78.2919	64.4531	79.3731	64.4531	78.22	64.4531	79.3304	64.4531	78.1644	64.4531	79.2662	64.4531	78.1258	64.4531	79.1833	64.4531	78.1042	64.4531	79.086	64.4531	78.0992	64.4531	78.9788	64.4531	78.1099	64.4531	78.8664	64.4531	78.1351	64.4531	78.7536	64.4531	78.1738	64.4531	78.6441	64.4531	78.225	64.4531	78.5411	64.4531	78.2879	64.4531	78.4466	64.4531	78.362
67.3828	79.6529	67.3828	79.5469	67.3828	79.7492	67.3828	79.4354	67.3828	79.8321	67.3828	79.3224	67.3828	79.8979	67.3828	79.2117	67.3828	79.9436	67.3828	79.1069	67.3828	79.967	67.3828	79.0113	67.3828	79.9665	67.3828	78.9272	67.3828	79.9418	67.3828	78.8568	67.3828	79.8937	67.3828	78.8011	67.3828	79.8244	67.3828	78.7608	67.3828	79.7372	67.3828	78.7359	67.3828	79.6364	67.3828	78.7257	67.3828	79.527	67.3828	78.7297	67.3828	79.4141	67.3828	78.7468	67.3828	79.3025	67.3828	78.7763	67.3828	79.1964	67.3828	78.8176	67.3828	79.0986	67.3828	78.8706	67.3828	79.0112	67.3828	78.9351
68.8477	79.9508	68.8477	79.844	68.8477	80.0479	68.8477	79.7318	68.8477	80.1314	68.8477	79.6183	68.8477	80.1979	68.8477	79.5073	68.8477	80.2443	68.8477	79.4027	68.8477	80.2683	68.8477	79.3077	68.8477	80.2685	68.8477	79.2248	68.8477	80.2446	68.8477	79.156	68.8477	80.1977	68.8477	79.1025	68.8477	80.1298	68.8477	79.0648	68.8477	80.0443	68.8477	79.0426	68.8477	79.9455	68.8477	79.0355	68.8477	79.8383	68.8477	79.0423	68.8477	79.7277	68.8477	79.062	68.8477	79.6184	68.8477	79.0938	68.8477	79.5143	68.8477	79.1369	68.8477	79.4181	68.8477	79.191	68.8477	79.3317	68.8477	79.2559
71.7773	80.5594	71.7773	80.4531	71.7773	80.6557	71.7773	80.3409	71.7773	80.7379	71.7773	80.2271	71.7773	80.8027	71.7773	80.1159	71.7773	80.847	71.7773	80.0111	71.7773	80.8687	71.7773	79.9162	71.7773	80.8668	71.7773	79.8339	71.7773	80.8411	71.7773	79.7662	71.7773	80.7929	71.7773	79.7143	71.7773	80.7245	71.7773	79.6786	71.7773	80.6395	71.7773	79.6589	71.7773	80.5423	71.7773	79.6542	71.7773	80.4377	71.7773	79.6633	71.7773	80.3305	71.7773	79.6849	71.7773	80.2253	71.7773	79.7179	71.7773	80.1254	71.7773	79.7612	71.7773	80.0334	71.7773	79.8146	71.7773	79.9506	71.7773	79.8777
74.707	81.0282	74.707	80.9227	74.707	81.1229	74.707	80.8108	74.707	81.203	74.707	80.6969	74.707	81.2651	74.707	80.5852	74.707	81.3063	74.707	80.4799	74.707	81.3247	74.707	80.3845	74.707	81.3195	74.707	80.3019	74.707	81.2909	74.707	80.2344	74.707	81.2403	74.707	80.183	74.707	81.1704	74.707	80.1483	74.707	81.085	74.707	80.1297	74.707	80.9884	74.707	80.1263	74.707	80.8856	74.707	80.1366	74.707	80.7814	74.707	80.159	74.707	80.6799	74.707	80.1922	74.707	80.5841	74.707	80.2351	74.707	80.4963	74.707	80.2869	74.707	80.4174	74.707	80.3477
77.6367	81.4145	77.6367	81.3097	77.6367	81.508	77.6367	81.1978	77.6367	81.5863	77.6367	81.0835	77.6367	81.6459	77.6367	80.9712	77.6367	81.6842	77.6367	80.8651	77.6367	81.6995	77.6367	80.769	77.6367	81.691	77.6367	80.6859	77.6367	81.6593	77.6367	80.6181	77.6367	81.606	77.6367	80.5668	77.6367	81.5341	77.6367	80.5325	77.6367	81.4474	77.6367	80.5146	77.6367	81.3507	77.6367	80.5119	77.6367	81.2489	77.6367	80.5227	77.6367	81.1466	77.6367	80.5455	77.6367	81.0478	77.6367	80.5784	77.6367	80.9554	77.6367	80.6203	77.6367	80.8711	77.6367	80.6705	77.6367	80.7956	77.6367	80.7289
79.1016	81.6503	79.1016	81.5458	79.1016	81.7433	79.1016	81.434	79.1016	81.8208	79.1016	81.3196	79.1016	81.8795	79.1016	81.2071	79.1016	81.9167	79.1016	81.1008	79.1016	81.9307	79.1016	81.0047	79.1016	81.9211	79.1016	80.9217	79.1016	81.8883	79.1016	80.8542	79.1016	81.8342	79.1016	80.8036	79.1016	81.7619	79.1016	80.7701	79.1016	81.6753	79.1016	80.7531	79.1016	81.5791	79.1016	80.7514	79.1016	81.4784	79.1016	80.7632	79.1016	81.3776	79.1016	80.7866	79.1016	81.2807	79.1016	80.8199	79.1016	81.1903	79.1016	80.8618	79.1016	81.108	79.1016	80.9116	79.1016	81.0343	79.1016	80.9689
82.0312	82.0818	82.0312	81.9772	82.0312	82.1742	82.0312	81.865	82.0312	82.2505	82.0312	81.7496	82.0312	82.3075	82.0312	81.636	82.0312	82.3426	82.0312	81.5286	82.0312	82.3543	82.0312	81.4315	82.0312	82.3424	82.0312	81.348	82.0312	82.3075	82.0312	81.2806	82.0312	82.2519	82.0312	81.2306	82.0312	82.1786	82.0312	81.1983	82.0312	82.092	82.0312	81.1831	82.0312	81.9968	82.0312	81.1834	82.0312	81.8979	82.0312	81.1974	82.0312	81.7998	82.0312	81.2227	82.0312	81.7061	82.0312	81.2574	82.0312	81.6191	82.0312	81.3	82.0312	81.5401	82.0312	81.3496	82.0312	81.4691	82.0312	81.4058
84.9609	82.3404	84.9609	82.2355	84.9609	82.4323	84.9609	82.1221	84.9609	82.5074	84.9609	82.0049	84.9609	82.5624	84.9609	81.8888	84.9609	82.5952	84.9609	81.7785	84.9609	82.6045	84.9609	81.6786	84.9609	82.5902	84.9609	81.5926	84.9609	82.5534	84.9609	81.5232	84.9609	82.4964	84.9609	81.4721	84.9609	82.4227	84.9609	81.4397	84.9609	82.3366	84.9609	81.4253	84.9609	82.2428	84.9609	81.4274	84.9609	82.146	84.9609	81.4438	84.9609	82.0506	84.9609	81.472	84.9609	81.9596	84.9609	81.5097	84.9609	81.875	84.9609	81.555	84.9609	81.7978	84.9609	81.6067	84.9609	81.7277	84.9609	81.6642
87.8906	82.5808	87.8906	82.4837	87.8906	82.6643	87.8906	82.3773	87.8906	82.7305	87.8906	82.2663	87.8906	82.7763	87.8906	82.1555	87.8906	82.7999	87.8906	82.0496	87.8906	82.8001	87.8906	81.953	87.8906	82.7773	87.8906	81.8694	87.8906	82.733	87.8906	81.8014	87.8906	82.6701	87.8906	81.7507	87.8906	82.5926	87.8906	81.7178	87.8906	82.5051	87.8906	81.702	87.8906	82.4128	87.8906	81.7018	87.8906	82.3205	87.8906	81.7149	87.8906	82.2322	87.8906	81.7388	87.8906	82.1506	87.8906	81.7709	87.8906	82.0769	87.8906	81.8092	87.8906	82.0113	87.8906	81.8525	87.8906	81.9528	87.8906	81.9002
90.8203	82.9482	90.8203	82.8529	90.8203	83.0281	90.8203	82.7468	90.8203	83.0889	90.8203	82.6347	90.8203	83.1276	90.8203	82.5217	90.8203	83.1422	90.8203	82.4128	90.8203	83.1323	90.8203	82.3127	90.8203	83.0985	90.8203	82.2252	90.8203	83.043	90.8203	82.1532	90.8203	82.9695	90.8203	82.0987	90.8203	82.8828	90.8203	82.0622	90.8203	82.7883	90.8203	82.0431	90.8203	82.6919	90.8203	82.0397	90.8203	82.5985	90.8203	82.0497	90.8203	82.5121	90.8203	82.0703	90.8203	82.435	90.8203	82.0987	90.8203	82.3676	90.8203	82.1327	90.8203	82.3092	90.8203	82.1708	90.8203	82.2581	90.8203	82.2124
95.2148	83.1082	95.2148	83.0091	95.2148	83.1911	95.2148	82.8984	95.2148	83.2538	95.2148	82.7812	95.2148	83.2936	95.2148	82.6629	95.2148	83.3085	95.2148	82.5488	95.2148	83.2981	95.2148	82.4439	95.2148	83.2632	95.2148	82.3525	95.2148	83.2063	95.2148	82.2777	95.2148	83.131	95.2148	82.2215	95.2148	83.0424	95.2148	82.1847	95.2148	82.9461	95.2148	82.1665	95.2148	82.8478	95.2148	82.1651	95.2148	82.7527	95.2148	82.1777	95.2148	82.6646	95.2148	82.2014	95.2148	82.5859	95.2148	82.2331	95.2148	82.5169	95.2148	82.2703	95.2148	82.4567	95.2148	82.3114	95.2148	82.4036	95.2148	82.3556
98.1445	83.1476	98.1445	83.0479	98.1445	83.2305	98.1445	82.936	98.1445	83.2928	98.1445	82.8171	98.1445	83.3314	98.1445	82.697	98.1445	83.3448	98.1445	82.581	98.1445	83.3326	98.1445	82.4744	98.1445	83.296	98.1445	82.3817	98.1445	83.2374	98.1445	82.3064	98.1445	83.1611	98.1445	82.2504	98.1445	83.0719	98.1445	82.2145	98.1445	82.9759	98.1445	82.1979	98.1445	82.8787	98.1445	82.1987	98.1445	82.7853	98.1445	82.2138	98.1445	82.6996	98.1445	82.24	98.1445	82.6234	98.1445	82.274	98.1445	82.5569	98.1445	82.313	98.1445	82.4988	98.1445	82.3552	98.1445	82.4471	98.1445	82.3997
101.074	83.2394	101.074	83.1387	101.074	83.3223	101.074	83.0249	101.074	83.3835	101.074	82.9033	101.074	83.4201	101.074	82.7797	101.074	83.4307	101.074	82.66	101.074	83.415	101.074	82.5496	101.074	83.3745	101.074	82.4532	101.074	83.3121	101.074	82.3747	101.074	83.2319	101.074	82.3164	101.074	83.1395	101.074	82.279	101.074	83.041	101.074	82.2617	101.074	82.9422	101.074	82.2626	101.074	82.8483	101.074	82.2785	101.074	82.7628	101.074	82.3057	101.074	82.6876	101.074	82.3409	101.074	82.6224	101.074	82.3809	101.074	82.5656	101.074	82.4236	101.074	82.5149	101.074	82.4681
105.469	83.228	105.469	83.1296	105.469	83.3073	105.469	83.0166	105.469	83.3635	105.469	82.8944	105.469	83.3941	105.469	82.7689	105.469	83.3977	105.469	82.646	105.469	83.3743	105.469	82.5313	105.469	83.3255	105.469	82.4298	105.469	83.2546	105.469	82.3455	105.469	83.1662	105.469	82.281	105.469	83.0663	105.469	82.2374	105.469	82.9613	105.469	82.2141	105.469	82.8575	105.469	82.2094	105.469	82.7603	105.469	82.2201	105.469	82.6732	105.469	82.2426	105.469	82.598	105.469	82.2734	105.469	82.5342	105.469	82.3093	105.469	82.4798	105.469	82.3481	105.469	82.4322	105.469	82.3889
108.398	83.1823	108.398	83.0853	108.398	83.2605	108.398	82.9743	108.398	83.316	108.398	82.8548	108.398	83.3459	108.398	82.7326	108.398	83.3487	108.398	82.6137	108.398	83.3246	108.398	82.5036	108.398	83.2751	108.398	82.4071	108.398	83.2036	108.398	82.328	108.398	83.1149	108.398	82.2686	108.398	83.015	108.398	82.2294	108.398	82.9107	108.398	82.2098	108.398	82.8085	108.398	82.2074	108.398	82.7138	108.398	82.2191	108.398	82.6303	108.398	82.2412	108.398	82.5596	108.398	82.2701	108.398	82.501	108.398	82.3028	108.398	82.4523	108.398	82.3372	108.398	82.4106	108.398	82.3729
112.793	83.1015	112.793	82.9985	112.793	83.1854	112.793	82.8815	112.793	83.2459	112.793	82.7566	112.793	83.2801	112.793	82.6301	112.793	83.2865	112.793	82.5085	112.793	83.265	112.793	82.3979	112.793	83.2175	112.793	82.3034	112.793	83.1476	112.793	82.2287	112.793	83.0602	112.793	82.1759	112.793	82.9618	112.793	82.1453	112.793	82.8592	112.793	82.1353	112.793	82.7592	112.793	82.143	112.793	82.6673	112.793	82.1644	112.793	82.587	112.793	82.195	112.793	82.5198	112.793	82.2309	112.793	82.4647	112.793	82.2685	112.793	82.419	112.793	82.3059	112.793	82.3794	112.793	82.3425
117.188	82.8553	117.188	82.7393	117.188	82.9498	117.188	82.607	117.188	83.0186	117.188	82.4649	117.188	83.0592	117.188	82.3202	117.188	83.0703	117.188	82.1805	117.188	83.0527	117.188	82.0532	117.188	83.0086	117.188	81.9446	117.188	82.9419	117.188	81.8599	117.188	82.858	117.188	81.8022	117.188	82.763	117.188	81.7721	117.188	82.6635	117.188	81.7681	117.188	82.5658	117.188	81.7867	117.188	82.4746	117.188	81.8229	117.188	82.3929	117.188	81.8714	117.188	82.3214	117.188	81.9266	117.188	82.2588	117.188	81.9842	117.188	82.2024	117.188	82.0412	117.188	82.1492	117.188	82.096
120.117	82.8436	120.117	82.7398	120.117	82.923	120.117	82.6165	120.117	82.9746	120.117	82.4797	120.117	82.9964	120.117	82.3363	120.117	82.988	120.117	82.1936	120.117	82.9507	120.117	82.0591	120.117	82.8879	120.117	81.9398	120.117	82.8044	120.117	81.8417	120.117	82.7066	120.117	81.7689	120.117	82.6016	120.117	81.7233	120.117	82.4968	120.117	81.7046	120.117	82.3985	120.117	81.7103	120.117	82.311	120.117	81.7359	120.117	82.2363	120.117	81.7762	120.117	82.1739	120.117	81.8253	120.117	82.1209	120.117	81.8781	120.117	82.0735	120.117	81.9307	120.117	82.0278	120.117	81.9807
124.512	82.8749	124.512	82.7714	124.512	82.955	124.512	82.6501	124.512	83.0078	124.512	82.5172	124.512	83.0304	124.512	82.38	124.512	83.0219	124.512	82.2456	124.512	82.9831	124.512	82.1212	124.512	82.9169	124.512	82.0132	124.512	82.828	124.512	81.9265	124.512	82.7232	124.512	81.8642	124.512	82.6102	124.512	81.8273	124.512	82.4975	124.512	81.8144	124.512	82.3926	124.512	81.8223	124.512	82.3015	124.512	81.8461	124.512	82.227	124.512	81.8803	124.512	82.1691	124.512	81.9196	124.512	82.1252	124.512	81.9594	124.512	82.0906	124.512	81.9966	124.512	82.0603	124.512	82.0299
128.906	82.7034	128.906	82.5921	128.906	82.7896	128.906	82.4612	128.906	82.8462	128.906	82.3175	128.906	82.8707	128.906	82.1688	128.906	82.8622	128.906	82.023	128.906	82.8216	128.906	81.8882	128.906	82.752	128.906	81.7716	128.906	82.6587	128.906	81.6789	128.906	82.5488	128.906	81.6138	128.906	82.4306	128.906	81.5774	128.906	82.3131	128.906	81.5682	128.906	82.2044	128.906	81.5823	128.906	82.1105	128.906	81.614	128.906	82.0346	128.906	81.657	128.906	81.9763	128.906	81.7049	128.906	81.9323	128.906	81.7523	128.906	81.8975	128.906	81.7956	128.906	81.8661	128.906	81.8332
133.301	82.5616	133.301	82.45	133.301	82.6467	133.301	82.3173	133.301	82.7014	133.301	82.1703	133.301	82.7229	133.301	82.0164	133.301	82.7104	133.301	81.8636	133.301	82.665	133.301	81.7199	133.301	82.5897	133.301	81.593	133.301	82.4897	133.301	81.4889	133.301	82.372	133.301	81.4119	133.301	82.245	133.301	81.3639	133.301	82.1179	133.301	81.344	133.301	81.999	133.301	81.3488	133.301	81.895	133.301	81.3731	133.301	81.8095	133.301	81.4105	133.301	81.7427	133.301	81.4545	133.301	81.6916	133.301	81.4997	133.301	81.6512	133.301	81.5423	133.301	81.6159	133.301	81.5807
139.16	82.2542	139.16	82.1362	139.16	82.3455	139.16	81.9975	139.16	82.4057	139.16	81.8452	139.16	82.4323	139.16	81.6874	139.16	82.4244	139.16	81.5327	139.16	82.3832	139.16	81.3899	139.16	82.312	139.16	81.2667	139.16	82.2162	139.16	81.1693	139.16	82.103	139.16	81.1015	139.16	81.981	139.16	81.0645	139.16	81.8591	139.16	81.0564	139.16	81.7455	139.16	81.0729	139.16	81.6465	139.16	81.1078	139.16	81.5652	139.16	81.1542	139.16	81.5017	139.16	81.2055	139.16	81.4529	139.16	81.256	139.16	81.4138	139.16	81.3021	139.16	81.3787	139.16	81.3427
143.555	82.1182	143.555	81.9955	143.555	82.2118	143.555	81.8495	143.555	82.272	143.555	81.6875	143.555	82.2967	143.555	81.5183	143.555	82.2854	143.555	81.3512	143.555	82.2402	143.555	81.1958	143.555	82.1649	143.555	81.061	143.555	82.0656	143.555	80.9541	143.555	81.9501	143.555	80.88	143.555	81.8272	143.555	80.8403	143.555	81.7059	143.555	80.8332	143.555	81.5943	143.555	80.8541	143.555	81.4977	143.555	80.8963	143.555	81.4187	143.555	80.952	143.555	81.3562	143.555	81.0135	143.555	81.3066	143.555	81.0747	143.555	81.2645	143.555	81.131	143.555	81.2241	143.555	81.1806
147.949	82.0861	147.949	81.9719	147.949	82.1682	147.949	81.8312	147.949	82.2147	147.949	81.6711	147.949	82.2239	147.949	81.5001	147.949	82.1964	147.949	81.3275	147.949	82.1349	147.949	81.1634	147.949	82.0449	147.949	81.0172	147.949	81.9339	147.949	80.8973	147.949	81.8112	147.949	80.81	147.949	81.6868	147.949	80.7585	147.949	81.5702	147.949	80.7426	147.949	81.4688	147.949	80.7585	147.949	81.3866	147.949	80.8001	147.949	81.3237	147.949	80.8593	147.949	81.2763	147.949	80.9276	147.949	81.2385	147.949	80.9973	147.949	81.2034	147.949	81.062	147.949	81.1647	147.949	81.1182
153.809	81.9697	153.809	81.8498	153.809	82.0569	153.809	81.7027	153.809	82.1075	153.809	81.5356	153.809	82.1194	153.809	81.3569	153.809	82.0925	153.809	81.1759	153.809	82.0294	153.809	81.0025	153.809	81.9345	153.809	80.8464	153.809	81.8151	153.809	80.7163	153.809	81.6803	153.809	80.619	153.809	81.5404	153.809	80.5584	153.809	81.4062	153.809	80.5348	153.809	81.2865	153.809	80.545	153.809	81.1874	153.809	80.5826	153.809	81.1104	153.809	80.6392	153.809	81.0532	153.809	80.7056	153.809	81.0098	153.809	80.7735	153.809	80.9728	153.809	80.8363	153.809	80.9348	153.809	80.8902
159.668	81.6737	159.668	81.5617	159.668	81.754	159.668	81.4236	159.668	81.7987	159.668	81.2663	159.668	81.8059	159.668	81.0981	159.668	81.7761	159.668	80.9281	159.668	81.7116	159.668	80.7657	159.668	81.6174	159.668	80.62	159.668	81.5006	159.668	80.499	159.668	81.3702	159.668	80.4087	159.668	81.2363	159.668	80.3523	159.668	81.1088	159.668	80.3298	159.668	80.996	159.668	80.338	159.668	80.9032	159.668	80.371	159.668	80.8318	159.668	80.4208	159.668	80.7795	159.668	80.4792	159.668	80.7409	159.668	80.5386	159.668	80.7089	159.668	80.5929	159.668	80.6768	159.668	80.639
165.527	81.3846	165.527	81.2546	165.527	81.4779	165.527	81.0941	165.527	81.5307	165.527	80.9112	165.527	81.5416	165.527	80.7161	165.527	81.5116	165.527	80.52	165.527	81.4444	165.527	80.3351	165.527	81.3463	165.527	80.1731	165.527	81.2259	165.527	80.0439	165.527	81.0933	165.527	79.9545	165.527	80.9595	165.527	79.9081	165.527	80.8345	165.527	79.9029	165.527	80.7261	165.527	79.9336	165.527	80.6385	165.527	79.9914	165.527	80.5717	165.527	80.0661	165.527	80.5219	165.527	80.1478	165.527	80.4828	165.527	80.2275	165.527	80.4471	165.527	80.2992	165.527	80.4076	165.527	80.3593
171.387	81.334	171.387	81.2237	171.387	81.4048	171.387	81.0791	171.387	81.4328	171.387	80.9071	171.387	81.4165	171.387	80.716	171.387	81.3568	171.387	80.5155	171.387	81.2571	171.387	80.3164	171.387	81.1236	171.387	80.1301	171.387	80.9655	171.387	79.9677	171.387	80.7945	171.387	79.8387	171.387	80.6239	171.387	79.7497	171.387	80.4668	171.387	79.7032	171.387	80.334	171.387	79.6968	171.387	80.2317	171.387	79.7239	171.387	80.1605	171.387	79.7747	171.387	80.1155	171.387	79.8381	171.387	80.0876	171.387	79.9033	171.387	80.0664	171.387	79.9619	171.387	80.0424	171.387	80.0086
177.246	81.2404	177.246	81.1184	177.246	81.3238	177.246	80.9639	177.246	81.3649	177.246	80.7844	177.246	81.3619	177.246	80.5893	177.246	81.3157	177.246	80.3891	177.246	81.2296	177.246	80.1952	177.246	81.1099	177.246	80.0186	177.246	80.9651	177.246	79.8697	177.246	80.8063	177.246	79.7565	177.246	80.6454	177.246	79.6835	177.246	80.4943	177.246	79.6515	177.246	80.3629	177.246	79.6566	177.246	80.257	177.246	79.6915	177.246	80.1781	177.246	79.7465	177.246	80.1227	177.246	79.8114	177.246	80.084	177.246	79.8767	177.246	80.0532	177.246	79.9355	177.246	80.022	177.246	79.984
183.105	81.1409	183.105	81.0177	183.105	81.2233	183.105	80.8598	183.105	81.2611	183.105	80.6752	183.105	81.253	183.105	80.4739	183.105	81.2002	183.105	80.2672	183.105	81.1071	183.105	80.0674	183.105	80.9806	183.105	79.887	183.105	80.8307	183.105	79.7371	183.105	80.6695	183.105	79.6267	183.105	80.51	183.105	79.5606	183.105	80.3646	183.105	79.539	183.105	80.2429	183.105	79.5571	183.105	80.15	183.105	79.6062	183.105	80.0858	183.105	79.6751	183.105	80.0453	183.105	79.752	183.105	80.0199	183.105	79.8264	183.105	79.9997	183.105	79.8906	183.105	79.9755	183.105	79.9404
188.965	81.1169	188.965	80.9922	188.965	81.1976	188.965	80.8293	188.965	81.2306	188.965	80.6364	188.965	81.2147	188.965	80.4236	188.965	81.1515	188.965	80.2024	188.965	81.0456	188.965	79.9859	188.965	80.9048	188.965	79.7874	188.965	80.7397	188.965	79.6196	188.965	80.5636	188.965	79.4928	188.965	80.3906	188.965	79.4134	188.965	80.2343	188.965	79.3825	188.965	80.1051	188.965	79.396	188.965	80.0084	188.965	79.4446	188.965	79.9436	188.965	79.5164	188.965	79.9044	188.965	79.5982	188.965	79.881	188.965	79.6782	188.965	79.8623	188.965	79.7475	188.965	79.8381	188.965	79.8011
196.289	80.9624	196.289	80.8347	196.289	81.0438	196.289	80.6664	196.289	81.0753	196.289	80.4663	196.289	81.0566	196.289	80.2453	196.289	80.9904	196.289	80.0163	196.289	80.8828	196.289	79.794	196.289	80.7433	196.289	79.5937	196.289	80.5846	196.289	79.4298	196.289	80.4213	196.289	79.3139	196.289	80.2685	196.289	79.2529	196.289	80.1391	196.289	79.2472	196.289	80.0415	196.289	79.2907	196.289	79.978	196.289	79.3719	196.289	79.9441	196.289	79.4761	196.289	79.9306	196.289	79.5879	196.289	79.9256	196.289	79.6938	196.289	79.9169	196.289	79.7834	196.289	79.8943	196.289	79.8508
203.613	80.9576	203.613	80.8343	203.613	81.0283	203.613	80.6646	203.613	81.0429	203.613	80.4565	203.613	81.0003	203.613	80.2203	203.613	80.9026	203.613	79.9683	203.613	80.7555	203.613	79.7148	203.613	80.5683	203.613	79.4753	203.613	80.355	203.613	79.2658	203.613	80.1326	203.613	79.1007	203.613	79.9204	203.613	78.9906	203.613	79.7368	203.613	78.9401	203.613	79.5954	203.613	78.946	203.613	79.5021	203.613	78.9982	203.613	79.4537	203.613	79.0815	203.613	79.439	203.613	79.1787	203.613	79.4422	203.613	79.2735	203.613	79.4468	203.613	79.3528	203.613	79.4388	203.613	79.4087
210.938	80.8525	210.938	80.7384	210.938	80.9121	210.938	80.576	210.938	80.9135	210.938	80.3734	210.938	80.8554	210.938	80.1406	210.938	80.7396	210.938	79.8892	210.938	80.5715	210.938	79.6329	210.938	80.361	210.938	79.3863	210.938	80.1223	210.938	79.1649	210.938	79.8739	210.938	78.983	210.938	79.6368	210.938	78.852	210.938	79.4318	210.938	78.7779	210.938	79.2746	210.938	78.7594	210.938	79.1724	210.938	78.7884	210.938	79.1219	210.938	78.8509	210.938	79.1108	210.938	78.9301	210.938	79.1215	210.938	79.0095	210.938	79.1358	210.938	79.0756	210.938	79.1384	210.938	79.1196
218.262	80.8393	218.262	80.7276	218.262	80.9027	218.262	80.5745	218.262	80.9129	218.262	80.3883	218.262	80.8676	218.262	80.1788	218.262	80.7674	218.262	79.957	218.262	80.6158	218.262	79.7342	218.262	80.4204	218.262	79.522	218.262	80.1927	218.262	79.3316	218.262	79.9483	218.262	79.1733	218.262	79.7058	218.262	79.0545	218.262	79.4848	218.262	78.9791	218.262	79.3028	218.262	78.9461	218.262	79.1715	218.262	78.9494	218.262	79.0935	218.262	78.9784	218.262	79.062	218.262	79.0201	218.262	79.0635	218.262	79.0612	218.262	79.0809	218.262	79.0912	218.262	79.0983	218.262	79.1037
225.586	80.5609	225.586	80.4227	225.586	80.6487	225.586	80.2426	225.586	80.6805	225.586	80.0319	225.586	80.6541	225.586	79.8037	225.586	80.5707	225.586	79.5728	225.586	80.4358	225.586	79.3545	225.586	80.2586	225.586	79.1633	225.586	80.0527	225.586	79.0118	225.586	79.8353	225.586	78.9086	225.586	79.6256	225.586	78.8575	225.586	79.4427	225.586	78.8562	225.586	79.3018	225.586	78.897	225.586	79.2114	225.586	78.9674	225.586	79.1712	225.586	79.0524	225.586	79.1722	225.586	79.1367	225.586	79.1994	225.586	79.2071	225.586	79.2354	225.586	79.2538	225.586	79.2639	225.586	79.2724
232.91	80.6148	232.91	80.4551	232.91	80.7116	232.91	80.2406	232.91	80.7409	232.91	79.9824	232.91	80.7015	232.91	79.6946	232.91	80.5959	232.91	79.3943	232.91	80.4307	232.91	79.1005	232.91	80.2168	232.91	78.8336	232.91	79.9698	232.91	78.613	232.91	79.7092	232.91	78.4544	232.91	79.4573	232.91	78.3668	232.91	79.2362	232.91	78.3505	232.91	79.0639	232.91	78.3964	232.91	78.9503	232.91	78.4876	232.91	78.8949	232.91	78.6035	232.91	78.8865	232.91	78.7227	232.91	78.9071	232.91	78.827	232.91	78.9358	232.91	78.9033	232.91	78.9534	232.91	78.9452
241.699	80.553	241.699	80.3858	241.699	80.6538	241.699	80.1601	241.699	80.6829	241.699	79.887	241.699	80.6383	241.699	79.5807	241.699	80.5212	241.699	79.2581	241.699	80.3362	241.699	78.939	241.699	80.0923	241.699	78.6445	241.699	79.8031	241.699	78.3955	241.699	79.4878	241.699	78.2096	241.699	79.1711	241.699	78.0979	241.699	78.8808	241.699	78.0621	241.699	78.6443	241.699	78.0933	241.699	78.4816	241.699	78.1739	241.699	78.3992	241.699	78.2808	241.699	78.3877	241.699	78.3902	241.699	78.4248	241.699	78.4811	241.699	78.4821	241.699	78.5384	241.699	78.5323	241.699	78.5549
250.488	80.5536	250.488	80.3822	250.488	80.6523	250.488	80.1439	250.488	80.6758	250.488	79.8479	250.488	80.6253	250.488	79.507	250.488	80.5057	250.488	79.1378	250.488	80.3254	250.488	78.7609	250.488	80.0968	250.488	78.4003	250.488	79.8353	250.488	78.0814	250.488	79.5581	250.488	77.828	250.488	79.2834	250.488	77.6576	250.488	79.0274	250.488	77.5766	250.488	78.8033	250.488	77.5786	250.488	78.6197	250.488	77.6457	250.488	78.4796	250.488	77.7534	250.488	78.3801	250.488	77.8765	250.488	78.3128	250.488	77.994	250.488	78.2648	250.488	78.0925	250.488	78.221	250.488	78.1669
259.277	80.9289	259.277	80.809	259.277	80.977	259.277	80.6219	259.277	80.9504	259.277	80.3741	259.277	80.8489	259.277	80.0742	259.277	80.6751	259.277	79.7324	259.277	80.435	259.277	79.362	259.277	80.1392	259.277	78.9797	259.277	79.8034	259.277	78.6057	259.277	79.4486	259.277	78.264	259.277	79.1003	259.277	77.9793	259.277	78.7851	259.277	77.7724	259.277	78.526	259.277	77.6548	259.277	78.3366	259.277	77.6242	259.277	78.2169	259.277	77.6646	259.277	78.1538	259.277	77.7508	259.277	78.1257	259.277	77.8552	259.277	78.1086	259.277	77.9541	259.277	78.0817	259.277	78.0316
268.066	80.849	268.066	80.7178	268.066	80.9171	268.066	80.533	268.066	80.9155	268.066	80.3063	268.066	80.8404	268.066	80.0508	268.066	80.6923	268.066	79.7809	268.066	80.4762	268.066	79.5113	268.066	80.2029	268.066	79.2571	268.066	79.8895	268.066	79.0325	268.066	79.5601	268.066	78.8502	268.066	79.2439	268.066	78.7198	268.066	78.9716	268.066	78.6457	268.066	78.7689	268.066	78.6258	268.066	78.6496	268.066	78.6507	268.066	78.6113	268.066	78.7053	268.066	78.6368	268.066	78.7709	268.066	78.7001	268.066	78.829	268.066	78.7736	268.066	78.8641	268.066	78.8342	268.066	78.8665
276.855	80.5534	276.855	80.3436	276.855	80.6888	276.855	80.0698	276.855	80.7419	276.855	79.7454	276.855	80.7084	276.855	79.3871	276.855	80.5866	276.855	79.0146	276.855	80.3792	276.855	78.6507	276.855	80.0934	276.855	78.3207	276.855	79.7428	276.855	78.0496	276.855	79.3494	276.855	77.8588	276.855	78.9444	276.855	77.7608	276.855	78.5676	276.855	77.7551	276.855	78.2616	276.855	77.8275	276.855	78.0607	276.855	77.9524	276.855	77.9782	276.855	78.0991	276.855	78.0009	276.855	78.2371	276.855	78.0936	276.855	78.3409	276.855	78.213	276.855	78.3927	276.855	78.3196	276.855	78.3847
287.109	80.7085	287.109	80.5464	287.109	80.7954	287.109	80.3147	287.109	80.8049	287.109	80.0226	287.109	80.738	287.109	79.6822	287.109	80.5987	287.109	79.3093	287.109	80.3942	287.109	78.9227	287.109	80.1339	287.109	78.5445	287.109	79.8297	287.109	78.1995	287.109	79.4957	287.109	77.9133	287.109	79.1491	287.109	77.7082	287.109	78.8104	287.109	77.5975	287.109	78.5031	287.109	77.5799	287.109	78.2517	287.109	77.6385	287.109	78.0754	287.109	77.744	287.109	77.9815	287.109	77.8626	287.109	77.9598	287.109	77.9639	287.109	77.9848	287.109	78.027	287.109	78.0234	287.109	78.0445
297.363	81.0336	297.363	80.8701	297.363	81.1164	297.363	80.6333	297.363	81.1136	297.363	80.3327	297.363	81.0227	297.363	79.9794	297.363	80.8447	297.363	79.5865	297.363	80.5837	297.363	79.1688	297.363	80.2484	297.363	78.7444	297.363	79.8528	297.363	78.3343	297.363	79.4177	297.363	77.9636	297.363	78.9713	297.363	77.6581	297.363	78.5481	297.363	77.4402	297.363	78.1843	297.363	77.3217	297.363	77.9095	297.363	77.298	297.363	77.7369	297.363	77.3485	297.363	77.6582	297.363	77.4415	297.363	77.6468	297.363	77.5436	297.363	77.6669	297.363	77.6269	297.363	77.6844	297.363	77.6749
307.617	80.6744	307.617	80.4958	307.617	80.7903	307.617	80.2651	307.617	80.8363	307.617	79.9965	307.617	80.809	307.617	79.7062	307.617	80.7081	307.617	79.4118	307.617	80.536	307.617	79.1298	307.617	80.2978	307.617	78.8747	307.617	80.0014	307.617	78.6584	307.617	79.6584	307.617	78.4891	307.617	79.286	307.617	78.3721	307.617	78.909	307.617	78.3082	307.617	78.5607	307.617	78.2929	307.617	78.2784	307.617	78.3152	307.617	78.0941	307.617	78.358	307.617	78.0211	307.617	78.4003	307.617	78.0467	307.617	78.4213	307.617	78.1363	307.617	78.4049	307.617	78.2478	307.617	78.3448
319.336	80.4216	319.336	80.1795	319.336	80.583	319.336	79.8659	319.336	80.6599	319.336	79.4957	319.336	80.6518	319.336	79.0901	319.336	80.5609	319.336	78.6756	319.336	80.39	319.336	78.2816	319.336	80.1421	319.336	77.9369	319.336	79.8199	319.336	77.6654	319.336	79.4282	319.336	77.4822	319.336	78.977	319.336	77.3914	319.336	78.4876	319.336	77.3853	319.336	77.9986	319.336	77.4458	319.336	77.5669	319.336	77.5463	319.336	77.2567	319.336	77.6553	319.336	77.1129	319.336	77.7406	319.336	77.1346	319.336	77.7743	319.336	77.2735	319.336	77.7379	319.336	77.4589	319.336	77.6274
329.59	80.189	329.59	79.9212	329.59	80.3589	329.59	79.5593	329.59	80.4355	329.59	79.1172	329.59	80.4284	329.59	78.6218	329.59	80.35	329.59	78.1134	329.59	80.2124	329.59	77.643	329.59	80.0238	329.59	77.2624	329.59	79.7861	329.59	77.009	329.59	79.4947	329.59	76.893	329.59	79.1414	329.59	76.8954	329.59	78.7209	329.59	76.978	329.59	78.2405	329.59	77.0977	329.59	77.7306	329.59	77.2149	329.59	77.2498	329.59	77.2977	329.59	76.8763	329.59	77.3222	329.59	76.6753	329.59	77.2739	329.59	76.6611	329.59	77.1516	329.59	76.7867	329.59	76.974
341.309	80.8772	341.309	80.6912	341.309	80.9355	341.309	80.3638	341.309	80.8864	341.309	79.8886	341.309	80.7565	341.309	79.2692	341.309	80.5776	341.309	78.5247	341.309	80.3821	341.309	77.6997	341.309	80.1959	341.309	76.8749	341.309	80.0296	341.309	76.1675	341.309	79.8732	341.309	75.6986	341.309	79.699	341.309	75.5274	341.309	79.4712	341.309	75.6099	341.309	79.1583	341.309	75.8323	341.309	78.7455	341.309	76.0795	341.309	78.2436	341.309	76.2741	341.309	77.6955	341.309	76.3828	341.309	77.173	341.309	76.4101	341.309	76.7568	341.309	76.3934	341.309	76.4998	341.309	76.3978
353.027	81.1103	353.027	81.0397	353.027	81.0421	353.027	80.8211	353.027	80.8489	353.027	80.448	353.027	80.5534	353.027	79.9157	353.027	80.1901	353.027	79.2231	353.027	79.8081	353.027	78.3776	353.027	79.4664	353.027	77.4045	353.027	79.2185	353.027	76.3656	353.027	79.0896	353.027	75.3795	353.027	79.0611	353.027	74.6199	353.027	79.0773	353.027	74.2466	353.027	79.0705	353.027	74.2889	353.027	78.9847	353.027	74.6249	353.027	78.7896	353.027	75.0876	353.027	78.4837	353.027	75.5605	353.027	78.0916	353.027	75.9967	353.027	77.6546	353.027	76.4	353.027	77.215	353.027	76.7977
366.211	81.3507	366.211	81.3302	366.211	81.2491	366.211	81.185	366.211	81.029	366.211	80.9122	366.211	80.6984	366.211	80.5091	366.211	80.2749	366.211	79.9749	366.211	79.7932	366.211	79.3152	366.211	79.3115	366.211	78.5485	366.211	78.9087	366.211	77.7172	366.211	78.6622	366.211	76.8996	366.211	78.608	366.211	76.2113	366.211	78.7142	366.211	75.7767	366.211	78.8979	366.211	75.6644	366.211	79.0673	366.211	75.8429	366.211	79.1545	366.211	76.2107	366.211	79.1257	366.211	76.663	366.211	78.9766	366.211	77.1311	366.211	78.7234	366.211	77.5828	366.211	78.3918	366.211	78.0061
379.395	80.9227	379.395	80.9353	379.395	80.7981	379.395	80.8407	379.395	80.5544	379.395	80.6395	379.395	80.1854	379.395	80.3286	379.395	79.6917	379.395	79.9029	379.395	79.0899	379.395	79.3591	379.395	78.4263	379.395	78.7013	379.395	77.7911	379.395	77.9507	379.395	77.3143	379.395	77.1576	379.395	77.1158	379.395	76.4136	379.395	77.2228	379.395	75.8467	379.395	77.5437	379.395	75.5771	379.395	77.9338	379.395	75.6456	379.395	78.2726	379.395	75.9859	379.395	78.4902	379.395	76.4767	379.395	78.5597	379.395	77.0084	379.395	78.4811	379.395	77.5089	379.395	78.2676	379.395	77.937
392.578	81.4071	392.578	81.3695	392.578	81.3383	392.578	81.2366	392.578	81.1476	392.578	81.0132	392.578	80.8174	392.578	80.6977	392.578	80.3323	392.578	80.2831	392.578	79.6854	392.578	79.7611	392.578	78.8901	392.578	79.1269	392.578	78.0014	392.578	78.3877	392.578	77.1438	392.578	77.5742	392.578	76.5136	392.578	76.7553	392.578	76.2889	392.578	76.0471	392.578	76.4789	392.578	75.5906	392.578	76.9111	392.578	75.4824	392.578	77.3784	392.578	75.7048	392.578	77.7442	392.578	76.1416	392.578	77.948	392.578	76.657	392.578	77.9765	392.578	77.1489	392.578	77.8393	392.578	77.5552
405.762	81.3363	405.762	81.2256	405.762	81.3814	405.762	81.0716	405.762	81.3321	405.762	80.8863	405.762	81.1586	405.762	80.668	405.762	80.833	405.762	80.403	405.762	80.332	405.762	80.0712	405.762	79.6419	405.762	79.6537	405.762	78.7687	405.762	79.1424	405.762	77.762	405.762	78.5492	405.762	76.756	405.762	77.9167	405.762	75.994	405.762	77.3245	405.762	75.731	405.762	76.8795	405.762	76.0024	405.762	76.6757	405.762	76.5805	405.762	76.7381	405.762	77.1954	405.762	77.0041	405.762	77.6817	405.762	77.3635	405.762	77.9731	405.762	77.7089	405.762	78.0595	405.762	77.9594
420.41	81.4687	420.41	81.2233	420.41	81.6341	420.41	80.93	420.41	81.6887	420.41	80.6185	420.41	81.6053	420.41	80.3097	420.41	81.3605	420.41	80.0108	420.41	80.9345	420.41	79.7155	420.41	80.3121	420.41	79.4092	420.41	79.4876	420.41	79.0786	420.41	78.4787	420.41	78.7217	420.41	77.3552	420.41	78.355	420.41	76.2839	420.41	78.0153	420.41	75.5386	420.41	77.7519	420.41	75.3549	420.41	77.6069	420.41	75.6983	420.41	77.5916	420.41	76.3047	420.41	77.6759	420.41	76.9221	420.41	77.7981	420.41	77.4139	420.41	77.8877	420.41	77.7332	420.41	77.8817
435.059	81.682	435.059	81.3961	435.059	81.8742	435.059	81.039	435.059	81.9541	435.059	80.6354	435.059	81.9072	435.059	80.2089	435.059	81.7221	435.059	79.7772	435.059	81.3891	435.059	79.3507	435.059	80.9004	435.059	78.9341	435.059	80.2517	435.059	78.5338	435.059	79.4491	435.059	78.1663	435.059	78.5243	435.059	77.8625	435.059	77.5607	435.059	77.6627	435.059	76.7194	435.059	77.5984	435.059	76.2129	435.059	77.6708	435.059	76.1715	435.059	77.8419	435.059	76.5198	435.059	78.0462	435.059	77.0481	435.059	78.2125	435.059	77.5667	435.059	78.2799	435.059	77.9669	435.059	78.2056
451.172	81.6391	451.172	81.3597	451.172	81.8137	451.172	80.9915	451.172	81.8728	451.172	80.554	451.172	81.8098	451.172	80.0672	451.172	81.6216	451.172	79.5474	451.172	81.3054	451.172	79.0053	451.172	80.8582	451.172	78.4488	451.172	80.2768	451.172	77.8921	451.172	79.5618	451.172	77.3686	451.172	78.7294	451.172	76.9389	451.172	77.8331	451.172	76.6812	451.172	76.9929	451.172	76.654	451.172	76.3981	451.172	76.8517	451.172	76.2193	451.172	77.1968	451.172	76.459	451.172	77.578	451.172	76.9398	451.172	77.8926	451.172	77.4496	451.172	78.0666	451.172	77.8443	451.172	78.0558
465.82	81.7721	465.82	81.5066	465.82	81.9362	465.82	81.1556	465.82	81.9887	465.82	80.7384	465.82	81.924	465.82	80.2744	465.82	81.7409	465.82	79.7784	465.82	81.4409	465.82	79.2579	465.82	81.0268	465.82	78.7149	465.82	80.5031	465.82	78.1535	465.82	79.8761	465.82	77.5931	465.82	79.1595	465.82	77.0795	465.82	78.3826	465.82	76.686	465.82	77.605	465.82	76.4873	465.82	76.9272	465.82	76.5121	465.82	76.4743	465.82	76.7119	465.82	76.3313	465.82	76.9824	465.82	76.4716	465.82	77.2134	465.82	76.7683	465.82	77.3245	465.82	77.0726	465.82	77.2759
483.398	81.9816	483.398	81.7366	483.398	82.1127	483.398	81.3903	483.398	82.123	483.398	80.9597	483.398	82.0116	483.398	80.4628	483.398	81.7823	483.398	79.9149	483.398	81.4416	483.398	79.3246	483.398	80.9974	483.398	78.6967	483.398	80.4571	483.398	78.0398	483.398	79.8294	483.398	77.3821	483.398	79.1285	483.398	76.787	483.398	78.3855	483.398	76.3533	483.398	77.6636	483.398	76.1785	483.398	77.0662	483.398	76.2902	483.398	76.7115	483.398	76.6128	483.398	76.6604	483.398	77.0108	483.398	76.8588	483.398	77.3565	483.398	77.1681	483.398	77.564	483.398	77.4455	483.398	77.5931
499.512	82.1535	499.512	81.9386	499.512	82.2715	499.512	81.6453	499.512	82.2764	499.512	81.2904	499.512	82.1566	499.512	80.8836	499.512	81.905	499.512	80.4236	499.512	81.5188	499.512	79.8977	499.512	80.9985	499.512	79.2894	499.512	80.35	499.512	78.5907	499.512	79.5895	499.512	77.8213	499.512	78.7549	499.512	77.0513	499.512	77.9198	499.512	76.4129	499.512	77.2012	499.512	76.064	499.512	76.7313	499.512	76.084	499.512	76.5843	499.512	76.3987	499.512	76.7185	499.512	76.8374	499.512	77.0066	499.512	77.2416	499.512	77.3125	499.512	77.5134	499.512	77.5347	499.512	77.6116
517.09	81.9235	517.09	81.7211	517.09	82.0282	517.09	81.4382	517.09	82.0262	517.09	81.0969	517.09	81.9163	517.09	80.7173	517.09	81.7034	517.09	80.3089	517.09	81.3948	517.09	79.8658	517.09	80.9969	517.09	79.3689	517.09	80.5137	517.09	78.7969	517.09	79.9468	517.09	78.143	517.09	79.3012	517.09	77.4366	517.09	78.5962	517.09	76.7635	517.09	77.8826	517.09	76.2647	517.09	77.2551	517.09	76.0757	517.09	76.8344	517.09	76.2188	517.09	76.6991	517.09	76.5717	517.09	76.8159	517.09	76.9574	517.09	77.0539	517.09	77.2379	517.09	77.2651	517.09	77.343
536.133	81.9739	536.133	81.6897	536.133	82.1434	536.133	81.3208	536.133	82.1813	536.133	80.9058	536.133	82.0824	536.133	80.4816	536.133	81.8515	536.133	80.0685	536.133	81.4987	536.133	79.66	536.133	81.0361	536.133	79.2256	536.133	80.4736	536.133	78.7283	536.133	79.8184	536.133	78.149	536.133	79.0805	536.133	77.5131	536.133	78.2886	536.133	76.9122	536.133	77.5174	536.133	76.499	536.133	76.9064	536.133	76.4122	536.133	76.6186	536.133	76.6601	536.133	76.7155	536.133	77.1014	536.133	77.0819	536.133	77.5494	536.133	77.5133	536.133	77.8631	536.133	77.8399	536.133	77.9668
555.176	82.0136	555.176	81.7563	555.176	82.1502	555.176	81.3982	555.176	82.162	555.176	80.9739	555.176	82.057	555.176	80.5245	555.176	81.8481	555.176	80.0817	555.176	81.5454	555.176	79.6524	555.176	81.1495	555.176	79.2156	555.176	80.6484	555.176	78.7356	555.176	80.0218	555.176	78.1872	555.176	79.2542	555.176	77.5836	555.176	78.3614	555.176	77.0006	555.176	77.4308	555.176	76.578	555.176	76.657	555.176	76.4571	555.176	76.2841	555.176	76.6663	555.176	76.4053	555.176	77.081	555.176	76.8531	555.176	77.5145	555.176	77.3627	555.176	77.8166	555.176	77.7432	555.176	77.9023
574.219	82.4101	574.219	82.1156	574.219	82.5223	574.219	81.6572	574.219	82.4537	574.219	81.0731	574.219	82.2246	574.219	80.4188	574.219	81.8734	574.219	79.7551	574.219	81.4522	574.219	79.1281	574.219	81.0147	574.219	78.549	574.219	80.5941	574.219	77.9936	574.219	80.1816	574.219	77.4271	574.219	79.7216	574.219	76.8429	574.219	79.1347	574.219	76.299	574.219	78.3602	574.219	75.9271	574.219	77.4176	574.219	75.8711	574.219	76.4865	574.219	76.1571	574.219	75.9206	574.219	76.6411	574.219	75.975	574.219	77.107	574.219	76.4745	574.219	77.3791	574.219	77.0247	574.219	77.3577
594.727	82.6163	594.727	82.3749	594.727	82.7122	594.727	82.0088	594.727	82.653	594.727	81.551	594.727	82.4384	594.727	81.0421	594.727	82.0754	594.727	80.5193	594.727	81.5783	594.727	80.0012	594.727	80.971	594.727	79.4778	594.727	80.2902	594.727	78.9152	594.727	79.5865	594.727	78.2743	594.727	78.9148	594.727	77.5385	594.727	78.314	594.727	76.746	594.727	77.7886	594.727	76.0209	594.727	77.3187	594.727	75.5574	594.727	76.8996	594.727	75.4944	594.727	76.5742	594.727	75.7666	594.727	76.4108	594.727	76.1531	594.727	76.4231	594.727	76.4512	594.727	76.5226	594.727	76.5679
615.234	82.3558	615.234	82.0735	615.234	82.4734	615.234	81.6511	615.234	82.4164	615.234	81.129	615.234	82.1875	615.234	80.5611	615.234	81.8011	615.234	80.0032	615.234	81.2838	615.234	79.4937	615.234	80.6739	615.234	79.0374	615.234	80.0191	615.234	78.606	615.234	79.3683	615.234	78.1598	615.234	78.7595	615.234	77.6791	615.234	78.2098	615.234	77.1947	615.234	77.7217	615.234	76.802	615.234	77.3073	615.234	76.6283	615.234	77.0131	615.234	76.7372	615.234	76.9083	615.234	77.0532	615.234	77.0209	615.234	77.4098	615.234	77.2825	615.234	77.6535	615.234	77.5537	615.234	77.7021
637.207	81.7277	637.207	81.4475	637.207	81.8746	637.207	81.0637	637.207	81.8787	637.207	80.6281	637.207	81.744	637.207	80.2038	637.207	81.4823	637.207	79.841	637.207	81.1088	637.207	79.5511	637.207	80.6431	637.207	79.3018	637.207	80.1155	637.207	79.0392	637.207	79.573	637.207	78.7184	637.207	79.0772	637.207	78.326	637.207	78.6811	637.207	77.8918	637.207	78.3955	637.207	77.4899	637.207	78.1809	637.207	77.2165	637.207	77.9852	637.207	77.1366	637.207	77.7935	637.207	77.2297	637.207	77.6408	637.207	77.3981	637.207	77.5705	637.207	77.5351	637.207	77.5747	637.207	77.587
659.18	81.5326	659.18	81.179	659.18	81.6362	659.18	80.5992	659.18	81.4956	659.18	79.8595	659.18	81.1372	659.18	79.0755	659.18	80.6027	659.18	78.3882	659.18	79.9447	659.18	77.8935	659.18	79.2221	659.18	77.5784	659.18	78.4944	659.18	77.3488	659.18	77.8194	659.18	77.125	659.18	77.2613	659.18	76.9175	659.18	76.9073	659.18	76.8431	659.18	76.8643	659.18	77.0571	659.18	77.1927	659.18	77.6117	659.18	77.8275	659.18	78.3855	659.18	78.5999	659.18	79.1782	659.18	79.3364	659.18	79.8283	659.18	79.9195	659.18	80.2467	659.18	80.285	659.18	80.3995
682.617	83.0409	682.617	82.5623	682.617	83.2509	682.617	81.8202	682.617	83.2052	682.617	80.8548	682.617	82.9265	682.617	79.7659	682.617	82.445	682.617	78.7218	682.617	81.7989	682.617	77.8995	682.617	81.0352	682.617	77.3539	682.617	80.2038	682.617	76.9697	682.617	79.3454	682.617	76.5815	682.617	78.4783	682.617	76.1229	682.617	77.6106	682.617	75.7125	682.617	76.8042	682.617	75.6505	682.617	76.2768	682.617	76.1882	682.617	76.3588	682.617	77.2093	682.617	77.1187	682.617	78.3437	682.617	78.1949	682.617	79.2873	682.617	79.1736	682.617	79.8837	682.617	79.8266	682.617	80.0693
707.52	84.1185	707.52	83.7518	707.52	84.2329	707.52	83.1353	707.52	84.1026	707.52	82.2851	707.52	83.7432	707.52	81.2363	707.52	83.1755	707.52	80.053	707.52	82.4239	707.52	78.8329	707.52	81.5186	707.52	77.6912	707.52	80.5069	707.52	76.7087	707.52	79.4705	707.52	75.882	707.52	78.5227	707.52	75.1555	707.52	77.7476	707.52	74.5495	707.52	77.1156	707.52	74.2894	707.52	76.5239	707.52	74.6989	707.52	76.0009	707.52	75.7583	707.52	75.8636	707.52	77.0296	707.52	76.4149	707.52	78.0857	707.52	77.4051	707.52	78.696	707.52	78.3008	707.52	78.7689
732.422	83.9239	732.422	83.4528	732.422	84.1444	732.422	82.7227	732.422	84.1314	732.422	81.7486	732.422	83.9021	732.422	80.5903	732.422	83.4676	732.422	79.3752	732.422	82.8314	732.422	78.2849	732.422	81.9942	732.422	77.4563	732.422	80.9723	732.422	76.8546	732.422	79.8369	732.422	76.2931	732.422	78.7627	732.422	75.5863	732.422	77.9979	732.422	74.7024	732.422	77.6555	732.422	73.9376	732.422	77.5674	732.422	73.9499	732.422	77.5014	732.422	74.9982	732.422	77.4266	732.422	76.449	732.422	77.511	732.422	77.6585	732.422	77.8605	732.422	78.3689	732.422	78.3074	732.422	78.5516
757.324	84.5522	757.324	84.0556	757.324	84.7849	757.324	83.2776	757.324	84.7813	757.324	82.2193	757.324	84.5736	757.324	80.9166	757.324	84.1922	757.324	79.4668	757.324	83.6609	757.324	78.05	757.324	82.9931	757.324	76.8839	757.324	82.1924	757.324	76.064	757.324	81.262	757.324	75.4569	757.324	80.2249	757.324	74.8276	757.324	79.1537	757.324	74.0734	757.324	78.1915	757.324	73.4636	757.324	77.5332	757.324	73.7038	757.324	77.3466	757.324	75.0636	757.324	77.6666	757.324	76.8281	757.324	78.3353	757.324	78.3202	757.324	79.0657	757.324	79.2872	757.324	79.5813	757.324	79.6916
785.156	84.6818	785.156	83.8522	785.156	85.2716	785.156	82.7699	785.156	85.6385	785.156	81.4283	785.156	85.8007	785.156	79.8362	785.156	85.7708	785.156	78.0468	785.156	85.5494	785.156	76.2115	785.156	85.1208	785.156	74.6067	785.156	84.4609	785.156	73.4702	785.156	83.558	785.156	72.6885	785.156	82.4536	785.156	71.8103	785.156	81.2882	785.156	70.3524	785.156	80.2799	785.156	68.3056	785.156	79.5563	785.156	68.1396	785.156	79.0504	785.156	71.5533	785.156	78.7061	785.156	74.9973	785.156	78.6472	785.156	77.3693	785.156	78.9327	785.156	78.7556	785.156	79.2934	785.156	79.3316
811.523	80.9335	811.523	79.2002	811.523	82.2987	811.523	77.0363	811.523	83.3458	811.523	74.3731	811.523	84.1111	811.523	71.159	811.523	84.6168	811.523	67.4452	811.523	84.8726	811.523	63.6155	811.523	84.8782	811.523	60.7224	811.523	84.6267	811.523	60.2061	811.523	84.115	811.523	61.7866	811.523	83.3645	811.523	63.3685	811.523	82.4514	811.523	63.4898	811.523	81.5262	811.523	60.7077	811.523	80.7684	811.523	49.3065	811.523	80.2753	811.523	62.9577	811.523	80.0096	811.523	70.1107	811.523	79.855	811.523	74.1784	811.523	79.6564	811.523	76.7383	811.523	79.2183	811.523	78.3221
840.82	72.0603	840.82	71.6127	840.82	74.1377	840.82	72.4662	840.82	76.622	840.82	73.4545	840.82	78.7466	840.82	74.1684	840.82	80.3554	840.82	74.604	840.82	81.4672	840.82	74.7642	840.82	82.12	840.82	74.57	840.82	82.3352	840.82	73.9499	840.82	82.1189	840.82	73.0002	840.82	81.4805	840.82	72.127	840.82	80.4753	840.82	71.7975	840.82	79.2749	840.82	71.8179	840.82	78.21	840.82	71.4144	840.82	77.5977	840.82	69.7216	840.82	77.3838	840.82	65.1598	840.82	77.1636	840.82	48.7491	840.82	76.4973	840.82	66.1899	840.82	74.9818	840.82	72.0504
870.117	78.1322	870.117	79.221	870.117	76.5121	870.117	79.7577	870.117	74.7208	870.117	79.8207	870.117	73.8406	870.117	79.5389	870.117	74.6131	870.117	79.0763	870.117	76.0676	870.117	78.5649	870.117	77.2777	870.117	78.0054	870.117	77.9799	870.117	77.2626	870.117	78.1542	870.117	76.1999	870.117	77.8394	870.117	74.8575	870.117	77.1108	870.117	73.6179	870.117	76.1111	870.117	73.0237	870.117	75.1042	870.117	72.9703	870.117	74.4452	870.117	72.7181	870.117	74.2694	870.117	71.7199	870.117	74.2343	870.117	70.0769	870.117	73.8163	870.117	69.3171	870.117	72.6544	870.117	70.7679
900.879	82.6933	900.879	83.2275	900.879	81.6604	900.879	83.2901	900.879	80.1064	900.879	82.9224	900.879	78.0488	900.879	82.215	900.879	75.7197	900.879	81.3573	900.879	73.9864	900.879	80.6292	900.879	73.9142	900.879	80.2151	900.879	74.8819	900.879	79.9984	900.879	75.6821	900.879	79.6858	900.879	75.7806	900.879	79.0543	900.879	74.9547	900.879	78.0385	900.879	73.0385	900.879	76.7427	900.879	70.2455	900.879	75.4563	900.879	69.0549	900.879	74.5305	900.879	71.1433	900.879	74.0661	900.879	73.2266	900.879	73.9142	900.879	74.2736	900.879	73.9926	900.879	74.4896	900.879	74.2626
933.105	84.9037	933.105	85.374	933.105	84.0026	933.105	85.3961	933.105	82.6789	933.105	84.9559	933.105	80.9135	933.105	84.0647	933.105	78.6224	933.105	82.8114	933.105	75.5974	933.105	81.4551	933.105	71.5519	933.105	80.4362	933.105	68.0682	933.105	80.022	933.105	70.2674	933.105	79.9549	933.105	73.3747	933.105	79.7829	933.105	74.9775	933.105	79.2215	933.105	75.0963	933.105	78.1701	933.105	73.6479	933.105	76.7103	933.105	70.115	933.105	75.2755	933.105	64.1095	933.105	74.6508	933.105	66.8947	933.105	74.9828	933.105	71.8124	933.105	75.4596	933.105	74.3244	933.105	75.377
965.332	85.2557	965.332	85.5828	965.332	84.5666	965.332	85.5036	965.332	83.5669	965.332	84.9753	965.332	82.3143	965.332	83.9612	965.332	80.8534	965.332	82.4655	965.332	79.1729	965.332	80.6476	965.332	77.1512	965.332	79.0368	965.332	74.5082	965.332	78.3828	965.332	70.8283	965.332	78.6489	965.332	66.8493	965.332	79.0801	965.332	68.0326	965.332	79.175	965.332	71.1187	965.332	78.7767	965.332	72.5648	965.332	77.9096	965.332	72.2594	965.332	76.7909	965.332	70.2882	965.332	75.8861	965.332	68.1658	965.332	75.5385	965.332	70.038	965.332	75.3931	965.332	73.0073	965.332	74.7375
1000.49	85.0269	1000.49	85.3139	1000.49	84.3402	1000.49	85.197	1000.49	83.2868	1000.49	84.6784	1000.49	81.952	1000.49	83.7566	1000.49	80.4762	1000.49	82.4386	1000.49	79.0047	1000.49	80.7858	1000.49	77.5761	1000.49	79.0062	1000.49	76.0291	1000.49	77.5331	1000.49	74.0354	1000.49	76.7988	1000.49	71.3576	1000.49	76.7335	1000.49	69.1258	1000.49	76.8753	1000.49	70.1357	1000.49	76.8531	1000.49	72.112	1000.49	76.5235	1000.49	72.7383	1000.49	75.9725	1000.49	71.7414	1000.49	75.5102	1000.49	70.0634	1000.49	75.3796	1000.49	70.7397	1000.49	75.3124	1000.49	73.1102	1000.49	74.7114
1035.64	84.8537	1035.64	85.1609	1035.64	84.1589	1035.64	85.0596	1035.64	83.1416	1035.64	84.554	1035.64	81.9106	1035.64	83.646	1035.64	80.5968	1035.64	82.3141	1035.64	79.3133	1035.64	80.5274	1035.64	78.1084	1035.64	78.3414	1035.64	76.9264	1035.64	76.1898	1035.64	75.6063	1035.64	75.1178	1035.64	73.9817	1035.64	75.4987	1035.64	72.2227	1035.64	76.2838	1035.64	71.2968	1035.64	76.6516	1035.64	71.6385	1035.64	76.3564	1035.64	71.8865	1035.64	75.5179	1035.64	71.1577	1035.64	74.7297	1035.64	70.369	1035.64	74.7064	1035.64	71.6514	1035.64	75.0983	1035.64	73.7567	1035.64	74.9577
1072.27	84.9479	1072.27	85.25	1072.27	84.2178	1072.27	85.1249	1072.27	83.0979	1072.27	84.5946	1072.27	81.6738	1072.27	83.6805	1072.27	80.076	1072.27	82.4027	1072.27	78.4525	1072.27	80.8263	1072.27	76.8917	1072.27	79.1506	1072.27	75.3183	1072.27	77.7146	1072.27	73.482	1072.27	76.711	1072.27	71.2202	1072.27	75.9548	1072.27	69.4629	1072.27	75.2289	1072.27	70.1764	1072.27	74.6609	1072.27	71.8151	1072.27	74.5223	1072.27	72.3963	1072.27	74.7054	1072.27	71.6058	1072.27	74.8546	1072.27	70.313	1072.27	74.8078	1072.27	70.6983	1072.27	74.5266	1072.27	72.4608	1072.27	73.8317
1108.89	85.3222	1108.89	85.6328	1108.89	84.5075	1108.89	85.4837	1108.89	83.1853	1108.89	84.9304	1108.89	81.4195	1108.89	84.0023	1108.89	79.3725	1108.89	82.6855	1108.89	77.3233	1108.89	80.9638	1108.89	75.5901	1108.89	78.9473	1108.89	74.2775	1108.89	77.0728	1108.89	73.0471	1108.89	75.9963	1108.89	71.2768	1108.89	75.7534	1108.89	68.6081	1108.89	75.7099	1108.89	66.828	1108.89	75.4346	1108.89	68.4269	1108.89	74.9158	1108.89	69.8741	1108.89	74.4383	1108.89	69.4681	1108.89	74.3238	1108.89	67.9138	1108.89	74.4928	1108.89	68.7641	1108.89	74.4431	1108.89	71.6508	1108.89	73.6302
1148.44	86.1375	1148.44	86.3294	1148.44	85.4061	1148.44	86.0231	1148.44	84.1417	1148.44	85.2959	1148.44	82.4025	1148.44	84.2301	1148.44	80.2965	1148.44	82.8717	1148.44	77.9694	1148.44	81.2285	1148.44	75.6055	1148.44	79.3559	1148.44	73.464	1148.44	77.5058	1148.44	71.7186	1148.44	76.1237	1148.44	69.9806	1148.44	75.3867	1148.44	67.4231	1148.44	74.9332	1148.44	64.818	1148.44	74.3928	1148.44	66.9072	1148.44	73.8595	1148.44	69.8476	1148.44	73.898	1148.44	70.7218	1148.44	74.713	1148.44	69.8703	1148.44	75.5928	1148.44	69.8691	1148.44	75.7628	1148.44	72.4742	1148.44	74.7784
1189.45	86.0623	1189.45	86.1393	1189.45	85.3868	1189.45	85.6557	1189.45	84.1549	1189.45	84.7197	1189.45	82.4978	1189.45	83.4806	1189.45	80.6171	1189.45	82.0547	1189.45	78.694	1189.45	80.4576	1189.45	76.7747	1189.45	78.6658	1189.45	74.7988	1189.45	76.8329	1189.45	72.7924	1189.45	75.4566	1189.45	70.9473	1189.45	74.9347	1189.45	69.2827	1189.45	74.8567	1189.45	67.6778	1189.45	74.4822	1189.45	67.4005	1189.45	73.4686	1189.45	69.1564	1189.45	72.4112	1189.45	70.4622	1189.45	72.8423	1189.45	70.4327	1189.45	74.2637	1189.45	70.5793	1189.45	74.9768	1189.45	72.4742	1189.45	74.3549
1230.47	85.5642	1230.47	85.6606	1230.47	84.8897	1230.47	85.1732	1230.47	83.706	1230.47	84.1512	1230.47	82.1641	1230.47	82.7005	1230.47	80.5008	1230.47	80.9801	1230.47	78.966	1230.47	79.1741	1230.47	77.6808	1230.47	77.4544	1230.47	76.5702	1230.47	76.0054	1230.47	75.4129	1230.47	75.0702	1230.47	73.8459	1230.47	74.7576	1230.47	71.2614	1230.47	74.7384	1230.47	66.7983	1230.47	74.4174	1230.47	63.8746	1230.47	73.3342	1230.47	67.8411	1230.47	71.608	1230.47	69.9434	1230.47	70.89	1230.47	70.1358	1230.47	72.1898	1230.47	70.4757	1230.47	73.3885	1230.47	72.0497	1230.47	73.3404
1274.41	85.2832	1274.41	85.371	1274.41	84.5489	1274.41	84.8175	1274.41	83.2693	1274.41	83.7125	1274.41	81.6469	1274.41	82.1897	1274.41	79.9222	1274.41	80.3669	1274.41	78.2502	1274.41	78.2922	1274.41	76.627	1274.41	75.9416	1274.41	75.026	1274.41	73.3203	1274.41	73.6804	1274.41	70.8502	1274.41	72.8946	1274.41	69.8997	1274.41	72.1865	1274.41	70.825	1274.41	70.5686	1274.41	71.8444	1274.41	67.9236	1274.41	71.8204	1274.41	66.989	1274.41	70.7634	1274.41	68.0075	1274.41	70.3989	1274.41	68.2	1274.41	71.956	1274.41	69.1262	1274.41	73.2934	1274.41	71.5503	1274.41	73.2035
1319.82	84.9325	1319.82	84.9473	1319.82	84.1938	1319.82	84.2311	1319.82	82.8305	1319.82	82.8683	1319.82	81.0308	1319.82	81.0005	1319.82	79.0617	1319.82	78.7433	1319.82	77.201	1319.82	76.155	1319.82	75.5745	1319.82	73.4371	1319.82	74.0486	1319.82	71.2491	1319.82	72.3892	1319.82	70.1929	1319.82	70.6288	1319.82	69.9136	1319.82	69.2513	1319.82	69.9706	1319.82	68.5199	1319.82	70.1678	1319.82	68.1984	1319.82	69.9358	1319.82	68.4572	1319.82	68.6448	1319.82	68.8254	1319.82	67.2051	1319.82	68.3418	1319.82	68.7751	1319.82	68.3262	1319.82	71.097	1319.82	70.3074	1319.82	71.6717
1366.7	85.2447	1366.7	84.9713	1366.7	84.6307	1366.7	83.8352	1366.7	83.1708	1366.7	81.9245	1366.7	81.0312	1366.7	79.3958	1366.7	78.6289	1366.7	76.4292	1366.7	76.6602	1366.7	73.1474	1366.7	75.5803	1366.7	69.7309	1366.7	75.0215	1366.7	66.88	1366.7	74.3061	1366.7	65.6702	1366.7	73.0806	1366.7	66.1897	1366.7	71.3457	1366.7	67.7143	1366.7	69.1092	1366.7	69.2786	1366.7	66.8035	1366.7	69.8578	1366.7	67.4913	1366.7	68.6433	1366.7	69.5058	1366.7	66.0889	1366.7	69.6703	1366.7	67.8261	1366.7	69.1923	1366.7	71.0838	1366.7	70.7036	1366.7	71.9794
1413.57	85.2639	1413.57	84.4663	1413.57	84.9481	1413.57	82.635	1413.57	83.534	1413.57	79.8804	1413.57	81.2806	1413.57	76.2785	1413.57	78.9291	1413.57	71.7557	1413.57	77.4676	1413.57	66.1723	1413.57	77.0505	1413.57	61.6607	1413.57	77.0263	1413.57	62.6322	1413.57	76.7801	1413.57	64.0976	1413.57	75.9672	1413.57	63.2767	1413.57	74.5034	1413.57	59.2297	1413.57	72.5207	1413.57	62.5947	1413.57	70.6052	1413.57	67.6783	1413.57	70.0664	1413.57	68.8106	1413.57	70.2018	1413.57	66.7873	1413.57	69.46	1413.57	67.3203	1413.57	69.9053	1413.57	71.4817	1413.57	72.239	1413.57	73.1544
1463.38	84.002	1463.38	82.3603	1463.38	84.257	1463.38	79.3113	1463.38	83.2635	1463.38	75.1813	1463.38	81.4158	1463.38	71.7251	1463.38	79.6213	1463.38	71.7668	1463.38	78.7585	1463.38	73.4221	1463.38	78.6481	1463.38	73.9578	1463.38	78.8719	1463.38	72.9675	1463.38	79.2295	1463.38	72.1861	1463.38	79.3202	1463.38	72.8171	1463.38	78.5675	1463.38	72.1859	1463.38	76.389	1463.38	67.5357	1463.38	72.7292	1463.38	58.2834	1463.38	71.3958	1463.38	67.6399	1463.38	72.9179	1463.38	68.4809	1463.38	72.7118	1463.38	66.3602	1463.38	71.7377	1463.38	70.1875	1463.38	72.5285	1463.38	72.7847
1516.11	82.5852	1516.11	81.5957	1516.11	82.6147	1516.11	80.2213	1516.11	81.5132	1516.11	79.0905	1516.11	79.5348	1516.11	78.1424	1516.11	77.7245	1516.11	77.3903	1516.11	77.3678	1516.11	77.3715	1516.11	77.8712	1516.11	77.322	1516.11	78.2351	1516.11	75.9325	1516.11	78.462	1516.11	73.546	1516.11	78.8841	1516.11	73.8775	1516.11	79.1158	1516.11	75.4129	1516.11	78.092	1516.11	74.5741	1516.11	74.7049	1516.11	71.1541	1516.11	69.9491	1516.11	69.9611	1516.11	71.638	1516.11	70.0114	1516.11	72.5093	1516.11	67.2963	1516.11	71.3559	1516.11	69.8268	1516.11	71.9845	1516.11	72.4666
1568.85	81.5879	1568.85	81.7771	1568.85	81.0013	1568.85	81.8861	1568.85	79.6087	1568.85	81.6663	1568.85	77.4186	1568.85	80.5745	1568.85	75.4675	1568.85	78.5114	1568.85	75.3261	1568.85	76.9338	1568.85	76.2962	1568.85	77.0927	1568.85	76.8066	1568.85	76.6188	1568.85	76.2222	1568.85	73.7536	1568.85	75.3171	1568.85	70.1945	1568.85	75.9436	1568.85	72.8532	1568.85	76.6113	1568.85	74.2779	1568.85	75.0463	1568.85	72.8886	1568.85	70.9193	1568.85	71.3098	1568.85	69.2932	1568.85	70.5399	1568.85	70.1724	1568.85	68.1802	1568.85	70.4506	1568.85	68.4179	1568.85	71.4052	1568.85	71.0195
1624.51	81.0802	1624.51	81.8062	1624.51	79.9721	1624.51	82.3371	1624.51	77.9941	1624.51	82.6289	1624.51	74.6745	1624.51	82.3688	1624.51	71.6165	1624.51	81.0516	1624.51	72.7027	1624.51	78.5364	1624.51	75.0686	1624.51	76.4177	1624.51	76.9574	1624.51	76.0697	1624.51	77.8776	1624.51	74.9888	1624.51	77.6263	1624.51	71.4024	1624.51	76.8419	1624.51	66.2948	1624.51	75.9839	1624.51	69.2206	1624.51	73.3174	1624.51	71.1896	1624.51	65.9057	1624.51	72.0687	1624.51	68.6914	1624.51	72.4986	1624.51	71.6421	1624.51	70.3754	1624.51	69.7871	1624.51	68.5188	1624.51	68.5296	1624.51	69.602
1681.64	80.4998	1681.64	82.8903	1681.64	77.529	1681.64	84.1404	1681.64	74.2236	1681.64	84.3343	1681.64	71.0022	1681.64	83.8761	1681.64	70.9964	1681.64	82.8303	1681.64	72.1227	1681.64	80.8425	1681.64	73.5989	1681.64	78.0449	1681.64	75.3714	1681.64	75.8174	1681.64	76.1077	1681.64	74.4683	1681.64	75.2323	1681.64	72.5992	1681.64	75.0839	1681.64	70.6829	1681.64	77.0149	1681.64	70.4555	1681.64	76.8406	1681.64	70.6245	1681.64	72.4483	1681.64	70.8532	1681.64	66.4183	1681.64	70.5346	1681.64	70.4162	1681.64	67.5409	1681.64	70.3355	1681.64	63.7332	1681.64	67.5907	1681.64	65.3957
1741.7	82.5156	1741.7	85.2671	1741.7	77.4971	1741.7	86.1563	1741.7	69.5893	1741.7	85.6338	1741.7	56.2575	1741.7	84.3602	1741.7	52.6158	1741.7	82.7919	1741.7	58.4035	1741.7	80.4846	1741.7	54.6317	1741.7	76.7928	1741.7	58.0623	1741.7	72.4952	1741.7	67.4492	1741.7	70.3943	1741.7	70.2571	1741.7	69.2912	1741.7	70.3707	1741.7	67.8295	1741.7	70.3692	1741.7	69.0554	1741.7	69.8531	1741.7	70.3303	1741.7	65.7573	1741.7	69.6191	1741.7	57.9996	1741.7	68.9208	1741.7	66.6153	1741.7	67.77	1741.7	68.8458	1741.7	64.9766	1741.7	66.9898	1741.7	64.0152
1803.22	83.6176	1803.22	85.4807	1803.22	80.038	1803.22	85.7276	1803.22	74.012	1803.22	84.4232	1803.22	64.0024	1803.22	81.8316	1803.22	69.2877	1803.22	78.6325	1803.22	72.4911	1803.22	75.3958	1803.22	72.3575	1803.22	71.4328	1803.22	70.1724	1803.22	66.0619	1803.22	67.9151	1803.22	61.5745	1803.22	66.0627	1803.22	61.3417	1803.22	62.4501	1803.22	59.8221	1803.22	62.7861	1803.22	50.421	1803.22	65.1357	1803.22	64.5944	1803.22	64.101	1803.22	67.9256	1803.22	58.9701	1803.22	67.3162	1803.22	53.9975	1803.22	66.474	1803.22	64.1416	1803.22	67.2857	1803.22	67.8216	1803.22	68.2844
1866.21	84.3232	1866.21	85.2081	1866.21	81.2913	1866.21	84.6367	1866.21	75.0569	1866.21	82.8974	1866.21	69.0543	1866.21	79.9061	1866.21	72.7074	1866.21	75.7274	1866.21	75.0037	1866.21	71.3139	1866.21	75.8168	1866.21	66.9983	1866.21	75.4743	1866.21	61.1713	1866.21	74.9393	1866.21	53.9481	1866.21	74.3265	1866.21	55.6157	1866.21	72.1617	1866.21	43.7523	1866.21	68.9558	1866.21	60.6293	1866.21	67.4945	1866.21	62.9605	1866.21	63.4683	1866.21	56.4547	1866.21	62.2874	1866.21	61.9056	1866.21	63.8064	1866.21	66.8332	1866.21	47.434	1866.21	69.9978	1866.21	68.728	1866.21	71.5983
1932.13	84.8731	1932.13	85.508	1932.13	81.6005	1932.13	84.1304	1932.13	75.0532	1932.13	81.1735	1932.13	71.5841	1932.13	76.8814	1932.13	74.8129	1932.13	71.4828	1932.13	77.0602	1932.13	66.8086	1932.13	77.9052	1932.13	65.9097	1932.13	77.3817	1932.13	64.6028	1932.13	76.8794	1932.13	60.1124	1932.13	76.8865	1932.13	66.5115	1932.13	75.5082	1932.13	66.7312	1932.13	72.0809	1932.13	55.6611	1932.13	68.4835	1932.13	57.2612	1932.13	66.1034	1932.13	50.7514	1932.13	67.6199	1932.13	58.2968	1932.13	67.4486	1932.13	64.9852	1932.13	52.7267	1932.13	69.7048	1932.13	66.869	1932.13	71.1109
1999.51	84.1588	1999.51	84.8144	1999.51	81.5095	1999.51	83.6972	1999.51	75.7495	1999.51	81.2461	1999.51	69.6731	1999.51	78.4575	1999.51	77.2076	1999.51	76.0143	1999.51	79.8675	1999.51	72.7333	1999.51	79.6751	1999.51	66.6778	1999.51	77.5479	1999.51	60.368	1999.51	75.8137	1999.51	64.6146	1999.51	76.6757	1999.51	68.9747	1999.51	77.2801	1999.51	68.3476	1999.51	76.2826	1999.51	60.9029	1999.51	73.3017	1999.51	45.47	1999.51	68.8468	1999.51	60.5499	1999.51	70.2638	1999.51	66.2515	1999.51	70.0405	1999.51	64.8849	1999.51	63.1999	1999.51	69.2662	1999.51	67.8842	1999.51	71.315
2069.82	82.9847	2069.82	84.2626	2069.82	80.4973	2069.82	83.8542	2069.82	77.3178	2069.82	82.2552	2069.82	67.7883	2069.82	78.8758	2069.82	75.4544	2069.82	69.833	2069.82	82.2685	2069.82	68.1506	2069.82	84.7106	2069.82	77.0794	2069.82	84.8161	2069.82	80.3182	2069.82	84.1141	2069.82	80.7255	2069.82	83.874	2069.82	78.5181	2069.82	83.6206	2069.82	77.102	2069.82	82.307	2069.82	75.744	2069.82	78.3636	2069.82	73.7084	2069.82	66.2573	2069.82	71.7762	2069.82	72.4404	2069.82	45.094	2069.82	74.21	2069.82	66.4093	2069.82	63.1157	2069.82	67.3982	2069.82	70.8137	2069.82	73.6613
2143.07	83.0542	2143.07	83.4359	2143.07	81.6504	2143.07	83.668	2143.07	76.74	2143.07	83.1817	2143.07	61.614	2143.07	80.1357	2143.07	78.5616	2143.07	71.1763	2143.07	82.8518	2143.07	67.2029	2143.07	84.2832	2143.07	76.3793	2143.07	83.9048	2143.07	79.9816	2143.07	83.5642	2143.07	81.9397	2143.07	83.4509	2143.07	81.2924	2143.07	82.7209	2143.07	77.6243	2143.07	81.4565	2143.07	74.1183	2143.07	78.4228	2143.07	71.4402	2143.07	68.3002	2143.07	72.5644	2143.07	70.0015	2143.07	63.4916	2143.07	74.174	2143.07	67.797	2143.07	64.3086	2143.07	70.4835	2143.07	71.8824	2143.07	74.9251
2219.24	83.5352	2219.24	83.9051	2219.24	81.1804	2219.24	83.3265	2219.24	73.8305	2219.24	81.9131	2219.24	71.2164	2219.24	79.4855	2219.24	78.2402	2219.24	75.8842	2219.24	80.0957	2219.24	71.8679	2219.24	80.5658	2219.24	68.9929	2219.24	79.8212	2219.24	64.9746	2219.24	77.9803	2219.24	52.3318	2219.24	76.3158	2219.24	41.9799	2219.24	74.8138	2219.24	59.6775	2219.24	74.0832	2219.24	63.751	2219.24	73.4171	2219.24	55.5729	2219.24	71.3004	2219.24	54.4924	2219.24	70.1756	2219.24	60.0209	2219.24	65.4737	2219.24	65.3106	2219.24	66.6488	2219.24	64.7432	2219.24	71.0272	2219.24	68.9938
2296.88	82.726	2296.88	82.8943	2296.88	80.5694	2296.88	82.5444	2296.88	72.2943	2296.88	81.5483	2296.88	71.6581	2296.88	79.4747	2296.88	78.9874	2296.88	75.939	2296.88	80.4721	2296.88	70.176	2296.88	80.2429	2296.88	67.4568	2296.88	79.2041	2296.88	60.767	2296.88	77.7558	2296.88	66.5977	2296.88	76.866	2296.88	67.4034	2296.88	75.9977	2296.88	60.8179	2296.88	75.0108	2296.88	67.8037	2296.88	74.36	2296.88	65.522	2296.88	72.4762	2296.88	51.9386	2296.88	70.7513	2296.88	59.4986	2296.88	63.9442	2296.88	63.4472	2296.88	64.721	2296.88	62.772	2296.88	69.8143	2296.88	66.0031
2378.91	82.6591	2378.91	82.9971	2378.91	80.763	2378.91	82.7761	2378.91	72.5361	2378.91	81.463	2378.91	72.4905	2378.91	78.6749	2378.91	79.7526	2378.91	73.9091	2378.91	81.1724	2378.91	61.7521	2378.91	80.8364	2378.91	68.7262	2378.91	78.9402	2378.91	68.8071	2378.91	76.487	2378.91	69.5313	2378.91	75.8032	2378.91	70.8276	2378.91	74.8192	2378.91	67.1284	2378.91	74.8435	2378.91	65.8536	2378.91	74.6989	2378.91	68.41	2378.91	72.6959	2378.91	63.6033	2378.91	72.1699	2378.91	58.2639	2378.91	66.9752	2378.91	58.6961	2378.91	60.4475	2378.91	62.2906	2378.91	68.4392	2378.91	66.0348
2462.4	82.2476	2462.4	83.2688	2462.4	80.619	2462.4	83.5734	2462.4	73.7213	2462.4	81.614	2462.4	71.6362	2462.4	76.24	2462.4	80.0518	2462.4	65.6974	2462.4	81.5719	2462.4	61.9674	2462.4	81.0461	2462.4	65.6988	2462.4	79.3679	2462.4	68.5541	2462.4	76.4109	2462.4	68.8309	2462.4	74.4544	2462.4	67.8398	2462.4	73.037	2462.4	69.556	2462.4	71.5171	2462.4	69.288	2462.4	73.8159	2462.4	69.1464	2462.4	72.6092	2462.4	67.7024	2462.4	71.4736	2462.4	62.0341	2462.4	68.0894	2462.4	54.0199	2462.4	57.7801	2462.4	58.2962	2462.4	67.7564	2462.4	65.38
2548.83	81.244	2548.83	83.6209	2548.83	78.1034	2548.83	83.1856	2548.83	73.6571	2548.83	79.338	2548.83	73.4993	2548.83	70.0841	2548.83	79.8472	2548.83	64.4574	2548.83	81.4462	2548.83	70.8605	2548.83	81.0361	2548.83	70.1695	2548.83	79.5203	2548.83	69.4278	2548.83	76.9596	2548.83	70.4579	2548.83	76.1485	2548.83	71.426	2548.83	75.9196	2548.83	71.6318	2548.83	73.7803	2548.83	71.0192	2548.83	72.2624	2548.83	70.4413	2548.83	71.4112	2548.83	68.8718	2548.83	71.4041	2548.83	65.5454	2548.83	67.6625	2548.83	59.1883	2548.83	54.7986	2548.83	58.4694	2548.83	67.7243	2548.83	65.9557
2639.65	82.9831	2639.65	84.4275	2639.65	78.0183	2639.65	82.7193	2639.65	70.3944	2639.65	77.0868	2639.65	77.5838	2639.65	67.7359	2639.65	80.9743	2639.65	68.5348	2639.65	81.5734	2639.65	70.6992	2639.65	80.514	2639.65	72.5767	2639.65	78.1678	2639.65	73.2411	2639.65	75.5057	2639.65	74.6507	2639.65	74.7254	2639.65	73.6563	2639.65	74.7582	2639.65	71.026	2639.65	74.0846	2639.65	71.5592	2639.65	73.447	2639.65	70.1596	2639.65	70.6871	2639.65	68.7809	2639.65	70.6655	2639.65	65.2897	2639.65	68.6678	2639.65	36.9997	2639.65	60.6692	2639.65	48.8384	2639.65	69.7488	2639.65	65.1857
2731.93	83.4124	2731.93	84.1349	2731.93	79.2019	2731.93	81.6251	2731.93	70.2806	2731.93	76.8457	2731.93	77.695	2731.93	71.3416	2731.93	81.9364	2731.93	69.3662	2731.93	82.249	2731.93	72.3012	2731.93	80.8238	2731.93	72.7576	2731.93	78.7588	2731.93	69.6932	2731.93	76.1967	2731.93	66.2432	2731.93	75.4525	2731.93	68.5791	2731.93	75.2439	2731.93	68.4002	2731.93	72.9141	2731.93	68.6905	2731.93	72.435	2731.93	70.2751	2731.93	70.8906	2731.93	68.1263	2731.93	68.6484	2731.93	66.4541	2731.93	67.7754	2731.93	58.6259	2731.93	60.6998	2731.93	59.532	2731.93	68.7319	2731.93	63.1422
2828.61	83.017	2828.61	83.4537	2828.61	79.3243	2828.61	81.4427	2828.61	70.9721	2828.61	76.7221	2828.61	78.0503	2828.61	72.4605	2828.61	81.9799	2828.61	73.6583	2828.61	82.4696	2828.61	73.2211	2828.61	80.8182	2828.61	72.9209	2828.61	77.7349	2828.61	72.748	2828.61	75.012	2828.61	70.7824	2828.61	74.7059	2828.61	71.5725	2828.61	74.8279	2828.61	71.4536	2828.61	74.3071	2828.61	68.6952	2828.61	72.5821	2828.61	70.8381	2828.61	70.7979	2828.61	69.64	2828.61	69.8715	2828.61	67.2355	2828.61	68.6079	2828.61	62.2338	2828.61	63.0496	2828.61	58.766	2828.61	69.0149	2828.61	63.8869
2928.22	82.7143	2928.22	82.8577	2928.22	79.943	2928.22	80.4361	2928.22	73.5769	2928.22	76.8175	2928.22	77.9879	2928.22	73.9548	2928.22	82.364	2928.22	73.0432	2928.22	82.8	2928.22	73.594	2928.22	81.361	2928.22	72.5701	2928.22	78.5331	2928.22	72.525	2928.22	73.8716	2928.22	73.4319	2928.22	72.7212	2928.22	72.9613	2928.22	71.8096	2928.22	73.1728	2928.22	72.3201	2928.22	71.5083	2928.22	73.5066	2928.22	70.1173	2928.22	70.6258	2928.22	69.3962	2928.22	69.97	2928.22	69.0965	2928.22	68.427	2928.22	65.642	2928.22	61.466	2928.22	57.679	2928.22	66.9087	2928.22	61.2273
3030.76	82.8869	3030.76	83.1626	3030.76	79.5954	3030.76	81.0804	3030.76	75.3828	3030.76	77.1201	3030.76	78.221	3030.76	73.3747	3030.76	82.2831	3030.76	74.2699	3030.76	83.1326	3030.76	74.6333	3030.76	81.6706	3030.76	75.2339	3030.76	78.8521	3030.76	75.0459	3030.76	74.7833	3030.76	73.269	3030.76	73.7131	3030.76	71.7392	3030.76	72.4053	3030.76	72.0106	3030.76	68.5532	3030.76	70.8519	3030.76	71.4468	3030.76	70.6467	3030.76	70.8721	3030.76	70.0495	3030.76	69.3759	3030.76	67.6566	3030.76	69.2834	3030.76	65.0379	3030.76	64.0978	3030.76	51.3218	3030.76	66.103	3030.76	59.6386
3137.7	82.4685	3137.7	83.0278	3137.7	79.7435	3137.7	81.2745	3137.7	75.9711	3137.7	77.155	3137.7	78.4401	3137.7	74.9954	3137.7	81.7365	3137.7	75.4076	3137.7	82.3986	3137.7	75.9424	3137.7	81.1152	3137.7	75.4484	3137.7	79.0869	3137.7	73.6329	3137.7	75.6576	3137.7	71.6973	3137.7	72.7434	3137.7	71.2126	3137.7	70.8331	3137.7	72.8411	3137.7	66.6926	3137.7	72.017	3137.7	71.7471	3137.7	72.2153	3137.7	71.8439	3137.7	70.6153	3137.7	68.8814	3137.7	66.4418	3137.7	68.1092	3137.7	65.0744	3137.7	64.5983	3137.7	54.8634	3137.7	66.7875	3137.7	62.9559
3249.02	82.4614	3249.02	83.3936	3249.02	79.619	3249.02	81.1049	3249.02	77.2355	3249.02	77.2645	3249.02	78.782	3249.02	76.2412	3249.02	81.373	3249.02	75.9511	3249.02	82.2137	3249.02	75.186	3249.02	80.949	3249.02	74.3665	3249.02	77.8738	3249.02	74.358	3249.02	73.949	3249.02	74.4613	3249.02	69.4481	3249.02	73.6548	3249.02	66.954	3249.02	72.5084	3249.02	59.1024	3249.02	71.1446	3249.02	67.9636	3249.02	71.2336	3249.02	71.5264	3249.02	71.5745	3249.02	67.9122	3249.02	69.1982	3249.02	68.8313	3249.02	64.8411	3249.02	67.6654	3249.02	54.0267	3249.02	68.9326	3249.02	61.1373
3363.28	82.6092	3363.28	83.7194	3363.28	78.9258	3363.28	81.3235	3363.28	78.042	3363.28	78.8798	3363.28	79.2919	3363.28	76.4537	3363.28	81.1133	3363.28	75.0228	3363.28	81.485	3363.28	76.9028	3363.28	80.267	3363.28	77.4957	3363.28	76.8735	3363.28	75.4719	3363.28	72.4759	3363.28	74.1005	3363.28	68.4861	3363.28	72.7616	3363.28	63.3077	3363.28	72.7631	3363.28	64.2955	3363.28	71.9363	3363.28	66.6155	3363.28	70.6287	3363.28	71.8919	3363.28	71.2722	3363.28	68.0784	3363.28	68.7148	3363.28	67.9756	3363.28	66.1303	3363.28	67.6561	3363.28	54.3988	3363.28	66.6188	3363.28	58.7708
3481.93	83.1451	3481.93	83.227	3481.93	79.7926	3481.93	81.7421	3481.93	78.1251	3481.93	79.7091	3481.93	79.0933	3481.93	76.359	3481.93	80.9028	3481.93	77.1931	3481.93	81.3854	3481.93	78.4389	3481.93	79.9057	3481.93	77.6638	3481.93	76.866	3481.93	75.492	3481.93	72.4802	3481.93	75.391	3481.93	70.9657	3481.93	74.4858	3481.93	68.9156	3481.93	73.5352	3481.93	64.4085	3481.93	72.6832	3481.93	64.3722	3481.93	71.3416	3481.93	70.5244	3481.93	71.868	3481.93	66.7926	3481.93	68.6877	3481.93	67.673	3481.93	66.5144	3481.93	67.7371	3481.93	55.9849	3481.93	66.7396	3481.93	57.9666
3604.98	82.1597	3604.98	83.4462	3604.98	79.4749	3604.98	82.629	3604.98	79.0636	3604.98	79.0595	3604.98	79.4445	3604.98	77.5392	3604.98	80.3038	3604.98	79.5014	3604.98	81.2611	3604.98	78.5621	3604.98	80.0019	3604.98	77.3683	3604.98	76.8635	3604.98	75.8678	3604.98	73.9151	3604.98	74.1783	3604.98	72.0705	3604.98	72.5517	3604.98	71.0407	3604.98	72.5371	3604.98	68.1362	3604.98	72.1499	3604.98	67.6525	3604.98	69.4689	3604.98	70.6123	3604.98	71.443	3604.98	65.9825	3604.98	69.148	3604.98	66.3208	3604.98	65.7964	3604.98	68.1371	3604.98	57.2031	3604.98	65.8539	3604.98	58.7209
3732.42	83.0464	3732.42	83.8176	3732.42	79.625	3732.42	82.3218	3732.42	80.1144	3732.42	78.8662	3732.42	79.396	3732.42	79.2195	3732.42	79.3867	3732.42	80.1848	3732.42	81.214	3732.42	78.7228	3732.42	80.825	3732.42	77.9382	3732.42	79.0175	3732.42	75.6543	3732.42	77.0743	3732.42	73.0164	3732.42	74.2598	3732.42	72.3577	3732.42	73.3138	3732.42	71.2806	3732.42	71.7387	3732.42	72.2317	3732.42	67.3797	3732.42	69.38	3732.42	69.3224	3732.42	70.8598	3732.42	65.1282	3732.42	68.9994	3732.42	65.0902	3732.42	65.8447	3732.42	67.5319	3732.42	56.7548	3732.42	66.0712	3732.42	57.9498
3864.26	82.8956	3864.26	83.8556	3864.26	79.3129	3864.26	82.5624	3864.26	80.4581	3864.26	78.5706	3864.26	80.7447	3864.26	80.054	3864.26	77.7073	3864.26	80.3054	3864.26	80.7691	3864.26	78.9441	3864.26	81.1603	3864.26	77.3742	3864.26	79.2178	3864.26	76.4215	3864.26	77.4816	3864.26	74.2608	3864.26	73.1421	3864.26	73.4807	3864.26	72.5111	3864.26	71.7549	3864.26	73.4186	3864.26	71.2432	3864.26	70.1304	3864.26	69.2408	3864.26	69.9089	3864.26	70.7482	3864.26	63.7446	3864.26	69.8328	3864.26	66.0199	3864.26	66.5254	3864.26	67.7814	3864.26	59.2267	3864.26	65.2849	3864.26	53.4747
4000.49	82.7705	4000.49	84.0882	4000.49	80.1095	4000.49	82.3182	4000.49	80.216	4000.49	79.0487	4000.49	81.9626	4000.49	80.8973	4000.49	77.5005	4000.49	80.5838	4000.49	79.0461	4000.49	79.6384	4000.49	80.4359	4000.49	78.1248	4000.49	78.4146	4000.49	76.3837	4000.49	76.2798	4000.49	73.6612	4000.49	69.6306	4000.49	72.7559	4000.49	67.5323	4000.49	71.812	4000.49	71.9278	4000.49	70.8137	4000.49	67.9179	4000.49	68.4964	4000.49	69.4573	4000.49	69.0397	4000.49	60.2648	4000.49	69.6038	4000.49	63.6076	4000.49	65.6216	4000.49	68.3537	4000.49	60.0624	4000.49	64.1899	4000.49	57.0753
4141.11	82.5451	4141.11	84.6864	4141.11	80.8646	4141.11	82.096	4141.11	80.103	4141.11	79.9818	4141.11	82.5166	4141.11	81.0361	4141.11	78.8255	4141.11	80.5021	4141.11	77.2908	4141.11	79.3504	4141.11	80.3475	4141.11	77.781	4141.11	78.3638	4141.11	75.3472	4141.11	77.6667	4141.11	71.3273	4141.11	70.6868	4141.11	70.8185	4141.11	63.0959	4141.11	70.9187	4141.11	66.2585	4141.11	69.6011	4141.11	65.7953	4141.11	68.7088	4141.11	71.1504	4141.11	67.9499	4141.11	60.9804	4141.11	69.2118	4141.11	61.4091	4141.11	66.2054	4141.11	68.5398	4141.11	60.5155	4141.11	62.4015	4141.11	53.0275
4287.6	82.4335	4287.6	84.7287	4287.6	80.9289	4287.6	81.285	4287.6	80.9109	4287.6	81.5437	4287.6	82.0589	4287.6	81.144	4287.6	80.3863	4287.6	80.8908	4287.6	75.1934	4287.6	80.0981	4287.6	79.1554	4287.6	76.6479	4287.6	76.4493	4287.6	75.3524	4287.6	75.3514	4287.6	73.2509	4287.6	70.2838	4287.6	71.3548	4287.6	53.7228	4287.6	69.7972	4287.6	62.5545	4287.6	68.3767	4287.6	62.332	4287.6	66.6894	4287.6	69.1666	4287.6	67.8352	4287.6	62.1505	4287.6	67.4708	4287.6	61.7414	4287.6	65.9751	4287.6	68.6335	4287.6	58.7661	4287.6	64.2587	4287.6	55.1228
4438.48	83.7033	4438.48	84.6232	4438.48	80.1758	4438.48	81.5834	4438.48	82.3733	4438.48	81.823	4438.48	82.3627	4438.48	80.8713	4438.48	80.9356	4438.48	80.7623	4438.48	76.3335	4438.48	77.4443	4438.48	78.8157	4438.48	75.905	4438.48	76.6474	4438.48	72.5041	4438.48	73.1916	4438.48	69.822	4438.48	72.0323	4438.48	70.2223	4438.48	52.4573	4438.48	69.9977	4438.48	69.3138	4438.48	69.4839	4438.48	64.282	4438.48	68.0487	4438.48	63.5647	4438.48	68.0773	4438.48	57.7038	4438.48	67.7596	4438.48	60.99	4438.48	65.3642	4438.48	68.0059	4438.48	61.6626	4438.48	63.029	4438.48	49.8045
4595.21	83.8263	4595.21	83.8485	4595.21	80.481	4595.21	82.4412	4595.21	82.6646	4595.21	81.2345	4595.21	82.1718	4595.21	82.0257	4595.21	80.5639	4595.21	80.293	4595.21	77.8072	4595.21	77.4089	4595.21	80.1015	4595.21	74.7349	4595.21	79.2267	4595.21	74.0313	4595.21	76.2823	4595.21	72.5073	4595.21	73.3028	4595.21	69.765	4595.21	59.8143	4595.21	67.7462	4595.21	69.3022	4595.21	67.8866	4595.21	69.6884	4595.21	67.7208	4595.21	65.818	4595.21	69.0125	4595.21	62.1868	4595.21	68.1443	4595.21	58.0493	4595.21	66.0726	4595.21	67.2377	4595.21	62.5687	4595.21	62.564	4595.21	56.6158
4756.35	83.6252	4756.35	84.3309	4756.35	80.4596	4756.35	82.82	4756.35	82.629	4756.35	81.9547	4756.35	82.8377	4756.35	82.1266	4756.35	78.8196	4756.35	78.8023	4756.35	77.3761	4756.35	76.7076	4756.35	81.1762	4756.35	76.2439	4756.35	80.0315	4756.35	73.1154	4756.35	77.3083	4756.35	72.6869	4756.35	74.6541	4756.35	72.8722	4756.35	34.679	4756.35	69.8008	4756.35	70.2357	4756.35	69.05	4756.35	71.7041	4756.35	67.753	4756.35	66.938	4756.35	69.6647	4756.35	61.6406	4756.35	70.0727	4756.35	58.0698	4756.35	66.5118	4756.35	67.0191	4756.35	64.3738	4756.35	62.5256	4756.35	59.123
4924.8	83.5249	4924.8	84.5894	4924.8	80.5609	4924.8	82.7639	4924.8	82.9866	4924.8	82.41	4924.8	83.2799	4924.8	81.5278	4924.8	79.9962	4924.8	77.9708	4924.8	75.0738	4924.8	77.7976	4924.8	80.3093	4924.8	76.2788	4924.8	80.203	4924.8	74.6098	4924.8	77.4969	4924.8	72.2687	4924.8	73.3933	4924.8	70.5274	4924.8	60.3366	4924.8	69.6475	4924.8	62.7532	4924.8	68.8004	4924.8	71.2691	4924.8	66.3332	4924.8	67.5769	4924.8	69.1321	4924.8	58.8045	4924.8	69.2886	4924.8	57.9223	4924.8	66.2254	4924.8	66.6279	4924.8	61.8421	4924.8	61.4037	4924.8	57.7348
5097.66	83.7366	5097.66	84.5278	5097.66	80.8897	5097.66	82.809	5097.66	82.9738	5097.66	82.4672	5097.66	83.2312	5097.66	80.7134	5097.66	80.5091	5097.66	79.3851	5097.66	76.2468	5097.66	78.5263	5097.66	80.0153	5097.66	76.6198	5097.66	80.0652	5097.66	73.2984	5097.66	77.8056	5097.66	71.633	5097.66	72.9997	5097.66	70.8943	5097.66	64.5686	5097.66	67.9111	5097.66	62.224	5097.66	66.3821	5097.66	67.7563	5097.66	65.4185	5097.66	68.3518	5097.66	67.0736	5097.66	62.0055	5097.66	69.3487	5097.66	57.7678	5097.66	66.2014	5097.66	65.5748	5097.66	63.608	5097.66	58.6342	5097.66	57.1915
5277.83	83.9155	5277.83	84.5472	5277.83	80.7309	5277.83	82.7253	5277.83	83.2431	5277.83	82.1876	5277.83	83.5753	5277.83	80.5882	5277.83	79.4529	5277.83	79.1177	5277.83	75.4631	5277.83	78.4769	5277.83	80.4131	5277.83	75.3191	5277.83	80.3937	5277.83	71.2163	5277.83	77.4687	5277.83	68.3757	5277.83	71.9759	5277.83	68.8488	5277.83	63.9186	5277.83	67.7619	5277.83	66.2318	5277.83	68.1708	5277.83	64.8744	5277.83	64.6144	5277.83	68.5826	5277.83	66.0003	5277.83	64.1881	5277.83	67.5095	5277.83	54.1022	5277.83	66.6812	5277.83	63.5259	5277.83	62.3811	5277.83	60.6504	5277.83	61.4004
5463.87	83.9597	5463.87	84.9593	5463.87	81.1046	5463.87	82.7371	5463.87	82.9887	5463.87	82.0612	5463.87	83.7118	5463.87	80.1167	5463.87	80.7104	5463.87	79.5563	5463.87	73.8821	5463.87	76.6232	5463.87	79.3615	5463.87	73.9396	5463.87	78.8174	5463.87	70.1542	5463.87	75.3649	5463.87	69.9562	5463.87	70.3161	5463.87	67.9945	5463.87	64.3656	5463.87	66.4197	5463.87	67.5577	5463.87	65.6996	5463.87	62.8566	5463.87	65.1656	5463.87	66.439	5463.87	64.8036	5463.87	62.1067	5463.87	67.7516	5463.87	56.3623	5463.87	67.0764	5463.87	63.37	5463.87	63.5264	5463.87	59.6504	5463.87	58.1825
5657.23	84.1784	5657.23	84.9186	5657.23	80.3843	5657.23	82.8958	5657.23	83.6427	5657.23	81.6248	5657.23	82.9549	5657.23	80.9763	5657.23	81.0172	5657.23	78.7094	5657.23	75.2913	5657.23	75.3389	5657.23	78.0211	5657.23	72.5647	5657.23	78.7808	5657.23	71.5367	5657.23	73.7757	5657.23	71.493	5657.23	68.7266	5657.23	68.8369	5657.23	65.604	5657.23	67.4935	5657.23	68.6818	5657.23	65.8341	5657.23	63.6776	5657.23	64.9681	5657.23	63.9551	5657.23	65.6748	5657.23	56.9319	5657.23	67.7356	5657.23	45.0674	5657.23	67.296	5657.23	62.0548	5657.23	65.2878	5657.23	58.7424	5657.23	60.545
5856.45	84.4378	5856.45	84.8911	5856.45	80.2858	5856.45	82.4262	5856.45	83.5184	5856.45	82.0717	5856.45	83.3252	5856.45	80.9506	5856.45	81.002	5856.45	78.2521	5856.45	76.19	5856.45	76.8096	5856.45	76.9455	5856.45	75.5742	5856.45	78.015	5856.45	72.3739	5856.45	74.8584	5856.45	70.4389	5856.45	69.6094	5856.45	67.4904	5856.45	62.6586	5856.45	67.8908	5856.45	69.0893	5856.45	65.4373	5856.45	61.0123	5856.45	64.6083	5856.45	65.314	5856.45	65.1401	5856.45	61.2983	5856.45	67.786	5856.45	51.2031	5856.45	66.8198	5856.45	61.583	5856.45	64.3757	5856.45	58.0856	5856.45	61.8383
6062.99	85.0748	6062.99	84.7266	6062.99	79.4864	6062.99	82.013	6062.99	83.2733	6062.99	82.2376	6062.99	83.2729	6062.99	80.8845	6062.99	80.8523	6062.99	78.11	6062.99	77.4136	6062.99	77.0966	6062.99	76.3017	6062.99	73.713	6062.99	77.8852	6062.99	72.6503	6062.99	75.3445	6062.99	70.7578	6062.99	71.8638	6062.99	68.0508	6062.99	63.8354	6062.99	66.3647	6062.99	69.3694	6062.99	64.8568	6062.99	60.3037	6062.99	63.9375	6062.99	63.2576	6062.99	64.7525	6062.99	61.2775	6062.99	67.6802	6062.99	51.9933	6062.99	66.978	6062.99	59.0354	6062.99	64.4753	6062.99	59.3757	6062.99	62.3785
6276.86	85.4979	6276.86	84.2047	6276.86	79.5982	6276.86	81.8191	6276.86	82.9377	6276.86	82.8834	6276.86	83.1365	6276.86	80.7317	6276.86	80.6172	6276.86	77.6259	6276.86	77.9954	6276.86	76.3945	6276.86	77.2836	6276.86	73.3952	6276.86	77.3763	6276.86	72.4491	6276.86	75.3658	6276.86	70.8477	6276.86	70.3978	6276.86	68.3939	6276.86	67.7534	6276.86	67.4926	6276.86	70.1553	6276.86	63.86	6276.86	61.4968	6276.86	64.1804	6276.86	57.5927	6276.86	64.5667	6276.86	58.1687	6276.86	68.1247	6276.86	52.1878	6276.86	66.4924	6276.86	61.1898	6276.86	65.0758	6276.86	59.9649	6276.86	63.0106
6498.05	85.9822	6498.05	83.1508	6498.05	80.409	6498.05	82.3077	6498.05	82.5226	6498.05	83.8874	6498.05	83.5476	6498.05	79.6839	6498.05	80.1761	6498.05	78.3107	6498.05	78.0026	6498.05	76.4309	6498.05	77.5405	6498.05	75.5362	6498.05	78.3054	6498.05	74.2465	6498.05	75.34	6498.05	71.1857	6498.05	73.0682	6498.05	69.632	6498.05	68.1405	6498.05	67.2599	6498.05	67.0268	6498.05	64.9001	6498.05	63.6798	6498.05	64.1582	6498.05	61.5527	6498.05	65.0526	6498.05	59.1696	6498.05	68.2977	6498.05	56.272	6498.05	67.28	6498.05	58.9684	6498.05	63.8787	6498.05	59.5637	6498.05	63.908
6726.56	85.0662	6726.56	81.8054	6726.56	82.6416	6726.56	83.7991	6726.56	80.6005	6726.56	82.8077	6726.56	83.5838	6726.56	79.2694	6726.56	80.6211	6726.56	78.8973	6726.56	77.0937	6726.56	78.3887	6726.56	76.5923	6726.56	74.9807	6726.56	78.2575	6726.56	73.9277	6726.56	73.8649	6726.56	71.6126	6726.56	71.5072	6726.56	69.3485	6726.56	65.9531	6726.56	66.9611	6726.56	60.5915	6726.56	65.1605	6726.56	63.2467	6726.56	64.3208	6726.56	61.3263	6726.56	63.7613	6726.56	57.5884	6726.56	67.182	6726.56	54.8977	6726.56	66.2519	6726.56	60.3752	6726.56	63.9007	6726.56	57.914	6726.56	62.1724
6963.87	84.0621	6963.87	82.4742	6963.87	82.738	6963.87	83.6328	6963.87	81.0815	6963.87	81.8501	6963.87	82.3786	6963.87	80.0389	6963.87	81.4102	6963.87	79.4041	6963.87	77.1219	6963.87	78.2008	6963.87	75.6809	6963.87	74.5932	6963.87	77.2785	6963.87	73.056	6963.87	71.5397	6963.87	70.1942	6963.87	69.9784	6963.87	68.5822	6963.87	64.1821	6963.87	66.7232	6963.87	59.7372	6963.87	65.0381	6963.87	62.0553	6963.87	63.9734	6963.87	60.6628	6963.87	62.5931	6963.87	58.3692	6963.87	66.1319	6963.87	40.752	6963.87	65.6589	6963.87	59.0718	6963.87	62.5442	6963.87	60.9611	6963.87	63.9019
7209.96	83.854	7209.96	82.3354	7209.96	82.3915	7209.96	83.6223	7209.96	81.8184	7209.96	81.4555	7209.96	81.7857	7209.96	80.2244	7209.96	81.2849	7209.96	79.6024	7209.96	76.7647	7209.96	77.5906	7209.96	74.6905	7209.96	74.5604	7209.96	75.4359	7209.96	72.4943	7209.96	72.2678	7209.96	68.9716	7209.96	70.2491	7209.96	67.4588	7209.96	62.0329	7209.96	65.9994	7209.96	52.6709	7209.96	64.7498	7209.96	58.3	7209.96	63.552	7209.96	52.7608	7209.96	60.0037	7209.96	54.9099	7209.96	64.5053	7209.96	54.7052	7209.96	63.1257	7209.96	56.7912	7209.96	63.0856	7209.96	53.749	7209.96	62.8889
7464.84	84.271	7464.84	82.4745	7464.84	82.2662	7464.84	83.6772	7464.84	82.4984	7464.84	81.3288	7464.84	81.4356	7464.84	80.5676	7464.84	81.4812	7464.84	79.4982	7464.84	76.3983	7464.84	77.5081	7464.84	72.7818	7464.84	73.3652	7464.84	73.6509	7464.84	71.1108	7464.84	72.7816	7464.84	68.0763	7464.84	63.9683	7464.84	65.7379	7464.84	54.5379	7464.84	65.4243	7464.84	58.1401	7464.84	63.5121	7464.84	56.1726	7464.84	63.8244	7464.84	51.3386	7464.84	59.0885	7464.84	59.9268	7464.84	62.5454	7464.84	49.7766	7464.84	62.623	7464.84	57.7835	7464.84	62.1662	7464.84	58.2928	7464.84	62.6453
7727.05	84.1691	7727.05	82.6092	7727.05	82.7241	7727.05	83.4583	7727.05	82.5818	7727.05	81.563	7727.05	81.6447	7727.05	80.8239	7727.05	81.5135	7727.05	79.3957	7727.05	78.005	7727.05	77.2996	7727.05	68.8131	7727.05	72.4517	7727.05	73.742	7727.05	71.201	7727.05	74.9918	7727.05	67.9914	7727.05	69.5363	7727.05	66.3479	7727.05	63.0415	7727.05	64.4531	7727.05	58.5274	7727.05	63.0571	7727.05	60.007	7727.05	63.6591	7727.05	55.0593	7727.05	59.9965	7727.05	59.6823	7727.05	61.7923	7727.05	46.2897	7727.05	61.8098	7727.05	53.3329	7727.05	61.5769	7727.05	57.5381	7727.05	61.0183
7999.51	83.5075	7999.51	82.85	7999.51	83.2198	7999.51	82.8532	7999.51	82.4244	7999.51	82.0971	7999.51	81.2631	7999.51	80.5568	7999.51	80.8592	7999.51	79.7188	7999.51	78.3119	7999.51	76.1768	7999.51	71.4361	7999.51	73.1669	7999.51	74.4811	7999.51	70.953	7999.51	73.0464	7999.51	66.7428	7999.51	69.5576	7999.51	65.7596	7999.51	62.3227	7999.51	62.3519	7999.51	56.8877	7999.51	62.0821	7999.51	57.0753	7999.51	62.241	7999.51	51.716	7999.51	59.3918	7999.51	61.6566	7999.51	60.2881	7999.51	52.7907	7999.51	61.275	7999.51	56.0016	7999.51	59.3509	7999.51	58.4472	7999.51	61.2952
8282.23	83.4001	8282.23	83.1764	8282.23	83.604	8282.23	82.5747	8282.23	82.4262	8282.23	82.0791	8282.23	81.3552	8282.23	80.9347	8282.23	80.1833	8282.23	78.8679	8282.23	78.7658	8282.23	76.153	8282.23	69.5367	8282.23	71.5165	8282.23	73.9085	8282.23	68.3582	8282.23	73.4165	8282.23	66.8755	8282.23	70.9958	8282.23	64.8483	8282.23	63.232	8282.23	60.6397	8282.23	57.1629	8282.23	62.0798	8282.23	56.9441	8282.23	60.6901	8282.23	53.2648	8282.23	57.9959	8282.23	62.8104	8282.23	60.0139	8282.23	54.0548	8282.23	58.6705	8282.23	52.9341	8282.23	57.3563	8282.23	58.3237	8282.23	59.6705
8573.73	83.3625	8573.73	83.0634	8573.73	83.7792	8573.73	82.4578	8573.73	82.5741	8573.73	81.8736	8573.73	81.4461	8573.73	81.2453	8573.73	79.7355	8573.73	78.0192	8573.73	78.8315	8573.73	75.3791	8573.73	71.6239	8573.73	71.4724	8573.73	73.4607	8573.73	68.325	8573.73	68.824	8573.73	69.253	8573.73	70.2175	8573.73	64.3078	8573.73	59.8117	8573.73	62.7201	8573.73	53.1429	8573.73	62.4519	8573.73	55.0433	8573.73	61.189	8573.73	57.3586	8573.73	58.9922	8573.73	59.8757	8573.73	60.8739	8573.73	47.3723	8573.73	57.999	8573.73	51.7654	8573.73	55.8537	8573.73	58.8527	8573.73	58.9713
8876.95	83.7248	8876.95	83.0459	8876.95	83.6395	8876.95	82.2229	8876.95	82.7654	8876.95	82.0902	8876.95	81.3716	8876.95	80.4035	8876.95	79.7393	8876.95	78.0531	8876.95	78.5675	8876.95	74.6646	8876.95	72.0171	8876.95	73.0541	8876.95	73.9646	8876.95	68.4864	8876.95	66.1627	8876.95	68.5605	8876.95	68.546	8876.95	63.2212	8876.95	58.1352	8876.95	63.0678	8876.95	54.9501	8876.95	61.0928	8876.95	51.137	8876.95	61.213	8876.95	56.2381	8876.95	58.0776	8876.95	57.6571	8876.95	59.7933	8876.95	47.9709	8876.95	57.0371	8876.95	55.0968	8876.95	53.7749	8876.95	57.5393	8876.95	58.2639
9188.96	84.2182	9188.96	83.0677	9188.96	83.7481	9188.96	82.6146	9188.96	82.6619	9188.96	82.4465	9188.96	80.9529	9188.96	79.8956	9188.96	79.533	9188.96	78.3638	9188.96	78.5246	9188.96	75.5125	9188.96	72.5399	9188.96	72.7765	9188.96	73.5326	9188.96	68.9118	9188.96	70.696	9188.96	66.5555	9188.96	69.075	9188.96	64.2931	9188.96	67.6853	9188.96	61.866	9188.96	56.3299	9188.96	61.5736	9188.96	45.0285	9188.96	60.4012	9188.96	52.189	9188.96	58.0465	9188.96	58.8128	9188.96	56.3594	9188.96	53.755	9188.96	56.7096	9188.96	44.5637	9188.96	49.9563	9188.96	55.2846	9188.96	56.1093
9514.16	84.5493	9514.16	83.1844	9514.16	84.2509	9514.16	83.4359	9514.16	82.6456	9514.16	82.0444	9514.16	81.0042	9514.16	79.9847	9514.16	79.2721	9514.16	78.5303	9514.16	78.3309	9514.16	75.8438	9514.16	73.7812	9514.16	72.3173	9514.16	70.9887	9514.16	68.43	9514.16	70.0415	9514.16	65.0507	9514.16	65.9164	9514.16	64.0236	9514.16	67.2466	9514.16	61.9563	9514.16	50.6252	9514.16	61.3801	9514.16	48.3724	9514.16	59.9375	9514.16	43.1145	9514.16	57.986	9514.16	51.318	9514.16	55.531	9514.16	52.4489	9514.16	56.0083	9514.16	41.9468	9514.16	43.1023	9514.16	57.2221	9514.16	52.8863
9849.61	84.9063	9849.61	83.865	9849.61	84.768	9849.61	83.7553	9849.61	82.8596	9849.61	81.6827	9849.61	80.9191	9849.61	80.0051	9849.61	78.7952	9849.61	78.4133	9849.61	77.7942	9849.61	75.8713	9849.61	74.4879	9849.61	72.4242	9849.61	70.0103	9849.61	68.8111	9849.61	70.0753	9849.61	66.3502	9849.61	64.7513	9849.61	63.4144	9849.61	65.4987	9849.61	61.4608	9849.61	56.2323	9849.61	59.309	9849.61	50.4123	9849.61	58.9311	9849.61	32.8633	9849.61	57.2867	9849.61	49.0558	9849.61	57.1977	9849.61	52.4812	9849.61	55.5434	9849.61	40.244	9849.61	42.4622	9849.61	56.9973	9849.61	52.4677
10196.8	84.8147	10196.8	84.5704	10196.8	84.9167	10196.8	83.6731	10196.8	83.0452	10196.8	81.8183	10196.8	80.9471	10196.8	79.4411	10196.8	78.5486	10196.8	78.3896	10196.8	77.3357	10196.8	75.5465	10196.8	73.1332	10196.8	72.2985	10196.8	70.2717	10196.8	67.4176	10196.8	69.9983	10196.8	64.113	10196.8	62.6066	10196.8	61.245	10196.8	65.1111	10196.8	60.7744	10196.8	58.1474	10196.8	55.645	10196.8	48.8973	10196.8	56.7278	10196.8	49.471	10196.8	56.3638	10196.8	44.2892	10196.8	56.453	10196.8	49.6346	10196.8	53.9823	10196.8	40.8548	10196.8	45.9312	10196.8	55.6324	10196.8	51.0926
10555.7	85.3429	10555.7	85.0019	10555.7	85.2251	10555.7	83.8577	10555.7	83.4046	10555.7	81.7396	10555.7	81.3206	10555.7	79.1402	10555.7	78.4203	10555.7	77.9711	10555.7	77.1877	10555.7	74.9846	10555.7	72.7523	10555.7	70.9106	10555.7	69.4	10555.7	65.2172	10555.7	67.2291	10555.7	62.9575	10555.7	58.6007	10555.7	59.8945	10555.7	65.8554	10555.7	58.7556	10555.7	61.4283	10555.7	52.6192	10555.7	53.5924	10555.7	56.6041	10555.7	54.0764	10555.7	54.4385	10555.7	47.1975	10555.7	56.6281	10555.7	49.2982	10555.7	54.863	10555.7	38.3564	10555.7	46.7505	10555.7	54.1179	10555.7	50.1837
10927.7	85.2474	10927.7	84.9765	10927.7	84.9764	10927.7	83.9466	10927.7	83.4033	10927.7	81.4427	10927.7	81.5156	10927.7	79.1998	10927.7	78.8475	10927.7	77.4091	10927.7	76.5337	10927.7	74.1814	10927.7	71.8599	10927.7	69.3266	10927.7	64.4463	10927.7	62.664	10927.7	65.3613	10927.7	62.3763	10927.7	55.9865	10927.7	58.1894	10927.7	64.3636	10927.7	56.5546	10927.7	60.9096	10927.7	52.2442	10927.7	53.1149	10927.7	54.0414	10927.7	44.4538	10927.7	52.9801	10927.7	36.0954	10927.7	55.7923	10927.7	45.0897	10927.7	55.288	10927.7	41.6521	10927.7	47.4421	10927.7	52.4811	10927.7	47.3751
11313	85.4025	11313	85.225	11313	85.1797	11313	83.8628	11313	83.4925	11313	81.5547	11313	81.7269	11313	78.7955	11313	78.8719	11313	77.3539	11313	75.7776	11313	72.5578	11313	69.9683	11313	68.1371	11313	64.5016	11313	60.798	11313	65.973	11313	59.705	11313	54.4915	11313	55.591	11313	61.489	11313	55.6406	11313	58.9874	11313	52.8317	11313	48.5862	11313	50.9832	11313	48.6216	11313	50.9827	11313	48.8872	11313	54.4806	11313	49.7818	11313	53.8872	11313	39.6156	11313	47.7742	11313	49.0443	11313	46.5083
11712.9	85.6368	11712.9	85.2835	11712.9	85.1638	11712.9	83.8394	11712.9	83.4614	11712.9	81.4229	11712.9	81.656	11712.9	78.587	11712.9	78.7848	11712.9	76.7697	11712.9	75.3083	11712.9	70.717	11712.9	69.7612	11712.9	66.5576	11712.9	64.0493	11712.9	59.6735	11712.9	64.7249	11712.9	58.7306	11712.9	52.6302	11712.9	54.6834	11712.9	58.4051	11712.9	53.1482	11712.9	52.5984	11712.9	53.7368	11712.9	41.6244	11712.9	51.0898	11712.9	43.721	11712.9	50.3566	11712.9	45.6554	11712.9	53.0424	11712.9	49.421	11712.9	53.1289	11712.9	35.9265	11712.9	47.7673	11712.9	47.7641	11712.9	36.4304
12126	85.809	12126	85.41	12126	85.2687	12126	83.8801	12126	83.3865	12126	81.0855	12126	81.4807	12126	78.4985	12126	78.2796	12126	76.0254	12126	74.1317	12126	69.5941	12126	68.2962	12126	65.21	12126	63.4022	12126	58.7315	12126	60.858	12126	57.9336	12126	43.5328	12126	52.4399	12126	58.4157	12126	49.6701	12126	51.127	12126	52.556	12126	48.6882	12126	48.8237	12126	44.4183	12126	48.8178	12126	47.8328	12126	51.2859	12126	47.9132	12126	51.9234	12126	37.0986	12126	46.2546	12126	45.6633	12126	34.4928
12553.7	86.2259	12553.7	85.6315	12553.7	85.5122	12553.7	83.9708	12553.7	83.458	12553.7	80.9424	12553.7	81.2439	12553.7	77.6896	12553.7	77.807	12553.7	75.3637	12553.7	73.2811	12553.7	67.445	12553.7	66.2821	12553.7	64.0635	12553.7	60.4005	12553.7	58.7149	12553.7	59.1488	12553.7	55.5605	12553.7	53.4192	12553.7	50.8592	12553.7	51.7689	12553.7	46.8121	12553.7	46.4173	12553.7	51.2753	12553.7	47.8201	12553.7	48.2286	12553.7	44.5321	12553.7	49.3223	12553.7	45.6392	12553.7	49.3149	12553.7	49.835	12553.7	50.3927	12553.7	36.1469	12553.7	46.4194	12553.7	43.6197	12553.7	35.5953
12996.1	86.3876	12996.1	85.7633	12996.1	85.6195	12996.1	83.9764	12996.1	83.4799	12996.1	80.6513	12996.1	80.7992	12996.1	76.772	12996.1	76.8897	12996.1	74.285	12996.1	72.0053	12996.1	65.8646	12996.1	65.3251	12996.1	61.4353	12996.1	58.7754	12996.1	57.7231	12996.1	56.9051	12996.1	52.4994	12996.1	52.2468	12996.1	49.7885	12996.1	49.6382	12996.1	43.0456	12996.1	47.5673	12996.1	48.2668	12996.1	42.5719	12996.1	45.3158	12996.1	42.4356	12996.1	47.9378	12996.1	43.6987	12996.1	45.8962	12996.1	48.1219	12996.1	48.2341	12996.1	32.775	12996.1	44.8774	12996.1	44.2792	12996.1	33.2307
13454.6	86.345	13454.6	85.7325	13454.6	85.583	13454.6	83.8283	13454.6	83.2731	13454.6	80.4721	13454.6	80.492	13454.6	75.5646	13454.6	76.1345	13454.6	73.1028	13454.6	70.5198	13454.6	63.7345	13454.6	62.9749	13454.6	58.3929	13454.6	57.4087	13454.6	55.5676	13454.6	51.9174	13454.6	48.8124	13454.6	50.0934	13454.6	45.6465	13454.6	49.7668	13454.6	41.2064	13454.6	47.6875	13454.6	47.2777	13454.6	45.7816	13454.6	44.7073	13454.6	41.8375	13454.6	46.0807	13454.6	41.2868	13454.6	44.4077	13454.6	46.4745	13454.6	47.5187	13454.6	31.4191	13454.6	44.9234	13454.6	45.3605	13454.6	37.7788
13929.2	85.9178	13929.2	85.2672	13929.2	85.1503	13929.2	83.3251	13929.2	82.8899	13929.2	79.9041	13929.2	79.6818	13929.2	74.5797	13929.2	75.0607	13929.2	71.458	13929.2	68.3641	13929.2	62.6138	13929.2	60.3707	13929.2	55.2574	13929.2	53.8149	13929.2	56.2073	13929.2	51.9946	13929.2	51.2718	13929.2	50.3447	13929.2	45.8394	13929.2	35.2731	13929.2	46.1356	13929.2	43.6839	13929.2	45.2583	13929.2	38.0383	13929.2	46.0764	13929.2	36.8731	13929.2	47.3916	13929.2	38.1553	13929.2	46.1199	13929.2	46.5896	13929.2	48.0341	13929.2	26.1653	13929.2	44.361	13929.2	42.2728	13929.2	39.0522
14419.9	85.2764	14419.9	84.4893	14419.9	84.2878	14419.9	82.4442	14419.9	82.0633	14419.9	79.283	14419.9	79.008	14419.9	73.8403	14419.9	73.8211	14419.9	71.195	14419.9	68.0389	14419.9	64.0588	14419.9	62.8696	14419.9	56.0578	14419.9	55.7158	14419.9	55.9112	14419.9	53.7339	14419.9	52.9906	14419.9	53.0513	14419.9	46.5836	14419.9	46.5042	14419.9	46.1041	14419.9	42.3837	14419.9	46.8179	14419.9	42.9504	14419.9	45.8252	14419.9	45.6209	14419.9	46.2479	14419.9	40.5015	14419.9	47.3279	14419.9	44.0061	14419.9	49.5579	14419.9	26.455	14419.9	46.901	14419.9	45.8078	14419.9	41.9353
14928.2	83.2033	14928.2	82.2511	14928.2	82.2693	14928.2	81.2365	14928.2	80.5771	14928.2	77.7677	14928.2	78.2165	14928.2	73.9377	14928.2	73.9743	14928.2	72.5268	14928.2	71.0164	14928.2	65.5778	14928.2	67.2223	14928.2	58.703	14928.2	58.8064	14928.2	58.0968	14928.2	56.7035	14928.2	55.2139	14928.2	55.7672	14928.2	47.2557	14928.2	54.5763	14928.2	46.4872	14928.2	52.8885	14928.2	46.6176	14928.2	50.3674	14928.2	46.3645	14928.2	47.5592	14928.2	46.9011	14928.2	42.751	14928.2	48.0666	14928.2	45.297	14928.2	49.6985	14928.2	33.2289	14928.2	46.5495	14928.2	46.7901	14928.2	42.9803
15455.6	87.1166	15455.6	86.2121	15455.6	86.0962	15455.6	84.052	15455.6	83.2831	15455.6	79.1076	15455.6	79.7464	15455.6	72.7915	15455.6	74.2577	15455.6	69.9533	15455.6	67.5503	15455.6	52.3793	15455.6	58.9574	15455.6	47.4187	15455.6	51.0995	15455.6	44.9287	15455.6	41.1301	15455.6	41.133	15455.6	37.9769	15455.6	30.0166	15455.6	49.8756	15455.6	37.2377	15455.6	50.0207	15455.6	32.0616	15455.6	45.1978	15455.6	32.9485	15455.6	33.4279	15455.6	28.2312	15455.6	36.8126	15455.6	35.6576	15455.6	42.0575	15455.6	34.3689	15455.6	37.5242	15455.6	35.957	15455.6	28.3548	15455.6	35.0956
16000.5	86.3376	16000.5	85.3769	16000.5	85.1625	16000.5	83.1669	16000.5	82.2794	16000.5	77.8835	16000.5	78.148	16000.5	71.6056	16000.5	71.241	16000.5	67.2555	16000.5	62.3668	16000.5	56.4854	16000.5	50.091	16000.5	53.3542	16000.5	42.8022	16000.5	52.2936	16000.5	48.5562	16000.5	51.5722	16000.5	43.5698	16000.5	42.8583	16000.5	41.9497	16000.5	44.2143	16000.5	44.9584	16000.5	40.5592	16000.5	37.5221	16000.5	39.2645	16000.5	30.4725	16000.5	39.954	16000.5	35.1493	16000.5	42.9239	16000.5	42.3565	16000.5	46.0481	16000.5	34.2273	16000.5	44.4291	16000.5	39.353	16000.5	38.4774
16564.5	85.5204	16564.5	84.4779	16564.5	84.2933	16564.5	82.2488	16564.5	81.2193	16564.5	76.8839	16564.5	76.5878	16564.5	70.8329	16564.5	68.9269	16564.5	65.124	16564.5	59.1605	16564.5	58.798	16564.5	55.9612	16564.5	54.662	16564.5	51.32	16564.5	51.7012	16564.5	50.7868	16564.5	50.1376	16564.5	43.4063	16564.5	44.6883	16564.5	44.3595	16564.5	43.4969	16564.5	48.7032	16564.5	37.567	16564.5	3.17459	16564.5	38.5807	16564.5	26.3279	16564.5	40.487	16564.5	33.7632	16564.5	41.4569	16564.5	41.3156	16564.5	45.3871	16564.5	28.5829	16564.5	42.9048	16564.5	40.0136	16564.5	36.4571
17148.9	84.7841	17148.9	83.7353	17148.9	83.4448	17148.9	81.2217	17148.9	79.9925	17148.9	75.5926	17148.9	74.7291	17148.9	69.8764	17148.9	66.5317	17148.9	61.359	17148.9	57.3325	17148.9	58.3404	17148.9	52.8069	17148.9	53.8607	17148.9	53.792	17148.9	50.2869	17148.9	50.1888	17148.9	47.5847	17148.9	49.1398	17148.9	44.8031	17148.9	45.3655	17148.9	42.7719	17148.9	49.4394	17148.9	36.6066	17148.9	32.623	17148.9	36.7992	17148.9	30.0771	17148.9	40.7825	17148.9	34.2779	17148.9	37.2403	17148.9	41.7457	17148.9	44.6219	17148.9	32.2768	17148.9	42.9348	17148.9	39.6091	17148.9	37.7687
17752.4	83.9884	17752.4	83.0684	17752.4	82.6631	17752.4	80.2794	17752.4	78.9112	17752.4	74.3648	17752.4	72.893	17752.4	67.5732	17752.4	63.1566	17752.4	59.1863	17752.4	57.1293	17752.4	57.234	17752.4	54.9774	17752.4	54.1927	17752.4	56.5133	17752.4	50.5379	17752.4	50.5035	17752.4	46.2702	17752.4	45.6879	17752.4	44.0081	17752.4	44.8646	17752.4	43.7293	17752.4	50.9818	17752.4	36.7231	17752.4	35.5771	17752.4	36.6116	17752.4	16.2761	17752.4	39.8704	17752.4	25.3146	17752.4	35.9417	17752.4	37.1472	17752.4	44.4432	17752.4	28.7096	17752.4	41.0316	17752.4	40.061	17752.4	38.3746
18379.4	82.789	18379.4	82.2017	18379.4	81.3946	18379.4	79.1093	18379.4	77.2382	18379.4	73.2578	18379.4	70.8972	18379.4	64.9933	18379.4	59.4339	18379.4	57.7342	18379.4	52.8488	18379.4	56.1229	18379.4	54.9689	18379.4	55.3669	18379.4	56.097	18379.4	50.3233	18379.4	47.0047	18379.4	45.1014	18379.4	43.6312	18379.4	42.6467	18379.4	42.8066	18379.4	42.9592	18379.4	51.1669	18379.4	37.012	18379.4	34.6743	18379.4	34.8713	18379.4	26.1494	18379.4	38.0241	18379.4	30.3832	18379.4	37.2775	18379.4	32.8864	18379.4	44.9101	18379.4	27.8619	18379.4	40.707	18379.4	39.9611	18379.4	36.0085
19026.9	81.7765	19026.9	81.297	19026.9	80.1925	19026.9	77.9414	19026.9	75.271	19026.9	71.7074	19026.9	68.2086	19026.9	62.5396	19026.9	54.596	19026.9	54.3794	19026.9	54.7207	19026.9	54.9103	19026.9	55.0235	19026.9	54.3706	19026.9	53.9783	19026.9	49.5873	19026.9	46.9702	19026.9	41.5993	19026.9	41.5143	19026.9	41.1429	19026.9	33.6291	19026.9	41.0177	19026.9	50.0334	19026.9	35.8586	19026.9	32.3985	19026.9	30.0321	19026.9	24.2623	19026.9	34.7653	19026.9	31.9511	19026.9	36.3149	19026.9	39.8046	19026.9	42.6903	19026.9	31.6496	19026.9	36.6695	19026.9	37.1918	19026.9	35.5968
19697.8	81.0835	19697.8	80.4685	19697.8	79.29	19697.8	76.5814	19697.8	73.5453	19697.8	69.2608	19697.8	65.6162	19697.8	59.6614	19697.8	52.4733	19697.8	52.9576	19697.8	54.7836	19697.8	55.5558	19697.8	56.2772	19697.8	51.8868	19697.8	53.3191	19697.8	47.8988	19697.8	41.8158	19697.8	37.1285	19697.8	37.1402	19697.8	39.1299	19697.8	36.2672	19697.8	36.5732	19697.8	50.1489	19697.8	31.9607	19697.8	41.5574	19697.8	23.053	19697.8	19.2472	19697.8	32.4893	19697.8	29.7657	19697.8	35.9368	19697.8	36.1805	19697.8	40.5064	19697.8	31.2076	19697.8	33.1656	19697.8	35.6952	19697.8	34.2345
19999.5	81.051	19999.5	80.1417	19999.5	78.9932	19999.5	76.1886	19999.5	72.7487	19999.5	67.8763	19999.5	63.8616	19999.5	58.2075	19999.5	52.6753	19999.5	53.012	19999.5	57.2372	19999.5	55.4476	19999.5	59.2015	19999.5	50.7079	19999.5	54.6782	19999.5	47.9875	19999.5	39.621	19999.5	38.5102	19999.5	40.9743	19999.5	34.0176	19999.5	44.742	19999.5	36.7007	19999.5	50.5448	19999.5	33.9132	19999.5	40.5165	19999.5	35.2014	19999.5	44.7554	19999.5	25.7648	19999.5	35.9866	19999.5	44.0731	19999.5	33.7509	19999.5	42.7303	19999.5	42.1626	19999.5	41.1649	19999.5	42.6604	19999.5	32.1304
