"SPL Horizontal"
"On-Axis"		"10°"		"-10°"		"20°"		"-20°"		"30°"		"-30°"		"40°"		"-40°"		"50°"		"-50°"		"60°"		"-60°"		"70°"		"-70°"		"80°"		"-80°"		"90°"		"-90°"		"100°"		"-100°"		"110°"		"-110°"		"120°"		"-120°"		"130°"		"-130°"		"140°"		"-140°"		"150°"		"-150°"		"160°"		"-160°"		"170°"		"-170°"		"180°"
"Frequency / Hz"	"Sound Pressure Level / dB (re 20 µPa/V)  [2.83V at 1m]"	"Frequency / Hz"	"Sound Pressure Level / dB (re 20 µPa/V)  [2.83V at 1m]"	"Frequency / Hz"	"Sound Pressure Level / dB (re 20 µPa/V)  [2.83V at 1m]"	"Frequency / Hz"	"Sound Pressure Level / dB (re 20 µPa/V)  [2.83V at 1m]"	"Frequency / Hz"	"Sound Pressure Level / dB (re 20 µPa/V)  [2.83V at 1m]"	"Frequency / Hz"	"Sound Pressure Level / dB (re 20 µPa/V)  [2.83V at 1m]"	"Frequency / Hz"	"Sound Pressure Level / dB (re 20 µPa/V)  [2.83V at 1m]"	"Frequency / Hz"	"Sound Pressure Level / dB (re 20 µPa/V)  [2.83V at 1m]"	"Frequency / Hz"	"Sound Pressure Level / dB (re 20 µPa/V)  [2.83V at 1m]"	"Frequency / Hz"	"Sound Pressure Level / dB (re 20 µPa/V)  [2.83V at 1m]"	"Frequency / Hz"	"Sound Pressure Level / dB (re 20 µPa/V)  [2.83V at 1m]"	"Frequency / Hz"	"Sound Pressure Level / dB (re 20 µPa/V)  [2.83V at 1m]"	"Frequency / Hz"	"Sound Pressure Level / dB (re 20 µPa/V)  [2.83V at 1m]"	"Frequency / Hz"	"Sound Pressure Level / dB (re 20 µPa/V)  [2.83V at 1m]"	"Frequency / Hz"	"Sound Pressure Level / dB (re 20 µPa/V)  [2.83V at 1m]"	"Frequency / Hz"	"Sound Pressure Level / dB (re 20 µPa/V)  [2.83V at 1m]"	"Frequency / Hz"	"Sound Pressure Level / dB (re 20 µPa/V)  [2.83V at 1m]"	"Frequency / Hz"	"Sound Pressure Level / dB (re 20 µPa/V)  [2.83V at 1m]"	"Frequency / Hz"	"Sound Pressure Level / dB (re 20 µPa/V)  [2.83V at 1m]"	"Frequency / Hz"	"Sound Pressure Level / dB (re 20 µPa/V)  [2.83V at 1m]"	"Frequency / Hz"	"Sound Pressure Level / dB (re 20 µPa/V)  [2.83V at 1m]"	"Frequency / Hz"	"Sound Pressure Level / dB (re 20 µPa/V)  [2.83V at 1m]"	"Frequency / Hz"	"Sound Pressure Level / dB (re 20 µPa/V)  [2.83V at 1m]"	"Frequency / Hz"	"Sound Pressure Level / dB (re 20 µPa/V)  [2.83V at 1m]"	"Frequency / Hz"	"Sound Pressure Level / dB (re 20 µPa/V)  [2.83V at 1m]"	"Frequency / Hz"	"Sound Pressure Level / dB (re 20 µPa/V)  [2.83V at 1m]"	"Frequency / Hz"	"Sound Pressure Level / dB (re 20 µPa/V)  [2.83V at 1m]"	"Frequency / Hz"	"Sound Pressure Level / dB (re 20 µPa/V)  [2.83V at 1m]"	"Frequency / Hz"	"Sound Pressure Level / dB (re 20 µPa/V)  [2.83V at 1m]"	"Frequency / Hz"	"Sound Pressure Level / dB (re 20 µPa/V)  [2.83V at 1m]"	"Frequency / Hz"	"Sound Pressure Level / dB (re 20 µPa/V)  [2.83V at 1m]"	"Frequency / Hz"	"Sound Pressure Level / dB (re 20 µPa/V)  [2.83V at 1m]"	"Frequency / Hz"	"Sound Pressure Level / dB (re 20 µPa/V)  [2.83V at 1m]"	"Frequency / Hz"	"Sound Pressure Level / dB (re 20 µPa/V)  [2.83V at 1m]"	"Frequency / Hz"	"Sound Pressure Level / dB (re 20 µPa/V)  [2.83V at 1m]"	"Frequency / Hz"	"Sound Pressure Level / dB (re 20 µPa/V)  [2.83V at 1m]"
20.5078	49.771	20.5078	49.8369	20.5078	49.7219	20.5078	49.918	20.5078	49.6907	20.5078	50.012	20.5078	49.6781	20.5078	50.1163	20.5078	49.6843	20.5078	50.2278	20.5078	49.7089	20.5078	50.3427	20.5078	49.7511	20.5078	50.4573	20.5078	49.8096	20.5078	50.5675	20.5078	49.8825	20.5078	50.6693	20.5078	49.9676	20.5078	50.7592	20.5078	50.0623	20.5078	50.834	20.5078	50.1638	20.5078	50.8912	20.5078	50.2693	20.5078	50.9292	20.5078	50.3758	20.5078	50.9472	20.5078	50.4805	20.5078	50.945	20.5078	50.5806	20.5078	50.9234	20.5078	50.6734	20.5078	50.8836	20.5078	50.7564	20.5078	50.8272
21.9727	51.6556	21.9727	51.6792	21.9727	51.6464	21.9727	51.7169	21.9727	51.6519	21.9727	51.7675	21.9727	51.6718	21.9727	51.8298	21.9727	51.7055	21.9727	51.9017	21.9727	51.7518	21.9727	51.9811	21.9727	51.8092	21.9727	52.0653	21.9727	51.8761	21.9727	52.1516	21.9727	51.9501	21.9727	52.2369	21.9727	52.029	21.9727	52.3183	21.9727	52.1103	21.9727	52.3931	21.9727	52.1916	21.9727	52.4588	21.9727	52.2704	21.9727	52.5134	21.9727	52.3447	21.9727	52.5554	21.9727	52.4123	21.9727	52.584	21.9727	52.4717	21.9727	52.5985	21.9727	52.5212	21.9727	52.599	21.9727	52.5596	21.9727	52.5859
23.4375	53.7657	23.4375	53.7927	23.4375	53.7511	23.4375	53.8317	23.4375	53.7491	23.4375	53.8816	23.4375	53.7597	23.4375	53.9413	23.4375	53.7825	23.4375	54.0092	23.4375	53.8169	23.4375	54.0833	23.4375	53.8618	23.4375	54.1613	23.4375	53.9161	23.4375	54.2407	23.4375	53.9782	23.4375	54.3188	23.4375	54.0465	23.4375	54.3929	23.4375	54.119	23.4375	54.4604	23.4375	54.1936	23.4375	54.5188	23.4375	54.2684	23.4375	54.5663	23.4375	54.341	23.4375	54.6012	23.4375	54.4095	23.4375	54.6226	23.4375	54.4717	23.4375	54.6299	23.4375	54.5258	23.4375	54.6232	23.4375	54.5701	23.4375	54.603
24.9023	54.4932	24.9023	54.5102	24.9023	54.4806	24.9023	54.5313	24.9023	54.4728	24.9023	54.5557	24.9023	54.4697	24.9023	54.5827	24.9023	54.4714	24.9023	54.6112	24.9023	54.4775	24.9023	54.6402	24.9023	54.4875	24.9023	54.6686	24.9023	54.501	24.9023	54.6952	24.9023	54.5174	24.9023	54.7188	24.9023	54.536	24.9023	54.7386	24.9023	54.5563	24.9023	54.7539	24.9023	54.5778	24.9023	54.7641	24.9023	54.5999	24.9023	54.769	24.9023	54.6222	24.9023	54.7688	24.9023	54.6445	24.9023	54.7637	24.9023	54.6663	24.9023	54.7544	24.9023	54.6874	24.9023	54.7414	24.9023	54.7073	24.9023	54.7255
26.3672	56.9797	26.3672	56.9932	26.3672	56.9703	26.3672	57.0105	26.3672	56.9651	26.3672	57.0312	26.3672	56.9642	26.3672	57.0546	26.3672	56.9675	26.3672	57.08	26.3672	56.9746	26.3672	57.1065	26.3672	56.9852	26.3672	57.1332	26.3672	56.9989	26.3672	57.1589	26.3672	57.0151	26.3672	57.1827	26.3672	57.0334	26.3672	57.2036	26.3672	57.0531	26.3672	57.2207	26.3672	57.0739	26.3672	57.2335	26.3672	57.0952	26.3672	57.2414	26.3672	57.1166	26.3672	57.2444	26.3672	57.1379	26.3672	57.2426	26.3672	57.1586	26.3672	57.2363	26.3672	57.1782	26.3672	57.2261	26.3672	57.1964	26.3672	57.2126
27.832	58.8145	27.832	58.8276	27.832	58.8032	27.832	58.8423	27.832	58.794	27.832	58.8582	27.832	58.7871	27.832	58.8748	27.832	58.7823	27.832	58.8916	27.832	58.7797	27.832	58.9079	27.832	58.7792	27.832	58.923	27.832	58.7805	27.832	58.9363	27.832	58.7836	27.832	58.9471	27.832	58.7883	27.832	58.9548	27.832	58.7946	27.832	58.959	27.832	58.8024	27.832	58.9594	27.832	58.8116	27.832	58.9561	27.832	58.8224	27.832	58.949	27.832	58.8347	27.832	58.9388	27.832	58.8484	27.832	58.9259	27.832	58.8634	27.832	58.9112	27.832	58.8792	27.832	58.8953
29.2969	60.4392	29.2969	60.4314	29.2969	60.4539	29.2969	60.431	29.2969	60.4748	29.2969	60.4384	29.2969	60.5014	29.2969	60.4539	29.2969	60.5328	29.2969	60.4774	29.2969	60.5685	29.2969	60.5088	29.2969	60.6077	29.2969	60.5474	29.2969	60.6495	29.2969	60.5922	29.2969	60.6931	29.2969	60.6417	29.2969	60.7377	29.2969	60.6943	29.2969	60.7821	29.2969	60.748	29.2969	60.8253	29.2969	60.8006	29.2969	60.866	29.2969	60.8499	29.2969	60.9031	29.2969	60.8941	29.2969	60.9351	29.2969	60.9312	29.2969	60.9609	29.2969	60.9599	29.2969	60.979	29.2969	60.9793	29.2969	60.9886	29.2969	60.9888
30.7617	63.0397	30.7617	63.0453	30.7617	63.0361	30.7617	63.0528	30.7617	63.0345	30.7617	63.0619	30.7617	63.0349	30.7617	63.0725	30.7617	63.0373	30.7617	63.0843	30.7617	63.0417	30.7617	63.0969	30.7617	63.048	30.7617	63.11	30.7617	63.056	30.7617	63.1232	30.7617	63.0655	30.7617	63.136	30.7617	63.0764	30.7617	63.1481	30.7617	63.0883	30.7617	63.1589	30.7617	63.101	30.7617	63.1682	30.7617	63.114	30.7617	63.1756	30.7617	63.1271	30.7617	63.1808	30.7617	63.1397	30.7617	63.1836	30.7617	63.1514	30.7617	63.184	30.7617	63.1618	30.7617	63.1819	30.7617	63.1706	30.7617	63.1774
32.2266	65.2513	32.2266	65.2385	32.2266	65.2626	32.2266	65.2249	32.2266	65.2724	32.2266	65.2106	32.2266	65.2803	32.2266	65.1962	32.2266	65.286	32.2266	65.1821	32.2266	65.2894	32.2266	65.1686	32.2266	65.2905	32.2266	65.1562	32.2266	65.289	32.2266	65.1452	32.2266	65.2852	32.2266	65.1361	32.2266	65.279	32.2266	65.1291	32.2266	65.2706	32.2266	65.1245	32.2266	65.2602	32.2266	65.1223	32.2266	65.2481	32.2266	65.1229	32.2266	65.2347	32.2266	65.1261	32.2266	65.2203	32.2266	65.1319	32.2266	65.2054	32.2266	65.14	32.2266	65.1905	32.2266	65.1504	32.2266	65.176	32.2266	65.1625
33.6914	66.4126	33.6914	66.4024	33.6914	66.4242	33.6914	66.3938	33.6914	66.4368	33.6914	66.3871	33.6914	66.4501	33.6914	66.3825	33.6914	66.4639	33.6914	66.3803	33.6914	66.478	33.6914	66.3808	33.6914	66.492	33.6914	66.384	33.6914	66.5056	33.6914	66.39	33.6914	66.5186	33.6914	66.3988	33.6914	66.5306	33.6914	66.4101	33.6914	66.5413	33.6914	66.4238	33.6914	66.5502	33.6914	66.4393	33.6914	66.5569	33.6914	66.4563	33.6914	66.5612	33.6914	66.4739	33.6914	66.5626	33.6914	66.4915	33.6914	66.561	33.6914	66.5085	33.6914	66.5562	33.6914	66.524	33.6914	66.5483	33.6914	66.5374
35.1562	67.7105	35.1562	67.6922	35.1562	67.7324	35.1562	67.6781	35.1562	67.7573	35.1562	67.6686	35.1562	67.7847	35.1562	67.6645	35.1562	67.814	35.1562	67.6661	35.1562	67.8449	35.1562	67.6739	35.1562	67.8768	35.1562	67.6882	35.1562	67.909	35.1562	67.7088	35.1562	67.941	35.1562	67.7354	35.1562	67.972	35.1562	67.7675	35.1562	68.0012	35.1562	67.804	35.1562	68.0275	35.1562	67.8437	35.1562	68.0501	35.1562	67.8849	35.1562	68.0677	35.1562	67.926	35.1562	68.0796	35.1562	67.9652	35.1562	68.0848	35.1562	68.0009	35.1562	68.0828	35.1562	68.0315	35.1562	68.0731	35.1562	68.0559
36.6211	69.4011	36.6211	69.4061	36.6211	69.3953	36.6211	69.4102	36.6211	69.3888	36.6211	69.4132	36.6211	69.3818	36.6211	69.4149	36.6211	69.3744	36.6211	69.4152	36.6211	69.3668	36.6211	69.4138	36.6211	69.3592	36.6211	69.4108	36.6211	69.3516	36.6211	69.406	36.6211	69.3443	36.6211	69.3997	36.6211	69.3374	36.6211	69.3918	36.6211	69.331	36.6211	69.3827	36.6211	69.3255	36.6211	69.3729	36.6211	69.3208	36.6211	69.3627	36.6211	69.3173	36.6211	69.3525	36.6211	69.315	36.6211	69.343	36.6211	69.3142	36.6211	69.3344	36.6211	69.3149	36.6211	69.3271	36.6211	69.3173	36.6211	69.3214
38.0859	71.3765	38.0859	71.3758	38.0859	71.3755	38.0859	71.3733	38.0859	71.3728	38.0859	71.3692	38.0859	71.3687	38.0859	71.3635	38.0859	71.3632	38.0859	71.3564	38.0859	71.3566	38.0859	71.3483	38.0859	71.3492	38.0859	71.3394	38.0859	71.3412	38.0859	71.3302	38.0859	71.333	38.0859	71.3209	38.0859	71.3247	38.0859	71.312	38.0859	71.3167	38.0859	71.3039	38.0859	71.3092	38.0859	71.2966	38.0859	71.3023	38.0859	71.2906	38.0859	71.2962	38.0859	71.2858	38.0859	71.291	38.0859	71.2823	38.0859	71.2866	38.0859	71.2802	38.0859	71.2833	38.0859	71.2793	38.0859	71.2809	38.0859	71.2795
39.5508	72.268	39.5508	72.2635	39.5508	72.2684	39.5508	72.2549	39.5508	72.2647	39.5508	72.2425	39.5508	72.2569	39.5508	72.2267	39.5508	72.2454	39.5508	72.2078	39.5508	72.2304	39.5508	72.1864	39.5508	72.2123	39.5508	72.1631	39.5508	72.1917	39.5508	72.1387	39.5508	72.1691	39.5508	72.1138	39.5508	72.1452	39.5508	72.0894	39.5508	72.1208	39.5508	72.0662	39.5508	72.0965	39.5508	72.0448	39.5508	72.0732	39.5508	72.0261	39.5508	72.0515	39.5508	72.0106	39.5508	72.0321	39.5508	71.9987	39.5508	72.0156	39.5508	71.9909	39.5508	72.0025	39.5508	71.9874	39.5508	71.9933	39.5508	71.9882
41.0156	73.0658	41.0156	73.0607	41.0156	73.0663	41.0156	73.0511	41.0156	73.0621	41.0156	73.0372	41.0156	73.0533	41.0156	73.0194	41.0156	73.0402	41.0156	72.9983	41.0156	73.0232	41.0156	72.9743	41.0156	73.0028	41.0156	72.9483	41.0156	72.9795	41.0156	72.9211	41.0156	72.954	41.0156	72.8933	41.0156	72.9271	41.0156	72.866	41.0156	72.8996	41.0156	72.84	41.0156	72.8723	41.0156	72.8161	41.0156	72.8461	41.0156	72.7951	41.0156	72.8218	41.0156	72.7776	41.0156	72.8001	41.0156	72.7642	41.0156	72.7817	41.0156	72.7552	41.0156	72.7672	41.0156	72.751	41.0156	72.7571	41.0156	72.7516
42.4805	73.7852	42.4805	73.7807	42.4805	73.7843	42.4805	73.771	42.4805	73.778	42.4805	73.7563	42.4805	73.7666	42.4805	73.737	42.4805	73.7504	42.4805	73.7137	42.4805	73.7297	42.4805	73.6871	42.4805	73.7052	42.4805	73.6578	42.4805	73.6775	42.4805	73.6268	42.4805	73.6475	42.4805	73.595	42.4805	73.6161	42.4805	73.5634	42.4805	73.5842	42.4805	73.5329	42.4805	73.5528	42.4805	73.5046	42.4805	73.5229	42.4805	73.4792	42.4805	73.4955	42.4805	73.4577	42.4805	73.4713	42.4805	73.4407	42.4805	73.4513	42.4805	73.4286	42.4805	73.4359	42.4805	73.422	42.4805	73.4257	42.4805	73.421
43.9453	74.3923	43.9453	74.3869	43.9453	74.3915	43.9453	74.3756	43.9453	74.3846	43.9453	74.3585	43.9453	74.3718	43.9453	74.3362	43.9453	74.3533	43.9453	74.3092	43.9453	74.3298	43.9453	74.2783	43.9453	74.3018	43.9453	74.2445	43.9453	74.2701	43.9453	74.2086	43.9453	74.2356	43.9453	74.1717	43.9453	74.1994	43.9453	74.135	43.9453	74.1626	43.9453	74.0997	43.9453	74.1261	43.9453	74.0667	43.9453	74.0913	43.9453	74.0373	43.9453	74.0592	43.9453	74.0123	43.9453	74.0308	43.9453	73.9926	43.9453	74.0071	43.9453	73.9788	43.9453	73.9888	43.9453	73.9714	43.9453	73.9765	43.9453	73.9706
45.4102	74.8732	45.4102	74.8682	45.4102	74.8719	45.4102	74.8572	45.4102	74.8644	45.4102	74.8404	45.4102	74.851	45.4102	74.8182	45.4102	74.8319	45.4102	74.7914	45.4102	74.8077	45.4102	74.7606	45.4102	74.779	45.4102	74.7266	45.4102	74.7467	45.4102	74.6906	45.4102	74.7116	45.4102	74.6536	45.4102	74.6749	45.4102	74.6167	45.4102	74.6376	45.4102	74.5809	45.4102	74.6009	45.4102	74.5476	45.4102	74.566	45.4102	74.5176	45.4102	74.5339	45.4102	74.492	45.4102	74.5057	45.4102	74.4716	45.4102	74.4823	45.4102	74.4571	45.4102	74.4644	45.4102	74.449	45.4102	74.4527	45.4102	74.4475
46.875	75.2722	46.875	75.2675	46.875	75.2708	46.875	75.2566	46.875	75.263	46.875	75.2399	46.875	75.2493	46.875	75.2179	46.875	75.23	46.875	75.1912	46.875	75.2056	46.875	75.1605	46.875	75.1768	46.875	75.1269	46.875	75.1445	46.875	75.0912	46.875	75.1097	46.875	75.0547	46.875	75.0734	46.875	75.0183	46.875	75.0367	46.875	74.9832	46.875	75.0008	46.875	74.9506	46.875	74.9667	46.875	74.9213	46.875	74.9355	46.875	74.8964	46.875	74.9083	46.875	74.8765	46.875	74.8858	46.875	74.8624	46.875	74.8687	46.875	74.8544	46.875	74.8576	46.875	74.8528
48.3398	75.6658	48.3398	75.6617	48.3398	75.6629	48.3398	75.6507	48.3398	75.6531	48.3398	75.6332	48.3398	75.6367	48.3398	75.6097	48.3398	75.614	48.3398	75.5809	48.3398	75.5857	48.3398	75.5477	48.3398	75.5528	48.3398	75.511	48.3398	75.516	48.3398	75.4719	48.3398	75.4766	48.3398	75.4315	48.3398	75.4358	48.3398	75.3912	48.3398	75.3949	48.3398	75.3521	48.3398	75.3551	48.3398	75.3155	48.3398	75.3176	48.3398	75.2823	48.3398	75.2838	48.3398	75.2536	48.3398	75.2546	48.3398	75.2304	48.3398	75.2309	48.3398	75.2133	48.3398	75.2135	48.3398	75.2028	48.3398	75.2029	48.3398	75.1992
51.2695	76.2327	51.2695	76.2248	51.2695	76.2307	51.2695	76.2073	51.2695	76.2189	51.2695	76.1808	51.2695	76.1976	51.2695	76.1461	51.2695	76.1674	51.2695	76.1043	51.2695	76.1293	51.2695	76.0568	51.2695	76.0845	51.2695	76.005	51.2695	76.0343	51.2695	75.9506	51.2695	75.9805	51.2695	75.8953	51.2695	75.9246	51.2695	75.8408	51.2695	75.8686	51.2695	75.7887	51.2695	75.8143	51.2695	75.7407	51.2695	75.7633	51.2695	75.6981	51.2695	75.7173	51.2695	75.662	51.2695	75.6775	51.2695	75.6334	51.2695	75.6451	51.2695	75.613	51.2695	75.6208	51.2695	75.6014	51.2695	75.6052	51.2695	75.5987
52.7344	76.5406	52.7344	76.5319	52.7344	76.5393	52.7344	76.5134	52.7344	76.5279	52.7344	76.4856	52.7344	76.5068	52.7344	76.4496	52.7344	76.4767	52.7344	76.4063	52.7344	76.4386	52.7344	76.3572	52.7344	76.3936	52.7344	76.304	52.7344	76.3432	52.7344	76.2482	52.7344	76.289	52.7344	76.1918	52.7344	76.2329	52.7344	76.1366	52.7344	76.1767	52.7344	76.0841	52.7344	76.122	52.7344	76.0361	52.7344	76.0706	52.7344	75.9939	52.7344	76.0241	52.7344	75.9586	52.7344	75.9837	52.7344	75.9311	52.7344	75.9504	52.7344	75.912	52.7344	75.9251	52.7344	75.9017	52.7344	75.9084	52.7344	75.9005
54.1992	76.8746	54.1992	76.8653	54.1992	76.8736	54.1992	76.8459	54.1992	76.8622	54.1992	76.8171	54.1992	76.841	54.1992	76.7797	54.1992	76.8105	54.1992	76.735	54.1992	76.7718	54.1992	76.6844	54.1992	76.7262	54.1992	76.6296	54.1992	76.6751	54.1992	76.5725	54.1992	76.6202	54.1992	76.5149	54.1992	76.5635	54.1992	76.4586	54.1992	76.5066	54.1992	76.4056	54.1992	76.4514	54.1992	76.3572	54.1992	76.3995	54.1992	76.3151	54.1992	76.3524	54.1992	76.2801	54.1992	76.3114	54.1992	76.2532	54.1992	76.2776	54.1992	76.235	54.1992	76.2516	54.1992	76.2256	54.1992	76.234	54.1992	76.2253
55.6641	77.2108	55.6641	77.2017	55.6641	77.2093	55.6641	77.1824	55.6641	77.1974	55.6641	77.1536	55.6641	77.1754	55.6641	77.1161	55.6641	77.1441	55.6641	77.0712	55.6641	77.1047	55.6641	77.0204	55.6641	77.0582	55.6641	76.9655	55.6641	77.0065	55.6641	76.9083	55.6641	76.9512	55.6641	76.8507	55.6641	76.8942	55.6641	76.7947	55.6641	76.8374	55.6641	76.7419	55.6641	76.7825	55.6641	76.694	55.6641	76.7312	55.6641	76.6522	55.6641	76.685	55.6641	76.6177	55.6641	76.645	55.6641	76.591	55.6641	76.6122	55.6641	76.5728	55.6641	76.5872	55.6641	76.5633	55.6641	76.5706	55.6641	76.5625
58.5938	77.8748	58.5938	77.8648	58.5938	77.8739	58.5938	77.8439	58.5938	77.8619	58.5938	77.813	58.5938	77.8394	58.5938	77.7731	58.5938	77.8071	58.5938	77.7256	58.5938	77.7662	58.5938	77.6721	58.5938	77.718	58.5938	77.6144	58.5938	77.6644	58.5938	77.5546	58.5938	77.6071	58.5938	77.4948	58.5938	77.548	58.5938	77.4368	58.5938	77.4892	58.5938	77.3826	58.5938	77.4325	58.5938	77.3338	58.5938	77.3797	58.5938	77.2916	58.5938	77.332	58.5938	77.257	58.5938	77.2908	58.5938	77.2307	58.5938	77.2569	58.5938	77.2131	58.5938	77.231	58.5938	77.2043	58.5938	77.2134	58.5938	77.2045
60.0586	78.1908	60.0586	78.1796	60.0586	78.191	60.0586	78.1576	60.0586	78.1802	60.0586	78.1255	60.0586	78.1588	60.0586	78.0846	60.0586	78.1277	60.0586	78.0363	60.0586	78.088	60.0586	77.9822	60.0586	78.0411	60.0586	77.9243	60.0586	77.9888	60.0586	77.8648	60.0586	77.9329	60.0586	77.8057	60.0586	77.8754	60.0586	77.749	60.0586	77.8182	60.0586	77.6966	60.0586	77.763	60.0586	77.65	60.0586	77.7115	60.0586	77.6104	60.0586	77.665	60.0586	77.5787	60.0586	77.6245	60.0586	77.5552	60.0586	77.591	60.0586	77.5403	60.0586	77.5648	60.0586	77.534	60.0586	77.5464	60.0586	77.536
62.9883	78.7852	62.9883	78.7731	62.9883	78.7859	62.9883	78.7498	62.9883	78.7752	62.9883	78.7161	62.9883	78.7536	62.9883	78.6732	62.9883	78.7222	62.9883	78.6227	62.9883	78.6822	62.9883	78.5665	62.9883	78.6351	62.9883	78.5067	62.9883	78.5829	62.9883	78.4455	62.9883	78.5273	62.9883	78.3853	62.9883	78.4704	62.9883	78.3282	62.9883	78.4141	62.9883	78.2763	62.9883	78.3601	62.9883	78.2309	62.9883	78.3098	62.9883	78.1934	62.9883	78.2644	62.9883	78.1642	62.9883	78.2248	62.9883	78.1438	62.9883	78.1915	62.9883	78.132	62.9883	78.1649	62.9883	78.1286	62.9883	78.1454	62.9883	78.1332
64.4531	79.0472	64.4531	79.0352	64.4531	79.047	64.4531	79.0114	64.4531	79.0348	64.4531	78.9764	64.4531	79.0113	64.4531	78.9315	64.4531	78.9776	64.4531	78.8783	64.4531	78.9349	64.4531	78.8188	64.4531	78.8851	64.4531	78.7553	64.4531	78.8301	64.4531	78.6902	64.4531	78.7719	64.4531	78.6261	64.4531	78.7126	64.4531	78.5653	64.4531	78.6541	64.4531	78.5101	64.4531	78.5982	64.4531	78.462	64.4531	78.5463	64.4531	78.4224	64.4531	78.4995	64.4531	78.392	64.4531	78.4585	64.4531	78.371	64.4531	78.4239	64.4531	78.3593	64.4531	78.3961	64.4531	78.3565	64.4531	78.3753	64.4531	78.362
67.3828	79.6529	67.3828	79.6468	67.3828	79.6465	67.3828	79.6283	67.3828	79.6279	67.3828	79.5983	67.3828	79.5978	67.3828	79.5578	67.3828	79.5574	67.3828	79.5082	67.3828	79.5081	67.3828	79.4515	67.3828	79.4519	67.3828	79.3897	67.3828	79.3909	67.3828	79.3253	67.3828	79.3272	67.3828	79.2605	67.3828	79.2633	67.3828	79.1977	67.3828	79.2013	67.3828	79.1388	67.3828	79.1431	67.3828	79.0857	67.3828	79.0904	67.3828	79.0396	67.3828	79.0444	67.3828	79.0014	67.3828	79.006	67.3828	78.9718	67.3828	78.9756	67.3828	78.9509	67.3828	78.9537	67.3828	78.9387	67.3828	78.9401	67.3828	78.9351
68.8477	79.9508	68.8477	79.9441	68.8477	79.945	68.8477	79.9252	68.8477	79.927	68.8477	79.8948	68.8477	79.8976	68.8477	79.854	68.8477	79.8579	68.8477	79.8046	68.8477	79.8095	68.8477	79.7483	68.8477	79.7543	68.8477	79.6875	68.8477	79.6944	68.8477	79.6245	68.8477	79.6322	68.8477	79.5615	68.8477	79.57	68.8477	79.501	68.8477	79.5099	68.8477	79.4448	68.8477	79.4538	68.8477	79.3945	68.8477	79.4032	68.8477	79.3513	68.8477	79.3594	68.8477	79.316	68.8477	79.323	68.8477	79.2888	68.8477	79.2943	68.8477	79.2698	68.8477	79.2737	68.8477	79.2589	68.8477	79.2609	68.8477	79.2559
71.7773	80.5594	71.7773	80.5526	71.7773	80.5536	71.7773	80.5332	71.7773	80.5352	71.7773	80.5021	71.7773	80.5051	71.7773	80.4607	71.7773	80.4646	71.7773	80.4105	71.7773	80.4154	71.7773	80.3537	71.7773	80.3595	71.7773	80.2927	71.7773	80.2993	71.7773	80.2299	71.7773	80.2372	71.7773	80.1678	71.7773	80.1756	71.7773	80.1085	71.7773	80.1167	71.7773	80.0542	71.7773	80.0623	71.7773	80.0061	71.7773	80.014	71.7773	79.9654	71.7773	79.9726	71.7773	79.9324	71.7773	79.9387	71.7773	79.9074	71.7773	79.9124	71.7773	79.8901	71.7773	79.8936	71.7773	79.8803	71.7773	79.8821	71.7773	79.8777
74.707	81.0282	74.707	81.0203	74.707	81.0228	74.707	80.9995	74.707	81.0044	74.707	80.9667	74.707	80.9738	74.707	80.9233	74.707	80.9325	74.707	80.8713	74.707	80.8822	74.707	80.8127	74.707	80.8251	74.707	80.7504	74.707	80.7638	74.707	80.6867	74.707	80.7007	74.707	80.6244	74.707	80.6386	74.707	80.5657	74.707	80.5796	74.707	80.5125	74.707	80.5256	74.707	80.4662	74.707	80.4781	74.707	80.4276	74.707	80.4379	74.707	80.3968	74.707	80.4054	74.707	80.3739	74.707	80.3805	74.707	80.3584	74.707	80.3629	74.707	80.3498	74.707	80.352	74.707	80.3477
77.6367	81.4145	77.6367	81.4057	77.6367	81.4095	77.6367	81.3835	77.6367	81.3909	77.6367	81.3488	77.6367	81.3598	77.6367	81.3032	77.6367	81.3176	77.6367	81.2487	77.6367	81.2661	77.6367	81.1878	77.6367	81.2078	77.6367	81.1232	77.6367	81.1454	77.6367	81.0577	77.6367	81.0815	77.6367	80.9941	77.6367	81.0188	77.6367	80.9348	77.6367	80.9596	77.6367	80.8818	77.6367	80.9058	77.6367	80.8363	77.6367	80.8588	77.6367	80.7992	77.6367	80.8193	77.6367	80.7704	77.6367	80.7875	77.6367	80.7496	77.6367	80.763	77.6367	80.7362	77.6367	80.7454	77.6367	80.7295	77.6367	80.7342	77.6367	80.7289
79.1016	81.6503	79.1016	81.6414	79.1016	81.6453	79.1016	81.6188	79.1016	81.6267	79.1016	81.5835	79.1016	81.5952	79.1016	81.5373	79.1016	81.5526	79.1016	81.4821	79.1016	81.5007	79.1016	81.4206	79.1016	81.4421	79.1016	81.3555	79.1016	81.3795	79.1016	81.2898	79.1016	81.3156	79.1016	81.2263	79.1016	81.2531	79.1016	81.1673	79.1016	81.1944	79.1016	81.115	79.1016	81.1413	79.1016	81.0705	79.1016	81.0952	79.1016	81.0345	79.1016	81.0567	79.1016	81.007	79.1016	81.0258	79.1016	80.9874	79.1016	81.0022	79.1016	80.9751	79.1016	80.9852	79.1016	80.9691	79.1016	80.9743	79.1016	80.9689
82.0312	82.0818	82.0312	82.073	82.0312	82.0762	82.0312	82.0501	82.0312	82.0565	82.0312	82.0143	82.0312	82.0237	82.0312	81.9671	82.0312	81.9795	82.0312	81.9109	82.0312	81.9261	82.0312	81.8483	82.0312	81.8661	82.0312	81.7824	82.0312	81.8024	82.0312	81.7161	82.0312	81.7379	82.0312	81.6525	82.0312	81.6755	82.0312	81.594	82.0312	81.6175	82.0312	81.5426	82.0312	81.5658	82.0312	81.4996	82.0312	81.5216	82.0312	81.4654	82.0312	81.4853	82.0312	81.4397	82.0312	81.4568	82.0312	81.4219	82.0312	81.4354	82.0312	81.4109	82.0312	81.4203	82.0312	81.4058	82.0312	81.4106	82.0312	81.4058
84.9609	82.3404	84.9609	82.3299	84.9609	82.3358	84.9609	82.3047	84.9609	82.3164	84.9609	82.2658	84.9609	82.2834	84.9609	82.2151	84.9609	82.2385	84.9609	82.1552	84.9609	82.1842	84.9609	82.089	84.9609	82.1234	84.9609	82.0198	84.9609	82.059	84.9609	81.951	84.9609	81.9943	84.9609	81.8857	84.9609	81.9321	84.9609	81.8268	84.9609	81.8749	84.9609	81.7763	84.9609	81.8244	84.9609	81.7352	84.9609	81.7815	84.9609	81.7041	84.9609	81.7466	84.9609	81.6823	84.9609	81.7191	84.9609	81.6687	84.9609	81.6981	84.9609	81.662	84.9609	81.6825	84.9609	81.6609	84.9609	81.6714	84.9609	81.6642
87.8906	82.5808	87.8906	82.5769	87.8906	82.5689	87.8906	82.5574	87.8906	82.5416	87.8906	82.5234	87.8906	82.5004	87.8906	82.4767	87.8906	82.4473	87.8906	82.4198	87.8906	82.3851	87.8906	82.3557	87.8906	82.3172	87.8906	82.2877	87.8906	82.2469	87.8906	82.2193	87.8906	82.178	87.8906	82.1538	87.8906	82.1136	87.8906	82.094	87.8906	82.0564	87.8906	82.0419	87.8906	82.0083	87.8906	81.9988	87.8906	81.9701	87.8906	81.965	87.8906	81.9416	87.8906	81.9399	87.8906	81.9218	87.8906	81.9223	87.8906	81.9093	87.8906	81.9107	87.8906	81.9024	87.8906	81.9037	87.8906	81.8997	87.8906	81.9002
90.8203	82.9482	90.8203	82.9417	90.8203	82.937	90.8203	82.9179	90.8203	82.9086	90.8203	82.8783	90.8203	82.8641	90.8203	82.8251	90.8203	82.8059	90.8203	82.761	90.8203	82.7369	90.8203	82.6898	90.8203	82.6608	90.8203	82.6151	90.8203	82.5815	90.8203	82.541	90.8203	82.5034	90.8203	82.471	90.8203	82.4303	90.8203	82.4082	90.8203	82.3657	90.8203	82.3547	90.8203	82.3119	90.8203	82.3114	90.8203	82.2702	90.8203	82.2783	90.8203	82.2405	90.8203	82.2543	90.8203	82.2216	90.8203	82.2376	90.8203	82.2116	90.8203	82.2261	90.8203	82.208	90.8203	82.2181	90.8203	82.2088	90.8203	82.2124
95.2148	83.1082	95.2148	83.0988	95.2148	83.0991	95.2148	83.0714	95.2148	83.072	95.2148	83.0275	95.2148	83.0282	95.2148	82.9696	95.2148	82.97	95.2148	82.9007	95.2148	82.9004	95.2148	82.8247	95.2148	82.8232	95.2148	82.7456	95.2148	82.7427	95.2148	82.6678	95.2148	82.663	95.2148	82.5952	95.2148	82.5884	95.2148	82.531	95.2148	82.5222	95.2148	82.4775	95.2148	82.467	95.2148	82.4354	95.2148	82.424	95.2148	82.4047	95.2148	82.393	95.2148	82.3838	95.2148	82.3728	95.2148	82.3706	95.2148	82.3613	95.2148	82.3627	95.2148	82.356	95.2148	82.3582	95.2148	82.3547	95.2148	82.3556
98.1445	83.1476	98.1445	83.1376	98.1445	83.1386	98.1445	83.1091	98.1445	83.111	98.1445	83.0637	98.1445	83.0662	98.1445	83.0039	98.1445	83.0067	98.1445	82.9329	98.1445	82.9358	98.1445	82.8548	98.1445	82.8573	98.1445	82.774	98.1445	82.7757	98.1445	82.695	98.1445	82.6956	98.1445	82.6218	98.1445	82.621	98.1445	82.5579	98.1445	82.5556	98.1445	82.5055	98.1445	82.5017	98.1445	82.4654	98.1445	82.4606	98.1445	82.4372	98.1445	82.4317	98.1445	82.4192	98.1445	82.4136	98.1445	82.4088	98.1445	82.4039	98.1445	82.4036	98.1445	82.3999	98.1445	82.401	98.1445	82.3991	98.1445	82.3997
101.074	83.2394	101.074	83.2285	101.074	83.2304	101.074	83.1982	101.074	83.2018	101.074	83.15	101.074	83.1552	101.074	83.0868	101.074	83.0932	101.074	83.0118	101.074	83.0193	101.074	82.9296	101.074	82.9375	101.074	82.8446	101.074	82.8526	101.074	82.7618	101.074	82.7693	101.074	82.6855	101.074	82.6921	101.074	82.6193	101.074	82.6247	101.074	82.5657	101.074	82.5696	101.074	82.5255	101.074	82.528	101.074	82.498	101.074	82.4992	101.074	82.4814	101.074	82.4816	101.074	82.4728	101.074	82.4724	101.074	82.4694	101.074	82.4688	101.074	82.4684	101.074	82.468	101.074	82.4681
105.469	83.228	105.469	83.2179	105.469	83.2169	105.469	83.187	105.469	83.1849	105.469	83.1371	105.469	83.1339	105.469	83.0706	105.469	83.0664	105.469	82.9913	105.469	82.9862	105.469	82.9036	105.469	82.8977	105.469	82.8124	105.469	82.8058	105.469	82.7227	105.469	82.7158	105.469	82.6394	105.469	82.6323	105.469	82.5663	105.469	82.5593	105.469	82.5062	105.469	82.4997	105.469	82.4603	105.469	82.4544	105.469	82.4282	105.469	82.4231	105.469	82.4079	105.469	82.4038	105.469	82.3968	105.469	82.3937	105.469	82.3916	105.469	82.3896	105.469	82.3896	105.469	82.3886	105.469	82.3889
108.398	83.1823	108.398	83.1735	108.398	83.1699	108.398	83.144	108.398	83.1367	108.398	83.0955	108.398	83.0845	108.398	83.0308	108.398	83.0159	108.398	82.9536	108.398	82.9348	108.398	82.8684	108.398	82.8456	108.398	82.7802	108.398	82.7536	108.398	82.6939	108.398	82.6639	108.398	82.6141	108.398	82.5816	108.398	82.5448	108.398	82.5107	108.398	82.4882	108.398	82.4539	108.398	82.4454	108.398	82.4123	108.398	82.4156	108.398	82.3852	108.398	82.3968	108.398	82.3706	108.398	82.3861	108.398	82.3653	108.398	82.3802	108.398	82.3658	108.398	82.3764	108.398	82.3691	108.398	82.3729
112.793	83.1015	112.793	83.0902	112.793	83.091	112.793	83.0578	112.793	83.0591	112.793	83.0062	112.793	83.0076	112.793	82.9385	112.793	82.9394	112.793	82.8589	112.793	82.8584	112.793	82.7724	112.793	82.7695	112.793	82.6843	112.793	82.6782	112.793	82.6	112.793	82.59	112.793	82.5244	112.793	82.51	112.793	82.4612	112.793	82.4425	112.793	82.4126	112.793	82.3903	112.793	82.3789	112.793	82.3542	112.793	82.3586	112.793	82.3332	112.793	82.3487	112.793	82.3248	112.793	82.3456	112.793	82.3253	112.793	82.3455	112.793	82.3307	112.793	82.3451	112.793	82.3373	112.793	82.3425
117.188	82.8553	117.188	82.8403	117.188	82.8468	117.188	82.8023	117.188	82.8155	117.188	82.7435	117.188	82.7634	117.188	82.6672	117.188	82.6937	117.188	82.5781	117.188	82.6111	117.188	82.4817	117.188	82.5208	117.188	82.3843	117.188	82.4287	117.188	82.2924	117.188	82.3407	117.188	82.2115	117.188	82.2621	117.188	82.1463	117.188	82.1971	117.188	82.0993	117.188	82.1481	117.188	82.0708	117.188	82.1155	117.188	82.0586	117.188	82.0976	117.188	82.0592	117.188	82.0912	117.188	82.0677	117.188	82.0919	117.188	82.0792	117.188	82.0954	117.188	82.0896	117.188	82.0976	117.188	82.096
120.117	82.8436	120.117	82.835	120.117	82.8264	120.117	82.8013	120.117	82.7842	120.117	82.7443	120.117	82.7194	120.117	82.6676	120.117	82.6355	120.117	82.5757	120.117	82.5375	120.117	82.4742	120.117	82.4315	120.117	82.3696	120.117	82.3242	120.117	82.2684	120.117	82.2225	120.117	82.1769	120.117	82.1327	120.117	82.1	120.117	82.0595	120.117	82.0411	120.117	82.0059	120.117	82.001	120.117	81.9721	120.117	81.9784	120.117	81.9559	120.117	81.9698	120.117	81.9535	120.117	81.9705	120.117	81.9595	120.117	81.9754	120.117	81.9687	120.117	81.9798	120.117	81.9767	120.117	81.9807
124.512	82.8749	124.512	82.8623	124.512	82.8617	124.512	82.825	124.512	82.8232	124.512	82.7652	124.512	82.7613	124.512	82.6867	124.512	82.6794	124.512	82.5945	124.512	82.5822	124.512	82.4945	124.512	82.4755	124.512	82.3931	124.512	82.366	124.512	82.297	124.512	82.2608	124.512	82.212	124.512	82.1666	124.512	82.1426	124.512	82.089	124.512	82.0911	124.512	82.0315	124.512	82.0576	124.512	81.9952	124.512	82.0398	124.512	81.9787	124.512	82.0336	124.512	81.9782	124.512	82.0341	124.512	81.9884	124.512	82.0361	124.512	82.0036	124.512	82.0356	124.512	82.0187	124.512	82.0299
128.906	82.7034	128.906	82.6839	128.906	82.6954	128.906	82.6379	128.906	82.6603	128.906	82.5679	128.906	82.6002	128.906	82.478	128.906	82.5186	128.906	82.3734	128.906	82.4204	128.906	82.261	128.906	82.3115	128.906	82.1482	128.906	82.1991	128.906	82.0426	128.906	82.0906	128.906	81.951	128.906	81.993	128.906	81.8789	128.906	81.9122	128.906	81.8288	128.906	81.8522	128.906	81.8007	128.906	81.8141	128.906	81.7916	128.906	81.7963	128.906	81.7962	128.906	81.7947	128.906	81.8083	128.906	81.8035	128.906	81.8216	128.906	81.8164	128.906	81.8309	128.906	81.8277	128.906	81.8332
133.301	82.5616	133.301	82.5442	133.301	82.5504	133.301	82.4989	133.301	82.5114	133.301	82.428	133.301	82.4468	133.301	82.3351	133.301	82.3602	133.301	82.2254	133.301	82.2565	133.301	82.1054	133.301	82.1419	133.301	81.9825	133.301	82.0234	133.301	81.8646	133.301	81.9084	133.301	81.7592	133.301	81.804	133.301	81.6724	133.301	81.7161	133.301	81.6081	133.301	81.6485	133.301	81.5672	133.301	81.6027	133.301	81.5477	133.301	81.5771	133.301	81.5449	133.301	81.5677	133.301	81.5527	133.301	81.5691	133.301	81.5646	133.301	81.5751	133.301	81.5751	133.301	81.5802	133.301	81.5807
139.16	82.2542	139.16	82.237	139.16	82.2423	139.16	82.1914	139.16	82.2021	139.16	82.12	139.16	82.1362	139.16	82.0268	139.16	82.0484	139.16	81.9173	139.16	81.9441	139.16	81.7985	139.16	81.83	139.16	81.6785	139.16	81.7134	139.16	81.5652	139.16	81.6022	139.16	81.4665	139.16	81.5033	139.16	81.388	139.16	81.4226	139.16	81.3332	139.16	81.3634	139.16	81.3022	139.16	81.3265	139.16	81.2919	139.16	81.3098	139.16	81.2969	139.16	81.3088	139.16	81.3106	139.16	81.3175	139.16	81.3261	139.16	81.3296	139.16	81.338	139.16	81.3393	139.16	81.3427
143.555	82.1182	143.555	82.1028	143.555	82.1024	143.555	82.0567	143.555	82.0564	143.555	81.9824	143.555	81.9832	143.555	81.8841	143.555	81.8872	143.555	81.7678	143.555	81.7747	143.555	81.6407	143.555	81.6533	143.555	81.5115	143.555	81.5312	143.555	81.3893	143.555	81.4168	143.555	81.2823	143.555	81.3179	143.555	81.1976	143.555	81.2399	143.555	81.139	143.555	81.1858	143.555	81.107	143.555	81.1553	143.555	81.0988	143.555	81.145	143.555	81.1083	143.555	81.1493	143.555	81.1282	143.555	81.1612	143.555	81.1509	143.555	81.1739	143.555	81.1698	143.555	81.1816	143.555	81.1806
147.949	82.0861	147.949	82.0768	147.949	82.0614	147.949	82.0346	147.949	82.0038	147.949	81.9622	147.949	81.9158	147.949	81.8641	147.949	81.8022	147.949	81.7465	147.949	81.6697	147.949	81.6172	147.949	81.5269	147.949	81.485	147.949	81.3839	147.949	81.3593	147.949	81.2512	147.949	81.2489	147.949	81.1388	147.949	81.1611	147.949	81.0543	147.949	81.1001	147.949	81.0019	147.949	81.0667	147.949	80.981	147.949	81.0575	147.949	80.9871	147.949	81.0664	147.949	81.0119	147.949	81.0849	147.949	81.0458	147.949	81.1044	147.949	81.0795	147.949	81.1172	147.949	81.1052	147.949	81.1182
153.809	81.9697	153.809	81.9459	153.809	81.9591	153.809	81.889	153.809	81.9143	153.809	81.802	153.809	81.8373	153.809	81.6897	153.809	81.7318	153.809	81.5585	153.809	81.6035	153.809	81.4165	153.809	81.4596	153.809	81.2731	153.809	81.3091	153.809	81.1381	153.809	81.1622	153.809	81.0209	153.809	81.0293	153.809	80.9291	153.809	80.9199	153.809	80.8669	153.809	80.8408	153.809	80.8345	153.809	80.7948	153.809	80.828	153.809	80.78	153.809	80.8398	153.809	80.7901	153.809	80.8605	153.809	80.816	153.809	80.8805	153.809	80.8472	153.809	80.892	153.809	80.8742	153.809	80.8902
159.668	81.6737	159.668	81.6548	159.668	81.6587	159.668	81.6032	159.668	81.6106	159.668	81.5219	159.668	81.5317	159.668	81.4156	159.668	81.4266	159.668	81.2908	159.668	81.3013	159.668	81.1555	159.668	81.1638	159.668	81.0185	159.668	81.023	159.668	80.8892	159.668	80.8886	159.668	80.7761	159.668	80.7698	159.668	80.6863	159.668	80.6744	159.668	80.6237	159.668	80.607	159.668	80.5888	159.668	80.5689	159.668	80.5785	159.668	80.5573	159.668	80.5862	159.668	80.566	159.668	80.6039	159.668	80.5867	159.668	80.623	159.668	80.6105	159.668	80.6363	159.668	80.6297	159.668	80.639
165.527	81.3846	165.527	81.352	165.527	81.3769	165.527	81.2804	165.527	81.3299	165.527	81.1734	165.527	81.2473	165.527	81.0375	165.527	81.1347	165.527	80.8814	165.527	81.0001	165.527	80.7165	165.527	80.8532	165.527	80.5553	165.527	80.705	165.527	80.4107	165.527	80.5666	165.527	80.2942	165.527	80.4482	165.527	80.2136	165.527	80.3573	165.527	80.1716	165.527	80.2981	165.527	80.1656	165.527	80.2699	165.527	80.1878	165.527	80.2681	165.527	80.2277	165.527	80.2852	165.527	80.2738	165.527	80.3116	165.527	80.3157	165.527	80.3379	165.527	80.3457	165.527	80.3558	165.527	80.3593
171.387	81.334	171.387	81.3197	171.387	81.3053	171.387	81.2638	171.387	81.2341	171.387	81.1696	171.387	81.1229	171.387	81.0421	171.387	80.9764	171.387	80.8884	171.387	80.8018	171.387	80.7177	171.387	80.6091	171.387	80.5408	171.387	80.411	171.387	80.3699	171.387	80.2219	171.387	80.2173	171.387	80.0565	171.387	80.0937	171.387	79.9279	171.387	80.006	171.387	79.8441	171.387	79.9563	171.387	79.8068	171.387	79.9406	171.387	79.8107	171.387	79.9503	171.387	79.8444	171.387	79.9734	171.387	79.8939	171.387	79.9975	171.387	79.9448	171.387	80.0117	171.387	79.9855	171.387	80.0086
177.246	81.2404	177.246	81.2042	177.246	81.234	177.246	81.1271	177.246	81.1855	177.246	81.0127	177.246	81.0977	177.246	80.867	177.246	80.9754	177.246	80.6984	177.246	80.8258	177.246	80.5175	177.246	80.658	177.246	80.3364	177.246	80.4833	177.246	80.1683	177.246	80.3141	177.246	80.0258	177.246	80.1629	177.246	79.9185	177.246	80.0401	177.246	79.8516	177.246	79.9531	177.246	79.8248	177.246	79.9039	177.246	79.8317	177.246	79.889	177.246	79.8621	177.246	79.9004	177.246	79.9033	177.246	79.9266	177.246	79.9433	177.246	79.9559	177.246	79.9721	177.246	79.9775	177.246	79.984
183.105	81.1409	183.105	81.112	183.105	81.1256	183.105	81.0405	183.105	81.067	183.105	80.9301	183.105	80.9679	183.105	80.7868	183.105	80.8335	183.105	80.6191	183.105	80.6717	183.105	80.438	183.105	80.4926	183.105	80.2562	183.105	80.3088	183.105	80.0875	183.105	80.1343	183.105	79.9452	183.105	79.9831	183.105	79.8395	183.105	79.8668	183.105	79.7761	183.105	79.7928	183.105	79.7546	183.105	79.7621	183.105	79.7682	183.105	79.7689	183.105	79.8058	183.105	79.8025	183.105	79.8538	183.105	79.849	183.105	79.8989	183.105	79.8946	183.105	79.9301	183.105	79.9276	183.105	79.9404
188.965	81.1169	188.965	81.0856	188.965	81.1014	188.965	81.0088	188.965	81.04	188.965	80.8902	188.965	80.9357	188.965	80.7362	188.965	80.7941	188.965	80.5555	188.965	80.6232	188.965	80.3596	188.965	80.4335	188.965	80.1622	188.965	80.238	188.965	79.9781	188.965	80.0511	188.965	79.8217	188.965	79.8876	188.965	79.7045	188.965	79.7599	188.965	79.6329	188.965	79.6759	188.965	79.6067	188.965	79.6372	188.965	79.6188	188.965	79.6384	188.965	79.6573	188.965	79.6684	188.965	79.7075	188.965	79.713	188.965	79.7553	188.965	79.7574	188.965	79.7889	188.965	79.7896	188.965	79.8011
196.289	80.9624	196.289	80.9286	196.289	80.9455	196.289	80.8454	196.289	80.8791	196.289	80.7171	196.289	80.7668	196.289	80.5508	196.289	80.6152	196.289	80.3571	196.289	80.4339	196.289	80.1498	196.289	80.2353	196.289	79.9456	196.289	80.0348	196.289	79.7626	196.289	79.8492	196.289	79.6179	196.289	79.6954	196.289	79.5239	196.289	79.5868	196.289	79.486	196.289	79.5308	196.289	79.5003	196.289	79.5268	196.289	79.5551	196.289	79.5659	196.289	79.6336	196.289	79.6331	196.289	79.7171	196.289	79.7108	196.289	79.7888	196.289	79.7816	196.289	79.836	196.289	79.8314	196.289	79.8508
203.613	80.9576	203.613	80.915	203.613	80.945	203.613	80.8184	203.613	80.8782	203.613	80.6715	203.613	80.76	203.613	80.4805	203.613	80.596	203.613	80.2547	203.613	80.3941	203.613	80.0074	203.613	80.1657	203.613	79.7554	203.613	79.9256	203.613	79.5187	203.613	79.6914	203.613	79.3178	203.613	79.4823	203.613	79.1707	203.613	79.3164	203.613	79.0879	203.613	79.2067	203.613	79.0696	203.613	79.1576	203.613	79.1055	203.613	79.1635	203.613	79.1767	203.613	79.2098	203.613	79.2611	203.613	79.2766	203.613	79.3376	203.613	79.3431	203.613	79.3901	203.613	79.3912	203.613	79.4087
210.938	80.8525	210.938	80.827	210.938	80.8213	210.938	80.7453	210.938	80.7352	210.938	80.6097	210.938	80.5983	210.938	80.4251	210.938	80.417	210.938	80.1995	210.938	80.2003	210.938	79.9445	210.938	79.9608	210.938	79.6758	210.938	79.7138	210.938	79.4128	210.938	79.4774	210.938	79.1772	210.938	79.2699	210.938	78.9899	210.938	79.1075	210.938	78.8658	210.938	79.0007	210.938	78.8104	210.938	78.9515	210.938	78.8173	210.938	78.9525	210.938	78.8701	210.938	78.9887	210.938	78.9468	210.938	79.0409	210.938	79.0251	210.938	79.0898	210.938	79.0867	210.938	79.1195	210.938	79.1196
218.262	80.8393	218.262	80.8148	218.262	80.8113	218.262	80.7393	218.262	80.7313	218.262	80.6163	218.262	80.6019	218.262	80.4512	218.262	80.428	218.262	80.2517	218.262	80.2175	218.262	80.028	218.262	79.9814	218.262	79.7928	218.262	79.7341	218.262	79.5615	218.262	79.4929	218.262	79.3507	218.262	79.2763	218.262	79.1762	218.262	79.1017	218.262	79.0504	218.262	78.9814	218.262	78.9787	218.262	78.9195	218.262	78.9577	218.262	78.9106	218.262	78.976	218.262	78.9411	218.262	79.0166	218.262	78.9927	218.262	79.0612	218.262	79.0465	218.262	79.0938	218.262	79.0868	218.262	79.1037
225.586	80.5609	225.586	80.5284	225.586	80.5363	225.586	80.4412	225.586	80.4549	225.586	80.3045	225.586	80.3201	225.586	80.1263	225.586	80.1383	225.586	79.9182	225.586	79.9194	225.586	79.6947	225.586	79.6777	225.586	79.4731	225.586	79.4313	225.586	79.2723	225.586	79.2015	225.586	79.11	225.586	79.0103	225.586	78.9997	225.586	78.8764	225.586	78.9477	225.586	78.8107	225.586	78.9513	225.586	78.8128	225.586	78.9991	225.586	78.8707	225.586	79.0735	225.586	78.9644	225.586	79.1547	225.586	79.0706	225.586	79.2241	225.586	79.1675	225.586	79.2665	225.586	79.2382	225.586	79.2724
232.91	80.6148	232.91	80.5638	232.91	80.6002	232.91	80.4487	232.91	80.521	232.91	80.2733	232.91	80.3807	232.91	80.0447	232.91	80.1855	232.91	79.7734	232.91	79.9454	232.91	79.475	232.91	79.6741	232.91	79.1703	232.91	79.3902	232.91	78.8848	232.91	79.116	232.91	78.6464	232.91	78.8761	232.91	78.4796	232.91	78.6931	232.91	78.3991	232.91	78.5829	232.91	78.4045	232.91	78.5494	232.91	78.4795	232.91	78.5831	232.91	78.597	232.91	78.6635	232.91	78.7263	232.91	78.764	232.91	78.8396	232.91	78.858	232.91	78.9165	232.91	78.9235	232.91	78.9452
241.699	80.553	241.699	80.5139	241.699	80.5228	241.699	80.4075	241.699	80.4231	241.699	80.238	241.699	80.2557	241.699	80.0121	241.699	80.0251	241.699	79.7396	241.699	79.7394	241.699	79.4349	241.699	79.4115	241.699	79.1173	241.699	79.0603	241.699	78.8112	241.699	78.7115	241.699	78.544	241.699	78.3967	241.699	78.3418	241.699	78.1487	241.699	78.2221	241.699	77.9938	241.699	78.1886	241.699	77.9431	241.699	78.2283	241.699	77.9874	241.699	78.3154	241.699	78.0999	241.699	78.4183	241.699	78.2447	241.699	78.5069	241.699	78.3861	241.699	78.5573	241.699	78.4955	241.699	78.5549
250.488	80.5536	250.488	80.4858	250.488	80.55	250.488	80.348	250.488	80.4755	250.488	80.1441	250.488	80.333	250.488	79.8808	250.488	80.1275	250.488	79.5685	250.488	79.8674	250.488	79.2225	250.488	79.5643	250.488	78.8634	250.488	79.234	250.488	78.5177	250.488	78.8972	250.488	78.2153	250.488	78.5781	250.488	77.9843	250.488	78.3024	250.488	77.8436	250.488	78.093	250.488	77.7961	250.488	77.964	250.488	77.8271	250.488	77.9159	250.488	77.9088	250.488	77.935	250.488	78.0088	250.488	77.9971	250.488	78.0977	250.488	78.0731	250.488	78.154	250.488	78.1364	250.488	78.1669
259.277	80.9289	259.277	80.8774	259.277	80.9087	259.277	80.7558	259.277	80.8168	259.277	80.5671	259.277	80.6546	259.277	80.3164	259.277	80.4256	259.277	80.0113	259.277	80.1356	259.277	79.663	259.277	79.7946	259.277	79.2872	259.277	79.4176	259.277	78.9049	259.277	79.0263	259.277	78.5429	259.277	78.6489	259.277	78.2304	259.277	78.3172	259.277	77.9942	259.277	78.0608	259.277	77.8503	259.277	77.898	259.277	77.7976	259.277	77.8294	259.277	77.8179	259.277	77.8373	259.277	77.8811	259.277	77.8916	259.277	77.9545	259.277	77.9594	259.277	78.0105	259.277	78.0122	259.277	78.0316
268.066	80.849	268.066	80.7948	268.066	80.8355	268.066	80.6745	268.066	80.755	268.066	80.4927	268.066	80.6107	268.066	80.2569	268.066	80.4081	268.066	79.9784	268.066	80.1557	268.066	79.6727	268.066	79.8659	268.066	79.3597	268.066	79.5556	268.066	79.0629	268.066	79.2467	268.066	78.8073	268.066	78.9651	268.066	78.6156	268.066	78.7373	268.066	78.5026	268.066	78.5842	268.066	78.4706	268.066	78.5148	268.066	78.5077	268.066	78.5226	268.066	78.5911	268.066	78.587	268.066	78.6926	268.066	78.6796	268.066	78.7851	268.066	78.7716	268.066	78.8474	268.066	78.8392	268.066	78.8665
276.855	80.5534	276.855	80.4651	276.855	80.5623	276.855	80.2979	276.855	80.4922	276.855	80.055	276.855	80.3456	276.855	79.7423	276.855	80.1269	276.855	79.3702	276.855	79.8432	276.855	78.9562	276.855	79.5061	276.855	78.5268	276.855	79.1334	276.855	78.1191	276.855	78.7508	276.855	77.7772	276.855	78.3921	276.855	77.5441	276.855	78.096	276.855	77.4467	276.855	77.8974	276.855	77.4846	276.855	77.8154	276.855	77.6285	276.855	77.8446	276.855	77.8313	276.855	77.9555	276.855	78.0434	276.855	78.1049	276.855	78.2231	276.855	78.2484	276.855	78.3419	276.855	78.3498	276.855	78.3847
287.109	80.7085	287.109	80.6559	287.109	80.6865	287.109	80.5255	287.109	80.5949	287.109	80.3171	287.109	80.4408	287.109	80.0339	287.109	80.2323	287.109	79.6836	287.109	79.9783	287.109	79.2803	287.109	79.6885	287.109	78.8461	287.109	79.3733	287.109	78.4121	287.109	79.045	287.109	78.0173	287.109	78.7193	287.109	77.7031	287.109	78.4168	287.109	77.5028	287.109	78.162	287.109	77.4298	287.109	77.9789	287.109	77.4709	287.109	77.8816	287.109	77.5911	287.109	77.8667	287.109	77.7455	287.109	77.9113	287.109	77.8914	287.109	77.9795	287.109	77.9968	287.109	78.0336	287.109	78.0445
297.363	81.0336	297.363	81.0087	297.363	80.9755	297.363	80.9027	297.363	80.8332	297.363	80.7176	297.363	80.6065	297.363	80.4557	297.363	80.2983	297.363	80.1203	297.363	79.9159	297.363	79.7173	297.363	79.4736	297.363	79.2584	297.363	78.9956	297.363	78.7646	297.363	78.5171	297.363	78.2698	297.363	78.0825	297.363	77.8201	297.363	77.7363	297.363	77.4668	297.363	77.5097	297.363	77.2493	297.363	77.4082	297.363	77.1774	297.363	77.4106	297.363	77.226	297.363	77.4784	297.363	77.3464	297.363	77.5696	297.363	77.4864	297.363	77.6482	297.363	77.6043	297.363	77.6883	297.363	77.6749
307.617	80.6744	307.617	80.6203	307.617	80.663	307.617	80.5027	307.617	80.5862	307.617	80.3257	307.617	80.4461	307.617	80.0951	307.617	80.2472	307.617	79.8182	307.617	79.9957	307.617	79.5041	307.617	79.7001	307.617	79.165	307.617	79.372	307.617	78.8176	307.617	79.0281	307.617	78.4848	307.617	78.6916	307.617	78.196	307.617	78.3923	307.617	77.9822	307.617	78.1625	307.617	77.8672	307.617	78.0273	307.617	77.8565	307.617	77.9941	307.617	77.9326	307.617	78.0459	307.617	78.0592	307.617	78.1467	307.617	78.1933	307.617	78.2533	307.617	78.297	307.617	78.3275	307.617	78.3448
319.336	80.4216	319.336	80.3514	319.336	80.41	319.336	80.2037	319.336	80.3153	319.336	79.985	319.336	80.1386	319.336	79.7048	319.336	79.8836	319.336	79.3741	319.336	79.556	319.336	79.0055	319.336	79.1654	319.336	78.6137	319.336	78.7265	319.336	78.2167	319.336	78.2622	319.336	77.8385	319.336	77.8064	319.336	77.5099	319.336	77.4038	319.336	77.2656	319.336	77.1037	319.336	77.134	319.336	76.9444	319.336	77.1231	319.336	76.9354	319.336	77.2124	319.336	77.049	319.336	77.3572	319.336	77.2308	319.336	77.5037	319.336	77.419	319.336	77.6042	319.336	77.562	319.336	77.6274
329.59	80.189	329.59	80.0471	329.59	80.2356	329.59	79.8127	329.59	80.1897	329.59	79.4958	329.59	80.0579	329.59	79.1149	329.59	79.8487	329.59	78.6973	329.59	79.5713	329.59	78.2768	329.59	79.2342	329.59	77.8883	329.59	78.8458	329.59	77.5603	329.59	78.4158	329.59	77.3087	329.59	77.9589	329.59	77.1353	329.59	77.5001	329.59	77.0322	329.59	77.0773	329.59	76.9878	329.59	76.7388	329.59	76.9885	329.59	76.5292	329.59	77.0182	329.59	76.4676	329.59	77.0554	329.59	76.5344	329.59	77.075	329.59	76.6787	329.59	77.0527	329.59	76.841	329.59	76.974
341.309	80.8772	341.309	80.7882	341.309	80.8477	341.309	80.5782	341.309	80.7078	341.309	80.2504	341.309	80.4723	341.309	79.8145	341.309	80.163	341.309	79.2882	341.309	79.8085	341.309	78.6987	341.309	79.4406	341.309	78.0841	341.309	79.0882	341.309	77.4908	341.309	78.7695	341.309	76.9673	341.309	78.4861	341.309	76.5531	341.309	78.2253	341.309	76.2677	341.309	77.9686	341.309	76.1075	341.309	77.7021	341.309	76.0505	341.309	77.425	341.309	76.0664	341.309	77.1501	341.309	76.1257	341.309	76.8982	341.309	76.2059	341.309	76.6872	341.309	76.296	341.309	76.5231	341.309	76.3978
353.027	81.1103	353.027	81.0231	353.027	81.0688	353.027	80.8031	353.027	80.9049	353.027	80.4488	353.027	80.6284	353.027	79.962	353.027	80.2545	353.027	79.3508	353.027	79.8061	353.027	78.6347	353.027	79.3157	353.027	77.851	353.027	78.8247	353.027	77.0623	353.027	78.3778	353.027	76.3563	353.027	78.0121	353.027	75.8277	353.027	77.745	353.027	75.5403	353.027	77.5685	353.027	75.4932	353.027	77.4556	353.027	75.6266	353.027	77.3737	353.027	75.8595	353.027	77.2958	353.027	76.1243	353.027	77.2051	353.027	76.3793	353.027	77.0941	353.027	76.6052	353.027	76.9594	353.027	76.7977
366.211	81.3507	366.211	81.3463	366.211	81.239	366.211	81.2251	366.211	81.0134	366.211	80.9873	366.211	80.6796	366.211	80.635	366.211	80.2498	366.211	80.1741	366.211	79.7474	366.211	79.617	366.211	79.2125	366.211	78.9872	366.211	78.7038	366.211	78.3239	366.211	78.2908	366.211	77.6848	366.211	78.0317	366.211	77.142	366.211	77.9455	366.211	76.7655	366.211	78.0003	366.211	76.5973	366.211	78.132	366.211	76.6325	366.211	78.273	366.211	76.8248	366.211	78.3725	366.211	77.1101	366.211	78.4014	366.211	77.4294	366.211	78.3484	366.211	77.738	366.211	78.214	366.211	78.0061
379.395	80.9227	379.395	80.924	379.395	80.8043	379.395	80.813	379.395	80.5645	379.395	80.594	379.395	80.2006	379.395	80.2725	379.395	79.7149	379.395	79.8576	379.395	79.1194	379.395	79.3661	379.395	78.4437	379.395	78.8286	379.395	77.7433	379.395	78.2932	379.395	77.104	379.395	77.8232	379.395	76.6282	379.395	77.4813	379.395	76.3954	379.395	77.3042	379.395	76.4168	379.395	77.2853	379.395	76.6305	379.395	77.3804	379.395	76.9416	379.395	77.5327	379.395	77.2659	379.395	77.6929	379.395	77.5478	379.395	77.827	379.395	77.7585	379.395	77.9131	379.395	77.8878	379.395	77.937
392.578	81.4071	392.578	81.3305	392.578	81.3605	392.578	81.135	392.578	81.1837	392.578	80.8226	392.578	80.867	392.578	80.3942	392.578	80.3997	392.578	79.8532	392.578	79.7739	392.578	79.2092	392.578	78.992	392.578	78.4852	392.578	78.0809	392.578	77.7275	392.578	77.1157	392.578	77.0126	392.578	76.2432	392.578	76.4426	392.578	75.6644	392.578	76.1123	392.578	75.5217	392.578	76.058	392.578	75.7748	392.578	76.2338	392.578	76.2399	392.578	76.5432	392.578	76.7335	392.578	76.8888	392.578	77.1432	392.578	77.1992	392.578	77.4212	392.578	77.4302	392.578	77.5565	392.578	77.5552
405.762	81.3363	405.762	81.206	405.762	81.3631	405.762	80.9747	405.762	81.2809	405.762	80.6434	405.762	81.0824	405.762	80.2125	405.762	80.7588	405.762	79.6844	405.762	80.3023	405.762	79.0691	405.762	79.7102	405.762	78.3914	405.762	78.9927	405.762	77.7017	405.762	78.1849	405.762	77.0826	405.762	77.3649	405.762	76.6374	405.762	76.6635	405.762	76.4474	405.762	76.235	405.762	76.5204	405.762	76.1694	405.762	76.7846	405.762	76.4185	405.762	77.1338	405.762	76.8352	405.762	77.4757	405.762	77.2715	405.762	77.7488	405.762	77.6303	405.762	77.9169	405.762	77.8646	405.762	77.9594
420.41	81.4687	420.41	81.3865	420.41	81.4281	420.41	81.1812	420.41	81.2617	420.41	80.8501	420.41	80.9637	420.41	80.3896	420.41	80.5274	420.41	79.7977	420.41	79.9485	420.41	79.0795	420.41	79.2337	420.41	78.257	420.41	78.413	420.41	77.3856	420.41	77.5582	420.41	76.5726	420.41	76.7957	420.41	75.9757	420.41	76.2814	420.41	75.7393	420.41	76.1173	420.41	75.887	420.41	76.2735	420.41	76.2971	420.41	76.6189	420.41	76.7976	420.41	77.0164	420.41	77.2562	420.41	77.3758	420.41	77.6023	420.41	77.6521	420.41	77.8109	420.41	77.8249	420.41	77.8817
435.059	81.682	435.059	81.6274	435.059	81.6445	435.059	81.4777	435.059	81.5116	435.059	81.2234	435.059	81.2742	435.059	80.8498	435.059	80.9185	435.059	80.339	435.059	80.4287	435.059	79.6742	435.059	79.7912	435.059	78.8482	435.059	79.0039	435.059	77.8805	435.059	78.0937	435.059	76.8479	435.059	77.1456	435.059	75.9233	435.059	76.3313	435.059	75.3626	435.059	75.8779	435.059	75.347	435.059	75.9152	435.059	75.8019	435.059	76.3465	435.059	76.4753	435.059	76.9416	435.059	77.1436	435.059	77.505	435.059	77.6833	435.059	77.9285	435.059	78.043	435.059	78.1668	435.059	78.2056
451.172	81.6391	451.172	81.6102	451.172	81.5747	451.172	81.4834	451.172	81.4164	451.172	81.2482	451.172	81.1569	451.172	80.8889	451.172	80.7832	451.172	80.3855	451.172	80.2766	451.172	79.7162	451.172	79.6166	451.172	78.8651	451.172	78.7894	451.172	77.8365	451.172	77.8051	451.172	76.6882	451.172	76.7326	451.172	75.5863	451.172	75.7493	451.172	74.8362	451.172	75.1449	451.172	74.7278	451.172	75.1434	451.172	75.2328	451.172	75.6641	451.172	76.0347	451.172	76.4092	451.172	76.8345	451.172	77.1206	451.172	77.4723	451.172	77.6623	451.172	77.8856	451.172	77.9799	451.172	78.0558
465.82	81.7721	465.82	81.7236	465.82	81.7241	465.82	81.5842	465.82	81.5715	465.82	81.3552	465.82	81.3036	465.82	81.0328	465.82	80.9074	465.82	80.6075	465.82	80.3677	465.82	80.0655	465.82	79.6683	465.82	79.3925	465.82	78.797	465.82	78.5837	465.82	77.7578	465.82	77.6621	465.82	76.5992	465.82	76.7085	465.82	75.4651	465.82	75.8904	465.82	74.6315	465.82	75.429	465.82	74.3897	465.82	75.4463	465.82	74.7602	465.82	75.839	465.82	75.4614	465.82	76.3748	465.82	76.1909	465.82	76.8568	465.82	76.7752	465.82	77.174	465.82	77.1437	465.82	77.2759
483.398	81.9816	483.398	81.85	483.398	82.0296	483.398	81.6345	483.398	81.9912	483.398	81.3334	483.398	81.8589	483.398	80.9426	483.398	81.6182	483.398	80.4543	483.398	81.2471	483.398	79.8561	483.398	80.7173	483.398	79.1336	483.398	79.9985	483.398	78.2795	483.398	79.0679	483.398	77.3145	483.398	77.9303	483.398	76.3243	483.398	76.6628	483.398	75.4994	483.398	75.4902	483.398	75.0988	483.398	74.7991	483.398	75.2542	483.398	74.8602	483.398	75.8175	483.398	75.4947	483.398	76.5053	483.398	76.2967	483.398	77.0974	483.398	76.9821	483.398	77.4769	483.398	77.4272	483.398	77.5931
499.512	82.1535	499.512	82.0955	499.512	82.1419	499.512	81.9565	499.512	82.0654	499.512	81.7206	499.512	81.9201	499.512	81.3679	499.512	81.6922	499.512	80.8759	499.512	81.3586	499.512	80.2213	499.512	80.8899	499.512	79.3844	499.512	80.2568	499.512	78.361	499.512	79.4403	499.512	77.1866	499.512	78.4507	499.512	75.9868	499.512	77.3625	499.512	75.0288	499.512	76.3607	499.512	74.6445	499.512	75.7314	499.512	74.9292	499.512	75.6737	499.512	75.6227	499.512	76.0851	499.512	76.3905	499.512	76.6727	499.512	77.0273	499.512	77.1941	499.512	77.4445	499.512	77.5236	499.512	77.6116
517.09	81.9235	517.09	81.873	517.09	81.8987	517.09	81.7542	517.09	81.7893	517.09	81.5675	517.09	81.585	517.09	81.3034	517.09	81.2735	517.09	80.9391	517.09	80.8393	517.09	80.441	517.09	80.2626	517.09	79.7711	517.09	79.5231	517.09	78.8982	517.09	78.6082	517.09	77.8205	517.09	77.533	517.09	76.6119	517.09	76.3794	517.09	75.4947	517.09	75.3506	517.09	74.8447	517.09	74.7598	517.09	74.9125	517.09	74.8095	517.09	75.5142	517.09	75.3595	517.09	76.2578	517.09	76.0824	517.09	76.8735	517.09	76.7258	517.09	77.2463	517.09	77.1632	517.09	77.343
536.133	81.9739	536.133	81.8795	536.133	81.9837	536.133	81.6991	536.133	81.9104	536.133	81.4319	536.133	81.7519	536.133	81.075	536.133	81.4993	536.133	80.6193	536.133	81.1345	536.133	80.0445	536.133	80.63	536.133	79.3182	536.133	79.9527	536.133	78.4039	536.133	79.073	536.133	77.2816	536.133	77.9851	536.133	76.0028	536.133	76.754	536.133	74.7972	536.133	75.6012	536.133	74.1396	536.133	74.9373	536.133	74.3948	536.133	75.0665	536.133	75.309	536.133	75.7938	536.133	76.3541	536.133	76.6722	536.133	77.2084	536.133	77.398	536.133	77.7552	536.133	77.8436	536.133	77.9668
555.176	82.0136	555.176	81.9788	555.176	81.9712	555.176	81.8643	555.176	81.8575	555.176	81.6688	555.176	81.678	555.176	81.3867	555.176	81.4291	555.176	81.0024	555.176	81.0894	555.176	80.4881	555.176	80.6166	555.176	79.8071	555.176	79.954	555.176	78.9255	555.176	79.0459	555.176	77.8332	555.176	77.8676	555.176	76.591	555.176	76.4919	555.176	75.4118	555.176	75.2177	555.176	74.6979	555.176	74.6014	555.176	74.7694	555.176	74.9421	555.176	75.4663	555.176	75.8417	555.176	76.356	555.176	76.7671	555.176	77.1318	555.176	77.4567	555.176	77.6619	555.176	77.8371	555.176	77.9023
574.219	82.4101	574.219	82.3131	574.219	82.4147	574.219	82.1295	574.219	82.3217	574.219	81.8619	574.219	82.1256	574.219	81.5047	574.219	81.8185	574.219	81.0375	574.219	81.3858	574.219	80.4201	574.219	80.8017	574.219	79.5927	574.219	80.0261	574.219	78.4806	574.219	79.0048	574.219	77.0113	574.219	77.6763	574.219	75.1758	574.219	76.0055	574.219	73.2456	574.219	74.109	574.219	72.1622	574.219	72.5849	574.219	72.7695	574.219	72.4702	574.219	74.2722	574.219	73.6876	574.219	75.6816	574.219	75.1668	574.219	76.6792	574.219	76.3338	574.219	77.2317	574.219	77.063	574.219	77.3577
594.727	82.6163	594.727	82.5586	594.727	82.6322	594.727	82.4528	594.727	82.6126	594.727	82.2924	594.727	82.5576	594.727	82.0645	594.727	82.4511	594.727	81.7435	594.727	82.2537	594.727	81.2891	594.727	81.9039	594.727	80.6472	594.727	81.3269	594.727	79.7541	594.727	80.445	594.727	78.5427	594.727	79.1898	594.727	76.9616	594.727	77.5319	594.727	75.0559	594.727	75.5783	594.727	73.2212	594.727	73.8203	594.727	72.4434	594.727	73.1721	594.727	73.1789	594.727	73.8207	594.727	74.4994	594.727	74.9156	594.727	75.62	594.727	75.8393	594.727	76.3146	594.727	76.4031	594.727	76.5679
615.234	82.3558	615.234	82.3521	615.234	82.2857	615.234	82.2771	615.234	82.1493	615.234	82.1361	615.234	81.9627	615.234	81.9261	615.234	81.7403	615.234	81.6241	615.234	81.4768	615.234	81.1818	615.234	81.1339	615.234	80.5275	615.234	80.6408	615.234	79.5741	615.234	79.9077	615.234	78.2317	615.234	78.8476	615.234	76.4428	615.234	77.4169	615.234	74.328	615.234	75.7305	615.234	72.6247	615.234	74.3193	615.234	72.6196	615.234	74.0571	615.234	74.0289	615.234	74.9505	615.234	75.5711	615.234	76.1285	615.234	76.7245	615.234	77.0509	615.234	77.4247	615.234	77.5781	615.234	77.7021
637.207	81.7277	637.207	81.7612	637.207	81.7622	637.207	81.8703	637.207	81.8584	637.207	82.0501	637.207	82.0036	637.207	82.2611	637.207	82.1603	637.207	82.4239	637.207	82.2596	637.207	82.4362	637.207	82.2115	637.207	82.1955	637.207	81.9209	637.207	81.6082	637.207	81.2972	637.207	80.5881	637.207	80.2562	637.207	79.0538	637.207	78.7288	637.207	76.9614	637.207	76.7233	637.207	74.515	637.207	74.5951	637.207	72.815	637.207	73.504	637.207	73.2745	637.207	74.226	637.207	74.8872	637.207	75.647	637.207	76.3118	637.207	76.8019	637.207	77.2137	637.207	77.452	637.207	77.587
659.18	81.5326	659.18	81.3953	659.18	81.5065	659.18	81.129	659.18	81.3685	659.18	80.8569	659.18	81.2403	659.18	80.7531	659.18	81.2581	659.18	80.9213	659.18	81.4685	659.18	81.2803	659.18	81.7685	659.18	81.6102	659.18	81.9668	659.18	81.6834	659.18	81.8772	659.18	81.3243	659.18	81.3552	659.18	80.4002	659.18	80.2946	659.18	78.8215	659.18	78.6505	659.18	76.6967	659.18	76.6355	659.18	75.0063	659.18	75.2976	659.18	75.5137	659.18	75.9406	659.18	77.411	659.18	77.6602	659.18	79.0712	659.18	79.1686	659.18	80.0692	659.18	80.0958	659.18	80.3995
682.617	83.0409	682.617	82.9722	682.617	82.8643	682.617	82.6759	682.617	82.4649	682.617	82.2087	682.617	81.9201	682.617	81.6715	682.617	81.3753	682.617	81.1942	682.617	81.0039	682.617	80.8692	682.617	80.8817	682.617	80.664	682.617	80.8925	682.617	80.4161	682.617	80.7996	682.617	79.9114	682.617	80.3762	682.617	78.9536	682.617	79.4615	682.617	77.4074	682.617	77.9953	682.617	75.3774	682.617	76.2142	682.617	73.9123	682.617	75.151	682.617	74.7099	682.617	75.9048	682.617	76.7768	682.617	77.5751	682.617	78.5481	682.617	79.0059	682.617	79.6454	682.617	79.8523	682.617	80.0693
707.52	84.1185	707.52	83.9899	707.52	84.0352	707.52	83.6639	707.52	83.7423	707.52	83.1786	707.52	83.2591	707.52	82.6064	707.52	82.633	707.52	82.0467	707.52	81.9521	707.52	81.582	707.52	81.3341	707.52	81.2076	707.52	80.8572	707.52	80.807	707.52	80.4677	707.52	80.1982	707.52	79.9709	707.52	79.1908	707.52	79.1139	707.52	77.6139	707.52	77.6692	707.52	75.3951	707.52	75.5686	707.52	73.0877	707.52	73.5414	707.52	72.8092	707.52	73.7143	707.52	74.8176	707.52	75.7337	707.52	76.8783	707.52	77.5386	707.52	78.2139	707.52	78.5537	707.52	78.7689
732.422	83.9239	732.422	83.7986	732.422	83.8279	732.422	83.4719	732.422	83.5329	732.422	83.0047	732.422	83.1066	732.422	82.4942	732.422	82.6549	732.422	82.0479	732.422	82.2804	732.422	81.7282	732.422	82.0091	732.422	81.4968	732.422	81.7519	732.422	81.2182	732.422	81.3438	732.422	80.7123	732.422	80.6097	732.422	79.8012	732.422	79.3932	732.422	78.3318	732.422	77.5681	732.422	76.2574	732.422	75.1594	732.422	74.0876	732.422	73.0172	732.422	73.6137	732.422	73.2334	732.422	75.2325	732.422	75.2441	732.422	77.0303	732.422	77.076	732.422	78.1696	732.422	78.1893	732.422	78.5516
757.324	84.5522	757.324	84.383	757.324	84.4474	757.324	83.96	757.324	84.0691	757.324	83.3321	757.324	83.4503	757.324	82.5983	757.324	82.6883	757.324	81.9184	757.324	81.9723	757.324	81.455	757.324	81.5241	757.324	81.2376	757.324	81.402	757.324	81.0993	757.324	81.3971	757.324	80.7794	757.324	81.1881	757.324	80.0355	757.324	80.502	757.324	78.6768	757.324	79.144	757.324	76.628	757.324	77.0503	757.324	74.4246	757.324	74.8027	757.324	74.1156	757.324	74.5111	757.324	76.0298	757.324	76.3888	757.324	78.0016	757.324	78.2569	757.324	79.2407	757.324	79.3713	757.324	79.6916
785.156	84.6818	785.156	84.5602	785.156	84.5662	785.156	84.2111	785.156	84.2219	785.156	83.6705	785.156	83.673	785.156	83.0137	785.156	82.9664	785.156	82.3614	785.156	82.1879	785.156	81.8451	785.156	81.4732	785.156	81.5147	785.156	80.9611	785.156	81.2675	785.156	80.6653	785.156	80.8879	785.156	80.3944	785.156	80.1323	785.156	79.8385	785.156	78.764	785.156	78.6892	785.156	76.5751	785.156	76.7208	785.156	73.7682	785.156	74.1875	785.156	72.722	785.156	73.296	785.156	74.9839	785.156	75.3373	785.156	77.3971	785.156	77.5687	785.156	78.8447	785.156	78.9137	785.156	79.3316
811.523	80.9335	811.523	80.6661	811.523	80.8664	811.523	80.0864	811.523	80.4729	811.523	79.2623	811.523	79.8054	811.523	78.3509	811.523	79.0032	811.523	77.6266	811.523	78.3308	811.523	77.3603	811.523	78.0765	811.523	77.5499	811.523	78.2672	811.523	77.8941	811.523	78.597	811.523	78.0476	811.523	78.696	811.523	77.757	811.523	78.2986	811.523	76.8437	811.523	77.2352	811.523	75.2167	811.523	75.4603	811.523	73.2206	811.523	73.475	811.523	72.584	811.523	73.1212	811.523	74.3157	811.523	74.8931	811.523	76.4183	811.523	76.809	811.523	77.8018	811.523	77.9899	811.523	78.3221
840.82	72.0603	840.82	71.942	840.82	71.9022	840.82	71.5188	840.82	71.4628	840.82	70.7408	840.82	70.712	840.82	69.5767	840.82	69.6492	840.82	68.1649	840.82	68.4715	840.82	67.2132	840.82	67.8438	840.82	67.7918	840.82	68.4637	840.82	69.4577	840.82	69.853	840.82	70.9481	840.82	71.0592	840.82	71.6721	840.82	71.5805	840.82	71.4414	840.82	71.2079	840.82	70.1685	840.82	69.8402	840.82	67.9764	840.82	67.6968	840.82	66.3159	840.82	66.4864	840.82	67.611	840.82	68.0504	840.82	69.9421	840.82	70.2411	840.82	71.497	840.82	71.6312	840.82	72.0504
870.117	78.1322	870.117	78.0368	870.117	77.9829	870.117	77.679	870.117	77.5922	870.117	77.0257	870.117	76.9564	870.117	76.0404	870.117	76.08	870.117	74.7142	870.117	74.993	870.117	73.1308	870.117	73.7638	870.117	71.5449	870.117	72.4829	870.117	70.2853	870.117	71.1945	870.117	69.3254	870.117	69.7983	870.117	68.1325	870.117	67.994	870.117	66.0404	870.117	65.2704	870.117	62.5998	870.117	61.0808	870.117	60.2642	870.117	59.1797	870.117	63.5822	870.117	63.702	870.117	67.0075	870.117	67.2776	870.117	69.1565	870.117	69.3882	870.117	70.3438	870.117	70.4751	870.117	70.7679
900.879	82.6933	900.879	82.628	900.879	82.531	900.879	82.3227	900.879	82.1261	900.879	81.7391	900.879	81.4464	900.879	80.8309	900.879	80.4685	900.879	79.5906	900.879	79.2256	900.879	78.148	900.879	77.8832	900.879	76.8827	900.879	76.7621	900.879	76.202	900.879	76.0825	900.879	75.9141	900.879	75.6084	900.879	75.3239	900.879	74.8029	900.879	73.7559	900.879	73.1118	900.879	70.3936	900.879	69.7718	900.879	62.6106	900.879	62.3361	900.879	57.805	900.879	57.4506	900.879	68.281	900.879	67.898	900.879	72.0586	900.879	71.8566	900.879	73.7725	900.879	73.6938	900.879	74.2626
933.105	84.9037	933.105	84.806	933.105	84.8188	933.105	84.5124	933.105	84.5338	933.105	83.9831	933.105	83.9982	933.105	83.1598	933.105	83.1342	933.105	81.9878	933.105	81.8657	933.105	80.4749	933.105	80.2071	933.105	78.8345	933.105	78.4917	933.105	77.6333	933.105	77.5338	933.105	77.3232	933.105	77.6577	933.105	77.4319	933.105	77.9632	933.105	77.1088	933.105	77.5377	933.105	75.703	933.105	75.7857	933.105	72.4005	933.105	71.7738	933.105	64.3101	933.105	61.1621	933.105	61.2125	933.105	65.086	933.105	70.9297	933.105	72.1537	933.105	74.2973	933.105	74.7758	933.105	75.377
965.332	85.2557	965.332	85.1883	965.332	85.1326	965.332	84.9319	965.332	84.816	965.332	84.4768	965.332	84.3007	965.332	83.7934	965.332	83.5688	965.332	82.8377	965.332	82.5861	965.332	81.5894	965.332	81.3264	965.332	80.1377	965.332	79.8515	965.332	78.7971	965.332	78.4351	965.332	77.9848	965.332	77.5133	965.332	77.6534	965.332	77.1377	965.332	77.1945	965.332	76.723	965.332	75.9583	965.332	75.5521	965.332	73.366	965.332	72.9323	965.332	68.9537	965.332	68.0236	965.332	67.1501	965.332	65.8971	965.332	71.2646	965.332	70.9827	965.332	73.9251	965.332	73.8699	965.332	74.7375
1000.49	85.0269	1000.49	84.9336	1000.49	84.8833	1000.49	84.5925	1000.49	84.5062	1000.49	83.9888	1000.49	83.8879	1000.49	83.1063	1000.49	83.0135	1000.49	81.9427	1000.49	81.879	1000.49	80.569	1000.49	80.5418	1000.49	79.2576	1000.49	79.2257	1000.49	78.5041	1000.49	78.3702	1000.49	78.5092	1000.49	78.2318	1000.49	78.7601	1000.49	78.3923	1000.49	78.5702	1000.49	78.1507	1000.49	77.4187	1000.49	76.9358	1000.49	74.7402	1000.49	74.1336	1000.49	69.4774	1000.49	68.4608	1000.49	64.9839	1000.49	63.3576	1000.49	70.7585	1000.49	70.2899	1000.49	73.8848	1000.49	73.6812	1000.49	74.7114
1035.64	84.8537	1035.64	84.7689	1035.64	84.738	1035.64	84.487	1035.64	84.4265	1035.64	84.002	1035.64	83.9256	1035.64	83.2804	1035.64	83.2161	1035.64	82.2636	1035.64	82.2307	1035.64	80.9043	1035.64	80.8795	1035.64	79.2551	1035.64	79.175	1035.64	77.6414	1035.64	77.5182	1035.64	76.6942	1035.64	76.7399	1035.64	76.584	1035.64	76.8733	1035.64	76.5371	1035.64	76.8691	1035.64	75.6551	1035.64	75.8536	1035.64	73.1377	1035.64	73.1053	1035.64	67.6379	1035.64	67.1335	1035.64	64.1394	1035.64	63.5036	1035.64	70.8249	1035.64	70.7605	1035.64	74.042	1035.64	74.02	1035.64	74.9577
1072.27	84.9479	1072.27	84.8198	1072.27	84.8673	1072.27	84.4879	1072.27	84.5721	1072.27	83.9567	1072.27	84.0502	1072.27	83.22	1072.27	83.2821	1072.27	82.2451	1072.27	82.2537	1072.27	80.99	1072.27	80.9884	1072.27	79.5082	1072.27	79.6091	1072.27	78.1493	1072.27	78.4072	1072.27	77.478	1072.27	77.7383	1072.27	77.4457	1072.27	77.5795	1072.27	77.2794	1072.27	77.3903	1072.27	76.282	1072.27	76.5175	1072.27	73.892	1072.27	74.3149	1072.27	69.2291	1072.27	69.7587	1072.27	63.9952	1072.27	63.5941	1072.27	69.1832	1072.27	69.0638	1072.27	72.7542	1072.27	72.7949	1072.27	73.8317
1108.89	85.3222	1108.89	85.2067	1108.89	85.2025	1108.89	84.8682	1108.89	84.8598	1108.89	84.328	1108.89	84.3201	1108.89	83.5816	1108.89	83.5918	1108.89	82.5763	1108.89	82.6349	1108.89	81.2328	1108.89	81.3635	1108.89	79.5228	1108.89	79.7184	1108.89	77.6379	1108.89	77.8665	1108.89	76.2176	1108.89	76.4904	1108.89	75.8901	1108.89	76.2584	1108.89	76.1335	1108.89	76.5493	1108.89	75.9034	1108.89	76.2668	1108.89	74.4409	1108.89	74.6354	1108.89	70.946	1108.89	70.7061	1108.89	65.1306	1108.89	64.1362	1108.89	67.9734	1108.89	68.5923	1108.89	72.2232	1108.89	72.6238	1108.89	73.6302
1148.44	86.1375	1148.44	85.9921	1148.44	86.0192	1148.44	85.6002	1148.44	85.638	1148.44	84.9906	1148.44	85.0092	1148.44	84.1867	1148.44	84.1491	1148.44	83.1881	1148.44	83.0656	1148.44	81.9722	1148.44	81.7672	1148.44	80.5511	1148.44	80.3143	1148.44	79.1169	1148.44	78.9356	1148.44	78.1372	1148.44	78.0756	1148.44	77.8782	1148.44	77.931	1148.44	77.8118	1148.44	77.9514	1148.44	77.1115	1148.44	77.3026	1148.44	75.0437	1148.44	75.2043	1148.44	70.5747	1148.44	70.5176	1148.44	64.3186	1148.44	64.4022	1148.44	69.7634	1148.44	70.3272	1148.44	73.5966	1148.44	73.8722	1148.44	74.7784
1189.45	86.0623	1189.45	85.9409	1189.45	85.8911	1189.45	85.5429	1189.45	85.448	1189.45	84.9136	1189.45	84.7849	1189.45	84.0964	1189.45	83.9573	1189.45	83.0824	1189.45	82.9688	1189.45	81.7933	1189.45	81.7369	1189.45	80.1474	1189.45	80.1515	1189.45	78.2399	1189.45	78.2689	1189.45	76.6777	1189.45	76.6861	1189.45	76.3724	1189.45	76.3514	1189.45	76.9576	1189.45	76.8618	1189.45	77.154	1189.45	76.8833	1189.45	76.0525	1189.45	75.4889	1189.45	72.7962	1189.45	71.6778	1189.45	66.6005	1189.45	63.7614	1189.45	68.7999	1189.45	68.1882	1189.45	73.1467	1189.45	72.9899	1189.45	74.3549
1230.47	85.5642	1230.47	85.4086	1230.47	85.4004	1230.47	84.9646	1230.47	84.9207	1230.47	84.2773	1230.47	84.1702	1230.47	83.3924	1230.47	83.2118	1230.47	82.3528	1230.47	82.0825	1230.47	81.1782	1230.47	80.771	1230.47	79.8485	1230.47	79.2535	1230.47	78.4041	1230.47	77.6126	1230.47	77.1855	1230.47	76.2746	1230.47	76.6891	1230.47	75.9098	1230.47	76.6793	1230.47	76.3008	1230.47	76.278	1230.47	76.3356	1230.47	74.6851	1230.47	75.0546	1230.47	70.9026	1230.47	71.3683	1230.47	63.0271	1230.47	62.0167	1230.47	66.9562	1230.47	66.2677	1230.47	71.9694	1230.47	71.909	1230.47	73.3404
1274.41	85.2832	1274.41	85.1043	1274.41	85.1057	1274.41	84.5832	1274.41	84.5853	1274.41	83.7738	1274.41	83.7605	1274.41	82.766	1274.41	82.7026	1274.41	81.6414	1274.41	81.5116	1274.41	80.395	1274.41	80.2538	1274.41	78.9102	1274.41	78.8661	1274.41	77.0858	1274.41	77.2153	1274.41	75.2344	1274.41	75.4995	1274.41	74.4753	1274.41	74.6965	1274.41	75.0515	1274.41	75.1702	1274.41	75.4502	1274.41	75.5765	1274.41	74.5387	1274.41	74.7537	1274.41	71.5597	1274.41	71.7891	1274.41	66.2315	1274.41	64.8663	1274.41	67.9346	1274.41	65.8543	1274.41	72.0365	1274.41	71.5488	1274.41	73.2035
1319.82	84.9325	1319.82	84.7134	1319.82	84.7714	1319.82	84.1269	1319.82	84.2461	1319.82	83.2146	1319.82	83.4047	1319.82	82.0461	1319.82	82.3171	1319.82	80.6995	1319.82	81.0397	1319.82	79.2142	1319.82	79.5921	1319.82	77.5702	1319.82	77.9754	1319.82	75.8405	1319.82	76.2061	1319.82	74.563	1319.82	74.4731	1319.82	74.4781	1319.82	73.5446	1319.82	75.1158	1319.82	73.9901	1319.82	75.3142	1319.82	74.628	1319.82	74.2675	1319.82	74.0669	1319.82	71.191	1319.82	71.3235	1319.82	65.1476	1319.82	64.9902	1319.82	66.0032	1319.82	64.7622	1319.82	70.4642	1319.82	70.0618	1319.82	71.6717
1366.7	85.2447	1366.7	85.0543	1366.7	85.0685	1366.7	84.5142	1366.7	84.5334	1366.7	83.6651	1366.7	83.6776	1366.7	82.5769	1366.7	82.5627	1366.7	81.342	1366.7	81.2385	1366.7	80.0179	1366.7	79.7103	1366.7	78.5384	1366.7	77.9645	1366.7	76.7116	1366.7	76.0388	1366.7	74.4608	1366.7	74.1631	1366.7	72.6108	1366.7	73.1166	1366.7	72.7703	1366.7	73.5783	1366.7	73.7367	1366.7	74.3694	1366.7	73.435	1366.7	73.9758	1366.7	70.6146	1366.7	71.3513	1366.7	62.937	1366.7	64.609	1366.7	65.174	1366.7	63.8147	1366.7	70.7292	1366.7	70.1149	1366.7	71.9794
1413.57	85.2639	1413.57	85.0727	1413.57	85.0438	1413.57	84.4988	1413.57	84.4167	1413.57	83.5907	1413.57	83.428	1413.57	82.3967	1413.57	82.1781	1413.57	80.968	1413.57	80.8103	1413.57	79.3846	1413.57	79.4302	1413.57	77.7115	1413.57	78.0101	1413.57	75.875	1413.57	76.4411	1413.57	73.8342	1413.57	74.7652	1413.57	72.5546	1413.57	73.5649	1413.57	73.3411	1413.57	73.7153	1413.57	74.4756	1413.57	74.516	1413.57	74.1856	1413.57	74.3574	1413.57	71.5242	1413.57	72.0329	1413.57	64.8462	1413.57	65.7831	1413.57	66.1532	1413.57	65.3922	1413.57	71.6931	1413.57	71.4238	1413.57	73.1544
1463.38	84.002	1463.38	83.9089	1463.38	83.692	1463.38	83.4137	1463.38	83.0241	1463.38	82.556	1463.38	82.0939	1463.38	81.4355	1463.38	80.9996	1463.38	80.2043	1463.38	79.7963	1463.38	78.959	1463.38	78.5292	1463.38	77.659	1463.38	77.242	1463.38	76.2571	1463.38	75.8256	1463.38	74.8711	1463.38	74.0444	1463.38	73.772	1463.38	72.2216	1463.38	73.3488	1463.38	71.9283	1463.38	73.5636	1463.38	73.1383	1463.38	73.2952	1463.38	73.7125	1463.38	71.063	1463.38	72.2198	1463.38	64.6786	1463.38	67.1704	1463.38	64.5218	1463.38	65.5824	1463.38	70.9464	1463.38	71.2281	1463.38	72.7847
1516.11	82.5852	1516.11	82.5039	1516.11	82.3038	1516.11	82.0553	1516.11	81.6885	1516.11	81.3006	1516.11	80.783	1516.11	80.3702	1516.11	79.6833	1516.11	79.3836	1516.11	78.5425	1516.11	78.3778	1516.11	77.4331	1516.11	77.3429	1516.11	76.2119	1516.11	76.2106	1516.11	74.7055	1516.11	74.7423	1516.11	73.0924	1516.11	72.9713	1516.11	72.0988	1516.11	72.4323	1516.11	72.4192	1516.11	73.5476	1516.11	73.359	1516.11	73.8182	1516.11	73.3097	1516.11	71.5292	1516.11	70.7737	1516.11	63.3323	1516.11	62.2853	1516.11	62.9942	1516.11	63.6897	1516.11	70.7856	1516.11	70.7439	1516.11	72.4666
1568.85	81.5879	1568.85	81.374	1568.85	81.4644	1568.85	80.9168	1568.85	80.982	1568.85	80.3153	1568.85	80.1716	1568.85	79.5811	1568.85	79.1159	1568.85	78.662	1568.85	78.0282	1568.85	77.574	1568.85	77.1351	1568.85	76.4508	1568.85	76.2643	1568.85	75.3133	1568.85	75.0114	1568.85	73.8906	1568.85	73.4498	1568.85	72.372	1568.85	72.2843	1568.85	72.2748	1568.85	72.2169	1568.85	73.373	1568.85	73.0211	1568.85	73.555	1568.85	73.1129	1568.85	71.4663	1568.85	70.8463	1568.85	64.2895	1568.85	63.2117	1568.85	60.7738	1568.85	59.3181	1568.85	69.4712	1568.85	68.7801	1568.85	71.0195
1624.51	81.0802	1624.51	80.8602	1624.51	80.9354	1624.51	80.403	1624.51	80.4445	1624.51	79.8541	1624.51	79.771	1624.51	79.257	1624.51	79.0741	1624.51	78.6	1624.51	78.362	1624.51	77.9183	1624.51	77.5581	1624.51	77.1456	1624.51	76.6077	1624.51	75.9507	1624.51	75.3319	1624.51	74.18	1624.51	73.3833	1624.51	72.5489	1624.51	70.9795	1624.51	72.1783	1624.51	70.1787	1624.51	72.9718	1624.51	71.4665	1624.51	73.4781	1624.51	72.353	1624.51	72.0231	1624.51	71.2329	1624.51	66.4384	1624.51	65.8273	1624.51	55.8572	1624.51	51.696	1624.51	67.2959	1624.51	67.2699	1624.51	69.602
1681.64	80.4998	1681.64	80.4421	1681.64	80.2432	1681.64	80.0437	1681.64	79.7733	1681.64	79.4409	1681.64	79.1376	1681.64	78.8473	1681.64	78.3433	1681.64	78.3363	1681.64	77.5181	1681.64	77.7707	1681.64	76.9101	1681.64	76.9738	1681.64	76.5324	1681.64	75.8536	1681.64	75.9242	1681.64	74.3124	1681.64	74.3895	1681.64	72.1029	1681.64	71.7765	1681.64	70.029	1681.64	70.9547	1681.64	71.7257	1681.64	73.022	1681.64	74.1887	1681.64	74.2041	1681.64	74.271	1681.64	73.3948	1681.64	71.0582	1681.64	69.5652	1681.64	61.0533	1681.64	57.3846	1681.64	59.8592	1681.64	61.9214	1681.64	65.3957
1741.7	82.5156	1741.7	82.4907	1741.7	82.3166	1741.7	82.1491	1741.7	81.8927	1741.7	81.3762	1741.7	81.1687	1741.7	80.2435	1741.7	80.0368	1741.7	79.1304	1741.7	78.5071	1741.7	78.3113	1741.7	76.9225	1741.7	77.4593	1741.7	75.8244	1741.7	76.1588	1741.7	75.2771	1741.7	74.5739	1741.7	74.4691	1741.7	73.3122	1741.7	72.2478	1741.7	72.2299	1741.7	69.4255	1741.7	71.282	1741.7	71.1893	1741.7	72.1531	1741.7	73.1948	1741.7	73.1118	1741.7	72.6886	1741.7	71.4549	1741.7	69.2292	1741.7	65.4756	1741.7	61.3713	1741.7	60.0375	1741.7	61.5689	1741.7	64.0152
1803.22	83.6176	1803.22	83.5751	1803.22	83.3777	1803.22	83.2188	1803.22	82.8595	1803.22	82.4688	1803.22	82.0598	1803.22	81.2312	1803.22	80.9624	1803.22	79.5733	1803.22	79.5582	1803.22	77.9765	1803.22	77.897	1803.22	76.8651	1803.22	76.1175	1803.22	75.6806	1803.22	74.6427	1803.22	73.9468	1803.22	73.8143	1803.22	72.6002	1803.22	72.4131	1803.22	72.4221	1803.22	68.8385	1803.22	72.4664	1803.22	68.2777	1803.22	72.4585	1803.22	72.389	1803.22	72.0883	1803.22	73.4029	1803.22	70.1553	1803.22	70.4774	1803.22	66.1117	1803.22	61.0847	1803.22	66.1344	1803.22	65.5411	1803.22	68.2844
1866.21	84.3232	1866.21	84.2221	1866.21	84.1393	1866.21	83.8149	1866.21	83.6175	1866.21	83.0291	1866.21	82.7092	1866.21	81.7917	1866.21	81.4542	1866.21	80.1126	1866.21	79.9408	1866.21	78.1511	1866.21	78.2865	1866.21	76.2795	1866.21	76.5439	1866.21	75.0517	1866.21	74.5348	1866.21	74.1274	1866.21	72.4213	1866.21	72.4289	1866.21	70.6693	1866.21	70.7269	1866.21	68.406	1866.21	71.0778	1866.21	67.9737	1866.21	71.9025	1866.21	71.2031	1866.21	71.5802	1866.21	72.3063	1866.21	68.5575	1866.21	69.7028	1866.21	64.1609	1866.21	64.8479	1866.21	69.42	1866.21	69.5313	1866.21	71.5983
1932.13	84.8731	1932.13	84.7053	1932.13	84.6575	1932.13	84.2009	1932.13	84.0129	1932.13	83.3711	1932.13	82.949	1932.13	82.1685	1932.13	81.6012	1932.13	80.5928	1932.13	80.1191	1932.13	78.8194	1932.13	78.5456	1932.13	77.1404	1932.13	76.9648	1932.13	75.6643	1932.13	75.2785	1932.13	74.0297	1932.13	73.163	1932.13	71.5332	1932.13	71.0793	1932.13	68.7392	1932.13	68.7317	1932.13	69.498	1932.13	66.3423	1932.13	71.2505	1932.13	69.8544	1932.13	71.3125	1932.13	71.5771	1932.13	68.9181	1932.13	68.8745	1932.13	65.0023	1932.13	63.795	1932.13	68.9001	1932.13	69.0784	1932.13	71.1109
1999.51	84.1588	1999.51	84.0282	1999.51	83.8267	1999.51	83.4799	1999.51	83.1025	1999.51	82.645	1999.51	82.0946	1999.51	81.6382	1999.51	80.8414	1999.51	80.4072	1999.51	79.4168	1999.51	78.8537	1999.51	78.0373	1999.51	77.3222	1999.51	76.7878	1999.51	76.1064	1999.51	75.4995	1999.51	74.4277	1999.51	74.0093	1999.51	71.885	1999.51	72.4551	1999.51	68.9563	1999.51	70.6233	1999.51	67.9002	1999.51	67.1067	1999.51	70.6042	1999.51	67.5804	1999.51	70.7779	1999.51	70.7335	1999.51	66.8464	1999.51	69.1459	1999.51	65.3608	1999.51	62.0938	1999.51	69.7997	1999.51	68.5735	1999.51	71.315
2069.82	82.9847	2069.82	82.7197	2069.82	82.6776	2069.82	81.8678	2069.82	81.923	2069.82	80.6617	2069.82	80.9013	2069.82	79.454	2069.82	79.734	2069.82	78.0433	2069.82	78.3512	2069.82	76.0324	2069.82	76.5046	2069.82	74.2466	2069.82	74.1219	2069.82	73.5917	2069.82	71.733	2069.82	72.9532	2069.82	68.7927	2069.82	71.6598	2069.82	64.0986	2069.82	69.9454	2069.82	61.3032	2069.82	68.9559	2069.82	49.2195	2069.82	69.7585	2069.82	64.995	2069.82	69.5066	2069.82	69.4271	2069.82	63.8536	2069.82	68.4091	2069.82	64.1121	2069.82	67.5524	2069.82	72.0446	2069.82	71.6705	2069.82	73.6613
2143.07	83.0542	2143.07	82.8322	2143.07	82.7576	2143.07	82.1135	2143.07	82.2613	2143.07	81.2747	2143.07	81.7436	2143.07	80.5658	2143.07	80.8536	2143.07	79.6235	2143.07	79.3157	2143.07	77.9718	2143.07	77.4463	2143.07	75.5977	2143.07	75.6993	2143.07	72.5723	2143.07	74.7985	2143.07	70.021	2143.07	73.8834	2143.07	69.4748	2143.07	70.1093	2143.07	68.075	2143.07	67.0499	2143.07	68.48	2143.07	66.5718	2143.07	70.8057	2143.07	63.758	2143.07	71.1096	2143.07	69.0787	2143.07	68.1794	2143.07	68.3706	2143.07	63.6626	2143.07	68.4512	2143.07	71.7638	2143.07	73.7686	2143.07	74.9251
2219.24	83.5352	2219.24	83.5739	2219.24	83.3347	2219.24	83.2304	2219.24	82.9393	2219.24	82.5545	2219.24	82.105	2219.24	81.7736	2219.24	81.0895	2219.24	80.7818	2219.24	80.2947	2219.24	79.4158	2219.24	79.3415	2219.24	77.6835	2219.24	77.7923	2219.24	75.7632	2219.24	76.3957	2219.24	74.5261	2219.24	75.2079	2219.24	73.3041	2219.24	73.155	2219.24	71.5435	2219.24	71.736	2219.24	70.0976	2219.24	71.0433	2219.24	69.968	2219.24	69.6869	2219.24	72.2215	2219.24	71.384	2219.24	70.9417	2219.24	70.932	2219.24	62.2592	2219.24	62.7978	2219.24	63.995	2219.24	65.241	2219.24	68.9938
2296.88	82.726	2296.88	82.6156	2296.88	82.5991	2296.88	82.2826	2296.88	82.2359	2296.88	81.7883	2296.88	81.5003	2296.88	81.1456	2296.88	80.5554	2296.88	80.338	2296.88	79.8245	2296.88	79.2357	2296.88	78.8805	2296.88	77.7075	2296.88	77.1935	2296.88	76.1782	2296.88	75.4932	2296.88	74.8866	2296.88	74.4254	2296.88	73.1112	2296.88	72.2529	2296.88	70.9454	2296.88	69.9277	2296.88	69.4159	2296.88	70.38	2296.88	69.9445	2296.88	68.6752	2296.88	72.0989	2296.88	70.6394	2296.88	71.4801	2296.88	71.4163	2296.88	64.696	2296.88	66.1257	2296.88	61.4514	2296.88	57.9511	2296.88	66.0031
2378.91	82.6591	2378.91	82.6038	2378.91	82.5924	2378.91	82.3958	2378.91	82.4219	2378.91	81.9852	2378.91	82.1758	2378.91	81.4377	2378.91	81.5802	2378.91	80.6667	2378.91	80.6602	2378.91	79.5556	2378.91	79.5918	2378.91	77.9063	2378.91	77.9065	2378.91	75.9407	2378.91	76.1882	2378.91	74.958	2378.91	75.558	2378.91	73.7987	2378.91	74.5132	2378.91	71.5884	2378.91	71.8926	2378.91	69.1956	2378.91	71.2194	2378.91	67.6109	2378.91	70.512	2378.91	71.308	2378.91	70.6864	2378.91	71.893	2378.91	71.8787	2378.91	66.6872	2378.91	67.7172	2378.91	61.0261	2378.91	62.8032	2378.91	66.0348
2462.4	82.2476	2462.4	82.2169	2462.4	82.2836	2462.4	82.2317	2462.4	82.2872	2462.4	82.1518	2462.4	82.1944	2462.4	81.7408	2462.4	81.8196	2462.4	81.025	2462.4	81.0882	2462.4	79.9779	2462.4	80.0898	2462.4	78.5633	2462.4	78.4656	2462.4	76.9951	2462.4	76.4922	2462.4	75.3108	2462.4	75.1886	2462.4	73.7101	2462.4	73.7013	2462.4	72.255	2462.4	71.6052	2462.4	70.9456	2462.4	70.6394	2462.4	68.6027	2462.4	70.2285	2462.4	69.3205	2462.4	70.8536	2462.4	70.9177	2462.4	71.7784	2462.4	67.1927	2462.4	67.9473	2462.4	59.9011	2462.4	61.3332	2462.4	65.38
2548.83	81.244	2548.83	81.3306	2548.83	81.4478	2548.83	81.5419	2548.83	81.7766	2548.83	81.6455	2548.83	81.8182	2548.83	81.3133	2548.83	81.4881	2548.83	80.5376	2548.83	80.6847	2548.83	79.65	2548.83	79.6152	2548.83	77.9899	2548.83	78.0486	2548.83	75.6236	2548.83	75.5549	2548.83	75.0766	2548.83	74.6446	2548.83	73.9914	2548.83	73.7499	2548.83	71.8616	2548.83	71.0806	2548.83	71.6	2548.83	70.3892	2548.83	70.1353	2548.83	69.9737	2548.83	70.4036	2548.83	69.514	2548.83	71.9012	2548.83	71.4139	2548.83	68.8139	2548.83	68.5025	2548.83	63.5092	2548.83	63.1119	2548.83	65.9557
2639.65	82.9831	2639.65	82.8879	2639.65	82.9962	2639.65	82.7433	2639.65	82.9644	2639.65	82.4563	2639.65	82.8258	2639.65	81.8558	2639.65	82.2426	2639.65	80.6101	2639.65	81.0702	2639.65	79.1418	2639.65	79.7162	2639.65	77.8063	2639.65	78.4215	2639.65	75.5201	2639.65	76.0619	2639.65	73.148	2639.65	73.7915	2639.65	72.3642	2639.65	73.1294	2639.65	70.599	2639.65	71.1608	2639.65	69.7622	2639.65	69.3741	2639.65	68.6341	2639.65	69.3329	2639.65	67.4848	2639.65	68.9595	2639.65	69.106	2639.65	69.6883	2639.65	65.6454	2639.65	66.8948	2639.65	60.5467	2639.65	61.264	2639.65	65.1857
2731.93	83.4124	2731.93	83.4625	2731.93	83.2584	2731.93	83.4285	2731.93	83.2111	2731.93	83.0953	2731.93	83.0507	2731.93	82.388	2731.93	82.3198	2731.93	81.2124	2731.93	81.0743	2731.93	79.5523	2731.93	79.5503	2731.93	78.0319	2731.93	78.1944	2731.93	75.6752	2731.93	76.215	2731.93	73.411	2731.93	73.6372	2731.93	72.5156	2731.93	72.7005	2731.93	70.506	2731.93	70.3265	2731.93	69.9343	2731.93	69.3062	2731.93	69.9167	2731.93	69.1764	2731.93	68.2506	2731.93	68.8458	2731.93	69.9676	2731.93	70.0606	2731.93	67.7585	2731.93	67.3691	2731.93	60.0786	2731.93	59.525	2731.93	63.1422
2828.61	83.017	2828.61	83.053	2828.61	83.1555	2828.61	83.1848	2828.61	83.2408	2828.61	83.1622	2828.61	83.0132	2828.61	82.5641	2828.61	82.449	2828.61	81.314	2828.61	81.3786	2828.61	79.643	2828.61	79.715	2828.61	78.0986	2828.61	78.1496	2828.61	75.9921	2828.61	76.3208	2828.61	73.0488	2828.61	73.7243	2828.61	72.3415	2828.61	73.0124	2828.61	69.9929	2828.61	71.4136	2828.61	68.314	2828.61	69.2261	2828.61	69.9584	2828.61	70.4211	2828.61	68.953	2828.61	69.0166	2828.61	69.4176	2828.61	70.1481	2828.61	66.2762	2828.61	68.0741	2828.61	61.4339	2828.61	58.8035	2828.61	63.8869
2928.22	82.7143	2928.22	82.6707	2928.22	82.9316	2928.22	82.7234	2928.22	83.0303	2928.22	82.6657	2928.22	82.9268	2928.22	82.3439	2928.22	82.5798	2928.22	81.3433	2928.22	81.5967	2928.22	79.5882	2928.22	79.8038	2928.22	77.891	2928.22	78.1777	2928.22	76.3373	2928.22	76.6615	2928.22	73.661	2928.22	73.8524	2928.22	72.4875	2928.22	72.3886	2928.22	71.6538	2928.22	71.9923	2928.22	68.8876	2928.22	69.3043	2928.22	68.8365	2928.22	70.4479	2928.22	68.8833	2928.22	70.4232	2928.22	70.5205	2928.22	71.0724	2928.22	68.3632	2928.22	68.6118	2928.22	56.3305	2928.22	59.4698	2928.22	61.2273
3030.76	82.8869	3030.76	83.005	3030.76	83.0106	3030.76	83.2554	3030.76	83.2999	3030.76	83.385	3030.76	83.3884	3030.76	83.0683	3030.76	83.0179	3030.76	82.0904	3030.76	82.0723	3030.76	80.3905	3030.76	80.4056	3030.76	78.3839	3030.76	78.5669	3030.76	76.6155	3030.76	76.8126	3030.76	73.9437	3030.76	74.7694	3030.76	72.2293	3030.76	72.8891	3030.76	71.8738	3030.76	72.1137	3030.76	70.3315	3030.76	70.3881	3030.76	69.7648	3030.76	70.1458	3030.76	67.2113	3030.76	69.9096	3030.76	70.1431	3030.76	71.5823	3030.76	68.8492	3030.76	70.1419	3030.76	58.7464	3030.76	62.1485	3030.76	59.6386
3137.7	82.4685	3137.7	82.8785	3137.7	82.6544	3137.7	83.3689	3137.7	83.0559	3137.7	83.3809	3137.7	83.2533	3137.7	82.9587	3137.7	82.9535	3137.7	82.2527	3137.7	82.1104	3137.7	80.8877	3137.7	80.5381	3137.7	78.9337	3137.7	78.5306	3137.7	77.3112	3137.7	76.927	3137.7	74.9523	3137.7	74.2297	3137.7	72.8255	3137.7	72.763	3137.7	72.1084	3137.7	72.3526	3137.7	70.8343	3137.7	70.5436	3137.7	71.9388	3137.7	71.4009	3137.7	68.9845	3137.7	70.2589	3137.7	70.2604	3137.7	71.6883	3137.7	70.0948	3137.7	70.923	3137.7	60.7904	3137.7	63.8455	3137.7	62.9559
3249.02	82.4614	3249.02	82.722	3249.02	82.785	3249.02	83.217	3249.02	83.426	3249.02	83.4685	3249.02	83.5598	3249.02	82.7449	3249.02	82.9264	3249.02	81.461	3249.02	82.0019	3249.02	79.898	3249.02	80.5732	3249.02	77.4917	3249.02	78.2535	3249.02	75.5712	3249.02	76.6815	3249.02	74.1262	3249.02	74.6352	3249.02	71.6945	3249.02	72.064	3249.02	71.3579	3249.02	71.5729	3249.02	69.981	3249.02	69.7842	3249.02	71.9036	3249.02	71.1314	3249.02	70.2208	3249.02	70.4371	3249.02	69.0455	3249.02	70.2287	3249.02	69.0575	3249.02	70.8552	3249.02	59.6643	3249.02	60.0155	3249.02	61.1373
3363.28	82.6092	3363.28	82.9402	3363.28	82.7971	3363.28	83.3406	3363.28	83.2358	3363.28	83.693	3363.28	83.3633	3363.28	83.3146	3363.28	82.6669	3363.28	82.0507	3363.28	81.3711	3363.28	80.7193	3363.28	79.8702	3363.28	78.5378	3363.28	77.6488	3363.28	76.1369	3363.28	75.7125	3363.28	74.6983	3363.28	73.8927	3363.28	72.3457	3363.28	70.7917	3363.28	70.9269	3363.28	70.7386	3363.28	68.9085	3363.28	68.4205	3363.28	70.2644	3363.28	69.8234	3363.28	70.6766	3363.28	70.363	3363.28	68.3942	3363.28	69.3637	3363.28	70.1547	3363.28	69.7496	3363.28	62.6024	3363.28	63.4285	3363.28	58.7708
3481.93	83.1451	3481.93	83.1559	3481.93	83.4433	3481.93	83.4541	3481.93	83.7742	3481.93	83.5792	3481.93	83.8317	3481.93	82.9459	3481.93	83.2663	3481.93	81.5277	3481.93	81.8737	3481.93	79.8129	3481.93	80.4774	3481.93	77.8928	3481.93	78.6706	3481.93	75.2462	3481.93	76.1767	3481.93	73.9857	3481.93	74.7816	3481.93	72.3509	3481.93	72.1925	3481.93	71.179	3481.93	70.7812	3481.93	69.4365	3481.93	70.0146	3481.93	69.4688	3481.93	69.2936	3481.93	71.5073	3481.93	71.9088	3481.93	69.5552	3481.93	70.2676	3481.93	69.9117	3481.93	70.1716	3481.93	61.1137	3481.93	63.7651	3481.93	57.9666
3604.98	82.1597	3604.98	82.4891	3604.98	82.3924	3604.98	83.0869	3604.98	83.1088	3604.98	83.6001	3604.98	83.4775	3604.98	83.2297	3604.98	83.0758	3604.98	82.0175	3604.98	81.7205	3604.98	80.4332	3604.98	80.0881	3604.98	78.5188	3604.98	78.4033	3604.98	76.242	3604.98	75.9363	3604.98	73.8344	3604.98	74.4135	3604.98	71.8136	3604.98	72.6488	3604.98	69.7327	3604.98	70.4215	3604.98	69.7934	3604.98	70.1573	3604.98	69.3348	3604.98	68.9035	3604.98	71.102	3604.98	71.2483	3604.98	70.1887	3604.98	70.6577	3604.98	69.7614	3604.98	70.0716	3604.98	63.1672	3604.98	63.9468	3604.98	58.7209
3732.42	83.0464	3732.42	83.2638	3732.42	83.171	3732.42	83.5278	3732.42	83.6761	3732.42	83.5488	3732.42	83.8448	3732.42	82.9207	3732.42	83.5634	3732.42	81.567	3732.42	82.3993	3732.42	79.8882	3732.42	80.6303	3732.42	77.8609	3732.42	78.7206	3732.42	75.6553	3732.42	76.3272	3732.42	73.6714	3732.42	74.1728	3732.42	72.3014	3732.42	72.7706	3732.42	70.2323	3732.42	70.2454	3732.42	69.2936	3732.42	70.072	3732.42	69.1977	3732.42	68.7127	3732.42	69.7617	3732.42	70.3587	3732.42	69.7547	3732.42	70.0845	3732.42	69.3598	3732.42	69.6227	3732.42	63.9394	3732.42	61.9917	3732.42	57.9498
3864.26	82.8956	3864.26	83.1586	3864.26	83.1821	3864.26	83.6859	3864.26	83.4697	3864.26	83.7087	3864.26	83.2389	3864.26	83.0401	3864.26	82.5311	3864.26	81.6709	3864.26	81.3492	3864.26	79.9572	3864.26	79.6694	3864.26	77.876	3864.26	77.7066	3864.26	75.4132	3864.26	75.3075	3864.26	73.3818	3864.26	73.1035	3864.26	71.9676	3864.26	71.4394	3864.26	70.3264	3864.26	70.1158	3864.26	68.5676	3864.26	69.9783	3864.26	68.7978	3864.26	68.5219	3864.26	70.1801	3864.26	69.5303	3864.26	68.9827	3864.26	68.6471	3864.26	69.2225	3864.26	69.0885	3864.26	62.3426	3864.26	63.3344	3864.26	53.4747
4000.49	82.7705	4000.49	82.9252	4000.49	82.9454	4000.49	83.3207	4000.49	83.4159	4000.49	83.3848	4000.49	83.5883	4000.49	82.7778	4000.49	83.0845	4000.49	81.4842	4000.49	81.7254	4000.49	79.5534	4000.49	79.8583	4000.49	77.5929	4000.49	78.0686	4000.49	74.8745	4000.49	75.6134	4000.49	72.5865	4000.49	73.898	4000.49	70.7877	4000.49	71.8632	4000.49	70.0385	4000.49	70.1681	4000.49	68.3149	4000.49	68.3259	4000.49	68.1217	4000.49	69.8826	4000.49	69.6006	4000.49	70.4079	4000.49	69.4295	4000.49	69.3544	4000.49	68.7813	4000.49	69.589	4000.49	63.9767	4000.49	63.506	4000.49	57.0753
4141.11	82.5451	4141.11	82.8336	4141.11	82.5727	4141.11	83.3152	4141.11	82.9932	4141.11	83.5288	4141.11	83.1062	4141.11	82.894	4141.11	82.6421	4141.11	82.0269	4141.11	81.7502	4141.11	80.1528	4141.11	79.7917	4141.11	78.0993	4141.11	77.949	4141.11	75.6443	4141.11	75.5666	4141.11	73.4014	4141.11	73.5519	4141.11	70.608	4141.11	70.7215	4141.11	69.8058	4141.11	70.5552	4141.11	68.266	4141.11	68.3533	4141.11	69.0939	4141.11	67.4108	4141.11	69.2216	4141.11	70.6826	4141.11	69.8518	4141.11	68.1868	4141.11	68.5928	4141.11	68.7158	4141.11	63.9534	4141.11	60.6249	4141.11	53.0275
4287.6	82.4335	4287.6	82.5586	4287.6	82.6722	4287.6	82.9945	4287.6	82.9677	4287.6	83.3286	4287.6	83.3413	4287.6	82.7463	4287.6	82.6307	4287.6	81.7624	4287.6	81.6879	4287.6	80.1554	4287.6	80.1715	4287.6	78.2242	4287.6	78.0481	4287.6	76.23	4287.6	75.7674	4287.6	73.589	4287.6	73.8126	4287.6	71.5945	4287.6	71.3772	4287.6	70.5032	4287.6	69.4714	4287.6	68.1906	4287.6	69.4594	4287.6	69.2504	4287.6	69.546	4287.6	68.4683	4287.6	68.685	4287.6	69.1985	4287.6	69.877	4287.6	68.4423	4287.6	67.0457	4287.6	61.1975	4287.6	63.6796	4287.6	55.1228
4438.48	83.7033	4438.48	83.5169	4438.48	83.5003	4438.48	83.2381	4438.48	83.0687	4438.48	83.3397	4438.48	82.7343	4438.48	83.0017	4438.48	82.4874	4438.48	81.8849	4438.48	81.2336	4438.48	80.314	4438.48	79.8986	4438.48	77.9191	4438.48	77.8715	4438.48	75.6461	4438.48	75.5661	4438.48	73.0001	4438.48	73.295	4438.48	70.7316	4438.48	70.7498	4438.48	69.4925	4438.48	69.255	4438.48	68.9456	4438.48	66.8486	4438.48	68.5182	4438.48	70.1884	4438.48	68.9761	4438.48	69.663	4438.48	69.0071	4438.48	69.4462	4438.48	66.7807	4438.48	67.8448	4438.48	62.101	4438.48	61.7905	4438.48	49.8045
4595.21	83.8263	4595.21	83.6021	4595.21	83.7101	4595.21	83.2206	4595.21	83.2014	4595.21	82.6606	4595.21	82.634	4595.21	82.3331	4595.21	82.1939	4595.21	81.3723	4595.21	81.3381	4595.21	79.8968	4595.21	79.8686	4595.21	77.8909	4595.21	77.6169	4595.21	75.7799	4595.21	75.6826	4595.21	73.5433	4595.21	73.1778	4595.21	71.926	4595.21	71.0641	4595.21	69.3257	4595.21	68.6005	4595.21	68.9447	4595.21	69.044	4595.21	68.9937	4595.21	68.4459	4595.21	69.0551	4595.21	69.5781	4595.21	69.7153	4595.21	69.4542	4595.21	67.622	4595.21	66.6586	4595.21	61.5894	4595.21	61.7632	4595.21	56.6158
4756.35	83.6252	4756.35	83.4152	4756.35	83.4628	4756.35	83.429	4756.35	83.0582	4756.35	83.1304	4756.35	82.7459	4756.35	82.9349	4756.35	82.3466	4756.35	82.1327	4756.35	81.6783	4756.35	80.7795	4756.35	80.2709	4756.35	78.8691	4756.35	78.0681	4756.35	76.2765	4756.35	75.8624	4756.35	73.1405	4756.35	73.3842	4756.35	70.9663	4756.35	71.5276	4756.35	67.7672	4756.35	68.0257	4756.35	67.3544	4756.35	67.9726	4756.35	68.5128	4756.35	68.2794	4756.35	67.2495	4756.35	68.6911	4756.35	68.9182	4756.35	69.8197	4756.35	66.5673	4756.35	65.9892	4756.35	59.9524	4756.35	63.9706	4756.35	59.123
4924.8	83.5249	4924.8	83.2771	4924.8	83.1842	4924.8	82.9336	4924.8	82.7232	4924.8	83.1007	4924.8	82.6097	4924.8	82.9551	4924.8	82.3131	4924.8	82.1131	4924.8	81.6725	4924.8	80.4467	4924.8	80.422	4924.8	78.284	4924.8	78.3159	4924.8	75.9204	4924.8	75.7037	4924.8	72.8916	4924.8	72.686	4924.8	71.9431	4924.8	71.0689	4924.8	69.4592	4924.8	68.3891	4924.8	68.8722	4924.8	68.5821	4924.8	67.7464	4924.8	68.3101	4924.8	69.1589	4924.8	68.9585	4924.8	69.6327	4924.8	70.0109	4924.8	64.0676	4924.8	65.3411	4924.8	61.2274	4924.8	60.3497	4924.8	57.7348
5097.66	83.7366	5097.66	83.5319	5097.66	83.4326	5097.66	83.0571	5097.66	82.6903	5097.66	82.9222	5097.66	82.7887	5097.66	82.8142	5097.66	82.5289	5097.66	82.11	5097.66	81.6555	5097.66	80.4727	5097.66	80.009	5097.66	78.4079	5097.66	77.7792	5097.66	76.0323	5097.66	75.293	5097.66	73.3165	5097.66	72.3505	5097.66	69.912	5097.66	69.7806	5097.66	67.9723	5097.66	66.9585	5097.66	67.1216	5097.66	67.3599	5097.66	67.0692	5097.66	67.6598	5097.66	67.1574	5097.66	67.0733	5097.66	69.8436	5097.66	68.1676	5097.66	65.874	5097.66	64.6715	5097.66	62.6928	5097.66	58.4836	5097.66	57.1915
5277.83	83.9155	5277.83	83.6186	5277.83	83.4586	5277.83	83.0069	5277.83	82.4847	5277.83	82.8591	5277.83	82.3161	5277.83	82.8635	5277.83	82.0508	5277.83	81.6932	5277.83	81.0448	5277.83	80.081	5277.83	79.3761	5277.83	77.731	5277.83	76.9953	5277.83	74.6628	5277.83	74.3467	5277.83	71.8461	5277.83	71.7896	5277.83	69.1984	5277.83	69.0718	5277.83	66.8952	5277.83	67.1946	5277.83	67.8951	5277.83	67.2853	5277.83	67.1514	5277.83	66.3573	5277.83	67.6469	5277.83	66.1317	5277.83	68.0697	5277.83	67.2778	5277.83	64.9654	5277.83	62.6179	5277.83	47.0489	5277.83	62.6563	5277.83	61.4004
5463.87	83.9597	5463.87	83.5743	5463.87	83.5065	5463.87	83.0047	5463.87	82.5409	5463.87	82.6887	5463.87	82.4263	5463.87	82.5262	5463.87	82.2044	5463.87	81.5053	5463.87	81.047	5463.87	79.2366	5463.87	78.9935	5463.87	76.8284	5463.87	76.5492	5463.87	73.8461	5463.87	73.8331	5463.87	71.8118	5463.87	71.1438	5463.87	68.8475	5463.87	68.6368	5463.87	67.3031	5463.87	66.2096	5463.87	66.5425	5463.87	65.7886	5463.87	66.7323	5463.87	66.7205	5463.87	66.1764	5463.87	66.1114	5463.87	67.362	5463.87	66.3298	5463.87	61.8398	5463.87	62.1012	5463.87	58.8696	5463.87	56.9937	5463.87	58.1825
5657.23	84.1784	5657.23	83.6041	5657.23	83.6343	5657.23	82.4748	5657.23	82.3565	5657.23	81.6142	5657.23	81.7313	5657.23	81.2238	5657.23	81.4471	5657.23	80.1955	5657.23	80.1946	5657.23	78.1555	5657.23	78.2587	5657.23	75.625	5657.23	75.8597	5657.23	73.2621	5657.23	73.2931	5657.23	70.617	5657.23	70.5146	5657.23	67.9519	5657.23	68.4634	5657.23	66.3197	5657.23	67.6608	5657.23	62.8084	5657.23	65.698	5657.23	65.1908	5657.23	66.7549	5657.23	65.2654	5657.23	65.4651	5657.23	66.3243	5657.23	65.526	5657.23	61.6654	5657.23	60.9015	5657.23	52.9852	5657.23	58.8791	5657.23	60.545
5856.45	84.4378	5856.45	83.7089	5856.45	83.7997	5856.45	82.5019	5856.45	82.4346	5856.45	81.633	5856.45	81.5733	5856.45	81.1215	5856.45	81.1637	5856.45	80.2273	5856.45	80.2254	5856.45	78.3896	5856.45	78.4158	5856.45	76.5766	5856.45	76.0877	5856.45	73.3347	5856.45	73.972	5856.45	70.3652	5856.45	70.7965	5856.45	66.9148	5856.45	68.6162	5856.45	65.399	5856.45	66.5402	5856.45	64.4258	5856.45	64.3713	5856.45	65.6859	5856.45	67.1604	5856.45	65.4935	5856.45	66.3823	5856.45	66.1786	5856.45	66.5279	5856.45	59.8554	5856.45	64.3544	5856.45	55.0034	5856.45	61.031	5856.45	61.8383
6062.99	85.0748	6062.99	84.4154	6062.99	84.4	6062.99	82.8752	6062.99	82.8239	6062.99	81.6177	6062.99	81.6002	6062.99	81.0139	6062.99	81.2256	6062.99	79.8797	6062.99	80.2849	6062.99	78.0833	6062.99	78.4524	6062.99	75.3992	6062.99	76.3669	6062.99	73.0406	6062.99	73.8963	6062.99	69.6566	6062.99	70.9282	6062.99	66.8637	6062.99	68.6792	6062.99	66.3571	6062.99	66.7252	6062.99	62.6357	6062.99	64.7824	6062.99	65.1916	6062.99	66.6543	6062.99	65.4937	6062.99	66.247	6062.99	64.3704	6062.99	64.3996	6062.99	60.4579	6062.99	63.0525	6062.99	56.5647	6062.99	55.6777	6062.99	62.3785
6276.86	85.4979	6276.86	84.6719	6276.86	84.728	6276.86	83.1155	6276.86	83.0005	6276.86	81.9269	6276.86	81.7667	6276.86	81.1065	6276.86	81.2063	6276.86	80.4491	6276.86	80.7814	6276.86	78.9764	6276.86	79.4979	6276.86	77.0886	6276.86	77.7057	6276.86	74.0645	6276.86	74.9912	6276.86	71.0672	6276.86	72.2012	6276.86	68.3435	6276.86	69.9031	6276.86	66.8707	6276.86	67.6209	6276.86	65.7626	6276.86	67.3615	6276.86	66.0604	6276.86	66.6982	6276.86	65.6618	6276.86	66.482	6276.86	65.5447	6276.86	65.3017	6276.86	61.7883	6276.86	62.773	6276.86	56.6752	6276.86	55.9614	6276.86	63.0106
6498.05	85.9822	6498.05	85.4115	6498.05	85.4725	6498.05	84.0715	6498.05	83.9415	6498.05	82.7694	6498.05	82.8506	6498.05	82.3473	6498.05	82.6371	6498.05	81.6344	6498.05	82.061	6498.05	80.4183	6498.05	80.962	6498.05	77.8171	6498.05	78.5926	6498.05	75.3594	6498.05	75.8672	6498.05	72.1043	6498.05	72.5407	6498.05	70.3111	6498.05	70.6602	6498.05	66.25	6498.05	68.2801	6498.05	65.0545	6498.05	66.8132	6498.05	66.47	6498.05	66.9199	6498.05	65.7203	6498.05	67.3081	6498.05	66.6571	6498.05	65.9348	6498.05	62.9433	6498.05	62.8951	6498.05	57.1158	6498.05	56.6924	6498.05	63.908
6726.56	85.0662	6726.56	84.678	6726.56	84.5866	6726.56	83.7188	6726.56	83.59	6726.56	82.8902	6726.56	82.676	6726.56	82.2431	6726.56	82.5492	6726.56	81.6827	6726.56	82.0704	6726.56	80.3156	6726.56	80.6853	6726.56	78.1793	6726.56	78.6652	6726.56	75.345	6726.56	75.8524	6726.56	72.3186	6726.56	72.2317	6726.56	68.7565	6726.56	70.1177	6726.56	67.0174	6726.56	67.1135	6726.56	65.659	6726.56	66.2526	6726.56	66.3452	6726.56	67.5987	6726.56	65.3075	6726.56	65.2244	6726.56	65.6123	6726.56	65.1162	6726.56	62.0085	6726.56	61.5632	6726.56	56.3157	6726.56	52.8028	6726.56	62.1724
6963.87	84.0621	6963.87	83.598	6963.87	84.03	6963.87	82.9258	6963.87	83.3806	6963.87	81.9285	6963.87	82.3141	6963.87	81.4382	6963.87	82.2934	6963.87	80.996	6963.87	81.8162	6963.87	79.6194	6963.87	80.3545	6963.87	77.2303	6963.87	78.1306	6963.87	74.6894	6963.87	75.2161	6963.87	71.2127	6963.87	72.3533	6963.87	68.2427	6963.87	70.1174	6963.87	64.6776	6963.87	67.6248	6963.87	64.9423	6963.87	67.2259	6963.87	65.8288	6963.87	65.9861	6963.87	65.3284	6963.87	64.8108	6963.87	64.6799	6963.87	64.3966	6963.87	60.8109	6963.87	61.1401	6963.87	53.5204	6963.87	54.127	6963.87	63.9019
7209.96	83.854	7209.96	83.679	7209.96	84.2041	7209.96	83.0252	7209.96	83.6236	7209.96	82.0244	7209.96	82.4284	7209.96	81.2767	7209.96	82.1301	7209.96	80.991	7209.96	81.6867	7209.96	79.4375	7209.96	80.3096	7209.96	77.0382	7209.96	78.4463	7209.96	74.3146	7209.96	75.2683	7209.96	70.8745	7209.96	72.4545	7209.96	67.4464	7209.96	69.5103	7209.96	64.3555	7209.96	66.9659	7209.96	64.5639	7209.96	66.5482	7209.96	64.043	7209.96	65.6895	7209.96	65.0129	7209.96	65.8374	7209.96	63.6433	7209.96	64.905	7209.96	61.2398	7209.96	61.4199	7209.96	53.8552	7209.96	54.3049	7209.96	62.8889
7464.84	84.271	7464.84	84.1438	7464.84	84.5205	7464.84	83.4814	7464.84	83.8198	7464.84	82.1077	7464.84	82.4249	7464.84	81.1456	7464.84	82.0857	7464.84	80.8571	7464.84	81.7842	7464.84	79.2429	7464.84	80.1045	7464.84	76.6769	7464.84	78.1184	7464.84	73.8466	7464.84	74.8244	7464.84	70.2138	7464.84	72.0494	7464.84	66.8813	7464.84	69.0954	7464.84	63.0142	7464.84	66.6485	7464.84	63.6866	7464.84	66.125	7464.84	63.0514	7464.84	64.7384	7464.84	64.287	7464.84	64.5039	7464.84	63.2018	7464.84	64.3851	7464.84	59.5603	7464.84	61.5623	7464.84	53.2313	7464.84	53.5804	7464.84	62.6453
7727.05	84.1691	7727.05	84.0801	7727.05	84.3315	7727.05	83.3168	7727.05	83.7101	7727.05	81.6565	7727.05	82.1246	7727.05	80.828	7727.05	81.5495	7727.05	80.2377	7727.05	81.2775	7727.05	78.98	7727.05	79.7272	7727.05	76.688	7727.05	77.6293	7727.05	73.9186	7727.05	74.84	7727.05	70.6241	7727.05	71.9788	7727.05	66.9383	7727.05	68.7367	7727.05	64.4267	7727.05	66.3544	7727.05	63.597	7727.05	65.6059	7727.05	63.4114	7727.05	64.7755	7727.05	64.6553	7727.05	63.703	7727.05	62.2557	7727.05	64.1865	7727.05	59.0484	7727.05	60.1584	7727.05	56.2852	7727.05	55.5235	7727.05	61.0183
7999.51	83.5075	7999.51	83.4928	7999.51	83.8628	7999.51	82.768	7999.51	83.2969	7999.51	81.032	7999.51	81.3816	7999.51	80.2103	7999.51	80.6506	7999.51	79.8563	7999.51	80.573	7999.51	78.9848	7999.51	79.6566	7999.51	76.7052	7999.51	77.7232	7999.51	74.0708	7999.51	74.9399	7999.51	71.0675	7999.51	71.5803	7999.51	67.0686	7999.51	68.6674	7999.51	64.6231	7999.51	65.918	7999.51	64.239	7999.51	65.3139	7999.51	62.6504	7999.51	63.5652	7999.51	64.4115	7999.51	63.8634	7999.51	63.5019	7999.51	64.8032	7999.51	59.7043	7999.51	60.5679	7999.51	56.1394	7999.51	56.7046	7999.51	61.2952
8282.23	83.4001	8282.23	83.1551	8282.23	83.4559	8282.23	82.3811	8282.23	82.7306	8282.23	80.535	8282.23	80.7818	8282.23	79.7856	8282.23	80.2041	8282.23	79.742	8282.23	80.3455	8282.23	78.9574	8282.23	79.3628	8282.23	76.6006	8282.23	77.2482	8282.23	73.787	8282.23	74.5543	8282.23	70.7799	8282.23	71.2789	8282.23	66.7654	8282.23	67.8988	8282.23	63.7394	8282.23	65.8578	8282.23	63.4596	8282.23	64.0917	8282.23	62.3783	8282.23	62.5093	8282.23	64.3631	8282.23	62.8732	8282.23	63.1168	8282.23	63.5956	8282.23	57.4659	8282.23	58.5421	8282.23	57.4775	8282.23	57.5646	8282.23	59.6705
8573.73	83.3625	8573.73	83.0969	8573.73	83.3199	8573.73	82.4821	8573.73	82.6985	8573.73	80.8713	8573.73	81.0363	8573.73	79.9637	8573.73	80.2553	8573.73	79.64	8573.73	79.8987	8573.73	78.7474	8573.73	78.9072	8573.73	76.3832	8573.73	76.5048	8573.73	73.2017	8573.73	73.5295	8573.73	70.2572	8573.73	70.3431	8573.73	66.0329	8573.73	67.1617	8573.73	64.3913	8573.73	64.0637	8573.73	61.9636	8573.73	62.3448	8573.73	60.2738	8573.73	60.7455	8573.73	63.0802	8573.73	62.4133	8573.73	63.2018	8573.73	62.7314	8573.73	58.117	8573.73	58.4365	8573.73	58.387	8573.73	58.1186	8573.73	58.9713
8876.95	83.7248	8876.95	83.372	8876.95	83.5815	8876.95	82.9372	8876.95	83.1683	8876.95	81.4244	8876.95	81.4351	8876.95	79.8338	8876.95	80.122	8876.95	79.5945	8876.95	79.5972	8876.95	78.673	8876.95	78.5963	8876.95	76.2648	8876.95	76.384	8876.95	72.9851	8876.95	73.3337	8876.95	70.0072	8876.95	70.0517	8876.95	65.8987	8876.95	66.9192	8876.95	64.3521	8876.95	63.9466	8876.95	61.7781	8876.95	61.8985	8876.95	60.4781	8876.95	60.5286	8876.95	63.9172	8876.95	62.6008	8876.95	62.2784	8876.95	62.4203	8876.95	56.5178	8876.95	56.1408	8876.95	57.4944	8876.95	57.3888	8876.95	58.2639
9188.96	84.2182	9188.96	83.7115	9188.96	83.9674	9188.96	83.0623	9188.96	83.5554	9188.96	81.568	9188.96	81.7566	9188.96	79.7098	9188.96	80.0897	9188.96	79.2081	9188.96	79.44	9188.96	78.4472	9188.96	78.7679	9188.96	76.0337	9188.96	76.6465	9188.96	73.0985	9188.96	73.7867	9188.96	69.542	9188.96	70.0992	9188.96	65.5314	9188.96	66.4146	9188.96	63.7852	9188.96	63.851	9188.96	60.8944	9188.96	61.3643	9188.96	59.9643	9188.96	60.5436	9188.96	61.2877	9188.96	62.9274	9188.96	60.9331	9188.96	62.0654	9188.96	54.9879	9188.96	57.248	9188.96	57.1697	9188.96	57.8732	9188.96	56.1093
9514.16	84.5493	9514.16	83.8741	9514.16	84.1367	9514.16	83.2406	9514.16	83.7144	9514.16	81.6664	9514.16	82.0868	9514.16	79.9614	9514.16	80.2373	9514.16	78.8776	9514.16	79.6182	9514.16	78.1588	9514.16	78.947	9514.16	75.862	9514.16	76.5747	9514.16	72.8489	9514.16	73.7951	9514.16	68.9168	9514.16	69.8373	9514.16	65.6581	9514.16	66.475	9514.16	63.0562	9514.16	63.5822	9514.16	59.6936	9514.16	60.5601	9514.16	59.1276	9514.16	59.8861	9514.16	61.8485	9514.16	63.1818	9514.16	60.9192	9514.16	62.8984	9514.16	54.9301	9514.16	57.0008	9514.16	57.4569	9514.16	58.6927	9514.16	52.8863
9849.61	84.9063	9849.61	83.9412	9849.61	84.3673	9849.61	83.4987	9849.61	83.9082	9849.61	81.9203	9849.61	82.552	9849.61	79.9601	9849.61	80.6314	9849.61	78.8613	9849.61	79.8434	9849.61	77.98	9849.61	78.9189	9849.61	75.5445	9849.61	76.2456	9849.61	72.5138	9849.61	73.4162	9849.61	67.9864	9849.61	69.6119	9849.61	65.3616	9849.61	66.4892	9849.61	61.9397	9849.61	63.0891	9849.61	58.5562	9849.61	60.082	9849.61	60.5645	9849.61	60.463	9849.61	62.0175	9849.61	62.4329	9849.61	60.7784	9849.61	62.4388	9849.61	54.6369	9849.61	56.7698	9849.61	56.3917	9849.61	58.9497	9849.61	52.4677
10196.8	84.8147	10196.8	84.2141	10196.8	84.5332	10196.8	83.8895	10196.8	84.1864	10196.8	82.3208	10196.8	82.7817	10196.8	79.8343	10196.8	80.7841	10196.8	78.6895	10196.8	79.7846	10196.8	77.7644	10196.8	78.6179	10196.8	75.2837	10196.8	75.8275	10196.8	72.0771	10196.8	73.0089	10196.8	67.3356	10196.8	69.2093	10196.8	65.6921	10196.8	65.9868	10196.8	60.7855	10196.8	61.8033	10196.8	58.3426	10196.8	59.1797	10196.8	59.1451	10196.8	60.8366	10196.8	61.8804	10196.8	61.7098	10196.8	60.2501	10196.8	61.5359	10196.8	55.1379	10196.8	55.8926	10196.8	56.5827	10196.8	58.5724	10196.8	51.0926
10555.7	85.3429	10555.7	84.3538	10555.7	84.6748	10555.7	83.8417	10555.7	84.2547	10555.7	82.2553	10555.7	82.7924	10555.7	79.6989	10555.7	80.7231	10555.7	78.461	10555.7	79.5296	10555.7	77.3229	10555.7	78.2157	10555.7	74.593	10555.7	75.7159	10555.7	71.1215	10555.7	72.4016	10555.7	66.8012	10555.7	68.63	10555.7	64.9271	10555.7	64.9785	10555.7	59.8135	10555.7	61.5765	10555.7	58.1205	10555.7	59.0101	10555.7	57.6852	10555.7	59.9816	10555.7	61.2352	10555.7	61.9515	10555.7	59.5207	10555.7	60.431	10555.7	52.6108	10555.7	55.273	10555.7	54.9981	10555.7	56.8477	10555.7	50.1837
10927.7	85.2474	10927.7	84.4029	10927.7	84.8417	10927.7	83.6997	10927.7	84.2439	10927.7	82.1157	10927.7	82.842	10927.7	79.7499	10927.7	80.7286	10927.7	78.0799	10927.7	78.9129	10927.7	76.476	10927.7	77.4817	10927.7	73.9273	10927.7	75.0436	10927.7	70.3017	10927.7	71.7263	10927.7	66.2544	10927.7	68.1637	10927.7	63.9009	10927.7	64.0302	10927.7	58.6157	10927.7	60.8853	10927.7	56.1326	10927.7	57.1977	10927.7	55.9921	10927.7	58.4504	10927.7	59.6968	10927.7	61.1236	10927.7	57.3567	10927.7	59.323	10927.7	52.3106	10927.7	53.6394	10927.7	53.6213	10927.7	55.8711	10927.7	47.3751
11313	85.4025	11313	84.7179	11313	85.028	11313	83.952	11313	84.1536	11313	82.15	11313	82.7774	11313	79.3561	11313	80.5224	11313	77.1156	11313	78.2571	11313	75.471	11313	76.6177	11313	72.952	11313	73.8159	11313	69.5364	11313	70.9732	11313	65.4165	11313	67.3441	11313	62.15	11313	63.2642	11313	56.091	11313	60.0826	11313	54.5942	11313	55.9885	11313	54.9998	11313	57.2322	11313	59.1187	11313	59.2446	11313	55.0939	11313	57.749	11313	52.8913	11313	53.014	11313	52.7209	11313	54.939	11313	46.5083
11712.9	85.6368	11712.9	84.8537	11712.9	85.3458	11712.9	83.9358	11712.9	84.3651	11712.9	82.1738	11712.9	82.8047	11712.9	79.1216	11712.9	80.4941	11712.9	76.4286	11712.9	77.8429	11712.9	73.9937	11712.9	75.8702	11712.9	70.8672	11712.9	72.6907	11712.9	67.3934	11712.9	69.5774	11712.9	62.4561	11712.9	65.912	11712.9	59.7254	11712.9	61.7772	11712.9	52.6514	11712.9	58.3465	11712.9	53.8613	11712.9	53.9419	11712.9	52.9951	11712.9	55.5252	11712.9	57.1174	11712.9	57.696	11712.9	52.0418	11712.9	54.8304	11712.9	50.0845	11712.9	51.8078	11712.9	51.3193	11712.9	51.9507	11712.9	36.4304
12126	85.809	12126	85.1999	12126	85.6135	12126	84.13	12126	84.3207	12126	82.0942	12126	82.6347	12126	78.6504	12126	80.1864	12126	75.5179	12126	77.1252	12126	72.781	12126	74.8279	12126	69.225	12126	71.5759	12126	65.052	12126	67.7915	12126	60.3403	12126	64.1354	12126	56.5999	12126	58.7352	12126	52.1876	12126	56.4219	12126	50.2284	12126	51.5822	12126	50.7205	12126	52.8699	12126	54.3954	12126	56.3594	12126	50.199	12126	51.1439	12126	47.1969	12126	50.5162	12126	49.3733	12126	49.2812	12126	34.4928
12553.7	86.2259	12553.7	85.4412	12553.7	85.8811	12553.7	84.1122	12553.7	84.5872	12553.7	81.9818	12553.7	82.6221	12553.7	78.491	12553.7	79.9754	12553.7	75.1849	12553.7	76.5143	12553.7	71.6728	12553.7	73.8379	12553.7	67.4843	12553.7	70.1647	12553.7	62.9291	12553.7	66.1609	12553.7	58.9328	12553.7	62.7366	12553.7	53.9266	12553.7	56.7846	12553.7	51.4798	12553.7	55.104	12553.7	46.7561	12553.7	49.984	12553.7	47.0275	12553.7	49.2972	12553.7	51.8052	12553.7	53.7531	12553.7	49.0447	12553.7	46.9239	12553.7	43.4191	12553.7	47.5183	12553.7	47.5385	12553.7	47.6469	12553.7	35.5953
12996.1	86.3876	12996.1	85.6068	12996.1	86	12996.1	84.3778	12996.1	84.6445	12996.1	82.0057	12996.1	82.5749	12996.1	77.995	12996.1	79.5948	12996.1	74.3528	12996.1	75.7785	12996.1	70.4445	12996.1	72.6852	12996.1	65.4624	12996.1	68.2165	12996.1	61.0977	12996.1	64.2173	12996.1	57.5205	12996.1	60.6196	12996.1	52.9116	12996.1	54.8519	12996.1	52.3289	12996.1	53.5196	12996.1	46.0515	12996.1	46.3373	12996.1	37.5959	12996.1	45.8167	12996.1	49.5502	12996.1	51.0967	12996.1	46.8977	12996.1	43.806	12996.1	42.0651	12996.1	47.6155	12996.1	46.6142	12996.1	43.9965	12996.1	33.2307
13454.6	86.345	13454.6	85.556	13454.6	85.9306	13454.6	84.1552	13454.6	84.3752	13454.6	81.6889	13454.6	82.1494	13454.6	77.5693	13454.6	79.0406	13454.6	73.734	13454.6	74.9759	13454.6	69.3891	13454.6	71.1464	13454.6	64.7556	13454.6	66.2992	13454.6	61.4997	13454.6	62.3541	13454.6	57.5949	13454.6	57.9525	13454.6	53.5274	13454.6	52.8479	13454.6	52.406	13454.6	51.9782	13454.6	46.9817	13454.6	46.269	13454.6	30.041	13454.6	45.8206	13454.6	45.9663	13454.6	48.7558	13454.6	46.77	13454.6	41.9197	13454.6	39.2351	13454.6	46.9026	13454.6	46.2331	13454.6	44.7802	13454.6	37.7788
13929.2	85.9178	13929.2	85.1099	13929.2	85.5505	13929.2	83.694	13929.2	83.927	13929.2	80.9941	13929.2	81.4432	13929.2	76.8425	13929.2	78.1045	13929.2	72.7838	13929.2	73.4502	13929.2	68.5021	13929.2	69.4224	13929.2	64.5475	13929.2	64.1976	13929.2	61.0435	13929.2	59.7334	13929.2	57.8551	13929.2	56.268	13929.2	53.9566	13929.2	51.7652	13929.2	51.7165	13929.2	49.4155	13929.2	46.278	13929.2	44.3598	13929.2	41.7845	13929.2	45.4624	13929.2	47.0468	13929.2	48.3633	13929.2	45.787	13929.2	33.4836	13929.2	41.5979	13929.2	45.5748	13929.2	45.5477	13929.2	42.0339	13929.2	39.0522
14419.9	85.2764	14419.9	84.4659	14419.9	84.8022	14419.9	82.8613	14419.9	83.0952	14419.9	80.1491	14419.9	80.4453	14419.9	75.6873	14419.9	76.661	14419.9	71.2584	14419.9	71.398	14419.9	67.3524	14419.9	66.1419	14419.9	64.3359	14419.9	61.4028	14419.9	61.9167	14419.9	58.6317	14419.9	58.438	14419.9	55.2051	14419.9	54.1892	14419.9	52.3266	14419.9	52.2198	14419.9	48.2885	14419.9	46.7224	14419.9	43.7284	14419.9	42.5493	14419.9	41.3742	14419.9	47.3903	14419.9	46.6745	14419.9	46.6345	14419.9	35.4822	14419.9	42.4867	14419.9	45.2286	14419.9	46.0073	14419.9	42.7707	14419.9	41.9353
14928.2	83.2033	14928.2	82.56	14928.2	82.5951	14928.2	81.7486	14928.2	81.2562	14928.2	79.9438	14928.2	79.2524	14928.2	76.3962	14928.2	76.5281	14928.2	72.6253	14928.2	72.5278	14928.2	70.2225	14928.2	69.4527	14928.2	67.6971	14928.2	66.5701	14928.2	63.7786	14928.2	63.2854	14928.2	60.439	14928.2	59.77	14928.2	56.2684	14928.2	55.7042	14928.2	52.1796	14928.2	52.2405	14928.2	47.9307	14928.2	49.1737	14928.2	45.455	14928.2	45.3691	14928.2	47.7143	14928.2	49.3786	14928.2	47.1009	14928.2	34.9046	14928.2	43.3846	14928.2	43.806	14928.2	45.1746	14928.2	40.6591	14928.2	42.9803
15455.6	87.1166	15455.6	86.2115	15455.6	86.4385	15455.6	84.3343	15455.6	84.2573	15455.6	81.3892	15455.6	81.0876	15455.6	76.2571	15455.6	76.8207	15455.6	70.94	15455.6	71.1146	15455.6	64.2193	15455.6	64.6919	15455.6	55.8596	15455.6	56.1314	15455.6	43.9318	15455.6	49.3176	15455.6	45.6144	15455.6	45.091	15455.6	42.9026	15455.6	30.0152	15455.6	39.4846	15455.6	36.4336	15455.6	34.096	15455.6	29.8346	15455.6	28.2749	15455.6	32.6303	15455.6	27.5384	15455.6	33.4504	15455.6	38.2917	15455.6	38.1002	15455.6	28.054	15455.6	33.0539	15455.6	33.2425	15455.6	39.3843	15455.6	35.0956
16000.5	86.3376	16000.5	85.3806	16000.5	85.7375	16000.5	83.2717	16000.5	83.384	16000.5	79.7928	16000.5	79.8586	16000.5	73.1759	16000.5	74.3649	16000.5	65.8538	16000.5	66.3794	16000.5	56.9909	16000.5	53.7176	16000.5	58.3375	16000.5	55.1713	16000.5	57.4122	16000.5	56.107	16000.5	55.0509	16000.5	52.1755	16000.5	51.3882	16000.5	49.5161	16000.5	47.2032	16000.5	41.8612	16000.5	42.6589	16000.5	43.3381	16000.5	44.3336	16000.5	39.8917	16000.5	42.016	16000.5	40.641	16000.5	41.9246	16000.5	40.4162	16000.5	34.0559	16000.5	36.7574	16000.5	41.1291	16000.5	42.1174	16000.5	38.4774
16564.5	85.5204	16564.5	84.5174	16564.5	84.8729	16564.5	82.1088	16564.5	82.386	16564.5	78.4323	16564.5	78.6544	16564.5	71.1734	16564.5	72.4803	16564.5	63.0519	16564.5	62.9662	16564.5	59.457	16564.5	56.1719	16564.5	61.3758	16564.5	59.9051	16564.5	59.6303	16564.5	58.9871	16564.5	56.5164	16564.5	54.8626	16564.5	52.5385	16564.5	51.4286	16564.5	47.0518	16564.5	45.5905	16564.5	44.9379	16564.5	44.9025	16564.5	44.05	16564.5	42.5472	16564.5	43.12	16564.5	41.3487	16564.5	41.576	16564.5	41.7478	16564.5	35.3805	16564.5	37.0502	16564.5	39.2645	16564.5	39.5689	16564.5	36.4571
17148.9	84.7841	17148.9	83.7955	17148.9	84.118	17148.9	81.1871	17148.9	81.3653	17148.9	77.0834	17148.9	77.3654	17148.9	69.0918	17148.9	70.556	17148.9	61.6642	17148.9	60.5038	17148.9	61.2471	17148.9	58.874	17148.9	62.1893	17148.9	61.2852	17148.9	60.4807	17148.9	59.5356	17148.9	56.8294	17148.9	55.1212	17148.9	52.6647	17148.9	51.1985	17148.9	48.5806	17148.9	47.1924	17148.9	46.5236	17148.9	46.9349	17148.9	44.1313	17148.9	41.2637	17148.9	43.208	17148.9	41.6566	17148.9	40.7227	17148.9	43.0939	17148.9	37.4163	17148.9	36.5194	17148.9	37.8496	17148.9	37.3945	17148.9	37.7687
17752.4	83.9884	17752.4	82.849	17752.4	83.1584	17752.4	80.1523	17752.4	80.2337	17752.4	75.6904	17752.4	75.6177	17752.4	67.0113	17752.4	68.3758	17752.4	60.7204	17752.4	58.8753	17752.4	62.0512	17752.4	59.9645	17752.4	62.4019	17752.4	61.7135	17752.4	60.1912	17752.4	59.0359	17752.4	56.2547	17752.4	55.2229	17752.4	52.0608	17752.4	51.3356	17752.4	48.0327	17752.4	45.964	17752.4	45.5672	17752.4	46.1406	17752.4	43.6609	17752.4	39.2408	17752.4	42.8296	17752.4	40.243	17752.4	39.0261	17752.4	41.3321	17752.4	35.4774	17752.4	39.929	17752.4	34.921	17752.4	36.0932	17752.4	38.3746
18379.4	82.789	18379.4	81.7421	18379.4	81.9592	18379.4	78.622	18379.4	78.7341	18379.4	73.6713	18379.4	73.7739	18379.4	64.535	18379.4	65.4968	18379.4	60.7709	18379.4	58.493	18379.4	62.3828	18379.4	59.6835	18379.4	62.0109	18379.4	60.4865	18379.4	59.6093	18379.4	57.4023	18379.4	55.16	18379.4	52.5143	18379.4	50.8024	18379.4	48.8382	18379.4	47.5667	18379.4	44.5554	18379.4	44.2045	18379.4	44.5918	18379.4	42.2517	18379.4	36.5232	18379.4	39.6074	18379.4	37.8595	18379.4	37.7345	18379.4	39.3426	18379.4	34.4127	18379.4	39.862	18379.4	34.198	18379.4	32.6319	18379.4	36.0085
19026.9	81.7765	19026.9	80.5742	19026.9	80.8697	19026.9	77.1148	19026.9	77.2654	19026.9	71.6538	19026.9	71.6302	19026.9	61.6037	19026.9	62.9118	19026.9	60.5834	19026.9	59.0218	19026.9	61.7105	19026.9	59.1838	19026.9	60.7521	19026.9	58.8194	19026.9	58.4473	19026.9	55.8196	19026.9	53.1745	19026.9	50.4111	19026.9	48.4563	19026.9	46.7256	19026.9	45.588	19026.9	43.3091	19026.9	42.5137	19026.9	43.4616	19026.9	41.7087	19026.9	37.1977	19026.9	39.5248	19026.9	37.577	19026.9	35.5237	19026.9	36.3325	19026.9	33.0091	19026.9	38.2726	19026.9	33.4079	19026.9	32.3045	19026.9	35.5968
19697.8	81.0835	19697.8	79.651	19697.8	80.1356	19697.8	75.8034	19697.8	76.2944	19697.8	69.3238	19697.8	70.2441	19697.8	59.511	19697.8	61.3047	19697.8	60.4153	19697.8	59.4818	19697.8	60.641	19697.8	58.9493	19697.8	59.3253	19697.8	57.6565	19697.8	56.6945	19697.8	54.6921	19697.8	51.3778	19697.8	49.211	19697.8	45.3104	19697.8	44.7753	19697.8	41.5051	19697.8	40.8649	19697.8	39.7923	19697.8	40.5144	19697.8	38.5994	19697.8	34.269	19697.8	37.8756	19697.8	36.7316	19697.8	31.9149	19697.8	33.5026	19697.8	30.7193	19697.8	38.8822	19697.8	33.0428	19697.8	27.5193	19697.8	34.2345
19999.5	81.051	19999.5	78.9536	19999.5	79.9801	19999.5	75.3721	19999.5	76.2542	19999.5	68.974	19999.5	69.8059	19999.5	57.8659	19999.5	61.2747	19999.5	60.1889	19999.5	59.7277	19999.5	60.1455	19999.5	58.7055	19999.5	58.9136	19999.5	58.1356	19999.5	55.7161	19999.5	53.4482	19999.5	49.6598	19999.5	48.5515	19999.5	43.6418	19999.5	42.442	19999.5	39.1252	19999.5	39.0104	19999.5	36.5996	19999.5	46.2475	19999.5	37.9433	19999.5	42.3901	19999.5	37.444	19999.5	40.234	19999.5	35.0273	19999.5	34.7419	19999.5	31.5027	19999.5	32.3404	19999.5	42.8789	19999.5	40.0153	19999.5	32.1304
