"SPL Vertical"
"On-Axis"		"10°"		"-10°"		"20°"		"-20°"		"30°"		"-30°"		"40°"		"-40°"		"50°"		"-50°"		"60°"		"-60°"		"70°"		"-70°"		"80°"		"-80°"		"90°"		"-90°"		"100°"		"-100°"		"110°"		"-110°"		"120°"		"-120°"		"130°"		"-130°"		"140°"		"-140°"		"150°"		"-150°"		"160°"		"-160°"		"170°"		"-170°"		"180°"
"Frequency [Hz]"	"Sound Pessure Level [dB]  / [2.83V 1m] "	"Frequency [Hz]"	"Sound Pessure Level [dB]  / [2.83V 1m] "	"Frequency [Hz]"	"Sound Pessure Level [dB]  / [2.83V 1m] "	"Frequency [Hz]"	"Sound Pessure Level [dB]  / [2.83V 1m] "	"Frequency [Hz]"	"Sound Pessure Level [dB]  / [2.83V 1m] "	"Frequency [Hz]"	"Sound Pessure Level [dB]  / [2.83V 1m] "	"Frequency [Hz]"	"Sound Pessure Level [dB]  / [2.83V 1m] "	"Frequency [Hz]"	"Sound Pessure Level [dB]  / [2.83V 1m] "	"Frequency [Hz]"	"Sound Pessure Level [dB]  / [2.83V 1m] "	"Frequency [Hz]"	"Sound Pessure Level [dB]  / [2.83V 1m] "	"Frequency [Hz]"	"Sound Pessure Level [dB]  / [2.83V 1m] "	"Frequency [Hz]"	"Sound Pessure Level [dB]  / [2.83V 1m] "	"Frequency [Hz]"	"Sound Pessure Level [dB]  / [2.83V 1m] "	"Frequency [Hz]"	"Sound Pessure Level [dB]  / [2.83V 1m] "	"Frequency [Hz]"	"Sound Pessure Level [dB]  / [2.83V 1m] "	"Frequency [Hz]"	"Sound Pessure Level [dB]  / [2.83V 1m] "	"Frequency [Hz]"	"Sound Pessure Level [dB]  / [2.83V 1m] "	"Frequency [Hz]"	"Sound Pessure Level [dB]  / [2.83V 1m] "	"Frequency [Hz]"	"Sound Pessure Level [dB]  / [2.83V 1m] "	"Frequency [Hz]"	"Sound Pessure Level [dB]  / [2.83V 1m] "	"Frequency [Hz]"	"Sound Pessure Level [dB]  / [2.83V 1m] "	"Frequency [Hz]"	"Sound Pessure Level [dB]  / [2.83V 1m] "	"Frequency [Hz]"	"Sound Pessure Level [dB]  / [2.83V 1m] "	"Frequency [Hz]"	"Sound Pessure Level [dB]  / [2.83V 1m] "	"Frequency [Hz]"	"Sound Pessure Level [dB]  / [2.83V 1m] "	"Frequency [Hz]"	"Sound Pessure Level [dB]  / [2.83V 1m] "	"Frequency [Hz]"	"Sound Pessure Level [dB]  / [2.83V 1m] "	"Frequency [Hz]"	"Sound Pessure Level [dB]  / [2.83V 1m] "	"Frequency [Hz]"	"Sound Pessure Level [dB]  / [2.83V 1m] "	"Frequency [Hz]"	"Sound Pessure Level [dB]  / [2.83V 1m] "	"Frequency [Hz]"	"Sound Pessure Level [dB]  / [2.83V 1m] "	"Frequency [Hz]"	"Sound Pessure Level [dB]  / [2.83V 1m] "	"Frequency [Hz]"	"Sound Pessure Level [dB]  / [2.83V 1m] "	"Frequency [Hz]"	"Sound Pessure Level [dB]  / [2.83V 1m] "	"Frequency [Hz]"	"Sound Pessure Level [dB]  / [2.83V 1m] "	"Frequency [Hz]"	"Sound Pessure Level [dB]  / [2.83V 1m] "
20.5078	44.6771	20.5078	45.5859	20.5078	44.3448	20.5078	46.6092	20.5078	44.9775	20.5078	47.5214	20.5078	46.3616	20.5078	48.2587	20.5078	47.9578	20.5078	48.8204	20.5078	49.4072	20.5078	49.2241	20.5078	50.5641	20.5078	49.4901	20.5078	51.385	20.5078	49.6364	20.5078	51.8648	20.5078	49.6781	20.5078	52.0149	20.5078	49.6276	20.5078	51.8578	20.5078	49.4953	20.5078	51.4288	20.5078	49.291	20.5078	50.7817	20.5078	49.0253	20.5078	49.9939	20.5078	48.7118	20.5078	49.1695	20.5078	48.3708	20.5078	48.4305	20.5078	48.0337	20.5078	47.8891	20.5078	47.7485	20.5078	47.6083	20.5078	47.5813
21.9727	54.9979	21.9727	54.1529	21.9727	55.8506	21.9727	53.3465	21.9727	56.6794	21.9727	52.6073	21.9727	57.4536	21.9727	51.9593	21.9727	58.1436	21.9727	51.4188	21.9727	58.7218	21.9727	50.9937	21.9727	59.1637	21.9727	50.6843	21.9727	59.4494	21.9727	50.4862	21.9727	59.5645	21.9727	50.3929	21.9727	59.5024	21.9727	50.3993	21.9727	59.2648	21.9727	50.5028	21.9727	58.863	21.9727	50.7024	21.9727	58.3174	21.9727	50.9982	21.9727	57.6564	21.9727	51.3886	21.9727	56.9137	21.9727	51.8698	21.9727	56.1245	21.9727	52.4349	21.9727	55.3217	21.9727	53.0746	21.9727	54.5325	21.9727	53.7781
23.4375	58.462	23.4375	58.0167	23.4375	58.9529	23.4375	57.6271	23.4375	59.4715	23.4375	57.2962	23.4375	59.9936	23.4375	57.0217	23.4375	60.4903	23.4375	56.798	23.4375	60.9307	23.4375	56.6185	23.4375	61.2857	23.4375	56.4774	23.4375	61.5303	23.4375	56.3704	23.4375	61.6462	23.4375	56.2961	23.4375	61.6243	23.4375	56.2551	23.4375	61.4652	23.4375	56.251	23.4375	61.1796	23.4375	56.2888	23.4375	60.787	23.4375	56.3753	23.4375	60.3138	23.4375	56.5175	23.4375	59.7899	23.4375	56.7219	23.4375	59.2454	23.4375	56.9928	23.4375	58.7074	23.4375	57.3316	23.4375	58.1984	23.4375	57.7359
24.9023	60.6397	24.9023	60.2454	24.9023	61.0806	24.9023	59.9068	24.9023	61.5517	24.9023	59.6266	24.9023	62.0302	24.9023	59.4017	24.9023	62.489	24.9023	59.226	24.9023	62.8992	24.9023	59.0922	24.9023	63.2334	24.9023	58.9935	24.9023	63.4676	24.9023	58.9248	24.9023	63.5848	24.9023	58.8835	24.9023	63.5762	24.9023	58.8693	24.9023	63.4426	24.9023	58.8843	24.9023	63.1943	24.9023	58.9325	24.9023	62.8501	24.9023	59.0192	24.9023	62.4351	24.9023	59.1504	24.9023	61.9771	24.9023	59.3316	24.9023	61.5035	24.9023	59.5668	24.9023	61.0383	24.9023	59.8581	24.9023	60.6006	24.9023	60.2043
26.3672	62.4699	26.3672	62.0957	26.3672	62.879	26.3672	61.7649	26.3672	63.3089	26.3672	61.4811	26.3672	63.7406	26.3672	61.2441	26.3672	64.1512	26.3672	61.0506	26.3672	64.5156	26.3672	60.8966	26.3672	64.8091	26.3672	60.7776	26.3672	65.0102	26.3672	60.6903	26.3672	65.1027	26.3672	60.6329	26.3672	65.0783	26.3672	60.6052	26.3672	64.9378	26.3672	60.6088	26.3672	64.6908	26.3672	60.647	26.3672	64.3555	26.3672	60.7239	26.3672	63.9553	26.3672	60.8444	26.3672	63.5168	26.3672	61.0132	26.3672	63.0653	26.3672	61.2337	26.3672	62.6234	26.3672	61.5077	26.3672	62.2088	26.3672	61.8341
27.832	64.3895	27.832	64.0427	27.832	64.7641	27.832	63.7311	27.832	65.1547	27.832	63.4579	27.832	65.5454	27.832	63.2235	27.832	65.9165	27.832	63.0261	27.832	66.246	27.832	62.8629	27.832	66.5117	27.832	62.7312	27.832	66.6935	27.832	62.629	27.832	66.7763	27.832	62.5557	27.832	66.7518	27.832	62.5123	27.832	66.6199	27.832	62.5012	27.832	66.3893	27.832	62.5261	27.832	66.0756	27.832	62.5918	27.832	65.6999	27.832	62.7032	27.832	65.2859	27.832	62.8648	27.832	64.8567	27.832	63.0795	27.832	64.433	27.832	63.3477	27.832	64.0321	27.832	63.6672
29.2969	66.37	29.2969	66.0523	29.2969	66.7126	29.2969	65.7665	29.2969	67.0695	29.2969	65.5161	29.2969	67.4263	29.2969	65.3021	29.2969	67.7651	29.2969	65.1239	29.2969	68.0662	29.2969	64.9797	29.2969	68.3097	29.2969	64.8679	29.2969	68.4777	29.2969	64.787	29.2969	68.5571	29.2969	64.7366	29.2969	68.5412	29.2969	64.7171	29.2969	68.4309	29.2969	64.7299	29.2969	68.2347	29.2969	64.7772	29.2969	67.9674	29.2969	64.8616	29.2969	67.6477	29.2969	64.9857	29.2969	67.2956	29.2969	65.1515	29.2969	66.9298	29.2969	65.3596	29.2969	66.5666	29.2969	65.6093	29.2969	66.2191	29.2969	65.8975
30.7617	68.0674	30.7617	67.7797	30.7617	68.3725	30.7617	67.5154	30.7617	68.686	30.7617	67.2783	30.7617	68.9962	30.7617	67.0701	30.7617	69.2884	30.7617	66.891	30.7617	69.5459	30.7617	66.7403	30.7617	69.751	30.7617	66.6171	30.7617	69.8873	30.7617	66.5207	30.7617	69.9417	30.7617	66.4508	30.7617	69.9069	30.7617	66.4079	30.7617	69.7831	30.7617	66.3936	30.7617	69.5779	30.7617	66.4101	30.7617	69.3056	30.7617	66.4603	30.7617	68.9849	30.7617	66.5474	30.7617	68.6363	30.7617	66.6745	30.7617	68.2795	30.7617	66.844	30.7617	67.9314	30.7617	67.0568	30.7617	67.6055	30.7617	67.3118
32.2266	69.6522	32.2266	69.378	32.2266	69.9462	32.2266	69.1292	32.2266	70.2511	32.2266	68.9093	32.2266	70.555	32.2266	68.7195	32.2266	70.8431	32.2266	68.5599	32.2266	71.0984	32.2266	68.4296	32.2266	71.3039	32.2266	68.3277	32.2266	71.4439	32.2266	68.2534	32.2266	71.5067	32.2266	68.2066	32.2266	71.4866	32.2266	68.1876	32.2266	71.3848	32.2266	68.1974	32.2266	71.2093	32.2266	68.2377	32.2266	70.9738	32.2266	68.3104	32.2266	70.6951	32.2266	68.4172	32.2266	70.3905	32.2266	68.5594	32.2266	70.0763	32.2266	68.7376	32.2266	69.7659	32.2266	68.9506	32.2266	69.4698	32.2266	69.196
33.6914	71.1494	33.6914	70.8691	33.6914	71.4457	33.6914	70.6114	33.6914	71.7488	33.6914	70.3804	33.6914	72.047	33.6914	70.1786	33.6914	72.3263	33.6914	70.0067	33.6914	72.5709	33.6914	69.8648	33.6914	72.765	33.6914	69.7525	33.6914	72.8945	33.6914	69.6692	33.6914	72.9486	33.6914	69.6149	33.6914	72.9222	33.6914	69.59	33.6914	72.8166	33.6914	69.5954	33.6914	72.6391	33.6914	69.6324	33.6914	72.4023	33.6914	69.703	33.6914	72.1218	33.6914	69.8089	33.6914	71.8144	33.6914	69.9515	33.6914	71.4958	33.6914	70.1314	33.6914	71.1797	33.6914	70.3477	33.6914	70.8774	33.6914	70.5979
35.1562	72.6607	35.1562	72.415	35.1562	72.9163	35.1562	72.185	35.1562	73.174	35.1562	71.975	35.1562	73.4244	35.1562	71.7878	35.1562	73.6561	35.1562	71.6251	35.1562	73.8563	35.1562	71.4881	35.1562	74.0119	35.1562	71.3771	35.1562	74.111	35.1562	71.2924	35.1562	74.1448	35.1562	71.2345	35.1562	74.109	35.1562	71.2039	35.1562	74.0051	35.1562	71.2016	35.1562	73.8404	35.1562	71.2287	35.1562	73.6265	35.1562	71.2865	35.1562	73.3774	35.1562	71.3762	35.1562	73.1077	35.1562	71.4986	35.1562	72.8307	35.1562	71.6536	35.1562	72.5574	35.1562	71.8402	35.1562	72.2968	35.1562	72.0559
36.6211	73.9024	36.6211	73.6531	36.6211	74.1618	36.6211	73.4199	36.6211	74.4236	36.6211	73.2067	36.6211	74.678	36.6211	73.0162	36.6211	74.9134	36.6211	72.8498	36.6211	75.117	36.6211	72.7084	36.6211	75.276	36.6211	72.5926	36.6211	75.379	36.6211	72.503	36.6211	75.4175	36.6211	72.4402	36.6211	75.3871	36.6211	72.4052	36.6211	75.289	36.6211	72.3992	36.6211	75.1292	36.6211	72.4238	36.6211	74.9178	36.6211	72.4808	36.6211	74.6675	36.6211	72.5717	36.6211	74.3919	36.6211	72.6979	36.6211	74.1044	36.6211	72.8599	36.6211	73.8173	36.6211	73.0566	36.6211	73.5413	36.6211	73.2854
38.0859	75.0401	38.0859	74.8009	38.0859	75.2895	38.0859	74.5778	38.0859	75.5411	38.0859	74.3748	38.0859	75.7851	38.0859	74.1943	38.0859	76.01	38.0859	74.0378	38.0859	76.2033	38.0859	73.906	38.0859	76.3527	38.0859	73.7991	38.0859	76.4473	38.0859	73.7173	38.0859	76.4794	38.0859	73.6609	38.0859	76.4455	38.0859	73.6304	38.0859	76.347	38.0859	73.6266	38.0859	76.1904	38.0859	73.6507	38.0859	75.9857	38.0859	73.7039	38.0859	75.7455	38.0859	73.7879	38.0859	75.4829	38.0859	73.904	38.0859	75.2108	38.0859	74.0527	38.0859	74.9407	38.0859	74.2337	38.0859	74.6828	38.0859	74.4451
39.5508	76.2359	39.5508	76.0033	39.5508	76.4756	39.5508	75.7837	39.5508	76.7149	39.5508	75.5812	39.5508	76.9445	39.5508	75.3988	39.5508	77.1539	39.5508	75.2385	39.5508	77.3315	39.5508	75.1016	39.5508	77.4661	39.5508	74.9887	39.5508	77.5477	39.5508	74.9006	39.5508	77.5693	39.5508	74.8379	39.5508	77.5278	39.5508	74.8012	39.5508	77.4248	39.5508	74.7914	39.5508	77.2666	39.5508	74.8096	39.5508	77.0632	39.5508	74.8571	39.5508	76.8265	39.5508	74.9352	39.5508	76.5695	39.5508	75.0448	39.5508	76.3043	39.5508	75.1866	39.5508	76.0421	39.5508	75.3601	39.5508	75.7926	39.5508	75.5633
41.0156	77.4627	41.0156	77.2404	41.0156	77.6941	41.0156	77.0332	41.0156	77.9271	41.0156	76.8453	41.0156	78.1529	41.0156	76.6799	41.0156	78.3615	41.0156	76.5388	41.0156	78.5422	41.0156	76.4233	41.0156	78.685	41.0156	76.334	41.0156	78.7812	41.0156	76.2714	41.0156	78.8246	41.0156	76.2356	41.0156	78.8128	41.0156	76.2269	41.0156	78.7472	41.0156	76.2457	41.0156	78.6328	41.0156	76.2924	41.0156	78.477	41.0156	76.3675	41.0156	78.2884	41.0156	76.4713	41.0156	78.0758	41.0156	76.6037	41.0156	77.848	41.0156	76.7638	41.0156	77.6134	41.0156	76.9494	41.0156	77.3804	41.0156	77.1568
42.4805	78.3219	42.4805	78.1074	42.4805	78.5411	42.4805	77.9034	42.4805	78.7576	42.4805	77.7144	42.4805	78.9629	42.4805	77.5436	42.4805	79.1474	42.4805	77.3936	42.4805	79.301	42.4805	77.2658	42.4805	79.4142	42.4805	77.1613	42.4805	79.4786	42.4805	77.0809	42.4805	79.4888	42.4805	77.0252	42.4805	79.4432	42.4805	76.9947	42.4805	79.3445	42.4805	76.9899	42.4805	79.1993	42.4805	77.0115	42.4805	79.0171	42.4805	77.0599	42.4805	78.8087	42.4805	77.1358	42.4805	78.5848	42.4805	77.2393	42.4805	78.3551	42.4805	77.3703	42.4805	78.1279	42.4805	77.5275	42.4805	77.9104	42.4805	77.7087
43.9453	79.1537	43.9453	78.9394	43.9453	79.3706	43.9453	78.7335	43.9453	79.5829	43.9453	78.5409	43.9453	79.7823	43.9453	78.3651	43.9453	79.9595	43.9453	78.2088	43.9453	80.105	43.9453	78.074	43.9453	80.2097	43.9453	77.9622	43.9453	80.266	43.9453	77.8745	43.9453	80.2689	43.9453	77.8117	43.9453	80.2171	43.9453	77.7746	43.9453	80.1136	43.9453	77.7641	43.9453	79.9649	43.9453	77.7807	43.9453	79.7803	43.9453	77.8253	43.9453	79.5705	43.9453	77.8984	43.9453	79.3457	43.9453	78.0001	43.9453	79.1155	43.9453	78.13	43.9453	78.8879	43.9453	78.2868	43.9453	78.6701	43.9453	78.4681
45.4102	79.9739	45.4102	79.7665	45.4102	80.1828	45.4102	79.5666	45.4102	80.3862	45.4102	79.379	45.4102	80.5759	45.4102	79.2073	45.4102	80.7431	45.4102	79.0546	45.4102	80.8787	45.4102	78.9229	45.4102	80.9743	45.4102	78.8139	45.4102	81.0227	45.4102	78.7289	45.4102	81.0198	45.4102	78.6689	45.4102	80.9648	45.4102	78.6347	45.4102	80.861	45.4102	78.6268	45.4102	80.7154	45.4102	78.6455	45.4102	80.5372	45.4102	78.6911	45.4102	80.3369	45.4102	78.7634	45.4102	80.1244	45.4102	78.8622	45.4102	79.9082	45.4102	78.9864	45.4102	79.6956	45.4102	79.1345	45.4102	79.4927	45.4102	79.3044
46.875	80.7667	46.875	80.5624	46.875	80.9712	46.875	80.3642	46.875	81.1688	46.875	80.1768	46.875	81.3516	46.875	80.0041	46.875	81.5112	46.875	79.8491	46.875	81.6389	46.875	79.7142	46.875	81.7263	46.875	79.6011	46.875	81.7669	46.875	79.5111	46.875	81.7566	46.875	79.4454	46.875	81.6948	46.875	79.4045	46.875	81.5847	46.875	79.3892	46.875	81.4331	46.875	79.3999	46.875	81.2494	46.875	79.4367	46.875	81.0439	46.875	79.5	46.875	80.8271	46.875	79.5896	46.875	80.6082	46.875	79.705	46.875	80.3948	46.875	79.8454	46.875	80.1935	46.875	80.0091
48.3398	81.5063	48.3398	81.3053	48.3398	81.7068	48.3398	81.1096	48.3398	81.8998	48.3398	80.9242	48.3398	82.0777	48.3398	80.7531	48.3398	82.2322	48.3398	80.5993	48.3398	82.355	48.3398	80.4654	48.3398	82.4385	48.3398	80.3532	48.3398	82.4764	48.3398	80.2641	48.3398	82.4651	48.3398	80.1992	48.3398	82.4044	48.3398	80.1591	48.3398	82.2973	48.3398	80.1445	48.3398	82.1504	48.3398	80.1556	48.3398	81.9726	48.3398	80.1927	48.3398	81.7735	48.3398	80.2559	48.3398	81.5627	48.3398	80.345	48.3398	81.3491	48.3398	80.4596	48.3398	81.1403	48.3398	80.5987	48.3398	80.9424	48.3398	80.7606
51.2695	82.7396	51.2695	82.5432	51.2695	82.9335	51.2695	82.3504	51.2695	83.1183	51.2695	82.1661	51.2695	83.2866	51.2695	81.9945	51.2695	83.4307	51.2695	81.8392	51.2695	83.5431	51.2695	81.703	51.2695	83.6168	51.2695	81.5879	51.2695	83.6466	51.2695	81.4957	51.2695	83.6295	51.2695	81.4276	51.2695	83.5654	51.2695	81.3844	51.2695	83.4579	51.2695	81.3667	51.2695	83.3131	51.2695	81.3748	51.2695	83.1394	51.2695	81.409	51.2695	82.9456	51.2695	81.4692	51.2695	82.7408	51.2695	81.5552	51.2695	82.5332	51.2695	81.6665	51.2695	82.3299	51.2695	81.8019	51.2695	82.137	51.2695	81.9597
52.7344	83.2897	52.7344	83.0977	52.7344	83.479	52.7344	82.9087	52.7344	83.6587	52.7344	82.7279	52.7344	83.8218	52.7344	82.5596	52.7344	83.9609	52.7344	82.4074	52.7344	84.0686	52.7344	82.274	52.7344	84.1387	52.7344	82.1619	52.7344	84.1661	52.7344	82.0726	52.7344	84.1482	52.7344	82.0074	52.7344	84.0856	52.7344	81.967	52.7344	83.9817	52.7344	81.952	52.7344	83.8426	52.7344	81.9626	52.7344	83.6763	52.7344	81.9986	52.7344	83.4912	52.7344	82.0601	52.7344	83.2955	52.7344	82.1463	52.7344	83.0968	52.7344	82.2567	52.7344	82.9017	52.7344	82.3899	52.7344	82.7158	52.7344	82.5439
54.1992	83.7644	54.1992	83.5765	54.1992	83.9488	54.1992	83.391	54.1992	84.1231	54.1992	83.2131	54.1992	84.2802	54.1992	83.0472	54.1992	84.4131	54.1992	82.8971	54.1992	84.5146	54.1992	82.7657	54.1992	84.5789	54.1992	82.6555	54.1992	84.6015	54.1992	82.5681	54.1992	84.5803	54.1992	82.5048	54.1992	84.5162	54.1992	82.4664	54.1992	84.413	54.1992	82.4532	54.1992	84.277	54.1992	82.4651	54.1992	84.116	54.1992	82.5021	54.1992	83.9381	54.1992	82.5635	54.1992	83.751	54.1992	82.6486	54.1992	83.5616	54.1992	82.7565	54.1992	83.3757	54.1992	82.8855	54.1992	83.1983	54.1992	83.0337
55.6641	84.2733	55.6641	84.09	55.6641	84.4521	55.6641	83.9079	55.6641	84.6198	55.6641	83.7324	55.6641	84.7697	55.6641	83.5679	55.6641	84.8949	55.6641	83.4183	55.6641	84.9889	55.6641	83.2867	55.6641	85.0462	55.6641	83.1757	55.6641	85.0627	55.6641	83.0871	55.6641	85.0369	55.6641	83.0222	55.6641	84.9699	55.6641	82.9819	55.6641	84.8658	55.6641	82.9665	55.6641	84.7308	55.6641	82.9761	55.6641	84.5726	55.6641	83.0103	55.6641	84.3989	55.6641	83.0687	55.6641	84.2171	55.6641	83.1504	55.6641	84.0334	55.6641	83.2544	55.6641	83.8533	55.6641	83.379	55.6641	83.6816	55.6641	83.5223
58.5938	85.0511	58.5938	84.8673	58.5938	85.2284	58.5938	84.6827	58.5938	85.3927	58.5938	84.5028	58.5938	85.5373	58.5938	84.3323	58.5938	85.6556	58.5938	84.1756	58.5938	85.741	58.5938	84.0362	58.5938	85.788	58.5938	83.9172	58.5938	85.7928	58.5938	83.8209	58.5938	85.7543	58.5938	83.749	58.5938	85.674	58.5938	83.7025	58.5938	85.5566	58.5938	83.6817	58.5938	85.4093	58.5938	83.6866	58.5938	85.2407	58.5938	83.7163	58.5938	85.0594	58.5938	83.77	58.5938	84.8736	58.5938	83.8463	58.5938	84.6898	58.5938	83.9439	58.5938	84.5133	58.5938	84.0611	58.5938	84.3478	58.5938	84.1963
60.0586	85.4054	60.0586	85.2207	60.0586	85.583	60.0586	85.0346	60.0586	85.747	60.0586	84.8527	60.0586	85.8908	60.0586	84.6802	60.0586	86.0079	60.0586	84.5213	60.0586	86.092	60.0586	84.38	60.0586	86.1376	60.0586	84.2594	60.0586	86.1411	60.0586	84.1618	60.0586	86.1011	60.0586	84.089	60.0586	86.0194	60.0586	84.0417	60.0586	85.9003	60.0586	84.0202	60.0586	85.7508	60.0586	84.0242	60.0586	85.5795	60.0586	84.0528	60.0586	85.3952	60.0586	84.105	60.0586	85.2062	60.0586	84.1795	60.0586	85.0197	60.0586	84.275	60.0586	84.8413	60.0586	84.3904	60.0586	84.6752	60.0586	84.5243
62.9883	86.1309	62.9883	85.9474	62.9883	86.3055	62.9883	85.7611	62.9883	86.4649	62.9883	85.5774	62.9883	86.6026	62.9883	85.4012	62.9883	86.7122	62.9883	85.2372	62.9883	86.7874	62.9883	85.0891	62.9883	86.8233	62.9883	84.9603	62.9883	86.8167	62.9883	84.8532	62.9883	86.7668	62.9883	84.7699	62.9883	86.6755	62.9883	84.7114	62.9883	86.5477	62.9883	84.6786	62.9883	86.3902	62.9883	84.6713	62.9883	86.2115	62.9883	84.6893	62.9883	86.0203	62.9883	84.7319	62.9883	85.825	62.9883	84.7983	62.9883	85.6331	62.9883	84.8876	62.9883	85.4506	62.9883	84.9988	62.9883	85.2821	62.9883	85.1307
64.4531	86.427	64.4531	86.2449	64.4531	86.5996	64.4531	86.0593	64.4531	86.7563	64.4531	85.8757	64.4531	86.8907	64.4531	85.6992	64.4531	86.9965	64.4531	85.5342	64.4531	87.0676	64.4531	85.3848	64.4531	87.0995	64.4531	85.2542	64.4531	87.0892	64.4531	85.145	64.4531	87.0363	64.4531	85.0593	64.4531	86.9428	64.4531	84.9981	64.4531	86.8135	64.4531	84.9622	64.4531	86.6551	64.4531	84.9516	64.4531	86.4757	64.4531	84.9662	64.4531	86.284	64.4531	85.0054	64.4531	86.0882	64.4531	85.0686	64.4531	85.8957	64.4531	85.1549	64.4531	85.7129	64.4531	85.2637	64.4531	85.5445	64.4531	85.3941
67.3828	86.8375	67.3828	86.6577	67.3828	87.0072	67.3828	86.4738	67.3828	87.1606	67.3828	86.2915	67.3828	87.2916	67.3828	86.1164	67.3828	87.3944	67.3828	85.9532	67.3828	87.464	67.3828	85.8064	67.3828	87.4967	67.3828	85.6795	67.3828	87.4902	67.3828	85.5754	67.3828	87.4446	67.3828	85.496	67.3828	87.362	67.3828	85.4426	67.3828	87.2465	67.3828	85.4154	67.3828	87.1039	67.3828	85.4144	67.3828	86.9409	67.3828	85.4389	67.3828	86.7644	67.3828	85.4878	67.3828	86.5814	67.3828	85.56	67.3828	86.3985	67.3828	85.6543	67.3828	86.2215	67.3828	85.7694	67.3828	86.0554	67.3828	85.9037
68.8477	86.9941	68.8477	86.8197	68.8477	87.1589	68.8477	86.6416	68.8477	87.3081	68.8477	86.4655	68.8477	87.4359	68.8477	86.2968	68.8477	87.5367	68.8477	86.1403	68.8477	87.606	68.8477	86.0004	68.8477	87.6403	68.8477	85.8806	68.8477	87.6378	68.8477	85.7838	68.8477	87.5987	68.8477	85.7118	68.8477	87.5255	68.8477	85.6658	68.8477	87.4219	68.8477	85.6461	68.8477	87.2931	68.8477	85.6524	68.8477	87.145	68.8477	85.6838	68.8477	86.9835	68.8477	85.7391	68.8477	86.8144	68.8477	85.8166	68.8477	86.6432	68.8477	85.9149	68.8477	86.4752	68.8477	86.0321	68.8477	86.315	68.8477	86.1662
71.7773	87.3883	71.7773	87.2219	71.7773	87.5443	71.7773	87.0511	71.7773	87.6842	71.7773	86.8814	71.7773	87.802	71.7773	86.7184	71.7773	87.8925	71.7773	86.5668	71.7773	87.9513	71.7773	86.4311	71.7773	87.9755	71.7773	86.3149	71.7773	87.9641	71.7773	86.2211	71.7773	87.918	71.7773	86.1516	71.7773	87.8407	71.7773	86.1076	71.7773	87.7367	71.7773	86.0893	71.7773	87.6117	71.7773	86.0961	71.7773	87.4715	71.7773	86.127	71.7773	87.3215	71.7773	86.1802	71.7773	87.1666	71.7773	86.2539	71.7773	87.0111	71.7773	86.3462	71.7773	86.859	71.7773	86.455	71.7773	86.7137	71.7773	86.5782
74.707	87.8141	74.707	87.6516	74.707	87.9652	74.707	87.4836	74.707	88.0988	74.707	87.3162	74.707	88.2092	74.707	87.1548	74.707	88.2911	74.707	87.0045	74.707	88.3406	74.707	86.8697	74.707	88.3549	74.707	86.7541	74.707	88.3337	74.707	86.6603	74.707	88.2784	74.707	86.59	74.707	88.1928	74.707	86.5441	74.707	88.082	74.707	86.5226	74.707	87.9521	74.707	86.5247	74.707	87.8093	74.707	86.5492	74.707	87.6591	74.707	86.5945	74.707	87.5066	74.707	86.6587	74.707	87.3561	74.707	86.7404	74.707	87.2112	74.707	86.838	74.707	87.0751	74.707	86.9501
77.6367	88.1244	77.6367	87.9625	77.6367	88.2734	77.6367	87.794	77.6367	88.4035	77.6367	87.6249	77.6367	88.509	77.6367	87.4614	77.6367	88.585	77.6367	87.3087	77.6367	88.628	77.6367	87.1718	77.6367	88.6358	77.6367	87.0544	77.6367	88.6084	77.6367	86.9596	77.6367	88.5479	77.6367	86.8891	77.6367	88.4586	77.6367	86.8437	77.6367	88.3461	77.6367	86.8231	77.6367	88.2163	77.6367	86.8263	77.6367	88.0755	77.6367	86.8517	77.6367	87.929	77.6367	86.8975	77.6367	87.7813	77.6367	86.9615	77.6367	87.6363	77.6367	87.042	77.6367	87.4971	77.6367	87.1373	77.6367	87.3663	77.6367	87.2458
79.1016	88.2313	79.1016	88.0697	79.1016	88.379	79.1016	87.9006	79.1016	88.5069	79.1016	87.7302	79.1016	88.6094	79.1016	87.5646	79.1016	88.6819	79.1016	87.4093	79.1016	88.7208	79.1016	87.2693	79.1016	88.7246	79.1016	87.1488	79.1016	88.6933	79.1016	87.0508	79.1016	88.6294	79.1016	86.9773	79.1016	88.5372	79.1016	86.9291	79.1016	88.4225	79.1016	86.9062	79.1016	88.2914	79.1016	86.9075	79.1016	88.1499	79.1016	86.9314	79.1016	88.0032	79.1016	86.976	79.1016	87.8557	79.1016	87.0392	79.1016	87.7111	79.1016	87.1191	79.1016	87.5724	79.1016	87.2138	79.1016	87.442	79.1016	87.3219
82.0312	88.3788	82.0312	88.2154	82.0312	88.5273	82.0312	88.0436	82.0312	88.6547	82.0312	87.8699	82.0312	88.7556	82.0312	87.7008	82.0312	88.8254	82.0312	87.5421	82.0312	88.861	82.0312	87.3991	82.0312	88.8612	82.0312	87.2764	82.0312	88.8268	82.0312	87.1771	82.0312	88.7607	82.0312	87.1034	82.0312	88.6679	82.0312	87.0563	82.0312	88.5542	82.0312	87.0356	82.0312	88.4257	82.0312	87.0402	82.0312	88.2881	82.0312	87.0683	82.0312	88.146	82.0312	87.1176	82.0312	88.0033	82.0312	87.1855	82.0312	87.8628	82.0312	87.2696	82.0312	87.7271	82.0312	87.3678	82.0312	87.5982	82.0312	87.4779
84.9609	88.4858	84.9609	88.333	84.9609	88.6236	84.9609	88.1712	84.9609	88.7406	84.9609	88.0069	84.9609	88.8319	84.9609	87.8465	84.9609	88.8936	84.9609	87.6957	84.9609	88.9233	84.9609	87.5599	84.9609	88.9201	84.9609	87.4435	84.9609	88.8852	84.9609	87.3497	84.9609	88.8215	84.9609	87.2804	84.9609	88.7334	84.9609	87.2365	84.9609	88.6262	84.9609	87.2174	84.9609	88.5051	84.9609	87.222	84.9609	88.3753	84.9609	87.2481	84.9609	88.241	84.9609	87.2934	84.9609	88.1063	84.9609	87.3553	84.9609	87.9745	84.9609	87.4315	84.9609	87.8482	84.9609	87.5201	84.9609	87.7295	84.9609	87.6198
87.8906	88.5549	87.8906	88.4028	87.8906	88.6919	87.8906	88.2415	87.8906	88.8085	87.8906	88.0773	87.8906	88.9006	87.8906	87.9169	87.8906	88.9651	87.8906	87.7666	87.8906	89.0005	87.8906	87.632	87.8906	89.0066	87.8906	87.5182	87.8906	88.9848	87.8906	87.4289	87.8906	88.938	87.8906	87.3664	87.8906	88.8698	87.8906	87.3318	87.8906	88.7844	87.8906	87.3247	87.8906	88.6857	87.8906	87.3437	87.8906	88.577	87.8906	87.3863	87.8906	88.4606	87.8906	87.4495	87.8906	88.339	87.8906	87.53	87.8906	88.2143	87.8906	87.6246	87.8906	88.0887	87.8906	87.7302	87.8906	87.9646	87.8906	87.8444
90.8203	88.7184	90.8203	88.5686	90.8203	88.8486	90.8203	88.4051	90.8203	88.9537	90.8203	88.2349	90.8203	89.03	90.8203	88.0651	90.8203	89.075	90.8203	87.9027	90.8203	89.0877	90.8203	87.7543	90.8203	89.069	90.8203	87.6256	90.8203	89.0219	90.8203	87.5213	90.8203	88.9508	90.8203	87.4445	90.8203	88.8615	90.8203	87.3969	90.8203	88.7597	90.8203	87.3788	90.8203	88.6509	90.8203	87.389	90.8203	88.5386	90.8203	87.4251	90.8203	88.4252	90.8203	87.4837	90.8203	88.3116	90.8203	87.5608	90.8203	88.1981	90.8203	87.652	90.8203	88.0848	90.8203	87.7533	90.8203	87.9721	90.8203	87.861
95.2148	88.8263	95.2148	88.6711	95.2148	88.9611	95.2148	88.5027	95.2148	89.0696	95.2148	88.3284	95.2148	89.1466	95.2148	88.1559	95.2148	89.1888	95.2148	87.9922	95.2148	89.1949	95.2148	87.8441	95.2148	89.1656	95.2148	87.7169	95.2148	89.1045	95.2148	87.6148	95.2148	89.0171	95.2148	87.5405	95.2148	88.9105	95.2148	87.4949	95.2148	88.7924	95.2148	87.4775	95.2148	88.6696	95.2148	87.4863	95.2148	88.5469	95.2148	87.5183	95.2148	88.4274	95.2148	87.5699	95.2148	88.3125	95.2148	87.637	95.2148	88.2023	95.2148	87.716	95.2148	88.0966	95.2148	87.8035	95.2148	87.9948	95.2148	87.8969
98.1445	88.8949	98.1445	88.7474	98.1445	89.0213	98.1445	88.5858	98.1445	89.1209	98.1445	88.4173	98.1445	89.1888	98.1445	88.249	98.1445	89.2216	98.1445	88.0881	98.1445	89.218	98.1445	87.941	98.1445	89.179	98.1445	87.8133	98.1445	89.1084	98.1445	87.709	98.1445	89.0124	98.1445	87.6311	98.1445	88.8989	98.1445	87.5806	98.1445	88.7764	98.1445	87.5572	98.1445	88.6522	98.1445	87.5594	98.1445	88.5314	98.1445	87.5843	98.1445	88.4169	98.1445	87.6285	98.1445	88.3091	98.1445	87.6882	98.1445	88.2071	98.1445	87.7598	98.1445	88.1098	98.1445	87.84	98.1445	88.0162	98.1445	87.926
101.074	88.8748	101.074	88.7254	101.074	89.0014	101.074	88.5605	101.074	89.0987	101.074	88.388	101.074	89.1615	101.074	88.2158	101.074	89.1862	101.074	88.0515	101.074	89.1714	101.074	87.902	101.074	89.1185	101.074	87.7731	101.074	89.0318	101.074	87.6692	101.074	88.9186	101.074	87.593	101.074	88.7882	101.074	87.5453	101.074	88.6511	101.074	87.5253	101.074	88.5169	101.074	87.5307	101.074	88.3925	101.074	87.558	101.074	88.2818	101.074	87.6029	101.074	88.1847	101.074	87.6608	101.074	88.0989	101.074	87.7273	101.074	88.0203	101.074	87.7985	101.074	87.9453	101.074	87.8716
105.469	88.8912	105.469	88.7371	105.469	89.0219	105.469	88.5672	105.469	89.1227	105.469	88.3899	105.469	89.1891	105.469	88.2141	105.469	89.2183	105.469	88.0483	105.469	89.2098	105.469	87.9002	105.469	89.1652	105.469	87.7762	105.469	89.0887	105.469	87.6806	105.469	88.9864	105.469	87.6158	105.469	88.8659	105.469	87.5816	105.469	88.7358	105.469	87.5761	105.469	88.6042	105.469	87.5954	105.469	88.4779	105.469	87.6346	105.469	88.3623	105.469	87.6884	105.469	88.2601	105.469	87.7511	105.469	88.1711	105.469	87.8183	105.469	88.0931	105.469	87.8864	105.469	88.0221	105.469	87.9541
108.398	89.0159	108.398	88.8577	108.398	89.1508	108.398	88.6838	108.398	89.2558	108.398	88.5022	108.398	89.3254	108.398	88.321	108.398	89.3556	108.398	88.1484	108.398	89.3451	108.398	87.9916	108.398	89.2948	108.398	87.8571	108.398	89.2091	108.398	87.7496	108.398	89.0948	108.398	87.672	108.398	88.9606	108.398	87.6248	108.398	88.8161	108.398	87.6068	108.398	88.6701	108.398	87.6149	108.398	88.5301	108.398	87.6446	108.398	88.4015	108.398	87.6908	108.398	88.2871	108.398	87.7484	108.398	88.1874	108.398	87.8126	108.398	88.1003	108.398	87.8803	108.398	88.0224	108.398	87.95
112.793	89.0326	112.793	88.8726	112.793	89.1606	112.793	88.6882	112.793	89.2505	112.793	88.4878	112.793	89.2981	112.793	88.2807	112.793	89.3016	112.793	88.0766	112.793	89.2618	112.793	87.885	112.793	89.1824	112.793	87.7145	112.793	89.0705	112.793	87.5726	112.793	88.935	112.793	87.4645	112.793	88.7865	112.793	87.393	112.793	88.6347	112.793	87.3582	112.793	88.4877	112.793	87.3573	112.793	88.3508	112.793	87.3855	112.793	88.2264	112.793	87.4367	112.793	88.1146	112.793	87.5041	112.793	88.0136	112.793	87.5815	112.793	87.9209	112.793	87.6637	112.793	87.8332	112.793	87.7479
117.188	89.0252	117.188	88.8773	117.188	89.1417	117.188	88.7052	117.188	89.2207	117.188	88.5169	117.188	89.2581	117.188	88.3212	117.188	89.2517	117.188	88.1268	117.188	89.202	117.188	87.9424	117.188	89.1129	117.188	87.776	117.188	88.9913	117.188	87.6344	117.188	88.8474	117.188	87.5231	117.188	88.693	117.188	87.4452	117.188	88.5402	117.188	87.4018	117.188	88.399	117.188	87.3918	117.188	88.2752	117.188	87.412	117.188	88.1698	117.188	87.4572	117.188	88.0798	117.188	87.5215	117.188	87.9995	117.188	87.5981	117.188	87.9229	117.188	87.6808	117.188	87.8451	117.188	87.7642
120.117	89.0465	120.117	88.8866	120.117	89.1758	120.117	88.7037	120.117	89.2675	120.117	88.5064	120.117	89.3167	120.117	88.3037	120.117	89.3201	120.117	88.1045	120.117	89.277	120.117	87.9174	120.117	89.1895	120.117	87.75	120.117	89.0628	120.117	87.6086	120.117	88.9055	120.117	87.4978	120.117	88.7286	120.117	87.4199	120.117	88.5449	120.117	87.3749	120.117	88.3674	120.117	87.3609	120.117	88.2067	120.117	87.3741	120.117	88.0695	120.117	87.4091	120.117	87.957	120.117	87.4601	120.117	87.8659	120.117	87.5211	120.117	87.7893	120.117	87.5867	120.117	87.7202	120.117	87.6534
124.512	88.9746	124.512	88.8112	124.512	89.1074	124.512	88.6252	124.512	89.2032	124.512	88.4253	124.512	89.2574	124.512	88.2207	124.512	89.2675	124.512	88.0205	124.512	89.2335	124.512	87.8332	124.512	89.158	124.512	87.6661	124.512	89.0459	124.512	87.525	124.512	88.9043	124.512	87.4141	124.512	88.7416	124.512	87.3352	124.512	88.5675	124.512	87.2884	124.512	88.3916	124.512	87.2717	124.512	88.223	124.512	87.2816	124.512	88.0692	124.512	87.3135	124.512	87.9347	124.512	87.3621	124.512	87.8202	124.512	87.4221	124.512	87.7231	124.512	87.4893	124.512	87.6384	124.512	87.5614
128.906	88.6479	128.906	88.4814	128.906	88.7833	128.906	88.2926	128.906	88.881	128.906	88.0919	128.906	88.9369	128.906	87.8907	128.906	88.9497	128.906	87.7001	128.906	88.9212	128.906	87.5302	128.906	88.8557	128.906	87.3889	128.906	88.76	128.906	87.2817	128.906	88.6424	128.906	87.2106	128.906	88.5119	128.906	87.175	128.906	88.377	128.906	87.1713	128.906	88.2446	128.906	87.1947	128.906	88.1202	128.906	87.2392	128.906	88.0072	128.906	87.2988	128.906	87.907	128.906	87.3678	128.906	87.8185	128.906	87.4415	128.906	87.7388	128.906	87.5164	128.906	87.664	128.906	87.5905
133.301	88.5743	133.301	88.392	133.301	88.7233	133.301	88.1854	133.301	88.8316	133.301	87.9655	133.301	88.8946	133.301	87.7443	133.301	88.9103	133.301	87.5341	133.301	88.8797	133.301	87.3469	133.301	88.8069	133.301	87.1925	133.301	88.6991	133.301	87.0782	133.301	88.5657	133.301	87.0075	133.301	88.4174	133.301	86.9797	133.301	88.2651	133.301	86.9907	133.301	88.1184	133.301	87.0333	133.301	87.9853	133.301	87.0991	133.301	87.8707	133.301	87.1793	133.301	87.776	133.301	87.2655	133.301	87.6984	133.301	87.3512	133.301	87.6321	133.301	87.4313	133.301	87.5694	133.301	87.5038
139.16	88.6109	139.16	88.4246	139.16	88.7594	139.16	88.2096	139.16	88.8627	139.16	87.9768	139.16	88.9162	139.16	87.7378	139.16	88.9182	139.16	87.5051	139.16	88.8705	139.16	87.2909	139.16	88.7784	139.16	87.1065	139.16	88.6503	139.16	86.9609	139.16	88.4966	139.16	86.8598	139.16	88.3287	139.16	86.8048	139.16	88.1571	139.16	86.7933	139.16	87.9909	139.16	86.819	139.16	87.8373	139.16	86.8732	139.16	87.7016	139.16	86.9461	139.16	87.5864	139.16	87.0284	139.16	87.4909	139.16	87.1124	139.16	87.4106	139.16	87.1928	139.16	87.3385	139.16	87.2676
143.555	88.5486	143.555	88.3682	143.555	88.6876	143.555	88.1552	143.555	88.7789	143.555	87.92	143.555	88.8189	143.555	87.6744	143.555	88.8071	143.555	87.4308	143.555	88.7465	143.555	87.2017	143.555	88.6436	143.555	86.9987	143.555	88.5071	143.555	86.8319	143.555	88.3474	143.555	86.7084	143.555	88.1753	143.555	86.6316	143.555	88.0005	143.555	86.6007	143.555	87.8313	143.555	86.6112	143.555	87.6744	143.555	86.6555	143.555	87.5348	143.555	86.7242	143.555	87.415	143.555	86.8074	143.555	87.3138	143.555	86.8963	143.555	87.2268	143.555	86.9841	143.555	87.1469	143.555	87.0675
147.949	88.275	147.949	88.0858	147.949	88.4215	147.949	87.8637	147.949	88.5185	147.949	87.6208	147.949	88.5632	147.949	87.371	147.949	88.5565	147.949	87.1285	147.949	88.5036	147.949	86.9073	147.949	88.4131	147.949	86.7193	147.949	88.2954	147.949	86.5737	147.949	88.1609	147.949	86.4753	147.949	88.0183	147.949	86.4247	147.949	87.8736	147.949	86.4181	147.949	87.7302	147.949	86.4485	147.949	87.5907	147.949	86.5072	147.949	87.4579	147.949	86.5847	147.949	87.3348	147.949	86.6726	147.949	87.2235	147.949	86.764	147.949	87.1236	147.949	86.8547	147.949	87.0318	147.949	86.9434
153.809	88.122	153.809	87.9289	153.809	88.2642	153.809	87.6939	153.809	88.3494	153.809	87.4289	153.809	88.3754	153.809	87.1477	153.809	88.344	153.809	86.8662	153.809	88.2617	153.809	86.6009	153.809	88.1394	153.809	86.3684	153.809	87.9916	153.809	86.1832	153.809	87.8347	153.809	86.0564	153.809	87.6844	153.809	85.9939	153.809	87.5521	153.809	85.9948	153.809	87.4429	153.809	86.0525	153.809	87.3551	153.809	86.1554	153.809	87.2822	153.809	86.2891	153.809	87.2157	153.809	86.4387	153.809	87.1469	153.809	86.5909	153.809	87.0687	153.809	86.7352	153.809	86.9756	153.809	86.8645
159.668	88.2138	159.668	88.0215	159.668	88.3596	159.668	87.7913	159.668	88.4529	159.668	87.5343	159.668	88.491	159.668	87.2635	159.668	88.4745	159.668	86.9934	159.668	88.408	159.668	86.7391	159.668	88.2995	159.668	86.5151	159.668	88.1601	159.668	86.334	159.668	88.003	159.668	86.2052	159.668	87.8417	159.668	86.1333	159.668	87.688	159.668	86.1179	159.668	87.5501	159.668	86.154	159.668	87.4321	159.668	86.2327	159.668	87.3329	159.668	86.343	159.668	87.2472	159.668	86.4732	159.668	87.1666	159.668	86.6116	159.668	87.0819	159.668	86.7479	159.668	86.9857	159.668	86.8742
165.527	88.2308	165.527	88.049	165.527	88.3623	165.527	87.8264	165.527	88.437	165.527	87.5745	165.527	88.4517	165.527	87.3065	165.527	88.4077	165.527	87.037	165.527	88.3113	165.527	86.7817	165.527	88.1734	165.527	86.5559	165.527	88.0091	165.527	86.3737	165.527	87.835	165.527	86.2457	165.527	87.667	165.527	86.1776	165.527	87.5175	165.527	86.1691	165.527	87.3937	165.527	86.214	165.527	87.2978	165.527	86.3015	165.527	87.2265	165.527	86.4182	165.527	87.1724	165.527	86.5501	165.527	87.1247	165.527	86.6842	165.527	87.0721	165.527	86.8093	165.527	87.005	165.527	86.9176
171.387	88.1341	171.387	87.945	171.387	88.2708	171.387	87.7134	171.387	88.3484	171.387	87.4511	171.387	88.3635	171.387	87.1717	171.387	88.3172	171.387	86.8903	171.387	88.2153	171.387	86.6227	171.387	88.0681	171.387	86.3846	171.387	87.89	171.387	86.1904	171.387	87.6976	171.387	86.0515	171.387	87.5079	171.387	85.975	171.387	87.3362	171.387	85.9617	171.387	87.1942	171.387	86.0067	171.387	87.0881	171.387	86.0996	171.387	87.0169	171.387	86.2263	171.387	86.9724	171.387	86.3709	171.387	86.9399	171.387	86.5175	171.387	86.9028	171.387	86.6519	171.387	86.8468	171.387	86.7635
177.246	88.0954	177.246	87.8959	177.246	88.2358	177.246	87.6465	177.246	88.3111	177.246	87.3592	177.246	88.3191	177.246	87.0485	177.246	88.2615	177.246	86.731	177.246	88.1447	177.246	86.425	177.246	87.9791	177.246	86.1495	177.246	87.7792	177.246	85.9221	177.246	87.5617	177.246	85.7575	177.246	87.3443	177.246	85.6646	177.246	87.1437	177.246	85.6449	177.246	86.9743	177.246	85.6923	177.246	86.8456	177.246	85.7944	177.246	86.7594	177.246	85.9341	177.246	86.7083	177.246	86.0926	177.246	86.6765	177.246	86.2514	177.246	86.6436	177.246	86.3943	177.246	86.5918	177.246	86.5096
183.105	87.8632	183.105	87.6788	183.105	87.9907	183.105	87.4459	183.105	88.0557	183.105	87.1756	183.105	88.0571	183.105	86.8813	183.105	87.9979	183.105	86.5777	183.105	87.8859	183.105	86.2814	183.105	87.7328	183.105	86.0096	183.105	87.5519	183.105	85.7792	183.105	87.356	183.105	85.6049	183.105	87.1552	183.105	85.4961	183.105	86.9577	183.105	85.4555	183.105	86.772	183.105	85.4782	183.105	86.6084	183.105	85.5529	183.105	86.4774	183.105	85.6642	183.105	86.3835	183.105	85.795	183.105	86.3206	183.105	85.9283	183.105	86.2727	183.105	86.0493	183.105	86.2201	183.105	86.1477
188.965	87.7035	188.965	87.5131	188.965	87.8258	188.965	87.2634	188.965	87.8744	188.965	86.9663	188.965	87.8485	188.965	86.6367	188.965	87.7525	188.965	86.2924	188.965	87.5977	188.965	85.9541	188.965	87.4025	188.965	85.644	188.965	87.1908	188.965	85.3844	188.965	86.9879	188.965	85.1941	188.965	86.8142	188.965	85.0852	188.965	86.6801	188.965	85.0596	188.965	86.5833	188.965	85.1091	188.965	86.513	188.965	85.2176	188.965	86.455	188.965	85.3653	188.965	86.3968	188.965	85.5333	188.965	86.329	188.965	85.7051	188.965	86.2453	188.965	85.8686	188.965	86.1414	188.965	86.0155
196.289	87.8493	196.289	87.6674	196.289	87.9625	196.289	87.426	196.289	88.0011	196.289	87.1372	196.289	87.9634	196.289	86.8154	196.289	87.8525	196.289	86.4771	196.289	87.6773	196.289	86.141	196.289	87.4523	196.289	85.8273	196.289	87.1968	196.289	85.5567	196.289	86.9338	196.289	85.348	196.289	86.6877	196.289	85.2153	196.289	86.481	196.289	85.1646	196.289	86.3304	196.289	85.1921	196.289	86.2418	196.289	85.2855	196.289	86.2076	196.289	85.4262	196.289	86.2067	196.289	85.5932	196.289	86.2119	196.289	85.7656	196.289	86.1979	196.289	85.9249	196.289	86.1479	196.289	86.0557
203.613	87.938	203.613	87.7284	203.613	88.0727	203.613	87.4539	203.613	88.1248	203.613	87.1268	203.613	88.0905	203.613	86.7611	203.613	87.9709	203.613	86.3732	203.613	87.7731	203.613	85.982	203.613	87.5102	203.613	85.6093	203.613	87.2004	203.613	85.2791	203.613	86.8658	203.613	85.015	203.613	86.5311	203.613	84.8367	203.613	86.2238	203.613	84.7551	203.613	85.9731	203.613	84.7693	203.613	85.8036	203.613	84.8662	203.613	85.7241	203.613	85.0231	203.613	85.719	203.613	85.2122	203.613	85.7516	203.613	85.4047	203.613	85.779	203.613	85.574	203.613	85.7672	203.613	85.699
210.938	87.6838	210.938	87.5009	210.938	87.7929	210.938	87.2537	210.938	87.8225	210.938	86.954	210.938	87.7712	210.938	86.6156	210.938	87.6436	210.938	86.254	210.938	87.4501	210.938	85.8861	210.938	87.2066	210.938	85.5305	210.938	86.932	210.938	85.207	210.938	86.646	210.938	84.9352	210.938	86.3667	210.938	84.7324	210.938	86.1104	210.938	84.6105	210.938	85.8926	210.938	84.5735	210.938	85.7269	210.938	84.6157	210.938	85.6195	210.938	84.723	210.938	85.5627	210.938	84.8742	210.938	85.534	210.938	85.0447	210.938	85.5036	210.938	85.2096	210.938	85.446	210.938	85.3477
218.262	87.2965	218.262	87.1077	218.262	87.414	218.262	86.8611	218.262	87.451	218.262	86.5732	218.262	87.4047	218.262	86.2618	218.262	87.2799	218.262	85.9454	218.262	87.0902	218.262	85.6425	218.262	86.8566	218.262	85.3702	218.262	86.6037	218.262	85.143	218.262	86.3544	218.262	84.9719	218.262	86.1263	218.262	84.8626	218.262	85.931	218.262	84.8155	218.262	85.7781	218.262	84.8268	218.262	85.6757	218.262	84.8888	218.262	85.6267	218.262	84.9917	218.262	85.6206	218.262	85.1232	218.262	85.6329	218.262	85.2676	218.262	85.6337	218.262	85.407	218.262	85.5999	218.262	85.5227
225.586	87.6344	225.586	87.425	225.586	87.7519	225.586	87.1374	225.586	87.768	225.586	86.7891	225.586	87.6795	225.586	86.4005	225.586	87.4906	225.586	85.995	225.586	87.2149	225.586	85.599	225.586	86.8756	225.586	85.2409	225.586	86.5042	225.586	84.9481	225.586	86.1369	225.586	84.7419	225.586	85.8089	225.586	84.6322	225.586	85.5488	225.586	84.6147	225.586	85.3756	225.586	84.674	225.586	85.2977	225.586	84.7893	225.586	85.3079	225.586	84.9398	225.586	85.3804	225.586	85.1069	225.586	85.474	225.586	85.2724	225.586	85.5458	225.586	85.4168	225.586	85.565	225.586	85.52
232.91	87.5315	232.91	87.3182	232.91	87.6627	232.91	87.0351	232.91	87.7018	232.91	86.6958	232.91	87.642	232.91	86.3152	232.91	87.4815	232.91	85.9101	232.91	87.2248	232.91	85.5007	232.91	86.8841	232.91	85.1124	232.91	86.4807	232.91	84.7744	232.91	86.0446	232.91	84.5167	232.91	85.6135	232.91	84.3608	232.91	85.2299	232.91	84.3119	232.91	84.9346	232.91	84.3557	232.91	84.7572	232.91	84.4643	232.91	84.7035	232.91	84.6057	232.91	84.7493	232.91	84.7517	232.91	84.8476	232.91	84.8805	232.91	84.9478	232.91	84.9749	232.91	85.012	232.91	85.0216
241.699	87.2557	241.699	86.9898	241.699	87.4383	241.699	86.6538	241.699	87.5287	241.699	86.2645	241.699	87.523	241.699	85.841	241.699	87.4221	241.699	85.404	241.699	87.2307	241.699	84.9756	241.699	86.955	241.699	84.5795	241.699	86.6009	241.699	84.241	241.699	86.1742	241.699	83.9846	241.699	85.6869	241.699	83.8291	241.699	85.168	241.699	83.7813	241.699	84.6765	241.699	83.8319	241.699	84.2973	241.699	83.9572	241.699	84.1041	241.699	84.125	241.699	84.1071	241.699	84.3016	241.699	84.2413	241.699	84.4558	241.699	84.4111	241.699	84.5601	241.699	84.5408	241.699	84.5926
250.488	87.297	250.488	87.0198	250.488	87.4888	250.488	86.6707	250.488	87.5866	250.488	86.2671	250.488	87.5888	250.488	85.8275	250.488	87.502	250.488	85.3709	250.488	87.3408	250.488	84.9155	250.488	87.1248	250.488	84.4794	250.488	86.8712	250.488	84.0819	250.488	86.5868	250.488	83.7451	250.488	86.2651	250.488	83.4925	250.488	85.8934	250.488	83.3444	250.488	85.472	250.488	83.3102	250.488	85.0324	250.488	83.3811	250.488	84.6387	250.488	83.5299	250.488	84.3585	250.488	83.7176	250.488	84.217	250.488	83.9028	250.488	84.1779	250.488	84.0506	250.488	84.1723	250.488	84.1401
259.277	87.1696	259.277	86.9076	259.277	87.3464	259.277	86.5738	259.277	87.4307	259.277	86.1863	259.277	87.4224	259.277	85.7659	259.277	87.3291	259.277	85.3349	259.277	87.1655	259.277	84.9152	259.277	86.9496	259.277	84.5271	259.277	86.6971	259.277	84.189	259.277	86.4146	259.277	83.9161	259.277	86.0982	259.277	83.7193	259.277	85.7413	259.277	83.6035	259.277	85.3491	259.277	83.5663	259.277	84.9525	259.277	83.5979	259.277	84.6053	259.277	83.6824	259.277	84.3588	259.277	83.7994	259.277	84.2269	259.277	83.9251	259.277	84.1769	259.277	84.0359	259.277	84.154	259.277	84.1134
268.066	86.5799	268.066	86.3164	268.066	86.7527	268.066	85.976	268.066	86.8273	268.066	85.5762	268.066	86.8055	268.066	85.1368	268.066	86.7013	268.066	84.6789	268.066	86.5422	268.066	84.2256	268.066	86.3647	268.066	83.8026	268.066	86.2017	268.066	83.4375	268.066	86.0649	268.066	83.1571	268.066	85.9338	268.066	82.9802	268.066	85.7641	268.066	82.9104	268.066	85.5136	268.066	82.9343	268.066	85.1705	268.066	83.0258	268.066	84.7673	268.066	83.1543	268.066	84.3719	268.066	83.2926	268.066	84.0523	268.066	83.4208	268.066	83.8375	268.066	83.5283	268.066	83.7073	268.066	83.6172
276.855	86.1847	276.855	85.9007	276.855	86.3596	276.855	85.5269	276.855	86.4197	276.855	85.0941	276.855	86.3735	276.855	84.6414	276.855	86.243	276.855	84.2091	276.855	86.0626	276.855	83.83	276.855	85.8731	276.855	83.5209	276.855	85.712	276.855	83.2797	276.855	85.6005	276.855	83.0914	276.855	85.5332	276.855	82.9379	276.855	85.4792	276.855	82.8086	276.855	85.3964	276.855	82.7068	276.855	85.25	276.855	82.6497	276.855	85.0262	276.855	82.6594	276.855	84.736	276.855	82.7512	276.855	84.4065	276.855	82.923	276.855	84.068	276.855	83.158	276.855	83.7411	276.855	83.4353
287.109	86.6472	287.109	86.4268	287.109	86.6753	287.109	86.0182	287.109	86.5157	287.109	85.4357	287.109	86.1856	287.109	84.7101	287.109	85.7222	287.109	83.9017	287.109	85.1935	287.109	83.118	287.109	84.7073	287.109	82.5163	287.109	84.3953	287.109	82.2544	287.109	84.3555	287.109	82.3861	287.109	84.5845	287.109	82.8143	287.109	84.9787	287.109	83.3689	287.109	85.4053	287.109	83.908	287.109	85.7622	287.109	84.3553	287.109	85.9937	287.109	84.6919	287.109	86.0838	287.109	84.9376	287.109	86.0447	287.109	85.1315	287.109	85.9081	287.109	85.314	287.109	85.716	287.109	85.5093
297.363	88.0319	297.363	87.8486	297.363	88.0584	297.363	87.5198	297.363	87.914	297.363	87.0523	297.363	87.5852	297.363	86.4484	297.363	87.067	297.363	85.7084	297.363	86.373	297.363	84.8363	297.363	85.5499	297.363	83.8551	297.363	84.6915	297.363	82.8379	297.363	83.943	297.363	81.9484	297.363	83.471	297.363	81.4346	297.363	83.3853	297.363	81.4789	297.363	83.6712	297.363	82.015	297.363	84.2024	297.363	82.799	297.363	84.8129	297.363	83.6141	297.363	85.3599	297.363	84.3464	297.363	85.751	297.363	84.9548	297.363	85.946	297.363	85.4294	297.363	85.9438	297.363	85.764
307.617	87.4123	307.617	87.1436	307.617	87.5736	307.617	86.792	307.617	87.6009	307.617	86.3755	307.617	87.4704	307.617	85.9039	307.617	87.1652	307.617	85.3787	307.617	86.6812	307.617	84.7977	307.617	86.0336	307.617	84.1625	307.617	85.2685	307.617	83.4928	307.617	84.4771	307.617	82.8422	307.617	83.7961	307.617	82.3078	307.617	83.3692	307.617	82.0116	307.617	83.2752	307.617	82.0358	307.617	83.484	307.617	82.3605	307.617	83.8812	307.617	82.8771	307.617	84.3251	307.617	83.4585	307.617	84.6945	307.617	84.0077	307.617	84.9106	307.617	84.4633	307.617	84.9403	307.617	84.7843
319.336	87.08	319.336	86.7966	319.336	87.244	319.336	86.4136	319.336	87.2734	319.336	85.9538	319.336	87.157	319.336	85.4407	319.336	86.8876	319.336	84.8955	319.336	86.4627	319.336	84.3346	319.336	85.8864	319.336	83.772	319.336	85.1738	319.336	83.2263	319.336	84.361	319.336	82.7308	319.336	83.5212	319.336	82.3408	319.336	82.7839	319.336	82.1253	319.336	82.3282	319.336	82.1369	319.336	82.2941	319.336	82.3752	319.336	82.6512	319.336	82.778	319.336	83.2048	319.336	83.2512	319.336	83.7412	319.336	83.7031	319.336	84.1253	319.336	84.0618	319.336	84.3038	319.336	84.2747
329.59	86.6728	329.59	86.421	329.59	86.8131	329.59	86.0726	329.59	86.8311	329.59	85.6438	329.59	86.722	329.59	85.1496	329.59	86.4864	329.59	84.6014	329.59	86.1304	329.59	84.0099	329.59	85.6641	329.59	83.3914	329.59	85.102	329.59	82.777	329.59	84.4634	329.59	82.2189	329.59	83.7755	329.59	81.7862	329.59	83.086	329.59	81.5465	329.59	82.4892	329.59	81.5387	329.59	82.1356	329.59	81.7546	329.59	82.155	329.59	82.141	329.59	82.5158	329.59	82.6161	329.59	83.0202	329.59	83.0887	329.59	83.4545	329.59	83.4716	329.59	83.6909	329.59	83.6902
341.309	86.8497	341.309	86.5963	341.309	86.9666	341.309	86.2216	341.309	86.9386	341.309	85.7448	341.309	86.766	341.309	85.1844	341.309	86.4588	341.309	84.556	341.309	86.0359	341.309	83.8735	341.309	85.5227	341.309	83.1583	341.309	84.947	341.309	82.4533	341.309	84.3346	341.309	81.8326	341.309	83.7139	341.309	81.3931	341.309	83.1358	341.309	81.2155	341.309	82.6975	341.309	81.3185	341.309	82.5249	341.309	81.6506	341.309	82.6784	341.309	82.1271	341.309	83.0702	341.309	82.664	341.309	83.5172	341.309	83.1863	341.309	83.8557	341.309	83.6233	341.309	83.9945	341.309	83.9096
353.027	86.5594	353.027	86.2973	353.027	86.6862	353.027	85.9252	353.027	86.6613	353.027	85.4704	353.027	86.4824	353.027	84.9556	353.027	86.1649	353.027	84.394	353.027	85.742	353.027	83.7893	353.027	85.2571	353.027	83.1427	353.027	84.7499	353.027	82.4681	353.027	84.2376	353.027	81.8122	353.027	83.7077	353.027	81.2685	353.027	83.1388	353.027	80.9605	353.027	82.5603	353.027	80.9749	353.027	82.1104	353.027	81.2939	353.027	81.9911	353.027	81.8069	353.027	82.267	353.027	82.3809	353.027	82.7605	353.027	82.9071	353.027	83.2207	353.027	83.3051	353.027	83.4892	353.027	83.5135
366.211	86.6125	366.211	86.3576	366.211	86.7246	366.211	85.9791	366.211	86.681	366.211	85.4984	366.211	86.4752	366.211	84.9349	366.211	86.1076	366.211	84.303	366.211	85.5876	366.211	83.6128	366.211	84.9446	366.211	82.8762	366.211	84.2444	366.211	82.1175	366.211	83.5889	366.211	81.3866	366.211	83.0693	366.211	80.7653	366.211	82.7019	366.211	80.353	366.211	82.4387	366.211	80.2252	366.211	82.254	366.211	80.3904	366.211	82.1905	366.211	80.7853	366.211	82.2927	366.211	81.3079	366.211	82.5112	366.211	81.8517	366.211	82.7137	366.211	82.3224	366.211	82.778	366.211	82.6464
379.395	86.5078	379.395	86.2881	379.395	86.637	379.395	85.9946	379.395	86.6627	379.395	85.6429	379.395	86.5737	379.395	85.2417	379.395	86.3585	379.395	84.7869	379.395	86.0032	379.395	84.262	379.395	85.4941	379.395	83.6471	379.395	84.8241	379.395	82.9351	379.395	84.0035	379.395	82.1544	379.395	83.0805	379.395	81.3905	379.395	82.1765	379.395	80.7876	379.395	81.5096	379.395	80.4956	379.395	81.3098	379.395	80.5711	379.395	81.6015	379.395	80.9392	379.395	82.1495	379.395	81.4632	379.395	82.6719	379.395	82.0211	379.395	82.9968	379.395	82.522	379.395	83.0661	379.395	82.8918
392.578	86.2632	392.578	85.9813	392.578	86.4195	392.578	85.6023	392.578	86.4282	392.578	85.1624	392.578	86.2735	392.578	84.6983	392.578	85.9492	392.578	84.2353	392.578	85.4694	392.578	83.7754	392.578	84.8753	392.578	83.2982	392.578	84.2295	392.578	82.7742	392.578	83.5868	392.578	82.1896	392.578	82.954	392.578	81.5745	392.578	82.2821	392.578	81.0263	392.578	81.5382	392.578	80.7002	392.578	80.8483	392.578	80.728	392.578	80.5676	392.578	81.1077	392.578	80.9546	392.578	81.6953	392.578	81.7531	392.578	82.3055	392.578	82.5023	392.578	82.7859	392.578	82.9449	392.578	83.0258
405.762	86.8336	405.762	86.5638	405.762	86.9423	405.762	86.1659	405.762	86.8667	405.762	85.6773	405.762	86.5975	405.762	85.1336	405.762	86.1434	405.762	84.5594	405.762	85.5345	405.762	83.9629	405.762	84.8246	405.762	83.3365	405.762	84.0921	405.762	82.67	405.762	83.4285	405.762	81.9708	405.762	82.8992	405.762	81.2864	405.762	82.4947	405.762	80.7201	405.762	82.1428	405.762	80.4195	405.762	81.8089	405.762	80.5055	405.762	81.5944	405.762	80.9701	405.762	81.6868	405.762	81.6596	405.762	82.1205	405.762	82.3643	405.762	82.6734	405.762	82.9042	405.762	83.0711	405.762	83.1582
420.41	87.2216	420.41	86.9718	420.41	87.2933	420.41	86.5742	420.41	87.1818	420.41	86.0758	420.41	86.9108	420.41	85.5278	420.41	86.5259	420.41	84.9714	420.41	86.0769	420.41	84.4293	420.41	85.592	420.41	83.9058	420.41	85.061	420.41	83.3951	420.41	84.4441	420.41	82.8897	420.41	83.7062	420.41	82.3883	420.41	82.8673	420.41	81.9066	420.41	82.0611	420.41	81.4981	420.41	81.5445	420.41	81.268	420.41	81.528	420.41	81.3318	420.41	81.9376	420.41	81.7063	420.41	82.4912	420.41	82.2552	420.41	82.9441	420.41	82.7749	420.41	83.1652	420.41	83.105
435.059	87.2207	435.059	86.9803	435.059	87.27	435.059	86.5719	435.059	87.1268	435.059	86.0367	435.059	86.8093	435.059	85.4258	435.059	86.3524	435.059	84.7835	435.059	85.8073	435.059	84.1319	435.059	85.2459	435.059	83.469	435.059	84.7495	435.059	82.7904	435.059	84.3608	435.059	82.1258	435.059	84.0325	435.059	81.5603	435.059	83.6535	435.059	81.2091	435.059	83.1549	435.059	81.1424	435.059	82.6202	435.059	81.3356	435.059	82.3061	435.059	81.708	435.059	82.4307	435.059	82.1854	435.059	82.8835	435.059	82.7037	435.059	83.3409	435.059	83.1781	435.059	83.5689	435.059	83.4998
451.172	87.0308	451.172	86.6585	451.172	87.2263	451.172	86.1315	451.172	87.2358	451.172	85.491	451.172	87.0534	451.172	84.7919	451.172	86.6708	451.172	84.0845	451.172	86.0818	451.172	83.3955	451.172	85.2994	451.172	82.7213	451.172	84.391	451.172	82.0386	451.172	83.5049	451.172	81.3214	451.172	82.8003	451.172	80.5621	451.172	82.2715	451.172	79.8112	451.172	81.7316	451.172	79.237	451.172	81.065	451.172	79.1247	451.172	80.5051	451.172	79.6499	451.172	80.5627	451.172	80.6237	451.172	81.3079	451.172	81.66	451.172	82.1947	451.172	82.4577	451.172	82.7631	451.172	82.8512
465.82	86.8829	465.82	86.571	465.82	87.0196	465.82	86.11	465.82	86.976	465.82	85.5419	465.82	86.77	465.82	84.9174	465.82	86.4343	465.82	84.2824	465.82	85.994	465.82	83.6605	465.82	85.4453	465.82	83.0439	465.82	84.7592	465.82	82.4022	465.82	83.9172	465.82	81.7052	465.82	82.9601	465.82	80.9523	465.82	82.0158	465.82	80.2043	465.82	81.2744	465.82	79.6139	465.82	80.8894	465.82	79.4084	465.82	80.887	465.82	79.7386	465.82	81.1931	465.82	80.4969	465.82	81.687	465.82	81.381	465.82	82.194	465.82	82.1058	465.82	82.5146	465.82	82.5019
483.398	86.7589	483.398	86.4084	483.398	86.8524	483.398	85.8536	483.398	86.6801	483.398	85.1943	483.398	86.2659	483.398	84.5574	483.398	85.6529	483.398	84.0451	483.398	84.8987	483.398	83.6785	483.398	84.0841	483.398	83.389	483.398	83.3295	483.398	83.0681	483.398	82.7744	483.398	82.6262	483.398	82.4802	483.398	82.0215	483.398	82.3385	483.398	81.2637	483.398	82.1449	483.398	80.4244	483.398	81.7938	483.398	79.6978	483.398	81.4329	483.398	79.4489	483.398	81.4118	483.398	79.9534	483.398	81.8647	483.398	80.9774	483.398	82.466	483.398	82.0003	483.398	82.8024	483.398	82.6565
499.512	87.4367	499.512	87.0585	499.512	87.5152	499.512	86.4087	499.512	87.2999	499.512	85.5583	499.512	86.8282	499.512	84.6299	499.512	86.1693	499.512	83.7814	499.512	85.4119	499.512	83.1418	499.512	84.6335	499.512	82.7285	499.512	83.8692	499.512	82.4385	499.512	83.1228	499.512	82.1272	499.512	82.4141	499.512	81.6876	499.512	81.8042	499.512	81.0827	499.512	81.3682	499.512	80.3625	499.512	81.1658	499.512	79.7034	499.512	81.2413	499.512	79.4289	499.512	81.5885	499.512	79.8038	499.512	82.0798	499.512	80.6854	499.512	82.4915	499.512	81.6427	499.512	82.6159	499.512	82.3345
517.09	86.7325	517.09	86.2609	517.09	86.8536	517.09	85.492	517.09	86.636	517.09	84.5465	517.09	86.155	517.09	83.6083	517.09	85.537	517.09	82.8803	517.09	84.9243	517.09	82.4776	517.09	84.4228	517.09	82.3393	517.09	84.05	517.09	82.2826	517.09	83.721	517.09	82.1317	517.09	83.2922	517.09	81.7788	517.09	82.6268	517.09	81.169	517.09	81.6705	517.09	80.2907	517.09	80.6164	517.09	79.2678	517.09	80.0982	517.09	78.5989	517.09	80.6574	517.09	79.0243	517.09	81.8071	517.09	80.4112	517.09	82.7614	517.09	81.8703	517.09	83.142	517.09	82.8402
536.133	87.4989	536.133	87.0581	536.133	87.573	536.133	86.2779	536.133	87.2625	536.133	85.2018	536.133	86.5626	536.133	83.9084	536.133	85.4976	536.133	82.5531	536.133	84.1619	536.133	81.4156	536.133	82.8146	536.133	80.8176	536.133	81.9333	536.133	80.8122	536.133	81.8379	536.133	81.0921	536.133	82.193	536.133	81.3073	536.133	82.4202	536.133	81.2605	536.133	82.1836	536.133	80.8847	536.133	81.4103	536.133	80.2275	536.133	80.3774	536.133	79.5536	536.133	79.9243	536.133	79.4224	536.133	80.6067	536.133	80.1598	536.133	81.6539	536.133	81.2732	536.133	82.233	536.133	82.0824
555.176	86.9009	555.176	86.6152	555.176	86.8632	555.176	86.0205	555.176	86.522	555.176	85.1612	555.176	85.9227	555.176	84.1036	555.176	85.1052	555.176	82.9301	555.176	84.0622	555.176	81.7485	555.176	82.7386	555.176	80.7232	555.176	81.1479	555.176	80.0727	555.176	79.6583	555.176	79.9284	555.176	79.1034	555.176	80.1642	555.176	79.7102	555.176	80.4816	555.176	80.6041	555.176	80.6254	555.176	81.0588	555.176	80.4818	555.176	80.8636	555.176	80.1201	555.176	80.241	555.176	79.8372	555.176	79.8581	555.176	79.9806	555.176	80.1738	555.176	80.4719	555.176	80.7	555.176	80.8293
574.219	87.5608	574.219	87.1101	574.219	87.6663	574.219	86.3653	574.219	87.4259	574.219	85.414	574.219	86.8781	574.219	84.3464	574.219	86.0645	574.219	83.2186	574.219	84.9944	574.219	82.0424	574.219	83.6548	574.219	80.8275	574.219	82.0715	574.219	79.6807	574.219	80.4099	574.219	78.8816	574.219	79.107	574.219	78.6878	574.219	78.7244	574.219	78.9348	574.219	79.1772	574.219	79.1277	574.219	79.7579	574.219	78.9037	574.219	80.0352	574.219	78.3194	574.219	80.1097	574.219	78.0198	574.219	80.3439	574.219	78.6868	574.219	80.7948	574.219	79.8871	574.219	81.0695	574.219	80.7941
594.727	87.896	594.727	87.589	594.727	87.9004	594.727	87.0028	594.727	87.5977	594.727	86.185	594.727	86.9909	594.727	85.2116	594.727	86.0883	594.727	84.1866	594.727	84.9316	594.727	83.2079	594.727	83.6423	594.727	82.286	594.727	82.417	594.727	81.3306	594.727	81.395	594.727	80.2977	594.727	80.486	594.727	79.3849	594.727	79.3964	594.727	78.9963	594.727	77.9306	594.727	79.2139	594.727	76.6052	594.727	79.5589	594.727	76.9247	594.727	79.6132	594.727	78.768	594.727	79.4746	594.727	80.549	594.727	79.6964	594.727	81.622	594.727	80.5298	594.727	81.9012	594.727	81.4538
615.234	88.7376	615.234	88.447	615.234	88.6495	615.234	87.8396	615.234	88.1594	615.234	87.0056	615.234	87.2845	615.234	86.0392	615.234	86.0829	615.234	85.0267	615.234	84.6521	615.234	84.0712	615.234	83.1399	615.234	83.2989	615.234	81.8027	615.234	82.7789	615.234	80.9857	615.234	82.4498	615.234	80.801	615.234	82.1805	615.234	80.9811	615.234	81.8815	615.234	81.2016	615.234	81.5361	615.234	81.2022	615.234	81.152	615.234	80.733	615.234	80.7568	615.234	79.7519	615.234	80.4927	615.234	78.9519	615.234	80.5622	615.234	79.3661	615.234	80.8666	615.234	80.3834	615.234	80.9376
637.207	89.9866	637.207	89.5348	637.207	90.0963	637.207	88.7936	637.207	89.8439	637.207	87.7971	637.207	89.2635	637.207	86.5333	637.207	88.393	637.207	84.9997	637.207	87.1851	637.207	83.3621	637.207	85.5216	637.207	82.0847	637.207	83.3918	637.207	81.6115	637.207	81.1776	637.207	81.7989	637.207	79.9052	637.207	82.1784	637.207	80.2783	637.207	82.4193	637.207	81.3524	637.207	82.365	637.207	82.0771	637.207	81.9822	637.207	82.1597	637.207	81.4014	637.207	81.882	637.207	81.0565	637.207	81.9418	637.207	81.4712	637.207	82.6003	637.207	82.4288	637.207	83.2015	637.207	83.1603
659.18	89.638	659.18	89.3843	659.18	89.6131	659.18	88.8498	659.18	89.3513	659.18	88.0532	659.18	88.9028	659.18	87.0062	659.18	88.246	659.18	85.7114	659.18	87.2609	659.18	84.2071	659.18	85.8502	659.18	82.6244	659.18	84.1011	659.18	81.1989	659.18	82.2823	659.18	80.2411	659.18	80.5952	659.18	80.0284	659.18	79.0488	659.18	80.4834	659.18	77.9453	659.18	81.1005	659.18	78.0629	659.18	81.4065	659.18	79.1519	659.18	81.2601	659.18	80.2771	659.18	80.9349	659.18	81.214	659.18	81.0424	659.18	82.0333	659.18	81.7521	659.18	82.5323	659.18	82.4272
682.617	89.7734	682.617	89.3785	682.617	89.8711	682.617	88.7377	682.617	89.6327	682.617	87.8931	682.617	89.0353	682.617	86.859	682.617	88.0624	682.617	85.6316	682.617	86.736	682.617	84.2208	682.617	85.2181	682.617	82.6942	682.617	83.8624	682.617	81.2218	682.617	83.0018	682.617	80.0525	682.617	82.5667	682.617	79.3666	682.617	82.157	682.617	79.1721	682.617	81.5902	682.617	79.3855	682.617	81.0105	682.617	79.867	682.617	80.4676	682.617	80.4158	682.617	79.9499	682.617	80.9117	682.617	79.9945	682.617	81.3939	682.617	80.9073	682.617	81.8782	682.617	81.8325	682.617	82.1372
707.52	89.8023	707.52	89.5248	707.52	89.8313	707.52	89.0217	707.52	89.6344	707.52	88.3308	707.52	89.2403	707.52	87.4361	707.52	88.6031	707.52	86.2551	707.52	87.5797	707.52	84.7509	707.52	86.0635	707.52	83.0998	707.52	84.2342	707.52	81.6888	707.52	82.6863	707.52	80.7832	707.52	81.8954	707.52	80.3112	707.52	81.4889	707.52	80.1023	707.52	81.0318	707.52	80.0533	707.52	80.7552	707.52	79.9633	707.52	80.7142	707.52	79.5706	707.52	80.6328	707.52	79.1693	707.52	81.0093	707.52	79.9237	707.52	82.1995	707.52	81.7083	707.52	83.155	707.52	83.0202
732.422	89.3153	732.422	89.1587	732.422	89.2227	732.422	88.7593	732.422	88.9121	732.422	88.0893	732.422	88.434	732.422	87.0468	732.422	87.7355	732.422	85.5508	732.422	86.6065	732.422	83.7155	732.422	84.8301	732.422	81.8948	732.422	82.3864	732.422	80.4684	732.422	79.7651	732.422	79.6727	732.422	78.7787	732.422	79.6186	732.422	79.7802	732.422	80.1771	732.422	80.5753	732.422	80.9063	732.422	80.3748	732.422	81.3582	732.422	79.1939	732.422	81.3324	732.422	77.8791	732.422	80.9134	732.422	78.5046	732.422	80.5742	732.422	80.3351	732.422	80.8641	732.422	81.4209	732.422	81.4368
757.324	89.5636	757.324	89.5821	757.324	89.2787	757.324	89.3239	757.324	88.767	757.324	88.7465	757.324	88.0973	757.324	87.7515	757.324	87.2569	757.324	86.2371	757.324	86.0909	757.324	84.2126	757.324	84.4749	757.324	81.9193	757.324	82.5051	757.324	79.8106	757.324	80.3697	757.324	78.2813	757.324	78.2727	757.324	77.553	757.324	77.3181	757.324	77.8056	757.324	78.716	757.324	78.6881	757.324	80.7388	757.324	79.4272	757.324	81.7391	757.324	79.7063	757.324	81.1765	757.324	79.8827	757.324	79.3596	757.324	80.5328	757.324	78.8777	757.324	81.4098	757.324	80.574	757.324	81.6185
785.156	89.4613	785.156	89.4349	785.156	89.233	785.156	89.1413	785.156	88.8139	785.156	88.5433	785.156	88.2656	785.156	87.5388	785.156	87.5005	785.156	86.0551	785.156	86.343	785.156	84.2386	785.156	84.8477	785.156	82.5666	785.156	83.3257	785.156	81.495	785.156	81.6587	785.156	80.8113	785.156	79.5836	785.156	79.8983	785.156	77.6276	785.156	78.7744	785.156	76.5814	785.156	78.5333	785.156	77.3574	785.156	79.4317	785.156	79.0596	785.156	80.113	785.156	79.7115	785.156	79.7762	785.156	79.1131	785.156	79.0611	785.156	79.2936	785.156	79.6861	785.156	80.5628	785.156	80.7688
811.523	89.8347	811.523	89.7592	811.523	89.4854	811.523	89.2372	811.523	88.7864	811.523	88.274	811.523	87.8372	811.523	86.872	811.523	86.7174	811.523	85.0499	811.523	85.501	811.523	82.9259	811.523	84.2232	811.523	80.864	811.523	82.7067	811.523	79.46	811.523	80.7688	811.523	79.003	811.523	79.0843	811.523	79.0401	811.523	78.543	811.523	78.9396	811.523	78.2306	811.523	78.6295	811.523	77.1426	811.523	78.5117	811.523	75.5545	811.523	78.7792	811.523	76.054	811.523	79.2592	811.523	78.4364	811.523	79.9143	811.523	80.1963	811.523	80.6799	811.523	81.0453	811.523	81.1647
840.82	89.6855	840.82	89.5413	840.82	89.3996	840.82	88.9987	840.82	88.7991	840.82	88.1248	840.82	88.0846	840.82	86.8705	840.82	87.3293	840.82	85.0492	840.82	86.4254	840.82	82.5465	840.82	85.27	840.82	79.7183	840.82	83.8132	840.82	77.894	840.82	81.8503	840.82	78.3621	840.82	79.0318	840.82	79.578	840.82	75.2413	840.82	79.8712	840.82	74.1591	840.82	79.0918	840.82	78.3925	840.82	78.0845	840.82	80.9755	840.82	78.0535	840.82	80.6367	840.82	78.9457	840.82	77.9484	840.82	79.9515	840.82	77.8294	840.82	80.7699	840.82	80.2108	840.82	81.0951
870.117	89.8677	870.117	89.4784	870.117	89.725	870.117	88.6449	870.117	89.0395	870.117	87.4685	870.117	87.905	870.117	85.9872	870.117	86.5144	870.117	84.165	870.117	85.1017	870.117	81.965	870.117	83.8273	870.117	79.4177	870.117	82.6085	870.117	76.5306	870.117	81.2655	870.117	73.9092	870.117	80.2887	870.117	74.7313	870.117	79.8954	870.117	77.1635	870.117	78.8091	870.117	78.3047	870.117	76.1595	870.117	78.0655	870.117	74.9449	870.117	76.889	870.117	77.7953	870.117	76.1414	870.117	78.9464	870.117	77.7196	870.117	78.7953	870.117	79.8607	870.117	79.7562	870.117	80.6132
900.879	89.1414	900.879	88.8352	900.879	89.0546	900.879	88.1133	900.879	88.7255	900.879	87.0163	900.879	88.2391	900.879	85.4882	900.879	87.535	900.879	83.3923	900.879	86.5897	900.879	80.8615	900.879	85.2976	900.879	78.693	900.879	83.3123	900.879	77.4716	900.879	80.5493	900.879	76.415	900.879	78.0119	900.879	74.581	900.879	77.243	900.879	73.3007	900.879	77.6679	900.879	74.8748	900.879	78.9676	900.879	76.5412	900.879	80.6822	900.879	76.325	900.879	81.1121	900.879	73.9347	900.879	79.6922	900.879	74.7784	900.879	78.4585	900.879	78.7274	900.879	79.7085	900.879	80.3597
933.105	89.2302	933.105	88.468	933.105	89.283	933.105	87.1203	933.105	88.6204	933.105	85.3206	933.105	87.4649	933.105	83.178	933.105	86.2146	933.105	80.9283	933.105	85.1129	933.105	79.1394	933.105	84.0725	933.105	78.0672	933.105	82.9596	933.105	77.1307	933.105	81.5146	933.105	75.9992	933.105	79.37	933.105	74.2851	933.105	78.1935	933.105	71.9531	933.105	77.8673	933.105	72.1077	933.105	75.8075	933.105	75.4081	933.105	75.4974	933.105	77.5127	933.105	78.6881	933.105	77.1833	933.105	79.3683	933.105	75.6818	933.105	78.4728	933.105	77.0566	933.105	78.9448	933.105	78.9825
965.332	88.8995	965.332	88.3886	965.332	89.0723	965.332	87.3827	965.332	88.8357	965.332	85.6388	965.332	88.0353	965.332	83.1583	965.332	86.8737	965.332	80.6916	965.332	85.6987	965.332	79.3577	965.332	84.5372	965.332	78.7296	965.332	83.5081	965.332	77.21	965.332	82.6141	965.332	75.69	965.332	80.9263	965.332	75.9677	965.332	78.223	965.332	75.7524	965.332	77.2996	965.332	73.8392	965.332	78.2802	965.332	72.9107	965.332	79.4563	965.332	76.3311	965.332	80.1925	965.332	77.6489	965.332	79.3475	965.332	75.8634	965.332	77.4538	965.332	75.0587	965.332	77.7425	965.332	77.4925
1,000.49	89.3116	1,000.49	88.65	1,000.49	89.2834	1,000.49	87.3194	1,000.49	88.6625	1,000.49	85.4382	1,000.49	87.7427	1,000.49	83.3356	1,000.49	86.8357	1,000.49	81.6357	1,000.49	85.8171	1,000.49	80.7621	1,000.49	84.3351	1,000.49	79.7449	1,000.49	82.5139	1,000.49	76.9597	1,000.49	80.8333	1,000.49	72.4874	1,000.49	79.5014	1,000.49	71.3323	1,000.49	78.7128	1,000.49	72.6341	1,000.49	77.361	1,000.49	73.4454	1,000.49	74.1272	1,000.49	74.1499	1,000.49	73.6577	1,000.49	75.6394	1,000.49	76.9044	1,000.49	76.1645	1,000.49	77.6845	1,000.49	75.1928	1,000.49	78.0316	1,000.49	75.8943	1,000.49	78.9248	1,000.49	78.2625
1,035.64	88.5363	1,035.64	87.9599	1,035.64	88.6799	1,035.64	86.721	1,035.64	88.4218	1,035.64	84.61	1,035.64	87.8597	1,035.64	81.7548	1,035.64	87.1766	1,035.64	79.1184	1,035.64	86.0375	1,035.64	78.6243	1,035.64	84.2318	1,035.64	79.3749	1,035.64	82.8009	1,035.64	78.5915	1,035.64	81.5056	1,035.64	75.0265	1,035.64	79.5999	1,035.64	69.4505	1,035.64	78.7848	1,035.64	69.7763	1,035.64	78.4847	1,035.64	70.5656	1,035.64	78.936	1,035.64	68.407	1,035.64	81.3585	1,035.64	73.2573	1,035.64	82.3755	1,035.64	76.3946	1,035.64	80.3037	1,035.64	75.4593	1,035.64	77.6866	1,035.64	72.6594	1,035.64	77.3615	1,035.64	75.3315
1,072.27	88.229	1,072.27	86.7059	1,072.27	88.9473	1,072.27	84.6076	1,072.27	88.8946	1,072.27	82.3269	1,072.27	88.0297	1,072.27	80.0186	1,072.27	86.8062	1,072.27	78.1006	1,072.27	86.0683	1,072.27	76.7623	1,072.27	85.4902	1,072.27	75.739	1,072.27	84.7347	1,072.27	76.9071	1,072.27	83.6049	1,072.27	77.3644	1,072.27	80.8946	1,072.27	75.8095	1,072.27	79.6425	1,072.27	74.9575	1,072.27	79.314	1,072.27	77.1274	1,072.27	77.1175	1,072.27	76.8511	1,072.27	78.1422	1,072.27	73.716	1,072.27	82.2131	1,072.27	73.7672	1,072.27	82.8214	1,072.27	76.1201	1,072.27	80.6521	1,072.27	76.8368	1,072.27	79	1,072.27	78.1113
1,108.89	86.7964	1,108.89	85.4802	1,108.89	88.0587	1,108.89	84.003	1,108.89	88.8237	1,108.89	82.0648	1,108.89	88.7767	1,108.89	80.8888	1,108.89	88.0643	1,108.89	80.8614	1,108.89	87.1435	1,108.89	80.5169	1,108.89	86.6545	1,108.89	78.0766	1,108.89	86.5129	1,108.89	73.7138	1,108.89	85.15	1,108.89	73.0564	1,108.89	81.1401	1,108.89	75.2588	1,108.89	76.8228	1,108.89	74.7615	1,108.89	79.922	1,108.89	73.4405	1,108.89	81.3163	1,108.89	74.5317	1,108.89	79.8106	1,108.89	75.0889	1,108.89	80.1056	1,108.89	74.0807	1,108.89	81.3367	1,108.89	72.0688	1,108.89	81.0542	1,108.89	73.3602	1,108.89	79.3504	1,108.89	76.9149
1,148.44	86.0033	1,148.44	85.8996	1,148.44	86.7063	1,148.44	85.7319	1,148.44	87.7625	1,148.44	85.6503	1,148.44	88.1653	1,148.44	85.9513	1,148.44	87.8196	1,148.44	85.0928	1,148.44	87.2052	1,148.44	82.3655	1,148.44	86.2576	1,148.44	78.9544	1,148.44	85.6548	1,148.44	76.1739	1,148.44	85.2722	1,148.44	73.9472	1,148.44	83.2861	1,148.44	73.7661	1,148.44	80.5592	1,148.44	75.4874	1,148.44	80.2915	1,148.44	75.2396	1,148.44	80.0912	1,148.44	75.2339	1,148.44	79.2897	1,148.44	76.8545	1,148.44	79.6214	1,148.44	77.3989	1,148.44	79.698	1,148.44	75.7157	1,148.44	78.1161	1,148.44	75.3459	1,148.44	77.6328	1,148.44	77.499
1,189.45	85.1651	1,189.45	85.5956	1,189.45	85.6969	1,189.45	86.2161	1,189.45	86.9524	1,189.45	86.8455	1,189.45	87.7434	1,189.45	87.0908	1,189.45	87.5902	1,189.45	86.2474	1,189.45	86.617	1,189.45	84.173	1,189.45	85.6093	1,189.45	82.0758	1,189.45	85.357	1,189.45	81.1188	1,189.45	84.7839	1,189.45	79.369	1,189.45	82.2923	1,189.45	75.6214	1,189.45	78.4751	1,189.45	71.5734	1,189.45	77.3893	1,189.45	73.3281	1,189.45	80.66	1,189.45	75.509	1,189.45	83.4901	1,189.45	75.3871	1,189.45	82.149	1,189.45	76.9267	1,189.45	80.4878	1,189.45	76.443	1,189.45	79.6781	1,189.45	67.4496	1,189.45	73.9129	1,189.45	66.3089
1,230.47	85.1044	1,230.47	85.3406	1,230.47	85.07	1,230.47	85.8335	1,230.47	85.7355	1,230.47	86.6833	1,230.47	86.7352	1,230.47	87.0936	1,230.47	87.2209	1,230.47	86.4798	1,230.47	86.6248	1,230.47	85.1907	1,230.47	85.4223	1,230.47	84.104	1,230.47	85.1005	1,230.47	83.1218	1,230.47	85.4647	1,230.47	81.7861	1,230.47	84.0872	1,230.47	79.8176	1,230.47	80.2042	1,230.47	77.4064	1,230.47	77.3434	1,230.47	74.0154	1,230.47	79.3714	1,230.47	75.7396	1,230.47	78.7717	1,230.47	78.7965	1,230.47	78.9846	1,230.47	79.0939	1,230.47	81.1531	1,230.47	77.4922	1,230.47	76.9526	1,230.47	74.0276	1,230.47	74.3497	1,230.47	72.4933
1,274.41	86.3566	1,274.41	88.2897	1,274.41	84.1156	1,274.41	88.8909	1,274.41	84.0562	1,274.41	88.8693	1,274.41	85.1679	1,274.41	88.7579	1,274.41	85.1334	1,274.41	87.9508	1,274.41	83.8865	1,274.41	86.3149	1,274.41	83.9581	1,274.41	85.2481	1,274.41	85.0055	1,274.41	84.0827	1,274.41	83.9182	1,274.41	81.7457	1,274.41	80.5261	1,274.41	81.1816	1,274.41	78.723	1,274.41	81.7984	1,274.41	79.1306	1,274.41	81.0576	1,274.41	78.6947	1,274.41	78.9	1,274.41	80.8819	1,274.41	79.4454	1,274.41	81.3263	1,274.41	79.5828	1,274.41	79.653	1,274.41	77.3286	1,274.41	75.8394	1,274.41	73.8388	1,274.41	71.2061	1,274.41	71.042
1,319.82	87.2356	1,319.82	89.0601	1,319.82	85.2353	1,319.82	90.3936	1,319.82	83.6214	1,319.82	90.6544	1,319.82	83.3693	1,319.82	89.4675	1,319.82	84.2389	1,319.82	87.3926	1,319.82	84.325	1,319.82	85.7321	1,319.82	82.7544	1,319.82	84.8784	1,319.82	82.6337	1,319.82	83.4198	1,319.82	83.4655	1,319.82	79.4529	1,319.82	81.6557	1,319.82	75.1072	1,319.82	77.4003	1,319.82	77.9416	1,319.82	72.0795	1,319.82	79.4753	1,319.82	79.171	1,319.82	77.5913	1,319.82	81.5078	1,319.82	78.3471	1,319.82	78.4392	1,319.82	79.9621	1,319.82	76.6511	1,319.82	78.5428	1,319.82	74.1389	1,319.82	73.8883	1,319.82	71.6588	1,319.82	70.5057
1,366.7	88.8758	1,366.7	89.9506	1,366.7	86.8982	1,366.7	90.3455	1,366.7	84.6364	1,366.7	90.1306	1,366.7	83.0116	1,366.7	88.776	1,366.7	82.6225	1,366.7	86.6019	1,366.7	82.4054	1,366.7	85.4536	1,366.7	81.4132	1,366.7	84.568	1,366.7	79.536	1,366.7	82.1384	1,366.7	78.3408	1,366.7	79.939	1,366.7	79.1165	1,366.7	77.2464	1,366.7	77.0571	1,366.7	73.9914	1,366.7	71.2413	1,366.7	78.0476	1,366.7	74.0101	1,366.7	79.4766	1,366.7	72.1792	1,366.7	76.2935	1,366.7	77.5437	1,366.7	76.0658	1,366.7	78.945	1,366.7	78.0082	1,366.7	72.945	1,366.7	73.8044	1,366.7	68.2627	1,366.7	62.7675
1,413.57	89.474	1,413.57	90.2879	1,413.57	88.4154	1,413.57	90.4861	1,413.57	86.8671	1,413.57	89.7523	1,413.57	84.5844	1,413.57	87.9736	1,413.57	81.9635	1,413.57	85.1807	1,413.57	77.7308	1,413.57	82.3579	1,413.57	73.7373	1,413.57	80.5372	1,413.57	74.5084	1,413.57	78.252	1,413.57	76.4484	1,413.57	76.6198	1,413.57	76.4626	1,413.57	76.4216	1,413.57	74.9966	1,413.57	73.326	1,413.57	71.3905	1,413.57	70.5518	1,413.57	62.4847	1,413.57	75.0683	1,413.57	74.1711	1,413.57	77.0964	1,413.57	75.444	1,413.57	76.8098	1,413.57	71.6363	1,413.57	75.6597	1,413.57	70.365	1,413.57	72.6093	1,413.57	68.2596	1,413.57	68.5027
1,463.38	89.0889	1,463.38	89.3892	1,463.38	88.6368	1,463.38	89.3162	1,463.38	87.6452	1,463.38	88.0625	1,463.38	85.9527	1,463.38	85.0728	1,463.38	83.5305	1,463.38	81.6202	1,463.38	79.9672	1,463.38	79.538	1,463.38	75.6435	1,463.38	76.0759	1,463.38	72.2286	1,463.38	71.3925	1,463.38	69.5687	1,463.38	66.0416	1,463.38	67.468	1,463.38	66.6306	1,463.38	65.1578	1,463.38	72.9001	1,463.38	69.4032	1,463.38	72.9857	1,463.38	70.2316	1,463.38	73.4093	1,463.38	69.9969	1,463.38	76.1161	1,463.38	70.1139	1,463.38	76.6463	1,463.38	71.724	1,463.38	75.4833	1,463.38	72.2202	1,463.38	73.6397	1,463.38	68.7256	1,463.38	70.6666
1,516.11	88.6795	1,516.11	88.0354	1,516.11	88.8825	1,516.11	87.3439	1,516.11	88.2128	1,516.11	86.003	1,516.11	87.1614	1,516.11	82.6333	1,516.11	86.2205	1,516.11	79.8374	1,516.11	83.3123	1,516.11	78.5621	1,516.11	79.1503	1,516.11	74.7671	1,516.11	76.3737	1,516.11	65.3249	1,516.11	73.7715	1,516.11	67.4665	1,516.11	70.1587	1,516.11	55.4868	1,516.11	71.6644	1,516.11	66.5264	1,516.11	69.9516	1,516.11	72.6285	1,516.11	71.8477	1,516.11	73.4101	1,516.11	71.7727	1,516.11	69.633	1,516.11	70.0025	1,516.11	71.748	1,516.11	73.5118	1,516.11	75.1456	1,516.11	73.2803	1,516.11	73.1547	1,516.11	68.1151	1,516.11	66.41
1,568.85	87.323	1,568.85	86.5001	1,568.85	87.8921	1,568.85	85.6718	1,568.85	87.6593	1,568.85	84.2992	1,568.85	86.3252	1,568.85	83.337	1,568.85	84.5549	1,568.85	83.4069	1,568.85	83.0195	1,568.85	79.3532	1,568.85	82.1362	1,568.85	73.0863	1,568.85	80.2222	1,568.85	76.0707	1,568.85	76.148	1,568.85	74.9713	1,568.85	74.7893	1,568.85	71.1541	1,568.85	74.5089	1,568.85	71.6026	1,568.85	66.8802	1,568.85	63.4493	1,568.85	71.4128	1,568.85	73.9551	1,568.85	70.9261	1,568.85	73.6072	1,568.85	71.8058	1,568.85	72.2432	1,568.85	75.897	1,568.85	74.3102	1,568.85	74.0869	1,568.85	73.2637	1,568.85	66.3461	1,568.85	68.3482
1,624.51	87.438	1,624.51	86.9483	1,624.51	88.1122	1,624.51	86.0769	1,624.51	88.2212	1,624.51	84.507	1,624.51	86.4367	1,624.51	83.8449	1,624.51	84.3219	1,624.51	83.0122	1,624.51	83.4062	1,624.51	79.1185	1,624.51	80.5987	1,624.51	76.9575	1,624.51	78.2968	1,624.51	77.1257	1,624.51	74.3658	1,624.51	74.6533	1,624.51	66.6348	1,624.51	71.6917	1,624.51	69.8302	1,624.51	74.7398	1,624.51	70.4395	1,624.51	71.804	1,624.51	70.674	1,624.51	65.0586	1,624.51	71.7868	1,624.51	75.2072	1,624.51	71.7941	1,624.51	71.8437	1,624.51	69.1353	1,624.51	68.3654	1,624.51	71.7461	1,624.51	71.5654	1,624.51	67.942	1,624.51	68.7494
1,681.64	87.5547	1,681.64	87.3746	1,681.64	89.0193	1,681.64	86.8541	1,681.64	88.1696	1,681.64	84.9209	1,681.64	86.4265	1,681.64	85.1241	1,681.64	85.1515	1,681.64	83.6574	1,681.64	84.0853	1,681.64	79.6593	1,681.64	81.4021	1,681.64	79.6656	1,681.64	79.3205	1,681.64	75.2476	1,681.64	78.4446	1,681.64	73.5613	1,681.64	74.9371	1,681.64	74.2291	1,681.64	77.5443	1,681.64	78.6537	1,681.64	79.5846	1,681.64	76.8989	1,681.64	76.9635	1,681.64	67.2912	1,681.64	67.1877	1,681.64	71.1185	1,681.64	77.3324	1,681.64	76.6265	1,681.64	72.6642	1,681.64	74.5271	1,681.64	72.1314	1,681.64	71.3917	1,681.64	72.9694	1,681.64	65.2395
1,741.7	87.372	1,741.7	87.5461	1,741.7	88.0432	1,741.7	86.3296	1,741.7	88.3019	1,741.7	85.6887	1,741.7	86.6166	1,741.7	85.9331	1,741.7	83.8358	1,741.7	83.9528	1,741.7	82.4938	1,741.7	83.0214	1,741.7	80.201	1,741.7	82.4589	1,741.7	80.0796	1,741.7	76.6006	1,741.7	81.197	1,741.7	73.1169	1,741.7	78.2062	1,741.7	73.6067	1,741.7	72.2217	1,741.7	71.5402	1,741.7	72.2051	1,741.7	72.2802	1,741.7	76.8741	1,741.7	67.7918	1,741.7	76.5881	1,741.7	69.6228	1,741.7	74.6102	1,741.7	78.0662	1,741.7	75.0805	1,741.7	76.753	1,741.7	73.8433	1,741.7	62.4586	1,741.7	70.3696	1,741.7	68.3725
1,803.22	88.8257	1,803.22	88.5605	1,803.22	87.7624	1,803.22	88.535	1,803.22	86.9398	1,803.22	88.252	1,803.22	87.1953	1,803.22	82.6514	1,803.22	80.0336	1,803.22	73.2468	1,803.22	86.8316	1,803.22	82.7826	1,803.22	87.569	1,803.22	88.1423	1,803.22	84.8839	1,803.22	83.8592	1,803.22	81.9476	1,803.22	78.0361	1,803.22	82.0614	1,803.22	79.3184	1,803.22	84.3069	1,803.22	81.7003	1,803.22	81.4948	1,803.22	80.974	1,803.22	73.8925	1,803.22	82.0953	1,803.22	82.7855	1,803.22	80.3647	1,803.22	78.3279	1,803.22	78.1564	1,803.22	77.4787	1,803.22	72.0126	1,803.22	78.4031	1,803.22	75.1307	1,803.22	56.91	1,803.22	69.3211
1,866.21	88.1103	1,866.21	87.7182	1,866.21	87.5609	1,866.21	88.0327	1,866.21	86.3042	1,866.21	86.3359	1,866.21	85.6224	1,866.21	81.2891	1,866.21	83.7548	1,866.21	80.1727	1,866.21	81.4328	1,866.21	78.9706	1,866.21	80.572	1,866.21	74.2338	1,866.21	78.6736	1,866.21	76.1634	1,866.21	76.1792	1,866.21	71.5008	1,866.21	77.6095	1,866.21	72.1894	1,866.21	75.9539	1,866.21	72.0458	1,866.21	70.2132	1,866.21	62.6616	1,866.21	73.9287	1,866.21	74.3371	1,866.21	66.9502	1,866.21	73.7223	1,866.21	74.2294	1,866.21	73.0127	1,866.21	69.1023	1,866.21	72.2701	1,866.21	72.7955	1,866.21	69.4851	1,866.21	68.4339	1,866.21	67.786
1,932.13	87.7713	1,932.13	87.4217	1,932.13	87.9197	1,932.13	87.7464	1,932.13	85.9203	1,932.13	85.6948	1,932.13	84.8212	1,932.13	83.0806	1,932.13	83.1814	1,932.13	80.5061	1,932.13	82.3041	1,932.13	75.3699	1,932.13	80.8882	1,932.13	77.8874	1,932.13	79.4646	1,932.13	75.6108	1,932.13	75.4114	1,932.13	73.9437	1,932.13	76.0678	1,932.13	73.6518	1,932.13	74.1183	1,932.13	69.6036	1,932.13	73.256	1,932.13	68.3304	1,932.13	72.2125	1,932.13	72.4491	1,932.13	70.4027	1,932.13	74.353	1,932.13	73.772	1,932.13	73.0328	1,932.13	70.0969	1,932.13	74.1673	1,932.13	74.0482	1,932.13	69.6451	1,932.13	69.8128	1,932.13	63.8435
1,999.51	88.9653	1,999.51	87.5334	1,999.51	88.7018	1,999.51	85.465	1,999.51	86.035	1,999.51	83.8874	1,999.51	83.0225	1,999.51	83.0123	1,999.51	83.3405	1,999.51	80.0929	1,999.51	83.6968	1,999.51	78.3628	1,999.51	81.3944	1,999.51	78.6516	1,999.51	79.6701	1,999.51	75.8722	1,999.51	76.3223	1,999.51	68.455	1,999.51	67.6111	1,999.51	66.658	1,999.51	66.1095	1,999.51	71.7256	1,999.51	73.8176	1,999.51	69.777	1,999.51	70.2843	1,999.51	71.2046	1,999.51	67.8362	1,999.51	75.1028	1,999.51	72.8459	1,999.51	71.0045	1,999.51	68.1785	1,999.51	70.9007	1,999.51	74.1541	1,999.51	68.8837	1,999.51	67.4967	1,999.51	64.253
2,069.82	89.3719	2,069.82	87.7415	2,069.82	89.457	2,069.82	84.0166	2,069.82	87.1481	2,069.82	82.7725	2,069.82	82.861	2,069.82	83.5068	2,069.82	82.1407	2,069.82	80.9776	2,069.82	84.3809	2,069.82	79.024	2,069.82	83.2134	2,069.82	77.5294	2,069.82	79.3776	2,069.82	75.8127	2,069.82	78.2536	2,069.82	76.7528	2,069.82	73.5446	2,069.82	73.7967	2,069.82	70.5453	2,069.82	67.3536	2,069.82	70.7637	2,069.82	73.1661	2,069.82	72.8723	2,069.82	69.7729	2,069.82	67.9894	2,069.82	73.5306	2,069.82	72.0881	2,069.82	71.6497	2,069.82	67.516	2,069.82	71.0526	2,069.82	71.148	2,069.82	70.3017	2,069.82	65.0763	2,069.82	66.6098
2,143.07	88.6353	2,143.07	87.9421	2,143.07	88.6462	2,143.07	85.0622	2,143.07	87.3539	2,143.07	82.4381	2,143.07	83.1246	2,143.07	82.6656	2,143.07	82.1175	2,143.07	81.2703	2,143.07	83.4425	2,143.07	80.886	2,143.07	83.7844	2,143.07	78.2927	2,143.07	80.1391	2,143.07	75.5069	2,143.07	76.9915	2,143.07	75.3373	2,143.07	73.5464	2,143.07	74.3423	2,143.07	73.2428	2,143.07	71.7946	2,143.07	72.5218	2,143.07	70.0686	2,143.07	74.4219	2,143.07	73.0257	2,143.07	68.8735	2,143.07	72.6719	2,143.07	67.5903	2,143.07	71.9194	2,143.07	68.3383	2,143.07	66.5595	2,143.07	70.526	2,143.07	66.9084	2,143.07	67.1627	2,143.07	68.9403
2,219.24	87.2837	2,219.24	86.8837	2,219.24	86.5501	2,219.24	85.1869	2,219.24	85.321	2,219.24	81.5554	2,219.24	82.9118	2,219.24	81.0235	2,219.24	84.2232	2,219.24	81.8872	2,219.24	83.0546	2,219.24	81.1183	2,219.24	83.5947	2,219.24	78.1248	2,219.24	79.8386	2,219.24	77.3394	2,219.24	74.2377	2,219.24	74.5922	2,219.24	75.8981	2,219.24	72.3472	2,219.24	71.2667	2,219.24	73.4105	2,219.24	72.5804	2,219.24	69.7417	2,219.24	71.9612	2,219.24	72.9722	2,219.24	70.8208	2,219.24	71.9464	2,219.24	63.2036	2,219.24	72.9804	2,219.24	67.3633	2,219.24	68.1093	2,219.24	68.7721	2,219.24	67.3336	2,219.24	65.3197	2,219.24	70.192
2,296.88	87.0991	2,296.88	86.1999	2,296.88	85.1128	2,296.88	84.4747	2,296.88	81.9021	2,296.88	81.6952	2,296.88	81.5773	2,296.88	80.6269	2,296.88	84.772	2,296.88	82.6081	2,296.88	84.442	2,296.88	81.5273	2,296.88	83.0067	2,296.88	79.7418	2,296.88	80.4639	2,296.88	78.4491	2,296.88	74.6319	2,296.88	76.045	2,296.88	74.8158	2,296.88	73.7835	2,296.88	70.8917	2,296.88	71.2037	2,296.88	71.3616	2,296.88	69.678	2,296.88	71.6003	2,296.88	72.7045	2,296.88	71.1212	2,296.88	71.9071	2,296.88	65.6824	2,296.88	73.248	2,296.88	63.5143	2,296.88	67.7351	2,296.88	66.4738	2,296.88	63.2127	2,296.88	64.1678	2,296.88	66.4395
2,378.91	88.5765	2,378.91	86.6427	2,378.91	86.4874	2,378.91	81.6706	2,378.91	80.7496	2,378.91	80.4024	2,378.91	80.0691	2,378.91	80.1334	2,378.91	84.3245	2,378.91	81.4896	2,378.91	85.195	2,378.91	80.9657	2,378.91	83.4079	2,378.91	78.8706	2,378.91	81.6688	2,378.91	76.6511	2,378.91	75.955	2,378.91	76.9134	2,378.91	72.6834	2,378.91	71.5855	2,378.91	72.9455	2,378.91	71.3376	2,378.91	69.6329	2,378.91	70.4409	2,378.91	69.0502	2,378.91	71.2063	2,378.91	72.6016	2,378.91	72.1885	2,378.91	69.1584	2,378.91	70.5734	2,378.91	65.7183	2,378.91	63.3995	2,378.91	60.5864	2,378.91	49.0382	2,378.91	64.55	2,378.91	67.5548
2,462.4	89.8185	2,462.4	88.0482	2,462.4	88.2346	2,462.4	81.3648	2,462.4	82.0087	2,462.4	78.8625	2,462.4	79.4031	2,462.4	80.4071	2,462.4	83.0953	2,462.4	80.0567	2,462.4	84.882	2,462.4	79.0644	2,462.4	83.5497	2,462.4	78.8992	2,462.4	81.6088	2,462.4	75.2876	2,462.4	76.6127	2,462.4	71.8116	2,462.4	69.3221	2,462.4	73.2833	2,462.4	71.545	2,462.4	71.142	2,462.4	74.3769	2,462.4	68.5846	2,462.4	63.7076	2,462.4	69.6734	2,462.4	74.4133	2,462.4	69.8542	2,462.4	68.6748	2,462.4	71.9702	2,462.4	67.1352	2,462.4	67.2102	2,462.4	59.1685	2,462.4	52.2101	2,462.4	65.9729	2,462.4	68.2772
2,548.83	89.3898	2,548.83	87.8382	2,548.83	88.155	2,548.83	80.7119	2,548.83	83.5148	2,548.83	77.3576	2,548.83	81.4497	2,548.83	81.0361	2,548.83	82.2421	2,548.83	79.9483	2,548.83	83.031	2,548.83	80.0321	2,548.83	83.0669	2,548.83	78.3078	2,548.83	78.9812	2,548.83	76.5231	2,548.83	78.535	2,548.83	75.0541	2,548.83	75.2712	2,548.83	71.0415	2,548.83	70.3008	2,548.83	69.6006	2,548.83	74.2973	2,548.83	70.1488	2,548.83	70.0598	2,548.83	68.761	2,548.83	73.6106	2,548.83	70.8019	2,548.83	69.7204	2,548.83	71.4049	2,548.83	65.7487	2,548.83	66.8591	2,548.83	62.4741	2,548.83	42.5387	2,548.83	66.3137	2,548.83	66.836
2,639.65	88.0094	2,639.65	84.9335	2,639.65	86.9985	2,639.65	75.6004	2,639.65	83.3946	2,639.65	73.4035	2,639.65	81.9382	2,639.65	79.9304	2,639.65	82.8287	2,639.65	81.6554	2,639.65	82.7348	2,639.65	81.0632	2,639.65	82.0683	2,639.65	78.5701	2,639.65	79.1751	2,639.65	76.1189	2,639.65	78.6014	2,639.65	71.984	2,639.65	76.1867	2,639.65	71.0239	2,639.65	69.2733	2,639.65	70.6686	2,639.65	71.8496	2,639.65	69.897	2,639.65	73.2678	2,639.65	70.3282	2,639.65	70.6409	2,639.65	70.1115	2,639.65	68.7965	2,639.65	70.8805	2,639.65	58.0284	2,639.65	67.3937	2,639.65	65.2914	2,639.65	50.3311	2,639.65	65.4657	2,639.65	68.5897
2,731.93	87.0014	2,731.93	82.011	2,731.93	86.5624	2,731.93	71.7861	2,731.93	83.2034	2,731.93	73.6864	2,731.93	81.3889	2,731.93	81.2317	2,731.93	83.1789	2,731.93	82.344	2,731.93	82.3696	2,731.93	80.7617	2,731.93	80.9577	2,731.93	77.8591	2,731.93	76.6449	2,731.93	75.1579	2,731.93	75.716	2,731.93	72.3819	2,731.93	75.1326	2,731.93	71.7638	2,731.93	67.3381	2,731.93	68.4847	2,731.93	69.1117	2,731.93	69.7023	2,731.93	71.2452	2,731.93	69.1222	2,731.93	70.8455	2,731.93	69.2981	2,731.93	63.0717	2,731.93	68.49	2,731.93	55.6598	2,731.93	66.1488	2,731.93	62.6594	2,731.93	57.1547	2,731.93	61.2308	2,731.93	62.8
2,828.61	86.4602	2,828.61	83.6629	2,828.61	86.173	2,828.61	73.2953	2,828.61	82.026	2,828.61	78.3395	2,828.61	79.1408	2,828.61	82.0236	2,828.61	82.5324	2,828.61	81.9002	2,828.61	83.0942	2,828.61	79.0418	2,828.61	80.8961	2,828.61	76.6612	2,828.61	76.3115	2,828.61	75.3076	2,828.61	76.3888	2,828.61	72.9224	2,828.61	74.1509	2,828.61	69.3398	2,828.61	60.767	2,828.61	67.5361	2,828.61	66.1684	2,828.61	68.961	2,828.61	70.0967	2,828.61	67.8877	2,828.61	69.3688	2,828.61	69.5321	2,828.61	65.2636	2,828.61	69.2905	2,828.61	59.4008	2,828.61	65.0204	2,828.61	60.9551	2,828.61	58.0387	2,828.61	62.4151	2,828.61	64.2214
2,928.22	86.7696	2,928.22	84.9696	2,928.22	85.5715	2,928.22	72.2444	2,928.22	80.0743	2,928.22	80.4785	2,928.22	76.2524	2,928.22	82.6891	2,928.22	82.362	2,928.22	82.1246	2,928.22	83.1292	2,928.22	80.5088	2,928.22	81.535	2,928.22	78.8216	2,928.22	77.6701	2,928.22	75.6152	2,928.22	75.7913	2,928.22	73.435	2,928.22	69.9092	2,928.22	72.0657	2,928.22	59.8116	2,928.22	70.8512	2,928.22	47.1676	2,928.22	70.7516	2,928.22	68.3697	2,928.22	67.7013	2,928.22	65.7484	2,928.22	70.2777	2,928.22	65.2461	2,928.22	71.2768	2,928.22	56.6498	2,928.22	68.1389	2,928.22	60.9073	2,928.22	61.1374	2,928.22	65.2419	2,928.22	62.9301
3,030.76	86.5746	3,030.76	84.5675	3,030.76	84.6082	3,030.76	67.8319	3,030.76	78.1779	3,030.76	81.1526	3,030.76	70.9599	3,030.76	83.4902	3,030.76	81.2214	3,030.76	82.7811	3,030.76	82.5041	3,030.76	80.6881	3,030.76	81.2084	3,030.76	78.2416	3,030.76	78.4886	3,030.76	76.8436	3,030.76	76.004	3,030.76	74.5074	3,030.76	65.9021	3,030.76	71.7323	3,030.76	61.6153	3,030.76	69.8249	3,030.76	64.2402	3,030.76	69.5929	3,030.76	65.5487	3,030.76	68.4002	3,030.76	65.9493	3,030.76	68.6656	3,030.76	60.0753	3,030.76	71.0201	3,030.76	54.5226	3,030.76	68.6706	3,030.76	62.3856	3,030.76	60.6238	3,030.76	64.8531	3,030.76	64.4501
3,137.7	86.6049	3,137.7	83.6735	3,137.7	84.3266	3,137.7	62.4389	3,137.7	76.5392	3,137.7	81.9453	3,137.7	68.6576	3,137.7	83.9051	3,137.7	80.3133	3,137.7	82.913	3,137.7	81.8739	3,137.7	81.2579	3,137.7	80.1354	3,137.7	78.4726	3,137.7	78.6919	3,137.7	75.2654	3,137.7	75.9804	3,137.7	69.6175	3,137.7	60.0405	3,137.7	68.1978	3,137.7	56.0637	3,137.7	67.506	3,137.7	61.3366	3,137.7	68.687	3,137.7	66.4988	3,137.7	68.318	3,137.7	63.1533	3,137.7	67.4535	3,137.7	63.4196	3,137.7	69.608	3,137.7	52.4722	3,137.7	68.0981	3,137.7	63.9212	3,137.7	58.5029	3,137.7	64.2919	3,137.7	63.5581
3,249.02	86.5578	3,249.02	82.3274	3,249.02	84.4049	3,249.02	69.4081	3,249.02	74.6716	3,249.02	81.9529	3,249.02	75.2563	3,249.02	84.3701	3,249.02	79.6703	3,249.02	83.5372	3,249.02	80.3242	3,249.02	80.44	3,249.02	80.4167	3,249.02	75.356	3,249.02	80.0745	3,249.02	72.6005	3,249.02	75.3718	3,249.02	71.7133	3,249.02	65.4631	3,249.02	67.1523	3,249.02	63.2751	3,249.02	65.5951	3,249.02	64.3937	3,249.02	67.6041	3,249.02	62.1597	3,249.02	68.0743	3,249.02	61.233	3,249.02	67.0185	3,249.02	60.4273	3,249.02	67.9326	3,249.02	58.5621	3,249.02	65.4068	3,249.02	64.6123	3,249.02	57.8406	3,249.02	63.8719	3,249.02	57.1242
3,363.28	86.772	3,363.28	82.3424	3,363.28	84.5064	3,363.28	73.0131	3,363.28	72.9435	3,363.28	82.8353	3,363.28	78.1549	3,363.28	84.8169	3,363.28	80.3123	3,363.28	82.03	3,363.28	78.4989	3,363.28	77.1909	3,363.28	80.8393	3,363.28	74.1141	3,363.28	81.4134	3,363.28	73.3851	3,363.28	75.5494	3,363.28	67.7054	3,363.28	69.5859	3,363.28	66.0819	3,363.28	71.5079	3,363.28	63.5854	3,363.28	58.8395	3,363.28	64.9406	3,363.28	63.6072	3,363.28	67.0746	3,363.28	62.9276	3,363.28	65.5332	3,363.28	57.9245	3,363.28	67.5219	3,363.28	60.9135	3,363.28	63.7883	3,363.28	65.4481	3,363.28	49.3193	3,363.28	63.2355	3,363.28	57.6199
3,481.93	87.1421	3,481.93	81.7643	3,481.93	84.4617	3,481.93	75.7827	3,481.93	73.3256	3,481.93	84.3511	3,481.93	79.1471	3,481.93	84.5773	3,481.93	82.0924	3,481.93	81.2959	3,481.93	76.1118	3,481.93	77.3569	3,481.93	81.4657	3,481.93	74.5772	3,481.93	82.1328	3,481.93	71.4927	3,481.93	76.9997	3,481.93	72.933	3,481.93	71.7366	3,481.93	68.6278	3,481.93	75.0342	3,481.93	67.2656	3,481.93	64.0249	3,481.93	65.2145	3,481.93	58.5277	3,481.93	67.5658	3,481.93	59.1288	3,481.93	62.7923	3,481.93	61.5634	3,481.93	67.6883	3,481.93	63.4179	3,481.93	65.5554	3,481.93	63.6018	3,481.93	53.8219	3,481.93	64.6383	3,481.93	58.328
3,604.98	88.3243	3,604.98	81.369	3,604.98	85.7524	3,604.98	77.9278	3,604.98	68.2054	3,604.98	85.2931	3,604.98	80.8599	3,604.98	83.951	3,604.98	83.0622	3,604.98	80.1356	3,604.98	77.5719	3,604.98	76.9894	3,604.98	83.4625	3,604.98	76.3033	3,604.98	80.0183	3,604.98	74.6933	3,604.98	77.8902	3,604.98	70.2412	3,604.98	76.564	3,604.98	67.3642	3,604.98	76.583	3,604.98	68.1932	3,604.98	70.9847	3,604.98	64.3279	3,604.98	55.4694	3,604.98	69.3549	3,604.98	63.5164	3,604.98	63.8894	3,604.98	60.7982	3,604.98	67.577	3,604.98	61.9252	3,604.98	65.0072	3,604.98	64.9899	3,604.98	57.3831	3,604.98	64.4366	3,604.98	58.8186
3,732.42	89.5085	3,732.42	82.3776	3,732.42	88.2152	3,732.42	80.1682	3,732.42	69.9199	3,732.42	86.7754	3,732.42	82.8754	3,732.42	83.8674	3,732.42	84.5754	3,732.42	80.7732	3,732.42	77.2578	3,732.42	76.8783	3,732.42	83.7662	3,732.42	77.4478	3,732.42	81.0093	3,732.42	72.5985	3,732.42	77.695	3,732.42	73.4172	3,732.42	74.749	3,732.42	69.2559	3,732.42	78.8146	3,732.42	68.1063	3,732.42	73.0519	3,732.42	66.028	3,732.42	65.8481	3,732.42	70.7272	3,732.42	63.9945	3,732.42	67.3026	3,732.42	59.7871	3,732.42	69.0034	3,732.42	63.8835	3,732.42	65.7595	3,732.42	66.0741	3,732.42	60.4807	3,732.42	65.3364	3,732.42	54.3431
3,864.26	88.5471	3,864.26	79.2249	3,864.26	88.384	3,864.26	83.0801	3,864.26	73.2845	3,864.26	86.9946	3,864.26	84.3083	3,864.26	83.2141	3,864.26	85.9204	3,864.26	81.5828	3,864.26	78.5163	3,864.26	80.7204	3,864.26	84.0161	3,864.26	78.4937	3,864.26	81.4148	3,864.26	78.7909	3,864.26	77.4341	3,864.26	74.6676	3,864.26	64.4536	3,864.26	70.7126	3,864.26	77.2199	3,864.26	68.852	3,864.26	72.7985	3,864.26	65.9893	3,864.26	63.4701	3,864.26	70.2743	3,864.26	64.8891	3,864.26	67.1099	3,864.26	61.4974	3,864.26	71.0432	3,864.26	62.4312	3,864.26	67.9418	3,864.26	68.7364	3,864.26	59.9359	3,864.26	65.7193	3,864.26	57.0132
4,000.49	88.4587	4,000.49	74.7791	4,000.49	88.8433	4,000.49	85.3268	4,000.49	75.1018	4,000.49	86.087	4,000.49	85.3501	4,000.49	82.6222	4,000.49	84.7881	4,000.49	82.3414	4,000.49	79.4641	4,000.49	79.8341	4,000.49	81.9104	4,000.49	78.5869	4,000.49	78.3291	4,000.49	74.2167	4,000.49	77.215	4,000.49	66.4629	4,000.49	70.0926	4,000.49	65.7762	4,000.49	76.163	4,000.49	62.6411	4,000.49	71.5717	4,000.49	64.3209	4,000.49	64.4158	4,000.49	68.504	4,000.49	60.8797	4,000.49	65.5815	4,000.49	60.0799	4,000.49	67.8038	4,000.49	64.2168	4,000.49	67.3828	4,000.49	68.1255	4,000.49	51.8213	4,000.49	63.5915	4,000.49	61.149
4,141.11	87.3964	4,141.11	79.0879	4,141.11	89.8477	4,141.11	86.3016	4,141.11	80.474	4,141.11	86.3926	4,141.11	86.4039	4,141.11	83.906	4,141.11	85.6656	4,141.11	81.2727	4,141.11	80.193	4,141.11	79.7683	4,141.11	78.3595	4,141.11	71.8724	4,141.11	80.1473	4,141.11	74.4625	4,141.11	77.7764	4,141.11	70.7904	4,141.11	73.8906	4,141.11	66.6546	4,141.11	75.5121	4,141.11	64.6749	4,141.11	71.4001	4,141.11	65.6105	4,141.11	59.7289	4,141.11	65.3196	4,141.11	62.488	4,141.11	65.0654	4,141.11	59.3904	4,141.11	67.6441	4,141.11	62.9594	4,141.11	64.9994	4,141.11	67.6852	4,141.11	62.4715	4,141.11	63.3604	4,141.11	58.4119
4,287.6	87.5961	4,287.6	80.3141	4,287.6	88.8477	4,287.6	87.6864	4,287.6	82.2923	4,287.6	86.1872	4,287.6	85.2057	4,287.6	83.4604	4,287.6	86.1376	4,287.6	81.6444	4,287.6	78.3597	4,287.6	74.5659	4,287.6	80.7376	4,287.6	75.7962	4,287.6	83.4698	4,287.6	70.0128	4,287.6	82.0499	4,287.6	74.3455	4,287.6	72.2288	4,287.6	68.9594	4,287.6	74.3025	4,287.6	66.8359	4,287.6	70.2459	4,287.6	66.9671	4,287.6	60.7152	4,287.6	65.1791	4,287.6	59.6597	4,287.6	67.4834	4,287.6	58.7348	4,287.6	67.9759	4,287.6	61.574	4,287.6	65.736	4,287.6	67.2235	4,287.6	60.9396	4,287.6	62.2791	4,287.6	54.2679
4,438.48	88.2105	4,438.48	84.2261	4,438.48	89.2283	4,438.48	87.926	4,438.48	83.4116	4,438.48	86.3888	4,438.48	84.9956	4,438.48	84.9641	4,438.48	85.2414	4,438.48	79.6691	4,438.48	78.8007	4,438.48	78.6487	4,438.48	81.6799	4,438.48	76.7212	4,438.48	85.8946	4,438.48	78.5233	4,438.48	81.3036	4,438.48	71.5921	4,438.48	67.6158	4,438.48	70.2899	4,438.48	67.08	4,438.48	70.5791	4,438.48	69.643	4,438.48	69.4769	4,438.48	63.3895	4,438.48	68.6159	4,438.48	61.4166	4,438.48	67.8434	4,438.48	66.3454	4,438.48	69.7243	4,438.48	65.9645	4,438.48	67.8011	4,438.48	68.0102	4,438.48	65.4245	4,438.48	63.2858	4,438.48	50.6214
4,595.21	87.319	4,595.21	83.6097	4,595.21	88.8573	4,595.21	87.8303	4,595.21	84.1642	4,595.21	87.4675	4,595.21	86.2972	4,595.21	83.5986	4,595.21	85.1934	4,595.21	81.087	4,595.21	74.1798	4,595.21	79.6522	4,595.21	82.7646	4,595.21	79.7537	4,595.21	84.6775	4,595.21	76.6331	4,595.21	80.4673	4,595.21	75.7842	4,595.21	66.327	4,595.21	72.4874	4,595.21	66.1948	4,595.21	69.8714	4,595.21	55.5447	4,595.21	67.8019	4,595.21	63.7245	4,595.21	67.1026	4,595.21	61.8906	4,595.21	69.3272	4,595.21	62.1428	4,595.21	69.8523	4,595.21	67.1217	4,595.21	68.463	4,595.21	66.7461	4,595.21	68.1274	4,595.21	63.3316	4,595.21	52.825
4,756.35	88.5163	4,756.35	85.8882	4,756.35	89.8374	4,756.35	89.4642	4,756.35	83.863	4,756.35	87.7895	4,756.35	87.374	4,756.35	84.4329	4,756.35	86.2291	4,756.35	82.5023	4,756.35	75.0531	4,756.35	81.7238	4,756.35	81.0386	4,756.35	79.874	4,756.35	81.8845	4,756.35	79.1942	4,756.35	79.4504	4,756.35	74.9446	4,756.35	71.7367	4,756.35	71.6404	4,756.35	70.0462	4,756.35	69.4109	4,756.35	44.0219	4,756.35	70.0048	4,756.35	64.8395	4,756.35	67.3713	4,756.35	60.0827	4,756.35	69.9812	4,756.35	58.7901	4,756.35	71.0445	4,756.35	64.5982	4,756.35	68.6981	4,756.35	64.0048	4,756.35	68.2154	4,756.35	64.7698	4,756.35	59.4237
4,924.8	88.2454	4,924.8	86.3837	4,924.8	90.1421	4,924.8	89.2231	4,924.8	85.8205	4,924.8	87.4641	4,924.8	88.1227	4,924.8	84.2012	4,924.8	87.215	4,924.8	83.4514	4,924.8	77.9881	4,924.8	82.292	4,924.8	79.2512	4,924.8	79.851	4,924.8	81.137	4,924.8	78.2591	4,924.8	80.0585	4,924.8	75.7896	4,924.8	66.9082	4,924.8	72.2218	4,924.8	71.6796	4,924.8	70.3848	4,924.8	49.6933	4,924.8	70.4813	4,924.8	69.9858	4,924.8	67.8259	4,924.8	60.7881	4,924.8	71.2764	4,924.8	60.371	4,924.8	70.4736	4,924.8	65.8317	4,924.8	68.9254	4,924.8	62.8981	4,924.8	68.6486	4,924.8	64.8683	4,924.8	54.0235
5,097.66	88.1914	5,097.66	86.6273	5,097.66	89.3854	5,097.66	90.0242	5,097.66	87.9849	5,097.66	87.4569	5,097.66	87.8533	5,097.66	85.1688	5,097.66	86.5468	5,097.66	83.9308	5,097.66	81.081	5,097.66	82.2232	5,097.66	78.5679	5,097.66	80.7994	5,097.66	79.4739	5,097.66	78.0715	5,097.66	80.1812	5,097.66	76.0063	5,097.66	76.9224	5,097.66	72.5662	5,097.66	64.3478	5,097.66	70.2659	5,097.66	42.3996	5,097.66	70.4722	5,097.66	67.9345	5,097.66	68.0377	5,097.66	58.1478	5,097.66	71.496	5,097.66	60.9211	5,097.66	69.6433	5,097.66	65.4646	5,097.66	70.095	5,097.66	61.4848	5,097.66	70.8362	5,097.66	67.024	5,097.66	57.2488
5,277.83	88.7704	5,277.83	87.7488	5,277.83	89.4869	5,277.83	89.9923	5,277.83	87.534	5,277.83	87.0882	5,277.83	87.5673	5,277.83	85.6884	5,277.83	85.5919	5,277.83	85.1291	5,277.83	82.9513	5,277.83	82.9044	5,277.83	76.8982	5,277.83	79.9505	5,277.83	81.0598	5,277.83	78.5189	5,277.83	80.258	5,277.83	75.5714	5,277.83	76.9843	5,277.83	71.5649	5,277.83	66.1342	5,277.83	68.1043	5,277.83	57.4406	5,277.83	70.5467	5,277.83	63.9964	5,277.83	68.1351	5,277.83	56.2913	5,277.83	72.0569	5,277.83	65.215	5,277.83	69.4553	5,277.83	67.5922	5,277.83	70.5995	5,277.83	58.7683	5,277.83	69.1437	5,277.83	63.3089	5,277.83	57.0802
5,463.87	88.7713	5,463.87	87.7477	5,463.87	89.2205	5,463.87	90.0265	5,463.87	86.9464	5,463.87	86.9585	5,463.87	88.2569	5,463.87	85.8346	5,463.87	86.4075	5,463.87	84.8451	5,463.87	84.0575	5,463.87	82.968	5,463.87	78.6418	5,463.87	80.0295	5,463.87	83.3915	5,463.87	76.3972	5,463.87	80.5233	5,463.87	75.4697	5,463.87	71.9432	5,463.87	71.2025	5,463.87	68.1242	5,463.87	69.4308	5,463.87	58.466	5,463.87	69.8849	5,463.87	61.297	5,463.87	66.4752	5,463.87	57.1809	5,463.87	71.4999	5,463.87	61.3891	5,463.87	68.8263	5,463.87	67.1486	5,463.87	71.168	5,463.87	60.5113	5,463.87	68.7845	5,463.87	62.9376	5,463.87	56.4672
5,657.23	88.9035	5,657.23	87.7709	5,657.23	89.7002	5,657.23	89.7574	5,657.23	88.9555	5,657.23	87.117	5,657.23	88.7474	5,657.23	86.4322	5,657.23	86.6583	5,657.23	85.5681	5,657.23	84.4551	5,657.23	82.2735	5,657.23	79.0522	5,657.23	80.1414	5,657.23	83.8795	5,657.23	77.0609	5,657.23	82.233	5,657.23	74.4962	5,657.23	77.6482	5,657.23	70.6739	5,657.23	60.2521	5,657.23	68.6668	5,657.23	61.708	5,657.23	69.5895	5,657.23	62.0552	5,657.23	67.7541	5,657.23	61.3081	5,657.23	71.1009	5,657.23	50.0785	5,657.23	68.7922	5,657.23	65.3076	5,657.23	69.608	5,657.23	57.5987	5,657.23	69.9727	5,657.23	64.2264	5,657.23	53.5704
5,856.45	88.6826	5,856.45	88.1267	5,856.45	89.4425	5,856.45	89.7067	5,856.45	88.3169	5,856.45	86.8014	5,856.45	89.6286	5,856.45	86.8057	5,856.45	86.4415	5,856.45	85.1938	5,856.45	84.6899	5,856.45	82.493	5,856.45	76.9222	5,856.45	78.9603	5,856.45	83.6593	5,856.45	76.8323	5,856.45	80.2337	5,856.45	74.9837	5,856.45	80.3499	5,856.45	70.2914	5,856.45	64.6795	5,856.45	67.1234	5,856.45	58.2251	5,856.45	69.5152	5,856.45	47.1154	5,856.45	66.98	5,856.45	63.8411	5,856.45	70.5648	5,856.45	61.9469	5,856.45	67.4377	5,856.45	66.3492	5,856.45	70.6776	5,856.45	58.7153	5,856.45	67.1018	5,856.45	60.262	5,856.45	56.5954
6,062.99	87.6136	6,062.99	89.2261	6,062.99	89.8847	6,062.99	89.0686	6,062.99	85.0566	6,062.99	87.6899	6,062.99	89.8931	6,062.99	86.4298	6,062.99	85.9088	6,062.99	85.1785	6,062.99	85.5589	6,062.99	82.661	6,062.99	77.5146	6,062.99	79.658	6,062.99	83.5709	6,062.99	76.7965	6,062.99	75.3416	6,062.99	75.9221	6,062.99	78.5189	6,062.99	69.8576	6,062.99	66.338	6,062.99	69.2214	6,062.99	55.3667	6,062.99	69.812	6,062.99	61.0796	6,062.99	66.9097	6,062.99	67.3979	6,062.99	70.6783	6,062.99	68.9776	6,062.99	67.1302	6,062.99	66.2434	6,062.99	70.9415	6,062.99	55.9874	6,062.99	68.8642	6,062.99	58.3886	6,062.99	48.443
6,276.86	87.6129	6,276.86	88.4926	6,276.86	90.6594	6,276.86	88.2849	6,276.86	87.1381	6,276.86	87.3299	6,276.86	87.6511	6,276.86	86.6756	6,276.86	87.6705	6,276.86	85.1054	6,276.86	86.2864	6,276.86	82.4011	6,276.86	77.3503	6,276.86	79.5984	6,276.86	80.3317	6,276.86	75.8517	6,276.86	77.3656	6,276.86	73.8161	6,276.86	74.2404	6,276.86	68.7212	6,276.86	61.3054	6,276.86	66.4643	6,276.86	59.0461	6,276.86	67.466	6,276.86	60.0868	6,276.86	67.5702	6,276.86	66.402	6,276.86	70.0288	6,276.86	64.7598	6,276.86	67.3365	6,276.86	65.6356	6,276.86	70.2677	6,276.86	60.8279	6,276.86	65.461	6,276.86	52.6749	6,276.86	61.7055
6,498.05	87.5043	6,498.05	89.2765	6,498.05	89.3696	6,498.05	88.0792	6,498.05	87.8951	6,498.05	87.1026	6,498.05	86.6379	6,498.05	87.0216	6,498.05	87.9697	6,498.05	84.9737	6,498.05	87.2502	6,498.05	81.689	6,498.05	77.9977	6,498.05	78.3727	6,498.05	75.1526	6,498.05	73.8341	6,498.05	81.0239	6,498.05	73.6552	6,498.05	74.276	6,498.05	68.4486	6,498.05	64.1698	6,498.05	67.7331	6,498.05	59.7938	6,498.05	68.3439	6,498.05	50.0411	6,498.05	63.9684	6,498.05	66.5093	6,498.05	69.2144	6,498.05	63.5417	6,498.05	67.8202	6,498.05	59.6364	6,498.05	67.9835	6,498.05	58.1711	6,498.05	67.3741	6,498.05	60.7226	6,498.05	61.7761
6,726.56	88.5386	6,726.56	88.5591	6,726.56	89.4156	6,726.56	87.7646	6,726.56	85.6076	6,726.56	87.2543	6,726.56	87.5381	6,726.56	86.4494	6,726.56	86.5854	6,726.56	84.5805	6,726.56	88.0199	6,726.56	81.2345	6,726.56	80.0788	6,726.56	79.6132	6,726.56	80.8291	6,726.56	77.3962	6,726.56	80.7903	6,726.56	73.988	6,726.56	67.6205	6,726.56	68.8576	6,726.56	67.3889	6,726.56	65.5695	6,726.56	60.3664	6,726.56	65.765	6,726.56	53.8939	6,726.56	67.1004	6,726.56	66.5414	6,726.56	69.5115	6,726.56	58.6852	6,726.56	66.8142	6,726.56	56.7636	6,726.56	68.1924	6,726.56	59.1766	6,726.56	68.0852	6,726.56	52.2696	6,726.56	60.3918
6,963.87	88.2085	6,963.87	88.223	6,963.87	89.5774	6,963.87	87.1806	6,963.87	87.4044	6,963.87	86.8139	6,963.87	86.1262	6,963.87	86.2059	6,963.87	81.5909	6,963.87	84.2352	6,963.87	88.3946	6,963.87	81.7815	6,963.87	78.8169	6,963.87	79.7394	6,963.87	79.3034	6,963.87	74.7473	6,963.87	80.0352	6,963.87	73.0455	6,963.87	72.3285	6,963.87	68.3579	6,963.87	64.3891	6,963.87	64.9263	6,963.87	54.4282	6,963.87	65.6982	6,963.87	62.479	6,963.87	66.6654	6,963.87	61.2261	6,963.87	68.9238	6,963.87	58.7152	6,963.87	65.605	6,963.87	65.0063	6,963.87	65.9389	6,963.87	56.2766	6,963.87	67.684	6,963.87	55.0617	6,963.87	59.7134
7,209.96	88.7083	7,209.96	88.2144	7,209.96	88.7192	7,209.96	87.4062	7,209.96	86.135	7,209.96	86.9546	7,209.96	85.0708	7,209.96	85.5056	7,209.96	83.7416	7,209.96	84.2416	7,209.96	87.7188	7,209.96	81.8526	7,209.96	79.8946	7,209.96	78.5008	7,209.96	79.9516	7,209.96	75.1628	7,209.96	78.1618	7,209.96	72.7174	7,209.96	74.1939	7,209.96	68.5781	7,209.96	67.2761	7,209.96	62.3109	7,209.96	51.6868	7,209.96	64.8882	7,209.96	55.6821	7,209.96	67.5031	7,209.96	59.8086	7,209.96	67.5959	7,209.96	60.1406	7,209.96	65.429	7,209.96	62.8435	7,209.96	67.8284	7,209.96	53.9412	7,209.96	67.286	7,209.96	54.3371	7,209.96	61.7801
7,464.84	87.8335	7,464.84	88.2799	7,464.84	89.6422	7,464.84	86.8121	7,464.84	86.7365	7,464.84	86.0964	7,464.84	86.4853	7,464.84	85.6633	7,464.84	87.4896	7,464.84	83.8455	7,464.84	85.3853	7,464.84	81.2875	7,464.84	81.2905	7,464.84	78.5198	7,464.84	76.7329	7,464.84	73.898	7,464.84	76.2431	7,464.84	71.14	7,464.84	74.0759	7,464.84	68.0941	7,464.84	63.9821	7,464.84	61.4779	7,464.84	58.4355	7,464.84	63.6979	7,464.84	54.1351	7,464.84	67.783	7,464.84	60.0228	7,464.84	67.5112	7,464.84	41.9899	7,464.84	65.2199	7,464.84	58.9821	7,464.84	67.8709	7,464.84	57.6652	7,464.84	67.7936	7,464.84	54.6708	7,464.84	62.3038
7,727.05	88.0367	7,727.05	88.261	7,727.05	88.1721	7,727.05	86.5724	7,727.05	86.9122	7,727.05	86.4898	7,727.05	86.2343	7,727.05	85.5056	7,727.05	87.3711	7,727.05	83.9714	7,727.05	82.9141	7,727.05	81.114	7,727.05	80.4561	7,727.05	78.7847	7,727.05	72.6541	7,727.05	75.5118	7,727.05	76.0178	7,727.05	72.5617	7,727.05	69.0548	7,727.05	67.7691	7,727.05	55.6526	7,727.05	62.1383	7,727.05	59.4421	7,727.05	64.7686	7,727.05	53.4383	7,727.05	66.2946	7,727.05	57.2372	7,727.05	67.0464	7,727.05	60.1291	7,727.05	67.4042	7,727.05	61.5347	7,727.05	68.683	7,727.05	52.2477	7,727.05	68.0189	7,727.05	57.7331	7,727.05	62.601
7,999.51	88.1065	7,999.51	87.8401	7,999.51	88.1635	7,999.51	86.857	7,999.51	85.9118	7,999.51	86.3308	7,999.51	82.7977	7,999.51	85.2793	7,999.51	85.3483	7,999.51	83.9678	7,999.51	80.854	7,999.51	81.5266	7,999.51	79.0577	7,999.51	78.9586	7,999.51	71.8414	7,999.51	75.1097	7,999.51	78.0972	7,999.51	69.9538	7,999.51	71.0298	7,999.51	68.0088	7,999.51	62.8404	7,999.51	57.3709	7,999.51	57.7665	7,999.51	64.2263	7,999.51	51.503	7,999.51	66.6828	7,999.51	49.7864	7,999.51	67.4853	7,999.51	63.1669	7,999.51	67.0868	7,999.51	60.877	7,999.51	68.0483	7,999.51	47.9377	7,999.51	67.9409	7,999.51	47.1661	7,999.51	62.0336
8,282.23	88.3833	8,282.23	88.3902	8,282.23	87.0452	8,282.23	87.931	8,282.23	87.5472	8,282.23	86.502	8,282.23	85.9156	8,282.23	85.5316	8,282.23	83.7772	8,282.23	83.9328	8,282.23	79.4091	8,282.23	81.4126	8,282.23	77.2956	8,282.23	78.3412	8,282.23	76.5242	8,282.23	75.0634	8,282.23	77.935	8,282.23	70.8269	8,282.23	69.0233	8,282.23	67.3639	8,282.23	64.9696	8,282.23	58.493	8,282.23	60.1433	8,282.23	62.838	8,282.23	57.8953	8,282.23	64.1768	8,282.23	59.5236	8,282.23	66.4652	8,282.23	63.1266	8,282.23	66.8455	8,282.23	60.0242	8,282.23	67.3264	8,282.23	54.8971	8,282.23	66.824	8,282.23	55.8837	8,282.23	62.8661
8,573.73	88.8207	8,573.73	88.9489	8,573.73	88.3938	8,573.73	87.8858	8,573.73	87.1624	8,573.73	86.7832	8,573.73	88.5431	8,573.73	85.5525	8,573.73	82.2874	8,573.73	82.8602	8,573.73	79.6205	8,573.73	80.468	8,573.73	78.4291	8,573.73	78.4167	8,573.73	76.1133	8,573.73	74.1891	8,573.73	77.5039	8,573.73	69.3375	8,573.73	61.3163	8,573.73	66.3962	8,573.73	59.7568	8,573.73	54.0039	8,573.73	55.8251	8,573.73	59.9082	8,573.73	58.075	8,573.73	64.8688	8,573.73	60.4236	8,573.73	65.5284	8,573.73	63.6493	8,573.73	65.5158	8,573.73	61.7386	8,573.73	65.1746	8,573.73	48.556	8,573.73	66.8351	8,573.73	55.068	8,573.73	61.5175
8,876.95	89.3313	8,876.95	89.5697	8,876.95	89.2667	8,876.95	88.5016	8,876.95	88.6006	8,876.95	87.0327	8,876.95	87.3988	8,876.95	84.8206	8,876.95	83.6771	8,876.95	81.7541	8,876.95	80.7402	8,876.95	79.4291	8,876.95	81.8834	8,876.95	76.4952	8,876.95	74.0743	8,876.95	71.5323	8,876.95	71.99	8,876.95	67.1199	8,876.95	56.3595	8,876.95	66.3523	8,876.95	64.3484	8,876.95	49.7891	8,876.95	60.1187	8,876.95	56.7727	8,876.95	58.038	8,876.95	62.429	8,876.95	57.1116	8,876.95	64.2591	8,876.95	63.0743	8,876.95	63.4444	8,876.95	58.5444	8,876.95	63.3689	8,876.95	53.4258	8,876.95	63.7263	8,876.95	57.8524	8,876.95	58.0821
9,188.96	89.7069	9,188.96	89.6181	9,188.96	89.9487	9,188.96	88.6754	9,188.96	89.1241	9,188.96	86.6874	9,188.96	87.5904	9,188.96	84.268	9,188.96	84.7193	9,188.96	80.8424	9,188.96	81.489	9,188.96	78.0877	9,188.96	82.5055	9,188.96	74.6257	9,188.96	68.0719	9,188.96	69.1249	9,188.96	71.8166	9,188.96	64.5166	9,188.96	62.6589	9,188.96	60.2129	9,188.96	59.2223	9,188.96	53.1092	9,188.96	56.5787	9,188.96	58.9849	9,188.96	54.8069	9,188.96	55.3748	9,188.96	55.1019	9,188.96	59.4193	9,188.96	61.3735	9,188.96	60.782	9,188.96	48.0746	9,188.96	60.127	9,188.96	57.3537	9,188.96	62.4755	9,188.96	52.6613	9,188.96	58.6262
9,514.16	89.9751	9,514.16	89.7771	9,514.16	89.6429	9,514.16	88.9104	9,514.16	89.0396	9,514.16	86.4894	9,514.16	87.4013	9,514.16	84.0027	9,514.16	84.9198	9,514.16	80.4644	9,514.16	80.8122	9,514.16	76.9209	9,514.16	80.0603	9,514.16	73.1709	9,514.16	66.718	9,514.16	68.0671	9,514.16	67.7956	9,514.16	58.776	9,514.16	62.533	9,514.16	56.6896	9,514.16	59.58	9,514.16	50.9927	9,514.16	55.6429	9,514.16	52.6803	9,514.16	45.057	9,514.16	57.4878	9,514.16	50.0927	9,514.16	58.096	9,514.16	57.686	9,514.16	56.9068	9,514.16	53.6768	9,514.16	56.4304	9,514.16	57.4281	9,514.16	61.611	9,514.16	50.9269	9,514.16	59.4142
9,849.61	89.9162	9,849.61	89.9144	9,849.61	89.6761	9,849.61	88.9682	9,849.61	88.4636	9,849.61	86.2577	9,849.61	86.0991	9,849.61	83.9973	9,849.61	83.4863	9,849.61	80.1245	9,849.61	79.2438	9,849.61	76.33	9,849.61	75.6976	9,849.61	71.6684	9,849.61	68.394	9,849.61	66.3279	9,849.61	66.8356	9,849.61	60.743	9,849.61	64.2175	9,849.61	61.1275	9,849.61	51.8318	9,849.61	45.1979	9,849.61	46.4212	9,849.61	53.3371	9,849.61	40.3287	9,849.61	57.14	9,849.61	41.6597	9,849.61	59.2709	9,849.61	56.7	9,849.61	58.57	9,849.61	55.6207	9,849.61	56.2384	9,849.61	57.9769	9,849.61	61.1185	9,849.61	53.7959	9,849.61	58.0417
10,196.8	90.2508	10,196.8	90.0068	10,196.8	89.6577	10,196.8	88.8683	10,196.8	88.7177	10,196.8	85.5346	10,196.8	85.2391	10,196.8	83.2334	10,196.8	82.5684	10,196.8	78.4573	10,196.8	79.3022	10,196.8	74.791	10,196.8	68.9968	10,196.8	69.4468	10,196.8	69.3988	10,196.8	64.7613	10,196.8	67.3699	10,196.8	61.5108	10,196.8	53.4879	10,196.8	58.8653	10,196.8	43.4745	10,196.8	37.8373	10,196.8	38.0843	10,196.8	52.2268	10,196.8	43.1709	10,196.8	54.2501	10,196.8	47.8031	10,196.8	57.5716	10,196.8	56.5581	10,196.8	56.1908	10,196.8	55.6808	10,196.8	54.948	10,196.8	58.084	10,196.8	59.748	10,196.8	54.3645	10,196.8	58.0082
10,555.7	90.2906	10,555.7	89.964	10,555.7	89.7652	10,555.7	88.6484	10,555.7	88.0902	10,555.7	85.1511	10,555.7	85.6043	10,555.7	82.0363	10,555.7	80.574	10,555.7	77.1068	10,555.7	78.0105	10,555.7	72.8918	10,555.7	70.3572	10,555.7	67.117	10,555.7	66.4874	10,555.7	62.3206	10,555.7	64.2363	10,555.7	59.572	10,555.7	49.2212	10,555.7	54.5711	10,555.7	56.3559	10,555.7	53.2997	10,555.7	46.6101	10,555.7	44.2575	10,555.7	50.0939	10,555.7	56.0898	10,555.7	46.0263	10,555.7	56.1767	10,555.7	55.6235	10,555.7	51.9214	10,555.7	53.6231	10,555.7	43.6564	10,555.7	58.3745	10,555.7	56.1828	10,555.7	56.3038	10,555.7	59.0386
10,927.7	90.5132	10,927.7	90.2668	10,927.7	90.1878	10,927.7	88.535	10,927.7	88.2837	10,927.7	84.7867	10,927.7	84.8588	10,927.7	81.2101	10,927.7	81.9711	10,927.7	76.0246	10,927.7	75.8202	10,927.7	71.293	10,927.7	70.3887	10,927.7	67.2396	10,927.7	64.8645	10,927.7	63.8813	10,927.7	60.433	10,927.7	60.8423	10,927.7	62.9782	10,927.7	57.8026	10,927.7	53.3253	10,927.7	52.4347	10,927.7	49.0416	10,927.7	40.2871	10,927.7	43.3066	10,927.7	56.0479	10,927.7	47.7477	10,927.7	57.0313	10,927.7	51.6812	10,927.7	54.1349	10,927.7	51.8144	10,927.7	48.5231	10,927.7	58.6627	10,927.7	53.3862	10,927.7	57.6719	10,927.7	59.0561
11,313	90.835	11,313	90.5649	11,313	90.5472	11,313	88.5307	11,313	88.7068	11,313	84.3967	11,313	84.8527	11,313	80.5825	11,313	81.9345	11,313	73.9146	11,313	74.3007	11,313	71.7759	11,313	69.1017	11,313	69.7874	11,313	65.5403	11,313	64.2028	11,313	63.1092	11,313	62.426	11,313	61.4006	11,313	60.2616	11,313	56.0613	11,313	51.6671	11,313	50.0265	11,313	52.1496	11,313	48.0069	11,313	52.3311	11,313	47.0713	11,313	57.2894	11,313	52.5611	11,313	56.0909	11,313	46.4225	11,313	51.45	11,313	57.74	11,313	49.5219	11,313	57.0869	11,313	58.8274
11,712.9	90.9018	11,712.9	90.674	11,712.9	90.8188	11,712.9	88.4303	11,712.9	88.6035	11,712.9	84.2236	11,712.9	84.3094	11,712.9	79.3262	11,712.9	80.6912	11,712.9	73.3504	11,712.9	72.9698	11,712.9	73.2399	11,712.9	66.0392	11,712.9	70.4317	11,712.9	70.0091	11,712.9	66.4609	11,712.9	65.2642	11,712.9	63.9686	11,712.9	57.7284	11,712.9	59.4332	11,712.9	54.8478	11,712.9	49.6848	11,712.9	48.2786	11,712.9	53.2923	11,712.9	50.2779	11,712.9	54.4665	11,712.9	43.6668	11,712.9	57.5591	11,712.9	53.556	11,712.9	58.9202	11,712.9	33.8086	11,712.9	55.5859	11,712.9	56.0056	11,712.9	47.9039	11,712.9	57.0533	11,712.9	58.2307
12,126	90.8605	12,126	90.7377	12,126	90.9382	12,126	88.1907	12,126	88.3517	12,126	83.6738	12,126	83.8829	12,126	78.1274	12,126	79.5055	12,126	75.9061	12,126	72.112	12,126	75.4811	12,126	71.3064	12,126	71.1579	12,126	73.007	12,126	67.4949	12,126	67.4107	12,126	65.8087	12,126	60.4733	12,126	61.4358	12,126	55.8114	12,126	50.3978	12,126	37.2506	12,126	52.1771	12,126	47.334	12,126	54.3422	12,126	49.5391	12,126	59.6652	12,126	51.4519	12,126	61.1697	12,126	45.7184	12,126	57.857	12,126	55.1234	12,126	51.1875	12,126	57.7986	12,126	56.5343
12,553.7	90.644	12,553.7	90.5028	12,553.7	90.7489	12,553.7	87.4552	12,553.7	88.1034	12,553.7	83.3602	12,553.7	84.5692	12,553.7	78.1533	12,553.7	78.0427	12,553.7	78.3379	12,553.7	76.9185	12,553.7	76.8111	12,553.7	76.646	12,553.7	73.2568	12,553.7	74.3239	12,553.7	69.6356	12,553.7	68.2929	12,553.7	66.6836	12,553.7	64.2347	12,553.7	62.0744	12,553.7	50.9676	12,553.7	54.2916	12,553.7	50.0429	12,553.7	52.7663	12,553.7	47.7452	12,553.7	55.6675	12,553.7	50.0459	12,553.7	61.2248	12,553.7	49.7877	12,553.7	62.4254	12,553.7	42.7036	12,553.7	59.2115	12,553.7	56.1547	12,553.7	56.8998	12,553.7	56.7116	12,553.7	55.194
12,996.1	90.5607	12,996.1	90.0747	12,996.1	90.6165	12,996.1	87.3053	12,996.1	87.4028	12,996.1	82.4334	12,996.1	84.0606	12,996.1	79.8855	12,996.1	79.319	12,996.1	78.8781	12,996.1	78.7169	12,996.1	77.9842	12,996.1	78.4763	12,996.1	73.8497	12,996.1	74.1308	12,996.1	69.6907	12,996.1	64.3553	12,996.1	67.2741	12,996.1	64.8104	12,996.1	62.8345	12,996.1	57.9951	12,996.1	53.5958	12,996.1	53.1278	12,996.1	52.0231	12,996.1	42.2904	12,996.1	53.7284	12,996.1	48.7074	12,996.1	60.9061	12,996.1	44.8437	12,996.1	61.2461	12,996.1	41.6547	12,996.1	56.7281	12,996.1	55.9243	12,996.1	57.307	12,996.1	53.9587	12,996.1	53.0185
13,454.6	90.625	13,454.6	89.5087	13,454.6	90.2594	13,454.6	87.3641	13,454.6	87.2352	13,454.6	82.2799	13,454.6	84.2792	13,454.6	80.9817	13,454.6	81.6826	13,454.6	79.488	13,454.6	78.7586	13,454.6	78.6108	13,454.6	77.528	13,454.6	74.3562	13,454.6	73.2092	13,454.6	69.2197	13,454.6	66.1689	13,454.6	66.3263	13,454.6	64.7461	13,454.6	62.3249	13,454.6	57.8387	13,454.6	52.6733	13,454.6	55.6292	13,454.6	50.5739	13,454.6	34.0848	13,454.6	52.4679	13,454.6	44.8546	13,454.6	59.7717	13,454.6	42.1648	13,454.6	59.8852	13,454.6	38.9502	13,454.6	55.5452	13,454.6	52.3607	13,454.6	57.0247	13,454.6	52.7378	13,454.6	47.5574
13,929.2	90.8	13,929.2	89.153	13,929.2	89.6377	13,929.2	87.1895	13,929.2	87.4436	13,929.2	83.0844	13,929.2	82.8882	13,929.2	81.4816	13,929.2	80.4702	13,929.2	79.6562	13,929.2	79.6686	13,929.2	78.4453	13,929.2	78.591	13,929.2	73.5389	13,929.2	72.8569	13,929.2	67.2024	13,929.2	68.4079	13,929.2	64.6466	13,929.2	65.5329	13,929.2	60.2972	13,929.2	59.0143	13,929.2	50.5013	13,929.2	55.6582	13,929.2	49.6017	13,929.2	44.758	13,929.2	50.2909	13,929.2	49.355	13,929.2	58.2492	13,929.2	47.3021	13,929.2	57.8898	13,929.2	45.4991	13,929.2	53.2256	13,929.2	47.1084	13,929.2	56.5485	13,929.2	54.0069	13,929.2	40.5524
14,419.9	90.7988	14,419.9	88.9419	14,419.9	89.3448	14,419.9	86.9884	14,419.9	87.2051	14,419.9	83.8537	14,419.9	83.777	14,419.9	81.5149	14,419.9	79.8312	14,419.9	79.4057	14,419.9	80.4103	14,419.9	77.2583	14,419.9	78.2473	14,419.9	69.6253	14,419.9	71.8654	14,419.9	65.9999	14,419.9	63.3665	14,419.9	62.8889	14,419.9	63.9009	14,419.9	58.155	14,419.9	60.6534	14,419.9	52.8669	14,419.9	56.8584	14,419.9	48.856	14,419.9	43.6501	14,419.9	47.705	14,419.9	42.281	14,419.9	56.4492	14,419.9	43.9015	14,419.9	53.7761	14,419.9	45.7611	14,419.9	52.3767	14,419.9	52.0617	14,419.9	54.3423	14,419.9	55.4648	14,419.9	36.8969
14,928.2	90.2968	14,928.2	89.0298	14,928.2	89.1153	14,928.2	86.409	14,928.2	86.4822	14,928.2	83.9074	14,928.2	82.9336	14,928.2	80.5428	14,928.2	81.7604	14,928.2	78.8651	14,928.2	78.7659	14,928.2	74.8289	14,928.2	77.3557	14,928.2	69.0557	14,928.2	68.4731	14,928.2	65.1068	14,928.2	66.0298	14,928.2	62.8463	14,928.2	60.8195	14,928.2	56.3519	14,928.2	57.0532	14,928.2	53.6272	14,928.2	57.5026	14,928.2	43.3172	14,928.2	44.2483	14,928.2	49.942	14,928.2	48.2782	14,928.2	55.6248	14,928.2	42.5968	14,928.2	55.924	14,928.2	45.824	14,928.2	53.6021	14,928.2	53.3121	14,928.2	54.169	14,928.2	53.497	14,928.2	38.9234
15,455.6	88.9813	15,455.6	87.6264	15,455.6	87.7914	15,455.6	84.8344	15,455.6	84.4731	15,455.6	82.7388	15,455.6	80.5703	15,455.6	79.6953	15,455.6	79.5307	15,455.6	76.5746	15,455.6	76.4016	15,455.6	74.0409	15,455.6	77.4038	15,455.6	69.4846	15,455.6	70.9352	15,455.6	65.6361	15,455.6	64.4167	15,455.6	63.8626	15,455.6	58.2911	15,455.6	55.9638	15,455.6	54.8942	15,455.6	53.0384	15,455.6	53.7157	15,455.6	49.0981	15,455.6	50.1439	15,455.6	50.9845	15,455.6	43.2516	15,455.6	56.7951	15,455.6	46.5119	15,455.6	56.5881	15,455.6	47.6519	15,455.6	54.9465	15,455.6	54.1845	15,455.6	52.3948	15,455.6	54.7508	15,455.6	41.0464
16,000.5	84.4614	16,000.5	84.6627	16,000.5	83.4161	16,000.5	83.1387	16,000.5	81.4377	16,000.5	82.289	16,000.5	81.4013	16,000.5	81.6646	16,000.5	80.5022	16,000.5	78.4453	16,000.5	77.1667	16,000.5	77.1064	16,000.5	78.0783	16,000.5	71.861	16,000.5	71.8468	16,000.5	67.3216	16,000.5	63.4918	16,000.5	66.183	16,000.5	59.9296	16,000.5	58.1944	16,000.5	63.3965	16,000.5	54.3486	16,000.5	53.1678	16,000.5	51.2	16,000.5	45.0237	16,000.5	48.7379	16,000.5	35.2579	16,000.5	57.4118	16,000.5	53.4977	16,000.5	56.7662	16,000.5	52.149	16,000.5	54.6713	16,000.5	55.1107	16,000.5	48.1842	16,000.5	56.2521	16,000.5	38.6413
16,564.5	89.6828	16,564.5	89.624	16,564.5	88.89	16,564.5	87.9306	16,564.5	86.446	16,564.5	84.9121	16,564.5	84.1426	16,564.5	81.4057	16,564.5	80.4121	16,564.5	77.3138	16,564.5	76.8512	16,564.5	73.6873	16,564.5	73.6962	16,564.5	66.8459	16,564.5	63.4518	16,564.5	60.3745	16,564.5	60.757	16,564.5	60.2083	16,564.5	53.719	16,564.5	49.9113	16,564.5	60.6452	16,564.5	49.2967	16,564.5	55.2313	16,564.5	45.684	16,564.5	38.0148	16,564.5	38.0709	16,564.5	34.8257	16,564.5	49.5625	16,564.5	46.5057	16,564.5	46.744	16,564.5	46.6397	16,564.5	46.7449	16,564.5	45.9468	16,564.5	44.5135	16,564.5	49.1925	16,564.5	33.4881
17,148.9	89.5315	17,148.9	89.2199	17,148.9	88.4939	17,148.9	86.6391	17,148.9	85.4041	17,148.9	82.818	17,148.9	82.9533	17,148.9	78.0975	17,148.9	79.4128	17,148.9	73.7801	17,148.9	73.9364	17,148.9	68.3542	17,148.9	68.8876	17,148.9	60.6944	17,148.9	65.0375	17,148.9	55.0548	17,148.9	54.7716	17,148.9	54.5644	17,148.9	46.3197	17,148.9	44.985	17,148.9	49.2423	17,148.9	40.3094	17,148.9	51.828	17,148.9	39.9903	17,148.9	35.7082	17,148.9	28.0889	17,148.9	40.0033	17,148.9	44.733	17,148.9	28.8537	17,148.9	36.2747	17,148.9	39.9806	17,148.9	40.5376	17,148.9	45.2536	17,148.9	44.4537	17,148.9	36.5321	17,148.9	30.4201
17,752.4	88.9029	17,752.4	88.2723	17,752.4	87.7238	17,752.4	85.1553	17,752.4	84.3081	17,752.4	81.2195	17,752.4	81.2225	17,752.4	76.3769	17,752.4	77.3429	17,752.4	72.4197	17,752.4	72.1859	17,752.4	66.2073	17,752.4	65.9202	17,752.4	59.7133	17,752.4	61.0504	17,752.4	53.8479	17,752.4	54.6389	17,752.4	53.3545	17,752.4	49.8535	17,752.4	43.3668	17,752.4	43.6082	17,752.4	36.9035	17,752.4	47.0788	17,752.4	31.0353	17,752.4	39.5739	17,752.4	35.4533	17,752.4	45.0772	17,752.4	43.5856	17,752.4	36.9994	17,752.4	39.125	17,752.4	40.13	17,752.4	38.1814	17,752.4	47.9636	17,752.4	47.3493	17,752.4	37.1829	17,752.4	37.6291
18,379.4	88.0193	18,379.4	87.2804	18,379.4	86.8015	18,379.4	83.8667	18,379.4	83.3148	18,379.4	80.3188	18,379.4	80.1861	18,379.4	75.6397	18,379.4	75.5438	18,379.4	70.4477	18,379.4	69.7397	18,379.4	64.328	18,379.4	65.2477	18,379.4	56.6972	18,379.4	57.9592	18,379.4	49.6266	18,379.4	53.4604	18,379.4	49.9471	18,379.4	51.4	18,379.4	41.6204	18,379.4	54.4922	18,379.4	27.0059	18,379.4	39.9184	18,379.4	32.2618	18,379.4	38.844	18,379.4	37.8281	18,379.4	45.6323	18,379.4	37.6077	18,379.4	39.6823	18,379.4	33.7931	18,379.4	40.789	18,379.4	40.7201	18,379.4	48.0265	18,379.4	41.9645	18,379.4	44.6781	18,379.4	32.771
19,026.9	87.3932	19,026.9	86.4522	19,026.9	86.2105	19,026.9	82.9936	19,026.9	82.8114	19,026.9	79.3579	19,026.9	79.7816	19,026.9	74.321	19,026.9	74.7952	19,026.9	67.09	19,026.9	68.4029	19,026.9	59.3601	19,026.9	61.9862	19,026.9	51.5472	19,026.9	54.7261	19,026.9	36.1901	19,026.9	45.9385	19,026.9	43.0024	19,026.9	47.2786	19,026.9	37.0382	19,026.9	57.1927	19,026.9	35.9992	19,026.9	44.1938	19,026.9	37.8294	19,026.9	34.2165	19,026.9	38.5574	19,026.9	47.7445	19,026.9	30.2887	19,026.9	40.3547	19,026.9	29.8033	19,026.9	44.0665	19,026.9	38.5416	19,026.9	48.6986	19,026.9	30.1068	19,026.9	45.8885	19,026.9	28.5696
19,697.8	86.592	19,697.8	85.6557	19,697.8	85.651	19,697.8	82.3729	19,697.8	82.5699	19,697.8	78.209	19,697.8	79.0672	19,697.8	71.2542	19,697.8	72.8593	19,697.8	60.0259	19,697.8	65.3796	19,697.8	55.0983	19,697.8	56.0359	19,697.8	54.6116	19,697.8	52.3778	19,697.8	47.8639	19,697.8	32.8107	19,697.8	47.0974	19,697.8	43.9282	19,697.8	42.9198	19,697.8	56.8973	19,697.8	38.5673	19,697.8	49.0711	19,697.8	41.8929	19,697.8	36.2812	19,697.8	40.0497	19,697.8	47.5971	19,697.8	33.5495	19,697.8	47.8811	19,697.8	38.464	19,697.8	45.8754	19,697.8	34.048	19,697.8	46.3063	19,697.8	39.2286	19,697.8	35.1221	19,697.8	26.1426
19,999.5	86.1027	19,999.5	85.4489	19,999.5	85.1916	19,999.5	81.9505	19,999.5	82.2787	19,999.5	77.251	19,999.5	78.2637	19,999.5	68.8334	19,999.5	71.5503	19,999.5	53.7614	19,999.5	62.4899	19,999.5	57.836	19,999.5	48.3733	19,999.5	54.7959	19,999.5	57.1686	19,999.5	53.6124	19,999.5	49.4066	19,999.5	50.0286	19,999.5	50.6635	19,999.5	41.5116	19,999.5	61.1823	19,999.5	44.2152	19,999.5	54.1814	19,999.5	48.949	19,999.5	44.7626	19,999.5	49.2396	19,999.5	31.5875	19,999.5	49.1101	19,999.5	50.2622	19,999.5	50.9347	19,999.5	47.9847	19,999.5	36.1492	19,999.5	47.4887	19,999.5	44.1585	19,999.5	39.0076	19,999.5	39.6985
