"SPL Horizontal"
"On-Axis"		"10°"		"-10°"		"20°"		"-20°"		"30°"		"-30°"		"40°"		"-40°"		"50°"		"-50°"		"60°"		"-60°"		"70°"		"-70°"		"80°"		"-80°"		"90°"		"-90°"		"100°"		"-100°"		"110°"		"-110°"		"120°"		"-120°"		"130°"		"-130°"		"140°"		"-140°"		"150°"		"-150°"		"160°"		"-160°"		"170°"		"-170°"		"180°"
"Frequency [Hz]"	"Sound Pessure Level [dB]  / [2.83V 1m] "	"Frequency [Hz]"	"Sound Pessure Level [dB]  / [2.83V 1m] "	"Frequency [Hz]"	"Sound Pessure Level [dB]  / [2.83V 1m] "	"Frequency [Hz]"	"Sound Pessure Level [dB]  / [2.83V 1m] "	"Frequency [Hz]"	"Sound Pessure Level [dB]  / [2.83V 1m] "	"Frequency [Hz]"	"Sound Pessure Level [dB]  / [2.83V 1m] "	"Frequency [Hz]"	"Sound Pessure Level [dB]  / [2.83V 1m] "	"Frequency [Hz]"	"Sound Pessure Level [dB]  / [2.83V 1m] "	"Frequency [Hz]"	"Sound Pessure Level [dB]  / [2.83V 1m] "	"Frequency [Hz]"	"Sound Pessure Level [dB]  / [2.83V 1m] "	"Frequency [Hz]"	"Sound Pessure Level [dB]  / [2.83V 1m] "	"Frequency [Hz]"	"Sound Pessure Level [dB]  / [2.83V 1m] "	"Frequency [Hz]"	"Sound Pessure Level [dB]  / [2.83V 1m] "	"Frequency [Hz]"	"Sound Pessure Level [dB]  / [2.83V 1m] "	"Frequency [Hz]"	"Sound Pessure Level [dB]  / [2.83V 1m] "	"Frequency [Hz]"	"Sound Pessure Level [dB]  / [2.83V 1m] "	"Frequency [Hz]"	"Sound Pessure Level [dB]  / [2.83V 1m] "	"Frequency [Hz]"	"Sound Pessure Level [dB]  / [2.83V 1m] "	"Frequency [Hz]"	"Sound Pessure Level [dB]  / [2.83V 1m] "	"Frequency [Hz]"	"Sound Pessure Level [dB]  / [2.83V 1m] "	"Frequency [Hz]"	"Sound Pessure Level [dB]  / [2.83V 1m] "	"Frequency [Hz]"	"Sound Pessure Level [dB]  / [2.83V 1m] "	"Frequency [Hz]"	"Sound Pessure Level [dB]  / [2.83V 1m] "	"Frequency [Hz]"	"Sound Pessure Level [dB]  / [2.83V 1m] "	"Frequency [Hz]"	"Sound Pessure Level [dB]  / [2.83V 1m] "	"Frequency [Hz]"	"Sound Pessure Level [dB]  / [2.83V 1m] "	"Frequency [Hz]"	"Sound Pessure Level [dB]  / [2.83V 1m] "	"Frequency [Hz]"	"Sound Pessure Level [dB]  / [2.83V 1m] "	"Frequency [Hz]"	"Sound Pessure Level [dB]  / [2.83V 1m] "	"Frequency [Hz]"	"Sound Pessure Level [dB]  / [2.83V 1m] "	"Frequency [Hz]"	"Sound Pessure Level [dB]  / [2.83V 1m] "	"Frequency [Hz]"	"Sound Pessure Level [dB]  / [2.83V 1m] "	"Frequency [Hz]"	"Sound Pessure Level [dB]  / [2.83V 1m] "	"Frequency [Hz]"	"Sound Pessure Level [dB]  / [2.83V 1m] "	"Frequency [Hz]"	"Sound Pessure Level [dB]  / [2.83V 1m] "	"Frequency [Hz]"	"Sound Pessure Level [dB]  / [2.83V 1m] "
20.5078	44.6771	20.5078	44.618	20.5078	44.7799	20.5078	44.5988	20.5078	44.9311	20.5078	44.6172	20.5078	45.1353	20.5078	44.6724	20.5078	45.393	20.5078	44.7638	20.5078	45.6999	20.5078	44.8902	20.5078	46.0467	20.5078	45.0491	20.5078	46.4201	20.5078	45.2355	20.5078	46.8045	20.5078	45.4427	20.5078	47.1812	20.5078	45.6635	20.5078	47.5287	20.5078	45.8924	20.5078	47.8239	20.5078	46.1255	20.5078	48.0452	20.5078	46.3607	20.5078	48.1766	20.5078	46.5977	20.5078	48.2111	20.5078	46.8376	20.5078	48.1521	20.5078	47.0826	20.5078	48.0132	20.5078	47.3325	20.5078	47.8151	20.5078	47.5813
21.9727	54.9979	21.9727	55.067	21.9727	54.9129	21.9727	55.1205	21.9727	54.8112	21.9727	55.1584	21.9727	54.6917	21.9727	55.1805	21.9727	54.5537	21.9727	55.186	21.9727	54.3979	21.9727	55.1732	21.9727	54.228	21.9727	55.1397	21.9727	54.0511	21.9727	55.0827	21.9727	53.8773	21.9727	55.0004	21.9727	53.7188	21.9727	54.8927	21.9727	53.587	21.9727	54.7631	21.9727	53.491	21.9727	54.6175	21.9727	53.4356	21.9727	54.4639	21.9727	53.4212	21.9727	54.3102	21.9727	53.444	21.9727	54.1625	21.9727	53.4979	21.9727	54.0241	21.9727	53.5756	21.9727	53.8961	21.9727	53.6706	21.9727	53.7781
23.4375	58.462	23.4375	58.4389	23.4375	58.4812	23.4375	58.4113	23.4375	58.4963	23.4375	58.3785	23.4375	58.5063	23.4375	58.3394	23.4375	58.51	23.4375	58.293	23.4375	58.5058	23.4375	58.2386	23.4375	58.4924	23.4375	58.1754	23.4375	58.4692	23.4375	58.1037	23.4375	58.4366	23.4375	58.0244	23.4375	58.3951	23.4375	57.9401	23.4375	58.3455	23.4375	57.8552	23.4375	58.2883	23.4375	57.7758	23.4375	58.2233	23.4375	57.7093	23.4375	58.1503	23.4375	57.6623	23.4375	58.0697	23.4375	57.6405	23.4375	57.9832	23.4375	57.6464	23.4375	57.8948	23.4375	57.6793	23.4375	57.81	23.4375	57.7359
24.9023	60.6397	24.9023	60.6684	24.9023	60.6105	24.9023	60.6949	24.9023	60.5819	24.9023	60.7171	24.9023	60.5544	24.9023	60.733	24.9023	60.5279	24.9023	60.7404	24.9023	60.5026	24.9023	60.7375	24.9023	60.4781	24.9023	60.723	24.9023	60.4546	24.9023	60.6962	24.9023	60.432	24.9023	60.6573	24.9023	60.4098	24.9023	60.6073	24.9023	60.3872	24.9023	60.5483	24.9023	60.363	24.9023	60.4834	24.9023	60.3362	24.9023	60.4167	24.9023	60.3065	24.9023	60.3526	24.9023	60.2752	24.9023	60.2957	24.9023	60.2451	24.9023	60.2501	24.9023	60.2203	24.9023	60.2191	24.9023	60.2054	24.9023	60.2043
26.3672	62.4699	26.3672	62.4974	26.3672	62.4347	26.3672	62.516	26.3672	62.3929	26.3672	62.5249	26.3672	62.3458	26.3672	62.5237	26.3672	62.2948	26.3672	62.5122	26.3672	62.2411	26.3672	62.4907	26.3672	62.1861	26.3672	62.4594	26.3672	62.131	26.3672	62.4189	26.3672	62.0772	26.3672	62.3696	26.3672	62.0261	26.3672	62.3123	26.3672	61.9786	26.3672	62.248	26.3672	61.9359	26.3672	62.1783	26.3672	61.8984	26.3672	62.1059	26.3672	61.8668	26.3672	62.0343	26.3672	61.8415	26.3672	61.9677	26.3672	61.8237	26.3672	61.9102	26.3672	61.8151	26.3672	61.865	26.3672	61.8179	26.3672	61.8341
27.832	64.3895	27.832	64.4108	27.832	64.3584	27.832	64.4217	27.832	64.3187	27.832	64.4217	27.832	64.2716	27.832	64.4106	27.832	64.2186	27.832	64.3886	27.832	64.1611	27.832	64.3563	27.832	64.1008	27.832	64.3143	27.832	64.0391	27.832	64.2637	27.832	63.9774	27.832	64.2055	27.832	63.9171	27.832	64.1412	27.832	63.8595	27.832	64.0723	27.832	63.8059	27.832	64.0008	27.832	63.7576	27.832	63.9291	27.832	63.7162	27.832	63.8599	27.832	63.6831	27.832	63.7962	27.832	63.6602	27.832	63.7412	27.832	63.649	27.832	63.6976	27.832	63.6511	27.832	63.6672
29.2969	66.37	29.2969	66.3859	29.2969	66.3473	29.2969	66.3942	29.2969	66.3187	29.2969	66.3944	29.2969	66.2854	29.2969	66.3864	29.2969	66.2489	29.2969	66.3702	29.2969	66.2105	29.2969	66.3462	29.2969	66.1717	29.2969	66.3149	29.2969	66.1334	29.2969	66.2773	29.2969	66.0965	29.2969	66.2347	29.2969	66.0614	29.2969	66.1888	29.2969	66.0284	29.2969	66.1411	29.2969	65.9976	29.2969	66.0936	29.2969	65.9691	29.2969	66.0477	29.2969	65.9436	29.2969	66.0051	29.2969	65.9218	29.2969	65.9675	29.2969	65.9049	29.2969	65.9361	29.2969	65.8944	29.2969	65.9125	29.2969	65.8916	29.2969	65.8975
30.7617	68.0674	30.7617	68.0702	30.7617	68.0562	30.7617	68.0639	30.7617	68.037	30.7617	68.048	30.7617	68.0105	30.7617	68.0222	30.7617	67.9772	30.7617	67.9866	30.7617	67.9375	30.7617	67.9412	30.7617	67.8918	30.7617	67.8869	30.7617	67.8405	30.7617	67.8248	30.7617	67.7846	30.7617	67.7567	30.7617	67.7248	30.7617	67.6849	30.7617	67.6626	30.7617	67.6123	30.7617	67.5995	30.7617	67.5419	30.7617	67.5374	30.7617	67.4767	30.7617	67.4783	30.7617	67.4196	30.7617	67.4246	30.7617	67.3728	30.7617	67.3789	30.7617	67.3384	30.7617	67.3435	30.7617	67.3178	30.7617	67.3206	30.7617	67.3118
32.2266	69.6522	32.2266	69.6605	32.2266	69.6374	32.2266	69.6617	32.2266	69.6168	32.2266	69.6555	32.2266	69.591	32.2266	69.6419	32.2266	69.561	32.2266	69.6208	32.2266	69.5276	32.2266	69.5928	32.2266	69.4921	32.2266	69.5585	32.2266	69.4554	32.2266	69.519	32.2266	69.4188	32.2266	69.4757	32.2266	69.3833	32.2266	69.4301	32.2266	69.3498	32.2266	69.3843	32.2266	69.3186	32.2266	69.3402	32.2266	69.2901	32.2266	69.2996	32.2266	69.2643	32.2266	69.2643	32.2266	69.2415	32.2266	69.2355	32.2266	69.2223	32.2266	69.2143	32.2266	69.2075	32.2266	69.2012	32.2266	69.1984	32.2266	69.196
33.6914	71.1494	33.6914	71.1569	33.6914	71.1339	33.6914	71.156	33.6914	71.1112	33.6914	71.1465	33.6914	71.0819	33.6914	71.1285	33.6914	71.0471	33.6914	71.1024	33.6914	71.008	33.6914	71.0689	33.6914	70.9658	33.6914	71.0288	33.6914	70.9217	33.6914	70.9834	33.6914	70.8772	33.6914	70.9341	33.6914	70.8332	33.6914	70.8826	33.6914	70.7907	33.6914	70.8305	33.6914	70.7506	33.6914	70.7798	33.6914	70.7134	33.6914	70.7322	33.6914	70.6796	33.6914	70.6896	33.6914	70.6501	33.6914	70.6536	33.6914	70.6259	33.6914	70.6257	33.6914	70.6083	33.6914	70.6069	33.6914	70.5986	33.6914	70.5979
35.1562	72.6607	35.1562	72.6688	35.1562	72.6441	35.1562	72.668	35.1562	72.6198	35.1562	72.6582	35.1562	72.5884	35.1562	72.6396	35.1562	72.5511	35.1562	72.6124	35.1562	72.5087	35.1562	72.5775	35.1562	72.4625	35.1562	72.5356	35.1562	72.4137	35.1562	72.4881	35.1562	72.3635	35.1562	72.4364	35.1562	72.3131	35.1562	72.3822	35.1562	72.2638	35.1562	72.327	35.1562	72.2167	35.1562	72.2726	35.1562	72.1731	35.1562	72.2207	35.1562	72.134	35.1562	72.173	35.1562	72.1009	35.1562	72.131	35.1562	72.0751	35.1562	72.0965	35.1562	72.0583	35.1562	72.0711	35.1562	72.0517	35.1562	72.0559
36.6211	73.9024	36.6211	73.9085	36.6211	73.8875	36.6211	73.9057	36.6211	73.8646	36.6211	73.8937	36.6211	73.8344	36.6211	73.8726	36.6211	73.7978	36.6211	73.8429	36.6211	73.7559	36.6211	73.8053	36.6211	73.7098	36.6211	73.7608	36.6211	73.6607	36.6211	73.7109	36.6211	73.6099	36.6211	73.6572	36.6211	73.5585	36.6211	73.6017	36.6211	73.5079	36.6211	73.5461	36.6211	73.4592	36.6211	73.4922	36.6211	73.4136	36.6211	73.4415	36.6211	73.3723	36.6211	73.3954	36.6211	73.3371	36.6211	73.3554	36.6211	73.3093	36.6211	73.3228	36.6211	73.2908	36.6211	73.299	36.6211	73.2826	36.6211	73.2854
38.0859	75.0401	38.0859	75.0457	38.0859	75.0261	38.0859	75.0425	38.0859	75.0044	38.0859	75.0304	38.0859	74.9757	38.0859	75.0093	38.0859	74.9409	38.0859	74.9798	38.0859	74.9012	38.0859	74.9426	38.0859	74.8575	38.0859	74.8987	38.0859	74.811	38.0859	74.8497	38.0859	74.7628	38.0859	74.7971	38.0859	74.7142	38.0859	74.743	38.0859	74.6661	38.0859	74.6891	38.0859	74.6197	38.0859	74.6372	38.0859	74.5759	38.0859	74.5888	38.0859	74.536	38.0859	74.5452	38.0859	74.5013	38.0859	74.5077	38.0859	74.4734	38.0859	74.4777	38.0859	74.4539	38.0859	74.4565	38.0859	74.4442	38.0859	74.4451
39.5508	76.2359	39.5508	76.2453	39.5508	76.2169	39.5508	76.2445	39.5508	76.189	39.5508	76.2336	39.5508	76.153	39.5508	76.2125	39.5508	76.1101	39.5508	76.1817	39.5508	76.0614	39.5508	76.1421	39.5508	76.0084	39.5508	76.0947	39.5508	75.9525	39.5508	76.0412	39.5508	75.8952	39.5508	75.9832	39.5508	75.8382	39.5508	75.9227	39.5508	75.7826	39.5508	75.8617	39.5508	75.7299	39.5508	75.8021	39.5508	75.6815	39.5508	75.7456	39.5508	75.6388	39.5508	75.6939	39.5508	75.6035	39.5508	75.6483	39.5508	75.5771	39.5508	75.6104	39.5508	75.5611	39.5508	75.5817	39.5508	75.5564	39.5508	75.5633
41.0156	77.4627	41.0156	77.4685	41.0156	77.4502	41.0156	77.4673	41.0156	77.4317	41.0156	77.4589	41.0156	77.4081	41.0156	77.4437	41.0156	77.3808	41.0156	77.4222	41.0156	77.3512	41.0156	77.3955	41.0156	77.3207	41.0156	77.3649	41.0156	77.291	41.0156	77.3319	41.0156	77.2634	41.0156	77.2983	41.0156	77.2392	41.0156	77.2658	41.0156	77.2189	41.0156	77.2361	41.0156	77.2027	41.0156	77.2104	41.0156	77.1902	41.0156	77.1898	41.0156	77.1806	41.0156	77.1744	41.0156	77.1733	41.0156	77.1642	41.0156	77.1676	41.0156	77.1584	41.0156	77.1629	41.0156	77.1563	41.0156	77.1592	41.0156	77.1568
42.4805	78.3219	42.4805	78.3357	42.4805	78.2989	42.4805	78.3397	42.4805	78.2672	42.4805	78.3338	42.4805	78.2277	42.4805	78.318	42.4805	78.1817	42.4805	78.2928	42.4805	78.1302	42.4805	78.2588	42.4805	78.0749	42.4805	78.2169	42.4805	78.0174	42.4805	78.1685	42.4805	77.9596	42.4805	78.115	42.4805	77.9035	42.4805	78.058	42.4805	77.851	42.4805	77.9996	42.4805	77.8041	42.4805	77.9417	42.4805	77.7644	42.4805	77.8867	42.4805	77.7331	42.4805	77.8365	42.4805	77.7107	42.4805	77.7928	42.4805	77.6975	42.4805	77.7567	42.4805	77.693	42.4805	77.7286	42.4805	77.6968	42.4805	77.7087
43.9453	79.1537	43.9453	79.1681	43.9453	79.1291	43.9453	79.172	43.9453	79.0948	43.9453	79.1651	43.9453	79.0519	43.9453	79.1478	43.9453	79.0015	43.9453	79.1205	43.9453	78.945	43.9453	79.084	43.9453	78.8841	43.9453	79.0393	43.9453	78.8209	43.9453	78.9876	43.9453	78.7572	43.9453	78.9302	43.9453	78.6953	43.9453	78.8687	43.9453	78.6372	43.9453	78.8047	43.9453	78.5849	43.9453	78.7403	43.9453	78.5399	43.9453	78.6777	43.9453	78.5035	43.9453	78.6194	43.9453	78.4766	43.9453	78.5678	43.9453	78.4594	43.9453	78.5247	43.9453	78.4522	43.9453	78.4913	43.9453	78.4551	43.9453	78.4681
45.4102	79.9739	45.4102	79.9868	45.4102	79.9506	45.4102	79.989	45.4102	79.9177	45.4102	79.9807	45.4102	79.8759	45.4102	79.962	45.4102	79.8264	45.4102	79.9336	45.4102	79.7707	45.4102	79.8965	45.4102	79.7105	45.4102	79.852	45.4102	79.6476	45.4102	79.8014	45.4102	79.5841	45.4102	79.7464	45.4102	79.522	45.4102	79.6883	45.4102	79.4635	45.4102	79.6285	45.4102	79.4108	45.4102	79.5685	45.4102	79.3657	45.4102	79.5101	45.4102	79.3299	45.4102	79.4551	45.4102	79.3041	45.4102	79.4055	45.4102	79.2888	45.4102	79.3631	45.4102	79.284	45.4102	79.3291	45.4102	79.2892	45.4102	79.3044
46.875	80.7667	46.875	80.776	46.875	80.7458	46.875	80.7733	46.875	80.7139	46.875	80.7587	46.875	80.672	46.875	80.7326	46.875	80.6214	46.875	80.6958	46.875	80.5635	46.875	80.6493	46.875	80.5003	46.875	80.5947	46.875	80.4336	46.875	80.5337	46.875	80.3655	46.875	80.4682	46.875	80.298	46.875	80.4002	46.875	80.2334	46.875	80.332	46.875	80.1737	46.875	80.2657	46.875	80.1209	46.875	80.2033	46.875	80.0764	46.875	80.1468	46.875	80.0416	46.875	80.0979	46.875	80.0172	46.875	80.0581	46.875	80.0035	46.875	80.0283	46.875	80.0008	46.875	80.0091
48.3398	81.5063	48.3398	81.5145	48.3398	81.4863	48.3398	81.5107	48.3398	81.455	48.3398	81.4949	48.3398	81.4135	48.3398	81.4676	48.3398	81.363	48.3398	81.4296	48.3398	81.3052	48.3398	81.3823	48.3398	81.2418	48.3398	81.3271	48.3398	81.175	48.3398	81.2658	48.3398	81.1071	48.3398	81.2004	48.3398	81.0401	48.3398	81.1333	48.3398	80.9765	48.3398	81.0665	48.3398	80.9182	48.3398	81.0023	48.3398	80.8669	48.3398	80.9427	48.3398	80.8241	48.3398	80.8893	48.3398	80.7909	48.3398	80.8435	48.3398	80.7677	48.3398	80.8064	48.3398	80.755	48.3398	80.7786	48.3398	80.7526	48.3398	80.7606
51.2695	82.7396	51.2695	82.7483	51.2695	82.7185	51.2695	82.7446	51.2695	82.6856	51.2695	82.7284	51.2695	82.6418	51.2695	82.7004	51.2695	82.5886	51.2695	82.6613	51.2695	82.5274	51.2695	82.6124	51.2695	82.4604	51.2695	82.5553	51.2695	82.3896	51.2695	82.4917	51.2695	82.3175	51.2695	82.4237	51.2695	82.2465	51.2695	82.3538	51.2695	82.1789	51.2695	82.2842	51.2695	82.1171	51.2695	82.2173	51.2695	82.0629	51.2695	82.1551	51.2695	82.0182	51.2695	82.0992	51.2695	81.9841	51.2695	82.0509	51.2695	81.9611	51.2695	82.0111	51.2695	81.9496	51.2695	81.9805	51.2695	81.9492	51.2695	81.9597
52.7344	83.2897	52.7344	83.2997	52.7344	83.2676	52.7344	83.2974	52.7344	83.234	52.7344	83.2829	52.7344	83.19	52.7344	83.2567	52.7344	83.1367	52.7344	83.2198	52.7344	83.0761	52.7344	83.1733	52.7344	83.01	52.7344	83.1189	52.7344	82.9407	52.7344	83.0583	52.7344	82.8705	52.7344	82.9937	52.7344	82.8018	52.7344	82.9271	52.7344	82.7371	52.7344	82.8609	52.7344	82.6785	52.7344	82.797	52.7344	82.6281	52.7344	82.7373	52.7344	82.5873	52.7344	82.6832	52.7344	82.5571	52.7344	82.636	52.7344	82.5378	52.7344	82.5966	52.7344	82.5295	52.7344	82.5657	52.7344	82.5317	52.7344	82.5439
54.1992	83.7644	54.1992	83.7747	54.1992	83.7416	54.1992	83.7725	54.1992	83.7071	54.1992	83.7579	54.1992	83.662	54.1992	83.7316	54.1992	83.6077	54.1992	83.6945	54.1992	83.546	54.1992	83.6481	54.1992	83.4792	54.1992	83.594	54.1992	83.4096	54.1992	83.5343	54.1992	83.3398	54.1992	83.4709	54.1992	83.2721	54.1992	83.406	54.1992	83.2091	54.1992	83.3417	54.1992	83.1529	54.1992	83.2797	54.1992	83.1053	54.1992	83.2218	54.1992	83.0675	54.1992	83.1695	54.1992	83.0402	54.1992	83.1238	54.1992	83.0236	54.1992	83.0856	54.1992	83.0173	54.1992	83.0554	54.1992	83.0209	54.1992	83.0337
55.6641	84.2733	55.6641	84.2799	55.6641	84.2535	55.6641	84.2732	55.6641	84.2212	55.6641	84.2536	55.6641	84.1773	55.6641	84.2219	55.6641	84.1236	55.6641	84.1793	55.6641	84.0618	55.6641	84.1276	55.6641	83.9943	55.6641	84.0688	55.6641	83.9236	55.6641	84.005	55.6641	83.8523	55.6641	83.9385	55.6641	83.783	55.6641	83.8718	55.6641	83.718	55.6641	83.8069	55.6641	83.6598	55.6641	83.7458	55.6641	83.6102	55.6641	83.69	55.6641	83.5703	55.6641	83.641	55.6641	83.5408	55.6641	83.5993	55.6641	83.5218	55.6641	83.5656	55.6641	83.5128	55.6641	83.5399	55.6641	83.5132	55.6641	83.5223
58.5938	85.0511	58.5938	85.0531	58.5938	85.0346	58.5938	85.0406	58.5938	85.004	58.5938	85.0144	58.5938	84.96	58.5938	84.9753	58.5938	84.904	58.5938	84.9248	58.5938	84.8378	58.5938	84.8647	58.5938	84.7637	58.5938	84.7973	58.5938	84.6843	58.5938	84.7249	58.5938	84.6026	58.5938	84.6501	58.5938	84.5219	58.5938	84.5753	58.5938	84.4453	58.5938	84.5031	58.5938	84.3758	58.5938	84.4354	58.5938	84.3157	58.5938	84.3741	58.5938	84.2668	58.5938	84.3206	58.5938	84.2298	58.5938	84.2757	58.5938	84.2049	58.5938	84.2399	58.5938	84.1915	58.5938	84.2134	58.5938	84.1889	58.5938	84.1963
60.0586	85.4054	60.0586	85.405	60.0586	85.3907	60.0586	85.3896	60.0586	85.3614	60.0586	85.3597	60.0586	85.3185	60.0586	85.3165	60.0586	85.2635	60.0586	85.2617	60.0586	85.1984	60.0586	85.1973	60.0586	85.1255	60.0586	85.1257	60.0586	85.0474	60.0586	85.0494	60.0586	84.967	60.0586	84.9711	60.0586	84.887	60.0586	84.8933	60.0586	84.8104	60.0586	84.8186	60.0586	84.7398	60.0586	84.7493	60.0586	84.6774	60.0586	84.6874	60.0586	84.6248	60.0586	84.6343	60.0586	84.5828	60.0586	84.5911	60.0586	84.552	60.0586	84.5583	60.0586	84.5321	60.0586	84.536	60.0586	84.5229	60.0586	84.5243
62.9883	86.1309	62.9883	86.1309	62.9883	86.1144	62.9883	86.1144	62.9883	86.082	62.9883	86.082	62.9883	86.0349	62.9883	86.0347	62.9883	85.9745	62.9883	85.9742	62.9883	85.9029	62.9883	85.9027	62.9883	85.8225	62.9883	85.8226	62.9883	85.736	62.9883	85.7368	62.9883	85.6463	62.9883	85.6483	62.9883	85.5565	62.9883	85.56	62.9883	85.4695	62.9883	85.4749	62.9883	85.3883	62.9883	85.3953	62.9883	85.3154	62.9883	85.3237	62.9883	85.253	62.9883	85.2617	62.9883	85.2026	62.9883	85.2108	62.9883	85.165	62.9883	85.1717	62.9883	85.1406	62.9883	85.1449	62.9883	85.1292	62.9883	85.1307
64.4531	86.427	64.4531	86.4254	64.4531	86.4117	64.4531	86.4069	64.4531	86.38	64.4531	86.3722	64.4531	86.333	64.4531	86.3223	64.4531	86.2723	64.4531	86.2591	64.4531	86.1999	64.4531	86.1847	64.4531	86.1183	64.4531	86.1019	64.4531	86.0303	64.4531	86.0136	64.4531	85.9386	64.4531	85.9229	64.4531	85.8465	64.4531	85.8326	64.4531	85.7567	64.4531	85.7457	64.4531	85.6722	64.4531	85.6647	64.4531	85.5957	64.4531	85.5917	64.4531	85.5293	64.4531	85.5284	64.4531	85.475	64.4531	85.4761	64.4531	85.4338	64.4531	85.4359	64.4531	85.4065	64.4531	85.4084	64.4531	85.3933	64.4531	85.3941
67.3828	86.8375	67.3828	86.8289	67.3828	86.8299	67.3828	86.8042	67.3828	86.8065	67.3828	86.7641	67.3828	86.7682	67.3828	86.71	67.3828	86.7166	67.3828	86.6437	67.3828	86.6535	67.3828	86.5677	67.3828	86.5813	67.3828	86.4849	67.3828	86.5026	67.3828	86.3987	67.3828	86.4203	67.3828	86.3126	67.3828	86.3374	67.3828	86.2297	67.3828	86.2568	67.3828	86.1531	67.3828	86.181	67.3828	86.085	67.3828	86.1123	67.3828	86.0269	67.3828	86.0521	67.3828	85.9798	67.3828	86.0016	67.3828	85.9439	67.3828	85.9613	67.3828	85.9194	67.3828	85.9315	67.3828	85.906	67.3828	85.9122	67.3828	85.9037
68.8477	86.9941	68.8477	86.9855	68.8477	86.9875	68.8477	86.9619	68.8477	86.9661	68.8477	86.924	68.8477	86.931	68.8477	86.8732	68.8477	86.8837	68.8477	86.8113	68.8477	86.8261	68.8477	86.7408	68.8477	86.7605	68.8477	86.6646	68.8477	86.6894	68.8477	86.5859	68.8477	86.6157	68.8477	86.5079	68.8477	86.542	68.8477	86.4337	68.8477	86.471	68.8477	86.366	68.8477	86.4051	68.8477	86.3069	68.8477	86.3461	68.8477	86.2577	68.8477	86.2952	68.8477	86.219	68.8477	86.2527	68.8477	86.191	68.8477	86.2188	68.8477	86.1733	68.8477	86.1932	68.8477	86.1653	68.8477	86.1756	68.8477	86.1662
71.7773	87.3883	71.7773	87.3842	71.7773	87.3766	71.7773	87.3641	71.7773	87.3499	71.7773	87.3288	71.7773	87.3096	71.7773	87.2794	71.7773	87.2576	71.7773	87.2181	71.7773	87.1964	71.7773	87.1475	71.7773	87.1286	71.7773	87.0706	71.7773	87.0571	71.7773	86.991	71.7773	86.9849	71.7773	86.912	71.7773	86.9145	71.7773	86.837	71.7773	86.8483	71.7773	86.7688	71.7773	86.7883	71.7773	86.7098	71.7773	86.7356	71.7773	86.6613	71.7773	86.691	71.7773	86.6241	71.7773	86.6544	71.7773	86.598	71.7773	86.6253	71.7773	86.5824	71.7773	86.6031	71.7773	86.5762	71.7773	86.5874	71.7773	86.5782
74.707	87.8141	74.707	87.809	74.707	87.802	74.707	87.7864	74.707	87.7734	74.707	87.7473	74.707	87.7299	74.707	87.6929	74.707	87.6737	74.707	87.6257	74.707	87.6075	74.707	87.5484	74.707	87.5344	74.707	87.4645	74.707	87.4577	74.707	87.3777	74.707	87.3804	74.707	87.292	74.707	87.3055	74.707	87.211	74.707	87.2355	74.707	87.1381	74.707	87.1722	74.707	87.0757	74.707	87.1169	74.707	87.0257	74.707	87.0702	74.707	86.9884	74.707	87.032	74.707	86.9635	74.707	87.0016	74.707	86.9499	74.707	86.9781	74.707	86.946	74.707	86.961	74.707	86.9501
77.6367	88.1244	77.6367	88.122	77.6367	88.1087	77.6367	88.1014	77.6367	88.0757	77.6367	88.0633	77.6367	88.027	77.6367	88.0093	77.6367	87.9651	77.6367	87.9417	77.6367	87.8931	77.6367	87.8637	77.6367	87.8142	77.6367	87.7787	77.6367	87.7323	77.6367	87.6907	77.6367	87.6508	77.6367	87.6039	77.6367	87.573	77.6367	87.522	77.6367	87.5015	77.6367	87.4486	77.6367	87.4383	77.6367	87.3861	77.6367	87.3844	77.6367	87.3358	77.6367	87.3403	77.6367	87.2979	77.6367	87.3057	77.6367	87.2715	77.6367	87.2799	77.6367	87.2551	77.6367	87.262	77.6367	87.247	77.6367	87.2508	77.6367	87.2458
79.1016	88.2313	79.1016	88.2303	79.1016	88.2137	79.1016	88.2107	79.1016	88.1784	79.1016	88.1731	79.1016	88.1271	79.1016	88.1191	79.1016	88.0622	79.1016	88.0509	79.1016	87.9868	79.1016	87.9716	79.1016	87.9043	79.1016	87.8846	79.1016	87.8186	79.1016	87.7941	79.1016	87.7334	79.1016	87.7043	79.1016	87.6521	79.1016	87.6193	79.1016	87.5775	79.1016	87.5426	79.1016	87.5117	79.1016	87.477	79.1016	87.4559	79.1016	87.4239	79.1016	87.4108	79.1016	87.3835	79.1016	87.3759	79.1016	87.3547	79.1016	87.3507	79.1016	87.336	79.1016	87.334	79.1016	87.3255	79.1016	87.3247	79.1016	87.3219
82.0312	88.3788	82.0312	88.377	82.0312	88.3617	82.0312	88.3564	82.0312	88.3266	82.0312	88.3178	82.0312	88.275	82.0312	88.2629	82.0312	88.2092	82.0312	88.1941	82.0312	88.1324	82.0312	88.1142	82.0312	88.0483	82.0312	88.0268	82.0312	87.9609	82.0312	87.9359	82.0312	87.8742	82.0312	87.8455	82.0312	87.7921	82.0312	87.7599	82.0312	87.7177	82.0312	87.683	82.0312	87.6533	82.0312	87.6178	82.0312	87.6	82.0312	87.5661	82.0312	87.558	82.0312	87.5281	82.0312	87.5264	82.0312	87.5025	82.0312	87.5041	82.0312	87.4872	82.0312	87.4895	82.0312	87.4796	82.0312	87.4811	82.0312	87.4779
84.9609	88.4858	84.9609	88.4744	84.9609	88.4785	84.9609	88.4448	84.9609	88.4527	84.9609	88.3983	84.9609	88.4097	84.9609	88.337	84.9609	88.3516	84.9609	88.2637	84.9609	88.2809	84.9609	88.182	84.9609	88.2013	84.9609	88.0956	84.9609	88.1166	84.9609	88.0085	84.9609	88.0312	84.9609	87.9245	84.9609	87.9493	84.9609	87.8471	84.9609	87.8746	84.9609	87.7793	84.9609	87.8097	84.9609	87.7231	84.9609	87.756	84.9609	87.6795	84.9609	87.7135	84.9609	87.6485	84.9609	87.6812	84.9609	87.629	84.9609	87.6572	84.9609	87.619	84.9609	87.6398	84.9609	87.6166	84.9609	87.6276	84.9609	87.6198
87.8906	88.5549	87.8906	88.5521	87.8906	88.539	87.8906	88.5304	87.8906	88.5058	87.8906	88.4905	87.8906	88.4574	87.8906	88.4344	87.8906	88.3966	87.8906	88.3654	87.8906	88.3269	87.8906	88.2875	87.8906	88.2519	87.8906	88.2055	87.8906	88.1754	87.8906	88.1245	87.8906	88.1013	87.8906	88.0491	87.8906	88.033	87.8906	87.9833	87.8906	87.9737	87.8906	87.9299	87.8906	87.9257	87.8906	87.8901	87.8906	87.89	87.8906	87.8635	87.8906	87.8662	87.8906	87.8485	87.8906	87.8527	87.8906	87.8422	87.8906	87.8467	87.8906	87.8414	87.8906	87.8451	87.8906	87.8429	87.8906	87.845	87.8906	87.8444
90.8203	88.7184	90.8203	88.7282	90.8203	88.6858	90.8203	88.7152	90.8203	88.6315	90.8203	88.6808	90.8203	88.5578	90.8203	88.6274	90.8203	88.4682	90.8203	88.5589	90.8203	88.3672	90.8203	88.4796	90.8203	88.2601	90.8203	88.3947	90.8203	88.1528	90.8203	88.3092	90.8203	88.051	90.8203	88.228	90.8203	87.9603	90.8203	88.1547	90.8203	87.8851	90.8203	88.0917	90.8203	87.8284	90.8203	88.0399	90.8203	87.7913	90.8203	87.9987	90.8203	87.7733	90.8203	87.9659	90.8203	87.7722	90.8203	87.9386	90.8203	87.7845	90.8203	87.9136	90.8203	87.8061	90.8203	87.8881	90.8203	87.8329	90.8203	87.861
95.2148	88.8263	95.2148	88.8398	95.2148	88.7887	95.2148	88.8294	95.2148	88.7281	95.2148	88.7963	95.2148	88.647	95.2148	88.7432	95.2148	88.5489	95.2148	88.6737	95.2148	88.4384	95.2148	88.5924	95.2148	88.321	95.2148	88.5046	95.2148	88.2026	95.2148	88.4155	95.2148	88.0896	95.2148	88.3302	95.2148	87.988	95.2148	88.2525	95.2148	87.9031	95.2148	88.1848	95.2148	87.8388	95.2148	88.1275	95.2148	87.7971	95.2148	88.0797	95.2148	87.7778	95.2148	88.0392	95.2148	87.7788	95.2148	88.0031	95.2148	87.7961	95.2148	87.9686	95.2148	87.8248	95.2148	87.9335	95.2148	87.8598	95.2148	87.8969
98.1445	88.8949	98.1445	88.9024	98.1445	88.8625	98.1445	88.8857	98.1445	88.8063	98.1445	88.8462	98.1445	88.7284	98.1445	88.7869	98.1445	88.6321	98.1445	88.7116	98.1445	88.5222	98.1445	88.625	98.1445	88.404	98.1445	88.5323	98.1445	88.2837	98.1445	88.4389	98.1445	88.1679	98.1445	88.3495	98.1445	88.0628	98.1445	88.2682	98.1445	87.9739	98.1445	88.1976	98.1445	87.9056	98.1445	88.1384	98.1445	87.86	98.1445	88.0897	98.1445	87.8368	98.1445	88.0497	98.1445	87.8335	98.1445	88.0158	98.1445	87.8457	98.1445	87.9851	98.1445	87.8683	98.1445	87.9556	98.1445	87.8962	98.1445	87.926
101.074	88.8748	101.074	88.8786	101.074	88.8452	101.074	88.8574	101.074	88.7909	101.074	88.8129	101.074	88.7137	101.074	88.7484	101.074	88.617	101.074	88.668	101.074	88.5052	101.074	88.5769	101.074	88.3836	101.074	88.4806	101.074	88.2582	101.074	88.3845	101.074	88.1356	101.074	88.2936	101.074	88.0222	101.074	88.2116	101.074	87.9245	101.074	88.1409	101.074	87.8475	101.074	88.0821	101.074	87.7948	101.074	88.0345	101.074	87.7674	101.074	87.9959	101.074	87.7634	101.074	87.9633	101.074	87.778	101.074	87.9335	101.074	87.805	101.074	87.9035	101.074	87.8379	101.074	87.8716
105.469	88.8912	105.469	88.8905	105.469	88.8656	105.469	88.863	105.469	88.8156	105.469	88.8098	105.469	88.7447	105.469	88.7338	105.469	88.6574	105.469	88.6393	105.469	88.5591	105.469	88.5321	105.469	88.4559	105.469	88.4189	105.469	88.3536	105.469	88.3069	105.469	88.2577	105.469	88.2033	105.469	88.1728	105.469	88.1142	105.469	88.1021	105.469	88.0437	105.469	88.047	105.469	87.9937	105.469	88.0073	105.469	87.9631	105.469	87.9814	105.469	87.9483	105.469	87.9665	105.469	87.9445	105.469	87.9595	105.469	87.9467	105.469	87.957	105.469	87.9508	105.469	87.9559	105.469	87.9541
108.398	89.0159	108.398	89.0078	108.398	88.9948	108.398	88.9716	108.398	88.9449	108.398	88.9096	108.398	88.868	108.398	88.8256	108.398	88.7673	108.398	88.7245	108.398	88.6478	108.398	88.6123	108.398	88.5158	108.398	88.4959	108.398	88.379	108.398	88.3825	108.398	88.246	108.398	88.2788	108.398	88.1249	108.398	88.1904	108.398	88.0229	108.398	88.1209	108.398	87.945	108.398	88.0709	108.398	87.8932	108.398	88.0382	108.398	87.8668	108.398	88.0178	108.398	87.862	108.398	88.0037	108.398	87.8738	108.398	87.99	108.398	87.8962	108.398	87.9726	108.398	87.9233	108.398	87.95
112.793	89.0326	112.793	89.0324	112.793	88.9999	112.793	89.0006	112.793	88.935	112.793	88.9399	112.793	88.8404	112.793	88.8549	112.793	88.7204	112.793	88.7515	112.793	88.5809	112.793	88.6363	112.793	88.4293	112.793	88.5166	112.793	88.2736	112.793	88.3991	112.793	88.1223	112.793	88.2897	112.793	87.9834	112.793	88.1926	112.793	87.8638	112.793	88.1096	112.793	87.7683	112.793	88.0406	112.793	87.6996	112.793	87.9829	112.793	87.6578	112.793	87.9329	112.793	87.6411	112.793	87.8866	112.793	87.6463	112.793	87.8409	112.793	87.6692	112.793	87.7943	112.793	87.7047	112.793	87.7479
117.188	89.0252	117.188	88.9985	117.188	89.0156	117.188	88.9364	117.188	88.9705	117.188	88.8419	117.188	88.8922	117.188	88.7201	117.188	88.7848	117.188	88.5778	117.188	88.6539	117.188	88.424	117.188	88.5068	117.188	88.2688	117.188	88.352	117.188	88.1229	117.188	88.1988	117.188	87.9958	117.188	88.0568	117.188	87.8946	117.188	87.9343	117.188	87.8229	117.188	87.8374	117.188	87.78	117.188	87.7694	117.188	87.7613	117.188	87.7297	117.188	87.7591	117.188	87.7147	117.188	87.765	117.188	87.7181	117.188	87.771	117.188	87.7323	117.188	87.7716	117.188	87.7498	117.188	87.7642
120.117	89.0465	120.117	89.0168	120.117	89.0408	120.117	88.9524	120.117	89	120.117	88.8558	120.117	88.926	120.117	88.7313	120.117	88.822	120.117	88.5849	120.117	88.6924	120.117	88.4245	120.117	88.5436	120.117	88.2597	120.117	88.383	120.117	88.1008	120.117	88.2198	120.117	87.958	120.117	88.0634	120.117	87.8397	120.117	87.9231	120.117	87.7512	120.117	87.8068	120.117	87.6933	120.117	87.7192	120.117	87.6627	120.117	87.6618	120.117	87.6524	120.117	87.6321	120.117	87.6535	120.117	87.6243	120.117	87.6578	120.117	87.6305	120.117	87.6588	120.117	87.6426	120.117	87.6534
124.512	88.9746	124.512	88.9382	124.512	88.9776	124.512	88.8686	124.512	88.948	124.512	88.7678	124.512	88.8879	124.512	88.6392	124.512	88.8002	124.512	88.4879	124.512	88.6887	124.512	88.3212	124.512	88.5583	124.512	88.1478	124.512	88.4152	124.512	87.9781	124.512	88.2664	124.512	87.8226	124.512	88.1199	124.512	87.6909	124.512	87.9834	124.512	87.5904	124.512	87.8643	124.512	87.5241	124.512	87.7674	124.512	87.4907	124.512	87.6948	124.512	87.4843	124.512	87.645	124.512	87.4965	124.512	87.6134	124.512	87.5179	124.512	87.5933	124.512	87.5411	124.512	87.5778	124.512	87.5614
128.906	88.6479	128.906	88.6515	128.906	88.6144	128.906	88.6246	128.906	88.5531	128.906	88.5683	128.906	88.4672	128.906	88.4853	128.906	88.3614	128.906	88.3799	128.906	88.2415	128.906	88.2581	128.906	88.1137	128.906	88.1271	128.906	87.9851	128.906	87.9955	128.906	87.8625	128.906	87.872	128.906	87.7525	128.906	87.7648	128.906	87.661	128.906	87.6802	128.906	87.5923	128.906	87.6213	128.906	87.5488	128.906	87.5877	128.906	87.5295	128.906	87.5751	128.906	87.5303	128.906	87.5768	128.906	87.5445	128.906	87.5846	128.906	87.5639	128.906	87.591	128.906	87.5809	128.906	87.5905
133.301	88.5743	133.301	88.5794	133.301	88.5352	133.301	88.5515	133.301	88.4631	133.301	88.4931	133.301	88.3606	133.301	88.4084	133.301	88.2328	133.301	88.3031	133.301	88.0864	133.301	88.1838	133.301	87.9299	133.301	88.0582	133.301	87.7732	133.301	87.9344	133.301	87.6266	133.301	87.8203	133.301	87.4998	133.301	87.7228	133.301	87.4009	133.301	87.6466	133.301	87.3352	133.301	87.5936	133.301	87.3043	133.301	87.562	133.301	87.3056	133.301	87.5469	133.301	87.3325	133.301	87.5411	133.301	87.3756	133.301	87.5364	133.301	87.4243	133.301	87.5257	133.301	87.4691	133.301	87.5038
139.16	88.6109	139.16	88.6005	139.16	88.5803	139.16	88.5506	139.16	88.5091	139.16	88.4648	139.16	88.4	139.16	88.3487	139.16	88.2575	139.16	88.2105	139.16	88.0883	139.16	88.0597	139.16	87.9014	139.16	87.9073	139.16	87.7076	139.16	87.7642	139.16	87.5193	139.16	87.6398	139.16	87.349	139.16	87.5407	139.16	87.2083	139.16	87.4689	139.16	87.1058	139.16	87.4224	139.16	87.046	139.16	87.395	139.16	87.0281	139.16	87.3784	139.16	87.0463	139.16	87.3637	139.16	87.0907	139.16	87.3434	139.16	87.1496	139.16	87.312	139.16	87.2116	139.16	87.2676
143.555	88.5486	143.555	88.524	143.555	88.5315	143.555	88.4592	143.555	88.4732	143.555	88.3574	143.555	88.3756	143.555	88.224	143.555	88.2427	143.555	88.0664	143.555	88.08	143.555	87.8946	143.555	87.8952	143.555	87.7202	143.555	87.698	143.555	87.5559	143.555	87.5001	143.555	87.4136	143.555	87.314	143.555	87.3022	143.555	87.1521	143.555	87.2256	143.555	87.0247	143.555	87.1813	143.555	86.9386	143.555	87.1613	143.555	86.8952	143.555	87.1543	143.555	86.8909	143.555	87.1486	143.555	86.9172	143.555	87.135	143.555	86.963	143.555	87.1082	143.555	87.0166	143.555	87.0675
147.949	88.275	147.949	88.2392	147.949	88.2724	147.949	88.1666	147.949	88.2316	147.949	88.0605	147.949	88.1544	147.949	87.926	147.949	88.0444	147.949	87.7701	147.949	87.907	147.949	87.6019	147.949	87.7497	147.949	87.432	147.949	87.5815	147.949	87.2727	147.949	87.4132	147.949	87.1357	147.949	87.2555	147.949	87.0306	147.949	87.1185	147.949	86.9624	147.949	87.0097	147.949	86.9295	147.949	86.9328	147.949	86.9245	147.949	86.8879	147.949	86.9357	147.949	86.8712	147.949	86.9507	147.949	86.8765	147.949	86.9599	147.949	86.8958	147.949	86.9576	147.949	86.9207	147.949	86.9434
153.809	88.122	153.809	88.0866	153.809	88.1149	153.809	88.011	153.809	88.0648	153.809	87.8996	153.809	87.9732	153.809	87.7589	153.809	87.8436	153.809	87.597	153.809	87.6817	153.809	87.4235	153.809	87.496	153.809	87.2496	153.809	87.2981	153.809	87.0871	153.809	87.1023	153.809	86.9483	153.809	86.925	153.809	86.844	153.809	86.7814	153.809	86.7808	153.809	86.6824	153.809	86.7594	153.809	86.6319	153.809	86.7727	153.809	86.626	153.809	86.8074	153.809	86.655	153.809	86.847	153.809	86.7064	153.809	86.8758	153.809	86.7666	153.809	86.883	153.809	86.8231	153.809	86.8645
159.668	88.2138	159.668	88.1854	159.668	88.1952	159.668	88.1102	159.668	88.132	159.668	87.9911	159.668	88.0289	159.668	87.8348	159.668	87.8922	159.668	87.651	159.668	87.7295	159.668	87.453	159.668	87.5493	159.668	87.256	159.668	87.3612	159.668	87.076	159.668	87.1756	159.668	86.927	159.668	87.0041	159.668	86.8192	159.668	86.8589	159.668	86.7566	159.668	86.7513	159.668	86.7367	159.668	86.6884	159.668	86.751	159.668	86.6712	159.668	86.7865	159.668	86.6925	159.668	86.8287	159.668	86.739	159.668	86.8637	159.668	86.7945	159.668	86.8809	159.668	86.8434	159.668	86.8742
165.527	88.2308	165.527	88.2039	165.527	88.2076	165.527	88.127	165.527	88.1365	165.527	88.003	165.527	88.0221	165.527	87.838	165.527	87.8711	165.527	87.6413	165.527	87.6924	165.527	87.4264	165.527	87.497	165.527	87.2097	165.527	87.2977	165.527	87.0102	165.527	87.1082	165.527	86.846	165.527	86.9423	165.527	86.7316	165.527	86.8118	165.527	86.6736	165.527	86.7251	165.527	86.669	165.527	86.6854	165.527	86.7057	165.527	86.6892	165.527	86.7661	165.527	86.7266	165.527	86.8312	165.527	86.7833	165.527	86.8847	165.527	86.8432	165.527	86.9154	165.527	86.8916	165.527	86.9176
171.387	88.1341	171.387	88.0931	171.387	88.1217	171.387	87.9986	171.387	88.0582	171.387	87.8528	171.387	87.9477	171.387	87.6611	171.387	87.7964	171.387	87.4328	171.387	87.6127	171.387	87.1822	171.387	87.4074	171.387	86.9287	171.387	87.1933	171.387	86.6956	171.387	86.985	171.387	86.5068	171.387	86.7979	171.387	86.3817	171.387	86.6465	171.387	86.33	171.387	86.5425	171.387	86.348	171.387	86.4918	171.387	86.4193	171.387	86.4926	171.387	86.5195	171.387	86.5348	171.387	86.6224	171.387	86.602	171.387	86.7059	171.387	86.6745	171.387	86.755	171.387	86.7335	171.387	86.7635
177.246	88.0954	177.246	88.0788	177.246	88.0569	177.246	88.0066	177.246	87.9655	177.246	87.8795	177.246	87.8251	177.246	87.6998	177.246	87.6422	177.246	87.4727	177.246	87.4262	177.246	87.2073	177.246	87.19	177.246	86.9188	177.246	86.9499	177.246	86.6289	177.246	86.7241	177.246	86.3658	177.246	86.5305	177.246	86.1591	177.246	86.3845	177.246	86.0325	177.246	86.2954	177.246	85.995	177.246	86.2649	177.246	86.0374	177.246	86.2853	177.246	86.1352	177.246	86.3411	177.246	86.2572	177.246	86.4116	177.246	86.3738	177.246	86.475	177.246	86.4623	177.246	86.512	177.246	86.5096
183.105	87.8632	183.105	87.8504	183.105	87.8247	183.105	87.7884	183.105	87.7339	183.105	87.6805	183.105	87.5922	183.105	87.5306	183.105	87.4035	183.105	87.3438	183.105	87.1748	183.105	87.1274	183.105	86.9171	183.105	86.8921	183.105	86.645	183.105	86.6534	183.105	86.3769	183.105	86.4306	183.105	86.1328	183.105	86.2444	183.105	85.9329	183.105	86.1118	183.105	85.7939	183.105	86.0403	183.105	85.7257	183.105	86.0255	183.105	85.7282	183.105	86.0521	183.105	85.79	183.105	86.0989	183.105	85.8889	183.105	86.1429	183.105	85.9975	183.105	86.1638	183.105	86.0899	183.105	86.1477
188.965	87.7035	188.965	87.6613	188.965	87.6872	188.965	87.5646	188.965	87.6103	188.965	87.4193	188.965	87.4736	188.965	87.2337	188.965	87.2812	188.965	87.0176	188.965	87.0409	188.965	86.7841	188.965	86.7655	188.965	86.549	188.965	86.4728	188.965	86.3322	188.965	86.1854	188.965	86.1549	188.965	85.9283	188.965	86.0349	188.965	85.7249	188.965	85.9796	188.965	85.5915	188.965	85.9813	188.965	85.5336	188.965	86.0187	188.965	85.545	188.965	86.0652	188.965	85.6104	188.965	86.0981	188.965	85.7095	188.965	86.1033	188.965	85.8214	188.965	86.0756	188.965	85.9279	188.965	86.0155
196.289	87.8493	196.289	87.7882	196.289	87.8457	196.289	87.6654	196.289	87.7767	196.289	87.4868	196.289	87.6441	196.289	87.2611	196.289	87.4523	196.289	86.9999	196.289	87.2081	196.289	86.7179	196.289	86.9222	196.289	86.433	196.289	86.6095	196.289	86.1674	196.289	86.2902	196.289	85.9469	196.289	85.9892	196.289	85.7971	196.289	85.7344	196.289	85.7347	196.289	85.5515	196.289	85.7582	196.289	85.4578	196.289	85.8449	196.289	85.4557	196.289	85.9574	196.289	85.5313	196.289	86.057	196.289	85.6587	196.289	86.1144	196.289	85.8072	196.289	86.1144	196.289	85.9475	196.289	86.0557
203.613	87.938	203.613	87.8644	203.613	87.9422	203.613	87.7221	203.613	87.8781	203.613	87.5146	203.613	87.7479	203.613	87.2484	203.613	87.5554	203.613	86.9341	203.613	87.3057	203.613	86.5863	203.613	87.007	203.613	86.2248	203.613	86.6722	203.613	85.8745	203.613	86.3207	203.613	85.5655	203.613	85.9788	203.613	85.3302	203.613	85.678	203.613	85.1948	203.613	85.4491	203.613	85.1691	203.613	85.3136	203.613	85.239	203.613	85.2757	203.613	85.3692	203.613	85.3204	203.613	85.5145	203.613	85.4189	203.613	85.6338	203.613	85.5362	203.613	85.699	203.613	85.6387	203.613	85.699
210.938	87.6838	210.938	87.6066	210.938	87.6947	210.938	87.462	210.938	87.6424	210.938	87.2514	210.938	87.5316	210.938	86.9792	210.938	87.3683	210.938	86.6538	210.938	87.1592	210.938	86.2885	210.938	86.9118	210.938	85.9027	210.938	86.6344	210.938	85.5231	210.938	86.3379	210.938	85.1834	210.938	86.0374	210.938	84.9201	210.938	85.7541	210.938	84.7632	210.938	85.5132	210.938	84.7242	210.938	85.3386	210.938	84.7885	210.938	85.2429	210.938	84.9196	210.938	85.2211	210.938	85.073	210.938	85.251	210.938	85.2098	210.938	85.3015	210.938	85.3048	210.938	85.3418	210.938	85.3477
218.262	87.2965	218.262	87.2702	218.262	87.2644	218.262	87.1826	218.262	87.1778	218.262	87.0328	218.262	87.0414	218.262	86.8228	218.262	86.8609	218.262	86.5589	218.262	86.6438	218.262	86.2525	218.262	86.4004	218.262	85.921	218.262	86.144	218.262	85.5876	218.262	85.8906	218.262	85.2816	218.262	85.6578	218.262	85.0351	218.262	85.4637	218.262	84.8782	218.262	85.3244	218.262	84.8285	218.262	85.2511	218.262	84.8828	218.262	85.2454	218.262	85.015	218.262	85.2958	218.262	85.1833	218.262	85.3787	218.262	85.3442	218.262	85.463	218.262	85.4636	218.262	85.5186	218.262	85.5227
225.586	87.6344	225.586	87.6557	225.586	87.5392	225.586	87.6019	225.586	87.3726	225.586	87.4736	225.586	87.139	225.586	87.2733	225.586	86.8454	225.586	87.0069	225.586	86.5016	225.586	86.6853	225.586	86.1219	225.586	86.3271	225.586	85.7256	225.586	85.9594	225.586	85.3386	225.586	85.618	225.586	84.9936	225.586	85.3421	225.586	84.7263	225.586	85.1645	225.586	84.568	225.586	85.0992	225.586	84.5349	225.586	85.135	225.586	84.6209	225.586	85.2393	225.586	84.7971	225.586	85.3691	225.586	85.0197	225.586	85.4809	225.586	85.2403	225.586	85.539	225.586	85.4167	225.586	85.52
232.91	87.5315	232.91	87.4955	232.91	87.4955	232.91	87.3931	232.91	87.3833	232.91	87.2294	232.91	87.1929	232.91	87.0098	232.91	86.926	232.91	86.7392	232.91	86.5887	232.91	86.4247	232.91	86.1932	232.91	86.0781	232.91	85.7585	232.91	85.7187	232.91	85.3112	232.91	85.3756	232.91	84.8854	232.91	85.0845	232.91	84.521	232.91	84.8801	232.91	84.258	232.91	84.782	232.91	84.1267	232.91	84.7847	232.91	84.1356	232.91	84.8579	232.91	84.2652	232.91	84.9578	232.91	84.471	232.91	85.0401	232.91	84.6974	232.91	85.0688	232.91	84.8928	232.91	85.0216
241.699	87.2557	241.699	87.1767	241.699	87.2653	241.699	87.0298	241.699	87.2058	241.699	86.8187	241.699	87.0786	241.699	86.5488	241.699	86.8849	241.699	86.2273	241.699	86.6252	241.699	85.8637	241.699	86.3005	241.699	85.4721	241.699	85.9149	241.699	85.074	241.699	85.4804	241.699	84.701	241.699	85.0227	241.699	84.3941	241.699	84.5844	241.699	84.1951	241.699	84.221	241.699	84.1291	241.699	83.9848	241.699	84.186	241.699	83.9029	241.699	84.3203	241.699	83.9627	241.699	84.4708	241.699	84.1177	241.699	84.5848	241.699	84.3076	241.699	84.6295	241.699	84.4786	241.699	84.5926
250.488	87.297	250.488	87.2535	250.488	87.2684	250.488	87.1375	250.488	87.1696	250.488	86.9513	250.488	87.0045	250.488	86.6997	250.488	86.7786	250.488	86.3908	250.488	86.4997	250.488	86.0352	250.488	86.177	250.488	85.6466	250.488	85.8207	250.488	85.2412	250.488	85.4415	250.488	84.8377	250.488	85.0536	250.488	84.4564	250.488	84.68	250.488	84.1218	250.488	84.3551	250.488	83.8637	250.488	84.119	250.488	83.7131	250.488	83.9988	250.488	83.6856	250.488	83.989	250.488	83.7654	250.488	84.0498	250.488	83.9049	250.488	84.1253	250.488	84.0455	250.488	84.1653	250.488	84.1401
259.277	87.1696	259.277	87.1444	259.277	87.126	259.277	87.0523	259.277	87.014	259.277	86.8967	259.277	86.8375	259.277	86.6818	259.277	86.6047	259.277	86.4127	259.277	86.3274	259.277	86.0953	259.277	86.019	259.277	85.738	259.277	85.6915	259.277	85.3536	259.277	85.3551	259.277	84.9627	259.277	85.02	259.277	84.5941	259.277	84.7006	259.277	84.281	259.277	84.4192	259.277	84.0525	259.277	84.2029	259.277	83.923	259.277	84.0724	259.277	83.8872	259.277	84.0287	259.277	83.9216	259.277	84.048	259.277	83.9927	259.277	84.0913	259.277	84.0659	259.277	84.1208	259.277	84.1134
268.066	86.5799	268.066	86.4578	268.066	86.6352	268.066	86.2919	268.066	86.6045	268.066	86.1049	268.066	86.4757	268.066	85.915	268.066	86.2464	268.066	85.7332	268.066	85.925	268.066	85.564	268.066	85.5303	268.066	85.4084	268.066	85.0894	268.066	85.2661	268.066	84.6324	268.066	85.1348	268.066	84.187	268.066	85.0076	268.066	83.7765	268.066	84.8726	268.066	83.4238	268.066	84.7182	268.066	83.1561	268.066	84.5405	268.066	83.002	268.066	84.3469	268.066	82.9767	268.066	84.1526	268.066	83.0667	268.066	83.9691	268.066	83.2323	268.066	83.7948	268.066	83.4267	268.066	83.6172
276.855	86.1847	276.855	85.9622	276.855	86.3248	276.855	85.6689	276.855	86.3835	276.855	85.3344	276.855	86.3672	276.855	85.0055	276.855	86.2818	276.855	84.7351	276.855	86.1289	276.855	84.5614	276.855	85.905	276.855	84.4905	276.855	85.6058	276.855	84.4967	276.855	85.2348	276.855	84.541	276.855	84.8118	276.855	84.5878	276.855	84.3766	276.855	84.6108	276.855	83.9797	276.855	84.5913	276.855	83.6617	276.855	84.5146	276.855	83.4354	276.855	84.3724	276.855	83.2905	276.855	84.1673	276.855	83.2143	276.855	83.9179	276.855	83.2073	276.855	83.6597	276.855	83.2796	276.855	83.4353
287.109	86.6472	287.109	86.5042	287.109	86.6277	287.109	86.1816	287.109	86.4638	287.109	85.6634	287.109	86.178	287.109	84.943	287.109	85.8046	287.109	84.0456	287.109	85.3951	287.109	83.0721	287.109	85.0183	287.109	82.251	287.109	84.7432	287.109	81.9016	287.109	84.606	287.109	82.1877	287.109	84.5894	287.109	82.9339	287.109	84.6396	287.109	83.822	287.109	84.7071	287.109	84.6217	287.109	84.7725	287.109	85.2233	287.109	84.8429	287.109	85.5966	287.109	84.9329	287.109	85.76	287.109	85.0493	287.109	85.7612	287.109	85.1893	287.109	85.6598	287.109	85.346	287.109	85.5093
297.363	88.0319	297.363	88.0016	297.363	87.9481	297.363	87.8403	297.363	87.7537	297.363	87.5214	297.363	87.4386	297.363	87.0135	297.363	86.9832	297.363	86.2883	297.363	86.3655	297.363	85.333	297.363	85.5715	297.363	84.1815	297.363	84.6155	297.363	82.9733	297.363	83.5788	297.363	82.0141	297.363	82.6577	297.363	81.6694	297.363	82.1388	297.363	82.0135	297.363	82.1923	297.363	82.7568	297.363	82.7002	297.363	83.584	297.363	83.4111	297.363	84.331	297.363	84.1416	297.363	84.9404	297.363	84.7946	297.363	85.3939	297.363	85.3098	297.363	85.6756	297.363	85.6417	297.363	85.764
307.617	87.4123	307.617	87.3985	307.617	87.3418	307.617	87.2839	307.617	87.1984	307.617	87.0499	307.617	86.9859	307.617	86.6772	307.617	86.7012	307.617	86.1456	307.617	86.3382	307.617	85.4338	307.617	85.891	307.617	84.528	307.617	85.3551	307.617	83.4512	307.617	84.7307	307.617	82.3277	307.617	84.0386	307.617	81.4573	307.617	83.3524	307.617	81.2201	307.617	82.817	307.617	81.6903	307.617	82.5963	307.617	82.535	307.617	82.7485	307.617	83.3958	307.617	83.1735	307.617	84.0884	307.617	83.7043	307.617	84.5529	307.617	84.2029	307.617	84.7815	307.617	84.5807	307.617	84.7843
319.336	87.08	319.336	86.9453	319.336	87.1133	319.336	86.7229	319.336	87.037	319.336	86.4245	319.336	86.8502	319.336	86.0522	319.336	86.557	319.336	85.5938	319.336	86.16	319.336	85.0234	319.336	85.6581	319.336	84.3099	319.336	85.0527	319.336	83.4387	319.336	84.364	319.336	82.4592	319.336	83.6521	319.336	81.5604	319.336	83.0314	319.336	81.081	319.336	82.6487	319.336	81.2511	319.336	82.6024	319.336	81.9046	319.336	82.8591	319.336	82.6869	319.336	83.2759	319.336	83.3646	319.336	83.7004	319.336	83.856	319.336	84.0339	319.336	84.1544	319.336	84.2311	319.336	84.2747
329.59	86.6728	329.59	86.5997	329.59	86.7017	329.59	86.4909	329.59	86.6631	329.59	86.3368	329.59	86.5292	329.59	86.1148	329.59	86.2805	329.59	85.7953	329.59	85.9121	329.59	85.348	329.59	85.4309	329.59	84.7472	329.59	84.8497	329.59	83.9842	329.59	84.1846	329.59	83.0902	329.59	83.4652	329.59	82.1776	329.59	82.7578	329.59	81.4739	329.59	82.1833	329.59	81.2436	329.59	81.8877	329.59	81.5513	329.59	81.9452	329.59	82.1767	329.59	82.2872	329.59	82.8337	329.59	82.7563	329.59	83.3427	329.59	83.2051	329.59	83.6318	329.59	83.536	329.59	83.6902
341.309	86.8497	341.309	86.83	341.309	86.7631	341.309	86.6963	341.309	86.5759	341.309	86.4427	341.309	86.2883	341.309	86.0675	341.309	85.8925	341.309	85.5749	341.309	85.3743	341.309	84.9762	341.309	84.7203	341.309	84.2886	341.309	83.9331	341.309	83.5363	341.309	83.0582	341.309	82.7614	341.309	82.2219	341.309	82.0522	341.309	81.6458	341.309	81.5585	341.309	81.5443	341.309	81.4296	341.309	81.9268	341.309	81.6808	341.309	82.5754	341.309	82.1661	341.309	83.2346	341.309	82.709	341.309	83.7384	341.309	83.204	341.309	84.0153	341.309	83.6117	341.309	84.0604	341.309	83.9096
353.027	86.5594	353.027	86.4806	353.027	86.5563	353.027	86.3177	353.027	86.4744	353.027	86.0682	353.027	86.3161	353.027	85.7261	353.027	86.0786	353.027	85.2776	353.027	85.7487	353.027	84.7018	353.027	85.2961	353.027	83.9823	353.027	84.6698	353.027	83.1324	353.027	83.8024	353.027	82.2354	353.027	82.6286	353.027	81.4847	353.027	81.1404	353.027	81.1501	353.027	79.5445	353.027	81.3732	353.027	78.5068	353.027	81.9948	353.027	78.7524	353.027	82.7066	353.027	79.9377	353.027	83.2805	353.027	81.2528	353.027	83.6168	353.027	82.3186	353.027	83.6941	353.027	83.0646	353.027	83.5135
366.211	86.6125	366.211	86.512	366.211	86.6286	366.211	86.3113	366.211	86.5703	366.211	85.9922	366.211	86.4396	366.211	85.5353	366.211	86.2325	366.211	84.9204	366.211	85.9437	366.211	84.1325	366.211	85.5688	366.211	83.1764	366.211	85.097	366.211	82.1017	366.211	84.4992	366.211	81.0312	366.211	83.7254	366.211	80.1754	366.211	82.7272	366.211	79.783	366.211	81.5178	366.211	79.9855	366.211	80.283	366.211	80.6608	366.211	79.4741	366.211	81.514	366.211	79.525	366.211	82.2657	366.211	80.2877	366.211	82.7432	366.211	81.2562	366.211	82.8731	366.211	82.0889	366.211	82.6464
379.395	86.5078	379.395	86.5016	379.395	86.4752	379.395	86.4401	379.395	86.4136	379.395	86.2995	379.395	86.3231	379.395	86.0485	379.395	86.1859	379.395	85.6523	379.395	85.9644	379.395	85.0749	379.395	85.6139	379.395	84.279	379.395	85.1026	379.395	83.2275	379.395	84.4264	379.395	81.902	379.395	83.616	379.395	80.384	379.395	82.7411	379.395	79.0641	379.395	81.9186	379.395	78.7	379.395	81.3134	379.395	79.5012	379.395	81.0899	379.395	80.7267	379.395	81.2908	379.395	81.7706	379.395	81.7717	379.395	82.4629	379.395	82.3034	379.395	82.821	379.395	82.707	379.395	82.8918
392.578	86.2632	392.578	86.1637	392.578	86.3043	392.578	86.0442	392.578	86.2527	392.578	85.9277	392.578	86.0915	392.578	85.8015	392.578	85.8268	392.578	85.6083	392.578	85.4792	392.578	85.261	392.578	85.0619	392.578	84.6717	392.578	84.5602	392.578	83.7838	392.578	83.9356	392.578	82.6098	392.578	83.1592	392.578	81.286	392.578	82.2604	392.578	80.1266	392.578	81.3732	392.578	79.5478	392.578	80.7471	392.578	79.7485	392.578	80.6274	392.578	80.516	392.578	81.0281	392.578	81.4663	392.578	81.7074	392.578	82.2972	392.578	82.3815	392.578	82.8394	392.578	82.8565	392.578	83.0258
405.762	86.8336	405.762	86.6966	405.762	86.8534	405.762	86.4568	405.762	86.7468	405.762	86.1421	405.762	86.5099	405.762	85.7972	405.762	86.1497	405.762	85.4579	405.762	85.6843	405.762	85.107	405.762	85.1327	405.762	84.6583	405.762	84.5014	405.762	83.997	405.762	83.7785	405.762	83.0502	405.762	82.9493	405.762	81.8657	405.762	82.0448	405.762	80.7106	405.762	81.2188	405.762	80.0709	405.762	80.7627	405.762	80.2369	405.762	80.8855	405.762	80.9409	405.762	81.4547	405.762	81.7604	405.762	82.1507	405.762	82.4603	405.762	82.7338	405.762	82.9424	405.762	83.0859	405.762	83.1582
420.41	87.2216	420.41	87.2014	420.41	87.1713	420.41	87.088	420.41	87.0747	420.41	86.8644	420.41	86.9491	420.41	86.518	420.41	86.7977	420.41	86.0399	420.41	86.6065	420.41	85.4291	420.41	86.3389	420.41	84.6918	420.41	85.9325	420.41	83.8198	420.41	85.3053	420.41	82.7691	420.41	84.376	420.41	81.5141	420.41	83.0924	420.41	80.261	420.41	81.4912	420.41	79.6727	420.41	79.8575	420.41	80.2337	420.41	78.9165	420.41	81.3851	420.41	79.269	420.41	82.4108	420.41	80.4377	420.41	83.0448	420.41	81.6527	420.41	83.2665	420.41	82.5675	420.41	83.105
435.059	87.2207	435.059	87.1807	435.059	87.1677	435.059	87.0483	435.059	87.0353	435.059	86.8261	435.059	86.847	435.059	86.5023	435.059	86.6176	435.059	86.0441	435.059	86.337	435.059	85.4013	435.059	85.9715	435.059	84.5196	435.059	85.4767	435.059	83.3568	435.059	84.805	435.059	81.9156	435.059	83.9149	435.059	80.33	435.059	82.7983	435.059	79.0513	435.059	81.5545	435.059	78.8083	435.059	80.5117	435.059	79.7082	435.059	80.189	435.059	81.0201	435.059	80.7499	435.059	82.1676	435.059	81.7352	435.059	82.9658	435.059	82.6449	435.059	83.404	435.059	83.2498	435.059	83.4998
451.172	87.0308	451.172	86.8885	451.172	87.0755	451.172	86.6609	451.172	87.0232	451.172	86.392	451.172	86.877	451.172	86.1475	451.172	86.6487	451.172	85.9581	451.172	86.3689	451.172	85.7609	451.172	86.0699	451.172	85.4045	451.172	85.7433	451.172	84.7109	451.172	85.3096	451.172	83.5353	451.172	84.6385	451.172	81.7969	451.172	83.609	451.172	79.5786	451.172	82.1907	451.172	77.6255	451.172	80.5841	451.172	77.6513	451.172	79.4095	451.172	79.4295	451.172	79.3745	451.172	81.2141	451.172	80.2898	451.172	82.3783	451.172	81.4227	451.172	82.895	451.172	82.3323	451.172	82.8512
465.82	86.8829	465.82	86.8436	465.82	86.864	465.82	86.746	465.82	86.782	465.82	86.5845	465.82	86.6285	465.82	86.3495	465.82	86.3927	465.82	86.0308	465.82	86.0698	465.82	85.6141	465.82	85.6738	465.82	85.0693	465.82	85.2339	465.82	84.3409	465.82	84.758	465.82	83.3566	465.82	84.193	465.82	82.0741	465.82	83.432	465.82	80.6087	465.82	82.392	465.82	79.4362	465.82	81.1588	465.82	79.2142	465.82	80.185	465.82	79.9007	465.82	80.1095	465.82	80.8687	465.82	80.8606	465.82	81.7097	465.82	81.7491	465.82	82.2763	465.82	82.3334	465.82	82.5019
483.398	86.7589	483.398	86.597	483.398	86.7931	483.398	86.3409	483.398	86.6835	483.398	86.028	483.398	86.4486	483.398	85.6996	483.398	86.1326	483.398	85.3963	483.398	85.7746	483.398	85.1252	483.398	85.3781	483.398	84.8256	483.398	84.8987	483.398	84.3632	483.398	84.2496	483.398	83.5408	483.398	83.3263	483.398	82.1076	483.398	82.0462	483.398	79.837	483.398	80.4284	483.398	77.1664	483.398	78.8373	483.398	76.7869	483.398	78.2787	483.398	78.9231	483.398	79.2555	483.398	80.805	483.398	80.7407	483.398	81.9116	483.398	81.8836	483.398	82.4674	483.398	82.496	483.398	82.6565
499.512	87.4367	499.512	87.2688	499.512	87.4505	499.512	86.9545	499.512	87.3188	499.512	86.5196	499.512	87.07	499.512	86.0068	499.512	86.7516	499.512	85.4606	499.512	86.4109	499.512	84.8944	499.512	86.0613	499.512	84.2652	499.512	85.6624	499.512	83.4846	499.512	85.1308	499.512	82.4638	499.512	84.3625	499.512	81.1592	499.512	83.2427	499.512	79.6204	499.512	81.6631	499.512	78.1648	499.512	79.6097	499.512	77.6964	499.512	77.5101	499.512	78.8298	499.512	76.7404	499.512	80.587	499.512	77.9706	499.512	81.9397	499.512	79.8431	499.512	82.5362	499.512	81.3965	499.512	82.3345
517.09	86.7325	517.09	86.6988	517.09	86.6077	517.09	86.4884	517.09	86.3643	517.09	86.1388	517.09	86.0395	517.09	85.7487	517.09	85.6657	517.09	85.4189	517.09	85.2815	517.09	85.1511	517.09	84.9416	517.09	84.8114	517.09	84.6928	517.09	84.2087	517.09	84.5005	517.09	83.1951	517.09	84.1995	517.09	81.6973	517.09	83.5516	517.09	79.7174	517.09	82.368	517.09	77.5147	517.09	80.682	517.09	76.3536	517.09	79.1192	517.09	77.6549	517.09	78.8831	517.09	79.9382	517.09	79.9752	517.09	81.7217	517.09	81.3157	517.09	82.677	517.09	82.3377	517.09	82.8402
536.133	87.4989	536.133	87.2575	536.133	87.5229	536.133	86.8538	536.133	87.3118	536.133	86.3456	536.133	86.8922	536.133	85.7743	536.133	86.3161	536.133	85.1946	536.133	85.6491	536.133	84.7027	536.133	84.9691	536.133	84.3533	536.133	84.3226	536.133	84.0089	536.133	83.6521	536.133	83.3471	536.133	82.8148	536.133	81.9913	536.133	81.7	536.133	79.6368	536.133	80.2925	536.133	76.7049	536.133	78.6642	536.133	76.1015	536.133	77.2385	536.133	78.0471	536.133	77.3089	536.133	79.7444	536.133	79.0972	536.133	80.8589	536.133	80.9206	536.133	81.6436	536.133	81.9238	536.133	82.0824
555.176	86.9009	555.176	86.9317	555.176	86.8108	555.176	86.8156	555.176	86.7058	555.176	86.4882	555.176	86.5808	555.176	85.9825	555.176	86.4084	555.176	85.4151	555.176	86.1574	555.176	84.8631	555.176	85.811	555.176	84.2717	555.176	85.3868	555.176	83.5208	555.176	84.9062	555.176	82.5323	555.176	84.2997	555.176	81.2472	555.176	83.3441	555.176	79.4669	555.176	81.7144	555.176	76.7728	555.176	79.1268	555.176	73.2743	555.176	75.8711	555.176	73.7389	555.176	74.5344	555.176	77.5556	555.176	76.3537	555.176	80.0044	555.176	78.4437	555.176	80.9559	555.176	79.9453	555.176	80.8293
574.219	87.5608	574.219	87.2914	574.219	87.6099	574.219	86.8816	574.219	87.3767	574.219	86.4086	574.219	86.8544	574.219	85.9479	574.219	86.1457	574.219	85.5879	574.219	85.4738	574.219	85.3869	574.219	85.0449	574.219	85.2572	574.219	84.8529	574.219	84.9473	574.219	84.7108	574.219	84.1777	574.219	84.4123	574.219	82.7256	574.219	83.7793	574.219	80.3518	574.219	82.6412	574.219	76.6102	574.219	80.8227	574.219	71.5129	574.219	78.1662	574.219	72.5106	574.219	75.1767	574.219	76.678	574.219	75.1993	574.219	79.174	574.219	77.9826	574.219	80.4732	574.219	80.0234	574.219	80.7941
594.727	87.896	594.727	87.7223	594.727	87.7939	594.727	87.3025	594.727	87.4751	594.727	86.7024	594.727	87.0307	594.727	85.9581	594.727	86.4724	594.727	85.1192	594.727	85.7418	594.727	84.3933	594.727	84.8999	594.727	84.0969	594.727	84.2685	594.727	84.2118	594.727	84.1123	594.727	84.2693	594.727	84.1783	594.727	83.7937	594.727	83.9508	594.727	82.5155	594.727	83.0078	594.727	80.4208	594.727	81.0188	594.727	78.2159	594.727	77.9164	594.727	77.8224	594.727	75.7076	594.727	79.3531	594.727	77.2276	594.727	80.885	594.727	79.3095	594.727	81.5932	594.727	80.6729	594.727	81.4538
615.234	88.7376	615.234	88.5623	615.234	88.7245	615.234	88.2008	615.234	88.5271	615.234	87.6804	615.234	88.1502	615.234	87.0636	615.234	87.6055	615.234	86.4172	615.234	86.9352	615.234	85.7843	615.234	86.24	615.234	85.2109	615.234	85.6275	615.234	84.741	615.234	85.0771	615.234	84.3091	615.234	84.4242	615.234	83.6715	615.234	83.5259	615.234	82.4848	615.234	82.3556	615.234	80.4446	615.234	80.9274	615.234	77.6226	615.234	79.2949	615.234	75.7959	615.234	78.0026	615.234	76.9053	615.234	78.2878	615.234	78.7533	615.234	79.7694	615.234	80.1553	615.234	80.8489	615.234	80.9376
637.207	89.9866	637.207	89.8187	637.207	89.9342	637.207	89.4222	637.207	89.6439	637.207	88.7632	637.207	89.1253	637.207	87.8504	637.207	88.4467	637.207	86.8374	637.207	87.7025	637.207	86.0809	637.207	86.9752	637.207	85.8706	637.207	86.3757	637.207	85.9436	637.207	86.0517	637.207	85.7271	637.207	85.9715	637.207	84.8595	637.207	85.7656	637.207	83.2247	637.207	84.934	637.207	80.7639	637.207	83.0905	637.207	77.5586	637.207	80.095	637.207	76.193	637.207	77.0136	637.207	79.1533	637.207	77.5686	637.207	81.8852	637.207	80.189	637.207	83.149	637.207	82.1484	637.207	83.1603
659.18	89.638	659.18	89.5043	659.18	89.5874	659.18	89.1311	659.18	89.3671	659.18	88.4994	659.18	88.9175	659.18	87.6608	659.18	88.1792	659.18	86.719	659.18	87.21	659.18	85.8139	659.18	86.2207	659.18	85.1569	659.18	85.4904	659.18	84.9649	659.18	85.1859	659.18	85.091	659.18	85.1596	659.18	84.9069	659.18	84.9706	659.18	83.725	659.18	84.1625	659.18	81.0853	659.18	82.4032	659.18	77.415	659.18	79.4454	659.18	76.8861	659.18	76.0197	659.18	79.453	659.18	76.6203	659.18	81.3182	659.18	79.6632	659.18	82.2589	659.18	81.6542	659.18	82.4272
682.617	89.7734	682.617	89.5097	682.617	89.7593	682.617	89.0833	682.617	89.4098	682.617	88.5236	682.617	88.7948	682.617	87.765	682.617	88.0202	682.617	86.809	682.617	87.127	682.617	85.8592	682.617	86.1664	682.617	85.1787	682.617	85.3248	682.617	84.7476	682.617	84.7734	682.617	84.3299	682.617	84.444	682.617	83.7471	682.617	84.1781	682.617	82.7983	682.617	83.7767	682.617	81.0861	682.617	82.8334	682.617	78.3016	682.617	80.826	682.617	76.5449	682.617	77.7891	682.617	78.7335	682.617	76.8476	682.617	80.9465	682.617	79.3296	682.617	81.9974	682.617	81.3311	682.617	82.1372
707.52	89.8023	707.52	89.6983	707.52	89.7406	707.52	89.3907	707.52	89.4888	707.52	88.8041	707.52	89.0639	707.52	87.913	707.52	88.5218	707.52	86.7181	707.52	87.7826	707.52	85.2381	707.52	86.6448	707.52	83.8172	707.52	85.158	707.52	83.2967	707.52	83.9509	707.52	83.6965	707.52	83.6469	707.52	83.9171	707.52	83.6825	707.52	83.1619	707.52	83.128	707.52	81.0678	707.52	81.5842	707.52	77.6062	707.52	78.8162	707.52	75.1083	707.52	74.9702	707.52	77.7833	707.52	74.9435	707.52	81.056	707.52	78.8654	707.52	82.8339	707.52	81.6923	707.52	83.0202
732.422	89.3153	732.422	89.1767	732.422	89.2395	732.422	88.7756	732.422	89.0038	732.422	88.1432	732.422	88.5516	732.422	87.3227	732.422	87.7932	732.422	86.3486	732.422	86.7857	732.422	85.3674	732.422	85.7548	732.422	84.7032	732.422	84.963	732.422	84.5049	732.422	84.6112	732.422	84.3722	732.422	84.6828	732.422	83.7699	732.422	84.8209	732.422	82.4141	732.422	84.512	732.422	80.0354	732.422	83.2499	732.422	75.82	732.422	80.5667	732.422	71.787	732.422	75.9965	732.422	77.074	732.422	72.0945	732.422	80.6607	732.422	75.897	732.422	81.8936	732.422	79.4895	732.422	81.4368
757.324	89.5636	757.324	89.3993	757.324	89.5126	757.324	89.0173	757.324	89.2712	757.324	88.4527	757.324	88.8194	757.324	87.6772	757.324	88.1218	757.324	86.5369	757.324	87.1986	757.324	84.9435	757.324	86.0935	757.324	83.3781	757.324	84.8198	757.324	82.905	757.324	83.5835	757.324	83.408	757.324	83.0458	757.324	83.641	757.324	83.3625	757.324	82.7716	757.324	83.4909	757.324	80.2698	757.324	82.633	757.324	75.2275	757.324	80.6165	757.324	70.3534	757.324	77.306	757.324	76.2968	757.324	74.3553	757.324	79.9921	757.324	77.1925	757.324	81.5404	757.324	80.2867	757.324	81.6185
785.156	89.4613	785.156	89.2706	785.156	89.5079	785.156	88.9546	785.156	89.2633	785.156	88.396	785.156	88.6889	785.156	87.5044	785.156	87.9434	785.156	86.3133	785.156	87.1228	785.156	85.0046	785.156	86.1511	785.156	83.8466	785.156	85.0785	785.156	83.0458	785.156	84.1997	785.156	82.8009	785.156	83.67	785.156	83.0436	785.156	83.2933	785.156	82.8854	785.156	82.9064	785.156	81.1897	785.156	82.2516	785.156	76.6294	785.156	80.5854	785.156	67.7561	785.156	76.5509	785.156	73.1917	785.156	70.2161	785.156	77.4766	785.156	76.1993	785.156	79.7554	785.156	79.973	785.156	80.7688
811.523	89.8347	811.523	89.6661	811.523	89.658	811.523	89.2626	811.523	89.2193	811.523	88.6774	811.523	88.6963	811.523	87.7855	811.523	88.0599	811.523	86.4387	811.523	87.1245	811.523	84.5533	811.523	85.8002	811.523	82.4938	811.523	84.1965	811.523	81.9271	811.523	82.7957	811.523	83.0228	811.523	82.5031	811.523	83.8555	811.523	83.2329	811.523	83.6577	811.523	83.8115	811.523	82.2704	811.523	83.3831	811.523	79.2647	811.523	81.4426	811.523	73.8312	811.523	77.6722	811.523	75.2825	811.523	73.1226	811.523	79.9326	811.523	75.2167	811.523	81.5585	811.523	79.1081	811.523	81.1647
840.82	89.6855	840.82	89.6222	840.82	89.6938	840.82	89.4483	840.82	89.4189	840.82	88.9073	840.82	88.8618	840.82	87.986	840.82	88.2676	840.82	86.8348	840.82	87.5087	840.82	85.3823	840.82	86.1575	840.82	83.3828	840.82	84.2296	840.82	80.9136	840.82	82.4034	840.82	79.8048	840.82	81.438	840.82	81.2832	840.82	81.5608	840.82	82.3468	840.82	82.1833	840.82	81.6623	840.82	82.1845	840.82	78.6303	840.82	80.6702	840.82	72.2557	840.82	77.1173	840.82	72.9385	840.82	74.4191	840.82	78.3656	840.82	77.344	840.82	80.7457	840.82	79.9349	840.82	81.0951
870.117	89.8677	870.117	89.691	870.117	89.6428	870.117	89.0335	870.117	89.3376	870.117	88.3278	870.117	88.8799	870.117	87.7791	870.117	88.0206	870.117	86.95	870.117	86.8704	870.117	85.4485	870.117	85.666	870.117	83.3084	870.117	84.2859	870.117	81.1608	870.117	82.5652	870.117	80.3758	870.117	81.1628	870.117	81.1737	870.117	81.2263	870.117	82.0522	870.117	82.1152	870.117	81.5628	870.117	82.4573	870.117	78.6959	870.117	81.424	870.117	72.3285	870.117	78.1674	870.117	71.0353	870.117	72.5832	870.117	76.9567	870.117	75.072	870.117	79.8575	870.117	79.1928	870.117	80.6132
900.879	89.1414	900.879	88.9694	900.879	89.1395	900.879	88.781	900.879	88.755	900.879	88.3905	900.879	88.1727	900.879	87.6994	900.879	87.6694	900.879	86.8709	900.879	87.0902	900.879	85.8392	900.879	86.0969	900.879	84.2044	900.879	84.6315	900.879	81.7318	900.879	82.7366	900.879	78.7837	900.879	80.5017	900.879	78.0418	900.879	79.1096	900.879	79.4907	900.879	79.7436	900.879	80.0546	900.879	79.9702	900.879	78.5088	900.879	78.3974	900.879	72.3039	900.879	75.0009	900.879	68.3546	900.879	71.1495	900.879	76.8842	900.879	75.4571	900.879	79.6878	900.879	79.2403	900.879	80.3597
933.105	89.2302	933.105	88.9839	933.105	89.0425	933.105	88.2247	933.105	88.6042	933.105	87.2888	933.105	87.921	933.105	86.4934	933.105	86.9556	933.105	85.6023	933.105	85.8332	933.105	84.389	933.105	84.7043	933.105	83.0297	933.105	83.4576	933.105	81.5484	933.105	81.6895	933.105	80.1738	933.105	79.6599	933.105	80.0421	933.105	78.9124	933.105	80.8879	933.105	79.6784	933.105	80.8332	933.105	80.3062	933.105	78.6426	933.105	79.2162	933.105	73.6743	933.105	74.955	933.105	65.117	933.105	65.0888	933.105	72.8456	933.105	71.2751	933.105	77.8637	933.105	77.0076	933.105	78.9825
965.332	88.8995	965.332	88.761	965.332	88.9255	965.332	88.4588	965.332	88.6373	965.332	87.8078	965.332	87.8924	965.332	86.8735	965.332	86.8286	965.332	85.9543	965.332	85.6913	965.332	85.0208	965.332	84.4065	965.332	83.5807	965.332	82.8413	965.332	81.2935	965.332	81.2661	965.332	78.8291	965.332	80.016	965.332	78.8903	965.332	79.3093	965.332	79.8488	965.332	79.043	965.332	79.8297	965.332	78.8626	965.332	78.0924	965.332	77.9684	965.332	72.0044	965.332	75.1952	965.332	63.0496	965.332	67.925	965.332	73.1321	965.332	69.8595	965.332	76.0742	965.332	76.488	965.332	77.4925
1,000.49	89.3116	1,000.49	88.9976	1,000.49	88.9493	1,000.49	88.049	1,000.49	88.3793	1,000.49	87.1873	1,000.49	87.6551	1,000.49	86.5501	1,000.49	86.4903	1,000.49	85.4965	1,000.49	85.1897	1,000.49	83.9223	1,000.49	84.2718	1,000.49	82.2831	1,000.49	83.2369	1,000.49	80.6228	1,000.49	81.2243	1,000.49	78.8783	1,000.49	78.5208	1,000.49	78.5475	1,000.49	77.1672	1,000.49	79.7053	1,000.49	78.1666	1,000.49	80.089	1,000.49	78.9393	1,000.49	79.1276	1,000.49	78.3837	1,000.49	76.3006	1,000.49	76.1116	1,000.49	71.7162	1,000.49	68.4157	1,000.49	74.8633	1,000.49	69.1664	1,000.49	78.015	1,000.49	76.0306	1,000.49	78.2625
1,035.64	88.5363	1,035.64	88.2523	1,035.64	88.7281	1,035.64	87.8711	1,035.64	88.5165	1,035.64	87.2262	1,035.64	87.7381	1,035.64	86.2959	1,035.64	86.6145	1,035.64	85.1125	1,035.64	85.3497	1,035.64	83.6637	1,035.64	83.7388	1,035.64	81.9981	1,035.64	81.7253	1,035.64	80.0195	1,035.64	79.7351	1,035.64	77.6025	1,035.64	77.7923	1,035.64	77.0284	1,035.64	76.3121	1,035.64	78.798	1,035.64	77.0894	1,035.64	79.2705	1,035.64	78.9146	1,035.64	77.0922	1,035.64	78.7354	1,035.64	71.0198	1,035.64	75.4708	1,035.64	63.8263	1,035.64	69.0364	1,035.64	72.6019	1,035.64	54.8962	1,035.64	75.3862	1,035.64	71.7069	1,035.64	75.3315
1,072.27	88.229	1,072.27	88.1085	1,072.27	87.9645	1,072.27	87.439	1,072.27	87.5501	1,072.27	86.3423	1,072.27	87.0694	1,072.27	85.3291	1,072.27	86.4076	1,072.27	84.5719	1,072.27	85.5316	1,072.27	83.5849	1,072.27	84.5152	1,072.27	82.1192	1,072.27	83.2962	1,072.27	79.6549	1,072.27	81.6254	1,072.27	75.6211	1,072.27	78.9753	1,072.27	74.9946	1,072.27	76.1451	1,072.27	77.8381	1,072.27	76.9832	1,072.27	78.7866	1,072.27	79.4359	1,072.27	77.8266	1,072.27	80.1091	1,072.27	74.0692	1,072.27	78.4398	1,072.27	59.0733	1,072.27	72.3099	1,072.27	76.5785	1,072.27	65.0866	1,072.27	78.9815	1,072.27	75.7588	1,072.27	78.1113
1,108.89	86.7964	1,108.89	86.3832	1,108.89	87.229	1,108.89	85.7026	1,108.89	87.0495	1,108.89	84.5605	1,108.89	85.9256	1,108.89	83.4738	1,108.89	84.6066	1,108.89	82.6808	1,108.89	83.5383	1,108.89	82.0372	1,108.89	82.5364	1,108.89	81.2847	1,108.89	81.8538	1,108.89	79.8275	1,108.89	81.0821	1,108.89	76.7964	1,108.89	79.0182	1,108.89	71.2109	1,108.89	74.7954	1,108.89	73.7519	1,108.89	70.0023	1,108.89	78.1248	1,108.89	75.784	1,108.89	78.3258	1,108.89	79.7646	1,108.89	73.524	1,108.89	79.2578	1,108.89	66.0146	1,108.89	73.672	1,108.89	72.0479	1,108.89	60.5803	1,108.89	75.8209	1,108.89	73.6803	1,108.89	76.9149
1,148.44	86.0033	1,148.44	85.5006	1,148.44	85.8048	1,148.44	84.8987	1,148.44	84.9888	1,148.44	83.6564	1,148.44	84.5086	1,148.44	81.6135	1,148.44	83.7721	1,148.44	80.1783	1,148.44	81.9764	1,148.44	79.7279	1,148.44	80.5408	1,148.44	79.137	1,148.44	80.2344	1,148.44	78.6129	1,148.44	79.575	1,148.44	78.1949	1,148.44	78.4661	1,148.44	76.3728	1,148.44	76.6768	1,148.44	71.7206	1,148.44	73.8749	1,148.44	69.7934	1,148.44	72.8281	1,148.44	70.7274	1,148.44	72.2331	1,148.44	63.8006	1,148.44	71.3756	1,148.44	68.2781	1,148.44	66.9304	1,148.44	75.2304	1,148.44	59.843	1,148.44	77.4554	1,148.44	73.8728	1,148.44	77.499
1,189.45	85.1651	1,189.45	84.7664	1,189.45	85.0419	1,189.45	83.8628	1,189.45	85.0364	1,189.45	83.3395	1,189.45	84.6094	1,189.45	82.2711	1,189.45	83.8077	1,189.45	80.5026	1,189.45	82.9157	1,189.45	79.5374	1,189.45	81.6428	1,189.45	79.4611	1,189.45	80.6076	1,189.45	78.8119	1,189.45	79.7826	1,189.45	76.5954	1,189.45	78.3837	1,189.45	74.4678	1,189.45	77.1024	1,189.45	75.8475	1,189.45	76.2829	1,189.45	77.7063	1,189.45	76.7439	1,189.45	77.1408	1,189.45	78.2965	1,189.45	74.3985	1,189.45	77.6069	1,189.45	70.2724	1,189.45	72.244	1,189.45	58.9833	1,189.45	62.3463	1,189.45	67.2321	1,189.45	65.3901	1,189.45	66.3089
1,230.47	85.1044	1,230.47	84.7559	1,230.47	85.3008	1,230.47	84.1219	1,230.47	84.8348	1,230.47	82.8425	1,230.47	83.754	1,230.47	81.7381	1,230.47	82.8321	1,230.47	81.1993	1,230.47	82.1326	1,230.47	79.956	1,230.47	81.5322	1,230.47	78.9765	1,230.47	80.7627	1,230.47	78.5501	1,230.47	79.6143	1,230.47	76.4125	1,230.47	78.3068	1,230.47	73.1544	1,230.47	75.2205	1,230.47	72.038	1,230.47	71.6936	1,230.47	74.0244	1,230.47	74.4954	1,230.47	74.6993	1,230.47	75.8129	1,230.47	72.9189	1,230.47	74.7719	1,230.47	67.2466	1,230.47	72.0163	1,230.47	69.3831	1,230.47	62.7218	1,230.47	72.3195	1,230.47	66.8219	1,230.47	72.4933
1,274.41	86.3566	1,274.41	86.5713	1,274.41	85.8968	1,274.41	85.7263	1,274.41	85.7083	1,274.41	84.7588	1,274.41	84.8327	1,274.41	83.6838	1,274.41	83.5614	1,274.41	81.9496	1,274.41	82.4419	1,274.41	80.5032	1,274.41	81.139	1,274.41	80.2687	1,274.41	80.4231	1,274.41	80.2023	1,274.41	79.8852	1,274.41	79.2128	1,274.41	78.4908	1,274.41	76.7542	1,274.41	76.9989	1,274.41	74.1622	1,274.41	74.1155	1,274.41	75.3847	1,274.41	74.1225	1,274.41	75.3921	1,274.41	77.5163	1,274.41	73.1756	1,274.41	76.0887	1,274.41	67.2998	1,274.41	70.5366	1,274.41	63.0047	1,274.41	46.6392	1,274.41	71.113	1,274.41	67.432	1,274.41	71.042
1,319.82	87.2356	1,319.82	87.3363	1,319.82	87.1441	1,319.82	86.9701	1,319.82	86.613	1,319.82	86.1545	1,319.82	85.6007	1,319.82	85.239	1,319.82	84.6957	1,319.82	83.3744	1,319.82	83.7504	1,319.82	81.3829	1,319.82	81.9726	1,319.82	80.4363	1,319.82	80.4544	1,319.82	79.8617	1,319.82	79.5821	1,319.82	78.3269	1,319.82	78.6392	1,319.82	75.2011	1,319.82	77.7278	1,319.82	73.9304	1,319.82	75.2034	1,319.82	77.087	1,319.82	75.157	1,319.82	78.5602	1,319.82	77.2484	1,319.82	76.9361	1,319.82	77.8923	1,319.82	72.4919	1,319.82	76.2544	1,319.82	59.3022	1,319.82	68.3258	1,319.82	69.1819	1,319.82	62.9503	1,319.82	70.5057
1,366.7	88.8758	1,366.7	88.4856	1,366.7	88.8825	1,366.7	87.9715	1,366.7	88.1751	1,366.7	87.4186	1,366.7	87.3584	1,366.7	86.2378	1,366.7	86.7281	1,366.7	84.8333	1,366.7	85.0397	1,366.7	83.0004	1,366.7	83.2076	1,366.7	80.5663	1,366.7	81.0955	1,366.7	79.3714	1,366.7	79.6659	1,366.7	78.3203	1,366.7	79.2567	1,366.7	75.7879	1,366.7	76.6329	1,366.7	72.3295	1,366.7	74.5896	1,366.7	71.3465	1,366.7	73.7582	1,366.7	75.9847	1,366.7	76.3958	1,366.7	77.3599	1,366.7	77.2339	1,366.7	74.4013	1,366.7	75.7073	1,366.7	64.4476	1,366.7	69.8989	1,366.7	61.587	1,366.7	53.7268	1,366.7	62.7675
1,413.57	89.474	1,413.57	88.8455	1,413.57	89.2884	1,413.57	88.2946	1,413.57	88.6236	1,413.57	87.5725	1,413.57	87.7605	1,413.57	86.362	1,413.57	87.0037	1,413.57	84.8087	1,413.57	85.2253	1,413.57	82.7691	1,413.57	83.1721	1,413.57	80.851	1,413.57	81.8731	1,413.57	79.2268	1,413.57	80.2289	1,413.57	78.63	1,413.57	79.7208	1,413.57	77.6399	1,413.57	78.6328	1,413.57	75.7603	1,413.57	74.9432	1,413.57	76.2283	1,413.57	71.9114	1,413.57	78.041	1,413.57	75.8078	1,413.57	77.9738	1,413.57	78.1493	1,413.57	71.7239	1,413.57	77.0343	1,413.57	65.1708	1,413.57	72.058	1,413.57	63.9761	1,413.57	65.2475	1,413.57	68.5027
1,463.38	89.0889	1,463.38	88.8351	1,463.38	89.2399	1,463.38	88.1942	1,463.38	88.5056	1,463.38	87.1532	1,463.38	87.4393	1,463.38	85.7655	1,463.38	86.2464	1,463.38	84.0177	1,463.38	84.695	1,463.38	82.408	1,463.38	83.0389	1,463.38	80.7226	1,463.38	80.997	1,463.38	78.8183	1,463.38	79.479	1,463.38	78.4514	1,463.38	78.4822	1,463.38	77.1664	1,463.38	77.5379	1,463.38	73.912	1,463.38	74.7141	1,463.38	74.5375	1,463.38	71.1366	1,463.38	76.5219	1,463.38	73.8291	1,463.38	75.65	1,463.38	76.2766	1,463.38	71.587	1,463.38	74.3313	1,463.38	62.0949	1,463.38	68.1853	1,463.38	70.0536	1,463.38	61.6346	1,463.38	70.6666
1,516.11	88.6795	1,516.11	87.8763	1,516.11	88.2298	1,516.11	86.9194	1,516.11	87.6035	1,516.11	85.7546	1,516.11	87.0145	1,516.11	84.6821	1,516.11	85.5085	1,516.11	83.262	1,516.11	83.652	1,516.11	81.489	1,516.11	82.3099	1,516.11	80.6448	1,516.11	80.2608	1,516.11	78.585	1,516.11	78.1236	1,516.11	77.5289	1,516.11	77.2	1,516.11	76.6725	1,516.11	76.4625	1,516.11	74.6681	1,516.11	75.4036	1,516.11	74.2209	1,516.11	72.7699	1,516.11	76.6469	1,516.11	71.3381	1,516.11	74.9436	1,516.11	74.5332	1,516.11	70.8304	1,516.11	74.8481	1,516.11	61.5631	1,516.11	69.6486	1,516.11	70.7095	1,516.11	45.0058	1,516.11	66.41
1,568.85	87.323	1,568.85	86.9251	1,568.85	87.457	1,568.85	85.7634	1,568.85	87.5726	1,568.85	84.6983	1,568.85	86.469	1,568.85	83.6299	1,568.85	85.1319	1,568.85	81.9394	1,568.85	83.5481	1,568.85	80.1916	1,568.85	81.2833	1,568.85	78.3879	1,568.85	79.1625	1,568.85	76.3234	1,568.85	77.7527	1,568.85	75.0522	1,568.85	76.5689	1,568.85	71.4725	1,568.85	76.1949	1,568.85	71.7091	1,568.85	76.4042	1,568.85	70.8911	1,568.85	73.0748	1,568.85	73.3835	1,568.85	71.7623	1,568.85	74.0531	1,568.85	74.8966	1,568.85	71.451	1,568.85	75.1178	1,568.85	62.2938	1,568.85	71.4745	1,568.85	69.4862	1,568.85	59.3176	1,568.85	68.3482
1,624.51	87.438	1,624.51	87.2253	1,624.51	87.2188	1,624.51	86.3878	1,624.51	87.0589	1,624.51	85.3865	1,624.51	86.1102	1,624.51	83.6259	1,624.51	84.6023	1,624.51	81.7691	1,624.51	83.5088	1,624.51	80.4681	1,624.51	82.9927	1,624.51	77.5048	1,624.51	81.0503	1,624.51	77.1847	1,624.51	80.0941	1,624.51	76.9774	1,624.51	77.4981	1,624.51	75.1564	1,624.51	74.9095	1,624.51	74.6172	1,624.51	74.7303	1,624.51	72.0817	1,624.51	72.4237	1,624.51	74.3325	1,624.51	73.8917	1,624.51	72.7661	1,624.51	75.204	1,624.51	71.0545	1,624.51	76.6672	1,624.51	51.5309	1,624.51	73.0448	1,624.51	69.0031	1,624.51	65.3518	1,624.51	68.7494
1,681.64	87.5547	1,681.64	87.7852	1,681.64	87.1973	1,681.64	86.6862	1,681.64	86.911	1,681.64	85.4926	1,681.64	86.4101	1,681.64	84.7577	1,681.64	85.8689	1,681.64	82.4243	1,681.64	84.2358	1,681.64	81.4261	1,681.64	82.3165	1,681.64	79.3122	1,681.64	81.8787	1,681.64	77.5135	1,681.64	79.8839	1,681.64	78.424	1,681.64	79.0303	1,681.64	76.8166	1,681.64	79.1055	1,681.64	72.3306	1,681.64	76.1361	1,681.64	72.9593	1,681.64	75.6718	1,681.64	74.838	1,681.64	74.4361	1,681.64	77.422	1,681.64	75.4509	1,681.64	74.2187	1,681.64	75.2557	1,681.64	69.9989	1,681.64	75.5845	1,681.64	61.7958	1,681.64	72.6985	1,681.64	65.2395
1,741.7	87.372	1,741.7	86.8502	1,741.7	87.3805	1,741.7	86.865	1,741.7	86.8986	1,741.7	86.0021	1,741.7	85.9999	1,741.7	84.7539	1,741.7	83.8003	1,741.7	83.7282	1,741.7	83.0643	1,741.7	82.7539	1,741.7	82.4903	1,741.7	81.0311	1,741.7	78.9289	1,741.7	78.3054	1,741.7	78.0995	1,741.7	76.8914	1,741.7	76.1711	1,741.7	76.5285	1,741.7	77.8991	1,741.7	75.5859	1,741.7	78.2201	1,741.7	75.3468	1,741.7	74.547	1,741.7	70.8937	1,741.7	75.0483	1,741.7	75.5273	1,741.7	77.5904	1,741.7	75.1421	1,741.7	78.9941	1,741.7	69.4242	1,741.7	76.1415	1,741.7	61.369	1,741.7	70.5542	1,741.7	68.3725
1,803.22	88.8257	1,803.22	88.503	1,803.22	89.3588	1,803.22	87.6415	1,803.22	87.9115	1,803.22	86.1806	1,803.22	86.8183	1,803.22	85.5966	1,803.22	85.0632	1,803.22	82.6429	1,803.22	83.0544	1,803.22	83.5379	1,803.22	81.7473	1,803.22	81.7441	1,803.22	81.9186	1,803.22	78.8341	1,803.22	77.9613	1,803.22	76.8656	1,803.22	76.3039	1,803.22	75.508	1,803.22	72.7316	1,803.22	75.837	1,803.22	71.3973	1,803.22	75.8115	1,803.22	73.4207	1,803.22	70.3003	1,803.22	74.6071	1,803.22	70.0894	1,803.22	76.1409	1,803.22	72.7812	1,803.22	78.051	1,803.22	59.2325	1,803.22	75.5131	1,803.22	67.5825	1,803.22	63.1631	1,803.22	69.3211
1,866.21	88.1103	1,866.21	87.6669	1,866.21	88.0429	1,866.21	87.0663	1,866.21	87.6207	1,866.21	86.0997	1,866.21	86.7316	1,866.21	84.8665	1,866.21	85.266	1,866.21	83.4928	1,866.21	83.5236	1,866.21	81.6698	1,866.21	81.83	1,866.21	79.8268	1,866.21	80.7759	1,866.21	77.9936	1,866.21	78.4347	1,866.21	76.6772	1,866.21	75.4484	1,866.21	75.5621	1,866.21	74.9016	1,866.21	74.989	1,866.21	74.8506	1,866.21	74.8281	1,866.21	72.6871	1,866.21	73.4721	1,866.21	69.9266	1,866.21	75.0446	1,866.21	70.9691	1,866.21	73.4741	1,866.21	75.4529	1,866.21	66.6755	1,866.21	72.9176	1,866.21	67.0973	1,866.21	66.1481	1,866.21	67.786
1,932.13	87.7713	1,932.13	87.917	1,932.13	87.8338	1,932.13	87.063	1,932.13	87.4649	1,932.13	85.7037	1,932.13	86.6995	1,932.13	83.366	1,932.13	85.3681	1,932.13	81.4136	1,932.13	83.9221	1,932.13	82.0013	1,932.13	82.2319	1,932.13	79.3708	1,932.13	80.9203	1,932.13	77.1575	1,932.13	79.1851	1,932.13	75.7795	1,932.13	76.9259	1,932.13	74.3691	1,932.13	76.2118	1,932.13	71.6994	1,932.13	74.2834	1,932.13	72.6592	1,932.13	74.0713	1,932.13	72.6711	1,932.13	72.1651	1,932.13	75.6662	1,932.13	70.5638	1,932.13	74.4081	1,932.13	74.7741	1,932.13	63.0738	1,932.13	74.7631	1,932.13	63.9842	1,932.13	66.1974	1,932.13	63.8435
1,999.51	88.9653	1,999.51	88.7509	1,999.51	88.8396	1,999.51	87.7435	1,999.51	88.4683	1,999.51	86.8183	1,999.51	87.5413	1,999.51	85.4742	1,999.51	86.7839	1,999.51	83.1669	1,999.51	84.9918	1,999.51	80.6017	1,999.51	83.0776	1,999.51	79.9957	1,999.51	81.0533	1,999.51	77.6858	1,999.51	79.7942	1,999.51	75.2636	1,999.51	77.1189	1,999.51	74.0704	1,999.51	75.9827	1,999.51	71.9688	1,999.51	75.2816	1,999.51	72.9076	1,999.51	74.4306	1,999.51	69.3199	1,999.51	72.9472	1,999.51	75.1601	1,999.51	71.3895	1,999.51	75.5476	1,999.51	75.883	1,999.51	67.7119	1,999.51	75.353	1,999.51	63.2153	1,999.51	70.1841	1,999.51	64.253
2,069.82	89.3719	2,069.82	88.9389	2,069.82	89.1801	2,069.82	88.3777	2,069.82	88.5121	2,069.82	87.2946	2,069.82	87.463	2,069.82	86.115	2,069.82	86.5167	2,069.82	84.4381	2,069.82	85.105	2,069.82	82.1465	2,069.82	83.4308	2,069.82	80.727	2,069.82	81.749	2,069.82	78.3502	2,069.82	79.8957	2,069.82	76.8518	2,069.82	78.2119	2,069.82	76.0355	2,069.82	77.1822	2,069.82	73.2695	2,069.82	75.8274	2,069.82	74.0851	2,069.82	73.4981	2,069.82	71.5656	2,069.82	74.2504	2,069.82	71.2962	2,069.82	71.2294	2,069.82	74.2081	2,069.82	74.3855	2,069.82	69.3303	2,069.82	74.97	2,069.82	66.4181	2,069.82	70.9678	2,069.82	66.6098
2,143.07	88.6353	2,143.07	88.4761	2,143.07	88.4742	2,143.07	87.7221	2,143.07	87.7777	2,143.07	86.6522	2,143.07	86.7171	2,143.07	85.4846	2,143.07	85.5709	2,143.07	84.1523	2,143.07	84.2559	2,143.07	82.9585	2,143.07	82.8207	2,143.07	81.191	2,143.07	80.9393	2,143.07	79.9021	2,143.07	79.1223	2,143.07	77.8494	2,143.07	76.6356	2,143.07	76.8749	2,143.07	75.4674	2,143.07	74.4862	2,143.07	73.8176	2,143.07	73.9317	2,143.07	73.3606	2,143.07	74.7347	2,143.07	73.4692	2,143.07	72.5169	2,143.07	71.1234	2,143.07	74.4937	2,143.07	73.1487	2,143.07	70.4727	2,143.07	73.9014	2,143.07	67.1986	2,143.07	69.1659	2,143.07	68.9403
2,219.24	87.2837	2,219.24	87.2334	2,219.24	87.0599	2,219.24	86.7059	2,219.24	86.661	2,219.24	85.9008	2,219.24	85.6795	2,219.24	84.7261	2,219.24	84.7166	2,219.24	83.2679	2,219.24	83.4088	2,219.24	81.566	2,219.24	81.427	2,219.24	80.109	2,219.24	79.1653	2,219.24	78.3101	2,219.24	78.3127	2,219.24	76.8938	2,219.24	75.9742	2,219.24	75.5416	2,219.24	72.22	2,219.24	73.1061	2,219.24	72.9189	2,219.24	74.2925	2,219.24	70.1079	2,219.24	73.9912	2,219.24	70.9464	2,219.24	72.4282	2,219.24	68.5494	2,219.24	75.0322	2,219.24	73.2455	2,219.24	70.1845	2,219.24	73.2969	2,219.24	69.6698	2,219.24	68.1571	2,219.24	70.192
2,296.88	87.0991	2,296.88	86.6868	2,296.88	87.2893	2,296.88	86.4091	2,296.88	86.7099	2,296.88	85.565	2,296.88	86.1699	2,296.88	84.2099	2,296.88	85.0379	2,296.88	83.2265	2,296.88	83.8938	2,296.88	80.3834	2,296.88	82.1361	2,296.88	78.796	2,296.88	80.1043	2,296.88	78.1784	2,296.88	77.8337	2,296.88	74.4714	2,296.88	75.4284	2,296.88	74.2784	2,296.88	73.1137	2,296.88	72.0277	2,296.88	74.3424	2,296.88	72.5602	2,296.88	69.7914	2,296.88	73.6585	2,296.88	71.6587	2,296.88	71.8798	2,296.88	70.8569	2,296.88	72.5185	2,296.88	69.1725	2,296.88	68.8626	2,296.88	72.0188	2,296.88	67.9918	2,296.88	68.428	2,296.88	66.4395
2,378.91	88.5765	2,378.91	88.297	2,378.91	88.5093	2,378.91	87.6208	2,378.91	88.1062	2,378.91	86.7749	2,378.91	87.292	2,378.91	85.1596	2,378.91	86.546	2,378.91	83.0654	2,378.91	84.6445	2,378.91	80.3303	2,378.91	83.0925	2,378.91	77.5599	2,378.91	81.3751	2,378.91	74.7426	2,378.91	78.6086	2,378.91	74.1177	2,378.91	77.6604	2,378.91	72.6237	2,378.91	74.4171	2,378.91	69.571	2,378.91	72.8875	2,378.91	67.1934	2,378.91	71.437	2,378.91	71.6462	2,378.91	72.0938	2,378.91	70.4535	2,378.91	72.6347	2,378.91	70.4622	2,378.91	70.5529	2,378.91	64.3233	2,378.91	72.1795	2,378.91	64.4884	2,378.91	68.2321	2,378.91	67.5548
2,462.4	89.8185	2,462.4	89.4229	2,462.4	89.6884	2,462.4	89.0387	2,462.4	89.1327	2,462.4	88.1457	2,462.4	88.3623	2,462.4	86.6787	2,462.4	86.9465	2,462.4	84.2649	2,462.4	85.1409	2,462.4	81.9236	2,462.4	83.2524	2,462.4	78.6813	2,462.4	80.7856	2,462.4	77.0038	2,462.4	78.6657	2,462.4	74.9783	2,462.4	75.7599	2,462.4	72.9815	2,462.4	73.368	2,462.4	72.6329	2,462.4	72.3903	2,462.4	66.8082	2,462.4	71.6985	2,462.4	71.3366	2,462.4	71.2168	2,462.4	71.1245	2,462.4	73.2607	2,462.4	72.2397	2,462.4	70.8242	2,462.4	68.7102	2,462.4	72.3186	2,462.4	64.3379	2,462.4	69.4856	2,462.4	68.2772
2,548.83	89.3898	2,548.83	89.0589	2,548.83	89.4548	2,548.83	88.6919	2,548.83	88.4623	2,548.83	87.4609	2,548.83	87.6822	2,548.83	86.2487	2,548.83	86.2027	2,548.83	84.7224	2,548.83	84.2606	2,548.83	82.0777	2,548.83	81.6087	2,548.83	79.8689	2,548.83	79.6342	2,548.83	78.4708	2,548.83	76.855	2,548.83	74.5048	2,548.83	74.728	2,548.83	72.975	2,548.83	71.7445	2,548.83	73.3734	2,548.83	69.7912	2,548.83	69.4157	2,548.83	68.7987	2,548.83	71.1923	2,548.83	67.6716	2,548.83	70.6905	2,548.83	71.7742	2,548.83	72.6109	2,548.83	68.4469	2,548.83	70.811	2,548.83	72.2692	2,548.83	68.247	2,548.83	68.3655	2,548.83	66.836
2,639.65	88.0094	2,639.65	87.8633	2,639.65	87.9401	2,639.65	86.67	2,639.65	87.4477	2,639.65	86.018	2,639.65	86.2917	2,639.65	84.4581	2,639.65	84.9467	2,639.65	82.9911	2,639.65	83.5071	2,639.65	81.2235	2,639.65	80.5941	2,639.65	79.535	2,639.65	77.9166	2,639.65	76.6971	2,639.65	76.1068	2,639.65	75.5996	2,639.65	73.823	2,639.65	73.2269	2,639.65	71.708	2,639.65	72.5574	2,639.65	69.3949	2,639.65	70.6736	2,639.65	69.2785	2,639.65	71.5697	2,639.65	65.899	2,639.65	70.9085	2,639.65	69.1504	2,639.65	73.0942	2,639.65	68.1861	2,639.65	71.2025	2,639.65	70.5969	2,639.65	69.4395	2,639.65	66.561	2,639.65	68.5897
2,731.93	87.0014	2,731.93	86.8886	2,731.93	86.2903	2,731.93	86.424	2,731.93	86.4692	2,731.93	85.7052	2,731.93	85.5491	2,731.93	84.2248	2,731.93	84.5109	2,731.93	81.942	2,731.93	83.1489	2,731.93	80.5352	2,731.93	81.8288	2,731.93	78.8195	2,731.93	79.1054	2,731.93	75.1285	2,731.93	77.3646	2,731.93	74.4923	2,731.93	74.4331	2,731.93	72.4698	2,731.93	73.3713	2,731.93	71.2202	2,731.93	71.9195	2,731.93	70.897	2,731.93	71.0268	2,731.93	70.8491	2,731.93	68.2763	2,731.93	71.6031	2,731.93	70.978	2,731.93	71.7055	2,731.93	70.2631	2,731.93	69.8682	2,731.93	70.7261	2,731.93	65.7295	2,731.93	67.7461	2,731.93	62.8
2,828.61	86.4602	2,828.61	86.6341	2,828.61	86.5439	2,828.61	87.018	2,828.61	86.3693	2,828.61	86.3587	2,828.61	86.0998	2,828.61	84.7086	2,828.61	85.2815	2,828.61	82.8075	2,828.61	83.608	2,828.61	80.5477	2,828.61	81.9007	2,828.61	77.4581	2,828.61	79.407	2,828.61	76.1953	2,828.61	77.4107	2,828.61	73.3454	2,828.61	74.8618	2,828.61	72.2837	2,828.61	73.3056	2,828.61	70.5286	2,828.61	71.2871	2,828.61	69.8123	2,828.61	70.7259	2,828.61	70.5627	2,828.61	68.4725	2,828.61	71.6742	2,828.61	70.8635	2,828.61	70.0547	2,828.61	70.9764	2,828.61	69.4542	2,828.61	70.3927	2,828.61	64.5593	2,828.61	67.0276	2,828.61	64.2214
2,928.22	86.7696	2,928.22	87.0618	2,928.22	87.0318	2,928.22	87.2829	2,928.22	86.7305	2,928.22	86.8457	2,928.22	86.59	2,928.22	85.5881	2,928.22	85.6254	2,928.22	83.9664	2,928.22	83.8683	2,928.22	81.0749	2,928.22	81.4064	2,928.22	78.3831	2,928.22	79.2522	2,928.22	77.0854	2,928.22	76.6988	2,928.22	73.6875	2,928.22	74.5873	2,928.22	72.4632	2,928.22	72.5623	2,928.22	70.3131	2,928.22	69.3693	2,928.22	69.5801	2,928.22	67.9682	2,928.22	68.342	2,928.22	67.5601	2,928.22	70.8871	2,928.22	68.9917	2,928.22	69.2407	2,928.22	70.6509	2,928.22	69.1909	2,928.22	69.0986	2,928.22	62.0496	2,928.22	67.9278	2,928.22	62.9301
3,030.76	86.5746	3,030.76	87.0345	3,030.76	86.7829	3,030.76	86.9865	3,030.76	86.7039	3,030.76	86.5482	3,030.76	86.4297	3,030.76	85.5966	3,030.76	85.4723	3,030.76	83.8656	3,030.76	83.9011	3,030.76	81.1734	3,030.76	81.1426	3,030.76	79.2053	3,030.76	79.0495	3,030.76	76.8296	3,030.76	76.2059	3,030.76	74.0999	3,030.76	73.9547	3,030.76	72.1311	3,030.76	71.952	3,030.76	71.0474	3,030.76	69.9382	3,030.76	70.7247	3,030.76	68.2488	3,030.76	66.1417	3,030.76	68.4394	3,030.76	70.5019	3,030.76	68.5969	3,030.76	70.2694	3,030.76	70.9974	3,030.76	68.5476	3,030.76	69.3919	3,030.76	65.8594	3,030.76	68.5252	3,030.76	64.4501
3,137.7	86.6049	3,137.7	86.976	3,137.7	86.5858	3,137.7	87.0346	3,137.7	86.9187	3,137.7	86.4153	3,137.7	86.4402	3,137.7	85.1599	3,137.7	85.3368	3,137.7	82.8029	3,137.7	83.6341	3,137.7	80.4427	3,137.7	81.3654	3,137.7	78.7001	3,137.7	79.0502	3,137.7	76.4273	3,137.7	76.2445	3,137.7	73.6059	3,137.7	74.1439	3,137.7	72.2856	3,137.7	71.406	3,137.7	71.4025	3,137.7	70.8701	3,137.7	71.4376	3,137.7	69.0358	3,137.7	66.1332	3,137.7	69.901	3,137.7	71.288	3,137.7	66.951	3,137.7	69.1282	3,137.7	71.878	3,137.7	69.4855	3,137.7	68.9219	3,137.7	64.3813	3,137.7	68.3828	3,137.7	63.5581
3,249.02	86.5578	3,249.02	86.868	3,249.02	86.5606	3,249.02	86.8011	3,249.02	87.0575	3,249.02	85.9099	3,249.02	86.6031	3,249.02	84.2833	3,249.02	85.3936	3,249.02	81.9807	3,249.02	83.4452	3,249.02	79.5281	3,249.02	81.1602	3,249.02	77.6513	3,249.02	78.4851	3,249.02	75.1203	3,249.02	76.4855	3,249.02	73.9967	3,249.02	74.19	3,249.02	72.1442	3,249.02	71.705	3,249.02	70.9795	3,249.02	71.5451	3,249.02	71.7703	3,249.02	68.9642	3,249.02	67.0369	3,249.02	71.2365	3,249.02	71.7459	3,249.02	66.4709	3,249.02	69.3413	3,249.02	71.5603	3,249.02	68.5526	3,249.02	68.6941	3,249.02	59.4839	3,249.02	67.4779	3,249.02	57.1242
3,363.28	86.772	3,363.28	87.0042	3,363.28	86.8495	3,363.28	87.1509	3,363.28	86.9146	3,363.28	86.5586	3,363.28	86.5681	3,363.28	84.3874	3,363.28	85.1669	3,363.28	81.8912	3,363.28	82.9318	3,363.28	79.373	3,363.28	81.2189	3,363.28	76.8528	3,363.28	78.6937	3,363.28	74.9912	3,363.28	76.0488	3,363.28	72.5261	3,363.28	73.0391	3,363.28	70.4814	3,363.28	71.7463	3,363.28	69.8584	3,363.28	71.0564	3,363.28	70.338	3,363.28	69.2979	3,363.28	68.8541	3,363.28	70.2096	3,363.28	70.9252	3,363.28	66.0062	3,363.28	69.2493	3,363.28	71.1984	3,363.28	67.5318	3,363.28	68.371	3,363.28	60.3324	3,363.28	68.1488	3,363.28	57.6199
3,481.93	87.1421	3,481.93	87.1535	3,481.93	87.3175	3,481.93	87.1638	3,481.93	87.0808	3,481.93	86.3233	3,481.93	86.751	3,481.93	84.417	3,481.93	85.415	3,481.93	82.6899	3,481.93	83.6585	3,481.93	80.5471	3,481.93	81.337	3,481.93	78.1838	3,481.93	78.8446	3,481.93	75.2117	3,481.93	76.6375	3,481.93	73.7537	3,481.93	74.5067	3,481.93	72.0854	3,481.93	71.9691	3,481.93	70.0729	3,481.93	70.8929	3,481.93	69.7114	3,481.93	68.8979	3,481.93	69.536	3,481.93	70.3723	3,481.93	70.7465	3,481.93	67.7568	3,481.93	69.3372	3,481.93	70.88	3,481.93	69.0614	3,481.93	68.9506	3,481.93	58.9655	3,481.93	69.3408	3,481.93	58.328
3,604.98	88.3243	3,604.98	88.1668	3,604.98	88.5779	3,604.98	87.6736	3,604.98	88.4438	3,604.98	86.3513	3,604.98	87.8401	3,604.98	84.5539	3,604.98	86.4304	3,604.98	82.5348	3,604.98	84.4426	3,604.98	80.5722	3,604.98	82.3028	3,604.98	77.7103	3,604.98	79.5427	3,604.98	75.0675	3,604.98	78.2455	3,604.98	73.2718	3,604.98	75.2563	3,604.98	71.1701	3,604.98	73.022	3,604.98	70.0975	3,604.98	70.0362	3,604.98	69.3442	3,604.98	69.2185	3,604.98	69.9082	3,604.98	71.5724	3,604.98	71.609	3,604.98	68.5351	3,604.98	69.9199	3,604.98	71.8192	3,604.98	70.1151	3,604.98	69.8901	3,604.98	56.3645	3,604.98	69.7143	3,604.98	58.8186
3,732.42	89.5085	3,732.42	89.848	3,732.42	89.3204	3,732.42	89.0752	3,732.42	89.2984	3,732.42	88.0592	3,732.42	88.3824	3,732.42	86.733	3,732.42	86.8226	3,732.42	83.6407	3,732.42	84.2166	3,732.42	81.6739	3,732.42	81.6438	3,732.42	78.5085	3,732.42	79.354	3,732.42	76.5522	3,732.42	77.0626	3,732.42	72.7551	3,732.42	74.077	3,732.42	71.8034	3,732.42	72.5297	3,732.42	70.6784	3,732.42	69.4622	3,732.42	68.1996	3,732.42	68.2774	3,732.42	69.4076	3,732.42	68.5544	3,732.42	71.8573	3,732.42	65.976	3,732.42	68.6492	3,732.42	71.3058	3,732.42	69.0601	3,732.42	70.0752	3,732.42	56.545	3,732.42	69.7662	3,732.42	54.3431
3,864.26	88.5471	3,864.26	88.7111	3,864.26	88.7679	3,864.26	87.9773	3,864.26	87.957	3,864.26	86.8142	3,864.26	86.9453	3,864.26	84.4919	3,864.26	84.78	3,864.26	82.2968	3,864.26	83.3814	3,864.26	80.2244	3,864.26	80.6472	3,864.26	78.4301	3,864.26	78.8655	3,864.26	77.5909	3,864.26	76.5684	3,864.26	73.62	3,864.26	73.8967	3,864.26	73.0988	3,864.26	71.5756	3,864.26	70.5298	3,864.26	68.8917	3,864.26	68.0734	3,864.26	68.7821	3,864.26	69.8316	3,864.26	68.4098	3,864.26	70.9064	3,864.26	66.6354	3,864.26	70.6832	3,864.26	68.5776	3,864.26	70.1444	3,864.26	68.2555	3,864.26	62.2511	3,864.26	69.206	3,864.26	57.0132
4,000.49	88.4587	4,000.49	87.8186	4,000.49	88.7907	4,000.49	87.3549	4,000.49	88.0874	4,000.49	85.3746	4,000.49	87.0157	4,000.49	83.3694	4,000.49	85.2419	4,000.49	82.7508	4,000.49	83.8711	4,000.49	81.4728	4,000.49	82.6878	4,000.49	79.4873	4,000.49	80.9486	4,000.49	76.6306	4,000.49	78.2099	4,000.49	73.8888	4,000.49	75.665	4,000.49	71.7488	4,000.49	73.9347	4,000.49	70.804	4,000.49	72.0365	4,000.49	70.0164	4,000.49	71.9096	4,000.49	71.1455	4,000.49	69.5837	4,000.49	72.7445	4,000.49	69.444	4,000.49	71.8227	4,000.49	71.6937	4,000.49	70.7283	4,000.49	69.4941	4,000.49	62.4505	4,000.49	70.7178	4,000.49	61.149
4,141.11	87.3964	4,141.11	87.5003	4,141.11	87.2203	4,141.11	86.5402	4,141.11	87.5127	4,141.11	86.6494	4,141.11	86.2594	4,141.11	86.6986	4,141.11	85.7649	4,141.11	85.6287	4,141.11	85.0187	4,141.11	83.6143	4,141.11	83.3363	4,141.11	80.8771	4,141.11	80.9489	4,141.11	78.238	4,141.11	79.9717	4,141.11	76.201	4,141.11	77.1566	4,141.11	74.6806	4,141.11	73.6228	4,141.11	72.4672	4,141.11	73.044	4,141.11	69.0222	4,141.11	71.1352	4,141.11	71.1028	4,141.11	71.1753	4,141.11	72.0733	4,141.11	70.8135	4,141.11	71.907	4,141.11	71.6452	4,141.11	71.9198	4,141.11	71.3573	4,141.11	52.3061	4,141.11	70.9453	4,141.11	58.4119
4,287.6	87.5961	4,287.6	86.7578	4,287.6	87.6343	4,287.6	86.6033	4,287.6	86.9129	4,287.6	85.7016	4,287.6	86.5788	4,287.6	85.6545	4,287.6	85.8785	4,287.6	84.7576	4,287.6	84.9254	4,287.6	83.0312	4,287.6	84.0102	4,287.6	81.0058	4,287.6	81.984	4,287.6	78.5479	4,287.6	79.7024	4,287.6	75.5429	4,287.6	76.9053	4,287.6	73.872	4,287.6	74.7047	4,287.6	72.5392	4,287.6	73.6379	4,287.6	71.5001	4,287.6	71.0672	4,287.6	69.9394	4,287.6	71.8758	4,287.6	71.3067	4,287.6	71.1703	4,287.6	72.3929	4,287.6	71.6365	4,287.6	72.1977	4,287.6	72.1435	4,287.6	54.3464	4,287.6	70.0075	4,287.6	54.2679
4,438.48	88.2105	4,438.48	86.9598	4,438.48	87.7607	4,438.48	85.9799	4,438.48	86.5114	4,438.48	85.728	4,438.48	85.7036	4,438.48	85.2707	4,438.48	85.9775	4,438.48	84.4948	4,438.48	85.6252	4,438.48	83.2877	4,438.48	84.3968	4,438.48	81.2867	4,438.48	82.5651	4,438.48	77.7803	4,438.48	80.5011	4,438.48	75.5121	4,438.48	76.9343	4,438.48	70.158	4,438.48	74.4315	4,438.48	72.6955	4,438.48	71.3382	4,438.48	71.8601	4,438.48	71.1487	4,438.48	71.5961	4,438.48	71.6825	4,438.48	71.464	4,438.48	70.6187	4,438.48	71.5187	4,438.48	72.2509	4,438.48	72.2623	4,438.48	71.9252	4,438.48	56.9888	4,438.48	71.8593	4,438.48	50.6214
4,595.21	87.319	4,595.21	86.3345	4,595.21	87.1657	4,595.21	84.7233	4,595.21	86.2384	4,595.21	85.2185	4,595.21	85.0234	4,595.21	86.3816	4,595.21	86.3528	4,595.21	85.0328	4,595.21	86.3239	4,595.21	82.3466	4,595.21	84.9611	4,595.21	79.9286	4,595.21	82.2305	4,595.21	76.8096	4,595.21	79.9321	4,595.21	76.3653	4,595.21	76.6202	4,595.21	73.7639	4,595.21	73.3479	4,595.21	71.5841	4,595.21	72.912	4,595.21	69.5637	4,595.21	69.6841	4,595.21	71.1325	4,595.21	71.5464	4,595.21	72.6276	4,595.21	70.2969	4,595.21	71.5766	4,595.21	70.319	4,595.21	70.074	4,595.21	70.917	4,595.21	59.4278	4,595.21	71.8454	4,595.21	52.825
4,756.35	88.5163	4,756.35	86.8092	4,756.35	88.8699	4,756.35	87.2058	4,756.35	86.4512	4,756.35	87.0555	4,756.35	86.7068	4,756.35	87.6201	4,756.35	86.8027	4,756.35	85.9253	4,756.35	86.1773	4,756.35	83.2823	4,756.35	84.6771	4,756.35	80.0078	4,756.35	82.4667	4,756.35	77.7202	4,756.35	78.8527	4,756.35	73.0129	4,756.35	77.3566	4,756.35	71.4788	4,756.35	74.5279	4,756.35	70.6448	4,756.35	72.5816	4,756.35	69.2595	4,756.35	69.9449	4,756.35	68.3411	4,756.35	71.8304	4,756.35	72.2239	4,756.35	69.9235	4,756.35	72.8112	4,756.35	71.3438	4,756.35	71.7269	4,756.35	72.6511	4,756.35	61.0304	4,756.35	70.8501	4,756.35	59.4237
4,924.8	88.2454	4,924.8	87.075	4,924.8	87.3237	4,924.8	85.2967	4,924.8	86.8101	4,924.8	86.9276	4,924.8	85.711	4,924.8	86.4645	4,924.8	87.2028	4,924.8	85.3485	4,924.8	86.8276	4,924.8	83.4686	4,924.8	84.4995	4,924.8	82.0411	4,924.8	81.8144	4,924.8	78.0019	4,924.8	80.3671	4,924.8	76.6736	4,924.8	76.7374	4,924.8	70.9125	4,924.8	73.9726	4,924.8	68.9491	4,924.8	71.5825	4,924.8	68.0472	4,924.8	69.5469	4,924.8	72.305	4,924.8	68.4085	4,924.8	67.9972	4,924.8	70.6867	4,924.8	73.0444	4,924.8	72.136	4,924.8	70.7703	4,924.8	71.3225	4,924.8	64.2608	4,924.8	71.2566	4,924.8	54.0235
5,097.66	88.1914	5,097.66	86.9844	5,097.66	88.351	5,097.66	86.1517	5,097.66	86.2467	5,097.66	86.4087	5,097.66	87.0403	5,097.66	86.8974	5,097.66	87.2192	5,097.66	85.0997	5,097.66	86.5916	5,097.66	83.3406	5,097.66	84.6423	5,097.66	79.8606	5,097.66	82.6378	5,097.66	77.8107	5,097.66	79.2839	5,097.66	75.3681	5,097.66	76.7137	5,097.66	76.1537	5,097.66	74.6485	5,097.66	71.6644	5,097.66	72.6779	5,097.66	69.4116	5,097.66	69.0579	5,097.66	72.6551	5,097.66	69.2384	5,097.66	74.2135	5,097.66	70.5236	5,097.66	73.7299	5,097.66	68.8486	5,097.66	72.3802	5,097.66	72.1857	5,097.66	61.1033	5,097.66	71.5844	5,097.66	57.2488
5,277.83	88.7704	5,277.83	87.2004	5,277.83	88.3091	5,277.83	86.6	5,277.83	87.451	5,277.83	87.5112	5,277.83	86.9537	5,277.83	87.3631	5,277.83	87.0092	5,277.83	86.2006	5,277.83	85.8074	5,277.83	83.8558	5,277.83	84.2189	5,277.83	82.038	5,277.83	81.7	5,277.83	79.1676	5,277.83	79.1175	5,277.83	76.1732	5,277.83	77.9394	5,277.83	73.6583	5,277.83	75.0672	5,277.83	70.7511	5,277.83	72.7646	5,277.83	71.2145	5,277.83	70.5722	5,277.83	70.0924	5,277.83	69.9224	5,277.83	66.6026	5,277.83	70.3983	5,277.83	72.4419	5,277.83	70.5626	5,277.83	71.6154	5,277.83	73.4566	5,277.83	59.311	5,277.83	71.4205	5,277.83	57.0802
5,463.87	88.7713	5,463.87	87.8319	5,463.87	88.7926	5,463.87	87.0712	5,463.87	87.9899	5,463.87	86.7381	5,463.87	87.4069	5,463.87	85.9201	5,463.87	87.0637	5,463.87	84.7973	5,463.87	86.55	5,463.87	83.5623	5,463.87	84.1554	5,463.87	82.1489	5,463.87	82.4745	5,463.87	78.4525	5,463.87	81.3556	5,463.87	76.6434	5,463.87	77.709	5,463.87	73.4121	5,463.87	75.1443	5,463.87	71.8863	5,463.87	72.3419	5,463.87	71.4424	5,463.87	70.5403	5,463.87	72.5125	5,463.87	70.4644	5,463.87	72.0471	5,463.87	70.017	5,463.87	74.3758	5,463.87	69.2899	5,463.87	71.7975	5,463.87	70.9709	5,463.87	58.978	5,463.87	69.7845	5,463.87	56.4672
5,657.23	88.9035	5,657.23	88.4023	5,657.23	88.8854	5,657.23	87.5069	5,657.23	88.0815	5,657.23	86.9253	5,657.23	87.4729	5,657.23	86.6354	5,657.23	86.5419	5,657.23	85.7749	5,657.23	85.0898	5,657.23	84.6397	5,657.23	84.6311	5,657.23	81.0261	5,657.23	83.5959	5,657.23	79.6985	5,657.23	79.6616	5,657.23	76.3377	5,657.23	77.6187	5,657.23	74.7331	5,657.23	75.0249	5,657.23	72.4467	5,657.23	72.3856	5,657.23	71.5793	5,657.23	70.5655	5,657.23	68.0359	5,657.23	70.2917	5,657.23	70.7952	5,657.23	70.3377	5,657.23	73.2862	5,657.23	69.8068	5,657.23	71.0187	5,657.23	71.0929	5,657.23	60.5531	5,657.23	70.1562	5,657.23	53.5704
5,856.45	88.6826	5,856.45	88.3383	5,856.45	88.5288	5,856.45	86.667	5,856.45	88.4469	5,856.45	85.2751	5,856.45	86.5106	5,856.45	84.6423	5,856.45	86.0286	5,856.45	85.0805	5,856.45	85.6274	5,856.45	83.8023	5,856.45	84.5574	5,856.45	81.9808	5,856.45	82.0227	5,856.45	78.8197	5,856.45	81.0128	5,856.45	75.9024	5,856.45	77.2692	5,856.45	73.936	5,856.45	74.4028	5,856.45	71.6609	5,856.45	71.8913	5,856.45	69.7882	5,856.45	68.9535	5,856.45	71.6174	5,856.45	69.1014	5,856.45	71.2688	5,856.45	69.9003	5,856.45	73.2793	5,856.45	69.0527	5,856.45	70.4783	5,856.45	72.4233	5,856.45	60.7294	5,856.45	67.8817	5,856.45	56.5954
6,062.99	87.6136	6,062.99	88.1896	6,062.99	87.9679	6,062.99	87.1732	6,062.99	87.8447	6,062.99	85.205	6,062.99	86.08	6,062.99	86.0563	6,062.99	84.0693	6,062.99	85.9166	6,062.99	84.7053	6,062.99	85.0344	6,062.99	84.9995	6,062.99	82.8321	6,062.99	83.8623	6,062.99	78.4216	6,062.99	79.7597	6,062.99	75.0977	6,062.99	76.4598	6,062.99	71.708	6,062.99	73.6288	6,062.99	69.0665	6,062.99	70.5217	6,062.99	69.1919	6,062.99	68.4041	6,062.99	70.4793	6,062.99	67.1604	6,062.99	70.951	6,062.99	67.9393	6,062.99	72.5744	6,062.99	69.9762	6,062.99	67.8161	6,062.99	71.2886	6,062.99	60.7913	6,062.99	69.1764	6,062.99	48.443
6,276.86	87.6129	6,276.86	88.7315	6,276.86	87.5427	6,276.86	87.294	6,276.86	88.1598	6,276.86	85.6992	6,276.86	85.3802	6,276.86	85.9132	6,276.86	84.5274	6,276.86	86.0233	6,276.86	84.8912	6,276.86	83.9783	6,276.86	83.8127	6,276.86	80.8562	6,276.86	80.8364	6,276.86	76.4786	6,276.86	78.3503	6,276.86	74.2096	6,276.86	75.581	6,276.86	71.1676	6,276.86	72.0447	6,276.86	70.0626	6,276.86	68.5022	6,276.86	69.8491	6,276.86	68.5358	6,276.86	68.0017	6,276.86	69.3498	6,276.86	69.8056	6,276.86	64.9205	6,276.86	72.7393	6,276.86	67.7592	6,276.86	69.0997	6,276.86	70.3517	6,276.86	54.3818	6,276.86	68.2775	6,276.86	61.7055
6,498.05	87.5043	6,498.05	88.6059	6,498.05	88.3313	6,498.05	87.4008	6,498.05	88.0118	6,498.05	85.7524	6,498.05	86.1754	6,498.05	86.3656	6,498.05	85.16	6,498.05	86.3331	6,498.05	85.4347	6,498.05	83.2536	6,498.05	84.324	6,498.05	80.4724	6,498.05	81.5837	6,498.05	77.6132	6,498.05	77.6354	6,498.05	75.0697	6,498.05	75.444	6,498.05	72.0228	6,498.05	72.4741	6,498.05	69.0609	6,498.05	70.4233	6,498.05	67.8376	6,498.05	63.9611	6,498.05	68.6783	6,498.05	68.4607	6,498.05	68.9514	6,498.05	66.0182	6,498.05	71.7085	6,498.05	69.3067	6,498.05	66.9833	6,498.05	71.2048	6,498.05	54.4741	6,498.05	65.138	6,498.05	61.7761
6,726.56	88.5386	6,726.56	89.2399	6,726.56	88.7122	6,726.56	88.0215	6,726.56	88.4669	6,726.56	86.7338	6,726.56	85.725	6,726.56	86.834	6,726.56	85.4924	6,726.56	85.5079	6,726.56	85.1124	6,726.56	84.1789	6,726.56	83.2335	6,726.56	81.793	6,726.56	79.9166	6,726.56	77.7422	6,726.56	78.0008	6,726.56	75.6522	6,726.56	75.4597	6,726.56	72.3607	6,726.56	73.4246	6,726.56	67.854	6,726.56	67.9824	6,726.56	67.7133	6,726.56	67.2792	6,726.56	67.7518	6,726.56	68.2556	6,726.56	70.5765	6,726.56	64.9954	6,726.56	72.1576	6,726.56	65.5077	6,726.56	68.1124	6,726.56	71.0427	6,726.56	51.2837	6,726.56	64.6746	6,726.56	60.3918
6,963.87	88.2085	6,963.87	89.116	6,963.87	88.681	6,963.87	87.9345	6,963.87	88.3826	6,963.87	86.4328	6,963.87	86.1926	6,963.87	86.1449	6,963.87	85.0434	6,963.87	85.7051	6,963.87	84.926	6,963.87	82.5634	6,963.87	82.4802	6,963.87	80.0793	6,963.87	80.5709	6,963.87	77.9392	6,963.87	77.5549	6,963.87	76.3202	6,963.87	74.807	6,963.87	72.646	6,963.87	73.1064	6,963.87	69.8569	6,963.87	68.7043	6,963.87	66.9581	6,963.87	66.5781	6,963.87	66.6523	6,963.87	66.2045	6,963.87	68.8595	6,963.87	64.774	6,963.87	70.4275	6,963.87	68.0283	6,963.87	65.5249	6,963.87	71.7773	6,963.87	53.285	6,963.87	65.7074	6,963.87	59.7134
7,209.96	88.7083	7,209.96	88.9174	7,209.96	88.849	7,209.96	87.986	7,209.96	88.5061	7,209.96	86.9522	7,209.96	87.1643	7,209.96	85.5579	7,209.96	86.159	7,209.96	84.4184	7,209.96	84.8354	7,209.96	84.01	7,209.96	83.9312	7,209.96	81.8675	7,209.96	82.1932	7,209.96	78.8442	7,209.96	80.2073	7,209.96	75.3806	7,209.96	77.0252	7,209.96	73.0635	7,209.96	74.0982	7,209.96	71.6822	7,209.96	70.6466	7,209.96	69.099	7,209.96	66.7025	7,209.96	66.046	7,209.96	67.9347	7,209.96	70.7856	7,209.96	66.9263	7,209.96	70.5393	7,209.96	69.0805	7,209.96	65.1486	7,209.96	71.7844	7,209.96	51.2658	7,209.96	68.5533	7,209.96	61.7801
7,464.84	87.8335	7,464.84	87.5894	7,464.84	87.7894	7,464.84	87.7557	7,464.84	87.0697	7,464.84	86.5484	7,464.84	86.4578	7,464.84	84.6841	7,464.84	84.1022	7,464.84	84.866	7,464.84	83.0234	7,464.84	83.6234	7,464.84	83.0235	7,464.84	81.394	7,464.84	81.7145	7,464.84	78.814	7,464.84	78.4295	7,464.84	74.1237	7,464.84	75.9075	7,464.84	72.3268	7,464.84	72.7381	7,464.84	69.8663	7,464.84	69.3115	7,464.84	67.9027	7,464.84	67.9244	7,464.84	65.8946	7,464.84	65.6708	7,464.84	69.3889	7,464.84	64.3664	7,464.84	68.3083	7,464.84	67.187	7,464.84	64.4786	7,464.84	71.3182	7,464.84	50.4812	7,464.84	64.8315	7,464.84	62.3038
7,727.05	88.0367	7,727.05	87.4619	7,727.05	87.8636	7,727.05	87.7322	7,727.05	87.2738	7,727.05	86.4308	7,727.05	87.3476	7,727.05	84.268	7,727.05	84.8091	7,727.05	84.0957	7,727.05	83.7686	7,727.05	83.2042	7,727.05	83.6378	7,727.05	80.6125	7,727.05	81.35	7,727.05	76.7608	7,727.05	79.7332	7,727.05	72.8713	7,727.05	75.9857	7,727.05	70.869	7,727.05	71.2776	7,727.05	69.6365	7,727.05	68.067	7,727.05	66.3346	7,727.05	65.9418	7,727.05	64.9539	7,727.05	66.0616	7,727.05	69.7403	7,727.05	65.6766	7,727.05	68.7003	7,727.05	67.8399	7,727.05	64.1759	7,727.05	71.6732	7,727.05	51.2498	7,727.05	64.2541	7,727.05	62.601
7,999.51	88.1065	7,999.51	86.8769	7,999.51	87.4045	7,999.51	87.636	7,999.51	87.2413	7,999.51	85.9302	7,999.51	87.4469	7,999.51	83.4522	7,999.51	84.429	7,999.51	84.2495	7,999.51	83.9014	7,999.51	82.2443	7,999.51	83.5403	7,999.51	79.7507	7,999.51	81.6282	7,999.51	76.3975	7,999.51	77.9704	7,999.51	73.3437	7,999.51	75.2563	7,999.51	70.358	7,999.51	70.5161	7,999.51	67.42	7,999.51	68.5398	7,999.51	64.8983	7,999.51	66.1085	7,999.51	61.7156	7,999.51	62.1471	7,999.51	67.1119	7,999.51	62.0739	7,999.51	67.8502	7,999.51	68.2299	7,999.51	64.3949	7,999.51	71.1988	7,999.51	50.9736	7,999.51	62.41	7,999.51	62.0336
8,282.23	88.3833	8,282.23	87.5368	8,282.23	87.7333	8,282.23	87.9821	8,282.23	87.7368	8,282.23	85.9987	8,282.23	87.4854	8,282.23	84.5123	8,282.23	85.506	8,282.23	84.2303	8,282.23	84.5434	8,282.23	81.6329	8,282.23	83.5993	8,282.23	79.7644	8,282.23	81.1782	8,282.23	75.1768	8,282.23	77.5858	8,282.23	73.3223	8,282.23	74.9093	8,282.23	67.6891	8,282.23	70.9648	8,282.23	65.8112	8,282.23	68.5382	8,282.23	63.0383	8,282.23	61.8299	8,282.23	60.9191	8,282.23	61.9865	8,282.23	65.7834	8,282.23	60.964	8,282.23	66.7183	8,282.23	67.5364	8,282.23	64.0124	8,282.23	70.3263	8,282.23	43.9391	8,282.23	62.2299	8,282.23	62.8661
8,573.73	88.8207	8,573.73	87.9578	8,573.73	88.5257	8,573.73	88.2431	8,573.73	88.1265	8,573.73	86.8971	8,573.73	87.8028	8,573.73	85.0548	8,573.73	85.982	8,573.73	83.3973	8,573.73	84.3572	8,573.73	80.8593	8,573.73	82.2088	8,573.73	78.3175	8,573.73	79.8278	8,573.73	74.3595	8,573.73	76.3518	8,573.73	72.9037	8,573.73	73.761	8,573.73	63.9497	8,573.73	70.275	8,573.73	62.0253	8,573.73	67.7644	8,573.73	57.1424	8,573.73	61.8631	8,573.73	53.2229	8,573.73	57.1966	8,573.73	64.123	8,573.73	56.3378	8,573.73	65.1187	8,573.73	66.6094	8,573.73	61.0823	8,573.73	68.8159	8,573.73	53.293	8,573.73	59.3266	8,573.73	61.5175
8,876.95	89.3313	8,876.95	88.8876	8,876.95	89.1621	8,876.95	88.3899	8,876.95	89.0327	8,876.95	87.1363	8,876.95	88.1683	8,876.95	84.7044	8,876.95	86.3008	8,876.95	82.3426	8,876.95	84.3698	8,876.95	79.9456	8,876.95	81.5124	8,876.95	76.362	8,876.95	79.5604	8,876.95	74.0979	8,876.95	76.0992	8,876.95	70.7609	8,876.95	72.8359	8,876.95	66.0914	8,876.95	70.2327	8,876.95	60.692	8,876.95	67.5293	8,876.95	58.0162	8,876.95	63.2601	8,876.95	53.4862	8,876.95	62.0115	8,876.95	63.2283	8,876.95	56.6228	8,876.95	62.6203	8,876.95	64.692	8,876.95	62.0113	8,876.95	66.6974	8,876.95	55.1072	8,876.95	56.3232	8,876.95	58.0821
9,188.96	89.7069	9,188.96	89.3671	9,188.96	89.608	9,188.96	88.4047	9,188.96	89.1013	9,188.96	87.2027	9,188.96	87.9318	9,188.96	84.7866	9,188.96	86.4475	9,188.96	82.0277	9,188.96	83.3036	9,188.96	80.0154	9,188.96	81.2537	9,188.96	76.1004	9,188.96	78.7206	9,188.96	73.6234	9,188.96	75.6931	9,188.96	69.7068	9,188.96	71.9771	9,188.96	64.0871	9,188.96	68.3464	9,188.96	60.8124	9,188.96	65.6388	9,188.96	58.0766	9,188.96	62.4586	9,188.96	59.7061	9,188.96	59.6769	9,188.96	58.6021	9,188.96	56.3496	9,188.96	61.4072	9,188.96	63.2177	9,188.96	58.9906	9,188.96	64.9427	9,188.96	55.2542	9,188.96	55.3072	9,188.96	58.6262
9,514.16	89.9751	9,514.16	89.5521	9,514.16	90.1496	9,514.16	88.2208	9,514.16	89.5377	9,514.16	86.8941	9,514.16	88.5374	9,514.16	83.4536	9,514.16	86.8332	9,514.16	81.012	9,514.16	83.3755	9,514.16	79.3253	9,514.16	81.7067	9,514.16	75.7229	9,514.16	78.9206	9,514.16	71.3171	9,514.16	75.7352	9,514.16	68.837	9,514.16	71.8493	9,514.16	62.0396	9,514.16	68.1826	9,514.16	62.1123	9,514.16	65.4867	9,514.16	59.9785	9,514.16	62.653	9,514.16	59.0522	9,514.16	58.2044	9,514.16	59.9268	9,514.16	56.3857	9,514.16	59.5739	9,514.16	62.8496	9,514.16	58.5204	9,514.16	64.6022	9,514.16	55.5052	9,514.16	54.3185	9,514.16	59.4142
9,849.61	89.9162	9,849.61	89.6472	9,849.61	89.9135	9,849.61	88.4943	9,849.61	89.1936	9,849.61	87.1025	9,849.61	87.8863	9,849.61	83.7099	9,849.61	85.9119	9,849.61	81.6714	9,849.61	82.0689	9,849.61	79.9097	9,849.61	80.6308	9,849.61	75.6247	9,849.61	76.7696	9,849.61	72.6996	9,849.61	73.7518	9,849.61	69.009	9,849.61	70.014	9,849.61	65.4486	9,849.61	66.6204	9,849.61	64.5062	9,849.61	64.3886	9,849.61	62.0721	9,849.61	61.5166	9,849.61	60.4622	9,849.61	54.6121	9,849.61	60.845	9,849.61	51.9711	9,849.61	59.4478	9,849.61	61.9884	9,849.61	57.9799	9,849.61	63.9851	9,849.61	55.0858	9,849.61	48.0475	9,849.61	58.0417
10,196.8	90.2508	10,196.8	90.0021	10,196.8	90.3084	10,196.8	88.8463	10,196.8	89.2873	10,196.8	87.1191	10,196.8	87.8027	10,196.8	84.0257	10,196.8	85.3331	10,196.8	81.9844	10,196.8	81.8941	10,196.8	80.0298	10,196.8	80.3938	10,196.8	76.1403	10,196.8	75.7771	10,196.8	73.4621	10,196.8	74.387	10,196.8	69.4359	10,196.8	70.4101	10,196.8	66.8555	10,196.8	68.0445	10,196.8	65.9707	10,196.8	65.2228	10,196.8	63.3973	10,196.8	59.5696	10,196.8	61.6581	10,196.8	59.4123	10,196.8	60.1232	10,196.8	54.4281	10,196.8	59.301	10,196.8	61.0124	10,196.8	57.3811	10,196.8	63.3817	10,196.8	57.6017	10,196.8	53.9527	10,196.8	58.0082
10,555.7	90.2906	10,555.7	89.9528	10,555.7	90.2816	10,555.7	88.9764	10,555.7	89.1579	10,555.7	86.961	10,555.7	87.6071	10,555.7	84.2812	10,555.7	84.8132	10,555.7	82.1341	10,555.7	82.0935	10,555.7	80.4035	10,555.7	80.1856	10,555.7	77.6105	10,555.7	77.9531	10,555.7	74.5495	10,555.7	75.9316	10,555.7	70.7391	10,555.7	72.2144	10,555.7	68.4038	10,555.7	68.1576	10,555.7	67.5642	10,555.7	66.7562	10,555.7	63.5486	10,555.7	62.5236	10,555.7	59.4717	10,555.7	57.9066	10,555.7	60.7141	10,555.7	55.6546	10,555.7	57.5342	10,555.7	61.437	10,555.7	55.132	10,555.7	64.348	10,555.7	59.7084	10,555.7	56.5943	10,555.7	59.0386
10,927.7	90.5132	10,927.7	90.0619	10,927.7	90.2622	10,927.7	89.1652	10,927.7	89.2622	10,927.7	86.8987	10,927.7	87.4884	10,927.7	84.4434	10,927.7	84.86	10,927.7	81.8693	10,927.7	82.1822	10,927.7	80.8963	10,927.7	80.6052	10,927.7	78.981	10,927.7	80.0801	10,927.7	74.3693	10,927.7	76.8122	10,927.7	71.1217	10,927.7	73.1048	10,927.7	67.9631	10,927.7	68.6475	10,927.7	66.7143	10,927.7	66.6501	10,927.7	62.448	10,927.7	62.6076	10,927.7	56.8163	10,927.7	60.4564	10,927.7	60.2796	10,927.7	57.2443	10,927.7	56.2285	10,927.7	62.7995	10,927.7	51.7969	10,927.7	62.9843	10,927.7	60.4969	10,927.7	59.6523	10,927.7	59.0561
11,313	90.835	11,313	89.9587	11,313	90.2708	11,313	89.0263	11,313	89.5205	11,313	86.6476	11,313	87.4602	11,313	84.1127	11,313	85.2022	11,313	81.547	11,313	82.2409	11,313	81.2185	11,313	81.5638	11,313	78.6988	11,313	80.5935	11,313	73.8137	11,313	76.9696	11,313	70.1072	11,313	72.6207	11,313	66.8321	11,313	69.0541	11,313	65.4016	11,313	66.6516	11,313	60.9819	11,313	63.2445	11,313	51.8214	11,313	62.8925	11,313	58.5016	11,313	58.2882	11,313	54.3886	11,313	63.8463	11,313	48.4825	11,313	62.6676	11,313	59.9918	11,313	61.1982	11,313	58.8274
11,712.9	90.9018	11,712.9	89.8949	11,712.9	90.2503	11,712.9	88.6469	11,712.9	89.6043	11,712.9	86.5421	11,712.9	87.4991	11,712.9	83.6407	11,712.9	85.558	11,712.9	81.6584	11,712.9	82.2629	11,712.9	80.9647	11,712.9	82.1333	11,712.9	77.6075	11,712.9	79.753	11,712.9	73.8156	11,712.9	76.326	11,712.9	69.7969	11,712.9	72.8459	11,712.9	67.356	11,712.9	69.8099	11,712.9	65.179	11,712.9	66.6139	11,712.9	60.5003	11,712.9	63.4333	11,712.9	51.2162	11,712.9	62.6076	11,712.9	56.9963	11,712.9	58.9945	11,712.9	52.7168	11,712.9	63.8413	11,712.9	43.7587	11,712.9	61.6052	11,712.9	57.9182	11,712.9	62.103	11,712.9	58.2307
12,126	90.8605	12,126	90.0784	12,126	90.1912	12,126	88.263	12,126	89.6878	12,126	86.6076	12,126	87.2662	12,126	83.7926	12,126	85.5761	12,126	82.1446	12,126	82.6773	12,126	80.9195	12,126	82.2931	12,126	77.7427	12,126	79.4057	12,126	74.1969	12,126	77.2235	12,126	70.2817	12,126	73.3913	12,126	68.0921	12,126	69.6419	12,126	66.2467	12,126	66.7757	12,126	60.8891	12,126	63.8215	12,126	49.0061	12,126	61.8128	12,126	57.2916	12,126	59.5201	12,126	54.8317	12,126	62.6576	12,126	48.9662	12,126	60.8857	12,126	53.7342	12,126	62.7751	12,126	56.5343
12,553.7	90.644	12,553.7	89.9068	12,553.7	90.1373	12,553.7	87.8786	12,553.7	89.5269	12,553.7	86.2508	12,553.7	86.7263	12,553.7	83.9731	12,553.7	85.0455	12,553.7	81.9083	12,553.7	82.169	12,553.7	80.9271	12,553.7	81.4728	12,553.7	78.0354	12,553.7	79.6154	12,553.7	74.4566	12,553.7	77.2732	12,553.7	70.0147	12,553.7	73.0688	12,553.7	68.4034	12,553.7	69.6169	12,553.7	65.3956	12,553.7	66.5469	12,553.7	60.8317	12,553.7	63.756	12,553.7	51.6486	12,553.7	61.9756	12,553.7	55.4732	12,553.7	59.5951	12,553.7	58.0293	12,553.7	61.6004	12,553.7	52.5234	12,553.7	58.9298	12,553.7	52.5689	12,553.7	61.4006	12,553.7	55.194
12,996.1	90.5607	12,996.1	89.8355	12,996.1	90.1914	12,996.1	87.6522	12,996.1	89.1024	12,996.1	85.5703	12,996.1	86.2499	12,996.1	84.0498	12,996.1	84.6842	12,996.1	81.1072	12,996.1	81.3289	12,996.1	80.8445	12,996.1	80.314	12,996.1	77.6715	12,996.1	79.3332	12,996.1	73.2898	12,996.1	75.3264	12,996.1	69.8094	12,996.1	71.9559	12,996.1	67.1737	12,996.1	67.6761	12,996.1	63.8265	12,996.1	64.8016	12,996.1	59.1075	12,996.1	62.7186	12,996.1	53.0595	12,996.1	60.9288	12,996.1	49.731	12,996.1	58.3183	12,996.1	58.11	12,996.1	60.5619	12,996.1	55.2944	12,996.1	56.6204	12,996.1	51.1079	12,996.1	59.6567	12,996.1	53.0185
13,454.6	90.625	13,454.6	89.8835	13,454.6	90.4469	13,454.6	87.9075	13,454.6	88.8757	13,454.6	85.2773	13,454.6	85.6609	13,454.6	83.9026	13,454.6	84.5402	13,454.6	81.1486	13,454.6	81.4148	13,454.6	80.537	13,454.6	80.297	13,454.6	76.828	13,454.6	78.7757	13,454.6	72.448	13,454.6	76.3178	13,454.6	69.6397	13,454.6	71.6189	13,454.6	67.1201	13,454.6	67.5366	13,454.6	63.3125	13,454.6	64.5087	13,454.6	57.0979	13,454.6	62.5459	13,454.6	53.231	13,454.6	59.0508	13,454.6	49.915	13,454.6	58.8701	13,454.6	56.973	13,454.6	57.8591	13,454.6	57.3909	13,454.6	54.6443	13,454.6	52.1313	13,454.6	56.501	13,454.6	47.5574
13,929.2	90.8	13,929.2	89.8151	13,929.2	90.5039	13,929.2	88.1715	13,929.2	88.8001	13,929.2	85.7265	13,929.2	85.9606	13,929.2	83.9708	13,929.2	84.2279	13,929.2	80.9969	13,929.2	81.1766	13,929.2	79.4954	13,929.2	80.3506	13,929.2	76.7843	13,929.2	78.3784	13,929.2	72.2234	13,929.2	75.3907	13,929.2	69.338	13,929.2	71.3972	13,929.2	66.2321	13,929.2	68.5118	13,929.2	61.741	13,929.2	65.1503	13,929.2	57.023	13,929.2	62.9606	13,929.2	54.8805	13,929.2	55.9658	13,929.2	50.9989	13,929.2	58.4215	13,929.2	58.1169	13,929.2	55.4144	13,929.2	57.4277	13,929.2	52.9572	13,929.2	53.3345	13,929.2	55.4791	13,929.2	40.5524
14,419.9	90.7988	14,419.9	89.5985	14,419.9	90.2492	14,419.9	87.9997	14,419.9	88.1764	14,419.9	85.7868	14,419.9	85.8245	14,419.9	82.8373	14,419.9	83.9965	14,419.9	79.692	14,419.9	80.9603	14,419.9	77.6186	14,419.9	79.4718	14,419.9	75.8024	14,419.9	77.6348	14,419.9	70.8933	14,419.9	75.4939	14,419.9	68.605	14,419.9	70.8801	14,419.9	65.1179	14,419.9	68.0488	14,419.9	60.8997	14,419.9	63.061	14,419.9	54.2038	14,419.9	61.6107	14,419.9	46.4078	14,419.9	57.7488	14,419.9	48.9108	14,419.9	56.958	14,419.9	58.1773	14,419.9	52.0458	14,419.9	56.1428	14,419.9	54.2564	14,419.9	54.4317	14,419.9	51.93	14,419.9	36.8969
14,928.2	90.2968	14,928.2	89.0508	14,928.2	89.535	14,928.2	87.2393	14,928.2	87.2735	14,928.2	84.3926	14,928.2	84.3409	14,928.2	81.5158	14,928.2	82.5206	14,928.2	77.1663	14,928.2	79.8975	14,928.2	75.9491	14,928.2	77.7254	14,928.2	74.9144	14,928.2	76.8299	14,928.2	70.2694	14,928.2	74.871	14,928.2	66.5492	14,928.2	69.7634	14,928.2	63.093	14,928.2	65.1153	14,928.2	59.0651	14,928.2	62.7756	14,928.2	51.8286	14,928.2	62.3542	14,928.2	53.2964	14,928.2	56.6754	14,928.2	45.7784	14,928.2	55.3902	14,928.2	51.559	14,928.2	47.3377	14,928.2	51.6676	14,928.2	52.1968	14,928.2	56.3416	14,928.2	51.8055	14,928.2	38.9234
15,455.6	88.9813	15,455.6	87.5758	15,455.6	88.0376	15,455.6	84.9017	15,455.6	85.713	15,455.6	82.0863	15,455.6	82.9577	15,455.6	80.248	15,455.6	81.0096	15,455.6	75.4296	15,455.6	78.6031	15,455.6	76.1468	15,455.6	75.8109	15,455.6	74.7009	15,455.6	75.9591	15,455.6	71.3635	15,455.6	72.9432	15,455.6	67.8858	15,455.6	69.3629	15,455.6	63.8319	15,455.6	65.7206	15,455.6	58.6082	15,455.6	61.9996	15,455.6	53.1772	15,455.6	60.4525	15,455.6	55.4978	15,455.6	50.5696	15,455.6	44.5685	15,455.6	55.7502	15,455.6	51.0793	15,455.6	49.2144	15,455.6	44.8448	15,455.6	37.5717	15,455.6	57.4761	15,455.6	52.8535	15,455.6	41.0464
16,000.5	84.4614	16,000.5	83.6326	16,000.5	83.9439	16,000.5	82.588	16,000.5	82.9326	16,000.5	82.0555	16,000.5	82.8038	16,000.5	81.0813	16,000.5	82.2873	16,000.5	79.1159	16,000.5	80.4163	16,000.5	78.0217	16,000.5	77.6802	16,000.5	75.6395	16,000.5	77.1712	16,000.5	73.2155	16,000.5	75.5056	16,000.5	68.3712	16,000.5	71.3286	16,000.5	65.468	16,000.5	66.212	16,000.5	59.7454	16,000.5	63.0223	16,000.5	56.3713	16,000.5	63.4587	16,000.5	59.1728	16,000.5	57.893	16,000.5	48.9844	16,000.5	57.8228	16,000.5	50.4787	16,000.5	56.2027	16,000.5	51.373	16,000.5	44.0681	16,000.5	56.58	16,000.5	55.8679	16,000.5	38.6413
16,564.5	89.6828	16,564.5	88.6369	16,564.5	89.2188	16,564.5	86.7	16,564.5	87.5967	16,564.5	84.1117	16,564.5	85.4122	16,564.5	80.5839	16,564.5	82.1796	16,564.5	76.116	16,564.5	78.0281	16,564.5	73.0398	16,564.5	72.9819	16,564.5	70.6594	16,564.5	71.2407	16,564.5	67.078	16,564.5	69.2722	16,564.5	63.7392	16,564.5	65.9063	16,564.5	60.8685	16,564.5	61.3336	16,564.5	52.9589	16,564.5	57.1653	16,564.5	53.5281	16,564.5	56.6096	16,564.5	54.5142	16,564.5	52.2289	16,564.5	46.3342	16,564.5	50.7837	16,564.5	46.4752	16,564.5	50.468	16,564.5	49.4762	16,564.5	39.9748	16,564.5	47.6668	16,564.5	47.9937	16,564.5	33.4881
17,148.9	89.5315	17,148.9	88.0508	17,148.9	89.0693	17,148.9	85.413	17,148.9	87.0114	17,148.9	81.7652	17,148.9	83.8819	17,148.9	76.2076	17,148.9	79.6494	17,148.9	69.629	17,148.9	73.6652	17,148.9	68.6427	17,148.9	67.0386	17,148.9	68.7865	17,148.9	67.7664	17,148.9	65.4518	17,148.9	66.5994	17,148.9	61.7618	17,148.9	63.3381	17,148.9	56.7486	17,148.9	59.1234	17,148.9	51.9047	17,148.9	54.4639	17,148.9	49.7419	17,148.9	54.2067	17,148.9	49.935	17,148.9	50.6625	17,148.9	44.9347	17,148.9	49.1057	17,148.9	32.6908	17,148.9	48.6648	17,148.9	46.7192	17,148.9	42.6774	17,148.9	45.3595	17,148.9	44.9304	17,148.9	30.4201
17,752.4	88.9029	17,752.4	86.8277	17,752.4	88.2996	17,752.4	83.6233	17,752.4	85.8904	17,752.4	79.3136	17,752.4	81.9806	17,752.4	72.8778	17,752.4	77.3341	17,752.4	67.1182	17,752.4	70.2862	17,752.4	68.2915	17,752.4	66.575	17,752.4	68.9004	17,752.4	69.4984	17,752.4	65.951	17,752.4	67.94	17,752.4	61.8435	17,752.4	64.6948	17,752.4	58.8082	17,752.4	59.9035	17,752.4	50.8922	17,752.4	56.6322	17,752.4	49.3029	17,752.4	55.4707	17,752.4	49.638	17,752.4	52.0902	17,752.4	47.2071	17,752.4	50.6392	17,752.4	26.8649	17,752.4	49.2756	17,752.4	49.4944	17,752.4	45.5792	17,752.4	37.5056	17,752.4	47.0362	17,752.4	37.6291
18,379.4	88.0193	18,379.4	85.8595	18,379.4	87.1743	18,379.4	82.0346	18,379.4	84.2608	18,379.4	77.1784	18,379.4	80.0345	18,379.4	70.2245	18,379.4	75.1726	18,379.4	67.3414	18,379.4	68.1297	18,379.4	67.8069	18,379.4	66.2193	18,379.4	68.8239	18,379.4	69.3042	18,379.4	66.0138	18,379.4	68.9705	18,379.4	62.0335	18,379.4	64.7791	18,379.4	57.3811	18,379.4	60.5874	18,379.4	49.7057	18,379.4	56.8514	18,379.4	44.7926	18,379.4	55.1276	18,379.4	48.1848	18,379.4	52.2207	18,379.4	45.5529	18,379.4	49.1076	18,379.4	33.7699	18,379.4	46.4942	18,379.4	49.2493	18,379.4	49.5807	18,379.4	45.6829	18,379.4	45.11	18,379.4	32.771
19,026.9	87.3932	19,026.9	85.3393	19,026.9	86.4267	19,026.9	81.2693	19,026.9	83.1568	19,026.9	76.0193	19,026.9	78.7365	19,026.9	68.495	19,026.9	72.998	19,026.9	65.674	19,026.9	64.4201	19,026.9	68.6273	19,026.9	64.5951	19,026.9	68.2519	19,026.9	69.2853	19,026.9	65.3161	19,026.9	67.6938	19,026.9	61.258	19,026.9	63.3208	19,026.9	54.8897	19,026.9	59.7489	19,026.9	48.7075	19,026.9	55.2272	19,026.9	38.4936	19,026.9	53.6696	19,026.9	49.9321	19,026.9	49.378	19,026.9	44.0795	19,026.9	46.7067	19,026.9	38.0774	19,026.9	41.7525	19,026.9	48.515	19,026.9	49.1772	19,026.9	47.7557	19,026.9	42.0817	19,026.9	28.5696
19,697.8	86.592	19,697.8	84.59	19,697.8	85.6065	19,697.8	80.5013	19,697.8	82.4583	19,697.8	74.517	19,697.8	77.162	19,697.8	63.8941	19,697.8	70.4858	19,697.8	61.9411	19,697.8	58.4065	19,697.8	67.2078	19,697.8	63.9475	19,697.8	67.5514	19,697.8	67.963	19,697.8	65.0492	19,697.8	66.7156	19,697.8	60.2069	19,697.8	62.7908	19,697.8	52.7924	19,697.8	59.0223	19,697.8	46.2889	19,697.8	54.854	19,697.8	38.2271	19,697.8	53.1773	19,697.8	49.8291	19,697.8	52.1115	19,697.8	42.9874	19,697.8	46.2082	19,697.8	40.7421	19,697.8	44.6194	19,697.8	47.3101	19,697.8	46.2936	19,697.8	47.744	19,697.8	43.5592	19,697.8	26.1426
19,999.5	86.1027	19,999.5	84.0092	19,999.5	85.2483	19,999.5	79.9119	19,999.5	82.1103	19,999.5	72.8833	19,999.5	76.4597	19,999.5	60.393	19,999.5	69.0672	19,999.5	61.4227	19,999.5	44.9333	19,999.5	66.5186	19,999.5	63.3907	19,999.5	66.4759	19,999.5	66.6752	19,999.5	65.2802	19,999.5	67.0003	19,999.5	58.8207	19,999.5	61.8542	19,999.5	54.1099	19,999.5	56.7133	19,999.5	48.5198	19,999.5	52.3862	19,999.5	26.9406	19,999.5	53.0085	19,999.5	45.3453	19,999.5	52.2671	19,999.5	42.6267	19,999.5	51.1065	19,999.5	43.9116	19,999.5	55.4242	19,999.5	47.7923	19,999.5	47.4039	19,999.5	48.7424	19,999.5	44.2947	19,999.5	39.6985
