"SPL Vertical"
"On-Axis"		"10°"		"-10°"		"20°"		"-20°"		"30°"		"-30°"		"40°"		"-40°"		"50°"		"-50°"		"60°"		"-60°"		"70°"		"-70°"		"80°"		"-80°"		"90°"		"-90°"		"100°"		"-100°"		"110°"		"-110°"		"120°"		"-120°"		"130°"		"-130°"		"140°"		"-140°"		"150°"		"-150°"		"160°"		"-160°"		"170°"		"-170°"		"180°"
"Frequency / Hz"	"Sound Pressure Level / dB (re 20 µPa/V)   /[0.3V at 1m]"	"Frequency / Hz"	"Sound Pressure Level / dB (re 20 µPa/V)   /[0.3V at 1m]"	"Frequency / Hz"	"Sound Pressure Level / dB (re 20 µPa/V)   /[0.3V at 1m]"	"Frequency / Hz"	"Sound Pressure Level / dB (re 20 µPa/V)   /[0.3V at 1m]"	"Frequency / Hz"	"Sound Pressure Level / dB (re 20 µPa/V)   /[0.3V at 1m]"	"Frequency / Hz"	"Sound Pressure Level / dB (re 20 µPa/V)   /[0.3V at 1m]"	"Frequency / Hz"	"Sound Pressure Level / dB (re 20 µPa/V)   /[0.3V at 1m]"	"Frequency / Hz"	"Sound Pressure Level / dB (re 20 µPa/V)   /[0.3V at 1m]"	"Frequency / Hz"	"Sound Pressure Level / dB (re 20 µPa/V)   /[0.3V at 1m]"	"Frequency / Hz"	"Sound Pressure Level / dB (re 20 µPa/V)   /[0.3V at 1m]"	"Frequency / Hz"	"Sound Pressure Level / dB (re 20 µPa/V)   /[0.3V at 1m]"	"Frequency / Hz"	"Sound Pressure Level / dB (re 20 µPa/V)   /[0.3V at 1m]"	"Frequency / Hz"	"Sound Pressure Level / dB (re 20 µPa/V)   /[0.3V at 1m]"	"Frequency / Hz"	"Sound Pressure Level / dB (re 20 µPa/V)   /[0.3V at 1m]"	"Frequency / Hz"	"Sound Pressure Level / dB (re 20 µPa/V)   /[0.3V at 1m]"	"Frequency / Hz"	"Sound Pressure Level / dB (re 20 µPa/V)   /[0.3V at 1m]"	"Frequency / Hz"	"Sound Pressure Level / dB (re 20 µPa/V)   /[0.3V at 1m]"	"Frequency / Hz"	"Sound Pressure Level / dB (re 20 µPa/V)   /[0.3V at 1m]"	"Frequency / Hz"	"Sound Pressure Level / dB (re 20 µPa/V)   /[0.3V at 1m]"	"Frequency / Hz"	"Sound Pressure Level / dB (re 20 µPa/V)   /[0.3V at 1m]"	"Frequency / Hz"	"Sound Pressure Level / dB (re 20 µPa/V)   /[0.3V at 1m]"	"Frequency / Hz"	"Sound Pressure Level / dB (re 20 µPa/V)   /[0.3V at 1m]"	"Frequency / Hz"	"Sound Pressure Level / dB (re 20 µPa/V)   /[0.3V at 1m]"	"Frequency / Hz"	"Sound Pressure Level / dB (re 20 µPa/V)   /[0.3V at 1m]"	"Frequency / Hz"	"Sound Pressure Level / dB (re 20 µPa/V)   /[0.3V at 1m]"	"Frequency / Hz"	"Sound Pressure Level / dB (re 20 µPa/V)   /[0.3V at 1m]"	"Frequency / Hz"	"Sound Pressure Level / dB (re 20 µPa/V)   /[0.3V at 1m]"	"Frequency / Hz"	"Sound Pressure Level / dB (re 20 µPa/V)   /[0.3V at 1m]"	"Frequency / Hz"	"Sound Pressure Level / dB (re 20 µPa/V)   /[0.3V at 1m]"	"Frequency / Hz"	"Sound Pressure Level / dB (re 20 µPa/V)   /[0.3V at 1m]"	"Frequency / Hz"	"Sound Pressure Level / dB (re 20 µPa/V)   /[0.3V at 1m]"	"Frequency / Hz"	"Sound Pressure Level / dB (re 20 µPa/V)   /[0.3V at 1m]"	"Frequency / Hz"	"Sound Pressure Level / dB (re 20 µPa/V)   /[0.3V at 1m]"	"Frequency / Hz"	"Sound Pressure Level / dB (re 20 µPa/V)   /[0.3V at 1m]"	"Frequency / Hz"	"Sound Pressure Level / dB (re 20 µPa/V)   /[0.3V at 1m]"	"Frequency / Hz"	"Sound Pressure Level / dB (re 20 µPa/V)   /[0.3V at 1m]"
20.5078	96.1314	20.5078	95.3351	20.5078	97.0276	20.5078	94.6405	20.5078	98.014	20.5078	94.0448	20.5078	99.0674	20.5078	93.5431	20.5078	100.145	20.5078	93.1301	20.5078	101.176	20.5078	92.8003	20.5078	102.059	20.5078	92.5489	20.5078	102.66	20.5078	92.372	20.5078	102.84	20.5078	92.2661	20.5078	102.523	20.5078	92.2289	20.5078	101.753	20.5078	92.2582	20.5078	100.674	20.5078	92.3528	20.5078	99.4669	20.5078	92.5118	20.5078	98.2936	20.5078	92.7345	20.5078	97.2425	20.5078	93.0214	20.5078	96.3309	20.5078	93.3737	20.5078	95.5459	20.5078	93.7949	20.5078	94.8707	20.5078	94.291
21.2402	98.1335	21.2402	97.4072	21.2402	98.9591	21.2402	96.7805	21.2402	99.8759	21.2402	96.2494	21.2402	100.863	21.2402	95.808	21.2402	101.882	21.2402	95.4493	21.2402	102.866	21.2402	95.1664	21.2402	103.715	21.2402	94.9528	21.2402	104.294	21.2402	94.8027	21.2402	104.468	21.2402	94.7113	21.2402	104.164	21.2402	94.6748	21.2402	103.419	21.2402	94.6908	21.2402	102.364	21.2402	94.7579	21.2402	101.185	21.2402	94.8764	21.2402	100.051	21.2402	95.0476	21.2402	99.0508	21.2402	95.2747	21.2402	98.197	21.2402	95.5622	21.2402	97.4731	21.2402	95.9166	21.2402	96.8609	21.2402	96.3461
21.9727	99.3674	21.9727	98.6305	21.9727	100.196	21.9727	97.9869	21.9727	101.11	21.9727	97.434	21.9727	102.087	21.9727	96.9673	21.9727	103.092	21.9727	96.5813	21.9727	104.058	21.9727	96.2707	21.9727	104.888	21.9727	96.0301	21.9727	105.45	21.9727	95.8549	21.9727	105.606	21.9727	95.7411	21.9727	105.28	21.9727	95.6859	21.9727	104.517	21.9727	95.6876	21.9727	103.462	21.9727	95.7456	21.9727	102.297	21.9727	95.8605	21.9727	101.174	21.9727	96.0345	21.9727	100.175	21.9727	96.2706	21.9727	99.3126	21.9727	96.5732	21.9727	98.5725	21.9727	96.9476	21.9727	97.9389	21.9727	97.4003
22.7051	100.207	22.7051	99.5024	22.7051	101.002	22.7051	98.8904	22.7051	101.881	22.7051	98.3677	22.7051	102.826	22.7051	97.9299	22.7051	103.8	22.7051	97.5715	22.7051	104.741	22.7051	97.2869	22.7051	105.553	22.7051	97.071	22.7051	106.106	22.7051	96.919	22.7051	106.262	22.7051	96.8271	22.7051	105.951	22.7051	96.7927	22.7051	105.233	22.7051	96.8142	22.7051	104.264	22.7051	96.8912	22.7051	103.21	22.7051	97.0249	22.7051	102.2	22.7051	97.2172	22.7051	101.296	22.7051	97.4713	22.7051	100.501	22.7051	97.7909	22.7051	99.7993	22.7051	98.1801	22.7051	99.1814	22.7051	98.6426
23.4375	100.85	23.4375	100.159	23.4375	101.631	23.4375	99.5585	23.4375	102.495	23.4375	99.0471	23.4375	103.424	23.4375	98.6204	23.4375	104.383	23.4375	98.2737	23.4375	105.313	23.4375	98.0016	23.4375	106.117	23.4375	97.7993	23.4375	106.662	23.4375	97.6621	23.4375	106.812	23.4375	97.5863	23.4375	106.504	23.4375	97.569	23.4375	105.808	23.4375	97.6085	23.4375	104.892	23.4375	97.7042	23.4375	103.916	23.4375	97.8564	23.4375	102.981	23.4375	98.0665	23.4375	102.128	23.4375	98.3367	23.4375	101.362	23.4375	98.6695	23.4375	100.677	23.4375	99.0674	23.4375	100.069	23.4375	99.5331
24.1699	101.358	24.1699	100.662	24.1699	102.138	24.1699	100.053	24.1699	102.993	24.1699	99.5298	24.1699	103.907	24.1699	99.0908	24.1699	104.846	24.1699	98.7325	24.1699	105.75	24.1699	98.4512	24.1699	106.524	24.1699	98.2431	24.1699	107.037	24.1699	98.1045	24.1699	107.159	24.1699	98.0321	24.1699	106.838	24.1699	98.0232	24.1699	106.155	24.1699	98.0757	24.1699	105.28	24.1699	98.1882	24.1699	104.359	24.1699	98.3601	24.1699	103.473	24.1699	98.591	24.1699	102.654	24.1699	98.8811	24.1699	101.91	24.1699	99.2308	24.1699	101.242	24.1699	99.6404	24.1699	100.643	24.1699	100.111
25.6348	102.442	25.6348	101.8	25.6348	103.155	25.6348	101.231	25.6348	103.932	25.6348	100.735	25.6348	104.757	25.6348	100.311	25.6348	105.599	25.6348	99.9564	25.6348	106.406	25.6348	99.6694	25.6348	107.091	25.6348	99.4469	25.6348	107.531	25.6348	99.2862	25.6348	107.602	25.6348	99.1849	25.6348	107.246	25.6348	99.1407	25.6348	106.536	25.6348	99.1518	25.6348	105.633	25.6348	99.217	25.6348	104.693	25.6348	99.3357	25.6348	103.814	25.6348	99.5078	25.6348	103.028	25.6348	99.7339	25.6348	102.339	25.6348	100.015	25.6348	101.736	25.6348	100.353	25.6348	101.208	25.6348	100.749
26.3672	102.649	26.3672	102.003	26.3672	103.362	26.3672	101.425	26.3672	104.132	26.3672	100.918	26.3672	104.945	26.3672	100.481	26.3672	105.772	26.3672	100.113	26.3672	106.561	26.3672	99.8128	26.3672	107.227	26.3672	99.5782	26.3672	107.65	26.3672	99.4074	26.3672	107.707	26.3672	99.2983	26.3672	107.346	26.3672	99.2487	26.3672	106.646	26.3672	99.257	26.3672	105.768	26.3672	99.3216	26.3672	104.857	26.3672	99.4418	26.3672	103.993	26.3672	99.617	26.3672	103.207	26.3672	99.8476	26.3672	102.507	26.3672	100.134	26.3672	101.891	26.3672	100.479	26.3672	101.352	26.3672	100.883
27.0996	102.922	27.0996	102.288	27.0996	103.615	27.0996	101.717	27.0996	104.361	27.0996	101.21	27.0996	105.144	27.0996	100.769	27.0996	105.936	27.0996	100.392	27.0996	106.689	27.0996	100.079	27.0996	107.32	27.0996	99.8286	27.0996	107.712	27.0996	99.6394	27.0996	107.743	27.0996	99.5098	27.0996	107.364	27.0996	99.4385	27.0996	106.648	27.0996	99.4239	27.0996	105.759	27.0996	99.465	27.0996	104.843	27.0996	99.5612	27.0996	103.977	27.0996	99.7124	27.0996	103.19	27.0996	99.9193	27.0996	102.491	27.0996	100.183	27.0996	101.879	27.0996	100.507	27.0996	101.349	27.0996	100.894
27.832	103.173	27.832	102.552	27.832	103.849	27.832	101.988	27.832	104.573	27.832	101.483	27.832	105.33	27.832	101.038	27.832	106.095	27.832	100.654	27.832	106.82	27.832	100.33	27.832	107.426	27.832	100.065	27.832	107.799	27.832	99.86	27.832	107.822	27.832	99.7135	27.832	107.444	27.832	99.6248	27.832	106.737	27.832	99.5933	27.832	105.857	27.832	99.6185	27.832	104.946	27.832	99.7004	27.832	104.083	27.832	99.8391	27.832	103.297	27.832	100.036	27.832	102.598	27.832	100.292	27.832	101.984	27.832	100.611	27.832	101.452	27.832	100.996
29.2969	103.626	29.2969	103.053	29.2969	104.246	29.2969	102.529	29.2969	104.904	29.2969	102.055	29.2969	105.59	29.2969	101.635	29.2969	106.279	29.2969	101.267	29.2969	106.929	29.2969	100.952	29.2969	107.467	29.2969	100.69	29.2969	107.79	29.2969	100.481	29.2969	107.786	29.2969	100.325	29.2969	107.407	29.2969	100.222	29.2969	106.721	29.2969	100.171	29.2969	105.877	29.2969	100.173	29.2969	105.009	29.2969	100.226	29.2969	104.189	29.2969	100.333	29.2969	103.446	29.2969	100.493	29.2969	102.789	29.2969	100.71	29.2969	102.22	29.2969	100.985	29.2969	101.734	29.2969	101.325
30.0293	103.542	30.0293	102.981	30.0293	104.149	30.0293	102.468	30.0293	104.795	30.0293	102.007	30.0293	105.469	30.0293	101.596	30.0293	106.147	30.0293	101.238	30.0293	106.787	30.0293	100.933	30.0293	107.317	30.0293	100.68	30.0293	107.633	30.0293	100.48	30.0293	107.624	30.0293	100.332	30.0293	107.244	30.0293	100.237	30.0293	106.562	30.0293	100.194	30.0293	105.727	30.0293	100.202	30.0293	104.879	30.0293	100.261	30.0293	104.096	30.0293	100.372	30.0293	103.393	30.0293	100.534	30.0293	102.768	30.0293	100.75	30.0293	102.221	30.0293	101.021	30.0293	101.751	30.0293	101.353
31.4941	103.764	31.4941	103.214	31.4941	104.354	31.4941	102.709	31.4941	104.978	31.4941	102.253	31.4941	105.623	31.4941	101.845	31.4941	106.267	31.4941	101.489	31.4941	106.869	31.4941	101.186	31.4941	107.361	31.4941	100.935	31.4941	107.645	31.4941	100.739	31.4941	107.621	31.4941	100.595	31.4941	107.243	31.4941	100.505	31.4941	106.579	31.4941	100.468	31.4941	105.772	31.4941	100.483	31.4941	104.959	31.4941	100.549	31.4941	104.213	31.4941	100.665	31.4941	103.553	31.4941	100.831	31.4941	102.971	31.4941	101.047	31.4941	102.461	31.4941	101.316	31.4941	102.018	31.4941	101.638
32.2266	103.933	32.2266	103.391	32.2266	104.512	32.2266	102.892	32.2266	105.122	32.2266	102.439	32.2266	105.75	32.2266	102.034	32.2266	106.373	32.2266	101.678	32.2266	106.954	32.2266	101.374	32.2266	107.425	32.2266	101.122	32.2266	107.695	32.2266	100.923	32.2266	107.665	32.2266	100.778	32.2266	107.293	32.2266	100.687	32.2266	106.643	32.2266	100.648	32.2266	105.854	32.2266	100.661	32.2266	105.056	32.2266	100.724	32.2266	104.323	32.2266	100.838	32.2266	103.672	32.2266	101.001	32.2266	103.099	32.2266	101.214	32.2266	102.599	32.2266	101.477	32.2266	102.165	32.2266	101.793
33.6914	104.13	33.6914	103.603	33.6914	104.69	33.6914	103.114	33.6914	105.274	33.6914	102.668	33.6914	105.871	33.6914	102.266	33.6914	106.457	33.6914	101.912	33.6914	106.997	33.6914	101.608	33.6914	107.43	33.6914	101.355	33.6914	107.668	33.6914	101.155	33.6914	107.622	33.6914	101.008	33.6914	107.254	33.6914	100.915	33.6914	106.625	33.6914	100.875	33.6914	105.868	33.6914	100.886	33.6914	105.106	33.6914	100.948	33.6914	104.406	33.6914	101.059	33.6914	103.782	33.6914	101.218	33.6914	103.233	33.6914	101.424	33.6914	102.754	33.6914	101.678	33.6914	102.339	33.6914	101.982
34.4238	104.274	34.4238	103.754	34.4238	104.824	34.4238	103.271	34.4238	105.395	34.4238	102.827	34.4238	105.976	34.4238	102.428	34.4238	106.545	34.4238	102.075	34.4238	107.066	34.4238	101.771	34.4238	107.479	34.4238	101.518	34.4238	107.703	34.4238	101.317	34.4238	107.649	34.4238	101.169	34.4238	107.281	34.4238	101.075	34.4238	106.661	34.4238	101.033	34.4238	105.916	34.4238	101.042	34.4238	105.168	34.4238	101.102	34.4238	104.48	34.4238	101.209	34.4238	103.867	34.4238	101.364	34.4238	103.33	34.4238	101.565	34.4238	102.861	34.4238	101.812	34.4238	102.456	34.4238	102.108
35.8887	104.657	35.8887	104.142	35.8887	105.195	35.8887	103.659	35.8887	105.75	35.8887	103.213	35.8887	106.307	35.8887	102.806	35.8887	106.845	35.8887	102.444	35.8887	107.33	35.8887	102.129	35.8887	107.707	35.8887	101.864	35.8887	107.9	35.8887	101.652	35.8887	107.831	35.8887	101.492	35.8887	107.467	35.8887	101.387	35.8887	106.862	35.8887	101.335	35.8887	106.136	35.8887	101.336	35.8887	105.402	35.8887	101.388	35.8887	104.721	35.8887	101.489	35.8887	104.114	35.8887	101.638	35.8887	103.58	35.8887	101.834	35.8887	103.115	35.8887	102.078	35.8887	102.714	35.8887	102.37
37.3535	104.79	37.3535	104.289	37.3535	105.312	37.3535	103.815	37.3535	105.846	37.3535	103.374	37.3535	106.376	37.3535	102.972	37.3535	106.883	37.3535	102.613	37.3535	107.334	37.3535	102.301	37.3535	107.677	37.3535	102.039	37.3535	107.845	37.3535	101.829	37.3535	107.764	37.3535	101.674	37.3535	107.404	37.3535	101.573	37.3535	106.819	37.3535	101.527	37.3535	106.125	37.3535	101.534	37.3535	105.428	37.3535	101.592	37.3535	104.787	37.3535	101.7	37.3535	104.219	37.3535	101.854	37.3535	103.722	37.3535	102.052	37.3535	103.288	37.3535	102.294	37.3535	102.909	37.3535	102.579
38.8184	104.966	38.8184	104.471	38.8184	105.478	38.8184	104	38.8184	105.995	38.8184	103.559	38.8184	106.505	38.8184	103.154	38.8184	106.987	38.8184	102.791	38.8184	107.409	38.8184	102.472	38.8184	107.724	38.8184	102.203	38.8184	107.867	38.8184	101.987	38.8184	107.772	38.8184	101.824	38.8184	107.41	38.8184	101.717	38.8184	106.83	38.8184	101.665	38.8184	106.141	38.8184	101.666	38.8184	105.447	38.8184	101.718	38.8184	104.807	38.8184	101.818	38.8184	104.242	38.8184	101.963	38.8184	103.753	38.8184	102.152	38.8184	103.331	38.8184	102.381	38.8184	102.967	38.8184	102.652
39.5508	105.07	39.5508	104.576	39.5508	105.577	39.5508	104.105	39.5508	106.089	39.5508	103.662	39.5508	106.591	39.5508	103.255	39.5508	107.062	39.5508	102.887	39.5508	107.471	39.5508	102.564	39.5508	107.773	39.5508	102.291	39.5508	107.905	39.5508	102.07	39.5508	107.804	39.5508	101.903	39.5508	107.443	39.5508	101.793	39.5508	106.87	39.5508	101.738	39.5508	106.192	39.5508	101.738	39.5508	105.508	39.5508	101.789	39.5508	104.876	39.5508	101.889	39.5508	104.314	39.5508	102.035	39.5508	103.827	39.5508	102.224	39.5508	103.405	39.5508	102.454	39.5508	103.041	39.5508	102.726
41.0156	105.26	41.0156	104.77	41.0156	105.761	41.0156	104.297	41.0156	106.261	41.0156	103.851	41.0156	106.746	41.0156	103.436	41.0156	107.196	41.0156	103.06	41.0156	107.581	41.0156	102.727	41.0156	107.857	41.0156	102.442	41.0156	107.966	41.0156	102.21	41.0156	107.849	41.0156	102.034	41.0156	107.48	41.0156	101.914	41.0156	106.906	41.0156	101.851	41.0156	106.229	41.0156	101.844	41.0156	105.548	41.0156	101.889	41.0156	104.919	41.0156	101.985	41.0156	104.364	41.0156	102.127	41.0156	103.884	41.0156	102.312	41.0156	103.47	41.0156	102.537	41.0156	103.113	41.0156	102.803
42.4805	105.512	42.4805	105.018	42.4805	106.01	42.4805	104.537	42.4805	106.502	42.4805	104.076	42.4805	106.973	42.4805	103.643	42.4805	107.403	42.4805	103.243	42.4805	107.764	42.4805	102.884	42.4805	108.012	42.4805	102.572	42.4805	108.094	42.4805	102.311	42.4805	107.953	42.4805	102.106	42.4805	107.564	42.4805	101.959	42.4805	106.967	42.4805	101.872	42.4805	106.265	42.4805	101.844	42.4805	105.558	42.4805	101.873	42.4805	104.907	42.4805	101.955	42.4805	104.337	42.4805	102.088	42.4805	103.846	42.4805	102.266	42.4805	103.425	42.4805	102.488	42.4805	103.064	42.4805	102.754
43.9453	105.875	43.9453	105.393	43.9453	106.355	43.9453	104.916	43.9453	106.822	43.9453	104.452	43.9453	107.263	43.9453	104.006	43.9453	107.657	43.9453	103.584	43.9453	107.975	43.9453	103.193	43.9453	108.176	43.9453	102.839	43.9453	108.205	43.9453	102.527	43.9453	108.006	43.9453	102.262	43.9453	107.551	43.9453	102.051	43.9453	106.881	43.9453	101.895	43.9453	106.1	43.9453	101.796	43.9453	105.317	43.9453	101.756	43.9453	104.602	43.9453	101.773	43.9453	103.982	43.9453	101.845	43.9453	103.459	43.9453	101.97	43.9453	103.025	43.9453	102.147	43.9453	102.668	43.9453	102.378
45.4102	106.006	45.4102	105.551	45.4102	106.461	45.4102	105.102	45.4102	106.905	45.4102	104.665	45.4102	107.326	45.4102	104.245	45.4102	107.703	45.4102	103.844	45.4102	108.008	45.4102	103.469	45.4102	108.2	45.4102	103.121	45.4102	108.226	45.4102	102.804	45.4102	108.032	45.4102	102.523	45.4102	107.585	45.4102	102.28	45.4102	106.907	45.4102	102.077	45.4102	106.081	45.4102	101.918	45.4102	105.223	45.4102	101.805	45.4102	104.423	45.4102	101.74	45.4102	103.728	45.4102	101.728	45.4102	103.15	45.4102	101.773	45.4102	102.686	45.4102	101.881	45.4102	102.327	45.4102	102.063
47.6074	105.657	47.6074	105.211	47.6074	106.109	47.6074	104.78	47.6074	106.556	47.6074	104.369	47.6074	106.984	47.6074	103.986	47.6074	107.374	47.6074	103.634	47.6074	107.7	47.6074	103.319	47.6074	107.928	47.6074	103.043	47.6074	108.019	47.6074	102.811	47.6074	107.936	47.6074	102.624	47.6074	107.664	47.6074	102.484	47.6074	107.222	47.6074	102.392	47.6074	106.668	47.6074	102.35	47.6074	106.065	47.6074	102.357	47.6074	105.464	47.6074	102.415	47.6074	104.896	47.6074	102.525	47.6074	104.378	47.6074	102.688	47.6074	103.919	47.6074	102.906	47.6074	103.52	47.6074	103.183
49.0723	105.704	49.0723	105.264	49.0723	106.147	49.0723	104.839	49.0723	106.584	49.0723	104.434	49.0723	106.998	49.0723	104.057	49.0723	107.372	49.0723	103.713	49.0723	107.678	49.0723	103.408	49.0723	107.885	49.0723	103.146	49.0723	107.956	49.0723	102.93	49.0723	107.862	49.0723	102.763	49.0723	107.595	49.0723	102.646	49.0723	107.185	49.0723	102.581	49.0723	106.688	49.0723	102.566	49.0723	106.159	49.0723	102.603	49.0723	105.631	49.0723	102.69	49.0723	105.127	49.0723	102.826	49.0723	104.658	49.0723	103.01	49.0723	104.233	49.0723	103.243	49.0723	103.855	49.0723	103.525
50.5371	105.68	50.5371	105.25	50.5371	106.114	50.5371	104.833	50.5371	106.538	50.5371	104.438	50.5371	106.939	50.5371	104.072	50.5371	107.297	50.5371	103.741	50.5371	107.585	50.5371	103.451	50.5371	107.771	50.5371	103.205	50.5371	107.823	50.5371	103.008	50.5371	107.713	50.5371	102.86	50.5371	107.44	50.5371	102.764	50.5371	107.04	50.5371	102.718	50.5371	106.569	50.5371	102.723	50.5371	106.081	50.5371	102.776	50.5371	105.607	50.5371	102.876	50.5371	105.157	50.5371	103.02	50.5371	104.74	50.5371	103.207	50.5371	104.357	50.5371	103.436	50.5371	104.011	50.5371	103.704
52.7344	105.802	52.7344	105.363	52.7344	106.242	52.7344	104.935	52.7344	106.668	52.7344	104.527	52.7344	107.065	52.7344	104.149	52.7344	107.411	52.7344	103.808	52.7344	107.682	52.7344	103.51	52.7344	107.846	52.7344	103.26	52.7344	107.869	52.7344	103.064	52.7344	107.729	52.7344	102.922	52.7344	107.431	52.7344	102.835	52.7344	107.021	52.7344	102.804	52.7344	106.561	52.7344	102.825	52.7344	106.1	52.7344	102.897	52.7344	105.66	52.7344	103.014	52.7344	105.246	52.7344	103.174	52.7344	104.858	52.7344	103.372	52.7344	104.499	52.7344	103.605	52.7344	104.17	52.7344	103.872
54.1992	105.842	54.1992	105.397	54.1992	106.284	54.1992	104.96	54.1992	106.709	54.1992	104.543	54.1992	107.101	54.1992	104.154	54.1992	107.439	54.1992	103.802	54.1992	107.696	54.1992	103.493	54.1992	107.842	54.1992	103.235	54.1992	107.845	54.1992	103.031	54.1992	107.683	54.1992	102.884	54.1992	107.367	54.1992	102.795	54.1992	106.944	54.1992	102.763	54.1992	106.48	54.1992	102.786	54.1992	106.024	54.1992	102.861	54.1992	105.595	54.1992	102.982	54.1992	105.194	54.1992	103.146	54.1992	104.818	54.1992	103.347	54.1992	104.468	54.1992	103.582	54.1992	104.144	54.1992	103.849
56.3965	105.822	56.3965	105.368	56.3965	106.268	56.3965	104.919	56.3965	106.692	56.3965	104.484	56.3965	107.077	56.3965	104.075	56.3965	107.402	56.3965	103.699	56.3965	107.642	56.3965	103.366	56.3965	107.766	56.3965	103.083	56.3965	107.742	56.3965	102.854	56.3965	107.551	56.3965	102.683	56.3965	107.205	56.3965	102.573	56.3965	106.755	56.3965	102.523	56.3965	106.265	56.3965	102.53	56.3965	105.783	56.3965	102.592	56.3965	105.329	56.3965	102.704	56.3965	104.909	56.3965	102.861	56.3965	104.523	56.3965	103.057	56.3965	104.168	56.3965	103.288	56.3965	103.845	56.3965	103.552
58.5938	105.67	58.5938	105.219	58.5938	106.11	58.5938	104.77	58.5938	106.525	58.5938	104.333	58.5938	106.898	58.5938	103.92	58.5938	107.208	58.5938	103.54	58.5938	107.429	58.5938	103.201	58.5938	107.532	58.5938	102.91	58.5938	107.486	58.5938	102.675	58.5938	107.276	58.5938	102.498	58.5938	106.915	58.5938	102.382	58.5938	106.46	58.5938	102.327	58.5938	105.977	58.5938	102.33	58.5938	105.51	58.5938	102.389	58.5938	105.073	58.5938	102.498	58.5938	104.666	58.5938	102.652	58.5938	104.29	58.5938	102.846	58.5938	103.942	58.5938	103.075	58.5938	103.624	58.5938	103.335
60.0586	105.592	60.0586	105.137	60.0586	106.033	60.0586	104.683	60.0586	106.446	60.0586	104.24	60.0586	106.814	60.0586	103.819	60.0586	107.116	60.0586	103.43	60.0586	107.325	60.0586	103.084	60.0586	107.413	60.0586	102.786	60.0586	107.348	60.0586	102.545	60.0586	107.116	60.0586	102.364	60.0586	106.735	60.0586	102.245	60.0586	106.264	60.0586	102.189	60.0586	105.774	60.0586	102.192	60.0586	105.309	60.0586	102.252	60.0586	104.881	60.0586	102.363	60.0586	104.488	60.0586	102.519	60.0586	104.125	60.0586	102.714	60.0586	103.79	60.0586	102.941	60.0586	103.481	60.0586	103.198
62.2559	105.622	62.2559	105.167	62.2559	106.059	62.2559	104.709	62.2559	106.463	62.2559	104.259	62.2559	106.818	62.2559	103.829	62.2559	107.101	62.2559	103.43	62.2559	107.287	62.2559	103.072	62.2559	107.347	62.2559	102.764	62.2559	107.252	62.2559	102.514	62.2559	106.99	62.2559	102.326	62.2559	106.586	62.2559	102.204	62.2559	106.102	62.2559	102.147	62.2559	105.612	62.2559	102.152	62.2559	105.158	62.2559	102.216	62.2559	104.749	62.2559	102.332	62.2559	104.378	62.2559	102.493	62.2559	104.039	62.2559	102.689	62.2559	103.727	62.2559	102.916	62.2559	103.436	62.2559	103.166
64.4531	105.918	64.4531	105.458	64.4531	106.353	64.4531	104.986	64.4531	106.746	64.4531	104.514	64.4531	107.081	64.4531	104.054	64.4531	107.333	64.4531	103.618	64.4531	107.477	64.4531	103.217	64.4531	107.48	64.4531	102.861	64.4531	107.31	64.4531	102.56	64.4531	106.952	64.4531	102.321	64.4531	106.434	64.4531	102.149	64.4531	105.835	64.4531	102.048	64.4531	105.249	64.4531	102.014	64.4531	104.736	64.4531	102.045	64.4531	104.307	64.4531	102.132	64.4531	103.945	64.4531	102.266	64.4531	103.631	64.4531	102.438	64.4531	103.351	64.4531	102.637	64.4531	103.095	64.4531	102.858
66.6504	106.383	66.6504	105.942	66.6504	106.803	66.6504	105.491	66.6504	107.188	66.6504	105.04	66.6504	107.522	66.6504	104.597	66.6504	107.785	66.6504	104.171	66.6504	107.949	66.6504	103.77	66.6504	107.984	66.6504	103.399	66.6504	107.855	66.6504	103.066	66.6504	107.538	66.6504	102.777	66.6504	107.038	66.6504	102.534	66.6504	106.407	66.6504	102.344	66.6504	105.72	66.6504	102.207	66.6504	105.047	66.6504	102.124	66.6504	104.429	66.6504	102.096	66.6504	103.887	66.6504	102.12	66.6504	103.426	66.6504	102.195	66.6504	103.045	66.6504	102.321	66.6504	102.74	66.6504	102.501
69.5801	106.233	69.5801	105.797	69.5801	106.656	69.5801	105.361	69.5801	107.05	69.5801	104.937	69.5801	107.397	69.5801	104.536	69.5801	107.677	69.5801	104.167	69.5801	107.866	69.5801	103.837	69.5801	107.937	69.5801	103.554	69.5801	107.865	69.5801	103.32	69.5801	107.641	69.5801	103.139	69.5801	107.283	69.5801	103.01	69.5801	106.839	69.5801	102.934	69.5801	106.359	69.5801	102.908	69.5801	105.876	69.5801	102.93	69.5801	105.412	69.5801	102.996	69.5801	104.98	69.5801	103.105	69.5801	104.587	69.5801	103.253	69.5801	104.237	69.5801	103.44	69.5801	103.93	69.5801	103.665
71.7773	106.245	71.7773	105.797	71.7773	106.675	71.7773	105.346	71.7773	107.071	71.7773	104.906	71.7773	107.414	71.7773	104.49	71.7773	107.683	71.7773	104.108	71.7773	107.854	71.7773	103.77	71.7773	107.902	71.7773	103.484	71.7773	107.807	71.7773	103.253	71.7773	107.564	71.7773	103.082	71.7773	107.201	71.7773	102.971	71.7773	106.772	71.7773	102.917	71.7773	106.324	71.7773	102.917	71.7773	105.884	71.7773	102.968	71.7773	105.464	71.7773	103.064	71.7773	105.071	71.7773	103.2	71.7773	104.709	71.7773	103.373	71.7773	104.379	71.7773	103.578	71.7773	104.081	71.7773	103.815
73.9746	106.233	73.9746	105.771	73.9746	106.672	73.9746	105.303	73.9746	107.071	73.9746	104.843	73.9746	107.412	73.9746	104.405	73.9746	107.672	73.9746	104.003	73.9746	107.829	73.9746	103.646	73.9746	107.859	73.9746	103.345	73.9746	107.743	73.9746	103.105	73.9746	107.483	73.9746	102.929	73.9746	107.112	73.9746	102.819	73.9746	106.687	73.9746	102.772	73.9746	106.252	73.9746	102.784	73.9746	105.827	73.9746	102.85	73.9746	105.42	73.9746	102.964	73.9746	105.037	73.9746	103.118	73.9746	104.68	73.9746	103.308	73.9746	104.351	73.9746	103.529	73.9746	104.051	73.9746	103.777
76.9043	106.155	76.9043	105.683	76.9043	106.6	76.9043	105.2	76.9043	106.998	76.9043	104.722	76.9043	107.332	76.9043	104.264	76.9043	107.58	76.9043	103.842	76.9043	107.721	76.9043	103.469	76.9043	107.735	76.9043	103.154	76.9043	107.609	76.9043	102.906	76.9043	107.35	76.9043	102.727	76.9043	106.999	76.9043	102.62	76.9043	106.606	76.9043	102.58	76.9043	106.201	76.9043	102.604	76.9043	105.794	76.9043	102.684	76.9043	105.392	76.9043	102.814	76.9043	105.003	76.9043	102.985	76.9043	104.636	76.9043	103.192	76.9043	104.295	76.9043	103.429	76.9043	103.981	76.9043	103.692
79.834	106.146	79.834	105.676	79.834	106.581	79.834	105.188	79.834	106.961	79.834	104.7	79.834	107.269	79.834	104.228	79.834	107.483	79.834	103.79	79.834	107.582	79.834	103.4	79.834	107.551	79.834	103.069	79.834	107.382	79.834	102.806	79.834	107.098	79.834	102.617	79.834	106.75	79.834	102.5	79.834	106.391	79.834	102.454	79.834	106.035	79.834	102.474	79.834	105.665	79.834	102.551	79.834	105.282	79.834	102.679	79.834	104.896	79.834	102.85	79.834	104.525	79.834	103.057	79.834	104.177	79.834	103.296	79.834	103.856	79.834	103.562
82.7637	106.152	82.7637	105.684	82.7637	106.575	82.7637	105.191	82.7637	106.935	82.7637	104.694	82.7637	107.21	82.7637	104.21	82.7637	107.378	82.7637	103.759	82.7637	107.418	82.7637	103.358	82.7637	107.312	82.7637	103.02	82.7637	107.06	82.7637	102.754	82.7637	106.695	82.7637	102.565	82.7637	106.294	82.7637	102.45	82.7637	105.924	82.7637	102.405	82.7637	105.59	82.7637	102.423	82.7637	105.258	82.7637	102.493	82.7637	104.912	82.7637	102.607	82.7637	104.563	82.7637	102.757	82.7637	104.227	82.7637	102.937	82.7637	103.914	82.7637	103.143	82.7637	103.631	82.7637	103.374
85.6934	106.217	85.6934	105.729	85.6934	106.65	85.6934	105.206	85.6934	107.006	85.6934	104.67	85.6934	107.263	85.6934	104.144	85.6934	107.399	85.6934	103.65	85.6934	107.389	85.6934	103.211	85.6934	107.212	85.6934	102.846	85.6934	106.868	85.6934	102.566	85.6934	106.401	85.6934	102.378	85.6934	105.916	85.6934	102.278	85.6934	105.517	85.6934	102.258	85.6934	105.214	85.6934	102.305	85.6934	104.948	85.6934	102.404	85.6934	104.674	85.6934	102.542	85.6934	104.385	85.6934	102.709	85.6934	104.094	85.6934	102.895	85.6934	103.815	85.6934	103.099	85.6934	103.556	85.6934	103.318
88.623	106.488	88.623	105.981	88.623	106.929	88.623	105.429	88.623	107.285	88.623	104.853	88.623	107.535	88.623	104.276	88.623	107.654	88.623	103.722	88.623	107.619	88.623	103.218	88.623	107.409	88.623	102.792	88.623	107.026	88.623	102.464	88.623	106.518	88.623	102.251	88.623	106.004	88.623	102.156	88.623	105.617	88.623	102.173	88.623	105.393	88.623	102.287	88.623	105.256	88.623	102.479	88.623	105.126	88.623	102.726	88.623	104.96	88.623	103.009	88.623	104.749	88.623	103.312	88.623	104.5	88.623	103.621	88.623	104.223	88.623	103.928
91.5527	106.843	91.5527	106.345	91.5527	107.273	91.5527	105.796	91.5527	107.614	91.5527	105.215	91.5527	107.847	91.5527	104.624	91.5527	107.948	91.5527	104.047	91.5527	107.893	91.5527	103.509	91.5527	107.663	91.5527	103.039	91.5527	107.258	91.5527	102.664	91.5527	106.727	91.5527	102.405	91.5527	106.187	91.5527	102.276	91.5527	105.775	91.5527	102.278	91.5527	105.542	91.5527	102.399	91.5527	105.427	91.5527	102.619	91.5527	105.343	91.5527	102.911	91.5527	105.237	91.5527	103.25	91.5527	105.084	91.5527	103.61	91.5527	104.877	91.5527	103.969	91.5527	104.617	91.5527	104.31
94.4824	106.897	94.4824	106.412	94.4824	107.313	94.4824	105.874	94.4824	107.64	94.4824	105.301	94.4824	107.858	94.4824	104.711	94.4824	107.945	94.4824	104.125	94.4824	107.876	94.4824	103.566	94.4824	107.631	94.4824	103.058	94.4824	107.21	94.4824	102.628	94.4824	106.658	94.4824	102.3	94.4824	106.08	94.4824	102.094	94.4824	105.607	94.4824	102.018	94.4824	105.297	94.4824	102.07	94.4824	105.111	94.4824	102.236	94.4824	104.978	94.4824	102.493	94.4824	104.843	94.4824	102.814	94.4824	104.676	94.4824	103.17	94.4824	104.461	94.4824	103.533	94.4824	104.195	94.4824	103.881
98.1445	106.563	98.1445	106.085	98.1445	106.972	98.1445	105.557	98.1445	107.291	98.1445	104.997	98.1445	107.499	98.1445	104.427	98.1445	107.574	98.1445	103.868	98.1445	107.495	98.1445	103.341	98.1445	107.247	98.1445	102.871	98.1445	106.84	98.1445	102.479	98.1445	106.329	98.1445	102.184	98.1445	105.817	98.1445	101.999	98.1445	105.405	98.1445	101.93	98.1445	105.121	98.1445	101.972	98.1445	104.919	98.1445	102.114	98.1445	104.746	98.1445	102.337	98.1445	104.573	98.1445	102.619	98.1445	104.379	98.1445	102.937	98.1445	104.152	98.1445	103.267	98.1445	103.888	98.1445	103.589
101.807	106.456	101.807	105.969	101.807	106.859	101.807	105.418	101.807	107.157	101.807	104.826	101.807	107.328	101.807	104.213	101.807	107.349	101.807	103.605	101.807	107.196	101.807	103.03	101.807	106.856	101.807	102.516	101.807	106.346	101.807	102.092	101.807	105.739	101.807	101.78	101.807	105.173	101.807	101.598	101.807	104.77	101.807	101.548	101.807	104.544	101.807	101.622	101.807	104.419	101.807	101.802	101.807	104.322	101.807	102.063	101.807	104.214	101.807	102.377	101.807	104.074	101.807	102.717	101.807	103.89	101.807	103.056	101.807	103.656	101.807	103.375
105.469	106.625	105.469	106.148	105.469	107.009	105.469	105.595	105.469	107.279	105.469	104.985	105.469	107.412	105.469	104.338	105.469	107.381	105.469	103.675	105.469	107.156	105.469	103.02	105.469	106.713	105.469	102.402	105.469	106.048	105.469	101.851	105.469	105.215	105.469	101.396	105.469	104.351	105.469	101.063	105.469	103.633	105.469	100.866	105.469	103.156	105.469	100.806	105.469	102.881	105.469	100.869	105.469	102.726	105.469	101.029	105.469	102.623	105.469	101.255	105.469	102.526	105.469	101.515	105.469	102.403	105.469	101.781	105.469	102.237	105.469	102.027
109.131	106.286	109.131	105.852	109.131	106.633	109.131	105.347	109.131	106.872	109.131	104.791	109.131	106.981	109.131	104.201	109.131	106.935	109.131	103.597	109.131	106.71	109.131	103	109.131	106.291	109.131	102.435	109.131	105.687	109.131	101.925	109.131	104.953	109.131	101.496	109.131	104.199	109.131	101.169	109.131	103.548	109.131	100.958	109.131	103.06	109.131	100.866	109.131	102.721	109.131	100.884	109.131	102.491	109.131	100.994	109.131	102.336	109.131	101.168	109.131	102.219	109.131	101.377	109.131	102.104	109.131	101.593	109.131	101.967	109.131	101.795
112.793	106.222	112.793	105.793	112.793	106.56	112.793	105.295	112.793	106.784	112.793	104.749	112.793	106.871	112.793	104.175	112.793	106.796	112.793	103.597	112.793	106.537	112.793	103.036	112.793	106.088	112.793	102.516	112.793	105.475	112.793	102.061	112.793	104.784	112.793	101.693	112.793	104.151	112.793	101.43	112.793	103.695	112.793	101.283	112.793	103.442	112.793	101.256	112.793	103.323	112.793	101.34	112.793	103.259	112.793	101.519	112.793	103.204	112.793	101.766	112.793	103.13	112.793	102.052	112.793	103.014	112.793	102.345	112.793	102.844	112.793	102.616
116.455	105.882	116.455	105.378	116.455	106.287	116.455	104.801	116.455	106.569	116.455	104.174	116.455	106.701	116.455	103.526	116.455	106.658	116.455	102.883	116.455	106.416	116.455	102.276	116.455	105.967	116.455	101.734	116.455	105.337	116.455	101.284	116.455	104.619	116.455	100.946	116.455	103.962	116.455	100.734	116.455	103.492	116.455	100.65	116.455	103.224	116.455	100.686	116.455	103.083	116.455	100.826	116.455	102.99	116.455	101.047	116.455	102.902	116.455	101.324	116.455	102.795	116.455	101.628	116.455	102.65	116.455	101.933	116.455	102.458	116.455	102.215
120.85	106.513	120.85	105.965	120.85	106.941	120.85	105.32	120.85	107.227	120.85	104.6	120.85	107.345	120.85	103.832	120.85	107.27	120.85	103.045	120.85	106.974	120.85	102.273	120.85	106.442	120.85	101.555	120.85	105.694	120.85	100.931	120.85	104.821	120.85	100.44	120.85	103.993	120.85	100.111	120.85	103.372	120.85	99.9536	120.85	102.982	120.85	99.9573	120.85	102.735	120.85	100.096	120.85	102.55	120.85	100.332	120.85	102.391	120.85	100.63	120.85	102.232	120.85	100.953	120.85	102.05	120.85	101.274	120.85	101.832	120.85	101.571
125.244	107.251	125.244	106.721	125.244	107.668	125.244	106.098	125.244	107.949	125.244	105.402	125.244	108.072	125.244	104.657	125.244	108.01	125.244	103.89	125.244	107.734	125.244	103.131	125.244	107.226	125.244	102.419	125.244	106.496	125.244	101.795	125.244	105.627	125.244	101.304	125.244	104.798	125.244	100.981	125.244	104.228	125.244	100.849	125.244	103.991	125.244	100.903	125.244	103.959	125.244	101.119	125.244	103.981	125.244	101.458	125.244	103.979	125.244	101.874	125.244	103.913	125.244	102.323	125.244	103.759	125.244	102.767	125.244	103.509	125.244	103.171
129.639	107.134	129.639	106.601	129.639	107.551	129.639	105.97	129.639	107.83	129.639	105.26	129.639	107.949	129.639	104.489	129.639	107.878	129.639	103.681	129.639	107.589	129.639	102.865	129.639	107.054	129.639	102.077	129.639	106.275	129.639	101.365	129.639	105.323	129.639	100.787	129.639	104.391	129.639	100.403	129.639	103.763	129.639	100.257	129.639	103.584	129.639	100.363	129.639	103.708	129.639	100.694	129.639	103.912	129.639	101.193	129.639	104.079	129.639	101.789	129.639	104.152	129.639	102.411	129.639	104.09	129.639	102.997	129.639	103.87	129.639	103.497
134.033	107.217	134.033	106.702	134.033	107.628	134.033	106.099	134.033	107.917	134.033	105.422	134.033	108.061	134.033	104.684	134.033	108.03	134.033	103.899	134.033	107.792	134.033	103.08	134.033	107.306	134.033	102.248	134.033	106.536	134.033	101.425	134.033	105.475	134.033	100.649	134.033	104.19	134.033	99.9688	134.033	102.919	134.033	99.4509	134.033	102.065	134.033	99.1648	134.033	101.836	134.033	99.16	134.033	102.002	134.033	99.4365	134.033	102.252	134.033	99.9352	134.033	102.409	134.033	100.558	134.033	102.393	134.033	101.198	134.033	102.173	134.033	101.76
138.428	106.369	138.428	105.891	138.428	106.766	138.428	105.349	138.428	107.061	138.428	104.759	138.428	107.236	138.428	104.136	138.428	107.267	138.428	103.492	138.428	107.131	138.428	102.839	138.428	106.807	138.428	102.189	138.428	106.281	138.428	101.551	138.428	105.547	138.428	100.939	138.428	104.618	138.428	100.37	138.428	103.541	138.428	99.8669	138.428	102.448	138.428	99.4569	138.428	101.531	138.428	99.1721	138.428	100.913	138.428	99.039	138.428	100.57	138.428	99.0666	138.428	100.385	138.428	99.2355	138.428	100.236	138.428	99.4974	138.428	100.044	138.428	99.7868
143.555	105.656	143.555	105.133	143.555	106.066	143.555	104.523	143.555	106.337	143.555	103.854	143.555	106.447	143.555	103.157	143.555	106.379	143.555	102.46	143.555	106.124	143.555	101.789	143.555	105.691	143.555	101.168	143.555	105.115	143.555	100.611	143.555	104.448	143.555	100.129	143.555	103.723	143.555	99.7209	143.555	102.918	143.555	99.3847	143.555	102.023	143.555	99.1153	143.555	101.124	143.555	98.9099	143.555	100.366	143.555	98.7706	143.555	99.8352	143.555	98.7034	143.555	99.5039	143.555	98.7136	143.555	99.2841	143.555	98.7972	143.555	99.1028	143.555	98.9358
148.682	106.49	148.682	105.93	148.682	106.904	148.682	105.25	148.682	107.148	148.682	104.477	148.682	107.197	148.682	103.641	148.682	107.027	148.682	102.777	148.682	106.618	148.682	101.925	148.682	105.97	148.682	101.13	148.682	105.124	148.682	100.438	148.682	104.192	148.682	99.8913	148.682	103.337	148.682	99.5157	148.682	102.661	148.682	99.3148	148.682	102.137	148.682	99.2674	148.682	101.691	148.682	99.3354	148.682	101.288	148.682	99.4746	148.682	100.936	148.682	99.6453	148.682	100.652	148.682	99.8184	148.682	100.436	148.682	99.9784	148.682	100.269	148.682	100.124
153.809	107.396	153.809	106.875	153.809	107.765	153.809	106.223	153.809	107.961	153.809	105.462	153.809	107.959	153.809	104.617	153.809	107.737	153.809	103.71	153.809	107.272	153.809	102.772	153.809	106.556	153.809	101.837	153.809	105.62	153.809	100.953	153.809	104.566	153.809	100.182	153.809	103.575	153.809	99.5995	153.809	102.814	153.809	99.2782	153.809	102.349	153.809	99.2581	153.809	102.177	153.809	99.5221	153.809	102.249	153.809	99.9985	153.809	102.443	153.809	100.59	153.809	102.612	153.809	101.205	153.809	102.652	153.809	101.766	153.809	102.521	153.809	102.218
159.668	106.448	159.668	105.952	159.668	106.836	159.668	105.366	159.668	107.093	159.668	104.711	159.668	107.196	159.668	104.004	159.668	107.116	159.668	103.261	159.668	106.824	159.668	102.498	159.668	106.295	159.668	101.726	159.668	105.529	159.668	100.953	159.668	104.57	159.668	100.184	159.668	103.5	159.668	99.4224	159.668	102.374	159.668	98.676	159.668	101.186	159.668	97.9721	159.668	99.9767	159.668	97.3727	159.668	99.0131	159.668	96.9809	159.668	98.5949	159.668	96.9038	159.668	98.6106	159.668	97.1649	159.668	98.6764	159.668	97.6513	159.668	98.5432	159.668	98.1696
164.795	105.414	164.795	104.889	164.795	105.828	164.795	104.286	164.795	106.098	164.795	103.637	164.795	106.194	164.795	102.974	164.795	106.086	164.795	102.325	164.795	105.763	164.795	101.714	164.795	105.24	164.795	101.159	164.795	104.595	164.795	100.672	164.795	103.966	164.795	100.251	164.795	103.475	164.795	99.8888	164.795	103.098	164.795	99.5675	164.795	102.658	164.795	99.2677	164.795	101.99	164.795	98.9756	164.795	101.098	164.795	98.6941	164.795	100.183	164.795	98.4513	164.795	99.4594	164.795	98.2969	164.795	98.9736	164.795	98.2775	164.795	98.6398	164.795	98.4021
170.654	106.384	170.654	105.704	170.654	106.855	170.654	104.844	170.654	107.086	170.654	103.835	170.654	107.045	170.654	102.713	170.654	106.698	170.654	101.526	170.654	106.007	170.654	100.338	170.654	104.947	170.654	99.2426	170.654	103.56	170.654	98.3569	170.654	102.082	170.654	97.7897	170.654	101.006	170.654	97.5826	170.654	100.628	170.654	97.6738	170.654	100.596	170.654	97.9298	170.654	100.429	170.654	98.2082	170.654	99.9189	170.654	98.398	170.654	99.124	170.654	98.4321	170.654	98.2936	170.654	98.291	170.654	97.7196	170.654	98.0126	170.654	97.5464	170.654	97.7057
176.514	107.02	176.514	106.435	176.514	107.442	176.514	105.711	176.514	107.675	176.514	104.875	176.514	107.692	176.514	103.952	176.514	107.46	176.514	102.972	176.514	106.94	176.514	101.968	176.514	106.097	176.514	100.98	176.514	104.927	176.514	100.056	176.514	103.525	176.514	99.2494	176.514	102.186	176.514	98.624	176.514	101.31	176.514	98.239	176.514	100.978	176.514	98.1332	176.514	100.95	176.514	98.3029	176.514	101.063	176.514	98.6949	176.514	101.224	176.514	99.2212	176.514	101.316	176.514	99.7877	176.514	101.272	176.514	100.317	176.514	101.082	176.514	100.758
183.105	106.085	183.105	105.503	183.105	106.537	183.105	104.81	183.105	106.846	183.105	104.025	183.105	106.991	183.105	103.167	183.105	106.948	183.105	102.261	183.105	106.679	183.105	101.335	183.105	106.135	183.105	100.422	183.105	105.264	183.105	99.5592	183.105	104.052	183.105	98.7902	183.105	102.613	183.105	98.1522	183.105	101.257	183.105	97.6675	183.105	100.304	183.105	97.3386	183.105	99.7426	183.105	97.154	183.105	99.3917	183.105	97.1029	183.105	99.1771	183.105	97.1846	183.105	99.0289	183.105	97.4012	183.105	98.8331	183.105	97.736	183.105	98.528	183.105	98.1377
189.697	106.699	189.697	106.084	189.697	107.142	189.697	105.317	189.697	107.391	189.697	104.417	189.697	107.421	189.697	103.407	189.697	107.2	189.697	102.313	189.697	106.696	189.697	101.176	189.697	105.884	189.697	100.065	189.697	104.788	189.697	99.0841	189.697	103.535	189.697	98.3702	189.697	102.384	189.697	98.0351	189.697	101.599	189.697	98.0918	189.697	101.211	189.697	98.4407	189.697	101.077	189.697	98.9381	189.697	101.103	189.697	99.4661	189.697	101.216	189.697	99.9555	189.697	101.314	189.697	100.378	189.697	101.32	189.697	100.729	189.697	101.213	189.697	101.01
196.289	107.326	196.289	106.783	196.289	107.739	196.289	106.12	196.289	108.002	196.289	105.348	196.289	108.094	196.289	104.474	196.289	107.983	196.289	103.499	196.289	107.628	196.289	102.427	196.289	106.984	196.289	101.259	196.289	106.015	196.289	100.006	196.289	104.711	196.289	98.7019	196.289	103.139	196.289	97.4421	196.289	101.518	196.289	96.4237	196.289	100.195	196.289	95.9336	196.289	99.4577	196.289	96.1584	196.289	99.5084	196.289	96.981	196.289	100.206	196.289	98.0967	196.289	100.992	196.289	99.2417	196.289	101.443	196.289	100.251	196.289	101.438	196.289	101.013
202.881	105.86	202.881	105.291	202.881	106.303	202.881	104.629	202.881	106.586	202.881	103.905	202.881	106.679	202.881	103.142	202.881	106.559	202.881	102.354	202.881	106.218	202.881	101.552	202.881	105.668	202.881	100.743	202.881	104.948	202.881	99.9425	202.881	104.122	202.881	99.1783	202.881	103.272	202.881	98.4978	202.881	102.494	202.881	97.9634	202.881	101.819	202.881	97.6333	202.881	101.14	202.881	97.5323	202.881	100.397	202.881	97.6343	202.881	99.7403	202.881	97.8766	202.881	99.3397	202.881	98.1885	202.881	99.1483	202.881	98.5096	202.881	98.9998	202.881	98.791
210.205	106.376	210.205	105.747	210.205	106.797	210.205	104.947	210.205	106.978	210.205	104.017	210.205	106.899	210.205	103	210.205	106.55	210.205	101.936	210.205	105.947	210.205	100.862	210.205	105.145	210.205	99.8137	210.205	104.27	210.205	98.8302	210.205	103.484	210.205	97.9655	210.205	102.86	210.205	97.2981	210.205	102.326	210.205	96.9225	210.205	101.794	210.205	96.9072	210.205	101.255	210.205	97.2398	210.205	100.823	210.205	97.8211	210.205	100.671	210.205	98.5191	210.205	100.738	210.205	99.2213	210.205	100.788	210.205	99.8492	210.205	100.668	210.205	100.346
217.529	107.084	217.529	106.528	217.529	107.445	217.529	105.806	217.529	107.575	217.529	104.948	217.529	107.441	217.529	103.977	217.529	107.002	217.529	102.911	217.529	106.216	217.529	101.758	217.529	105.063	217.529	100.521	217.529	103.622	217.529	99.2069	217.529	102.199	217.529	97.8331	217.529	101.194	217.529	96.4534	217.529	100.502	217.529	95.1744	217.529	99.498	217.529	94.1419	217.529	97.7138	217.529	93.4605	217.529	95.2438	217.529	93.1158	217.529	93.4124	217.529	93.0282	217.529	93.5778	217.529	93.174	217.529	94.3018	217.529	93.5719	217.529	94.4705	217.529	94.1096
225.586	105.301	225.586	104.68	225.586	105.789	225.586	103.961	225.586	106.107	225.586	103.176	225.586	106.214	225.586	102.35	225.586	106.061	225.586	101.5	225.586	105.591	225.586	100.641	225.586	104.756	225.586	99.7882	225.586	103.569	225.586	98.9677	225.586	102.24	225.586	98.2205	225.586	101.298	225.586	97.602	225.586	101.17	225.586	97.1659	225.586	101.504	225.586	96.9398	225.586	101.696	225.586	96.9131	225.586	101.499	225.586	97.0492	225.586	100.96	225.586	97.3072	225.586	100.261	225.586	97.6531	225.586	99.5817	225.586	98.059	225.586	99.0026	225.586	98.5067
232.91	105.164	232.91	104.472	232.91	105.71	232.91	103.681	232.91	106.068	232.91	102.836	232.91	106.193	232.91	101.975	232.91	106.033	232.91	101.121	232.91	105.525	232.91	100.281	232.91	104.6	232.91	99.4544	232.91	103.224	232.91	98.6493	232.91	101.529	232.91	97.9073	232.91	100.077	232.91	97.3245	232.91	99.6754	232.91	97.043	232.91	100.185	232.91	97.1768	232.91	100.91	232.91	97.7137	232.91	101.579	232.91	98.5153	232.91	102.115	232.91	99.4156	232.91	102.433	232.91	100.296	232.91	102.472	232.91	101.088	232.91	102.229	232.91	101.749
241.699	108.849	241.699	108.21	241.699	109.25	241.699	107.363	241.699	109.385	241.699	106.341	241.699	109.231	241.699	105.178	241.699	108.759	241.699	103.903	241.699	107.938	241.699	102.538	241.699	106.727	241.699	101.092	241.699	105.07	241.699	99.5687	241.699	102.906	241.699	97.9802	241.699	100.42	241.699	96.4095	241.699	98.9048	241.699	95.1221	241.699	99.4064	241.699	94.6028	241.699	100.382	241.699	95.1455	241.699	101.255	241.699	96.4425	241.699	102.275	241.699	98.0156	241.699	103.136	241.699	99.5995	241.699	103.453	241.699	101.067	241.699	103.142	241.699	102.297
249.756	106.583	249.756	105.881	249.756	107.1	249.756	105.056	249.756	107.376	249.756	104.165	249.756	107.358	249.756	103.256	249.756	106.997	249.756	102.362	249.756	106.256	249.756	101.49	249.756	105.123	249.756	100.624	249.756	103.639	249.756	99.7346	249.756	101.971	249.756	98.7901	249.756	100.478	249.756	97.7726	249.756	99.5063	249.756	96.6871	249.756	98.7354	249.756	95.5547	249.756	97.0784	249.756	94.3745	249.756	93.6306	249.756	93.0883	249.756	91.3439	249.756	91.7042	249.756	94.1099	249.756	90.866	249.756	95.8433	249.756	91.8726	249.756	95.6557	249.756	94.0467
258.545	106.669	258.545	105.81	258.545	107.356	258.545	104.818	258.545	107.835	258.545	103.735	258.545	108.083	258.545	102.597	258.545	108.086	258.545	101.429	258.545	107.825	258.545	100.252	258.545	107.25	258.545	99.0935	258.545	106.255	258.545	98.0089	258.545	104.677	258.545	97.1058	258.545	102.431	258.545	96.5499	258.545	100.183	258.545	96.5004	258.545	99.6886	258.545	96.9752	258.545	100.435	258.545	97.7983	258.545	100.789	258.545	98.7064	258.545	100.539	258.545	99.4743	258.545	100.081	258.545	99.9623	258.545	99.8037	258.545	100.125	258.545	99.8354	258.545	100.024
268.066	107.834	268.066	107.073	268.066	108.416	268.066	106.184	268.066	108.775	268.066	105.213	268.066	108.876	268.066	104.194	268.066	108.685	268.066	103.139	268.066	108.159	268.066	102.036	268.066	107.238	268.066	100.85	268.066	105.862	268.066	99.5227	268.066	104.039	268.066	97.9684	268.066	102.04	268.066	96.0705	268.066	100.641	268.066	93.7083	268.066	100.175	268.066	91.025	268.066	99.6548	268.066	89.5601	268.066	98.4123	268.066	91.1553	268.066	97.1265	268.066	93.7548	268.066	97.1083	268.066	95.8502	268.066	97.8489	268.066	97.2702	268.066	98.2648	268.066	98.0702
277.588	105.42	277.588	104.779	277.588	105.992	277.588	104.134	277.588	106.444	277.588	103.544	277.588	106.743	277.588	103.051	277.588	106.864	277.588	102.651	277.588	106.766	277.588	102.301	277.588	106.359	277.588	101.926	277.588	105.493	277.588	101.452	277.588	103.976	277.588	100.815	277.588	101.737	277.588	99.9765	277.588	99.7303	277.588	98.9173	277.588	99.9328	277.588	97.6531	277.588	101.114	277.588	96.2722	277.588	101.623	277.588	95.0355	277.588	101.309	277.588	94.4571	277.588	100.5	277.588	94.9237	277.588	99.5544	277.588	96.1144	277.588	98.5676	277.588	97.4277
287.109	103.962	287.109	103.198	287.109	104.499	287.109	102.202	287.109	104.867	287.109	101.061	287.109	105.161	287.109	99.9848	287.109	105.473	287.109	99.2708	287.109	105.837	287.109	99.0872	287.109	106.179	287.109	99.2883	287.109	106.295	287.109	99.5699	287.109	105.875	287.109	99.698	287.109	104.535	287.109	99.5596	287.109	101.907	287.109	99.138	287.109	98.6587	287.109	98.5097	287.109	98.9599	287.109	97.879	287.109	101.352	287.109	97.585	287.109	102.646	287.109	97.9163	287.109	102.89	287.109	98.8192	287.109	102.559	287.109	99.9633	287.109	101.925	287.109	101.048
297.363	108.978	297.363	108.396	297.363	109.217	297.363	107.507	297.363	109.088	297.363	106.355	297.363	108.593	297.363	104.983	297.363	107.771	297.363	103.441	297.363	106.742	297.363	101.809	297.363	105.793	297.363	100.217	297.363	105.215	297.363	98.8375	297.363	104.831	297.363	97.805	297.363	104.089	297.363	97.1305	297.363	102.767	297.363	96.705	297.363	101.098	297.363	96.3604	297.363	99.3633	297.363	95.8899	297.363	99.5387	297.363	95.1257	297.363	101.993	297.363	94.4293	297.363	103.745	297.363	95.4344	297.363	104.112	297.363	98.3737	297.363	103.244	297.363	101.271
307.617	108.851	307.617	108.295	307.617	109.179	307.617	107.526	307.617	109.261	307.617	106.559	307.617	109.061	307.617	105.408	307.617	108.507	307.617	104.097	307.617	107.488	307.617	102.676	307.617	105.955	307.617	101.231	307.617	104.187	307.617	99.8809	307.617	102.883	307.617	98.7419	307.617	102.202	307.617	97.8825	307.617	101.477	307.617	97.3047	307.617	100.377	307.617	96.9528	307.617	98.1857	307.617	96.679	307.617	92.853	307.617	96.1611	307.617	92.3523	307.617	94.8329	307.617	97.6538	307.617	91.8217	307.617	99.017	307.617	88.4037	307.617	97.5169	307.617	93.2595
318.604	107.358	318.604	106.904	318.604	107.614	318.604	106.247	318.604	107.682	318.604	105.387	318.604	107.557	318.604	104.335	318.604	107.197	318.604	103.106	318.604	106.535	318.604	101.736	318.604	105.567	318.604	100.296	318.604	104.445	318.604	98.9026	318.604	103.334	318.604	97.7079	318.604	102.069	318.604	96.8329	318.604	100.642	318.604	96.2848	318.604	100.345	318.604	95.9706	318.604	101.073	318.604	95.7952	318.604	100.931	318.604	95.7045	318.604	99.4571	318.604	95.6275	318.604	97.2577	318.604	95.437	318.604	95.437	318.604	95.0558	318.604	94.6284	318.604	94.6462
329.59	107.153	329.59	106.579	329.59	107.612	329.59	105.933	329.59	107.879	329.59	105.219	329.59	107.856	329.59	104.408	329.59	107.414	329.59	103.459	329.59	106.386	329.59	102.332	329.59	104.625	329.59	101.003	329.59	102.317	329.59	99.4843	329.59	100.694	329.59	97.8624	329.59	100.733	329.59	96.3788	329.59	100.873	329.59	95.4594	329.59	100.202	329.59	95.4228	329.59	99.008	329.59	96.0425	329.59	97.4564	329.59	96.7419	329.59	96.182	329.59	97.0073	329.59	95.5187	329.59	96.4503	329.59	94.2303	329.59	94.7909	329.59	92.2125	329.59	92.4349
341.309	105.614	341.309	105.17	341.309	105.979	341.309	104.582	341.309	106.349	341.309	103.856	341.309	106.755	341.309	103.068	341.309	107.11	341.309	102.32	341.309	107.218	341.309	101.659	341.309	106.843	341.309	101.023	341.309	105.754	341.309	100.267	341.309	103.679	341.309	99.2284	341.309	100.178	341.309	97.7689	341.309	95.4805	341.309	95.8443	341.309	96.0044	341.309	93.8247	341.309	98.2755	341.309	93.1243	341.309	97.9146	341.309	94.5595	341.309	95.4178	341.309	96.5422	341.309	92.9047	341.309	97.8881	341.309	93.3085	341.309	98.2057	341.309	95.4537	341.309	97.3528
353.76	107.647	353.76	106.764	353.76	108.338	353.76	105.711	353.76	108.799	353.76	104.513	353.76	108.961	353.76	103.232	353.76	108.714	353.76	101.979	353.76	107.926	353.76	100.892	353.76	106.516	353.76	100.044	353.76	104.618	353.76	99.3769	353.76	102.651	353.76	98.7274	353.76	100.995	353.76	97.9665	353.76	99.9305	353.76	97.1618	353.76	99.6296	353.76	96.7209	353.76	99.4985	353.76	97.0857	353.76	99.3463	353.76	97.9866	353.76	99.3534	353.76	98.727	353.76	99.2677	353.76	98.903	353.76	98.8525	353.76	98.5474	353.76	98.2934	353.76	98.1466
366.211	107.979	366.211	107.796	366.211	107.795	366.211	107.215	366.211	107.39	366.211	106.296	366.211	107.008	366.211	105.156	366.211	106.835	366.211	103.955	366.211	106.838	366.211	102.843	366.211	106.796	366.211	101.871	366.211	106.411	366.211	100.938	366.211	105.334	366.211	99.842	366.211	103.086	366.211	98.3724	366.211	98.9192	366.211	96.415	366.211	93.8103	366.211	94.3297	366.211	94.3735	366.211	93.7533	366.211	93.807	366.211	95.485	366.211	92.0602	366.211	97.6776	366.211	95.4949	366.211	99.319	366.211	98.6138	366.211	100.271	366.211	100.102	366.211	100.552
378.662	107.58	378.662	107.093	378.662	107.986	378.662	106.445	378.662	108.33	378.662	105.557	378.662	108.499	378.662	104.394	378.662	108.269	378.662	103.002	378.662	107.445	378.662	101.535	378.662	106.061	378.662	100.244	378.662	104.503	378.662	99.3197	378.662	103.199	378.662	98.6936	378.662	102.124	378.662	98.1027	378.662	101.21	378.662	97.3177	378.662	100.527	378.662	96.2539	378.662	100.445	378.662	94.9633	378.662	100.756	378.662	93.6489	378.662	99.9045	378.662	92.8173	378.662	97.3474	378.662	93.0249	378.662	94.5316	378.662	93.81	378.662	93.9226	378.662	94.1859
392.578	107.626	392.578	107.052	392.578	108.061	392.578	106.341	392.578	108.326	392.578	105.466	392.578	108.382	392.578	104.411	392.578	108.159	392.578	103.204	392.578	107.53	392.578	101.925	392.578	106.41	392.578	100.658	392.578	104.988	392.578	99.4135	392.578	103.647	392.578	98.0943	392.578	101.969	392.578	96.552	392.578	98.2211	392.578	94.7174	392.578	90.4789	392.578	93.0286	392.578	93.6866	392.578	93.0095	392.578	97.3597	392.578	94.8915	392.578	99.0385	392.578	96.7378	392.578	99.8475	392.578	97.4958	392.578	99.456	392.578	97.0583	392.578	97.8529	392.578	96.5759
405.762	106.383	405.762	106.237	405.762	106.355	405.762	105.841	405.762	106.279	405.762	105.15	405.762	106.271	405.762	104.172	405.762	106.181	405.762	103.01	405.762	105.579	405.762	101.894	405.762	104.322	405.762	101.084	405.762	103.441	405.762	100.648	405.762	103.878	405.762	100.377	405.762	104.02	405.762	99.9408	405.762	102.495	405.762	99.0217	405.762	99.2696	405.762	97.3668	405.762	98.0806	405.762	95.1004	405.762	98.4796	405.762	93.8622	405.762	94.7427	405.762	94.8379	405.762	81.0326	405.762	95.4878	405.762	88.304	405.762	94.1195	405.762	89.4437	405.762	90.627
420.41	107.47	420.41	106.984	420.41	107.842	420.41	106.213	420.41	108.222	420.41	105.028	420.41	108.542	420.41	103.379	420.41	108.467	420.41	101.339	420.41	107.542	420.41	99.2033	420.41	105.448	420.41	97.5571	420.41	102.755	420.41	96.8682	420.41	101.839	420.41	96.8816	420.41	102.122	420.41	97.0191	420.41	100.873	420.41	96.8988	420.41	98.6995	420.41	96.2806	420.41	99.1344	420.41	94.9754	420.41	100.63	420.41	93.288	420.41	101.203	420.41	93.2907	420.41	100.769	420.41	95.5813	420.41	100.091	420.41	97.6942	420.41	99.5727	420.41	98.923
435.059	104.833	435.059	105.145	435.059	104.555	435.059	105.071	435.059	104.789	435.059	104.415	435.059	105.559	435.059	103.151	435.059	106.235	435.059	101.358	435.059	105.996	435.059	99.2579	435.059	104.166	435.059	97.3071	435.059	100.557	435.059	96.0589	435.059	99.0804	435.059	95.6356	435.059	101.261	435.059	95.7587	435.059	101.512	435.059	96.1757	435.059	99.9189	435.059	96.5801	435.059	98.0055	435.059	96.5569	435.059	95.577	435.059	95.9531	435.059	91.3884	435.059	95.4416	435.059	88.2457	435.059	95.7329	435.059	90.087	435.059	95.6112	435.059	91.0258	435.059	93.7131
450.439	103.179	450.439	103.549	450.439	103.117	450.439	103.756	450.439	103.795	450.439	103.567	450.439	105.038	450.439	102.902	450.439	106.163	450.439	101.725	450.439	106.521	450.439	100.011	450.439	105.677	450.439	97.8269	450.439	103.306	450.439	95.5351	450.439	99.1855	450.439	93.856	450.439	95.3163	450.439	92.984	450.439	93.909	450.439	92.1257	450.439	90.993	450.439	90.7854	450.439	94.0239	450.439	89.7707	450.439	96.6955	450.439	89.8844	450.439	94.6339	450.439	89.3441	450.439	91.5246	450.439	86.4188	450.439	94.0993	450.439	87.0072	450.439	94.7379	450.439	92.3027
466.553	103.832	466.553	104.567	466.553	103.244	466.553	104.881	466.553	103.492	466.553	104.574	466.553	104.518	466.553	103.637	466.553	105.473	466.553	102.109	466.553	105.624	466.553	100.051	466.553	104.637	466.553	97.6371	466.553	102.372	466.553	95.2662	466.553	99.2887	466.553	93.4798	466.553	97.4933	466.553	92.5397	466.553	96.7162	466.553	92.2746	466.553	93.497	466.553	92.157	466.553	87.4877	466.553	91.4491	466.553	86.5632	466.553	90.5799	466.553	80.8966	466.553	92.4139	466.553	82.6577	466.553	95.0157	466.553	83.1212	466.553	95.3429	466.553	79.1693	466.553	91.9611
482.666	105.474	482.666	105.095	482.666	105.758	482.666	104.468	482.666	106.024	482.666	103.474	482.666	106.173	482.666	102.08	482.666	105.966	482.666	100.352	482.666	105.158	482.666	98.4378	482.666	103.509	482.666	96.4972	482.666	100.815	482.666	94.5683	482.666	97.8742	482.666	92.4772	482.666	96.6964	482.666	90.0137	482.666	97.3011	482.666	88.1108	482.666	99.0857	482.666	89.5482	482.666	98.8869	482.666	92.4024	482.666	97.0572	482.666	94.135	482.666	95.7008	482.666	94.2536	482.666	93.8578	482.666	92.8801	482.666	92.1345	482.666	91.421	482.666	91.8647	482.666	91.6097
500.244	103.01	500.244	103.595	500.244	103.103	500.244	104.206	500.244	104.111	500.244	104.453	500.244	105.396	500.244	104.101	500.244	106.379	500.244	102.971	500.244	106.887	500.244	101.063	500.244	106.728	500.244	98.9646	500.244	105.4	500.244	97.7062	500.244	102.122	500.244	96.9585	500.244	96.1076	500.244	95.4436	500.244	90.4052	500.244	92.29	500.244	87.0614	500.244	88.3884	500.244	78.156	500.244	91.0219	500.244	88.5682	500.244	94.4899	500.244	90.925	500.244	95.5498	500.244	90.9736	500.244	94.0738	500.244	90.3409	500.244	88.8566	500.244	87.1022	500.244	75.0224
517.822	106.219	517.822	106.237	517.822	106.359	517.822	106.239	517.822	106.606	517.822	105.92	517.822	106.81	517.822	105.006	517.822	106.836	517.822	103.303	517.822	106.611	517.822	100.685	517.822	106.081	517.822	97.1488	517.822	104.891	517.822	93.5281	517.822	102.235	517.822	92.6426	517.822	97.5403	517.822	93.9253	517.822	94.3973	517.822	94.5126	517.822	93.8653	517.822	93.348	517.822	88.3842	517.822	89.9581	517.822	80.9408	517.822	89.8865	517.822	92.489	517.822	94.5683	517.822	95.3867	517.822	96.8579	517.822	95.5139	517.822	96.744	517.822	94.4963	517.822	95.0939
536.133	104.725	536.133	104.471	536.133	105.175	536.133	104.347	536.133	105.758	536.133	104.228	536.133	106.265	536.133	103.933	536.133	106.438	536.133	103.137	536.133	106.169	536.133	101.393	536.133	105.537	536.133	98.2789	536.133	104.287	536.133	93.7647	536.133	101.762	536.133	89.8156	536.133	98.9269	536.133	89.0083	536.133	97.6931	536.133	88.808	536.133	94.4028	536.133	89.1426	536.133	89.2402	536.133	90.802	536.133	88.8533	536.133	91.7439	536.133	85.0798	536.133	90.6904	536.133	88.3159	536.133	88.286	536.133	89.9749	536.133	88.4409	536.133	89.4958	536.133	89.5477
554.443	106.481	554.443	106.181	554.443	106.703	554.443	105.599	554.443	106.918	554.443	104.545	554.443	107.02	554.443	102.998	554.443	106.821	554.443	101.219	554.443	106.182	554.443	99.6643	554.443	105.11	554.443	98.4467	554.443	103.321	554.443	97.1349	554.443	99.9423	554.443	95.2889	554.443	96.7736	554.443	92.8357	554.443	96.5036	554.443	90.4132	554.443	93.6057	554.443	89.3083	554.443	93.3945	554.443	89.3175	554.443	94.1103	554.443	89.1939	554.443	91.1773	554.443	89.0513	554.443	92.7665	554.443	89.9307	554.443	94.1872	554.443	91.3158	554.443	93.3105	554.443	92.2635
574.219	106.699	574.219	106.243	574.219	106.926	574.219	105.547	574.219	106.854	574.219	104.393	574.219	106.514	574.219	102.521	574.219	106.032	574.219	100.062	574.219	105.544	574.219	97.9075	574.219	105.098	574.219	96.6927	574.219	104.052	574.219	95.6177	574.219	100.997	574.219	94.0115	574.219	95.7762	574.219	92.5883	574.219	94.9043	574.219	92.5926	574.219	92.8526	574.219	92.8797	574.219	86.5531	574.219	92.2212	574.219	90.2388	574.219	91.4824	574.219	91.1884	574.219	92.2187	574.219	91.0136	574.219	92.951	574.219	91.3373	574.219	92.1871	574.219	90.6298	574.219	90.5456
594.727	106.154	594.727	105.488	594.727	106.571	594.727	104.719	594.727	106.514	594.727	103.694	594.727	105.911	594.727	102.014	594.727	104.95	594.727	99.3268	594.727	104.009	594.727	95.9808	594.727	103.522	594.727	93.9416	594.727	103.105	594.727	93.5207	594.727	101.26	594.727	92.4157	594.727	97.1327	594.727	90.4588	594.727	91.8446	594.727	91.0356	594.727	88.318	594.727	92.7026	594.727	86.5147	594.727	92.4069	594.727	76.3433	594.727	90.9339	594.727	84.3574	594.727	91.4673	594.727	85.811	594.727	91.9311	594.727	81.7482	594.727	88.9942	594.727	76.7598	594.727	79.1817
615.234	107.415	615.234	106.6	615.234	107.596	615.234	105.315	615.234	107.134	615.234	103.81	615.234	106.287	615.234	102.183	615.234	105.682	615.234	100.202	615.234	105.529	615.234	97.5329	615.234	105.187	615.234	94.0432	615.234	104.144	615.234	89.7845	615.234	101.682	615.234	86.7003	615.234	97.982	615.234	89.3276	615.234	95.5643	615.234	92.193	615.234	90.3263	615.234	93.2535	615.234	88.9282	615.234	92.947	615.234	91.8119	615.234	92.2031	615.234	92.894	615.234	91.8088	615.234	94.4747	615.234	91.5379	615.234	95.4192	615.234	91.3989	615.234	94.6961	615.234	92.6448
637.207	108.941	637.207	107.541	637.207	109.051	637.207	105.098	637.207	107.924	637.207	102.391	637.207	105.981	637.207	100.441	637.207	104.429	637.207	99.3113	637.207	104.383	637.207	98.4209	637.207	105.093	637.207	97.4573	637.207	105.173	637.207	96.8364	637.207	103.063	637.207	96.4371	637.207	98.8371	637.207	94.7338	637.207	97.3609	637.207	90.7937	637.207	93.3234	637.207	89.2608	637.207	89.6633	637.207	91.7201	637.207	86.4588	637.207	92.1984	637.207	87.188	637.207	91.369	637.207	92.3753	637.207	90.3028	637.207	93.1508	637.207	89.8248	637.207	92.8885	637.207	91.5338
659.912	108.105	659.912	106.782	659.912	107.994	659.912	104.015	659.912	106.523	659.912	100.094	659.912	104.156	659.912	97.0386	659.912	102.811	659.912	96.3996	659.912	103.552	659.912	95.9688	659.912	104.526	659.912	95.0238	659.912	104.942	659.912	94.9645	659.912	103.605	659.912	95.6548	659.912	100.009	659.912	94.4772	659.912	95.2944	659.912	92.1033	659.912	90.962	659.912	92.5608	659.912	88.2424	659.912	92.2541	659.912	79.7315	659.912	86.6164	659.912	84.485	659.912	84.878	659.912	78.668	659.912	89.943	659.912	81.8549	659.912	87.0799	659.912	80.867	659.912	77.863
683.35	108.248	683.35	106.535	683.35	108.205	683.35	103.194	683.35	106.375	683.35	99.1742	683.35	103.049	683.35	96.9298	683.35	101.623	683.35	96.5541	683.35	103.72	683.35	96.3594	683.35	104.66	683.35	95.9385	683.35	103.715	683.35	95.625	683.35	100.973	683.35	95.741	683.35	97.828	683.35	95.8507	683.35	98.2112	683.35	95.4473	683.35	96.8754	683.35	94.467	683.35	91.5353	683.35	93.3604	683.35	89.171	683.35	92.5917	683.35	90.6423	683.35	91.1148	683.35	89.5602	683.35	87.732	683.35	93.939	683.35	85.3786	683.35	92.6774	683.35	88.1658
706.787	108.037	706.787	105.738	706.787	107.928	706.787	100.707	706.787	105.438	706.787	92.9771	706.787	100.664	706.787	91.887	706.787	99.1731	706.787	95.4198	706.787	102.846	706.787	97.5089	706.787	104.991	706.787	97.5214	706.787	105.384	706.787	94.764	706.787	103.167	706.787	90.5513	706.787	96.722	706.787	91.4392	706.787	92.1863	706.787	92.8517	706.787	94.1581	706.787	93.527	706.787	92.6683	706.787	94.1644	706.787	83.1924	706.787	92.5709	706.787	80.3395	706.787	87.7382	706.787	79.9694	706.787	83.6418	706.787	91.5854	706.787	65.771	706.787	93.8073	706.787	89.9726
731.689	108.304	731.689	105.826	731.689	108.316	731.689	100.53	731.689	105.604	731.689	91.194	731.689	99.2185	731.689	91.8516	731.689	98.0137	731.689	95.5271	731.689	102.831	731.689	96.6949	731.689	104.282	731.689	97.307	731.689	104.017	731.689	96.6222	731.689	102.357	731.689	94.2447	731.689	98.1267	731.689	92.444	731.689	92.3139	731.689	91.9169	731.689	91.8627	731.689	91.5054	731.689	88.6398	731.689	93.9416	731.689	79.3557	731.689	94.2114	731.689	75.6578	731.689	88.176	731.689	81.9252	731.689	78.5919	731.689	83.5424	731.689	82.0084	731.689	88.3472	731.689	85.6213
758.057	107.455	758.057	104.969	758.057	107.098	758.057	98.6815	758.057	103.784	758.057	78.8086	758.057	95.5734	758.057	91.7411	758.057	98.602	758.057	96.7345	758.057	104.398	758.057	98.8932	758.057	105.643	758.057	99.4711	758.057	104.21	758.057	98.5181	758.057	102.126	758.057	96.3281	758.057	100.913	758.057	94.3945	758.057	97.1437	758.057	93.4753	758.057	90.5271	758.057	91.1686	758.057	87.5044	758.057	87.8625	758.057	87.6558	758.057	91.6427	758.057	78.1318	758.057	92.3756	758.057	86.5481	758.057	86.136	758.057	81.6378	758.057	77.8903	758.057	65.5645	758.057	83.6936
784.424	107.905	784.424	104.834	784.424	107.866	784.424	98.2285	784.424	103.865	784.424	81.7042	784.424	90.6761	784.424	95.8536	784.424	97.738	784.424	99.145	784.424	102.443	784.424	98.6312	784.424	104.023	784.424	96.3156	784.424	103.781	784.424	94.4368	784.424	101.004	784.424	93.4464	784.424	96.1591	784.424	92.1851	784.424	97.1936	784.424	93.5274	784.424	95.8189	784.424	95.7006	784.424	92.9689	784.424	94.9359	784.424	88.4195	784.424	90.3515	784.424	87.53	784.424	85.417	784.424	81.1373	784.424	82.7899	784.424	91.1722	784.424	79.5053	784.424	92.9726	784.424	90.8951
812.256	107.556	812.256	104.465	812.256	107.677	812.256	98.1865	812.256	104.008	812.256	92.0542	812.256	89.0275	812.256	97.9123	812.256	99.3294	812.256	100.594	812.256	104.293	812.256	100.682	812.256	105	812.256	99.1089	812.256	103.512	812.256	96.8628	812.256	100.344	812.256	95.4445	812.256	95.3461	812.256	94.8848	812.256	91.2314	812.256	93.6774	812.256	94.1386	812.256	92.9615	812.256	92.5562	812.256	93.6639	812.256	74.9967	812.256	93.7182	812.256	82.8163	812.256	91.3557	812.256	81.725	812.256	83.8713	812.256	89.1824	812.256	78.604	812.256	88.163	812.256	83.2378
840.82	107.919	840.82	104.789	840.82	107.987	840.82	98.7247	840.82	104.092	840.82	96.2538	840.82	89.0904	840.82	99.7908	840.82	98.6491	840.82	100.483	840.82	103.738	840.82	99.7661	840.82	104.993	840.82	98.9764	840.82	103.773	840.82	97.6041	840.82	100.94	840.82	95.5021	840.82	96.3402	840.82	95.0136	840.82	91.1992	840.82	95.2702	840.82	91.2291	840.82	94.8327	840.82	88.8318	840.82	93.5819	840.82	83.2361	840.82	88.325	840.82	77.3596	840.82	88.9794	840.82	82.0066	840.82	91.0138	840.82	83.892	840.82	82.98	840.82	90.6871	840.82	90.4987
870.85	108.375	870.85	105.328	870.85	108.746	870.85	100.999	870.85	105.074	870.85	99.8441	870.85	91.8309	870.85	101.908	870.85	100.328	870.85	101.92	870.85	104.377	870.85	100.923	870.85	104.825	870.85	100.849	870.85	103.154	870.85	100.707	870.85	101.065	870.85	99.0694	870.85	99.1105	870.85	95.1086	870.85	95.749	870.85	88.3195	870.85	92.38	870.85	92.1196	870.85	93.0203	870.85	94.5765	870.85	77.3495	870.85	93.7626	870.85	67.4498	870.85	90.3404	870.85	86.9088	870.85	86.8601	870.85	88.01	870.85	85.4562	870.85	91.5893	870.85	89.968
901.611	108.194	901.611	105.909	901.611	108.249	901.611	101.902	901.611	104.77	901.611	101.389	901.611	97.0475	901.611	103.702	901.611	99.9794	901.611	103.9	901.611	103.172	901.611	102.626	901.611	104.985	901.611	100.413	901.611	104.931	901.611	98.2671	901.611	102.193	901.611	96.3359	901.611	97.4289	901.611	95.1958	901.611	96.246	901.611	97.1362	901.611	94.3227	901.611	96.8122	901.611	92.9024	901.611	91.3952	901.611	78.4792	901.611	92.4149	901.611	71.2442	901.611	88.5262	901.611	89.6269	901.611	88.2046	901.611	88.7951	901.611	84.806	901.611	91.6536	901.611	89.0823
933.105	108.257	933.105	106.498	933.105	108.374	933.105	102.5	933.105	105.645	933.105	103.05	933.105	97.0524	933.105	104.71	933.105	101.879	933.105	103.912	933.105	104.506	933.105	102.604	933.105	104.634	933.105	100.922	933.105	104.138	933.105	97.4803	933.105	101.949	933.105	92.7561	933.105	95.5966	933.105	90.496	933.105	95.5632	933.105	89.4648	933.105	95.8772	933.105	93.9266	933.105	93.8341	933.105	94.6972	933.105	76.2211	933.105	92.1302	933.105	88.1001	933.105	93.0804	933.105	90.3378	933.105	85.9529	933.105	80.4074	933.105	87.4135	933.105	91.2444	933.105	88.3352
966.064	108.396	966.064	106.719	966.064	107.198	966.064	103.659	966.064	105.76	966.064	105.182	966.064	100.993	966.064	104.872	966.064	100.614	966.064	103.747	966.064	104.228	966.064	102.271	966.064	102.989	966.064	99.8723	966.064	101.825	966.064	97.6146	966.064	100.785	966.064	95.4436	966.064	96.1742	966.064	93.8366	966.064	91.4191	966.064	94.9997	966.064	88.0283	966.064	92.8101	966.064	85.2656	966.064	86.5929	966.064	78.2787	966.064	92.2466	966.064	82.9362	966.064	87.5291	966.064	86.5288	966.064	85.8382	966.064	91.8538	966.064	89.602	966.064	92.6077	966.064	90.954
999.756	108.356	999.756	105.949	999.756	107.398	999.756	104.591	999.756	104.285	999.756	104.888	999.756	101.575	999.756	104.399	999.756	100.132	999.756	103.519	999.756	103.166	999.756	101.441	999.756	103.992	999.756	99.5206	999.756	102.535	999.756	98.6902	999.756	99.1165	999.756	97.4437	999.756	94.4243	999.756	94.8091	999.756	93.524	999.756	89.8633	999.756	92.1952	999.756	88.6324	999.756	91.959	999.756	93.8465	999.756	74.6594	999.756	90.0833	999.756	69.3523	999.756	88.9111	999.756	89.4644	999.756	89.2088	999.756	88.9184	999.756	72.7199	999.756	89.4226	999.756	85.9203
1034.91	107.637	1034.91	105.776	1034.91	107.098	1034.91	104.962	1034.91	104.694	1034.91	105.013	1034.91	101.765	1034.91	104.63	1034.91	100.981	1034.91	103.337	1034.91	102.758	1034.91	100.635	1034.91	103.088	1034.91	98.226	1034.91	101.506	1034.91	95.259	1034.91	97.4022	1034.91	92.4787	1034.91	92.1517	1034.91	92.042	1034.91	89.877	1034.91	91.9866	1034.91	88.7158	1034.91	92.115	1034.91	84.7978	1034.91	89.1133	1034.91	87.9869	1034.91	88.502	1034.91	92.3032	1034.91	86.8512	1034.91	87.5578	1034.91	84.178	1034.91	83.2712	1034.91	87.5972	1034.91	90.6108	1034.91	89.9458
1071.53	107.762	1071.53	106.316	1071.53	107.517	1071.53	105.695	1071.53	104.248	1071.53	105.564	1071.53	102.261	1071.53	104.954	1071.53	101.374	1071.53	102.749	1071.53	101.308	1071.53	100.381	1071.53	102.762	1071.53	99.0072	1071.53	101.723	1071.53	97.6819	1071.53	98.9543	1071.53	96.2169	1071.53	94.3729	1071.53	93.9643	1071.53	89.5369	1071.53	90.5152	1071.53	79.5539	1071.53	86.028	1071.53	84.9725	1071.53	92.0852	1071.53	81.0009	1071.53	91.4193	1071.53	81.7473	1071.53	85.9118	1071.53	82.6206	1071.53	86.8047	1071.53	91.4276	1071.53	83.6342	1071.53	88.1756	1071.53	79.5489
1109.62	107.682	1109.62	106.538	1109.62	106.967	1109.62	105.66	1109.62	104.577	1109.62	105.934	1109.62	103.414	1109.62	105.35	1109.62	101.515	1109.62	103.2	1109.62	99.4335	1109.62	99.5511	1109.62	101.863	1109.62	96.6455	1109.62	101.829	1109.62	97.1992	1109.62	98.8702	1109.62	97.5641	1109.62	93.9594	1109.62	94.717	1109.62	93.4043	1109.62	86.9775	1109.62	91.0956	1109.62	90.7893	1109.62	90.3165	1109.62	89.844	1109.62	74.9715	1109.62	88.4514	1109.62	87.8039	1109.62	91.8204	1109.62	83.7959	1109.62	88.7319	1109.62	88.2155	1109.62	82.4025	1109.62	93.4104	1109.62	90.5816
1148.44	108.574	1148.44	107.347	1148.44	108.375	1148.44	106.786	1148.44	105.275	1148.44	106.294	1148.44	102.927	1148.44	104.589	1148.44	102.877	1148.44	102.836	1148.44	100.796	1148.44	101.193	1148.44	101.888	1148.44	98.9891	1148.44	102.134	1148.44	96.9902	1148.44	98.378	1148.44	94.8803	1148.44	92.4224	1148.44	94.5176	1148.44	89.5433	1148.44	94.8507	1148.44	85.594	1148.44	90.9735	1148.44	80.9042	1148.44	91.5546	1148.44	90.6828	1148.44	92.6969	1148.44	82.7223	1148.44	86.1129	1148.44	70.3398	1148.44	86.4392	1148.44	91.9378	1148.44	81.3801	1148.44	89.9129	1148.44	86.7627
1189.45	107.683	1189.45	107.04	1189.45	107.462	1189.45	106.838	1189.45	104.661	1189.45	105.997	1189.45	103.397	1189.45	104.27	1189.45	102.473	1189.45	102.987	1189.45	99.3097	1189.45	101.212	1189.45	100.517	1189.45	98.7208	1189.45	100.106	1189.45	97.9613	1189.45	98.6644	1189.45	97.0889	1189.45	92.9723	1189.45	94.3164	1189.45	91.7065	1189.45	88.8516	1189.45	89.1993	1189.45	88.4702	1189.45	83.0549	1189.45	91.2048	1189.45	84.5252	1189.45	86.4896	1189.45	83.3982	1189.45	86.8023	1189.45	88.7343	1189.45	86.8186	1189.45	83.7888	1189.45	89.237	1189.45	91.523	1189.45	87.2796
1231.2	107.495	1231.2	106.754	1231.2	107.391	1231.2	106.468	1231.2	105.055	1231.2	105.82	1231.2	101.678	1231.2	103.054	1231.2	101.822	1231.2	101.795	1231.2	99.5683	1231.2	101.025	1231.2	100.56	1231.2	99.3578	1231.2	101.55	1231.2	96.6244	1231.2	98.4589	1231.2	95.305	1231.2	98.0077	1231.2	95.1591	1231.2	90.6205	1231.2	95.3312	1231.2	87.9348	1231.2	91.0297	1231.2	82.0001	1231.2	89.0585	1231.2	87.4354	1231.2	89.229	1231.2	82.2529	1231.2	89.5513	1231.2	81.5464	1231.2	87.3753	1231.2	89.6028	1231.2	74.1692	1231.2	87.9025	1231.2	82.937
1274.41	107.75	1274.41	107.461	1274.41	107.441	1274.41	106.196	1274.41	104.224	1274.41	104.628	1274.41	102.425	1274.41	104.165	1274.41	102.719	1274.41	102.653	1274.41	100.127	1274.41	99.9504	1274.41	99.5805	1274.41	97.9073	1274.41	100.65	1274.41	97.3352	1274.41	97.9288	1274.41	96.2203	1274.41	90.07	1274.41	94.1676	1274.41	92.5541	1274.41	89.3247	1274.41	93.5032	1274.41	92.0357	1274.41	80.2382	1274.41	89.3691	1274.41	79.9726	1274.41	90.6404	1274.41	76.128	1274.41	84.7185	1274.41	87.1311	1274.41	81.2525	1274.41	79.8954	1274.41	86.506	1274.41	90.4199	1274.41	87.9894
1319.82	107.143	1319.82	106.961	1319.82	106.519	1319.82	105.654	1319.82	104.932	1319.82	104.593	1319.82	103.383	1319.82	103.631	1319.82	101.859	1319.82	102.658	1319.82	95.2384	1319.82	101.424	1319.82	98.5456	1319.82	99.845	1319.82	102.196	1319.82	97.6657	1319.82	100.274	1319.82	95.9302	1319.82	96.8931	1319.82	92.0887	1319.82	85.1227	1319.82	90.9261	1319.82	92.5954	1319.82	85.8995	1319.82	90.001	1319.82	91.3731	1319.82	90.7596	1319.82	88.1782	1319.82	86.0229	1319.82	89.878	1319.82	83.4701	1319.82	80.7413	1319.82	88.4337	1319.82	86.3607	1319.82	81.5821	1319.82	76.2624
1365.97	107.318	1365.97	106.892	1365.97	107.319	1365.97	105.662	1365.97	105.937	1365.97	105.514	1365.97	102.79	1365.97	104.031	1365.97	101.977	1365.97	102.54	1365.97	99.3682	1365.97	101.767	1365.97	96.7354	1365.97	99.6693	1365.97	100.848	1365.97	96.9285	1365.97	98.0035	1365.97	95.7492	1365.97	92.4285	1365.97	96.7492	1365.97	96.165	1365.97	94.21	1365.97	87.7448	1365.97	93.1003	1365.97	81.5375	1365.97	91.4495	1365.97	88.3546	1365.97	87.66	1365.97	89.0669	1365.97	84.3396	1365.97	87.5788	1365.97	86.0579	1365.97	76.4512	1365.97	83.7685	1365.97	87.7574	1365.97	85.2431
1414.31	107.869	1414.31	106.494	1414.31	107.476	1414.31	105.766	1414.31	105.704	1414.31	105.714	1414.31	103.712	1414.31	103.7	1414.31	102.468	1414.31	102.906	1414.31	99.3283	1414.31	101.963	1414.31	96.9325	1414.31	101.372	1414.31	100.23	1414.31	98.6672	1414.31	101.287	1414.31	93.8231	1414.31	95.7404	1414.31	93.4933	1414.31	88.2804	1414.31	91.2865	1414.31	88.2702	1414.31	89.6967	1414.31	88.3513	1414.31	88.4932	1414.31	77.8118	1414.31	90.3148	1414.31	82.2823	1414.31	89.2345	1414.31	77.5009	1414.31	88.5341	1414.31	90.9543	1414.31	82.8343	1414.31	87.3589	1414.31	90.5097
1464.11	107.407	1464.11	106.116	1464.11	107.091	1464.11	105.815	1464.11	106.137	1464.11	106.103	1464.11	104.004	1464.11	104.892	1464.11	102.372	1464.11	101.863	1464.11	100.155	1464.11	101.066	1464.11	96.3762	1464.11	97.805	1464.11	100.687	1464.11	92.2158	1464.11	94.1562	1464.11	95.4557	1464.11	96.0163	1464.11	94.8902	1464.11	93.2288	1464.11	87.7492	1464.11	84.664	1464.11	85.4443	1464.11	79.7176	1464.11	85.5043	1464.11	85.4126	1464.11	90.5288	1464.11	90.1322	1464.11	85.1541	1464.11	82.8514	1464.11	88.3391	1464.11	87.5472	1464.11	65.5216	1464.11	86.0418	1464.11	87.0258
1515.38	107.108	1515.38	105.442	1515.38	107.299	1515.38	106.276	1515.38	107.122	1515.38	106.072	1515.38	105.587	1515.38	105.103	1515.38	104.051	1515.38	103.075	1515.38	102.13	1515.38	100.036	1515.38	96.3823	1515.38	96.1065	1515.38	98.454	1515.38	87.6745	1515.38	99.864	1515.38	86.0859	1515.38	91.6143	1515.38	86.5243	1515.38	86.7988	1515.38	94.2866	1515.38	91.1946	1515.38	88.1404	1515.38	86.906	1515.38	90.8711	1515.38	90.4781	1515.38	86.5576	1515.38	85.3498	1515.38	85.5127	1515.38	84.9307	1515.38	84.5451	1515.38	84.9684	1515.38	76.0366	1515.38	80.9832	1515.38	85.2264
1568.85	107.218	1568.85	106.669	1568.85	108.066	1568.85	106.469	1568.85	106.929	1568.85	106.027	1568.85	105.55	1568.85	103.77	1568.85	104.162	1568.85	101.818	1568.85	101.009	1568.85	99.7192	1568.85	98.1424	1568.85	98.9268	1568.85	98.3771	1568.85	97.7122	1568.85	95.6804	1568.85	94.0597	1568.85	91.8157	1568.85	93.9139	1568.85	94.5587	1568.85	92.8238	1568.85	88.862	1568.85	84.4274	1568.85	85.7792	1568.85	83.4105	1568.85	74.7439	1568.85	86.2583	1568.85	83.8992	1568.85	85.2964	1568.85	74.4852	1568.85	81.736	1568.85	79.0139	1568.85	82.6006	1568.85	90.107	1568.85	82.2109
1624.51	106.71	1624.51	106.42	1624.51	107.188	1624.51	106.711	1624.51	106.098	1624.51	106.119	1624.51	105.628	1624.51	105.482	1624.51	104.142	1624.51	100.577	1624.51	101.055	1624.51	97.8061	1624.51	98.2047	1624.51	99.154	1624.51	99.4018	1624.51	98.3066	1624.51	98.89	1624.51	95.3616	1624.51	91.1065	1624.51	92.5705	1624.51	89.8117	1624.51	93.7581	1624.51	88.074	1624.51	90.3859	1624.51	79.8117	1624.51	90.422	1624.51	84.0577	1624.51	91.9387	1624.51	81.4356	1624.51	86.6618	1624.51	75.6433	1624.51	87.295	1624.51	86.9616	1624.51	80.8028	1624.51	90.6389	1624.51	84.1726
1681.64	106.286	1681.64	106.717	1681.64	106.849	1681.64	106.96	1681.64	105.856	1681.64	105.968	1681.64	105.085	1681.64	103.507	1681.64	103.317	1681.64	100.226	1681.64	100.688	1681.64	100.562	1681.64	96.4559	1681.64	99.4	1681.64	94.564	1681.64	97.6257	1681.64	97.2372	1681.64	95.4053	1681.64	95.3705	1681.64	94.6345	1681.64	83.0343	1681.64	91.5901	1681.64	84.3264	1681.64	89.2512	1681.64	82.5367	1681.64	90.6062	1681.64	81.7528	1681.64	89.6934	1681.64	85.5956	1681.64	89.1428	1681.64	77.1065	1681.64	70.5502	1681.64	83.9391	1681.64	80.1661	1681.64	71.9503	1681.64	68.0128
1740.97	105.509	1740.97	107.182	1740.97	106.212	1740.97	107.329	1740.97	106.1	1740.97	106.622	1740.97	105.721	1740.97	103.302	1740.97	104.756	1740.97	102.558	1740.97	101.319	1740.97	101.231	1740.97	96.4063	1740.97	99.0693	1740.97	99.5839	1740.97	98.0556	1740.97	97.4865	1740.97	94.9913	1740.97	86.433	1740.97	91.7678	1740.97	95.2342	1740.97	92.3896	1740.97	85.7738	1740.97	89.734	1740.97	84.8952	1740.97	87.0636	1740.97	78.8089	1740.97	89.5135	1740.97	79.6671	1740.97	89.2579	1740.97	82.7244	1740.97	86.7467	1740.97	79.5097	1740.97	77.5883	1740.97	87.917	1740.97	83.62
1802.49	106.899	1802.49	107.842	1802.49	106.722	1802.49	107.375	1802.49	106.258	1802.49	105.993	1802.49	105.771	1802.49	103.375	1802.49	104.963	1802.49	102.781	1802.49	103.379	1802.49	100.502	1802.49	100.892	1802.49	98.1544	1802.49	97.806	1802.49	96.7164	1802.49	98.5971	1802.49	95.7937	1802.49	94.9647	1802.49	92.8883	1802.49	88.3881	1802.49	93.0686	1802.49	79.5549	1802.49	90.6388	1802.49	85.8016	1802.49	87.5972	1802.49	71.131	1802.49	86.4038	1802.49	86.8341	1802.49	82.7844	1802.49	82.3048	1802.49	79.808	1802.49	81.7338	1802.49	74.1236	1802.49	85.9652	1802.49	82.0114
1866.21	106.874	1866.21	107.371	1866.21	106.259	1866.21	107.432	1866.21	106.925	1866.21	105.506	1866.21	105.314	1866.21	103.827	1866.21	105.605	1866.21	102.375	1866.21	102.397	1866.21	100.789	1866.21	97.9365	1866.21	99.0603	1866.21	99.3121	1866.21	98.0424	1866.21	97.7134	1866.21	95.413	1866.21	92.2661	1866.21	92.8804	1866.21	86.8984	1866.21	92.4139	1866.21	86.7706	1866.21	91.1284	1866.21	79.8579	1866.21	88.9165	1866.21	88.3018	1866.21	90.7998	1866.21	81.5434	1866.21	90.4931	1866.21	81.4123	1866.21	83.4036	1866.21	78.3872	1866.21	72.777	1866.21	84.1698	1866.21	70.1367
1932.13	107.088	1932.13	107.061	1932.13	105.935	1932.13	107.101	1932.13	106.022	1932.13	104.609	1932.13	105.692	1932.13	104.295	1932.13	105.019	1932.13	102.199	1932.13	103.194	1932.13	101.598	1932.13	97.9234	1932.13	99.7979	1932.13	99.7084	1932.13	97.1237	1932.13	97.415	1932.13	96.2169	1932.13	90.2215	1932.13	94.2693	1932.13	88.0671	1932.13	92.5564	1932.13	79.898	1932.13	90.7561	1932.13	81.4038	1932.13	88.2937	1932.13	80.5421	1932.13	88.561	1932.13	82.1826	1932.13	88.3171	1932.13	87.6449	1932.13	86.4979	1932.13	83.6893	1932.13	76.0496	1932.13	76.2672	1932.13	80.579
2000.24	106.394	2000.24	107.139	2000.24	105.431	2000.24	106.529	2000.24	105.882	2000.24	105.169	2000.24	104.425	2000.24	104.172	2000.24	103.86	2000.24	102.98	2000.24	102.594	2000.24	101.215	2000.24	97.0623	2000.24	99.0023	2000.24	98.2403	2000.24	96.0946	2000.24	98.0766	2000.24	93.1501	2000.24	91.7506	2000.24	89.907	2000.24	92.6915	2000.24	91.0144	2000.24	81.676	2000.24	89.1279	2000.24	62.7293	2000.24	87.957	2000.24	84.0547	2000.24	88.7625	2000.24	86.8473	2000.24	89.0239	2000.24	79.1716	2000.24	80.8968	2000.24	84.3792	2000.24	72.2149	2000.24	82.8277	2000.24	85.1218
2070.56	106.666	2070.56	107.127	2070.56	106.089	2070.56	106.464	2070.56	105.004	2070.56	105.924	2070.56	104.762	2070.56	104.06	2070.56	103.138	2070.56	103.228	2070.56	102.827	2070.56	100.601	2070.56	98.6849	2070.56	98.0103	2070.56	100.364	2070.56	95.647	2070.56	97.6407	2070.56	94.6982	2070.56	92.1815	2070.56	93.2438	2070.56	63.8193	2070.56	90.7331	2070.56	85.4885	2070.56	89.8176	2070.56	81.9345	2070.56	87.5436	2070.56	79.6931	2070.56	86.4886	2070.56	80.1324	2070.56	86.2057	2070.56	83.4244	2070.56	85.1442	2070.56	79.1964	2070.56	75.4432	2070.56	79.0447	2070.56	82.8601
2143.8	106.882	2143.8	107.387	2143.8	106.645	2143.8	106.434	2143.8	106.276	2143.8	105.929	2143.8	105.614	2143.8	104.279	2143.8	104.624	2143.8	103.285	2143.8	103.944	2143.8	101.157	2143.8	98.3319	2143.8	99.4601	2143.8	99.6049	2143.8	97.3866	2143.8	98.6175	2143.8	95.4121	2143.8	92.5209	2143.8	93.3538	2143.8	86.814	2143.8	90.4739	2143.8	80.4411	2143.8	90.3856	2143.8	81.6361	2143.8	86.9249	2143.8	80.6299	2143.8	89.8377	2143.8	77.6387	2143.8	88.6823	2143.8	78.8719	2143.8	85.1483	2143.8	82.691	2143.8	71.1216	2143.8	78.6277	2143.8	71.3032
2219.24	107.076	2219.24	107.246	2219.24	106.116	2219.24	107.083	2219.24	105.97	2219.24	105.834	2219.24	105.368	2219.24	105.103	2219.24	102.576	2219.24	103.476	2219.24	102.665	2219.24	101.666	2219.24	97.7801	2219.24	99.3179	2219.24	99.0801	2219.24	96.1404	2219.24	97.6193	2219.24	93.495	2219.24	91.0331	2219.24	92.2644	2219.24	87.0617	2219.24	90.5677	2219.24	82.3104	2219.24	89.2863	2219.24	75.584	2219.24	89.6332	2219.24	83.958	2219.24	89.2105	2219.24	78.44	2219.24	88.3225	2219.24	69.4348	2219.24	85.9549	2219.24	83.1373	2219.24	67.5024	2219.24	77.365	2219.24	78.6825
2297.61	106.931	2297.61	107.408	2297.61	106.299	2297.61	107.291	2297.61	105.463	2297.61	105.622	2297.61	105.507	2297.61	104.91	2297.61	103.276	2297.61	103.202	2297.61	101.388	2297.61	101.191	2297.61	97.3875	2297.61	97.5443	2297.61	97.835	2297.61	94.8782	2297.61	99.1125	2297.61	92.7715	2297.61	91.2277	2297.61	92.3144	2297.61	80.8616	2297.61	90.3339	2297.61	74.5754	2297.61	90.9466	2297.61	74.0887	2297.61	87.3863	2297.61	77.0533	2297.61	88.7664	2297.61	75.5999	2297.61	88.432	2297.61	62.799	2297.61	86.7873	2297.61	80.2975	2297.61	79.0287	2297.61	75.5094	2297.61	72.2512
2378.17	107.106	2378.17	107.627	2378.17	106.248	2378.17	107.071	2378.17	106.143	2378.17	106.097	2378.17	104.929	2378.17	105.445	2378.17	103.214	2378.17	103.942	2378.17	102.422	2378.17	100.017	2378.17	98.926	2378.17	98.1619	2378.17	97.1755	2378.17	96.7701	2378.17	98.6538	2378.17	95.9979	2378.17	91.5775	2378.17	93.6276	2378.17	79.8612	2378.17	90.067	2378.17	77.0798	2378.17	89.6891	2378.17	78.9491	2378.17	88.7607	2378.17	77.2461	2378.17	87.4257	2378.17	82.025	2378.17	88.5564	2378.17	72.5365	2378.17	87.7655	2378.17	79.1604	2378.17	76.8764	2378.17	76.0986	2378.17	72.1432
2462.4	107.434	2462.4	107.528	2462.4	106.685	2462.4	106.344	2462.4	105.785	2462.4	106.148	2462.4	106.337	2462.4	105.096	2462.4	103.583	2462.4	102.718	2462.4	102.11	2462.4	100.696	2462.4	97.7326	2462.4	99.5764	2462.4	94.6005	2462.4	97.3115	2462.4	99.3088	2462.4	93.8467	2462.4	87.9335	2462.4	91.8408	2462.4	83.7949	2462.4	91.7508	2462.4	75.2369	2462.4	90.4257	2462.4	77.4346	2462.4	87.3429	2462.4	75.3891	2462.4	89.3147	2462.4	83.4897	2462.4	89.4958	2462.4	81.5378	2462.4	84.4677	2462.4	74.2588	2462.4	79.9032	2462.4	70.3721	2462.4	75.6805
2548.83	107.172	2548.83	107.336	2548.83	106.079	2548.83	106.663	2548.83	105.956	2548.83	105.883	2548.83	106.181	2548.83	105.402	2548.83	104.065	2548.83	102.45	2548.83	102.439	2548.83	101.065	2548.83	98.8044	2548.83	98.4229	2548.83	95.151	2548.83	95.3391	2548.83	97.8325	2548.83	93.6863	2548.83	92.067	2548.83	93.0491	2548.83	81.7761	2548.83	91.0207	2548.83	78.9101	2548.83	87.2457	2548.83	76.6698	2548.83	87.9512	2548.83	75.1009	2548.83	86.9214	2548.83	77.4149	2548.83	87.3379	2548.83	79.9589	2548.83	88.1144	2548.83	79.2204	2548.83	80.4409	2548.83	75.295	2548.83	74.8395
2638.92	107.183	2638.92	107.048	2638.92	107.026	2638.92	106.016	2638.92	105.459	2638.92	106.21	2638.92	106.009	2638.92	104.812	2638.92	104.242	2638.92	102.97	2638.92	102.74	2638.92	100.43	2638.92	98.77	2638.92	99.0018	2638.92	92.6254	2638.92	97.1123	2638.92	97.7872	2638.92	95.6521	2638.92	88.9727	2638.92	92.6577	2638.92	86.8794	2638.92	89.8919	2638.92	79.9567	2638.92	90.4242	2638.92	72.2369	2638.92	89.0042	2638.92	78.8699	2638.92	86.3625	2638.92	80.7341	2638.92	87.8856	2638.92	75.9803	2638.92	85.286	2638.92	74.6968	2638.92	78.6208	2638.92	75.2213	2638.92	67.312
2731.93	107.99	2731.93	107.626	2731.93	107.055	2731.93	106.986	2731.93	106.199	2731.93	107.028	2731.93	105.658	2731.93	104.597	2731.93	104.689	2731.93	102.852	2731.93	102.812	2731.93	101.07	2731.93	99.4753	2731.93	100.371	2731.93	91.5804	2731.93	97.1284	2731.93	97.4625	2731.93	94.4618	2731.93	91.0372	2731.93	91.689	2731.93	80.0382	2731.93	91.1198	2731.93	80.8429	2731.93	88.7581	2731.93	76.0158	2731.93	86.3424	2731.93	77.5483	2731.93	88.4514	2731.93	78.4489	2731.93	88.2051	2731.93	72.77	2731.93	88.3593	2731.93	72.975	2731.93	82.7342	2731.93	80.1501	2731.93	71.2699
2828.61	108.073	2828.61	107.586	2828.61	107.639	2828.61	106.946	2828.61	105.986	2828.61	106.665	2828.61	105.584	2828.61	104.8	2828.61	104.329	2828.61	102.929	2828.61	103.095	2828.61	102.187	2828.61	99.9497	2828.61	98.5592	2828.61	93.623	2828.61	94.5401	2828.61	96.8498	2828.61	93.0615	2828.61	90.7142	2828.61	91.2351	2828.61	86.788	2828.61	90.2775	2828.61	83.9985	2828.61	86.3101	2828.61	61.5592	2828.61	87.2998	2828.61	69.2744	2828.61	82.978	2828.61	82.8765	2828.61	86.8318	2828.61	63.0144	2828.61	81.2737	2828.61	73.2461	2828.61	80.7111	2828.61	71.4979	2828.61	73.1551
2928.22	107.972	2928.22	106.468	2928.22	107.038	2928.22	107.06	2928.22	106.46	2928.22	106.108	2928.22	105.464	2928.22	104.573	2928.22	105.061	2928.22	103.35	2928.22	101.881	2928.22	100.219	2928.22	99.1704	2928.22	96.9974	2928.22	89.4567	2928.22	95.6354	2928.22	96.6109	2928.22	93.9951	2928.22	90.7114	2928.22	91.3488	2928.22	78.7859	2928.22	89.3135	2928.22	73.0027	2928.22	87.0494	2928.22	76.1176	2928.22	88.7395	2928.22	69.6241	2928.22	85.2935	2928.22	82.8007	2928.22	86.3417	2928.22	59.9257	2928.22	88.5503	2928.22	78.9376	2928.22	77.9566	2928.22	78.3423	2928.22	74.3425
3031.49	106.99	3031.49	106.012	3031.49	106.771	3031.49	106.995	3031.49	105.383	3031.49	105.596	3031.49	104.082	3031.49	104.001	3031.49	103.132	3031.49	102.837	3031.49	101.337	3031.49	99.6928	3031.49	99.0727	3031.49	97.8128	3031.49	92.2154	3031.49	94.6909	3031.49	93.3292	3031.49	91.8199	3031.49	86.5539	3031.49	89.0218	3031.49	79.9317	3031.49	89.9131	3031.49	79.0954	3031.49	87.2037	3031.49	76.8975	3031.49	85.285	3031.49	75.895	3031.49	85.9688	3031.49	80.8899	3031.49	87.4094	3031.49	76.418	3031.49	79.5489	3031.49	70.954	3031.49	86.4566	3031.49	67.4544	3031.49	75.5308
3138.43	106.656	3138.43	106.224	3138.43	107.294	3138.43	107.197	3138.43	106.026	3138.43	105.661	3138.43	105.562	3138.43	105.029	3138.43	104.273	3138.43	102.928	3138.43	102.732	3138.43	100.473	3138.43	100.163	3138.43	96.3423	3138.43	90.2541	3138.43	95.4217	3138.43	92.8076	3138.43	92.2189	3138.43	89.2657	3138.43	92.166	3138.43	79.1145	3138.43	89.6375	3138.43	73.6653	3138.43	86.9259	3138.43	72.1061	3138.43	88.1854	3138.43	71.7344	3138.43	81.1982	3138.43	78.4977	3138.43	83.9655	3138.43	65.8627	3138.43	89.1135	3138.43	68.5995	3138.43	59.4541	3138.43	78.4229	3138.43	77.9843
3249.02	106.722	3249.02	106.851	3249.02	107.189	3249.02	107.323	3249.02	105.164	3249.02	105.954	3249.02	103.788	3249.02	104.661	3249.02	102.946	3249.02	102.205	3249.02	101.918	3249.02	98.8383	3249.02	99.5692	3249.02	98.2286	3249.02	92.122	3249.02	95.2363	3249.02	91.5488	3249.02	93.1829	3249.02	87.6234	3249.02	91.2728	3249.02	78.7509	3249.02	87.8145	3249.02	81.284	3249.02	88.2283	3249.02	77.9255	3249.02	87.1735	3249.02	75.535	3249.02	84.693	3249.02	77.9443	3249.02	85.4816	3249.02	74.6033	3249.02	86.3979	3249.02	77.2559	3249.02	83.9313	3249.02	70.3652	3249.02	80.8837
3363.28	106.571	3363.28	106.851	3363.28	107.513	3363.28	106.145	3363.28	105.776	3363.28	105.356	3363.28	104.381	3363.28	104.377	3363.28	104.081	3363.28	102.087	3363.28	102.025	3363.28	100.481	3363.28	100.086	3363.28	97.8155	3363.28	91.6372	3363.28	94.7582	3363.28	91.4003	3363.28	93.0705	3363.28	84.1152	3363.28	90.5797	3363.28	76.5639	3363.28	87.0434	3363.28	81.1188	3363.28	86.1152	3363.28	75.9937	3363.28	84.693	3363.28	72.2275	3363.28	80.2231	3363.28	79.0331	3363.28	83.9189	3363.28	73.4536	3363.28	85.2291	3363.28	79.0105	3363.28	82.1116	3363.28	72.4412	3363.28	71.9003
3481.93	106.035	3481.93	106.572	3481.93	106.748	3481.93	106.438	3481.93	105.748	3481.93	106	3481.93	103.428	3481.93	104.835	3481.93	103.021	3481.93	101.906	3481.93	100.594	3481.93	100.117	3481.93	98.8753	3481.93	96.9111	3481.93	91.3353	3481.93	95.633	3481.93	91.1542	3481.93	92.1805	3481.93	85.4196	3481.93	90.3432	3481.93	77.9903	3481.93	88.318	3481.93	79.3542	3481.93	86.6258	3481.93	73.846	3481.93	85.2605	3481.93	77.3605	3481.93	82.8816	3481.93	80.5228	3481.93	84.807	3481.93	71.5702	3481.93	85.0861	3481.93	67.784	3481.93	75.6034	3481.93	71.2442	3481.93	63.447
3604.98	106.907	3604.98	107.346	3604.98	107.2	3604.98	106.695	3604.98	106.313	3604.98	105.8	3604.98	104.188	3604.98	104.104	3604.98	103.931	3604.98	102.409	3604.98	102.189	3604.98	100.403	3604.98	100.183	3604.98	97.2467	3604.98	94.1738	3604.98	94.0197	3604.98	92.2702	3604.98	91.0187	3604.98	85.2747	3604.98	88.6827	3604.98	78.0656	3604.98	87.0949	3604.98	76.7812	3604.98	86.2966	3604.98	79.0362	3604.98	84.7559	3604.98	77.719	3604.98	85.1378	3604.98	74.0379	3604.98	82.8815	3604.98	74.4897	3604.98	83.7061	3604.98	65.7972	3604.98	79.5489	3604.98	77.6941	3604.98	72.8249
3732.42	106.45	3732.42	106.572	3732.42	106.712	3732.42	106.074	3732.42	106.181	3732.42	105.926	3732.42	104.274	3732.42	104.645	3732.42	103.515	3732.42	102.474	3732.42	101.787	3732.42	99.8508	3732.42	98.9096	3732.42	96.9581	3732.42	95.6009	3732.42	95.6822	3732.42	90.8065	3732.42	92.6319	3732.42	82.1617	3732.42	90.2432	3732.42	73.723	3732.42	87.8556	3732.42	75.2645	3732.42	85.6434	3732.42	65.1876	3732.42	85.503	3732.42	77.9874	3732.42	82.1161	3732.42	78.3921	3732.42	84.0652	3732.42	74.9536	3732.42	84.8737	3732.42	69.7048	3732.42	76.9471	3732.42	72.565	3732.42	78.7128
3863.53	107.051	3863.53	107.451	3863.53	106.594	3863.53	106.974	3863.53	105.695	3863.53	106.063	3863.53	104.248	3863.53	104.318	3863.53	103.135	3863.53	102.933	3863.53	102.016	3863.53	100.21	3863.53	100.693	3863.53	97.7295	3863.53	95.3831	3863.53	94.7492	3863.53	91.8789	3863.53	92.656	3863.53	82.692	3863.53	90.387	3863.53	81.4771	3863.53	88.086	3863.53	76.3457	3863.53	86.7927	3863.53	75.2632	3863.53	84.5404	3863.53	78.9823	3863.53	80.3509	3863.53	73.0855	3863.53	83.3306	3863.53	73.8235	3863.53	86.3452	3863.53	74.1694	3863.53	78.5146	3863.53	71.5494	3863.53	79.5536
3999.76	106.972	3999.76	106.929	3999.76	107.048	3999.76	106.037	3999.76	106.386	3999.76	105.901	3999.76	104.524	3999.76	104.769	3999.76	103.1	3999.76	102.338	3999.76	101.566	3999.76	99.966	3999.76	98.7032	3999.76	97.0769	3999.76	94.1743	3999.76	95.2793	3999.76	87.4797	3999.76	92.4952	3999.76	83.2687	3999.76	89.943	3999.76	78.4132	3999.76	87.2382	3999.76	78.5801	3999.76	86.8546	3999.76	80.4251	3999.76	84.8778	3999.76	73.3985	3999.76	80.3351	3999.76	76.4608	3999.76	84.0002	3999.76	75.5432	3999.76	83.6763	3999.76	75.5478	3999.76	79.8629	3999.76	72.2166	3999.76	75.0742
4141.11	107.398	4141.11	107.209	4141.11	106.491	4141.11	107.082	4141.11	106.003	4141.11	106.161	4141.11	104.114	4141.11	104.153	4141.11	101.506	4141.11	102.446	4141.11	101.79	4141.11	99.7116	4141.11	99.4686	4141.11	97.5022	4141.11	96.468	4141.11	94.0423	4141.11	90.1869	4141.11	92.1179	4141.11	78.5287	4141.11	89.7896	4141.11	69.8448	4141.11	87.1911	4141.11	71.0734	4141.11	85.831	4141.11	67.9155	4141.11	83.9402	4141.11	73.8494	4141.11	82.3796	4141.11	65.8766	4141.11	82.5322	4141.11	76.8345	4141.11	83.9309	4141.11	77.1718	4141.11	80.529	4141.11	60.3256	4141.11	78.9649
4286.87	108.232	4286.87	107.392	4286.87	107.276	4286.87	107.008	4286.87	106.969	4286.87	105.881	4286.87	104.851	4286.87	104.91	4286.87	103.082	4286.87	102.378	4286.87	101.592	4286.87	99.6482	4286.87	98.3822	4286.87	97.1992	4286.87	94.7324	4286.87	94.4082	4286.87	88.9095	4286.87	90.9374	4286.87	81.5247	4286.87	89.0745	4286.87	79.5062	4286.87	87.4862	4286.87	76.9871	4286.87	85.9487	4286.87	77.3661	4286.87	82.3123	4286.87	74.8924	4286.87	81.9753	4286.87	59.5528	4286.87	82.1622	4286.87	73.7508	4286.87	84.3969	4286.87	66.8131	4286.87	74.2218	4286.87	59.4358	4286.87	64.8976
4438.48	107.453	4438.48	107.67	4438.48	106.702	4438.48	106.962	4438.48	106.224	4438.48	105.725	4438.48	104.432	4438.48	104.99	4438.48	102.034	4438.48	102.443	4438.48	101.899	4438.48	100.451	4438.48	99.6166	4438.48	97.0647	4438.48	94.6775	4438.48	94.1314	4438.48	90.2629	4438.48	92.7336	4438.48	79.1218	4438.48	88.7047	4438.48	76.2869	4438.48	87.4529	4438.48	70.1934	4438.48	86.0238	4438.48	80.1905	4438.48	83.0125	4438.48	69.0204	4438.48	82.5469	4438.48	72.6412	4438.48	83.0261	4438.48	72.5955	4438.48	84.6679	4438.48	74.8541	4438.48	65.617	4438.48	74.2257	4438.48	73.3258
4594.48	107.892	4594.48	107.183	4594.48	107.148	4594.48	106.674	4594.48	106.706	4594.48	106.996	4594.48	105.443	4594.48	104.642	4594.48	102.951	4594.48	102.94	4594.48	101.28	4594.48	99.3582	4594.48	98.8821	4594.48	97.1725	4594.48	94.9771	4594.48	94.3844	4594.48	89.0906	4594.48	90.8243	4594.48	75.7427	4594.48	89.5662	4594.48	76.8072	4594.48	86.9958	4594.48	71.5254	4594.48	85.9446	4594.48	65.6711	4594.48	82.1832	4594.48	74.3048	4594.48	81.0907	4594.48	63.6351	4594.48	79.4518	4594.48	68.4917	4594.48	83.8994	4594.48	67.7862	4594.48	76.6069	4594.48	71.0372	4594.48	75.1571
4757.08	107.539	4757.08	106.964	4757.08	106.563	4757.08	107.53	4757.08	106.188	4757.08	105.975	4757.08	104.488	4757.08	104.919	4757.08	102.158	4757.08	102.709	4757.08	101.023	4757.08	100.413	4757.08	99.3245	4757.08	97.4542	4757.08	95.5867	4757.08	94.6332	4757.08	88.2321	4757.08	92.2044	4757.08	75.6103	4757.08	88.8598	4757.08	77.4932	4757.08	86.59	4757.08	75.5636	4757.08	85.5744	4757.08	71.4483	4757.08	81.2778	4757.08	72.4388	4757.08	81.2117	4757.08	66.817	4757.08	80.6218	4757.08	75.9636	4757.08	81.5902	4757.08	60.918	4757.08	79.6875	4757.08	73.8293	4757.08	73.2541
4924.8	107.019	4924.8	106.868	4924.8	106.743	4924.8	106.671	4924.8	106.628	4924.8	105.949	4924.8	104.555	4924.8	105.364	4924.8	102.989	4924.8	102.423	4924.8	99.9378	4924.8	99.3091	4924.8	98.6027	4924.8	96.9545	4924.8	94.1998	4924.8	93.5584	4924.8	89.8604	4924.8	91.569	4924.8	79.6105	4924.8	87.2193	4924.8	71.2209	4924.8	86.8925	4924.8	68.877	4924.8	83.6199	4924.8	75.8912	4924.8	80.8622	4924.8	69.7008	4924.8	81.8277	4924.8	73.4754	4924.8	80.023	4924.8	73.0322	4924.8	80.9178	4924.8	71.758	4924.8	79.8733	4924.8	71.3199	4924.8	75.8189
5098.39	107.31	5098.39	107.627	5098.39	106.827	5098.39	106.224	5098.39	106.15	5098.39	107.128	5098.39	105.239	5098.39	104.396	5098.39	103.15	5098.39	103.274	5098.39	101.762	5098.39	100.031	5098.39	99.8363	5098.39	96.5728	5098.39	93.4966	5098.39	95.1725	5098.39	88.7457	5098.39	90.8744	5098.39	73.2796	5098.39	89.9957	5098.39	73.2593	5098.39	86.7858	5098.39	79.422	5098.39	84.3393	5098.39	67.539	5098.39	81.9015	5098.39	76.0593	5098.39	81.4121	5098.39	70.5215	5098.39	79.9678	5098.39	69.7357	5098.39	81.7751	5098.39	68.0796	5098.39	79.0923	5098.39	72.4239	5098.39	73.5859
5277.83	107.093	5277.83	107.421	5277.83	106.582	5277.83	107.638	5277.83	105.918	5277.83	106.782	5277.83	104.966	5277.83	105.146	5277.83	101.936	5277.83	102.641	5277.83	101.048	5277.83	100.432	5277.83	100.154	5277.83	97.5574	5277.83	95.8597	5277.83	94.3654	5277.83	89.6429	5277.83	92.3191	5277.83	77.974	5277.83	88.5771	5277.83	73.8104	5277.83	87.0292	5277.83	80.9402	5277.83	83.53	5277.83	75.3698	5277.83	80.8398	5277.83	74.5405	5277.83	82.2052	5277.83	69.137	5277.83	80.3672	5277.83	70.2173	5277.83	82.2413	5277.83	72.1455	5277.83	79.1288	5277.83	68.9572	5277.83	65.3738
5463.87	107.693	5463.87	107.429	5463.87	107.433	5463.87	106.278	5463.87	107.198	5463.87	106.165	5463.87	105.772	5463.87	105.681	5463.87	103.353	5463.87	102.711	5463.87	101.465	5463.87	100.27	5463.87	99.0173	5463.87	97.0099	5463.87	92.354	5463.87	94.7037	5463.87	89.8319	5463.87	91.1282	5463.87	74.9318	5463.87	89.5516	5463.87	76.1077	5463.87	86.787	5463.87	71.2451	5463.87	84.8179	5463.87	74.3448	5463.87	83.062	5463.87	69.1964	5463.87	81.7655	5463.87	76.052	5463.87	79.1263	5463.87	65.8982	5463.87	80.3419	5463.87	72.8489	5463.87	79.6107	5463.87	67.461	5463.87	65.8661
5656.49	107.027	5656.49	107.751	5656.49	107.116	5656.49	107.021	5656.49	106.036	5656.49	107.05	5656.49	105.554	5656.49	105.136	5656.49	103.092	5656.49	102.813	5656.49	101.53	5656.49	99.7143	5656.49	100.033	5656.49	97.4567	5656.49	93.5871	5656.49	93.8486	5656.49	89.3986	5656.49	92.6722	5656.49	78.801	5656.49	88.869	5656.49	70.0342	5656.49	86.9559	5656.49	74.6843	5656.49	84.5656	5656.49	69.4426	5656.49	82.1289	5656.49	70.1496	5656.49	80.0804	5656.49	73.2825	5656.49	78.5781	5656.49	70.6123	5656.49	81.8805	5656.49	72.6882	5656.49	72.9268	5656.49	73.768	5656.49	66.9628
5856.45	106.619	5856.45	106.963	5856.45	106.675	5856.45	107.034	5856.45	105.653	5856.45	106.186	5856.45	104.735	5856.45	104.736	5856.45	102.131	5856.45	103.026	5856.45	99.6295	5856.45	99.6135	5856.45	98.6641	5856.45	96.9766	5856.45	94.4444	5856.45	93.9192	5856.45	90.8921	5856.45	89.7539	5856.45	77.4764	5856.45	88.4066	5856.45	69.5154	5856.45	85.859	5856.45	57.7393	5856.45	83.2323	5856.45	72.7681	5856.45	82.3329	5856.45	68.7687	5856.45	80.6154	5856.45	71.5532	5856.45	76.952	5856.45	59.1748	5856.45	80.4717	5856.45	77.044	5856.45	77.4746	5856.45	67.5515	5856.45	69.9586
6062.99	106.886	6062.99	107.016	6062.99	106.952	6062.99	106.317	6062.99	106.342	6062.99	106.254	6062.99	105.3	6062.99	104.916	6062.99	102.7	6062.99	102.181	6062.99	99.673	6062.99	99.9917	6062.99	98.0877	6062.99	96.8993	6062.99	93.5651	6062.99	93.7767	6062.99	91.4893	6062.99	90.4443	6062.99	75.6735	6062.99	88.24	6062.99	72.1824	6062.99	85.4076	6062.99	70.7309	6062.99	83.9502	6062.99	66.0714	6062.99	80.5872	6062.99	75.0331	6062.99	78.7034	6062.99	63.8786	6062.99	75.642	6062.99	44.8294	6062.99	79.8478	6062.99	74.1499	6062.99	77.8692	6062.99	68.5353	6062.99	70.3763
6276.86	105.858	6276.86	106.663	6276.86	106.185	6276.86	106.344	6276.86	105.395	6276.86	106.304	6276.86	104.218	6276.86	105.327	6276.86	101.811	6276.86	102.805	6276.86	99.5206	6276.86	99.7547	6276.86	97.8304	6276.86	96.2355	6276.86	93.0531	6276.86	94.0055	6276.86	89.0845	6276.86	90.6326	6276.86	79.9734	6276.86	88.9547	6276.86	61.2342	6276.86	85.3302	6276.86	67.9034	6276.86	83.0887	6276.86	69.8093	6276.86	82.0168	6276.86	71.7168	6276.86	80.2188	6276.86	42.3651	6276.86	76.1419	6276.86	59.2734	6276.86	78.5769	6276.86	73.8481	6276.86	78.287	6276.86	62.3165	6276.86	63.1764
6498.05	105.948	6498.05	106.704	6498.05	105.954	6498.05	106.226	6498.05	105.357	6498.05	105.736	6498.05	104.034	6498.05	104.951	6498.05	101.934	6498.05	102.748	6498.05	98.8721	6498.05	99.4349	6498.05	97.3456	6498.05	96.578	6498.05	93.2893	6498.05	93.8899	6498.05	87.626	6498.05	90.9273	6498.05	75.9344	6498.05	87.0811	6498.05	68.6226	6498.05	84.2958	6498.05	70.4461	6498.05	83.1787	6498.05	70.2881	6498.05	80.8526	6498.05	73.6169	6498.05	78.8392	6498.05	66.8145	6498.05	75.2252	6498.05	63.4151	6498.05	76.9635	6498.05	71.3458	6498.05	78.1268	6498.05	73.3741	6498.05	68.2966
6727.29	106.224	6727.29	106.756	6727.29	105.836	6727.29	106.699	6727.29	105.401	6727.29	106.207	6727.29	103.768	6727.29	105.119	6727.29	101.8	6727.29	102.847	6727.29	99.8258	6727.29	99.3238	6727.29	97.4343	6727.29	96.8818	6727.29	94.9957	6727.29	93.1388	6727.29	88.6924	6727.29	90.5283	6727.29	77.1561	6727.29	87.9117	6727.29	65.7029	6727.29	84.9634	6727.29	71.9095	6727.29	83.0012	6727.29	66.5196	6727.29	82.0292	6727.29	67.4989	6727.29	79.0111	6727.29	69.7551	6727.29	72.4489	6727.29	63.1662	6727.29	76.2576	6727.29	69.5766	6727.29	73.926	6727.29	75.9129	6727.29	67.2013
6964.6	106.351	6964.6	106.764	6964.6	106.198	6964.6	106.866	6964.6	105.823	6964.6	106.566	6964.6	104.444	6964.6	105.258	6964.6	101.891	6964.6	103.042	6964.6	99.4817	6964.6	99.8372	6964.6	96.7995	6964.6	96.3532	6964.6	95.5455	6964.6	93.3804	6964.6	89.9	6964.6	90.7878	6964.6	78.425	6964.6	87.5546	6964.6	73.2372	6964.6	84.4829	6964.6	69.256	6964.6	82.8736	6964.6	65.4197	6964.6	81.3534	6964.6	66.5235	6964.6	77.6852	6964.6	70.1417	6964.6	74.2315	6964.6	58.4086	6964.6	76.9283	6964.6	72.8028	6964.6	74.6917	6964.6	75.914	6964.6	74.373
7209.96	107.16	7209.96	107.22	7209.96	106.735	7209.96	106.996	7209.96	106.678	7209.96	106.943	7209.96	105.393	7209.96	105.623	7209.96	102.5	7209.96	103.319	7209.96	99.9887	7209.96	100.217	7209.96	97.7962	7209.96	96.945	7209.96	95.812	7209.96	93.6487	7209.96	90.1483	7209.96	90.7703	7209.96	81.007	7209.96	87.5428	7209.96	75.0418	7209.96	85.2277	7209.96	71.2414	7209.96	83.3788	7209.96	73.2238	7209.96	81.4103	7209.96	66.186	7209.96	78.3496	7209.96	70.3919	7209.96	75.6948	7209.96	69.5559	7209.96	76.2442	7209.96	72.8121	7209.96	76.4619	7209.96	69.229	7209.96	76.3786
7464.11	107.608	7464.11	107.887	7464.11	107.325	7464.11	107.729	7464.11	106.85	7464.11	107.36	7464.11	105.825	7464.11	106.136	7464.11	102.85	7464.11	103.485	7464.11	100.466	7464.11	100.139	7464.11	98.3897	7464.11	97.2457	7464.11	95.7841	7464.11	93.5186	7464.11	90.6849	7464.11	90.6204	7464.11	80.5159	7464.11	87.7018	7464.11	72.7375	7464.11	85.1543	7464.11	66.6631	7464.11	83.3838	7464.11	66.9851	7464.11	80.1836	7464.11	56.9261	7464.11	77.006	7464.11	67.8854	7464.11	68.6539	7464.11	70.3135	7464.11	71.4131	7464.11	59.5114	7464.11	75.8428	7464.11	73.677	7464.11	64.0871
7727.78	108.068	7727.78	108.335	7727.78	107.773	7727.78	108.216	7727.78	107.12	7727.78	107.85	7727.78	105.863	7727.78	106.458	7727.78	103.352	7727.78	103.951	7727.78	100.311	7727.78	100.287	7727.78	98.85	7727.78	96.8285	7727.78	95.6887	7727.78	94.2481	7727.78	90.4279	7727.78	90.9414	7727.78	82.2799	7727.78	87.9635	7727.78	74.5463	7727.78	85.1826	7727.78	67.6014	7727.78	83.7717	7727.78	65.7191	7727.78	81.8356	7727.78	68.3918	7727.78	77.6256	7727.78	60.2693	7727.78	72.9313	7727.78	71.3904	7727.78	72.162	7727.78	65.0534	7727.78	72.1055	7727.78	75.7947	7727.78	72.0907
8000.24	108.306	8000.24	108.599	8000.24	108.142	8000.24	108.449	8000.24	107.421	8000.24	108.102	8000.24	106.227	8000.24	106.725	8000.24	103.591	8000.24	104.155	8000.24	100.492	8000.24	100.504	8000.24	98.4063	8000.24	97.0793	8000.24	95.8208	8000.24	93.982	8000.24	90.547	8000.24	91.1879	8000.24	80.8153	8000.24	88.2581	8000.24	74.5861	8000.24	85.9077	8000.24	67.2635	8000.24	83.1614	8000.24	57.9256	8000.24	79.7515	8000.24	61.8747	8000.24	75.641	8000.24	64.7717	8000.24	70.5993	8000.24	63.4949	8000.24	73.1955	8000.24	55.3213	8000.24	74.0217	8000.24	73.2696	8000.24	74.1716
8282.23	108.626	8282.23	108.868	8282.23	108.487	8282.23	108.613	8282.23	107.896	8282.23	107.929	8282.23	106.313	8282.23	106.555	8282.23	103.641	8282.23	103.97	8282.23	100.532	8282.23	100.182	8282.23	98.291	8282.23	96.5554	8282.23	95.0118	8282.23	93.5047	8282.23	89.8156	8282.23	90.4627	8282.23	83.0186	8282.23	86.9701	8282.23	73.7089	8282.23	85.0128	8282.23	70.1793	8282.23	82.7273	8282.23	66.4212	8282.23	79.6827	8282.23	57.2999	8282.23	74.8847	8282.23	73.4509	8282.23	65.01	8282.23	58.6741	8282.23	74.1532	8282.23	52.3077	8282.23	71.3216	8282.23	66.635	8282.23	70.4744
8574.46	108.91	8574.46	109.116	8574.46	108.564	8574.46	108.502	8574.46	107.773	8574.46	107.608	8574.46	106.315	8574.46	105.891	8574.46	103.299	8574.46	103.068	8574.46	100.565	8574.46	99.263	8574.46	98.109	8574.46	95.7882	8574.46	93.9679	8574.46	91.4138	8574.46	88.256	8574.46	90.1417	8574.46	79.5283	8574.46	86.2709	8574.46	71.9633	8574.46	84.6895	8574.46	57.4302	8574.46	82.5429	8574.46	66.9498	8574.46	78.6889	8574.46	66.245	8574.46	71.8936	8574.46	68.5608	8574.46	69.6105	8574.46	57.6724	8574.46	75.7794	8574.46	51.6312	8574.46	68.0551	8574.46	68.1462	8574.46	70.162
8876.22	108.793	8876.22	108.873	8876.22	108.398	8876.22	108.216	8876.22	107.401	8876.22	107.082	8876.22	105.725	8876.22	105.216	8876.22	102.722	8876.22	102.449	8876.22	100.083	8876.22	99.0215	8876.22	97.3712	8876.22	94.2316	8876.22	93.0268	8876.22	92.5302	8876.22	85.7082	8876.22	88.885	8876.22	78.3949	8876.22	84.945	8876.22	65.3619	8876.22	83.721	8876.22	70.6139	8876.22	80.0651	8876.22	71.1611	8876.22	77.138	8876.22	47.7149	8876.22	70.2246	8876.22	58.592	8876.22	69.5211	8876.22	58.2696	8876.22	74.4637	8876.22	66.1251	8876.22	64.3193	8876.22	67.6059	8876.22	64.3122
9189.7	108.861	9189.7	108.837	9189.7	108.091	9189.7	107.978	9189.7	106.968	9189.7	106.843	9189.7	105.3	9189.7	104.689	9189.7	102.448	9189.7	101.63	9189.7	99.66	9189.7	98.1129	9189.7	96.9435	9189.7	95.0685	9189.7	93.7324	9189.7	89.3356	9189.7	87.3524	9189.7	88.6846	9189.7	76.6473	9189.7	84.7566	9189.7	71.6905	9189.7	83.5142	9189.7	64.409	9189.7	79.5882	9189.7	65.5412	9189.7	76.8936	9189.7	63.0369	9189.7	69.1214	9189.7	62.99	9189.7	70.4174	9189.7	59.7737	9189.7	76.6643	9189.7	63.3376	9189.7	56.2922	9189.7	68.5906	9189.7	66.6273
9513.43	107.595	9513.43	107.729	9513.43	107.038	9513.43	106.879	9513.43	106.012	9513.43	105.768	9513.43	104.358	9513.43	103.687	9513.43	101.586	9513.43	100.979	9513.43	98.9219	9513.43	97.2785	9513.43	95.891	9513.43	93.0836	9513.43	92.627	9513.43	90.6227	9513.43	87.5457	9513.43	86.0142	9513.43	75.5836	9513.43	83.677	9513.43	58.0257	9513.43	81.4714	9513.43	61.5663	9513.43	76.4123	9513.43	66.318	9513.43	74.2597	9513.43	65.9668	9513.43	69.4433	9513.43	53.9352	9513.43	69.7708	9513.43	66.4962	9513.43	71.7865	9513.43	69.3029	9513.43	69.4855	9513.43	70.7079	9513.43	70.9004
9848.88	106.537	9848.88	106.638	9848.88	105.762	9848.88	105.982	9848.88	104.821	9848.88	104.584	9848.88	102.937	9848.88	102.621	9848.88	99.9674	9848.88	99.503	9848.88	97.1828	9848.88	95.8881	9848.88	94.6115	9848.88	91.9309	9848.88	91.3018	9848.88	87.4556	9848.88	86.2091	9848.88	86.1127	9848.88	74.6172	9848.88	82.6848	9848.88	66.0651	9848.88	81.0595	9848.88	60.1454	9848.88	76.4522	9848.88	34.2006	9848.88	73.7642	9848.88	55.5527	9848.88	69.1006	9848.88	63.7158	9848.88	70.1624	9848.88	68.3193	9848.88	69.4944	9848.88	49.7833	9848.88	72.0498	9848.88	73.2137	9848.88	67.6815
10196.8	107.654	10196.8	107.697	10196.8	107.043	10196.8	106.607	10196.8	106.07	10196.8	105.211	10196.8	104.294	10196.8	102.785	10196.8	101.55	10196.8	99.5293	10196.8	98.3576	10196.8	95.7811	10196.8	95.616	10196.8	91.609	10196.8	92.7721	10196.8	87.6095	10196.8	87.4465	10196.8	84.3646	10196.8	74.9905	10196.8	81.8721	10196.8	64.1165	10196.8	79.9065	10196.8	62.532	10196.8	73.8043	10196.8	50.2388	10196.8	71.7648	10196.8	51.7217	10196.8	66.9544	10196.8	64.389	10196.8	70.416	10196.8	64.4168	10196.8	59.3397	10196.8	59.8222	10196.8	71.795	10196.8	73.7667	10196.8	71.3273
10556.4	108.929	10556.4	108.759	10556.4	107.99	10556.4	107.383	10556.4	106.763	10556.4	105.643	10556.4	104.634	10556.4	102.454	10556.4	101.211	10556.4	98.6194	10556.4	98.0496	10556.4	94.4333	10556.4	94.5395	10556.4	90.7223	10556.4	91.9609	10556.4	86.4299	10556.4	86.5886	10556.4	84.0799	10556.4	73.0731	10556.4	81.4121	10556.4	67.2343	10556.4	78.7989	10556.4	66.9589	10556.4	71.7047	10556.4	65.0955	10556.4	70.1316	10556.4	60.1276	10556.4	67.9121	10556.4	65.4557	10556.4	69.6766	10556.4	66.4986	10556.4	63.7471	10556.4	67.8077	10556.4	77.0755	10556.4	74.8227	10556.4	79.8982
10928.5	109.332	10928.5	109.02	10928.5	108.456	10928.5	107.872	10928.5	107.233	10928.5	105.247	10928.5	104.598	10928.5	101.291	10928.5	100.49	10928.5	96.8527	10928.5	97.9735	10928.5	93.3128	10928.5	94.6709	10928.5	89.4793	10928.5	91.0466	10928.5	85.5172	10928.5	86.5574	10928.5	82.7089	10928.5	67.4425	10928.5	80.5337	10928.5	60.3386	10928.5	76.6862	10928.5	66.554	10928.5	69.9126	10928.5	66.5024	10928.5	70.4453	10928.5	68.0722	10928.5	68.9486	10928.5	65.5488	10928.5	67.0116	10928.5	67.914	10928.5	68.5745	10928.5	69.9386	10928.5	79.0193	10928.5	77.1399	10928.5	82.2215
11313.7	109.08	11313.7	108.663	11313.7	108.33	11313.7	107.514	11313.7	107.698	11313.7	105.172	11313.7	105.308	11313.7	101.297	11313.7	102.065	11313.7	97.9368	11313.7	99.1377	11313.7	95.4198	11313.7	96.832	11313.7	92.0882	11313.7	92.1988	11313.7	87.3223	11313.7	87.9573	11313.7	85.6158	11313.7	69.149	11313.7	82.3517	11313.7	68.4168	11313.7	78.1485	11313.7	66.8543	11313.7	70.5064	11313.7	71.1679	11313.7	73.6358	11313.7	67.3388	11313.7	68.0664	11313.7	65.0024	11313.7	69.2985	11313.7	67.6151	11313.7	70.3315	11313.7	72.9211	11313.7	80.5685	11313.7	79.7599	11313.7	82.869
11712.9	108.777	11712.9	107.956	11712.9	107.968	11712.9	107.325	11712.9	107.463	11712.9	105.543	11712.9	105.177	11712.9	102.185	11712.9	101.74	11712.9	99.6237	11712.9	98.885	11712.9	97.0999	11712.9	96.7509	11712.9	93.3413	11712.9	92.2557	11712.9	88.5874	11712.9	86.5326	11712.9	86.4116	11712.9	67.8583	11712.9	83.009	11712.9	70.1253	11712.9	77.4239	11712.9	69.5298	11712.9	69.2977	11712.9	72.4965	11712.9	73.5233	11712.9	70.8195	11712.9	70.0826	11712.9	70.1219	11712.9	70.2827	11712.9	62.8066	11712.9	77.4943	11712.9	75.4991	11712.9	84.5082	11712.9	82.879	11712.9	87.1809
12126	109.337	12126	108.889	12126	108.387	12126	108.149	12126	107.874	12126	106.454	12126	105.419	12126	103.376	12126	101.429	12126	100.904	12126	99.6607	12126	98.487	12126	97.4883	12126	95.1691	12126	92.6721	12126	88.9734	12126	86.7758	12126	88.358	12126	71.737	12126	83.2724	12126	73.8288	12126	78.2074	12126	73.5802	12126	66.9787	12126	73.7076	12126	75.04	12126	72.9392	12126	71.8559	12126	69.3696	12126	70.1388	12126	70.1655	12126	81.9169	12126	74.9247	12126	86.613	12126	84.6829	12126	89.1133
12553.7	110.448	12553.7	109.831	12553.7	109.485	12553.7	109.274	12553.7	108.606	12553.7	107.494	12553.7	106.141	12553.7	104.098	12553.7	102.678	12553.7	101.611	12553.7	100.287	12553.7	99.3649	12553.7	98.0416	12553.7	95.2926	12553.7	93.8158	12553.7	89.3186	12553.7	87.5063	12553.7	88.5134	12553.7	75.1059	12553.7	82.6358	12553.7	77.9091	12553.7	76.9147	12553.7	76.9779	12553.7	61.9862	12553.7	75.8326	12553.7	75.6212	12553.7	73.9714	12553.7	70.9448	12553.7	73.3428	12553.7	69.8697	12553.7	69.2763	12553.7	83.2782	12553.7	76.7243	12553.7	86.498	12553.7	83.5774	12553.7	88.5793
12996.1	110.007	12996.1	109.555	12996.1	109.466	12996.1	109.177	12996.1	108.781	12996.1	107.172	12996.1	106.515	12996.1	103.736	12996.1	102.819	12996.1	101.392	12996.1	100.489	12996.1	99.2495	12996.1	98.2857	12996.1	95.801	12996.1	94.4937	12996.1	87.8277	12996.1	87.4482	12996.1	88.3641	12996.1	76.8064	12996.1	80.7638	12996.1	79.3572	12996.1	76.0519	12996.1	77.8537	12996.1	67.3304	12996.1	78.7624	12996.1	74.3435	12996.1	74.1673	12996.1	70.7277	12996.1	73.9084	12996.1	69.9769	12996.1	72.3343	12996.1	83.3172	12996.1	79.0022	12996.1	85.4177	12996.1	81.9931	12996.1	87.2032
13454.6	109.775	13454.6	108.689	13454.6	109.052	13454.6	108.718	13454.6	108.308	13454.6	106.934	13454.6	105.743	13454.6	103.671	13454.6	102.001	13454.6	101.34	13454.6	99.1884	13454.6	99.2747	13454.6	97.3322	13454.6	95.6866	13454.6	93.9663	13454.6	88.3921	13454.6	87.2276	13454.6	87.8907	13454.6	80.001	13454.6	78.5452	13454.6	81.7028	13454.6	75.9923	13454.6	80.2947	13454.6	70.961	13454.6	80.9691	13454.6	73.5768	13454.6	75.9577	13454.6	70.7295	13454.6	74.6404	13454.6	72.2889	13454.6	75.9775	13454.6	83.2763	13454.6	80.5637	13454.6	85.1624	13454.6	83.4417	13454.6	87.4828
13928.5	108.972	13928.5	108.124	13928.5	107.979	13928.5	108.703	13928.5	106.707	13928.5	107.331	13928.5	103.447	13928.5	103.949	13928.5	98.8572	13928.5	101.577	13928.5	96.988	13928.5	99.5431	13928.5	95.1748	13928.5	96.2215	13928.5	91.8845	13928.5	88.2699	13928.5	84.1084	13928.5	87.8414	13928.5	81.3075	13928.5	74.9355	13928.5	83.1514	13928.5	77.8367	13928.5	81.8691	13928.5	73.5192	13928.5	82.1529	13928.5	73.45	13928.5	78.7503	13928.5	70.5629	13928.5	78.1766	13928.5	74.5913	13928.5	80.0469	13928.5	83.5089	13928.5	82.8875	13928.5	85.3614	13928.5	84.1439	13928.5	88.2676
14419.9	108.811	14419.9	108.371	14419.9	107.374	14419.9	109.257	14419.9	105.189	14419.9	107.815	14419.9	101.92	14419.9	104.248	14419.9	97.5874	14419.9	101.449	14419.9	95.1529	14419.9	99.4633	14419.9	93.6227	14419.9	96.5539	14419.9	90.7936	14419.9	89.2618	14419.9	81.0211	14419.9	86.4479	14419.9	82.9251	14419.9	76.6924	14419.9	83.8044	14419.9	78.8678	14419.9	83.3582	14419.9	75.3707	14419.9	82.6573	14419.9	74.2534	14419.9	80.7678	14419.9	70.5307	14419.9	80.6664	14419.9	75.6302	14419.9	81.657	14419.9	82.8769	14419.9	83.335	14419.9	85.4951	14419.9	83.8444	14419.9	89.4501
14928.2	107.365	14928.2	107.063	14928.2	105.645	14928.2	108.236	14928.2	103.323	14928.2	106.695	14928.2	100.125	14928.2	102.468	14928.2	96.0986	14928.2	99.3267	14928.2	93.0147	14928.2	97.53	14928.2	91.686	14928.2	94.87	14928.2	89.7995	14928.2	88.4839	14928.2	76.3622	14928.2	83.0578	14928.2	83.5354	14928.2	76.8235	14928.2	83.0337	14928.2	78.0413	14928.2	81.9156	14928.2	75.8234	14928.2	80.9632	14928.2	73.2816	14928.2	79.6188	14928.2	69.603	14928.2	80.0312	14928.2	74.7541	14928.2	81.5639	14928.2	80.4651	14928.2	82.7536	14928.2	83.177	14928.2	82.8028	14928.2	88.477
15454.8	107.27	15454.8	106.923	15454.8	105.625	15454.8	107.224	15454.8	102.891	15454.8	104.367	15454.8	99.2038	15454.8	99.0569	15454.8	94.1552	15454.8	95.6805	15454.8	91.247	15454.8	94.2002	15454.8	89.1914	15454.8	91.8861	15454.8	88.3741	15454.8	86.5029	15454.8	71.2265	15454.8	76.7266	15454.8	82.8195	15454.8	78.1045	15454.8	82.0634	15454.8	76.5725	15454.8	80.704	15454.8	74.8313	15454.8	79.8403	15454.8	71.3726	15454.8	77.694	15454.8	67.8074	15454.8	76.8358	15454.8	72.4238	15454.8	79.9079	15454.8	77.2531	15454.8	81.864	15454.8	80.4456	15454.8	80.814	15454.8	86.9875
15999.8	106.392	15999.8	106.392	15999.8	105.248	15999.8	106.609	15999.8	102.243	15999.8	102.833	15999.8	98.108	15999.8	97.1544	15999.8	92.2616	15999.8	94.1347	15999.8	89.1019	15999.8	93.2165	15999.8	87.2153	15999.8	91.2531	15999.8	86.9409	15999.8	87.1742	15999.8	69.853	15999.8	70.125	15999.8	82.3467	15999.8	79.6344	15999.8	82.444	15999.8	77.1253	15999.8	80.9867	15999.8	75.6811	15999.8	80.0575	15999.8	71.3924	15999.8	78.727	15999.8	69.5403	15999.8	78.4447	15999.8	71.3897	15999.8	79.9434	15999.8	77.1567	15999.8	81.7862	15999.8	79.8209	15999.8	78.7557	15999.8	86.9496
16564.5	104.747	16564.5	104.414	16564.5	103.692	16564.5	104.594	16564.5	100.317	16564.5	100.912	16564.5	95.7747	16564.5	95.1186	16564.5	88.8099	16564.5	91.651	16564.5	84.2327	16564.5	91.3033	16564.5	82.6462	16564.5	89.6996	16564.5	84.4326	16564.5	86.4966	16564.5	72.6386	16564.5	67.0925	16564.5	81.1159	16564.5	79.4565	16564.5	80.7088	16564.5	76.4428	16564.5	78.2297	16564.5	75.2855	16564.5	77.5074	16564.5	70.7029	16564.5	77.8497	16564.5	69.1255	16564.5	77.1472	16564.5	69.2205	16564.5	79.882	16564.5	75.8493	16564.5	80.8055	16564.5	79.0736	16564.5	78.0596	16564.5	86.9308
17148.2	104.541	17148.2	104.214	17148.2	103.464	17148.2	103.042	17148.2	99.4578	17148.2	98.5186	17148.2	93.4636	17148.2	92.4044	17148.2	83.7083	17148.2	88.6004	17148.2	78.7245	17148.2	87.9896	17148.2	78.5336	17148.2	86.1454	17148.2	81.797	17148.2	83.4493	17148.2	74.1552	17148.2	69.5712	17148.2	79.344	17148.2	76.8675	17148.2	78.1051	17148.2	73.7126	17148.2	74.7857	17148.2	73.494	17148.2	72.6878	17148.2	69.043	17148.2	74.9067	17148.2	67.1022	17148.2	73.6851	17148.2	66.8162	17148.2	76.8369	17148.2	73.4952	17148.2	76.9664	17148.2	78.8355	17148.2	76.8825	17148.2	86.1298
17753.2	105.251	17753.2	105.535	17753.2	103.804	17753.2	103.833	17753.2	98.6499	17753.2	98.1096	17753.2	91.3958	17753.2	90.8844	17753.2	77.8644	17753.2	85.7048	17753.2	76.2769	17753.2	85.357	17753.2	78.0521	17753.2	82.6522	17753.2	83.1272	17753.2	80.7215	17753.2	77.6054	17753.2	71.8274	17753.2	79.3279	17753.2	75.5053	17753.2	77.8076	17753.2	72.8982	17753.2	75.1471	17753.2	73.486	17753.2	67.8504	17753.2	68.6564	17753.2	69.8619	17753.2	66.2097	17753.2	69.9315	17753.2	64.97	17753.2	74.69	17753.2	70.8342	17753.2	74.4942	17753.2	77.7747	17753.2	76.6044	17753.2	85.1091
18379.4	106.112	18379.4	106.741	18379.4	104.537	18379.4	104.456	18379.4	99.2842	18379.4	97.07	18379.4	92.8391	18379.4	87.761	18379.4	77.5815	18379.4	83.38	18379.4	77.8172	18379.4	84.5595	18379.4	76.8722	18379.4	81.4703	18379.4	83.8072	18379.4	81.2894	18379.4	79.8516	18379.4	76.4859	18379.4	80.9346	18379.4	77.512	18379.4	79.1689	18379.4	73.5309	18379.4	77.9664	18379.4	74.1441	18379.4	71.225	18379.4	69.3972	18379.4	66.9011	18379.4	66.3771	18379.4	68.8903	18379.4	65.9667	18379.4	74.8363	18379.4	71.831	18379.4	76.3312	18379.4	78.2175	18379.4	75.0078	18379.4	85.5903
19027.6	107.067	19027.6	107.323	19027.6	105.868	19027.6	104.119	19027.6	101.053	19027.6	95.0316	19027.6	94.1705	19027.6	85.8567	19027.6	77.7031	19027.6	84.1613	19027.6	77.2925	19027.6	86.3328	19027.6	75.6201	19027.6	83.3967	19027.6	84.5766	19027.6	82.5787	19027.6	82.7813	19027.6	78.5514	19027.6	83.3802	19027.6	78.9278	19027.6	80.7194	19027.6	74.2778	19027.6	79.1404	19027.6	75.9269	19027.6	72.0295	19027.6	71.2563	19027.6	69.1321	19027.6	66.3759	19027.6	72.9657	19027.6	64.668	19027.6	77.4195	19027.6	71.3579	19027.6	78.1095	19027.6	78.5447	19027.6	75.1603	19027.6	86.7941
19698.5	106.284	19698.5	105.866	19698.5	105.744	19698.5	101.099	19698.5	100.687	19698.5	90.8165	19698.5	92.822	19698.5	86.2274	19698.5	76.3804	19698.5	82.9811	19698.5	79.9073	19698.5	84.4243	19698.5	72.8021	19698.5	80.9656	19698.5	82.7264	19698.5	78.5088	19698.5	82.2529	19698.5	74.2539	19698.5	82.7208	19698.5	75.9998	19698.5	79.7145	19698.5	71.7059	19698.5	77.8862	19698.5	74.1167	19698.5	68.7994	19698.5	66.9202	19698.5	64.2958	19698.5	59.0447	19698.5	69.8209	19698.5	57.6215	19698.5	75.3887	19698.5	71.7951	19698.5	76.3728	19698.5	75.0077	19698.5	76.6414	19698.5	87.0995
19999.5	105.06	19999.5	104.189	19999.5	104.743	19999.5	99.0766	19999.5	100.014	19999.5	89.4739	19999.5	90.9678	19999.5	85.696	19999.5	76.4039	19999.5	80.4435	19999.5	76.7557	19999.5	83.1889	19999.5	75.2184	19999.5	80.2405	19999.5	85.1046	19999.5	72.4879	19999.5	79.2331	19999.5	72.117	19999.5	81.0062	19999.5	74.8349	19999.5	76.6029	19999.5	61.3311	19999.5	74.5992	19999.5	71.8025	19999.5	62.8152	19999.5	63.9857	19999.5	64.2259	19999.5	61.5569	19999.5	71.2383	19999.5	65.4206	19999.5	73.4261	19999.5	69.536	19999.5	74.3144	19999.5	72.2059	19999.5	75.1282	19999.5	86.2856
