"SPL Horizontal"
"On-Axis"		"10°"		"-10°"		"20°"		"-20°"		"30°"		"-30°"		"40°"		"-40°"		"50°"		"-50°"		"60°"		"-60°"		"70°"		"-70°"		"80°"		"-80°"		"90°"		"-90°"		"100°"		"-100°"		"110°"		"-110°"		"120°"		"-120°"		"130°"		"-130°"		"140°"		"-140°"		"150°"		"-150°"		"160°"		"-160°"		"170°"		"-170°"		"180°"
"Frequency / Hz"	"Sound Pressure Level / dB (re 20 µPa/V)  [0.3V at 1m]"	"Frequency / Hz"	"Sound Pressure Level / dB (re 20 µPa/V)  [0.3V at 1m]"	"Frequency / Hz"	"Sound Pressure Level / dB (re 20 µPa/V)  [0.3V at 1m]"	"Frequency / Hz"	"Sound Pressure Level / dB (re 20 µPa/V)  [0.3V at 1m]"	"Frequency / Hz"	"Sound Pressure Level / dB (re 20 µPa/V)  [0.3V at 1m]"	"Frequency / Hz"	"Sound Pressure Level / dB (re 20 µPa/V)  [0.3V at 1m]"	"Frequency / Hz"	"Sound Pressure Level / dB (re 20 µPa/V)  [0.3V at 1m]"	"Frequency / Hz"	"Sound Pressure Level / dB (re 20 µPa/V)  [0.3V at 1m]"	"Frequency / Hz"	"Sound Pressure Level / dB (re 20 µPa/V)  [0.3V at 1m]"	"Frequency / Hz"	"Sound Pressure Level / dB (re 20 µPa/V)  [0.3V at 1m]"	"Frequency / Hz"	"Sound Pressure Level / dB (re 20 µPa/V)  [0.3V at 1m]"	"Frequency / Hz"	"Sound Pressure Level / dB (re 20 µPa/V)  [0.3V at 1m]"	"Frequency / Hz"	"Sound Pressure Level / dB (re 20 µPa/V)  [0.3V at 1m]"	"Frequency / Hz"	"Sound Pressure Level / dB (re 20 µPa/V)  [0.3V at 1m]"	"Frequency / Hz"	"Sound Pressure Level / dB (re 20 µPa/V)  [0.3V at 1m]"	"Frequency / Hz"	"Sound Pressure Level / dB (re 20 µPa/V)  [0.3V at 1m]"	"Frequency / Hz"	"Sound Pressure Level / dB (re 20 µPa/V)  [0.3V at 1m]"	"Frequency / Hz"	"Sound Pressure Level / dB (re 20 µPa/V)  [0.3V at 1m]"	"Frequency / Hz"	"Sound Pressure Level / dB (re 20 µPa/V)  [0.3V at 1m]"	"Frequency / Hz"	"Sound Pressure Level / dB (re 20 µPa/V)  [0.3V at 1m]"	"Frequency / Hz"	"Sound Pressure Level / dB (re 20 µPa/V)  [0.3V at 1m]"	"Frequency / Hz"	"Sound Pressure Level / dB (re 20 µPa/V)  [0.3V at 1m]"	"Frequency / Hz"	"Sound Pressure Level / dB (re 20 µPa/V)  [0.3V at 1m]"	"Frequency / Hz"	"Sound Pressure Level / dB (re 20 µPa/V)  [0.3V at 1m]"	"Frequency / Hz"	"Sound Pressure Level / dB (re 20 µPa/V)  [0.3V at 1m]"	"Frequency / Hz"	"Sound Pressure Level / dB (re 20 µPa/V)  [0.3V at 1m]"	"Frequency / Hz"	"Sound Pressure Level / dB (re 20 µPa/V)  [0.3V at 1m]"	"Frequency / Hz"	"Sound Pressure Level / dB (re 20 µPa/V)  [0.3V at 1m]"	"Frequency / Hz"	"Sound Pressure Level / dB (re 20 µPa/V)  [0.3V at 1m]"	"Frequency / Hz"	"Sound Pressure Level / dB (re 20 µPa/V)  [0.3V at 1m]"	"Frequency / Hz"	"Sound Pressure Level / dB (re 20 µPa/V)  [0.3V at 1m]"	"Frequency / Hz"	"Sound Pressure Level / dB (re 20 µPa/V)  [0.3V at 1m]"	"Frequency / Hz"	"Sound Pressure Level / dB (re 20 µPa/V)  [0.3V at 1m]"	"Frequency / Hz"	"Sound Pressure Level / dB (re 20 µPa/V)  [0.3V at 1m]"	"Frequency / Hz"	"Sound Pressure Level / dB (re 20 µPa/V)  [0.3V at 1m]"	"Frequency / Hz"	"Sound Pressure Level / dB (re 20 µPa/V)  [0.3V at 1m]"
20.5078	96.1314	20.5078	96.1226	20.5078	96.1143	20.5078	96.0895	20.5078	96.0702	20.5078	96.0334	20.5078	95.9987	20.5078	95.9557	20.5078	95.9007	20.5078	95.8575	20.5078	95.7786	20.5078	95.7403	20.5078	95.6364	20.5078	95.6066	20.5078	95.4791	20.5078	95.4595	20.5078	95.3128	20.5078	95.303	20.5078	95.144	20.5078	95.142	20.5078	94.9789	20.5078	94.9816	20.5078	94.8231	20.5078	94.8272	20.5078	94.6815	20.5078	94.6844	20.5078	94.5578	20.5078	94.5581	20.5078	94.4549	20.5078	94.4529	20.5078	94.3752	20.5078	94.372	20.5078	94.3204	20.5078	94.3177	20.5078	94.292	20.5078	94.291
21.2402	98.1335	21.2402	98.1328	21.2402	98.1083	21.2402	98.1067	21.2402	98.0572	21.2402	98.0564	21.2402	97.9809	21.2402	97.9833	21.2402	97.8813	21.2402	97.8892	21.2402	97.7609	21.2402	97.7764	21.2402	97.6234	21.2402	97.6474	21.2402	97.4731	21.2402	97.5056	21.2402	97.3152	21.2402	97.3546	21.2402	97.1551	21.2402	97.1987	21.2402	96.9985	21.2402	97.0427	21.2402	96.8503	21.2402	96.8914	21.2402	96.7152	21.2402	96.7501	21.2402	96.5968	21.2402	96.6237	21.2402	96.4982	21.2402	96.5169	21.2402	96.4219	21.2402	96.4334	21.2402	96.3701	21.2402	96.3759	21.2402	96.3444	21.2402	96.3461
21.9727	99.3674	21.9727	99.345	21.9727	99.3635	21.9727	99.2972	21.9727	99.3329	21.9727	99.225	21.9727	99.2758	21.9727	99.1296	21.9727	99.1931	21.9727	99.0129	21.9727	99.0865	21.9727	98.877	21.9727	98.9584	21.9727	98.7246	21.9727	98.8125	21.9727	98.5594	21.9727	98.6529	21.9727	98.3861	21.9727	98.4847	21.9727	98.21	21.9727	98.3132	21.9727	98.0371	21.9727	98.1438	21.9727	97.8739	21.9727	97.9816	21.9727	97.7266	21.9727	97.8314	21.9727	97.6013	21.9727	97.6975	21.9727	97.5031	21.9727	97.5839	21.9727	97.4356	21.9727	97.4943	21.9727	97.4012	21.9727	97.4321	21.9727	97.4003
22.7051	100.207	22.7051	100.182	22.7051	100.209	22.7051	100.135	22.7051	100.188	22.7051	100.069	22.7051	100.144	22.7051	99.9851	22.7051	100.077	22.7051	99.8846	22.7051	99.9884	22.7051	99.7701	22.7051	99.8806	22.7051	99.6442	22.7051	99.757	22.7051	99.5104	22.7051	99.6219	22.7051	99.3725	22.7051	99.48	22.7051	99.2352	22.7051	99.3366	22.7051	99.1031	22.7051	99.1971	22.7051	98.9813	22.7051	99.0664	22.7051	98.8741	22.7051	98.9487	22.7051	98.785	22.7051	98.8475	22.7051	98.7164	22.7051	98.765	22.7051	98.6696	22.7051	98.7029	22.7051	98.6451	22.7051	98.6619	22.7051	98.6426
23.4375	100.85	23.4375	100.822	23.4375	100.858	23.4375	100.776	23.4375	100.844	23.4375	100.712	23.4375	100.81	23.4375	100.632	23.4375	100.755	23.4375	100.538	23.4375	100.681	23.4375	100.432	23.4375	100.59	23.4375	100.317	23.4375	100.484	23.4375	100.197	23.4375	100.368	23.4375	100.075	23.4375	100.247	23.4375	99.957	23.4375	100.125	23.4375	99.847	23.4375	100.007	23.4375	99.7496	23.4375	99.8973	23.4375	99.6684	23.4375	99.7992	23.4375	99.6054	23.4375	99.7151	23.4375	99.5611	23.4375	99.6463	23.4375	99.5351	23.4375	99.5931	23.4375	99.5261	23.4375	99.5555	23.4375	99.5331
24.1699	101.358	24.1699	101.342	24.1699	101.353	24.1699	101.305	24.1699	101.326	24.1699	101.249	24.1699	101.278	24.1699	101.175	24.1699	101.211	24.1699	101.085	24.1699	101.126	24.1699	100.982	24.1699	101.026	24.1699	100.869	24.1699	100.915	24.1699	100.75	24.1699	100.796	24.1699	100.63	24.1699	100.676	24.1699	100.515	24.1699	100.56	24.1699	100.409	24.1699	100.452	24.1699	100.318	24.1699	100.357	24.1699	100.244	24.1699	100.278	24.1699	100.187	24.1699	100.215	24.1699	100.148	24.1699	100.169	24.1699	100.124	24.1699	100.138	24.1699	100.112	24.1699	100.119	24.1699	100.111
25.6348	102.442	25.6348	102.411	25.6348	102.448	25.6348	102.356	25.6348	102.428	25.6348	102.279	25.6348	102.382	25.6348	102.181	25.6348	102.311	25.6348	102.065	25.6348	102.216	25.6348	101.934	25.6348	102.1	25.6348	101.791	25.6348	101.966	25.6348	101.641	25.6348	101.819	25.6348	101.489	25.6348	101.664	25.6348	101.341	25.6348	101.508	25.6348	101.201	25.6348	101.355	25.6348	101.075	25.6348	101.212	25.6348	100.966	25.6348	101.084	25.6348	100.879	25.6348	100.974	25.6348	100.813	25.6348	100.885	25.6348	100.769	25.6348	100.818	25.6348	100.748	25.6348	100.772	25.6348	100.749
26.3672	102.649	26.3672	102.617	26.3672	102.656	26.3672	102.56	26.3672	102.635	26.3672	102.478	26.3672	102.588	26.3672	102.375	26.3672	102.514	26.3672	102.251	26.3672	102.416	26.3672	102.111	26.3672	102.295	26.3672	101.958	26.3672	102.155	26.3672	101.797	26.3672	102.001	26.3672	101.634	26.3672	101.839	26.3672	101.476	26.3672	101.675	26.3672	101.327	26.3672	101.516	26.3672	101.196	26.3672	101.367	26.3672	101.084	26.3672	101.234	26.3672	100.997	26.3672	101.121	26.3672	100.934	26.3672	101.029	26.3672	100.894	26.3672	100.959	26.3672	100.878	26.3672	100.91	26.3672	100.883
27.0996	102.922	27.0996	102.891	27.0996	102.925	27.0996	102.831	27.0996	102.898	27.0996	102.745	27.0996	102.843	27.0996	102.635	27.0996	102.759	27.0996	102.501	27.0996	102.649	27.0996	102.348	27.0996	102.514	27.0996	102.179	27.0996	102.36	27.0996	101.999	27.0996	102.189	27.0996	101.815	27.0996	102.009	27.0996	101.632	27.0996	101.826	27.0996	101.458	27.0996	101.646	27.0996	101.3	27.0996	101.476	27.0996	101.163	27.0996	101.321	27.0996	101.051	27.0996	101.187	27.0996	100.967	27.0996	101.075	27.0996	100.913	27.0996	100.988	27.0996	100.889	27.0996	100.927	27.0996	100.894
27.832	103.173	27.832	103.144	27.832	103.174	27.832	103.086	27.832	103.144	27.832	103	27.832	103.085	27.832	102.889	27.832	102.997	27.832	102.753	27.832	102.882	27.832	102.596	27.832	102.741	27.832	102.422	27.832	102.578	27.832	102.234	27.832	102.398	27.832	102.039	27.832	102.206	27.832	101.843	27.832	102.01	27.832	101.654	27.832	101.816	27.832	101.479	27.832	101.631	27.832	101.324	27.832	101.462	27.832	101.195	27.832	101.314	27.832	101.095	27.832	101.19	27.832	101.029	27.832	101.095	27.832	100.996	27.832	101.03	27.832	100.996
29.2969	103.626	29.2969	103.6	29.2969	103.623	29.2969	103.543	29.2969	103.588	29.2969	103.458	29.2969	103.523	29.2969	103.346	29.2969	103.429	29.2969	103.209	29.2969	103.306	29.2969	103.051	29.2969	103.157	29.2969	102.873	29.2969	102.987	29.2969	102.682	29.2969	102.799	29.2969	102.483	29.2969	102.599	29.2969	102.282	29.2969	102.393	29.2969	102.085	29.2969	102.189	29.2969	101.899	29.2969	101.993	29.2969	101.731	29.2969	101.812	29.2969	101.586	29.2969	101.652	29.2969	101.469	29.2969	101.52	29.2969	101.384	29.2969	101.418	29.2969	101.336	29.2969	101.353	29.2969	101.325
30.0293	103.542	30.0293	103.522	30.0293	103.533	30.0293	103.473	30.0293	103.494	30.0293	103.395	30.0293	103.426	30.0293	103.291	30.0293	103.329	30.0293	103.162	30.0293	103.206	30.0293	103.01	30.0293	103.059	30.0293	102.84	30.0293	102.89	30.0293	102.656	30.0293	102.707	30.0293	102.464	30.0293	102.513	30.0293	102.27	30.0293	102.316	30.0293	102.081	30.0293	102.123	30.0293	101.903	30.0293	101.941	30.0293	101.743	30.0293	101.775	30.0293	101.606	30.0293	101.632	30.0293	101.495	30.0293	101.515	30.0293	101.415	30.0293	101.428	30.0293	101.367	30.0293	101.374	30.0293	101.353
31.4941	103.764	31.4941	103.744	31.4941	103.752	31.4941	103.694	31.4941	103.71	31.4941	103.615	31.4941	103.638	31.4941	103.508	31.4941	103.537	31.4941	103.376	31.4941	103.409	31.4941	103.222	31.4941	103.258	31.4941	103.049	31.4941	103.088	31.4941	102.865	31.4941	102.903	31.4941	102.673	31.4941	102.711	31.4941	102.482	31.4941	102.518	31.4941	102.299	31.4941	102.332	31.4941	102.13	31.4941	102.159	31.4941	101.981	31.4941	102.006	31.4941	101.856	31.4941	101.877	31.4941	101.759	31.4941	101.775	31.4941	101.69	31.4941	101.7	31.4941	101.65	31.4941	101.655	31.4941	101.638
32.2266	103.933	32.2266	103.914	32.2266	103.92	32.2266	103.865	32.2266	103.876	32.2266	103.786	32.2266	103.802	32.2266	103.678	32.2266	103.699	32.2266	103.546	32.2266	103.57	32.2266	103.39	32.2266	103.416	32.2266	103.217	32.2266	103.243	32.2266	103.03	32.2266	103.056	32.2266	102.838	32.2266	102.862	32.2266	102.645	32.2266	102.668	32.2266	102.46	32.2266	102.48	32.2266	102.289	32.2266	102.307	32.2266	102.139	32.2266	102.155	32.2266	102.013	32.2266	102.026	32.2266	101.915	32.2266	101.925	32.2266	101.846	32.2266	101.853	32.2266	101.805	32.2266	101.809	32.2266	101.793
33.6914	104.13	33.6914	104.11	33.6914	104.118	33.6914	104.059	33.6914	104.074	33.6914	103.978	33.6914	103.999	33.6914	103.868	33.6914	103.894	33.6914	103.732	33.6914	103.762	33.6914	103.574	33.6914	103.606	33.6914	103.397	33.6914	103.43	33.6914	103.207	33.6914	103.24	33.6914	103.011	33.6914	103.043	33.6914	102.817	33.6914	102.847	33.6914	102.631	33.6914	102.659	33.6914	102.461	33.6914	102.486	33.6914	102.312	33.6914	102.335	33.6914	102.19	33.6914	102.209	33.6914	102.095	33.6914	102.111	33.6914	102.029	33.6914	102.041	33.6914	101.992	33.6914	101.998	33.6914	101.982
34.4238	104.274	34.4238	104.256	34.4238	104.259	34.4238	104.207	34.4238	104.212	34.4238	104.126	34.4238	104.134	34.4238	104.016	34.4238	104.027	34.4238	103.879	34.4238	103.891	34.4238	103.719	34.4238	103.732	34.4238	103.539	34.4238	103.554	34.4238	103.347	34.4238	103.363	34.4238	103.148	34.4238	103.165	34.4238	102.95	34.4238	102.968	34.4238	102.761	34.4238	102.781	34.4238	102.588	34.4238	102.609	34.4238	102.437	34.4238	102.46	34.4238	102.313	34.4238	102.335	34.4238	102.219	34.4238	102.238	34.4238	102.153	34.4238	102.168	34.4238	102.117	34.4238	102.125	34.4238	102.108
35.8887	104.657	35.8887	104.639	35.8887	104.64	35.8887	104.589	35.8887	104.588	35.8887	104.505	35.8887	104.504	35.8887	104.391	35.8887	104.389	35.8887	104.249	35.8887	104.244	35.8887	104.081	35.8887	104.075	35.8887	103.894	35.8887	103.885	35.8887	103.693	35.8887	103.681	35.8887	103.486	35.8887	103.471	35.8887	103.28	35.8887	103.262	35.8887	103.082	35.8887	103.063	35.8887	102.901	35.8887	102.881	35.8887	102.742	35.8887	102.723	35.8887	102.609	35.8887	102.593	35.8887	102.505	35.8887	102.493	35.8887	102.431	35.8887	102.423	35.8887	102.386	35.8887	102.382	35.8887	102.37
37.3535	104.79	37.3535	104.773	37.3535	104.772	37.3535	104.721	37.3535	104.719	37.3535	104.635	37.3535	104.632	37.3535	104.517	37.3535	104.514	37.3535	104.37	37.3535	104.367	37.3535	104.199	37.3535	104.195	37.3535	104.009	37.3535	104.005	37.3535	103.808	37.3535	103.801	37.3535	103.603	37.3535	103.593	37.3535	103.402	37.3535	103.389	37.3535	103.215	37.3535	103.197	37.3535	103.047	37.3535	103.024	37.3535	102.904	37.3535	102.878	37.3535	102.787	37.3535	102.761	37.3535	102.698	37.3535	102.674	37.3535	102.635	37.3535	102.616	37.3535	102.595	37.3535	102.586	37.3535	102.579
38.8184	104.966	38.8184	104.952	38.8184	104.945	38.8184	104.901	38.8184	104.888	38.8184	104.815	38.8184	104.796	38.8184	104.695	38.8184	104.673	38.8184	104.545	38.8184	104.519	38.8184	104.367	38.8184	104.341	38.8184	104.169	38.8184	104.143	38.8184	103.956	38.8184	103.933	38.8184	103.738	38.8184	103.717	38.8184	103.522	38.8184	103.506	38.8184	103.319	38.8184	103.308	38.8184	103.136	38.8184	103.131	38.8184	102.98	38.8184	102.98	38.8184	102.854	38.8184	102.858	38.8184	102.761	38.8184	102.767	38.8184	102.698	38.8184	102.703	38.8184	102.662	38.8184	102.666	38.8184	102.652
39.5508	105.07	39.5508	105.053	39.5508	105.049	39.5508	105	39.5508	104.993	39.5508	104.911	39.5508	104.901	39.5508	104.788	39.5508	104.776	39.5508	104.634	39.5508	104.621	39.5508	104.453	39.5508	104.44	39.5508	104.25	39.5508	104.24	39.5508	104.033	39.5508	104.026	39.5508	103.811	39.5508	103.807	39.5508	103.592	39.5508	103.592	39.5508	103.386	39.5508	103.391	39.5508	103.202	39.5508	103.211	39.5508	103.045	39.5508	103.058	39.5508	102.921	39.5508	102.935	39.5508	102.829	39.5508	102.843	39.5508	102.767	39.5508	102.779	39.5508	102.734	39.5508	102.74	39.5508	102.726
41.0156	105.26	41.0156	105.241	41.0156	105.241	41.0156	105.183	41.0156	105.183	41.0156	105.088	41.0156	105.089	41.0156	104.957	41.0156	104.959	41.0156	104.792	41.0156	104.798	41.0156	104.599	41.0156	104.61	41.0156	104.383	41.0156	104.4	41.0156	104.152	41.0156	104.176	41.0156	103.916	41.0156	103.946	41.0156	103.684	41.0156	103.721	41.0156	103.467	41.0156	103.51	41.0156	103.274	41.0156	103.321	41.0156	103.112	41.0156	103.161	41.0156	102.985	41.0156	103.032	41.0156	102.894	41.0156	102.934	41.0156	102.836	41.0156	102.866	41.0156	102.807	41.0156	102.823	41.0156	102.803
42.4805	105.512	42.4805	105.495	42.4805	105.486	42.4805	105.437	42.4805	105.418	42.4805	105.337	42.4805	105.311	42.4805	105.198	42.4805	105.167	42.4805	105.02	42.4805	104.987	42.4805	104.81	42.4805	104.777	42.4805	104.572	42.4805	104.543	42.4805	104.315	42.4805	104.292	42.4805	104.05	42.4805	104.034	42.4805	103.786	42.4805	103.781	42.4805	103.537	42.4805	103.542	42.4805	103.314	42.4805	103.329	42.4805	103.125	42.4805	103.148	42.4805	102.976	42.4805	103.002	42.4805	102.868	42.4805	102.894	42.4805	102.797	42.4805	102.818	42.4805	102.761	42.4805	102.773	42.4805	102.754
43.9453	105.875	43.9453	105.854	43.9453	105.851	43.9453	105.788	43.9453	105.781	43.9453	105.676	43.9453	105.667	43.9453	105.519	43.9453	105.51	43.9453	105.319	43.9453	105.312	43.9453	105.078	43.9453	105.076	43.9453	104.802	43.9453	104.806	43.9453	104.497	43.9453	104.511	43.9453	104.172	43.9453	104.198	43.9453	103.841	43.9453	103.879	43.9453	103.515	43.9453	103.567	43.9453	103.212	43.9453	103.274	43.9453	102.945	43.9453	103.014	43.9453	102.725	43.9453	102.795	43.9453	102.558	43.9453	102.621	43.9453	102.447	43.9453	102.495	43.9453	102.388	43.9453	102.414	43.9453	102.378
45.4102	106.006	45.4102	105.994	45.4102	105.976	45.4102	105.939	45.4102	105.902	45.4102	105.841	45.4102	105.787	45.4102	105.7	45.4102	105.631	45.4102	105.516	45.4102	105.435	45.4102	105.292	45.4102	105.201	45.4102	105.029	45.4102	104.932	45.4102	104.731	45.4102	104.632	45.4102	104.403	45.4102	104.306	45.4102	104.053	45.4102	103.964	45.4102	103.691	45.4102	103.614	45.4102	103.331	45.4102	103.268	45.4102	102.988	45.4102	102.942	45.4102	102.679	45.4102	102.648	45.4102	102.42	45.4102	102.402	45.4102	102.225	45.4102	102.217	45.4102	102.105	45.4102	102.101	45.4102	102.063
47.6074	105.657	47.6074	105.658	47.6074	105.622	47.6074	105.626	47.6074	105.554	47.6074	105.56	47.6074	105.454	47.6074	105.461	47.6074	105.325	47.6074	105.332	47.6074	105.169	47.6074	105.176	47.6074	104.991	47.6074	104.996	47.6074	104.796	47.6074	104.796	47.6074	104.589	47.6074	104.582	47.6074	104.376	47.6074	104.361	47.6074	104.163	47.6074	104.139	47.6074	103.957	47.6074	103.925	47.6074	103.765	47.6074	103.726	47.6074	103.592	47.6074	103.55	47.6074	103.443	47.6074	103.403	47.6074	103.324	47.6074	103.29	47.6074	103.239	47.6074	103.216	47.6074	103.191	47.6074	103.183
49.0723	105.704	49.0723	105.709	49.0723	105.664	49.0723	105.679	49.0723	105.59	49.0723	105.614	49.0723	105.485	49.0723	105.517	49.0723	105.352	49.0723	105.39	49.0723	105.195	49.0723	105.237	49.0723	105.018	49.0723	105.062	49.0723	104.829	49.0723	104.871	49.0723	104.632	49.0723	104.672	49.0723	104.437	49.0723	104.472	49.0723	104.25	49.0723	104.278	49.0723	104.078	49.0723	104.097	49.0723	103.925	49.0723	103.935	49.0723	103.795	49.0723	103.797	49.0723	103.689	49.0723	103.686	49.0723	103.609	49.0723	103.604	49.0723	103.555	49.0723	103.55	49.0723	103.527	49.0723	103.525
50.5371	105.68	50.5371	105.684	50.5371	105.642	50.5371	105.653	50.5371	105.571	50.5371	105.589	50.5371	105.469	50.5371	105.493	50.5371	105.338	50.5371	105.368	50.5371	105.185	50.5371	105.218	50.5371	105.013	50.5371	105.049	50.5371	104.831	50.5371	104.867	50.5371	104.645	50.5371	104.679	50.5371	104.463	50.5371	104.494	50.5371	104.294	50.5371	104.318	50.5371	104.143	50.5371	104.158	50.5371	104.014	50.5371	104.02	50.5371	103.91	50.5371	103.907	50.5371	103.828	50.5371	103.819	50.5371	103.769	50.5371	103.758	50.5371	103.729	50.5371	103.72	50.5371	103.707	50.5371	103.704
52.7344	105.802	52.7344	105.8	52.7344	105.768	52.7344	105.76	52.7344	105.697	52.7344	105.684	52.7344	105.591	52.7344	105.576	52.7344	105.453	52.7344	105.438	52.7344	105.289	52.7344	105.276	52.7344	105.105	52.7344	105.096	52.7344	104.908	52.7344	104.906	52.7344	104.708	52.7344	104.714	52.7344	104.516	52.7344	104.531	52.7344	104.34	52.7344	104.364	52.7344	104.19	52.7344	104.221	52.7344	104.071	52.7344	104.104	52.7344	103.983	52.7344	104.016	52.7344	103.923	52.7344	103.953	52.7344	103.888	52.7344	103.912	52.7344	103.871	52.7344	103.886	52.7344	103.867	52.7344	103.872
54.1992	105.842	54.1992	105.842	54.1992	105.802	54.1992	105.801	54.1992	105.721	54.1992	105.722	54.1992	105.604	54.1992	105.607	54.1992	105.453	54.1992	105.46	54.1992	105.273	54.1992	105.286	54.1992	105.073	54.1992	105.094	54.1992	104.861	54.1992	104.892	54.1992	104.647	54.1992	104.689	54.1992	104.444	54.1992	104.496	54.1992	104.262	54.1992	104.323	54.1992	104.111	54.1992	104.177	54.1992	103.994	54.1992	104.062	54.1992	103.914	54.1992	103.979	54.1992	103.865	54.1992	103.922	54.1992	103.842	54.1992	103.886	54.1992	103.835	54.1992	103.863	54.1992	103.839	54.1992	103.849
56.3965	105.822	56.3965	105.826	56.3965	105.774	56.3965	105.785	56.3965	105.681	56.3965	105.702	56.3965	105.547	56.3965	105.579	56.3965	105.374	56.3965	105.421	56.3965	105.169	56.3965	105.233	56.3965	104.939	56.3965	105.023	56.3965	104.694	56.3965	104.799	56.3965	104.446	56.3965	104.573	56.3965	104.209	56.3965	104.355	56.3965	103.997	56.3965	104.156	56.3965	103.82	56.3965	103.985	56.3965	103.685	56.3965	103.846	56.3965	103.593	56.3965	103.741	56.3965	103.541	56.3965	103.666	56.3965	103.519	56.3965	103.614	56.3965	103.519	56.3965	103.578	56.3965	103.532	56.3965	103.552
58.5938	105.67	58.5938	105.672	58.5938	105.621	58.5938	105.628	58.5938	105.526	58.5938	105.54	58.5938	105.386	58.5938	105.411	58.5938	105.206	58.5938	105.246	58.5938	104.99	58.5938	105.051	58.5938	104.747	58.5938	104.833	58.5938	104.487	58.5938	104.604	58.5938	104.224	58.5938	104.372	58.5938	103.973	58.5938	104.151	58.5938	103.748	58.5938	103.95	58.5938	103.562	58.5938	103.779	58.5938	103.423	58.5938	103.642	58.5938	103.332	58.5938	103.537	58.5938	103.285	58.5938	103.462	58.5938	103.273	58.5938	103.408	58.5938	103.283	58.5938	103.368	58.5938	103.306	58.5938	103.335
60.0586	105.592	60.0586	105.594	60.0586	105.54	60.0586	105.549	60.0586	105.439	60.0586	105.457	60.0586	105.292	60.0586	105.322	60.0586	105.102	60.0586	105.15	60.0586	104.873	60.0586	104.946	60.0586	104.616	60.0586	104.72	60.0586	104.342	60.0586	104.482	60.0586	104.063	60.0586	104.244	60.0586	103.797	60.0586	104.018	60.0586	103.56	60.0586	103.816	60.0586	103.366	60.0586	103.645	60.0586	103.225	60.0586	103.51	60.0586	103.137	60.0586	103.409	60.0586	103.099	60.0586	103.336	60.0586	103.099	60.0586	103.282	60.0586	103.122	60.0586	103.238	60.0586	103.158	60.0586	103.198
62.2559	105.622	62.2559	105.599	62.2559	105.592	62.2559	105.525	62.2559	105.511	62.2559	105.403	62.2559	105.38	62.2559	105.236	62.2559	105.202	62.2559	105.031	62.2559	104.983	62.2559	104.794	62.2559	104.731	62.2559	104.537	62.2559	104.455	62.2559	104.273	62.2559	104.171	62.2559	104.015	62.2559	103.895	62.2559	103.78	62.2559	103.644	62.2559	103.58	62.2559	103.434	62.2559	103.424	62.2559	103.277	62.2559	103.315	62.2559	103.175	62.2559	103.247	62.2559	103.124	62.2559	103.211	62.2559	103.112	62.2559	103.193	62.2559	103.124	62.2559	103.181	62.2559	103.145	62.2559	103.166
64.4531	105.918	64.4531	105.896	64.4531	105.883	64.4531	105.815	64.4531	105.792	64.4531	105.677	64.4531	105.645	64.4531	105.484	64.4531	105.447	64.4531	105.24	64.4531	105.202	64.4531	104.951	64.4531	104.918	64.4531	104.626	64.4531	104.606	64.4531	104.279	64.4531	104.279	64.4531	103.929	64.4531	103.957	64.4531	103.596	64.4531	103.658	64.4531	103.302	64.4531	103.402	64.4531	103.069	64.4531	103.201	64.4531	102.907	64.4531	103.06	64.4531	102.816	64.4531	102.974	64.4531	102.786	64.4531	102.928	64.4531	102.796	64.4531	102.903	64.4531	102.826	64.4531	102.883	64.4531	102.858
66.6504	106.383	66.6504	106.385	66.6504	106.328	66.6504	106.333	66.6504	106.221	66.6504	106.229	66.6504	106.061	66.6504	106.074	66.6504	105.851	66.6504	105.869	66.6504	105.594	66.6504	105.618	66.6504	105.295	66.6504	105.325	66.6504	104.959	66.6504	104.995	66.6504	104.599	66.6504	104.64	66.6504	104.225	66.6504	104.272	66.6504	103.855	66.6504	103.905	66.6504	103.505	66.6504	103.559	66.6504	103.195	66.6504	103.248	66.6504	102.938	66.6504	102.988	66.6504	102.742	66.6504	102.786	66.6504	102.607	66.6504	102.641	66.6504	102.527	66.6504	102.549	66.6504	102.493	66.6504	102.501
69.5801	106.233	69.5801	106.217	69.5801	106.202	69.5801	106.155	69.5801	106.124	69.5801	106.048	69.5801	106.003	69.5801	105.899	69.5801	105.84	69.5801	105.713	69.5801	105.642	69.5801	105.496	69.5801	105.415	69.5801	105.256	69.5801	105.168	69.5801	105.002	69.5801	104.912	69.5801	104.747	69.5801	104.66	69.5801	104.501	69.5801	104.424	69.5801	104.277	69.5801	104.215	69.5801	104.084	69.5801	104.041	69.5801	103.93	69.5801	103.906	69.5801	103.815	69.5801	103.808	69.5801	103.737	69.5801	103.741	69.5801	103.691	69.5801	103.699	69.5801	103.669	69.5801	103.675	69.5801	103.665
71.7773	106.245	71.7773	106.236	71.7773	106.201	71.7773	106.176	71.7773	106.106	71.7773	106.066	71.7773	105.963	71.7773	105.909	71.7773	105.776	71.7773	105.713	71.7773	105.552	71.7773	105.484	71.7773	105.3	71.7773	105.233	71.7773	105.034	71.7773	104.971	71.7773	104.766	71.7773	104.714	71.7773	104.513	71.7773	104.474	71.7773	104.289	71.7773	104.265	71.7773	104.107	71.7773	104.096	71.7773	103.971	71.7773	103.972	71.7773	103.882	71.7773	103.891	71.7773	103.834	71.7773	103.845	71.7773	103.813	71.7773	103.824	71.7773	103.81	71.7773	103.817	71.7773	103.812	71.7773	103.815
73.9746	106.233	73.9746	106.228	73.9746	106.18	73.9746	106.166	73.9746	106.072	73.9746	106.051	73.9746	105.91	73.9746	105.886	73.9746	105.701	73.9746	105.678	73.9746	105.451	73.9746	105.435	73.9746	105.171	73.9746	105.17	73.9746	104.876	73.9746	104.896	73.9746	104.583	73.9746	104.628	73.9746	104.309	73.9746	104.383	73.9746	104.075	73.9746	104.176	73.9746	103.893	73.9746	104.015	73.9746	103.77	73.9746	103.903	73.9746	103.705	73.9746	103.837	73.9746	103.687	73.9746	103.805	73.9746	103.7	73.9746	103.793	73.9746	103.728	73.9746	103.787	73.9746	103.756	73.9746	103.777
76.9043	106.155	76.9043	106.146	76.9043	106.103	76.9043	106.077	76.9043	105.99	76.9043	105.949	76.9043	105.819	76.9043	105.77	76.9043	105.596	76.9043	105.545	76.9043	105.329	76.9043	105.285	76.9043	105.029	76.9043	105.003	76.9043	104.713	76.9043	104.715	76.9043	104.399	76.9043	104.439	76.9043	104.111	76.9043	104.193	76.9043	103.868	76.9043	103.992	76.9043	103.686	76.9043	103.846	76.9043	103.574	76.9043	103.754	76.9043	103.527	76.9043	103.71	76.9043	103.532	76.9043	103.698	76.9043	103.57	76.9043	103.701	76.9043	103.619	76.9043	103.703	76.9043	103.663	76.9043	103.692
79.834	106.146	79.834	106.124	79.834	106.101	79.834	106.037	79.834	105.99	79.834	105.888	79.834	105.815	79.834	105.682	79.834	105.582	79.834	105.428	79.834	105.298	79.834	105.136	79.834	104.976	79.834	104.821	79.834	104.633	79.834	104.502	79.834	104.29	79.834	104.201	79.834	103.972	79.834	103.938	79.834	103.704	79.834	103.733	79.834	103.506	79.834	103.595	79.834	103.387	79.834	103.522	79.834	103.345	79.834	103.504	79.834	103.362	79.834	103.52	79.834	103.414	79.834	103.547	79.834	103.478	79.834	103.565	79.834	103.532	79.834	103.562
82.7637	106.152	82.7637	106.116	82.7637	106.116	82.7637	106.011	82.7637	106.011	82.7637	105.84	82.7637	105.838	82.7637	105.608	82.7637	105.603	82.7637	105.322	82.7637	105.313	82.7637	104.995	82.7637	104.981	82.7637	104.642	82.7637	104.624	82.7637	104.284	82.7637	104.264	82.7637	103.945	82.7637	103.927	82.7637	103.652	82.7637	103.64	82.7637	103.427	82.7637	103.423	82.7637	103.283	82.7637	103.288	82.7637	103.218	82.7637	103.231	82.7637	103.217	82.7637	103.235	82.7637	103.257	82.7637	103.275	82.7637	103.31	82.7637	103.325	82.7637	103.355	82.7637	103.363	82.7637	103.374
85.6934	106.217	85.6934	106.193	85.6934	106.167	85.6934	106.096	85.6934	106.044	85.6934	105.928	85.6934	105.85	85.6934	105.694	85.6934	105.593	85.6934	105.402	85.6934	105.281	85.6934	105.062	85.6934	104.928	85.6934	104.691	85.6934	104.553	85.6934	104.31	85.6934	104.181	85.6934	103.946	85.6934	103.842	85.6934	103.625	85.6934	103.562	85.6934	103.373	85.6934	103.362	85.6934	103.205	85.6934	103.248	85.6934	103.124	85.6934	103.209	85.6934	103.116	85.6934	103.224	85.6934	103.157	85.6934	103.265	85.6934	103.22	85.6934	103.306	85.6934	103.279	85.6934	103.327	85.6934	103.318
88.623	106.488	88.623	106.465	88.623	106.431	88.623	106.365	88.623	106.294	88.623	106.191	88.623	106.081	88.623	105.951	88.623	105.795	88.623	105.653	88.623	105.447	88.623	105.313	88.623	105.051	88.623	104.95	88.623	104.63	88.623	104.589	88.623	104.215	88.623	104.26	88.623	103.845	88.623	103.993	88.623	103.559	88.623	103.808	88.623	103.384	88.623	103.714	88.623	103.328	88.623	103.702	88.623	103.375	88.623	103.748	88.623	103.49	88.623	103.821	88.623	103.634	88.623	103.891	88.623	103.77	88.623	103.932	88.623	103.873	88.623	103.928
91.5527	106.843	91.5527	106.803	91.5527	106.798	91.5527	106.679	91.5527	106.667	91.5527	106.475	91.5527	106.452	91.5527	106.196	91.5527	106.158	91.5527	105.852	91.5527	105.791	91.5527	105.457	91.5527	105.367	91.5527	105.034	91.5527	104.908	91.5527	104.612	91.5527	104.447	91.5527	104.229	91.5527	104.029	91.5527	103.927	91.5527	103.704	91.5527	103.739	91.5527	103.513	91.5527	103.679	91.5527	103.471	91.5527	103.733	91.5527	103.56	91.5527	103.866	91.5527	103.736	91.5527	104.03	91.5527	103.941	91.5527	104.181	91.5527	104.127	91.5527	104.282	91.5527	104.257	91.5527	104.31
94.4824	106.897	94.4824	106.85	94.4824	106.857	94.4824	106.717	94.4824	106.73	94.4824	106.5	94.4824	106.517	94.4824	106.204	94.4824	106.22	94.4824	105.837	94.4824	105.845	94.4824	105.41	94.4824	105.404	94.4824	104.943	94.4824	104.913	94.4824	104.465	94.4824	104.403	94.4824	104.015	94.4824	103.916	94.4824	103.64	94.4824	103.505	94.4824	103.383	94.4824	103.222	94.4824	103.269	94.4824	103.1	94.4824	103.292	94.4824	103.134	94.4824	103.415	94.4824	103.283	94.4824	103.583	94.4824	103.485	94.4824	103.744	94.4824	103.68	94.4824	103.852	94.4824	103.821	94.4824	103.881
98.1445	106.563	98.1445	106.508	98.1445	106.529	98.1445	106.366	98.1445	106.406	98.1445	106.137	98.1445	106.197	98.1445	105.828	98.1445	105.905	98.1445	105.447	98.1445	105.538	98.1445	105.006	98.1445	105.107	98.1445	104.526	98.1445	104.633	98.1445	104.038	98.1445	104.143	98.1445	103.583	98.1445	103.679	98.1445	103.21	98.1445	103.289	98.1445	102.964	98.1445	103.02	98.1445	102.868	98.1445	102.901	98.1445	102.913	98.1445	102.926	98.1445	103.058	98.1445	103.059	98.1445	103.247	98.1445	103.241	98.1445	103.425	98.1445	103.418	98.1445	103.547	98.1445	103.543	98.1445	103.589
101.807	106.456	101.807	106.407	101.807	106.405	101.807	106.26	101.807	106.257	101.807	106.015	101.807	106.013	101.807	105.675	101.807	105.676	101.807	105.246	101.807	105.255	101.807	104.738	101.807	104.762	101.807	104.17	101.807	104.219	101.807	103.577	101.807	103.662	101.807	103.011	101.807	103.145	101.807	102.54	101.807	102.731	101.807	102.236	101.807	102.48	101.807	102.141	101.807	102.421	101.807	102.247	101.807	102.532	101.807	102.491	101.807	102.752	101.807	102.793	101.807	103.004	101.807	103.073	101.807	103.22	101.807	103.278	101.807	103.353	101.807	103.375
105.469	106.625	105.469	106.615	105.469	106.536	105.469	106.504	105.469	106.345	105.469	106.294	105.469	106.053	105.469	105.985	105.469	105.658	105.469	105.578	105.469	105.162	105.469	105.076	105.469	104.569	105.469	104.485	105.469	103.892	105.469	103.821	105.469	103.158	105.469	103.116	105.469	102.418	105.469	102.424	105.469	101.753	105.469	101.824	105.469	101.261	105.469	101.405	105.469	101.023	105.469	101.226	105.469	101.048	105.469	101.277	105.469	101.263	105.469	101.48	105.469	101.555	105.469	101.728	105.469	101.821	105.469	101.93	105.469	101.989	105.469	102.027
109.131	106.286	109.131	106.248	109.131	106.236	109.131	106.125	109.131	106.095	109.131	105.92	109.131	105.863	109.131	105.64	109.131	105.537	109.131	105.291	109.131	105.12	109.131	104.882	109.131	104.614	109.131	104.425	109.131	104.029	109.131	103.936	109.131	103.382	109.131	103.439	109.131	102.707	109.131	102.965	109.131	102.058	109.131	102.549	109.131	101.508	109.131	102.224	109.131	101.134	109.131	102.011	109.131	100.98	109.131	101.905	109.131	101.029	109.131	101.878	109.131	101.212	109.131	101.881	109.131	101.443	109.131	101.866	109.131	101.651	109.131	101.795
112.793	106.222	112.793	106.148	112.793	106.201	112.793	105.981	112.793	106.084	112.793	105.725	112.793	105.872	112.793	105.386	112.793	105.566	112.793	104.975	112.793	105.169	112.793	104.505	112.793	104.688	112.793	103.997	112.793	104.135	112.793	103.484	112.793	103.533	112.793	103.004	112.793	102.919	112.793	102.605	112.793	102.349	112.793	102.33	112.793	101.897	112.793	102.203	112.793	101.63	112.793	102.214	112.793	101.578	112.793	102.323	112.793	101.714	112.793	102.471	112.793	101.963	112.793	102.598	112.793	102.24	112.793	102.656	112.793	102.472	112.793	102.616
116.455	105.882	116.455	105.781	116.455	105.874	116.455	105.571	116.455	105.756	116.455	105.255	116.455	105.529	116.455	104.841	116.455	105.198	116.455	104.339	116.455	104.767	116.455	103.768	116.455	104.244	116.455	103.159	116.455	103.646	116.455	102.556	116.455	102.998	116.455	102.02	116.455	102.346	116.455	101.616	116.455	101.753	116.455	101.396	116.455	101.3	116.455	101.372	116.455	101.055	116.455	101.508	116.455	101.042	116.455	101.733	116.455	101.221	116.455	101.971	116.455	101.509	116.455	102.156	116.455	101.814	116.455	102.245	116.455	102.065	116.455	102.215
120.85	106.513	120.85	106.414	120.85	106.49	120.85	106.191	120.85	106.348	120.85	105.841	120.85	106.091	120.85	105.361	120.85	105.721	120.85	104.753	120.85	105.245	120.85	104.023	120.85	104.67	120.85	103.189	120.85	104.012	120.85	102.293	120.85	103.297	120.85	101.413	120.85	102.57	120.85	100.67	120.85	101.896	120.85	100.197	120.85	101.354	120.85	100.069	120.85	101.015	120.85	100.244	120.85	100.902	120.85	100.591	120.85	100.978	120.85	100.973	120.85	101.162	120.85	101.292	120.85	101.366	120.85	101.498	120.85	101.519	120.85	101.571
125.244	107.251	125.244	107.184	125.244	107.206	125.244	107.003	125.244	107.05	125.244	106.705	125.244	106.785	125.244	106.29	125.244	106.412	125.244	105.754	125.244	105.934	125.244	105.102	125.244	105.361	125.244	104.344	125.244	104.707	125.244	103.509	125.244	104.006	125.244	102.659	125.244	103.313	125.244	101.899	125.244	102.71	125.244	101.372	125.244	102.294	125.244	101.192	125.244	102.131	125.244	101.362	125.244	102.214	125.244	101.766	125.244	102.462	125.244	102.25	125.244	102.765	125.244	102.689	125.244	103.024	125.244	103.008	125.244	103.172	125.244	103.171
129.639	107.134	129.639	107.068	129.639	107.08	129.639	106.878	129.639	106.906	129.639	106.562	129.639	106.611	129.639	106.117	129.639	106.194	129.639	105.536	129.639	105.655	129.639	104.82	129.639	104.996	129.639	103.974	129.639	104.228	129.639	103.026	129.639	103.383	129.639	102.046	129.639	102.532	129.639	101.18	129.639	101.8	129.639	100.639	129.639	101.352	129.639	100.588	129.639	101.304	129.639	100.999	129.639	101.626	129.639	101.663	129.639	102.156	129.639	102.358	129.639	102.712	129.639	102.938	129.639	103.165	129.639	103.329	129.639	103.438	129.639	103.497
134.033	107.217	134.033	107.156	134.033	107.166	134.033	106.981	134.033	107.003	134.033	106.687	134.033	106.725	134.033	106.265	134.033	106.326	134.033	105.705	134.033	105.798	134.033	104.991	134.033	105.128	134.033	104.106	134.033	104.305	134.033	103.037	134.033	103.325	134.033	101.788	134.033	102.206	134.033	100.427	134.033	101.029	134.033	99.166	134.033	99.984	134.033	98.4049	134.033	99.3729	134.033	98.4725	134.033	99.4016	134.033	99.2064	134.033	99.9417	134.033	100.15	134.033	100.66	134.033	100.972	134.033	101.286	134.033	101.525	134.033	101.673	134.033	101.76
138.428	106.369	138.428	106.325	138.428	106.318	138.428	106.183	138.428	106.171	138.428	105.942	138.428	105.927	138.428	105.596	138.428	105.584	138.428	105.139	138.428	105.135	138.428	104.563	138.428	104.574	138.428	103.858	138.428	103.892	138.428	103.015	138.428	103.083	138.428	102.036	138.428	102.153	138.428	100.947	138.428	101.135	138.428	99.8391	138.428	100.12	138.428	98.8932	138.428	99.278	138.428	98.3509	138.428	98.8058	138.428	98.3357	138.428	98.783	138.428	98.7114	138.428	99.0776	138.428	99.2063	138.428	99.4558	138.428	99.6026	138.428	99.7271	138.428	99.7868
143.555	105.656	143.555	105.582	143.555	105.616	143.555	105.394	143.555	105.465	143.555	105.087	143.555	105.204	143.555	104.662	143.555	104.835	143.555	104.116	143.555	104.358	143.555	103.446	143.555	103.773	143.555	102.652	143.555	103.079	143.555	101.739	143.555	102.278	143.555	100.727	143.555	101.381	143.555	99.6703	143.555	100.422	143.555	98.6805	143.555	99.4761	143.555	97.9354	143.555	98.6774	143.555	97.6046	143.555	98.183	143.555	97.7086	143.555	98.0728	143.555	98.0832	143.555	98.2674	143.555	98.5078	143.555	98.5824	143.555	98.8193	143.555	98.842	143.555	98.9358
148.682	106.49	148.682	106.417	148.682	106.44	148.682	106.217	148.682	106.27	148.682	105.886	148.682	105.982	148.682	105.42	148.682	105.577	148.682	104.813	148.682	105.058	148.682	104.059	148.682	104.43	148.682	103.156	148.682	103.701	148.682	102.115	148.682	102.891	148.682	100.972	148.682	102.039	148.682	99.8207	148.682	101.209	148.682	98.8361	148.682	100.498	148.682	98.2431	148.682	100.003	148.682	98.1656	148.682	99.7773	148.682	98.5022	148.682	99.7871	148.682	99.0215	148.682	99.9303	148.682	99.5266	148.682	100.091	148.682	99.9081	148.682	100.175	148.682	100.124
153.809	107.396	153.809	107.35	153.809	107.318	153.809	107.175	153.809	107.119	153.809	106.866	153.809	106.797	153.809	106.41	153.809	106.348	153.809	105.793	153.809	105.766	153.809	104.994	153.809	105.045	153.809	103.99	153.809	104.18	153.809	102.756	153.809	103.18	153.809	101.291	153.809	102.09	153.809	99.6746	153.809	101.03	153.809	98.2104	153.809	100.227	153.809	97.5068	153.809	99.9288	153.809	97.9351	153.809	100.189	153.809	99.0566	153.809	100.791	153.809	100.256	153.809	101.448	153.809	101.229	153.809	101.962	153.809	101.887	153.809	102.235	153.809	102.218
159.668	106.448	159.668	106.455	159.668	106.356	159.668	106.369	159.668	106.182	159.668	106.182	159.668	105.925	159.668	105.881	159.668	105.581	159.668	105.45	159.668	105.138	159.668	104.864	159.668	104.579	159.668	104.091	159.668	103.88	159.668	103.088	159.668	103.012	159.668	101.796	159.668	101.946	159.668	100.142	159.668	100.668	159.668	98.0551	159.668	99.2218	159.668	95.5994	159.668	97.8009	159.668	93.4751	159.668	96.8235	159.668	93.2701	159.668	96.6722	159.668	94.7993	159.668	97.1802	159.668	96.4512	159.668	97.8229	159.668	97.598	159.668	98.2145	159.668	98.1696
164.795	105.414	164.795	105.439	164.795	105.291	164.795	105.366	164.795	105.076	164.795	105.191	164.795	104.772	164.795	104.912	164.795	104.387	164.795	104.522	164.795	103.922	164.795	104.011	164.795	103.381	164.795	103.362	164.795	102.761	164.795	102.556	164.795	102.059	164.795	101.568	164.795	101.277	164.795	100.388	164.795	100.439	164.795	99.0434	164.795	99.606	164.795	97.6643	164.795	98.8942	164.795	96.5677	164.795	98.4405	164.795	96.1588	164.795	98.3078	164.795	96.5058	164.795	98.411	164.795	97.2286	164.795	98.5673	164.795	97.9277	164.795	98.6018	164.795	98.4021
170.654	106.384	170.654	106.447	170.654	106.21	170.654	106.393	170.654	105.928	170.654	106.212	170.654	105.543	170.654	105.897	170.654	105.06	170.654	105.434	170.654	104.483	170.654	104.809	170.654	103.817	170.654	104.002	170.654	103.07	170.654	102.989	170.654	102.256	170.654	101.742	170.654	101.404	170.654	100.233	170.654	100.557	170.654	98.4622	170.654	99.7843	170.654	96.5415	170.654	99.1626	170.654	94.8889	170.654	98.7489	170.654	94.2491	170.654	98.539	170.654	94.8269	170.654	98.4537	170.654	95.931	170.654	98.3681	170.654	96.9604	170.654	98.1536	170.654	97.7057
176.514	107.02	176.514	107.126	176.514	106.798	176.514	107.117	176.514	106.456	176.514	106.993	176.514	105.986	176.514	106.749	176.514	105.377	176.514	106.379	176.514	104.613	176.514	105.873	176.514	103.675	176.514	105.216	176.514	102.546	176.514	104.392	176.514	101.233	176.514	103.383	176.514	99.8119	176.514	102.18	176.514	98.5286	176.514	100.817	176.514	97.834	176.514	99.429	176.514	98.0321	176.514	98.3461	176.514	98.8533	176.514	97.9946	176.514	99.7948	176.514	98.4481	176.514	100.542	176.514	99.307	176.514	100.969	176.514	100.151	176.514	101.041	176.514	100.758
183.105	106.085	183.105	106.123	183.105	105.981	183.105	106.092	183.105	105.813	183.105	105.984	183.105	105.575	183.105	105.79	183.105	105.259	183.105	105.496	183.105	104.85	183.105	105.083	183.105	104.323	183.105	104.529	183.105	103.648	183.105	103.806	183.105	102.783	183.105	102.882	183.105	101.683	183.105	101.726	183.105	100.313	183.105	100.324	183.105	98.6962	183.105	98.7347	183.105	97.0443	183.105	97.2048	183.105	95.9223	183.105	96.2661	183.105	95.8954	183.105	96.317	183.105	96.6759	183.105	97.017	183.105	97.5399	183.105	97.7439	183.105	98.0711	183.105	98.1377
189.697	106.699	189.697	106.709	189.697	106.564	189.697	106.598	189.697	106.299	189.697	106.368	189.697	105.9	189.697	106.017	189.697	105.362	189.697	105.541	189.697	104.677	189.697	104.935	189.697	103.84	189.697	104.188	189.697	102.852	189.697	103.294	189.697	101.725	189.697	102.256	189.697	100.519	189.697	101.11	189.697	99.3797	189.697	99.965	189.697	98.5717	189.697	99.0391	189.697	98.3607	189.697	98.6131	189.697	98.7507	189.697	98.8017	189.697	99.4627	189.697	99.4091	189.697	100.191	189.697	100.117	189.697	100.743	189.697	100.691	189.697	101.028	189.697	101.01
196.289	107.326	196.289	107.351	196.289	107.223	196.289	107.299	196.289	107.035	196.289	107.166	196.289	106.75	196.289	106.941	196.289	106.35	196.289	106.606	196.289	105.807	196.289	106.135	196.289	105.079	196.289	105.49	196.289	104.103	196.289	104.622	196.289	102.789	196.289	103.467	196.289	101.012	196.289	101.941	196.289	98.6099	196.289	99.9555	196.289	95.5831	196.289	97.5214	196.289	93.3653	196.289	95.2748	196.289	94.716	196.289	95.0499	196.289	97.3872	196.289	96.8687	196.289	99.4152	196.289	98.8409	196.289	100.636	196.289	100.249	196.289	101.148	196.289	101.013
202.881	105.86	202.881	105.814	202.881	105.817	202.881	105.685	202.881	105.679	202.881	105.479	202.881	105.442	202.881	105.198	202.881	105.098	202.881	104.839	202.881	104.639	202.881	104.388	202.881	104.049	202.881	103.826	202.881	103.3	202.881	103.124	202.881	102.355	202.881	102.255	202.881	101.16	202.881	101.207	202.881	99.6649	202.881	100.018	202.881	97.8641	202.881	98.8362	202.881	95.9733	202.881	97.9527	202.881	94.7435	202.881	97.6599	202.881	95.0013	202.881	97.927	202.881	96.2474	202.881	98.4088	202.881	97.5136	202.881	98.7644	202.881	98.3865	202.881	98.791
210.205	106.376	210.205	106.322	210.205	106.329	210.205	106.17	210.205	106.176	210.205	105.924	210.205	105.912	210.205	105.581	210.205	105.528	210.205	105.129	210.205	105.012	210.205	104.546	210.205	104.343	210.205	103.793	210.205	103.488	210.205	102.809	210.205	102.393	210.205	101.512	210.205	100.985	210.205	99.8008	210.205	99.1775	210.205	97.6098	210.205	96.9488	210.205	95.2253	210.205	94.7147	210.205	94.1169	210.205	94.0115	210.205	95.4353	210.205	95.5127	210.205	97.4938	210.205	97.5314	210.205	99.0978	210.205	99.0937	210.205	100.043	210.205	100.031	210.205	100.346
217.529	107.084	217.529	107.046	217.529	107.062	217.529	106.953	217.529	106.973	217.529	106.808	217.529	106.81	217.529	106.611	217.529	106.564	217.529	106.35	217.529	106.221	217.529	106.003	217.529	105.757	217.529	105.538	217.529	105.133	217.529	104.904	217.529	104.29	217.529	104.033	217.529	103.142	217.529	102.83	217.529	101.564	217.529	101.156	217.529	99.3484	217.529	98.7737	217.529	96.1118	217.529	95.2186	217.529	90.9578	217.529	89.3016	217.529	82.9124	217.529	81.6048	217.529	87.5151	217.529	88.7087	217.529	92.0628	217.529	92.6312	217.529	93.94	217.529	94.1096
225.586	105.301	225.586	105.274	225.586	105.256	225.586	105.184	225.586	105.134	225.586	105.044	225.586	104.938	225.586	104.866	225.586	104.67	225.586	104.654	225.586	104.328	225.586	104.401	225.586	103.899	225.586	104.086	225.586	103.359	225.586	103.677	225.586	102.667	225.586	103.137	225.586	101.773	225.586	102.439	225.586	100.629	225.586	101.575	225.586	99.2258	225.586	100.583	225.586	97.6845	225.586	99.5896	225.586	96.4166	225.586	98.8079	225.586	96.0333	225.586	98.4291	225.586	96.5884	225.586	98.423	225.586	97.4638	225.586	98.5391	225.586	98.1592	225.586	98.5067
232.91	105.164	232.91	105.01	232.91	105.198	232.91	104.747	232.91	105.12	232.91	104.4	232.91	104.949	232.91	104.005	232.91	104.711	232.91	103.591	232.91	104.423	232.91	103.173	232.91	104.084	232.91	102.731	232.91	103.66	232.91	102.223	232.91	103.089	232.91	101.601	232.91	102.284	232.91	100.849	232.91	101.151	232.91	100.038	232.91	99.6234	232.91	99.4006	232.91	97.8201	232.91	99.2724	232.91	96.4711	232.91	99.769	232.91	96.7781	232.91	100.598	232.91	98.3811	232.91	101.358	232.91	100.021	232.91	101.787	232.91	101.171	232.91	101.749
241.699	108.849	241.699	108.764	241.699	108.799	241.699	108.551	241.699	108.611	241.699	108.218	241.699	108.288	241.699	107.776	241.699	107.836	241.699	107.225	241.699	107.254	241.699	106.546	241.699	106.529	241.699	105.695	241.699	105.625	241.699	104.581	241.699	104.478	241.699	103.06	241.699	102.986	241.699	100.877	241.699	101.008	241.699	97.5434	241.699	98.3988	241.699	92.0046	241.699	95.3842	241.699	88.1576	241.699	94.153	241.699	94.5286	241.699	96.2917	241.699	98.564	241.699	98.9035	241.699	100.816	241.699	100.787	241.699	101.97	241.699	101.9	241.699	102.297
249.756	106.583	249.756	106.506	249.756	106.5	249.756	106.281	249.756	106.262	249.756	105.932	249.756	105.89	249.756	105.5	249.756	105.415	249.756	105.031	249.756	104.877	249.756	104.56	249.756	104.309	249.756	104.09	249.756	103.721	249.756	103.573	249.756	103.078	249.756	102.913	249.756	102.29	249.756	101.973	249.756	101.206	249.756	100.569	249.756	99.6027	249.756	98.4273	249.756	97.1169	249.756	95.0234	249.756	92.9606	249.756	88.881	249.756	84.039	249.756	77.7562	249.756	81.3646	249.756	88.5453	249.756	90.4559	249.756	92.714	249.756	93.4306	249.756	94.0467
258.545	106.669	258.545	106.61	258.545	106.595	258.545	106.414	258.545	106.392	258.545	106.078	258.545	106.06	258.545	105.599	258.545	105.595	258.545	104.971	258.545	104.983	258.545	104.182	258.545	104.199	258.545	103.219	258.545	103.209	258.545	102.063	258.545	101.974	258.545	100.71	258.545	100.474	258.545	99.2149	258.545	98.7741	258.545	97.8076	258.545	97.1735	258.545	96.9664	258.545	96.2925	258.545	97.0693	258.545	96.5223	258.545	97.8571	258.545	97.4386	258.545	98.782	258.545	98.4461	258.545	99.5125	258.545	99.2603	258.545	99.9334	258.545	99.795	258.545	100.024
268.066	107.834	268.066	107.87	268.066	107.752	268.066	107.847	268.066	107.637	268.066	107.753	268.066	107.491	268.066	107.569	268.066	107.302	268.066	107.276	268.066	107.041	268.066	106.844	268.066	106.662	268.066	106.228	268.066	106.103	268.066	105.367	268.066	105.287	268.066	104.171	268.066	104.109	268.066	102.499	268.066	102.42	268.066	100.105	268.066	99.9708	268.066	96.4888	268.066	96.2457	268.066	90.4211	268.066	89.7786	268.066	85.2277	268.066	82.8992	268.066	92.0708	268.066	91.4273	268.066	95.8403	268.066	95.4978	268.066	97.5979	268.066	97.431	268.066	98.0702
277.588	105.42	277.588	105.505	277.588	105.326	277.588	105.574	277.588	105.246	277.588	105.633	277.588	105.213	277.588	105.688	277.588	105.241	277.588	105.729	277.588	105.311	277.588	105.721	277.588	105.364	277.588	105.608	277.588	105.313	277.588	105.321	277.588	105.063	277.588	104.772	277.588	104.516	277.588	103.854	277.588	103.566	277.588	102.423	277.588	102.086	277.588	100.264	277.588	99.9262	277.588	97.0598	277.588	96.9781	277.588	92.7682	277.588	93.8879	277.588	91.243	277.588	93.5004	277.588	94.2853	277.588	95.4994	277.588	96.5699	277.588	97.0325	277.588	97.4277
287.109	103.962	287.109	103.989	287.109	103.687	287.109	103.808	287.109	103.208	287.109	103.527	287.109	102.686	287.109	103.3	287.109	102.384	287.109	103.257	287.109	102.504	287.109	103.405	287.109	102.977	287.109	103.625	287.109	103.527	287.109	103.739	287.109	103.883	287.109	103.574	287.109	103.853	287.109	102.965	287.109	103.295	287.109	101.718	287.109	102.066	287.109	99.5555	287.109	100.01	287.109	96.1042	287.109	97.1674	287.109	92.3836	287.109	95.2213	287.109	94.417	287.109	96.8099	287.109	98.065	287.109	99.244	287.109	100.222	287.109	100.713	287.109	101.048
297.363	108.978	297.363	108.862	297.363	108.785	297.363	108.452	297.363	108.276	297.363	107.778	297.363	107.471	297.363	106.887	297.363	106.443	297.363	105.865	297.363	105.357	297.363	104.841	297.363	104.458	297.363	103.947	297.363	103.929	297.363	103.223	297.363	103.676	297.363	102.541	297.363	103.343	297.363	101.625	297.363	102.524	297.363	100.09	297.363	100.815	297.363	97.3103	297.363	97.6309	297.363	91.5659	297.363	91.735	297.363	71.467	297.363	89.0023	297.363	92.8833	297.363	95.6027	297.363	98.048	297.363	99.1873	297.363	100.426	297.363	100.886	297.363	101.271
307.617	108.851	307.617	108.766	307.617	108.684	307.617	108.423	307.617	108.273	307.617	107.822	307.617	107.624	307.617	106.975	307.617	106.749	307.617	105.928	307.617	105.681	307.617	104.771	307.617	104.506	307.617	103.655	307.617	103.403	307.617	102.74	307.617	102.603	307.617	102.091	307.617	102.155	307.617	101.58	307.617	101.792	307.617	100.925	307.617	101.094	307.617	99.7768	307.617	99.6493	307.617	97.7352	307.617	96.9585	307.617	94.2619	307.617	91.8897	307.617	89.154	307.617	77.3859	307.617	88.6853	307.617	86.3861	307.617	92.0611	307.617	91.9382	307.617	93.2595
318.604	107.358	318.604	107.297	318.604	107.274	318.604	107.083	318.604	107.056	318.604	106.709	318.604	106.71	318.604	106.178	318.604	106.235	318.604	105.497	318.604	105.628	318.604	104.682	318.604	104.872	318.604	103.74	318.604	103.941	318.604	102.668	318.604	102.791	318.604	101.436	318.604	101.362	318.604	99.9988	318.604	99.5865	318.604	98.2828	318.604	97.4148	318.604	96.1813	318.604	94.9273	318.604	93.5785	318.604	92.7126	318.604	90.7418	318.604	92.0777	318.604	89.6425	318.604	93.0781	318.604	91.4059	318.604	94.2829	318.604	93.4578	318.604	94.8885	318.604	94.6462
329.59	107.153	329.59	107.182	329.59	107.001	329.59	107.09	329.59	106.744	329.59	106.896	329.59	106.426	329.59	106.628	329.59	106.107	329.59	106.311	329.59	105.838	329.59	105.953	329.59	105.63	329.59	105.541	329.59	105.436	329.59	105.032	329.59	105.156	329.59	104.357	329.59	104.657	329.59	103.419	329.59	103.794	329.59	102.093	329.59	102.404	329.59	100.203	329.59	100.283	329.59	97.4536	329.59	97.1344	329.59	93.2647	329.59	92.5965	329.59	86.7367	329.59	88.3981	329.59	85.9119	329.59	90.0944	329.59	90.5234	329.59	92.2197	329.59	92.4349
341.309	105.614	341.309	105.53	341.309	105.406	341.309	105.183	341.309	104.894	341.309	104.628	341.309	104.108	341.309	103.953	341.309	103.152	341.309	103.269	341.309	102.263	341.309	102.672	341.309	101.743	341.309	102.206	341.309	101.7	341.309	101.841	341.309	101.883	341.309	101.495	341.309	101.903	341.309	101.044	341.309	101.443	341.309	100.322	341.309	100.259	341.309	99.1098	341.309	98.1162	341.309	97.1297	341.309	94.8881	341.309	94.1884	341.309	92.1757	341.309	91.656	341.309	93.729	341.309	93.1904	341.309	96.2294	341.309	95.8742	341.309	97.4719	341.309	97.3528
353.76	107.647	353.76	107.405	353.76	107.568	353.76	106.873	353.76	107.158	353.76	106.111	353.76	106.425	353.76	105.221	353.76	105.413	353.76	104.343	353.76	104.229	353.76	103.612	353.76	103.07	353.76	103.076	353.76	102.189	353.76	102.658	353.76	101.722	353.76	102.18	353.76	101.531	353.76	101.434	353.76	101.303	353.76	100.217	353.76	100.729	353.76	98.3335	353.76	99.5649	353.76	95.6709	353.76	97.6609	353.76	93.0257	353.76	95.3449	353.76	93.3591	353.76	94.4965	353.76	95.776	353.76	96.0003	353.76	97.5454	353.76	97.578	353.76	98.1466
366.211	107.979	366.211	107.765	366.211	107.813	366.211	107.194	366.211	107.259	366.211	106.313	366.211	106.326	366.211	105.218	366.211	105.051	366.211	104.08	366.211	103.531	366.211	103.151	366.211	101.979	366.211	102.63	366.211	100.711	366.211	102.469	366.211	99.915	366.211	102.369	366.211	99.3818	366.211	101.957	366.211	98.6116	366.211	100.871	366.211	97.029	366.211	98.6474	366.211	93.787	366.211	94.2699	366.211	86.2844	366.211	84.4034	366.211	85.7297	366.211	90.9646	366.211	94.3763	366.211	96.9504	366.211	98.2637	366.211	99.623	366.211	100.119	366.211	100.552
378.662	107.58	378.662	107.369	378.662	107.533	378.662	106.914	378.662	107.228	378.662	106.247	378.662	106.678	378.662	105.418	378.662	105.908	378.662	104.502	378.662	104.962	378.662	103.585	378.662	103.909	378.662	102.752	378.662	102.845	378.662	102.046	378.662	101.869	378.662	101.453	378.662	101.021	378.662	100.877	378.662	100.196	378.662	100.13	378.662	99.1243	378.662	98.9189	378.662	97.4053	378.662	96.7849	378.662	94.4185	378.662	92.8121	378.662	88.9562	378.662	83.9719	378.662	84.6828	378.662	85.3408	378.662	90.7607	378.662	92.0437	378.662	93.7838	378.662	94.1859
392.578	107.626	392.578	107.295	392.578	107.574	392.578	106.598	392.578	107.127	392.578	105.562	392.578	106.276	392.578	104.254	392.578	105.041	392.578	102.856	392.578	103.518	392.578	101.706	392.578	101.985	392.578	101.139	392.578	100.958	392.578	101.145	392.578	100.786	392.578	101.393	392.578	101.099	392.578	101.53	392.578	101.214	392.578	101.277	392.578	100.649	392.578	100.353	392.578	99.0455	392.578	98.3317	392.578	95.8795	392.578	94.2353	392.578	90.2235	392.578	83.269	392.578	88.6863	392.578	87.0556	392.578	93.9457	392.578	94.2925	392.578	96.4214	392.578	96.5759
405.762	106.383	405.762	106.154	405.762	106.304	405.762	105.637	405.762	105.918	405.762	104.873	405.762	105.235	405.762	103.937	405.762	104.28	405.762	102.919	405.762	103.11	405.762	101.904	405.762	101.856	405.762	100.976	405.762	100.738	405.762	100.256	405.762	99.9891	405.762	99.8777	405.762	99.6004	405.762	99.8317	405.762	99.2206	405.762	99.8575	405.762	98.3786	405.762	99.5514	405.762	96.6281	405.762	98.4899	405.762	93.3928	405.762	96.1576	405.762	87.5731	405.762	91.505	405.762	83.8778	405.762	80.4278	405.762	89.2244	405.762	85.508	405.762	91.4291	405.762	90.627
420.41	107.47	420.41	107.272	420.41	107.317	420.41	106.68	420.41	106.817	420.41	105.622	420.41	105.947	420.41	104.002	420.41	104.67	420.41	101.728	420.41	102.941	420.41	98.7013	420.41	100.758	420.41	94.7043	420.41	98.3696	420.41	89.5462	420.41	96.7132	420.41	87.9541	420.41	96.5142	420.41	91.5055	420.41	96.6648	420.41	93.4382	420.41	95.9363	420.41	93.1584	420.41	93.5521	420.41	90.0703	420.41	87.824	420.41	81.2878	420.41	81.4575	420.41	88.6199	420.41	91.8814	420.41	94.9358	420.41	96.4013	420.41	97.8641	420.41	98.4735	420.41	98.923
435.059	104.833	435.059	104.477	435.059	104.963	435.059	103.897	435.059	104.863	435.059	103.099	435.059	104.522	435.059	102.132	435.059	103.928	435.059	101.124	435.059	103.076	435.059	100.247	435.059	101.97	435.059	99.5688	435.059	100.653	435.059	98.9169	435.059	99.2699	435.059	97.9539	435.059	98.0726	435.059	96.3672	435.059	97.1623	435.059	94.0204	435.059	96.2415	435.059	91.0108	435.059	94.7501	435.059	87.2819	435.059	91.9359	435.059	80.5952	435.059	86.7547	435.059	73.3109	435.059	85.6176	435.059	87.0312	435.059	90.9634	435.059	91.795	435.059	93.5018	435.059	93.7131
450.439	103.179	450.439	102.88	450.439	103.197	450.439	102.277	450.439	102.953	450.439	101.368	450.439	102.446	450.439	100.194	450.439	101.661	450.439	98.8247	450.439	100.577	450.439	97.2975	450.439	99.1644	450.439	95.5623	450.439	97.4635	450.439	93.645	450.439	95.8975	450.439	92.3061	450.439	95.4318	450.439	92.7932	450.439	96.157	450.439	94.2599	450.439	96.9476	450.439	95.2437	450.439	97.0163	450.439	95.1956	450.439	95.9821	450.439	93.9153	450.439	93.5246	450.439	91.5736	450.439	89.8661	450.439	90.1692	450.439	89.0917	450.439	91.3866	450.439	91.4094	450.439	92.3027
466.553	103.832	466.553	103.665	466.553	103.829	466.553	103.264	466.553	103.675	466.553	102.554	466.553	103.329	466.553	101.504	466.553	102.702	466.553	100.18	466.553	101.69	466.553	98.7423	466.553	100.201	466.553	97.3916	466.553	98.1836	466.553	96.3198	466.553	95.7245	466.553	95.6051	466.553	93.3021	466.553	95.0326	466.553	91.7015	466.553	94.198	466.553	90.7973	466.553	92.7136	466.553	89.4821	466.553	90.0643	466.553	86.6545	466.553	84.8254	466.553	82.3281	466.553	71.2726	466.553	85.2268	466.553	84.8423	466.553	89.7752	466.553	89.9946	466.553	91.8794	466.553	91.9611
482.666	105.474	482.666	105.283	482.666	105.349	482.666	104.775	482.666	104.919	482.666	103.947	482.666	104.232	482.666	102.805	482.666	103.377	482.666	101.402	482.666	102.457	482.666	99.8561	482.666	101.525	482.666	98.2958	482.666	100.58	482.666	96.8543	482.666	99.6422	482.666	95.7819	482.666	98.7638	482.666	95.2229	482.666	97.9481	482.666	94.8306	482.666	97.0632	482.666	94.0031	482.666	95.8221	482.666	92.0434	482.666	93.7259	482.666	87.5869	482.666	89.7321	482.666	73.3397	482.666	80.1739	482.666	85.0305	482.666	83.5884	482.666	90.3645	482.666	89.9072	482.666	91.6097
500.244	103.01	500.244	102.686	500.244	103.128	500.244	102.112	500.244	103.073	500.244	101.248	500.244	102.873	500.244	100.11	500.244	102.547	500.244	98.801	500.244	102.085	500.244	97.4629	500.244	101.435	500.244	96.3051	500.244	100.528	500.244	95.8327	500.244	99.3451	500.244	96.2878	500.244	98.0215	500.244	96.9413	500.244	96.8836	500.244	97.1044	500.244	96.1741	500.244	96.6197	500.244	95.5857	500.244	95.5506	500.244	94.3865	500.244	93.877	500.244	91.7771	500.244	91.2872	500.244	86.6806	500.244	86.9866	500.244	76.9169	500.244	79.3727	500.244	75.4114	500.244	75.0224
517.822	106.219	517.822	105.936	517.822	106.115	517.822	105.276	517.822	105.627	517.822	104.263	517.822	104.762	517.822	102.949	517.822	103.54	517.822	101.417	517.822	102.008	517.822	99.7508	517.822	100.323	517.822	97.9884	517.822	98.9314	517.822	96.1925	517.822	98.5126	517.822	94.802	517.822	99.0732	517.822	94.5681	517.822	99.7646	517.822	95.1249	517.822	99.8475	517.822	95.2409	517.822	98.8875	517.822	93.9566	517.822	96.4522	517.822	89.9356	517.822	91.5413	517.822	77.1937	517.822	82.5909	517.822	88.2598	517.822	89.5139	517.822	93.6198	517.822	93.9444	517.822	95.0939
536.133	104.725	536.133	104.247	536.133	104.949	536.133	103.586	536.133	104.866	536.133	102.799	536.133	104.455	536.133	101.929	536.133	103.706	536.133	101.01	536.133	102.561	536.133	100.033	536.133	100.911	536.133	98.8669	536.133	98.7124	536.133	97.2023	536.133	96.3258	536.133	94.7504	536.133	94.893	536.133	92.5237	536.133	95.2234	536.133	93.6274	536.133	96.3811	536.133	95.9872	536.133	97.2155	536.133	97.1266	536.133	97.0152	536.133	96.6455	536.133	95.1326	536.133	94.4554	536.133	90.3717	536.133	91.0961	536.133	80.2554	536.133	89.5814	536.133	86.4688	536.133	89.5477
554.443	106.481	554.443	106.05	554.443	106.657	554.443	105.386	554.443	106.57	554.443	104.557	554.443	106.179	554.443	103.672	554.443	105.408	554.443	102.828	554.443	104.147	554.443	102.027	554.443	102.256	554.443	101.131	554.443	99.5821	554.443	99.9633	554.443	96.3599	554.443	98.4491	554.443	94.7695	554.443	96.5679	554.443	96.14	554.443	94.397	554.443	97.5095	554.443	92.7036	554.443	97.5071	554.443	92.2464	554.443	95.5562	554.443	91.5852	554.443	90.06	554.443	88.3183	554.443	75.6753	554.443	72.586	554.443	90.067	554.443	86.6095	554.443	93.1966	554.443	92.2635
574.219	106.699	574.219	106.479	574.219	106.489	574.219	105.824	574.219	105.914	574.219	104.788	574.219	105.11	574.219	103.483	574.219	104.224	574.219	102.06	574.219	103.293	574.219	100.656	574.219	102.148	574.219	99.4142	574.219	100.443	574.219	98.4667	574.219	97.8087	574.219	97.6563	574.219	94.1689	574.219	96.5466	574.219	91.0789	574.219	94.9247	574.219	91.3695	574.219	93.3885	574.219	92.76	574.219	93.038	574.219	93.1812	574.219	92.9629	574.219	92.1522	574.219	91.3405	574.219	89.9253	574.219	87.8873	574.219	89.2537	574.219	88.0429	574.219	90.6755	574.219	90.5456
594.727	106.154	594.727	105.992	594.727	105.89	594.727	105.362	594.727	105.306	594.727	104.311	594.727	104.557	594.727	102.974	594.727	103.82	594.727	101.523	594.727	103.204	594.727	100.108	594.727	102.608	594.727	98.8957	594.727	101.683	594.727	97.9266	594.727	99.9611	594.727	96.936	594.727	97.0922	594.727	95.6335	594.727	93.6522	594.727	94.2425	594.727	92.6828	594.727	93.7755	594.727	93.6981	594.727	94.456	594.727	93.6381	594.727	94.8769	594.727	91.571	594.727	93.8278	594.727	86.5082	594.727	90.2642	594.727	78.7257	594.727	81.8391	594.727	81.6809	594.727	79.1817
615.234	107.415	615.234	107.246	615.234	107.182	615.234	106.725	615.234	106.555	615.234	105.946	615.234	105.672	615.234	104.996	615.234	104.782	615.234	103.826	615.234	104.041	615.234	102.225	615.234	103.271	615.234	100.102	615.234	102.058	615.234	97.9698	615.234	100.072	615.234	96.7937	615.234	97.335	615.234	96.5165	615.234	94.5543	615.234	96.2355	615.234	93.2458	615.234	95.3285	615.234	93.3797	615.234	93.4733	615.234	92.9413	615.234	90.2777	615.234	90.0376	615.234	83.8157	615.234	82.0207	615.234	79.1663	615.234	87.868	615.234	89.2681	615.234	92.3933	615.234	92.6448
637.207	108.941	637.207	108.644	637.207	108.769	637.207	107.978	637.207	108.117	637.207	107.071	637.207	107.088	637.207	105.985	637.207	105.898	637.207	104.619	637.207	104.805	637.207	102.708	637.207	103.931	637.207	100.029	637.207	103.037	637.207	96.844	637.207	101.68	637.207	94.3835	637.207	99.6428	637.207	93.6326	637.207	97.2492	637.207	93.9375	637.207	95.5732	637.207	94.6875	637.207	95.0354	637.207	95.3478	637.207	94.1326	637.207	95.0628	637.207	91.3027	637.207	92.9997	637.207	85.0491	637.207	89.1835	637.207	85.8025	637.207	89.3024	637.207	90.7268	637.207	91.5338
659.912	108.105	659.912	107.788	659.912	108.05	659.912	107.147	659.912	107.637	659.912	106.294	659.912	106.888	659.912	105.349	659.912	105.747	659.912	104.333	659.912	104.077	659.912	103.126	659.912	101.962	659.912	101.555	659.912	100.091	659.912	99.5508	659.912	99.1283	659.912	97.2439	659.912	98.4057	659.912	95.0587	659.912	96.8669	659.912	93.9089	659.912	94.8357	659.912	94.221	659.912	94.8196	659.912	94.679	659.912	95.9073	659.912	93.9233	659.912	95.6142	659.912	91.0418	659.912	93.0665	659.912	84.2493	659.912	86.9385	659.912	69.1451	659.912	72.6833	659.912	77.863
683.35	108.248	683.35	107.96	683.35	108.087	683.35	107.262	683.35	107.505	683.35	106.255	683.35	106.585	683.35	105.049	683.35	105.406	683.35	103.722	683.35	103.941	683.35	102.447	683.35	102.014	683.35	101.544	683.35	99.3298	683.35	101.03	683.35	95.6838	683.35	100.357	683.35	92.6716	683.35	98.8058	683.35	94.0279	683.35	95.7378	683.35	96.2898	683.35	90.987	683.35	97.0798	683.35	90.1421	683.35	95.8509	683.35	92.4257	683.35	91.6865	683.35	91.4942	683.35	83.3702	683.35	85.1026	683.35	87.2144	683.35	76.8653	683.35	89.9626	683.35	88.1658
706.787	108.037	706.787	107.81	706.787	107.824	706.787	107.185	706.787	107.188	706.787	106.229	706.787	106.2	706.787	104.989	706.787	104.948	706.787	103.382	706.787	103.502	706.787	101.254	706.787	102.006	706.787	98.7718	706.787	100.654	706.787	96.8582	706.787	99.3525	706.787	96.307	706.787	97.5124	706.787	96.5205	706.787	94.2326	706.787	96.5542	706.787	89.5598	706.787	95.7777	706.787	90.9925	706.787	94.1041	706.787	94.0247	706.787	92.3161	706.787	93.9178	706.787	90.7141	706.787	89.6598	706.787	88.5069	706.787	81.1941	706.787	88.3123	706.787	88.3974	706.787	89.9726
731.689	108.304	731.689	108.041	731.689	108.082	731.689	107.364	731.689	107.4	731.689	106.394	731.689	106.356	731.689	105.144	731.689	105.093	731.689	103.424	731.689	103.752	731.689	101.047	731.689	102.362	731.689	98.1635	731.689	100.69	731.689	95.6134	731.689	98.3691	731.689	94.6129	731.689	95.5014	731.689	94.8687	731.689	93.1143	731.689	94.8477	731.689	91.4003	731.689	93.8392	731.689	89.3361	731.689	92.8738	731.689	89.8864	731.689	93.1454	731.689	91.4873	731.689	93.0129	731.689	90.1431	731.689	90.8496	731.689	85.6193	731.689	86.763	731.689	84.8543	731.689	85.6213
758.057	107.455	758.057	107.309	758.057	107.206	758.057	106.785	758.057	106.627	758.057	106.021	758.057	105.788	758.057	105.145	758.057	104.691	758.057	103.955	758.057	103.302	758.057	101.889	758.057	101.651	758.057	98.4652	758.057	99.7223	758.057	93.6548	758.057	97.4108	758.057	87.7016	758.057	94.9451	758.057	90.5501	758.057	92.6987	758.057	94.3438	758.057	89.8395	758.057	95.0146	758.057	87.9792	758.057	94.4234	758.057	91.7194	758.057	94.0282	758.057	93.7119	758.057	93.265	758.057	92.6114	758.057	90.8753	758.057	88.5659	758.057	86.6661	758.057	83.9286	758.057	83.6936
784.424	107.905	784.424	107.668	784.424	107.458	784.424	106.769	784.424	106.482	784.424	105.466	784.424	105.234	784.424	104.084	784.424	103.898	784.424	102.663	784.424	102.37	784.424	101.2	784.424	100.484	784.424	100.112	784.424	98.5125	784.424	98.8888	784.424	97.1581	784.424	96.4771	784.424	96.4283	784.424	91.9074	784.424	95.1361	784.424	82.2392	784.424	92.3154	784.424	84.203	784.424	88.9254	784.424	89.2928	784.424	88.6784	784.424	90.8014	784.424	89.3082	784.424	90.1693	784.424	87.5943	784.424	88.1213	784.424	85.9731	784.424	88.9314	784.424	89.6424	784.424	90.8951
812.256	107.556	812.256	107.4	812.256	107.093	812.256	106.594	812.256	106.229	812.256	105.34	812.256	105.139	812.256	103.947	812.256	103.678	812.256	102.673	812.256	101.62	812.256	101.669	812.256	99.1896	812.256	100.627	812.256	96.9029	812.256	98.9039	812.256	95.0284	812.256	96.4554	812.256	94.1684	812.256	94.0886	812.256	93.8854	812.256	91.8773	812.256	92.8135	812.256	87.5593	812.256	91.6365	812.256	82.573	812.256	92.0147	812.256	88.7327	812.256	91.948	812.256	89.5573	812.256	89.8538	812.256	84.5062	812.256	85.2549	812.256	78.0493	812.256	81.8334	812.256	83.2378
840.82	107.919	840.82	107.61	840.82	107.608	840.82	106.707	840.82	106.87	840.82	105.476	840.82	105.822	840.82	104.076	840.82	104.373	840.82	102.253	840.82	102.618	840.82	99.8243	840.82	101.058	840.82	97.9304	840.82	99.7959	840.82	97.3993	840.82	98.0082	840.82	96.1435	840.82	94.8622	840.82	94.0394	840.82	90.3353	840.82	94.016	840.82	85.9426	840.82	94.1597	840.82	88.4969	840.82	89.5762	840.82	91.2862	840.82	84.3842	840.82	90.0525	840.82	89.6439	840.82	85.8021	840.82	88.1374	840.82	87.823	840.82	87.5741	840.82	90.5905	840.82	90.4987
870.85	108.375	870.85	108.089	870.85	107.983	870.85	107.102	870.85	107.095	870.85	105.715	870.85	105.787	870.85	104.221	870.85	104.07	870.85	102.395	870.85	102.223	870.85	99.8233	870.85	100.486	870.85	96.6576	870.85	98.5384	870.85	94.2728	870.85	96.2309	870.85	93.5052	870.85	94.4521	870.85	93.061	870.85	94.0708	870.85	93.3113	870.85	93.5528	870.85	93.375	870.85	90.3996	870.85	90.847	870.85	87.0778	870.85	85.4391	870.85	90.7598	870.85	85.6717	870.85	90.2092	870.85	86.4093	870.85	85.6502	870.85	88.1544	870.85	88.1195	870.85	89.968
901.611	108.194	901.611	107.945	901.611	107.692	901.611	107.082	901.611	106.737	901.611	106.071	901.611	105.583	901.611	104.772	901.611	104.249	901.611	102.773	901.611	102.703	901.611	100.831	901.611	100.857	901.611	99.6833	901.611	98.8027	901.611	97.7692	901.611	96.9118	901.611	94.3897	901.611	94.7174	901.611	91.9753	901.611	91.7655	901.611	92.0278	901.611	91.5027	901.611	93.4868	901.611	91.4041	901.611	92.4741	901.611	89.7369	901.611	88.0183	901.611	91.0461	901.611	90.5214	901.611	88.7236	901.611	89.4338	901.611	75.2595	901.611	83.2285	901.611	88.549	901.611	89.0823
933.105	108.257	933.105	108.03	933.105	107.692	933.105	107.113	933.105	106.6	933.105	105.876	933.105	105.199	933.105	104.337	933.105	103.71	933.105	102.85	933.105	102.362	933.105	102.143	933.105	100.946	933.105	101.181	933.105	99.3063	933.105	98.5753	933.105	97.6736	933.105	94.865	933.105	95.7401	933.105	92.3116	933.105	93.1472	933.105	91.7955	933.105	92.1575	933.105	92.6347	933.105	92.222	933.105	92.7226	933.105	89.4259	933.105	90.1701	933.105	90.3759	933.105	90.6443	933.105	92.4541	933.105	90.0527	933.105	88.7629	933.105	86.5162	933.105	84.9744	933.105	88.3352
966.064	108.396	966.064	108.27	966.064	107.963	966.064	107.786	966.064	107.239	966.064	106.994	966.064	106.514	966.064	105.506	966.064	105.431	966.064	103.523	966.064	103.67	966.064	101.831	966.064	101.672	966.064	100.556	966.064	100.256	966.064	99.2463	966.064	99.3965	966.064	96.9838	966.064	97.5278	966.064	92.1651	966.064	94.0889	966.064	90.6475	966.064	90.4093	966.064	93.6791	966.064	91.8337	966.064	91.3686	966.064	92.9248	966.064	84.7815	966.064	90.8919	966.064	91.5804	966.064	90.2155	966.064	91.5355	966.064	87.4989	966.064	88.5347	966.064	88.8681	966.064	90.954
999.756	108.356	999.756	107.977	999.756	107.937	999.756	106.978	999.756	106.933	999.756	105.525	999.756	105.476	999.756	103.55	999.756	103.799	999.756	101.725	999.756	102.759	999.756	100.403	999.756	101.849	999.756	99.2594	999.756	99.835	999.756	98.5828	999.756	97.9805	999.756	97.7409	999.756	97.1651	999.756	96.0171	999.756	95.6896	999.756	92.7774	999.756	93.3683	999.756	89.6569	999.756	89.7143	999.756	90.9919	999.756	89.7413	999.756	89.7942	999.756	91.9556	999.756	92.3574	999.756	90.8112	999.756	91.0681	999.756	87.4894	999.756	79.7309	999.756	82.2353	999.756	85.9203
1034.91	107.637	1034.91	107.601	1034.91	107.253	1034.91	107.137	1034.91	106.639	1034.91	106.103	1034.91	105.586	1034.91	104.266	1034.91	104.121	1034.91	102.468	1034.91	102.897	1034.91	101.164	1034.91	101.47	1034.91	98.7172	1034.91	99.2621	1034.91	94.749	1034.91	97.0796	1034.91	92.6646	1034.91	96.6123	1034.91	93.6406	1034.91	95.3048	1034.91	93.4421	1034.91	92.7488	1034.91	92.9765	1034.91	93.0103	1034.91	94.8055	1034.91	89.5428	1034.91	92.4538	1034.91	88.2347	1034.91	79.7095	1034.91	90.9434	1034.91	90.4606	1034.91	89.2671	1034.91	90.068	1034.91	89.9394	1034.91	89.9458
1071.53	107.762	1071.53	107.858	1071.53	107.513	1071.53	107.573	1071.53	107.089	1071.53	106.472	1071.53	106.011	1071.53	104.608	1071.53	104.322	1071.53	103.525	1071.53	102.724	1071.53	102.226	1071.53	101.471	1071.53	98.9917	1071.53	100.074	1071.53	96.7548	1071.53	97.8169	1071.53	95.4676	1071.53	95.1038	1071.53	90.3525	1071.53	92.7206	1071.53	90.8621	1071.53	92.2351	1071.53	93.4467	1071.53	94.6178	1071.53	92.6368	1071.53	92.688	1071.53	91.1939	1071.53	89.6941	1071.53	82.873	1071.53	91.9933	1071.53	90.1836	1071.53	87.6296	1071.53	88.9298	1071.53	71.3772	1071.53	79.5489
1109.62	107.682	1109.62	107.535	1109.62	107.137	1109.62	106.872	1109.62	106.338	1109.62	106.01	1109.62	105.58	1109.62	104.845	1109.62	105.063	1109.62	103.221	1109.62	104.022	1109.62	100.987	1109.62	102.198	1109.62	99.8794	1109.62	100.607	1109.62	99.3634	1109.62	98.7375	1109.62	96.817	1109.62	96.5724	1109.62	92.9588	1109.62	94.015	1109.62	87.4896	1109.62	89.7655	1109.62	88.4043	1109.62	85.8468	1109.62	91.7789	1109.62	89.5664	1109.62	90.0631	1109.62	87.1195	1109.62	88.3978	1109.62	88.9719	1109.62	88.355	1109.62	89.8052	1109.62	85.1828	1109.62	90.7064	1109.62	90.5816
1148.44	108.574	1148.44	108.26	1148.44	108.086	1148.44	107.536	1148.44	107.136	1148.44	106.515	1148.44	106.083	1148.44	105.069	1148.44	104.955	1148.44	103.38	1148.44	103.932	1148.44	101.019	1148.44	102.676	1148.44	99.5165	1148.44	100.62	1148.44	99.9462	1148.44	98.6653	1148.44	99.4222	1148.44	97.0772	1148.44	97.3427	1148.44	94.774	1148.44	92.8537	1148.44	91.0707	1148.44	85.2417	1148.44	88.0107	1148.44	87.7218	1148.44	88.4388	1148.44	90.8599	1148.44	88.7027	1148.44	89.7183	1148.44	91.5309	1148.44	89.2686	1148.44	87.7281	1148.44	86.4951	1148.44	82.5384	1148.44	86.7627
1189.45	107.683	1189.45	107.7	1189.45	107.13	1189.45	107.501	1189.45	106.209	1189.45	106.313	1189.45	105.212	1189.45	104.408	1189.45	104.381	1189.45	103.442	1189.45	103.221	1189.45	101.608	1189.45	101.103	1189.45	98.1288	1189.45	98.9681	1189.45	95.0581	1189.45	97.0118	1189.45	95.1239	1189.45	95.7181	1189.45	95.662	1189.45	93.9101	1189.45	96.1211	1189.45	91.762	1189.45	93.5493	1189.45	89.9158	1189.45	84.6266	1189.45	83.7159	1189.45	90.7869	1189.45	87.1152	1189.45	87.4138	1189.45	86.0049	1189.45	88.2726	1189.45	89.8435	1189.45	86.8796	1189.45	87.869	1189.45	87.2796
1231.2	107.495	1231.2	107.363	1231.2	107.523	1231.2	106.842	1231.2	106.85	1231.2	105.074	1231.2	105.586	1231.2	103.86	1231.2	104.648	1231.2	102.339	1231.2	103.171	1231.2	100.039	1231.2	101.298	1231.2	99.9913	1231.2	100.326	1231.2	98.587	1231.2	98.9559	1231.2	94.8365	1231.2	95.2534	1231.2	93.1576	1231.2	93.2221	1231.2	92.5569	1231.2	91.264	1231.2	94.1234	1231.2	89.385	1231.2	90.5647	1231.2	91.1665	1231.2	88.5131	1231.2	79.6876	1231.2	86.4589	1231.2	91.0275	1231.2	84.9389	1231.2	87.9209	1231.2	83.8043	1231.2	82.2716	1231.2	82.937
1274.41	107.75	1274.41	107.607	1274.41	107.612	1274.41	106.699	1274.41	106.891	1274.41	105.16	1274.41	105.793	1274.41	103.892	1274.41	104.539	1274.41	101.854	1274.41	102.826	1274.41	101.076	1274.41	101.692	1274.41	99.6139	1274.41	100.12	1274.41	96.7011	1274.41	97.3223	1274.41	94.7315	1274.41	96.439	1274.41	90.4697	1274.41	94.8185	1274.41	87.9586	1274.41	91.6219	1274.41	92.7117	1274.41	87.1107	1274.41	91.6654	1274.41	89.8101	1274.41	84.5352	1274.41	89.5179	1274.41	89.1264	1274.41	86.8341	1274.41	86.6646	1274.41	84.1157	1274.41	91.4063	1274.41	84.048	1274.41	87.9894
1319.82	107.143	1319.82	107.257	1319.82	106.896	1319.82	106.403	1319.82	106.742	1319.82	105.283	1319.82	106.063	1319.82	104.466	1319.82	104.74	1319.82	103.621	1319.82	103.4	1319.82	102.177	1319.82	101.664	1319.82	100.682	1319.82	99.2503	1319.82	99.1945	1319.82	97.6561	1319.82	98.3824	1319.82	94.7909	1319.82	95.5685	1319.82	92.197	1319.82	89.5306	1319.82	92.8642	1319.82	88.4365	1319.82	91.8205	1319.82	90.2552	1319.82	83.9224	1319.82	81.372	1319.82	88.4413	1319.82	86.6488	1319.82	85.582	1319.82	86.7118	1319.82	89.6742	1319.82	87.7084	1319.82	79.3577	1319.82	76.2624
1365.97	107.318	1365.97	107.334	1365.97	107.076	1365.97	106.892	1365.97	106.937	1365.97	106.083	1365.97	106.014	1365.97	104.91	1365.97	104.621	1365.97	103.139	1365.97	103.69	1365.97	102.515	1365.97	102.39	1365.97	101.038	1365.97	100.353	1365.97	96.5458	1365.97	98.5809	1365.97	92.9293	1365.97	95.6645	1365.97	92.6199	1365.97	93.1259	1365.97	94.6455	1365.97	89.5253	1365.97	85.9237	1365.97	88.8405	1365.97	93.365	1365.97	91.3857	1365.97	88.23	1365.97	85.6543	1365.97	86.9415	1365.97	90.4226	1365.97	83.7049	1365.97	86.1874	1365.97	82.6468	1365.97	75.9693	1365.97	85.2431
1414.31	107.869	1414.31	107.788	1414.31	107.232	1414.31	106.498	1414.31	105.886	1414.31	105.516	1414.31	104.878	1414.31	104.608	1414.31	104.331	1414.31	103.372	1414.31	103.13	1414.31	102.401	1414.31	102.445	1414.31	98.9498	1414.31	99.4053	1414.31	98.0438	1414.31	95.476	1414.31	96.8483	1414.31	95.0611	1414.31	93.3862	1414.31	94.9929	1414.31	90.9872	1414.31	94.4561	1414.31	91.6677	1414.31	89.7529	1414.31	87.8471	1414.31	92.3821	1414.31	92.3122	1414.31	87.9329	1414.31	90.3616	1414.31	85.8709	1414.31	88.7479	1414.31	88.1949	1414.31	89.7486	1414.31	81.6484	1414.31	90.5097
1464.11	107.407	1464.11	107.35	1464.11	107.325	1464.11	107.216	1464.11	106.233	1464.11	106.073	1464.11	105.692	1464.11	104.596	1464.11	105.417	1464.11	104.54	1464.11	104.288	1464.11	102.804	1464.11	101.622	1464.11	100.47	1464.11	100.046	1464.11	99.4784	1464.11	98.4629	1464.11	97.1818	1464.11	92.8759	1464.11	95.953	1464.11	88.5699	1464.11	90.3835	1464.11	91.3594	1464.11	86.7728	1464.11	91.2886	1464.11	91.4733	1464.11	82.2486	1464.11	88.3831	1464.11	85.2542	1464.11	85.8388	1464.11	88.7412	1464.11	89.4381	1464.11	90.1348	1464.11	80.2752	1464.11	86.2876	1464.11	87.0258
1515.38	107.108	1515.38	106.897	1515.38	106.89	1515.38	106.562	1515.38	106.297	1515.38	105.768	1515.38	105.661	1515.38	104.802	1515.38	104.19	1515.38	103.855	1515.38	102.851	1515.38	101.284	1515.38	101.672	1515.38	99.7093	1515.38	100.423	1515.38	96.8793	1515.38	96.6314	1515.38	93.8444	1515.38	93.0711	1515.38	96.1867	1515.38	92.5258	1515.38	96.9079	1515.38	88.5343	1515.38	92.1962	1515.38	90.3537	1515.38	86.2648	1515.38	90.1568	1515.38	90.6589	1515.38	86.4115	1515.38	87.1858	1515.38	83.8886	1515.38	88.2584	1515.38	83.9024	1515.38	85.8789	1515.38	74.8225	1515.38	85.2264
1568.85	107.218	1568.85	106.918	1568.85	107.217	1568.85	106.229	1568.85	107.421	1568.85	106.109	1568.85	106.329	1568.85	105.839	1568.85	105.257	1568.85	104.809	1568.85	104.257	1568.85	101.913	1568.85	102.939	1568.85	102.344	1568.85	100.231	1568.85	98.9912	1568.85	98.637	1568.85	92.5731	1568.85	98.0409	1568.85	92.2688	1568.85	95.656	1568.85	91.3686	1568.85	92.721	1568.85	93.6624	1568.85	90.4386	1568.85	85.2857	1568.85	87.0735	1568.85	91.4145	1568.85	90.0869	1568.85	81.5561	1568.85	79.7645	1568.85	90.7988	1568.85	86.4208	1568.85	89.2162	1568.85	81.0929	1568.85	82.2109
1624.51	106.71	1624.51	106.748	1624.51	106.612	1624.51	106.635	1624.51	106.332	1624.51	106.22	1624.51	105.677	1624.51	105.914	1624.51	105.256	1624.51	103.756	1624.51	104.099	1624.51	103.863	1624.51	101.442	1624.51	100.353	1624.51	100.532	1624.51	97.9239	1624.51	98.4849	1624.51	97.8158	1624.51	95.6727	1624.51	92.8727	1624.51	93.7232	1624.51	82.0989	1624.51	86.5988	1624.51	91.155	1624.51	92.5087	1624.51	88.5392	1624.51	85.4907	1624.51	90.4758	1624.51	87.2366	1624.51	92.1523	1624.51	85.5463	1624.51	92.9077	1624.51	89.1269	1624.51	86.438	1624.51	87.1033	1624.51	84.1726
1681.64	106.286	1681.64	106.44	1681.64	106.088	1681.64	106.803	1681.64	106.265	1681.64	105.817	1681.64	106.073	1681.64	105.848	1681.64	105.209	1681.64	104.149	1681.64	104.054	1681.64	102.59	1681.64	102.906	1681.64	100.398	1681.64	98.2901	1681.64	95.8641	1681.64	97.8936	1681.64	94.2155	1681.64	95.316	1681.64	94.0823	1681.64	94.258	1681.64	95.5042	1681.64	87.4973	1681.64	87.5867	1681.64	93.8671	1681.64	87.9168	1681.64	83.1664	1681.64	85.5446	1681.64	88.9827	1681.64	82.9078	1681.64	77.2177	1681.64	80.1198	1681.64	82.7608	1681.64	82.1472	1681.64	61.9277	1681.64	68.0128
1740.97	105.509	1740.97	105.674	1740.97	106.459	1740.97	106.21	1740.97	105.933	1740.97	106.919	1740.97	106.01	1740.97	105.783	1740.97	105.407	1740.97	104.9	1740.97	105.041	1740.97	102.24	1740.97	101.546	1740.97	99.6365	1740.97	101.289	1740.97	100.301	1740.97	97.7324	1740.97	94.2297	1740.97	94.7261	1740.97	91.1811	1740.97	93.3103	1740.97	92.2453	1740.97	92.1946	1740.97	93.1548	1740.97	88.5165	1740.97	90.9696	1740.97	90.4679	1740.97	88.1038	1740.97	86.8835	1740.97	89.7572	1740.97	81.7847	1740.97	86.3615	1740.97	84.7626	1740.97	89.7141	1740.97	72.1283	1740.97	83.62
1802.49	106.899	1802.49	106.005	1802.49	106.735	1802.49	106.096	1802.49	106.572	1802.49	106.321	1802.49	105.547	1802.49	105.646	1802.49	105.237	1802.49	103.948	1802.49	103.478	1802.49	101.559	1802.49	103.2	1802.49	100.933	1802.49	99.241	1802.49	96.3768	1802.49	98.0154	1802.49	96.871	1802.49	95.9666	1802.49	96.1573	1802.49	91.4122	1802.49	90.3019	1802.49	89.1872	1802.49	79.8095	1802.49	90.2493	1802.49	90.1036	1802.49	91.2721	1802.49	90.0736	1802.49	88.3222	1802.49	85.4021	1802.49	82.0695	1802.49	87.3025	1802.49	83.5061	1802.49	87.8817	1802.49	84.4708	1802.49	82.0114
1866.21	106.874	1866.21	107.261	1866.21	107.657	1866.21	107.23	1866.21	107.141	1866.21	106.241	1866.21	105.89	1866.21	104.754	1866.21	104.466	1866.21	103.658	1866.21	103.821	1866.21	102.813	1866.21	101.518	1866.21	100.321	1866.21	101.614	1866.21	98.2611	1866.21	99.3775	1866.21	93.7101	1866.21	94.3988	1866.21	93.7891	1866.21	93.4103	1866.21	95.7688	1866.21	93.7575	1866.21	92.7444	1866.21	88.4434	1866.21	86.7898	1866.21	91.5696	1866.21	84.7374	1866.21	85.9334	1866.21	88.8419	1866.21	82.8562	1866.21	82.0614	1866.21	79.9228	1866.21	85.8421	1866.21	73.5331	1866.21	70.1367
1932.13	107.088	1932.13	107.195	1932.13	107.269	1932.13	107.127	1932.13	106.553	1932.13	106.603	1932.13	106.11	1932.13	105.207	1932.13	105.071	1932.13	103.745	1932.13	103.156	1932.13	103.463	1932.13	102.59	1932.13	99.912	1932.13	99.6424	1932.13	99.6485	1932.13	98.1705	1932.13	97.916	1932.13	97.2704	1932.13	94.2697	1932.13	92.5799	1932.13	86.9853	1932.13	91.539	1932.13	91.8932	1932.13	89.0406	1932.13	90.7159	1932.13	92.3364	1932.13	89.7532	1932.13	86.5695	1932.13	77.1597	1932.13	90.7091	1932.13	88.8876	1932.13	82.0158	1932.13	83.2255	1932.13	84.0494	1932.13	80.579
2000.24	106.394	2000.24	106.218	2000.24	106.595	2000.24	107.34	2000.24	106.752	2000.24	106.253	2000.24	105.288	2000.24	105.367	2000.24	104.29	2000.24	104.143	2000.24	103.935	2000.24	102.503	2000.24	101.772	2000.24	101.016	2000.24	100.755	2000.24	97.2513	2000.24	98.7166	2000.24	95.266	2000.24	95.0873	2000.24	95.827	2000.24	94.3385	2000.24	96.0312	2000.24	92.8517	2000.24	81.2649	2000.24	90.5217	2000.24	86.7273	2000.24	81.9323	2000.24	91.1243	2000.24	89.1049	2000.24	88.2467	2000.24	85.681	2000.24	87.4126	2000.24	86.8491	2000.24	88.7028	2000.24	86.2164	2000.24	85.1218
2070.56	106.666	2070.56	106.468	2070.56	107.132	2070.56	106.53	2070.56	106.892	2070.56	105.987	2070.56	106.444	2070.56	104.963	2070.56	105.561	2070.56	103.91	2070.56	103.698	2070.56	102.779	2070.56	102.22	2070.56	101.733	2070.56	100.151	2070.56	99.6075	2070.56	97.1871	2070.56	96.2106	2070.56	96.119	2070.56	90.6973	2070.56	93.5825	2070.56	91.6399	2070.56	90.4521	2070.56	90.847	2070.56	86.6143	2070.56	89.8499	2070.56	89.4953	2070.56	88.8234	2070.56	80.827	2070.56	89.4865	2070.56	88.8754	2070.56	89.6741	2070.56	83.0063	2070.56	83.8399	2070.56	81.8765	2070.56	82.8601
2143.8	106.882	2143.8	107.142	2143.8	107.22	2143.8	106.471	2143.8	107.073	2143.8	106.031	2143.8	106.552	2143.8	104.876	2143.8	105.163	2143.8	105.07	2143.8	104.645	2143.8	103.138	2143.8	102.633	2143.8	101.471	2143.8	100.946	2143.8	98.883	2143.8	97.0018	2143.8	96.9031	2143.8	95.8041	2143.8	95.1096	2143.8	92.2851	2143.8	90.7509	2143.8	92.0689	2143.8	90.1999	2143.8	88.8453	2143.8	87.9761	2143.8	84.1531	2143.8	86.2067	2143.8	88.2183	2143.8	89.0121	2143.8	83.1275	2143.8	79.8707	2143.8	82.6718	2143.8	81.7181	2143.8	86.2084	2143.8	71.3032
2219.24	107.076	2219.24	108.252	2219.24	107.281	2219.24	107.964	2219.24	107.038	2219.24	106.659	2219.24	106.084	2219.24	105.733	2219.24	106.259	2219.24	104.977	2219.24	104.475	2219.24	103.405	2219.24	102.941	2219.24	100.85	2219.24	100.549	2219.24	97.5764	2219.24	98.7276	2219.24	95.8205	2219.24	94.3157	2219.24	91.6867	2219.24	94.0229	2219.24	92.4433	2219.24	88.0798	2219.24	92.2068	2219.24	88.8002	2219.24	84.71	2219.24	84.1812	2219.24	92.6464	2219.24	84.7816	2219.24	84.4985	2219.24	89.5775	2219.24	87.1098	2219.24	83.1969	2219.24	86.1241	2219.24	79.3311	2219.24	78.6825
2297.61	106.931	2297.61	106.944	2297.61	107.445	2297.61	108.137	2297.61	107.794	2297.61	106.889	2297.61	106.826	2297.61	105.994	2297.61	105.962	2297.61	104.309	2297.61	105.492	2297.61	103.533	2297.61	102.882	2297.61	100.036	2297.61	100.796	2297.61	97.909	2297.61	97.7796	2297.61	94.6494	2297.61	97.8727	2297.61	93.9243	2297.61	92.0059	2297.61	91.8828	2297.61	92.3567	2297.61	84.1468	2297.61	88.1679	2297.61	88.8142	2297.61	85.1879	2297.61	86.9202	2297.61	85.5254	2297.61	87.755	2297.61	80.6446	2297.61	83.3715	2297.61	81.6285	2297.61	84.0919	2297.61	81.9111	2297.61	72.2512
2378.17	107.106	2378.17	107.559	2378.17	107.476	2378.17	106.923	2378.17	107.901	2378.17	106.299	2378.17	107.303	2378.17	105.904	2378.17	106.432	2378.17	105.167	2378.17	104.869	2378.17	103.267	2378.17	102.91	2378.17	100.334	2378.17	100.599	2378.17	99.574	2378.17	97.8043	2378.17	97.1685	2378.17	93.0764	2378.17	93.7305	2378.17	94.0188	2378.17	90.5011	2378.17	90.6741	2378.17	92.3238	2378.17	90.3965	2378.17	87.977	2378.17	85.452	2378.17	83.138	2378.17	77.1679	2378.17	87.9952	2378.17	88.1689	2378.17	85.5419	2378.17	81.7218	2378.17	81.4384	2378.17	82.3061	2378.17	72.1432
2462.4	107.434	2462.4	107.653	2462.4	106.954	2462.4	107.375	2462.4	107.513	2462.4	106.678	2462.4	107.439	2462.4	105.899	2462.4	105.913	2462.4	104.975	2462.4	104.671	2462.4	101.243	2462.4	102.49	2462.4	101.621	2462.4	99.0778	2462.4	96.7961	2462.4	97.1186	2462.4	95.2886	2462.4	95.8289	2462.4	95.7719	2462.4	90.7173	2462.4	93.1798	2462.4	89.0248	2462.4	85.5004	2462.4	85.8142	2462.4	85.5603	2462.4	86.1724	2462.4	89.6795	2462.4	83.2357	2462.4	84.1026	2462.4	81.4659	2462.4	82.6592	2462.4	82.4133	2462.4	84.0889	2462.4	79.6434	2462.4	75.6805
2548.83	107.172	2548.83	107.599	2548.83	107.009	2548.83	106.968	2548.83	106.782	2548.83	106.556	2548.83	106.825	2548.83	105.684	2548.83	106.148	2548.83	104.136	2548.83	104.158	2548.83	103.193	2548.83	102.761	2548.83	100.062	2548.83	99.9491	2548.83	98.6164	2548.83	96.5885	2548.83	96.3924	2548.83	94.8457	2548.83	91.8947	2548.83	91.5249	2548.83	89.7776	2548.83	88.5602	2548.83	89.3531	2548.83	86.8825	2548.83	86.5735	2548.83	83.0007	2548.83	84.9779	2548.83	82.986	2548.83	86.0065	2548.83	80.7148	2548.83	83.7362	2548.83	79.2355	2548.83	85.1299	2548.83	78.0276	2548.83	74.8395
2638.92	107.183	2638.92	107.348	2638.92	107.663	2638.92	107.211	2638.92	107.336	2638.92	106.702	2638.92	107.134	2638.92	105.946	2638.92	106.365	2638.92	104.393	2638.92	104.66	2638.92	102.998	2638.92	102.915	2638.92	100.341	2638.92	98.8778	2638.92	99.5648	2638.92	98.3726	2638.92	93.2344	2638.92	92.296	2638.92	99.2474	2638.92	94.192	2638.92	91.3406	2638.92	87.9922	2638.92	90.1898	2638.92	87.2046	2638.92	87.8127	2638.92	87.3051	2638.92	84.1866	2638.92	81.2011	2638.92	85.6946	2638.92	79.8329	2638.92	83.497	2638.92	79.4738	2638.92	83.0875	2638.92	80.8891	2638.92	67.312
2731.93	107.99	2731.93	107.416	2731.93	107.313	2731.93	107.165	2731.93	107.681	2731.93	107.459	2731.93	106.963	2731.93	106.466	2731.93	106.462	2731.93	104.527	2731.93	105.02	2731.93	103.06	2731.93	102.608	2731.93	101.695	2731.93	99.1318	2731.93	97.3553	2731.93	97.9398	2731.93	98.0217	2731.93	96.1169	2731.93	85.3761	2731.93	89.8726	2731.93	90.8353	2731.93	89.3268	2731.93	87.687	2731.93	87.7961	2731.93	81.4845	2731.93	81.5088	2731.93	87.7161	2731.93	82.9884	2731.93	83.6613	2731.93	79.2669	2731.93	79.3452	2731.93	75.9331	2731.93	86.115	2731.93	79.5711	2731.93	71.2699
2828.61	108.073	2828.61	107.519	2828.61	107.006	2828.61	107.399	2828.61	106.582	2828.61	106.648	2828.61	106.759	2828.61	105.127	2828.61	106.302	2828.61	104.798	2828.61	104.574	2828.61	102.46	2828.61	101.913	2828.61	100.884	2828.61	100.206	2828.61	98.8214	2828.61	95.2043	2828.61	93.9092	2828.61	95.6096	2828.61	96.5394	2828.61	90.8855	2828.61	91.2761	2828.61	89.3739	2828.61	90.9417	2828.61	86.3467	2828.61	87.548	2828.61	80.8681	2828.61	80.5233	2828.61	83.7353	2828.61	83.7757	2828.61	78.048	2828.61	87.0905	2828.61	81.4391	2828.61	80.5555	2828.61	82.1577	2828.61	73.1551
2928.22	107.972	2928.22	107.053	2928.22	107.739	2928.22	107.128	2928.22	106.628	2928.22	107.247	2928.22	106.406	2928.22	105.65	2928.22	105.424	2928.22	104.147	2928.22	104.014	2928.22	102.429	2928.22	101.226	2928.22	99.7626	2928.22	99.3402	2928.22	94.2225	2928.22	97.884	2928.22	94.5899	2928.22	93.7595	2928.22	88.5065	2928.22	93.2146	2928.22	90.2041	2928.22	89.5454	2928.22	84.3868	2928.22	84.5882	2928.22	83.9195	2928.22	82.7832	2928.22	83.466	2928.22	80.4967	2928.22	83.7837	2928.22	67.932	2928.22	60.1777	2928.22	78.3923	2928.22	82.507	2928.22	72.7294	2928.22	74.3425
3031.49	106.99	3031.49	106.238	3031.49	106.709	3031.49	106.735	3031.49	106.536	3031.49	105.933	3031.49	106.21	3031.49	105.002	3031.49	104.993	3031.49	104.166	3031.49	103.875	3031.49	102.41	3031.49	101.661	3031.49	98.8995	3031.49	99.268	3031.49	99.5365	3031.49	99.4283	3031.49	94.3201	3031.49	96.3382	3031.49	94.8464	3031.49	93.5869	3031.49	87.2043	3031.49	90.0167	3031.49	89.8678	3031.49	83.9874	3031.49	86.3572	3031.49	82.8222	3031.49	80.3082	3031.49	79.8118	3031.49	80.4519	3031.49	76.2705	3031.49	82.2057	3031.49	79.4835	3031.49	79.3294	3031.49	74.7115	3031.49	75.5308
3138.43	106.656	3138.43	107.086	3138.43	106.715	3138.43	106.952	3138.43	105.54	3138.43	106.5	3138.43	105.548	3138.43	105.389	3138.43	105.039	3138.43	104.598	3138.43	103.741	3138.43	101.369	3138.43	101.065	3138.43	100.709	3138.43	100.535	3138.43	93.979	3138.43	97.8183	3138.43	93.8642	3138.43	96.2037	3138.43	83.0918	3138.43	92.376	3138.43	93.1313	3138.43	89.21	3138.43	85.8359	3138.43	87.6368	3138.43	81.9607	3138.43	79.2185	3138.43	83.443	3138.43	77.1509	3138.43	82.3694	3138.43	78.2237	3138.43	82.1326	3138.43	73.4533	3138.43	81.7697	3138.43	80.8286	3138.43	77.9843
3249.02	106.722	3249.02	106.037	3249.02	106.977	3249.02	107.209	3249.02	107.411	3249.02	105.94	3249.02	105.122	3249.02	105.553	3249.02	105.059	3249.02	104.413	3249.02	103.533	3249.02	102.153	3249.02	101.976	3249.02	98.4136	3249.02	100.993	3249.02	98.2857	3249.02	98.6271	3249.02	95.3479	3249.02	95.3431	3249.02	96.9482	3249.02	91.0402	3249.02	83.954	3249.02	86.7212	3249.02	88.0746	3249.02	83.4935	3249.02	85.4899	3249.02	73.696	3249.02	79.3912	3249.02	72.1704	3249.02	80.6457	3249.02	79.6355	3249.02	79.4614	3249.02	83.3004	3249.02	82.7623	3249.02	75.5417	3249.02	80.8837
3363.28	106.571	3363.28	107.025	3363.28	106.628	3363.28	106.592	3363.28	106.802	3363.28	106.069	3363.28	105.388	3363.28	105.464	3363.28	105.124	3363.28	103.866	3363.28	103.875	3363.28	101.248	3363.28	102.502	3363.28	99.7218	3363.28	101.829	3363.28	97.127	3363.28	98.2218	3363.28	96.6152	3363.28	92.7503	3363.28	86.7605	3363.28	86.594	3363.28	91.8095	3363.28	84.7777	3363.28	86.3093	3363.28	82.6364	3363.28	85.3243	3363.28	79.1691	3363.28	81.2876	3363.28	75.8314	3363.28	84.9439	3363.28	75.7804	3363.28	80.5368	3363.28	80.2911	3363.28	78.9393	3363.28	79.986	3363.28	71.9003
3481.93	106.035	3481.93	106.697	3481.93	106.906	3481.93	106.643	3481.93	106.193	3481.93	105.664	3481.93	105.345	3481.93	105.253	3481.93	104.932	3481.93	103.88	3481.93	103.718	3481.93	102.202	3481.93	103.591	3481.93	100.795	3481.93	101.895	3481.93	97.6399	3481.93	96.2173	3481.93	91.3601	3481.93	92.8575	3481.93	94.5052	3481.93	87.7524	3481.93	87.8595	3481.93	86.5361	3481.93	88.3376	3481.93	85.712	3481.93	83.988	3481.93	80.2719	3481.93	78.655	3481.93	72.7628	3481.93	78.7063	3481.93	74.0152	3481.93	79.1159	3481.93	78.1329	3481.93	76.0903	3481.93	70.8497	3481.93	63.447
3604.98	106.907	3604.98	106.87	3604.98	106.949	3604.98	106.098	3604.98	106.616	3604.98	106.014	3604.98	105.756	3604.98	105.155	3604.98	104.414	3604.98	103.751	3604.98	104.248	3604.98	101.986	3604.98	103.866	3604.98	98.7084	3604.98	100.499	3604.98	96.1378	3604.98	94.9846	3604.98	95.853	3604.98	90.2258	3604.98	92.7225	3604.98	88.3111	3604.98	89.0623	3604.98	87.0436	3604.98	86.0249	3604.98	84.0023	3604.98	85.8451	3604.98	82.5191	3604.98	82.4193	3604.98	61.3914	3604.98	80.397	3604.98	76.7823	3604.98	76.556	3604.98	75.8302	3604.98	78.1498	3604.98	75.5367	3604.98	72.8249
3732.42	106.45	3732.42	107.275	3732.42	106.973	3732.42	106.583	3732.42	106.703	3732.42	106.348	3732.42	105.526	3732.42	104.949	3732.42	104.536	3732.42	103.951	3732.42	104.468	3732.42	101.587	3732.42	103.558	3732.42	99.0813	3732.42	99.2933	3732.42	95.2807	3732.42	94.2633	3732.42	89.6648	3732.42	89.3102	3732.42	88.2925	3732.42	88.4258	3732.42	88.8785	3732.42	85.5674	3732.42	86.667	3732.42	85.2716	3732.42	82.552	3732.42	83.4354	3732.42	78.729	3732.42	69.9396	3732.42	77.3157	3732.42	79.0097	3732.42	79.7695	3732.42	77.9457	3732.42	80.9342	3732.42	72.711	3732.42	78.7128
3863.53	107.051	3863.53	106.525	3863.53	106.473	3863.53	105.907	3863.53	106.943	3863.53	105.906	3863.53	106.13	3863.53	104.806	3863.53	104.192	3863.53	103.908	3863.53	104.763	3863.53	101.569	3863.53	102.461	3863.53	97.754	3863.53	98.7638	3863.53	96.7538	3863.53	94.1794	3863.53	94.1038	3863.53	90.7383	3863.53	92.5257	3863.53	88.9627	3863.53	86.6611	3863.53	85.7145	3863.53	82.9884	3863.53	84.4638	3863.53	84.0067	3863.53	80.468	3863.53	82.7083	3863.53	75.7311	3863.53	82.5001	3863.53	77.6766	3863.53	72.0748	3863.53	77.4822	3863.53	80.735	3863.53	73.3751	3863.53	79.5536
3999.76	106.972	3999.76	107.287	3999.76	106.839	3999.76	106.583	3999.76	106.506	3999.76	105.797	3999.76	105.676	3999.76	104.72	3999.76	104.74	3999.76	103.506	3999.76	105.136	3999.76	101.144	3999.76	102.771	3999.76	97.9623	3999.76	98.5823	3999.76	95.1655	3999.76	92.4197	3999.76	95.139	3999.76	88.9362	3999.76	84.9347	3999.76	88.3323	3999.76	88.9113	3999.76	86.7411	3999.76	84.1123	3999.76	81.8663	3999.76	82.3054	3999.76	81.2906	3999.76	80.8347	3999.76	78.2617	3999.76	81.9966	3999.76	72.3976	3999.76	76.9697	3999.76	65.1887	3999.76	79.1994	3999.76	58.9175	3999.76	75.0742
4141.11	107.398	4141.11	106.452	4141.11	107.039	4141.11	107.051	4141.11	107.592	4141.11	105.865	4141.11	105.965	4141.11	105.202	4141.11	104.792	4141.11	104.138	4141.11	104.904	4141.11	100.881	4141.11	102.778	4141.11	99.0887	4141.11	97.7643	4141.11	96.3977	4141.11	91.2589	4141.11	88.6072	4141.11	90.9977	4141.11	90.042	4141.11	89.135	4141.11	88.2562	4141.11	84.0991	4141.11	85.9815	4141.11	81.9489	4141.11	82.1138	4141.11	76.3281	4141.11	80.7432	4141.11	74.5432	4141.11	77.0759	4141.11	75.822	4141.11	73.3323	4141.11	75.702	4141.11	83.2096	4141.11	76.379	4141.11	78.9649
4286.87	108.232	4286.87	107.713	4286.87	107.199	4286.87	107.043	4286.87	106.973	4286.87	105.27	4286.87	105.908	4286.87	104.763	4286.87	104.929	4286.87	103.318	4286.87	104.932	4286.87	101.392	4286.87	102.965	4286.87	97.974	4286.87	93.6589	4286.87	95.7786	4286.87	93.2718	4286.87	94.1768	4286.87	92.0405	4286.87	91.225	4286.87	90.0886	4286.87	86.8187	4286.87	86.1949	4286.87	84.3613	4286.87	81.6661	4286.87	83.8526	4286.87	80.4817	4286.87	82.493	4286.87	73.8596	4286.87	79.5936	4286.87	70.6673	4286.87	74.4391	4286.87	70.5998	4286.87	75.2641	4286.87	75.0661	4286.87	64.8976
4438.48	107.453	4438.48	106.693	4438.48	106.419	4438.48	107.277	4438.48	106.748	4438.48	105.918	4438.48	105.599	4438.48	105.424	4438.48	105.406	4438.48	104.041	4438.48	106.149	4438.48	100.939	4438.48	101.609	4438.48	98.4177	4438.48	92.983	4438.48	95.4895	4438.48	93.7522	4438.48	91.8032	4438.48	92.3608	4438.48	88.4446	4438.48	89.3511	4438.48	86.3459	4438.48	87.1708	4438.48	83.8613	4438.48	82.3344	4438.48	83.1959	4438.48	77.9844	4438.48	74.8814	4438.48	71.8832	4438.48	68.2866	4438.48	72.067	4438.48	72.5376	4438.48	82.0354	4438.48	79.6007	4438.48	76.5058	4438.48	73.3258
4594.48	107.892	4594.48	106.983	4594.48	106.636	4594.48	106.793	4594.48	106.143	4594.48	105.495	4594.48	105.538	4594.48	104.32	4594.48	105.245	4594.48	103.202	4594.48	106.685	4594.48	100.459	4594.48	99.1333	4594.48	97.4918	4594.48	97.3548	4594.48	93.3463	4594.48	96.3843	4594.48	92.0757	4594.48	93.0496	4594.48	89.3908	4594.48	88.4887	4594.48	85.7183	4594.48	84.7595	4594.48	82.2064	4594.48	84.2596	4594.48	82.2876	4594.48	79.1462	4594.48	79.2735	4594.48	76.8856	4594.48	80.5709	4594.48	70.0013	4594.48	58.2973	4594.48	80.3973	4594.48	80.6798	4594.48	76.8221	4594.48	75.1571
4757.08	107.539	4757.08	106.769	4757.08	107.723	4757.08	106.636	4757.08	107.104	4757.08	105.542	4757.08	105.112	4757.08	104.136	4757.08	105.209	4757.08	103.559	4757.08	106.945	4757.08	100.56	4757.08	94.1626	4757.08	97.4205	4757.08	99.7763	4757.08	95.4563	4757.08	96.8357	4757.08	88.1256	4757.08	93.5208	4757.08	88.1808	4757.08	89.0876	4757.08	84.9306	4757.08	84.2024	4757.08	83.1336	4757.08	83.6429	4757.08	81.7468	4757.08	80.8383	4757.08	79.457	4757.08	65.1095	4757.08	78.1615	4757.08	76.9631	4757.08	78.9684	4757.08	76.317	4757.08	77.1257	4757.08	66.9743	4757.08	73.2541
4924.8	107.019	4924.8	107.07	4924.8	107.905	4924.8	106.325	4924.8	107.237	4924.8	105.812	4924.8	104.859	4924.8	104.333	4924.8	106.267	4924.8	103.365	4924.8	105.355	4924.8	101.051	4924.8	96.9252	4924.8	96.68	4924.8	99.7196	4924.8	93.6052	4924.8	97.5961	4924.8	92.3374	4924.8	93.4088	4924.8	87.7552	4924.8	86.8492	4924.8	84.8732	4924.8	83.1281	4924.8	82.2284	4924.8	82.0069	4924.8	83.3559	4924.8	79.5077	4924.8	73.6238	4924.8	69.3843	4924.8	74.2429	4924.8	77.4539	4924.8	79.2086	4924.8	79.0569	4924.8	76.4545	4924.8	61.9909	4924.8	75.8189
5098.39	107.31	5098.39	107.226	5098.39	106.43	5098.39	106.466	5098.39	106.703	5098.39	105.814	5098.39	106.423	5098.39	104.238	5098.39	106.717	5098.39	103.536	5098.39	104.292	5098.39	100.696	5098.39	100.735	5098.39	97.4966	5098.39	100.484	5098.39	94.5425	5098.39	96.837	5098.39	91.2005	5098.39	89.3772	5098.39	88.7391	5098.39	84.9118	5098.39	85.3304	5098.39	80.8476	5098.39	81.7546	5098.39	78.1488	5098.39	83.6602	5098.39	76.466	5098.39	72.1706	5098.39	74.0725	5098.39	80.2541	5098.39	75.887	5098.39	77.603	5098.39	78.7226	5098.39	72.4715	5098.39	58.8558	5098.39	73.5859
5277.83	107.093	5277.83	107.162	5277.83	107.1	5277.83	106.84	5277.83	107.171	5277.83	105.983	5277.83	107.343	5277.83	104.472	5277.83	106.588	5277.83	103.338	5277.83	100.117	5277.83	101.245	5277.83	102.763	5277.83	97.3018	5277.83	99.5191	5277.83	94.1452	5277.83	94.2773	5277.83	91.4017	5277.83	89.5274	5277.83	87.0026	5277.83	85.2699	5277.83	83.4892	5277.83	82.7042	5277.83	81.8218	5277.83	77.6802	5277.83	83.7723	5277.83	76.1381	5277.83	74.3549	5277.83	75.7948	5277.83	77.2031	5277.83	76.5843	5277.83	76.3743	5277.83	79.6163	5277.83	77.386	5277.83	74.7357	5277.83	65.3738
5463.87	107.693	5463.87	107.333	5463.87	107.736	5463.87	106.532	5463.87	107.239	5463.87	105.5	5463.87	107.306	5463.87	104.659	5463.87	106.672	5463.87	103.138	5463.87	99.3837	5463.87	100.586	5463.87	103.599	5463.87	97.5731	5463.87	97.8125	5463.87	92.9793	5463.87	92.9341	5463.87	88.9302	5463.87	88.5975	5463.87	88.5568	5463.87	84.5256	5463.87	83.6758	5463.87	85.5128	5463.87	81.1083	5463.87	81.5286	5463.87	83.2629	5463.87	78.404	5463.87	75.8644	5463.87	71.7304	5463.87	72.626	5463.87	76.2028	5463.87	81.0402	5463.87	81.89	5463.87	75.9295	5463.87	74.0468	5463.87	65.8661
5656.49	107.027	5656.49	107.079	5656.49	106.905	5656.49	106.939	5656.49	107.176	5656.49	105.907	5656.49	106.518	5656.49	104.59	5656.49	104.83	5656.49	103.45	5656.49	100.819	5656.49	100.487	5656.49	103.155	5656.49	96.3648	5656.49	97.1492	5656.49	94.1528	5656.49	92.6654	5656.49	88.9314	5656.49	88.2254	5656.49	86.6879	5656.49	86.4106	5656.49	83.3784	5656.49	84.327	5656.49	81.8232	5656.49	80.6921	5656.49	81.9072	5656.49	76.8547	5656.49	76.4312	5656.49	65.7441	5656.49	70.379	5656.49	71.8717	5656.49	76.6371	5656.49	78.6169	5656.49	70.322	5656.49	63.807	5656.49	66.9628
5856.45	106.619	5856.45	106.628	5856.45	106.933	5856.45	106.495	5856.45	106.38	5856.45	105.135	5856.45	105.577	5856.45	104.185	5856.45	104.784	5856.45	102.777	5856.45	102.856	5856.45	100.092	5856.45	101.757	5856.45	96.0163	5856.45	97.7586	5856.45	93.0501	5856.45	92.5564	5856.45	89.2661	5856.45	90.1258	5856.45	86.5715	5856.45	83.0525	5856.45	82.3784	5856.45	82.8157	5856.45	81.278	5856.45	77.1187	5856.45	80.3148	5856.45	71.6385	5856.45	80.0486	5856.45	63.8083	5856.45	71.5969	5856.45	73.2762	5856.45	71.6046	5856.45	73.2471	5856.45	67.4499	5856.45	67.7627	5856.45	69.9586
6062.99	106.886	6062.99	106.278	6062.99	106.752	6062.99	105.761	6062.99	105.884	6062.99	104.861	6062.99	104.789	6062.99	103.429	6062.99	103.927	6062.99	102.18	6062.99	104.157	6062.99	99.025	6062.99	100.522	6062.99	95.2283	6062.99	97.9119	6062.99	92.0944	6062.99	92.5267	6062.99	88.5278	6062.99	87.0772	6062.99	84.013	6062.99	84.5376	6062.99	80.6256	6062.99	80.5944	6062.99	79.3731	6062.99	79.6773	6062.99	76.3901	6062.99	72.7007	6062.99	75.5103	6062.99	72.1458	6062.99	62.216	6062.99	77.2141	6062.99	67.8592	6062.99	73.9769	6062.99	72.2659	6062.99	71.8465	6062.99	70.3763
6276.86	105.858	6276.86	105.812	6276.86	106.684	6276.86	105.217	6276.86	106.635	6276.86	104.212	6276.86	104.68	6276.86	102.289	6276.86	103.295	6276.86	101.072	6276.86	105.137	6276.86	98.0642	6276.86	99.6211	6276.86	93.5019	6276.86	98.5011	6276.86	89.3831	6276.86	92.797	6276.86	87.2811	6276.86	85.7938	6276.86	84.0868	6276.86	85.2826	6276.86	81.2958	6276.86	80.2034	6276.86	78.4918	6276.86	72.5321	6276.86	73.8527	6276.86	68.8763	6276.86	68.8192	6276.86	77.6431	6276.86	55.9928	6276.86	72.0861	6276.86	62.9321	6276.86	72.0492	6276.86	67.0556	6276.86	56.7892	6276.86	63.1764
6498.05	105.948	6498.05	105.634	6498.05	106.098	6498.05	105.45	6498.05	106.559	6498.05	104.441	6498.05	104.33	6498.05	102.648	6498.05	103.805	6498.05	100.764	6498.05	104.056	6498.05	98.3952	6498.05	101.244	6498.05	94.1552	6498.05	96.7496	6498.05	90.6881	6498.05	91.4736	6498.05	87.1971	6498.05	88.445	6498.05	82.5723	6498.05	87.3663	6498.05	80.3023	6498.05	84.9208	6498.05	79.7657	6498.05	78.5499	6498.05	75.9907	6498.05	76.3708	6498.05	48.038	6498.05	75.4465	6498.05	66.7397	6498.05	65.4783	6498.05	61.799	6498.05	69.8882	6498.05	71.1889	6498.05	74.0193	6498.05	68.2966
6727.29	106.224	6727.29	105.847	6727.29	105.722	6727.29	106.002	6727.29	106.513	6727.29	104.743	6727.29	104.781	6727.29	103.388	6727.29	103.795	6727.29	101.417	6727.29	102.974	6727.29	98.8869	6727.29	100.169	6727.29	95.2029	6727.29	95.0655	6727.29	90.5372	6727.29	91.0504	6727.29	88.629	6727.29	88.6758	6727.29	84.0614	6727.29	87.7339	6727.29	80.3661	6727.29	83.7214	6727.29	77.5925	6727.29	80.073	6727.29	77.0656	6727.29	75.6059	6727.29	66.744	6727.29	73.7126	6727.29	66.9244	6727.29	67.9271	6727.29	70.1919	6727.29	74.898	6727.29	77.2264	6727.29	77.5173	6727.29	67.2013
6964.6	106.351	6964.6	106.511	6964.6	106.435	6964.6	106.281	6964.6	106.588	6964.6	105.286	6964.6	106.014	6964.6	103.734	6964.6	103.922	6964.6	102.162	6964.6	103.214	6964.6	98.8874	6964.6	100.078	6964.6	95.3881	6964.6	93.4639	6964.6	91.3879	6964.6	92.1047	6964.6	87.7548	6964.6	89.1723	6964.6	84.8747	6964.6	86.5437	6964.6	80.1366	6964.6	81.9833	6964.6	79.9449	6964.6	78.2526	6964.6	77.8583	6964.6	69.3976	6964.6	69.1518	6964.6	72.2016	6964.6	72.7858	6964.6	69.7681	6964.6	70.0917	6964.6	74.995	6964.6	70.3538	6964.6	67.6963	6964.6	74.373
7209.96	107.16	7209.96	106.922	7209.96	106.835	7209.96	106.686	7209.96	106.76	7209.96	105.575	7209.96	106.341	7209.96	104.142	7209.96	104.125	7209.96	102.296	7209.96	103.497	7209.96	99.5766	7209.96	100.139	7209.96	95.0994	7209.96	93.601	7209.96	91.4938	7209.96	93.8796	7209.96	87.8401	7209.96	89.0355	7209.96	84.0531	7209.96	83.8175	7209.96	81.1226	7209.96	79.496	7209.96	78.7283	7209.96	76.2195	7209.96	76.8741	7209.96	72.7532	7209.96	68.8134	7209.96	58.4914	7209.96	75.1473	7209.96	60.3534	7209.96	71.9554	7209.96	57.3223	7209.96	70.9161	7209.96	75.9004	7209.96	76.3786
7464.11	107.608	7464.11	107.258	7464.11	107.158	7464.11	107.202	7464.11	107.298	7464.11	105.972	7464.11	105.563	7464.11	104.382	7464.11	104.072	7464.11	102.43	7464.11	103.811	7464.11	99.6986	7464.11	99.0593	7464.11	95.2938	7464.11	95.3879	7464.11	90.7502	7464.11	94.2437	7464.11	87.3304	7464.11	86.5851	7464.11	83.5638	7464.11	79.403	7464.11	79.7437	7464.11	72.5579	7464.11	80.7933	7464.11	58.6442	7464.11	76.8481	7464.11	66.0396	7464.11	67.5096	7464.11	63.574	7464.11	70.465	7464.11	74.8663	7464.11	72.3189	7464.11	73.1692	7464.11	73.6142	7464.11	69.8178	7464.11	64.0871
7727.78	108.068	7727.78	107.773	7727.78	107.546	7727.78	107.654	7727.78	107.492	7727.78	106.33	7727.78	105.704	7727.78	104.548	7727.78	104.514	7727.78	102.79	7727.78	103.8	7727.78	99.5707	7727.78	97.9379	7727.78	95.7716	7727.78	97.5252	7727.78	90.9396	7727.78	92.6376	7727.78	87.928	7727.78	82.8116	7727.78	84.2927	7727.78	82.3042	7727.78	81.037	7727.78	81.5652	7727.78	77.8463	7727.78	75.7582	7727.78	74.9504	7727.78	65.3056	7727.78	68.9602	7727.78	65.3922	7727.78	72.2661	7727.78	69.1567	7727.78	68.8265	7727.78	71.1994	7727.78	77.7175	7727.78	73.3949	7727.78	72.0907
8000.24	108.306	8000.24	108.259	8000.24	108.148	8000.24	107.98	8000.24	107.806	8000.24	106.572	8000.24	105.949	8000.24	104.844	8000.24	105.225	8000.24	103.097	8000.24	103.641	8000.24	99.9918	8000.24	97.229	8000.24	95.4869	8000.24	97.6693	8000.24	91.5941	8000.24	91.2153	8000.24	88.6091	8000.24	82.6796	8000.24	83.7973	8000.24	84.4328	8000.24	82.0083	8000.24	81.2646	8000.24	79.8171	8000.24	74.6778	8000.24	74.7668	8000.24	68.2778	8000.24	63.8531	8000.24	57.6906	8000.24	68.4681	8000.24	69.5603	8000.24	70.0812	8000.24	70.932	8000.24	69.3811	8000.24	71.7339	8000.24	74.1716
8282.23	108.626	8282.23	108.487	8282.23	108.544	8282.23	108.048	8282.23	108.09	8282.23	106.635	8282.23	106.421	8282.23	105.005	8282.23	105.622	8282.23	102.92	8282.23	103.436	8282.23	99.9933	8282.23	98.7751	8282.23	95.341	8282.23	96.8793	8282.23	91.1084	8282.23	89.2665	8282.23	87.2608	8282.23	86.1267	8282.23	83.3135	8282.23	84.7343	8282.23	81.1199	8282.23	79.6375	8282.23	79.9079	8282.23	75.2229	8282.23	73.5716	8282.23	71.9182	8282.23	64.2809	8282.23	61.41	8282.23	72.626	8282.23	59.9733	8282.23	70.1784	8282.23	73.0958	8282.23	69.0233	8282.23	70.3144	8282.23	70.4744
8574.46	108.91	8574.46	108.478	8574.46	108.557	8574.46	107.928	8574.46	108.047	8574.46	106.388	8574.46	106.255	8574.46	104.727	8574.46	105.957	8574.46	102.417	8574.46	102.36	8574.46	98.7899	8574.46	100.476	8574.46	94.8362	8574.46	95.8074	8574.46	89.5942	8574.46	87.982	8574.46	86.1871	8574.46	88.869	8574.46	83.396	8574.46	84.0152	8574.46	81.292	8574.46	76.5029	8574.46	75.7105	8574.46	70.015	8574.46	74.2274	8574.46	67.8786	8574.46	62.4167	8574.46	65.0303	8574.46	64.6501	8574.46	74.1115	8574.46	62.524	8574.46	73.5339	8574.46	71.4631	8574.46	74.7355	8574.46	70.162
8876.22	108.793	8876.22	108.259	8876.22	108.321	8876.22	107.579	8876.22	107.811	8876.22	105.88	8876.22	106.308	8876.22	104.032	8876.22	106.115	8876.22	101.816	8876.22	100.339	8876.22	98.3456	8876.22	101.321	8876.22	93.7866	8876.22	93.9019	8876.22	89.5034	8876.22	91.2508	8876.22	85.7916	8876.22	87.4205	8876.22	82.3261	8876.22	80.2728	8876.22	80.2581	8876.22	72.1714	8876.22	77.9301	8876.22	63.3835	8876.22	72.1596	8876.22	51.3726	8876.22	66.5482	8876.22	54.6865	8876.22	66.3904	8876.22	71.0291	8876.22	69.438	8876.22	68.1611	8876.22	53.4542	8876.22	73.7453	8876.22	64.3122
9189.7	108.861	9189.7	108.012	9189.7	108.208	9189.7	107.25	9189.7	107.657	9189.7	105.337	9189.7	106.217	9189.7	103.412	9189.7	105.86	9189.7	100.999	9189.7	99.6833	9189.7	97.7121	9189.7	100.89	9189.7	93.3341	9189.7	93.1477	9189.7	88.2645	9189.7	91.7678	9189.7	84.04	9189.7	84.4237	9189.7	81.3301	9189.7	80.2277	9189.7	78.1863	9189.7	75.4737	9189.7	73.9858	9189.7	68.2092	9189.7	69.4729	9189.7	58.0395	9189.7	60.9491	9189.7	53.8876	9189.7	70.6164	9189.7	66.2781	9189.7	72.0104	9189.7	56.5481	9189.7	68.5214	9189.7	70.9761	9189.7	66.6273
9513.43	107.595	9513.43	106.986	9513.43	107.075	9513.43	105.97	9513.43	106.142	9513.43	104.285	9513.43	104.405	9513.43	102.774	9513.43	103.542	9513.43	100.557	9513.43	99.1799	9513.43	97.1292	9513.43	97.5279	9513.43	92.7752	9513.43	92.5596	9513.43	88.0535	9513.43	88.147	9513.43	84.6186	9513.43	81.6151	9513.43	81.3262	9513.43	78.3448	9513.43	77.6246	9513.43	73.032	9513.43	73.9581	9513.43	64.6689	9513.43	67.3062	9513.43	59.3981	9513.43	70.8308	9513.43	61.8301	9513.43	64.3395	9513.43	64.2802	9513.43	69.6351	9513.43	63.4552	9513.43	71.0412	9513.43	58.5974	9513.43	70.9004
9848.88	106.537	9848.88	105.883	9848.88	106.077	9848.88	104.635	9848.88	104.694	9848.88	102.872	9848.88	102.305	9848.88	101.126	9848.88	101.681	9848.88	98.9117	9848.88	99.9421	9848.88	95.3889	9848.88	94.498	9848.88	90.8634	9848.88	91.5741	9848.88	86.336	9848.88	86.3513	9848.88	81.0951	9848.88	81.5717	9848.88	78.9732	9848.88	77.0351	9848.88	76.146	9848.88	69.5525	9848.88	71.081	9848.88	61.3218	9848.88	65.6779	9848.88	55.316	9848.88	63.9619	9848.88	59.31	9848.88	67.9647	9848.88	70.4511	9848.88	62.6098	9848.88	57.107	9848.88	66.1237	9848.88	60.1267	9848.88	67.6815
10196.8	107.654	10196.8	106.754	10196.8	107.21	10196.8	105.162	10196.8	105.907	10196.8	103.065	10196.8	103.841	10196.8	101.111	10196.8	102.552	10196.8	98.5115	10196.8	102.025	10196.8	95.0036	10196.8	95.5322	10196.8	90.8078	10196.8	92.373	10196.8	85.8643	10196.8	88.1711	10196.8	81.8037	10196.8	83.1886	10196.8	78.3654	10196.8	75.8141	10196.8	75.6798	10196.8	69.178	10196.8	72.0972	10196.8	61.5821	10196.8	58.4315	10196.8	58.5059	10196.8	72.1236	10196.8	63.3578	10196.8	67.6129	10196.8	68.9523	10196.8	66.8291	10196.8	58.738	10196.8	69.3569	10196.8	70.4966	10196.8	71.3273
10556.4	108.929	10556.4	107.92	10556.4	108.085	10556.4	106.357	10556.4	106.594	10556.4	104.202	10556.4	104.58	10556.4	102.522	10556.4	101.678	10556.4	100.222	10556.4	101.684	10556.4	96.9354	10556.4	96.1851	10556.4	92.4763	10556.4	92.7787	10556.4	87.4839	10556.4	88.5596	10556.4	83.5439	10556.4	81.3414	10556.4	80.5173	10556.4	77.2061	10556.4	77.3937	10556.4	71.1	10556.4	73.7271	10556.4	60.4278	10556.4	67.9256	10556.4	60.2896	10556.4	62.0591	10556.4	58.1388	10556.4	58.573	10556.4	66.1086	10556.4	59.2671	10556.4	55.0955	10556.4	69.5988	10556.4	73.5699	10556.4	79.8982
10928.5	109.332	10928.5	108.458	10928.5	108.556	10928.5	107.04	10928.5	107.007	10928.5	104.727	10928.5	104.614	10928.5	102.86	10928.5	102.28	10928.5	100.404	10928.5	100.833	10928.5	96.9638	10928.5	96.4085	10928.5	92.3474	10928.5	93.6519	10928.5	87.5142	10928.5	86.1813	10928.5	82.6979	10928.5	81.8779	10928.5	80.5578	10928.5	77.9947	10928.5	76.1518	10928.5	70.6346	10928.5	72.4608	10928.5	63.1882	10928.5	64.8769	10928.5	60.0562	10928.5	72.3664	10928.5	66.4013	10928.5	68.8957	10928.5	69.2627	10928.5	68.9583	10928.5	61.88	10928.5	67.2844	10928.5	74.8471	10928.5	82.2215
11313.7	109.08	11313.7	108.105	11313.7	108.664	11313.7	106.944	11313.7	107.47	11313.7	104.424	11313.7	104.742	11313.7	102.137	11313.7	103.466	11313.7	99.1817	11313.7	100.582	11313.7	95.4581	11313.7	95.9142	11313.7	90.5813	11313.7	94.0133	11313.7	85.6787	11313.7	85.897	11313.7	81.3086	11313.7	83.893	11313.7	77.7278	11313.7	74.9	11313.7	74.4875	11313.7	62.3508	11313.7	66.8285	11313.7	59.7632	11313.7	54.001	11313.7	55.0371	11313.7	73.7934	11313.7	53.6534	11313.7	73.4463	11313.7	68.7438	11313.7	61.7629	11313.7	68.544	11313.7	71.2946	11313.7	75.2999	11313.7	82.869
11712.9	108.777	11712.9	107.675	11712.9	108.158	11712.9	107.05	11712.9	107.055	11712.9	104.69	11712.9	105.042	11712.9	102.173	11712.9	103.909	11712.9	99.2009	11712.9	100.445	11712.9	95.451	11712.9	96.3259	11712.9	90.5061	11712.9	92.0096	11712.9	85.5033	11712.9	88.3932	11712.9	80.2861	11712.9	81.8543	11712.9	77.9746	11712.9	72.3397	11712.9	75.3515	11712.9	55.6014	11712.9	67.5655	11712.9	56.5441	11712.9	60.7446	11712.9	63.1001	11712.9	71.0412	11712.9	54.9976	11712.9	76.5581	11712.9	70.706	11712.9	58.3343	11712.9	71.926	11712.9	77.5782	11712.9	77.5478	11712.9	87.1809
12126	109.337	12126	108.342	12126	108.871	12126	107.4	12126	107.407	12126	104.874	12126	105.216	12126	102.143	12126	104.091	12126	99.0189	12126	99.6593	12126	95.088	12126	96.9723	12126	89.9525	12126	88.7993	12126	85.1985	12126	88.5265	12126	79.6586	12126	78.6056	12126	76.9168	12126	71.3563	12126	74.523	12126	58.2619	12126	67.779	12126	54.4882	12126	61.9873	12126	62.0625	12126	69.5789	12126	55.2316	12126	68.3698	12126	50.4477	12126	68.8683	12126	71.166	12126	79.8482	12126	78.2452	12126	89.1133
12553.7	110.448	12553.7	109.368	12553.7	109.865	12553.7	107.555	12553.7	107.998	12553.7	104.048	12553.7	105.019	12553.7	100.612	12553.7	102.842	12553.7	96.5633	12553.7	97.362	12553.7	92.257	12553.7	95.316	12553.7	87.0747	12553.7	88.8973	12553.7	81.2777	12553.7	83.8525	12553.7	77.3037	12553.7	76.3167	12553.7	73.7701	12553.7	70.4301	12553.7	71.6554	12553.7	58.0596	12553.7	67.7696	12553.7	54.5553	12553.7	62.867	12553.7	59.6776	12553.7	66.2295	12553.7	63.2333	12553.7	69.7461	12553.7	63.5987	12553.7	70.9324	12553.7	68.6447	12553.7	76.9511	12553.7	74.6003	12553.7	88.5793
12996.1	110.007	12996.1	109.278	12996.1	109.656	12996.1	107.153	12996.1	107.609	12996.1	102.717	12996.1	104.325	12996.1	98.137	12996.1	102.186	12996.1	93.5868	12996.1	95.4066	12996.1	88.4741	12996.1	92.1031	12996.1	84.2936	12996.1	89.1726	12996.1	76.6598	12996.1	81.5119	12996.1	72.9738	12996.1	74.3786	12996.1	67.8933	12996.1	62.4247	12996.1	55.4406	12996.1	57.3675	12996.1	65.0153	12996.1	60.1612	12996.1	63.7378	12996.1	40.5244	12996.1	65.0998	12996.1	57.985	12996.1	69.0996	12996.1	54.4669	12996.1	72.604	12996.1	59.8677	12996.1	70.3888	12996.1	72.3404	12996.1	87.2032
13454.6	109.775	13454.6	108.826	13454.6	109.257	13454.6	106.595	13454.6	107.149	13454.6	101.71	13454.6	103.412	13454.6	97.0658	13454.6	100.692	13454.6	92.8936	13454.6	94.5807	13454.6	88.1587	13454.6	86.7967	13454.6	85.1984	13454.6	86.5821	13454.6	77.1208	13454.6	81.2172	13454.6	72.7029	13454.6	72.0005	13454.6	65.8216	13454.6	62.9375	13454.6	62.5584	13454.6	60.3944	13454.6	62.9366	13454.6	61.0836	13454.6	62.8005	13454.6	44.8018	13454.6	67.9626	13454.6	52.7721	13454.6	71.3113	13454.6	62.7934	13454.6	73.3894	13454.6	63.3915	13454.6	63.41	13454.6	76.0643	13454.6	87.4828
13928.5	108.972	13928.5	108.23	13928.5	108.319	13928.5	106.116	13928.5	105.533	13928.5	101.229	13928.5	101.639	13928.5	96.811	13928.5	96.9999	13928.5	93.016	13928.5	91.2861	13928.5	89.2759	13928.5	84.6476	13928.5	85.7814	13928.5	81.2812	13928.5	78.5252	13928.5	76.3329	13928.5	73.3047	13928.5	67.0778	13928.5	67.0056	13928.5	62.4324	13928.5	65.0323	13928.5	61.7272	13928.5	63.4344	13928.5	48.5241	13928.5	60.5829	13928.5	57.4398	13928.5	68.2911	13928.5	59.923	13928.5	66.7052	13928.5	69.9232	13928.5	71.7025	13928.5	64.8018	13928.5	72.3592	13928.5	77.4423	13928.5	88.2676
14419.9	108.811	14419.9	108.315	14419.9	107.945	14419.9	105.919	14419.9	104.912	14419.9	100.769	14419.9	99.9361	14419.9	96.2502	14419.9	94.228	14419.9	92.8079	14419.9	88.4879	14419.9	88.5596	14419.9	83.504	14419.9	85.6532	14419.9	78.9381	14419.9	77.7915	14419.9	71.0377	14419.9	71.3307	14419.9	66.3395	14419.9	69.4729	14419.9	55.5072	14419.9	64.639	14419.9	56.7588	14419.9	63.9065	14419.9	53.3241	14419.9	61.383	14419.9	60.5025	14419.9	65.6014	14419.9	63.476	14419.9	67.6318	14419.9	73.0122	14419.9	65.3933	14419.9	65.9484	14419.9	73.8287	14419.9	75.9887	14419.9	89.4501
14928.2	107.365	14928.2	106.784	14928.2	106.572	14928.2	103.648	14928.2	103.815	14928.2	97.6262	14928.2	98.7256	14928.2	93.1552	14928.2	93.4041	14928.2	90.0972	14928.2	88.985	14928.2	86.2934	14928.2	86.5181	14928.2	83.6413	14928.2	80.0704	14928.2	76.9197	14928.2	77.5115	14928.2	66.4079	14928.2	69.9769	14928.2	70.8457	14928.2	56.487	14928.2	67.226	14928.2	50.3033	14928.2	64.9526	14928.2	57.354	14928.2	65.2473	14928.2	59.8071	14928.2	65.551	14928.2	58.6652	14928.2	74.103	14928.2	71.6595	14928.2	72.4772	14928.2	60.6937	14928.2	72.8512	14928.2	77.4015	14928.2	88.477
15454.8	107.27	15454.8	106.498	15454.8	106.233	15454.8	103.051	15454.8	102.949	15454.8	96.8946	15454.8	97.8315	15454.8	93.0327	15454.8	92.4518	15454.8	90.9862	15454.8	87.2613	15454.8	86.2565	15454.8	85.5963	15454.8	83.7899	15454.8	79.1267	15454.8	78.1165	15454.8	73.6328	15454.8	59.2131	15454.8	71.1175	15454.8	72.8	15454.8	44.6516	15454.8	68.9933	15454.8	51.1432	15454.8	66.0019	15454.8	59.0113	15454.8	66.5024	15454.8	60.0289	15454.8	66.3457	15454.8	60.6734	15454.8	74.661	15454.8	70.9838	15454.8	73.1583	15454.8	67.946	15454.8	72.786	15454.8	75.0726	15454.8	86.9875
15999.8	106.392	15999.8	106.22	15999.8	105.88	15999.8	102.422	15999.8	102.261	15999.8	95.9844	15999.8	96.5852	15999.8	91.9992	15999.8	92.2285	15999.8	89.7406	15999.8	87.4299	15999.8	83.984	15999.8	84.0878	15999.8	82.1382	15999.8	80.0301	15999.8	77.7881	15999.8	73.9047	15999.8	63.3365	15999.8	67.8929	15999.8	74.3761	15999.8	62.0737	15999.8	70.5774	15999.8	59.3411	15999.8	67.8994	15999.8	61.7581	15999.8	67.3891	15999.8	62.2648	15999.8	64.4601	15999.8	59.6302	15999.8	75.0463	15999.8	70.9842	15999.8	73.9622	15999.8	68.0571	15999.8	73.9366	15999.8	72.8588	15999.8	86.9496
16564.5	104.747	16564.5	104.644	16564.5	104.27	16564.5	100.802	16564.5	101.081	16564.5	94.2453	16564.5	95.6649	16564.5	90.742	16564.5	93.271	16564.5	88.1199	16564.5	87.4898	16564.5	81.7567	16564.5	83.2878	16564.5	80.1878	16564.5	78.9655	16564.5	77.8315	16564.5	75.3803	16564.5	67.7127	16564.5	66.042	16564.5	74.7179	16564.5	63.4446	16564.5	69.8511	16564.5	60.6346	16564.5	66.8178	16564.5	62.6139	16564.5	67.9011	16564.5	60.9251	16564.5	66.5491	16564.5	58.3551	16564.5	75.9096	16564.5	69.9374	16564.5	75.9892	16564.5	64.607	16564.5	75.3039	16564.5	74.5128	16564.5	86.9308
17148.2	104.541	17148.2	104.382	17148.2	103.948	17148.2	100.461	17148.2	100.892	17148.2	93.4919	17148.2	95.8077	17148.2	89.3461	17148.2	91.9484	17148.2	85.9071	17148.2	87.4437	17148.2	77.9502	17148.2	82.7049	17148.2	76.786	17148.2	75.6608	17148.2	75.136	17148.2	72.5205	17148.2	67.416	17148.2	67.2548	17148.2	72.6395	17148.2	61.2649	17148.2	67.4222	17148.2	57.982	17148.2	65.2059	17148.2	62.813	17148.2	68.1481	17148.2	58.7887	17148.2	65.0185	17148.2	61.4078	17148.2	76.6909	17148.2	67.4891	17148.2	76.7741	17148.2	65.9924	17148.2	75.123	17148.2	73.8817	17148.2	86.1298
17753.2	105.251	17753.2	104.963	17753.2	104.312	17753.2	100.519	17753.2	100.585	17753.2	92.7314	17753.2	94.7839	17753.2	87.1992	17753.2	89.283	17753.2	84.2672	17753.2	84.8672	17753.2	73.5002	17753.2	83.164	17753.2	74.7849	17753.2	75.9044	17753.2	74.6488	17753.2	69.5642	17753.2	70.3609	17753.2	67.5555	17753.2	72.6978	17753.2	57.9321	17753.2	69.5025	17753.2	55.7486	17753.2	67.6375	17753.2	61.9608	17753.2	70.174	17753.2	59.9224	17753.2	67.6851	17753.2	61.922	17753.2	76.9456	17753.2	68.8626	17753.2	77.1189	17753.2	70.0948	17753.2	71.743	17753.2	73.5936	17753.2	85.1091
18379.4	106.112	18379.4	105.664	18379.4	105.132	18379.4	100.571	18379.4	100.447	18379.4	92.2338	18379.4	93.7553	18379.4	87.1416	18379.4	85.9138	18379.4	85.1506	18379.4	81.1659	18379.4	70.8481	18379.4	80.977	18379.4	73.8676	18379.4	73.8472	18379.4	75.0276	18379.4	59.2274	18379.4	72.5513	18379.4	68.6357	18379.4	74.272	18379.4	68.1269	18379.4	71.9493	18379.4	62.3555	18379.4	69.4271	18379.4	62.3633	18379.4	71.0238	18379.4	61.4051	18379.4	67.3457	18379.4	66.6087	18379.4	76.8564	18379.4	73.452	18379.4	76.5253	18379.4	73.755	18379.4	68.7193	18379.4	72.4185	18379.4	85.5903
19027.6	107.067	19027.6	106.675	19027.6	106.005	19027.6	100.896	19027.6	100.422	19027.6	92.2858	19027.6	92.9374	19027.6	88.2881	19027.6	82.8998	19027.6	86.4379	19027.6	81.7872	19027.6	69.7152	19027.6	80.9972	19027.6	72.1908	19027.6	72.7874	19027.6	76.0259	19027.6	61.503	19027.6	74.4889	19027.6	69.7499	19027.6	76.396	19027.6	73.4172	19027.6	73.6282	19027.6	68.7918	19027.6	70.6568	19027.6	66.8095	19027.6	72.0675	19027.6	64.3166	19027.6	67.951	19027.6	69.4723	19027.6	78.076	19027.6	76.1545	19027.6	77.5531	19027.6	76.8798	19027.6	65.9517	19027.6	77.4306	19027.6	86.7941
19698.5	106.284	19698.5	106.087	19698.5	105.357	19698.5	100.276	19698.5	99.1524	19698.5	92.8372	19698.5	91.1446	19698.5	88.4843	19698.5	81.7326	19698.5	86.3614	19698.5	83.0678	19698.5	74.0057	19698.5	80.6693	19698.5	71.004	19698.5	72.854	19698.5	74.7231	19698.5	63.5855	19698.5	74.2469	19698.5	67.8933	19698.5	75.7749	19698.5	73.7772	19698.5	72.4668	19698.5	69.5719	19698.5	70.4968	19698.5	67.9855	19698.5	73.091	19698.5	63.2071	19698.5	67.1346	19698.5	70.5445	19698.5	79.9338	19698.5	76.8224	19698.5	78.718	19698.5	76.9771	19698.5	72.3942	19698.5	80.7427	19698.5	87.0995
19999.5	105.06	19999.5	105.052	19999.5	104.11	19999.5	99.8727	19999.5	98.0036	19999.5	93.0601	19999.5	88.2769	19999.5	87.9512	19999.5	81.1003	19999.5	87.2045	19999.5	81.2975	19999.5	78.0056	19999.5	82.651	19999.5	69.0694	19999.5	72.7271	19999.5	72.7606	19999.5	59.8261	19999.5	77.6168	19999.5	62.8028	19999.5	74.5806	19999.5	72.7081	19999.5	71.1868	19999.5	65.7349	19999.5	71.2998	19999.5	61.779	19999.5	74.1036	19999.5	62.7504	19999.5	66.4683	19999.5	70.234	19999.5	80.4162	19999.5	76.2468	19999.5	78.9919	19999.5	75.1161	19999.5	75.6546	19999.5	80.951	19999.5	86.2856
