"SPL Vertical"
"On-Axis"		"10°"		"-10°"		"20°"		"-20°"		"30°"		"-30°"		"40°"		"-40°"		"50°"		"-50°"		"60°"		"-60°"		"70°"		"-70°"		"80°"		"-80°"		"90°"		"-90°"		"100°"		"-100°"		"110°"		"-110°"		"120°"		"-120°"		"130°"		"-130°"		"140°"		"-140°"		"150°"		"-150°"		"160°"		"-160°"		"170°"		"-170°"		"180°"
"Frequency / Hz"	"Sound Pressure Level / dB (re 20 µPa/V)  [2.83  V @ 1. m]"	"Frequency / Hz"	"Sound Pressure Level / dB (re 20 µPa/V)  [2.83  V @ 1. m]"	"Frequency / Hz"	"Sound Pressure Level / dB (re 20 µPa/V)  [2.83  V @ 1. m]"	"Frequency / Hz"	"Sound Pressure Level / dB (re 20 µPa/V)  [2.83  V @ 1. m]"	"Frequency / Hz"	"Sound Pressure Level / dB (re 20 µPa/V)  [2.83  V @ 1. m]"	"Frequency / Hz"	"Sound Pressure Level / dB (re 20 µPa/V)  [2.83  V @ 1. m]"	"Frequency / Hz"	"Sound Pressure Level / dB (re 20 µPa/V)  [2.83  V @ 1. m]"	"Frequency / Hz"	"Sound Pressure Level / dB (re 20 µPa/V)  [2.83  V @ 1. m]"	"Frequency / Hz"	"Sound Pressure Level / dB (re 20 µPa/V)  [2.83  V @ 1. m]"	"Frequency / Hz"	"Sound Pressure Level / dB (re 20 µPa/V)  [2.83  V @ 1. m]"	"Frequency / Hz"	"Sound Pressure Level / dB (re 20 µPa/V)  [2.83  V @ 1. m]"	"Frequency / Hz"	"Sound Pressure Level / dB (re 20 µPa/V)  [2.83  V @ 1. m]"	"Frequency / Hz"	"Sound Pressure Level / dB (re 20 µPa/V)  [2.83  V @ 1. m]"	"Frequency / Hz"	"Sound Pressure Level / dB (re 20 µPa/V)  [2.83  V @ 1. m]"	"Frequency / Hz"	"Sound Pressure Level / dB (re 20 µPa/V)  [2.83  V @ 1. m]"	"Frequency / Hz"	"Sound Pressure Level / dB (re 20 µPa/V)  [2.83  V @ 1. m]"	"Frequency / Hz"	"Sound Pressure Level / dB (re 20 µPa/V)  [2.83  V @ 1. m]"	"Frequency / Hz"	"Sound Pressure Level / dB (re 20 µPa/V)  [2.83  V @ 1. m]"	"Frequency / Hz"	"Sound Pressure Level / dB (re 20 µPa/V)  [2.83  V @ 1. m]"	"Frequency / Hz"	"Sound Pressure Level / dB (re 20 µPa/V)  [2.83  V @ 1. m]"	"Frequency / Hz"	"Sound Pressure Level / dB (re 20 µPa/V)  [2.83  V @ 1. m]"	"Frequency / Hz"	"Sound Pressure Level / dB (re 20 µPa/V)  [2.83  V @ 1. m]"	"Frequency / Hz"	"Sound Pressure Level / dB (re 20 µPa/V)  [2.83  V @ 1. m]"	"Frequency / Hz"	"Sound Pressure Level / dB (re 20 µPa/V)  [2.83  V @ 1. m]"	"Frequency / Hz"	"Sound Pressure Level / dB (re 20 µPa/V)  [2.83  V @ 1. m]"	"Frequency / Hz"	"Sound Pressure Level / dB (re 20 µPa/V)  [2.83  V @ 1. m]"	"Frequency / Hz"	"Sound Pressure Level / dB (re 20 µPa/V)  [2.83  V @ 1. m]"	"Frequency / Hz"	"Sound Pressure Level / dB (re 20 µPa/V)  [2.83  V @ 1. m]"	"Frequency / Hz"	"Sound Pressure Level / dB (re 20 µPa/V)  [2.83  V @ 1. m]"	"Frequency / Hz"	"Sound Pressure Level / dB (re 20 µPa/V)  [2.83  V @ 1. m]"	"Frequency / Hz"	"Sound Pressure Level / dB (re 20 µPa/V)  [2.83  V @ 1. m]"	"Frequency / Hz"	"Sound Pressure Level / dB (re 20 µPa/V)  [2.83  V @ 1. m]"	"Frequency / Hz"	"Sound Pressure Level / dB (re 20 µPa/V)  [2.83  V @ 1. m]"	"Frequency / Hz"	"Sound Pressure Level / dB (re 20 µPa/V)  [2.83  V @ 1. m]"	"Frequency / Hz"	"Sound Pressure Level / dB (re 20 µPa/V)  [2.83  V @ 1. m]"	"Frequency / Hz"	"Sound Pressure Level / dB (re 20 µPa/V)  [2.83  V @ 1. m]"
20.5078	58.4281	20.5078	58.2295	20.5078	58.6106	20.5078	58.0198	20.5078	58.7718	20.5078	57.804	20.5078	58.9068	20.5078	57.5865	20.5078	59.0109	20.5078	57.371	20.5078	59.0796	20.5078	57.1605	20.5078	59.109	20.5078	56.9577	20.5078	59.0959	20.5078	56.7656	20.5078	59.0386	20.5078	56.5881	20.5078	58.9365	20.5078	56.4302	20.5078	58.7908	20.5078	56.2986	20.5078	58.6042	20.5078	56.201	20.5078	58.3807	20.5078	56.1458	20.5078	58.1256	20.5078	56.1411	20.5078	57.846	20.5078	56.1933	20.5078	57.5509	20.5078	56.3056	20.5078	57.2519	20.5078	56.4767	20.5078	56.963	20.5078	56.6997
21.9727	60.4232	21.9727	60.2537	21.9727	60.5785	21.9727	60.075	21.9727	60.7147	21.9727	59.8919	21.9727	60.8267	21.9727	59.7087	21.9727	60.9095	21.9727	59.5296	21.9727	60.9586	21.9727	59.3582	21.9727	60.9704	21.9727	59.1977	21.9727	60.9423	21.9727	59.0506	21.9727	60.8735	21.9727	58.9193	21.9727	60.7646	21.9727	58.8066	21.9727	60.6185	21.9727	58.7151	21.9727	60.4397	21.9727	58.6483	21.9727	60.2347	21.9727	58.61	21.9727	60.0113	21.9727	58.6037	21.9727	59.7788	21.9727	58.633	21.9727	59.5468	21.9727	58.7	21.9727	59.325	21.9727	58.8053	21.9727	59.1227	21.9727	58.9474
23.4375	61.9568	23.4375	61.823	23.4375	62.0762	23.4375	61.6787	23.4375	62.1775	23.4375	61.5279	23.4375	62.257	23.4375	61.3741	23.4375	62.3114	23.4375	61.2211	23.4375	62.3379	23.4375	61.0724	23.4375	62.3343	23.4375	60.9313	23.4375	62.2993	23.4375	60.8008	23.4375	62.233	23.4375	60.684	23.4375	62.1365	23.4375	60.5838	23.4375	62.0126	23.4375	60.5031	23.4375	61.8654	23.4375	60.445	23.4375	61.7001	23.4375	60.4123	23.4375	61.5229	23.4375	60.4076	23.4375	61.3403	23.4375	60.4328	23.4375	61.1591	23.4375	60.4886	23.4375	60.9861	23.4375	60.5746	23.4375	60.8274	23.4375	60.6887
24.9023	62.8636	24.9023	62.7421	24.9023	62.9714	24.9023	62.6102	24.9023	63.0625	24.9023	62.4713	24.9023	63.1337	24.9023	62.3289	24.9023	63.182	24.9023	62.1866	24.9023	63.205	24.9023	62.0481	24.9023	63.2004	24.9023	61.9166	24.9023	63.1671	24.9023	61.7953	24.9023	63.105	24.9023	61.687	24.9023	63.0152	24.9023	61.5944	24.9023	62.9002	24.9023	61.5202	24.9023	62.764	24.9023	61.4669	24.9023	62.6114	24.9023	61.4367	24.9023	62.448	24.9023	61.4318	24.9023	62.2799	24.9023	61.4538	24.9023	62.1135	24.9023	61.5036	24.9023	61.955	24.9023	61.5809	24.9023	61.8101	24.9023	61.684
26.3672	63.44	26.3672	63.316	26.3672	63.5541	26.3672	63.1859	26.3672	63.6546	26.3672	63.0533	26.3672	63.7377	26.3672	62.9217	26.3672	63.7999	26.3672	62.7942	26.3672	63.8381	26.3672	62.6737	26.3672	63.8499	26.3672	62.5629	26.3672	63.8338	26.3672	62.4641	26.3672	63.7898	26.3672	62.3795	26.3672	63.7188	26.3672	62.3113	26.3672	63.6234	26.3672	62.2613	26.3672	63.5073	26.3672	62.2314	26.3672	63.375	26.3672	62.2232	26.3672	63.2317	26.3672	62.2381	26.3672	63.0827	26.3672	62.2768	26.3672	62.9332	26.3672	62.3392	26.3672	62.7881	26.3672	62.4242	26.3672	62.6521	26.3672	62.5295
27.832	64.052	27.832	63.9242	27.832	64.175	27.832	63.7959	27.832	64.2887	27.832	63.6709	27.832	64.3885	27.832	63.5524	27.832	64.47	27.832	63.4431	27.832	64.5294	27.832	63.3451	27.832	64.5635	27.832	63.2603	27.832	64.5704	27.832	63.1899	27.832	64.5495	27.832	63.1353	27.832	64.5014	27.832	63.0975	27.832	64.4285	27.832	63.0775	27.832	64.3342	27.832	63.076	27.832	64.2228	27.832	63.0935	27.832	64.0992	27.832	63.1305	27.832	63.9682	27.832	63.1865	27.832	63.8346	27.832	63.2609	27.832	63.7026	27.832	63.3521	27.832	63.5759	27.832	63.458
29.2969	65.2533	29.2969	65.1405	29.2969	65.3575	29.2969	65.0224	29.2969	65.4493	29.2969	64.9028	29.2969	65.5253	29.2969	64.7849	29.2969	65.582	29.2969	64.6723	29.2969	65.6167	29.2969	64.5679	29.2969	65.6269	29.2969	64.4745	29.2969	65.6116	29.2969	64.3945	29.2969	65.5708	29.2969	64.3296	29.2969	65.506	29.2969	64.2814	29.2969	65.4201	29.2969	64.2509	29.2969	65.317	29.2969	64.2383	29.2969	65.2018	29.2969	64.2437	29.2969	65.0796	29.2969	64.2666	29.2969	64.9554	29.2969	64.3062	29.2969	64.8337	29.2969	64.3616	29.2969	64.7181	29.2969	64.4317	29.2969	64.6113	29.2969	64.5154
30.7617	65.9341	30.7617	65.8167	30.7617	66.0407	30.7617	65.6925	30.7617	66.1326	30.7617	65.5653	30.7617	66.2062	30.7617	65.4388	30.7617	66.2581	30.7617	65.3163	30.7617	66.2855	30.7617	65.2008	30.7617	66.2864	30.7617	65.0947	30.7617	66.2599	30.7617	65.0004	30.7617	66.2061	30.7617	64.9194	30.7617	66.1266	30.7617	64.8533	30.7617	66.0241	30.7617	64.8032	30.7617	65.9027	30.7617	64.7701	30.7617	65.7673	30.7617	64.755	30.7617	65.6237	30.7617	64.7587	30.7617	65.4777	30.7617	64.7822	30.7617	65.3351	30.7617	64.8262	30.7617	65.2011	30.7617	64.891	30.7617	65.0803	30.7617	64.9761
32.2266	66.4753	32.2266	66.3615	32.2266	66.5798	32.2266	66.2422	32.2266	66.6716	32.2266	66.1209	32.2266	66.7471	32.2266	66.0009	32.2266	66.8033	32.2266	65.8856	32.2266	66.8373	32.2266	65.7776	32.2266	66.8469	32.2266	65.6796	32.2266	66.8309	32.2266	65.5937	32.2266	66.7891	32.2266	65.5216	32.2266	66.7226	32.2266	65.4648	32.2266	66.6337	32.2266	65.4243	32.2266	66.5258	32.2266	65.4009	32.2266	66.4035	32.2266	65.3955	32.2266	66.2718	32.2266	65.4085	32.2266	66.1358	32.2266	65.4404	32.2266	66.001	32.2266	65.4914	32.2266	65.8723	32.2266	65.5613	32.2266	65.7539	32.2266	65.6494
33.6914	67.1114	33.6914	66.9988	33.6914	67.2169	33.6914	66.8827	33.6914	67.3114	33.6914	66.7667	33.6914	67.3915	33.6914	66.6539	33.6914	67.4537	33.6914	66.5476	33.6914	67.495	33.6914	66.4506	33.6914	67.5132	33.6914	66.3651	33.6914	67.5072	33.6914	66.2934	33.6914	67.4767	33.6914	66.2369	33.6914	67.423	33.6914	66.1969	33.6914	67.3487	33.6914	66.1742	33.6914	67.257	33.6914	66.169	33.6914	67.1523	33.6914	66.1812	33.6914	67.039	33.6914	66.2106	33.6914	66.9215	33.6914	66.2564	33.6914	66.8038	33.6914	66.3177	33.6914	66.6893	33.6914	66.3933	33.6914	66.5811	33.6914	66.4817
35.1562	67.8118	35.1562	67.6939	35.1562	67.9221	35.1562	67.5724	35.1562	68.0207	35.1562	67.4511	35.1562	68.1037	35.1562	67.3335	35.1562	68.1674	35.1562	67.2229	35.1562	68.2089	35.1562	67.1219	35.1562	68.226	35.1562	67.0333	35.1562	68.2175	35.1562	66.9588	35.1562	68.1836	35.1562	66.9001	35.1562	68.1256	35.1562	66.8583	35.1562	68.0462	35.1562	66.8341	35.1562	67.949	35.1562	66.8275	35.1562	67.8384	35.1562	66.8386	35.1562	67.719	35.1562	66.8669	35.1562	67.5955	35.1562	66.9118	35.1562	67.4722	35.1562	66.9727	35.1562	67.3528	35.1562	67.0488	35.1562	67.2407	35.1562	67.1387
36.6211	68.4443	36.6211	68.3307	36.6211	68.5529	36.6211	68.2159	36.6211	68.6522	36.6211	68.1038	36.6211	68.7381	36.6211	67.9979	36.6211	68.807	36.6211	67.9011	36.6211	68.8555	36.6211	67.8162	36.6211	68.8815	36.6211	67.7452	36.6211	68.8838	36.6211	67.6899	36.6211	68.8625	36.6211	67.6513	36.6211	68.8191	36.6211	67.6301	36.6211	68.7563	36.6211	67.6263	36.6211	68.6778	36.6211	67.6395	36.6211	68.5878	36.6211	67.6686	36.6211	68.4903	36.6211	67.7123	36.6211	68.3891	36.6211	67.7689	36.6211	68.2873	36.6211	67.8367	36.6211	68.1872	36.6211	67.914	36.6211	68.0907	36.6211	67.9991
38.0859	68.9116	38.0859	68.8021	38.0859	69.0065	38.0859	68.6818	38.0859	69.0834	38.0859	68.5544	38.0859	69.1392	38.0859	68.4237	38.0859	69.1709	38.0859	68.2936	38.0859	69.1766	38.0859	68.1677	38.0859	69.155	38.0859	68.0495	38.0859	69.106	38.0859	67.9421	38.0859	69.0305	38.0859	67.848	38.0859	68.9313	38.0859	67.7694	38.0859	68.812	38.0859	67.7077	38.0859	68.6779	38.0859	67.664	38.0859	68.5349	38.0859	67.6388	38.0859	68.3891	38.0859	67.6324	38.0859	68.2466	38.0859	67.645	38.0859	68.1126	38.0859	67.6767	38.0859	67.9913	38.0859	67.7275	38.0859	67.8855	38.0859	67.7972
39.5508	69.2207	39.5508	69.1046	39.5508	69.3264	39.5508	68.9818	39.5508	69.4176	39.5508	68.8561	39.5508	69.4903	39.5508	68.7309	39.5508	69.5408	39.5508	68.6088	39.5508	69.5659	39.5508	68.4926	39.5508	69.5633	39.5508	68.3843	39.5508	69.5317	39.5508	68.2855	39.5508	69.4708	39.5508	68.1976	39.5508	69.382	39.5508	68.1216	39.5508	69.2679	39.5508	68.0587	39.5508	69.1325	39.5508	68.0099	39.5508	68.9813	39.5508	67.9767	39.5508	68.8206	39.5508	67.961	39.5508	68.6576	39.5508	67.9653	39.5508	68.4997	39.5508	67.9923	39.5508	68.354	39.5508	68.0443	39.5508	68.2268	39.5508	68.1227
41.0156	69.9454	41.0156	69.8259	41.0156	70.0549	41.0156	69.6999	41.0156	70.1502	41.0156	69.5712	41.0156	70.2275	41.0156	69.4428	41.0156	70.2831	41.0156	69.3174	41.0156	70.3139	41.0156	69.1974	41.0156	70.3177	41.0156	69.0847	41.0156	70.2928	41.0156	68.9812	41.0156	70.2389	41.0156	68.8882	41.0156	70.1568	41.0156	68.8075	41.0156	70.0484	41.0156	68.7406	41.0156	69.9169	41.0156	68.6892	41.0156	69.7667	41.0156	68.6556	41.0156	69.6036	41.0156	68.6423	41.0156	69.4342	41.0156	68.6524	41.0156	69.2662	41.0156	68.6885	41.0156	69.1074	41.0156	68.7528	41.0156	68.9651	41.0156	68.8456
42.4805	70.3226	42.4805	70.2124	42.4805	70.4285	42.4805	70.102	42.4805	70.5261	42.4805	69.9955	42.4805	70.6118	42.4805	69.8967	42.4805	70.6824	42.4805	69.8092	42.4805	70.7354	42.4805	69.7361	42.4805	70.7691	42.4805	69.6796	42.4805	70.7828	42.4805	69.6416	42.4805	70.7768	42.4805	69.6228	42.4805	70.7524	42.4805	69.6234	42.4805	70.7116	42.4805	69.6427	42.4805	70.6572	42.4805	69.6792	42.4805	70.5922	42.4805	69.7305	42.4805	70.5195	42.4805	69.794	42.4805	70.4418	42.4805	69.8666	42.4805	70.361	42.4805	69.9453	42.4805	70.2785	42.4805	70.0275	42.4805	70.195	42.4805	70.1111
43.9453	70.4854	43.9453	70.3682	43.9453	70.5978	43.9453	70.2505	43.9453	70.7014	43.9453	70.1362	43.9453	70.7925	43.9453	70.0292	43.9453	70.8675	43.9453	69.9333	43.9453	70.9236	43.9453	69.8519	43.9453	70.9586	43.9453	69.7879	43.9453	70.9716	43.9453	69.7437	43.9453	70.9629	43.9453	69.7208	43.9453	70.9339	43.9453	69.7198	43.9453	70.8873	43.9453	69.7402	43.9453	70.8264	43.9453	69.7805	43.9453	70.7549	43.9453	69.8378	43.9453	70.6763	43.9453	69.9086	43.9453	70.5938	43.9453	69.9889	43.9453	70.5093	43.9453	70.0746	43.9453	70.4239	43.9453	70.1626	43.9453	70.3377	43.9453	70.2506
45.4102	71.091	45.4102	70.9858	45.4102	71.1902	45.4102	70.8781	45.4102	71.2801	45.4102	70.7707	45.4102	71.3575	45.4102	70.6665	45.4102	71.4192	45.4102	70.5683	45.4102	71.4626	45.4102	70.4786	45.4102	71.4859	45.4102	70.3998	45.4102	71.4881	45.4102	70.3344	45.4102	71.4695	45.4102	70.2848	45.4102	71.4314	45.4102	70.2529	45.4102	71.3761	45.4102	70.2403	45.4102	71.3066	45.4102	70.248	45.4102	71.2261	45.4102	70.2759	45.4102	71.1375	45.4102	70.3229	45.4102	71.0435	45.4102	70.3868	45.4102	70.9459	45.4102	70.4646	45.4102	70.8464	45.4102	70.5527	45.4102	70.7464	45.4102	70.6477
46.875	71.5921	46.875	71.4756	46.875	71.6986	46.875	71.3531	46.875	71.791	46.875	71.2281	46.875	71.8655	46.875	71.1041	46.875	71.9185	46.875	70.9838	46.875	71.9474	46.875	70.8698	46.875	71.9501	46.875	70.7646	46.875	71.9261	46.875	70.6702	46.875	71.8756	46.875	70.589	46.875	71.8005	46.875	70.5229	46.875	71.7039	46.875	70.474	46.875	71.5896	46.875	70.444	46.875	71.4624	46.875	70.4342	46.875	71.3275	46.875	70.4454	46.875	71.1896	46.875	70.478	46.875	71.0536	46.875	70.5314	46.875	70.9236	46.875	70.6048	46.875	70.8034	46.875	70.6962
48.3398	72.0073	48.3398	71.8893	48.3398	72.1202	48.3398	71.7712	48.3398	72.223	48.3398	71.657	48.3398	72.3109	48.3398	71.5497	48.3398	72.3798	48.3398	71.4513	48.3398	72.4262	48.3398	71.363	48.3398	72.4479	48.3398	71.2852	48.3398	72.4439	48.3398	71.2181	48.3398	72.4142	48.3398	71.1623	48.3398	72.3603	48.3398	71.1185	48.3398	72.2844	48.3398	71.088	48.3398	72.1899	48.3398	71.0724	48.3398	72.0809	48.3398	71.0735	48.3398	71.9615	48.3398	71.0928	48.3398	71.8363	48.3398	71.1316	48.3398	71.7096	48.3398	71.1899	48.3398	71.5855	48.3398	71.2669	48.3398	71.4678	48.3398	71.3605
51.2695	72.1794	51.2695	72.0562	51.2695	72.3098	51.2695	71.9458	51.2695	72.4417	51.2695	71.8528	51.2695	72.5693	51.2695	71.7814	51.2695	72.6875	51.2695	71.7344	51.2695	72.7918	51.2695	71.7137	51.2695	72.8791	51.2695	71.7198	51.2695	72.9478	51.2695	71.7522	51.2695	72.9977	51.2695	71.8093	51.2695	73.0301	51.2695	71.8885	51.2695	73.0472	51.2695	71.9861	51.2695	73.0514	51.2695	72.098	51.2695	73.0449	51.2695	72.2193	51.2695	73.0289	51.2695	72.3445	51.2695	73.0038	51.2695	72.4684	51.2695	72.9684	51.2695	72.5855	51.2695	72.9212	51.2695	72.6916	51.2695	72.8601	51.2695	72.7836
52.7344	73.0463	52.7344	72.934	52.7344	73.1544	52.7344	72.822	52.7344	73.254	52.7344	72.7153	52.7344	73.3415	52.7344	72.6189	52.7344	73.4139	52.7344	72.5379	52.7344	73.4692	52.7344	72.4766	52.7344	73.5064	52.7344	72.4387	52.7344	73.5255	52.7344	72.4264	52.7344	73.5282	52.7344	72.4404	52.7344	73.5169	52.7344	72.4797	52.7344	73.4949	52.7344	72.5414	52.7344	73.4656	52.7344	72.6213	52.7344	73.4319	52.7344	72.7137	52.7344	73.3959	52.7344	72.8126	52.7344	73.3583	52.7344	72.9116	52.7344	73.3185	52.7344	73.0053	52.7344	73.2744	52.7344	73.0896	52.7344	73.2233	52.7344	73.1622
54.1992	73.8802	54.1992	73.763	54.1992	73.9715	54.1992	73.6235	54.1992	74.0349	54.1992	73.4666	54.1992	74.0691	54.1992	73.2989	54.1992	74.0741	54.1992	73.1283	54.1992	74.0508	54.1992	72.9636	54.1992	74.0014	54.1992	72.8139	54.1992	73.9297	54.1992	72.6875	54.1992	73.8409	54.1992	72.5917	54.1992	73.7414	54.1992	72.5312	54.1992	73.638	54.1992	72.5081	54.1992	73.537	54.1992	72.5212	54.1992	73.4433	54.1992	72.5663	54.1992	73.3593	54.1992	72.6363	54.1992	73.2842	54.1992	72.7226	54.1992	73.2152	54.1992	72.8165	54.1992	73.1474	54.1992	72.9098	54.1992	73.0759	54.1992	72.997
55.6641	74.82	55.6641	74.721	55.6641	74.8823	55.6641	74.5875	55.6641	74.9066	55.6641	74.4226	55.6641	74.8926	55.6641	74.2308	55.6641	74.8405	55.6641	74.0174	55.6641	74.7511	55.6641	73.7887	55.6641	74.6257	55.6641	73.5512	55.6641	74.4666	55.6641	73.3115	55.6641	74.2768	55.6641	73.0764	55.6641	74.0605	55.6641	72.8524	55.6641	73.8234	55.6641	72.6459	55.6641	73.5721	55.6641	72.463	55.6641	73.3151	55.6641	72.3098	55.6641	73.0612	55.6641	72.1919	55.6641	72.8202	55.6641	72.1143	55.6641	72.6013	55.6641	72.0809	55.6641	72.413	55.6641	72.0943	55.6641	72.2626	55.6641	72.1552
58.5938	74.5611	58.5938	74.442	58.5938	74.6717	58.5938	74.3188	58.5938	74.7694	58.5938	74.1953	58.5938	74.85	58.5938	74.0747	58.5938	74.9097	58.5938	73.9597	58.5938	74.9452	58.5938	73.852	58.5938	74.9542	58.5938	73.7528	58.5938	74.9352	58.5938	73.6629	58.5938	74.8877	58.5938	73.583	58.5938	74.8123	58.5938	73.5136	58.5938	74.7108	58.5938	73.4555	58.5938	74.5862	58.5938	73.4099	58.5938	74.4425	58.5938	73.3789	58.5938	74.2852	58.5938	73.3652	58.5938	74.1209	58.5938	73.3723	58.5938	73.9574	58.5938	73.4039	58.5938	73.8028	58.5938	73.4629	58.5938	73.665	58.5938	73.5503
60.0586	74.8617	60.0586	74.7585	60.0586	74.956	60.0586	74.6503	60.0586	75.0368	60.0586	74.5411	60.0586	75.0999	60.0586	74.4339	60.0586	75.1418	60.0586	74.3311	60.0586	75.1596	60.0586	74.2348	60.0586	75.1515	60.0586	74.1464	60.0586	75.1167	60.0586	74.0672	60.0586	75.0561	60.0586	73.998	60.0586	74.9717	60.0586	73.9399	60.0586	74.8673	60.0586	73.8935	60.0586	74.7476	60.0586	73.8595	60.0586	74.6185	60.0586	73.8385	60.0586	74.486	60.0586	73.8313	60.0586	74.3565	60.0586	73.8388	60.0586	74.2353	60.0586	73.8619	60.0586	74.1269	60.0586	73.9017	60.0586	74.0342	60.0586	73.959
62.9883	75.4704	62.9883	75.3724	62.9883	75.5561	62.9883	75.2643	62.9883	75.6271	62.9883	75.1488	62.9883	75.6812	62.9883	75.0287	62.9883	75.7162	62.9883	74.9069	62.9883	75.7301	62.9883	74.7863	62.9883	75.7209	62.9883	74.67	62.9883	75.6871	62.9883	74.5607	62.9883	75.6281	62.9883	74.461	62.9883	75.5442	62.9883	74.3734	62.9883	75.4372	62.9883	74.3002	62.9883	75.3102	62.9883	74.2435	62.9883	75.1678	62.9883	74.2054	62.9883	75.016	62.9883	74.1877	62.9883	74.8614	62.9883	74.1921	62.9883	74.7112	62.9883	74.22	62.9883	74.5721	62.9883	74.2723	62.9883	74.4501	62.9883	74.3493
64.4531	75.5495	64.4531	75.4426	64.4531	75.6488	64.4531	75.3309	64.4531	75.7378	64.4531	75.2171	64.4531	75.8138	64.4531	75.1039	64.4531	75.8739	64.4531	74.9938	64.4531	75.9154	64.4531	74.8896	64.4531	75.9358	64.4531	74.7937	64.4531	75.9331	64.4531	74.7083	64.4531	75.906	64.4531	74.6352	64.4531	75.8544	64.4531	74.5764	64.4531	75.7791	64.4531	74.5333	64.4531	75.682	64.4531	74.5074	64.4531	75.5664	64.4531	74.5	64.4531	75.4366	64.4531	74.5125	64.4531	75.2978	64.4531	74.5457	64.4531	75.1559	64.4531	74.6004	64.4531	75.0174	64.4531	74.6766	64.4531	74.8881	64.4531	74.7733
67.3828	75.9985	67.3828	75.8793	67.3828	76.1133	67.3828	75.7598	67.3828	76.2196	67.3828	75.6437	67.3828	76.3135	67.3828	75.5346	67.3828	76.3914	67.3828	75.4356	67.3828	76.4505	67.3828	75.3492	67.3828	76.4885	67.3828	75.2773	67.3828	76.5043	67.3828	75.2215	67.3828	76.4976	67.3828	75.1827	67.3828	76.4693	67.3828	75.1615	67.3828	76.4209	67.3828	75.1583	67.3828	76.3544	67.3828	75.173	67.3828	76.2721	67.3828	75.2057	67.3828	76.1766	67.3828	75.2558	67.3828	76.0705	67.3828	75.3226	67.3828	75.957	67.3828	75.4049	67.3828	75.8393	67.3828	75.5006	67.3828	75.7215	67.3828	75.6073
68.8477	76.2781	68.8477	76.1606	68.8477	76.3899	68.8477	76.0418	68.8477	76.4921	68.8477	75.9255	68.8477	76.5808	68.8477	75.8156	68.8477	76.6527	68.8477	75.7156	68.8477	76.705	68.8477	75.6283	68.8477	76.7363	68.8477	75.5561	68.8477	76.7458	68.8477	75.5007	68.8477	76.7341	68.8477	75.4632	68.8477	76.7025	68.8477	75.4443	68.8477	76.6532	68.8477	75.4441	68.8477	76.5885	68.8477	75.4623	68.8477	76.5108	68.8477	75.4983	68.8477	76.4224	68.8477	75.5511	68.8477	76.3253	68.8477	75.6195	68.8477	76.2216	68.8477	75.7016	68.8477	76.1137	68.8477	75.7951	68.8477	76.0045	68.8477	75.8972
71.7773	76.8175	71.7773	76.6974	71.7773	76.9287	71.7773	76.5731	71.7773	77.0267	71.7773	76.449	71.7773	77.1073	71.7773	76.3294	71.7773	77.1673	71.7773	76.2181	71.7773	77.2044	71.7773	76.1183	71.7773	77.2175	71.7773	76.0328	71.7773	77.2065	71.7773	75.9637	71.7773	77.1729	71.7773	75.9124	71.7773	77.1191	71.7773	75.8798	71.7773	77.0482	71.7773	75.8664	71.7773	76.9636	71.7773	75.8721	71.7773	76.869	71.7773	75.8962	71.7773	76.7675	71.7773	75.9378	71.7773	76.662	71.7773	75.9954	71.7773	76.5548	71.7773	76.0671	71.7773	76.4479	71.7773	76.1507	71.7773	76.3435	71.7773	76.2436
74.707	77.2604	74.707	77.1448	74.707	77.3687	74.707	77.0264	74.707	77.4652	74.707	76.91	74.707	77.5458	74.707	76.8001	74.707	77.6075	74.707	76.7005	74.707	77.648	74.707	76.6143	74.707	77.6664	74.707	76.5441	74.707	77.6628	74.707	76.4913	74.707	77.6386	74.707	76.4567	74.707	77.5959	74.707	76.44	74.707	77.5376	74.707	76.4407	74.707	77.4665	74.707	76.4577	74.707	77.3856	74.707	76.4896	74.707	77.2975	74.707	76.5353	74.707	77.2044	74.707	76.5931	74.707	77.1086	74.707	76.6618	74.707	77.0121	74.707	76.7399	74.707	76.917	74.707	76.8256
77.6367	77.6683	77.6367	77.5487	77.6367	77.7786	77.6367	77.4248	77.6367	77.8753	77.6367	77.3013	77.6367	77.9547	77.6367	77.1834	77.6367	78.0139	77.6367	77.0755	77.6367	78.0511	77.6367	76.9817	77.6367	78.0656	77.6367	76.9054	77.6367	78.0582	77.6367	76.849	77.6367	78.0307	77.6367	76.8139	77.6367	77.9859	77.6367	76.8003	77.6367	77.9273	77.6367	76.8077	77.6367	77.8582	77.6367	76.8344	77.6367	77.7816	77.6367	76.8782	77.6367	77.7	77.6367	76.9365	77.6367	77.6149	77.6367	77.0064	77.6367	77.5273	77.6367	77.085	77.6367	77.4381	77.6367	77.1697	77.6367	77.3479	77.6367	77.258
79.1016	77.9332	79.1016	77.8114	79.1016	78.0446	79.1016	77.6839	79.1016	78.1413	79.1016	77.5553	79.1016	78.2194	79.1016	77.4305	79.1016	78.2759	79.1016	77.3139	79.1016	78.3088	79.1016	77.2096	79.1016	78.3173	79.1016	77.1211	79.1016	78.3018	79.1016	77.0513	79.1016	78.2642	79.1016	77.002	79.1016	78.2076	79.1016	76.9743	79.1016	78.1355	79.1016	76.9683	79.1016	78.0519	79.1016	76.9829	79.1016	77.9607	79.1016	77.0165	79.1016	77.8648	79.1016	77.0667	79.1016	77.7668	79.1016	77.1309	79.1016	77.6682	79.1016	77.2062	79.1016	77.5701	79.1016	77.2899	79.1016	77.4736	79.1016	77.3797
82.0312	78.5219	82.0312	78.3984	82.0312	78.6341	82.0312	78.2683	82.0312	78.7304	82.0312	78.1363	82.0312	78.807	82.0312	78.0069	82.0312	78.8607	82.0312	77.8841	82.0312	78.8892	82.0312	77.7716	82.0312	78.8918	82.0312	77.6723	82.0312	78.8687	82.0312	77.5886	82.0312	78.8217	82.0312	77.5223	82.0312	78.7534	82.0312	77.4747	82.0312	78.6672	82.0312	77.4464	82.0312	78.5669	82.0312	77.4377	82.0312	78.4565	82.0312	77.4487	82.0312	78.3396	82.0312	77.4787	82.0312	78.2195	82.0312	77.5269	82.0312	78.0993	82.0312	77.592	82.0312	77.9818	82.0312	77.6722	82.0312	77.8696	82.0312	77.7656
84.9609	78.5721	84.9609	78.452	84.9609	78.6844	84.9609	78.329	84.9609	78.7846	84.9609	78.2078	84.9609	78.8686	84.9609	78.0929	84.9609	78.9333	84.9609	77.9885	84.9609	78.9767	84.9609	77.8982	84.9609	78.9978	84.9609	77.8248	84.9609	78.9972	84.9609	77.7702	84.9609	78.9762	84.9609	77.7351	84.9609	78.9371	84.9609	77.7197	84.9609	78.8825	84.9609	77.7229	84.9609	78.815	84.9609	77.7436	84.9609	78.7367	84.9609	77.7803	84.9609	78.6497	84.9609	77.8315	84.9609	78.5556	84.9609	77.8959	84.9609	78.4565	84.9609	77.972	84.9609	78.3545	84.9609	78.0583	84.9609	78.2523	84.9609	78.1525
87.8906	79.2151	87.8906	79.082	87.8906	79.331	87.8906	78.937	87.8906	79.425	87.8906	78.7862	87.8906	79.4935	87.8906	78.6356	87.8906	79.5342	87.8906	78.4914	87.8906	79.5467	87.8906	78.3595	87.8906	79.5318	87.8906	78.2453	87.8906	79.4924	87.8906	78.1536	87.8906	79.4326	87.8906	78.0878	87.8906	79.3574	87.8906	78.0499	87.8906	79.2721	87.8906	78.0403	87.8906	79.1815	87.8906	78.0579	87.8906	79.0891	87.8906	78.1001	87.8906	78.9969	87.8906	78.1628	87.8906	78.9052	87.8906	78.2417	87.8906	78.8133	87.8906	78.3316	87.8906	78.7199	87.8906	78.4278	87.8906	78.6243	87.8906	78.5264
90.8203	79.5044	90.8203	79.3707	90.8203	79.6219	90.8203	79.2261	90.8203	79.7189	90.8203	79.0762	90.8203	79.7918	90.8203	78.9271	90.8203	79.8383	90.8203	78.7847	90.8203	79.8572	90.8203	78.6546	90.8203	79.8486	90.8203	78.5419	90.8203	79.8143	90.8203	78.4509	90.8203	79.7571	90.8203	78.3846	90.8203	79.6812	90.8203	78.3446	90.8203	79.5914	90.8203	78.3312	90.8203	79.4928	90.8203	78.3433	90.8203	79.3895	90.8203	78.3784	90.8203	79.2848	90.8203	78.4334	90.8203	79.1806	90.8203	78.5044	90.8203	79.0775	90.8203	78.5874	90.8203	78.9756	90.8203	78.6787	90.8203	78.8747	90.8203	78.7753
95.2148	80.2619	95.2148	80.1283	95.2148	80.3785	95.2148	79.9831	95.2148	80.4732	95.2148	79.832	95.2148	80.542	95.2148	79.6806	95.2148	80.5821	95.2148	79.534	95.2148	80.5922	95.2148	79.3964	95.2148	80.5721	95.2148	79.2714	95.2148	80.5229	95.2148	79.1619	95.2148	80.4469	95.2148	79.0701	95.2148	80.3475	95.2148	78.9977	95.2148	80.2287	95.2148	78.9458	95.2148	80.0954	95.2148	78.9153	95.2148	79.9526	95.2148	78.9063	95.2148	79.8057	95.2148	78.9186	95.2148	79.6596	95.2148	78.9516	95.2148	79.5191	95.2148	79.0043	95.2148	79.3879	95.2148	79.0757	95.2148	79.269	95.2148	79.1643
98.1445	80.4488	98.1445	80.3324	98.1445	80.5488	98.1445	80.2045	98.1445	80.6284	98.1445	80.0703	98.1445	80.685	98.1445	79.9354	98.1445	80.7172	98.1445	79.8049	98.1445	80.7249	98.1445	79.6836	98.1445	80.7092	98.1445	79.5754	98.1445	80.672	98.1445	79.4834	98.1445	80.6159	98.1445	79.4096	98.1445	80.5434	98.1445	79.3555	98.1445	80.4571	98.1445	79.3214	98.1445	80.3594	98.1445	79.307	98.1445	80.2525	98.1445	79.3116	98.1445	80.1389	98.1445	79.3342	98.1445	80.0216	98.1445	79.3738	98.1445	79.9039	98.1445	79.4294	98.1445	79.7896	98.1445	79.5002	98.1445	79.6822	98.1445	79.585
101.074	80.4942	101.074	80.3844	101.074	80.5847	101.074	80.2591	101.074	80.6531	101.074	80.1232	101.074	80.6979	101.074	79.9823	101.074	80.7188	101.074	79.8422	101.074	80.7169	101.074	79.7089	101.074	80.6946	101.074	79.5881	101.074	80.655	101.074	79.4846	101.074	80.6021	101.074	79.4024	101.074	80.5393	101.074	79.3444	101.074	80.4695	101.074	79.3122	101.074	80.3944	101.074	79.3063	101.074	80.3143	101.074	79.326	101.074	80.2285	101.074	79.3696	101.074	80.1364	101.074	79.4344	101.074	80.0377	101.074	79.5167	101.074	79.9332	101.074	79.6123	101.074	79.825	101.074	79.7167
105.469	80.8135	105.469	80.6907	105.469	80.9158	105.469	80.5528	105.469	80.9936	105.469	80.4058	105.469	81.0442	105.469	80.2566	105.469	81.0661	105.469	80.1121	105.469	81.0598	105.469	79.9793	105.469	81.0273	105.469	79.864	105.469	80.9721	105.469	79.771	105.469	80.8994	105.469	79.7034	105.469	80.8147	105.469	79.6624	105.469	80.7239	105.469	79.6475	105.469	80.6317	105.469	79.6567	105.469	80.5411	105.469	79.687	105.469	80.4534	105.469	79.7349	105.469	80.3681	105.469	79.7967	105.469	80.284	105.469	79.8687	105.469	80.1999	105.469	79.9477	105.469	80.1153	105.469	80.0307
108.398	81.1854	108.398	81.0642	108.398	81.286	108.398	80.9276	108.398	81.3618	108.398	80.7814	108.398	81.4097	108.398	80.6318	108.398	81.4282	108.398	80.4849	108.398	81.4172	108.398	80.3467	108.398	81.3784	108.398	80.2224	108.398	81.3151	108.398	80.1164	108.398	81.2317	108.398	80.0319	108.398	81.1336	108.398	79.971	108.398	81.0265	108.398	79.9342	108.398	80.9153	108.398	79.921	108.398	80.804	108.398	79.9298	108.398	80.6952	108.398	79.9583	108.398	80.5901	108.398	80.0038	108.398	80.4892	108.398	80.0633	108.398	80.3926	108.398	80.1342	108.398	80.3006	108.398	80.214
112.793	81.2944	112.793	81.1792	112.793	81.3907	112.793	81.0499	112.793	81.4645	112.793	80.9123	112.793	81.5137	112.793	80.7734	112.793	81.5377	112.793	80.6403	112.793	81.5373	112.793	80.5204	112.793	81.5153	112.793	80.4201	112.793	81.476	112.793	80.3444	112.793	81.4247	112.793	80.2963	112.793	81.3675	112.793	80.2767	112.793	81.3094	112.793	80.2846	112.793	81.2535	112.793	80.3171	112.793	81.2006	112.793	80.3704	112.793	81.1486	112.793	80.4403	112.793	81.0939	112.793	80.5222	112.793	81.033	112.793	80.6119	112.793	80.9632	112.793	80.7048	112.793	80.884	112.793	80.7968
117.188	81.7048	117.188	81.5617	117.188	81.8254	117.188	81.4026	117.188	81.9179	117.188	81.2345	117.188	81.9775	117.188	81.0647	117.188	82.001	117.188	80.901	117.188	81.9869	117.188	80.7511	117.188	81.9367	117.188	80.6223	117.188	81.8544	117.188	80.521	117.188	81.7476	117.188	80.4519	117.188	81.6263	117.188	80.4171	117.188	81.5021	117.188	80.4165	117.188	81.3861	117.188	80.447	117.188	81.2865	117.188	80.5033	117.188	81.2063	117.188	80.5785	117.188	81.1434	117.188	80.665	117.188	81.0911	117.188	80.7549	117.188	81.0408	117.188	80.8412	117.188	80.985	117.188	80.9188
120.117	82.0296	120.117	81.8922	120.117	82.1451	120.117	81.7394	120.117	82.2327	120.117	81.5777	120.117	82.287	120.117	81.4134	120.117	82.3039	120.117	81.2524	120.117	82.281	120.117	81.1006	120.117	82.2183	120.117	80.9633	120.117	82.1184	120.117	80.8457	120.117	81.9871	120.117	80.7521	120.117	81.8329	120.117	80.6855	120.117	81.6671	120.117	80.6474	120.117	81.5022	120.117	80.6371	120.117	81.3505	120.117	80.6517	120.117	81.2213	120.117	80.6859	120.117	81.119	120.117	80.733	120.117	81.0419	120.117	80.786	120.117	80.9835	120.117	80.839	120.117	80.935	120.117	80.8884
124.512	82.2094	124.512	82.0717	124.512	82.3243	124.512	81.9179	124.512	82.4109	124.512	81.755	124.512	82.465	124.512	81.5904	124.512	82.4843	124.512	81.4312	124.512	82.4684	124.512	81.2836	124.512	82.4187	124.512	81.153	124.512	82.3384	124.512	81.0436	124.512	82.2325	124.512	80.9579	124.512	82.1068	124.512	80.8971	124.512	81.9684	124.512	80.8611	124.512	81.8244	124.512	80.848	124.512	81.6821	124.512	80.8553	124.512	81.5477	124.512	80.8794	124.512	81.4259	124.512	80.9166	124.512	81.3191	124.512	80.9636	124.512	81.2272	124.512	81.0181	124.512	81.1482	124.512	81.0793
128.906	82.4545	128.906	82.3179	128.906	82.565	128.906	82.1611	128.906	82.6445	128.906	81.9911	128.906	82.6901	128.906	81.8151	128.906	82.7002	128.906	81.6405	128.906	82.6751	128.906	81.4743	128.906	82.6168	128.906	81.3232	128.906	82.5286	128.906	81.1928	128.906	82.4153	128.906	81.088	128.906	82.2825	128.906	81.012	128.906	82.137	128.906	80.9661	128.906	81.9863	128.906	80.9495	128.906	81.8379	128.906	80.9594	128.906	81.6987	128.906	80.9908	128.906	81.5741	128.906	81.0379	128.906	81.4663	128.906	81.095	128.906	81.3745	128.906	81.1577	128.906	81.2952	128.906	81.2241
133.301	82.5305	133.301	82.3941	133.301	82.6414	133.301	82.2379	133.301	82.723	133.301	82.0688	133.301	82.7734	133.301	81.8945	133.301	82.7922	133.301	81.7228	133.301	82.7806	133.301	81.5608	133.301	82.7407	133.301	81.4143	133.301	82.6756	133.301	81.2878	133.301	82.5885	133.301	81.1842	133.301	82.4826	133.301	81.1054	133.301	82.3611	133.301	81.0521	133.301	82.2271	133.301	81.0242	133.301	82.0842	133.301	81.0208	133.301	81.9368	133.301	81.0402	133.301	81.7901	133.301	81.08	133.301	81.6495	133.301	81.1378	133.301	81.5193	133.301	81.2114	133.301	81.4023	133.301	81.2997
139.16	82.4745	139.16	82.321	139.16	82.6078	139.16	82.1547	139.16	82.7153	139.16	81.9844	139.16	82.793	139.16	81.8199	139.16	82.839	139.16	81.6712	139.16	82.8537	139.16	81.5472	139.16	82.8399	139.16	81.4548	139.16	82.8025	139.16	81.3974	139.16	82.7481	139.16	81.3749	139.16	82.6836	139.16	81.3839	139.16	82.6148	139.16	81.4188	139.16	82.5451	139.16	81.473	139.16	82.475	139.16	81.5407	139.16	82.4029	139.16	81.6173	139.16	82.3264	139.16	81.6997	139.16	82.244	139.16	81.7865	139.16	82.1557	139.16	81.8768	139.16	82.0634	139.16	81.9697
143.555	82.8288	143.555	82.6628	143.555	82.9684	143.555	82.4785	143.555	83.0753	143.555	82.2848	143.555	83.1449	143.555	82.0921	143.555	83.1747	143.555	81.9111	143.555	83.165	143.555	81.7525	143.555	83.1187	143.555	81.6258	143.555	83.0419	143.555	81.5377	143.555	82.9432	143.555	81.4914	143.555	82.8329	143.555	81.4858	143.555	82.7213	143.555	81.516	143.555	82.6171	143.555	81.5743	143.555	82.5255	143.555	81.6523	143.555	82.4472	143.555	81.7418	143.555	82.379	143.555	81.8363	143.555	82.3157	143.555	81.9306	143.555	82.2515	143.555	82.0211	143.555	82.1821	143.555	82.1054
147.949	83.0912	147.949	82.9227	147.949	83.2244	147.949	82.7259	147.949	83.3171	147.949	82.5089	147.949	83.3656	147.949	82.2811	147.949	83.3686	147.949	82.0532	147.949	83.3271	147.949	81.8367	147.949	83.2451	147.949	81.6434	147.949	83.1292	147.949	81.4838	147.949	82.9883	147.949	81.3665	147.949	82.8329	147.949	81.2962	147.949	82.6739	147.949	81.273	147.949	82.5214	147.949	81.2927	147.949	82.3829	147.949	81.3475	147.949	82.2623	147.949	81.4275	147.949	82.1593	147.949	81.5227	147.949	82.0697	147.949	81.6238	147.949	81.9871	147.949	81.7236	147.949	81.9048	147.949	81.8177
153.809	83.1191	153.809	82.9638	153.809	83.2368	153.809	82.7775	153.809	83.3126	153.809	82.5685	153.809	83.3448	153.809	82.3469	153.809	83.3346	153.809	82.1238	153.809	83.2857	153.809	81.911	153.809	83.2041	153.809	81.72	153.809	83.0979	153.809	81.5613	153.809	82.9764	153.809	81.443	153.809	82.8488	153.809	81.3695	153.809	82.7233	153.809	81.3414	153.809	82.6058	153.809	81.3552	153.809	82.4986	153.809	81.4047	153.809	82.4008	153.809	81.4821	153.809	82.3088	153.809	81.579	153.809	82.2178	153.809	81.6876	153.809	82.1231	153.809	81.8012	153.809	82.022	153.809	81.914
159.668	83.2687	159.668	83.1233	159.668	83.3787	159.668	82.9486	159.668	83.4491	159.668	82.7522	159.668	83.478	159.668	82.5428	159.668	83.4655	159.668	82.3299	159.668	83.4139	159.668	82.1231	159.668	83.3282	159.668	81.9318	159.668	83.2153	159.668	81.7652	159.668	83.0845	159.668	81.6312	159.668	82.9459	159.668	81.5365	159.668	82.8099	159.668	81.4855	159.668	82.685	159.668	81.4796	159.668	82.5763	159.668	81.5166	159.668	82.4844	159.668	81.5906	159.668	82.4048	159.668	81.6925	159.668	82.3298	159.668	81.8112	159.668	82.2503	159.668	81.9349	159.668	82.1591	159.668	82.0532
165.527	83.2062	165.527	83.0557	165.527	83.3211	165.527	82.8773	165.527	83.395	165.527	82.6807	165.527	83.4253	165.527	82.477	165.527	83.4118	165.527	82.2783	165.527	83.3578	165.527	82.0964	165.527	83.2691	165.527	81.9418	165.527	83.1546	165.527	81.8228	165.527	83.025	165.527	81.744	165.527	82.892	165.527	81.7068	165.527	82.7665	165.527	81.709	165.527	82.6571	165.527	81.7457	165.527	82.5684	165.527	81.8099	165.527	82.5007	165.527	81.8937	165.527	82.4495	165.527	81.9881	165.527	82.4074	165.527	82.0843	165.527	82.3655	165.527	82.1744	165.527	82.3156	165.527	82.2524
171.387	83.2636	171.387	83.095	171.387	83.3949	171.387	82.8969	171.387	83.4835	171.387	82.6789	171.387	83.5265	171.387	82.4523	171.387	83.5235	171.387	82.2291	171.387	83.4763	171.387	82.0213	171.387	83.3889	171.387	81.8396	171.387	83.2676	171.387	81.6927	171.387	83.1204	171.387	81.5869	171.387	82.9568	171.387	81.5257	171.387	82.7877	171.387	81.5092	171.387	82.6244	171.387	81.5339	171.387	82.4777	171.387	81.5931	171.387	82.3559	171.387	81.6771	171.387	82.2623	171.387	81.7738	171.387	82.1937	171.387	81.8714	171.387	82.1406	171.387	81.9596	171.387	82.0907	171.387	82.0326
177.246	83.2285	177.246	83.0629	177.246	83.3544	177.246	82.864	177.246	83.4363	177.246	82.6403	177.246	83.4725	177.246	82.4028	177.246	83.4638	177.246	82.1648	177.246	83.414	177.246	81.9415	177.246	83.3295	177.246	81.7485	177.246	83.2189	177.246	81.5995	177.246	83.0917	177.246	81.5041	177.246	82.957	177.246	81.4651	177.246	82.8221	177.246	81.4787	177.246	82.6924	177.246	81.5352	177.246	82.5718	177.246	81.6214	177.246	82.4632	177.246	81.7232	177.246	82.3685	177.246	81.8283	177.246	82.2878	177.246	81.927	177.246	82.2184	177.246	82.014	177.246	82.1545	177.246	82.0886
183.105	83.3045	183.105	83.1439	183.105	83.4219	183.105	82.947	183.105	83.4915	183.105	82.7226	183.105	83.5112	183.105	82.4808	183.105	83.4822	183.105	82.2328	183.105	83.4092	183.105	81.9909	183.105	83.3003	183.105	81.7677	183.105	83.1667	183.105	81.5758	183.105	83.0211	183.105	81.4264	183.105	82.8755	183.105	81.3282	183.105	82.7389	183.105	81.2854	183.105	82.6157	183.105	81.2967	183.105	82.5057	183.105	81.355	183.105	82.4059	183.105	81.4487	183.105	82.312	183.105	81.5642	183.105	82.2202	183.105	81.688	183.105	82.1272	183.105	81.8101	183.105	82.0297	183.105	81.9245
188.965	83.2097	188.965	83.0434	188.965	83.3272	188.965	82.8353	188.965	83.391	188.965	82.5951	188.965	83.3992	188.965	82.3345	188.965	83.353	188.965	82.0675	188.965	83.2579	188.965	81.8097	188.965	83.1234	188.965	81.5773	188.965	82.9636	188.965	81.3847	188.965	82.7959	188.965	81.243	188.965	82.6387	188.965	81.1576	188.965	82.5068	188.965	81.1283	188.965	82.4072	188.965	81.1501	188.965	82.3369	188.965	81.2149	188.965	82.2841	188.965	81.3133	188.965	82.2331	188.965	81.4356	188.965	82.1699	188.965	81.5723	188.965	82.0857	188.965	81.7143	188.965	81.9787	188.965	81.8526
196.289	83.4695	196.289	83.3142	196.289	83.5755	196.289	83.1175	196.289	83.626	196.289	82.889	196.289	83.6171	196.289	82.6389	196.289	83.5486	196.289	82.3784	196.289	83.4239	196.289	82.1198	196.289	83.2509	196.289	81.8759	196.289	83.0425	196.289	81.6604	196.289	82.8162	196.289	81.4864	196.289	82.5927	196.289	81.3642	196.289	82.3931	196.289	81.2997	196.289	82.2348	196.289	81.2922	196.289	82.126	196.289	81.3353	196.289	82.063	196.289	81.4175	196.289	82.0314	196.289	81.5249	196.289	82.0111	196.289	81.6429	196.289	81.9826	196.289	81.7575	196.289	81.9329	196.289	81.857
203.613	83.312	203.613	83.1531	203.613	83.4199	203.613	82.9515	203.613	83.4715	203.613	82.7182	203.613	83.4649	203.613	82.4656	203.613	83.4015	203.613	82.2071	203.613	83.2861	203.613	81.956	203.613	83.1266	203.613	81.7248	203.613	82.9344	203.613	81.5255	203.613	82.7236	203.613	81.3679	203.613	82.5099	203.613	81.2601	203.613	82.3095	203.613	81.2059	203.613	82.1369	203.613	81.2048	203.613	82.0023	203.613	81.2504	203.613	81.9094	203.613	81.3317	203.613	81.8538	203.613	81.4341	203.613	81.8232	203.613	81.5415	203.613	81.8006	203.613	81.6392	203.613	81.7689	203.613	81.7165
210.938	83.2162	210.938	83.0741	210.938	83.3092	210.938	82.8894	210.938	83.3483	210.938	82.6703	210.938	83.3311	210.938	82.4264	210.938	83.2576	210.938	82.1681	210.938	83.1307	210.938	81.9072	210.938	82.9571	210.938	81.6564	210.938	82.748	210.938	81.4294	210.938	82.5192	210.938	81.2397	210.938	82.2898	210.938	81.0996	210.938	82.0806	210.938	81.0176	210.938	81.909	210.938	80.9962	210.938	81.7856	210.938	81.0307	210.938	81.7098	210.938	81.1093	210.938	81.6707	210.938	81.2153	210.938	81.65	210.938	81.3307	210.938	81.6284	210.938	81.4388	210.938	81.5904	210.938	81.5275
218.262	83.0797	218.262	82.8971	218.262	83.2094	218.262	82.672	218.262	83.2786	218.262	82.4181	218.262	83.283	218.262	82.1509	218.262	83.222	218.262	81.8876	218.262	83.0991	218.262	81.6448	218.262	82.9233	218.262	81.4375	218.262	82.7088	218.262	81.2767	218.262	82.4749	218.262	81.169	218.262	82.245	218.262	81.1161	218.262	82.0427	218.262	81.1151	218.262	81.8884	218.262	81.16	218.262	81.7932	218.262	81.242	218.262	81.756	218.262	81.35	218.262	81.7624	218.262	81.4711	218.262	81.7892	218.262	81.5909	218.262	81.8112	218.262	81.6946	218.262	81.8082	218.262	81.7696
225.586	83.281	225.586	83.113	225.586	83.3864	225.586	82.89	225.586	83.4238	225.586	82.6217	225.586	83.39	225.586	82.3199	225.586	83.2847	225.586	81.9993	225.586	83.1114	225.586	81.6779	225.586	82.8779	225.586	81.3764	225.586	82.5981	225.586	81.1173	225.586	82.292	225.586	80.9215	225.586	81.9862	225.586	80.8049	225.586	81.7124	225.586	80.7731	225.586	81.5014	225.586	80.8204	225.586	81.3753	225.586	80.9299	225.586	81.3381	225.586	81.0774	225.586	81.3724	225.586	81.2363	225.586	81.4449	225.586	81.3816	225.586	81.5179	225.586	81.4921	225.586	81.5604	225.586	81.5537
232.91	83.0758	232.91	82.9067	232.91	83.1868	232.91	82.6887	232.91	83.2326	232.91	82.4322	232.91	83.2077	232.91	82.1493	232.91	83.1093	232.91	81.8534	232.91	82.9376	232.91	81.5595	232.91	82.6972	232.91	81.2828	232.91	82.3984	232.91	81.0387	232.91	82.06	232.91	80.8408	232.91	81.7101	232.91	80.6997	232.91	81.3851	232.91	80.6217	232.91	81.124	232.91	80.6074	232.91	80.9567	232.91	80.6503	232.91	80.8917	232.91	80.7365	232.91	80.911	232.91	80.8463	232.91	80.9773	232.91	80.9565	232.91	81.0493	232.91	81.0448	232.91	81.0942	232.91	81.0937
241.699	82.7924	241.699	82.5721	241.699	82.9582	241.699	82.309	241.699	83.0609	241.699	82.017	241.699	83.0947	241.699	81.7114	241.699	83.0566	241.699	81.4077	241.699	82.9462	241.699	81.1199	241.699	82.766	241.699	80.8603	241.699	82.5215	241.699	80.6384	241.699	82.2214	241.699	80.4619	241.699	81.8779	241.699	80.3365	241.699	81.5087	241.699	80.2649	241.699	81.1395	241.699	80.2466	241.699	80.806	241.699	80.2751	241.699	80.549	241.699	80.3374	241.699	80.3992	241.699	80.4138	241.699	80.3585	241.699	80.4809	241.699	80.3954	241.699	80.5171	241.699	80.4604	241.699	80.5092
250.488	83.1737	250.488	82.8995	250.488	83.3702	250.488	82.5574	250.488	83.4824	250.488	82.1611	250.488	83.507	250.488	81.7286	250.488	83.4439	250.488	81.282	250.488	83.2963	250.488	80.8467	250.488	83.0715	250.488	80.449	250.488	82.7813	250.488	80.1128	250.488	82.4428	250.488	79.8565	250.488	82.0789	250.488	79.6899	250.488	81.7163	250.488	79.6144	250.488	81.3826	250.488	79.6226	250.488	81.1003	250.488	79.6999	250.488	80.8811	250.488	79.8258	250.488	80.7233	250.488	79.9761	250.488	80.6138	250.488	80.1279	250.488	80.5328	250.488	80.263	250.488	80.4586	250.488	80.3726
259.277	82.9704	259.277	82.7673	259.277	83.1071	259.277	82.5013	259.277	83.1755	259.277	82.1781	259.277	83.1759	259.277	81.8057	259.277	83.1102	259.277	81.3975	259.277	82.9815	259.277	80.975	259.277	82.7935	259.277	80.5695	259.277	82.5497	259.277	80.2195	259.277	82.2548	259.277	79.9624	259.277	81.9163	259.277	79.8211	259.277	81.5504	259.277	79.7958	259.277	81.187	259.277	79.8656	259.277	80.8702	259.277	79.9988	259.277	80.6469	259.277	80.1631	259.277	80.5415	259.277	80.3307	259.277	80.5384	259.277	80.4784	259.277	80.5882	259.277	80.5862	259.277	80.6351	259.277	80.6396
268.066	82.7789	268.066	82.5551	268.066	82.9238	268.066	82.2596	268.066	82.9872	268.066	81.9023	268.066	82.9709	268.066	81.4947	268.066	82.8813	268.066	81.0486	268.066	82.7284	268.066	80.5774	268.066	82.5249	268.066	80.0994	268.066	82.2848	268.066	79.6426	268.066	82.0207	268.066	79.2463	268.066	81.7415	268.066	78.9563	268.066	81.4525	268.066	78.8101	268.066	81.1586	268.066	78.8194	268.066	80.8707	268.066	78.9613	268.066	80.609	268.066	79.1873	268.066	80.3968	268.066	79.4417	268.066	80.2476	268.066	79.6772	268.066	80.1522	268.066	79.8643	268.066	80.0805	268.066	79.9946
276.855	82.8443	276.855	82.6577	276.855	82.9457	276.855	82.3912	276.855	82.9609	276.855	82.0539	276.855	82.8927	276.855	81.6595	276.855	82.7473	276.855	81.2253	276.855	82.5343	276.855	80.7712	276.855	82.2681	276.855	80.3198	276.855	81.9684	276.855	79.8951	276.855	81.6611	276.855	79.5225	276.855	81.3744	276.855	79.2264	276.855	81.13	276.855	79.0267	276.855	80.9347	276.855	78.9349	276.855	80.7788	276.855	78.9506	276.855	80.6438	276.855	79.0605	276.855	80.5137	276.855	79.2398	276.855	80.3795	276.855	79.4569	276.855	80.2353	276.855	79.6812	276.855	80.0746	276.855	79.8904
287.109	82.5594	287.109	82.4093	287.109	82.6425	287.109	82.1922	287.109	82.6596	287.109	81.9101	287.109	82.6128	287.109	81.5674	287.109	82.5048	287.109	81.172	287.109	82.3393	287.109	80.7372	287.109	82.1226	287.109	80.2846	287.109	81.8647	287.109	79.8456	287.109	81.5801	287.109	79.4612	287.109	81.2884	287.109	79.1761	287.109	81.0145	287.109	79.0266	287.109	80.7864	287.109	79.0261	287.109	80.6263	287.109	79.1579	287.109	80.5391	287.109	79.3809	287.109	80.5072	287.109	79.6452	287.109	80.4976	287.109	79.9061	287.109	80.4761	287.109	80.1314	287.109	80.4165	287.109	80.3033
297.363	82.7425	297.363	82.6594	297.363	82.7597	297.363	82.5165	297.363	82.7039	297.363	82.3167	297.363	82.5692	297.363	82.0584	297.363	82.3507	297.363	81.7367	297.363	82.0462	297.363	81.3475	297.363	81.6591	297.363	80.8933	297.363	81.2047	297.363	80.3894	297.363	80.7187	297.363	79.8688	297.363	80.2631	297.363	79.3836	297.363	79.919	297.363	78.9986	297.363	79.7556	297.363	78.7732	297.363	79.7861	297.363	78.7375	297.363	79.9506	297.363	78.876	297.363	80.1491	297.363	79.1363	297.363	80.2913	297.363	79.4537	297.363	80.3251	297.363	79.7708	297.363	80.2378	297.363	80.0438
307.617	82.388	307.617	82.1441	307.617	82.5711	307.617	81.8612	307.617	82.6752	307.617	81.5621	307.617	82.6867	307.617	81.2649	307.617	82.597	307.617	80.9791	307.617	82.4025	307.617	80.7035	307.617	82.1041	307.617	80.4303	307.617	81.7063	307.617	80.1526	307.617	81.217	307.617	79.8714	307.617	80.6513	307.617	79.6006	307.617	80.0442	307.617	79.3673	307.617	79.4697	307.617	79.207	307.617	79.0468	307.617	79.151	307.617	78.8912	307.617	79.211	307.617	79.0196	307.617	79.3678	307.617	79.3172	307.617	79.5721	307.617	79.6215	307.617	79.7572	307.617	79.8154	307.617	79.8555
319.336	82.1782	319.336	81.9879	319.336	82.2986	319.336	81.7457	319.336	82.3359	319.336	81.4691	319.336	82.2829	319.336	81.1711	319.336	82.1387	319.336	80.8581	319.336	81.9064	319.336	80.5321	319.336	81.5912	319.336	80.1963	319.336	81.1999	319.336	79.8608	319.336	80.7423	319.336	79.5441	319.336	80.236	319.336	79.2714	319.336	79.7155	319.336	79.0681	319.336	79.2425	319.336	78.9533	319.336	78.9033	319.336	78.9342	319.336	78.7726	319.336	79.0026	319.336	78.8553	319.336	79.1343	319.336	79.069	319.336	79.2908	319.336	79.2969	319.336	79.4251	319.336	79.4496	319.336	79.4898
329.59	81.9981	329.59	81.7416	329.59	82.1836	329.59	81.4358	329.59	82.2851	329.59	81.1078	329.59	82.2964	329.59	80.7834	329.59	82.2157	329.59	80.4792	329.59	82.0416	329.59	80.1984	329.59	81.7722	329.59	79.9342	329.59	81.4055	329.59	79.6792	329.59	80.9426	329.59	79.4355	329.59	80.3922	329.59	79.2198	329.59	79.7791	329.59	79.061	329.59	79.1572	329.59	78.9886	329.59	78.6223	329.59	79.0167	329.59	78.2997	329.59	79.1308	329.59	78.2753	329.59	79.2881	329.59	78.5141	329.59	79.4285	329.59	78.8756	329.59	79.4898	329.59	79.2096	329.59	79.4235
341.309	82.1395	341.309	81.8103	341.309	82.3678	341.309	81.3981	341.309	82.4895	341.309	80.9336	341.309	82.5076	341.309	80.4564	341.309	82.43	341.309	80.0083	341.309	82.2649	341.309	79.6228	341.309	82.0173	341.309	79.3175	341.309	81.686	341.309	79.0912	341.309	81.2635	341.309	78.9298	341.309	80.7403	341.309	78.8168	341.309	80.1195	341.309	78.7447	341.309	79.4391	341.309	78.7192	341.309	78.796	341.309	78.7532	341.309	78.3393	341.309	78.8511	341.309	78.1924	341.309	78.9928	341.309	78.3461	341.309	79.1308	341.309	78.658	341.309	79.2029	341.309	78.9626	341.309	79.1547
353.027	81.9455	353.027	81.6954	353.027	82.0934	353.027	81.349	353.027	82.1429	353.027	80.9244	353.027	82.1037	353.027	80.4516	353.027	81.9882	353.027	79.9653	353.027	81.8087	353.027	79.4931	353.027	81.5748	353.027	79.046	353.027	81.2913	353.027	78.6209	353.027	80.9547	353.027	78.2173	353.027	80.5517	353.027	77.8575	353.027	80.0658	353.027	77.5948	353.027	79.4962	353.027	77.4944	353.027	78.8887	353.027	77.589	353.027	78.3567	353.027	77.8443	353.027	78.0474	353.027	78.1687	353.027	78.0317	353.027	78.4563	353.027	78.2285	353.027	78.6237	353.027	78.4731	353.027	78.6275
366.211	82.4364	366.211	82.2409	366.211	82.548	366.211	81.9651	366.211	82.57	366.211	81.6096	366.211	82.4955	366.211	81.1707	366.211	82.319	366.211	80.6439	366.211	82.039	366.211	80.0295	366.211	81.662	366.211	79.3451	366.211	81.2056	366.211	78.6369	366.211	80.6975	366.211	77.9823	366.211	80.1712	366.211	77.4687	366.211	79.6555	366.211	77.1525	366.211	79.1663	366.211	77.0331	366.211	78.7069	366.211	77.068	366.211	78.2861	366.211	77.2044	366.211	77.9394	366.211	77.3919	366.211	77.7223	366.211	77.5761	366.211	77.6587	366.211	77.7022	366.211	77.6965	366.211	77.7366
379.395	81.6401	379.395	81.3249	379.395	81.8739	379.395	80.9577	379.395	82.0114	379.395	80.5782	379.395	82.0509	379.395	80.2228	379.395	81.9984	379.395	79.9088	379.395	81.8617	379.395	79.6261	379.395	81.6423	379.395	79.3465	379.395	81.3287	379.395	79.0419	379.395	80.8953	379.395	78.7009	379.395	80.3115	379.395	78.3372	379.395	79.5661	379.395	77.9916	379.395	78.7111	379.395	77.7251	379.395	77.9121	379.395	77.5979	379.395	77.4252	379.395	77.6365	379.395	77.3993	379.395	77.8125	379.395	77.7032	379.395	78.0522	379.395	78.0699	379.395	78.2661	379.395	78.3138	379.395	78.3731
392.578	81.1936	392.578	80.9172	392.578	81.3376	392.578	80.5204	392.578	81.3561	392.578	80.0364	392.578	81.2733	392.578	79.521	392.578	81.1272	392.578	79.0421	392.578	80.9602	392.578	78.6526	392.578	80.8025	392.578	78.3604	392.578	80.6558	392.578	78.1265	392.578	80.4863	392.578	77.8973	392.578	80.2325	392.578	77.6426	392.578	79.8247	392.578	77.3764	392.578	79.2112	392.578	77.154	392.578	78.3943	392.578	77.0437	392.578	77.481	392.578	77.0802	392.578	76.7236	392.578	77.2282	392.578	76.413	392.578	77.3896	392.578	76.5886	392.578	77.4469	392.578	76.9839	392.578	77.3137
405.762	81.8943	405.762	81.6455	405.762	81.9527	405.762	81.2069	405.762	81.8352	405.762	80.5941	405.762	81.5728	405.762	79.8431	405.762	81.212	405.762	79.0197	405.762	80.8111	405.762	78.224	405.762	80.4328	405.762	77.5712	405.762	80.1284	405.762	77.1393	405.762	79.913	405.762	76.9231	405.762	79.7495	405.762	76.8484	405.762	79.5653	405.762	76.8334	405.762	79.2929	405.762	76.835	405.762	78.9026	405.762	76.8547	405.762	78.4167	405.762	76.9133	405.762	77.9078	405.762	77.0139	405.762	77.4826	405.762	77.1225	405.762	77.2328	405.762	77.1866	405.762	77.1637	405.762	77.1844
420.41	81.7166	420.41	81.5459	420.41	81.7511	420.41	81.2442	420.41	81.6624	420.41	80.831	420.41	81.4767	420.41	80.3313	420.41	81.2253	420.41	79.7662	420.41	80.9389	420.41	79.1515	420.41	80.6501	420.41	78.5073	420.41	80.3904	420.41	77.8739	420.41	80.1696	420.41	77.3199	420.41	79.9499	420.41	76.9224	420.41	79.6529	420.41	76.7247	420.41	79.2102	420.41	76.7116	420.41	78.631	420.41	76.8312	420.41	78.0443	420.41	77.0298	420.41	77.6468	420.41	77.2635	420.41	77.5367	420.41	77.4903	420.41	77.619	420.41	77.6661	420.41	77.7261	420.41	77.751
435.059	81.6891	435.059	81.5467	435.059	81.7194	435.059	81.2768	435.059	81.6503	435.059	80.8701	435.059	81.4847	435.059	80.3311	435.059	81.2205	435.059	79.6831	435.059	80.8663	435.059	78.9696	435.059	80.4593	435.059	78.2519	435.059	80.0618	435.059	77.6019	435.059	79.7202	435.059	77.0919	435.059	79.4169	435.059	76.7815	435.059	79.0787	435.059	76.7031	435.059	78.6577	435.059	76.8506	435.059	78.2231	435.059	77.1779	435.059	77.9712	435.059	77.6092	435.059	78.0533	435.059	78.0594	435.059	78.3792	435.059	78.4557	435.059	78.7163	435.059	78.7495	435.059	78.9056	435.059	78.9094
451.172	81.9075	451.172	81.5829	451.172	82.0906	451.172	81.1423	451.172	82.1199	451.172	80.6218	451.172	81.9924	451.172	80.0602	451.172	81.7077	451.172	79.484	451.172	81.263	451.172	78.8937	451.172	80.6605	451.172	78.2597	451.172	79.9272	451.172	77.5393	451.172	79.1404	451.172	76.713	451.172	78.4244	451.172	75.8331	451.172	77.8811	451.172	75.0685	451.172	77.4829	451.172	74.6805	451.172	77.0717	451.172	74.8377	451.172	76.5118	451.172	75.4257	451.172	75.8829	451.172	76.1453	451.172	75.544	451.172	76.7248	451.172	75.7844	451.172	76.9902	451.172	76.3735	451.172	76.8596
465.82	81.4752	465.82	81.2786	465.82	81.5018	465.82	80.9154	465.82	81.371	465.82	80.4082	465.82	81.1029	465.82	79.7962	465.82	80.7211	465.82	79.1249	465.82	80.2597	465.82	78.4351	465.82	79.772	465.82	77.7556	465.82	79.3224	465.82	77.1042	465.82	78.9496	465.82	76.4954	465.82	78.6287	465.82	75.9554	465.82	78.2763	465.82	75.5388	465.82	77.8099	465.82	75.3328	465.82	77.2268	465.82	75.4127	465.82	76.6537	465.82	75.7605	465.82	76.2991	465.82	76.2406	465.82	76.2807	465.82	76.6764	465.82	76.5114	465.82	76.9372	465.82	76.7964	465.82	76.9697
483.398	81.2039	483.398	80.9793	483.398	81.286	483.398	80.6224	483.398	81.2337	483.398	80.1658	483.398	81.0608	483.398	79.654	483.398	80.7755	483.398	79.1228	483.398	80.3834	483.398	78.5822	483.398	79.9019	483.398	78.0136	483.398	79.373	483.398	77.3838	483.398	78.8594	483.398	76.6669	483.398	78.4183	483.398	75.8677	483.398	78.0623	483.398	75.0566	483.398	77.7477	483.398	74.4161	483.398	77.4151	483.398	74.2144	483.398	77.0498	483.398	74.5776	483.398	76.7121	483.398	75.2941	483.398	76.5085	483.398	76.0089	483.398	76.4977	483.398	76.4849	483.398	76.6066	483.398	76.6587
499.512	81.6286	499.512	81.3197	499.512	81.7898	499.512	80.8805	499.512	81.8038	499.512	80.3556	499.512	81.6758	499.512	79.8107	499.512	81.4104	499.512	79.3015	499.512	81.0154	499.512	78.8346	499.512	80.5106	499.512	78.3585	499.512	79.9324	499.512	77.8007	499.512	79.3287	499.512	77.1219	499.512	78.7404	499.512	76.3455	499.512	78.1767	499.512	75.5549	499.512	77.6107	499.512	74.873	499.512	77.0209	499.512	74.4416	499.512	76.4606	499.512	74.3756	499.512	76.0725	499.512	74.671	499.512	75.9597	499.512	75.169	499.512	76.0369	499.512	75.6583	499.512	76.098	499.512	75.9869
517.09	81.5437	517.09	81.2239	517.09	81.6687	517.09	80.7261	517.09	81.6053	517.09	80.1032	517.09	81.372	517.09	79.4508	517.09	80.9975	517.09	78.8924	517.09	80.5337	517.09	78.5161	517.09	80.0696	517.09	78.2976	517.09	79.7083	517.09	78.1047	517.09	79.4877	517.09	77.7895	517.09	79.3172	517.09	77.2689	517.09	79.018	517.09	76.5657	517.09	78.4384	517.09	75.8476	517.09	77.5761	517.09	75.4195	517.09	76.6854	517.09	75.5129	517.09	76.2115	517.09	76.0229	517.09	76.3333	517.09	76.6276	517.09	76.7509	517.09	77.07	517.09	77.1101	517.09	77.2357
536.133	82.1173	536.133	81.8493	536.133	82.1255	536.133	81.3101	536.133	81.9028	536.133	80.523	536.133	81.4723	536.133	79.5631	536.133	80.8322	536.133	78.5691	536.133	79.9641	536.133	77.7309	536.133	78.8932	536.133	77.2094	536.133	77.8071	536.133	77.0098	536.133	77.1389	536.133	76.9633	536.133	77.244	536.133	76.8598	536.133	77.8431	536.133	76.5763	536.133	78.3004	536.133	76.1437	536.133	78.1766	536.133	75.7835	536.133	77.3619	536.133	75.8042	536.133	76.2291	536.133	76.2747	536.133	75.7552	536.133	76.9207	536.133	76.3399	536.133	77.4113	536.133	77.1374	536.133	77.5237
555.176	81.6966	555.176	81.5008	555.176	81.7474	555.176	81.102	555.176	81.6876	555.176	80.4516	555.176	81.5078	555.176	79.5471	555.176	81.1608	555.176	78.4698	555.176	80.5926	555.176	77.4089	555.176	79.7776	555.176	76.6128	555.176	78.74	555.176	76.216	555.176	77.5685	555.176	76.11	555.176	76.4621	555.176	76.0625	555.176	75.7955	555.176	75.9074	555.176	75.8961	555.176	75.6289	555.176	76.5371	555.176	75.3728	555.176	77.1353	555.176	75.3658	555.176	77.3313	555.176	75.695	555.176	77.1406	555.176	76.1867	555.176	76.8551	555.176	76.5768	555.176	76.7422	555.176	76.731
574.219	82.4927	574.219	82.1197	574.219	82.6637	574.219	81.5671	574.219	82.6229	574.219	80.8746	574.219	82.3667	574.219	80.0894	574.219	81.9031	574.219	79.2461	574.219	81.2703	574.219	78.3702	574.219	80.5414	574.219	77.5196	574.219	79.7851	574.219	76.8116	574.219	79	574.219	76.3392	574.219	78.109	574.219	76.039	574.219	77.0862	574.219	75.7317	574.219	76.1549	574.219	75.3362	574.219	75.7067	574.219	75.0353	574.219	75.7305	574.219	75.1574	574.219	75.832	574.219	75.7347	574.219	75.8998	574.219	76.416	574.219	76.1405	574.219	76.853	574.219	76.5686	574.219	76.8894
594.727	82.8004	594.727	82.5711	594.727	82.7538	594.727	82.0719	594.727	82.4642	594.727	81.3592	594.727	81.9837	594.727	80.5402	594.727	81.3589	594.727	79.7389	594.727	80.6182	594.727	79.0135	594.727	79.7974	594.727	78.3066	594.727	79.0166	594.727	77.5336	594.727	78.5145	594.727	76.7338	594.727	78.4129	594.727	76.0825	594.727	78.4094	594.727	75.6911	594.727	77.9775	594.727	75.4789	594.727	76.7714	594.727	75.371	594.727	75.0571	594.727	75.4956	594.727	74.4012	594.727	76.0101	594.727	75.6069	594.727	76.7839	594.727	77.0146	594.727	77.4917	594.727	77.7702	594.727	77.8772
615.234	83.2149	615.234	83.0153	615.234	83.1757	615.234	82.5324	615.234	82.9575	615.234	81.7712	615.234	82.5858	615.234	80.8036	615.234	82.0367	615.234	79.7737	615.234	81.2857	615.234	78.8557	615.234	80.3642	615.234	78.1388	615.234	79.3589	615.234	77.5607	615.234	78.3712	615.234	77.017	615.234	77.5377	615.234	76.5046	615.234	77.144	615.234	76.1221	615.234	77.4303	615.234	75.945	615.234	78.0173	615.234	75.9713	615.234	78.1891	615.234	76.215	615.234	77.6105	615.234	76.6824	615.234	76.6648	615.234	77.2338	615.234	76.3898	615.234	77.605	615.234	76.9838	615.234	77.5435
637.207	83.5835	637.207	83.2754	637.207	83.662	637.207	82.7135	637.207	83.5586	637.207	81.9265	637.207	83.2937	637.207	80.9846	637.207	82.8465	637.207	79.9666	637.207	82.1887	637.207	78.9354	637.207	81.3159	637.207	77.9667	637.207	80.2386	637.207	77.218	637.207	78.9761	637.207	76.8505	637.207	77.6422	637.207	76.7483	637.207	76.5721	637.207	76.5159	637.207	76.0804	637.207	75.874	637.207	75.996	637.207	75.0586	637.207	75.997	637.207	74.942	637.207	76.0849	637.207	75.9141	637.207	76.423	637.207	77.1485	637.207	77.0238	637.207	77.9311	637.207	77.6812	637.207	78.0743
659.18	84.0998	659.18	83.93	659.18	83.9891	659.18	83.4647	659.18	83.6236	659.18	82.7283	659.18	83.0207	659.18	81.803	659.18	82.2097	659.18	80.8336	659.18	81.2746	659.18	79.9974	659.18	80.3648	659.18	79.3855	659.18	79.6253	659.18	78.8961	659.18	79.0799	659.18	78.3489	659.18	78.6156	659.18	77.6839	659.18	78.1338	659.18	76.9897	659.18	77.6206	659.18	76.3773	659.18	76.9354	659.18	75.9387	659.18	75.9065	659.18	75.8749	659.18	75.2829	659.18	76.3878	659.18	76.2791	659.18	77.3016	659.18	77.8079	659.18	78.1863	659.18	78.6586	659.18	78.7155
682.617	84.6422	682.617	84.4893	682.617	84.5284	682.617	84.0259	682.617	84.2295	682.617	83.2654	682.617	83.8043	682.617	82.2586	682.617	83.247	682.617	81.0799	682.617	82.4998	682.617	79.8615	682.617	81.5	682.617	78.8261	682.617	80.3234	682.617	78.1551	682.617	79.4173	682.617	77.7997	682.617	79.1872	682.617	77.5777	682.617	79.1251	682.617	77.3027	682.617	78.6817	682.617	76.784	682.617	78.2919	682.617	76.0486	682.617	78.3317	682.617	75.7512	682.617	77.8768	682.617	76.5312	682.617	76.4339	682.617	77.7685	682.617	75.8398	682.617	78.5884	682.617	77.3088	682.617	78.5077
707.52	84.7053	707.52	84.5374	707.52	84.5715	707.52	84.0458	707.52	84.2126	707.52	83.2936	707.52	83.6603	707.52	82.3543	707.52	82.8882	707.52	81.2256	707.52	81.8998	707.52	79.8786	707.52	80.7357	707.52	78.4986	707.52	79.3666	707.52	77.5738	707.52	77.7283	707.52	77.3014	707.52	76.3131	707.52	77.2325	707.52	76.1313	707.52	76.8681	707.52	76.3091	707.52	76.1024	707.52	75.4616	707.52	75.3148	707.52	74.1635	707.52	75.1602	707.52	74.5735	707.52	76.006	707.52	75.6963	707.52	77.3837	707.52	76.4221	707.52	78.3817	707.52	77.4495	707.52	78.3893
732.422	84.5784	732.422	84.6329	732.422	84.2455	732.422	84.3727	732.422	83.6847	732.422	83.7941	732.422	82.9263	732.422	82.8802	732.422	82.0335	732.422	81.6338	732.422	81.1277	732.422	80.2391	732.422	80.3049	732.422	79.0197	732.422	79.5636	732.422	78.0741	732.422	78.7097	732.422	77.3988	732.422	77.4156	732.422	77.1842	732.422	75.9417	732.422	77.1721	732.422	75.952	732.422	76.6397	732.422	77.0992	732.422	75.5373	732.422	77.0102	732.422	75.0054	732.422	75.1894	732.422	76.0158	732.422	74.3583	732.422	77.5644	732.422	76.3694	732.422	78.5947	732.422	78.1005	732.422	78.8003
757.324	84.2913	757.324	84.2086	757.324	84.1083	757.324	83.7903	757.324	83.8406	757.324	83.1372	757.324	83.5327	757.324	82.4033	757.324	83.014	757.324	81.6177	757.324	82.1612	757.324	80.6495	757.324	81.0636	757.324	79.3838	757.324	79.8812	757.324	77.902	757.324	78.807	757.324	76.6725	757.324	78.1376	757.324	76.3998	757.324	77.4338	757.324	76.7283	757.324	76.0508	757.324	76.4984	757.324	75.7148	757.324	75.1945	757.324	77.1801	757.324	73.3621	757.324	77.5543	757.324	73.1688	757.324	76.3471	757.324	75.2488	757.324	75.9709	757.324	77.214	757.324	77.2974	757.324	77.9538
785.156	83.9746	785.156	84.1139	785.156	83.7785	785.156	84.0599	785.156	83.4597	785.156	83.6924	785.156	82.8255	785.156	83.0117	785.156	81.895	785.156	82.0185	785.156	80.9844	785.156	80.6674	785.156	80.2171	785.156	79.214	785.156	79.205	785.156	78.2992	785.156	77.5031	785.156	77.6903	785.156	75.4273	785.156	76.6348	785.156	74.8181	785.156	75.5887	785.156	75.3609	785.156	75.6241	785.156	74.5714	785.156	76.0683	785.156	72.4888	785.156	75.8658	785.156	72.7462	785.156	75.3411	785.156	74.0844	785.156	75.274	785.156	74.4132	785.156	75.4625	785.156	74.7699	785.156	75.3208
811.523	84.1594	811.523	84.4237	811.523	83.6913	811.523	84.3336	811.523	83.2282	811.523	83.9146	811.523	82.7915	811.523	83.1803	811.523	82.3177	811.523	82.0881	811.523	81.7353	811.523	80.7948	811.523	80.8792	811.523	79.5765	811.523	79.6852	811.523	78.3764	811.523	78.2953	811.523	77.217	811.523	76.5473	811.523	76.4588	811.523	74.2456	811.523	75.931	811.523	74.1666	811.523	75.0637	811.523	76.2666	811.523	73.8947	811.523	76.4177	811.523	73.3356	811.523	73.7477	811.523	74.4042	811.523	71.329	811.523	76.2724	811.523	73.957	811.523	77.3426	811.523	76.1169	811.523	77.1932
840.82	84.0215	840.82	84.0606	840.82	83.708	840.82	83.791	840.82	83.1095	840.82	83.3025	840.82	82.1446	840.82	82.7276	840.82	80.9099	840.82	81.9707	840.82	79.865	840.82	80.8019	840.82	79.5362	840.82	79.3387	840.82	79.833	840.82	78.0456	840.82	80.0001	840.82	77.0048	840.82	79.2863	840.82	76.0641	840.82	77.462	840.82	75.6334	840.82	74.6049	840.82	75.8204	840.82	70.4188	840.82	75.8222	840.82	68.7055	840.82	75.4652	840.82	71.9294	840.82	75.6094	840.82	73.105	840.82	76.2793	840.82	73.567	840.82	76.5818	840.82	75.0236	840.82	76.2043
870.117	84.0751	870.117	84.5821	870.117	83.0592	870.117	84.3435	870.117	82.1664	870.117	83.6001	870.117	81.5465	870.117	82.6515	870.117	80.9071	870.117	81.6387	870.117	80.2068	870.117	80.5948	870.117	79.2363	870.117	79.2706	870.117	77.3587	870.117	77.6661	870.117	74.6058	870.117	76.9533	870.117	73.7601	870.117	77.2234	870.117	75.079	870.117	76.6653	870.117	75.8681	870.117	74.8634	870.117	76.4084	870.117	72.8935	870.117	76.794	870.117	71.7108	870.117	75.1456	870.117	72.5991	870.117	73.2696	870.117	75.4084	870.117	75.0244	870.117	77.237	870.117	76.3356	870.117	77.222
900.879	83.7592	900.879	84.0098	900.879	83.7422	900.879	84.1841	900.879	83.2879	900.879	83.7798	900.879	81.9128	900.879	82.8106	900.879	80.1034	900.879	81.4852	900.879	78.8134	900.879	79.7593	900.879	78.2818	900.879	77.4666	900.879	78.172	900.879	75.3305	900.879	77.897	900.879	74.775	900.879	76.4887	900.879	74.9365	900.879	73.9616	900.879	74.8629	900.879	72.6261	900.879	75.189	900.879	72.0083	900.879	75.7576	900.879	74.1273	900.879	75.4232	900.879	75.9508	900.879	74.0424	900.879	73.9521	900.879	73.9038	900.879	72.8009	900.879	75.2628	900.879	75.6531	900.879	76.2195
933.105	83.6873	933.105	84.0789	933.105	82.828	933.105	83.6565	933.105	82.1452	933.105	82.7516	933.105	81.5251	933.105	82.0454	933.105	80.469	933.105	81.5878	933.105	79.0821	933.105	80.6077	933.105	77.655	933.105	78.6826	933.105	76.0385	933.105	76.4311	933.105	74.7384	933.105	74.9612	933.105	75.2947	933.105	74.2816	933.105	75.772	933.105	74.3356	933.105	74.6678	933.105	74.7407	933.105	74.8176	933.105	73.7388	933.105	75.9975	933.105	71.5549	933.105	74.6488	933.105	72.5905	933.105	72.8225	933.105	74.8663	933.105	72.6127	933.105	75.9692	933.105	73.3607	933.105	75.3332
965.332	83.4744	965.332	83.7214	965.332	83.0184	965.332	83.6677	965.332	82.147	965.332	83.1695	965.332	80.8134	965.332	82.1647	965.332	79.499	965.332	80.4928	965.332	78.6424	965.332	78.1781	965.332	78.1272	965.332	76.0549	965.332	77.5524	965.332	75.2535	965.332	76.106	965.332	75.7827	965.332	72.9965	965.332	76.2538	965.332	71.4429	965.332	75.1416	965.332	72.6257	965.332	73.0858	965.332	70.1427	965.332	72.9046	965.332	71.0638	965.332	73.8975	965.332	74.6524	965.332	73.6988	965.332	73.2335	965.332	73.8928	965.332	71.4646	965.332	75.3642	965.332	74.1039	965.332	75.5483
1,000.49	83.0978	1,000.49	83.51	1,000.49	82.2301	1,000.49	83.4173	1,000.49	81.048	1,000.49	82.8918	1,000.49	79.9461	1,000.49	81.9661	1,000.49	79.3499	1,000.49	80.5336	1,000.49	78.6302	1,000.49	78.5222	1,000.49	77.2132	1,000.49	76.0973	1,000.49	75.9099	1,000.49	74.0204	1,000.49	75.7523	1,000.49	73.6213	1,000.49	76.0167	1,000.49	73.9013	1,000.49	74.2165	1,000.49	73.5506	1,000.49	70.5038	1,000.49	73.4723	1,000.49	73.383	1,000.49	73.8303	1,000.49	74.1422	1,000.49	73.767	1,000.49	71.3159	1,000.49	73.6364	1,000.49	68.7814	1,000.49	73.8489	1,000.49	67.8311	1,000.49	74.7032	1,000.49	72.6587	1,000.49	75.0187
1,035.64	82.7957	1,035.64	83.5956	1,035.64	81.9205	1,035.64	83.634	1,035.64	81.0335	1,035.64	82.8779	1,035.64	79.5117	1,035.64	81.7439	1,035.64	77.2853	1,035.64	80.1887	1,035.64	75.2279	1,035.64	78.0711	1,035.64	74.7655	1,035.64	76.0714	1,035.64	75.3598	1,035.64	73.9357	1,035.64	74.598	1,035.64	69.863	1,035.64	71.2969	1,035.64	69.8536	1,035.64	70.1509	1,035.64	73.4835	1,035.64	71.9128	1,035.64	74.2025	1,035.64	65.508	1,035.64	73.1838	1,035.64	67.103	1,035.64	71.6585	1,035.64	72.7975	1,035.64	70.4634	1,035.64	70.4716	1,035.64	72.56	1,035.64	67.3084	1,035.64	74.7154	1,035.64	71.3288	1,035.64	73.9439
1,072.27	82.2384	1,072.27	82.8837	1,072.27	81.4508	1,072.27	83.093	1,072.27	80.0073	1,072.27	82.4664	1,072.27	78.1157	1,072.27	81.2121	1,072.27	77.1806	1,072.27	79.6925	1,072.27	76.6659	1,072.27	78.0552	1,072.27	75.7176	1,072.27	76.7567	1,072.27	75.0145	1,072.27	75.2865	1,072.27	74.6502	1,072.27	72.0223	1,072.27	74.545	1,072.27	68.9047	1,072.27	73.1358	1,072.27	70.0068	1,072.27	69.229	1,072.27	71.0495	1,072.27	71.9783	1,072.27	71.2581	1,072.27	72.8638	1,072.27	71.7798	1,072.27	68.5015	1,072.27	72.1087	1,072.27	68.4845	1,072.27	72.8086	1,072.27	68.5584	1,072.27	73.9695	1,072.27	71.6504	1,072.27	74.1899
1,108.89	82.3927	1,108.89	83.0327	1,108.89	81.5012	1,108.89	83.1216	1,108.89	80.0834	1,108.89	82.5788	1,108.89	77.8115	1,108.89	81.611	1,108.89	75.5145	1,108.89	80.0904	1,108.89	74.623	1,108.89	77.9797	1,108.89	74.7364	1,108.89	76.1883	1,108.89	74.6155	1,108.89	75.5185	1,108.89	73.8637	1,108.89	75.28	1,108.89	73.0072	1,108.89	74.2608	1,108.89	72.8862	1,108.89	72.8237	1,108.89	72.796	1,108.89	72.6633	1,108.89	68.1139	1,108.89	71.872	1,108.89	63.2417	1,108.89	69.95	1,108.89	71.9775	1,108.89	70.3062	1,108.89	70.2794	1,108.89	72.7781	1,108.89	62.2122	1,108.89	74.0347	1,108.89	70.2256	1,108.89	73.3275
1,148.44	82.4472	1,148.44	82.6305	1,148.44	81.5669	1,148.44	82.7463	1,148.44	79.578	1,148.44	82.2665	1,148.44	77.7313	1,148.44	80.6853	1,148.44	76.2679	1,148.44	78.7851	1,148.44	75.3159	1,148.44	77.6859	1,148.44	75.7569	1,148.44	76.9426	1,148.44	75.8258	1,148.44	75.8392	1,148.44	74.5453	1,148.44	74.1702	1,148.44	72.9115	1,148.44	72.4634	1,148.44	71.2257	1,148.44	71.7483	1,148.44	69.1032	1,148.44	71.6466	1,148.44	69.0321	1,148.44	71.6852	1,148.44	71.583	1,148.44	70.0891	1,148.44	70.5685	1,148.44	67.1594	1,148.44	68.5722	1,148.44	70.4338	1,148.44	69.7596	1,148.44	74.0453	1,148.44	69.7506	1,148.44	73.6616
1,189.45	82.471	1,189.45	82.5871	1,189.45	81.7945	1,189.45	82.4887	1,189.45	80.056	1,189.45	81.8112	1,189.45	78.076	1,189.45	80.5254	1,189.45	77.1046	1,189.45	79.0375	1,189.45	76.1171	1,189.45	77.1308	1,189.45	74.99	1,189.45	75.1542	1,189.45	74.1925	1,189.45	74.7282	1,189.45	73.5515	1,189.45	74.3317	1,189.45	73.7788	1,189.45	73.7371	1,189.45	72.7409	1,189.45	72.5867	1,189.45	69.3215	1,189.45	71.6645	1,189.45	70.1804	1,189.45	71.9656	1,189.45	65.6226	1,189.45	70.6726	1,189.45	66.8601	1,189.45	68.832	1,189.45	71.5279	1,189.45	71.5169	1,189.45	66.3554	1,189.45	73.6448	1,189.45	71.554	1,189.45	73.8625
1,230.47	82.4348	1,230.47	82.4417	1,230.47	81.736	1,230.47	82.3273	1,230.47	80.2551	1,230.47	81.8309	1,230.47	78.9502	1,230.47	80.6404	1,230.47	76.8987	1,230.47	79.2622	1,230.47	74.4118	1,230.47	77.9027	1,230.47	73.4993	1,230.47	75.8281	1,230.47	73.9484	1,230.47	73.0357	1,230.47	74.1679	1,230.47	69.3492	1,230.47	73.4369	1,230.47	69.2399	1,230.47	72.2353	1,230.47	72.1923	1,230.47	72.1753	1,230.47	72.6317	1,230.47	66.5064	1,230.47	71.7341	1,230.47	65.9877	1,230.47	71.4421	1,230.47	71.3853	1,230.47	69.4216	1,230.47	69.9946	1,230.47	69.9583	1,230.47	70.4398	1,230.47	73.6542	1,230.47	71.3383	1,230.47	73.8895
1,274.41	81.993	1,274.41	82.671	1,274.41	80.6107	1,274.41	82.71	1,274.41	79.2871	1,274.41	82.2582	1,274.41	78.0115	1,274.41	80.9598	1,274.41	76.3689	1,274.41	78.7836	1,274.41	75.3363	1,274.41	76.5315	1,274.41	75.0212	1,274.41	74.8654	1,274.41	74.7367	1,274.41	73.2476	1,274.41	73.7179	1,274.41	70.9963	1,274.41	72.6847	1,274.41	66.9253	1,274.41	73.2308	1,274.41	65.7878	1,274.41	72.168	1,274.41	70.105	1,274.41	72.4871	1,274.41	71.7836	1,274.41	72.578	1,274.41	70.4757	1,274.41	65.4355	1,274.41	68.042	1,274.41	69.7792	1,274.41	69.9501	1,274.41	68.618	1,274.41	72.6339	1,274.41	67.9648	1,274.41	72.1405
1,319.82	81.5875	1,319.82	82.5122	1,319.82	80.516	1,319.82	82.8203	1,319.82	79.1239	1,319.82	81.9923	1,319.82	77.4651	1,319.82	79.9566	1,319.82	76.5255	1,319.82	77.6343	1,319.82	76.0597	1,319.82	75.9839	1,319.82	75.146	1,319.82	74.14	1,319.82	74.1548	1,319.82	72.7205	1,319.82	74.0062	1,319.82	72.4354	1,319.82	73.4715	1,319.82	71.1048	1,319.82	70.698	1,319.82	70.6584	1,319.82	70.1505	1,319.82	72.0191	1,319.82	70.6609	1,319.82	72.7293	1,319.82	66.8512	1,319.82	71.6404	1,319.82	66.9053	1,319.82	68.8308	1,319.82	70.8664	1,319.82	69.6116	1,319.82	69.1153	1,319.82	72.6484	1,319.82	69.5502	1,319.82	72.1811
1,366.7	81.0573	1,366.7	82.019	1,366.7	79.5632	1,366.7	82.5014	1,366.7	78.2371	1,366.7	82.0778	1,366.7	77.0117	1,366.7	80.7421	1,366.7	76.1841	1,366.7	79.4048	1,366.7	75.9147	1,366.7	77.915	1,366.7	74.6516	1,366.7	75.5137	1,366.7	74.9018	1,366.7	71.4319	1,366.7	74.8596	1,366.7	68.0472	1,366.7	73.1026	1,366.7	68.6773	1,366.7	71.6204	1,366.7	67.3395	1,366.7	69.7829	1,366.7	67.622	1,366.7	66.2811	1,366.7	71.4377	1,366.7	67.3879	1,366.7	72.497	1,366.7	68.7675	1,366.7	68.2906	1,366.7	64.0312	1,366.7	65.5742	1,366.7	68.5142	1,366.7	71.5538	1,366.7	70.6574	1,366.7	71.8075
1,413.57	81.2132	1,413.57	82.3422	1,413.57	80.0643	1,413.57	82.684	1,413.57	78.7734	1,413.57	81.9087	1,413.57	77.5379	1,413.57	80.8461	1,413.57	76.5608	1,413.57	79.7376	1,413.57	76.2878	1,413.57	78.1474	1,413.57	74.6521	1,413.57	75.4016	1,413.57	73.2533	1,413.57	70.3836	1,413.57	74.4104	1,413.57	66.3178	1,413.57	74.2808	1,413.57	62.141	1,413.57	71.8796	1,413.57	62.0915	1,413.57	70.8496	1,413.57	66.3975	1,413.57	69.6739	1,413.57	70.1566	1,413.57	73.2581	1,413.57	73.2556	1,413.57	66.7216	1,413.57	70.8172	1,413.57	68.5741	1,413.57	67.3217	1,413.57	68.9545	1,413.57	70.8255	1,413.57	66.3763	1,413.57	71.437
1,463.38	82.1698	1,463.38	83.3261	1,463.38	80.5929	1,463.38	83.0424	1,463.38	78.0283	1,463.38	81.512	1,463.38	76.9168	1,463.38	79.9316	1,463.38	76.9335	1,463.38	78.0996	1,463.38	74.7529	1,463.38	75.7666	1,463.38	74.2216	1,463.38	72.9836	1,463.38	75.0704	1,463.38	70.2576	1,463.38	74.4435	1,463.38	68.2686	1,463.38	73.1561	1,463.38	67.7233	1,463.38	72.8749	1,463.38	65.4923	1,463.38	70.3406	1,463.38	65.0319	1,463.38	68.4521	1,463.38	66.4269	1,463.38	66.7691	1,463.38	70.8352	1,463.38	61.835	1,463.38	72.2391	1,463.38	65.75	1,463.38	68.899	1,463.38	64.5352	1,463.38	71.9108	1,463.38	69.4899	1,463.38	72.6311
1,516.11	82.4004	1,516.11	82.8635	1,516.11	80.8911	1,516.11	82.5939	1,516.11	78.9665	1,516.11	81.6261	1,516.11	77.8176	1,516.11	80.0039	1,516.11	76.4655	1,516.11	78.3524	1,516.11	75.6955	1,516.11	76.211	1,516.11	75.9542	1,516.11	73.9928	1,516.11	75.1229	1,516.11	72.5454	1,516.11	75.8198	1,516.11	68.9934	1,516.11	76.8473	1,516.11	67.3987	1,516.11	75.2634	1,516.11	64.3102	1,516.11	71.5433	1,516.11	65.8793	1,516.11	69.334	1,516.11	63.5019	1,516.11	67.9098	1,516.11	65.4257	1,516.11	63.1193	1,516.11	68.3062	1,516.11	65.953	1,516.11	66.3442	1,516.11	66.1096	1,516.11	70.2103	1,516.11	67.0258	1,516.11	70.554
1,568.85	82.0722	1,568.85	82.2887	1,568.85	79.923	1,568.85	82.2141	1,568.85	78.1741	1,568.85	81.6125	1,568.85	77.5665	1,568.85	80.1898	1,568.85	76.2034	1,568.85	78.7584	1,568.85	76.4775	1,568.85	75.6134	1,568.85	77.0827	1,568.85	72.4208	1,568.85	75.702	1,568.85	71.9833	1,568.85	74.6216	1,568.85	66.8803	1,568.85	74.6664	1,568.85	65.9824	1,568.85	74.5881	1,568.85	69.715	1,568.85	71.9441	1,568.85	69.2642	1,568.85	66.5636	1,568.85	65.5181	1,568.85	62.3099	1,568.85	64.5412	1,568.85	65.7174	1,568.85	67.9433	1,568.85	68.3669	1,568.85	64.7142	1,568.85	69.9366	1,568.85	66.3585	1,568.85	70.1409	1,568.85	69.4872
1,624.51	81.4857	1,624.51	82.6529	1,624.51	79.4417	1,624.51	82.1477	1,624.51	76.878	1,624.51	80.5146	1,624.51	76.6524	1,624.51	79.2407	1,624.51	77.2572	1,624.51	77.6124	1,624.51	77.2912	1,624.51	75.1216	1,624.51	75.9588	1,624.51	70.9484	1,624.51	73.1728	1,624.51	69.9668	1,624.51	73.1191	1,624.51	71.5998	1,624.51	73.4657	1,624.51	69.7177	1,624.51	73.6146	1,624.51	60.132	1,624.51	72.1983	1,624.51	68.8375	1,624.51	71.7351	1,624.51	68.3509	1,624.51	65.4263	1,624.51	62.8866	1,624.51	70.8027	1,624.51	71.3768	1,624.51	62.6386	1,624.51	67.5948	1,624.51	70.1163	1,624.51	66.6662	1,624.51	65.069	1,624.51	68.5357
1,681.64	81.5235	1,681.64	82.4424	1,681.64	79.9802	1,681.64	82.2055	1,681.64	77.1007	1,681.64	81.2398	1,681.64	76.8506	1,681.64	79.1647	1,681.64	77.2685	1,681.64	75.5847	1,681.64	77.5559	1,681.64	75.9722	1,681.64	75.886	1,681.64	75.249	1,681.64	73.3527	1,681.64	74.2268	1,681.64	72.7742	1,681.64	72.4482	1,681.64	74.5083	1,681.64	69.397	1,681.64	74.5042	1,681.64	67.5004	1,681.64	71.3762	1,681.64	65.9302	1,681.64	72.1592	1,681.64	67.8686	1,681.64	70.7718	1,681.64	64.3962	1,681.64	65.1443	1,681.64	55.6733	1,681.64	64.8529	1,681.64	63.1389	1,681.64	66.0774	1,681.64	66.7485	1,681.64	63.3486	1,681.64	68.314
1,741.7	82.4043	1,741.7	82.3197	1,741.7	80.505	1,741.7	81.6568	1,741.7	78.0888	1,741.7	80.1793	1,741.7	76.3603	1,741.7	78.2578	1,741.7	77.295	1,741.7	75.5156	1,741.7	75.7619	1,741.7	72.1158	1,741.7	75.3939	1,741.7	70.0624	1,741.7	75.9197	1,741.7	70.1347	1,741.7	74.3066	1,741.7	66.272	1,741.7	74.2899	1,741.7	67.8006	1,741.7	71.7075	1,741.7	67.5717	1,741.7	70.6049	1,741.7	65.8584	1,741.7	69.3093	1,741.7	67.0585	1,741.7	72.6399	1,741.7	63.7589	1,741.7	66.3535	1,741.7	65.4097	1,741.7	62.8033	1,741.7	67.2429	1,741.7	67.0212	1,741.7	66.8271	1,741.7	64.0914	1,741.7	68.1384
1,803.22	82.442	1,803.22	82.8593	1,803.22	80.6483	1,803.22	82.1085	1,803.22	78.9058	1,803.22	81.2745	1,803.22	76.6502	1,803.22	79.0445	1,803.22	76.9137	1,803.22	76.292	1,803.22	77.1766	1,803.22	73.6202	1,803.22	76.9498	1,803.22	70.0902	1,803.22	75.8571	1,803.22	63.9501	1,803.22	72.8655	1,803.22	51.5079	1,803.22	72.3196	1,803.22	64.3973	1,803.22	71.4355	1,803.22	57.426	1,803.22	72.1239	1,803.22	63.8974	1,803.22	71.3252	1,803.22	67.0705	1,803.22	69.6628	1,803.22	62.9189	1,803.22	68.505	1,803.22	64.5352	1,803.22	66.5936	1,803.22	63.1395	1,803.22	57.3264	1,803.22	66.3974	1,803.22	68.5263	1,803.22	69.2332
1,866.21	81.403	1,866.21	81.938	1,866.21	79.8793	1,866.21	81.7821	1,866.21	77.6806	1,866.21	80.4366	1,866.21	76.5347	1,866.21	77.1918	1,866.21	77.5025	1,866.21	75.5167	1,866.21	77.6627	1,866.21	73.6458	1,866.21	76.5877	1,866.21	68.464	1,866.21	75.2899	1,866.21	62.6775	1,866.21	73.0923	1,866.21	66.953	1,866.21	72.315	1,866.21	52.0911	1,866.21	73.6234	1,866.21	66.8216	1,866.21	70.3775	1,866.21	61.5909	1,866.21	70.4628	1,866.21	61.9689	1,866.21	70.5329	1,866.21	70.1384	1,866.21	67.7932	1,866.21	68.4611	1,866.21	65.2276	1,866.21	65.3195	1,866.21	63.6973	1,866.21	65.0247	1,866.21	69.7115	1,866.21	67.1556
1,932.13	80.948	1,932.13	80.8116	1,932.13	79.6942	1,932.13	81.1712	1,932.13	76.1226	1,932.13	81.0231	1,932.13	74.5516	1,932.13	77.3952	1,932.13	78.0337	1,932.13	72.3326	1,932.13	78.972	1,932.13	71.3039	1,932.13	77.4785	1,932.13	68.534	1,932.13	76.1809	1,932.13	62.3484	1,932.13	73.8232	1,932.13	67.7501	1,932.13	71.2747	1,932.13	64.5356	1,932.13	72.788	1,932.13	64.3872	1,932.13	72.252	1,932.13	59.0668	1,932.13	69.5003	1,932.13	63.4686	1,932.13	71.5414	1,932.13	67.2268	1,932.13	70.3949	1,932.13	63.812	1,932.13	65.6034	1,932.13	65.6118	1,932.13	63.261	1,932.13	66.83	1,932.13	67.1945	1,932.13	68.1967
1,999.51	81.7581	1,999.51	81.1967	1,999.51	80.2847	1,999.51	81.0237	1,999.51	76.4412	1,999.51	80.1774	1,999.51	75.8619	1,999.51	75.9196	1,999.51	78.1381	1,999.51	71.9484	1,999.51	79.2251	1,999.51	68.2434	1,999.51	78.6217	1,999.51	65.4615	1,999.51	75.9285	1,999.51	58.6564	1,999.51	74.8437	1,999.51	60.0774	1,999.51	69.265	1,999.51	55.5016	1,999.51	69.4227	1,999.51	65.1321	1,999.51	71.2685	1,999.51	66.7467	1,999.51	68.5199	1,999.51	56.2214	1,999.51	69.5225	1,999.51	65.9475	1,999.51	70.1524	1,999.51	66.4613	1,999.51	66.9784	1,999.51	61.3466	1,999.51	63.3225	1,999.51	64.4152	1,999.51	69.5537	1,999.51	69.2576
2,069.82	81.6284	2,069.82	82.0782	2,069.82	80.574	2,069.82	81.072	2,069.82	77.0745	2,069.82	77.4647	2,069.82	76.2236	2,069.82	74.7817	2,069.82	77.5743	2,069.82	70.7418	2,069.82	79.4022	2,069.82	69.1754	2,069.82	79.4477	2,069.82	70.9778	2,069.82	76.2995	2,069.82	67.4828	2,069.82	75.1272	2,069.82	68.6186	2,069.82	72.0316	2,069.82	68.8152	2,069.82	68.2625	2,069.82	54.5392	2,069.82	69.4948	2,069.82	67.932	2,069.82	66.1759	2,069.82	63.6201	2,069.82	66.8666	2,069.82	62.7322	2,069.82	67.6701	2,069.82	65.9891	2,069.82	62.8586	2,069.82	63.0382	2,069.82	65.1635	2,069.82	63.0508	2,069.82	70.104	2,069.82	69.668
2,143.07	80.7095	2,143.07	81.8236	2,143.07	79.3507	2,143.07	79.9917	2,143.07	75.2427	2,143.07	76.3489	2,143.07	75.2601	2,143.07	74.6704	2,143.07	78.6166	2,143.07	71.788	2,143.07	78.9612	2,143.07	72.0426	2,143.07	79.108	2,143.07	71.4805	2,143.07	76.46	2,143.07	64.1597	2,143.07	73.5686	2,143.07	65.6615	2,143.07	72.4725	2,143.07	68.4433	2,143.07	68.1319	2,143.07	65.4792	2,143.07	69.9589	2,143.07	67.2973	2,143.07	67.1954	2,143.07	65.7208	2,143.07	64.996	2,143.07	64.3768	2,143.07	65.0604	2,143.07	67.0572	2,143.07	59.5272	2,143.07	64.2527	2,143.07	62.4494	2,143.07	61.759	2,143.07	70.2832	2,143.07	67.9269
2,219.24	81.5905	2,219.24	81.1645	2,219.24	78.5563	2,219.24	79.3752	2,219.24	72.4855	2,219.24	77.8396	2,219.24	75.4907	2,219.24	72.6297	2,219.24	79.5874	2,219.24	68.9912	2,219.24	79.7944	2,219.24	69.2578	2,219.24	79.2197	2,219.24	70.1729	2,219.24	76.925	2,219.24	71.1261	2,219.24	68.1244	2,219.24	69.4641	2,219.24	70.7259	2,219.24	67.2938	2,219.24	70.5871	2,219.24	67.3755	2,219.24	71.2106	2,219.24	67.9502	2,219.24	69.5249	2,219.24	66.7559	2,219.24	67.909	2,219.24	63.1671	2,219.24	66.4717	2,219.24	68.0419	2,219.24	63.5037	2,219.24	62.8306	2,219.24	56.4099	2,219.24	60.4824	2,219.24	68.3007	2,219.24	67.5853
2,296.88	82.3088	2,296.88	81.67	2,296.88	78.9644	2,296.88	79.5325	2,296.88	70.1571	2,296.88	76.6081	2,296.88	74.143	2,296.88	67.1465	2,296.88	78.6477	2,296.88	61.4388	2,296.88	79.9817	2,296.88	69.322	2,296.88	79.0665	2,296.88	70.9139	2,296.88	77.5311	2,296.88	69.8295	2,296.88	73.8863	2,296.88	70.305	2,296.88	69.7722	2,296.88	68.4364	2,296.88	69.7474	2,296.88	67.5739	2,296.88	68.87	2,296.88	64.4473	2,296.88	69.1135	2,296.88	67.9703	2,296.88	69.0273	2,296.88	62.9663	2,296.88	68.0634	2,296.88	67.6555	2,296.88	63.7655	2,296.88	61.4265	2,296.88	55.6634	2,296.88	45.3428	2,296.88	68.9069	2,296.88	64.1906
2,378.91	81.8922	2,378.91	82.0452	2,378.91	79.163	2,378.91	80.0954	2,378.91	70.9846	2,378.91	71.9717	2,378.91	75.4216	2,378.91	63.3868	2,378.91	78.6036	2,378.91	67.4602	2,378.91	79.6519	2,378.91	69.9345	2,378.91	78.3663	2,378.91	67.6558	2,378.91	77.6917	2,378.91	72.4316	2,378.91	75.2677	2,378.91	71.4492	2,378.91	73.9918	2,378.91	68.492	2,378.91	73.4937	2,378.91	69.3162	2,378.91	67.9132	2,378.91	68.4487	2,378.91	68.4312	2,378.91	67.8247	2,378.91	69.9899	2,378.91	65.424	2,378.91	69.8473	2,378.91	67.5085	2,378.91	62.871	2,378.91	64.015	2,378.91	56.3928	2,378.91	59.0118	2,378.91	69.7917	2,378.91	66.3822
2,462.4	80.8343	2,462.4	81.2502	2,462.4	77.8573	2,462.4	79.5354	2,462.4	67.5373	2,462.4	72.3277	2,462.4	73.7156	2,462.4	56.3532	2,462.4	78.3021	2,462.4	71.8214	2,462.4	80.1057	2,462.4	72.4874	2,462.4	78.248	2,462.4	75.7194	2,462.4	75.6825	2,462.4	73.1606	2,462.4	72.214	2,462.4	68.6048	2,462.4	73.4189	2,462.4	70.9951	2,462.4	73.5081	2,462.4	69.5535	2,462.4	69.3114	2,462.4	69.9923	2,462.4	67.3332	2,462.4	67.6489	2,462.4	70.4475	2,462.4	66.6818	2,462.4	71.6789	2,462.4	68.4458	2,462.4	61.9492	2,462.4	64.4643	2,462.4	55.6004	2,462.4	57.4883	2,462.4	69.6785	2,462.4	69.3224
2,548.83	80.4431	2,548.83	80.9235	2,548.83	77.8826	2,548.83	78.4428	2,548.83	68.6118	2,548.83	73.9595	2,548.83	73.8564	2,548.83	59.2074	2,548.83	78.3823	2,548.83	73.3597	2,548.83	79.5897	2,548.83	74.8415	2,548.83	78.4817	2,548.83	75.6106	2,548.83	73.4218	2,548.83	73.4753	2,548.83	72.2185	2,548.83	73.0856	2,548.83	73.8353	2,548.83	71.0808	2,548.83	72.8935	2,548.83	69.4225	2,548.83	65.1482	2,548.83	68.3481	2,548.83	64.3974	2,548.83	67.6414	2,548.83	69.2468	2,548.83	64.3868	2,548.83	72.7297	2,548.83	68.836	2,548.83	62.1678	2,548.83	62.6849	2,548.83	59.1351	2,548.83	54.8909	2,548.83	70.6965	2,548.83	67.0887
2,639.65	79.8287	2,639.65	80.9492	2,639.65	77.2022	2,639.65	78.6212	2,639.65	69.7333	2,639.65	72.7558	2,639.65	70.165	2,639.65	68.0701	2,639.65	78.986	2,639.65	73.6394	2,639.65	79.8081	2,639.65	76.0315	2,639.65	79.888	2,639.65	74.9224	2,639.65	74.8802	2,639.65	72.6015	2,639.65	71.5603	2,639.65	72.281	2,639.65	69.4513	2,639.65	68.1662	2,639.65	70.6838	2,639.65	69.3665	2,639.65	58.2869	2,639.65	65.9273	2,639.65	61.3689	2,639.65	67.6162	2,639.65	69.0816	2,639.65	65.739	2,639.65	70.0162	2,639.65	67.0844	2,639.65	60.9163	2,639.65	60.2745	2,639.65	53.6052	2,639.65	55.0584	2,639.65	70.0489	2,639.65	66.3724
2,731.93	80.4132	2,731.93	81.2581	2,731.93	75.9338	2,731.93	80.0284	2,731.93	67.6929	2,731.93	70.9407	2,731.93	73.8264	2,731.93	72.0583	2,731.93	79.2943	2,731.93	75.0217	2,731.93	79.7984	2,731.93	76.5186	2,731.93	78.2072	2,731.93	73.4212	2,731.93	75.2238	2,731.93	73.7575	2,731.93	72.0003	2,731.93	71.022	2,731.93	66.8525	2,731.93	69.8935	2,731.93	63.0164	2,731.93	67.79	2,731.93	62.8055	2,731.93	68.9208	2,731.93	62.2524	2,731.93	68.2598	2,731.93	69.5179	2,731.93	64.2787	2,731.93	68.6749	2,731.93	68.4011	2,731.93	55.7913	2,731.93	58.6445	2,731.93	56.9249	2,731.93	61.3273	2,731.93	69.9461	2,731.93	63.7662
2,828.61	80.6134	2,828.61	81.504	2,828.61	76.6988	2,828.61	79.4028	2,828.61	67.132	2,828.61	72.9339	2,828.61	74.0677	2,828.61	74.2966	2,828.61	78.9581	2,828.61	76.1714	2,828.61	80.403	2,828.61	76.3406	2,828.61	78.6007	2,828.61	74.9662	2,828.61	77.1795	2,828.61	73.2696	2,828.61	73.4321	2,828.61	72.6235	2,828.61	63.9958	2,828.61	70.0982	2,828.61	56.7836	2,828.61	69.1699	2,828.61	67.4642	2,828.61	66.7174	2,828.61	66.0434	2,828.61	66.1961	2,828.61	64.7016	2,828.61	64.8988	2,828.61	67.7275	2,828.61	66.8188	2,828.61	59.7638	2,828.61	63.5861	2,828.61	49.8065	2,828.61	63.3819	2,828.61	69.6033	2,828.61	64.5739
2,928.22	79.4068	2,928.22	80.9107	2,928.22	75.2665	2,928.22	78.8269	2,928.22	69.5814	2,928.22	74.5811	2,928.22	74.2718	2,928.22	75.4873	2,928.22	78.8642	2,928.22	77.7478	2,928.22	80.5834	2,928.22	75.7548	2,928.22	78.5824	2,928.22	76.4262	2,928.22	77.4123	2,928.22	73.3682	2,928.22	72.3872	2,928.22	72.2201	2,928.22	63.9884	2,928.22	69.024	2,928.22	68.1047	2,928.22	66.3576	2,928.22	69.3792	2,928.22	67.3626	2,928.22	66.4996	2,928.22	64.9587	2,928.22	64.3493	2,928.22	65.4466	2,928.22	67.3217	2,928.22	65.6862	2,928.22	59.0182	2,928.22	66.5012	2,928.22	52.8003	2,928.22	59.5048	2,928.22	68.6687	2,928.22	63.1614
3,030.76	80.3329	3,030.76	80.8867	3,030.76	76.1033	3,030.76	77.5109	3,030.76	71.3067	3,030.76	73.0315	3,030.76	74.6531	3,030.76	75.8931	3,030.76	79.3074	3,030.76	77.7686	3,030.76	80.0361	3,030.76	77.0433	3,030.76	79.1401	3,030.76	76.2175	3,030.76	77.7357	3,030.76	73.3744	3,030.76	70.8241	3,030.76	70.678	3,030.76	71.3169	3,030.76	70.5813	3,030.76	71.9832	3,030.76	67.954	3,030.76	64.578	3,030.76	68.6385	3,030.76	65.2365	3,030.76	66.0085	3,030.76	66.9814	3,030.76	65.3963	3,030.76	63.7446	3,030.76	63.405	3,030.76	58.5134	3,030.76	66.1076	3,030.76	46.611	3,030.76	62.5041	3,030.76	67.9798	3,030.76	59.6519
3,137.7	81.0483	3,137.7	81.6779	3,137.7	75.0704	3,137.7	78.903	3,137.7	72.0344	3,137.7	74.5082	3,137.7	75.7827	3,137.7	76.845	3,137.7	78.9231	3,137.7	77.748	3,137.7	79.8026	3,137.7	77.7662	3,137.7	79.0159	3,137.7	75.2846	3,137.7	78.583	3,137.7	75.7525	3,137.7	73.694	3,137.7	74.2349	3,137.7	74.683	3,137.7	72.0264	3,137.7	72.4614	3,137.7	69.6293	3,137.7	61.1408	3,137.7	67.8223	3,137.7	62.5666	3,137.7	66.7511	3,137.7	66.7107	3,137.7	66.856	3,137.7	61.7196	3,137.7	61.8237	3,137.7	56.3253	3,137.7	65.3531	3,137.7	60.0291	3,137.7	59.4529	3,137.7	68.0323	3,137.7	60.2152
3,249.02	81.0012	3,249.02	81.3257	3,249.02	75.9484	3,249.02	79.7516	3,249.02	73.1808	3,249.02	75.7242	3,249.02	77.1825	3,249.02	77.533	3,249.02	78.5217	3,249.02	78.677	3,249.02	79.2118	3,249.02	78.2113	3,249.02	78.6037	3,249.02	76.9165	3,249.02	79.3647	3,249.02	75.8441	3,249.02	75.4205	3,249.02	71.4597	3,249.02	75.913	3,249.02	70.2395	3,249.02	70.918	3,249.02	69.326	3,249.02	54.0016	3,249.02	68.5644	3,249.02	56.3833	3,249.02	67.6822	3,249.02	65.2407	3,249.02	65.9137	3,249.02	61.4469	3,249.02	67.4302	3,249.02	58.0363	3,249.02	65.0416	3,249.02	63.9225	3,249.02	59.8003	3,249.02	68.5546	3,249.02	60.7849
3,363.28	80.7319	3,363.28	82.0615	3,363.28	77.2878	3,363.28	78.5634	3,363.28	72.6269	3,363.28	77.365	3,363.28	76.5444	3,363.28	78.2447	3,363.28	78.1113	3,363.28	78.9894	3,363.28	78.7149	3,363.28	78.8127	3,363.28	79.8001	3,363.28	77.893	3,363.28	78.8495	3,363.28	75.1047	3,363.28	76.0096	3,363.28	73.6668	3,363.28	76.3645	3,363.28	72.9851	3,363.28	65.2021	3,363.28	68.834	3,363.28	61.0761	3,363.28	69.1965	3,363.28	57.8949	3,363.28	67.6967	3,363.28	63.3257	3,363.28	63.0206	3,363.28	62.567	3,363.28	69.6477	3,363.28	55.0306	3,363.28	60.9237	3,363.28	66.1415	3,363.28	61.0589	3,363.28	68.7886	3,363.28	61.405
3,481.93	80.8606	3,481.93	81.5095	3,481.93	77.6266	3,481.93	79.5942	3,481.93	75.7774	3,481.93	78.9928	3,481.93	77.2227	3,481.93	78.7652	3,481.93	78.181	3,481.93	80.0029	3,481.93	78.647	3,481.93	80.189	3,481.93	81.1574	3,481.93	77.0667	3,481.93	78.3602	3,481.93	76.618	3,481.93	77.1752	3,481.93	73.6663	3,481.93	74.1531	3,481.93	70.1267	3,481.93	64.6598	3,481.93	68.5005	3,481.93	64.6961	3,481.93	68.1418	3,481.93	64.4025	3,481.93	67.1793	3,481.93	67.3444	3,481.93	61.5307	3,481.93	61.6468	3,481.93	68.8629	3,481.93	62.7725	3,481.93	66.3295	3,481.93	68.6718	3,481.93	51.5123	3,481.93	66.793	3,481.93	62.908
3,604.98	81.5843	3,604.98	81.0762	3,604.98	78.6296	3,604.98	80.5047	3,604.98	79.1882	3,604.98	79.6434	3,604.98	79.0874	3,604.98	80.8595	3,604.98	78.4313	3,604.98	80.4732	3,604.98	78.614	3,604.98	79.2608	3,604.98	81.5789	3,604.98	75.8837	3,604.98	79.189	3,604.98	75.1663	3,604.98	75.105	3,604.98	69.1286	3,604.98	69.8523	3,604.98	70.0667	3,604.98	69.2909	3,604.98	65.1624	3,604.98	58.8536	3,604.98	68.0191	3,604.98	65.4271	3,604.98	64.0754	3,604.98	67.2454	3,604.98	62.9167	3,604.98	53.2354	3,604.98	67.9924	3,604.98	39.5069	3,604.98	68.9726	3,604.98	69.4443	3,604.98	58.7814	3,604.98	65.5855	3,604.98	64.3509
3,732.42	82.301	3,732.42	82.3204	3,732.42	79.03	3,732.42	81.1264	3,732.42	80.8287	3,732.42	80.1822	3,732.42	81.3423	3,732.42	81.6329	3,732.42	78.9049	3,732.42	81.2354	3,732.42	79.4731	3,732.42	78.0024	3,732.42	81.1565	3,732.42	75.6078	3,732.42	78.6322	3,732.42	71.2889	3,732.42	76.2321	3,732.42	72.1767	3,732.42	69.7773	3,732.42	68.7759	3,732.42	70.8867	3,732.42	68.3122	3,732.42	56.3784	3,732.42	66.9106	3,732.42	63.6072	3,732.42	65.0208	3,732.42	67.996	3,732.42	63.3276	3,732.42	61.6345	3,732.42	65.237	3,732.42	62.1242	3,732.42	65.2335	3,732.42	67.808	3,732.42	49.2954	3,732.42	64.7073	3,732.42	63.7547
3,864.26	82.6237	3,864.26	83.2874	3,864.26	79.0332	3,864.26	81.321	3,864.26	80.8519	3,864.26	79.3222	3,864.26	83.1451	3,864.26	82.4023	3,864.26	79.5072	3,864.26	80.43	3,864.26	80.2786	3,864.26	77.274	3,864.26	81.027	3,864.26	75.1769	3,864.26	78.2615	3,864.26	74.7601	3,864.26	73.1373	3,864.26	71.674	3,864.26	71.3954	3,864.26	69.7424	3,864.26	64.8911	3,864.26	67.7543	3,864.26	59.977	3,864.26	67.9822	3,864.26	64.5012	3,864.26	64.6834	3,864.26	64.8945	3,864.26	64.5955	3,864.26	66.1048	3,864.26	66.0194	3,864.26	61.9793	3,864.26	65.9677	3,864.26	66.9041	3,864.26	59.3443	3,864.26	66.5017	3,864.26	66.6298
4,000.49	82.8555	4,000.49	83.132	4,000.49	80.2247	4,000.49	80.0675	4,000.49	81.1313	4,000.49	81.2672	4,000.49	83.44	4,000.49	81.5237	4,000.49	79.0892	4,000.49	80.446	4,000.49	81.1812	4,000.49	76.3196	4,000.49	81.0687	4,000.49	77.5434	4,000.49	76.5978	4,000.49	71.006	4,000.49	73.4429	4,000.49	73.6966	4,000.49	73.2161	4,000.49	69.2349	4,000.49	73.0638	4,000.49	69.6273	4,000.49	69.8748	4,000.49	67.6693	4,000.49	68.4902	4,000.49	68.3389	4,000.49	63.6427	4,000.49	65.7092	4,000.49	65.3668	4,000.49	67.2007	4,000.49	61.1064	4,000.49	64.8411	4,000.49	64.9801	4,000.49	63.2691	4,000.49	65.8963	4,000.49	62.3911
4,141.11	83.3127	4,141.11	83.788	4,141.11	80.8698	4,141.11	81.3997	4,141.11	81.0549	4,141.11	83.278	4,141.11	84.6735	4,141.11	81.5866	4,141.11	79.1858	4,141.11	79.7916	4,141.11	81.7897	4,141.11	78.027	4,141.11	79.6307	4,141.11	75.9251	4,141.11	76.297	4,141.11	77.1262	4,141.11	74.8384	4,141.11	74.7603	4,141.11	74.8783	4,141.11	70.2962	4,141.11	74.4366	4,141.11	68.8084	4,141.11	73.1925	4,141.11	68.1382	4,141.11	64.9254	4,141.11	67.0037	4,141.11	62.7064	4,141.11	65.0188	4,141.11	67.2425	4,141.11	64.5744	4,141.11	64.6109	4,141.11	65.6474	4,141.11	64.2398	4,141.11	55.0756	4,141.11	64.6244	4,141.11	61.6681
4,287.6	83.625	4,287.6	84.4486	4,287.6	81.5099	4,287.6	81.6043	4,287.6	82.0195	4,287.6	82.9481	4,287.6	84.4532	4,287.6	81.2275	4,287.6	80.5524	4,287.6	79.6046	4,287.6	81.0271	4,287.6	78.1673	4,287.6	77.2236	4,287.6	78.0177	4,287.6	77.2548	4,287.6	73.4887	4,287.6	77.9393	4,287.6	71.7111	4,287.6	75.1979	4,287.6	70.7978	4,287.6	73.3164	4,287.6	68.8488	4,287.6	70.7389	4,287.6	67.15	4,287.6	63.8066	4,287.6	68.4805	4,287.6	69.1529	4,287.6	67.9904	4,287.6	66.8522	4,287.6	65.016	4,287.6	62.0073	4,287.6	66.1323	4,287.6	64.9174	4,287.6	43.037	4,287.6	63.8193	4,287.6	62.5842
4,438.48	84.232	4,438.48	83.7356	4,438.48	81.9578	4,438.48	81.7712	4,438.48	82.6742	4,438.48	82.534	4,438.48	84.5915	4,438.48	81.5148	4,438.48	80.2134	4,438.48	79.9706	4,438.48	78.9679	4,438.48	79.2868	4,438.48	77.8223	4,438.48	76.285	4,438.48	81.0122	4,438.48	75.9139	4,438.48	78.4049	4,438.48	73.2968	4,438.48	74.9682	4,438.48	68.7385	4,438.48	65.7772	4,438.48	69.274	4,438.48	63.2389	4,438.48	68.6734	4,438.48	68.1828	4,438.48	66.2079	4,438.48	69.8306	4,438.48	68.5008	4,438.48	60.3076	4,438.48	67.7412	4,438.48	64.7834	4,438.48	62.7805	4,438.48	65.0482	4,438.48	59.8234	4,438.48	61.6901	4,438.48	60.3652
4,595.21	85.0868	4,595.21	83.9874	4,595.21	82.2823	4,595.21	83.4226	4,595.21	83.3487	4,595.21	84.1444	4,595.21	84.0993	4,595.21	80.3182	4,595.21	80.5425	4,595.21	80.5766	4,595.21	75.1074	4,595.21	78.1562	4,595.21	80.2936	4,595.21	77.0706	4,595.21	82.1463	4,595.21	72.0817	4,595.21	78.1436	4,595.21	71.3332	4,595.21	69.5008	4,595.21	70.3324	4,595.21	61.7629	4,595.21	67.7274	4,595.21	70.5962	4,595.21	66.8898	4,595.21	63.8332	4,595.21	67.6961	4,595.21	67.7936	4,595.21	68.9971	4,595.21	58.1256	4,595.21	68.2579	4,595.21	65.0276	4,595.21	67.9287	4,595.21	66.4873	4,595.21	59.5368	4,595.21	59.347	4,595.21	58.9278
4,756.35	85.5963	4,756.35	84.7008	4,756.35	81.5586	4,756.35	83.6774	4,756.35	83.5615	4,756.35	81.6174	4,756.35	84.1875	4,756.35	81.8258	4,756.35	80.8972	4,756.35	80.7815	4,756.35	70.0584	4,756.35	77.7665	4,756.35	82.4763	4,756.35	74.7368	4,756.35	81.5959	4,756.35	74.6247	4,756.35	77.3557	4,756.35	71.4197	4,756.35	68.5943	4,756.35	68.636	4,756.35	67.6243	4,756.35	67.1141	4,756.35	67.4157	4,756.35	68.1382	4,756.35	57.0973	4,756.35	66.6409	4,756.35	58.283	4,756.35	68.0564	4,756.35	63.4026	4,756.35	69.1847	4,756.35	64.9575	4,756.35	68.1046	4,756.35	66.1591	4,756.35	57.1513	4,756.35	57.2002	4,756.35	58.1816
4,924.8	84.7959	4,924.8	84.1833	4,924.8	83.0006	4,924.8	83.2042	4,924.8	83.4202	4,924.8	83.1762	4,924.8	83.9736	4,924.8	81.9351	4,924.8	81.1749	4,924.8	80.2766	4,924.8	72.5215	4,924.8	76.6437	4,924.8	82.9014	4,924.8	76.449	4,924.8	79.5561	4,924.8	73.1317	4,924.8	72.8187	4,924.8	72.2331	4,924.8	70.5378	4,924.8	70.0822	4,924.8	68.0624	4,924.8	69.1144	4,924.8	65.5929	4,924.8	68.091	4,924.8	64.4736	4,924.8	67.7792	4,924.8	52.4266	4,924.8	68.0833	4,924.8	62.368	4,924.8	68.1496	4,924.8	63.3851	4,924.8	70.2937	4,924.8	64.4894	4,924.8	65.9088	4,924.8	61.3099	4,924.8	58.0299
5,097.66	85.9821	5,097.66	84.7034	5,097.66	83.4863	5,097.66	83.6874	5,097.66	83.6851	5,097.66	82.314	5,097.66	84.7274	5,097.66	81.8711	5,097.66	79.6608	5,097.66	79.3415	5,097.66	77.2323	5,097.66	78.3466	5,097.66	81.9411	5,097.66	76.123	5,097.66	78.0055	5,097.66	74.3916	5,097.66	73.8303	5,097.66	72.7739	5,097.66	71.6781	5,097.66	68.4883	5,097.66	62.8394	5,097.66	68.7368	5,097.66	66.7637	5,097.66	67.2114	5,097.66	63.2197	5,097.66	68.6612	5,097.66	60.8314	5,097.66	69.3593	5,097.66	54.2313	5,097.66	68.7066	5,097.66	66.2197	5,097.66	68.2575	5,097.66	63.6932	5,097.66	65.0477	5,097.66	63.9767	5,097.66	54.0383
5,277.83	84.8739	5,277.83	84.7429	5,277.83	83.3921	5,277.83	83.414	5,277.83	83.6618	5,277.83	83.7584	5,277.83	84.6798	5,277.83	81.7865	5,277.83	80.4781	5,277.83	80.0475	5,277.83	77.1788	5,277.83	77.6006	5,277.83	78.8918	5,277.83	77.4758	5,277.83	75.937	5,277.83	73.4837	5,277.83	75.3065	5,277.83	72.0116	5,277.83	73.3703	5,277.83	69.4544	5,277.83	66.5326	5,277.83	68.5669	5,277.83	61.7742	5,277.83	68.6288	5,277.83	54.7124	5,277.83	67.3765	5,277.83	63.4621	5,277.83	67.8759	5,277.83	48.8493	5,277.83	68.3978	5,277.83	66.1117	5,277.83	68.3245	5,277.83	60.1821	5,277.83	64.8694	5,277.83	64.2595	5,277.83	53.0713
5,463.87	84.884	5,463.87	84.5594	5,463.87	83.724	5,463.87	82.3684	5,463.87	83.2856	5,463.87	84.1058	5,463.87	83.7059	5,463.87	79.5301	5,463.87	81.9554	5,463.87	80.0396	5,463.87	77.5459	5,463.87	77.6538	5,463.87	76.4362	5,463.87	77.0826	5,463.87	76.7167	5,463.87	74.5446	5,463.87	73.7059	5,463.87	71.6797	5,463.87	70.4943	5,463.87	68.6349	5,463.87	67.2504	5,463.87	67.199	5,463.87	65.385	5,463.87	66.094	5,463.87	53.3471	5,463.87	67.9821	5,463.87	56.5511	5,463.87	69.3107	5,463.87	46.7156	5,463.87	67.0211	5,463.87	66.8736	5,463.87	67.2069	5,463.87	59.8036	5,463.87	63.5968	5,463.87	59.6548	5,463.87	55.2557
5,657.23	84.7504	5,657.23	83.6885	5,657.23	84.0619	5,657.23	82.2901	5,657.23	82.41	5,657.23	83.5815	5,657.23	82.1462	5,657.23	80.3455	5,657.23	82.4633	5,657.23	78.8459	5,657.23	76.3348	5,657.23	78.6655	5,657.23	75.5361	5,657.23	76.6064	5,657.23	78.0213	5,657.23	74.3547	5,657.23	74.8847	5,657.23	71.6649	5,657.23	68.7496	5,657.23	69.2174	5,657.23	63.8117	5,657.23	67.9066	5,657.23	65.2734	5,657.23	67.3356	5,657.23	52.1221	5,657.23	67.8446	5,657.23	56.0579	5,657.23	70.6584	5,657.23	61.1466	5,657.23	68.0336	5,657.23	65.7681	5,657.23	64.6933	5,657.23	56.6222	5,657.23	63.1486	5,657.23	63.7832	5,657.23	55.8696
5,856.45	84.508	5,856.45	83.4593	5,856.45	83.1293	5,856.45	82.5622	5,856.45	82.2043	5,856.45	82.3198	5,856.45	81.7242	5,856.45	80.0366	5,856.45	82.733	5,856.45	79.5911	5,856.45	75.0619	5,856.45	78.2498	5,856.45	74.7902	5,856.45	75.6415	5,856.45	77.4799	5,856.45	74.1834	5,856.45	76.5429	5,856.45	70.3411	5,856.45	71.4366	5,856.45	69.1069	5,856.45	67.1201	5,856.45	65.3338	5,856.45	64.3592	5,856.45	66.1282	5,856.45	49.3343	5,856.45	66.2523	5,856.45	59.8091	5,856.45	68.5887	5,856.45	59.7794	5,856.45	68.7049	5,856.45	61.6133	5,856.45	64.4966	5,856.45	61.3312	5,856.45	62.3552	5,856.45	59.7342	5,856.45	59.1245
6,062.99	83.6055	6,062.99	82.0105	6,062.99	82.0266	6,062.99	82.3757	6,062.99	83.8459	6,062.99	81.3037	6,062.99	82.3886	6,062.99	79.8088	6,062.99	82.0551	6,062.99	79.6893	6,062.99	75.6306	6,062.99	77.9569	6,062.99	74.4814	6,062.99	76.3942	6,062.99	78.7436	6,062.99	74.0115	6,062.99	76.3494	6,062.99	71.3428	6,062.99	72.2705	6,062.99	67.1038	6,062.99	67.3421	6,062.99	66.7241	6,062.99	63.4415	6,062.99	64.7426	6,062.99	59.9958	6,062.99	64.4938	6,062.99	52.2118	6,062.99	67.1918	6,062.99	56.7671	6,062.99	65.5071	6,062.99	55.8779	6,062.99	63.0154	6,062.99	61.8983	6,062.99	66.4485	6,062.99	62.1367	6,062.99	60.5231
6,276.86	83.3526	6,276.86	81.6141	6,276.86	82.0539	6,276.86	82.0976	6,276.86	83.1822	6,276.86	80.2528	6,276.86	81.4613	6,276.86	79.5059	6,276.86	80.3536	6,276.86	79.5539	6,276.86	77.3854	6,276.86	77.3815	6,276.86	72.2201	6,276.86	75.3639	6,276.86	78.5337	6,276.86	71.6515	6,276.86	75.6043	6,276.86	69.1046	6,276.86	71.0704	6,276.86	66.3441	6,276.86	68.0637	6,276.86	65.5264	6,276.86	63.0775	6,276.86	65.8462	6,276.86	63.9401	6,276.86	64.8582	6,276.86	52.7474	6,276.86	66.7236	6,276.86	52.6182	6,276.86	63.3752	6,276.86	52.9619	6,276.86	63.1642	6,276.86	63.5979	6,276.86	65.3866	6,276.86	59.2341	6,276.86	61.3583
6,498.05	82.487	6,498.05	80.9938	6,498.05	80.5156	6,498.05	80.6019	6,498.05	80.441	6,498.05	80.4168	6,498.05	79.9577	6,498.05	80.074	6,498.05	80.3541	6,498.05	78.7098	6,498.05	77.038	6,498.05	77.1263	6,498.05	72.2056	6,498.05	73.8189	6,498.05	78.2895	6,498.05	72.1541	6,498.05	69.5581	6,498.05	69.1669	6,498.05	65.3916	6,498.05	67.7061	6,498.05	67.101	6,498.05	64.5201	6,498.05	58.7428	6,498.05	64.9871	6,498.05	62.5137	6,498.05	63.6947	6,498.05	50.3011	6,498.05	66.9539	6,498.05	52.4138	6,498.05	62.3185	6,498.05	56.4087	6,498.05	64.3342	6,498.05	63.137	6,498.05	66.9192	6,498.05	55.6855	6,498.05	63.4843
6,726.56	81.7423	6,726.56	80.2799	6,726.56	79.8924	6,726.56	79.359	6,726.56	81.1335	6,726.56	80.0969	6,726.56	77.0827	6,726.56	79.0034	6,726.56	80.2452	6,726.56	79.0852	6,726.56	77.5593	6,726.56	76.8431	6,726.56	74.0583	6,726.56	75.2017	6,726.56	75.5589	6,726.56	73.7764	6,726.56	72.0719	6,726.56	69.6938	6,726.56	67.7352	6,726.56	68.5837	6,726.56	65.7304	6,726.56	65.8288	6,726.56	63.6956	6,726.56	66.3885	6,726.56	59.0272	6,726.56	64.6084	6,726.56	58.4148	6,726.56	65.9151	6,726.56	57.1323	6,726.56	62.5333	6,726.56	60.1307	6,726.56	65.8417	6,726.56	61.3394	6,726.56	67.14	6,726.56	56.1581	6,726.56	63.448
6,963.87	80.9979	6,963.87	79.3147	6,963.87	79.8867	6,963.87	78.5374	6,963.87	80.9127	6,963.87	80.5383	6,963.87	75.7866	6,963.87	78.9513	6,963.87	80.5227	6,963.87	78.663	6,963.87	78.1638	6,963.87	77.5483	6,963.87	73.4806	6,963.87	75.4627	6,963.87	67.6718	6,963.87	73.4213	6,963.87	75.5513	6,963.87	69.4897	6,963.87	71.1012	6,963.87	67.4843	6,963.87	63.1376	6,963.87	64.6722	6,963.87	63.9792	6,963.87	65.4876	6,963.87	57.7656	6,963.87	63.8814	6,963.87	57.7829	6,963.87	64.4924	6,963.87	57.9863	6,963.87	60.6751	6,963.87	61.4377	6,963.87	65.8236	6,963.87	52.7599	6,963.87	66.0901	6,963.87	55.3704	6,963.87	61.1626
7,209.96	81.4101	7,209.96	79.613	7,209.96	79.0232	7,209.96	79.5848	7,209.96	79.4876	7,209.96	80.5846	7,209.96	78.4141	7,209.96	79.0216	7,209.96	79.5367	7,209.96	78.1963	7,209.96	78.6084	7,209.96	78.0335	7,209.96	70.2221	7,209.96	74.936	7,209.96	73.1453	7,209.96	72.6487	7,209.96	74.892	7,209.96	70.1948	7,209.96	70.0605	7,209.96	66.6774	7,209.96	63.5716	7,209.96	65.1896	7,209.96	59.4805	7,209.96	64.1499	7,209.96	56.3852	7,209.96	63.9275	7,209.96	47.6492	7,209.96	61.2899	7,209.96	60.2949	7,209.96	60.9027	7,209.96	59.3971	7,209.96	65.1424	7,209.96	56.4557	7,209.96	65.1618	7,209.96	53.3447	7,209.96	61.3819
7,464.84	82.5496	7,464.84	81.0855	7,464.84	80.9474	7,464.84	81.0393	7,464.84	79.039	7,464.84	80.4579	7,464.84	80.0983	7,464.84	79.26	7,464.84	77.7726	7,464.84	78.1156	7,464.84	79.0094	7,464.84	78.0061	7,464.84	65.799	7,464.84	75.5194	7,464.84	76.4092	7,464.84	72.8396	7,464.84	71.4147	7,464.84	71.2147	7,464.84	67.9754	7,464.84	66.6606	7,464.84	60.8729	7,464.84	64.5933	7,464.84	59.1689	7,464.84	63.6928	7,464.84	43.7659	7,464.84	64.4488	7,464.84	47.5895	7,464.84	59.6155	7,464.84	58.6602	7,464.84	61.2563	7,464.84	54.2217	7,464.84	63.702	7,464.84	54.7692	7,464.84	63.8344	7,464.84	46.8595	7,464.84	60.0942
7,727.05	82.864	7,727.05	82.164	7,727.05	82.1771	7,727.05	81.9152	7,727.05	80.4987	7,727.05	80.9397	7,727.05	79.4976	7,727.05	79.2902	7,727.05	78.862	7,727.05	78.4531	7,727.05	78.793	7,727.05	77.7533	7,727.05	73.0952	7,727.05	75.8694	7,727.05	76.1282	7,727.05	72.5234	7,727.05	66.7576	7,727.05	69.456	7,727.05	67.1922	7,727.05	65.4736	7,727.05	59.7758	7,727.05	62.6334	7,727.05	61.0499	7,727.05	63.7897	7,727.05	56.6617	7,727.05	61.4717	7,727.05	47.6994	7,727.05	58.2145	7,727.05	51.6291	7,727.05	58.2502	7,727.05	57.9357	7,727.05	62.8659	7,727.05	54.1274	7,727.05	62.5436	7,727.05	46.4504	7,727.05	58.6407
7,999.51	83.7763	7,999.51	82.8722	7,999.51	82.0805	7,999.51	82.756	7,999.51	81.3039	7,999.51	81.483	7,999.51	79.5609	7,999.51	79.1555	7,999.51	79.3085	7,999.51	78.9112	7,999.51	77.5321	7,999.51	77.6697	7,999.51	75.0594	7,999.51	74.9688	7,999.51	71.316	7,999.51	71.4491	7,999.51	67.8829	7,999.51	67.1823	7,999.51	66.3478	7,999.51	64.3131	7,999.51	55.0838	7,999.51	61.6811	7,999.51	60.6451	7,999.51	63.3064	7,999.51	56.531	7,999.51	59.6935	7,999.51	50.5905	7,999.51	56.2494	7,999.51	54.9416	7,999.51	57.2078	7,999.51	56.7745	7,999.51	60.9942	7,999.51	53.737	7,999.51	59.7114	7,999.51	51.178	7,999.51	59.6302
8,282.23	84.0358	8,282.23	83.9107	8,282.23	83.1288	8,282.23	83.4865	8,282.23	81.3823	8,282.23	81.3948	8,282.23	80.8631	8,282.23	79.0477	8,282.23	78.307	8,282.23	78.7365	8,282.23	76.0982	8,282.23	77.5449	8,282.23	74.0384	8,282.23	73.7575	8,282.23	66.0631	8,282.23	71.0198	8,282.23	70.6544	8,282.23	66.3463	8,282.23	63.887	8,282.23	62.8811	8,282.23	60.2029	8,282.23	61.2505	8,282.23	60.5046	8,282.23	61.8336	8,282.23	56.9919	8,282.23	60.7573	8,282.23	51.8066	8,282.23	57.5404	8,282.23	52.3605	8,282.23	54.2568	8,282.23	54.3404	8,282.23	60.8557	8,282.23	51.8327	8,282.23	58.7267	8,282.23	50.4689	8,282.23	57.9889
8,573.73	83.8234	8,573.73	84.183	8,573.73	83.6017	8,573.73	83.486	8,573.73	82.1607	8,573.73	81.1983	8,573.73	81.5223	8,573.73	79.6134	8,573.73	77.4536	8,573.73	78.264	8,573.73	77.4312	8,573.73	77.0108	8,573.73	71.6145	8,573.73	73.2418	8,573.73	71.0241	8,573.73	69.8861	8,573.73	70.3904	8,573.73	65.8843	8,573.73	64.3044	8,573.73	61.8917	8,573.73	60.5617	8,573.73	60.1741	8,573.73	61.5588	8,573.73	58.7003	8,573.73	57.1453	8,573.73	59.1559	8,573.73	48.7372	8,573.73	57.9796	8,573.73	53.9469	8,573.73	51.7913	8,573.73	55.741	8,573.73	58.4036	8,573.73	37.1856	8,573.73	58.8795	8,573.73	50.1586	8,573.73	56.875
8,876.95	83.7373	8,876.95	84.5605	8,876.95	83.9502	8,876.95	83.1907	8,876.95	82.057	8,876.95	81.5273	8,876.95	79.7966	8,876.95	79.2484	8,876.95	76.3676	8,876.95	77.9918	8,876.95	78.1835	8,876.95	76.5809	8,876.95	70.6678	8,876.95	71.9601	8,876.95	71.8517	8,876.95	68.3461	8,876.95	66.9699	8,876.95	64.0797	8,876.95	62.2385	8,876.95	61.0189	8,876.95	54.5271	8,876.95	58.6077	8,876.95	57.4287	8,876.95	59.0335	8,876.95	49.837	8,876.95	55.1598	8,876.95	49.4661	8,876.95	57.1259	8,876.95	52.1513	8,876.95	52.3117	8,876.95	52.8855	8,876.95	57.4286	8,876.95	49.3471	8,876.95	57.0406	8,876.95	46.0035	8,876.95	54.329
9,188.96	83.578	9,188.96	84.6114	9,188.96	83.6275	9,188.96	83.2415	9,188.96	82.601	9,188.96	81.6658	9,188.96	80.126	9,188.96	79.0675	9,188.96	77.9091	9,188.96	77.6653	9,188.96	78.059	9,188.96	75.6499	9,188.96	70.9382	9,188.96	70.5948	9,188.96	68.7521	9,188.96	67.696	9,188.96	67.2618	9,188.96	63.4479	9,188.96	59.9439	9,188.96	59.9252	9,188.96	60.0534	9,188.96	58.5772	9,188.96	60.0649	9,188.96	58.393	9,188.96	43.573	9,188.96	56.5235	9,188.96	30.3021	9,188.96	58.3972	9,188.96	52.2525	9,188.96	50.7385	9,188.96	47.5037	9,188.96	54.8147	9,188.96	53.721	9,188.96	55.7483	9,188.96	41.0285	9,188.96	53.5621
9,514.16	83.6136	9,514.16	83.9634	9,514.16	83.0328	9,514.16	83.3999	9,514.16	82.3841	9,514.16	81.2427	9,514.16	80.9648	9,514.16	79.2815	9,514.16	77.7489	9,514.16	76.9638	9,514.16	75.7718	9,514.16	74.7762	9,514.16	71.6033	9,514.16	70.755	9,514.16	67.9338	9,514.16	67.5889	9,514.16	67.0562	9,514.16	63.8631	9,514.16	57.8867	9,514.16	60.3277	9,514.16	55.5135	9,514.16	59.5679	9,514.16	55.4459	9,514.16	57.9293	9,514.16	43.9457	9,514.16	54.9873	9,514.16	41.5398	9,514.16	59.7301	9,514.16	47.8686	9,514.16	52.1621	9,514.16	48.2793	9,514.16	54.7327	9,514.16	50.0249	9,514.16	55.6103	9,514.16	41.2715	9,514.16	50.9153
9,849.61	83.4247	9,849.61	83.7735	9,849.61	82.8511	9,849.61	83.1338	9,849.61	81.4378	9,849.61	81.1661	9,849.61	80.7667	9,849.61	79.1422	9,849.61	77.2166	9,849.61	75.8558	9,849.61	72.9878	9,849.61	74.4757	9,849.61	71.8995	9,849.61	70.1524	9,849.61	65.7276	9,849.61	67.0986	9,849.61	66.2319	9,849.61	62.206	9,849.61	59.7314	9,849.61	58.1844	9,849.61	53.3994	9,849.61	57.4971	9,849.61	49.7525	9,849.61	57.1684	9,849.61	48.8451	9,849.61	55.7103	9,849.61	38.5234	9,849.61	58.011	9,849.61	50.1464	9,849.61	46.7361	9,849.61	46.2628	9,849.61	51.0299	9,849.61	38.6729	9,849.61	54.3829	9,849.61	45.8916	9,849.61	50.5739
10,196.8	83.5047	10,196.8	83.913	10,196.8	83.0829	10,196.8	82.9222	10,196.8	81.6969	10,196.8	81.2016	10,196.8	79.8466	10,196.8	78.2761	10,196.8	76.3103	10,196.8	75.8168	10,196.8	73.4145	10,196.8	73.595	10,196.8	69.5276	10,196.8	69.3457	10,196.8	65.8613	10,196.8	65.1222	10,196.8	63.1679	10,196.8	60.4341	10,196.8	59.0992	10,196.8	57.3237	10,196.8	56.4061	10,196.8	53.8195	10,196.8	49.6085	10,196.8	55.8869	10,196.8	47.673	10,196.8	55.1282	10,196.8	42.9528	10,196.8	56.5102	10,196.8	52.4545	10,196.8	43.3217	10,196.8	34.3423	10,196.8	44.0521	10,196.8	39.7485	10,196.8	53.4303	10,196.8	47.5039	10,196.8	51.5207
10,555.7	83.4401	10,555.7	83.7716	10,555.7	82.9538	10,555.7	82.7161	10,555.7	81.508	10,555.7	80.8693	10,555.7	79.7699	10,555.7	77.7716	10,555.7	76.6972	10,555.7	74.4358	10,555.7	72.6488	10,555.7	72.8248	10,555.7	66.259	10,555.7	66.5929	10,555.7	64.3604	10,555.7	63.7808	10,555.7	59.4745	10,555.7	58.8194	10,555.7	52.5939	10,555.7	54.2004	10,555.7	52.1165	10,555.7	50.5528	10,555.7	45.599	10,555.7	52.5415	10,555.7	42.1757	10,555.7	54.3314	10,555.7	37.5994	10,555.7	55.3237	10,555.7	50.95	10,555.7	42.0998	10,555.7	32.6087	10,555.7	43.2532	10,555.7	48.4564	10,555.7	50.2177	10,555.7	43.2439	10,555.7	50.8985
10,927.7	83.2587	10,927.7	83.4642	10,927.7	82.7401	10,927.7	82.268	10,927.7	81.1328	10,927.7	80.534	10,927.7	79.5199	10,927.7	76.8117	10,927.7	75.1746	10,927.7	73.7281	10,927.7	71.3397	10,927.7	71.6884	10,927.7	64.0212	10,927.7	65.4279	10,927.7	60.2862	10,927.7	61.7934	10,927.7	52.9627	10,927.7	56.7949	10,927.7	42.1854	10,927.7	52.8971	10,927.7	46.6106	10,927.7	48.5565	10,927.7	35.9751	10,927.7	50.7246	10,927.7	47.1706	10,927.7	54.319	10,927.7	36.6938	10,927.7	54.2923	10,927.7	46.5585	10,927.7	45.3023	10,927.7	30.3599	10,927.7	35.4189	10,927.7	45.5022	10,927.7	46.666	10,927.7	44.0495	10,927.7	48.2449
11,313	82.9635	11,313	83.0165	11,313	82.388	11,313	81.7803	11,313	80.5925	11,313	80.3505	11,313	78.9434	11,313	76.1302	11,313	74.678	11,313	73.7246	11,313	69.4426	11,313	71.3445	11,313	62.0889	11,313	65.1108	11,313	56.1185	11,313	61.6038	11,313	57.3489	11,313	56.5661	11,313	55.9057	11,313	54.6965	11,313	51.4967	11,313	49.7383	11,313	37.7369	11,313	52.2518	11,313	48.4559	11,313	53.9738	11,313	36.1802	11,313	53.7089	11,313	46.3587	11,313	48.2317	11,313	27.9062	11,313	37.9785	11,313	42.1698	11,313	43.2956	11,313	46.2172	11,313	41.4641
11,712.9	82.2193	11,712.9	82.4921	11,712.9	82.2782	11,712.9	81.4776	11,712.9	80.9392	11,712.9	80.2712	11,712.9	78.8212	11,712.9	76.2394	11,712.9	75.0569	11,712.9	73.2826	11,712.9	69.3962	11,712.9	72.1225	11,712.9	64.0877	11,712.9	64.9541	11,712.9	59.6726	11,712.9	60.9975	11,712.9	59.8627	11,712.9	58.9973	11,712.9	51.4354	11,712.9	55.6088	11,712.9	50.4924	11,712.9	49.0935	11,712.9	46.6416	11,712.9	53.4064	11,712.9	51.5499	11,712.9	56.9522	11,712.9	32.9377	11,712.9	53.628	11,712.9	50.7984	11,712.9	52.5735	11,712.9	27.3374	11,712.9	46.6264	11,712.9	40.0432	11,712.9	44.5492	11,712.9	47.9503	11,712.9	42.7898
12,126	81.4579	12,126	81.4719	12,126	81.4354	12,126	81.4387	12,126	80.5969	12,126	79.7892	12,126	79.3178	12,126	76.4187	12,126	73.8392	12,126	73.1395	12,126	70.9284	12,126	71.6801	12,126	64.7843	12,126	65.7617	12,126	61.457	12,126	63.0511	12,126	58.5695	12,126	61.0375	12,126	53.5463	12,126	57.1906	12,126	48.9307	12,126	51.2731	12,126	49.7552	12,126	54.1493	12,126	51.972	12,126	57.718	12,126	33.8179	12,126	54.9424	12,126	46.2365	12,126	53.2888	12,126	29.9002	12,126	47.7743	12,126	38.6072	12,126	47.0233	12,126	43.4572	12,126	46.6156
12,553.7	80.8851	12,553.7	80.7632	12,553.7	80.7679	12,553.7	81.4361	12,553.7	80.2725	12,553.7	79.1605	12,553.7	78.3507	12,553.7	76.1859	12,553.7	73.9377	12,553.7	72.5401	12,553.7	71.3811	12,553.7	70.693	12,553.7	65.8589	12,553.7	66.2572	12,553.7	60.5874	12,553.7	64.1366	12,553.7	59.443	12,553.7	60.203	12,553.7	54.5237	12,553.7	56.4511	12,553.7	52.9155	12,553.7	50.765	12,553.7	53.9726	12,553.7	54.3799	12,553.7	55.9288	12,553.7	55.5935	12,553.7	39.233	12,553.7	52.9983	12,553.7	43.9202	12,553.7	51.6346	12,553.7	35.4375	12,553.7	43.5221	12,553.7	32.384	12,553.7	48.2236	12,553.7	39.9227	12,553.7	44.1264
12,996.1	80.8148	12,996.1	80.8665	12,996.1	80.6378	12,996.1	81.3536	12,996.1	79.7213	12,996.1	78.9416	12,996.1	78.174	12,996.1	75.7155	12,996.1	74.0371	12,996.1	71.4081	12,996.1	70.4433	12,996.1	70.0626	12,996.1	67.0236	12,996.1	65.9393	12,996.1	61.7868	12,996.1	62.2545	12,996.1	59.719	12,996.1	58.3504	12,996.1	53.108	12,996.1	53.0763	12,996.1	52.6734	12,996.1	49.7194	12,996.1	53.7359	12,996.1	52.0447	12,996.1	54.0309	12,996.1	54.2118	12,996.1	41.5733	12,996.1	50.5466	12,996.1	48.1608	12,996.1	47.8091	12,996.1	35.8063	12,996.1	38.9669	12,996.1	43.3714	12,996.1	45.3758	12,996.1	43.2141	12,996.1	43.9216
13,454.6	80.7928	13,454.6	81.1951	13,454.6	81.0694	13,454.6	81.2356	13,454.6	79.9126	13,454.6	78.9937	13,454.6	78.3339	13,454.6	75.3534	13,454.6	73.3304	13,454.6	70.2527	13,454.6	70.6729	13,454.6	70.0018	13,454.6	66.6881	13,454.6	64.4313	13,454.6	61.756	13,454.6	59.4757	13,454.6	58.5829	13,454.6	53.6262	13,454.6	49.7193	13,454.6	50.5242	13,454.6	52.7002	13,454.6	45.5906	13,454.6	55.742	13,454.6	49.9617	13,454.6	53.6973	13,454.6	51.7932	13,454.6	43.0537	13,454.6	48.7408	13,454.6	46.1359	13,454.6	45.3144	13,454.6	32.5062	13,454.6	35.4718	13,454.6	45.715	13,454.6	41.0564	13,454.6	48.1044	13,454.6	43.9243
13,929.2	80.7552	13,929.2	81.5679	13,929.2	81.5309	13,929.2	81.1692	13,929.2	80.0808	13,929.2	79.0305	13,929.2	78.0714	13,929.2	74.9529	13,929.2	73.5956	13,929.2	70.2234	13,929.2	70.1891	13,929.2	69.8489	13,929.2	64.3476	13,929.2	62.2879	13,929.2	63.1096	13,929.2	57.4065	13,929.2	54.8062	13,929.2	55.117	13,929.2	51.7037	13,929.2	51.6739	13,929.2	48.2063	13,929.2	46.3636	13,929.2	54.3526	13,929.2	51.8529	13,929.2	54.6292	13,929.2	48.0729	13,929.2	33.4398	13,929.2	48.1728	13,929.2	47.4293	13,929.2	45.6053	13,929.2	29.0711	13,929.2	36.749	13,929.2	47.2591	13,929.2	34.8467	13,929.2	45.8968	13,929.2	43.087
14,419.9	81.2776	14,419.9	81.777	14,419.9	81.6679	14,419.9	80.7486	14,419.9	80.3892	14,419.9	79.178	14,419.9	78.3649	14,419.9	74.4173	14,419.9	72.9317	14,419.9	70.5877	14,419.9	68.7841	14,419.9	68.5294	14,419.9	65.3325	14,419.9	62.1423	14,419.9	60.4981	14,419.9	56.8839	14,419.9	57.5884	14,419.9	55.188	14,419.9	52.7524	14,419.9	51.012	14,419.9	49.303	14,419.9	47.1699	14,419.9	55.0895	14,419.9	51.739	14,419.9	53.9998	14,419.9	46.0597	14,419.9	39.0165	14,419.9	48.9093	14,419.9	45.5352	14,419.9	43.9809	14,419.9	26.6261	14,419.9	40.9819	14,419.9	45.5945	14,419.9	37.1764	14,419.9	45.31	14,419.9	42.8451
14,928.2	82.0105	14,928.2	82.1033	14,928.2	82.1448	14,928.2	80.6375	14,928.2	79.8501	14,928.2	78.6524	14,928.2	77.5063	14,928.2	74.499	14,928.2	72.1609	14,928.2	69.8905	14,928.2	66.9835	14,928.2	66.2701	14,928.2	63.7966	14,928.2	61.5859	14,928.2	59.2782	14,928.2	56.2922	14,928.2	54.5659	14,928.2	52.9659	14,928.2	48.6362	14,928.2	49.0065	14,928.2	47.7474	14,928.2	43.3278	14,928.2	53.5136	14,928.2	49.8492	14,928.2	53.9395	14,928.2	44.6618	14,928.2	32.6969	14,928.2	46.5842	14,928.2	45.3839	14,928.2	38.5911	14,928.2	29.79	14,928.2	41.7748	14,928.2	45.9966	14,928.2	42.9244	14,928.2	48.7442	14,928.2	42.184
15,455.6	82.9697	15,455.6	82.6748	15,455.6	82.5108	15,455.6	80.8914	15,455.6	79.5467	15,455.6	77.8319	15,455.6	76.2593	15,455.6	74.1189	15,455.6	69.6336	15,455.6	67.5211	15,455.6	64.1526	15,455.6	63.5261	15,455.6	60.657	15,455.6	59.3475	15,455.6	56.7649	15,455.6	52.6965	15,455.6	48.4941	15,455.6	48.6602	15,455.6	46.3824	15,455.6	41.427	15,455.6	45.0583	15,455.6	39.2556	15,455.6	50.3955	15,455.6	45.4015	15,455.6	52.7965	15,455.6	42.1953	15,455.6	37.2601	15,455.6	40.113	15,455.6	45.7904	15,455.6	31.4736	15,455.6	41.0983	15,455.6	44.3569	15,455.6	43.8785	15,455.6	45.1781	15,455.6	48.7721	15,455.6	39.6676
16,000.5	83.4911	16,000.5	83.0613	16,000.5	82.7777	16,000.5	81.1463	16,000.5	79.479	16,000.5	77.3237	16,000.5	75.3389	16,000.5	72.5737	16,000.5	68.6562	16,000.5	64.5456	16,000.5	61.3887	16,000.5	57.7438	16,000.5	55.3028	16,000.5	49.9483	16,000.5	51.1282	16,000.5	30.8786	16,000.5	42.324	16,000.5	40.1429	16,000.5	34.9481	16,000.5	26.7633	16,000.5	41.0368	16,000.5	37.2764	16,000.5	51.707	16,000.5	39.405	16,000.5	54.5947	16,000.5	34.185	16,000.5	39.8501	16,000.5	33.1119	16,000.5	42.5425	16,000.5	32.4351	16,000.5	40.3984	16,000.5	45.2721	16,000.5	43.4544	16,000.5	44.637	16,000.5	47.1116	16,000.5	32.539
16,564.5	83.6852	16,564.5	83.2481	16,564.5	82.7746	16,564.5	81.157	16,564.5	79.1462	16,564.5	76.6815	16,564.5	74.7458	16,564.5	71.1337	16,564.5	66.8984	16,564.5	60.8536	16,564.5	59.0753	16,564.5	55.0497	16,564.5	50.9242	16,564.5	49.0442	16,564.5	48.8839	16,564.5	49.4913	16,564.5	37.8905	16,564.5	49.5021	16,564.5	35.7684	16,564.5	39.6759	16,564.5	41.6665	16,564.5	45.0539	16,564.5	53.5044	16,564.5	42.8545	16,564.5	56.8372	16,564.5	39.4167	16,564.5	37.5486	16,564.5	43.0701	16,564.5	34.8636	16,564.5	39.2796	16,564.5	34.8213	16,564.5	43.3279	16,564.5	42.8692	16,564.5	44.0533	16,564.5	45.6976	16,564.5	28.7235
17,148.9	83.825	17,148.9	83.281	17,148.9	82.4219	17,148.9	81.0521	17,148.9	78.5488	17,148.9	75.883	17,148.9	73.783	17,148.9	69.3721	17,148.9	65.1658	17,148.9	61.3374	17,148.9	58.5995	17,148.9	58.6671	17,148.9	54.8345	17,148.9	56.8191	17,148.9	53.2588	17,148.9	54.4624	17,148.9	45.2615	17,148.9	52.2432	17,148.9	40.0372	17,148.9	43.0651	17,148.9	40.4769	17,148.9	43.9782	17,148.9	53.3687	17,148.9	43.5563	17,148.9	56.7758	17,148.9	42.7481	17,148.9	36.4086	17,148.9	44.7467	17,148.9	38.9257	17,148.9	41.3338	17,148.9	32.5673	17,148.9	41.4706	17,148.9	38.0224	17,148.9	41.1503	17,148.9	41.5463	17,148.9	35.2588
17,752.4	83.7276	17,752.4	83.3418	17,752.4	81.999	17,752.4	80.7254	17,752.4	77.6871	17,752.4	75.1682	17,752.4	72.3384	17,752.4	67.1574	17,752.4	62.6994	17,752.4	61.7753	17,752.4	60.0305	17,752.4	58.7573	17,752.4	57.0638	17,752.4	58.1509	17,752.4	54.1222	17,752.4	52.7116	17,752.4	46.2475	17,752.4	50.3783	17,752.4	40.1659	17,752.4	42.0444	17,752.4	36.7105	17,752.4	45.3163	17,752.4	51.6678	17,752.4	40.8783	17,752.4	56.0932	17,752.4	40.2036	17,752.4	31.6882	17,752.4	43.1825	17,752.4	38.0656	17,752.4	39.8162	17,752.4	29.8137	17,752.4	35.7104	17,752.4	33.139	17,752.4	39.0103	17,752.4	36.8319	17,752.4	33.9419
18,379.4	83.1372	18,379.4	82.9538	18,379.4	81.2189	18,379.4	80.1348	18,379.4	76.2698	18,379.4	74.1304	18,379.4	69.9709	18,379.4	66.582	18,379.4	60.8746	18,379.4	61.3333	18,379.4	58.2466	18,379.4	59.3659	18,379.4	56.3936	18,379.4	56.9624	18,379.4	51.7462	18,379.4	51.5363	18,379.4	44.6845	18,379.4	48.1429	18,379.4	37.896	18,379.4	40.3202	18,379.4	37.6364	18,379.4	41.1271	18,379.4	52.0307	18,379.4	37.3771	18,379.4	55.2621	18,379.4	40.1236	18,379.4	35.1428	18,379.4	41.396	18,379.4	37.3851	18,379.4	39.0764	18,379.4	26.6148	18,379.4	31.4413	18,379.4	31.8309	18,379.4	39.8606	18,379.4	34.8705	18,379.4	30.0136
19,026.9	82.3668	19,026.9	82.1212	19,026.9	80.2774	19,026.9	79.2343	19,026.9	74.9631	19,026.9	72.5367	19,026.9	67.306	19,026.9	66.1617	19,026.9	57.2422	19,026.9	62.5049	19,026.9	56.5971	19,026.9	59.7068	19,026.9	53.6476	19,026.9	55.7162	19,026.9	49.7104	19,026.9	49.4519	19,026.9	41.5188	19,026.9	45.5276	19,026.9	36.3764	19,026.9	40.3298	19,026.9	38.3746	19,026.9	39.5189	19,026.9	53.5059	19,026.9	34.3878	19,026.9	55.2904	19,026.9	38.1106	19,026.9	35.7252	19,026.9	40.765	19,026.9	33.646	19,026.9	38.2632	19,026.9	27.976	19,026.9	34.3774	19,026.9	33.5681	19,026.9	36.581	19,026.9	34.5415	19,026.9	27.7337
19,697.8	81.6827	19,697.8	81.2559	19,697.8	79.4156	19,697.8	78.2769	19,697.8	73.912	19,697.8	71.3029	19,697.8	65.0647	19,697.8	65.2813	19,697.8	58.8449	19,697.8	63.2373	19,697.8	57.5588	19,697.8	60.3742	19,697.8	50.5451	19,697.8	55.6819	19,697.8	44.17	19,697.8	48.77	19,697.8	39.8726	19,697.8	44.657	19,697.8	32.437	19,697.8	41.6483	19,697.8	40.2697	19,697.8	34.3088	19,697.8	54.0847	19,697.8	35.6977	19,697.8	55.0349	19,697.8	38.8626	19,697.8	31.3744	19,697.8	39.7557	19,697.8	25.7516	19,697.8	38.8813	19,697.8	29.1423	19,697.8	32.7756	19,697.8	28.6657	19,697.8	35.315	19,697.8	31.7551	19,697.8	29.8343
19,999.5	81.3871	19,999.5	80.879	19,999.5	79.035	19,999.5	77.6965	19,999.5	73.4787	19,999.5	70.8196	19,999.5	64.0502	19,999.5	65.9027	19,999.5	62.2549	19,999.5	63.5132	19,999.5	56.4565	19,999.5	60.0663	19,999.5	54.4372	19,999.5	56.2664	19,999.5	36.9188	19,999.5	48.7136	19,999.5	49.9828	19,999.5	46.0537	19,999.5	44.3263	19,999.5	46.3617	19,999.5	40.5084	19,999.5	45.357	19,999.5	54.983	19,999.5	44.9654	19,999.5	54.8039	19,999.5	37.3677	19,999.5	47.9518	19,999.5	41.3066	19,999.5	46.8346	19,999.5	41.4191	19,999.5	47.3202	19,999.5	41.5938	19,999.5	40.0923	19,999.5	42.0606	19,999.5	40.5399	19,999.5	35.3866
