"SPL Horizontal"
"On-Axis"		"10°"		"-10°"		"20°"		"-20°"		"30°"		"-30°"		"40°"		"-40°"		"50°"		"-50°"		"60°"		"-60°"		"70°"		"-70°"		"80°"		"-80°"		"90°"		"-90°"		"100°"		"-100°"		"110°"		"-110°"		"120°"		"-120°"		"130°"		"-130°"		"140°"		"-140°"		"150°"		"-150°"		"160°"		"-160°"		"170°"		"-170°"		"180°"
"Frequency / Hz"	"Sound Pressure Level / dB (re 20 µPa/V)  [2.83  V @ 1. m]"	"Frequency / Hz"	"Sound Pressure Level / dB (re 20 µPa/V)  [2.83  V @ 1. m]"	"Frequency / Hz"	"Sound Pressure Level / dB (re 20 µPa/V)  [2.83  V @ 1. m]"	"Frequency / Hz"	"Sound Pressure Level / dB (re 20 µPa/V)  [2.83  V @ 1. m]"	"Frequency / Hz"	"Sound Pressure Level / dB (re 20 µPa/V)  [2.83  V @ 1. m]"	"Frequency / Hz"	"Sound Pressure Level / dB (re 20 µPa/V)  [2.83  V @ 1. m]"	"Frequency / Hz"	"Sound Pressure Level / dB (re 20 µPa/V)  [2.83  V @ 1. m]"	"Frequency / Hz"	"Sound Pressure Level / dB (re 20 µPa/V)  [2.83  V @ 1. m]"	"Frequency / Hz"	"Sound Pressure Level / dB (re 20 µPa/V)  [2.83  V @ 1. m]"	"Frequency / Hz"	"Sound Pressure Level / dB (re 20 µPa/V)  [2.83  V @ 1. m]"	"Frequency / Hz"	"Sound Pressure Level / dB (re 20 µPa/V)  [2.83  V @ 1. m]"	"Frequency / Hz"	"Sound Pressure Level / dB (re 20 µPa/V)  [2.83  V @ 1. m]"	"Frequency / Hz"	"Sound Pressure Level / dB (re 20 µPa/V)  [2.83  V @ 1. m]"	"Frequency / Hz"	"Sound Pressure Level / dB (re 20 µPa/V)  [2.83  V @ 1. m]"	"Frequency / Hz"	"Sound Pressure Level / dB (re 20 µPa/V)  [2.83  V @ 1. m]"	"Frequency / Hz"	"Sound Pressure Level / dB (re 20 µPa/V)  [2.83  V @ 1. m]"	"Frequency / Hz"	"Sound Pressure Level / dB (re 20 µPa/V)  [2.83  V @ 1. m]"	"Frequency / Hz"	"Sound Pressure Level / dB (re 20 µPa/V)  [2.83  V @ 1. m]"	"Frequency / Hz"	"Sound Pressure Level / dB (re 20 µPa/V)  [2.83  V @ 1. m]"	"Frequency / Hz"	"Sound Pressure Level / dB (re 20 µPa/V)  [2.83  V @ 1. m]"	"Frequency / Hz"	"Sound Pressure Level / dB (re 20 µPa/V)  [2.83  V @ 1. m]"	"Frequency / Hz"	"Sound Pressure Level / dB (re 20 µPa/V)  [2.83  V @ 1. m]"	"Frequency / Hz"	"Sound Pressure Level / dB (re 20 µPa/V)  [2.83  V @ 1. m]"	"Frequency / Hz"	"Sound Pressure Level / dB (re 20 µPa/V)  [2.83  V @ 1. m]"	"Frequency / Hz"	"Sound Pressure Level / dB (re 20 µPa/V)  [2.83  V @ 1. m]"	"Frequency / Hz"	"Sound Pressure Level / dB (re 20 µPa/V)  [2.83  V @ 1. m]"	"Frequency / Hz"	"Sound Pressure Level / dB (re 20 µPa/V)  [2.83  V @ 1. m]"	"Frequency / Hz"	"Sound Pressure Level / dB (re 20 µPa/V)  [2.83  V @ 1. m]"	"Frequency / Hz"	"Sound Pressure Level / dB (re 20 µPa/V)  [2.83  V @ 1. m]"	"Frequency / Hz"	"Sound Pressure Level / dB (re 20 µPa/V)  [2.83  V @ 1. m]"	"Frequency / Hz"	"Sound Pressure Level / dB (re 20 µPa/V)  [2.83  V @ 1. m]"	"Frequency / Hz"	"Sound Pressure Level / dB (re 20 µPa/V)  [2.83  V @ 1. m]"	"Frequency / Hz"	"Sound Pressure Level / dB (re 20 µPa/V)  [2.83  V @ 1. m]"	"Frequency / Hz"	"Sound Pressure Level / dB (re 20 µPa/V)  [2.83  V @ 1. m]"	"Frequency / Hz"	"Sound Pressure Level / dB (re 20 µPa/V)  [2.83  V @ 1. m]"	"Frequency / Hz"	"Sound Pressure Level / dB (re 20 µPa/V)  [2.83  V @ 1. m]"
20.5078	58.4281	20.5078	58.3942	20.5078	58.4458	20.5078	58.3397	20.5078	58.4518	20.5078	58.2616	20.5078	58.4497	20.5078	58.1585	20.5078	58.4413	20.5078	58.0314	20.5078	58.4269	20.5078	57.8831	20.5078	58.4045	20.5078	57.7177	20.5078	58.3709	20.5078	57.5401	20.5078	58.3216	20.5078	57.3561	20.5078	58.2517	20.5078	57.1724	20.5078	58.1566	20.5078	56.9975	20.5078	58.0329	20.5078	56.8405	20.5078	57.8788	20.5078	56.7106	20.5078	57.6951	20.5078	56.6152	20.5078	57.4871	20.5078	56.5609	20.5078	57.2658	20.5078	56.5536	20.5078	57.0478	20.5078	56.5988	20.5078	56.8531	20.5078	56.6997
21.9727	60.4232	21.9727	60.5122	21.9727	60.3168	21.9727	60.5821	21.9727	60.195	21.9727	60.631	21.9727	60.0603	21.9727	60.6568	21.9727	59.9156	21.9727	60.6576	21.9727	59.7643	21.9727	60.6315	21.9727	59.6104	21.9727	60.5775	21.9727	59.4575	21.9727	60.4951	21.9727	59.3089	21.9727	60.3854	21.9727	59.1677	21.9727	60.251	21.9727	59.0369	21.9727	60.096	21.9727	58.9206	21.9727	59.9262	21.9727	58.824	21.9727	59.7483	21.9727	58.7541	21.9727	59.5691	21.9727	58.7176	21.9727	59.3948	21.9727	58.7196	21.9727	59.2303	21.9727	58.7611	21.9727	59.0797	21.9727	58.839	21.9727	58.9474
23.4375	61.9568	23.4375	62.0109	23.4375	61.8867	23.4375	62.0473	23.4375	61.8029	23.4375	62.0641	23.4375	61.7074	23.4375	62.0601	23.4375	61.6023	23.4375	62.0348	23.4375	61.4901	23.4375	61.9881	23.4375	61.3733	23.4375	61.9206	23.4375	61.2552	23.4375	61.8335	23.4375	61.139	23.4375	61.7285	23.4375	61.0278	23.4375	61.6085	23.4375	60.9246	23.4375	61.4774	23.4375	60.8319	23.4375	61.3405	23.4375	60.7522	23.4375	61.2037	23.4375	60.6882	23.4375	61.0726	23.4375	60.6428	23.4375	60.9523	23.4375	60.6187	23.4375	60.8464	23.4375	60.6181	23.4375	60.7577	23.4375	60.6416	23.4375	60.6887
24.9023	62.8636	24.9023	62.8819	24.9023	62.8312	24.9023	62.8849	24.9023	62.7861	24.9023	62.8717	24.9023	62.7298	24.9023	62.8419	24.9023	62.6637	24.9023	62.7952	24.9023	62.5891	24.9023	62.7319	24.9023	62.5076	24.9023	62.6529	24.9023	62.4207	24.9023	62.5594	24.9023	62.33	24.9023	62.4535	24.9023	62.2372	24.9023	62.3381	24.9023	62.1444	24.9023	62.2177	24.9023	62.0535	24.9023	62.0976	24.9023	61.9669	24.9023	61.9841	24.9023	61.8871	24.9023	61.8834	24.9023	61.8167	24.9023	61.8004	24.9023	61.7585	24.9023	61.7388	24.9023	61.7153	24.9023	61.7	24.9023	61.6898	24.9023	61.684
26.3672	63.44	26.3672	63.4098	26.3672	63.4577	26.3672	63.3672	26.3672	63.4633	26.3672	63.3128	26.3672	63.4572	26.3672	63.2474	26.3672	63.4398	26.3672	63.1727	26.3672	63.4116	26.3672	63.0906	26.3672	63.3729	26.3672	63.0036	26.3672	63.3244	26.3672	62.9143	26.3672	63.2663	26.3672	62.8254	26.3672	63.1996	26.3672	62.74	26.3672	63.1253	26.3672	62.6612	26.3672	63.0452	26.3672	62.5927	26.3672	62.9613	26.3672	62.5379	26.3672	62.8759	26.3672	62.4997	26.3672	62.792	26.3672	62.4799	26.3672	62.7123	26.3672	62.4788	26.3672	62.6402	26.3672	62.4958	26.3672	62.5784	26.3672	62.5295
27.832	64.052	27.832	64.0251	27.832	64.0715	27.832	63.9909	27.832	64.0838	27.832	63.9497	27.832	64.0889	27.832	63.9021	27.832	64.0869	27.832	63.849	27.832	64.0778	27.832	63.7916	27.832	64.0617	27.832	63.7313	27.832	64.0383	27.832	63.6696	27.832	64.0077	27.832	63.6083	27.832	63.9699	27.832	63.5492	27.832	63.9251	27.832	63.4949	27.832	63.8737	27.832	63.4483	27.832	63.8167	27.832	63.4126	27.832	63.7551	27.832	63.3907	27.832	63.6909	27.832	63.3846	27.832	63.6264	27.832	63.3946	27.832	63.5641	27.832	63.4197	27.832	63.5071	27.832	63.458
29.2969	65.2533	29.2969	65.2912	29.2969	65.2032	29.2969	65.316	29.2969	65.142	29.2969	65.3277	29.2969	65.0714	29.2969	65.3264	29.2969	64.9935	29.2969	65.3128	29.2969	64.9107	29.2969	65.2877	29.2969	64.8258	29.2969	65.2523	29.2969	64.7417	29.2969	65.2076	29.2969	64.6614	29.2969	65.1548	29.2969	64.5874	29.2969	65.0951	29.2969	64.5222	29.2969	65.0294	29.2969	64.4679	29.2969	64.9591	29.2969	64.4265	29.2969	64.8854	29.2969	64.3995	29.2969	64.8093	29.2969	64.3885	29.2969	64.732	29.2969	64.3948	29.2969	64.6554	29.2969	64.4188	29.2969	64.582	29.2969	64.4598	29.2969	64.5154
30.7617	65.9341	30.7617	65.9189	30.7617	65.9365	30.7617	65.8912	30.7617	65.9264	30.7617	65.8511	30.7617	65.9043	30.7617	65.7997	30.7617	65.8707	30.7617	65.7379	30.7617	65.8267	30.7617	65.6673	30.7617	65.773	30.7617	65.5899	30.7617	65.7108	30.7617	65.5078	30.7617	65.6411	30.7617	65.4237	30.7617	65.565	30.7617	65.34	30.7617	65.4838	30.7617	65.2596	30.7617	65.3993	30.7617	65.185	30.7617	65.3139	30.7617	65.1188	30.7617	65.2306	30.7617	65.063	30.7617	65.1534	30.7617	65.0193	30.7617	65.0862	30.7617	64.9893	30.7617	65.0326	30.7617	64.9744	30.7617	64.9955	30.7617	64.9761
32.2266	66.4753	32.2266	66.4606	32.2266	66.4786	32.2266	66.4345	32.2266	66.4706	32.2266	66.3975	32.2266	66.4518	32.2266	66.3502	32.2266	66.4228	32.2266	66.2938	32.2266	66.3843	32.2266	66.2296	32.2266	66.3372	32.2266	66.1595	32.2266	66.2828	32.2266	66.0854	32.2266	66.2224	32.2266	66.0096	32.2266	66.1573	32.2266	65.9347	32.2266	66.0891	32.2266	65.8632	32.2266	66.0193	32.2266	65.798	32.2266	65.9496	32.2266	65.7415	32.2266	65.8818	32.2266	65.6958	32.2266	65.818	32.2266	65.6628	32.2266	65.7604	32.2266	65.6436	32.2266	65.7116	32.2266	65.6391	32.2266	65.674	32.2266	65.6494
33.6914	67.1114	33.6914	67.1028	33.6914	67.1102	33.6914	67.0845	33.6914	67.0992	33.6914	67.0568	33.6914	67.0789	33.6914	67.0205	33.6914	67.0499	33.6914	66.9766	33.6914	67.0132	33.6914	66.9263	33.6914	66.9699	33.6914	66.871	33.6914	66.9215	33.6914	66.8125	33.6914	66.8699	33.6914	66.7527	33.6914	66.817	33.6914	66.6936	33.6914	66.7648	33.6914	66.6375	33.6914	66.7149	33.6914	66.5867	33.6914	66.6684	33.6914	66.5435	33.6914	66.6259	33.6914	66.5097	33.6914	66.5873	33.6914	66.4865	33.6914	66.5529	33.6914	66.4743	33.6914	66.5231	33.6914	66.4731	33.6914	66.4989	33.6914	66.4817
35.1562	67.8118	35.1562	67.8125	35.1562	67.8009	35.1562	67.8029	35.1562	67.7802	35.1562	67.783	35.1562	67.7505	35.1562	67.7535	35.1562	67.7127	35.1562	67.7152	35.1562	67.6682	35.1562	67.6692	35.1562	67.6185	35.1562	67.6168	35.1562	67.5653	35.1562	67.5598	35.1562	67.5105	35.1562	67.4996	35.1562	67.456	35.1562	67.438	35.1562	67.4035	35.1562	67.3767	35.1562	67.3542	35.1562	67.3177	35.1562	67.3088	35.1562	67.2633	35.1562	67.2674	35.1562	67.2161	35.1562	67.2299	35.1562	67.1785	35.1562	67.1969	35.1562	67.1526	35.1562	67.1695	35.1562	67.1394	35.1562	67.1493	35.1562	67.1387
36.6211	68.4443	36.6211	68.4469	36.6211	68.4334	36.6211	68.4412	36.6211	68.4143	36.6211	68.4275	36.6211	68.3877	36.6211	68.4064	36.6211	68.3545	36.6211	68.3789	36.6211	68.3159	36.6211	68.3461	36.6211	68.2735	36.6211	68.3093	36.6211	68.2292	36.6211	68.2698	36.6211	68.1852	36.6211	68.2292	36.6211	68.1437	36.6211	68.1886	36.6211	68.107	36.6211	68.1493	36.6211	68.0763	36.6211	68.1124	36.6211	68.0523	36.6211	68.0793	36.6211	68.0342	36.6211	68.0511	36.6211	68.021	36.6211	68.0287	36.6211	68.0112	36.6211	68.0127	36.6211	68.0041	36.6211	68.0031	36.6211	67.9998	36.6211	67.9991
38.0859	68.9116	38.0859	68.9144	38.0859	68.8931	38.0859	68.9018	38.0859	68.8589	38.0859	68.8747	38.0859	68.8094	38.0859	68.8338	38.0859	68.7452	38.0859	68.7802	38.0859	68.6679	38.0859	68.7151	38.0859	68.5794	38.0859	68.6401	38.0859	68.4823	38.0859	68.5565	38.0859	68.3799	38.0859	68.4663	38.0859	68.2759	38.0859	68.3716	38.0859	68.1744	38.0859	68.2746	38.0859	68.0793	38.0859	68.1783	38.0859	67.9944	38.0859	68.086	38.0859	67.9223	38.0859	68.0012	38.0859	67.8647	38.0859	67.9274	38.0859	67.8227	38.0859	67.8675	38.0859	67.7971	38.0859	67.8237	38.0859	67.7884	38.0859	67.7972
39.5508	69.2207	39.5508	69.1936	39.5508	69.2353	39.5508	69.1543	39.5508	69.2369	39.5508	69.1037	39.5508	69.2254	39.5508	69.0425	39.5508	69.2008	39.5508	68.9718	39.5508	69.1633	39.5508	68.8926	39.5508	69.1133	39.5508	68.8064	39.5508	69.0515	39.5508	68.7147	39.5508	68.9787	39.5508	68.6195	39.5508	68.8957	39.5508	68.5231	39.5508	68.8041	39.5508	68.4285	39.5508	68.7057	39.5508	68.3391	39.5508	68.6031	39.5508	68.2586	39.5508	68.4996	39.5508	68.1912	39.5508	68.3992	39.5508	68.1409	39.5508	68.3066	39.5508	68.1113	39.5508	68.2267	39.5508	68.1049	39.5508	68.1641	39.5508	68.1227
41.0156	69.9454	41.0156	69.9361	41.0156	69.9423	41.0156	69.9149	41.0156	69.9261	41.0156	69.8828	41.0156	69.8965	41.0156	69.8404	41.0156	69.8533	41.0156	69.7884	41.0156	69.7969	41.0156	69.7276	41.0156	69.7278	41.0156	69.6584	41.0156	69.6472	41.0156	69.5811	41.0156	69.5572	41.0156	69.4965	41.0156	69.4603	41.0156	69.4053	41.0156	69.3598	41.0156	69.3091	41.0156	69.2593	41.0156	69.2109	41.0156	69.1626	41.0156	69.115	41.0156	69.0733	41.0156	69.0267	41.0156	68.9948	41.0156	68.9518	41.0156	68.9304	41.0156	68.8949	41.0156	68.8827	41.0156	68.8591	41.0156	68.8538	41.0156	68.8456
42.4805	70.3226	42.4805	70.2987	42.4805	70.3408	42.4805	70.2696	42.4805	70.3527	42.4805	70.2363	42.4805	70.3583	42.4805	70.1999	42.4805	70.3579	42.4805	70.1619	42.4805	70.3518	42.4805	70.1239	42.4805	70.3408	42.4805	70.0878	42.4805	70.326	42.4805	70.0554	42.4805	70.3086	42.4805	70.0289	42.4805	70.2899	42.4805	70.0099	42.4805	70.271	42.4805	69.9996	42.4805	70.2526	42.4805	69.9982	42.4805	70.2348	42.4805	70.0053	42.4805	70.2173	42.4805	70.0193	42.4805	70.1992	42.4805	70.0385	42.4805	70.1798	42.4805	70.0613	42.4805	70.1587	42.4805	70.086	42.4805	70.1357	42.4805	70.1111
43.9453	70.4854	43.9453	70.4751	43.9453	70.489	43.9453	70.4585	43.9453	70.4863	43.9453	70.4361	43.9453	70.4776	43.9453	70.4087	43.9453	70.464	43.9453	70.3777	43.9453	70.4465	43.9453	70.3446	43.9453	70.4265	43.9453	70.311	43.9453	70.4054	43.9453	70.2788	43.9453	70.3847	43.9453	70.2499	43.9453	70.3657	43.9453	70.226	43.9453	70.3493	43.9453	70.2083	43.9453	70.3358	43.9453	70.1974	43.9453	70.3248	43.9453	70.1935	43.9453	70.3153	43.9453	70.196	43.9453	70.3059	43.9453	70.2042	43.9453	70.2954	43.9453	70.2171	43.9453	70.2827	43.9453	70.2332	43.9453	70.2675	43.9453	70.2506
45.4102	71.091	45.4102	71.0858	45.4102	71.0874	45.4102	71.0723	45.4102	71.075	45.4102	71.0513	45.4102	71.0542	45.4102	71.0238	45.4102	71.0258	45.4102	70.9911	45.4102	70.991	45.4102	70.9545	45.4102	70.9514	45.4102	70.9156	45.4102	70.9089	45.4102	70.8761	45.4102	70.8657	45.4102	70.8374	45.4102	70.8238	45.4102	70.801	45.4102	70.7852	45.4102	70.7676	45.4102	70.7512	45.4102	70.7377	45.4102	70.7224	45.4102	70.7117	45.4102	70.699	45.4102	70.6895	45.4102	70.6805	45.4102	70.6716	45.4102	70.6663	45.4102	70.6584	45.4102	70.6561	45.4102	70.6504	45.4102	70.6498	45.4102	70.6477
46.875	71.5921	46.875	71.5762	46.875	71.5954	46.875	71.5482	46.875	71.5857	46.875	71.5092	46.875	71.563	46.875	71.46	46.875	71.5278	46.875	71.4019	46.875	71.4807	46.875	71.3363	46.875	71.4232	46.875	71.2649	46.875	71.3569	46.875	71.1896	46.875	71.284	46.875	71.1126	46.875	71.2067	46.875	71.0361	46.875	71.1277	46.875	70.9624	46.875	71.0492	46.875	70.8939	46.875	70.9735	46.875	70.8325	46.875	70.9029	46.875	70.7804	46.875	70.8393	46.875	70.7391	46.875	70.785	46.875	70.7104	46.875	70.7418	46.875	70.6958	46.875	70.7117	46.875	70.6962
48.3398	72.0073	48.3398	71.9863	48.3398	72.0201	48.3398	71.9579	48.3398	72.0244	48.3398	71.9228	48.3398	72.0199	48.3398	71.8817	48.3398	72.0066	48.3398	71.8356	48.3398	71.9847	48.3398	71.7854	48.3398	71.9548	48.3398	71.7321	48.3398	71.9176	48.3398	71.6768	48.3398	71.8738	48.3398	71.6209	48.3398	71.8245	48.3398	71.5657	48.3398	71.7704	48.3398	71.5128	48.3398	71.7125	48.3398	71.4639	48.3398	71.6519	48.3398	71.4209	48.3398	71.5904	48.3398	71.3859	48.3398	71.5303	48.3398	71.3608	48.3398	71.4745	48.3398	71.3474	48.3398	71.4258	48.3398	71.3471	48.3398	71.3871	48.3398	71.3605
51.2695	72.1794	51.2695	72.1913	51.2695	72.1697	51.2695	72.2056	51.2695	72.1626	51.2695	72.2226	51.2695	72.159	51.2695	72.2431	51.2695	72.1602	51.2695	72.2679	51.2695	72.168	51.2695	72.2978	51.2695	72.1842	51.2695	72.333	51.2695	72.2106	51.2695	72.3734	51.2695	72.2487	51.2695	72.4186	51.2695	72.299	51.2695	72.4675	51.2695	72.3609	51.2695	72.5185	51.2695	72.4319	51.2695	72.5702	51.2695	72.5081	51.2695	72.6208	51.2695	72.5842	51.2695	72.6685	51.2695	72.6542	51.2695	72.7114	51.2695	72.7125	51.2695	72.7469	51.2695	72.7547	51.2695	72.7721	51.2695	72.7784	51.2695	72.7836
52.7344	73.0463	52.7344	73.1047	52.7344	72.9801	52.7344	73.1544	52.7344	72.9075	52.7344	73.1956	52.7344	72.8311	52.7344	73.2289	52.7344	72.7543	52.7344	73.2553	52.7344	72.6814	52.7344	73.2761	52.7344	72.617	52.7344	73.2925	52.7344	72.5664	52.7344	73.3058	52.7344	72.5343	52.7344	73.3165	52.7344	72.5247	52.7344	73.3251	52.7344	72.5399	52.7344	73.3312	52.7344	72.58	52.7344	73.3336	52.7344	72.6428	52.7344	73.3305	52.7344	72.7234	52.7344	73.3199	52.7344	72.8152	52.7344	73.2994	52.7344	72.9111	52.7344	73.2672	52.7344	73.0042	52.7344	73.2217	52.7344	73.0891	52.7344	73.1622
54.1992	73.8802	54.1992	73.91	54.1992	73.8248	54.1992	73.9146	54.1992	73.7444	54.1992	73.8959	54.1992	73.6408	54.1992	73.8565	54.1992	73.5168	54.1992	73.8006	54.1992	73.3765	54.1992	73.7334	54.1992	73.2251	54.1992	73.6606	54.1992	73.0695	54.1992	73.5881	54.1992	72.9179	54.1992	73.521	54.1992	72.7798	54.1992	73.4627	54.1992	72.6656	54.1992	73.414	54.1992	72.5852	54.1992	73.3731	54.1992	72.546	54.1992	73.3352	54.1992	72.5508	54.1992	73.2941	54.1992	72.597	54.1992	73.2432	54.1992	72.6765	54.1992	73.1777	54.1992	72.7778	54.1992	73.0952	54.1992	72.8884	54.1992	72.997
55.6641	74.82	55.6641	74.8012	55.6641	74.8029	55.6641	74.746	55.6641	74.7509	55.6641	74.6549	55.6641	74.6658	55.6641	74.5293	55.6641	74.5497	55.6641	74.372	55.6641	74.4051	55.6641	74.187	55.6641	74.2352	55.6641	73.9798	55.6641	74.0431	55.6641	73.7572	55.6641	73.8324	55.6641	73.527	55.6641	73.6069	55.6641	73.2973	55.6641	73.3716	55.6641	73.0758	55.6641	73.1328	55.6641	72.8688	55.6641	72.8987	55.6641	72.6812	55.6641	72.6797	55.6641	72.5164	55.6641	72.4874	55.6641	72.3773	55.6641	72.3325	55.6641	72.2673	55.6641	72.2236	55.6641	72.1914	55.6641	72.1646	55.6641	72.1552
58.5938	74.5611	58.5938	74.4873	58.5938	74.6254	58.5938	74.4062	58.5938	74.6782	58.5938	74.3194	58.5938	74.7174	58.5938	74.2288	58.5938	74.7411	58.5938	74.1354	58.5938	74.7477	58.5938	74.0402	58.5938	74.7362	58.5938	73.9441	58.5938	74.7061	58.5938	73.8478	58.5938	74.6577	58.5938	73.7525	58.5938	74.5917	58.5938	73.66	58.5938	74.5095	58.5938	73.5732	58.5938	74.4127	58.5938	73.4966	58.5938	74.3028	58.5938	73.4358	58.5938	74.1819	58.5938	73.3973	58.5938	74.0525	58.5938	73.3871	58.5938	73.9185	58.5938	73.4094	58.5938	73.7853	58.5938	73.4648	58.5938	73.6598	58.5938	73.5503
60.0586	74.8617	60.0586	74.8464	60.0586	74.8664	60.0586	74.8202	60.0586	74.8605	60.0586	74.783	60.0586	74.8443	60.0586	74.7346	60.0586	74.818	60.0586	74.6748	60.0586	74.7818	60.0586	74.6039	60.0586	74.7365	60.0586	74.5225	60.0586	74.683	60.0586	74.4322	60.0586	74.6226	60.0586	74.3358	60.0586	74.5568	60.0586	74.2373	60.0586	74.4874	60.0586	74.1422	60.0586	74.4159	60.0586	74.0563	60.0586	74.3437	60.0586	73.9859	60.0586	74.2718	60.0586	73.9358	60.0586	74.2009	60.0586	73.9088	60.0586	74.1322	60.0586	73.9052	60.0586	74.0673	60.0586	73.9232	60.0586	74.0084	60.0586	73.959
62.9883	75.4704	62.9883	75.4586	62.9883	75.4676	62.9883	75.4327	62.9883	75.4498	62.9883	75.3935	62.9883	75.4169	62.9883	75.3421	62.9883	75.3692	62.9883	75.2799	62.9883	75.3072	62.9883	75.2083	62.9883	75.2317	62.9883	75.1291	62.9883	75.1441	62.9883	75.0442	62.9883	75.0463	62.9883	74.9557	62.9883	74.9411	62.9883	74.8657	62.9883	74.8322	62.9883	74.7763	62.9883	74.724	62.9883	74.6898	62.9883	74.6215	62.9883	74.6083	62.9883	74.5296	62.9883	74.5339	62.9883	74.453	62.9883	74.4686	62.9883	74.3952	62.9883	74.4145	62.9883	74.3585	62.9883	74.3739	62.9883	74.3435	62.9883	74.3493
64.4531	75.5495	64.4531	75.54	64.4531	75.5498	64.4531	75.5216	64.4531	75.5407	64.4531	75.4947	64.4531	75.522	64.4531	75.4599	64.4531	75.4937	64.4531	75.4178	64.4531	75.4556	64.4531	75.3691	64.4531	75.4078	64.4531	75.3149	64.4531	75.3508	64.4531	75.2561	64.4531	75.2855	64.4531	75.1941	64.4531	75.2136	64.4531	75.1302	64.4531	75.1376	64.4531	75.0664	64.4531	75.0608	64.4531	75.0044	64.4531	74.9868	64.4531	74.9462	64.4531	74.9194	64.4531	74.8937	64.4531	74.8621	64.4531	74.8487	64.4531	74.8176	64.4531	74.8126	64.4531	74.7878	64.4531	74.7869	64.4531	74.7731	64.4531	74.7733
67.3828	75.9985	67.3828	75.9807	67.3828	76.0092	67.3828	75.9564	67.3828	76.0128	67.3828	75.9262	67.3828	76.0096	67.3828	75.8914	67.3828	75.9999	67.3828	75.8532	67.3828	75.9846	67.3828	75.8133	67.3828	75.9645	67.3828	75.7732	67.3828	75.9402	67.3828	75.7346	67.3828	75.9126	67.3828	75.699	67.3828	75.882	67.3828	75.6673	67.3828	75.8491	67.3828	75.6404	67.3828	75.8144	67.3828	75.6189	67.3828	75.7787	67.3828	75.6029	67.3828	75.7431	67.3828	75.5925	67.3828	75.7087	67.3828	75.5877	67.3828	75.6768	67.3828	75.5885	67.3828	75.6486	67.3828	75.595	67.3828	75.6252	67.3828	75.6073
68.8477	76.2781	68.8477	76.2565	68.8477	76.2913	68.8477	76.2272	68.8477	76.2959	68.8477	76.1915	68.8477	76.2921	68.8477	76.1511	68.8477	76.2808	68.8477	76.1077	68.8477	76.2632	68.8477	76.0634	68.8477	76.2406	68.8477	76.0203	68.8477	76.2145	68.8477	75.9799	68.8477	76.1861	68.8477	75.944	68.8477	76.1565	68.8477	75.9135	68.8477	76.1262	68.8477	75.8891	68.8477	76.0957	68.8477	75.8712	68.8477	76.0651	68.8477	75.86	68.8477	76.0346	68.8477	75.8553	68.8477	76.0043	68.8477	75.857	68.8477	75.9747	68.8477	75.8648	68.8477	75.9464	68.8477	75.8784	68.8477	75.9202	68.8477	75.8972
71.7773	76.8175	71.7773	76.7856	71.7773	76.8376	71.7773	76.7423	71.7773	76.8458	71.7773	76.6888	71.7773	76.8428	71.7773	76.627	71.7773	76.8294	71.7773	76.5591	71.7773	76.8069	71.7773	76.488	71.7773	76.7767	71.7773	76.4171	71.7773	76.7404	71.7773	76.3494	71.7773	76.6993	71.7773	76.2883	71.7773	76.6548	71.7773	76.2364	71.7773	76.6079	71.7773	76.1957	71.7773	76.5598	71.7773	76.1676	71.7773	76.5114	71.7773	76.1524	71.7773	76.4635	71.7773	76.1499	71.7773	76.4166	71.7773	76.1592	71.7773	76.3709	71.7773	76.1792	71.7773	76.3264	71.7773	76.2081	71.7773	76.2837	71.7773	76.2436
74.707	77.2604	74.707	77.2464	74.707	77.2642	74.707	77.2226	74.707	77.258	74.707	77.19	74.707	77.2426	74.707	77.1503	74.707	77.2193	74.707	77.1055	74.707	77.1898	74.707	77.0579	74.707	77.156	74.707	77.01	74.707	77.1197	74.707	76.964	74.707	77.0824	74.707	76.9218	74.707	77.0456	74.707	76.885	74.707	77.0102	74.707	76.8547	74.707	76.9769	74.707	76.8313	74.707	76.9465	74.707	76.8153	74.707	76.9191	74.707	76.8062	74.707	76.895	74.707	76.8037	74.707	76.874	74.707	76.8067	74.707	76.8556	74.707	76.8144	74.707	76.8395	74.707	76.8256
77.6367	77.6683	77.6367	77.6443	77.6367	77.6795	77.6367	77.6081	77.6367	77.6782	77.6367	77.5613	77.6367	77.6655	77.6367	77.5062	77.6367	77.6432	77.6367	77.4459	77.6367	77.6135	77.6367	77.384	77.6367	77.5791	77.6367	77.3245	77.6367	77.5425	77.6367	77.2708	77.6367	77.506	77.6367	77.2262	77.6367	77.4713	77.6367	77.1927	77.6367	77.4396	77.6367	77.1715	77.6367	77.4112	77.6367	77.1623	77.6367	77.3858	77.6367	77.1641	77.6367	77.363	77.6367	77.1749	77.6367	77.3417	77.6367	77.192	77.6367	77.3212	77.6367	77.2129	77.6367	77.3007	77.6367	77.2354	77.6367	77.2798	77.6367	77.258
79.1016	77.9332	79.1016	77.9138	79.1016	77.9381	79.1016	77.8802	79.1016	77.9288	79.1016	77.8338	79.1016	77.9064	79.1016	77.7768	79.1016	77.8728	79.1016	77.712	79.1016	77.8304	79.1016	77.643	79.1016	77.7821	79.1016	77.5737	79.1016	77.7307	79.1016	77.508	79.1016	77.6792	79.1016	77.4495	79.1016	77.6301	79.1016	77.4011	79.1016	77.585	79.1016	77.3649	79.1016	77.5452	79.1016	77.3415	79.1016	77.5109	79.1016	77.3302	79.1016	77.4816	79.1016	77.3292	79.1016	77.4566	79.1016	77.3361	79.1016	77.4348	79.1016	77.3482	79.1016	77.4152	79.1016	77.3632	79.1016	77.397	79.1016	77.3797
82.0312	78.5219	82.0312	78.5085	82.0312	78.52	82.0312	78.4803	82.0312	78.5032	82.0312	78.4381	82.0312	78.4726	82.0312	78.3837	82.0312	78.4297	82.0312	78.3193	82.0312	78.3768	82.0312	78.2476	82.0312	78.3163	82.0312	78.1718	82.0312	78.2508	82.0312	78.0955	82.0312	78.183	82.0312	78.0219	82.0312	78.1153	82.0312	77.9545	82.0312	78.0501	82.0312	77.896	82.0312	77.9893	82.0312	77.8481	82.0312	77.9345	82.0312	77.8115	82.0312	77.887	82.0312	77.7859	82.0312	77.8475	82.0312	77.7701	82.0312	77.8161	82.0312	77.7622	82.0312	77.7925	82.0312	77.761	82.0312	77.7759	82.0312	77.7656
84.9609	78.5721	84.9609	78.5613	84.9609	78.5719	84.9609	78.5402	84.9609	78.5612	84.9609	78.5098	84.9609	78.5412	84.9609	78.472	84.9609	78.5136	84.9609	78.4289	84.9609	78.4807	84.9609	78.3831	84.9609	78.445	84.9609	78.337	84.9609	78.4085	84.9609	78.2929	84.9609	78.3731	84.9609	78.2527	84.9609	78.3399	84.9609	78.2179	84.9609	78.3095	84.9609	78.1894	84.9609	78.2818	84.9609	78.1673	84.9609	78.2566	84.9609	78.1516	84.9609	78.2336	84.9609	78.1421	84.9609	78.2127	84.9609	78.1382	84.9609	78.194	84.9609	78.1391	84.9609	78.1777	84.9609	78.1442	84.9609	78.1638	84.9609	78.1525
87.8906	79.2151	87.8906	79.224	87.8906	79.1842	87.8906	79.2109	87.8906	79.1327	87.8906	79.1769	87.8906	79.0631	87.8906	79.1244	87.8906	78.9795	87.8906	79.0565	87.8906	78.887	87.8906	78.9775	87.8906	78.7918	87.8906	78.8924	87.8906	78.7005	87.8906	78.8069	87.8906	78.6191	87.8906	78.7265	87.8906	78.5528	87.8906	78.6565	87.8906	78.5047	87.8906	78.6006	87.8906	78.4755	87.8906	78.5609	87.8906	78.4635	87.8906	78.5368	87.8906	78.4654	87.8906	78.5258	87.8906	78.4766	87.8906	78.5237	87.8906	78.4922	87.8906	78.5259	87.8906	78.5076	87.8906	78.5279	87.8906	78.5196	87.8906	78.5264
90.8203	79.5044	90.8203	79.509	90.8203	79.4801	90.8203	79.4946	90.8203	79.4362	90.8203	79.4629	90.8203	79.374	90.8203	79.4162	90.8203	79.2957	90.8203	79.3575	90.8203	79.2048	90.8203	79.2905	90.8203	79.1061	90.8203	79.2192	90.8203	79.0056	90.8203	79.1477	90.8203	78.9099	90.8203	79.0798	90.8203	78.8253	90.8203	79.0186	90.8203	78.7573	90.8203	78.9662	90.8203	78.7091	90.8203	78.9235	90.8203	78.6816	90.8203	78.89	90.8203	78.6731	90.8203	78.8636	90.8203	78.68	90.8203	78.8417	90.8203	78.6979	90.8203	78.8211	90.8203	78.7222	90.8203	78.7994	90.8203	78.749	90.8203	78.7753
95.2148	80.2619	95.2148	80.2506	95.2148	80.2523	95.2148	80.2195	95.2148	80.221	95.2148	80.1706	95.2148	80.1687	95.2148	80.1067	95.2148	80.0965	95.2148	80.0307	95.2148	80.0072	95.2148	79.9459	95.2148	79.9041	95.2148	79.8556	95.2148	79.7919	95.2148	79.7628	95.2148	79.6759	95.2148	79.6706	95.2148	79.562	95.2148	79.5812	95.2148	79.4558	95.2148	79.497	95.2148	79.3625	95.2148	79.42	95.2148	79.2858	95.2148	79.352	95.2148	79.2274	95.2148	79.2942	95.2148	79.1871	95.2148	79.247	95.2148	79.1633	95.2148	79.2103	95.2148	79.1531	95.2148	79.183	95.2148	79.1541	95.2148	79.1643
98.1445	80.4488	98.1445	80.4359	98.1445	80.4424	98.1445	80.405	98.1445	80.4165	98.1445	80.3584	98.1445	80.3714	98.1445	80.2989	98.1445	80.3089	98.1445	80.2301	98.1445	80.2314	98.1445	80.1558	98.1445	80.1425	98.1445	80.0798	98.1445	80.0465	98.1445	80.0057	98.1445	79.9484	98.1445	79.9363	98.1445	79.8534	98.1445	79.8734	98.1445	79.7668	98.1445	79.8179	98.1445	79.6926	98.1445	79.7698	98.1445	79.6338	98.1445	79.7283	98.1445	79.5917	98.1445	79.6924	98.1445	79.5659	98.1445	79.6608	98.1445	79.555	98.1445	79.6326	98.1445	79.5564	98.1445	79.6072	98.1445	79.5673	98.1445	79.585
101.074	80.4942	101.074	80.4695	101.074	80.5005	101.074	80.4267	101.074	80.4888	101.074	80.3671	101.074	80.4607	101.074	80.2933	101.074	80.418	101.074	80.209	101.074	80.3629	101.074	80.1188	101.074	80.2979	101.074	80.0276	101.074	80.2259	101.074	79.9404	101.074	80.1501	101.074	79.8617	101.074	80.0739	101.074	79.795	101.074	80.001	101.074	79.7425	101.074	79.9348	101.074	79.7051	101.074	79.878	101.074	79.6826	101.074	79.8319	101.074	79.6736	101.074	79.7966	101.074	79.6757	101.074	79.7703	101.074	79.6858	101.074	79.7501	101.074	79.7004	101.074	79.733	101.074	79.7167
105.469	80.8135	105.469	80.8045	105.469	80.8011	105.469	80.7743	105.469	80.7685	105.469	80.7241	105.469	80.7183	105.469	80.6564	105.469	80.6542	105.469	80.5748	105.469	80.5807	105.469	80.4836	105.469	80.5029	105.469	80.3883	105.469	80.4256	105.469	80.2945	105.469	80.3532	105.469	80.208	105.469	80.2887	105.469	80.134	105.469	80.2336	105.469	80.0762	105.469	80.1879	105.469	80.0363	105.469	80.1506	105.469	80.0134	105.469	80.1202	105.469	80.0045	105.469	80.095	105.469	80.0054	105.469	80.074	105.469	80.0117	105.469	80.0566	105.469	80.0206	105.469	80.0424	105.469	80.0307
108.398	81.1854	108.398	81.1697	108.398	81.1773	108.398	81.1314	108.398	81.1456	108.398	81.0727	108.398	81.0919	108.398	80.9972	108.398	81.0189	108.398	80.9092	108.398	80.9307	108.398	80.8136	108.398	80.8322	108.398	80.7157	108.398	80.7289	108.398	80.6204	108.398	80.6267	108.398	80.5322	108.398	80.5307	108.398	80.4545	108.398	80.4454	108.398	80.3896	108.398	80.3736	108.398	80.338	108.398	80.3163	108.398	80.2989	108.398	80.2732	108.398	80.2702	108.398	80.2429	108.398	80.2493	108.398	80.2235	108.398	80.2337	108.398	80.2132	108.398	80.222	108.398	80.2106	108.398	80.214
112.793	81.2944	112.793	81.2668	112.793	81.3009	112.793	81.2188	112.793	81.2869	112.793	81.153	112.793	81.2548	112.793	81.0729	112.793	81.2083	112.793	80.9832	112.793	81.1524	112.793	80.8897	112.793	81.0927	112.793	80.7984	112.793	81.0348	112.793	80.7153	112.793	80.9837	112.793	80.6461	112.793	80.9428	112.793	80.5956	112.793	80.9139	112.793	80.5668	112.793	80.8963	112.793	80.5606	112.793	80.8877	112.793	80.5757	112.793	80.884	112.793	80.6082	112.793	80.8807	112.793	80.6528	112.793	80.873	112.793	80.7029	112.793	80.8576	112.793	80.7526	112.793	80.8323	112.793	80.7968
117.188	81.7048	117.188	81.6954	117.188	81.6872	117.188	81.6599	117.188	81.6426	117.188	81.6008	117.188	81.573	117.188	81.5214	117.188	81.4816	117.188	81.4267	117.188	81.374	117.188	81.3223	117.188	81.2573	117.188	81.2149	117.188	81.1403	117.188	81.1115	117.188	81.0325	117.188	81.0185	117.188	80.9428	117.188	80.9415	117.188	80.878	117.188	80.8843	117.188	80.8411	117.188	80.8486	117.188	80.8309	117.188	80.834	117.188	80.8418	117.188	80.8376	117.188	80.8653	117.188	80.8548	117.188	80.8919	117.188	80.8789	117.188	80.9131	117.188	80.9025	117.188	80.9228	117.188	80.9188
120.117	82.0296	120.117	82.02	120.117	82.0104	120.117	81.9827	120.117	81.9627	120.117	81.9194	120.117	81.8877	120.117	81.8331	120.117	81.7877	120.117	81.7279	120.117	81.6667	120.117	81.6089	120.117	81.5303	120.117	81.4823	120.117	81.3858	120.117	81.3551	120.117	81.2421	120.117	81.2342	120.117	81.1089	120.117	81.1262	120.117	80.9955	120.117	81.0361	120.117	80.909	120.117	80.9673	120.117	80.853	120.117	80.9209	120.117	80.8269	120.117	80.8953	120.117	80.8252	120.117	80.8862	120.117	80.8396	120.117	80.887	120.117	80.8602	120.117	80.8901	120.117	80.8782	120.117	80.8884
124.512	82.2094	124.512	82.2004	124.512	82.1919	124.512	82.1654	124.512	82.1481	124.512	82.1063	124.512	82.0794	124.512	82.0258	124.512	81.9884	124.512	81.9279	124.512	81.8789	124.512	81.8177	124.512	81.7559	124.512	81.7011	124.512	81.6255	124.512	81.5845	124.512	81.4949	124.512	81.4743	124.512	81.3716	124.512	81.3758	124.512	81.2626	124.512	81.2929	124.512	81.1738	124.512	81.2272	124.512	81.1085	124.512	81.1782	124.512	81.0674	124.512	81.1438	124.512	81.048	124.512	81.1206	124.512	81.0454	124.512	81.1045	124.512	81.0534	124.512	81.0918	124.512	81.0661	124.512	81.0793
128.906	82.4545	128.906	82.4338	128.906	82.4475	128.906	82.3868	128.906	82.4126	128.906	82.3159	128.906	82.3505	128.906	82.2245	128.906	82.2632	128.906	82.1167	128.906	82.154	128.906	81.9977	128.906	82.0275	128.906	81.8733	128.906	81.8895	128.906	81.7497	128.906	81.747	128.906	81.6334	128.906	81.6081	128.906	81.5297	128.906	81.4811	128.906	81.4426	128.906	81.3735	128.906	81.3739	128.906	81.2908	128.906	81.3232	128.906	81.2355	128.906	81.288	128.906	81.2058	128.906	81.2646	128.906	81.1966	128.906	81.2487	128.906	81.2009	128.906	81.2362	128.906	81.2117	128.906	81.2241
133.301	82.5305	133.301	82.5157	133.301	82.5195	133.301	82.4767	133.301	82.4825	133.301	82.4163	133.301	82.4204	133.301	82.3382	133.301	82.3356	133.301	82.2468	133.301	82.2315	133.301	82.1471	133.301	82.1122	133.301	82.0443	133.301	81.9828	133.301	81.943	133.301	81.8487	133.301	81.8476	133.301	81.7154	133.301	81.7607	133.301	81.5889	133.301	81.6836	133.301	81.4752	133.301	81.6154	133.301	81.3799	133.301	81.5544	133.301	81.3076	133.301	81.4979	133.301	81.2612	133.301	81.4441	133.301	81.2406	133.301	81.3923	133.301	81.2433	133.301	81.3434	133.301	81.2647	133.301	81.2997
139.16	82.4745	139.16	82.4279	139.16	82.4961	139.16	82.3586	139.16	82.4926	139.16	82.2711	139.16	82.4658	139.16	82.1713	139.16	82.4193	139.16	82.0665	139.16	82.3584	139.16	81.9645	139.16	82.2891	139.16	81.8729	139.16	82.2179	139.16	81.7982	139.16	82.1509	139.16	81.7454	139.16	82.093	139.16	81.7172	139.16	82.0475	139.16	81.7139	139.16	82.0157	139.16	81.7328	139.16	81.9967	139.16	81.769	139.16	81.9883	139.16	81.8152	139.16	81.9868	139.16	81.8641	139.16	81.9884	139.16	81.9089	139.16	81.9887	139.16	81.9448	139.16	81.9836	139.16	81.9697
143.555	82.8288	143.555	82.7936	143.555	82.8293	143.555	82.7243	143.555	82.7968	143.555	82.6237	143.555	82.735	143.555	82.4976	143.555	82.6497	143.555	82.3542	143.555	82.5477	143.555	82.2042	143.555	82.4373	143.555	82.0598	143.555	82.3274	143.555	81.9335	143.555	82.227	143.555	81.8362	143.555	82.1437	143.555	81.7758	143.555	82.0832	143.555	81.7554	143.555	82.0481	143.555	81.7726	143.555	82.0371	143.555	81.8198	143.555	82.0455	143.555	81.8856	143.555	82.0662	143.555	81.9572	143.555	82.0903	143.555	82.0229	143.555	82.1095	143.555	82.0739	143.555	82.1164	143.555	82.1054
147.949	83.0912	147.949	83.0757	147.949	83.0688	147.949	83.0217	147.949	83.0107	147.949	82.9307	147.949	82.9209	147.949	82.8061	147.949	82.8048	147.949	82.6536	147.949	82.6697	147.949	82.4814	147.949	82.5239	147.949	82.3001	147.949	82.3766	147.949	82.1223	147.949	82.2369	147.949	81.9614	147.949	82.1133	147.949	81.8298	147.949	82.012	147.949	81.7365	147.949	81.9365	147.949	81.6847	147.949	81.8868	147.949	81.6707	147.949	81.8594	147.949	81.6857	147.949	81.8479	147.949	81.7179	147.949	81.8447	147.949	81.7558	147.949	81.8422	147.949	81.7908	147.949	81.8344	147.949	81.8177
153.809	83.1191	153.809	83.1025	153.809	83.0978	153.809	83.05	153.809	83.0386	153.809	82.9651	153.809	82.9438	153.809	82.8529	153.809	82.8182	153.809	82.7196	153.809	82.6695	153.809	82.5719	153.809	82.5079	153.809	82.4177	153.809	82.3452	153.809	82.265	153.809	82.1944	153.809	82.1224	153.809	82.0669	153.809	81.9985	153.809	81.971	153.809	81.9014	153.809	81.91	153.809	81.837	153.809	81.8812	153.809	81.807	153.809	81.8774	153.809	81.8076	153.809	81.8887	153.809	81.8299	153.809	81.9052	153.809	81.862	153.809	81.9184	153.809	81.8927	153.809	81.9225	153.809	81.914
159.668	83.2687	159.668	83.2431	159.668	83.2579	159.668	83.1835	159.668	83.2103	159.668	83.0938	159.668	83.1271	159.668	82.9791	159.668	83.0116	159.668	82.8458	159.668	82.8693	159.668	82.7015	159.668	82.7077	159.668	82.5541	159.668	82.5368	159.668	82.4118	159.668	82.3686	159.668	82.282	159.668	82.2163	159.668	82.1711	159.668	82.0925	159.668	82.0839	159.668	82.0067	159.668	82.0234	159.668	81.9622	159.668	81.99	159.668	81.955	159.668	81.9818	159.668	81.9742	159.668	81.9933	159.668	82.0055	159.668	82.0157	159.668	82.0349	159.668	82.0389	159.668	82.0524	159.668	82.0532
165.527	83.2062	165.527	83.173	165.527	83.2002	165.527	83.1023	165.527	83.1554	165.527	82.9979	165.527	83.0742	165.527	82.8661	165.527	82.9613	165.527	82.7154	165.527	82.8232	165.527	82.5566	165.527	82.6687	165.527	82.4024	165.527	82.5082	165.527	82.2657	165.527	82.3532	165.527	82.1582	165.527	82.2158	165.527	82.088	165.527	82.1072	165.527	82.0577	165.527	82.0359	165.527	82.0635	165.527	82.0061	165.527	82.0962	165.527	82.0159	165.527	82.1436	165.527	82.0567	165.527	82.193	165.527	82.1151	165.527	82.233	165.527	82.1758	165.527	82.2546	165.527	82.2248	165.527	82.2524
171.387	83.2636	171.387	83.2276	171.387	83.2588	171.387	83.1511	171.387	83.2147	171.387	83.0365	171.387	83.1347	171.387	82.8881	171.387	83.0239	171.387	82.7127	171.387	82.8889	171.387	82.5197	171.387	82.7375	171.387	82.3212	171.387	82.5786	171.387	82.1314	171.387	82.4213	171.387	81.9659	171.387	82.275	171.387	81.8391	171.387	82.1484	171.387	81.7612	171.387	82.0493	171.387	81.7357	171.387	81.9834	171.387	81.7573	171.387	81.9525	171.387	81.8133	171.387	81.9531	171.387	81.8856	171.387	81.9758	171.387	81.9555	171.387	82.0066	171.387	82.0075	171.387	82.0299	171.387	82.0326
177.246	83.2285	177.246	83.2085	177.246	83.207	177.246	83.1474	177.246	83.1452	177.246	83.0481	177.246	83.0467	177.246	82.9152	177.246	82.9173	177.246	82.755	177.246	82.7652	177.246	82.5762	177.246	82.6005	177.246	82.3893	177.246	82.435	177.246	82.2067	177.246	82.2811	177.246	82.0423	177.246	82.1501	177.246	81.91	177.246	82.0507	177.246	81.8215	177.246	81.9878	177.246	81.7834	177.246	81.9617	177.246	81.7945	177.246	81.9676	177.246	81.8448	177.246	81.9964	177.246	81.9176	177.246	82.0359	177.246	81.9932	177.246	82.0726	177.246	82.054	177.246	82.0934	177.246	82.0886
183.105	83.3045	183.105	83.2957	183.105	83.2655	183.105	83.24	183.105	83.1799	183.105	83.1407	183.105	83.0517	183.105	83.0034	183.105	82.8872	183.105	82.836	183.105	82.6961	183.105	82.6489	183.105	82.4912	183.105	82.4539	183.105	82.288	183.105	82.2641	183.105	82.1032	183.105	82.0924	183.105	81.952	183.105	81.9499	183.105	81.8448	183.105	81.845	183.105	81.7852	183.105	81.7815	183.105	81.7692	183.105	81.7587	183.105	81.7873	183.105	81.7706	183.105	81.826	183.105	81.807	183.105	81.8709	183.105	81.8541	183.105	81.9086	183.105	81.8973	183.105	81.9285	183.105	81.9245
188.965	83.2097	188.965	83.1934	188.965	83.1794	188.965	83.132	188.965	83.1021	188.965	83.0291	188.965	82.9794	188.965	82.8897	188.965	82.8153	188.965	82.7208	188.965	82.617	188.965	82.5317	188.965	82.3955	188.965	82.3343	188.965	82.1661	188.965	82.1426	188.965	81.9482	188.965	81.9723	188.965	81.7625	188.965	81.8384	188.965	81.6265	188.965	81.752	188.965	81.5498	188.965	81.7161	188.965	81.5311	188.965	81.7239	188.965	81.5594	188.965	81.7601	188.965	81.6182	188.965	81.8057	188.965	81.6905	188.965	81.8434	188.965	81.761	188.965	81.861	188.965	81.8178	188.965	81.8526
196.289	83.4695	196.289	83.4218	196.289	83.4638	196.289	83.3233	196.289	83.4041	196.289	83.1793	196.289	83.2915	196.289	82.9979	196.289	83.1292	196.289	82.7894	196.289	82.9227	196.289	82.5664	196.289	82.681	196.289	82.3425	196.289	82.4178	196.289	82.1315	196.289	82.1525	196.289	81.9467	196.289	81.9099	196.289	81.7994	196.289	81.7158	196.289	81.6982	196.289	81.5904	196.289	81.6476	196.289	81.5408	196.289	81.6457	196.289	81.5579	196.289	81.6829	196.289	81.62	196.289	81.7422	196.289	81.7012	196.289	81.8027	196.289	81.7781	196.289	81.8452	196.289	81.8335	196.289	81.857
203.613	83.312	203.613	83.2533	203.613	83.3154	203.613	83.1406	203.613	83.2642	203.613	82.9779	203.613	83.1613	203.613	82.7718	203.613	83.0115	203.613	82.5327	203.613	82.8218	203.613	82.2752	203.613	82.6011	203.613	82.018	203.613	82.3606	203.613	81.783	203.613	82.1142	203.613	81.5917	203.613	81.8797	203.613	81.4605	203.613	81.6784	203.613	81.3959	203.613	81.5322	203.613	81.3924	203.613	81.4559	203.613	81.4354	203.613	81.4502	203.613	81.5055	203.613	81.4986	203.613	81.5834	203.613	81.5737	203.613	81.6524	203.613	81.6472	203.613	81.6997	203.613	81.6984	203.613	81.7165
210.938	83.2162	210.938	83.1778	210.938	83.2066	210.938	83.0935	210.938	83.1483	210.938	82.9659	210.938	83.0421	210.938	82.7985	210.938	82.891	210.938	82.5959	210.938	82.7008	210.938	82.3641	210.938	82.4801	210.938	82.112	210.938	82.2407	210.938	81.8526	210.938	81.9982	210.938	81.6038	210.938	81.7709	210.938	81.3884	210.938	81.5787	210.938	81.2301	210.938	81.4394	210.938	81.1465	210.938	81.3638	210.938	81.141	210.938	81.3504	210.938	81.1997	210.938	81.3847	210.938	81.2955	210.938	81.443	210.938	81.3978	210.938	81.4995	210.938	81.4807	210.938	81.5324	210.938	81.5275
218.262	83.0797	218.262	83.0521	218.262	83.0487	218.262	82.9663	218.262	82.9606	218.262	82.8253	218.262	82.8197	218.262	82.6349	218.262	82.6329	218.262	82.4043	218.262	82.4107	218.262	82.1471	218.262	82.1672	218.262	81.8821	218.262	81.9203	218.262	81.6321	218.262	81.6901	218.262	81.4216	218.262	81.4974	218.262	81.2725	218.262	81.3607	218.262	81.198	218.262	81.2935	218.262	81.1993	218.262	81.3	218.262	81.2648	218.262	81.3713	218.262	81.3738	218.262	81.4845	218.262	81.5015	218.262	81.6078	218.262	81.6234	218.262	81.7096	218.262	81.7183	218.262	81.7671	218.262	81.7696
225.586	83.281	225.586	83.261	225.586	83.2409	225.586	83.183	225.586	83.1398	225.586	83.0497	225.586	82.9783	225.586	82.8651	225.586	82.7586	225.586	82.6346	225.586	82.486	225.586	82.3659	225.586	82.1705	225.586	82.0708	225.586	81.8286	225.586	81.7674	225.586	81.4845	225.586	81.4821	225.586	81.1699	225.586	81.248	225.586	80.9198	225.586	81.0982	225.586	80.7651	225.586	81.052	225.586	80.7235	225.586	81.1042	225.586	80.7912	225.586	81.2242	225.586	80.9421	225.586	81.3673	225.586	81.1349	225.586	81.4895	225.586	81.3243	225.586	81.558	225.586	81.4723	225.586	81.5537
232.91	83.0758	232.91	83.0278	232.91	83.064	232.91	82.9233	232.91	82.9906	232.91	82.7676	232.91	82.8555	232.91	82.5677	232.91	82.6601	232.91	82.3313	232.91	82.4081	232.91	82.0675	232.91	82.1069	232.91	81.7867	232.91	81.7704	232.91	81.502	232.91	81.4203	232.91	81.232	232.91	81.0866	232.91	81.0005	232.91	80.8037	232.91	80.8334	232.91	80.6028	232.91	80.7502	232.91	80.5035	232.91	80.7538	232.91	80.5074	232.91	80.8264	232.91	80.5971	232.91	80.9337	232.91	80.7397	232.91	81.0354	232.91	80.8944	232.91	81.0963	232.91	81.0222	232.91	81.0937
241.699	82.7924	241.699	82.7306	241.699	82.7934	241.699	82.6111	241.699	82.7337	241.699	82.4399	241.699	82.6167	241.699	82.2252	241.699	82.4482	241.699	81.9762	241.699	82.2362	241.699	81.7019	241.699	81.99	241.699	81.4106	241.699	81.7197	241.699	81.1116	241.699	81.4365	241.699	80.8177	241.699	81.1522	241.699	80.549	241.699	80.8813	241.699	80.3326	241.699	80.6411	241.699	80.1965	241.699	80.4519	241.699	80.1564	241.699	80.3326	241.699	80.204	241.699	80.2925	241.699	80.3056	241.699	80.323	241.699	80.415	241.699	80.3955	241.699	80.4907	241.699	80.4701	241.699	80.5092
250.488	83.1737	250.488	83.1119	250.488	83.1535	250.488	82.9682	250.488	83.0537	250.488	82.7471	250.488	82.8792	250.488	82.4581	250.488	82.6374	250.488	82.1172	250.488	82.3386	250.488	81.745	250.488	81.9981	250.488	81.3642	250.488	81.6374	250.488	80.9956	250.488	81.2855	250.488	80.6563	250.488	80.9762	250.488	80.3622	250.488	80.7398	250.488	80.1311	250.488	80.5904	250.488	79.9825	250.488	80.5182	250.488	79.9283	250.488	80.4949	250.488	79.9623	250.488	80.4896	250.488	80.0575	250.488	80.4821	250.488	80.1768	250.488	80.4635	250.488	80.2877	250.488	80.4291	250.488	80.3726
259.277	82.9704	259.277	82.945	259.277	82.9312	259.277	82.8552	259.277	82.8273	259.277	82.7006	259.277	82.6591	259.277	82.4818	259.277	82.4283	259.277	82.2015	259.277	82.1387	259.277	81.8671	259.277	81.7973	259.277	81.4927	259.277	81.4158	259.277	81.1018	259.277	81.0147	259.277	80.7267	259.277	80.6273	259.277	80.4063	259.277	80.3002	259.277	80.1775	259.277	80.0836	259.277	80.0643	259.277	80.0089	259.277	80.067	259.277	80.0685	259.277	80.1614	259.277	80.2165	259.277	80.3067	259.277	80.3913	259.277	80.4585	259.277	80.5395	259.277	80.5785	259.277	80.6271	259.277	80.6396
268.066	82.7789	268.066	82.7038	268.066	82.7822	268.066	82.5603	268.066	82.7116	268.066	82.3523	268.066	82.5664	268.066	82.0852	268.066	82.3479	268.066	81.7669	268.066	82.0594	268.066	81.4101	268.066	81.7072	268.066	81.0327	268.066	81.3012	268.066	80.6541	268.066	80.8582	268.066	80.2907	268.066	80.4084	268.066	79.9564	268.066	80.0005	268.066	79.6719	268.066	79.6958	268.066	79.4728	268.066	79.5407	268.066	79.3971	268.066	79.5359	268.066	79.4546	268.066	79.6348	268.066	79.6073	268.066	79.7737	268.066	79.7862	268.066	79.9007	268.066	79.9272	268.066	79.9818	268.066	79.9946
276.855	82.8443	276.855	82.7886	276.855	82.8491	276.855	82.674	276.855	82.8063	276.855	82.4908	276.855	82.7121	276.855	82.2307	276.855	82.5558	276.855	81.8887	276.855	82.3231	276.855	81.4682	276.855	82.0012	276.855	80.9897	276.855	81.5859	276.855	80.5016	276.855	81.0886	276.855	80.0795	276.855	80.5422	276.855	79.7975	276.855	80.0041	276.855	79.682	276.855	79.5518	276.855	79.6934	276.855	79.2633	276.855	79.7617	276.855	79.1782	276.855	79.8341	276.855	79.2686	276.855	79.889	276.855	79.4538	276.855	79.9217	276.855	79.6487	276.855	79.9263	276.855	79.7999	276.855	79.8904
287.109	82.5594	287.109	82.5645	287.109	82.493	287.109	82.5141	287.109	82.3614	287.109	82.4115	287.109	82.1686	287.109	82.2548	287.109	81.9298	287.109	82.0369	287.109	81.6701	287.109	81.7467	287.109	81.4144	287.109	81.373	287.109	81.1727	287.109	80.9151	287.109	80.9334	287.109	80.401	287.109	80.6743	287.109	79.9048	287.109	80.387	287.109	79.5362	287.109	80.0983	287.109	79.3821	287.109	79.869	287.109	79.443	287.109	79.7627	287.109	79.6408	287.109	79.8014	287.109	79.882	287.109	79.9465	287.109	80.0984	287.109	80.1226	287.109	80.2475	287.109	80.2567	287.109	80.3033
297.363	82.7425	297.363	82.655	297.363	82.7651	297.363	82.5117	297.363	82.7161	297.363	82.3261	297.363	82.5865	297.363	82.1133	297.363	82.3633	297.363	81.8816	297.363	82.0345	297.363	81.626	297.363	81.5984	297.363	81.3284	297.363	81.0738	297.363	80.9695	297.363	80.5042	297.363	80.5466	297.363	79.9529	297.363	80.0938	297.363	79.4889	297.363	79.6897	297.363	79.1718	297.363	79.4329	297.363	79.0396	297.363	79.3798	297.363	79.095	297.363	79.4991	297.363	79.2937	297.363	79.6987	297.363	79.5564	297.363	79.8885	297.363	79.8015	297.363	80.0124	297.363	79.9724	297.363	80.0438
307.617	82.388	307.617	82.3277	307.617	82.3718	307.617	82.1828	307.617	82.2924	307.617	81.952	307.617	82.1658	307.617	81.642	307.617	82.0062	307.617	81.2691	307.617	81.8203	307.617	80.8583	307.617	81.6044	307.617	80.4371	307.617	81.3475	307.617	80.0275	307.617	81.0384	307.617	79.644	307.617	80.6748	307.617	79.3047	307.617	80.2712	307.617	79.0452	307.617	79.8655	307.617	78.9162	307.617	79.5223	307.617	78.9509	307.617	79.3175	307.617	79.1298	307.617	79.295	307.617	79.3833	307.617	79.4271	307.617	79.6281	307.617	79.6246	307.617	79.7985	307.617	79.7894	307.617	79.8555
319.336	82.1782	319.336	82.1472	319.336	82.1382	319.336	82.0487	319.336	82.0223	319.336	81.883	319.336	81.8266	319.336	81.6504	319.336	81.5525	319.336	81.354	319.336	81.2076	319.336	81.0031	319.336	80.8048	319.336	80.6124	319.336	80.3615	319.336	80.1963	319.336	79.9039	319.336	79.7636	319.336	79.4764	319.336	79.3223	319.336	79.1413	319.336	78.9047	319.336	78.953	319.336	78.5912	319.336	78.9192	319.336	78.4823	319.336	78.9943	319.336	78.6103	319.336	79.1187	319.336	78.8909	319.336	79.2539	319.336	79.1877	319.336	79.3795	319.336	79.3997	319.336	79.4707	319.336	79.4898
329.59	81.9981	329.59	81.9158	329.59	82.0197	329.59	81.7696	329.59	81.982	329.59	81.5577	329.59	81.8827	329.59	81.2806	329.59	81.7153	329.59	80.9412	329.59	81.4707	329.59	80.5442	329.59	81.1415	329.59	80.0992	329.59	80.7258	329.59	79.6329	329.59	80.2314	329.59	79.1984	329.59	79.6806	329.59	78.8638	329.59	79.1192	329.59	78.6754	329.59	78.6261	329.59	78.6316	329.59	78.303	329.59	78.7016	329.59	78.2238	329.59	78.8572	329.59	78.3781	329.59	79.068	329.59	78.6765	329.59	79.2796	329.59	79.0074	329.59	79.4181	329.59	79.2776	329.59	79.4235
341.309	82.1395	341.309	82.1531	341.309	82.0351	341.309	82.0734	341.309	81.8449	341.309	81.8974	341.309	81.5783	341.309	81.6211	341.309	81.2504	341.309	81.241	341.309	80.8788	341.309	80.758	341.309	80.4757	341.309	80.1791	341.309	80.0422	341.309	79.5163	341.309	79.5782	341.309	78.7875	341.309	79.1046	341.309	78.0378	341.309	78.6807	341.309	77.3852	341.309	78.3895	341.309	77.0294	341.309	78.2926	341.309	77.1161	341.309	78.39	341.309	77.5624	341.309	78.618	341.309	78.1295	341.309	78.881	341.309	78.6249	341.309	79.091	341.309	78.9696	341.309	79.1909	341.309	79.1547
353.027	81.9455	353.027	81.9351	353.027	81.9127	353.027	81.8769	353.027	81.8329	353.027	81.7604	353.027	81.6954	353.027	81.5727	353.027	81.4876	353.027	81.3038	353.027	81.2026	353.027	80.9492	353.027	80.8421	353.027	80.5121	353.027	80.4057	353.027	80.0062	353.027	79.8712	353.027	79.4556	353.027	79.1941	353.027	78.8896	353.027	78.3565	353.027	78.3391	353.027	77.4613	353.027	77.8535	353.027	76.7967	353.027	77.5289	353.027	76.6716	353.027	77.482	353.027	77.0631	353.027	77.7314	353.027	77.658	353.027	78.1321	353.027	78.1884	353.027	78.4783	353.027	78.5281	353.027	78.6275
366.211	82.4364	366.211	82.3464	366.211	82.4322	366.211	82.1714	366.211	82.337	366.211	81.9308	366.211	82.1632	366.211	81.6456	366.211	81.9251	366.211	81.3245	366.211	81.6309	366.211	80.9545	366.211	81.2785	366.211	80.5048	366.211	80.8586	366.211	79.9429	366.211	80.3657	366.211	79.255	366.211	79.8045	366.211	78.4725	366.211	79.1839	366.211	77.7019	366.211	78.5107	366.211	77.1254	366.211	77.8145	366.211	76.9009	366.211	77.2076	366.211	77.0136	366.211	76.8857	366.211	77.2917	366.211	76.9513	366.211	77.5621	366.211	77.2604	366.211	77.7263	366.211	77.5707	366.211	77.7366
379.395	81.6401	379.395	81.6466	379.395	81.5943	379.395	81.6122	379.395	81.5076	379.395	81.53	379.395	81.3778	379.395	81.3901	379.395	81.2058	379.395	81.1809	379.395	80.9981	379.395	80.8904	379.395	80.7659	379.395	80.5074	379.395	80.5137	379.395	80.0281	379.395	80.2253	379.395	79.4618	379.395	79.8682	379.395	78.8302	379.395	79.4273	379.395	78.1704	379.395	78.9443	379.395	77.56	379.395	78.5172	379.395	77.1466	379.395	78.2356	379.395	77.0883	379.395	78.1187	379.395	77.3863	379.395	78.1324	379.395	77.8382	379.395	78.2318	379.395	78.2077	379.395	78.3481	379.395	78.3731
392.578	81.1936	392.578	81.1321	392.578	81.1586	392.578	80.9882	392.578	81.0231	392.578	80.789	392.578	80.7897	392.578	80.5747	392.578	80.4669	392.578	80.3868	392.578	80.0737	392.578	80.2435	392.578	79.649	392.578	80.1151	392.578	79.2531	392.578	79.9279	392.578	78.9399	392.578	79.6048	392.578	78.7024	392.578	79.1139	392.578	78.4548	392.578	78.491	392.578	78.0979	392.578	77.8249	392.578	77.6223	392.578	77.2296	392.578	77.1684	392.578	76.8287	392.578	76.9463	392.578	76.7166	392.578	77.015	392.578	76.8673	392.578	77.2134	392.578	77.1231	392.578	77.3453	392.578	77.3137
405.762	81.8943	405.762	81.8117	405.762	81.8311	405.762	81.5693	405.762	81.6332	405.762	81.1632	405.762	81.3071	405.762	80.6159	405.762	80.8595	405.762	79.9893	405.762	80.3027	405.762	79.3785	405.762	79.6521	405.762	78.8685	405.762	78.93	405.762	78.4785	405.762	78.1908	405.762	78.1684	405.762	77.5493	405.762	77.9113	405.762	77.1415	405.762	77.7299	405.762	76.9984	405.762	77.6366	405.762	77.0054	405.762	77.5741	405.762	77.0339	405.762	77.4669	405.762	77.0515	405.762	77.314	405.762	77.0887	405.762	77.1919	405.762	77.1502	405.762	77.1589	405.762	77.1926	405.762	77.1844
420.41	81.7166	420.41	81.6635	420.41	81.6879	420.41	81.5341	420.41	81.575	420.41	81.3304	420.41	81.3806	420.41	81.0434	420.41	81.1137	420.41	80.6515	420.41	80.7913	420.41	80.1349	420.41	80.4337	420.41	79.513	420.41	80.0395	420.41	78.8694	420.41	79.5563	420.41	78.3045	420.41	78.8984	420.41	77.8297	420.41	78.0451	420.41	77.373	420.41	77.1731	420.41	76.9444	420.41	76.6406	420.41	76.7263	420.41	76.6156	420.41	76.8747	420.41	76.8666	420.41	77.2678	420.41	77.1329	420.41	77.6327	420.41	77.3579	420.41	77.7985	420.41	77.5727	420.41	77.751
435.059	81.6891	435.059	81.6654	435.059	81.6281	435.059	81.5547	435.059	81.4821	435.059	81.3454	435.059	81.2539	435.059	81.0202	435.059	80.947	435.059	80.5706	435.059	80.5588	435.059	80.0054	435.059	80.0734	435.059	79.3377	435.059	79.4668	435.059	78.5591	435.059	78.7321	435.059	77.6494	435.059	77.9071	435.059	76.6695	435.059	77.0815	435.059	75.9113	435.059	76.3915	435.059	75.8206	435.059	76.042	435.059	76.4376	435.059	76.2496	435.059	77.2929	435.059	76.9777	435.059	77.9994	435.059	77.8642	435.059	78.4652	435.059	78.5457	435.059	78.7532	435.059	78.8784	435.059	78.9094
451.172	81.9075	451.172	81.8028	451.172	81.9289	451.172	81.6127	451.172	81.8607	451.172	81.342	451.172	81.6886	451.172	81.0195	451.172	81.3974	451.172	80.6911	451.172	80.9779	451.172	80.3762	451.172	80.4356	451.172	80.0311	451.172	79.8062	451.172	79.5759	451.172	79.1507	451.172	78.96	451.172	78.4953	451.172	78.1861	451.172	77.766	451.172	77.2693	451.172	76.8373	451.172	76.2313	451.172	75.7308	451.172	75.2726	451.172	74.8538	451.172	74.9177	451.172	74.7811	451.172	75.4071	451.172	75.4023	451.172	76.1922	451.172	76.1276	451.172	76.7259	451.172	76.6402	451.172	76.8596
465.82	81.4752	465.82	81.4352	465.82	81.4384	465.82	81.3157	465.82	81.3233	465.82	81.0935	465.82	81.1363	465.82	80.7318	465.82	80.8903	465.82	80.2211	465.82	80.5959	465.82	79.6202	465.82	80.2476	465.82	79.0375	465.82	79.8179	465.82	78.5256	465.82	79.2766	465.82	78.0146	465.82	78.6248	465.82	77.4199	465.82	77.9049	465.82	76.7971	465.82	77.1577	465.82	76.3155	465.82	76.3895	465.82	76.0683	465.82	75.6652	465.82	76.037	465.82	75.2442	465.82	76.2196	465.82	75.399	465.82	76.5763	465.82	76.0036	465.82	76.9094	465.82	76.6362	465.82	76.9697
483.398	81.2039	483.398	81.0617	483.398	81.1985	483.398	80.8121	483.398	81.0442	483.398	80.5295	483.398	80.7682	483.398	80.2827	483.398	80.4134	483.398	80.0707	483.398	80.0287	483.398	79.8085	483.398	79.6581	483.398	79.4035	483.398	79.3137	483.398	78.8367	483.398	78.937	483.398	78.1484	483.398	78.4016	483.398	77.3401	483.398	77.601	483.398	76.3492	483.398	76.5856	483.398	75.227	483.398	75.66	483.398	74.3975	483.398	75.2134	483.398	74.4172	483.398	75.2927	483.398	75.1469	483.398	75.643	483.398	75.9718	483.398	76.0745	483.398	76.5103	483.398	76.4658	483.398	76.6587
499.512	81.6286	499.512	81.5616	499.512	81.5521	499.512	81.3296	499.512	81.3619	499.512	80.9279	499.512	81.0915	499.512	80.3898	499.512	80.7662	499.512	79.7968	499.512	80.3835	499.512	79.2384	499.512	79.9172	499.512	78.7343	499.512	79.3703	499.512	78.2301	499.512	78.8165	499.512	77.6896	499.512	78.3174	499.512	77.1437	499.512	77.7697	499.512	76.6145	499.512	76.9504	499.512	76.0689	499.512	75.8026	499.512	75.5524	499.512	74.756	499.512	75.2926	499.512	74.5279	499.512	75.4427	499.512	75.0289	499.512	75.7769	499.512	75.5661	499.512	75.9807	499.512	75.8613	499.512	75.9869
517.09	81.5437	517.09	81.4987	517.09	81.4651	517.09	81.3284	517.09	81.2637	517.09	81.0362	517.09	80.936	517.09	80.6221	517.09	80.4933	517.09	80.084	517.09	79.9787	517.09	79.4526	517.09	79.4436	517.09	78.8057	517.09	78.9009	517.09	78.1874	517.09	78.3294	517.09	77.5322	517.09	77.7479	517.09	76.7915	517.09	77.2551	517.09	76.1319	517.09	76.9127	517.09	75.8242	517.09	76.6081	517.09	75.8499	517.09	76.2028	517.09	75.9897	517.09	75.8363	517.09	76.2193	517.09	75.8934	517.09	76.6144	517.09	76.4259	517.09	77.0473	517.09	77.001	517.09	77.2357
536.133	82.1173	536.133	81.9745	536.133	82.1051	536.133	81.6815	536.133	81.9424	536.133	81.2539	536.133	81.6353	536.133	80.727	536.133	81.1884	536.133	80.1572	536.133	80.6163	536.133	79.5717	536.133	79.9541	536.133	78.9129	536.133	79.2356	536.133	78.1092	536.133	78.4452	536.133	77.1806	536.133	77.5111	536.133	76.1568	536.133	76.3685	536.133	74.9756	536.133	75.066	536.133	73.867	536.133	73.9634	536.133	73.7729	536.133	73.8074	536.133	74.8758	536.133	74.7956	536.133	76.0927	536.133	76.0968	536.133	76.8879	536.133	77.0388	536.133	77.3215	536.133	77.4767	536.133	77.5237
555.176	81.6966	555.176	81.7028	555.176	81.6049	555.176	81.6319	555.176	81.4389	555.176	81.4826	555.176	81.2248	555.176	81.2151	555.176	80.9722	555.176	80.773	555.176	80.6579	555.176	80.1466	555.176	80.2612	555.176	79.3818	555.176	79.8008	555.176	78.4801	555.176	79.284	555.176	77.3263	555.176	78.6144	555.176	75.8656	555.176	77.6325	555.176	74.4519	555.176	76.3316	555.176	73.718	555.176	75.0919	555.176	73.7003	555.176	74.479	555.176	74.1383	555.176	74.5345	555.176	75.0066	555.176	74.9541	555.176	76.0036	555.176	75.5962	555.176	76.656	555.176	76.2902	555.176	76.731
574.219	82.4927	574.219	82.3973	574.219	82.4582	574.219	82.1617	574.219	82.2981	574.219	81.811	574.219	82.0036	574.219	81.4233	574.219	81.5919	574.219	81.0806	574.219	81.1314	574.219	80.7936	574.219	80.6722	574.219	80.4898	574.219	80.1517	574.219	80.0533	574.219	79.4582	574.219	79.3279	574.219	78.5828	574.219	78.1042	574.219	77.5936	574.219	76.1825	574.219	76.4564	574.219	73.6302	574.219	75.12	574.219	71.5814	574.219	73.9423	574.219	71.9584	574.219	73.7157	574.219	73.7679	574.219	74.5634	574.219	75.4131	574.219	75.7415	574.219	76.4815	574.219	76.6156	574.219	76.8894
594.727	82.8004	594.727	82.6046	594.727	82.8162	594.727	82.3051	594.727	82.6052	594.727	81.9401	594.727	82.2009	594.727	81.4996	594.727	81.7005	594.727	80.9861	594.727	81.201	594.727	80.4447	594.727	80.7445	594.727	79.8927	594.727	80.2971	594.727	79.2757	594.727	79.7687	594.727	78.5689	594.727	79.0812	594.727	77.8242	594.727	78.1998	594.727	76.9812	594.727	77.0359	594.727	75.8287	594.727	75.4604	594.727	74.621	594.727	73.9619	594.727	74.5758	594.727	74.1006	594.727	75.8144	594.727	75.588	594.727	77.0422	594.727	76.8782	594.727	77.7212	594.727	77.6047	594.727	77.8772
615.234	83.2149	615.234	83.1808	615.234	83.0699	615.234	82.9349	615.234	82.8274	615.234	82.507	615.234	82.5571	615.234	81.9788	615.234	82.2639	615.234	81.468	615.234	81.9205	615.234	81.0578	615.234	81.5546	615.234	80.6985	615.234	81.2325	615.234	80.2436	615.234	80.8864	615.234	79.5581	615.234	80.2644	615.234	78.5112	615.234	79.1494	615.234	76.9898	615.234	77.5682	615.234	75.1365	615.234	75.7428	615.234	73.7376	615.234	74.0199	615.234	73.7654	615.234	73.4523	615.234	74.8943	615.234	74.6827	615.234	76.1927	615.234	76.2784	615.234	77.1467	615.234	77.2757	615.234	77.5435
637.207	83.5835	637.207	83.464	637.207	83.5372	637.207	83.1933	637.207	83.3037	637.207	82.792	637.207	82.8703	637.207	82.2997	637.207	82.2642	637.207	81.7528	637.207	81.5875	637.207	81.2049	637.207	80.9978	637.207	80.7777	637.207	80.5829	637.207	80.5268	637.207	80.2746	637.207	80.2609	637.207	79.9242	637.207	79.6432	637.207	79.3565	637.207	78.3862	637.207	78.3879	637.207	76.4275	637.207	76.9677	637.207	74.3043	637.207	75.4895	637.207	73.5274	637.207	75.0532	637.207	74.7026	637.207	76.1132	637.207	76.3421	637.207	77.4218	637.207	77.4973	637.207	78.094	637.207	78.0743
659.18	84.0998	659.18	83.9451	659.18	84.0829	659.18	83.6194	659.18	83.8895	659.18	83.133	659.18	83.515	659.18	82.5203	659.18	82.9917	659.18	81.8602	659.18	82.3935	659.18	81.2505	659.18	81.7902	659.18	80.7463	659.18	81.2628	659.18	80.324	659.18	80.9012	659.18	79.8276	659.18	80.5963	659.18	79.012	659.18	79.999	659.18	77.7309	659.18	78.785	659.18	76.0461	659.18	76.8837	659.18	74.4257	659.18	74.9371	659.18	74.1475	659.18	74.4676	659.18	75.6308	659.18	75.4318	659.18	77.4268	659.18	76.7475	659.18	78.5545	659.18	77.9856	659.18	78.7155
682.617	84.6422	682.617	84.5126	682.617	84.5349	682.617	84.1646	682.617	84.22	682.617	83.6389	682.617	83.7478	682.617	82.9741	682.617	83.1525	682.617	82.247	682.617	82.4963	682.617	81.6197	682.617	81.9153	682.617	81.2116	682.617	81.4834	682.617	80.9262	682.617	81.098	682.617	80.5506	682.617	80.631	682.617	79.9014	682.617	80.0548	682.617	78.7939	682.617	79.2618	682.617	77.0583	682.617	77.8348	682.617	75.0538	682.617	75.4398	682.617	74.6277	682.617	73.6645	682.617	76.0982	682.617	75.1097	682.617	77.4755	682.617	77.1152	682.617	78.236	682.617	78.2171	682.617	78.5077
707.52	84.7053	707.52	84.5855	707.52	84.6803	707.52	84.3592	707.52	84.4326	707.52	83.9651	707.52	83.9509	707.52	83.3134	707.52	83.2888	707.52	82.4307	707.52	82.4922	707.52	81.5282	707.52	81.6616	707.52	80.756	707.52	81.0183	707.52	80.031	707.52	80.6493	707.52	79.4377	707.52	80.296	707.52	79.0013	707.52	79.5462	707.52	78.1203	707.52	78.1741	707.52	76.3895	707.52	76.3498	707.52	74.3525	707.52	74.3101	707.52	73.1696	707.52	72.7611	707.52	74.2834	707.52	73.9668	707.52	76.6184	707.52	76.3342	707.52	78.0719	707.52	77.8265	707.52	78.3893
732.422	84.5784	732.422	84.5042	732.422	84.4194	732.422	84.1303	732.422	84.1164	732.422	83.5175	732.422	83.6449	732.422	82.8221	732.422	82.9103	732.422	82.1176	732.422	81.9363	732.422	81.343	732.422	80.9177	732.422	80.7111	732.422	80.1121	732.422	80.5972	732.422	79.7099	732.422	80.5579	732.422	79.6368	732.422	79.8956	732.422	79.5148	732.422	78.4854	732.422	78.7854	732.422	76.4348	732.422	76.9589	732.422	73.885	732.422	74.4266	732.422	72.2859	732.422	73.1447	732.422	73.6273	732.422	73.9021	732.422	76.0714	732.422	76.0454	732.422	78.0116	732.422	78.0823	732.422	78.8003
757.324	84.2913	757.324	84.0722	757.324	84.2601	757.324	83.8061	757.324	83.8641	757.324	83.4935	757.324	83.2356	757.324	82.8853	757.324	82.6033	757.324	81.8656	757.324	81.9897	757.324	80.7521	757.324	81.2936	757.324	79.8845	757.324	80.6292	757.324	79.2285	757.324	80.2005	757.324	78.8557	757.324	80.0094	757.324	78.7028	757.324	79.8556	757.324	78.1202	757.324	79.1243	757.324	76.361	757.324	77.1384	757.324	72.9455	757.324	73.59	757.324	69.566	757.324	70.1685	757.324	72.6215	757.324	72.702	757.324	76.1838	757.324	75.8071	757.324	77.7618	757.324	77.3478	757.324	77.9538
785.156	83.9746	785.156	84.0366	785.156	83.6714	785.156	83.6162	785.156	83.4154	785.156	82.8191	785.156	83.1446	785.156	81.996	785.156	82.4753	785.156	81.2632	785.156	81.2719	785.156	80.4843	785.156	79.99	785.156	79.7038	785.156	79.1488	785.156	79.1577	785.156	78.8221	785.156	79.197	785.156	78.9142	785.156	79.59	785.156	79.0056	785.156	79.1989	785.156	78.8533	785.156	77.2225	785.156	78.4123	785.156	74.2566	785.156	76.9049	785.156	72.5952	785.156	73.7079	785.156	72.2916	785.156	71.2737	785.156	73.0154	785.156	72.8538	785.156	74.5015	785.156	74.7352	785.156	75.3208
811.523	84.1594	811.523	83.9002	811.523	84.0396	811.523	83.5441	811.523	83.5057	811.523	83.1368	811.523	82.8667	811.523	82.4736	811.523	82.2806	811.523	81.4455	811.523	81.491	811.523	80.0575	811.523	80.3236	811.523	78.6628	811.523	79.0788	811.523	78.0667	811.523	78.3504	811.523	78.0563	811.523	78.2232	811.523	78.1551	811.523	78.0046	811.523	78.287	811.523	77.2453	811.523	77.3546	811.523	75.9506	811.523	74.2083	811.523	74.0082	811.523	70.2803	811.523	71.404	811.523	72.3765	811.523	71.1584	811.523	75.127	811.523	74.5937	811.523	76.4895	811.523	76.8482	811.523	77.1932
840.82	84.0215	840.82	83.8869	840.82	83.927	840.82	83.5319	840.82	83.6489	840.82	83.0402	840.82	83.2263	840.82	82.3378	840.82	82.6661	840.82	81.1952	840.82	81.8352	840.82	79.6337	840.82	80.6235	840.82	78.0932	840.82	79.3251	840.82	77.2953	840.82	78.4329	840.82	77.5466	840.82	78.1257	840.82	77.8727	840.82	78.4464	840.82	77.6187	840.82	78.7325	840.82	77.0204	840.82	77.8034	840.82	75.3994	840.82	75.0646	840.82	71.6384	840.82	70.7118	840.82	70.8963	840.82	67.5657	840.82	74.4242	840.82	71.6114	840.82	76.1839	840.82	74.7967	840.82	76.2043
870.117	84.0751	870.117	84.1092	870.117	83.9571	870.117	83.8835	870.117	83.6723	870.117	83.2589	870.117	83.2057	870.117	82.4679	870.117	82.671	870.117	81.6773	870.117	81.9063	870.117	80.4967	870.117	80.6126	870.117	78.5353	870.117	78.9341	870.117	76.3947	870.117	77.3891	870.117	75.8665	870.117	76.4841	870.117	77.0227	870.117	76.6865	870.117	77.6239	870.117	77.0977	870.117	76.353	870.117	76.8477	870.117	73.0123	870.117	75.4543	870.117	69.2735	870.117	72.5408	870.117	71.2918	870.117	70.7773	870.117	74.1719	870.117	73.2235	870.117	76.2334	870.117	76.163	870.117	77.222
900.879	83.7592	900.879	83.5108	900.879	83.8179	900.879	83.1187	900.879	83.7225	900.879	82.6934	900.879	83.4144	900.879	82.1451	900.879	82.8658	900.879	81.2916	900.879	82.1292	900.879	80.1039	900.879	81.1188	900.879	78.7865	900.879	79.5573	900.879	77.6107	900.879	77.9804	900.879	76.3278	900.879	77.9566	900.879	75.489	900.879	77.7874	900.879	76.241	900.879	76.4039	900.879	76.1689	900.879	75.0685	900.879	73.7086	900.879	73.4243	900.879	68.564	900.879	69.4621	900.879	68.1209	900.879	67.5172	900.879	73.557	900.879	73.0632	900.879	75.8662	900.879	75.4808	900.879	76.2195
933.105	83.6873	933.105	83.4514	933.105	83.7279	933.105	83.1039	933.105	83.4839	933.105	82.7034	933.105	83.0068	933.105	82.2337	933.105	82.3186	933.105	81.5201	933.105	81.3747	933.105	80.5318	933.105	80.3114	933.105	79.3357	933.105	79.0094	933.105	78.0153	933.105	77.3498	933.105	77.3046	933.105	76.416	933.105	77.5617	933.105	77.0321	933.105	77.7642	933.105	78.1669	933.105	77.1324	933.105	78.3012	933.105	74.8387	933.105	76.0289	933.105	69.1347	933.105	71.602	933.105	67.7055	933.105	68.0641	933.105	71.8641	933.105	70.4116	933.105	73.9336	933.105	74.5417	933.105	75.3332
965.332	83.4744	965.332	83.5317	965.332	83.4289	965.332	83.4448	965.332	83.1923	965.332	82.9703	965.332	82.6744	965.332	82.1015	965.332	82.13	965.332	81.051	965.332	81.3681	965.332	79.9599	965.332	80.058	965.332	78.7352	965.332	78.5707	965.332	77.0763	965.332	77.3634	965.332	74.615	965.332	76.8092	965.332	74.0775	965.332	76.2691	965.332	76.0314	965.332	75.2793	965.332	76.136	965.332	75.0497	965.332	73.7839	965.332	73.8089	965.332	69.1597	965.332	69.5499	965.332	66.5826	965.332	65.0216	965.332	70.7254	965.332	71.6847	965.332	73.8641	965.332	75.1285	965.332	75.5483
1,000.49	83.0978	1,000.49	83.0101	1,000.49	83.1852	1,000.49	82.8244	1,000.49	83.0424	1,000.49	82.3878	1,000.49	82.5601	1,000.49	81.8837	1,000.49	81.8419	1,000.49	81.2147	1,000.49	80.7989	1,000.49	79.9407	1,000.49	79.4761	1,000.49	78.4219	1,000.49	78.04	1,000.49	76.9761	1,000.49	75.9319	1,000.49	75.2871	1,000.49	74.3343	1,000.49	75.7135	1,000.49	74.8295	1,000.49	77.241	1,000.49	76.0371	1,000.49	77.3131	1,000.49	77.262	1,000.49	76.036	1,000.49	75.7626	1,000.49	72.9982	1,000.49	71.3186	1,000.49	69.6432	1,000.49	67.3035	1,000.49	71.6357	1,000.49	68.0835	1,000.49	73.9541	1,000.49	73.3493	1,000.49	75.0187
1,035.64	82.7957	1,035.64	82.8072	1,035.64	82.6571	1,035.64	82.2721	1,035.64	82.3665	1,035.64	81.4096	1,035.64	81.4557	1,035.64	80.533	1,035.64	80.3064	1,035.64	79.5741	1,035.64	79.6047	1,035.64	78.7962	1,035.64	78.9789	1,035.64	77.6229	1,035.64	78.0901	1,035.64	76.3684	1,035.64	76.7126	1,035.64	75.333	1,035.64	74.7145	1,035.64	72.6735	1,035.64	73.9329	1,035.64	73.4913	1,035.64	73.1159	1,035.64	74.9117	1,035.64	72.9465	1,035.64	72.8266	1,035.64	74.0108	1,035.64	66.1208	1,035.64	72.2076	1,035.64	62.6679	1,035.64	67.6315	1,035.64	68.1024	1,035.64	70.0679	1,035.64	71.3435	1,035.64	73.377	1,035.64	73.9439
1,072.27	82.2384	1,072.27	81.9668	1,072.27	82.1423	1,072.27	81.5289	1,072.27	81.7137	1,072.27	81.0063	1,072.27	80.9979	1,072.27	80.4423	1,072.27	80.1399	1,072.27	79.5805	1,072.27	79.3605	1,072.27	78.3292	1,072.27	78.2563	1,072.27	77.3901	1,072.27	76.8137	1,072.27	75.9078	1,072.27	75.2445	1,072.27	73.9761	1,072.27	73.6373	1,072.27	72.8368	1,072.27	72.9801	1,072.27	72.9854	1,072.27	72.5045	1,072.27	74.0275	1,072.27	73.7981	1,072.27	73.3436	1,072.27	73.4796	1,072.27	70.5903	1,072.27	70.3018	1,072.27	66.1499	1,072.27	67.9497	1,072.27	70.0941	1,072.27	69.6515	1,072.27	73.3607	1,072.27	72.6985	1,072.27	74.1899
1,108.89	82.3927	1,108.89	81.831	1,108.89	82.6101	1,108.89	81.2883	1,108.89	82.2629	1,108.89	80.532	1,108.89	81.3472	1,108.89	79.2038	1,108.89	80.0866	1,108.89	78.0727	1,108.89	78.9546	1,108.89	77.2996	1,108.89	78.0001	1,108.89	76.0627	1,108.89	76.5702	1,108.89	75.2987	1,108.89	75.043	1,108.89	74.005	1,108.89	74.0106	1,108.89	71.5963	1,108.89	73.5272	1,108.89	73.0326	1,108.89	72.5735	1,108.89	73.4547	1,108.89	72.1672	1,108.89	71.5751	1,108.89	71.3807	1,108.89	68.0207	1,108.89	65.8572	1,108.89	64.4099	1,108.89	62.6247	1,108.89	65.5412	1,108.89	67.6887	1,108.89	70.257	1,108.89	72.4528	1,108.89	73.3275
1,148.44	82.4472	1,148.44	82.2299	1,148.44	81.9965	1,148.44	81.504	1,148.44	81.551	1,148.44	80.8574	1,148.44	81.2259	1,148.44	80.0568	1,148.44	80.4946	1,148.44	78.5303	1,148.44	79.7514	1,148.44	77.2553	1,148.44	78.8122	1,148.44	76.385	1,148.44	77.4731	1,148.44	74.1945	1,148.44	76.0352	1,148.44	72.6914	1,148.44	73.116	1,148.44	72.2111	1,148.44	72.3983	1,148.44	69.9395	1,148.44	72.2341	1,148.44	70.9052	1,148.44	71.9092	1,148.44	70.7684	1,148.44	72.5903	1,148.44	67.4511	1,148.44	70.3647	1,148.44	66.0963	1,148.44	65.4598	1,148.44	71.5967	1,148.44	67.0154	1,148.44	73.3796	1,148.44	71.8145	1,148.44	73.6616
1,189.45	82.471	1,189.45	81.9361	1,189.45	82.4693	1,189.45	81.7468	1,189.45	81.7366	1,189.45	81.3002	1,189.45	80.7116	1,189.45	80.1937	1,189.45	79.828	1,189.45	79.3877	1,189.45	78.9877	1,189.45	77.9937	1,189.45	78.0142	1,189.45	76.1262	1,189.45	77.6523	1,189.45	74.4351	1,189.45	76.6077	1,189.45	72.418	1,189.45	73.7925	1,189.45	71.0254	1,189.45	72.0224	1,189.45	71.2572	1,189.45	72.207	1,189.45	73.0953	1,189.45	72.7468	1,189.45	72.2886	1,189.45	74.235	1,189.45	69.2238	1,189.45	71.4917	1,189.45	63.3393	1,189.45	66.6316	1,189.45	68.002	1,189.45	68.936	1,189.45	71.9771	1,189.45	73.0064	1,189.45	73.8625
1,230.47	82.4348	1,230.47	82.1938	1,230.47	82.1219	1,230.47	81.6877	1,230.47	81.4056	1,230.47	80.8997	1,230.47	80.6148	1,230.47	79.9786	1,230.47	79.1973	1,230.47	78.9122	1,230.47	77.4904	1,230.47	77.7079	1,230.47	76.5171	1,230.47	76.1722	1,230.47	75.6376	1,230.47	75.212	1,230.47	75.5935	1,230.47	73.8999	1,230.47	74.4065	1,230.47	72.2978	1,230.47	72.7082	1,230.47	71.4463	1,230.47	71.5813	1,230.47	71.4924	1,230.47	71.1993	1,230.47	72.2922	1,230.47	72.1477	1,230.47	69.0899	1,230.47	69.555	1,230.47	64.0483	1,230.47	64.8611	1,230.47	68.4424	1,230.47	69.0935	1,230.47	71.8132	1,230.47	72.0025	1,230.47	73.8895
1,274.41	81.993	1,274.41	81.7117	1,274.41	82.0293	1,274.41	81.5648	1,274.41	81.725	1,274.41	80.9531	1,274.41	81.0367	1,274.41	79.8253	1,274.41	79.7906	1,274.41	79.0598	1,274.41	78.5707	1,274.41	77.7632	1,274.41	76.854	1,274.41	76.0643	1,274.41	75.206	1,274.41	75.1815	1,274.41	74.614	1,274.41	73.6497	1,274.41	72.6769	1,274.41	73.4014	1,274.41	70.926	1,274.41	71.3127	1,274.41	71.3122	1,274.41	72.3323	1,274.41	72.8248	1,274.41	72.8264	1,274.41	72.5567	1,274.41	69.5478	1,274.41	69.1823	1,274.41	63.7417	1,274.41	60.9774	1,274.41	66.1657	1,274.41	65.52	1,274.41	70.9994	1,274.41	70.7313	1,274.41	72.1405
1,319.82	81.5875	1,319.82	81.2642	1,319.82	81.7652	1,319.82	80.8393	1,319.82	81.3645	1,319.82	80.2103	1,319.82	80.6532	1,319.82	78.898	1,319.82	79.6879	1,319.82	77.6751	1,319.82	78.174	1,319.82	76.8408	1,319.82	76.8454	1,319.82	75.516	1,319.82	75.3097	1,319.82	74.4937	1,319.82	73.499	1,319.82	74.5352	1,319.82	71.181	1,319.82	72.0922	1,319.82	68.8847	1,319.82	69.4357	1,319.82	68.5338	1,319.82	70.8974	1,319.82	69.8427	1,319.82	71.5388	1,319.82	72.0593	1,319.82	69.9049	1,319.82	68.39	1,319.82	64.0587	1,319.82	62.7792	1,319.82	66.1812	1,319.82	65.3705	1,319.82	71.4534	1,319.82	69.8177	1,319.82	72.1811
1,366.7	81.0573	1,366.7	80.8602	1,366.7	80.7906	1,366.7	80.522	1,366.7	80.4289	1,366.7	79.7551	1,366.7	80.258	1,366.7	78.386	1,366.7	79.0891	1,366.7	77.0306	1,366.7	77.7025	1,366.7	76.4744	1,366.7	76.8849	1,366.7	75.7108	1,366.7	75.2272	1,366.7	75.1506	1,366.7	74.3647	1,366.7	74.0454	1,366.7	72.9282	1,366.7	69.464	1,366.7	69.5465	1,366.7	69.3099	1,366.7	66.5056	1,366.7	70.5997	1,366.7	68.1435	1,366.7	71.1843	1,366.7	70.6637	1,366.7	69.2308	1,366.7	70.4932	1,366.7	58.8533	1,366.7	66.2948	1,366.7	64.6968	1,366.7	62.683	1,366.7	70.5063	1,366.7	69.7946	1,366.7	71.8075
1,413.57	81.2132	1,413.57	81.1483	1,413.57	81.2031	1,413.57	80.5598	1,413.57	80.9013	1,413.57	79.9139	1,413.57	80.2635	1,413.57	78.9459	1,413.57	79.489	1,413.57	77.2899	1,413.57	78.0822	1,413.57	76.3081	1,413.57	76.7534	1,413.57	75.0373	1,413.57	74.6645	1,413.57	73.1516	1,413.57	73.6707	1,413.57	71.4761	1,413.57	71.8676	1,413.57	70.079	1,413.57	70.3802	1,413.57	68.1137	1,413.57	69.2549	1,413.57	69.2589	1,413.57	68.5628	1,413.57	71.5905	1,413.57	72.4151	1,413.57	69.1057	1,413.57	71.0738	1,413.57	63.6963	1,413.57	59.9664	1,413.57	62.93	1,413.57	62.0123	1,413.57	70.0657	1,413.57	68.669	1,413.57	71.437
1,463.38	82.1698	1,463.38	82.0611	1,463.38	81.6932	1,463.38	81.3318	1,463.38	81.2409	1,463.38	80.7153	1,463.38	80.6055	1,463.38	79.8255	1,463.38	79.9525	1,463.38	78.5879	1,463.38	78.9259	1,463.38	77.2553	1,463.38	77.723	1,463.38	76.3298	1,463.38	76.2576	1,463.38	74.9284	1,463.38	75.3699	1,463.38	73.0354	1,463.38	74.8893	1,463.38	71.4178	1,463.38	73.7721	1,463.38	67.6675	1,463.38	70.6425	1,463.38	69.4946	1,463.38	67.7097	1,463.38	71.5449	1,463.38	72.2971	1,463.38	70.7132	1,463.38	72.89	1,463.38	64.6235	1,463.38	66.5466	1,463.38	61.7986	1,463.38	61.8526	1,463.38	70.0869	1,463.38	69.469	1,463.38	72.6311
1,516.11	82.4004	1,516.11	82.1912	1,516.11	82.3094	1,516.11	81.5387	1,516.11	81.6318	1,516.11	80.5129	1,516.11	80.861	1,516.11	79.735	1,516.11	79.441	1,516.11	78.6487	1,516.11	78.0907	1,516.11	77.1846	1,516.11	77.2041	1,516.11	76.7049	1,516.11	75.7351	1,516.11	75.0792	1,516.11	74.1668	1,516.11	74.0337	1,516.11	72.1366	1,516.11	73.424	1,516.11	71.3997	1,516.11	71.2251	1,516.11	70.6717	1,516.11	69.9445	1,516.11	69.9823	1,516.11	71.3281	1,516.11	71.4065	1,516.11	72.2145	1,516.11	71.8464	1,516.11	69.1332	1,516.11	68.8191	1,516.11	52.4307	1,516.11	54.4446	1,516.11	68.299	1,516.11	65.7103	1,516.11	70.554
1,568.85	82.0722	1,568.85	82.0355	1,568.85	81.8363	1,568.85	81.1303	1,568.85	81.1864	1,568.85	80.1288	1,568.85	80.361	1,568.85	78.8555	1,568.85	78.4556	1,568.85	77.1466	1,568.85	77.0685	1,568.85	76.2702	1,568.85	76.5962	1,568.85	76.217	1,568.85	75.567	1,568.85	75.3425	1,568.85	74.6614	1,568.85	74.2612	1,568.85	72.9557	1,568.85	72.0788	1,568.85	72.1455	1,568.85	69.5279	1,568.85	70.4405	1,568.85	69.7739	1,568.85	67.4725	1,568.85	71.5984	1,568.85	69.089	1,568.85	71.9191	1,568.85	71.294	1,568.85	67.0307	1,568.85	66.865	1,568.85	58.7138	1,568.85	62.2573	1,568.85	65.8138	1,568.85	66.5044	1,568.85	69.4872
1,624.51	81.4857	1,624.51	80.6304	1,624.51	81.0789	1,624.51	80.2557	1,624.51	80.3665	1,624.51	79.7163	1,624.51	80.1418	1,624.51	78.5889	1,624.51	77.9206	1,624.51	77.192	1,624.51	76.6586	1,624.51	76.3882	1,624.51	75.3362	1,624.51	75.2376	1,624.51	73.0572	1,624.51	74.0312	1,624.51	73.2912	1,624.51	70.0589	1,624.51	70.9007	1,624.51	69.6417	1,624.51	69.7707	1,624.51	67.4164	1,624.51	64.2361	1,624.51	66.5293	1,624.51	65.9238	1,624.51	68.7887	1,624.51	68.1968	1,624.51	68.2208	1,624.51	69.9183	1,624.51	61.222	1,624.51	69.0644	1,624.51	57.0805	1,624.51	56.5419	1,624.51	65.8127	1,624.51	63.6802	1,624.51	68.5357
1,681.64	81.5235	1,681.64	81.4346	1,681.64	81.8158	1,681.64	80.5434	1,681.64	81.171	1,681.64	79.9826	1,681.64	79.6197	1,681.64	78.1394	1,681.64	78.4482	1,681.64	78.4629	1,681.64	77.3589	1,681.64	75.7983	1,681.64	76.1638	1,681.64	74.8849	1,681.64	74.114	1,681.64	72.0575	1,681.64	73.6451	1,681.64	71.6841	1,681.64	71.1047	1,681.64	68.702	1,681.64	71.7415	1,681.64	69.0722	1,681.64	69.3917	1,681.64	64.293	1,681.64	67.6112	1,681.64	66.8096	1,681.64	66.5495	1,681.64	70.1109	1,681.64	70.3636	1,681.64	68.1278	1,681.64	69.3978	1,681.64	49.6295	1,681.64	58.1072	1,681.64	66.4718	1,681.64	67.364	1,681.64	68.314
1,741.7	82.4043	1,741.7	82.1523	1,741.7	81.3068	1,741.7	81.4204	1,741.7	81.6424	1,741.7	80.4439	1,741.7	80.7751	1,741.7	79.5017	1,741.7	79.967	1,741.7	77.3944	1,741.7	79.2398	1,741.7	75.3165	1,741.7	77.4905	1,741.7	73.8637	1,741.7	76.2524	1,741.7	73.4464	1,741.7	74.8075	1,741.7	73.0227	1,741.7	74.2861	1,741.7	70.4652	1,741.7	72.742	1,741.7	68.518	1,741.7	71.5025	1,741.7	66.5452	1,741.7	64.32	1,741.7	70.0114	1,741.7	67.1601	1,741.7	71.8264	1,741.7	71.0514	1,741.7	70.0175	1,741.7	70.3548	1,741.7	59.2813	1,741.7	60.4413	1,741.7	60.9266	1,741.7	67.2251	1,741.7	68.1384
1,803.22	82.442	1,803.22	82.946	1,803.22	82.5272	1,803.22	81.8222	1,803.22	81.9614	1,803.22	81.1081	1,803.22	80.6705	1,803.22	79.7387	1,803.22	78.9822	1,803.22	79.3149	1,803.22	78.2728	1,803.22	76.8559	1,803.22	76.7723	1,803.22	75.4801	1,803.22	76.3311	1,803.22	73.7867	1,803.22	74.8412	1,803.22	72.7135	1,803.22	73.2273	1,803.22	71.7984	1,803.22	70.0992	1,803.22	70.9227	1,803.22	68.924	1,803.22	70.4053	1,803.22	70.2398	1,803.22	67.5226	1,803.22	67.0444	1,803.22	71.8968	1,803.22	70.6995	1,803.22	71.5257	1,803.22	69.37	1,803.22	67.2636	1,803.22	62.8767	1,803.22	67.0852	1,803.22	65.3598	1,803.22	69.2332
1,866.21	81.403	1,866.21	81.5219	1,866.21	81.5776	1,866.21	80.5351	1,866.21	80.8302	1,866.21	80.7362	1,866.21	79.9134	1,866.21	79.3481	1,866.21	78.6641	1,866.21	78.3373	1,866.21	77.6927	1,866.21	77.508	1,866.21	75.7265	1,866.21	75.6528	1,866.21	73.1795	1,866.21	74.9351	1,866.21	72.4118	1,866.21	73.1067	1,866.21	71.8313	1,866.21	73.125	1,866.21	72.2759	1,866.21	69.3295	1,866.21	69.1184	1,866.21	67.471	1,866.21	68.419	1,866.21	70.5405	1,866.21	64.7772	1,866.21	72.1574	1,866.21	69.6615	1,866.21	69.8432	1,866.21	68.4552	1,866.21	62.5302	1,866.21	66.1002	1,866.21	62.0165	1,866.21	63.1824	1,866.21	67.1556
1,932.13	80.948	1,932.13	80.881	1,932.13	81.0413	1,932.13	80.4155	1,932.13	80.8625	1,932.13	79.4734	1,932.13	80.1785	1,932.13	78.8339	1,932.13	79.1383	1,932.13	77.6751	1,932.13	77.5278	1,932.13	76.9249	1,932.13	76.7629	1,932.13	74.4077	1,932.13	74.7185	1,932.13	73.5148	1,932.13	73.1368	1,932.13	72.9378	1,932.13	71.2206	1,932.13	72.6683	1,932.13	70.3954	1,932.13	70.1488	1,932.13	68.2892	1,932.13	67.7222	1,932.13	66.5524	1,932.13	67.7588	1,932.13	65.2778	1,932.13	70.0606	1,932.13	69.5505	1,932.13	67.8111	1,932.13	70.5819	1,932.13	56.7529	1,932.13	62.4	1,932.13	66.6598	1,932.13	60.6852	1,932.13	68.1967
1,999.51	81.7581	1,999.51	81.6011	1,999.51	81.5556	1,999.51	81.2094	1,999.51	81.2392	1,999.51	80.7309	1,999.51	80.8344	1,999.51	80.0593	1,999.51	80.0278	1,999.51	78.7662	1,999.51	79.0239	1,999.51	77.1243	1,999.51	77.8609	1,999.51	75.6057	1,999.51	76.6368	1,999.51	73.196	1,999.51	74.2386	1,999.51	71.6566	1,999.51	72.2033	1,999.51	71.1359	1,999.51	70.918	1,999.51	70.2526	1,999.51	70.2742	1,999.51	67.7464	1,999.51	69.2704	1,999.51	67.139	1,999.51	67.9554	1,999.51	70.0996	1,999.51	71.3445	1,999.51	69.6376	1,999.51	70.9877	1,999.51	56.0828	1,999.51	63.9863	1,999.51	67.9778	1,999.51	64.7289	1,999.51	69.2576
2,069.82	81.6284	2,069.82	81.5768	2,069.82	81.3976	2,069.82	81.5105	2,069.82	81.1519	2,069.82	81.2919	2,069.82	80.6315	2,069.82	80.5704	2,069.82	79.8974	2,069.82	79.411	2,069.82	79.1278	2,069.82	78.1017	2,069.82	77.9616	2,069.82	76.4421	2,069.82	77.0579	2,069.82	74.8251	2,069.82	74.7145	2,069.82	73.0926	2,069.82	72.6412	2,069.82	72.6432	2,069.82	70.7638	2,069.82	70.3517	2,069.82	70.1584	2,069.82	69.1594	2,069.82	66.7073	2,069.82	67.5443	2,069.82	68.0761	2,069.82	70.3209	2,069.82	70.2001	2,069.82	70.9106	2,069.82	71.1338	2,069.82	62.2956	2,069.82	61.8298	2,069.82	69.2307	2,069.82	64.2941	2,069.82	69.668
2,143.07	80.7095	2,143.07	80.9499	2,143.07	80.7617	2,143.07	80.8366	2,143.07	80.3599	2,143.07	80.8802	2,143.07	79.8172	2,143.07	80.1774	2,143.07	79.267	2,143.07	79.354	2,143.07	78.2561	2,143.07	77.8967	2,143.07	77.0362	2,143.07	76.7149	2,143.07	76.398	2,143.07	75.1269	2,143.07	75.0255	2,143.07	72.5221	2,143.07	71.6691	2,143.07	71.8227	2,143.07	71.315	2,143.07	71.1398	2,143.07	70.1034	2,143.07	68.0947	2,143.07	67.4218	2,143.07	66.2324	2,143.07	66.465	2,143.07	68.9422	2,143.07	68.1421	2,143.07	69.7653	2,143.07	70.3842	2,143.07	59.6952	2,143.07	64.1231	2,143.07	65.4284	2,143.07	61.8842	2,143.07	67.9269
2,219.24	81.5905	2,219.24	80.978	2,219.24	81.4793	2,219.24	80.4046	2,219.24	80.8939	2,219.24	80.021	2,219.24	80.0917	2,219.24	80.1507	2,219.24	79.4417	2,219.24	79.0732	2,219.24	78.4321	2,219.24	77.0991	2,219.24	77.2895	2,219.24	76.0635	2,219.24	76.257	2,219.24	73.5471	2,219.24	75.1339	2,219.24	71.698	2,219.24	72.3552	2,219.24	69.7658	2,219.24	71.4221	2,219.24	67.612	2,219.24	70.9055	2,219.24	68.7098	2,219.24	68.1485	2,219.24	64.4895	2,219.24	66.8554	2,219.24	64.5355	2,219.24	68.5092	2,219.24	69.9229	2,219.24	70.4876	2,219.24	63.1075	2,219.24	64.1005	2,219.24	64.5727	2,219.24	49.6299	2,219.24	67.5853
2,296.88	82.3088	2,296.88	82.0714	2,296.88	81.9733	2,296.88	81.6097	2,296.88	81.5374	2,296.88	81.1045	2,296.88	80.8951	2,296.88	80.2604	2,296.88	80.2147	2,296.88	79.6107	2,296.88	79.3768	2,296.88	78.0206	2,296.88	77.9824	2,296.88	76.8366	2,296.88	76.9033	2,296.88	75.2073	2,296.88	75.1913	2,296.88	72.0838	2,296.88	74.0921	2,296.88	71.4759	2,296.88	72.1529	2,296.88	68.8275	2,296.88	71.3135	2,296.88	68.3136	2,296.88	68.991	2,296.88	68.0368	2,296.88	67.4324	2,296.88	65.2975	2,296.88	69.9211	2,296.88	68.9466	2,296.88	70.7411	2,296.88	64.9479	2,296.88	66.6447	2,296.88	56.5082	2,296.88	62.5001	2,296.88	64.1906
2,378.91	81.8922	2,378.91	81.6053	2,378.91	81.6622	2,378.91	81.4531	2,378.91	81.2822	2,378.91	81.2852	2,378.91	80.674	2,378.91	81.2403	2,378.91	79.7848	2,378.91	80.3358	2,378.91	79.0884	2,378.91	77.994	2,378.91	77.8405	2,378.91	76.8858	2,378.91	75.9395	2,378.91	75.7595	2,378.91	75.2579	2,378.91	73.4977	2,378.91	72.1965	2,378.91	71.7032	2,378.91	71.0825	2,378.91	71.737	2,378.91	69.5089	2,378.91	68.8561	2,378.91	69.4404	2,378.91	69.3777	2,378.91	66.3447	2,378.91	67.3164	2,378.91	67.3097	2,378.91	69.1318	2,378.91	71.3212	2,378.91	66.8278	2,378.91	66.5139	2,378.91	57.4557	2,378.91	60.6866	2,378.91	66.3822
2,462.4	80.8343	2,462.4	80.8711	2,462.4	80.8223	2,462.4	80.9056	2,462.4	81.0166	2,462.4	80.7399	2,462.4	80.85	2,462.4	80.2899	2,462.4	80.0072	2,462.4	79.9457	2,462.4	79.449	2,462.4	78.3908	2,462.4	78.5348	2,462.4	76.0383	2,462.4	76.7885	2,462.4	75.1516	2,462.4	75.5885	2,462.4	73.311	2,462.4	74.0409	2,462.4	70.8118	2,462.4	70.8726	2,462.4	71.5748	2,462.4	70.5612	2,462.4	69.0977	2,462.4	70.3212	2,462.4	68.5354	2,462.4	67.0496	2,462.4	67.1313	2,462.4	66.2248	2,462.4	70.6647	2,462.4	69.7585	2,462.4	67.2457	2,462.4	68.9444	2,462.4	63.4493	2,462.4	63.5656	2,462.4	69.3224
2,548.83	80.4431	2,548.83	81.2454	2,548.83	80.5324	2,548.83	81.4243	2,548.83	81.1913	2,548.83	81.3916	2,548.83	81.4342	2,548.83	80.0239	2,548.83	81.2371	2,548.83	79.6729	2,548.83	80.26	2,548.83	79.4228	2,548.83	78.5654	2,548.83	77.3802	2,548.83	77.5688	2,548.83	75.8356	2,548.83	75.743	2,548.83	72.2704	2,548.83	73.8795	2,548.83	70.8161	2,548.83	71.2283	2,548.83	69.7109	2,548.83	69.9855	2,548.83	69.4565	2,548.83	70.7582	2,548.83	68.3733	2,548.83	67.7953	2,548.83	62.9818	2,548.83	65.6074	2,548.83	69.3358	2,548.83	69.5199	2,548.83	68.1086	2,548.83	68.7449	2,548.83	61.8525	2,548.83	66.5255	2,548.83	67.0887
2,639.65	79.8287	2,639.65	80.7575	2,639.65	80.1125	2,639.65	81.032	2,639.65	80.6055	2,639.65	81.3595	2,639.65	80.5153	2,639.65	80.4588	2,639.65	80.6582	2,639.65	79.4542	2,639.65	79.9462	2,639.65	78.9815	2,639.65	77.8298	2,639.65	77.6238	2,639.65	76.024	2,639.65	76.2408	2,639.65	74.3368	2,639.65	73.3373	2,639.65	72.4972	2,639.65	70.8525	2,639.65	70.9608	2,639.65	68.7012	2,639.65	69.1783	2,639.65	69.96	2,639.65	68.7439	2,639.65	69.9787	2,639.65	67.5857	2,639.65	66.7847	2,639.65	64.6577	2,639.65	70.1657	2,639.65	68.9461	2,639.65	67.8701	2,639.65	66.0308	2,639.65	65.4717	2,639.65	61.9616	2,639.65	66.3724
2,731.93	80.4132	2,731.93	80.1682	2,731.93	80.355	2,731.93	81.0339	2,731.93	80.9387	2,731.93	81.1428	2,731.93	81.3514	2,731.93	80.4853	2,731.93	81.3578	2,731.93	79.3777	2,731.93	80.3597	2,731.93	78.1675	2,731.93	78.7223	2,731.93	76.2368	2,731.93	76.6333	2,731.93	73.2187	2,731.93	74.4381	2,731.93	72.7481	2,731.93	73.5409	2,731.93	69.1713	2,731.93	71.7608	2,731.93	67.9387	2,731.93	68.6102	2,731.93	68.7883	2,731.93	67.716	2,731.93	69.2689	2,731.93	68.6255	2,731.93	66.1582	2,731.93	64.6829	2,731.93	69.9122	2,731.93	67.9518	2,731.93	69.7629	2,731.93	66.3047	2,731.93	63.3344	2,731.93	62.4737	2,731.93	63.7662
2,828.61	80.6134	2,828.61	81.0913	2,828.61	80.7679	2,828.61	81.7582	2,828.61	81.0545	2,828.61	81.6081	2,828.61	81.5385	2,828.61	81.3358	2,828.61	81.4293	2,828.61	80.0276	2,828.61	80.4659	2,828.61	78.4267	2,828.61	78.9211	2,828.61	75.8289	2,828.61	76.9279	2,828.61	73.0743	2,828.61	75.2758	2,828.61	72.6346	2,828.61	74.1978	2,828.61	69.5311	2,828.61	71.776	2,828.61	68.2793	2,828.61	67.8903	2,828.61	68.3404	2,828.61	67.0101	2,828.61	69.2401	2,828.61	67.1528	2,828.61	65.1842	2,828.61	66.648	2,828.61	69.5846	2,828.61	68.2024	2,828.61	69.9089	2,828.61	66.7947	2,828.61	59.3622	2,828.61	62.2192	2,828.61	64.5739
2,928.22	79.4068	2,928.22	79.6872	2,928.22	79.8291	2,928.22	81.0771	2,928.22	80.2194	2,928.22	81.3519	2,928.22	80.9379	2,928.22	80.9782	2,928.22	80.2903	2,928.22	78.9607	2,928.22	79.4271	2,928.22	77.7309	2,928.22	78.3348	2,928.22	75.9316	2,928.22	75.8299	2,928.22	73.1569	2,928.22	73.7113	2,928.22	72.2961	2,928.22	70.9493	2,928.22	71.4249	2,928.22	70.7948	2,928.22	68.8119	2,928.22	66.1059	2,928.22	65.8622	2,928.22	66.6329	2,928.22	68.879	2,928.22	64.1034	2,928.22	66.4238	2,928.22	64.1649	2,928.22	68.6246	2,928.22	68.0047	2,928.22	70.1363	2,928.22	64.9776	2,928.22	58.4159	2,928.22	61.2044	2,928.22	63.1614
3,030.76	80.3329	3,030.76	80.7746	3,030.76	81.3619	3,030.76	81.2471	3,030.76	81.6454	3,030.76	81.3879	3,030.76	82.0868	3,030.76	81.4478	3,030.76	81.498	3,030.76	80.5074	3,030.76	80.1113	3,030.76	77.1252	3,030.76	78.1687	3,030.76	75.5218	3,030.76	75.7294	3,030.76	74.6553	3,030.76	74.1171	3,030.76	71.2863	3,030.76	71.6557	3,030.76	70.5201	3,030.76	71.0083	3,030.76	68.8272	3,030.76	68.6618	3,030.76	66.4007	3,030.76	68.2533	3,030.76	65.8823	3,030.76	66.2245	3,030.76	68.1282	3,030.76	64.1359	3,030.76	68.1169	3,030.76	67.2819	3,030.76	69.079	3,030.76	67.6895	3,030.76	64.5778	3,030.76	60.3486	3,030.76	59.6519
3,137.7	81.0483	3,137.7	81.4059	3,137.7	80.7296	3,137.7	81.7157	3,137.7	81.4078	3,137.7	82.1409	3,137.7	81.9051	3,137.7	81.8847	3,137.7	81.7382	3,137.7	80.9799	3,137.7	80.4399	3,137.7	79.0369	3,137.7	78.9301	3,137.7	77.2337	3,137.7	76.1874	3,137.7	74.7552	3,137.7	74.0156	3,137.7	71.2264	3,137.7	73.0301	3,137.7	69.4128	3,137.7	70.9861	3,137.7	67.9177	3,137.7	71.3081	3,137.7	67.7949	3,137.7	67.9223	3,137.7	64.3431	3,137.7	68.9744	3,137.7	66.4874	3,137.7	66.1011	3,137.7	68.9699	3,137.7	66.9061	3,137.7	68.9278	3,137.7	68.0389	3,137.7	66.6833	3,137.7	60.9171	3,137.7	60.2152
3,249.02	81.0012	3,249.02	81.2472	3,249.02	80.4662	3,249.02	81.5774	3,249.02	81.6016	3,249.02	82.3662	3,249.02	81.8482	3,249.02	82.085	3,249.02	81.5328	3,249.02	80.0544	3,249.02	80.2851	3,249.02	78.4144	3,249.02	78.7582	3,249.02	76.7409	3,249.02	76.6483	3,249.02	72.7409	3,249.02	73.9154	3,249.02	70.8003	3,249.02	71.6535	3,249.02	67.6092	3,249.02	68.1561	3,249.02	67.4516	3,249.02	68.937	3,249.02	67.4408	3,249.02	67.0472	3,249.02	67.8684	3,249.02	68.7204	3,249.02	63.5031	3,249.02	66.6149	3,249.02	67.6426	3,249.02	64.6374	3,249.02	68.6358	3,249.02	66.8336	3,249.02	63.8953	3,249.02	61.8376	3,249.02	60.7849
3,363.28	80.7319	3,363.28	81.0071	3,363.28	80.4437	3,363.28	82.0749	3,363.28	81.1057	3,363.28	82.3883	3,363.28	81.6814	3,363.28	82.2485	3,363.28	81.7042	3,363.28	80.222	3,363.28	80.4798	3,363.28	78.8197	3,363.28	78.9447	3,363.28	76.0576	3,363.28	77.128	3,363.28	74.4058	3,363.28	74.7402	3,363.28	71.23	3,363.28	71.9391	3,363.28	69.9195	3,363.28	69.8017	3,363.28	66.9394	3,363.28	68.6081	3,363.28	67.0132	3,363.28	66.931	3,363.28	68.1525	3,363.28	65.613	3,363.28	62.7762	3,363.28	70.0286	3,363.28	67.4977	3,363.28	68.3412	3,363.28	68.4571	3,363.28	66.6219	3,363.28	60.5082	3,363.28	63.6328	3,363.28	61.405
3,481.93	80.8606	3,481.93	81.1501	3,481.93	81.4933	3,481.93	81.991	3,481.93	81.9409	3,481.93	82.4523	3,481.93	82.387	3,481.93	81.488	3,481.93	81.806	3,481.93	80.3343	3,481.93	81.7891	3,481.93	78.7761	3,481.93	79.0706	3,481.93	76.405	3,481.93	77.4389	3,481.93	74.616	3,481.93	75.4092	3,481.93	72.3778	3,481.93	72.2558	3,481.93	69.9939	3,481.93	69.5228	3,481.93	65.7485	3,481.93	70.3616	3,481.93	68.7707	3,481.93	66.0321	3,481.93	67.0854	3,481.93	66.7585	3,481.93	69.1019	3,481.93	67.7493	3,481.93	67.3808	3,481.93	72.3696	3,481.93	67.692	3,481.93	69.472	3,481.93	57.9151	3,481.93	61.7168	3,481.93	62.908
3,604.98	81.5843	3,604.98	82.2812	3,604.98	81.7583	3,604.98	82.5676	3,604.98	81.9014	3,604.98	82.0726	3,604.98	82.2675	3,604.98	81.2508	3,604.98	81.4485	3,604.98	80.1308	3,604.98	80.6801	3,604.98	77.7833	3,604.98	78.8479	3,604.98	76.1729	3,604.98	77.1937	3,604.98	74.1006	3,604.98	75.4383	3,604.98	72.3659	3,604.98	72.6052	3,604.98	69.3944	3,604.98	69.8749	3,604.98	68.3028	3,604.98	69.1481	3,604.98	65.9407	3,604.98	67.9318	3,604.98	67.6281	3,604.98	65.8054	3,604.98	68.008	3,604.98	66.512	3,604.98	65.9085	3,604.98	70.0562	3,604.98	69.3772	3,604.98	71.2409	3,604.98	60.0541	3,604.98	64.6335	3,604.98	64.3509
3,732.42	82.301	3,732.42	82.8667	3,732.42	81.8572	3,732.42	82.6653	3,732.42	82.4331	3,732.42	81.9813	3,732.42	82.7001	3,732.42	80.631	3,732.42	82.4211	3,732.42	81.3726	3,732.42	80.626	3,732.42	79.1564	3,732.42	78.9349	3,732.42	77.0898	3,732.42	77.0628	3,732.42	75.2093	3,732.42	74.1691	3,732.42	73.7255	3,732.42	71.7664	3,732.42	70.6478	3,732.42	69.7229	3,732.42	68.1258	3,732.42	67.4922	3,732.42	68.0911	3,732.42	68.2955	3,732.42	67.2802	3,732.42	66.1037	3,732.42	69.7143	3,732.42	65.1567	3,732.42	69.2607	3,732.42	68.3801	3,732.42	69.8897	3,732.42	69.2371	3,732.42	65.735	3,732.42	60.7893	3,732.42	63.7547
3,864.26	82.6237	3,864.26	82.7932	3,864.26	82.3036	3,864.26	83.0704	3,864.26	82.8237	3,864.26	82.5846	3,864.26	82.3392	3,864.26	82.2123	3,864.26	82.1787	3,864.26	80.9886	3,864.26	80.5902	3,864.26	79.7188	3,864.26	79.2714	3,864.26	77.5569	3,864.26	78.0843	3,864.26	75.0299	3,864.26	74.2152	3,864.26	73.7323	3,864.26	74.1735	3,864.26	70.1971	3,864.26	70.2229	3,864.26	69.9463	3,864.26	68.7492	3,864.26	70.8421	3,864.26	66.7397	3,864.26	68.1242	3,864.26	65.4695	3,864.26	68.8192	3,864.26	66.8403	3,864.26	69.9541	3,864.26	68.4535	3,864.26	70.3563	3,864.26	69.2621	3,864.26	66.273	3,864.26	64.2904	3,864.26	66.6298
4,000.49	82.8555	4,000.49	83.1119	4,000.49	82.8942	4,000.49	83.0201	4,000.49	82.1804	4,000.49	83.2141	4,000.49	82.159	4,000.49	83.2033	4,000.49	81.4527	4,000.49	81.0794	4,000.49	80.088	4,000.49	80.1926	4,000.49	80.0321	4,000.49	78.1236	4,000.49	77.7298	4,000.49	75.7863	4,000.49	75.16	4,000.49	73.3603	4,000.49	74.0533	4,000.49	71.5839	4,000.49	71.5117	4,000.49	68.1862	4,000.49	69.121	4,000.49	68.9974	4,000.49	67.7845	4,000.49	68.4297	4,000.49	67.6297	4,000.49	67.1659	4,000.49	67.5492	4,000.49	67.2367	4,000.49	65.0704	4,000.49	69.0191	4,000.49	66.95	4,000.49	63.9736	4,000.49	64.1263	4,000.49	62.3911
4,141.11	83.3127	4,141.11	81.6866	4,141.11	83.8019	4,141.11	82.2183	4,141.11	82.3025	4,141.11	82.901	4,141.11	82.1441	4,141.11	81.735	4,141.11	81.9725	4,141.11	80.9273	4,141.11	81.7819	4,141.11	79.7637	4,141.11	80.3501	4,141.11	78.9449	4,141.11	78.4363	4,141.11	76.8281	4,141.11	76.3377	4,141.11	74.2879	4,141.11	74.2313	4,141.11	72.2199	4,141.11	72.6638	4,141.11	69.083	4,141.11	69.1753	4,141.11	67.2269	4,141.11	69.8115	4,141.11	69.4968	4,141.11	66.9395	4,141.11	63.8396	4,141.11	69.0275	4,141.11	66.3319	4,141.11	70.6896	4,141.11	67.8828	4,141.11	69.315	4,141.11	62.7454	4,141.11	64.6566	4,141.11	61.6681
4,287.6	83.625	4,287.6	83.1291	4,287.6	82.4514	4,287.6	82.5857	4,287.6	82.4139	4,287.6	82.2001	4,287.6	81.4108	4,287.6	81.9112	4,287.6	82.3358	4,287.6	81.96	4,287.6	82.0462	4,287.6	81.3882	4,287.6	79.3804	4,287.6	79.2206	4,287.6	77.3404	4,287.6	76.9737	4,287.6	75.7532	4,287.6	72.7581	4,287.6	73.2011	4,287.6	69.6064	4,287.6	70.9882	4,287.6	68.1094	4,287.6	68.4885	4,287.6	67.1127	4,287.6	69.2718	4,287.6	68.656	4,287.6	64.5081	4,287.6	66.2491	4,287.6	67.4489	4,287.6	67.6288	4,287.6	71.1318	4,287.6	68.3208	4,287.6	68.7273	4,287.6	61.8842	4,287.6	65.8722	4,287.6	62.5842
4,438.48	84.232	4,438.48	84.4983	4,438.48	83.4323	4,438.48	82.1777	4,438.48	82.9956	4,438.48	82.2305	4,438.48	82.8807	4,438.48	83.6737	4,438.48	81.9159	4,438.48	82.7483	4,438.48	81.5481	4,438.48	80.0718	4,438.48	80.2038	4,438.48	78.0361	4,438.48	78.3165	4,438.48	74.7953	4,438.48	77.4221	4,438.48	73.6955	4,438.48	73.4698	4,438.48	72.2243	4,438.48	72.4218	4,438.48	71.4296	4,438.48	69.632	4,438.48	66.2329	4,438.48	69.3123	4,438.48	70.6238	4,438.48	67.3054	4,438.48	69.9481	4,438.48	69.3094	4,438.48	67.8166	4,438.48	68.8674	4,438.48	69.0525	4,438.48	70.116	4,438.48	59.6438	4,438.48	66.856	4,438.48	60.3652
4,595.21	85.0868	4,595.21	83.7647	4,595.21	84.6246	4,595.21	84.1183	4,595.21	82.0117	4,595.21	83.4119	4,595.21	82.1611	4,595.21	83.4874	4,595.21	80.5806	4,595.21	83.2527	4,595.21	80.3369	4,595.21	81.7005	4,595.21	79.7933	4,595.21	79.0352	4,595.21	78.6277	4,595.21	76.1946	4,595.21	75.4065	4,595.21	74.0954	4,595.21	73.7693	4,595.21	72.5748	4,595.21	70.2551	4,595.21	68.8614	4,595.21	68.8143	4,595.21	68.397	4,595.21	67.3549	4,595.21	68.2123	4,595.21	62.4447	4,595.21	68.3669	4,595.21	66.4785	4,595.21	65.0232	4,595.21	65.5568	4,595.21	70.1508	4,595.21	67.9679	4,595.21	65.7861	4,595.21	63.3908	4,595.21	58.9278
4,756.35	85.5963	4,756.35	84.4492	4,756.35	84.7315	4,756.35	82.9401	4,756.35	83.0098	4,756.35	82.4538	4,756.35	81.0764	4,756.35	81.7048	4,756.35	82.1645	4,756.35	80.4529	4,756.35	81.6754	4,756.35	79.9944	4,756.35	80.0761	4,756.35	77.8361	4,756.35	77.8918	4,756.35	75.5625	4,756.35	76.8099	4,756.35	70.7402	4,756.35	72.3133	4,756.35	70.1079	4,756.35	70.4968	4,756.35	70.5381	4,756.35	67.8128	4,756.35	67.9046	4,756.35	67.9727	4,756.35	68.7795	4,756.35	64.0546	4,756.35	66.1213	4,756.35	67.8057	4,756.35	66.8527	4,756.35	66.3168	4,756.35	70.6317	4,756.35	67.5916	4,756.35	58.7219	4,756.35	64.3696	4,756.35	58.1816
4,924.8	84.7959	4,924.8	83.8236	4,924.8	84.376	4,924.8	81.3902	4,924.8	82.7236	4,924.8	81.9392	4,924.8	81.8229	4,924.8	82.0168	4,924.8	81.8916	4,924.8	81.3697	4,924.8	81.2806	4,924.8	80.845	4,924.8	79.2826	4,924.8	78.7511	4,924.8	76.639	4,924.8	76.2952	4,924.8	73.5992	4,924.8	75.9734	4,924.8	73.077	4,924.8	70.0106	4,924.8	70.1697	4,924.8	71.108	4,924.8	67.0269	4,924.8	67.5423	4,924.8	68.0944	4,924.8	70.6221	4,924.8	59.0352	4,924.8	66.1888	4,924.8	66.4401	4,924.8	64.9795	4,924.8	67.2715	4,924.8	69.337	4,924.8	57.8247	4,924.8	65.1085	4,924.8	61.613	4,924.8	58.0299
5,097.66	85.9821	5,097.66	84.7273	5,097.66	85.201	5,097.66	84.5847	5,097.66	82.5216	5,097.66	82.861	5,097.66	81.684	5,097.66	83.2541	5,097.66	81.0092	5,097.66	81.9358	5,097.66	80.479	5,097.66	79.3824	5,097.66	79.3404	5,097.66	76.5236	5,097.66	77.7202	5,097.66	75.1529	5,097.66	74.5221	5,097.66	73.6737	5,097.66	72.0269	5,097.66	71.7672	5,097.66	70.418	5,097.66	68.7472	5,097.66	66.8329	5,097.66	64.7799	5,097.66	66.724	5,097.66	68.2856	5,097.66	68.4782	5,097.66	68.7176	5,097.66	68.8145	5,097.66	64.9316	5,097.66	67.2655	5,097.66	68.2865	5,097.66	64.0154	5,097.66	62.656	5,097.66	63.1413	5,097.66	54.0383
5,277.83	84.8739	5,277.83	84.0668	5,277.83	83.4127	5,277.83	82.2807	5,277.83	82.6018	5,277.83	81.8975	5,277.83	80.6806	5,277.83	81.8522	5,277.83	80.9488	5,277.83	81.384	5,277.83	81.4387	5,277.83	79.4266	5,277.83	79.7	5,277.83	78.2155	5,277.83	77.6625	5,277.83	76.9121	5,277.83	76.4848	5,277.83	73.6858	5,277.83	71.6945	5,277.83	72.3426	5,277.83	71.2149	5,277.83	69.6387	5,277.83	69.2738	5,277.83	66.5987	5,277.83	68.791	5,277.83	67.1531	5,277.83	69.9514	5,277.83	66.3135	5,277.83	70.2611	5,277.83	66.8016	5,277.83	69.0137	5,277.83	67.983	5,277.83	65.0627	5,277.83	63.434	5,277.83	64.8913	5,277.83	53.0713
5,463.87	84.884	5,463.87	84.2126	5,463.87	84.4427	5,463.87	82.1169	5,463.87	82.1739	5,463.87	81.959	5,463.87	81.6148	5,463.87	82.0809	5,463.87	80.6692	5,463.87	81.9702	5,463.87	80.0731	5,463.87	81.0737	5,463.87	80.0827	5,463.87	80.0013	5,463.87	78.8042	5,463.87	76.9786	5,463.87	75.0395	5,463.87	74.5353	5,463.87	73.6805	5,463.87	67.948	5,463.87	70.1695	5,463.87	67.4297	5,463.87	70.1942	5,463.87	66.8293	5,463.87	67.4855	5,463.87	68.753	5,463.87	68.7864	5,463.87	61.8219	5,463.87	68.0711	5,463.87	65.3821	5,463.87	68.857	5,463.87	68.9357	5,463.87	65.3013	5,463.87	63.7599	5,463.87	64.5706	5,463.87	55.2557
5,657.23	84.7504	5,657.23	84.1161	5,657.23	84.4931	5,657.23	83.3757	5,657.23	82.5077	5,657.23	82.2992	5,657.23	80.9727	5,657.23	82.4123	5,657.23	80.2783	5,657.23	81.5653	5,657.23	79.2811	5,657.23	80.1388	5,657.23	78.4025	5,657.23	77.3034	5,657.23	76.2608	5,657.23	74.8137	5,657.23	75.4774	5,657.23	72.4784	5,657.23	73.7765	5,657.23	70.1536	5,657.23	69.6791	5,657.23	67.857	5,657.23	68.222	5,657.23	65.9899	5,657.23	68.3095	5,657.23	70.8314	5,657.23	65.2338	5,657.23	67.4927	5,657.23	68.1631	5,657.23	66.3997	5,657.23	67.0972	5,657.23	69.0205	5,657.23	61.996	5,657.23	63.0851	5,657.23	63.3814	5,657.23	55.8696
5,856.45	84.508	5,856.45	84.1057	5,856.45	83.3742	5,856.45	83.0637	5,856.45	82.8815	5,856.45	83.0032	5,856.45	80.9054	5,856.45	81.9433	5,856.45	81.7396	5,856.45	81.5097	5,856.45	81.277	5,856.45	80.5102	5,856.45	79.4106	5,856.45	77.9815	5,856.45	77.7352	5,856.45	76.008	5,856.45	76.9208	5,856.45	73.3198	5,856.45	73.4075	5,856.45	71.6792	5,856.45	71.4141	5,856.45	70.0288	5,856.45	69.2556	5,856.45	68.3407	5,856.45	67.0385	5,856.45	67.3326	5,856.45	67.2843	5,856.45	66.7688	5,856.45	68.4347	5,856.45	66.224	5,856.45	68.0682	5,856.45	69.2023	5,856.45	64.2333	5,856.45	62.5228	5,856.45	64.1583	5,856.45	59.1245
6,062.99	83.6055	6,062.99	83.7293	6,062.99	83.7218	6,062.99	82.9935	6,062.99	82.1312	6,062.99	81.6805	6,062.99	82.1554	6,062.99	81.1006	6,062.99	80.1458	6,062.99	81.0903	6,062.99	80.0245	6,062.99	80.3397	6,062.99	79.5413	6,062.99	79.3353	6,062.99	78.1385	6,062.99	75.99	6,062.99	75.5933	6,062.99	73.9509	6,062.99	73.0459	6,062.99	69.6042	6,062.99	70.4856	6,062.99	69.0317	6,062.99	67.6099	6,062.99	64.17	6,062.99	66.5302	6,062.99	66.7	6,062.99	60.8808	6,062.99	65.6891	6,062.99	65.1276	6,062.99	65.0722	6,062.99	66.5289	6,062.99	67.3437	6,062.99	67.2486	6,062.99	61.8864	6,062.99	65.6064	6,062.99	60.5231
6,276.86	83.3526	6,276.86	83.7232	6,276.86	82.6456	6,276.86	83.3434	6,276.86	82.5309	6,276.86	81.9364	6,276.86	80.3759	6,276.86	81.5499	6,276.86	80.2027	6,276.86	80.938	6,276.86	80.5605	6,276.86	80.1175	6,276.86	79.3369	6,276.86	77.9228	6,276.86	76.9509	6,276.86	76.0642	6,276.86	75.4041	6,276.86	72.777	6,276.86	72.8326	6,276.86	69.9243	6,276.86	70.0179	6,276.86	66.9908	6,276.86	67.7235	6,276.86	64.3751	6,276.86	65.3476	6,276.86	67.7548	6,276.86	67.3118	6,276.86	65.8834	6,276.86	65.5563	6,276.86	66.0569	6,276.86	65.4938	6,276.86	66.3922	6,276.86	65.6332	6,276.86	60.501	6,276.86	65.1435	6,276.86	61.3583
6,498.05	82.487	6,498.05	83.2617	6,498.05	83.0974	6,498.05	82.8329	6,498.05	82.8814	6,498.05	80.7709	6,498.05	80.9096	6,498.05	80.1641	6,498.05	79.259	6,498.05	80.3704	6,498.05	80.4788	6,498.05	78.6443	6,498.05	80.0098	6,498.05	76.4804	6,498.05	79.2329	6,498.05	74.9364	6,498.05	76.2534	6,498.05	71.0728	6,498.05	72.2361	6,498.05	69.6843	6,498.05	71.188	6,498.05	65.4994	6,498.05	68.6764	6,498.05	63.3009	6,498.05	64.9875	6,498.05	61.4383	6,498.05	67.606	6,498.05	61.8677	6,498.05	66.3692	6,498.05	65.9591	6,498.05	63.6087	6,498.05	64.5256	6,498.05	65.7401	6,498.05	61.2238	6,498.05	65.2084	6,498.05	63.4843
6,726.56	81.7423	6,726.56	82.6218	6,726.56	82.3752	6,726.56	82.2444	6,726.56	82.6507	6,726.56	79.4767	6,726.56	80.1744	6,726.56	79.1025	6,726.56	79.3949	6,726.56	79.3232	6,726.56	79.008	6,726.56	78.6245	6,726.56	79.8587	6,726.56	77.3023	6,726.56	78.2424	6,726.56	74.4533	6,726.56	75.6397	6,726.56	71.887	6,726.56	73.1208	6,726.56	68.7943	6,726.56	70.5447	6,726.56	66.4657	6,726.56	65.4232	6,726.56	63.2339	6,726.56	65.9854	6,726.56	62.7004	6,726.56	63.7352	6,726.56	64.414	6,726.56	64.7717	6,726.56	64.4557	6,726.56	63.9174	6,726.56	64.6281	6,726.56	67.1388	6,726.56	62.1327	6,726.56	62.0607	6,726.56	63.448
6,963.87	80.9979	6,963.87	81.8218	6,963.87	81.7381	6,963.87	80.9896	6,963.87	81.667	6,963.87	78.2439	6,963.87	79.3951	6,963.87	77.351	6,963.87	78.5134	6,963.87	78.0514	6,963.87	79.845	6,963.87	78.6172	6,963.87	79.0837	6,963.87	77.1332	6,963.87	77.5816	6,963.87	74.0659	6,963.87	75.7285	6,963.87	72.8915	6,963.87	73.1588	6,963.87	67.5593	6,963.87	68.9851	6,963.87	65.1012	6,963.87	66.0325	6,963.87	61.9946	6,963.87	67.0565	6,963.87	61.3989	6,963.87	61.787	6,963.87	63.6764	6,963.87	59.9764	6,963.87	64.4909	6,963.87	65.9263	6,963.87	64.4566	6,963.87	66.4213	6,963.87	61.2958	6,963.87	58.6853	6,963.87	61.1626
7,209.96	81.4101	7,209.96	81.6874	7,209.96	82.0662	7,209.96	80.8827	7,209.96	81.2808	7,209.96	78.9272	7,209.96	80.3071	7,209.96	77.9137	7,209.96	79.0426	7,209.96	79.3515	7,209.96	79.0891	7,209.96	78.2131	7,209.96	79.5605	7,209.96	76.5728	7,209.96	77.763	7,209.96	73.9331	7,209.96	75.747	7,209.96	71.1115	7,209.96	72.7414	7,209.96	68.4878	7,209.96	69.3468	7,209.96	65.4764	7,209.96	67.0923	7,209.96	64.5411	7,209.96	62.9102	7,209.96	59.4634	7,209.96	61.625	7,209.96	62.6688	7,209.96	61.8696	7,209.96	64.9947	7,209.96	66.1101	7,209.96	66.347	7,209.96	66.7647	7,209.96	60.4125	7,209.96	59.9956	7,209.96	61.3819
7,464.84	82.5496	7,464.84	82.2422	7,464.84	82.2977	7,464.84	81.4853	7,464.84	82.4235	7,464.84	80.3292	7,464.84	80.8655	7,464.84	78.657	7,464.84	80.1213	7,464.84	78.8301	7,464.84	79.9678	7,464.84	77.9784	7,464.84	78.8712	7,464.84	75.7207	7,464.84	76.8344	7,464.84	74.6393	7,464.84	75.5911	7,464.84	70.5802	7,464.84	72.1231	7,464.84	68.2002	7,464.84	69.6254	7,464.84	66.0338	7,464.84	66.0289	7,464.84	62.8553	7,464.84	62.2301	7,464.84	57.6328	7,464.84	64.7317	7,464.84	60.6127	7,464.84	58.6046	7,464.84	64.5525	7,464.84	65.6867	7,464.84	65.4857	7,464.84	64.5732	7,464.84	58.1301	7,464.84	52.113	7,464.84	60.0942
7,727.05	82.864	7,727.05	82.5961	7,727.05	83.0225	7,727.05	82.1114	7,727.05	82.8893	7,727.05	80.745	7,727.05	81.9816	7,727.05	78.9646	7,727.05	79.7859	7,727.05	77.9833	7,727.05	79.1793	7,727.05	78.1267	7,727.05	78.8242	7,727.05	75.9924	7,727.05	77.2716	7,727.05	73.6185	7,727.05	74.6079	7,727.05	70.5648	7,727.05	71.0153	7,727.05	67.7853	7,727.05	69.1045	7,727.05	63.7408	7,727.05	65.8479	7,727.05	62.8171	7,727.05	62.167	7,727.05	58.0874	7,727.05	63.3269	7,727.05	60.8733	7,727.05	58.8461	7,727.05	61.1873	7,727.05	63.5302	7,727.05	63.6753	7,727.05	63.6496	7,727.05	57.9985	7,727.05	54.4696	7,727.05	58.6407
7,999.51	83.7763	7,999.51	82.8027	7,999.51	83.3338	7,999.51	82.3568	7,999.51	82.9795	7,999.51	81.0288	7,999.51	82.0942	7,999.51	78.8429	7,999.51	80.2375	7,999.51	77.677	7,999.51	79.3966	7,999.51	76.8637	7,999.51	78.3178	7,999.51	75.2782	7,999.51	76.3563	7,999.51	72.8658	7,999.51	74.1034	7,999.51	69.6885	7,999.51	70.0643	7,999.51	64.9808	7,999.51	66.3451	7,999.51	64.2015	7,999.51	63.7443	7,999.51	59.3507	7,999.51	61.9615	7,999.51	53.9808	7,999.51	61.2438	7,999.51	60.5155	7,999.51	60.6353	7,999.51	62.1961	7,999.51	60.2046	7,999.51	62.4437	7,999.51	60.0748	7,999.51	53.2051	7,999.51	55.1877	7,999.51	59.6302
8,282.23	84.0358	8,282.23	82.7506	8,282.23	83.5503	8,282.23	82.4121	8,282.23	82.9987	8,282.23	81.0846	8,282.23	82.322	8,282.23	78.2563	8,282.23	79.8202	8,282.23	76.7471	8,282.23	78.6201	8,282.23	76.4073	8,282.23	77.5617	8,282.23	74.3979	8,282.23	75.7985	8,282.23	70.4717	8,282.23	72.4042	8,282.23	66.5797	8,282.23	68.7081	8,282.23	62.6021	8,282.23	65.0592	8,282.23	61.2863	8,282.23	61.919	8,282.23	57.9141	8,282.23	59.9413	8,282.23	55.8288	8,282.23	55.8982	8,282.23	57.2998	8,282.23	57.2934	8,282.23	60.3284	8,282.23	57.8061	8,282.23	60.0318	8,282.23	60.6363	8,282.23	50.1897	8,282.23	48.9973	8,282.23	57.9889
8,573.73	83.8234	8,573.73	82.8111	8,573.73	83.4313	8,573.73	82.2699	8,573.73	82.8569	8,573.73	80.7712	8,573.73	82.1141	8,573.73	77.6457	8,573.73	79.8786	8,573.73	76.7418	8,573.73	78.3296	8,573.73	75.4694	8,573.73	76.9272	8,573.73	73.3605	8,573.73	74.5215	8,573.73	68.9043	8,573.73	71.0299	8,573.73	64.762	8,573.73	67.3997	8,573.73	62.5919	8,573.73	63.6949	8,573.73	56.916	8,573.73	59.6322	8,573.73	56.9465	8,573.73	53.3115	8,573.73	55.1714	8,573.73	53.5852	8,573.73	54.5903	8,573.73	54.783	8,573.73	58.0625	8,573.73	58.9974	8,573.73	57.8748	8,573.73	60.0936	8,573.73	50.8612	8,573.73	52.4197	8,573.73	56.875
8,876.95	83.7373	8,876.95	82.8487	8,876.95	83.3107	8,876.95	82.1548	8,876.95	82.8292	8,876.95	80.8829	8,876.95	81.7759	8,876.95	78.2644	8,876.95	79.6744	8,876.95	76.6615	8,876.95	77.5241	8,876.95	74.5397	8,876.95	76.2366	8,876.95	70.8381	8,876.95	73.3047	8,876.95	68.4142	8,876.95	70.0429	8,876.95	64.7535	8,876.95	65.7967	8,876.95	60.2342	8,876.95	60.7609	8,876.95	56.5991	8,876.95	60.0743	8,876.95	57.8068	8,876.95	49.4049	8,876.95	53.9176	8,876.95	53.7296	8,876.95	52.023	8,876.95	55.2074	8,876.95	57.4753	8,876.95	57.4427	8,876.95	59.9119	8,876.95	61.6704	8,876.95	43.7994	8,876.95	44.9421	8,876.95	54.329
9,188.96	83.578	9,188.96	82.4464	9,188.96	83.1455	9,188.96	81.9329	9,188.96	82.4386	9,188.96	80.2998	9,188.96	81.35	9,188.96	77.9081	9,188.96	79.442	9,188.96	76.3906	9,188.96	77.6445	9,188.96	73.9811	9,188.96	75.5291	9,188.96	71.7233	9,188.96	72.7882	9,188.96	67.8097	9,188.96	69.1214	9,188.96	63.5358	9,188.96	64.5047	9,188.96	57.994	9,188.96	60.1496	9,188.96	53.9544	9,188.96	58.6463	9,188.96	52.2724	9,188.96	53.3491	9,188.96	51.6167	9,188.96	41.7866	9,188.96	46.853	9,188.96	54.398	9,188.96	53.3792	9,188.96	56.1385	9,188.96	57.2991	9,188.96	61.527	9,188.96	32.4515	9,188.96	47.9362	9,188.96	53.5621
9,514.16	83.6136	9,514.16	82.7472	9,514.16	83.0641	9,514.16	81.382	9,514.16	82.3749	9,514.16	79.7608	9,514.16	81.0475	9,514.16	77.8391	9,514.16	79.1987	9,514.16	75.9784	9,514.16	77.2528	9,514.16	73.1364	9,514.16	75.0458	9,514.16	70.1954	9,514.16	71.7973	9,514.16	65.3245	9,514.16	67.6274	9,514.16	61.156	9,514.16	64.4072	9,514.16	57.879	9,514.16	60.1739	9,514.16	56.0739	9,514.16	57.7928	9,514.16	44.1152	9,514.16	55.1561	9,514.16	47.6526	9,514.16	50.8092	9,514.16	47.695	9,514.16	55.0846	9,514.16	53.1545	9,514.16	51.777	9,514.16	54.7518	9,514.16	59.0743	9,514.16	24.4767	9,514.16	46.862	9,514.16	50.9153
9,849.61	83.4247	9,849.61	82.4347	9,849.61	82.9745	9,849.61	81.2399	9,849.61	82.1758	9,849.61	80.1295	9,849.61	81.0482	9,849.61	77.7229	9,849.61	79.1422	9,849.61	75.6475	9,849.61	76.9679	9,849.61	72.6832	9,849.61	74.4293	9,849.61	69.0761	9,849.61	70.9169	9,849.61	64.8393	9,849.61	67.6644	9,849.61	57.638	9,849.61	64.3648	9,849.61	57.7084	9,849.61	59.3064	9,849.61	54.9646	9,849.61	58.4613	9,849.61	40.9154	9,849.61	53.4004	9,849.61	51.1263	9,849.61	50.2215	9,849.61	45.7517	9,849.61	45.4044	9,849.61	52.0617	9,849.61	54.9946	9,849.61	54.5337	9,849.61	58.923	9,849.61	33.4291	9,849.61	50.1916	9,849.61	50.5739
10,196.8	83.5047	10,196.8	82.8399	10,196.8	83.3899	10,196.8	81.7169	10,196.8	82.5949	10,196.8	80.5813	10,196.8	81.3142	10,196.8	77.9677	10,196.8	79.0028	10,196.8	75.6322	10,196.8	76.6286	10,196.8	72.6013	10,196.8	74.161	10,196.8	68.6396	10,196.8	70.6729	10,196.8	64.5064	10,196.8	67.2139	10,196.8	58.7865	10,196.8	62.6642	10,196.8	57.1254	10,196.8	59.2586	10,196.8	53.5886	10,196.8	57.1065	10,196.8	49.0396	10,196.8	52.5868	10,196.8	52.2991	10,196.8	54.5685	10,196.8	45.822	10,196.8	38.8753	10,196.8	50.7508	10,196.8	55.9701	10,196.8	53.2373	10,196.8	56.8658	10,196.8	45.1134	10,196.8	49.7364	10,196.8	51.5207
10,555.7	83.4401	10,555.7	83.0077	10,555.7	83.3535	10,555.7	81.9087	10,555.7	82.6002	10,555.7	80.4086	10,555.7	81.1798	10,555.7	77.5471	10,555.7	78.741	10,555.7	75.2942	10,555.7	76.4459	10,555.7	72.3486	10,555.7	73.8822	10,555.7	67.8685	10,555.7	70.5567	10,555.7	63.7626	10,555.7	66.3469	10,555.7	59.9809	10,555.7	63.7266	10,555.7	57.4815	10,555.7	58.8977	10,555.7	54.494	10,555.7	57.0686	10,555.7	44.6438	10,555.7	54.9751	10,555.7	52.5578	10,555.7	53.3384	10,555.7	40.6686	10,555.7	48.0777	10,555.7	51.3974	10,555.7	52.4402	10,555.7	53.0926	10,555.7	54.5014	10,555.7	39.6987	10,555.7	47.1541	10,555.7	50.8985
10,927.7	83.2587	10,927.7	82.7096	10,927.7	83.2301	10,927.7	81.5948	10,927.7	82.0604	10,927.7	80.2315	10,927.7	80.6947	10,927.7	77.2679	10,927.7	78.208	10,927.7	74.8726	10,927.7	75.8022	10,927.7	71.3885	10,927.7	73.5684	10,927.7	67.5322	10,927.7	70.8628	10,927.7	63.3382	10,927.7	67.0821	10,927.7	60.2962	10,927.7	64.2698	10,927.7	57.2426	10,927.7	61.1289	10,927.7	52.526	10,927.7	57.7914	10,927.7	44.2348	10,927.7	53.4539	10,927.7	53.0995	10,927.7	56.4433	10,927.7	46.2013	10,927.7	44.4904	10,927.7	52.5964	10,927.7	51.4387	10,927.7	52.7221	10,927.7	54.8336	10,927.7	37.7531	10,927.7	43.5644	10,927.7	48.2449
11,313	82.9635	11,313	82.3468	11,313	82.861	11,313	81.3707	11,313	81.807	11,313	79.6112	11,313	80.2152	11,313	76.3485	11,313	77.4781	11,313	73.1588	11,313	74.9447	11,313	69.9387	11,313	72.7344	11,313	66.3378	11,313	69.6197	11,313	62.7492	11,313	66.108	11,313	59.346	11,313	62.9193	11,313	57.0761	11,313	59.0104	11,313	51.2342	11,313	57.7403	11,313	46.1633	11,313	52.1312	11,313	50.0891	11,313	57.968	11,313	48.5209	11,313	41.0883	11,313	51.5028	11,313	51.6385	11,313	52.4309	11,313	54.622	11,313	48.6109	11,313	42.3442	11,313	41.4641
11,712.9	82.2193	11,712.9	81.8655	11,712.9	82.1857	11,712.9	80.9816	11,712.9	81.3742	11,712.9	79.1352	11,712.9	79.5728	11,712.9	75.3565	11,712.9	76.4152	11,712.9	71.1223	11,712.9	73.4409	11,712.9	66.6755	11,712.9	70.7801	11,712.9	63.4644	11,712.9	67.0937	11,712.9	60.5404	11,712.9	62.1749	11,712.9	55.7451	11,712.9	59.0434	11,712.9	56.0122	11,712.9	56.6874	11,712.9	48.6197	11,712.9	53.7768	11,712.9	50.1934	11,712.9	49.2767	11,712.9	50.3551	11,712.9	57.4665	11,712.9	43.279	11,712.9	35.0415	11,712.9	49.6652	11,712.9	48.9937	11,712.9	51.1261	11,712.9	51.8927	11,712.9	45.1639	11,712.9	39.9275	11,712.9	42.7898
12,126	81.4579	12,126	81.3128	12,126	81.5978	12,126	80.6348	12,126	81.0392	12,126	79.0628	12,126	79.2295	12,126	75.0374	12,126	75.8727	12,126	70.5595	12,126	72.5218	12,126	67.2544	12,126	68.8868	12,126	65.8983	12,126	65.8392	12,126	61.5739	12,126	61.9028	12,126	58.2981	12,126	57.2914	12,126	54.3689	12,126	52.5343	12,126	53.0178	12,126	50.0111	12,126	50.8762	12,126	52.0536	12,126	51.6343	12,126	53.3917	12,126	42.3987	12,126	36.691	12,126	47.3597	12,126	45.7017	12,126	51.953	12,126	47.8092	12,126	41.1108	12,126	44.7944	12,126	46.6156
12,553.7	80.8851	12,553.7	81.1285	12,553.7	81.2873	12,553.7	80.7167	12,553.7	80.7453	12,553.7	78.9763	12,553.7	78.9004	12,553.7	74.896	12,553.7	75.4384	12,553.7	71.1781	12,553.7	71.7688	12,553.7	69.2942	12,553.7	69.6897	12,553.7	67.5777	12,553.7	67.1176	12,553.7	63.3977	12,553.7	63.0733	12,553.7	58.7059	12,553.7	58.8185	12,553.7	57.4904	12,553.7	56.4843	12,553.7	52.1047	12,553.7	53.8038	12,553.7	49.4072	12,553.7	54.6505	12,553.7	50.8584	12,553.7	51.7795	12,553.7	48.1485	12,553.7	38.1477	12,553.7	50.3072	12,553.7	42.6093	12,553.7	50.2255	12,553.7	51.3805	12,553.7	42.791	12,553.7	44.1941	12,553.7	44.1264
12,996.1	80.8148	12,996.1	80.9142	12,996.1	81.4733	12,996.1	80.8689	12,996.1	81.082	12,996.1	79.0519	12,996.1	79.0723	12,996.1	75.0027	12,996.1	75.624	12,996.1	71.8518	12,996.1	71.2965	12,996.1	69.532	12,996.1	69.4947	12,996.1	67.5154	12,996.1	66.1482	12,996.1	64.205	12,996.1	63.9473	12,996.1	57.9427	12,996.1	61.0967	12,996.1	57.7171	12,996.1	57.9084	12,996.1	54.3755	12,996.1	53.9545	12,996.1	52.0192	12,996.1	53.3141	12,996.1	50.8614	12,996.1	52.4716	12,996.1	42.6519	12,996.1	39.5832	12,996.1	48.3184	12,996.1	40.7148	12,996.1	48.9817	12,996.1	54.167	12,996.1	45.6511	12,996.1	43.3064	12,996.1	43.9216
13,454.6	80.7928	13,454.6	81.1153	13,454.6	81.5255	13,454.6	81.2151	13,454.6	81.3882	13,454.6	79.2575	13,454.6	79.3484	13,454.6	75.1113	13,454.6	76.1784	13,454.6	71.8022	13,454.6	72.3281	13,454.6	68.9164	13,454.6	69.2279	13,454.6	65.7372	13,454.6	67.4214	13,454.6	62.6138	13,454.6	65.6801	13,454.6	58.6384	13,454.6	62.57	13,454.6	56.4781	13,454.6	58.5824	13,454.6	54.1076	13,454.6	55.6102	13,454.6	53.6139	13,454.6	54.6033	13,454.6	48.6038	13,454.6	51.5816	13,454.6	44.6532	13,454.6	44.5453	13,454.6	46.2281	13,454.6	44.9935	13,454.6	49.7686	13,454.6	54.0282	13,454.6	47.2848	13,454.6	33.5386	13,454.6	43.9243
13,929.2	80.7552	13,929.2	81.2881	13,929.2	81.6358	13,929.2	81.4001	13,929.2	81.3899	13,929.2	79.1088	13,929.2	79.2318	13,929.2	74.7017	13,929.2	75.8355	13,929.2	71.7873	13,929.2	72.322	13,929.2	67.5016	13,929.2	69.4476	13,929.2	63.6206	13,929.2	68.4445	13,929.2	61.8394	13,929.2	66.0973	13,929.2	58.5006	13,929.2	62.9216	13,929.2	55.2809	13,929.2	59.7328	13,929.2	54.2752	13,929.2	56.2445	13,929.2	52.5569	13,929.2	55.4261	13,929.2	49.0695	13,929.2	50.9161	13,929.2	44.6195	13,929.2	47.9546	13,929.2	48.0317	13,929.2	45.9486	13,929.2	48.8533	13,929.2	53.8144	13,929.2	47.2966	13,929.2	29.7452	13,929.2	43.087
14,419.9	81.2776	14,419.9	81.8104	14,419.9	81.9054	14,419.9	81.5209	14,419.9	81.5783	14,419.9	79.1772	14,419.9	79.3377	14,419.9	74.5635	14,419.9	75.5953	14,419.9	70.5748	14,419.9	70.8419	14,419.9	65.8062	14,419.9	68.7657	14,419.9	64.8805	14,419.9	68.6416	14,419.9	62.2059	14,419.9	67.2014	14,419.9	59.6938	14,419.9	63.4521	14,419.9	56.1634	14,419.9	60.2829	14,419.9	54.8443	14,419.9	56.6255	14,419.9	53.6773	14,419.9	54.8445	14,419.9	51.5921	14,419.9	49.8847	14,419.9	40.9891	14,419.9	45.6783	14,419.9	48.0716	14,419.9	41.4845	14,419.9	51.0638	14,419.9	54.0041	14,419.9	47.9343	14,419.9	39.5294	14,419.9	42.8451
14,928.2	82.0105	14,928.2	82.4299	14,928.2	82.3567	14,928.2	81.4459	14,928.2	81.6783	14,928.2	78.8072	14,928.2	79.2073	14,928.2	74.3897	14,928.2	75.0007	14,928.2	68.8591	14,928.2	69.1808	14,928.2	65.0528	14,928.2	68.1029	14,928.2	67.2479	14,928.2	69.5189	14,928.2	65.3769	14,928.2	68.2616	14,928.2	62.3595	14,928.2	64.1672	14,928.2	56.7628	14,928.2	61.5341	14,928.2	56.8565	14,928.2	56.9246	14,928.2	54.8711	14,928.2	55.3526	14,928.2	50.6587	14,928.2	50.7403	14,928.2	45.6408	14,928.2	45.2768	14,928.2	48.0508	14,928.2	42.3702	14,928.2	48.2218	14,928.2	53.708	14,928.2	48.1167	14,928.2	40.0271	14,928.2	42.184
15,455.6	82.9697	15,455.6	82.9488	15,455.6	82.8242	15,455.6	81.2585	15,455.6	81.909	15,455.6	78.2023	15,455.6	78.9983	15,455.6	73.8862	15,455.6	73.9671	15,455.6	67.3494	15,455.6	67.9567	15,455.6	67.5633	15,455.6	68.8716	15,455.6	70.0494	15,455.6	70.9906	15,455.6	67.2898	15,455.6	69.5065	15,455.6	62.6613	15,455.6	64.7992	15,455.6	57.6827	15,455.6	61.7611	15,455.6	56.8416	15,455.6	57.566	15,455.6	55.2645	15,455.6	56.5191	15,455.6	50.6099	15,455.6	48.4376	15,455.6	47.2561	15,455.6	46.5412	15,455.6	48.5707	15,455.6	44.0805	15,455.6	44.4273	15,455.6	52.6474	15,455.6	49.3386	15,455.6	41.1222	15,455.6	39.6676
16,000.5	83.4911	16,000.5	83.0166	16,000.5	82.6401	16,000.5	80.2872	16,000.5	81.6862	16,000.5	77.6021	16,000.5	78.5492	16,000.5	72.5407	16,000.5	73.0179	16,000.5	66.8873	16,000.5	69.2037	16,000.5	70.3554	16,000.5	70.0723	16,000.5	71.1235	16,000.5	71.7048	16,000.5	67.3692	16,000.5	70.1854	16,000.5	62.0091	16,000.5	65.2639	16,000.5	57.3089	16,000.5	62.0539	16,000.5	56.1323	16,000.5	58.0243	16,000.5	53.9911	16,000.5	55.5635	16,000.5	49.2346	16,000.5	43.7355	16,000.5	46.2316	16,000.5	45.6658	16,000.5	48.1973	16,000.5	42.9001	16,000.5	44.1741	16,000.5	51.3676	16,000.5	50.4712	16,000.5	38.5621	16,000.5	32.539
16,564.5	83.6852	16,564.5	82.6694	16,564.5	82.2273	16,564.5	79.4052	16,564.5	81.1247	16,564.5	76.9492	16,564.5	78.0873	16,564.5	70.4397	16,564.5	73.0377	16,564.5	70.1071	16,564.5	70.7547	16,564.5	71.7751	16,564.5	70.7693	16,564.5	70.2298	16,564.5	71.3833	16,564.5	65.8702	16,564.5	70.1244	16,564.5	60.0658	16,564.5	65.0157	16,564.5	56.1577	16,564.5	61.7239	16,564.5	55.3517	16,564.5	57.4558	16,564.5	52.8618	16,564.5	55.0072	16,564.5	46.4625	16,564.5	39.8348	16,564.5	44.6918	16,564.5	45.6537	16,564.5	45.6212	16,564.5	44.6749	16,564.5	38.1443	16,564.5	49.5346	16,564.5	48.7611	16,564.5	20.995	16,564.5	28.7235
17,148.9	83.825	17,148.9	82.3034	17,148.9	82.1775	17,148.9	79.4179	17,148.9	80.313	17,148.9	76.0723	17,148.9	77.2933	17,148.9	69.2454	17,148.9	73.3029	17,148.9	72.0286	17,148.9	71.5394	17,148.9	71.1469	17,148.9	70.6201	17,148.9	68.4395	17,148.9	70.6233	17,148.9	63.885	17,148.9	69.0941	17,148.9	58.3775	17,148.9	64.1295	17,148.9	54.5927	17,148.9	60.4905	17,148.9	54.4819	17,148.9	56.3804	17,148.9	50.8746	17,148.9	53.1203	17,148.9	44.1881	17,148.9	32.8825	17,148.9	42.6744	17,148.9	44.2142	17,148.9	42.6996	17,148.9	43.8227	17,148.9	33.8269	17,148.9	46.7707	17,148.9	45.6271	17,148.9	32.8404	17,148.9	35.2588
17,752.4	83.7276	17,752.4	81.962	17,752.4	82.2894	17,752.4	79.5187	17,752.4	79.5189	17,752.4	74.5736	17,752.4	76.0807	17,752.4	70.4587	17,752.4	72.8694	17,752.4	71.6572	17,752.4	71.5036	17,752.4	69.1231	17,752.4	69.8719	17,752.4	67.2066	17,752.4	69.2156	17,752.4	62.9188	17,752.4	67.3847	17,752.4	57.6802	17,752.4	61.9097	17,752.4	53.2685	17,752.4	58.3073	17,752.4	53.5905	17,752.4	54.0663	17,752.4	48.2657	17,752.4	49.4318	17,752.4	44.106	17,752.4	36.7001	17,752.4	41.0208	17,752.4	40.8629	17,752.4	40.8533	17,752.4	41.5941	17,752.4	33.0576	17,752.4	42.2131	17,752.4	40.7164	17,752.4	35.8686	17,752.4	33.9419
18,379.4	83.1372	18,379.4	81.6118	18,379.4	82.073	18,379.4	78.7126	18,379.4	78.6234	18,379.4	72.7768	18,379.4	74.7523	18,379.4	70.5755	18,379.4	72.2588	18,379.4	69.8866	18,379.4	70.9119	18,379.4	67.1353	18,379.4	68.5304	18,379.4	66.4038	18,379.4	67.059	18,379.4	62.4855	18,379.4	64.6754	18,379.4	55.761	18,379.4	58.6515	18,379.4	51.9825	18,379.4	54.9395	18,379.4	50.7823	18,379.4	50.5733	18,379.4	43.9429	18,379.4	44.867	18,379.4	39.8163	18,379.4	36.8903	18,379.4	38.9163	18,379.4	40.6131	18,379.4	35.3778	18,379.4	39.5775	18,379.4	25.0977	18,379.4	38.5364	18,379.4	37.2654	18,379.4	38.8388	18,379.4	30.0136
19,026.9	82.3668	19,026.9	81.0022	19,026.9	81.4377	19,026.9	77.6171	19,026.9	77.869	19,026.9	71.6958	19,026.9	73.5316	19,026.9	69.791	19,026.9	71.4025	19,026.9	68.3802	19,026.9	69.9424	19,026.9	66.0905	19,026.9	67.3487	19,026.9	64.325	19,026.9	64.9187	19,026.9	59.7791	19,026.9	61.5251	19,026.9	51.7103	19,026.9	55.3942	19,026.9	48.514	19,026.9	51.8126	19,026.9	46.5894	19,026.9	46.9015	19,026.9	40.8637	19,026.9	40.2277	19,026.9	36.8088	19,026.9	33.5349	19,026.9	36.3383	19,026.9	38.7694	19,026.9	27.5312	19,026.9	34.7456	19,026.9	23.4735	19,026.9	32.6868	19,026.9	34.9235	19,026.9	37.83	19,026.9	27.7337
19,697.8	81.6827	19,697.8	80.3143	19,697.8	80.7593	19,697.8	76.5183	19,697.8	77.2332	19,697.8	71.4291	19,697.8	72.6703	19,697.8	68.9945	19,697.8	70.5759	19,697.8	67.9648	19,697.8	68.9623	19,697.8	64.8803	19,697.8	66.1835	19,697.8	61.1371	19,697.8	62.966	19,697.8	55.049	19,697.8	58.5334	19,697.8	44.1565	19,697.8	51.7083	19,697.8	44.603	19,697.8	48.3805	19,697.8	43.3009	19,697.8	41.6136	19,697.8	34.7345	19,697.8	34.9765	19,697.8	23.2876	19,697.8	30.4227	19,697.8	30.3024	19,697.8	34.0714	19,697.8	25.1974	19,697.8	33.8777	19,697.8	21.417	19,697.8	26.3057	19,697.8	34.3861	19,697.8	34.2373	19,697.8	29.8343
19,999.5	81.3871	19,999.5	79.9299	19,999.5	80.6536	19,999.5	75.9967	19,999.5	77.1592	19,999.5	71.6497	19,999.5	72.5809	19,999.5	69.3496	19,999.5	69.853	19,999.5	67.5502	19,999.5	68.6062	19,999.5	64.4874	19,999.5	65.8756	19,999.5	58.1285	19,999.5	62.5074	19,999.5	55.4966	19,999.5	57.0897	19,999.5	42.8086	19,999.5	50.4153	19,999.5	37.6932	19,999.5	52.9958	19,999.5	51.4438	19,999.5	34.245	19,999.5	37.7942	19,999.5	47.2713	19,999.5	51.0139	19,999.5	39.9383	19,999.5	39.0052	19,999.5	28.442	19,999.5	49.328	19,999.5	48.3083	19,999.5	42.8718	19,999.5	40.9984	19,999.5	43.4866	19,999.5	36.4992	19,999.5	35.3866
