"SPL Vertical"
"On-Axis"		"10°"		"-10°"		"20°"		"-20°"		"30°"		"-30°"		"40°"		"-40°"		"50°"		"-50°"		"60°"		"-60°"		"70°"		"-70°"		"80°"		"-80°"		"90°"		"-90°"		"100°"		"-100°"		"110°"		"-110°"		"120°"		"-120°"		"130°"		"-130°"		"140°"		"-140°"		"150°"		"-150°"		"160°"		"-160°"		"170°"		"-170°"		"180°"
"Frequency / Hz"	"Sound Pressure Level / dB (re 20 µPa/V)  [2.83  V @ 1. m]"	"Frequency / Hz"	"Sound Pressure Level / dB (re 20 µPa/V)  [2.83  V @ 1. m]"	"Frequency / Hz"	"Sound Pressure Level / dB (re 20 µPa/V)  [2.83  V @ 1. m]"	"Frequency / Hz"	"Sound Pressure Level / dB (re 20 µPa/V)  [2.83  V @ 1. m]"	"Frequency / Hz"	"Sound Pressure Level / dB (re 20 µPa/V)  [2.83  V @ 1. m]"	"Frequency / Hz"	"Sound Pressure Level / dB (re 20 µPa/V)  [2.83  V @ 1. m]"	"Frequency / Hz"	"Sound Pressure Level / dB (re 20 µPa/V)  [2.83  V @ 1. m]"	"Frequency / Hz"	"Sound Pressure Level / dB (re 20 µPa/V)  [2.83  V @ 1. m]"	"Frequency / Hz"	"Sound Pressure Level / dB (re 20 µPa/V)  [2.83  V @ 1. m]"	"Frequency / Hz"	"Sound Pressure Level / dB (re 20 µPa/V)  [2.83  V @ 1. m]"	"Frequency / Hz"	"Sound Pressure Level / dB (re 20 µPa/V)  [2.83  V @ 1. m]"	"Frequency / Hz"	"Sound Pressure Level / dB (re 20 µPa/V)  [2.83  V @ 1. m]"	"Frequency / Hz"	"Sound Pressure Level / dB (re 20 µPa/V)  [2.83  V @ 1. m]"	"Frequency / Hz"	"Sound Pressure Level / dB (re 20 µPa/V)  [2.83  V @ 1. m]"	"Frequency / Hz"	"Sound Pressure Level / dB (re 20 µPa/V)  [2.83  V @ 1. m]"	"Frequency / Hz"	"Sound Pressure Level / dB (re 20 µPa/V)  [2.83  V @ 1. m]"	"Frequency / Hz"	"Sound Pressure Level / dB (re 20 µPa/V)  [2.83  V @ 1. m]"	"Frequency / Hz"	"Sound Pressure Level / dB (re 20 µPa/V)  [2.83  V @ 1. m]"	"Frequency / Hz"	"Sound Pressure Level / dB (re 20 µPa/V)  [2.83  V @ 1. m]"	"Frequency / Hz"	"Sound Pressure Level / dB (re 20 µPa/V)  [2.83  V @ 1. m]"	"Frequency / Hz"	"Sound Pressure Level / dB (re 20 µPa/V)  [2.83  V @ 1. m]"	"Frequency / Hz"	"Sound Pressure Level / dB (re 20 µPa/V)  [2.83  V @ 1. m]"	"Frequency / Hz"	"Sound Pressure Level / dB (re 20 µPa/V)  [2.83  V @ 1. m]"	"Frequency / Hz"	"Sound Pressure Level / dB (re 20 µPa/V)  [2.83  V @ 1. m]"	"Frequency / Hz"	"Sound Pressure Level / dB (re 20 µPa/V)  [2.83  V @ 1. m]"	"Frequency / Hz"	"Sound Pressure Level / dB (re 20 µPa/V)  [2.83  V @ 1. m]"	"Frequency / Hz"	"Sound Pressure Level / dB (re 20 µPa/V)  [2.83  V @ 1. m]"	"Frequency / Hz"	"Sound Pressure Level / dB (re 20 µPa/V)  [2.83  V @ 1. m]"	"Frequency / Hz"	"Sound Pressure Level / dB (re 20 µPa/V)  [2.83  V @ 1. m]"	"Frequency / Hz"	"Sound Pressure Level / dB (re 20 µPa/V)  [2.83  V @ 1. m]"	"Frequency / Hz"	"Sound Pressure Level / dB (re 20 µPa/V)  [2.83  V @ 1. m]"	"Frequency / Hz"	"Sound Pressure Level / dB (re 20 µPa/V)  [2.83  V @ 1. m]"	"Frequency / Hz"	"Sound Pressure Level / dB (re 20 µPa/V)  [2.83  V @ 1. m]"	"Frequency / Hz"	"Sound Pressure Level / dB (re 20 µPa/V)  [2.83  V @ 1. m]"	"Frequency / Hz"	"Sound Pressure Level / dB (re 20 µPa/V)  [2.83  V @ 1. m]"	"Frequency / Hz"	"Sound Pressure Level / dB (re 20 µPa/V)  [2.83  V @ 1. m]"
20.5078	51.5624	20.5078	51.5983	20.5078	51.527	20.5078	51.6333	20.5078	51.4946	20.5078	51.6677	20.5078	51.4686	20.5078	51.7031	20.5078	51.4534	20.5078	51.7424	20.5078	51.4538	20.5078	51.7896	20.5078	51.4753	20.5078	51.8485	20.5078	51.5225	20.5078	51.9223	20.5078	51.5989	20.5078	52.0131	20.5078	51.7057	20.5078	52.1213	20.5078	51.841	20.5078	52.2451	20.5078	51.9994	20.5078	52.3802	20.5078	52.1729	20.5078	52.5192	20.5078	52.3512	20.5078	52.6527	20.5078	52.5226	20.5078	52.7696	20.5078	52.6751	20.5078	52.8589	20.5078	52.7975	20.5078	52.9109	20.5078	52.8807	20.5078	52.9191
21.9727	48.6388	21.9727	48.7098	21.9727	48.5898	21.9727	48.7977	21.9727	48.5693	21.9727	48.8998	21.9727	48.5846	21.9727	49.0152	21.9727	48.6417	21.9727	49.1451	21.9727	48.7443	21.9727	49.2911	21.9727	48.8927	21.9727	49.455	21.9727	49.0839	21.9727	49.6377	21.9727	49.3113	21.9727	49.8387	21.9727	49.5662	21.9727	50.0556	21.9727	49.8383	21.9727	50.2836	21.9727	50.1168	21.9727	50.5153	21.9727	50.3907	21.9727	50.7412	21.9727	50.6494	21.9727	50.9493	21.9727	50.8824	21.9727	51.1271	21.9727	51.0795	21.9727	51.2623	21.9727	51.2313	21.9727	51.3447	21.9727	51.3293	21.9727	51.3678
23.4375	44.3875	23.4375	44.36	23.4375	44.4673	23.4375	44.3829	23.4375	44.5975	23.4375	44.4516	23.4375	44.7722	23.4375	44.5605	23.4375	44.9821	23.4375	44.7043	23.4375	45.2172	23.4375	44.8789	23.4375	45.4677	23.4375	45.0808	23.4375	45.7258	23.4375	45.3074	23.4375	45.986	23.4375	45.5561	23.4375	46.2446	23.4375	45.8238	23.4375	46.4994	23.4375	46.1062	23.4375	46.748	23.4375	46.3972	23.4375	46.9867	23.4375	46.6878	23.4375	47.2089	23.4375	46.9665	23.4375	47.4047	23.4375	47.2197	23.4375	47.5621	23.4375	47.4327	23.4375	47.6681	23.4375	47.5918	23.4375	47.7118	23.4375	47.6866
24.9023	44.9996	24.9023	44.9135	24.9023	45.1054	24.9023	44.8486	24.9023	45.2278	24.9023	44.8061	24.9023	45.363	24.9023	44.7868	24.9023	45.5061	24.9023	44.7916	24.9023	45.6521	24.9023	44.8214	24.9023	45.7965	24.9023	44.8772	24.9023	45.9355	24.9023	44.9596	24.9023	46.0667	24.9023	45.0689	24.9023	46.1892	24.9023	45.2046	24.9023	46.3026	24.9023	45.3648	24.9023	46.407	24.9023	45.5458	24.9023	46.5017	24.9023	45.7418	24.9023	46.584	24.9023	45.9441	24.9023	46.6491	24.9023	46.142	24.9023	46.6897	24.9023	46.3235	24.9023	46.6981	24.9023	46.477	24.9023	46.6672	24.9023	46.5933
26.3672	43.3138	26.3672	43.1075	26.3672	43.543	26.3672	42.9263	26.3672	43.7918	26.3672	42.7728	26.3672	44.0549	26.3672	42.6499	26.3672	44.3248	26.3672	42.5621	26.3672	44.5921	26.3672	42.5145	26.3672	44.8462	26.3672	42.5123	26.3672	45.0768	26.3672	42.5605	26.3672	45.2755	26.3672	42.6626	26.3672	45.4364	26.3672	42.8197	26.3672	45.5569	26.3672	43.03	26.3672	45.6372	26.3672	43.2878	26.3672	45.679	26.3672	43.5832	26.3672	45.6837	26.3672	43.9027	26.3672	45.6514	26.3672	44.2299	26.3672	45.5798	26.3672	44.5475	26.3672	45.465	26.3672	44.8398	26.3672	45.3037	26.3672	45.0944
27.832	42.9694	27.832	42.4948	27.832	43.4461	27.832	42.0335	27.832	43.9137	27.832	41.5962	27.832	44.3604	27.832	41.194	27.832	44.7736	27.832	40.8378	27.832	45.14	27.832	40.5385	27.832	45.4462	27.832	40.3066	27.832	45.6795	27.832	40.1522	27.832	45.83	27.832	40.0841	27.832	45.891	27.832	40.1092	27.832	45.8608	27.832	40.2315	27.832	45.742	27.832	40.4505	27.832	45.5412	27.832	40.7603	27.832	45.2672	27.832	41.1494	27.832	44.9297	27.832	41.6008	27.832	44.5381	27.832	42.0943	27.832	44.1008	27.832	42.6089	27.832	43.6265	27.832	43.125
29.2969	45.8058	29.2969	45.3268	29.2969	46.3101	29.2969	44.8856	29.2969	46.8252	29.2969	44.493	29.2969	47.3347	29.2969	44.158	29.2969	47.8208	29.2969	43.8881	29.2969	48.265	29.2969	43.6898	29.2969	48.6495	29.2969	43.5681	29.2969	48.9586	29.2969	43.527	29.2969	49.1803	29.2969	43.569	29.2969	49.3077	29.2969	43.6949	29.2969	49.339	29.2969	43.9035	29.2969	49.2776	29.2969	44.1909	29.2969	49.1302	29.2969	44.5497	29.2969	48.9059	29.2969	44.9691	29.2969	48.6137	29.2969	45.4346	29.2969	48.2624	29.2969	45.9293	29.2969	47.8598	29.2969	46.4353	29.2969	47.4142	29.2969	46.9353
30.7617	49.6176	30.7617	49.1381	30.7617	50.1153	30.7617	48.6889	30.7617	50.617	30.7617	48.28	30.7617	51.1064	30.7617	47.9199	30.7617	51.5659	30.7617	47.6154	30.7617	51.9769	30.7617	47.3721	30.7617	52.3215	30.7617	47.1944	30.7617	52.584	30.7617	47.0862	30.7617	52.7525	30.7617	47.0504	30.7617	52.8199	30.7617	47.0898	30.7617	52.7849	30.7617	47.206	30.7617	52.6511	30.7617	47.3995	30.7617	52.4269	30.7617	47.6686	30.7617	52.1232	30.7617	48.0087	30.7617	51.7526	30.7617	48.4112	30.7617	51.3279	30.7617	48.8641	30.7617	50.8617	30.7617	49.3523	30.7617	50.3673	30.7617	49.859
32.2266	52.4958	32.2266	52.0333	32.2266	52.9772	32.2266	51.6032	32.2266	53.462	32.2266	51.2164	32.2266	53.9327	32.2266	50.881	32.2266	54.3712	32.2266	50.6028	32.2266	54.7592	32.2266	50.3854	32.2266	55.0799	32.2266	50.2309	32.2266	55.3187	32.2266	50.1403	32.2266	55.4652	32.2266	50.1142	32.2266	55.5135	32.2266	50.1532	32.2266	55.4633	32.2266	50.2575	32.2266	55.3193	32.2266	50.4274	32.2266	55.0904	32.2266	50.6621	32.2266	54.7878	32.2266	50.9591	32.2266	54.4242	32.2266	51.3135	32.2266	54.0125	32.2266	51.7172	32.2266	53.5661	32.2266	52.1588	32.2266	53.0985	32.2266	52.6243
33.6914	56.2028	33.6914	55.7577	33.6914	56.6595	33.6914	55.3364	33.6914	57.1132	33.6914	54.9489	33.6914	57.5481	33.6914	54.6029	33.6914	57.947	33.6914	54.3037	33.6914	58.2928	33.6914	54.0549	33.6914	58.569	33.6914	53.8588	33.6914	58.7613	33.6914	53.7166	33.6914	58.8586	33.6914	53.6296	33.6914	58.8543	33.6914	53.5988	33.6914	58.7473	33.6914	53.6256	33.6914	58.5417	33.6914	53.7118	33.6914	58.2469	33.6914	53.8592	33.6914	57.8763	33.6914	54.0696	33.6914	57.4463	33.6914	54.3437	33.6914	56.9753	33.6914	54.6798	33.6914	56.4831	33.6914	55.0729	33.6914	55.9897	33.6914	55.514
35.1562	59.7978	35.1562	59.4097	35.1562	60.1988	35.1562	59.045	35.1562	60.5996	35.1562	58.7122	35.1562	60.9854	35.1562	58.417	35.1562	61.3398	35.1562	58.1633	35.1562	61.6462	35.1562	57.9533	35.1562	61.8889	35.1562	57.7883	35.1562	62.0539	35.1562	57.6686	35.1562	62.1309	35.1562	57.5947	35.1562	62.1143	35.1562	57.567	35.1562	62.004	35.1562	57.5862	35.1562	61.8051	35.1562	57.6535	35.1562	61.5281	35.1562	57.7706	35.1562	61.187	35.1562	57.939	35.1562	60.7983	35.1562	58.16	35.1562	60.3799	35.1562	58.4334	35.1562	59.9501	35.1562	58.7567	35.1562	59.5262	35.1562	59.1241
36.6211	63.3581	36.6211	63.021	36.6211	63.7074	36.6211	62.7054	36.6211	64.0578	36.6211	62.4179	36.6211	64.3962	36.6211	62.1635	36.6211	64.7081	36.6211	61.9455	36.6211	64.9783	36.6211	61.7656	36.6211	65.1921	36.6211	61.6247	36.6211	65.3365	36.6211	61.5233	36.6211	65.4017	36.6211	61.4615	36.6211	65.3824	36.6211	61.4392	36.6211	65.2788	36.6211	61.457	36.6211	65.0963	36.6211	61.5152	36.6211	64.8454	36.6211	61.6149	36.6211	64.5397	36.6211	61.757	36.6211	64.1953	36.6211	61.9425	36.6211	63.8288	36.6211	62.1715	36.6211	63.4565	36.6211	62.4426	36.6211	63.0934	36.6211	62.7521
38.0859	65.9971	38.0859	65.6428	38.0859	66.365	38.0859	65.3116	38.0859	66.735	38.0859	65.0102	38.0859	67.0931	38.0859	64.7433	38.0859	67.4236	38.0859	64.5139	38.0859	67.7103	38.0859	64.3235	38.0859	67.9373	38.0859	64.1729	38.0859	68.0903	38.0859	64.0623	38.0859	68.1589	38.0859	63.9917	38.0859	68.1372	38.0859	63.9616	38.0859	68.0248	38.0859	63.9723	38.0859	67.8274	38.0859	64.025	38.0859	67.5558	38.0859	64.1212	38.0859	67.2246	38.0859	64.2626	38.0859	66.8513	38.0859	64.4509	38.0859	66.4545	38.0859	64.6872	38.0859	66.0526	38.0859	64.9708	38.0859	65.6623	38.0859	65.2981
39.5508	70.0448	39.5508	69.7409	39.5508	70.3602	39.5508	69.4565	39.5508	70.6769	39.5508	69.1976	39.5508	70.983	39.5508	68.9686	39.5508	71.265	39.5508	68.7723	39.5508	71.5088	39.5508	68.6105	39.5508	71.7007	39.5508	68.4841	39.5508	71.8287	39.5508	68.3936	39.5508	71.8839	39.5508	68.3392	39.5508	71.8618	39.5508	68.3208	39.5508	71.7629	39.5508	68.3387	39.5508	71.593	39.5508	68.3931	39.5508	71.3622	39.5508	68.4844	39.5508	71.084	39.5508	68.613	39.5508	70.7734	39.5508	68.7791	39.5508	70.4457	39.5508	68.9826	39.5508	70.1152	39.5508	69.222	39.5508	69.7947	39.5508	69.4944
41.0156	73.192	41.0156	72.906	41.0156	73.4883	41.0156	72.6378	41.0156	73.7851	41.0156	72.3935	41.0156	74.0714	41.0156	72.1771	41.0156	74.3344	41.0156	71.9917	41.0156	74.561	41.0156	71.8389	41.0156	74.7382	41.0156	71.7199	41.0156	74.8548	41.0156	71.6351	41.0156	74.9027	41.0156	71.5846	41.0156	74.8777	41.0156	71.5683	41.0156	74.7809	41.0156	71.5863	41.0156	74.618	41.0156	71.6385	41.0156	74.399	41.0156	71.7249	41.0156	74.137	41.0156	71.8456	41.0156	73.8462	41.0156	72.0005	41.0156	73.5411	41.0156	72.1892	41.0156	73.2347	41.0156	72.4104	41.0156	72.9386	41.0156	72.6616
42.4805	76.1068	42.4805	75.8306	42.4805	76.3907	42.4805	75.5696	42.4805	76.6731	42.4805	75.3298	42.4805	76.9431	42.4805	75.1156	42.4805	77.1891	42.4805	74.9305	42.4805	77.3985	42.4805	74.7765	42.4805	77.5594	42.4805	74.6551	42.4805	77.6612	42.4805	74.5672	42.4805	77.6965	42.4805	74.513	42.4805	77.6619	42.4805	74.4926	42.4805	77.5587	42.4805	74.5059	42.4805	77.393	42.4805	74.5524	42.4805	77.1751	42.4805	74.632	42.4805	76.9179	42.4805	74.7443	42.4805	76.6355	42.4805	74.8889	42.4805	76.3419	42.4805	75.0653	42.4805	76.0496	42.4805	75.2723	42.4805	75.769	42.4805	75.5081
43.9453	78.7956	43.9453	78.5277	43.9453	79.0693	43.9453	78.2728	43.9453	79.3403	43.9453	78.0368	43.9453	79.5983	43.9453	77.824	43.9453	79.8321	43.9453	77.6378	43.9453	80.0298	43.9453	77.4808	43.9453	80.1801	43.9453	77.3546	43.9453	80.2728	43.9453	77.2605	43.9453	80.3009	43.9453	77.1992	43.9453	80.2611	43.9453	77.171	43.9453	80.1548	43.9453	77.1762	43.9453	79.988	43.9453	77.2147	43.9453	79.7708	43.9453	77.2864	43.9453	79.5157	43.9453	77.3912	43.9453	79.2367	43.9453	77.5287	43.9453	78.9473	43.9453	77.6984	43.9453	78.6598	43.9453	77.8992	43.9453	78.3845	43.9453	78.1291
45.4102	81.3123	45.4102	81.0532	45.4102	81.5766	45.4102	80.8064	45.4102	81.8378	45.4102	80.5773	45.4102	82.0859	45.4102	80.3705	45.4102	82.31	45.4102	80.1891	45.4102	82.4986	45.4102	80.0355	45.4102	82.6407	45.4102	79.9115	45.4102	82.7265	45.4102	79.8183	45.4102	82.7493	45.4102	79.7566	45.4102	82.7062	45.4102	79.7268	45.4102	82.5989	45.4102	79.7292	45.4102	82.4335	45.4102	79.7638	45.4102	82.2201	45.4102	79.8305	45.4102	81.9712	45.4102	79.9292	45.4102	81.7002	45.4102	80.0596	45.4102	81.4203	45.4102	80.2213	45.4102	81.1431	45.4102	80.4131	45.4102	80.8783	45.4102	80.6332
46.875	83.6208	46.875	83.3666	46.875	83.8805	46.875	83.1248	46.875	84.1371	46.875	82.9011	46.875	84.3809	46.875	82.6996	46.875	84.6007	46.875	82.5232	46.875	84.7852	46.875	82.3741	46.875	84.9234	46.875	82.2538	46.875	85.0059	46.875	82.1632	46.875	85.0262	46.875	82.1029	46.875	84.9817	46.875	82.0731	46.875	84.8741	46.875	82.0741	46.875	84.7097	46.875	82.1059	46.875	84.4984	46.875	82.1685	46.875	84.2525	46.875	82.2622	46.875	83.9854	46.875	82.3867	46.875	83.7101	46.875	82.542	46.875	83.4383	46.875	82.7272	46.875	83.1794	46.875	82.9407
48.3398	85.5574	48.3398	85.3073	48.3398	85.8133	48.3398	85.0704	48.3398	86.0663	48.3398	84.8524	48.3398	86.3067	48.3398	84.6578	48.3398	86.5234	48.3398	84.4899	48.3398	86.7056	48.3398	84.351	48.3398	86.8427	48.3398	84.2424	48.3398	86.926	48.3398	84.1651	48.3398	86.9496	48.3398	84.1191	48.3398	86.9114	48.3398	84.1044	48.3398	86.8138	48.3398	84.1206	48.3398	86.6632	48.3398	84.1672	48.3398	86.4693	48.3398	84.2432	48.3398	86.2438	48.3398	84.3479	48.3398	85.999	48.3398	84.4802	48.3398	85.7463	48.3398	84.6389	48.3398	85.4954	48.3398	84.8224	48.3398	85.2542	48.3398	85.0284
51.2695	88.2664	51.2695	88.0342	51.2695	88.4948	51.2695	87.805	51.2695	88.7117	51.2695	87.5851	51.2695	88.9089	51.2695	87.3798	51.2695	89.078	51.2695	87.1941	51.2695	89.2106	51.2695	87.0317	51.2695	89.2987	51.2695	86.896	51.2695	89.3362	51.2695	86.789	51.2695	89.3192	51.2695	86.7122	51.2695	89.247	51.2695	86.6664	51.2695	89.1225	51.2695	86.6515	51.2695	88.9522	51.2695	86.667	51.2695	88.7455	51.2695	86.7121	51.2695	88.5136	51.2695	86.786	51.2695	88.2682	51.2695	86.8877	51.2695	88.0208	51.2695	87.0164	51.2695	87.7809	51.2695	87.1715	51.2695	87.5563	51.2695	87.3521
52.7344	88.6656	52.7344	88.4353	52.7344	88.8884	52.7344	88.204	52.7344	89.0968	52.7344	87.9779	52.7344	89.2832	52.7344	87.7626	52.7344	89.44	52.7344	87.5632	52.7344	89.5592	52.7344	87.3843	52.7344	89.6337	52.7344	87.2299	52.7344	89.6573	52.7344	87.1032	52.7344	89.6262	52.7344	87.0063	52.7344	89.5398	52.7344	86.9409	52.7344	89.4011	52.7344	86.9076	52.7344	89.2169	52.7344	86.9067	52.7344	88.9968	52.7344	86.9378	52.7344	88.7525	52.7344	87.0003	52.7344	88.496	52.7344	87.0937	52.7344	88.2389	52.7344	87.2173	52.7344	87.991	52.7344	87.3706	52.7344	87.7603	52.7344	87.5522
54.1992	88.9727	54.1992	88.7509	54.1992	89.1885	54.1992	88.5291	54.1992	89.3917	54.1992	88.3126	54.1992	89.5751	54.1992	88.106	54.1992	89.7304	54.1992	87.9136	54.1992	89.8494	54.1992	87.739	54.1992	89.924	54.1992	87.5856	54.1992	89.9476	54.1992	87.4561	54.1992	89.9157	54.1992	87.3528	54.1992	89.827	54.1992	87.2775	54.1992	89.6845	54.1992	87.2318	54.1992	89.4951	54.1992	87.2166	54.1992	89.2689	54.1992	87.2329	54.1992	89.018	54.1992	87.2813	54.1992	88.7553	54.1992	87.3623	54.1992	88.4929	54.1992	87.4762	54.1992	88.2412	54.1992	87.6228	54.1992	88.0086	54.1992	87.8011
55.6641	89.1482	55.6641	88.9295	55.6641	89.3657	55.6641	88.7155	55.6641	89.575	55.6641	88.5112	55.6641	89.7678	55.6641	88.3207	55.6641	89.9355	55.6641	88.1474	55.6641	90.0688	55.6641	87.9937	55.6641	90.159	55.6641	87.862	55.6641	90.1989	55.6641	87.7538	55.6641	90.1836	55.6641	87.6704	55.6641	90.1117	55.6641	87.6131	55.6641	89.9859	55.6641	87.5828	55.6641	89.8127	55.6641	87.5802	55.6641	89.6016	55.6641	87.6063	55.6641	89.3645	55.6641	87.6618	55.6641	89.1138	55.6641	87.7474	55.6641	88.8613	55.6641	87.8637	55.6641	88.6175	55.6641	88.0105	55.6641	88.3906	55.6641	88.187
58.5938	89.1031	58.5938	88.8841	58.5938	89.3185	58.5938	88.6685	58.5938	89.5231	58.5938	88.4619	58.5938	89.7086	58.5938	88.2695	58.5938	89.8668	58.5938	88.0954	58.5938	89.9894	58.5938	87.943	58.5938	90.0689	58.5938	87.8148	58.5938	90.0996	58.5938	87.7128	58.5938	90.078	58.5938	87.6381	58.5938	90.004	58.5938	87.5914	58.5938	89.8811	58.5938	87.573	58.5938	89.7158	58.5938	87.5829	58.5938	89.5175	58.5938	87.6206	58.5938	89.297	58.5938	87.6858	58.5938	89.0655	58.5938	87.7779	58.5938	88.8333	58.5938	87.8964	58.5938	88.6089	58.5938	88.0403	58.5938	88.3991	58.5938	88.2085
60.0586	88.9117	60.0586	88.6983	60.0586	89.1229	60.0586	88.4893	60.0586	89.3242	60.0586	88.291	60.0586	89.5076	60.0586	88.1085	60.0586	89.6648	60.0586	87.946	60.0586	89.7878	60.0586	87.8069	60.0586	89.8695	60.0586	87.6938	60.0586	89.9046	60.0586	87.6081	60.0586	89.8901	60.0586	87.5507	60.0586	89.8264	60.0586	87.5216	60.0586	89.717	60.0586	87.5204	60.0586	89.5687	60.0586	87.5463	60.0586	89.3902	60.0586	87.5979	60.0586	89.1917	60.0586	87.6741	60.0586	88.9831	60.0586	87.7735	60.0586	88.7731	60.0586	87.8947	60.0586	88.5689	60.0586	88.0365	60.0586	88.3758	60.0586	88.1975
62.9883	88.6035	62.9883	88.3932	62.9883	88.8095	62.9883	88.1855	62.9883	89.0038	62.9883	87.9866	62.9883	89.1788	62.9883	87.8021	62.9883	89.3267	62.9883	87.6368	62.9883	89.4401	62.9883	87.4945	62.9883	89.5127	62.9883	87.3783	62.9883	89.5401	62.9883	87.2903	62.9883	89.5199	62.9883	87.2316	62.9883	89.4532	62.9883	87.2024	62.9883	89.3439	62.9883	87.2025	62.9883	89.1988	62.9883	87.2307	62.9883	89.0267	62.9883	87.2856	62.9883	88.8371	62.9883	87.3652	62.9883	88.6389	62.9883	87.4675	62.9883	88.4399	62.9883	87.5903	62.9883	88.246	62.9883	87.7315	62.9883	88.0614	62.9883	87.8892
64.4531	88.4033	64.4531	88.1909	64.4531	88.6111	64.4531	87.9811	64.4531	88.8069	64.4531	87.7805	64.4531	88.9829	64.4531	87.5947	64.4531	89.1314	64.4531	87.4288	64.4531	89.2451	64.4531	87.287	64.4531	89.318	64.4531	87.1723	64.4531	89.3458	64.4531	87.0869	64.4531	89.3267	64.4531	87.0318	64.4531	89.2618	64.4531	87.0071	64.4531	89.1552	64.4531	87.0122	64.4531	89.0137	64.4531	87.0457	64.4531	88.8458	64.4531	87.1058	64.4531	88.6605	64.4531	87.1901	64.4531	88.4664	64.4531	87.2964	64.4531	88.2708	64.4531	87.4222	64.4531	88.0794	64.4531	87.5655	64.4531	87.8962	64.4531	87.7241
67.3828	88.117	67.3828	87.9049	67.3828	88.3224	67.3828	87.6935	67.3828	88.5136	67.3828	87.4897	67.3828	88.6829	67.3828	87.2995	67.3828	88.8228	67.3828	87.1284	67.3828	88.9266	67.3828	86.9811	67.3828	88.9888	67.3828	86.8612	67.3828	89.0062	67.3828	86.7711	67.3828	88.9779	67.3828	86.7123	67.3828	88.9059	67.3828	86.6851	67.3828	88.7952	67.3828	86.6888	67.3828	88.6528	67.3828	86.722	67.3828	88.4871	67.3828	86.7825	67.3828	88.3065	67.3828	86.8676	67.3828	88.1187	67.3828	86.9745	67.3828	87.93	67.3828	87.1005	67.3828	87.7451	67.3828	87.2428	67.3828	87.5673	67.3828	87.3991
68.8477	88.0151	68.8477	87.8051	68.8477	88.2171	68.8477	87.5945	68.8477	88.4037	68.8477	87.3903	68.8477	88.5671	68.8477	87.1986	68.8477	88.7002	68.8477	87.0252	68.8477	88.7964	68.8477	86.8747	68.8477	88.8509	68.8477	86.751	68.8477	88.8606	68.8477	86.6566	68.8477	88.8251	68.8477	86.5934	68.8477	88.747	68.8477	86.5616	68.8477	88.6314	68.8477	86.5609	68.8477	88.4856	68.8477	86.5899	68.8477	88.3181	68.8477	86.6463	68.8477	88.1373	68.8477	86.7275	68.8477	87.9507	68.8477	86.8308	68.8477	87.7643	68.8477	86.953	68.8477	87.5825	68.8477	87.0916	68.8477	87.4083	68.8477	87.244
71.7773	87.7954	71.7773	87.5926	71.7773	87.9882	71.7773	87.3872	71.7773	88.1636	71.7773	87.1862	71.7773	88.3142	71.7773	86.9961	71.7773	88.4334	71.7773	86.8227	71.7773	88.5156	71.7773	86.6712	71.7773	88.5566	71.7773	86.5454	71.7773	88.5543	71.7773	86.4482	71.7773	88.5091	71.7773	86.3813	71.7773	88.424	71.7773	86.3454	71.7773	88.3045	71.7773	86.3399	71.7773	88.158	71.7773	86.3632	71.7773	87.9925	71.7773	86.4132	71.7773	87.8162	71.7773	86.4871	71.7773	87.6361	71.7773	86.582	71.7773	87.4577	71.7773	86.6952	71.7773	87.2849	71.7773	86.824	71.7773	87.1205	71.7773	86.9663
74.707	87.5453	74.707	87.3458	74.707	87.7333	74.707	87.1422	74.707	87.9025	74.707	86.9418	74.707	88.0458	74.707	86.7513	74.707	88.1569	74.707	86.5768	74.707	88.2306	74.707	86.4238	74.707	88.2632	74.707	86.2964	74.707	88.253	74.707	86.1979	74.707	88.2009	74.707	86.13	74.707	88.1106	74.707	86.0933	74.707	87.988	74.707	86.0872	74.707	87.8408	74.707	86.1101	74.707	87.6773	74.707	86.1595	74.707	87.5055	74.707	86.2321	74.707	87.3319	74.707	86.3249	74.707	87.1615	74.707	86.4347	74.707	86.9973	74.707	86.5587	74.707	86.8413	74.707	86.6947
77.6367	87.4132	77.6367	87.2167	77.6367	87.5976	77.6367	87.0153	77.6367	87.7624	77.6367	86.8161	77.6367	87.9008	77.6367	86.626	77.6367	88.0067	77.6367	86.4511	77.6367	88.0748	77.6367	86.2969	77.6367	88.1018	77.6367	86.1675	77.6367	88.0863	77.6367	86.0663	77.6367	88.0297	77.6367	85.9951	77.6367	87.9358	77.6367	85.9548	77.6367	87.8108	77.6367	85.9447	77.6367	87.6625	77.6367	85.9633	77.6367	87.4991	77.6367	86.0082	77.6367	87.3281	77.6367	86.0766	77.6367	87.1558	77.6367	86.1653	77.6367	86.9868	77.6367	86.2714	77.6367	86.8242	77.6367	86.3922	77.6367	86.67	77.6367	86.5256
79.1016	87.3594	79.1016	87.1633	79.1016	87.543	79.1016	86.9623	79.1016	87.7069	79.1016	86.7637	79.1016	87.8438	79.1016	86.5744	79.1016	87.9476	79.1016	86.4007	79.1016	88.0132	79.1016	86.2479	79.1016	88.0374	79.1016	86.1203	79.1016	88.0191	79.1016	86.021	79.1016	87.96	79.1016	85.9517	79.1016	87.8642	79.1016	85.9129	79.1016	87.7382	79.1016	85.9038	79.1016	87.59	79.1016	85.9228	79.1016	87.4277	79.1016	85.9673	79.1016	87.2587	79.1016	86.0344	79.1016	87.0891	79.1016	86.121	79.1016	86.9232	79.1016	86.2244	79.1016	86.764	79.1016	86.3421	79.1016	86.6132	79.1016	86.4722
82.0312	87.2155	82.0312	87.0197	82.0312	87.3974	82.0312	86.8177	82.0312	87.558	82.0312	86.6171	82.0312	87.6904	82.0312	86.425	82.0312	87.7884	82.0312	86.2479	82.0312	87.8475	82.0312	86.0915	82.0312	87.8647	82.0312	85.9604	82.0312	87.8395	82.0312	85.858	82.0312	87.7737	82.0312	85.786	82.0312	87.6722	82.0312	85.745	82.0312	87.5416	82.0312	85.7341	82.0312	87.3902	82.0312	85.7516	82.0312	87.2262	82.0312	85.7947	82.0312	87.0572	82.0312	85.8601	82.0312	86.889	82.0312	85.9448	82.0312	86.7257	82.0312	86.0456	82.0312	86.57	82.0312	86.16	82.0312	86.4233	82.0312	86.2863
84.9609	87.072	84.9609	86.8758	84.9609	87.2545	84.9609	86.6738	84.9609	87.4156	84.9609	86.4738	84.9609	87.5483	84.9609	86.2833	84.9609	87.6467	84.9609	86.1092	84.9609	87.7063	84.9609	85.9574	84.9609	87.7249	84.9609	85.8327	84.9609	87.7026	84.9609	85.7383	84.9609	87.6421	84.9609	85.676	84.9609	87.5486	84.9609	85.6459	84.9609	87.4289	84.9609	85.6465	84.9609	87.2908	84.9609	85.6754	84.9609	87.1414	84.9609	85.7292	84.9609	86.9868	84.9609	85.8041	84.9609	86.8313	84.9609	85.8965	84.9609	86.6781	84.9609	86.0032	84.9609	86.5292	84.9609	86.1217	84.9609	86.386	84.9609	86.2497
87.8906	87.0641	87.8906	86.8666	87.8906	87.2431	87.8906	86.6587	87.8906	87.396	87.8906	86.4487	87.8906	87.5161	87.8906	86.2446	87.8906	87.598	87.8906	86.054	87.8906	87.6382	87.8906	85.884	87.8906	87.6352	87.8906	85.7403	87.8906	87.5904	87.8906	85.6275	87.8906	87.5079	87.8906	85.5487	87.8906	87.3945	87.8906	85.505	87.8906	87.2588	87.8906	85.496	87.8906	87.1099	87.8906	85.5196	87.8906	86.956	87.8906	85.5721	87.8906	86.8033	87.8906	85.6492	87.8906	86.6549	87.8906	85.7459	87.8906	86.5117	87.8906	85.8571	87.8906	86.373	87.8906	85.9783	87.8906	86.2379	87.8906	86.106
90.8203	87.0234	90.8203	86.8246	90.8203	87.2028	90.8203	86.6146	90.8203	87.3551	90.8203	86.4018	90.8203	87.4737	90.8203	86.1943	90.8203	87.5532	90.8203	85.9999	90.8203	87.5898	90.8203	85.8256	90.8203	87.5821	90.8203	85.6772	90.8203	87.5312	90.8203	85.5592	90.8203	87.4409	90.8203	85.4745	90.8203	87.318	90.8203	85.4243	90.8203	87.171	90.8203	85.4082	90.8203	87.0094	90.8203	85.424	90.8203	86.8424	90.8203	85.4682	90.8203	86.6771	90.8203	85.5367	90.8203	86.5181	90.8203	85.6245	90.8203	86.3675	90.8203	85.7272	90.8203	86.2253	90.8203	85.8407	90.8203	86.0905	90.8203	85.9623
95.2148	87.0333	95.2148	86.8427	95.2148	87.202	95.2148	86.6384	95.2148	87.3416	95.2148	86.4285	95.2148	87.4458	95.2148	86.2214	95.2148	87.5099	95.2148	86.0248	95.2148	87.5311	95.2148	85.8456	95.2148	87.5085	95.2148	85.6897	95.2148	87.4441	95.2148	85.5617	95.2148	87.3423	95.2148	85.4647	95.2148	87.21	95.2148	85.4002	95.2148	87.0556	95.2148	85.3684	95.2148	86.8885	95.2148	85.3677	95.2148	86.7172	95.2148	85.3956	95.2148	86.5484	95.2148	85.4486	95.2148	86.3867	95.2148	85.5225	95.2148	86.2341	95.2148	85.6135	95.2148	86.0912	95.2148	85.7179	95.2148	85.9577	95.2148	85.8331
98.1445	86.924	98.1445	86.7376	98.1445	87.0883	98.1445	86.537	98.1445	87.2233	98.1445	86.3309	98.1445	87.3231	98.1445	86.1276	98.1445	87.3834	98.1445	85.9354	98.1445	87.402	98.1445	85.7617	98.1445	87.3788	98.1445	85.6124	98.1445	87.3164	98.1445	85.4922	98.1445	87.2197	98.1445	85.4039	98.1445	87.0957	98.1445	85.3488	98.1445	86.9529	98.1445	85.3263	98.1445	86.7995	98.1445	85.3343	98.1445	86.6431	98.1445	85.3697	98.1445	86.4889	98.1445	85.4285	98.1445	86.3403	98.1445	85.5064	98.1445	86.1987	98.1445	85.5992	98.1445	86.0645	98.1445	85.7035	98.1445	85.9372	98.1445	85.8167
101.074	86.8085	101.074	86.6176	101.074	86.9755	101.074	86.411	101.074	87.1113	101.074	86.1977	101.074	87.2099	101.074	85.9869	101.074	87.2671	101.074	85.7874	101.074	87.2808	101.074	85.6072	101.074	87.2513	101.074	85.4533	101.074	87.1818	101.074	85.3307	101.074	87.0782	101.074	85.2428	101.074	86.949	101.074	85.1908	101.074	86.8039	101.074	85.174	101.074	86.6521	101.074	85.1899	101.074	86.5014	101.074	85.2349	101.074	86.3563	101.074	85.304	101.074	86.2186	101.074	85.392	101.074	86.0878	101.074	85.4936	101.074	85.962	101.074	85.6042	101.074	85.8398	101.074	85.7203
105.469	86.9097	105.469	86.7158	105.469	87.0756	105.469	86.5024	105.469	87.2057	105.469	86.2789	105.469	87.2938	105.469	86.055	105.469	87.3356	105.469	85.8399	105.469	87.3288	105.469	85.6425	105.469	87.2742	105.469	85.4699	105.469	87.1757	105.469	85.3281	105.469	87.0405	105.469	85.2206	105.469	86.8788	105.469	85.1492	105.469	86.7024	105.469	85.1135	105.469	86.523	105.469	85.1111	105.469	86.3498	105.469	85.1385	105.469	86.1886	105.469	85.1909	105.469	86.0413	105.469	85.2633	105.469	85.9068	105.469	85.3507	105.469	85.7823	105.469	85.4487	105.469	85.6653	105.469	85.5541
108.398	87.1239	108.398	86.9363	108.398	87.2836	108.398	86.7294	108.398	87.4077	108.398	86.5124	108.398	87.4901	108.398	86.2946	108.398	87.5263	108.398	86.085	108.398	87.5139	108.398	85.8919	108.398	87.4534	108.398	85.7222	108.398	87.3484	108.398	85.5811	108.398	87.2058	108.398	85.4718	108.398	87.0356	108.398	85.3955	108.398	86.8495	108.398	85.3517	108.398	86.6597	108.398	85.3381	108.398	86.4764	108.398	85.3513	108.398	86.3066	108.398	85.3875	108.398	86.1534	108.398	85.4424	108.398	86.0168	108.398	85.5121	108.398	85.8948	108.398	85.5934	108.398	85.7847	108.398	85.6845
112.793	87.174	112.793	86.978	112.793	87.3419	112.793	86.7626	112.793	87.4737	112.793	86.5373	112.793	87.5628	112.793	86.3118	112.793	87.6043	112.793	86.0959	112.793	87.5952	112.793	85.8987	112.793	87.5357	112.793	85.7282	112.793	87.4297	112.793	85.5907	112.793	87.2847	112.793	85.4901	112.793	87.1121	112.793	85.4277	112.793	86.9255	112.793	85.4024	112.793	86.7389	112.793	85.4107	112.793	86.5638	112.793	85.4475	112.793	86.4075	112.793	85.5067	112.793	86.2715	112.793	85.5821	112.793	86.1531	112.793	85.6678	112.793	86.0472	112.793	85.759	112.793	85.9484	112.793	85.8528
117.188	87.2212	117.188	87.0275	117.188	87.385	117.188	86.8126	117.188	87.5107	117.188	86.5863	117.188	87.5916	117.188	86.3582	117.188	87.623	117.188	86.1378	117.188	87.6028	117.188	85.9339	117.188	87.5316	117.188	85.7544	117.188	87.4138	117.188	85.6056	117.188	87.2568	117.188	85.4918	117.188	87.0718	117.188	85.4151	117.188	86.8718	117.188	85.3751	117.188	86.6705	117.188	85.3692	117.188	86.4803	117.188	85.393	117.188	86.3099	117.188	85.4406	117.188	86.163	117.188	85.5054	117.188	86.0387	117.188	85.5812	117.188	85.932	117.188	85.6632	117.188	85.8371	117.188	85.7485
120.117	87.2533	120.117	87.062	120.117	87.4136	120.117	86.8491	120.117	87.5349	120.117	86.6242	120.117	87.6107	120.117	86.3973	120.117	87.6366	120.117	86.1779	120.117	87.6109	120.117	85.9749	120.117	87.5345	120.117	85.7957	120.117	87.412	120.117	85.6462	120.117	87.2511	120.117	85.5303	120.117	87.0626	120.117	85.4498	120.117	86.8595	120.117	85.4043	120.117	86.6553	120.117	85.3915	120.117	86.462	120.117	85.4072	120.117	86.2885	120.117	85.4463	120.117	86.1388	120.117	85.5026	120.117	86.0125	120.117	85.5707	120.117	85.9053	120.117	85.6461	120.117	85.8116	120.117	85.7263
124.512	87.3527	124.512	87.1498	124.512	87.5258	124.512	86.9271	124.512	87.6607	124.512	86.695	124.512	87.7504	124.512	86.4644	124.512	87.7905	124.512	86.2455	124.512	87.7787	124.512	86.0477	124.512	87.7161	124.512	85.8784	124.512	87.6068	124.512	85.743	124.512	87.4584	124.512	85.6444	124.512	87.2813	124.512	85.5828	124.512	87.0879	124.512	85.5563	124.512	86.8911	124.512	85.561	124.512	86.7024	124.512	85.5915	124.512	86.5302	124.512	85.6423	124.512	86.3788	124.512	85.7073	124.512	86.2485	124.512	85.7818	124.512	86.1362	124.512	85.8622	124.512	86.0373	124.512	85.947
128.906	87.4132	128.906	87.2068	128.906	87.5859	128.906	86.9769	128.906	87.7165	128.906	86.7347	128.906	87.7984	128.906	86.492	128.906	87.8278	128.906	86.2601	128.906	87.8035	128.906	86.0496	128.906	87.7275	128.906	85.8692	128.906	87.6051	128.906	85.725	128.906	87.4448	128.906	85.6207	128.906	87.2577	128.906	85.5568	128.906	87.0568	128.906	85.5309	128.906	86.8555	128.906	85.5387	128.906	86.6653	128.906	85.5739	128.906	86.4947	128.906	85.6296	128.906	86.3476	128.906	85.699	128.906	86.2233	128.906	85.7762	128.906	86.1178	128.906	85.8568	128.906	86.0251	128.906	85.9394
133.301	87.3716	133.301	87.1575	133.301	87.5508	133.301	86.9188	133.301	87.6869	133.301	86.6673	133.301	87.774	133.301	86.4154	133.301	87.8089	133.301	86.1758	133.301	87.7912	133.301	85.9597	133.301	87.7234	133.301	85.7767	133.301	87.611	133.301	85.6333	133.301	87.4621	133.301	85.533	133.301	87.2874	133.301	85.4756	133.301	87.0986	133.301	85.4585	133.301	86.9071	133.301	85.4763	133.301	86.7228	133.301	85.5223	133.301	86.553	133.301	85.5891	133.301	86.4012	133.301	85.6698	133.301	86.2679	133.301	85.7584	133.301	86.1505	133.301	85.8509	133.301	86.0447	133.301	85.9459
139.16	87.2225	139.16	86.9965	139.16	87.4134	139.16	86.7465	139.16	87.5603	139.16	86.485	139.16	87.6565	139.16	86.2259	139.16	87.698	139.16	85.9833	139.16	87.684	139.16	85.7709	139.16	87.6173	139.16	85.6003	139.16	87.5048	139.16	85.4795	139.16	87.3574	139.16	85.4125	139.16	87.1893	139.16	85.3982	139.16	87.0161	139.16	85.4309	139.16	86.8524	139.16	85.5018	139.16	86.7081	139.16	85.5998	139.16	86.5874	139.16	85.7137	139.16	86.488	139.16	85.8334	139.16	86.4033	139.16	85.9506	139.16	86.3251	139.16	86.0597	139.16	86.2452	139.16	86.1578
143.555	87.3939	143.555	87.1692	143.555	87.5806	143.555	86.9163	143.555	87.7206	143.555	86.647	143.555	87.8074	143.555	86.3736	143.555	87.8372	143.555	86.1091	143.555	87.8086	143.555	85.8664	143.555	87.724	143.555	85.6573	143.555	87.5893	143.555	85.492	143.555	87.4144	143.555	85.3772	143.555	87.2128	143.555	85.3158	143.555	87.0006	143.555	85.3065	143.555	86.794	143.555	85.3435	143.555	86.6073	143.555	85.4175	143.555	86.4492	143.555	85.5171	143.555	86.3212	143.555	85.6303	143.555	86.2182	143.555	85.7462	143.555	86.13	143.555	85.8563	143.555	86.0457	143.555	85.9561
147.949	87.3481	147.949	87.1186	147.949	87.5359	147.949	86.8579	147.949	87.6738	147.949	86.5776	147.949	87.7557	147.949	86.2909	147.949	87.7783	147.949	86.0113	147.949	87.7413	147.949	85.7521	147.949	87.6479	147.949	85.5255	147.949	87.5048	147.949	85.342	147.949	87.3224	147.949	85.2086	147.949	87.1139	147.949	85.1292	147.949	86.8941	147.949	85.1033	147.949	86.6784	147.949	85.1263	147.949	86.4796	147.949	85.1901	147.949	86.3067	147.949	85.2841	147.949	86.1624	147.949	85.3964	147.949	86.0428	147.949	85.5154	147.949	85.9395	147.949	85.6321	147.949	85.8418	147.949	85.741
153.809	87.0713	153.809	86.8361	153.809	87.2616	153.809	86.5674	153.809	87.3983	153.809	86.2786	153.809	87.4756	153.809	85.9851	153.809	87.4909	153.809	85.7024	153.809	87.4454	153.809	85.4457	153.809	87.344	153.809	85.2284	153.809	87.1959	153.809	85.0599	153.809	87.0134	153.809	84.9456	153.809	86.8114	153.809	84.8859	153.809	86.6053	153.809	84.877	153.809	86.4085	153.809	84.9121	153.809	86.2306	153.809	84.9821	153.809	86.0761	153.809	85.0771	153.809	85.9446	153.809	85.187	153.809	85.8312	153.809	85.303	153.809	85.7287	153.809	85.4176	153.809	85.6293	153.809	85.5267
159.668	87.2152	159.668	86.9618	159.668	87.4179	159.668	86.6685	159.668	87.5616	159.668	86.3485	159.668	87.6405	159.668	86.0172	159.668	87.6522	159.668	85.6917	159.668	87.597	159.668	85.3895	159.668	87.479	159.668	85.1275	159.668	87.3064	159.668	84.9195	159.668	87.0913	159.668	84.7749	159.668	86.8493	159.668	84.6965	159.668	86.5984	159.668	84.6809	159.668	86.3564	159.668	84.7189	159.668	86.1381	159.668	84.798	159.668	85.952	159.668	84.9041	159.668	85.7997	159.668	85.0239	159.668	85.6757	159.668	85.1463	159.668	85.5702	159.668	85.2634	159.668	85.4719	159.668	85.3716
165.527	87.1227	165.527	86.8851	165.527	87.3114	165.527	86.6097	165.527	87.4425	165.527	86.3099	165.527	87.5102	165.527	86.001	165.527	87.5123	165.527	85.6996	165.527	87.4503	165.527	85.4224	165.527	87.3302	165.527	85.1852	165.527	87.1622	165.527	85.0011	165.527	86.9606	165.527	84.8785	165.527	86.7424	165.527	84.8201	165.527	86.5249	165.527	84.8226	165.527	86.324	165.527	84.8774	165.527	86.1509	165.527	84.972	165.527	86.0108	165.527	85.0922	165.527	85.9018	165.527	85.2239	165.527	85.8159	165.527	85.3545	165.527	85.7412	165.527	85.4743	165.527	85.6652	165.527	85.5779
171.387	86.9323	171.387	86.6754	171.387	87.1354	171.387	86.3769	171.387	87.2754	171.387	86.0516	171.387	87.3464	171.387	85.717	171.387	87.3459	171.387	85.3925	171.387	87.2755	171.387	85.0983	171.387	87.1414	171.387	84.8533	171.387	86.955	171.387	84.6729	171.387	86.7324	171.387	84.5663	171.387	86.4933	171.387	84.5346	171.387	86.259	171.387	84.5711	171.387	86.0485	171.387	84.6621	171.387	85.8759	171.387	84.7904	171.387	85.7468	171.387	84.9378	171.387	85.6579	171.387	85.0874	171.387	85.5979	171.387	85.2255	171.387	85.5509	171.387	85.3424	171.387	85.5005	171.387	85.4336
177.246	86.8451	177.246	86.5901	177.246	87.0467	177.246	86.2924	177.246	87.1863	177.246	85.9643	177.246	87.2576	177.246	85.6206	177.246	87.2572	177.246	85.278	177.246	87.1859	177.246	84.9556	177.246	87.0494	177.246	84.6736	177.246	86.8586	177.246	84.4516	177.246	86.6289	177.246	84.3049	177.246	86.3793	177.246	84.2415	177.246	86.1302	177.246	84.2593	177.246	85.9002	177.246	84.3459	177.246	85.7042	177.246	84.4814	177.246	85.5503	177.246	84.6428	177.246	85.4387	177.246	84.8077	177.246	85.3613	177.246	84.9583	177.246	85.3036	177.246	85.0831	177.246	85.248	177.246	85.1782
183.105	86.8968	183.105	86.6294	183.105	87.106	183.105	86.3162	183.105	87.2474	183.105	85.9719	183.105	87.3143	183.105	85.6133	183.105	87.3041	183.105	85.259	183.105	87.2193	183.105	84.9291	183.105	87.0678	183.105	84.6439	183.105	86.8635	183.105	84.4219	183.105	86.6254	183.105	84.2772	183.105	86.3758	183.105	84.2168	183.105	86.1374	183.105	84.2383	183.105	85.9293	183.105	84.3307	183.105	85.7633	183.105	84.4756	183.105	85.6414	183.105	84.6512	183.105	85.5563	183.105	84.8357	183.105	85.4942	183.105	85.0101	183.105	85.4379	183.105	85.1609	183.105	85.3712	183.105	85.2812
188.965	87.0924	188.965	86.8114	188.965	87.3091	188.965	86.4778	188.965	87.4523	188.965	86.1059	188.965	87.5167	188.965	85.7125	188.965	87.5001	188.965	85.3171	188.965	87.4051	188.965	84.9413	188.965	87.2385	188.965	84.6087	188.965	87.0124	188.965	84.3427	188.965	86.7444	188.965	84.1631	188.965	86.4577	188.965	84.0815	188.965	86.1799	188.965	84.0981	188.965	85.9378	188.965	84.2009	188.965	85.7509	188.965	84.3679	188.965	85.6246	188.965	84.5725	188.965	85.5489	188.965	84.7878	188.965	85.5019	188.965	84.991	188.965	85.4584	188.965	85.1651	188.965	85.3964	188.965	85.3008
196.289	87.5554	196.289	87.2793	196.289	87.7694	196.289	86.9516	196.289	87.9124	196.289	86.5846	196.289	87.978	196.289	86.1924	196.289	87.963	196.289	85.7915	196.289	87.868	196.289	85.401	196.289	87.6977	196.289	85.0436	196.289	87.462	196.289	84.7444	196.289	87.1757	196.289	84.528	196.289	86.859	196.289	84.4135	196.289	86.5381	196.289	84.4082	196.289	86.2439	196.289	84.5041	196.289	86.0068	196.289	84.6784	196.289	85.847	196.289	84.899	196.289	85.7646	196.289	85.1318	196.289	85.7375	196.289	85.3465	196.289	85.7301	196.289	85.5204	196.289	85.7066	196.289	85.6408
203.613	87.507	203.613	87.2086	203.613	87.7387	203.613	86.8554	203.613	87.8944	203.613	86.4604	203.613	87.9676	203.613	86.0387	203.613	87.9557	203.613	85.6068	203.613	87.8608	203.613	85.1839	203.613	87.6901	203.613	84.7918	203.613	87.4546	203.613	84.455	203.613	87.169	203.613	84.1986	203.613	86.8508	203.613	84.0443	203.613	86.5203	203.613	84.0049	203.613	86.2015	203.613	84.0782	203.613	85.9216	203.613	84.2458	203.613	85.7052	203.613	84.4755	203.613	85.5642	203.613	84.7295	203.613	85.4883	203.613	84.9708	203.613	85.4466	203.613	85.1708	203.613	85.3996	203.613	85.3137
210.938	87.7598	210.938	87.4376	210.938	88.0152	210.938	87.0594	210.938	88.1947	210.938	86.6372	210.938	88.2919	210.938	86.1838	210.938	88.3043	210.938	85.7131	210.938	88.2327	210.938	85.2414	210.938	88.0812	210.938	84.789	210.938	87.8566	210.938	84.3812	210.938	87.5685	210.938	84.0479	210.938	87.2302	210.938	83.8202	210.938	86.861	210.938	83.7221	210.938	86.4868	210.938	83.7608	210.938	86.1392	210.938	83.9212	210.938	85.8491	210.938	84.1674	210.938	85.6345	210.938	84.4533	210.938	85.4908	210.938	84.734	210.938	85.3898	210.938	84.9756	210.938	85.2919	210.938	85.1609
218.262	87.6181	218.262	87.267	218.262	87.9114	218.262	86.873	218.262	88.1347	218.262	86.452	218.262	88.2803	218.262	86.0195	218.262	88.3457	218.262	85.5895	218.262	88.3325	218.262	85.1744	218.262	88.246	218.262	84.7868	218.262	88.0925	218.262	84.4411	218.262	87.8787	218.262	84.1556	218.262	87.6107	218.262	83.9526	218.262	87.2969	218.262	83.8547	218.262	86.9514	218.262	83.8766	218.262	86.5987	218.262	84.0163	218.262	86.2711	218.262	84.2502	218.262	85.9987	218.262	84.5383	218.262	85.7923	218.262	84.8353	218.262	85.6353	218.262	85.1033	218.262	85.491	218.262	85.3215
225.586	87.4049	225.586	86.9737	225.586	87.7707	225.586	86.4958	225.586	88.0576	225.586	85.9929	225.586	88.2584	225.586	85.4877	225.586	88.3725	225.586	85.0007	225.586	88.4041	225.586	84.549	225.586	88.3602	225.586	84.1461	225.586	88.2482	225.586	83.8042	225.586	88.0734	225.586	83.5377	225.586	87.8387	225.586	83.3655	225.586	87.5466	225.586	83.3091	225.586	87.2058	225.586	83.3847	225.586	86.8369	225.586	83.5908	225.586	86.474	225.586	83.9017	225.586	86.154	225.586	84.2714	225.586	85.896	225.586	84.6479	225.586	85.6883	225.586	84.988	225.586	85.4933	225.586	85.269
232.91	86.8137	232.91	86.3435	232.91	87.2191	232.91	85.8293	232.91	87.5463	232.91	85.2973	232.91	87.7894	232.91	84.7762	232.91	87.9497	232.91	84.2921	232.91	88.0333	232.91	83.8638	232.91	88.0493	232.91	83.4993	232.91	88.0064	232.91	83.1976	232.91	87.9082	232.91	82.9551	232.91	87.75	232.91	82.7742	232.91	87.5198	232.91	82.6705	232.91	87.206	232.91	82.67	232.91	86.8111	232.91	82.7962	232.91	86.3619	232.91	83.0501	232.91	85.9069	232.91	83.4008	232.91	85.495	232.91	83.7949	232.91	85.1454	232.91	84.18	232.91	84.8368	232.91	84.5261
241.699	85.7003	241.699	85.1597	241.699	86.1646	241.699	84.5634	241.699	86.5398	241.699	83.9411	241.699	86.8196	241.699	83.3316	241.699	87.0044	241.699	82.7797	241.699	87.1019	241.699	82.3274	241.699	87.1283	241.699	82.0004	241.699	87.1067	241.699	81.7987	241.699	87.0598	241.699	81.6979	241.699	86.9967	241.699	81.6636	241.699	86.9033	241.699	81.6703	241.699	86.7445	241.699	81.7135	241.699	86.4833	241.699	81.8104	241.699	86.1019	241.699	81.9866	241.699	85.615	241.699	82.2565	241.699	85.0663	241.699	82.6118	241.699	84.5086	241.699	83.0286	241.699	83.9784	241.699	83.486
250.488	85.8802	250.488	85.4258	250.488	86.2481	250.488	84.8947	250.488	86.5223	250.488	84.2999	250.488	86.6973	250.488	83.6611	250.488	86.7699	250.488	83.0077	250.488	86.742	250.488	82.3823	250.488	86.6256	250.488	81.839	250.488	86.4488	250.488	81.4311	250.488	86.2569	250.488	81.1911	250.488	86.0992	250.488	81.1151	250.488	86.0004	250.488	81.1692	250.488	85.9398	250.488	81.3129	250.488	85.86	250.488	81.5207	250.488	85.6997	250.488	81.7876	250.488	85.4237	250.488	82.1195	250.488	85.0318	250.488	82.5201	250.488	84.5524	250.488	82.9832	250.488	84.0263	250.488	83.4929
259.277	86.1662	259.277	85.8614	259.277	86.4059	259.277	85.499	259.277	86.5727	259.277	85.0862	259.277	86.6566	259.277	84.632	259.277	86.646	259.277	84.1505	259.277	86.5302	259.277	83.6647	259.277	86.3059	259.277	83.2092	259.277	85.987	259.277	82.8267	259.277	85.6142	259.277	82.5558	259.277	85.2547	259.277	82.4157	259.277	84.9832	259.277	82.3987	259.277	84.844	259.277	82.4792	259.277	84.8223	259.277	82.6305	259.277	84.854	259.277	82.8371	259.277	84.864	259.277	83.0939	259.277	84.7989	259.277	83.3966	259.277	84.6375	259.277	83.7319	259.277	84.3871	259.277	84.0736
268.066	86.2339	268.066	85.9215	268.066	86.4695	268.066	85.5438	268.066	86.6155	268.066	85.1114	268.066	86.659	268.066	84.6352	268.066	86.5891	268.066	84.1304	268.066	86.4001	268.066	83.6219	268.066	86.0985	268.066	83.1484	268.066	85.7083	268.066	82.762	268.066	85.2756	268.066	82.5146	268.066	84.8631	268.066	82.4363	268.066	84.5334	268.066	82.5183	268.066	84.3233	268.066	82.7179	268.066	84.2296	268.066	82.9801	268.066	84.2173	268.066	83.2583	268.066	84.2414	268.066	83.5228	268.066	84.2634	268.066	83.7575	268.066	84.2567	268.066	83.9536	268.066	84.206	268.066	84.1047
276.855	86.6016	276.855	86.2646	276.855	86.8565	276.855	85.8539	276.855	87.019	276.855	85.3772	276.855	87.0753	276.855	84.8442	276.855	87.0107	276.855	84.2687	276.855	86.8128	276.855	83.6718	276.855	86.4797	276.855	83.0854	276.855	86.0292	276.855	82.5531	276.855	85.5089	276.855	82.1271	276.855	84.9997	276.855	81.856	276.855	84.5976	276.855	81.768	276.855	84.367	276.855	81.8596	276.855	84.2986	276.855	82.0981	276.855	84.3213	276.855	82.4351	276.855	84.3537	276.855	82.8201	276.855	84.341	276.855	83.2087	276.855	84.2592	276.855	83.5662	276.855	84.1014	276.855	83.8684
287.109	86.6242	287.109	86.3772	287.109	86.7805	287.109	86.044	287.109	86.8421	287.109	85.6292	287.109	86.8056	287.109	85.1379	287.109	86.6678	287.109	84.579	287.109	86.4243	287.109	83.9718	287.109	86.071	287.109	83.3535	287.109	85.6096	287.109	82.7833	287.109	85.0589	287.109	82.3344	287.109	84.4717	287.109	82.0696	287.109	83.9446	287.109	82.0099	287.109	83.5942	287.109	82.1244	287.109	83.4848	287.109	82.352	287.109	83.5709	287.109	82.6321	287.109	83.7322	287.109	82.9234	287.109	83.8579	287.109	83.2025	287.109	83.8905	287.109	83.4558	287.109	83.8217	287.109	83.6688
297.363	86.9958	297.363	86.711	297.363	87.1895	297.363	86.3442	297.363	87.2821	297.363	85.9016	297.363	87.2631	297.363	85.3859	297.363	87.122	297.363	84.7967	297.363	86.8487	297.363	84.1356	297.363	86.435	297.363	83.4162	297.363	85.8781	297.363	82.6806	297.363	85.1905	297.363	82.0149	297.363	84.4207	297.363	81.5479	297.363	83.6795	297.363	81.4005	297.363	83.1404	297.363	81.5994	297.363	82.9525	297.363	82.0483	297.363	83.1081	297.363	82.5984	297.363	83.4462	297.363	83.1276	297.363	83.7884	297.363	83.5666	297.363	84.0269	297.363	83.8853	297.363	84.1228	297.363	84.0731
307.617	87.3774	307.617	87.1226	307.617	87.5442	307.617	86.7864	307.617	87.6189	307.617	86.3779	307.617	87.6007	307.617	85.9078	307.617	87.4913	307.617	85.3878	307.617	87.2927	307.617	84.8288	307.617	87.0023	307.617	84.2396	307.617	86.606	307.617	83.6283	307.617	86.0779	307.617	83.0082	307.617	85.3923	307.617	82.4119	307.617	84.5569	307.617	81.9081	307.617	83.6663	307.617	81.6022	307.617	82.9416	307.617	81.5897	307.617	82.6374	307.617	81.8787	307.617	82.7939	307.617	82.3663	307.617	83.1816	307.617	82.9014	307.617	83.5346	307.617	83.3541	307.617	83.702	307.617	83.6375
319.336	87.3646	319.336	87.1161	319.336	87.518	319.336	86.785	319.336	87.5669	319.336	86.3832	319.336	87.5077	319.336	85.9202	319.336	87.3438	319.336	85.4037	319.336	87.0854	319.336	84.8442	319.336	86.7466	319.336	84.2637	319.336	86.34	319.336	83.7024	319.336	85.8705	319.336	83.2164	319.336	85.3316	319.336	82.8616	319.336	84.7129	319.336	82.6681	319.336	84.0279	319.336	82.6286	319.336	83.3563	319.336	82.7105	319.336	82.8603	319.336	82.8756	319.336	82.6956	319.336	83.0867	319.336	82.853	319.336	83.3002	319.336	83.1527	319.336	83.4613	319.336	83.4044	319.336	83.5101
329.59	87.1039	329.59	86.8539	329.59	87.2874	329.59	86.5491	329.59	87.3941	329.59	86.199	329.59	87.4172	329.59	85.8085	329.59	87.3542	329.59	85.3754	329.59	87.2049	329.59	84.8926	329.59	86.9689	329.59	84.3543	329.59	86.6419	329.59	83.7668	329.59	86.2159	329.59	83.1615	329.59	85.6839	329.59	82.6061	329.59	85.0504	329.59	82.201	329.59	84.348	329.59	82.0434	329.59	83.6605	329.59	82.1651	329.59	83.1314	329.59	82.5024	329.59	82.9048	329.59	82.9306	329.59	83.0007	329.59	83.3234	329.59	83.277	329.59	83.5857	329.59	83.5417	329.59	83.6619
341.309	86.9519	341.309	86.6873	341.309	87.1231	341.309	86.3476	341.309	87.1901	341.309	85.9544	341.309	87.1525	341.309	85.5269	341.309	87.0217	341.309	85.0797	341.309	86.8167	341.309	84.6232	341.309	86.5575	341.309	84.1678	341.309	86.2549	341.309	83.7283	341.309	85.903	341.309	83.3244	341.309	85.48	341.309	82.9775	341.309	84.9632	341.309	82.7084	341.309	84.3562	341.309	82.5381	341.309	83.7232	341.309	82.4884	341.309	83.2004	341.309	82.5716	341.309	82.9358	341.309	82.7698	341.309	82.9606	341.309	83.0242	341.309	83.1472	341.309	83.2484	341.309	83.3187	341.309	83.3609
353.027	87.3832	353.027	87.0503	353.027	87.5938	353.027	86.6047	353.027	87.6797	353.027	86.0618	353.027	87.6461	353.027	85.4419	353.027	87.5051	353.027	84.7687	353.027	87.2745	353.027	84.0704	353.027	86.9745	353.027	83.3848	353.027	86.6237	353.027	82.7676	353.027	86.2309	353.027	82.295	353.027	85.79	353.027	82.0447	353.027	85.2821	353.027	82.0534	353.027	84.6942	353.027	82.285	353.027	84.0545	353.027	82.6466	353.027	83.463	353.027	83.0353	353.027	83.0735	353.027	83.37	353.027	82.9878	353.027	83.5965	353.027	83.1535	353.027	83.6816	353.027	83.4105	353.027	83.6126
366.211	88.1567	366.211	87.8302	366.211	88.3511	366.211	87.3775	366.211	88.4122	366.211	86.8099	366.211	88.3432	366.211	86.1417	366.211	88.1495	366.211	85.3871	366.211	87.839	366.211	84.5581	366.211	87.4248	366.211	83.6655	366.211	86.9327	366.211	82.729	366.211	86.4071	366.211	81.7992	366.211	85.9003	366.211	80.9859	366.211	85.441	366.211	80.4656	366.211	85.0104	366.211	80.4062	366.211	84.571	366.211	80.8274	366.211	84.1348	366.211	81.5629	366.211	83.8004	366.211	82.3824	366.211	83.6796	366.211	83.1023	366.211	83.7584	366.211	83.6118	366.211	83.8786	366.211	83.864
379.395	88.1509	379.395	87.8738	379.395	88.3282	379.395	87.5231	379.395	88.3899	379.395	87.1273	379.395	88.3313	379.395	86.7035	379.395	88.1544	379.395	86.2454	379.395	87.8634	379.395	85.7236	379.395	87.465	379.395	85.099	379.395	86.9714	379.395	84.3476	379.395	86.4045	379.395	83.4855	379.395	85.794	379.395	82.5923	379.395	85.1713	379.395	81.814	379.395	84.5671	379.395	81.3154	379.395	84.0174	379.395	81.1829	379.395	83.5706	379.395	81.3702	379.395	83.2717	379.395	81.7476	379.395	83.1234	379.395	82.1807	379.395	83.0646	379.395	82.5672	379.395	82.999	379.395	82.8452
392.578	87.6095	392.578	87.3909	392.578	87.6947	392.578	87.0616	392.578	87.6468	392.578	86.6652	392.578	87.4838	392.578	86.2523	392.578	87.23	392.578	85.8561	392.578	86.9046	392.578	85.4704	392.578	86.5154	392.578	85.0489	392.578	86.0623	392.578	84.5318	392.578	85.549	392.578	83.8875	392.578	84.9965	392.578	83.1559	392.578	84.4474	392.578	82.4799	392.578	83.9539	392.578	82.0753	392.578	83.5579	392.578	82.0852	392.578	83.2874	392.578	82.4404	392.578	83.1705	392.578	82.93	392.578	83.2227	392.578	83.3636	392.578	83.4027	392.578	83.6343	392.578	83.6035	392.578	83.7068
405.762	87.2891	405.762	87.0595	405.762	87.3301	405.762	86.6788	405.762	87.1654	405.762	86.198	405.762	86.8023	405.762	85.6747	405.762	86.2749	405.762	85.1627	405.762	85.6427	405.762	84.6972	405.762	84.9846	405.762	84.2808	405.762	84.3822	405.762	83.8834	405.762	83.887	405.762	83.4663	405.762	83.4918	405.762	83.0218	405.762	83.1439	405.762	82.6112	405.762	82.8093	405.762	82.3744	405.762	82.538	405.762	82.4568	405.762	82.465	405.762	82.868	405.762	82.6949	405.762	83.4431	405.762	83.1715	405.762	83.969	405.762	83.7135	405.762	84.2956	405.762	84.1449	405.762	84.3554
420.41	88.3549	420.41	88.0553	420.41	88.5239	420.41	87.6408	420.41	88.551	420.41	87.1295	420.41	88.4284	420.41	86.5368	420.41	88.1506	420.41	85.8723	420.41	87.7177	420.41	85.1432	420.41	87.1435	420.41	84.3618	420.41	86.4615	420.41	83.5522	420.41	85.7237	420.41	82.752	420.41	84.9869	420.41	82.016	420.41	84.2847	420.41	81.4332	420.41	83.6064	420.41	81.1386	420.41	82.9338	420.41	81.2566	420.41	82.3509	420.41	81.7706	420.41	82.0965	420.41	82.4866	420.41	82.3413	420.41	83.1578	420.41	82.9082	420.41	83.5968	420.41	83.4419	420.41	83.6993
435.059	87.5095	435.059	86.9709	435.059	87.8979	435.059	86.3339	435.059	88.1115	435.059	85.6677	435.059	88.1563	435.059	85.0392	435.059	88.0655	435.059	84.4829	435.059	87.8833	435.059	83.9777	435.059	87.6441	435.059	83.4557	435.059	87.3611	435.059	82.8382	435.059	87.0385	435.059	82.0772	435.059	86.6908	435.059	81.1967	435.059	86.3435	435.059	80.3476	435.059	86.0072	435.059	79.8413	435.059	85.6626	435.059	79.9966	435.059	85.2936	435.059	80.7979	435.059	84.9403	435.059	81.8946	435.059	84.6878	435.059	82.9383	435.059	84.5632	435.059	83.7371	435.059	84.4661	435.059	84.2325
451.172	88.1306	451.172	87.1647	451.172	88.8269	451.172	85.9499	451.172	89.261	451.172	84.5513	451.172	89.4561	451.172	83.0937	451.172	89.4442	451.172	81.7456	451.172	89.2629	451.172	80.6366	451.172	88.9573	451.172	79.7604	451.172	88.5801	451.172	78.9813	451.172	88.1852	451.172	78.1328	451.172	87.8101	451.172	77.1207	451.172	87.4524	451.172	76.0896	451.172	87.0639	451.172	75.7103	451.172	86.5933	451.172	76.7788	451.172	86.0655	451.172	78.8685	451.172	85.6255	451.172	81.0268	451.172	85.4233	451.172	82.8098	451.172	85.4023	451.172	84.11	451.172	85.3151	451.172	84.9277
465.82	87.0901	465.82	85.9442	465.82	88.0441	465.82	84.6384	465.82	88.7879	465.82	83.219	465.82	89.315	465.82	81.7448	465.82	89.6263	465.82	80.2925	465.82	89.7238	465.82	78.9795	465.82	89.605	465.82	77.9762	465.82	89.2695	465.82	77.4089	465.82	88.7414	465.82	77.1677	465.82	88.0954	465.82	76.888	465.82	87.4525	465.82	76.1421	465.82	86.924	465.82	74.6682	465.82	86.5319	465.82	73.1615	465.82	86.2031	465.82	74.3151	465.82	85.8544	465.82	77.507	465.82	85.4533	465.82	80.2888	465.82	84.988	465.82	82.2479	465.82	84.3983	465.82	83.5476
483.398	86.3519	483.398	85.5775	483.398	87.0429	483.398	84.7668	483.398	87.623	483.398	83.9845	483.398	88.0854	483.398	83.3088	483.398	88.4368	483.398	82.8119	483.398	88.6853	483.398	82.5255	483.398	88.8279	483.398	82.4166	483.398	88.8471	483.398	82.3966	483.398	88.7131	483.398	82.3445	483.398	88.3895	483.398	82.115	483.398	87.8467	483.398	81.5289	483.398	87.0875	483.398	80.3591	483.398	86.194	483.398	78.3209	483.398	85.3733	483.398	75.2882	483.398	84.8697	483.398	73.5729	483.398	84.6741	483.398	76.6366	483.398	84.4477	483.398	80.0981	483.398	83.7976	483.398	82.4305
499.512	86.2991	499.512	85.8269	499.512	86.7179	499.512	85.3144	499.512	87.0561	499.512	84.7691	499.512	87.2871	499.512	84.2152	499.512	87.4075	499.512	83.7023	499.512	87.4457	499.512	83.2794	499.512	87.4449	499.512	82.958	499.512	87.4264	499.512	82.7223	499.512	87.3603	499.512	82.5698	499.512	87.1767	499.512	82.501	499.512	86.8134	499.512	82.4501	499.512	86.2586	499.512	82.2676	499.512	85.56	499.512	81.7983	499.512	84.8115	499.512	80.9999	499.512	84.131	499.512	80.1107	499.512	83.5895	499.512	79.7627	499.512	83.1016	499.512	80.3821	499.512	82.4491	499.512	81.4853
517.09	86.894	517.09	86.6759	517.09	87.1503	517.09	86.4703	517.09	87.4296	517.09	86.2288	517.09	87.6841	517.09	85.9205	517.09	87.8564	517.09	85.5679	517.09	87.8939	517.09	85.2396	517.09	87.7533	517.09	84.9825	517.09	87.4009	517.09	84.7443	517.09	86.8141	517.09	84.3816	517.09	85.9865	517.09	83.7431	517.09	84.9566	517.09	82.7554	517.09	83.8815	517.09	81.4972	517.09	83.0593	517.09	80.2659	517.09	82.6927	517.09	79.5242	517.09	82.6485	517.09	79.56	517.09	82.6712	517.09	80.2069	517.09	82.6035	517.09	81.0702	517.09	82.348	517.09	81.834
536.133	87.224	536.133	87.3683	536.133	86.9586	536.133	87.2875	536.133	86.6865	536.133	86.9274	536.133	86.4789	536.133	86.3064	536.133	86.3473	536.133	85.5379	536.133	86.2892	536.133	84.8443	536.133	86.3367	536.133	84.4849	536.133	86.5247	536.133	84.5411	536.133	86.7887	536.133	84.7988	536.133	86.9213	536.133	84.9304	536.133	86.666	536.133	84.6956	536.133	85.8586	536.133	83.9875	536.133	84.5645	536.133	82.8423	536.133	83.2828	536.133	81.5624	536.133	82.8421	536.133	80.8928	536.133	83.2972	536.133	81.4071	536.133	83.8564	536.133	82.5531	536.133	83.9837	536.133	83.5289
555.176	87.1727	555.176	87.5823	555.176	86.6003	555.176	87.7345	555.176	85.995	555.176	87.5869	555.176	85.4748	555.176	87.1526	555.176	85.0853	555.176	86.4997	555.176	84.7815	555.176	85.75	555.176	84.4906	555.176	85.0648	555.176	84.2221	555.176	84.5884	555.176	84.1161	555.176	84.3457	555.176	84.2794	555.176	84.1874	555.176	84.5417	555.176	83.867	555.176	84.5229	555.176	83.157	555.176	83.8955	555.176	81.9206	555.176	82.6009	555.176	80.2443	555.176	81.1974	555.176	78.8552	555.176	80.8236	555.176	78.995	555.176	81.401	555.176	80.2897	555.176	81.78	555.176	81.4069
574.219	85.766	574.219	86.2136	574.219	85.0998	574.219	86.3624	574.219	84.3755	574.219	86.2022	574.219	83.7817	574.219	85.7675	574.219	83.4081	574.219	85.1206	574.219	83.1813	574.219	84.3507	574.219	82.9632	574.219	83.5829	574.219	82.6929	574.219	82.9616	574.219	82.4407	574.219	82.578	574.219	82.3509	574.219	82.3964	574.219	82.4933	574.219	82.2646	574.219	82.7218	574.219	81.9758	574.219	82.7268	574.219	81.3133	574.219	82.2682	574.219	80.0958	574.219	81.4157	574.219	78.3595	574.219	80.626	574.219	76.9631	574.219	80.2187	574.219	77.3591	574.219	79.781	574.219	78.7719
594.727	85.3652	594.727	86.1237	594.727	84.0853	594.727	86.4043	594.727	82.3413	594.727	86.2807	594.727	80.5147	594.727	85.8483	594.727	79.4565	594.727	85.2256	594.727	79.5334	594.727	84.5369	594.727	79.9969	594.727	83.8773	594.727	80.1708	594.727	83.3018	594.727	79.8593	594.727	82.8611	594.727	79.1864	594.727	82.6115	594.727	78.575	594.727	82.5421	594.727	78.5289	594.727	82.503	594.727	78.9845	594.727	82.2452	594.727	79.3375	594.727	81.5114	594.727	79.123	594.727	80.0893	594.727	78.2574	594.727	77.9113	594.727	76.9613	594.727	75.5243	594.727	75.5482	594.727	74.6151
615.234	87.6225	615.234	88.1888	615.234	86.4162	615.234	88.2497	615.234	84.4385	615.234	87.9446	615.234	81.5195	615.234	87.4124	615.234	77.2628	615.234	86.7773	615.234	70.3118	615.234	86.1298	615.234	62.3137	615.234	85.5145	615.234	70.3391	615.234	84.9377	615.234	73.9358	615.234	84.385	615.234	75.4613	615.234	83.8323	615.234	75.6716	615.234	83.26	615.234	74.3915	615.234	82.6714	615.234	70.9443	615.234	82.0862	615.234	65.2327	615.234	81.4788	615.234	65.7772	615.234	80.718	615.234	68.5024	615.234	79.5901	615.234	70.0593	615.234	77.881	615.234	72.5239	615.234	75.4636
637.207	88.7894	637.207	88.8956	637.207	88.2401	637.207	88.5581	637.207	87.2743	637.207	87.8054	637.207	85.9275	637.207	86.7124	637.207	84.2154	637.207	85.4455	637.207	82.1248	637.207	84.2939	637.207	79.6078	637.207	83.5629	637.207	76.5138	637.207	83.3367	637.207	72.3927	637.207	83.4166	637.207	66.5317	637.207	83.501	637.207	66.4429	637.207	83.3573	637.207	71.5514	637.207	82.9237	637.207	74.1897	637.207	82.3594	637.207	74.8895	637.207	81.9757	637.207	74.4396	637.207	81.9478	637.207	74.743	637.207	82.0531	637.207	77.0017	637.207	81.8679	637.207	79.4313	637.207	81.0604
659.18	88.2048	659.18	88.4705	659.18	87.5918	659.18	88.3444	659.18	86.6482	659.18	87.791	659.18	85.3491	659.18	86.8116	659.18	83.6997	659.18	85.4677	659.18	81.843	659.18	83.9124	659.18	79.996	659.18	82.4219	659.18	78.2139	659.18	81.3397	659.18	76.362	659.18	80.8154	659.18	74.1063	659.18	80.697	659.18	70.7279	659.18	80.809	659.18	67.1193	659.18	81.0624	659.18	69.949	659.18	81.3321	659.18	73.307	659.18	81.4542	659.18	74.3746	659.18	81.3346	659.18	73.7488	659.18	80.933	659.18	73.768	659.18	80.1099	659.18	76.1488	659.18	78.5789
682.617	88	682.617	88.1461	682.617	87.4024	682.617	87.8418	682.617	86.3971	682.617	87.1073	682.617	85.1254	682.617	85.9806	682.617	83.8178	682.617	84.5363	682.617	82.6246	682.617	82.9358	682.617	81.4858	682.617	81.446	682.617	80.2519	682.617	80.2797	682.617	78.8215	682.617	79.417	682.617	77.1563	682.617	78.7774	682.617	75.3095	682.617	78.4038	682.617	73.5497	682.617	78.3853	682.617	72.3949	682.617	78.7783	682.617	72.0324	682.617	79.511	682.617	72.0051	682.617	80.2607	682.617	72.5396	682.617	80.6245	682.617	74.534	682.617	80.3198	682.617	77.1478	682.617	79.1802
707.52	88.6027	707.52	88.5328	707.52	87.9308	707.52	87.8142	707.52	86.6467	707.52	86.6621	707.52	85.1694	707.52	85.331	707.52	83.9101	707.52	84.0416	707.52	82.8537	707.52	82.9477	707.52	81.9268	707.52	82.1526	707.52	81.2117	707.52	81.6898	707.52	80.4345	707.52	81.4022	707.52	78.9828	707.52	80.9597	707.52	76.9189	707.52	80.0855	707.52	76.3044	707.52	78.7218	707.52	77.3074	707.52	77.1739	707.52	77.7487	707.52	76.409	707.52	77.2662	707.52	77.3066	707.52	76.7519	707.52	79.1123	707.52	77.9566	707.52	80.5767	707.52	79.9699	707.52	80.9627
732.422	87.531	732.422	87.7245	732.422	86.8785	732.422	87.4368	732.422	85.9244	732.422	86.7594	732.422	84.8606	732.422	85.7946	732.422	83.7861	732.422	84.5983	732.422	82.705	732.422	83.2527	732.422	81.6502	732.422	81.9228	732.422	80.7515	732.422	80.7291	732.422	79.9332	732.422	79.7067	732.422	78.66	732.422	78.971	732.422	76.6292	732.422	78.5307	732.422	74.7673	732.422	78.0387	732.422	74.3454	732.422	77.209	732.422	74.9194	732.422	76.2365	732.422	75.6895	732.422	76.1167	732.422	75.7491	732.422	77.51	732.422	75.6399	732.422	78.8946	732.422	77.291	732.422	78.8949
757.324	87.1123	757.324	87.529	757.324	86.5862	757.324	87.6043	757.324	86.0315	757.324	87.1542	757.324	85.3607	757.324	86.1411	757.324	84.4439	757.324	84.643	757.324	83.2089	757.324	82.7527	757.324	81.7307	757.324	80.4206	757.324	80.1669	757.324	77.8559	757.324	78.5515	757.324	76.7798	757.324	76.9136	757.324	77.6077	757.324	75.7662	757.324	78.4201	757.324	75.7911	757.324	78.7367	757.324	75.9998	757.324	78.7227	757.324	75.2981	757.324	78.758	757.324	74.1736	757.324	79.0467	757.324	72.6706	757.324	79.3807	757.324	72.3021	757.324	79.3351	757.324	75.6202	757.324	78.2896
785.156	85.4706	785.156	85.9947	785.156	86.937	785.156	87.9028	785.156	87.952	785.156	89.1481	785.156	87.4502	785.156	89.1972	785.156	85.0722	785.156	88.0063	785.156	79.6745	785.156	85.6709	785.156	62.3308	785.156	82.7092	785.156	74.7544	785.156	80.6772	785.156	78.052	785.156	80.0031	785.156	77.2974	785.156	78.3524	785.156	74.2773	785.156	73.8549	785.156	73.8615	785.156	71.5316	785.156	79.3747	785.156	75.4969	785.156	82.7721	785.156	77.4438	785.156	83.0924	785.156	78.4168	785.156	79.6463	785.156	79.9805	785.156	70.646	785.156	81.7204	785.156	78.1128	785.156	81.7102
811.523	89.4865	811.523	88.5239	811.523	88.3152	811.523	85.486	811.523	84.5173	811.523	82.2379	811.523	79.8132	811.523	84.4689	811.523	83.7207	811.523	87.2215	811.523	86.9387	811.523	88.4867	811.523	88.1484	811.523	88.7095	811.523	88.0982	811.523	88.1983	811.523	87.3398	811.523	86.9915	811.523	86.3533	811.523	85.2297	811.523	85.0668	811.523	83.7788	811.523	82.6516	811.523	83.3919	811.523	77.3189	811.523	83.2374	811.523	65.3508	811.523	82.8298	811.523	78.1138	811.523	82.8014	811.523	81.6103	811.523	82.5812	811.523	80.2793	811.523	80.6146	811.523	71.0892	811.523	73.6056
840.82	86.7178	840.82	88.9258	840.82	84.6711	840.82	89.3309	840.82	86.0505	840.82	87.8278	840.82	87.318	840.82	84.2924	840.82	86.7971	840.82	78.5252	840.82	84.8133	840.82	73.3817	840.82	82.1335	840.82	74.5035	840.82	80.8487	840.82	75.4864	840.82	82.083	840.82	75.8378	840.82	82.9127	840.82	77.5019	840.82	81.6444	840.82	79.9201	840.82	77.7638	840.82	82.5357	840.82	73.1295	840.82	83.9406	840.82	73.0337	840.82	82.9748	840.82	73.0905	840.82	80.5808	840.82	77.3945	840.82	79.3838	840.82	80.5464	840.82	76.2437	840.82	79.1719	840.82	72.0194
870.117	86.806	870.117	88.8858	870.117	84.0553	870.117	88.9024	870.117	85.618	870.117	86.9126	870.117	87.9389	870.117	82.4193	870.117	88.4026	870.117	71.3465	870.117	87.3659	870.117	77.6123	870.117	85.8034	870.117	83.8496	870.117	84.7359	870.117	86.4458	870.117	84.2014	870.117	87.2901	870.117	84.0018	870.117	87.1385	870.117	84.3039	870.117	86.7456	870.117	84.9317	870.117	86.1208	870.117	85.0905	870.117	84.4351	870.117	83.9634	870.117	81.0192	870.117	80.1149	870.117	75.8401	870.117	64.2795	870.117	69.9617	870.117	78.7363	870.117	73.8454	870.117	82.2978	870.117	80.4554
900.879	85.3959	900.879	86.3279	900.879	87.285	900.879	88.6103	900.879	88.7852	900.879	89.7218	900.879	88.4524	900.879	88.9778	900.879	85.7595	900.879	85.7005	900.879	78.9696	900.879	77.9734	900.879	67.3008	900.879	75.7409	900.879	78.8183	900.879	81.6227	900.879	79.6324	900.879	83.258	900.879	76.7386	900.879	82.8893	900.879	70.7097	900.879	81.5577	900.879	70.3393	900.879	80.3186	900.879	81.198	900.879	78.9171	900.879	84.5667	900.879	75.5304	900.879	83.7672	900.879	69.347	900.879	78.1943	900.879	69.0272	900.879	74.8742	900.879	76.8979	900.879	81.0651	900.879	81.2879
933.105	87.675	933.105	89.2619	933.105	87.2109	933.105	89.7954	933.105	87.9009	933.105	88.787	933.105	87.0801	933.105	86.466	933.105	83.7397	933.105	83.4583	933.105	79.463	933.105	80.0175	933.105	80.4339	933.105	74.4947	933.105	83.397	933.105	61.6539	933.105	85.18	933.105	51.9558	933.105	85.5493	933.105	66.6676	933.105	85.2454	933.105	74.8413	933.105	84.3022	933.105	78.0491	933.105	80.0254	933.105	80.503	933.105	70.7198	933.105	82.315	933.105	80.2164	933.105	81.277	933.105	80.8295	933.105	77.1686	933.105	77.5817	933.105	74.9427	933.105	76.689	933.105	76.4156
965.332	87.2361	965.332	88.0993	965.332	88.7721	965.332	90.1056	965.332	88.9485	965.332	90.6049	965.332	86.3742	965.332	89.3373	965.332	82.1464	965.332	86.6214	965.332	83.3006	965.332	83.0448	965.332	85.7297	965.332	79.8253	965.332	86.0658	965.332	79.8051	965.332	84.6172	965.332	82.4628	965.332	83.5403	965.332	84.9507	965.332	84.078	965.332	86.8012	965.332	85.2059	965.332	87.743	965.332	86.4035	965.332	87.3012	965.332	85.946	965.332	85.2665	965.332	81.8472	965.332	80.6024	965.332	61.8843	965.332	72.6195	965.332	78.5502	965.332	65.0042	965.332	81.4882	965.332	78.0428
1,000.49	87.9498	1,000.49	87.5222	1,000.49	89.538	1,000.49	89.1816	1,000.49	89.3468	1,000.49	90.0789	1,000.49	86.489	1,000.49	88.9534	1,000.49	82.9632	1,000.49	85.3177	1,000.49	83.7503	1,000.49	80.4005	1,000.49	84.4403	1,000.49	78.5485	1,000.49	84.0945	1,000.49	79.104	1,000.49	83.4695	1,000.49	81.1397	1,000.49	82.0426	1,000.49	82.3866	1,000.49	77.8254	1,000.49	83.1423	1,000.49	71.3987	1,000.49	84.4438	1,000.49	78.7186	1,000.49	83.439	1,000.49	82.8458	1,000.49	79.2043	1,000.49	84.3565	1,000.49	70.6141	1,000.49	80.6001	1,000.49	73.6172	1,000.49	64.5903	1,000.49	78.2584	1,000.49	80.2378	1,000.49	80.8262
1,035.64	89.6221	1,035.64	87.425	1,035.64	89.8531	1,035.64	86.9826	1,035.64	87.3548	1,035.64	89.3604	1,035.64	84.1126	1,035.64	90.1664	1,035.64	86.6483	1,035.64	88.6015	1,035.64	88.8055	1,035.64	85.1827	1,035.64	89.0624	1,035.64	80.3412	1,035.64	88.1492	1,035.64	74.0718	1,035.64	86.5775	1,035.64	75.2787	1,035.64	85.0956	1,035.64	79.0034	1,035.64	83.6011	1,035.64	79.9074	1,035.64	80.5548	1,035.64	80.4633	1,035.64	76.8523	1,035.64	80.4216	1,035.64	77.2605	1,035.64	76.6909	1,035.64	79.8476	1,035.64	67.0519	1,035.64	80.251	1,035.64	71.7335	1,035.64	72.9179	1,035.64	77.9088	1,035.64	74.4755	1,035.64	79.9188
1,072.27	87.9029	1,072.27	88.1318	1,072.27	87.6741	1,072.27	87.791	1,072.27	88.4756	1,072.27	87.074	1,072.27	89.3255	1,072.27	86.0858	1,072.27	88.5006	1,072.27	84.7939	1,072.27	85.6602	1,072.27	85.0588	1,072.27	81.8242	1,072.27	86.6714	1,072.27	79.0092	1,072.27	87.2151	1,072.27	77.6473	1,072.27	87.152	1,072.27	74.1661	1,072.27	87.0205	1,072.27	72.7736	1,072.27	85.0386	1,072.27	75.1387	1,072.27	81.0253	1,072.27	78.9883	1,072.27	79.6861	1,072.27	82.334	1,072.27	77.263	1,072.27	82.8245	1,072.27	73.5408	1,072.27	80.8524	1,072.27	72.4385	1,072.27	75.5993	1,072.27	72.9182	1,072.27	76.2637	1,072.27	76.2155
1,108.89	87.3627	1,108.89	86.7305	1,108.89	88.5104	1,108.89	87.4466	1,108.89	88.6071	1,108.89	87.151	1,108.89	87.3649	1,108.89	84.8624	1,108.89	85.5535	1,108.89	80.1649	1,108.89	85.2124	1,108.89	75.8187	1,108.89	86.0949	1,108.89	83.993	1,108.89	87.4794	1,108.89	87.632	1,108.89	88.4805	1,108.89	88.6718	1,108.89	88.2997	1,108.89	88.6562	1,108.89	86.9662	1,108.89	87.2215	1,108.89	83.5451	1,108.89	84.0994	1,108.89	74.3631	1,108.89	80.0368	1,108.89	72.1376	1,108.89	74.1509	1,108.89	80.3041	1,108.89	73.8942	1,108.89	81.8799	1,108.89	74.322	1,108.89	77.5365	1,108.89	75.3095	1,108.89	67.0171	1,108.89	73.9364
1,148.44	89.0264	1,148.44	88.1848	1,148.44	87.9801	1,148.44	85.185	1,148.44	86.9234	1,148.44	84.3204	1,148.44	87.9672	1,148.44	86.7393	1,148.44	89.339	1,148.44	87.3333	1,148.44	89.1885	1,148.44	84.7999	1,148.44	87.571	1,148.44	80.3871	1,148.44	86.1291	1,148.44	81.7407	1,148.44	85.3874	1,148.44	83.353	1,148.44	84.5438	1,148.44	82.7849	1,148.44	84.7227	1,148.44	80.5529	1,148.44	84.8435	1,148.44	78.0226	1,148.44	81.0985	1,148.44	76.3961	1,148.44	68.7424	1,148.44	69.6884	1,148.44	80.2118	1,148.44	69.5565	1,148.44	80.8274	1,148.44	75.7839	1,148.44	76.3524	1,148.44	76.4941	1,148.44	60.0903	1,148.44	73.316
1,189.45	88.0897	1,189.45	87.7143	1,189.45	88.7587	1,189.45	86.8342	1,189.45	88.9399	1,189.45	84.1106	1,189.45	87.6983	1,189.45	79.9922	1,189.45	84.826	1,189.45	80.872	1,189.45	81.1159	1,189.45	81.9299	1,189.45	77.7591	1,189.45	78.8117	1,189.45	75.2215	1,189.45	68.5273	1,189.45	73.1888	1,189.45	71.3008	1,189.45	72.0442	1,189.45	77.1051	1,189.45	76.2012	1,189.45	78.0251	1,189.45	79.5914	1,189.45	75.1363	1,189.45	80.5859	1,189.45	63.9217	1,189.45	77.0617	1,189.45	72.2647	1,189.45	61.9852	1,189.45	76.3354	1,189.45	77.1409	1,189.45	72.5517	1,189.45	79.112	1,189.45	68.4775	1,189.45	74.9439	1,189.45	59.2613
1,230.47	88.6385	1,230.47	86.5548	1,230.47	89.0206	1,230.47	84.4003	1,230.47	87.4814	1,230.47	83.3248	1,230.47	84.8222	1,230.47	80.7589	1,230.47	82.4445	1,230.47	74.0336	1,230.47	80.257	1,230.47	73.3618	1,230.47	76.7769	1,230.47	73.4444	1,230.47	71.9607	1,230.47	69.2191	1,230.47	71.4386	1,230.47	65.9509	1,230.47	72.4371	1,230.47	69.7782	1,230.47	70.0383	1,230.47	69.5919	1,230.47	70.0157	1,230.47	69.6195	1,230.47	72.4037	1,230.47	72.6113	1,230.47	74.2392	1,230.47	72.4134	1,230.47	74.5895	1,230.47	71.1381	1,230.47	68.7544	1,230.47	52.9897	1,230.47	71.9232	1,230.47	67.3166	1,230.47	74.1917	1,230.47	70.8106
1,274.41	87.671	1,274.41	86.7251	1,274.41	87.5095	1,274.41	84.03	1,274.41	86.7268	1,274.41	79.201	1,274.41	85.2737	1,274.41	73.9214	1,274.41	82.4015	1,274.41	72.7739	1,274.41	76.9501	1,274.41	70.878	1,274.41	66.4512	1,274.41	66.6911	1,274.41	68.0957	1,274.41	53.9214	1,274.41	68.2073	1,274.41	62.7491	1,274.41	63.9575	1,274.41	71.0162	1,274.41	56.4379	1,274.41	73.4044	1,274.41	63.5787	1,274.41	72.2684	1,274.41	67.4209	1,274.41	66.7512	1,274.41	68.8315	1,274.41	61.6236	1,274.41	54.4921	1,274.41	63.6062	1,274.41	70.7637	1,274.41	61.9075	1,274.41	74.0146	1,274.41	62.8717	1,274.41	72.0312	1,274.41	67.311
1,319.82	86.9391	1,319.82	85.9414	1,319.82	86.4759	1,319.82	83.3038	1,319.82	85.1453	1,319.82	79.2707	1,319.82	83.0616	1,319.82	73.9732	1,319.82	79.4588	1,319.82	67.4043	1,319.82	72.9459	1,319.82	56.2104	1,319.82	64.7994	1,319.82	62.3007	1,319.82	64.4942	1,319.82	68.3652	1,319.82	65.0856	1,319.82	69.5916	1,319.82	65.3696	1,319.82	69.9218	1,319.82	59.0935	1,319.82	70.2448	1,319.82	62.7458	1,319.82	69.5382	1,319.82	65.746	1,319.82	68.523	1,319.82	63.2679	1,319.82	63.4295	1,319.82	65.2495	1,319.82	53.517	1,319.82	64.8751	1,319.82	65.7889	1,319.82	66.0499	1,319.82	69.869	1,319.82	69.5362	1,319.82	71.2714
1,366.7	86.024	1,366.7	85.578	1,366.7	85.6648	1,366.7	83.9655	1,366.7	84.4022	1,366.7	81.0839	1,366.7	80.7031	1,366.7	76.7317	1,366.7	71.4104	1,366.7	70.6792	1,366.7	63.6899	1,366.7	66.0643	1,366.7	70.122	1,366.7	57.5224	1,366.7	69.8178	1,366.7	64.4579	1,366.7	72.8087	1,366.7	73.484	1,366.7	78.0591	1,366.7	78.0513	1,366.7	79.0182	1,366.7	77.9224	1,366.7	75.8989	1,366.7	74.3957	1,366.7	70.4428	1,366.7	68.6641	1,366.7	63.9177	1,366.7	59.5653	1,366.7	67.8712	1,366.7	66.9827	1,366.7	64.0977	1,366.7	67.1819	1,366.7	64.6444	1,366.7	66.31	1,366.7	72.4066	1,366.7	71.2536
1,413.57	87.3025	1,413.57	86.4729	1,413.57	86.7216	1,413.57	85.0404	1,413.57	84.0868	1,413.57	82.9699	1,413.57	79.4008	1,413.57	78.7437	1,413.57	73.5312	1,413.57	70.5797	1,413.57	66.2159	1,413.57	68.2538	1,413.57	69.2415	1,413.57	69.5298	1,413.57	72.2018	1,413.57	72.7514	1,413.57	72.7123	1,413.57	75.1294	1,413.57	76.3923	1,413.57	75.8352	1,413.57	78.2183	1,413.57	75.0825	1,413.57	77.7191	1,413.57	70.4412	1,413.57	74.1233	1,413.57	62.9797	1,413.57	61.9303	1,413.57	55.4118	1,413.57	64.3151	1,413.57	62.4146	1,413.57	66.257	1,413.57	66.3072	1,413.57	70.054	1,413.57	66.1587	1,413.57	70.4354	1,413.57	68.2089
1,463.38	88.1698	1,463.38	87.3148	1,463.38	87.284	1,463.38	85.2971	1,463.38	84.3576	1,463.38	81.9036	1,463.38	79.2984	1,463.38	76.4444	1,463.38	73.0076	1,463.38	69.9282	1,463.38	69.9723	1,463.38	62.5208	1,463.38	69.4784	1,463.38	58.5268	1,463.38	71.5931	1,463.38	52.1911	1,463.38	71.4935	1,463.38	49.473	1,463.38	67.711	1,463.38	62.4139	1,463.38	66.1515	1,463.38	46.6545	1,463.38	62.9561	1,463.38	67.6587	1,463.38	67.0759	1,463.38	64.9424	1,463.38	67.2807	1,463.38	68.7904	1,463.38	62.2259	1,463.38	59.788	1,463.38	60.4395	1,463.38	67.8511	1,463.38	69.3483	1,463.38	69.2625	1,463.38	71.9207	1,463.38	71.0439
1,516.11	88.8663	1,516.11	87.9141	1,516.11	87.6867	1,516.11	85.3254	1,516.11	83.9916	1,516.11	81.751	1,516.11	77.9339	1,516.11	77.1333	1,516.11	72.7709	1,516.11	71.7247	1,516.11	75.7448	1,516.11	71.4907	1,516.11	76.7333	1,516.11	70.532	1,516.11	74.3429	1,516.11	68.8089	1,516.11	72.9133	1,516.11	68.8939	1,516.11	72.608	1,516.11	66.4835	1,516.11	70.7211	1,516.11	60.1896	1,516.11	68.2272	1,516.11	63.2915	1,516.11	67.8439	1,516.11	66.8423	1,516.11	65.0398	1,516.11	70.109	1,516.11	48.7325	1,516.11	63.0602	1,516.11	60.4429	1,516.11	65.6902	1,516.11	69.8465	1,516.11	67.2135	1,516.11	70.9585	1,516.11	68.1252
1,568.85	88.0815	1,568.85	87.8924	1,568.85	87.3902	1,568.85	85.8497	1,568.85	84.9259	1,568.85	81.3561	1,568.85	78.1714	1,568.85	74.2967	1,568.85	72.5975	1,568.85	67.6809	1,568.85	76.6856	1,568.85	68.0721	1,568.85	78.1164	1,568.85	70.5781	1,568.85	75.956	1,568.85	73.8739	1,568.85	76.4292	1,568.85	73.0333	1,568.85	76.3325	1,568.85	72.85	1,568.85	76.7391	1,568.85	71.6547	1,568.85	75.519	1,568.85	70.1868	1,568.85	72.5601	1,568.85	68.3044	1,568.85	67.8162	1,568.85	66.0705	1,568.85	61.5574	1,568.85	64.398	1,568.85	36.4278	1,568.85	69.9196	1,568.85	65.5509	1,568.85	71.3409	1,568.85	71.7259	1,568.85	72.5361
1,624.51	87.5015	1,624.51	87.5342	1,624.51	86.9083	1,624.51	86.054	1,624.51	84.4921	1,624.51	81.3166	1,624.51	78.1029	1,624.51	72.3149	1,624.51	74.2761	1,624.51	68.245	1,624.51	77.8537	1,624.51	72.7379	1,624.51	76.7673	1,624.51	76.771	1,624.51	70.9766	1,624.51	78.6916	1,624.51	62.6563	1,624.51	79.6459	1,624.51	58.5805	1,624.51	79.322	1,624.51	67.2214	1,624.51	75.8982	1,624.51	69.9806	1,624.51	73.2056	1,624.51	74.7002	1,624.51	60.405	1,624.51	75.4544	1,624.51	56.4799	1,624.51	70.4882	1,624.51	67.7548	1,624.51	65.3473	1,624.51	64.018	1,624.51	61.7545	1,624.51	69.4493	1,624.51	67.4918	1,624.51	70.2311
1,681.64	87.7755	1,681.64	87.1131	1,681.64	85.7083	1,681.64	84.0194	1,681.64	83.3186	1,681.64	80.6803	1,681.64	80.7562	1,681.64	78.1978	1,681.64	79.1916	1,681.64	77.9731	1,681.64	81.5021	1,681.64	77.1215	1,681.64	79.7119	1,681.64	75.5354	1,681.64	77.9324	1,681.64	74.0704	1,681.64	74.4924	1,681.64	68.1107	1,681.64	73.172	1,681.64	73.8988	1,681.64	73.7889	1,681.64	77.4973	1,681.64	70.1918	1,681.64	73.7599	1,681.64	69.0365	1,681.64	67.532	1,681.64	75.4524	1,681.64	62.8203	1,681.64	67.955	1,681.64	71.2924	1,681.64	67.3112	1,681.64	68.4419	1,681.64	60.8964	1,681.64	71.8655	1,681.64	69.7341	1,681.64	70.8499
1,741.7	88.2476	1,741.7	87.0163	1,741.7	87.1554	1,741.7	84.5467	1,741.7	82.9316	1,741.7	80.6348	1,741.7	77.818	1,741.7	76.9044	1,741.7	78.7595	1,741.7	75.01	1,741.7	80.5681	1,741.7	75.8255	1,741.7	81.2913	1,741.7	76.2221	1,741.7	79.6022	1,741.7	74.6212	1,741.7	75.7054	1,741.7	71.7212	1,741.7	74.3662	1,741.7	70.4917	1,741.7	75.6802	1,741.7	63.102	1,741.7	75.7216	1,741.7	73.1581	1,741.7	72.6897	1,741.7	75.962	1,741.7	71.6626	1,741.7	73.0953	1,741.7	58.7263	1,741.7	68.3409	1,741.7	69.5697	1,741.7	69.6421	1,741.7	68.7878	1,741.7	65.711	1,741.7	72.1965	1,741.7	70.2259
1,803.22	88.548	1,803.22	87.6081	1,803.22	87.5607	1,803.22	84.9254	1,803.22	83.3082	1,803.22	79.4445	1,803.22	78.0146	1,803.22	76.3051	1,803.22	79.6318	1,803.22	77.5067	1,803.22	80.4208	1,803.22	78.7249	1,803.22	80.5645	1,803.22	77.0004	1,803.22	78.4393	1,803.22	75.0113	1,803.22	75.0076	1,803.22	71.0199	1,803.22	73.398	1,803.22	69.237	1,803.22	72.9925	1,803.22	73.8491	1,803.22	70.9733	1,803.22	70.4764	1,803.22	69.0937	1,803.22	71.1251	1,803.22	72.0558	1,803.22	72.5681	1,803.22	67.7654	1,803.22	69.1357	1,803.22	60.2585	1,803.22	65.7841	1,803.22	59.4974	1,803.22	68.1455	1,803.22	71.1182	1,803.22	70.6057
1,866.21	88.1063	1,866.21	87.8103	1,866.21	87.1784	1,866.21	85.0334	1,866.21	84.1415	1,866.21	79.8819	1,866.21	78.5218	1,866.21	79.4582	1,866.21	79.7684	1,866.21	80.4007	1,866.21	81.5457	1,866.21	78.8587	1,866.21	80.7128	1,866.21	78.2268	1,866.21	78.851	1,866.21	76.2031	1,866.21	76.1466	1,866.21	75.1735	1,866.21	72.2558	1,866.21	74.098	1,866.21	72.8331	1,866.21	71.4123	1,866.21	73.5304	1,866.21	71.3406	1,866.21	69.1839	1,866.21	70.249	1,866.21	71.8855	1,866.21	72.0396	1,866.21	63.4995	1,866.21	70.9988	1,866.21	60.9104	1,866.21	70.1665	1,866.21	62.1853	1,866.21	71.9046	1,866.21	71.8332	1,866.21	71.8437
1,932.13	87.349	1,932.13	87.1159	1,932.13	86.2597	1,932.13	84.1289	1,932.13	83.9921	1,932.13	81.4352	1,932.13	80.7708	1,932.13	82.0363	1,932.13	80.3401	1,932.13	79.7228	1,932.13	81.8466	1,932.13	79.3304	1,932.13	81.2004	1,932.13	77.7997	1,932.13	78.7081	1,932.13	75.8633	1,932.13	75.7801	1,932.13	74.7777	1,932.13	72.5305	1,932.13	72.8118	1,932.13	71.9527	1,932.13	70.3366	1,932.13	73.2221	1,932.13	70.8684	1,932.13	70.9072	1,932.13	71.3106	1,932.13	70.5837	1,932.13	72.5198	1,932.13	65.8769	1,932.13	69.9704	1,932.13	60.9117	1,932.13	68.19	1,932.13	62.3595	1,932.13	68.5913	1,932.13	69.8784	1,932.13	68.9136
1,999.51	87.9734	1,999.51	86.4637	1,999.51	86.3687	1,999.51	82.5932	1,999.51	82.9205	1,999.51	82.6931	1,999.51	81.4269	1,999.51	81.9007	1,999.51	82.1904	1,999.51	82.0168	1,999.51	81.5449	1,999.51	79.5122	1,999.51	80.2699	1,999.51	77.9565	1,999.51	78.0748	1,999.51	76.8843	1,999.51	76.0168	1,999.51	71.6019	1,999.51	73.504	1,999.51	73.0623	1,999.51	69.2676	1,999.51	72.1149	1,999.51	73.2507	1,999.51	70.2832	1,999.51	70.4188	1,999.51	71.097	1,999.51	70.0691	1,999.51	70.3149	1,999.51	65.2676	1,999.51	71.8043	1,999.51	62.4928	1,999.51	68.1945	1,999.51	62.0433	1,999.51	70.8961	1,999.51	70.6743	1,999.51	69.4011
2,069.82	89.0008	2,069.82	86.9063	2,069.82	87.7932	2,069.82	84.6171	2,069.82	83.2805	2,069.82	83.1707	2,069.82	79.9893	2,069.82	82.8008	2,069.82	82.7645	2,069.82	81.5719	2,069.82	83.0651	2,069.82	79.8318	2,069.82	79.8195	2,069.82	78.174	2,069.82	77.9979	2,069.82	75.2389	2,069.82	74.9906	2,069.82	75.5623	2,069.82	70.2452	2,069.82	72.4839	2,069.82	64.8751	2,069.82	72.3751	2,069.82	70.5659	2,069.82	69.6005	2,069.82	70.2324	2,069.82	70.7318	2,069.82	68.6468	2,069.82	71.8244	2,069.82	60.8167	2,069.82	71.5525	2,069.82	62.8723	2,069.82	67.7214	2,069.82	64.8942	2,069.82	71.6196	2,069.82	70.5506	2,069.82	69.2938
2,143.07	88.4908	2,143.07	87.1157	2,143.07	88.2861	2,143.07	85.95	2,143.07	85.4134	2,143.07	84.3065	2,143.07	79.9746	2,143.07	83.3283	2,143.07	82.5008	2,143.07	81.7513	2,143.07	83.4786	2,143.07	79.9241	2,143.07	81.2864	2,143.07	75.3145	2,143.07	77.5615	2,143.07	74.9709	2,143.07	75.6168	2,143.07	73.4409	2,143.07	73.8112	2,143.07	70.364	2,143.07	69.0935	2,143.07	71.6275	2,143.07	66.0652	2,143.07	69.7783	2,143.07	70.9712	2,143.07	70.297	2,143.07	65.6526	2,143.07	70.7171	2,143.07	66.0867	2,143.07	72.0778	2,143.07	64.3162	2,143.07	69.8431	2,143.07	62.2615	2,143.07	71.3583	2,143.07	70.5704	2,143.07	69.8973
2,219.24	87.2869	2,219.24	86.6534	2,219.24	87.3442	2,219.24	86.0235	2,219.24	86.0333	2,219.24	85.125	2,219.24	82.7767	2,219.24	83.567	2,219.24	81.6514	2,219.24	81.3979	2,219.24	83.2326	2,219.24	79.0586	2,219.24	81.9123	2,219.24	77.0072	2,219.24	78.9388	2,219.24	74.9704	2,219.24	74.3587	2,219.24	72.3675	2,219.24	72.4608	2,219.24	73.0378	2,219.24	72.5167	2,219.24	69.797	2,219.24	69.256	2,219.24	69.3059	2,219.24	72.9475	2,219.24	69.1559	2,219.24	68.8813	2,219.24	70.7955	2,219.24	68.0456	2,219.24	71.4057	2,219.24	61.8078	2,219.24	69.7023	2,219.24	64.5667	2,219.24	71.1085	2,219.24	70.0475	2,219.24	69.612
2,296.88	87.6417	2,296.88	87.0791	2,296.88	87.3109	2,296.88	85.6857	2,296.88	84.5505	2,296.88	85.7519	2,296.88	83.4273	2,296.88	83.3995	2,296.88	81.6612	2,296.88	81.3007	2,296.88	82.999	2,296.88	78.4806	2,296.88	81.7776	2,296.88	76.2824	2,296.88	79.0392	2,296.88	75.756	2,296.88	75.6249	2,296.88	74.5615	2,296.88	71.4902	2,296.88	71.5456	2,296.88	70.4324	2,296.88	71.0684	2,296.88	72.2142	2,296.88	70.1549	2,296.88	72.7461	2,296.88	68.1642	2,296.88	69.4225	2,296.88	70.2443	2,296.88	68.8453	2,296.88	69.2321	2,296.88	63.9226	2,296.88	70.2867	2,296.88	65.3917	2,296.88	69.5266	2,296.88	67.9779	2,296.88	69.9655
2,378.91	88.4606	2,378.91	87.57	2,378.91	87.9598	2,378.91	86.3659	2,378.91	85.2607	2,378.91	85.4221	2,378.91	82.5802	2,378.91	83.886	2,378.91	82.6048	2,378.91	80.6261	2,378.91	81.5615	2,378.91	77.5613	2,378.91	80.7599	2,378.91	76.6089	2,378.91	78.0874	2,378.91	70.909	2,378.91	77.0842	2,378.91	73.0402	2,378.91	74.8477	2,378.91	69.1842	2,378.91	70.8437	2,378.91	72.2282	2,378.91	69.8076	2,378.91	68.3803	2,378.91	73.1479	2,378.91	68.7434	2,378.91	69.0156	2,378.91	68.9839	2,378.91	66.459	2,378.91	70.7933	2,378.91	65.4162	2,378.91	70.6649	2,378.91	63.5721	2,378.91	69.8302	2,378.91	67.1214	2,378.91	70.3778
2,462.4	87.8915	2,462.4	86.7441	2,462.4	87.822	2,462.4	87.1624	2,462.4	85.8698	2,462.4	85.3313	2,462.4	82.0508	2,462.4	82.6175	2,462.4	82.8149	2,462.4	80.0804	2,462.4	81.9082	2,462.4	79.3375	2,462.4	80.7917	2,462.4	76.8654	2,462.4	78.0149	2,462.4	77.0242	2,462.4	73.8689	2,462.4	74.618	2,462.4	71.9791	2,462.4	71.9079	2,462.4	72.2241	2,462.4	70.4047	2,462.4	65.1442	2,462.4	69.8381	2,462.4	68.1785	2,462.4	66.9134	2,462.4	66.1717	2,462.4	71.1653	2,462.4	63.6919	2,462.4	69.8094	2,462.4	65.0281	2,462.4	69.6144	2,462.4	62.9811	2,462.4	69.5259	2,462.4	67.7861	2,462.4	69.9963
2,548.83	86.9711	2,548.83	86.9791	2,548.83	87.4929	2,548.83	87.1139	2,548.83	85.5833	2,548.83	85.3848	2,548.83	81.9429	2,548.83	82.0326	2,548.83	82.1303	2,548.83	81.084	2,548.83	82.559	2,548.83	80.0592	2,548.83	80.5204	2,548.83	76.9306	2,548.83	77.666	2,548.83	74.6727	2,548.83	71.3722	2,548.83	72.4705	2,548.83	73.0797	2,548.83	72.4246	2,548.83	72.8154	2,548.83	69.5282	2,548.83	67.506	2,548.83	69.2568	2,548.83	63.6884	2,548.83	67.9336	2,548.83	63.2712	2,548.83	69.9763	2,548.83	64.0842	2,548.83	70.1211	2,548.83	64.4075	2,548.83	70.6918	2,548.83	61.0473	2,548.83	69.0486	2,548.83	66.6942	2,548.83	69.8548
2,639.65	86.8355	2,639.65	87.4654	2,639.65	87.5863	2,639.65	86.5066	2,639.65	85.5519	2,639.65	84.5559	2,639.65	81.3155	2,639.65	82.2384	2,639.65	81.9468	2,639.65	81.2153	2,639.65	82.2057	2,639.65	78.3085	2,639.65	80.4941	2,639.65	77.0879	2,639.65	77.3011	2,639.65	72.2636	2,639.65	72.8706	2,639.65	72.3248	2,639.65	73.2762	2,639.65	68.9443	2,639.65	72.5396	2,639.65	67.0999	2,639.65	63.0416	2,639.65	68.7346	2,639.65	64.7756	2,639.65	66.3043	2,639.65	60.8133	2,639.65	69.0694	2,639.65	64.9836	2,639.65	69.2944	2,639.65	63.7041	2,639.65	68.8802	2,639.65	59.7709	2,639.65	69.8926	2,639.65	66.2884	2,639.65	69.5839
2,731.93	86.8578	2,731.93	87.3046	2,731.93	87.0027	2,731.93	86.801	2,731.93	86.7543	2,731.93	83.761	2,731.93	82.4663	2,731.93	82.4981	2,731.93	81.0736	2,731.93	80.0603	2,731.93	81.5563	2,731.93	77.9769	2,731.93	80.1277	2,731.93	74.0634	2,731.93	76.8187	2,731.93	73.1538	2,731.93	73.4421	2,731.93	71.4163	2,731.93	70.6984	2,731.93	67.8333	2,731.93	72.2428	2,731.93	67.2561	2,731.93	68.6687	2,731.93	66.5149	2,731.93	64.2806	2,731.93	63.4888	2,731.93	65.6131	2,731.93	68.6378	2,731.93	62.7691	2,731.93	68.3611	2,731.93	62.9105	2,731.93	68.4509	2,731.93	58.8527	2,731.93	68.8641	2,731.93	64.5901	2,731.93	69.6854
2,828.61	87.1237	2,828.61	87.6588	2,828.61	86.7113	2,828.61	86.5142	2,828.61	86.5694	2,828.61	84.0401	2,828.61	83.2988	2,828.61	81.6037	2,828.61	80.5834	2,828.61	80.6329	2,828.61	81.2059	2,828.61	77.5009	2,828.61	79.2645	2,828.61	73.9818	2,828.61	77.7901	2,828.61	71.1037	2,828.61	76.3301	2,828.61	68.0329	2,828.61	70.5544	2,828.61	68.8595	2,828.61	64.4428	2,828.61	67.3965	2,828.61	64.8463	2,828.61	65.0755	2,828.61	67.0009	2,828.61	64.1728	2,828.61	66.2354	2,828.61	66.8069	2,828.61	60.2208	2,828.61	68.1646	2,828.61	62.8306	2,828.61	67.7707	2,828.61	58.8074	2,828.61	67.1537	2,828.61	64.8351	2,828.61	68.3176
2,928.22	86.7971	2,928.22	87.7881	2,928.22	86.9604	2,928.22	86.4426	2,928.22	85.958	2,928.22	83.6572	2,928.22	83.0619	2,928.22	81.7671	2,928.22	79.0217	2,928.22	79.3512	2,928.22	80.5751	2,928.22	74.9016	2,928.22	78.1363	2,928.22	72.7268	2,928.22	75.7762	2,928.22	70.0896	2,928.22	74.2663	2,928.22	66.9419	2,928.22	67.4726	2,928.22	68.1774	2,928.22	67.1795	2,928.22	66.1979	2,928.22	61.9682	2,928.22	65.8157	2,928.22	64.0487	2,928.22	63.9241	2,928.22	62.1801	2,928.22	65.0411	2,928.22	46.7247	2,928.22	67.4882	2,928.22	63.9065	2,928.22	66.9326	2,928.22	61.2622	2,928.22	67.9711	2,928.22	64.7419	2,928.22	69.2046
3,030.76	86.8053	3,030.76	88.0559	3,030.76	86.2979	3,030.76	85.4552	3,030.76	85.8763	3,030.76	83.751	3,030.76	82.7375	3,030.76	82.1053	3,030.76	79.8261	3,030.76	78.0829	3,030.76	79.6328	3,030.76	75.1721	3,030.76	76.9472	3,030.76	72.6545	3,030.76	75.6063	3,030.76	71.9456	3,030.76	72.3109	3,030.76	70.2379	3,030.76	63.0242	3,030.76	70.4255	3,030.76	70.9573	3,030.76	68.4271	3,030.76	68.6502	3,030.76	67.5499	3,030.76	58.0279	3,030.76	64.2076	3,030.76	63.7914	3,030.76	64.9237	3,030.76	58.59	3,030.76	68.641	3,030.76	66.2533	3,030.76	66.0459	3,030.76	60.5101	3,030.76	67.6671	3,030.76	64.0506	3,030.76	68.409
3,137.7	88.0168	3,137.7	88.1161	3,137.7	85.7835	3,137.7	85.8941	3,137.7	86.0674	3,137.7	83.9339	3,137.7	82.982	3,137.7	80.8154	3,137.7	78.7785	3,137.7	77.0375	3,137.7	79.5853	3,137.7	75.6256	3,137.7	77.7595	3,137.7	72.7108	3,137.7	75.6343	3,137.7	72.5586	3,137.7	71.7428	3,137.7	70.1429	3,137.7	68.1736	3,137.7	68.554	3,137.7	72.2086	3,137.7	67.237	3,137.7	67.982	3,137.7	66.4334	3,137.7	62.0265	3,137.7	63.7407	3,137.7	56.8136	3,137.7	64.5703	3,137.7	59.447	3,137.7	67.5955	3,137.7	65.61	3,137.7	65.8379	3,137.7	58.9323	3,137.7	67.6556	3,137.7	63.3396	3,137.7	69.6407
3,249.02	87.9517	3,249.02	87.6278	3,249.02	85.7928	3,249.02	86.1988	3,249.02	85.5809	3,249.02	83.6136	3,249.02	83.2672	3,249.02	80.1145	3,249.02	77.0457	3,249.02	77.7116	3,249.02	78.5282	3,249.02	75.1199	3,249.02	76.5539	3,249.02	73.4885	3,249.02	76.5364	3,249.02	71.1892	3,249.02	72.3493	3,249.02	68.6333	3,249.02	71.0015	3,249.02	69.4737	3,249.02	71.3374	3,249.02	68.2588	3,249.02	66.0251	3,249.02	67.0427	3,249.02	62.5088	3,249.02	65.7914	3,249.02	59.3571	3,249.02	65.542	3,249.02	59.2925	3,249.02	66.7014	3,249.02	63.7045	3,249.02	66.7194	3,249.02	61.1406	3,249.02	67.4246	3,249.02	64.2455	3,249.02	68.1396
3,363.28	87.5371	3,363.28	87.1003	3,363.28	85.909	3,363.28	85.0218	3,363.28	84.6917	3,363.28	82.7649	3,363.28	82.9813	3,363.28	79.887	3,363.28	76.6586	3,363.28	76.9055	3,363.28	76.5645	3,363.28	75.042	3,363.28	75.1775	3,363.28	72.9554	3,363.28	76.6398	3,363.28	70.4963	3,363.28	71.8389	3,363.28	70.4425	3,363.28	70.8759	3,363.28	68.6918	3,363.28	72.2211	3,363.28	67.6659	3,363.28	62.5777	3,363.28	65.2733	3,363.28	62.9258	3,363.28	64.0318	3,363.28	55.5575	3,363.28	64.7392	3,363.28	59.0501	3,363.28	67.3768	3,363.28	64.6912	3,363.28	65.3024	3,363.28	59.2346	3,363.28	66.2779	3,363.28	62.6295	3,363.28	66.7015
3,481.93	87.6495	3,481.93	86.9823	3,481.93	85.7511	3,481.93	85.139	3,481.93	84.2996	3,481.93	83.025	3,481.93	82.3325	3,481.93	78.4098	3,481.93	76.9174	3,481.93	77.3674	3,481.93	75.2704	3,481.93	74.4127	3,481.93	76.1467	3,481.93	71.6322	3,481.93	75.1256	3,481.93	70.6816	3,481.93	72.1432	3,481.93	67.307	3,481.93	71.3338	3,481.93	67.1022	3,481.93	68.6519	3,481.93	66.1321	3,481.93	66.7385	3,481.93	64.6042	3,481.93	60.6863	3,481.93	62.9787	3,481.93	56.8983	3,481.93	64.693	3,481.93	58.2874	3,481.93	65.8116	3,481.93	63.0805	3,481.93	64.6336	3,481.93	57.984	3,481.93	66.447	3,481.93	62.9938	3,481.93	67.0977
3,604.98	87.56	3,604.98	86.4119	3,604.98	85.7322	3,604.98	85.5447	3,604.98	84.5879	3,604.98	82.0975	3,604.98	82.1291	3,604.98	79.6316	3,604.98	76.5357	3,604.98	76.2138	3,604.98	72.4999	3,604.98	73.099	3,604.98	76.6747	3,604.98	72.3912	3,604.98	74.2561	3,604.98	70.2397	3,604.98	72.0929	3,604.98	70.8655	3,604.98	69.32	3,604.98	68.3885	3,604.98	68.3839	3,604.98	67.8019	3,604.98	67.7616	3,604.98	64.4393	3,604.98	60.1765	3,604.98	63.2932	3,604.98	55.8837	3,604.98	62.8734	3,604.98	59.124	3,604.98	65.967	3,604.98	62.197	3,604.98	65.0896	3,604.98	59.1641	3,604.98	65.8496	3,604.98	61.3258	3,604.98	66.4636
3,732.42	87.2543	3,732.42	86.4837	3,732.42	85.7128	3,732.42	85.3212	3,732.42	83.7929	3,732.42	82.3709	3,732.42	82.7869	3,732.42	78.6029	3,732.42	76.062	3,732.42	75.3313	3,732.42	73.024	3,732.42	73.8251	3,732.42	76.8635	3,732.42	71.8993	3,732.42	74.872	3,732.42	71.8043	3,732.42	71.9649	3,732.42	69.6208	3,732.42	65.5834	3,732.42	68.1974	3,732.42	67.7775	3,732.42	67.1552	3,732.42	67.909	3,732.42	65.421	3,732.42	59.6728	3,732.42	64.1749	3,732.42	57.7921	3,732.42	62.7245	3,732.42	56.8072	3,732.42	65.6344	3,732.42	60.8469	3,732.42	64.6072	3,732.42	58.5592	3,732.42	64.9383	3,732.42	60.7141	3,732.42	65.5958
3,864.26	87.3729	3,864.26	86.9471	3,864.26	86.1428	3,864.26	85.6012	3,864.26	82.9343	3,864.26	81.4715	3,864.26	82.7298	3,864.26	78.3175	3,864.26	78.034	3,864.26	75.4985	3,864.26	72.1764	3,864.26	74.0251	3,864.26	77.0503	3,864.26	73.3016	3,864.26	74.8347	3,864.26	70.9184	3,864.26	71.3142	3,864.26	69.6016	3,864.26	62.0447	3,864.26	68.7692	3,864.26	66.3709	3,864.26	67.5436	3,864.26	66.4126	3,864.26	65.2212	3,864.26	56.9978	3,864.26	64.9042	3,864.26	55.6446	3,864.26	63.5506	3,864.26	55.5	3,864.26	65.9498	3,864.26	61.6441	3,864.26	65.2596	3,864.26	55.7258	3,864.26	65.9975	3,864.26	60.609	3,864.26	66.2578
4,000.49	87.1739	4,000.49	86.4807	4,000.49	86.1856	4,000.49	85.4495	4,000.49	82.8171	4,000.49	81.4456	4,000.49	81.6773	4,000.49	76.847	4,000.49	78.1397	4,000.49	76.1723	4,000.49	72.8468	4,000.49	74.4221	4,000.49	76.7928	4,000.49	73.0805	4,000.49	73.049	4,000.49	72.2012	4,000.49	71.1217	4,000.49	70.4465	4,000.49	65.6774	4,000.49	68.6736	4,000.49	62.1892	4,000.49	67.1979	4,000.49	63.8625	4,000.49	65.1693	4,000.49	57.9295	4,000.49	64.9292	4,000.49	51.1721	4,000.49	60.3059	4,000.49	61.0338	4,000.49	65.5913	4,000.49	59.7488	4,000.49	64.5568	4,000.49	57.8793	4,000.49	64.1439	4,000.49	57.7719	4,000.49	64.4439
4,141.11	86.7788	4,141.11	87.3037	4,141.11	86.7141	4,141.11	83.9238	4,141.11	82.5568	4,141.11	79.9468	4,141.11	81.6048	4,141.11	77.2255	4,141.11	77.7576	4,141.11	76.6573	4,141.11	73.7997	4,141.11	74.0946	4,141.11	75.0049	4,141.11	73.1849	4,141.11	71.7	4,141.11	70.107	4,141.11	66.0362	4,141.11	67.2691	4,141.11	65.6584	4,141.11	67.4017	4,141.11	68.8994	4,141.11	66.1306	4,141.11	66.786	4,141.11	64.7065	4,141.11	51.8981	4,141.11	63.708	4,141.11	51.4473	4,141.11	63.2089	4,141.11	60.5539	4,141.11	64.3868	4,141.11	57.5259	4,141.11	62.6947	4,141.11	59.8344	4,141.11	63.5796	4,141.11	59.8067	4,141.11	65.6403
4,287.6	87.0146	4,287.6	86.5996	4,287.6	86.8678	4,287.6	83.9169	4,287.6	83.319	4,287.6	80.6737	4,287.6	80.8151	4,287.6	78.3651	4,287.6	77.2495	4,287.6	75.9063	4,287.6	71.5263	4,287.6	75.0584	4,287.6	72.39	4,287.6	71.4557	4,287.6	70.0273	4,287.6	71.8109	4,287.6	71.2557	4,287.6	69.2093	4,287.6	70.4333	4,287.6	65.9192	4,287.6	68.4541	4,287.6	65.5115	4,287.6	66.6672	4,287.6	64.0026	4,287.6	50.6592	4,287.6	64.4664	4,287.6	57.2891	4,287.6	61.0867	4,287.6	58.8492	4,287.6	62.2649	4,287.6	54.8111	4,287.6	64.0596	4,287.6	60.118	4,287.6	63.3912	4,287.6	59.2968	4,287.6	64.5283
4,438.48	86.8788	4,438.48	86.6269	4,438.48	86.4652	4,438.48	83.6992	4,438.48	83.656	4,438.48	80.256	4,438.48	80.4336	4,438.48	77.8846	4,438.48	78.5734	4,438.48	76.1802	4,438.48	69.4562	4,438.48	74.0741	4,438.48	69.9846	4,438.48	72.3819	4,438.48	74.0378	4,438.48	68.2697	4,438.48	72.4301	4,438.48	67.7908	4,438.48	70.3416	4,438.48	68.1062	4,438.48	69.5892	4,438.48	65.519	4,438.48	66.3724	4,438.48	64.6443	4,438.48	51.292	4,438.48	62.8593	4,438.48	56.4478	4,438.48	62.0382	4,438.48	54.9577	4,438.48	62.5898	4,438.48	55.3906	4,438.48	62.1955	4,438.48	56.4619	4,438.48	62.5446	4,438.48	55.771	4,438.48	63.9974
4,595.21	87.3201	4,595.21	86.3745	4,595.21	86.792	4,595.21	83.9032	4,595.21	83.3482	4,595.21	80.8153	4,595.21	80.6329	4,595.21	78.2876	4,595.21	79.7199	4,595.21	75.731	4,595.21	68.7781	4,595.21	74.452	4,595.21	69.7702	4,595.21	71.3009	4,595.21	76.9311	4,595.21	71.0878	4,595.21	74.5869	4,595.21	67.6432	4,595.21	69.0424	4,595.21	64.7991	4,595.21	64.1881	4,595.21	64.8141	4,595.21	67.3017	4,595.21	65.3067	4,595.21	60.0761	4,595.21	65.1725	4,595.21	51.3989	4,595.21	62.0084	4,595.21	51.1991	4,595.21	62.5251	4,595.21	54.2384	4,595.21	62.8337	4,595.21	58.2434	4,595.21	63.5694	4,595.21	56.8446	4,595.21	64.2774
4,756.35	86.243	4,756.35	85.8028	4,756.35	86.3251	4,756.35	84.2206	4,756.35	84.4011	4,756.35	80.3683	4,756.35	79.5435	4,756.35	76.5532	4,756.35	79.6079	4,756.35	76.9366	4,756.35	70.2703	4,756.35	73.1127	4,756.35	72.6707	4,756.35	72.8512	4,756.35	77.683	4,756.35	69.6946	4,756.35	72.1285	4,756.35	69.5239	4,756.35	69.7664	4,756.35	66.6793	4,756.35	66.2396	4,756.35	64.3202	4,756.35	65.3096	4,756.35	64.0546	4,756.35	56.7008	4,756.35	63.6206	4,756.35	47.1509	4,756.35	62.6801	4,756.35	46.5892	4,756.35	61.1749	4,756.35	54.7808	4,756.35	61.6526	4,756.35	59.1135	4,756.35	62.5	4,756.35	57.5022	4,756.35	63.3364
4,924.8	87.3262	4,924.8	86.7395	4,924.8	86.7582	4,924.8	83.7191	4,924.8	84.1468	4,924.8	79.2008	4,924.8	78.8544	4,924.8	77.8178	4,924.8	78.5547	4,924.8	75.805	4,924.8	70.8994	4,924.8	72.8827	4,924.8	72.7368	4,924.8	71.3382	4,924.8	76.03	4,924.8	68.0363	4,924.8	70.0218	4,924.8	63.3374	4,924.8	64.0001	4,924.8	60.9479	4,924.8	64.0169	4,924.8	60.943	4,924.8	62.3675	4,924.8	60.4752	4,924.8	59.2248	4,924.8	62.1047	4,924.8	48.9822	4,924.8	60.9221	4,924.8	57.3163	4,924.8	58.4794	4,924.8	52.6048	4,924.8	60.493	4,924.8	55.5055	4,924.8	60.9885	4,924.8	55.2394	4,924.8	61.6177
5,097.66	87.0665	5,097.66	85.8937	5,097.66	85.7897	5,097.66	83.5543	5,097.66	84.7517	5,097.66	79.6169	5,097.66	78.0148	5,097.66	78.1173	5,097.66	77.5865	5,097.66	75.8478	5,097.66	71.7766	5,097.66	72.162	5,097.66	71.6016	5,097.66	68.1084	5,097.66	70.9706	5,097.66	65.6933	5,097.66	69.9993	5,097.66	64.3252	5,097.66	61.1963	5,097.66	62.9146	5,097.66	61.5158	5,097.66	63.7989	5,097.66	64.9098	5,097.66	60.2687	5,097.66	56.1129	5,097.66	62.8772	5,097.66	49.5094	5,097.66	59.3027	5,097.66	56.5529	5,097.66	59.4955	5,097.66	55.3277	5,097.66	58.2686	5,097.66	55.2177	5,097.66	58.8896	5,097.66	55.4177	5,097.66	61.1017
5,277.83	87.4031	5,277.83	86.4716	5,277.83	86.5248	5,277.83	83.7408	5,277.83	83.8143	5,277.83	80.5775	5,277.83	78.4666	5,277.83	78.1894	5,277.83	77.5229	5,277.83	75.7066	5,277.83	72.6319	5,277.83	71.5928	5,277.83	69.9864	5,277.83	69.0488	5,277.83	68.3355	5,277.83	68.2535	5,277.83	69.7673	5,277.83	66.7488	5,277.83	62.9783	5,277.83	63.8539	5,277.83	66.2723	5,277.83	62.9922	5,277.83	62.2166	5,277.83	62.0174	5,277.83	47.7807	5,277.83	63.9368	5,277.83	47.1331	5,277.83	60.8852	5,277.83	57.3784	5,277.83	60.8349	5,277.83	46.2158	5,277.83	59.7927	5,277.83	59.1262	5,277.83	59.1942	5,277.83	53.7183	5,277.83	61.1896
5,463.87	87.4768	5,463.87	86.0216	5,463.87	85.7342	5,463.87	83.7293	5,463.87	83.8001	5,463.87	81.1943	5,463.87	79.1444	5,463.87	77.1056	5,463.87	76.7151	5,463.87	76.3183	5,463.87	72.9431	5,463.87	71.5017	5,463.87	67.7856	5,463.87	70.7917	5,463.87	64.0643	5,463.87	67.5855	5,463.87	68.5383	5,463.87	63.1065	5,463.87	57.3123	5,463.87	63.845	5,463.87	61.6417	5,463.87	62.3386	5,463.87	63.3842	5,463.87	60.9343	5,463.87	47.9617	5,463.87	62.9326	5,463.87	42.3039	5,463.87	59.9202	5,463.87	48.1279	5,463.87	59.1707	5,463.87	50.1391	5,463.87	60.4968	5,463.87	57.5908	5,463.87	59.8154	5,463.87	47.9335	5,463.87	59.8095
5,657.23	87.1065	5,657.23	86.2694	5,657.23	86.0132	5,657.23	84.4309	5,657.23	83.8047	5,657.23	80.0709	5,657.23	78.0808	5,657.23	78.1317	5,657.23	77.4322	5,657.23	75.9572	5,657.23	75.9408	5,657.23	72.9104	5,657.23	63.2784	5,657.23	68.7956	5,657.23	68.7742	5,657.23	66.9737	5,657.23	63.7953	5,657.23	64.7486	5,657.23	61.9769	5,657.23	63.1032	5,657.23	61.9925	5,657.23	60.9036	5,657.23	58.8188	5,657.23	61.5119	5,657.23	50.073	5,657.23	60.9457	5,657.23	39.8521	5,657.23	59.1674	5,657.23	46.7334	5,657.23	59.0064	5,657.23	50.7925	5,657.23	58.5006	5,657.23	54.0091	5,657.23	56.0464	5,657.23	52.6539	5,657.23	60.1523
5,856.45	87.1342	5,856.45	86.6536	5,856.45	85.7711	5,856.45	83.7253	5,856.45	82.8443	5,856.45	80.2783	5,856.45	78.4329	5,856.45	79.1396	5,856.45	76.8643	5,856.45	75.8039	5,856.45	76.4797	5,856.45	72.5689	5,856.45	58.5649	5,856.45	68.8954	5,856.45	68.6814	5,856.45	68.2313	5,856.45	63.581	5,856.45	65.6667	5,856.45	63.9685	5,856.45	65.0901	5,856.45	63.8091	5,856.45	63.2898	5,856.45	56.8809	5,856.45	61.8926	5,856.45	46.6722	5,856.45	62.1036	5,856.45	44.0578	5,856.45	61.251	5,856.45	55.7608	5,856.45	59.5183	5,856.45	46.0818	5,856.45	58.7305	5,856.45	52.1456	5,856.45	58.7106	5,856.45	46.6229	5,856.45	59.1236
6,062.99	86.9871	6,062.99	85.9084	6,062.99	85.7938	6,062.99	83.0508	6,062.99	82.499	6,062.99	81.3795	6,062.99	79.0563	6,062.99	78.3678	6,062.99	76.8363	6,062.99	75.9304	6,062.99	75.6615	6,062.99	72.6447	6,062.99	59.2032	6,062.99	70.5762	6,062.99	67.5366	6,062.99	68.2832	6,062.99	64.9685	6,062.99	65.8694	6,062.99	62.824	6,062.99	63.8169	6,062.99	60.2156	6,062.99	62.1241	6,062.99	50.0064	6,062.99	62.6535	6,062.99	52.5663	6,062.99	63.4659	6,062.99	46.5555	6,062.99	59.1405	6,062.99	49.7115	6,062.99	59.4756	6,062.99	40.2122	6,062.99	58.8304	6,062.99	53.7537	6,062.99	59.4476	6,062.99	38.009	6,062.99	60.0476
6,276.86	87.0247	6,276.86	85.7272	6,276.86	85.7282	6,276.86	83.6444	6,276.86	82.8142	6,276.86	81.1389	6,276.86	79.8657	6,276.86	78.0883	6,276.86	76.7477	6,276.86	75.7333	6,276.86	74.558	6,276.86	72.5162	6,276.86	62.695	6,276.86	69.5863	6,276.86	68.7111	6,276.86	67.5554	6,276.86	64.2319	6,276.86	65.3362	6,276.86	65.1434	6,276.86	62.6701	6,276.86	61.6887	6,276.86	62.2675	6,276.86	49.7902	6,276.86	59.5105	6,276.86	43.3623	6,276.86	62.6022	6,276.86	45.378	6,276.86	59.0392	6,276.86	53.2428	6,276.86	58.0984	6,276.86	47.0527	6,276.86	58.3793	6,276.86	49.9195	6,276.86	58.3504	6,276.86	46.9451	6,276.86	59.6374
6,498.05	86.2728	6,498.05	85.5166	6,498.05	85.1882	6,498.05	83.8127	6,498.05	82.5119	6,498.05	80.3564	6,498.05	79.9742	6,498.05	79.03	6,498.05	76.8137	6,498.05	75.1035	6,498.05	74.5637	6,498.05	71.6129	6,498.05	66.8531	6,498.05	69.4132	6,498.05	67.9625	6,498.05	66.5033	6,498.05	64.3609	6,498.05	65.3816	6,498.05	61.9842	6,498.05	63.6774	6,498.05	63.1832	6,498.05	63.2877	6,498.05	58.3633	6,498.05	62.1342	6,498.05	33.3596	6,498.05	61.9009	6,498.05	46.0303	6,498.05	58.1405	6,498.05	49.3447	6,498.05	56.8286	6,498.05	41.9241	6,498.05	57.685	6,498.05	52.5701	6,498.05	57.4268	6,498.05	43.8567	6,498.05	58.3484
6,726.56	86.2819	6,726.56	85.6809	6,726.56	85.6751	6,726.56	83.3439	6,726.56	83.1157	6,726.56	80.911	6,726.56	80.4425	6,726.56	78.9189	6,726.56	76.5393	6,726.56	73.9038	6,726.56	72.8816	6,726.56	72.399	6,726.56	71.1097	6,726.56	70.5297	6,726.56	68.0201	6,726.56	67.0119	6,726.56	59.4086	6,726.56	65.3993	6,726.56	59.5453	6,726.56	62.3997	6,726.56	60.8902	6,726.56	61.5115	6,726.56	56.3451	6,726.56	61.7982	6,726.56	41.9909	6,726.56	62.5229	6,726.56	41.5117	6,726.56	57.5864	6,726.56	50.3744	6,726.56	55.7946	6,726.56	34.8137	6,726.56	59.4238	6,726.56	48.8781	6,726.56	58.5151	6,726.56	45.5013	6,726.56	57.5506
6,963.87	87.0014	6,963.87	85.7791	6,963.87	85.9056	6,963.87	83.7194	6,963.87	83.3089	6,963.87	81.4669	6,963.87	80.8574	6,963.87	77.4077	6,963.87	77.9152	6,963.87	75.3494	6,963.87	71.7023	6,963.87	71.8409	6,963.87	71.4263	6,963.87	70.3096	6,963.87	63.3178	6,963.87	67.6613	6,963.87	62.9756	6,963.87	64.7525	6,963.87	56.5458	6,963.87	61.8443	6,963.87	60.708	6,963.87	61.0942	6,963.87	56.7699	6,963.87	59.6849	6,963.87	52.061	6,963.87	60.819	6,963.87	51.3813	6,963.87	57.9792	6,963.87	43.4751	6,963.87	56.4708	6,963.87	41.4073	6,963.87	58.8501	6,963.87	40.9712	6,963.87	56.0774	6,963.87	47.9112	6,963.87	56.961
7,209.96	87.0163	7,209.96	85.9418	7,209.96	85.6022	7,209.96	84.194	7,209.96	83.3098	7,209.96	80.6229	7,209.96	81.1334	7,209.96	78.1559	7,209.96	77.1915	7,209.96	74.9539	7,209.96	73.0619	7,209.96	72.1071	7,209.96	71.1328	7,209.96	70.7677	7,209.96	53.4398	7,209.96	67.5877	7,209.96	68.5062	7,209.96	64.3079	7,209.96	60.9218	7,209.96	63.1015	7,209.96	59.9698	7,209.96	61.7457	7,209.96	60.2764	7,209.96	61.1408	7,209.96	52.6374	7,209.96	60.1319	7,209.96	50.5184	7,209.96	59.2839	7,209.96	36.6341	7,209.96	56.8874	7,209.96	47.4275	7,209.96	58.3107	7,209.96	48.192	7,209.96	54.8552	7,209.96	42.6866	7,209.96	56.1118
7,464.84	86.6929	7,464.84	85.9482	7,464.84	85.8709	7,464.84	83.9422	7,464.84	83.6733	7,464.84	80.5485	7,464.84	80.2947	7,464.84	78.4762	7,464.84	77.0907	7,464.84	74.4245	7,464.84	73.7186	7,464.84	73.1413	7,464.84	71.1551	7,464.84	70.1028	7,464.84	55.5921	7,464.84	66.4908	7,464.84	68.3241	7,464.84	63.9258	7,464.84	58.2327	7,464.84	62.0066	7,464.84	59.721	7,464.84	59.4866	7,464.84	60.2078	7,464.84	59.9334	7,464.84	51.501	7,464.84	60.3526	7,464.84	43.5139	7,464.84	58.8529	7,464.84	43.2295	7,464.84	55.5722	7,464.84	45.6164	7,464.84	58.115	7,464.84	39.1731	7,464.84	55.6134	7,464.84	41.7091	7,464.84	55.2776
7,727.05	86.4742	7,727.05	86.0273	7,727.05	85.6064	7,727.05	83.7395	7,727.05	83.5546	7,727.05	80.9418	7,727.05	80.155	7,727.05	77.2187	7,727.05	77.818	7,727.05	75.4779	7,727.05	73.9004	7,727.05	71.5053	7,727.05	68.8	7,727.05	69.3521	7,727.05	60.9038	7,727.05	64.6101	7,727.05	63.24	7,727.05	61.9456	7,727.05	51.9729	7,727.05	58.8634	7,727.05	59.1727	7,727.05	59.2043	7,727.05	56.788	7,727.05	57.4951	7,727.05	46.8053	7,727.05	57.4692	7,727.05	36.4552	7,727.05	56.5258	7,727.05	37.937	7,727.05	54.1377	7,727.05	39.874	7,727.05	57.1832	7,727.05	45.9293	7,727.05	55.1531	7,727.05	40.8521	7,727.05	54.2074
7,999.51	86.5473	7,999.51	85.612	7,999.51	85.3107	7,999.51	83.8881	7,999.51	83.2809	7,999.51	80.3612	7,999.51	80.6388	7,999.51	77.8324	7,999.51	76.3165	7,999.51	74.4335	7,999.51	73.6711	7,999.51	70.8882	7,999.51	68.5022	7,999.51	67.7147	7,999.51	58.3084	7,999.51	62.8107	7,999.51	58.7276	7,999.51	59.741	7,999.51	52.1056	7,999.51	58.0583	7,999.51	56.4758	7,999.51	58.047	7,999.51	56.4118	7,999.51	57.4323	7,999.51	37.1771	7,999.51	54.9102	7,999.51	33.1493	7,999.51	55.3445	7,999.51	40.4101	7,999.51	55.3403	7,999.51	44.0143	7,999.51	55.9539	7,999.51	47.5919	7,999.51	53.4825	7,999.51	41.6458	7,999.51	53.2154
8,282.23	86.3977	8,282.23	85.5388	8,282.23	84.9178	8,282.23	83.7712	8,282.23	83.0553	8,282.23	80.4064	8,282.23	80.3156	8,282.23	77.3253	8,282.23	76.3656	8,282.23	73.6082	8,282.23	72.0026	8,282.23	69.8219	8,282.23	69.1543	8,282.23	65.0241	8,282.23	45.3278	8,282.23	61.9656	8,282.23	55.5158	8,282.23	57.8157	8,282.23	32.1649	8,282.23	58.1937	8,282.23	51.4413	8,282.23	54.5728	8,282.23	54.2686	8,282.23	54.8293	8,282.23	34.0606	8,282.23	54.4957	8,282.23	37.784	8,282.23	54.9877	8,282.23	38.4127	8,282.23	53.8868	8,282.23	46.8119	8,282.23	53.6102	8,282.23	46.5423	8,282.23	52.0693	8,282.23	41.6779	8,282.23	50.7375
8,573.73	86.0636	8,573.73	85.5284	8,573.73	84.9444	8,573.73	83.6686	8,573.73	83.08	8,573.73	80.0989	8,573.73	79.3261	8,573.73	76.0368	8,573.73	75.8662	8,573.73	72.8967	8,573.73	68.8377	8,573.73	67.6627	8,573.73	66.927	8,573.73	63.4885	8,573.73	58.7235	8,573.73	59.2942	8,573.73	54.8394	8,573.73	57.1132	8,573.73	40.257	8,573.73	56.3334	8,573.73	50.849	8,573.73	53.3205	8,573.73	49.5438	8,573.73	54.415	8,573.73	34.2186	8,573.73	54.1051	8,573.73	29.2991	8,573.73	53.6872	8,573.73	34.6906	8,573.73	52.3281	8,573.73	42.1651	8,573.73	49.6463	8,573.73	36.4135	8,573.73	48.5648	8,573.73	41.9917	8,573.73	49.4575
8,876.95	86.2031	8,876.95	85.612	8,876.95	84.9619	8,876.95	83.482	8,876.95	82.7054	8,876.95	78.6266	8,876.95	78.1947	8,876.95	74.6671	8,876.95	73.006	8,876.95	69.962	8,876.95	67.417	8,876.95	65.4604	8,876.95	60.826	8,876.95	61.1808	8,876.95	60.0953	8,876.95	58.7875	8,876.95	51.1741	8,876.95	56.002	8,876.95	41.7175	8,876.95	54.489	8,876.95	51.0092	8,876.95	52.1296	8,876.95	50.9614	8,876.95	51.6294	8,876.95	32.8956	8,876.95	51.5124	8,876.95	27.8968	8,876.95	52.66	8,876.95	34.3342	8,876.95	51.4825	8,876.95	42.3067	8,876.95	48.4438	8,876.95	39.1861	8,876.95	47.4311	8,876.95	39.7374	8,876.95	46.7363
9,188.96	86.5473	9,188.96	85.8298	9,188.96	85.1385	9,188.96	83.2895	9,188.96	82.2547	9,188.96	77.8436	9,188.96	76.2421	9,188.96	73.2796	9,188.96	70.514	9,188.96	68.7659	9,188.96	67.0786	9,188.96	64.1403	9,188.96	56.859	9,188.96	60.891	9,188.96	60.8602	9,188.96	57.9986	9,188.96	25.6855	9,188.96	55.8771	9,188.96	45.7714	9,188.96	53.8773	9,188.96	50.4187	9,188.96	51.5636	9,188.96	50.5025	9,188.96	50.2988	9,188.96	31.4262	9,188.96	49.6146	9,188.96	28.7567	9,188.96	51.6638	9,188.96	38.3344	9,188.96	51.0175	9,188.96	38.3764	9,188.96	47.9119	9,188.96	30.7584	9,188.96	46.5501	9,188.96	38.7719	9,188.96	44.536
9,514.16	86.917	9,514.16	86.0804	9,514.16	85.28	9,514.16	82.9915	9,514.16	81.7371	9,514.16	76.7812	9,514.16	74.7537	9,514.16	71.6502	9,514.16	69.3918	9,514.16	66.6047	9,514.16	63.6769	9,514.16	62.0449	9,514.16	57.356	9,514.16	59.7486	9,514.16	58.5579	9,514.16	56.5464	9,514.16	42.3686	9,514.16	53.9289	9,514.16	40.2496	9,514.16	51.8401	9,514.16	47.8592	9,514.16	49.1416	9,514.16	50.4548	9,514.16	48.7801	9,514.16	38.5163	9,514.16	47.7379	9,514.16	23.8391	9,514.16	49.9809	9,514.16	30.7377	9,514.16	50.401	9,514.16	27.8193	9,514.16	47.9947	9,514.16	17.0844	9,514.16	45.2294	9,514.16	39.9707	9,514.16	42.9011
9,849.61	87.3773	9,849.61	86.2524	9,849.61	85.3884	9,849.61	82.2829	9,849.61	80.8067	9,849.61	74.783	9,849.61	72.5108	9,849.61	69.5341	9,849.61	66.9631	9,849.61	63.281	9,849.61	58.0323	9,849.61	60.6551	9,849.61	58.2822	9,849.61	58.2869	9,849.61	57.6687	9,849.61	55.0212	9,849.61	43.9722	9,849.61	52.6604	9,849.61	42.1025	9,849.61	50.8631	9,849.61	47.5818	9,849.61	47.7728	9,849.61	49.0442	9,849.61	45.9753	9,849.61	40.6071	9,849.61	47.071	9,849.61	30.2757	9,849.61	48.468	9,849.61	29.2153	9,849.61	49.1882	9,849.61	18.6721	9,849.61	46.988	9,849.61	28.2483	9,849.61	44.5616	9,849.61	39.1897	9,849.61	42.0149
10,196.8	87.8234	10,196.8	86.291	10,196.8	85.4102	10,196.8	81.2428	10,196.8	79.583	10,196.8	72.3001	10,196.8	69.3649	10,196.8	68.3977	10,196.8	66.8076	10,196.8	63.3781	10,196.8	61.4041	10,196.8	61.7866	10,196.8	62.7748	10,196.8	60.3464	10,196.8	60.0389	10,196.8	56.8461	10,196.8	48.088	10,196.8	53.2875	10,196.8	46.3871	10,196.8	51.6035	10,196.8	46.591	10,196.8	48.2409	10,196.8	49.4602	10,196.8	47.2292	10,196.8	43.4085	10,196.8	49.0024	10,196.8	35.9445	10,196.8	48.659	10,196.8	30.4675	10,196.8	49.3709	10,196.8	29.1377	10,196.8	48.5509	10,196.8	30.1331	10,196.8	47.7246	10,196.8	39.1807	10,196.8	44.5606
10,555.7	87.9736	10,555.7	86.189	10,555.7	85.1466	10,555.7	80.2611	10,555.7	78.3233	10,555.7	71.6639	10,555.7	69.3159	10,555.7	70.107	10,555.7	68.7716	10,555.7	65.4346	10,555.7	66.035	10,555.7	65.055	10,555.7	64.5971	10,555.7	62.1808	10,555.7	62.2141	10,555.7	57.8497	10,555.7	48.5161	10,555.7	54.7643	10,555.7	49.8042	10,555.7	52.5807	10,555.7	47.2474	10,555.7	49.3167	10,555.7	51.3979	10,555.7	48.7672	10,555.7	45.1367	10,555.7	50.9918	10,555.7	40.5543	10,555.7	50.8248	10,555.7	19.7763	10,555.7	51.4614	10,555.7	29.4461	10,555.7	51.2079	10,555.7	37.3934	10,555.7	50.5342	10,555.7	42.246	10,555.7	46.4368
10,927.7	87.8717	10,927.7	85.9246	10,927.7	84.8545	10,927.7	79.8401	10,927.7	78.0261	10,927.7	73.134	10,927.7	72.3588	10,927.7	71.6298	10,927.7	69.4235	10,927.7	67.8618	10,927.7	68.3875	10,927.7	66.8137	10,927.7	66.146	10,927.7	63.5107	10,927.7	64.1379	10,927.7	58.6786	10,927.7	52.1717	10,927.7	55.6728	10,927.7	46.1992	10,927.7	53.7247	10,927.7	48.2129	10,927.7	50.4063	10,927.7	51.1112	10,927.7	50.6899	10,927.7	49.605	10,927.7	50.9314	10,927.7	44.3473	10,927.7	52.0347	10,927.7	30.5287	10,927.7	52.8048	10,927.7	20.0418	10,927.7	53.0841	10,927.7	42.4959	10,927.7	52.7545	10,927.7	43.5379	10,927.7	46.9104
11,313	87.7054	11,313	85.5863	11,313	84.7235	11,313	79.7444	11,313	78.2255	11,313	75.0375	11,313	73.8027	11,313	72.8829	11,313	71.808	11,313	69.7779	11,313	70.0939	11,313	67.9776	11,313	66.4514	11,313	63.3075	11,313	64.3335	11,313	59.4439	11,313	54.1132	11,313	56.8976	11,313	47.697	11,313	54.3752	11,313	52.1706	11,313	50.5852	11,313	53.0022	11,313	51.0495	11,313	50.3673	11,313	51.8286	11,313	45.4813	11,313	53.1066	11,313	29.8568	11,313	53.6484	11,313	28.0418	11,313	53.5498	11,313	41.998	11,313	53.5499	11,313	44.1276	11,313	46.3284
11,712.9	87.3955	11,712.9	85.5472	11,712.9	84.7177	11,712.9	80.2048	11,712.9	78.8615	11,712.9	76.498	11,712.9	75.2093	11,712.9	74.0415	11,712.9	72.3358	11,712.9	71.1126	11,712.9	70.246	11,712.9	68.3603	11,712.9	67.5616	11,712.9	64.1039	11,712.9	62.5192	11,712.9	60.0341	11,712.9	60.2164	11,712.9	57.4052	11,712.9	52.0581	11,712.9	54.6661	11,712.9	54.0637	11,712.9	51.1553	11,712.9	57.0372	11,712.9	50.6029	11,712.9	52.1107	11,712.9	52.6703	11,712.9	46.9852	11,712.9	53.6615	11,712.9	37.2697	11,712.9	53.5624	11,712.9	31.1012	11,712.9	54.8713	11,712.9	43.7547	11,712.9	54.3813	11,712.9	45.9396	11,712.9	46.0414
12,126	87.3097	12,126	85.7331	12,126	84.5967	12,126	80.9972	12,126	79.0764	12,126	78.0538	12,126	75.6151	12,126	74.9532	12,126	71.5017	12,126	72.121	12,126	69.8857	12,126	68.6495	12,126	69.361	12,126	65.0106	12,126	63.6349	12,126	62.0556	12,126	60.872	12,126	58.891	12,126	51.8384	12,126	56.2685	12,126	54.6766	12,126	52.2164	12,126	57.3451	12,126	51.0803	12,126	53.9303	12,126	54.1355	12,126	47.515	12,126	53.7971	12,126	36.67	12,126	54.2395	12,126	39.7323	12,126	55.3665	12,126	46.4341	12,126	54.8462	12,126	47.3968	12,126	45.0374
12,553.7	87.076	12,553.7	85.9595	12,553.7	84.2027	12,553.7	81.9954	12,553.7	79.8741	12,553.7	79.4957	12,553.7	77.4973	12,553.7	75.9762	12,553.7	73.1394	12,553.7	72.9533	12,553.7	71.4181	12,553.7	69.8884	12,553.7	67.057	12,553.7	66.1383	12,553.7	66.3589	12,553.7	63.362	12,553.7	61.1033	12,553.7	60.0098	12,553.7	51.3284	12,553.7	57.0104	12,553.7	54.8025	12,553.7	53.5262	12,553.7	58.2672	12,553.7	52.9229	12,553.7	55.1206	12,553.7	55.1549	12,553.7	49.1323	12,553.7	54.3991	12,553.7	34.4625	12,553.7	55.0741	12,553.7	36.877	12,553.7	56.8891	12,553.7	49.6865	12,553.7	56.0789	12,553.7	49.3429	12,553.7	45.3246
12,996.1	86.7889	12,996.1	85.97	12,996.1	84.1974	12,996.1	83.0638	12,996.1	81.6179	12,996.1	80.3714	12,996.1	78.7205	12,996.1	76.4019	12,996.1	75.9189	12,996.1	74.0681	12,996.1	72.9999	12,996.1	70.1538	12,996.1	68.7551	12,996.1	67.627	12,996.1	66.493	12,996.1	63.6204	12,996.1	61.2479	12,996.1	60.128	12,996.1	51.9093	12,996.1	56.9286	12,996.1	56.513	12,996.1	54.3442	12,996.1	58.9165	12,996.1	52.2216	12,996.1	57.5345	12,996.1	54.409	12,996.1	50.4348	12,996.1	54.8283	12,996.1	41.6738	12,996.1	54.3877	12,996.1	32.5028	12,996.1	56.8075	12,996.1	47.2493	12,996.1	56.2723	12,996.1	50.7384	12,996.1	43.2112
13,454.6	86.4119	13,454.6	86.0946	13,454.6	84.3091	13,454.6	84.2494	13,454.6	83.6458	13,454.6	80.3649	13,454.6	79.5949	13,454.6	77.1641	13,454.6	75.9122	13,454.6	73.6962	13,454.6	72.3676	13,454.6	70.3401	13,454.6	68.8855	13,454.6	66.9881	13,454.6	65.2203	13,454.6	63.6065	13,454.6	63.7453	13,454.6	59.637	13,454.6	50.7055	13,454.6	56.7779	13,454.6	57.9184	13,454.6	53.1814	13,454.6	58.498	13,454.6	51.2445	13,454.6	58.6114	13,454.6	52.198	13,454.6	53.1136	13,454.6	53.873	13,454.6	40.84	13,454.6	53.0575	13,454.6	38.5193	13,454.6	55.6456	13,454.6	46.6081	13,454.6	56.4107	13,454.6	50.4636	13,454.6	43.1086
13,929.2	85.9376	13,929.2	86.4844	13,929.2	84.9032	13,929.2	84.9653	13,929.2	84.6597	13,929.2	80.2656	13,929.2	79.7994	13,929.2	76.9071	13,929.2	76.7304	13,929.2	72.5934	13,929.2	69.2738	13,929.2	70.7137	13,929.2	68.6523	13,929.2	65.9053	13,929.2	62.0955	13,929.2	60.4083	13,929.2	60.7391	13,929.2	57.8989	13,929.2	41.5257	13,929.2	55.2527	13,929.2	59.7825	13,929.2	50.9159	13,929.2	59.894	13,929.2	49.0214	13,929.2	59.5633	13,929.2	50.0679	13,929.2	52.803	13,929.2	53.2105	13,929.2	35.5456	13,929.2	50.6572	13,929.2	41.5023	13,929.2	53.5031	13,929.2	45.4965	13,929.2	56.3293	13,929.2	51.4193	13,929.2	45.2968
14,419.9	86.0181	14,419.9	86.6271	14,419.9	85.7764	14,419.9	84.8377	14,419.9	84.95	14,419.9	79.6465	14,419.9	78.992	14,419.9	76.9229	14,419.9	75.7965	14,419.9	71.9029	14,419.9	69.4152	14,419.9	70.8643	14,419.9	66.6707	14,419.9	64.6241	14,419.9	62.5835	14,419.9	59.7448	14,419.9	62.8531	14,419.9	57.1937	14,419.9	51.6041	14,419.9	53.276	14,419.9	60.8644	14,419.9	51.4562	14,419.9	60.8123	14,419.9	48.5175	14,419.9	60.1065	14,419.9	51.0349	14,419.9	49.3323	14,419.9	51.6436	14,419.9	30.4033	14,419.9	48.1623	14,419.9	44.2101	14,419.9	50.7595	14,419.9	46.4372	14,419.9	56.9917	14,419.9	51.1268	14,419.9	46.8155
14,928.2	86.4998	14,928.2	86.3869	14,928.2	86.6637	14,928.2	84.8937	14,928.2	85.3739	14,928.2	79.2607	14,928.2	78.2179	14,928.2	77.2995	14,928.2	75.6692	14,928.2	72.3704	14,928.2	71.5516	14,928.2	71.0461	14,928.2	66.4819	14,928.2	63.1306	14,928.2	62.449	14,928.2	61.6227	14,928.2	66.0932	14,928.2	58.5242	14,928.2	52.7388	14,928.2	53.5709	14,928.2	63.5815	14,928.2	51.6218	14,928.2	64.1017	14,928.2	49.532	14,928.2	59.9085	14,928.2	51.0607	14,928.2	50.8067	14,928.2	48.2377	14,928.2	32.1872	14,928.2	45.2028	14,928.2	42.1904	14,928.2	48.0883	14,928.2	50.8993	14,928.2	56.4825	14,928.2	50.4102	14,928.2	47.9625
15,455.6	86.8321	15,455.6	86.4423	15,455.6	87.1523	15,455.6	85.7616	15,455.6	85.5998	15,455.6	79.1264	15,455.6	79.1848	15,455.6	77.5321	15,455.6	77.8749	15,455.6	72.999	15,455.6	73.5636	15,455.6	69.6428	15,455.6	65.1892	15,455.6	64.6081	15,455.6	67.7837	15,455.6	62.0945	15,455.6	65.2057	15,455.6	59.4444	15,455.6	52.3735	15,455.6	53.6358	15,455.6	65.2946	15,455.6	52.1768	15,455.6	66.4303	15,455.6	49.0697	15,455.6	60.2512	15,455.6	45.2312	15,455.6	50.6649	15,455.6	44.7521	15,455.6	34.5282	15,455.6	41.4143	15,455.6	41.8738	15,455.6	43.2553	15,455.6	50.6422	15,455.6	56.5092	15,455.6	47.7008	15,455.6	48.1678
16,000.5	86.9826	16,000.5	87.3305	16,000.5	87.7659	16,000.5	86.2846	16,000.5	85.8728	16,000.5	78.8302	16,000.5	80.9108	16,000.5	76.8832	16,000.5	78.7677	16,000.5	73.2278	16,000.5	74.672	16,000.5	68.7372	16,000.5	68.7661	16,000.5	65.8082	16,000.5	68.1657	16,000.5	60.5487	16,000.5	63.3326	16,000.5	57.8611	16,000.5	48.3851	16,000.5	51.8624	16,000.5	65.8767	16,000.5	51.9101	16,000.5	68.2082	16,000.5	48.732	16,000.5	58.3202	16,000.5	34.1818	16,000.5	52.4496	16,000.5	42.3209	16,000.5	40.6738	16,000.5	42.4429	16,000.5	51.8504	16,000.5	47.3663	16,000.5	52.3741	16,000.5	56.1006	16,000.5	48.4624	16,000.5	47.6464
16,564.5	87.1527	16,564.5	88.2113	16,564.5	87.8078	16,564.5	86.5262	16,564.5	86.3627	16,564.5	79.023	16,564.5	81.6888	16,564.5	76.3622	16,564.5	78.3122	16,564.5	72.6046	16,564.5	74.3552	16,564.5	69.8317	16,564.5	69.7049	16,564.5	64.7856	16,564.5	66.4684	16,564.5	57.2856	16,564.5	64.2916	16,564.5	54.2707	16,564.5	49.2751	16,564.5	40.493	16,564.5	66.9638	16,564.5	51.9013	16,564.5	69.5861	16,564.5	47.0602	16,564.5	57.9147	16,564.5	39.6125	16,564.5	51.1643	16,564.5	45.9852	16,564.5	47.4776	16,564.5	48.0543	16,564.5	51.8928	16,564.5	52.2156	16,564.5	53.8228	16,564.5	55.3438	16,564.5	53.3686	16,564.5	47.9726
17,148.9	87.0511	17,148.9	88.5197	17,148.9	87.1634	17,148.9	86.4993	17,148.9	86.055	17,148.9	80.0491	17,148.9	81.8569	17,148.9	77.3817	17,148.9	79.19	17,148.9	71.8173	17,148.9	73.2209	17,148.9	70.6228	17,148.9	70.9447	17,148.9	63.2614	17,148.9	64.3005	17,148.9	58.7113	17,148.9	62.5887	17,148.9	53.4668	17,148.9	44.2875	17,148.9	43.7273	17,148.9	67.2716	17,148.9	55.1476	17,148.9	70.3631	17,148.9	46.7985	17,148.9	56.2753	17,148.9	47.4827	17,148.9	50.1886	17,148.9	51.7413	17,148.9	49.3782	17,148.9	49.655	17,148.9	52.0657	17,148.9	53.032	17,148.9	51.2026	17,148.9	55.5918	17,148.9	53.8823	17,148.9	48.9051
17,752.4	86.3535	17,752.4	88.4653	17,752.4	86.7733	17,752.4	86.4546	17,752.4	85.9044	17,752.4	80.5024	17,752.4	81.4474	17,752.4	77.8545	17,752.4	78.0687	17,752.4	71.8257	17,752.4	70.4799	17,752.4	70.7381	17,752.4	68.7347	17,752.4	64.4879	17,752.4	62.1883	17,752.4	60.7824	17,752.4	60.028	17,752.4	52.7529	17,752.4	42.618	17,752.4	49.1216	17,752.4	67.2115	17,752.4	56.4222	17,752.4	70.4169	17,752.4	47.6836	17,752.4	56.7596	17,752.4	49.8691	17,752.4	50.7473	17,752.4	53.0674	17,752.4	46.3208	17,752.4	48.9655	17,752.4	52.7131	17,752.4	54.3781	17,752.4	52.5284	17,752.4	56.1116	17,752.4	52.5385	17,752.4	48.2232
18,379.4	85.3835	18,379.4	88.7082	18,379.4	87.4283	18,379.4	86.0941	18,379.4	85.178	18,379.4	81.1412	18,379.4	80.6698	18,379.4	79.3717	18,379.4	78.3211	18,379.4	74.1554	18,379.4	71.6183	18,379.4	71.3078	18,379.4	67.3188	18,379.4	66.893	18,379.4	62.0716	18,379.4	61.6202	18,379.4	60.3199	18,379.4	51.1106	18,379.4	43.499	18,379.4	54.12	18,379.4	66.7375	18,379.4	57.7863	18,379.4	70.3401	18,379.4	49.215	18,379.4	56.3391	18,379.4	52.7377	18,379.4	50.0057	18,379.4	53.9909	18,379.4	48.1812	18,379.4	48.6334	18,379.4	53.4364	18,379.4	55.4363	18,379.4	53.0854	18,379.4	56.6869	18,379.4	52.2655	18,379.4	48.5597
19,026.9	86.8385	19,026.9	87.9984	19,026.9	86.3901	19,026.9	83.7499	19,026.9	82.0694	19,026.9	81.619	19,026.9	80.4633	19,026.9	79.5855	19,026.9	78.3601	19,026.9	74.0701	19,026.9	72.1241	19,026.9	69.8444	19,026.9	64.5389	19,026.9	65.871	19,026.9	59.9508	19,026.9	59.7114	19,026.9	57.2742	19,026.9	50.3892	19,026.9	45.0392	19,026.9	54.2432	19,026.9	63.6737	19,026.9	55.4608	19,026.9	67.2307	19,026.9	48.1995	19,026.9	56.0807	19,026.9	50.5021	19,026.9	47.6468	19,026.9	52.6792	19,026.9	45.6712	19,026.9	48.137	19,026.9	49.9866	19,026.9	51.942	19,026.9	53.0475	19,026.9	53.4267	19,026.9	52.0802	19,026.9	47.551
19,697.8	85.5118	19,697.8	85.0243	19,697.8	82.5344	19,697.8	80.6892	19,697.8	78.3994	19,697.8	79.1791	19,697.8	78.1658	19,697.8	76.145	19,697.8	75.1011	19,697.8	70.3678	19,697.8	68.3494	19,697.8	65.1435	19,697.8	61.1366	19,697.8	60.9739	19,697.8	55.665	19,697.8	54.3995	19,697.8	53.003	19,697.8	48.8178	19,697.8	44.9327	19,697.8	50.7994	19,697.8	59.8305	19,697.8	49.5616	19,697.8	61.3121	19,697.8	42.5951	19,697.8	53.4962	19,697.8	46.046	19,697.8	44.0456	19,697.8	46.9456	19,697.8	42.7664	19,697.8	44.5299	19,697.8	44.3108	19,697.8	42.7839	19,697.8	49.7176	19,697.8	42.1969	19,697.8	50.1034	19,697.8	47.406
19,999.5	84.1806	19,999.5	83.3272	19,999.5	80.5899	19,999.5	79.4554	19,999.5	76.6789	19,999.5	77.3249	19,999.5	76.1562	19,999.5	73.593	19,999.5	72.8486	19,999.5	67.9377	19,999.5	66.1987	19,999.5	61.0067	19,999.5	58.2282	19,999.5	59.5956	19,999.5	49.5883	19,999.5	51.8095	19,999.5	51.8868	19,999.5	40.9012	19,999.5	42.778	19,999.5	51.1323	19,999.5	58.6001	19,999.5	50.7872	19,999.5	59.4952	19,999.5	47.8	19,999.5	49.7614	19,999.5	48.8229	19,999.5	42.4281	19,999.5	48.5849	19,999.5	35.375	19,999.5	42.2018	19,999.5	39.2094	19,999.5	39.5856	19,999.5	43.3667	19,999.5	35.6862	19,999.5	46.1613	19,999.5	38.8644
