"SPL Horizontal"
"On-Axis"		"10°"		"-10°"		"20°"		"-20°"		"30°"		"-30°"		"40°"		"-40°"		"50°"		"-50°"		"60°"		"-60°"		"70°"		"-70°"		"80°"		"-80°"		"90°"		"-90°"		"100°"		"-100°"		"110°"		"-110°"		"120°"		"-120°"		"130°"		"-130°"		"140°"		"-140°"		"150°"		"-150°"		"160°"		"-160°"		"170°"		"-170°"		"180°"
"Frequency / Hz"	"Sound Pressure Level / dB (re 20 µPa/V)  [2.83  V @ 1. m]"	"Frequency / Hz"	"Sound Pressure Level / dB (re 20 µPa/V)  [2.83  V @ 1. m]"	"Frequency / Hz"	"Sound Pressure Level / dB (re 20 µPa/V)  [2.83  V @ 1. m]"	"Frequency / Hz"	"Sound Pressure Level / dB (re 20 µPa/V)  [2.83  V @ 1. m]"	"Frequency / Hz"	"Sound Pressure Level / dB (re 20 µPa/V)  [2.83  V @ 1. m]"	"Frequency / Hz"	"Sound Pressure Level / dB (re 20 µPa/V)  [2.83  V @ 1. m]"	"Frequency / Hz"	"Sound Pressure Level / dB (re 20 µPa/V)  [2.83  V @ 1. m]"	"Frequency / Hz"	"Sound Pressure Level / dB (re 20 µPa/V)  [2.83  V @ 1. m]"	"Frequency / Hz"	"Sound Pressure Level / dB (re 20 µPa/V)  [2.83  V @ 1. m]"	"Frequency / Hz"	"Sound Pressure Level / dB (re 20 µPa/V)  [2.83  V @ 1. m]"	"Frequency / Hz"	"Sound Pressure Level / dB (re 20 µPa/V)  [2.83  V @ 1. m]"	"Frequency / Hz"	"Sound Pressure Level / dB (re 20 µPa/V)  [2.83  V @ 1. m]"	"Frequency / Hz"	"Sound Pressure Level / dB (re 20 µPa/V)  [2.83  V @ 1. m]"	"Frequency / Hz"	"Sound Pressure Level / dB (re 20 µPa/V)  [2.83  V @ 1. m]"	"Frequency / Hz"	"Sound Pressure Level / dB (re 20 µPa/V)  [2.83  V @ 1. m]"	"Frequency / Hz"	"Sound Pressure Level / dB (re 20 µPa/V)  [2.83  V @ 1. m]"	"Frequency / Hz"	"Sound Pressure Level / dB (re 20 µPa/V)  [2.83  V @ 1. m]"	"Frequency / Hz"	"Sound Pressure Level / dB (re 20 µPa/V)  [2.83  V @ 1. m]"	"Frequency / Hz"	"Sound Pressure Level / dB (re 20 µPa/V)  [2.83  V @ 1. m]"	"Frequency / Hz"	"Sound Pressure Level / dB (re 20 µPa/V)  [2.83  V @ 1. m]"	"Frequency / Hz"	"Sound Pressure Level / dB (re 20 µPa/V)  [2.83  V @ 1. m]"	"Frequency / Hz"	"Sound Pressure Level / dB (re 20 µPa/V)  [2.83  V @ 1. m]"	"Frequency / Hz"	"Sound Pressure Level / dB (re 20 µPa/V)  [2.83  V @ 1. m]"	"Frequency / Hz"	"Sound Pressure Level / dB (re 20 µPa/V)  [2.83  V @ 1. m]"	"Frequency / Hz"	"Sound Pressure Level / dB (re 20 µPa/V)  [2.83  V @ 1. m]"	"Frequency / Hz"	"Sound Pressure Level / dB (re 20 µPa/V)  [2.83  V @ 1. m]"	"Frequency / Hz"	"Sound Pressure Level / dB (re 20 µPa/V)  [2.83  V @ 1. m]"	"Frequency / Hz"	"Sound Pressure Level / dB (re 20 µPa/V)  [2.83  V @ 1. m]"	"Frequency / Hz"	"Sound Pressure Level / dB (re 20 µPa/V)  [2.83  V @ 1. m]"	"Frequency / Hz"	"Sound Pressure Level / dB (re 20 µPa/V)  [2.83  V @ 1. m]"	"Frequency / Hz"	"Sound Pressure Level / dB (re 20 µPa/V)  [2.83  V @ 1. m]"	"Frequency / Hz"	"Sound Pressure Level / dB (re 20 µPa/V)  [2.83  V @ 1. m]"	"Frequency / Hz"	"Sound Pressure Level / dB (re 20 µPa/V)  [2.83  V @ 1. m]"	"Frequency / Hz"	"Sound Pressure Level / dB (re 20 µPa/V)  [2.83  V @ 1. m]"	"Frequency / Hz"	"Sound Pressure Level / dB (re 20 µPa/V)  [2.83  V @ 1. m]"	"Frequency / Hz"	"Sound Pressure Level / dB (re 20 µPa/V)  [2.83  V @ 1. m]"
20.5078	51.5624	20.5078	51.589	20.5078	51.5675	20.5078	51.6441	20.5078	51.6062	20.5078	51.7238	20.5078	51.6787	20.5078	51.8227	20.5078	51.7824	20.5078	51.9335	20.5078	51.912	20.5078	52.0471	20.5078	52.0597	20.5078	52.1536	20.5078	52.2165	20.5078	52.2452	20.5078	52.3737	20.5078	52.3192	20.5078	52.5237	20.5078	52.3796	20.5078	52.6604	20.5078	52.4354	20.5078	52.7779	20.5078	52.4968	20.5078	52.8711	20.5078	52.5692	20.5078	52.9363	20.5078	52.6511	20.5078	52.9729	20.5078	52.7345	20.5078	52.9841	20.5078	52.8102	20.5078	52.9757	20.5078	52.872	20.5078	52.9533	20.5078	52.9191
21.9727	48.6388	21.9727	48.5834	21.9727	48.7434	21.9727	48.5772	21.9727	48.8954	21.9727	48.6186	21.9727	49.0899	21.9727	48.7046	21.9727	49.319	21.9727	48.8301	21.9727	49.5726	21.9727	48.988	21.9727	49.8396	21.9727	49.1696	21.9727	50.1106	21.9727	49.3664	21.9727	50.3779	21.9727	49.5722	21.9727	50.635	21.9727	49.784	21.9727	50.8754	21.9727	50.0018	21.9727	51.0905	21.9727	50.2254	21.9727	51.2708	21.9727	50.4525	21.9727	51.407	21.9727	50.6767	21.9727	51.4932	21.9727	50.8886	21.9727	51.5284	21.9727	51.0786	21.9727	51.5158	21.9727	51.2397	21.9727	51.4608	21.9727	51.3678
23.4375	44.3875	23.4375	44.5615	23.4375	44.2684	23.4375	44.7826	23.4375	44.2104	23.4375	45.0417	23.4375	44.2169	23.4375	45.3283	23.4375	44.2883	23.4375	45.6309	23.4375	44.4211	23.4375	45.9373	23.4375	44.6081	23.4375	46.2355	23.4375	44.839	23.4375	46.5152	23.4375	45.1026	23.4375	46.7695	23.4375	45.3888	23.4375	46.9955	23.4375	45.6894	23.4375	47.1939	23.4375	45.9978	23.4375	47.3669	23.4375	46.3075	23.4375	47.5152	23.4375	46.6106	23.4375	47.6359	23.4375	46.898	23.4375	47.7219	23.4375	47.1591	23.4375	47.764	23.4375	47.3835	23.4375	47.7539	23.4375	47.5618	23.4375	47.6866
24.9023	44.9996	24.9023	45.0576	24.9023	44.9693	24.9023	45.139	24.9023	44.9697	24.9023	45.2391	24.9023	45.0023	24.9023	45.3521	24.9023	45.0667	24.9023	45.4718	24.9023	45.1607	24.9023	45.5913	24.9023	45.2807	24.9023	45.7039	24.9023	45.4224	24.9023	45.8046	24.9023	45.5807	24.9023	45.8921	24.9023	45.7496	24.9023	45.9698	24.9023	45.9214	24.9023	46.045	24.9023	46.0873	24.9023	46.1255	24.9023	46.2382	24.9023	46.2157	24.9023	46.3664	24.9023	46.3133	24.9023	46.4673	24.9023	46.41	24.9023	46.5395	24.9023	46.4944	24.9023	46.5841	24.9023	46.5571	24.9023	46.602	24.9023	46.5933
26.3672	43.3138	26.3672	43.2703	26.3672	43.372	26.3672	43.2429	26.3672	43.4437	26.3672	43.2331	26.3672	43.5282	26.3672	43.2426	26.3672	43.6255	26.3672	43.2724	26.3672	43.7362	26.3672	43.3232	26.3672	43.8613	26.3672	43.3951	26.3672	44.0017	26.3672	43.4879	26.3672	44.1569	26.3672	43.6017	26.3672	44.3246	26.3672	43.7366	26.3672	44.4997	26.3672	43.8927	26.3672	44.6741	26.3672	44.0687	26.3672	44.8378	26.3672	44.2602	26.3672	44.9796	26.3672	44.4592	26.3672	45.0895	26.3672	44.6544	26.3672	45.1595	26.3672	44.8328	26.3672	45.1846	26.3672	44.9825	26.3672	45.1628	26.3672	45.0944
27.832	42.9694	27.832	43.095	27.832	42.8435	27.832	43.2193	27.832	42.7185	27.832	43.3402	27.832	42.5961	27.832	43.4542	27.832	42.4799	27.832	43.5565	27.832	42.3749	27.832	43.642	27.832	42.2874	27.832	43.706	27.832	42.2234	27.832	43.7459	27.832	42.1878	27.832	43.761	27.832	42.1835	27.832	43.753	27.832	42.2109	27.832	43.7249	27.832	42.2686	27.832	43.6801	27.832	42.353	27.832	43.6208	27.832	42.4593	27.832	43.5484	27.832	42.5819	27.832	43.4627	27.832	42.7149	27.832	43.3632	27.832	42.853	27.832	43.25	27.832	42.9913	27.832	43.125
29.2969	45.8058	29.2969	45.7426	29.2969	45.8816	29.2969	45.6942	29.2969	45.967	29.2969	45.6624	29.2969	46.0593	29.2969	45.6486	29.2969	46.1558	29.2969	45.6541	29.2969	46.2545	29.2969	45.6804	29.2969	46.3539	29.2969	45.7289	29.2969	46.4529	29.2969	45.8003	29.2969	46.5506	29.2969	45.8936	29.2969	46.6453	29.2969	46.0057	29.2969	46.7352	29.2969	46.1314	29.2969	46.8177	29.2969	46.2647	29.2969	46.89	29.2969	46.3998	29.2969	46.9488	29.2969	46.5314	29.2969	46.9908	29.2969	46.6551	29.2969	47.0127	29.2969	46.7664	29.2969	47.0116	29.2969	46.8611	29.2969	46.9859	29.2969	46.9353
30.7617	49.6176	30.7617	49.6034	30.7617	49.6321	30.7617	49.5909	30.7617	49.6457	30.7617	49.5816	30.7617	49.6577	30.7617	49.5767	30.7617	49.6681	30.7617	49.5769	30.7617	49.6778	30.7617	49.5828	30.7617	49.6876	30.7617	49.5943	30.7617	49.699	30.7617	49.6112	30.7617	49.7128	30.7617	49.6326	30.7617	49.7294	30.7617	49.6571	30.7617	49.7492	30.7617	49.683	30.7617	49.7716	30.7617	49.7092	30.7617	49.7961	30.7617	49.7351	30.7617	49.821	30.7617	49.7611	30.7617	49.844	30.7617	49.7876	30.7617	49.8618	30.7617	49.8144	30.7617	49.8713	30.7617	49.8392	30.7617	49.8703	30.7617	49.859
32.2266	52.4958	32.2266	52.5148	32.2266	52.4739	32.2266	52.53	32.2266	52.4505	32.2266	52.5407	32.2266	52.4273	32.2266	52.5466	32.2266	52.4062	32.2266	52.5484	32.2266	52.3896	32.2266	52.5471	32.2266	52.3796	32.2266	52.5446	32.2266	52.3781	32.2266	52.5425	32.2266	52.3863	32.2266	52.5425	32.2266	52.4044	32.2266	52.5449	32.2266	52.4315	32.2266	52.5495	32.2266	52.4659	32.2266	52.5556	32.2266	52.5049	32.2266	52.5627	32.2266	52.5446	32.2266	52.5715	32.2266	52.5807	32.2266	52.5826	32.2266	52.6088	32.2266	52.5965	32.2266	52.6257	32.2266	52.6115	32.2266	52.6303	32.2266	52.6243
33.6914	56.2028	33.6914	56.2231	33.6914	56.1763	33.6914	56.2369	33.6914	56.1438	33.6914	56.2437	33.6914	56.1056	33.6914	56.2428	33.6914	56.0621	33.6914	56.2335	33.6914	56.0136	33.6914	56.2153	33.6914	55.9607	33.6914	56.1876	33.6914	55.9042	33.6914	56.1502	33.6914	55.8452	33.6914	56.1032	33.6914	55.7846	33.6914	56.0471	33.6914	55.7238	33.6914	55.9826	33.6914	55.6645	33.6914	55.911	33.6914	55.6089	33.6914	55.8345	33.6914	55.5598	33.6914	55.7562	33.6914	55.5205	33.6914	55.6804	33.6914	55.4941	33.6914	55.612	33.6914	55.4833	33.6914	55.5554	33.6914	55.4898	33.6914	55.514
35.1562	59.7978	35.1562	59.8017	35.1562	59.7848	35.1562	59.7971	35.1562	59.7625	35.1562	59.7846	35.1562	59.7309	35.1562	59.7649	35.1562	59.6903	35.1562	59.7388	35.1562	59.6415	35.1562	59.7071	35.1562	59.5857	35.1562	59.6707	35.1562	59.5245	35.1562	59.6299	35.1562	59.4597	35.1562	59.5852	35.1562	59.3935	35.1562	59.5365	35.1562	59.3283	35.1562	59.4842	35.1562	59.2664	35.1562	59.4285	35.1562	59.2107	35.1562	59.3704	35.1562	59.1636	35.1562	59.3116	35.1562	59.1276	35.1562	59.2545	35.1562	59.1049	35.1562	59.2022	35.1562	59.0966	35.1562	59.1578	35.1562	59.1032	35.1562	59.1241
36.6211	63.3581	36.6211	63.3524	36.6211	63.3562	36.6211	63.3395	36.6211	63.3467	36.6211	63.3198	36.6211	63.3298	36.6211	63.2939	36.6211	63.3055	36.6211	63.2626	36.6211	63.2742	36.6211	63.2266	36.6211	63.2365	36.6211	63.1869	36.6211	63.1931	36.6211	63.1442	36.6211	63.1449	36.6211	63.0992	36.6211	63.093	36.6211	63.0523	36.6211	63.0388	36.6211	63.0042	36.6211	62.9841	36.6211	62.9553	36.6211	62.9307	36.6211	62.9069	36.6211	62.8804	36.6211	62.8606	36.6211	62.8356	36.6211	62.8192	36.6211	62.7984	36.6211	62.7856	36.6211	62.7709	36.6211	62.7626	36.6211	62.755	36.6211	62.7521
38.0859	65.9971	38.0859	65.9998	38.0859	65.9855	38.0859	65.9936	38.0859	65.9654	38.0859	65.9786	38.0859	65.9369	38.0859	65.9548	38.0859	65.9006	38.0859	65.9227	38.0859	65.857	38.0859	65.8828	38.0859	65.8069	38.0859	65.8357	38.0859	65.7512	38.0859	65.7826	38.0859	65.6912	38.0859	65.7248	38.0859	65.6283	38.0859	65.6639	38.0859	65.5646	38.0859	65.6018	38.0859	65.5025	38.0859	65.5403	38.0859	65.4446	38.0859	65.4816	38.0859	65.3936	38.0859	65.4277	38.0859	65.3516	38.0859	65.3808	38.0859	65.3204	38.0859	65.3427	38.0859	65.3008	38.0859	65.3148	38.0859	65.2934	38.0859	65.2981
39.5508	70.0448	39.5508	70.0445	39.5508	70.0368	39.5508	70.0361	39.5508	70.0205	39.5508	70.0197	39.5508	69.9963	39.5508	69.9959	39.5508	69.9648	39.5508	69.9655	39.5508	69.9268	39.5508	69.9294	39.5508	69.8833	39.5508	69.8885	39.5508	69.8355	39.5508	69.8441	39.5508	69.7848	39.5508	69.7977	39.5508	69.7329	39.5508	69.7506	39.5508	69.6817	39.5508	69.7043	39.5508	69.6332	39.5508	69.6602	39.5508	69.5894	39.5508	69.6196	39.5508	69.5522	39.5508	69.5834	39.5508	69.523	39.5508	69.5522	39.5508	69.5028	39.5508	69.5266	39.5508	69.4915	39.5508	69.5072	39.5508	69.4889	39.5508	69.4944
41.0156	73.192	41.0156	73.1884	41.0156	73.1875	41.0156	73.1767	41.0156	73.175	41.0156	73.1574	41.0156	73.1547	41.0156	73.131	41.0156	73.1272	41.0156	73.0985	41.0156	73.0933	41.0156	73.0607	41.0156	73.054	41.0156	73.0191	41.0156	73.0102	41.0156	72.9751	41.0156	72.9635	41.0156	72.9302	41.0156	72.9151	41.0156	72.886	41.0156	72.8667	41.0156	72.8436	41.0156	72.8198	41.0156	72.8042	41.0156	72.7764	41.0156	72.7683	41.0156	72.7379	41.0156	72.7366	41.0156	72.7061	41.0156	72.7094	41.0156	72.6821	41.0156	72.6873	41.0156	72.6666	41.0156	72.6711	41.0156	72.6599	41.0156	72.6616
42.4805	76.1068	42.4805	76.1054	42.4805	76.0993	42.4805	76.0949	42.4805	76.0828	42.4805	76.0758	42.4805	76.0578	42.4805	76.0485	42.4805	76.0247	42.4805	76.0139	42.4805	75.9844	42.4805	75.9729	42.4805	75.938	42.4805	75.927	42.4805	75.8867	42.4805	75.8776	42.4805	75.8322	42.4805	75.8264	42.4805	75.7764	42.4805	75.775	42.4805	75.7216	42.4805	75.7252	42.4805	75.6697	42.4805	75.6782	42.4805	75.6227	42.4805	75.6352	42.4805	75.5824	42.4805	75.5971	42.4805	75.5498	42.4805	75.5647	42.4805	75.5258	42.4805	75.5386	42.4805	75.5108	42.4805	75.5195	42.4805	75.505	42.4805	75.5081
43.9453	78.7956	43.9453	78.7953	43.9453	78.7862	43.9453	78.7857	43.9453	78.7674	43.9453	78.7669	43.9453	78.7394	43.9453	78.7396	43.9453	78.7029	43.9453	78.7045	43.9453	78.6586	43.9453	78.6625	43.9453	78.6078	43.9453	78.6148	43.9453	78.5518	43.9453	78.5626	43.9453	78.4925	43.9453	78.5075	43.9453	78.4317	43.9453	78.4508	43.9453	78.3717	43.9453	78.3943	43.9453	78.3145	43.9453	78.3395	43.9453	78.2621	43.9453	78.2879	43.9453	78.2164	43.9453	78.2411	43.9453	78.1788	43.9453	78.2005	43.9453	78.1505	43.9453	78.1675	43.9453	78.1325	43.9453	78.1434	43.9453	78.1254	43.9453	78.1291
45.4102	81.3123	45.4102	81.3097	45.4102	81.3048	45.4102	81.2974	45.4102	81.2872	45.4102	81.2758	45.4102	81.2598	45.4102	81.2457	45.4102	81.2231	45.4102	81.2079	45.4102	81.1779	45.4102	81.1636	45.4102	81.1255	45.4102	81.1142	45.4102	81.0673	45.4102	81.0611	45.4102	81.0052	45.4102	81.0059	45.4102	80.9413	45.4102	80.9502	45.4102	80.8779	45.4102	80.8952	45.4102	80.8176	45.4102	80.8425	45.4102	80.7625	45.4102	80.793	45.4102	80.7148	45.4102	80.7479	45.4102	80.6764	45.4102	80.7082	45.4102	80.6486	45.4102	80.675	45.4102	80.6321	45.4102	80.6496	45.4102	80.6271	45.4102	80.6332
46.875	83.6208	46.875	83.6136	46.875	83.6182	46.875	83.5969	46.875	83.6059	46.875	83.5711	46.875	83.5842	46.875	83.5369	46.875	83.5533	46.875	83.4953	46.875	83.5141	46.875	83.4473	46.875	83.4675	46.875	83.3945	46.875	83.4146	46.875	83.3381	46.875	83.357	46.875	83.2799	46.875	83.2966	46.875	83.2216	46.875	83.2353	46.875	83.1648	46.875	83.1752	46.875	83.1113	46.875	83.1186	46.875	83.0628	46.875	83.0674	46.875	83.0208	46.875	83.0233	46.875	82.9866	46.875	82.9877	46.875	82.9614	46.875	82.9617	46.875	82.9459	46.875	82.9459	46.875	82.9407
48.3398	85.5574	48.3398	85.5512	48.3398	85.5548	48.3398	85.5363	48.3398	85.5434	48.3398	85.5132	48.3398	85.5238	48.3398	85.4827	48.3398	85.4964	48.3398	85.4457	48.3398	85.4624	48.3398	85.4034	48.3398	85.4227	48.3398	85.3572	48.3398	85.3788	48.3398	85.3086	48.3398	85.3322	48.3398	85.2594	48.3398	85.2848	48.3398	85.2114	48.3398	85.2383	48.3398	85.1663	48.3398	85.1944	48.3398	85.1259	48.3398	85.1543	48.3398	85.0916	48.3398	85.1193	48.3398	85.0643	48.3398	85.0898	48.3398	85.0447	48.3398	85.066	48.3398	85.0325	48.3398	85.048	48.3398	85.0273	48.3398	85.0354	48.3398	85.0284
51.2695	88.2664	51.2695	88.2745	51.2695	88.2428	51.2695	88.2668	51.2695	88.2042	51.2695	88.2441	51.2695	88.1518	51.2695	88.2071	51.2695	88.0873	51.2695	88.1573	51.2695	88.0129	51.2695	88.0967	51.2695	87.9313	51.2695	88.0274	51.2695	87.8456	51.2695	87.9518	51.2695	87.7589	51.2695	87.8726	51.2695	87.6745	51.2695	87.7926	51.2695	87.5952	51.2695	87.7141	51.2695	87.5237	51.2695	87.6396	51.2695	87.462	51.2695	87.5708	51.2695	87.4117	51.2695	87.5092	51.2695	87.3739	51.2695	87.4558	51.2695	87.3492	51.2695	87.4114	51.2695	87.3376	51.2695	87.3765	51.2695	87.3388	51.2695	87.3521
52.7344	88.6656	52.7344	88.6596	52.7344	88.654	52.7344	88.6365	52.7344	88.6245	52.7344	88.5974	52.7344	88.5777	52.7344	88.5435	52.7344	88.5144	52.7344	88.4767	52.7344	88.4361	52.7344	88.3991	52.7344	88.3453	52.7344	88.3134	52.7344	88.2449	52.7344	88.2223	52.7344	88.1385	52.7344	88.129	52.7344	88.0305	52.7344	88.0361	52.7344	87.9253	52.7344	87.9465	52.7344	87.8275	52.7344	87.8623	52.7344	87.7408	52.7344	87.7854	52.7344	87.6683	52.7344	87.7171	52.7344	87.6119	52.7344	87.6586	52.7344	87.5724	52.7344	87.6109	52.7344	87.5498	52.7344	87.5751	52.7344	87.5434	52.7344	87.5522
54.1992	88.9727	54.1992	88.9537	54.1992	88.9756	54.1992	88.9194	54.1992	88.9621	54.1992	88.8707	54.1992	88.9318	54.1992	88.8086	54.1992	88.885	54.1992	88.7346	54.1992	88.8223	54.1992	88.6504	54.1992	88.7449	54.1992	88.5579	54.1992	88.6548	54.1992	88.4596	54.1992	88.5548	54.1992	88.3582	54.1992	88.4482	54.1992	88.2568	54.1992	88.3392	54.1992	88.1587	54.1992	88.232	54.1992	88.0671	54.1992	88.1306	54.1992	87.9854	54.1992	88.0389	54.1992	87.9164	54.1992	87.9597	54.1992	87.8623	54.1992	87.8953	54.1992	87.8246	54.1992	87.8469	54.1992	87.8041	54.1992	87.8154	54.1992	87.8011
55.6641	89.1482	55.6641	89.132	55.6641	89.1518	55.6641	89.1038	55.6641	89.1425	55.6641	89.0644	55.6641	89.12	55.6641	89.0145	55.6641	89.0845	55.6641	88.9553	55.6641	89.0364	55.6641	88.888	55.6641	88.9766	55.6641	88.8138	55.6641	88.9066	55.6641	88.7344	55.6641	88.8282	55.6641	88.6518	55.6641	88.7441	55.6641	88.5683	55.6641	88.6571	55.6641	88.4864	55.6641	88.5702	55.6641	88.409	55.6641	88.4865	55.6641	88.3393	55.6641	88.4089	55.6641	88.2799	55.6641	88.3398	55.6641	88.2335	55.6641	88.2814	55.6641	88.2019	55.6641	88.2355	55.6641	88.1863	55.6641	88.2036	55.6641	88.187
58.5938	89.1031	58.5938	89.0899	58.5938	89.1029	58.5938	89.0637	58.5938	89.0897	58.5938	89.025	58.5938	89.0636	58.5938	88.9746	58.5938	89.0254	58.5938	88.9138	58.5938	88.9761	58.5938	88.844	58.5938	88.9168	58.5938	88.7674	58.5938	88.8493	58.5938	88.6863	58.5938	88.7754	58.5938	88.6035	58.5938	88.6975	58.5938	88.5223	58.5938	88.6182	58.5938	88.4456	58.5938	88.5403	58.5938	88.3764	58.5938	88.4664	58.5938	88.3173	58.5938	88.399	58.5938	88.2699	58.5938	88.3399	58.5938	88.2352	58.5938	88.2905	58.5938	88.2136	58.5938	88.2518	58.5938	88.2048	58.5938	88.2243	58.5938	88.2085
60.0586	88.9117	60.0586	88.8945	60.0586	88.9162	60.0586	88.8651	60.0586	88.9078	60.0586	88.8244	60.0586	88.8871	60.0586	88.7738	60.0586	88.8548	60.0586	88.7151	60.0586	88.8122	60.0586	88.6505	60.0586	88.7608	60.0586	88.5825	60.0586	88.7027	60.0586	88.5136	60.0586	88.64	60.0586	88.4466	60.0586	88.5752	60.0586	88.384	60.0586	88.5107	60.0586	88.3282	60.0586	88.449	60.0586	88.2809	60.0586	88.3918	60.0586	88.2434	60.0586	88.3409	60.0586	88.2162	60.0586	88.2971	60.0586	88.1989	60.0586	88.261	60.0586	88.1906	60.0586	88.2326	60.0586	88.1904	60.0586	88.2115	60.0586	88.1975
62.9883	88.6035	62.9883	88.5914	62.9883	88.6018	62.9883	88.5659	62.9883	88.5863	62.9883	88.5278	62.9883	88.5578	62.9883	88.4787	62.9883	88.5176	62.9883	88.4204	62.9883	88.4672	62.9883	88.3555	62.9883	88.409	62.9883	88.2865	62.9883	88.3454	62.9883	88.2164	62.9883	88.2791	62.9883	88.1483	62.9883	88.213	62.9883	88.0847	62.9883	88.1496	62.9883	88.0282	62.9883	88.0913	62.9883	87.9806	62.9883	88.0396	62.9883	87.9429	62.9883	87.9958	62.9883	87.9154	62.9883	87.9602	62.9883	87.8976	62.9883	87.9325	62.9883	87.8882	62.9883	87.912	62.9883	87.8858	62.9883	87.8979	62.9883	87.8892
64.4531	88.4033	64.4531	88.3924	64.4531	88.4003	64.4531	88.3682	64.4531	88.3838	64.4531	88.3316	64.4531	88.3542	64.4531	88.2843	64.4531	88.313	64.4531	88.2281	64.4531	88.262	64.4531	88.1655	64.4531	88.2033	64.4531	88.0992	64.4531	88.1399	64.4531	88.0322	64.4531	88.0745	64.4531	87.9672	64.4531	88.0101	64.4531	87.907	64.4531	87.9494	64.4531	87.8538	64.4531	87.8948	64.4531	87.8094	64.4531	87.8477	64.4531	87.7745	64.4531	87.8091	64.4531	87.7494	64.4531	87.7789	64.4531	87.7333	64.4531	87.7565	64.4531	87.7247	64.4531	87.7407	64.4531	87.7221	64.4531	87.7302	64.4531	87.7241
67.3828	88.117	67.3828	88.1015	67.3828	88.117	67.3828	88.0713	67.3828	88.1015	67.3828	88.0277	67.3828	88.0713	67.3828	87.9726	67.3828	88.0277	67.3828	87.9087	67.3828	87.9729	67.3828	87.8387	67.3828	87.9093	67.3828	87.7659	67.3828	87.8402	67.3828	87.6936	67.3828	87.7689	67.3828	87.625	67.3828	87.699	67.3828	87.5629	67.3828	87.6335	67.3828	87.5094	67.3828	87.5751	67.3828	87.4662	67.3828	87.5256	67.3828	87.434	67.3828	87.4857	67.3828	87.4123	67.3828	87.4552	67.3828	87.3999	67.3828	87.4329	67.3828	87.3948	67.3828	87.4172	67.3828	87.3951	67.3828	87.4064	67.3828	87.3991
68.8477	88.0151	68.8477	87.9968	68.8477	88.0169	68.8477	87.963	68.8477	88.0024	68.8477	87.9149	68.8477	87.9723	68.8477	87.8547	68.8477	87.9279	68.8477	87.785	68.8477	87.8714	68.8477	87.7089	68.8477	87.8054	68.8477	87.6299	68.8477	87.7331	68.8477	87.5515	68.8477	87.6579	68.8477	87.4772	68.8477	87.5836	68.8477	87.4101	68.8477	87.5133	68.8477	87.3526	68.8477	87.45	68.8477	87.3065	68.8477	87.3955	68.8477	87.2724	68.8477	87.3507	68.8477	87.2501	68.8477	87.3155	68.8477	87.2382	68.8477	87.2889	68.8477	87.2346	68.8477	87.2691	68.8477	87.2371	68.8477	87.2546	68.8477	87.244
71.7773	87.7954	71.7773	87.7718	71.7773	87.8016	71.7773	87.7314	71.7773	87.7903	71.7773	87.6757	71.7773	87.7624	71.7773	87.6071	71.7773	87.7193	71.7773	87.5284	71.7773	87.6632	71.7773	87.443	71.7773	87.597	71.7773	87.3549	71.7773	87.5238	71.7773	87.2681	71.7773	87.4472	71.7773	87.1865	71.7773	87.3706	71.7773	87.1136	71.7773	87.2973	71.7773	87.0522	71.7773	87.2298	71.7773	87.0041	71.7773	87.1699	71.7773	86.97	71.7773	87.1184	71.7773	86.9495	71.7773	87.0751	71.7773	86.941	71.7773	87.0394	71.7773	86.9424	71.7773	87.01	71.7773	86.9515	71.7773	86.9859	71.7773	86.9663
74.707	87.5453	74.707	87.5226	74.707	87.5491	74.707	87.4818	74.707	87.5343	74.707	87.424	74.707	87.5023	74.707	87.3518	74.707	87.4549	74.707	87.268	74.707	87.3948	74.707	87.1765	74.707	87.3253	74.707	87.0816	74.707	87.2501	74.707	86.9879	74.707	87.173	74.707	86.8999	74.707	87.0975	74.707	86.8218	74.707	87.0268	74.707	86.7567	74.707	86.9627	74.707	86.707	74.707	86.9064	74.707	86.6734	74.707	86.8578	74.707	86.6554	74.707	86.8161	74.707	86.6512	74.707	86.78	74.707	86.6583	74.707	86.7482	74.707	86.6736	74.707	86.7198	74.707	86.6947
77.6367	87.4132	77.6367	87.3977	77.6367	87.4091	77.6367	87.3631	77.6367	87.3856	77.6367	87.3106	77.6367	87.344	77.6367	87.2426	77.6367	87.2866	77.6367	87.1619	77.6367	87.2161	77.6367	87.0724	77.6367	87.1364	77.6367	86.9782	77.6367	87.0514	77.6367	86.884	77.6367	86.9656	77.6367	86.7943	77.6367	86.8832	77.6367	86.7133	77.6367	86.8077	77.6367	86.6444	77.6367	86.7417	77.6367	86.5897	77.6367	86.6864	77.6367	86.5501	77.6367	86.6418	77.6367	86.5249	77.6367	86.6066	77.6367	86.5124	77.6367	86.5791	77.6367	86.51	77.6367	86.5574	77.6367	86.5152	77.6367	86.5398	77.6367	86.5256
79.1016	87.3594	79.1016	87.3468	79.1016	87.3522	79.1016	87.3149	79.1016	87.3258	79.1016	87.2652	79.1016	87.2812	79.1016	87.1997	79.1016	87.2209	79.1016	87.1214	79.1016	87.1477	79.1016	87.0341	79.1016	87.0656	79.1016	86.9419	79.1016	86.9786	79.1016	86.8493	79.1016	86.8914	79.1016	86.761	79.1016	86.8082	79.1016	86.6811	79.1016	86.7325	79.1016	86.6128	79.1016	86.6669	79.1016	86.5581	79.1016	86.6125	79.1016	86.5175	79.1016	86.5694	79.1016	86.4902	79.1016	86.5365	79.1016	86.4742	79.1016	86.512	79.1016	86.4674	79.1016	86.494	79.1016	86.4673	79.1016	86.4811	79.1016	86.4722
82.0312	87.2155	82.0312	87.206	82.0312	87.2043	82.0312	87.1764	82.0312	87.173	82.0312	87.1282	82.0312	87.1227	82.0312	87.0635	82.0312	87.0558	82.0312	86.9853	82.0312	86.9754	82.0312	86.8973	82.0312	86.8855	82.0312	86.8038	82.0312	86.7907	82.0312	86.7094	82.0312	86.6958	82.0312	86.6186	82.0312	86.6055	82.0312	86.5357	82.0312	86.524	82.0312	86.4639	82.0312	86.4542	82.0312	86.4054	82.0312	86.3979	82.0312	86.3606	82.0312	86.3551	82.0312	86.3287	82.0312	86.3249	82.0312	86.3078	82.0312	86.3051	82.0312	86.2952	82.0312	86.2935	82.0312	86.2886	82.0312	86.2877	82.0312	86.2863
84.9609	87.072	84.9609	87.0646	84.9609	87.0587	84.9609	87.037	84.9609	87.0247	84.9609	86.9911	84.9609	86.9716	84.9609	86.9295	84.9609	86.9019	84.9609	86.8558	84.9609	86.8192	84.9609	86.7739	84.9609	86.7283	84.9609	86.6884	84.9609	86.6343	84.9609	86.6039	84.9609	86.5427	84.9609	86.5245	84.9609	86.4587	84.9609	86.4541	84.9609	86.3863	84.9609	86.3951	84.9609	86.3284	84.9609	86.3487	84.9609	86.2859	84.9609	86.3146	84.9609	86.258	84.9609	86.291	84.9609	86.2428	84.9609	86.2754	84.9609	86.2374	84.9609	86.2648	84.9609	86.2385	84.9609	86.2568	84.9609	86.2433	84.9609	86.2497
87.8906	87.0641	87.8906	87.0539	87.8906	87.0494	87.8906	87.0196	87.8906	87.0101	87.8906	86.9632	87.8906	86.948	87.8906	86.8876	87.8906	86.8659	87.8906	86.797	87.8906	86.7679	87.8906	86.6964	87.8906	86.6594	87.8906	86.5914	87.8906	86.5465	87.8906	86.488	87.8906	86.4357	87.8906	86.392	87.8906	86.3336	87.8906	86.3084	87.8906	86.2457	87.8906	86.2407	87.8906	86.1758	87.8906	86.1904	87.8906	86.1256	87.8906	86.1566	87.8906	86.0948	87.8906	86.1366	87.8906	86.0807	87.8906	86.1258	87.8906	86.0793	87.8906	86.1196	87.8906	86.086	87.8906	86.1138	87.8906	86.0961	87.8906	86.106
90.8203	87.0234	90.8203	87.0141	90.8203	87.0071	90.8203	86.9798	90.8203	86.9657	90.8203	86.9222	90.8203	86.9009	90.8203	86.844	90.8203	86.8157	90.8203	86.7491	90.8203	86.7138	90.8203	86.6423	90.8203	86.6007	90.8203	86.5294	90.8203	86.4823	90.8203	86.4165	90.8203	86.3652	90.8203	86.3099	90.8203	86.256	90.8203	86.215	90.8203	86.16	90.8203	86.136	90.8203	86.0814	90.8203	86.075	90.8203	86.022	90.8203	86.0317	90.8203	85.9816	90.8203	86.0039	90.8203	85.9584	90.8203	85.9872	90.8203	85.9489	90.8203	85.9772	90.8203	85.9491	90.8203	85.9697	90.8203	85.9547	90.8203	85.9623
95.2148	87.0333	95.2148	87.0179	95.2148	87.0218	95.2148	86.9767	95.2148	86.9835	95.2148	86.9118	95.2148	86.9196	95.2148	86.8263	95.2148	86.8325	95.2148	86.7241	95.2148	86.7259	95.2148	86.6099	95.2148	86.6048	95.2148	86.489	95.2148	86.4754	95.2148	86.3673	95.2148	86.345	95.2148	86.2504	95.2148	86.2208	95.2148	86.1437	95.2148	86.1096	95.2148	86.0516	95.2148	86.0163	95.2148	85.9771	95.2148	85.9437	95.2148	85.921	95.2148	85.8919	95.2148	85.8824	95.2148	85.8587	95.2148	85.8583	95.2148	85.8403	95.2148	85.8447	95.2148	85.8325	95.2148	85.8373	95.2148	85.8311	95.2148	85.8331
98.1445	86.924	98.1445	86.9059	98.1445	86.9159	98.1445	86.8625	98.1445	86.8816	98.1445	86.7959	98.1445	86.8225	98.1445	86.7096	98.1445	86.7411	98.1445	86.6077	98.1445	86.6412	98.1445	86.4955	98.1445	86.5275	98.1445	86.3788	98.1445	86.4062	98.1445	86.2635	98.1445	86.2843	98.1445	86.1554	98.1445	86.1687	98.1445	86.0595	98.1445	86.0659	98.1445	85.9791	98.1445	85.9807	98.1445	85.9165	98.1445	85.9155	98.1445	85.8715	98.1445	85.87	98.1445	85.8427	98.1445	85.8417	98.1445	85.8267	98.1445	85.8263	98.1445	85.8194	98.1445	85.8195	98.1445	85.8171	98.1445	85.8172	98.1445	85.8167
101.074	86.8085	101.074	86.7898	101.074	86.7997	101.074	86.7446	101.074	86.7635	101.074	86.6751	101.074	86.7016	101.074	86.5847	101.074	86.6167	101.074	86.4784	101.074	86.5128	101.074	86.362	101.074	86.3951	101.074	86.2419	101.074	86.2702	101.074	86.1251	101.074	86.1451	101.074	86.0178	101.074	86.0273	101.074	85.9254	101.074	85.9238	101.074	85.8511	101.074	85.8397	101.074	85.7964	101.074	85.7776	101.074	85.7601	101.074	85.7373	101.074	85.7394	101.074	85.7159	101.074	85.7297	101.074	85.7085	101.074	85.7259	101.074	85.71	101.074	85.7237	101.074	85.7151	101.074	85.7203
105.469	86.9097	105.469	86.8879	105.469	86.8991	105.469	86.8342	105.469	86.8568	105.469	86.7508	105.469	86.7854	105.469	86.6411	105.469	86.6887	105.469	86.5104	105.469	86.5718	105.469	86.3649	105.469	86.4412	105.469	86.2124	105.469	86.3043	105.469	86.0609	105.469	86.1686	105.469	85.9188	105.469	86.0411	105.469	85.7934	105.469	85.9276	105.469	85.6904	105.469	85.8316	105.469	85.6127	105.469	85.7544	105.469	85.5609	105.469	85.695	105.469	85.5323	105.469	85.6507	105.469	85.5227	105.469	85.6179	105.469	85.5264	105.469	85.5928	105.469	85.5382	105.469	85.5722	105.469	85.5541
108.398	87.1239	108.398	87.101	108.398	87.1129	108.398	87.0456	108.398	87.0681	108.398	86.9604	108.398	86.9911	108.398	86.8497	108.398	86.8854	108.398	86.7189	108.398	86.7559	108.398	86.5747	108.398	86.6095	108.398	86.4245	108.398	86.4544	108.398	86.2759	108.398	86.2996	108.398	86.1366	108.398	86.154	108.398	86.0128	108.398	86.0252	108.398	85.9093	108.398	85.918	108.398	85.8282	108.398	85.8346	108.398	85.7692	108.398	85.7737	108.398	85.7298	108.398	85.7325	108.398	85.7059	108.398	85.7069	108.398	85.6928	108.398	85.6927	108.398	85.6866	108.398	85.6861	108.398	85.6845
112.793	87.174	112.793	87.1627	112.793	87.1506	112.793	87.117	112.793	87.0934	112.793	87.0389	112.793	87.0049	112.793	86.9316	112.793	86.889	112.793	86.8003	112.793	86.7513	112.793	86.6516	112.793	86.5992	112.793	86.4941	112.793	86.4418	112.793	86.3374	112.793	86.289	112.793	86.1912	112.793	86.1508	112.793	86.0648	112.793	86.0357	112.793	85.9649	112.793	85.9488	112.793	85.8945	112.793	85.8909	112.793	85.8527	112.793	85.8587	112.793	85.8347	112.793	85.8459	112.793	85.8331	112.793	85.845	112.793	85.8398	112.793	85.8492	112.793	85.8479	112.793	85.8529	112.793	85.8528
117.188	87.2212	117.188	87.2033	117.188	87.2047	117.188	87.1522	117.188	87.1535	117.188	87.0706	117.188	87.0686	117.188	86.9622	117.188	86.9528	117.188	86.832	117.188	86.8102	117.188	86.6862	117.188	86.6473	117.188	86.5321	117.188	86.4725	117.188	86.3775	117.188	86.2962	117.188	86.2308	117.188	86.1297	117.188	86.0993	117.188	85.9838	117.188	85.9892	117.188	85.8671	117.188	85.904	117.188	85.7838	117.188	85.8439	117.188	85.7334	117.188	85.8058	117.188	85.711	117.188	85.7837	117.188	85.7089	117.188	85.7708	117.188	85.719	117.188	85.7604	117.188	85.7339	117.188	85.7485
120.117	87.2533	120.117	87.2286	120.117	87.2429	120.117	87.1706	120.117	87.1973	120.117	87.0821	120.117	87.1177	120.117	86.9671	120.117	87.0065	120.117	86.8312	120.117	86.868	120.117	86.681	120.117	86.708	120.117	86.5241	120.117	86.5345	120.117	86.3684	120.117	86.357	120.117	86.2218	120.117	86.1864	120.117	86.0913	120.117	86.0332	120.117	85.9822	120.117	85.9064	120.117	85.897	120.117	85.8111	120.117	85.8357	120.117	85.748	120.117	85.7948	120.117	85.7136	120.117	85.7691	120.117	85.7012	120.117	85.7523	120.117	85.7035	120.117	85.7391	120.117	85.7135	120.117	85.7263
124.512	87.3527	124.512	87.3241	124.512	87.3458	124.512	87.2612	124.512	87.304	124.512	87.1666	124.512	87.2291	124.512	87.0446	124.512	87.1246	124.512	86.9011	124.512	86.9953	124.512	86.7439	124.512	86.8478	124.512	86.5817	124.512	86.6901	124.512	86.424	124.512	86.5313	124.512	86.2801	124.512	86.3813	124.512	86.1574	124.512	86.249	124.512	86.0613	124.512	86.1409	124.512	85.9934	124.512	86.0605	124.512	85.9522	124.512	86.0069	124.512	85.933	124.512	85.9756	124.512	85.9291	124.512	85.9603	124.512	85.9338	124.512	85.9539	124.512	85.941	124.512	85.9508	124.512	85.947
128.906	87.4132	128.906	87.388	128.906	87.4005	128.906	87.326	128.906	87.3505	128.906	87.2298	128.906	87.2654	128.906	87.1038	128.906	87.149	128.906	86.9543	128.906	87.0068	128.906	86.7891	128.906	86.846	128.906	86.6178	128.906	86.6757	128.906	86.4502	128.906	86.5062	128.906	86.2963	128.906	86.3482	128.906	86.1645	128.906	86.2114	128.906	86.0605	128.906	86.1026	128.906	85.9869	128.906	86.0247	128.906	85.9422	128.906	85.9759	128.906	85.9217	128.906	85.9509	128.906	85.9185	128.906	85.9418	128.906	85.9246	128.906	85.9409	128.906	85.9332	128.906	85.9415	128.906	85.9394
133.301	87.3716	133.301	87.3501	133.301	87.3552	133.301	87.2916	133.301	87.3012	133.301	87.1986	133.301	87.212	133.301	87.0755	133.301	87.0913	133.301	86.9283	133.301	86.9448	133.301	86.7652	133.301	86.7803	133.301	86.5956	133.301	86.6073	133.301	86.4304	133.301	86.4369	133.301	86.2798	133.301	86.2804	133.301	86.1525	133.301	86.1481	133.301	86.0542	133.301	86.0469	133.301	85.9866	133.301	85.9791	133.301	85.9473	133.301	85.9418	133.301	85.9307	133.301	85.9282	133.301	85.9295	133.301	85.9294	133.301	85.9357	133.301	85.9367	133.301	85.9427	133.301	85.9436	133.301	85.9459
139.16	87.2225	139.16	87.1949	139.16	87.2099	139.16	87.1289	139.16	87.1572	139.16	87.028	139.16	87.0668	139.16	86.8978	139.16	86.9429	139.16	86.7458	139.16	86.792	139.16	86.5816	139.16	86.6232	139.16	86.4163	139.16	86.4479	139.16	86.2624	139.16	86.2795	139.16	86.1323	139.16	86.132	139.16	86.0361	139.16	86.0185	139.16	85.9801	139.16	85.9478	139.16	85.9644	139.16	85.9224	139.16	85.983	139.16	85.9373	139.16	86.0248	139.16	85.9812	139.16	86.0758	139.16	86.039	139.16	86.122	139.16	86.0955	139.16	86.1518	139.16	86.1379	139.16	86.1578
143.555	87.3939	143.555	87.3606	143.555	87.381	143.555	87.2824	143.555	87.3225	143.555	87.1627	143.555	87.2214	143.555	87.0072	143.555	87.0825	143.555	86.8237	143.555	86.913	143.555	86.6224	143.555	86.7226	143.555	86.4156	143.555	86.5229	143.555	86.2173	143.555	86.3275	143.555	86.042	143.555	86.1509	143.555	85.9026	143.555	86.0065	143.555	85.8084	143.555	85.9043	143.555	85.7624	143.555	85.8482	143.555	85.7607	143.555	85.8346	143.555	85.7926	143.555	85.853	143.555	85.843	143.555	85.8888	143.555	85.8956	143.555	85.9261	143.555	85.9364	143.555	85.9516	143.555	85.9561
147.949	87.3481	147.949	87.3211	147.949	87.3278	147.949	87.2485	147.949	87.2607	147.949	87.1339	147.949	87.1493	147.949	86.9831	147.949	86.9986	147.949	86.8036	147.949	86.8161	147.949	86.605	147.949	86.6118	147.949	86.3985	147.949	86.3984	147.949	86.1964	147.949	86.1901	147.949	86.0115	147.949	86.002	147.949	85.8554	147.949	85.8475	147.949	85.7372	147.949	85.7363	147.949	85.6617	147.949	85.6716	147.949	85.6282	147.949	85.6498	147.949	85.6301	147.949	85.6603	147.949	85.656	147.949	85.6885	147.949	85.6917	147.949	85.7189	147.949	85.7235	147.949	85.739	147.949	85.741
153.809	87.0713	153.809	87.0474	153.809	87.0449	153.809	86.9752	153.809	86.9686	153.809	86.8584	153.809	86.8449	153.809	86.7033	153.809	86.679	153.809	86.5185	153.809	86.4789	153.809	86.3151	153.809	86.2565	153.809	86.1066	153.809	86.0269	153.809	85.9076	153.809	85.8081	153.809	85.7325	153.809	85.6186	153.809	85.5933	153.809	85.4737	153.809	85.4969	153.809	85.382	153.809	85.4443	153.809	85.3429	153.809	85.4302	153.809	85.3475	153.809	85.444	153.809	85.3812	153.809	85.4728	153.809	85.4283	153.809	85.503	153.809	85.4748	153.809	85.5235	153.809	85.5097	153.809	85.5267
159.668	87.2152	159.668	87.176	159.668	87.1998	159.668	87.0838	159.668	87.13	159.668	86.9422	159.668	87.0079	159.668	86.7575	159.668	86.8372	159.668	86.5388	159.668	86.6241	159.668	86.2983	159.668	86.378	159.668	86.0508	159.668	86.1127	159.668	85.8127	159.668	85.8468	159.668	85.6003	159.668	85.6031	159.668	85.428	159.668	85.4044	159.668	85.3059	159.668	85.2679	159.668	85.2373	159.668	85.1991	159.668	85.2183	159.668	85.1899	159.668	85.2375	159.668	85.2219	159.668	85.2787	159.668	85.2731	159.668	85.3242	159.668	85.3236	159.668	85.3585	159.668	85.3592	159.668	85.3716
165.527	87.1227	165.527	87.087	165.527	87.1059	165.527	87.0002	165.527	87.0375	165.527	86.8661	165.527	86.9204	165.527	86.6917	165.527	86.7596	165.527	86.4869	165.527	86.5623	165.527	86.2648	165.527	86.3383	165.527	86.0414	165.527	86.1002	165.527	85.8339	165.527	85.8642	165.527	85.6585	165.527	85.6493	165.527	85.5277	165.527	85.4756	165.527	85.4474	165.527	85.3594	165.527	85.4163	165.527	85.308	165.527	85.4256	165.527	85.3156	165.527	85.4615	165.527	85.3653	165.527	85.5082	165.527	85.4345	165.527	85.5504	165.527	85.502	165.527	85.5762	165.527	85.5525	165.527	85.5779
171.387	86.9323	171.387	86.8821	171.387	86.9227	171.387	86.7736	171.387	86.8545	171.387	86.6115	171.387	86.7315	171.387	86.404	171.387	86.5599	171.387	86.1637	171.387	86.3484	171.387	85.9071	171.387	86.1086	171.387	85.6545	171.387	85.855	171.387	85.4276	171.387	85.6059	171.387	85.247	171.387	85.3824	171.387	85.1275	171.387	85.2057	171.387	85.0753	171.387	85.0932	171.387	85.0858	171.387	85.052	171.387	85.1443	171.387	85.0757	171.387	85.2298	171.387	85.1458	171.387	85.3188	171.387	85.2377	171.387	85.3908	171.387	85.3277	171.387	85.4314	171.387	85.397	171.387	85.4336
177.246	86.8451	177.246	86.8061	177.246	86.824	177.246	86.7069	177.246	86.7448	177.246	86.5499	177.246	86.611	177.246	86.3405	177.246	86.428	177.246	86.088	177.246	86.2032	177.246	85.8064	177.246	85.9469	177.246	85.5154	177.246	85.673	177.246	85.2394	177.246	85.4005	177.246	85.0049	177.246	85.153	177.246	84.8358	177.246	84.9556	177.246	84.7474	177.246	84.8289	177.246	84.741	177.246	84.7816	177.246	84.8027	177.246	84.8059	177.246	84.906	177.246	84.8803	177.246	85.019	177.246	84.9774	177.246	85.113	177.246	85.0715	177.246	85.1687	177.246	85.1431	177.246	85.1782
183.105	86.8968	183.105	86.8743	183.105	86.8573	183.105	86.7909	183.105	86.7572	183.105	86.6502	183.105	86.6001	183.105	86.4584	183.105	86.3924	183.105	86.225	183.105	86.1432	183.105	85.9633	183.105	85.8648	183.105	85.6911	183.105	85.5734	183.105	85.4297	183.105	85.2894	183.105	85.2013	183.105	85.0375	183.105	85.0258	183.105	84.8443	183.105	84.9168	183.105	84.7325	183.105	84.8794	183.105	84.7117	183.105	84.9086	183.105	84.7731	183.105	84.9885	183.105	84.8901	183.105	85.0934	183.105	85.0282	183.105	85.1936	183.105	85.1544	183.105	85.2623	183.105	85.2437	183.105	85.2812
188.965	87.0924	188.965	87.0611	188.965	87.0573	188.965	86.9654	188.965	86.9552	188.965	86.8088	188.965	86.7877	188.965	86.5971	188.965	86.5586	188.965	86.3394	188.965	86.275	188.965	86.0496	188.965	85.9488	188.965	85.7478	188.965	85.5976	188.965	85.4607	188.965	85.246	188.965	85.2177	188.965	84.926	188.965	85.0436	188.965	84.6747	188.965	84.9509	188.965	84.5262	188.965	84.9364	188.965	84.499	188.965	84.9834	188.965	84.5847	188.965	85.0685	188.965	84.7476	188.965	85.1659	188.965	84.9386	188.965	85.251	188.965	85.1123	188.965	85.3018	188.965	85.2377	188.965	85.3008
196.289	87.5554	196.289	87.5115	196.289	87.5328	196.289	87.4029	196.289	87.4427	196.289	87.233	196.289	87.2857	196.289	87.0064	196.289	87.0642	196.289	86.7303	196.289	86.7837	196.289	86.4155	196.289	86.4547	196.289	86.0791	196.289	86.0936	196.289	85.7456	196.289	85.7237	196.289	85.4469	196.289	85.3753	196.289	85.2163	196.289	85.0838	196.289	85.0802	196.289	84.8863	196.289	85.0487	196.289	84.8109	196.289	85.111	196.289	84.8634	196.289	85.2385	196.289	85.0181	196.289	85.3924	196.289	85.2243	196.289	85.5325	196.289	85.4246	196.289	85.6237	196.289	85.5723	196.289	85.6408
203.613	87.507	203.613	87.4457	203.613	87.5043	203.613	87.3219	203.613	87.437	203.613	87.1377	203.613	87.305	203.613	86.8971	203.613	87.1094	203.613	86.6072	203.613	86.8538	203.613	86.2801	203.613	86.5455	203.613	85.9341	203.613	86.1972	203.613	85.5941	203.613	85.8272	203.613	85.2895	203.613	85.4593	203.613	85.049	203.613	85.1228	203.613	84.8945	203.613	84.8522	203.613	84.8361	203.613	84.6825	203.613	84.8689	203.613	84.6377	203.613	84.9714	203.613	84.7146	203.613	85.1084	203.613	84.8767	203.613	85.2365	203.613	85.0663	203.613	85.3145	203.613	85.2255	203.613	85.3137
210.938	87.7598	210.938	87.7088	210.938	87.7505	210.938	87.5942	210.938	87.6832	210.938	87.4126	210.938	87.559	210.938	87.1616	210.938	87.3778	210.938	86.8426	210.938	87.1402	210.938	86.4641	210.938	86.849	210.938	86.0455	210.938	86.5129	210.938	85.6193	210.938	86.149	210.938	85.2284	210.938	85.7832	210.938	84.9165	210.938	85.4475	210.938	84.7138	210.938	85.1744	210.938	84.6287	210.938	84.9896	210.938	84.6474	210.938	84.9044	210.938	84.7415	210.938	84.9108	210.938	84.8756	210.938	84.9802	210.938	85.0117	210.938	85.0715	210.938	85.1149	210.938	85.1422	210.938	85.1609
218.262	87.6181	218.262	87.5901	218.262	87.5884	218.262	87.5014	218.262	87.5046	218.262	87.3498	218.262	87.3717	218.262	87.1339	218.262	87.1942	218.262	86.8539	218.262	86.9767	218.262	86.5143	218.262	86.7229	218.262	86.1286	218.262	86.4378	218.262	85.7225	218.262	86.1301	218.262	85.3348	218.262	85.8155	218.262	85.0116	218.262	85.5182	218.262	84.7925	218.262	85.27	218.262	84.6962	218.262	85.1022	218.262	84.7153	218.262	85.0338	218.262	84.8212	218.262	85.0586	218.262	84.9744	218.262	85.1447	218.262	85.1325	218.262	85.2449	218.262	85.2574	218.262	85.3141	218.262	85.3215
225.586	87.4049	225.586	87.4283	225.586	87.3206	225.586	87.3881	225.586	87.1803	225.586	87.2823	225.586	86.9914	225.586	87.1093	225.586	86.763	225.586	86.8671	225.586	86.5049	225.586	86.5561	225.586	86.2267	225.586	86.1829	225.586	85.937	225.586	85.766	225.586	85.6442	225.586	85.3397	225.586	85.3594	225.586	84.953	225.586	85.1	225.586	84.6592	225.586	84.8935	225.586	84.4989	225.586	84.7737	225.586	84.4838	225.586	84.7645	225.586	84.5934	225.586	84.8599	225.586	84.7821	225.586	85.0171	225.586	84.9928	225.586	85.1727	225.586	85.1696	225.586	85.2683	225.586	85.269
232.91	86.8137	232.91	86.8145	232.91	86.7486	232.91	86.7546	232.91	86.6194	232.91	86.6396	232.91	86.4309	232.91	86.4755	232.91	86.1932	232.91	86.2671	232.91	85.9219	232.91	86.0184	232.91	85.6359	232.91	85.7342	232.91	85.3537	232.91	85.4238	232.91	85.0867	232.91	85.1018	232.91	84.8361	232.91	84.7884	232.91	84.5975	232.91	84.5063	232.91	84.3745	232.91	84.2806	232.91	84.1919	232.91	84.1382	232.91	84.0923	232.91	84.1009	232.91	84.1078	232.91	84.1689	232.91	84.2257	232.91	84.3063	232.91	84.3836	232.91	84.4479	232.91	84.5021	232.91	84.5261
241.699	85.7003	241.699	85.6462	241.699	85.6733	241.699	85.521	241.699	85.5596	241.699	85.3392	241.699	85.3591	241.699	85.1169	241.699	85.0783	241.699	84.8698	241.699	84.7332	241.699	84.6105	241.699	84.3545	241.699	84.3503	241.699	83.9896	241.699	84.1038	241.699	83.6947	241.699	83.8923	241.699	83.5103	241.699	83.7374	241.699	83.4335	241.699	83.6462	241.699	83.4194	241.699	83.6024	241.699	83.4147	241.699	83.5767	241.699	83.395	241.699	83.5488	241.699	83.373	241.699	83.5196	241.699	83.3757	241.699	83.501	241.699	83.4107	241.699	83.4951	241.699	83.4563	241.699	83.486
250.488	85.8802	250.488	85.8315	250.488	85.8163	250.488	85.6688	250.488	85.6425	250.488	85.3936	250.488	85.3614	250.488	85.0144	250.488	84.9767	250.488	84.5503	250.488	84.4964	250.488	84.0346	250.488	83.9404	250.488	83.5156	250.488	83.3539	250.488	83.0545	250.488	82.8195	250.488	82.7151	250.488	82.4479	250.488	82.5428	250.488	82.3249	250.488	82.5414	250.488	82.4439	250.488	82.6671	250.488	82.7073	250.488	82.8524	250.488	82.9986	250.488	83.0398	250.488	83.2411	250.488	83.2	250.488	83.4063	250.488	83.3277	250.488	83.4955	250.488	83.4259	250.488	83.5201	250.488	83.4929
259.277	86.1662	259.277	86.0923	259.277	86.1432	259.277	85.9241	259.277	86.0225	259.277	85.6662	259.277	85.8042	259.277	85.3255	259.277	85.4888	259.277	84.9131	259.277	85.0753	259.277	84.4451	259.277	84.5623	259.277	83.9466	259.277	83.9566	259.277	83.4599	259.277	83.294	259.277	83.0525	259.277	82.6655	259.277	82.8075	259.277	82.2184	259.277	82.782	259.277	82.0864	259.277	82.9577	259.277	82.2809	259.277	83.2457	259.277	82.6809	259.277	83.5442	259.277	83.1339	259.277	83.7885	259.277	83.5333	259.277	83.9577	259.277	83.8281	259.277	84.0532	259.277	84.0049	259.277	84.0736
268.066	86.2339	268.066	86.1119	268.066	86.2554	268.066	85.8954	268.066	86.1691	268.066	85.5887	268.066	85.9694	268.066	85.1969	268.066	85.656	268.066	84.7311	268.066	85.2348	268.066	84.2129	268.066	84.7173	268.066	83.6768	268.066	84.1214	268.066	83.1734	268.066	83.4781	268.066	82.7737	268.066	82.8471	268.066	82.5633	268.066	82.3282	268.066	82.6038	268.066	82.0394	268.066	82.8777	268.066	82.0486	268.066	83.2812	268.066	82.3178	268.066	83.6852	268.066	82.7332	268.066	83.9953	268.066	83.1792	268.066	84.1688	268.066	83.5791	268.066	84.2011	268.066	83.8935	268.066	84.1047
276.855	86.6016	276.855	86.4614	276.855	86.6478	276.855	86.2317	276.855	86.5907	276.855	85.9126	276.855	86.4182	276.855	85.5012	276.855	86.1186	276.855	84.996	276.855	85.6848	276.855	84.4008	276.855	85.1181	276.855	83.7315	276.855	84.4352	276.855	83.0288	276.855	83.6804	276.855	82.3784	276.855	82.941	276.855	81.9227	276.855	82.3469	276.855	81.8121	276.855	82.0235	276.855	82.0825	276.855	82.011	276.855	82.5973	276.855	82.2398	276.855	83.1518	276.855	82.596	276.855	83.5955	276.855	82.9872	276.855	83.8624	276.855	83.3554	276.855	83.946	276.855	83.6605	276.855	83.8684
287.109	86.6242	287.109	86.6414	287.109	86.527	287.109	86.5654	287.109	86.3575	287.109	86.3777	287.109	86.1202	287.109	86.0576	287.109	85.8167	287.109	85.5884	287.109	85.4445	287.109	84.9656	287.109	84.9945	287.109	84.2042	287.109	84.4531	287.109	83.3459	287.109	83.8168	287.109	82.4744	287.109	83.1231	287.109	81.738	287.109	82.4865	287.109	81.3401	287.109	82.0842	287.109	81.4167	287.109	82.0383	287.109	81.8867	287.109	82.2937	287.109	82.5099	287.109	82.6785	287.109	83.0709	287.109	83.0502	287.109	83.4588	287.109	83.3479	287.109	83.6496	287.109	83.5579	287.109	83.6688
297.363	86.9958	297.363	86.9636	297.363	86.9214	297.363	86.8358	297.363	86.7296	297.363	86.6225	297.363	86.4104	297.363	86.33	297.363	85.9546	297.363	85.957	297.363	85.3558	297.363	85.4906	297.363	84.6114	297.363	84.9071	297.363	83.7252	297.363	84.1794	297.363	82.7171	297.363	83.3005	297.363	81.6556	297.363	82.3362	297.363	80.7248	297.363	81.504	297.363	80.25	297.363	81.1588	297.363	80.4754	297.363	81.4814	297.363	81.2495	297.363	82.2275	297.363	82.1854	297.363	83.0156	297.363	83.0028	297.363	83.6196	297.363	83.594	297.363	83.9704	297.363	83.9468	297.363	84.0731
307.617	87.3774	307.617	87.3027	307.617	87.3722	307.617	87.137	307.617	87.2922	307.617	86.8649	307.617	87.1369	307.617	86.4728	307.617	86.8995	307.617	85.9609	307.617	86.5668	307.617	85.3551	307.617	86.1205	307.617	84.7073	307.617	85.5401	307.617	84.0713	307.617	84.8068	307.617	83.463	307.617	83.9117	307.617	82.854	307.617	82.8789	307.617	82.2357	307.617	81.8174	307.617	81.7202	307.617	80.9813	307.617	81.5568	307.617	80.6941	307.617	81.9065	307.617	81.0474	307.617	82.5927	307.617	81.791	307.617	83.2575	307.617	82.6037	307.617	83.6395	307.617	83.2649	307.617	83.6375
319.336	87.3646	319.336	87.3437	319.336	87.2894	319.336	87.2295	319.336	87.1105	319.336	87.0127	319.336	86.824	319.336	86.6688	319.336	86.4364	319.336	86.1618	319.336	85.9646	319.336	85.4566	319.336	85.4264	319.336	84.542	319.336	84.8284	319.336	83.467	319.336	84.1641	319.336	82.3829	319.336	83.434	319.336	81.5361	319.336	82.6856	319.336	81.1244	319.336	82.0505	319.336	81.1322	319.336	81.7168	319.336	81.406	319.336	81.795	319.336	81.8315	319.336	82.2012	319.336	82.3485	319.336	82.7299	319.336	82.8755	319.336	83.1931	319.336	83.2959	319.336	83.4728	319.336	83.5101
329.59	87.1039	329.59	87.0307	329.59	87.1262	329.59	86.9124	329.59	87.0819	329.59	86.7445	329.59	86.949	329.59	86.5118	329.59	86.706	329.59	86.1859	329.59	86.3394	329.59	85.7269	329.59	85.8448	329.59	85.0912	329.59	85.221	329.59	84.2511	329.59	84.4631	329.59	83.2327	329.59	83.5699	329.59	82.1757	329.59	82.5826	329.59	81.3658	329.59	81.6546	329.59	81.0929	329.59	81.084	329.59	81.3646	329.59	81.1333	329.59	81.9253	329.59	81.7235	329.59	82.5372	329.59	82.5054	329.59	83.0776	329.59	83.1728	329.59	83.4757	329.59	83.5712	329.59	83.6619
341.309	86.9519	341.309	86.9264	341.309	86.8998	341.309	86.8126	341.309	86.7782	341.309	86.601	341.309	86.5888	341.309	86.2843	341.309	86.3272	341.309	85.8542	341.309	85.9864	341.309	85.2979	341.309	85.5623	341.309	84.6002	341.309	85.0547	341.309	83.7581	341.309	84.466	341.309	82.8105	341.309	83.8077	341.309	81.8794	341.309	83.1208	341.309	81.1893	341.309	82.5029	341.309	80.9704	341.309	82.0992	341.309	81.2504	341.309	82.0204	341.309	81.8183	341.309	82.2452	341.309	82.4251	341.309	82.6322	341.309	82.9194	341.309	83.0173	341.309	83.2387	341.309	83.2809	341.309	83.3609
353.027	87.3832	353.027	87.3079	353.027	87.3713	353.027	87.1432	353.027	87.2708	353.027	86.886	353.027	87.0734	353.027	86.5328	353.027	86.7628	353.027	86.0799	353.027	86.3153	353.027	85.5211	353.027	85.7044	353.027	84.8434	353.027	84.9077	353.027	84.0255	353.027	83.9186	353.027	83.0536	353.027	82.772	353.027	81.9743	353.027	81.5964	353.027	80.9932	353.027	80.6812	353.027	80.5147	353.027	80.3995	353.027	80.8102	353.027	80.8375	353.027	81.6232	353.027	81.6574	353.027	82.4889	353.027	82.4752	353.027	83.1403	353.027	83.0968	353.027	83.5093	353.027	83.4744	353.027	83.6126
366.211	88.1567	366.211	88.074	366.211	88.1283	366.211	87.8722	366.211	88.0088	366.211	87.5627	366.211	87.813	366.211	87.1645	366.211	87.5378	366.211	86.6807	366.211	87.1627	366.211	86.0849	366.211	86.6578	366.211	85.3286	366.211	85.9894	366.211	84.369	366.211	85.1216	366.211	83.2123	366.211	84.0219	366.211	81.9824	366.211	82.6871	366.211	80.998	366.211	81.2201	366.211	80.6694	366.211	79.9816	366.211	81.0825	366.211	79.5941	366.211	81.8985	366.211	80.285	366.211	82.7522	366.211	81.5071	366.211	83.4347	366.211	82.6654	366.211	83.8316	366.211	83.4783	366.211	83.864
379.395	88.1509	379.395	88.1929	379.395	88.0813	379.395	88.2078	379.395	87.9733	379.395	88.1741	379.395	87.8176	379.395	88.0518	379.395	87.6066	379.395	87.796	379.395	87.328	379.395	87.3652	379.395	86.9646	379.395	86.7173	379.395	86.4939	379.395	85.8032	379.395	85.8825	379.395	84.5757	379.395	85.0862	379.395	83.0322	379.395	84.0835	379.395	81.3188	379.395	82.959	379.395	79.8927	379.395	81.9939	379.395	79.4055	379.395	81.5622	379.395	79.9474	379.395	81.7288	379.395	80.9369	379.395	82.1797	379.395	81.8687	379.395	82.6067	379.395	82.5234	379.395	82.8548	379.395	82.8452
392.578	87.6095	392.578	87.509	392.578	87.598	392.578	87.3271	392.578	87.4769	392.578	87.1229	392.578	87.268	392.578	86.9497	392.578	86.9934	392.578	86.8114	392.578	86.6615	392.578	86.6492	392.578	86.2643	392.578	86.3705	392.578	85.7836	392.578	85.884	392.578	85.1932	392.578	85.1228	392.578	84.4539	392.578	84.0756	392.578	83.527	392.578	82.8623	392.578	82.4503	392.578	81.8382	392.578	81.4888	392.578	81.4784	392.578	81.1406	392.578	81.853	392.578	81.5928	392.578	82.544	392.578	82.4111	392.578	83.169	392.578	83.1298	392.578	83.5695	392.578	83.567	392.578	83.7068
405.762	87.2891	405.762	87.2676	405.762	87.205	405.762	87.13	405.762	87.0209	405.762	86.8689	405.762	86.7423	405.762	86.497	405.762	86.3849	405.762	86.0516	405.762	85.9703	405.762	85.5728	405.762	85.5071	405.762	85.0648	405.762	84.9758	405.762	84.4774	405.762	84.3366	405.762	83.7387	405.762	83.5629	405.762	82.8359	405.762	82.6898	405.762	81.9254	405.762	81.8821	405.762	81.3937	405.762	81.469	405.762	81.5854	405.762	81.7251	405.762	82.3353	405.762	82.495	405.762	83.1773	405.762	83.3427	405.762	83.8199	405.762	83.9674	405.762	84.2019	405.762	84.2916	405.762	84.3554
420.41	88.3549	420.41	88.2892	420.41	88.3621	420.41	88.1609	420.41	88.322	420.41	87.9761	420.41	88.2334	420.41	87.736	420.41	88.0677	420.41	87.4199	420.41	87.7772	420.41	86.9825	420.41	87.3205	420.41	86.3632	420.41	86.679	420.41	85.4924	420.41	85.8431	420.41	84.2874	420.41	84.7679	420.41	82.6628	420.41	83.3292	420.41	80.6518	420.41	81.3523	420.41	78.8947	420.41	78.9282	420.41	78.8859	420.41	77.5723	420.41	80.4589	420.41	78.9861	420.41	82.0541	420.41	81.1246	420.41	83.0942	420.41	82.615	420.41	83.6026	420.41	83.4097	420.41	83.6993
435.059	87.5095	435.059	87.4594	435.059	87.4614	435.059	87.3397	435.059	87.3207	435.059	87.188	435.059	87.1286	435.059	87.0227	435.059	86.9257	435.059	86.8277	435.059	86.7073	435.059	86.5486	435.059	86.4231	435.059	86.1052	435.059	86.0275	435.059	85.4166	435.059	85.5188	435.059	84.4345	435.059	84.9181	435.059	83.1801	435.059	84.2064	435.059	81.8095	435.059	83.3186	435.059	80.7206	435.059	82.2888	435.059	80.4623	435.059	81.5007	435.059	81.131	435.059	81.573	435.059	82.2112	435.059	82.4605	435.059	83.214	435.059	83.4589	435.059	83.9178	435.059	84.0907	435.059	84.2325
451.172	88.1306	451.172	88.0388	451.172	88.1191	451.172	87.8785	451.172	87.9901	451.172	87.678	451.172	87.7781	451.172	87.453	451.172	87.5523	451.172	87.2168	451.172	87.3377	451.172	86.9739	451.172	87.0388	451.172	86.6876	451.172	86.47	451.172	86.2506	451.172	85.4673	451.172	85.4862	451.172	83.9756	451.172	84.1637	451.172	82.1003	451.172	82.0339	451.172	80.1373	451.172	79.1977	451.172	78.6138	451.172	77.8797	451.172	78.4092	451.172	79.9078	451.172	79.9615	451.172	82.2271	451.172	82.1268	451.172	83.7479	451.172	83.8047	451.172	84.6004	451.172	84.7088	451.172	84.9277
465.82	87.0901	465.82	86.9145	465.82	87.208	465.82	86.6947	465.82	87.2295	465.82	86.4242	465.82	87.1205	465.82	86.1082	465.82	86.9005	465.82	85.8001	465.82	86.6583	465.82	85.591	465.82	86.4727	465.82	85.5178	465.82	86.2978	465.82	85.4796	465.82	85.9707	465.82	85.2792	465.82	85.3222	465.82	84.7181	465.82	84.2431	465.82	83.6596	465.82	82.6994	465.82	82.1139	465.82	80.7859	465.82	80.528	465.82	78.9513	465.82	80.0634	465.82	78.3426	465.82	81.1363	465.82	79.5443	465.82	82.5675	465.82	81.3565	465.82	83.4651	465.82	82.8027	465.82	83.5476
483.398	86.3519	483.398	86.2162	483.398	86.2773	483.398	85.9371	483.398	85.9846	483.398	85.6172	483.398	85.5173	483.398	85.3219	483.398	84.9666	483.398	85.0168	483.398	84.4738	483.398	84.611	483.398	84.187	483.398	84.0563	483.398	84.1304	483.398	83.3531	483.398	84.1151	483.398	82.4257	483.398	83.8349	483.398	81.0329	483.398	83.0362	483.398	78.9016	483.398	81.6538	483.398	76.2815	483.398	80.0005	483.398	75.4317	483.398	78.9099	483.398	77.5344	483.398	79.0003	483.398	79.8911	483.398	79.8826	483.398	81.4927	483.398	80.9787	483.398	82.3173	483.398	81.9222	483.398	82.4305
499.512	86.2991	499.512	86.3632	499.512	86.1341	499.512	86.2658	499.512	85.9207	499.512	85.9919	499.512	85.6571	499.512	85.5777	499.512	85.2955	499.512	85.0568	499.512	84.8025	499.512	84.4124	499.512	84.2189	499.512	83.6152	499.512	83.6499	499.512	82.7068	499.512	83.1395	499.512	81.7938	499.512	82.5408	499.512	80.885	499.512	81.5686	499.512	79.7577	499.512	79.9895	499.512	78.1308	499.512	77.9251	499.512	76.3093	499.512	76.4608	499.512	76.1456	499.512	76.9492	499.512	78.112	499.512	78.5271	499.512	80.0849	499.512	80.0098	499.512	81.2138	499.512	81.0387	499.512	81.4853
517.09	86.894	517.09	86.8625	517.09	86.8091	517.09	86.7157	517.09	86.6191	517.09	86.4545	517.09	86.3718	517.09	86.1154	517.09	86.1285	517.09	85.8029	517.09	85.9063	517.09	85.621	517.09	85.6663	517.09	85.5255	517.09	85.3607	517.09	85.2928	517.09	84.9549	517.09	84.6607	517.09	84.3704	517.09	83.4554	517.09	83.4248	517.09	81.6287	517.09	81.8554	517.09	79.2806	517.09	79.4554	517.09	76.9613	517.09	76.7707	517.09	76.3603	517.09	76.545	517.09	78.0239	517.09	78.7445	517.09	79.992	517.09	80.6323	517.09	81.2952	517.09	81.6332	517.09	81.834
536.133	87.224	536.133	87.0213	536.133	87.1965	536.133	86.6462	536.133	86.9054	536.133	86.1407	536.133	86.3741	536.133	85.5291	536.133	85.6791	536.133	84.8678	536.133	84.9185	536.133	84.2753	536.133	84.1905	536.133	83.8306	536.133	83.5908	536.133	83.4337	536.133	83.1492	536.133	82.8694	536.133	82.7138	536.133	81.9655	536.133	81.9866	536.133	80.6463	536.133	80.7371	536.133	79.0519	536.133	79.0974	536.133	78.0858	536.133	77.987	536.133	79.0454	536.133	78.5317	536.133	81.0522	536.133	80.1431	536.133	82.6798	536.133	81.7358	536.133	83.4981	536.133	82.904	536.133	83.5289
555.176	87.1727	555.176	87.0984	555.176	87.0306	555.176	86.7913	555.176	86.7345	555.176	86.2897	555.176	86.3643	555.176	85.663	555.176	85.9784	555.176	84.9861	555.176	85.5673	555.176	84.3484	555.176	85.0474	555.176	83.8227	555.176	84.339	555.176	83.3221	555.176	83.4572	555.176	82.5402	555.176	82.4609	555.176	81.127	555.176	81.2324	555.176	78.8553	555.176	79.3357	555.176	75.6116	555.176	76.0756	555.176	72.0534	555.176	71.2482	555.176	73.1001	555.176	71.9375	555.176	77.14	555.176	76.3038	555.176	79.9013	555.176	79.0734	555.176	81.2236	555.176	80.6759	555.176	81.4069
574.219	85.766	574.219	85.6603	574.219	85.6293	574.219	85.2852	574.219	85.3032	574.219	84.7042	574.219	84.7987	574.219	84.0557	574.219	84.0918	574.219	83.4588	574.219	83.2537	574.219	82.9667	574.219	82.5878	574.219	82.611	574.219	82.3826	574.219	82.3333	574.219	82.4139	574.219	81.864	574.219	82.1701	574.219	80.8115	574.219	81.3354	574.219	78.7544	574.219	79.7512	574.219	75.1333	574.219	77.0763	574.219	69.4703	574.219	72.596	574.219	69.1486	574.219	69.0027	574.219	74.0101	574.219	73.1975	574.219	76.9914	574.219	76.4677	574.219	78.4607	574.219	78.1304	574.219	78.7719
594.727	85.3652	594.727	85.1219	594.727	85.3626	594.727	84.711	594.727	85.0325	594.727	84.126	594.727	84.3776	594.727	83.3092	594.727	83.5133	594.727	82.3304	594.727	82.6199	594.727	81.4902	594.727	81.8462	594.727	80.9741	594.727	81.2731	594.727	80.6025	594.727	80.9431	594.727	80.2663	594.727	80.7438	594.727	79.9365	594.727	80.2988	594.727	79.2296	594.727	79.1504	594.727	77.5396	594.727	76.9045	594.727	74.3877	594.727	73.1493	594.727	69.7156	594.727	68.2105	594.727	66.5471	594.727	68.9281	594.727	69.4961	594.727	72.6689	594.727	72.863	594.727	74.5721	594.727	74.6151
615.234	87.6225	615.234	87.4091	615.234	87.5421	615.234	86.9677	615.234	87.1588	615.234	86.3659	615.234	86.5324	615.234	85.6176	615.234	85.7483	615.234	84.6881	615.234	84.8774	615.234	83.6316	615.234	84.0018	615.234	82.7347	615.234	83.2232	615.234	82.2656	615.234	82.5824	615.234	81.9819	615.234	82.0322	615.234	81.332	615.234	81.4553	615.234	79.934	615.234	80.5953	615.234	77.6169	615.234	79.1114	615.234	74.2572	615.234	76.8085	615.234	70.3811	615.234	74.0613	615.234	70.6254	615.234	72.6363	615.234	73.6621	615.234	73.4544	615.234	75.284	615.234	74.7162	615.234	75.4636
637.207	88.7894	637.207	88.6718	637.207	88.6668	637.207	88.3074	637.207	88.3201	637.207	87.7185	637.207	87.7636	637.207	86.9387	637.207	87.0209	637.207	85.9788	637.207	86.1321	637.207	84.9005	637.207	85.1777	637.207	83.9639	637.207	84.351	637.207	83.4742	637.207	83.8835	637.207	83.3627	637.207	83.6808	637.207	83.2381	637.207	83.2991	637.207	82.5891	637.207	82.3126	637.207	80.8428	637.207	80.4107	637.207	77.7534	637.207	77.5158	637.207	75.3079	637.207	75.1386	637.207	76.6275	637.207	76.2124	637.207	78.8388	637.207	78.6233	637.207	80.4543	637.207	80.4072	637.207	81.0604
659.18	88.2048	659.18	88.0558	659.18	88.1388	659.18	87.7153	659.18	87.8273	659.18	87.1542	659.18	87.3227	659.18	86.3864	659.18	86.7185	659.18	85.5582	659.18	86.0133	659.18	84.7957	659.18	85.1537	659.18	84.0146	659.18	84.2565	659.18	83.2091	659.18	83.5448	659.18	82.5933	659.18	82.9876	659.18	82.0112	659.18	82.3441	659.18	80.9936	659.18	81.4091	659.18	79.2343	659.18	79.9692	659.18	76.3256	659.18	77.6029	659.18	72.3463	659.18	73.6964	659.18	72.7946	659.18	72.1973	659.18	75.8618	659.18	76.2791	659.18	77.6252	659.18	78.4537	659.18	78.5789
682.617	88	682.617	87.8619	682.617	87.9016	682.617	87.5219	682.617	87.5792	682.617	87.0335	682.617	87.0653	682.617	86.3637	682.617	86.3739	682.617	85.3878	682.617	85.4535	682.617	84.1471	682.617	84.2681	682.617	83.0942	682.617	83.0752	682.617	82.5876	682.617	82.4252	682.617	82.4152	682.617	82.4346	682.617	82.3314	682.617	82.5299	682.617	82.0183	682.617	81.9984	682.617	80.8976	682.617	80.2317	682.617	78.2008	682.617	76.7852	682.617	72.6643	682.617	72.7652	682.617	70.6696	682.617	73.7392	682.617	76.3994	682.617	76.4781	682.617	78.8575	682.617	78.2648	682.617	79.1802
707.52	88.6027	707.52	88.4704	707.52	88.5296	707.52	88.211	707.52	88.0985	707.52	87.7354	707.52	87.2682	707.52	86.9064	707.52	86.1986	707.52	85.7094	707.52	85.1085	707.52	84.1962	707.52	83.9664	707.52	82.4635	707.52	82.7147	707.52	81.2559	707.52	82.0199	707.52	81.2812	707.52	82.1469	707.52	81.4631	707.52	82.0789	707.52	81.025	707.52	81.4091	707.52	80.0787	707.52	80.0533	707.52	78.0493	707.52	77.4226	707.52	74.0492	707.52	74.0702	707.52	73.425	707.52	74.8618	707.52	77.2701	707.52	78.1298	707.52	79.8632	707.52	80.3738	707.52	80.9627
732.422	87.531	732.422	87.4496	732.422	87.48	732.422	87.2927	732.422	87.1952	732.422	86.9702	732.422	86.6257	732.422	86.3077	732.422	85.8187	732.422	85.3022	732.422	84.9035	732.422	84.2194	732.422	83.9317	732.422	83.2607	732.422	82.7372	732.422	82.3261	732.422	81.5058	732.422	81.5578	732.422	81.0605	732.422	81.1752	732.422	80.9489	732.422	80.5118	732.422	80.0505	732.422	78.8911	732.422	78.4176	732.422	76.2336	732.422	75.8619	732.422	72.6326	732.422	71.7885	732.422	73.1657	732.422	72.479	732.422	77.0387	732.422	75.8426	732.422	78.8642	732.422	77.8121	732.422	78.8949
757.324	87.1123	757.324	87.0857	757.324	86.9993	757.324	86.7747	757.324	86.8092	757.324	86.151	757.324	86.3267	757.324	85.1839	757.324	85.2491	757.324	83.7709	757.324	83.5714	757.324	81.9962	757.324	81.8428	757.324	80.2502	757.324	80.5693	757.324	79.1138	757.324	79.6179	757.324	79.3541	757.324	79.6584	757.324	80.256	757.324	80.7217	757.324	80.3108	757.324	81.1017	757.324	78.9452	757.324	79.9313	757.324	75.8311	757.324	77.1374	757.324	70.477	757.324	72.9421	757.324	71.0149	757.324	70.8997	757.324	75.6172	757.324	74.8353	757.324	77.6619	757.324	77.6015	757.324	78.2896
785.156	85.4706	785.156	85.9806	785.156	84.8157	785.156	86.0089	785.156	84.3459	785.156	85.5246	785.156	84.0008	785.156	84.7965	785.156	83.6177	785.156	84.0279	785.156	83.3411	785.156	82.882	785.156	83.0055	785.156	80.7509	785.156	81.8519	785.156	78.2854	785.156	79.2621	785.156	77.6522	785.156	77.7859	785.156	76.7379	785.156	79.825	785.156	73.3179	785.156	80.608	785.156	68.6531	785.156	79.9583	785.156	64.7907	785.156	78.9358	785.156	60.5314	785.156	75.8651	785.156	74.1571	785.156	74.1473	785.156	79.3584	785.156	78.4945	785.156	81.3993	785.156	80.7534	785.156	81.7102
811.523	89.4865	811.523	89.2467	811.523	89.3936	811.523	88.834	811.523	89.0297	811.523	88.3157	811.523	88.5534	811.523	87.6107	811.523	87.8082	811.523	86.6581	811.523	86.4648	811.523	85.3998	811.523	84.4024	811.523	84.0635	811.523	82.3883	811.523	82.957	811.523	81.6973	811.523	81.9643	811.523	80.8898	811.523	82.0819	811.523	79.473	811.523	83.1605	811.523	79.4428	811.523	83.1468	811.523	78.2254	811.523	81.1667	811.523	73.7458	811.523	76.8972	811.523	71.9625	811.523	70.0398	811.523	74.0133	811.523	43.7778	811.523	73.8862	811.523	69.5865	811.523	73.483	811.523	73.6056
840.82	86.7178	840.82	86.4813	840.82	86.8163	840.82	86.0574	840.82	86.7843	840.82	85.2664	840.82	86.7403	840.82	84.2013	840.82	86.6038	840.82	83.083	840.82	86.2244	840.82	81.4378	840.82	85.6604	840.82	79.2895	840.82	84.4528	840.82	78.3317	840.82	82.0413	840.82	78.1496	840.82	80.0531	840.82	78.0034	840.82	79.8487	840.82	78.3913	840.82	79.7195	840.82	78.278	840.82	79.7048	840.82	76.8451	840.82	78.9015	840.82	73.2676	840.82	75.8917	840.82	65.0317	840.82	68.6382	840.82	66.1432	840.82	60.2891	840.82	70.2593	840.82	70.9707	840.82	72.0194
870.117	86.806	870.117	86.4213	870.117	87.1577	870.117	85.6928	870.117	87.279	870.117	84.5983	870.117	86.8143	870.117	83.6535	870.117	85.9104	870.117	82.9027	870.117	84.7827	870.117	81.917	870.117	83.2274	870.117	80.2645	870.117	81.5337	870.117	77.9899	870.117	80.1796	870.117	78.1022	870.117	78.9693	870.117	80.1105	870.117	78.8358	870.117	81.4927	870.117	80.114	870.117	81.9575	870.117	81.3125	870.117	81.6398	870.117	81.1806	870.117	80.9026	870.117	79.2582	870.117	79.8612	870.117	76.9744	870.117	80.0223	870.117	76.184	870.117	80.7693	870.117	78.5173	870.117	80.4554
900.879	85.3959	900.879	86.1283	900.879	84.1581	900.879	86.4433	900.879	82.8304	900.879	86.1025	900.879	82.4562	900.879	84.8307	900.879	82.6012	900.879	83.3112	900.879	81.9265	900.879	82.4699	900.879	80.5093	900.879	81.1466	900.879	79.0248	900.879	78.2187	900.879	77.6878	900.879	77.1334	900.879	79.0834	900.879	78.7814	900.879	80.7784	900.879	79.2784	900.879	81.2322	900.879	79.3383	900.879	81.3525	900.879	77.2132	900.879	80.4292	900.879	69.2501	900.879	77.0184	900.879	72.9739	900.879	73.1327	900.879	78.7166	900.879	77.0646	900.879	81.0057	900.879	80.0795	900.879	81.2879
933.105	87.675	933.105	87.2307	933.105	87.6918	933.105	86.3896	933.105	87.4206	933.105	85.4297	933.105	86.6293	933.105	84.4566	933.105	85.3094	933.105	83.1629	933.105	84.4372	933.105	81.5962	933.105	84.0107	933.105	81.1072	933.105	83.0061	933.105	80.5864	933.105	80.9284	933.105	78.3182	933.105	79.0541	933.105	77.0864	933.105	81.084	933.105	77.5588	933.105	82.8271	933.105	76.9071	933.105	82.909	933.105	75.2743	933.105	82.2531	933.105	72.9256	933.105	80.0801	933.105	67.6888	933.105	74.5029	933.105	63.6763	933.105	47.0814	933.105	74.7692	933.105	73.1712	933.105	76.4156
965.332	87.2361	965.332	86.9435	965.332	87.4817	965.332	86.4869	965.332	87.4345	965.332	85.7516	965.332	86.6211	965.332	84.604	965.332	84.9365	965.332	83.1263	965.332	82.7256	965.332	81.1166	965.332	80.3408	965.332	77.6844	965.332	78.0703	965.332	72.0831	965.332	75.9972	965.332	70.8102	965.332	73.1627	965.332	75.959	965.332	74.9447	965.332	78.0665	965.332	79.3253	965.332	79.2334	965.332	81.7361	965.332	78.9881	965.332	82.4344	965.332	76.5555	965.332	81.1198	965.332	74.9342	965.332	78.9983	965.332	75.0407	965.332	77.925	965.332	75.9394	965.332	78.3568	965.332	78.0428
1,000.49	87.9498	1,000.49	87.9982	1,000.49	87.5491	1,000.49	87.9747	1,000.49	86.7279	1,000.49	87.8629	1,000.49	86.0841	1,000.49	87.5086	1,000.49	85.6445	1,000.49	86.6057	1,000.49	84.8403	1,000.49	85.0463	1,000.49	83.9804	1,000.49	82.8048	1,000.49	83.5852	1,000.49	80.9352	1,000.49	82.4529	1,000.49	78.223	1,000.49	79.5201	1,000.49	70.8498	1,000.49	76.3356	1,000.49	73.9075	1,000.49	78.4392	1,000.49	73.977	1,000.49	80.5915	1,000.49	71.884	1,000.49	81.0332	1,000.49	63.3704	1,000.49	79.2533	1,000.49	71.4985	1,000.49	74.648	1,000.49	75.8005	1,000.49	75.4943	1,000.49	77.768	1,000.49	80.3685	1,000.49	80.8262
1,035.64	89.6221	1,035.64	89.2691	1,035.64	89.2962	1,035.64	88.5323	1,035.64	88.635	1,035.64	88.0577	1,035.64	88.2334	1,035.64	87.5783	1,035.64	87.9696	1,035.64	86.6025	1,035.64	87.3329	1,035.64	85.7784	1,035.64	86.2936	1,035.64	84.7865	1,035.64	85.0383	1,035.64	82.9201	1,035.64	82.9266	1,035.64	80.8592	1,035.64	78.5952	1,035.64	77.2506	1,035.64	72.9836	1,035.64	70.7182	1,035.64	72.9876	1,035.64	75.6836	1,035.64	75.3267	1,035.64	78.0128	1,035.64	75.4312	1,035.64	76.2576	1,035.64	73.3195	1,035.64	67.6461	1,035.64	73.569	1,035.64	71.8442	1,035.64	76.8555	1,035.64	78.3739	1,035.64	78.6511	1,035.64	79.9188
1,072.27	87.9029	1,072.27	88.1557	1,072.27	87.9159	1,072.27	88.1375	1,072.27	87.3105	1,072.27	87.0046	1,072.27	86.009	1,072.27	85.6523	1,072.27	85.3502	1,072.27	85.1446	1,072.27	85.2847	1,072.27	84.2879	1,072.27	84.0373	1,072.27	82.5622	1,072.27	81.7383	1,072.27	80.4403	1,072.27	80.8131	1,072.27	78.0472	1,072.27	79.7582	1,072.27	77.7012	1,072.27	76.868	1,072.27	78.1047	1,072.27	75.003	1,072.27	78.5765	1,072.27	74.9176	1,072.27	78.5472	1,072.27	76.4365	1,072.27	76.1933	1,072.27	72.3757	1,072.27	71.9855	1,072.27	67.4423	1,072.27	72.4643	1,072.27	66.7993	1,072.27	74.8889	1,072.27	73.4215	1,072.27	76.2155
1,108.89	87.3627	1,108.89	87.4307	1,108.89	87.1212	1,108.89	87.1245	1,108.89	86.924	1,108.89	86.51	1,108.89	86.6863	1,108.89	85.9435	1,108.89	85.9584	1,108.89	85.1293	1,108.89	85.0484	1,108.89	83.6398	1,108.89	84.6283	1,108.89	82.7341	1,108.89	83.9674	1,108.89	81.8903	1,108.89	82.2359	1,108.89	79.2064	1,108.89	80.3967	1,108.89	75.5962	1,108.89	78.9699	1,108.89	73.5099	1,108.89	77.3532	1,108.89	75.2959	1,108.89	77.6686	1,108.89	76.6488	1,108.89	77.402	1,108.89	74.4907	1,108.89	77.6952	1,108.89	68.8364	1,108.89	75.4285	1,108.89	66.7085	1,108.89	60.0754	1,108.89	74.2545	1,108.89	69.2269	1,108.89	73.9364
1,148.44	89.0264	1,148.44	88.4461	1,148.44	89.2243	1,148.44	87.8398	1,148.44	88.6425	1,148.44	86.7605	1,148.44	87.6119	1,148.44	85.172	1,148.44	86.4275	1,148.44	84.2656	1,148.44	84.6415	1,148.44	83.9687	1,148.44	83.0015	1,148.44	82.7965	1,148.44	81.8053	1,148.44	82.3011	1,148.44	80.441	1,148.44	81.7425	1,148.44	79.2143	1,148.44	79.867	1,148.44	77.4289	1,148.44	76.8366	1,148.44	74.7435	1,148.44	70.427	1,148.44	70.4798	1,148.44	69.3694	1,148.44	70.8804	1,148.44	70.7292	1,148.44	69.2336	1,148.44	68.2855	1,148.44	57.2043	1,148.44	67.5956	1,148.44	69.8535	1,148.44	69.9177	1,148.44	74.3624	1,148.44	73.316
1,189.45	88.0897	1,189.45	87.9937	1,189.45	87.7892	1,189.45	87.4538	1,189.45	87.5955	1,189.45	86.8332	1,189.45	86.9664	1,189.45	85.5775	1,189.45	85.3674	1,189.45	83.2754	1,189.45	83.7699	1,189.45	80.6915	1,189.45	82.6082	1,189.45	78.87	1,189.45	81.6691	1,189.45	76.9964	1,189.45	81.2292	1,189.45	74.3536	1,189.45	80.8537	1,189.45	72.4677	1,189.45	79.4002	1,189.45	75.229	1,189.45	76.7441	1,189.45	76.694	1,189.45	76.579	1,189.45	78.3272	1,189.45	76.2172	1,189.45	79.0977	1,189.45	75.4761	1,189.45	76.3276	1,189.45	72.3838	1,189.45	70.2433	1,189.45	65.9095	1,189.45	53.2123	1,189.45	53.9602	1,189.45	59.2613
1,230.47	88.6385	1,230.47	88.546	1,230.47	88.6147	1,230.47	88.1572	1,230.47	88.0576	1,230.47	87.1914	1,230.47	87.1151	1,230.47	86.1018	1,230.47	86.274	1,230.47	85.0027	1,230.47	85	1,230.47	83.7422	1,230.47	83.2674	1,230.47	82.6413	1,230.47	80.9473	1,230.47	80.4472	1,230.47	79.0109	1,230.47	78.4461	1,230.47	78.158	1,230.47	76.8436	1,230.47	77.642	1,230.47	73.9608	1,230.47	77.8298	1,230.47	71.8392	1,230.47	76.516	1,230.47	74.8582	1,230.47	77.5167	1,230.47	75.2818	1,230.47	76.4865	1,230.47	71.5518	1,230.47	73.4152	1,230.47	68.8821	1,230.47	69.6459	1,230.47	70.0243	1,230.47	67.3357	1,230.47	70.8106
1,274.41	87.671	1,274.41	87.4862	1,274.41	87.3727	1,274.41	86.9136	1,274.41	86.8154	1,274.41	86.1004	1,274.41	85.9546	1,274.41	84.7789	1,274.41	84.7327	1,274.41	83.398	1,274.41	83.1672	1,274.41	81.9942	1,274.41	81.5683	1,274.41	80.3973	1,274.41	79.8946	1,274.41	79.203	1,274.41	77.9248	1,274.41	78.3858	1,274.41	76.2989	1,274.41	77.0119	1,274.41	74.5338	1,274.41	74.3639	1,274.41	73.2856	1,274.41	74.744	1,274.41	73.4023	1,274.41	75.8347	1,274.41	74.4645	1,274.41	75.8338	1,274.41	74.8758	1,274.41	74.2915	1,274.41	72.4339	1,274.41	66.9906	1,274.41	64.9259	1,274.41	65.7884	1,274.41	64.9763	1,274.41	67.311
1,319.82	86.9391	1,319.82	86.5879	1,319.82	86.7596	1,319.82	86.0558	1,319.82	85.9012	1,319.82	85.0883	1,319.82	84.8806	1,319.82	83.9444	1,319.82	83.6893	1,319.82	82.8547	1,319.82	82.2115	1,319.82	81.2256	1,319.82	80.5013	1,319.82	79.2645	1,319.82	78.8637	1,319.82	78.2085	1,319.82	77.8099	1,319.82	77.1635	1,319.82	76.4319	1,319.82	75.2667	1,319.82	74.127	1,319.82	73.2906	1,319.82	71.3746	1,319.82	73.392	1,319.82	71.5106	1,319.82	73.5247	1,319.82	72.5583	1,319.82	71.8413	1,319.82	73.5322	1,319.82	68.5559	1,319.82	71.0438	1,319.82	66.9084	1,319.82	63.4358	1,319.82	68.7977	1,319.82	70.1607	1,319.82	71.2714
1,366.7	86.024	1,366.7	85.756	1,366.7	85.7589	1,366.7	84.8428	1,366.7	85.304	1,366.7	84.3121	1,366.7	84.1442	1,366.7	82.8063	1,366.7	82.6456	1,366.7	80.6243	1,366.7	81.5928	1,366.7	79.4623	1,366.7	80.0814	1,366.7	77.8827	1,366.7	77.5046	1,366.7	75.405	1,366.7	76.2747	1,366.7	72.1205	1,366.7	75.6363	1,366.7	71.343	1,366.7	74.652	1,366.7	72.3729	1,366.7	73.5307	1,366.7	71.0496	1,366.7	69.1994	1,366.7	72.784	1,366.7	69.2012	1,366.7	73.8473	1,366.7	68.9232	1,366.7	71.1156	1,366.7	65.4419	1,366.7	65.8136	1,366.7	63.1925	1,366.7	70.1374	1,366.7	67.912	1,366.7	71.2536
1,413.57	87.3025	1,413.57	87.0573	1,413.57	87.0774	1,413.57	86.2954	1,413.57	86.576	1,413.57	85.0591	1,413.57	85.948	1,413.57	83.8932	1,413.57	84.6981	1,413.57	82.4754	1,413.57	83.0972	1,413.57	80.8039	1,413.57	81.3331	1,413.57	78.8506	1,413.57	80.0399	1,413.57	77.4435	1,413.57	78.1418	1,413.57	75.5251	1,413.57	76.9262	1,413.57	75.4905	1,413.57	76.6298	1,413.57	74.0898	1,413.57	75.9982	1,413.57	72.3244	1,413.57	73.8474	1,413.57	71.2619	1,413.57	73.3956	1,413.57	71.5811	1,413.57	74.0713	1,413.57	68.7216	1,413.57	72.0963	1,413.57	61.151	1,413.57	63.4886	1,413.57	68.1145	1,413.57	60.9093	1,413.57	68.2089
1,463.38	88.1698	1,463.38	87.8523	1,463.38	88.142	1,463.38	87.046	1,463.38	87.6427	1,463.38	85.9774	1,463.38	86.8363	1,463.38	84.72	1,463.38	85.5908	1,463.38	83.1587	1,463.38	83.8906	1,463.38	81.1145	1,463.38	82.5883	1,463.38	79.5751	1,463.38	80.7095	1,463.38	78.4507	1,463.38	79.1694	1,463.38	76.5622	1,463.38	76.5322	1,463.38	75.1399	1,463.38	75.1449	1,463.38	73.4571	1,463.38	75.0191	1,463.38	71.9538	1,463.38	73.175	1,463.38	71.624	1,463.38	72.4541	1,463.38	72.5511	1,463.38	72.626	1,463.38	70.3151	1,463.38	71.7178	1,463.38	64.8487	1,463.38	66.2575	1,463.38	67.3237	1,463.38	68.2416	1,463.38	71.0439
1,516.11	88.8663	1,516.11	88.4012	1,516.11	88.599	1,516.11	87.653	1,516.11	87.9424	1,516.11	86.6182	1,516.11	86.9655	1,516.11	85.3301	1,516.11	85.7587	1,516.11	83.7084	1,516.11	84.1677	1,516.11	82.0616	1,516.11	82.4768	1,516.11	79.9449	1,516.11	80.2109	1,516.11	78.7259	1,516.11	78.3097	1,516.11	77.4483	1,516.11	76.74	1,516.11	74.7104	1,516.11	74.9688	1,516.11	71.9661	1,516.11	74.3834	1,516.11	69.6441	1,516.11	74.5019	1,516.11	69.0411	1,516.11	73.4075	1,516.11	73.0434	1,516.11	74.3903	1,516.11	70.6489	1,516.11	72.4025	1,516.11	63.6946	1,516.11	66.2552	1,516.11	64.8086	1,516.11	68.5591	1,516.11	68.1252
1,568.85	88.0815	1,568.85	88.0121	1,568.85	88.1849	1,568.85	87.4615	1,568.85	87.4994	1,568.85	86.031	1,568.85	86.346	1,568.85	84.618	1,568.85	84.9362	1,568.85	83.0623	1,568.85	82.8237	1,568.85	81.9902	1,568.85	81.2151	1,568.85	80.2261	1,568.85	79.3527	1,568.85	78.6062	1,568.85	78.1416	1,568.85	77.2194	1,568.85	77.1136	1,568.85	75.9143	1,568.85	75.64	1,568.85	74.9498	1,568.85	74.1476	1,568.85	72.0382	1,568.85	71.1219	1,568.85	71.2299	1,568.85	71.2848	1,568.85	72.2118	1,568.85	73.7349	1,568.85	71.7418	1,568.85	71.9698	1,568.85	65.6799	1,568.85	67.8595	1,568.85	68.3295	1,568.85	70.2485	1,568.85	72.5361
1,624.51	87.5015	1,624.51	87.1334	1,624.51	87.2489	1,624.51	86.5396	1,624.51	86.8767	1,624.51	85.1727	1,624.51	85.7081	1,624.51	83.6987	1,624.51	83.7787	1,624.51	82.2636	1,624.51	81.758	1,624.51	80.2489	1,624.51	79.0051	1,624.51	78.3178	1,624.51	77.3224	1,624.51	76.9799	1,624.51	76.2737	1,624.51	75.6242	1,624.51	74.4044	1,624.51	73.2898	1,624.51	71.4132	1,624.51	71.0231	1,624.51	69.0072	1,624.51	71.6736	1,624.51	68.4884	1,624.51	69.5903	1,624.51	67.209	1,624.51	69.5765	1,624.51	72.0884	1,624.51	73.224	1,624.51	70.8878	1,624.51	67.7641	1,624.51	65.5188	1,624.51	68.5814	1,624.51	67.2071	1,624.51	70.2311
1,681.64	87.7755	1,681.64	87.5006	1,681.64	87.5935	1,681.64	86.5717	1,681.64	86.9516	1,681.64	85.0741	1,681.64	85.4941	1,681.64	83.1	1,681.64	84.3959	1,681.64	81.334	1,681.64	83.1507	1,681.64	80.1741	1,681.64	80.6507	1,681.64	77.2692	1,681.64	79.5668	1,681.64	74.9593	1,681.64	76.9715	1,681.64	76.6134	1,681.64	76.2072	1,681.64	74.3991	1,681.64	75.3485	1,681.64	70.0606	1,681.64	72.8656	1,681.64	65.0096	1,681.64	70.2293	1,681.64	65.6073	1,681.64	64.4995	1,681.64	71.9512	1,681.64	64.9677	1,681.64	70.0385	1,681.64	66.4179	1,681.64	66.1288	1,681.64	68.4163	1,681.64	69.3238	1,681.64	65.4708	1,681.64	70.8499
1,741.7	88.2476	1,741.7	87.5661	1,741.7	87.8288	1,741.7	86.6175	1,741.7	87.7038	1,741.7	85.5134	1,741.7	86.1984	1,741.7	83.4564	1,741.7	84.5278	1,741.7	82.3838	1,741.7	83.1927	1,741.7	80.5382	1,741.7	81.6435	1,741.7	79.5699	1,741.7	78.8552	1,741.7	76.2083	1,741.7	77.6962	1,741.7	75.5113	1,741.7	75.2947	1,741.7	74.7154	1,741.7	75.4121	1,741.7	71.969	1,741.7	74.2789	1,741.7	69.6202	1,741.7	70.6293	1,741.7	66.6357	1,741.7	70.0766	1,741.7	71.7522	1,741.7	74.9706	1,741.7	70.4388	1,741.7	72.111	1,741.7	67.1175	1,741.7	67.2543	1,741.7	70.9897	1,741.7	69.5911	1,741.7	70.2259
1,803.22	88.548	1,803.22	88.2485	1,803.22	88.2786	1,803.22	87.4037	1,803.22	87.6761	1,803.22	86.2649	1,803.22	86.4904	1,803.22	84.5058	1,803.22	84.9334	1,803.22	82.8407	1,803.22	83.2001	1,803.22	80.7783	1,803.22	81.6358	1,803.22	78.822	1,803.22	79.4221	1,803.22	76.4185	1,803.22	76.8302	1,803.22	75.2873	1,803.22	75.0083	1,803.22	74.7123	1,803.22	73.7093	1,803.22	72.8614	1,803.22	73.4128	1,803.22	71.51	1,803.22	71.9916	1,803.22	68.7418	1,803.22	70.8097	1,803.22	68.0588	1,803.22	70.3026	1,803.22	68.1585	1,803.22	70.9274	1,803.22	63.493	1,803.22	67.0727	1,803.22	66.2924	1,803.22	70.2368	1,803.22	70.6057
1,866.21	88.1063	1,866.21	87.7971	1,866.21	87.8346	1,866.21	86.9446	1,866.21	87.0022	1,866.21	85.8871	1,866.21	85.905	1,866.21	84.3948	1,866.21	84.2546	1,866.21	82.355	1,866.21	82.267	1,866.21	80.4842	1,866.21	80.3064	1,866.21	78.8858	1,866.21	79.007	1,866.21	76.397	1,866.21	76.6605	1,866.21	74.0029	1,866.21	73.6469	1,866.21	73.5156	1,866.21	72.5407	1,866.21	72.2226	1,866.21	69.9807	1,866.21	70.5532	1,866.21	70.0345	1,866.21	69.7842	1,866.21	67.9537	1,866.21	68.3031	1,866.21	67.6251	1,866.21	70.5529	1,866.21	69.5363	1,866.21	66.1039	1,866.21	63.932	1,866.21	68.644	1,866.21	65.6169	1,866.21	71.8437
1,932.13	87.349	1,932.13	86.9858	1,932.13	87.0401	1,932.13	86.2216	1,932.13	86.3804	1,932.13	84.8251	1,932.13	84.9303	1,932.13	83.1541	1,932.13	83.2412	1,932.13	81.428	1,932.13	81.2108	1,932.13	79.1207	1,932.13	78.9759	1,932.13	77.4337	1,932.13	77.1761	1,932.13	76.0469	1,932.13	75.2634	1,932.13	74.0318	1,932.13	74.0436	1,932.13	72.996	1,932.13	72.3454	1,932.13	71.8654	1,932.13	71.5787	1,932.13	70.7888	1,932.13	67.8832	1,932.13	69.3058	1,932.13	67.7461	1,932.13	67.0855	1,932.13	65.7806	1,932.13	65.0573	1,932.13	68.1534	1,932.13	64.4773	1,932.13	64.7723	1,932.13	67.41	1,932.13	65.5707	1,932.13	68.9136
1,999.51	87.9734	1,999.51	87.5938	1,999.51	87.7758	1,999.51	86.5564	1,999.51	86.9501	1,999.51	85.0117	1,999.51	85.7797	1,999.51	83.1852	1,999.51	84.1214	1,999.51	81.0908	1,999.51	82.2783	1,999.51	79.1067	1,999.51	80.1864	1,999.51	77.1258	1,999.51	78.1463	1,999.51	74.7074	1,999.51	76.6644	1,999.51	72.5742	1,999.51	73.1552	1,999.51	71.9339	1,999.51	72.5211	1,999.51	69.0648	1,999.51	70.8551	1,999.51	66.8605	1,999.51	70.0972	1,999.51	68.8017	1,999.51	69.1438	1,999.51	67.0346	1,999.51	67.5158	1,999.51	68.2491	1,999.51	67.6844	1,999.51	61.1748	1,999.51	63.7725	1,999.51	63.0969	1,999.51	64.0845	1,999.51	69.4011
2,069.82	89.0008	2,069.82	88.6788	2,069.82	88.734	2,069.82	87.6774	2,069.82	87.802	2,069.82	86.2016	2,069.82	86.5612	2,069.82	84.521	2,069.82	84.7361	2,069.82	82.5301	2,069.82	82.7431	2,069.82	80.0283	2,069.82	80.4572	2,069.82	78.1114	2,069.82	78.4884	2,069.82	76.8919	2,069.82	76.9174	2,069.82	74.5123	2,069.82	75.467	2,069.82	72.5612	2,069.82	73.6527	2,069.82	71.109	2,069.82	71.5689	2,069.82	68.4693	2,069.82	70.9858	2,069.82	68.5312	2,069.82	69.0454	2,069.82	67.588	2,069.82	67.9732	2,069.82	68.4712	2,069.82	70.2799	2,069.82	64.2094	2,069.82	66.4802	2,069.82	66.5393	2,069.82	67.1785	2,069.82	69.2938
2,143.07	88.4908	2,143.07	88.2269	2,143.07	88.0968	2,143.07	87.4724	2,143.07	87.3198	2,143.07	85.983	2,143.07	85.739	2,143.07	84.3375	2,143.07	84.221	2,143.07	82.4099	2,143.07	82.3844	2,143.07	80.7707	2,143.07	80.223	2,143.07	78.2429	2,143.07	77.6796	2,143.07	76.851	2,143.07	76.5522	2,143.07	75.0306	2,143.07	73.6588	2,143.07	73.6101	2,143.07	72.5342	2,143.07	72.5432	2,143.07	72.6185	2,143.07	71.0604	2,143.07	69.4597	2,143.07	70.0379	2,143.07	70.3608	2,143.07	66.6853	2,143.07	66.7016	2,143.07	68.0023	2,143.07	66.7378	2,143.07	65.974	2,143.07	64.9387	2,143.07	67.1183	2,143.07	66.3064	2,143.07	69.8973
2,219.24	87.2869	2,219.24	87.165	2,219.24	87.1023	2,219.24	86.1076	2,219.24	86.2815	2,219.24	84.9093	2,219.24	85.0804	2,219.24	82.9263	2,219.24	83.4303	2,219.24	81.3005	2,219.24	81.6807	2,219.24	80.1284	2,219.24	79.8514	2,219.24	77.3552	2,219.24	77.698	2,219.24	75.4837	2,219.24	75.7925	2,219.24	73.7495	2,219.24	73.4806	2,219.24	72.0925	2,219.24	71.4598	2,219.24	71.7165	2,219.24	69.5605	2,219.24	69.1375	2,219.24	68.4338	2,219.24	70.5379	2,219.24	69.247	2,219.24	67.5879	2,219.24	66.1987	2,219.24	68.3676	2,219.24	67.1155	2,219.24	63.1741	2,219.24	65.9398	2,219.24	66.4403	2,219.24	61.7295	2,219.24	69.612
2,296.88	87.6417	2,296.88	87.2385	2,296.88	87.5428	2,296.88	86.2526	2,296.88	86.5869	2,296.88	84.8102	2,296.88	85.422	2,296.88	83.2096	2,296.88	83.6478	2,296.88	81.2327	2,296.88	81.9805	2,296.88	79.0939	2,296.88	80.1278	2,296.88	77.1085	2,296.88	78.076	2,296.88	75.3972	2,296.88	75.8064	2,296.88	72.4397	2,296.88	75.113	2,296.88	70.0613	2,296.88	72.158	2,296.88	70.7508	2,296.88	71.3132	2,296.88	68.1738	2,296.88	69.6935	2,296.88	67.8437	2,296.88	69.8172	2,296.88	67.0991	2,296.88	69.3607	2,296.88	67.94	2,296.88	67.4263	2,296.88	66.022	2,296.88	66.5182	2,296.88	67.2696	2,296.88	67.0337	2,296.88	69.9655
2,378.91	88.4606	2,378.91	88.0441	2,378.91	87.969	2,378.91	87.0554	2,378.91	87.1774	2,378.91	85.8927	2,378.91	85.7576	2,378.91	84.1218	2,378.91	84.0907	2,378.91	81.8802	2,378.91	81.9693	2,378.91	79.7034	2,378.91	80.0284	2,378.91	77.9768	2,378.91	77.5913	2,378.91	75.2268	2,378.91	75.2768	2,378.91	73.9888	2,378.91	73.935	2,378.91	71.8186	2,378.91	72.8635	2,378.91	70.3591	2,378.91	70.6877	2,378.91	69.5605	2,378.91	66.4915	2,378.91	68.403	2,378.91	69.4955	2,378.91	67.8773	2,378.91	67.4867	2,378.91	65.3431	2,378.91	66.5282	2,378.91	65.3783	2,378.91	65.2874	2,378.91	65.3168	2,378.91	66.8644	2,378.91	70.3778
2,462.4	87.8915	2,462.4	87.3102	2,462.4	87.414	2,462.4	86.4415	2,462.4	86.4417	2,462.4	85.0071	2,462.4	85.0541	2,462.4	83.4143	2,462.4	83.2867	2,462.4	81.5379	2,462.4	81.4979	2,462.4	79.1016	2,462.4	79.1617	2,462.4	77.5814	2,462.4	77.2815	2,462.4	75.09	2,462.4	75.4242	2,462.4	73.4318	2,462.4	72.8704	2,462.4	71.7238	2,462.4	71.1168	2,462.4	70.8273	2,462.4	70.2767	2,462.4	69.4434	2,462.4	68.0809	2,462.4	67.9586	2,462.4	66.852	2,462.4	69.4846	2,462.4	68.486	2,462.4	68.269	2,462.4	66.1079	2,462.4	63.9027	2,462.4	65.5485	2,462.4	65.0189	2,462.4	64.7335	2,462.4	69.9963
2,548.83	86.9711	2,548.83	86.4606	2,548.83	87.0287	2,548.83	85.8708	2,548.83	86.1048	2,548.83	84.3126	2,548.83	85.0813	2,548.83	82.8293	2,548.83	83.4328	2,548.83	81.4088	2,548.83	81.7396	2,548.83	79.0701	2,548.83	79.5188	2,548.83	76.9581	2,548.83	77.9352	2,548.83	76.078	2,548.83	76.0227	2,548.83	72.4891	2,548.83	73.6396	2,548.83	71.2549	2,548.83	72.3041	2,548.83	69.5563	2,548.83	69.5933	2,548.83	68.5065	2,548.83	69.955	2,548.83	67.2249	2,548.83	66.1064	2,548.83	68.0235	2,548.83	69.0569	2,548.83	66.745	2,548.83	67.0587	2,548.83	64.5929	2,548.83	67.4773	2,548.83	64.7744	2,548.83	65.3	2,548.83	69.8548
2,639.65	86.8355	2,639.65	86.7778	2,639.65	86.5604	2,639.65	85.8463	2,639.65	86.1202	2,639.65	84.7624	2,639.65	84.7414	2,639.65	82.9612	2,639.65	83.4492	2,639.65	81.38	2,639.65	81.5822	2,639.65	79.6889	2,639.65	79.5105	2,639.65	77.3302	2,639.65	77.6474	2,639.65	75.8297	2,639.65	75.5899	2,639.65	73.5517	2,639.65	73.3221	2,639.65	71.7604	2,639.65	71.104	2,639.65	70.0163	2,639.65	70.323	2,639.65	68.9593	2,639.65	69.0734	2,639.65	66.1308	2,639.65	66.7258	2,639.65	68.1728	2,639.65	68.226	2,639.65	66.5657	2,639.65	66.5374	2,639.65	66.2169	2,639.65	65.022	2,639.65	64.6459	2,639.65	63.5579	2,639.65	69.5839
2,731.93	86.8578	2,731.93	86.7951	2,731.93	86.2648	2,731.93	85.8383	2,731.93	85.9821	2,731.93	84.8921	2,731.93	84.6423	2,731.93	82.6796	2,731.93	83.3214	2,731.93	80.4529	2,731.93	81.5155	2,731.93	79.4115	2,731.93	79.5548	2,731.93	77.2422	2,731.93	77.1769	2,731.93	73.6308	2,731.93	74.8082	2,731.93	73.7273	2,731.93	72.9898	2,731.93	71.1426	2,731.93	71.2813	2,731.93	69.2835	2,731.93	69.095	2,731.93	69.0533	2,731.93	67.9714	2,731.93	67.1413	2,731.93	65.5783	2,731.93	68.6726	2,731.93	66.1262	2,731.93	66.8627	2,731.93	66.0202	2,731.93	66.6984	2,731.93	65.9725	2,731.93	65.6648	2,731.93	61.3471	2,731.93	69.6854
2,828.61	87.1237	2,828.61	86.7623	2,828.61	87.1352	2,828.61	86.2957	2,828.61	86.387	2,828.61	84.9593	2,828.61	85.6451	2,828.61	83.8666	2,828.61	84.0437	2,828.61	81.7527	2,828.61	82.4848	2,828.61	78.9705	2,828.61	80.4572	2,828.61	76.6748	2,828.61	78.1139	2,828.61	74.996	2,828.61	76.2511	2,828.61	73.1108	2,828.61	75.0555	2,828.61	71.2564	2,828.61	72.5946	2,828.61	69.1245	2,828.61	70.5046	2,828.61	67.914	2,828.61	69.5279	2,828.61	64.3114	2,828.61	65.6597	2,828.61	67.069	2,828.61	67.6671	2,828.61	65.522	2,828.61	66.5487	2,828.61	66.8068	2,828.61	66.802	2,828.61	63.6238	2,828.61	63.9246	2,828.61	68.3176
2,928.22	86.7971	2,928.22	86.5209	2,928.22	86.8225	2,928.22	86.2685	2,928.22	86.2066	2,928.22	85.1899	2,928.22	85.4617	2,928.22	84.0266	2,928.22	83.7747	2,928.22	82.3813	2,928.22	82.1103	2,928.22	80.0191	2,928.22	80.1685	2,928.22	77.9083	2,928.22	78.0426	2,928.22	75.9762	2,928.22	75.1323	2,928.22	73.7956	2,928.22	73.2057	2,928.22	71.741	2,928.22	71.4457	2,928.22	69.1261	2,928.22	69.228	2,928.22	68.216	2,928.22	68.8179	2,928.22	64.8697	2,928.22	65.711	2,928.22	67.3496	2,928.22	67.0909	2,928.22	66.3918	2,928.22	65.0491	2,928.22	66.7907	2,928.22	66.469	2,928.22	63.3536	2,928.22	63.3954	2,928.22	69.2046
3,030.76	86.8053	3,030.76	86.673	3,030.76	86.794	3,030.76	86.1043	3,030.76	86.4455	3,030.76	85.0356	3,030.76	85.4452	3,030.76	83.7759	3,030.76	84.2055	3,030.76	82.1787	3,030.76	82.1064	3,030.76	79.6946	3,030.76	80.0342	3,030.76	77.8084	3,030.76	77.3615	3,030.76	75.7775	3,030.76	75.4047	3,030.76	72.8473	3,030.76	73.8832	3,030.76	71.1599	3,030.76	71.1451	3,030.76	68.9367	3,030.76	68.7722	3,030.76	67.2841	3,030.76	67.1683	3,030.76	65.5219	3,030.76	65.3911	3,030.76	66.4571	3,030.76	65.4851	3,030.76	62.8593	3,030.76	64.6967	3,030.76	66.4102	3,030.76	66.8146	3,030.76	60.7412	3,030.76	62.5528	3,030.76	68.409
3,137.7	88.0168	3,137.7	87.7536	3,137.7	87.7406	3,137.7	87.0968	3,137.7	87.2247	3,137.7	86.0921	3,137.7	86.1001	3,137.7	84.4501	3,137.7	84.6189	3,137.7	82.1105	3,137.7	82.6604	3,137.7	80.4131	3,137.7	80.4717	3,137.7	77.9011	3,137.7	77.765	3,137.7	75.1386	3,137.7	75.7223	3,137.7	72.6226	3,137.7	73.4517	3,137.7	70.59	3,137.7	71.4867	3,137.7	68.9124	3,137.7	69.6711	3,137.7	66.8272	3,137.7	66.8395	3,137.7	63.657	3,137.7	66.3431	3,137.7	64.2885	3,137.7	65.8636	3,137.7	63.5107	3,137.7	65.1562	3,137.7	65.5923	3,137.7	65.9698	3,137.7	63.5455	3,137.7	62.7497	3,137.7	69.6407
3,249.02	87.9517	3,249.02	87.7401	3,249.02	87.6598	3,249.02	87.0728	3,249.02	87.2029	3,249.02	85.8957	3,249.02	85.9448	3,249.02	84.2163	3,249.02	84.3814	3,249.02	81.7151	3,249.02	82.3213	3,249.02	79.7873	3,249.02	80.1824	3,249.02	77.3427	3,249.02	77.6332	3,249.02	74.9191	3,249.02	75.0925	3,249.02	72.1604	3,249.02	72.3253	3,249.02	70.552	3,249.02	70.5644	3,249.02	68.7172	3,249.02	69.0764	3,249.02	66.7748	3,249.02	67.1646	3,249.02	65.5859	3,249.02	65.3051	3,249.02	63.1572	3,249.02	63.461	3,249.02	62.977	3,249.02	63.9397	3,249.02	65.627	3,249.02	64.5686	3,249.02	61.8043	3,249.02	61.3823	3,249.02	68.1396
3,363.28	87.5371	3,363.28	87.0962	3,363.28	87.4235	3,363.28	86.7097	3,363.28	86.6499	3,363.28	85.4953	3,363.28	85.6256	3,363.28	83.4695	3,363.28	83.905	3,363.28	81.2601	3,363.28	82.0685	3,363.28	78.9506	3,363.28	79.4212	3,363.28	76.2771	3,363.28	77.0707	3,363.28	74.4076	3,363.28	74.4367	3,363.28	71.6748	3,363.28	71.6902	3,363.28	69.6058	3,363.28	70.0438	3,363.28	67.2793	3,363.28	67.9258	3,363.28	66.6777	3,363.28	66.3284	3,363.28	64.7893	3,363.28	65.7824	3,363.28	62.3556	3,363.28	63.2001	3,363.28	62.9865	3,363.28	63.62	3,363.28	64.3298	3,363.28	63.4069	3,363.28	60.3613	3,363.28	58.5197	3,363.28	66.7015
3,481.93	87.6495	3,481.93	87.4473	3,481.93	87.6145	3,481.93	86.867	3,481.93	87.0323	3,481.93	85.557	3,481.93	85.9302	3,481.93	83.7093	3,481.93	84.0822	3,481.93	81.9674	3,481.93	81.9289	3,481.93	78.9	3,481.93	79.2563	3,481.93	76.1499	3,481.93	76.9546	3,481.93	73.7825	3,481.93	74.0148	3,481.93	71.394	3,481.93	72.2454	3,481.93	69.7603	3,481.93	69.6088	3,481.93	67.3882	3,481.93	67.5332	3,481.93	65.3621	3,481.93	65.9562	3,481.93	64.9194	3,481.93	66.4132	3,481.93	62.7969	3,481.93	64.3994	3,481.93	62.639	3,481.93	63.2833	3,481.93	62.6248	3,481.93	63.0813	3,481.93	59.4778	3,481.93	58.4657	3,481.93	67.0977
3,604.98	87.56	3,604.98	87.3783	3,604.98	87.5229	3,604.98	86.5761	3,604.98	86.7453	3,604.98	85.1226	3,604.98	85.2727	3,604.98	82.9921	3,604.98	83.4396	3,604.98	80.8849	3,604.98	80.9998	3,604.98	78.1958	3,604.98	78.4941	3,604.98	75.8057	3,604.98	75.8368	3,604.98	73.1305	3,604.98	72.9766	3,604.98	71.1791	3,604.98	70.7698	3,604.98	69.0683	3,604.98	68.656	3,604.98	66.7227	3,604.98	66.4348	3,604.98	65.7851	3,604.98	64.5528	3,604.98	66.0152	3,604.98	65.1952	3,604.98	62.2469	3,604.98	61.0518	3,604.98	61.5534	3,604.98	62.9048	3,604.98	61.5993	3,604.98	61.4358	3,604.98	59.0031	3,604.98	58.8446	3,604.98	66.4636
3,732.42	87.2543	3,732.42	87.0662	3,732.42	86.975	3,732.42	86.2807	3,732.42	86.4796	3,732.42	84.7015	3,732.42	85.0486	3,732.42	82.9833	3,732.42	83.0729	3,732.42	80.2554	3,732.42	80.606	3,732.42	77.4215	3,732.42	78.201	3,732.42	74.5711	3,732.42	75.2053	3,732.42	71.924	3,732.42	72.5336	3,732.42	69.877	3,732.42	70.9368	3,732.42	67.7002	3,732.42	68.5591	3,732.42	66.3863	3,732.42	67.1633	3,732.42	63.6808	3,732.42	64.917	3,732.42	64.6453	3,732.42	62.6647	3,732.42	61.3342	3,732.42	62.0419	3,732.42	61.8248	3,732.42	62.9002	3,732.42	60.7097	3,732.42	59.6532	3,732.42	58.3371	3,732.42	58.0432	3,732.42	65.5958
3,864.26	87.3729	3,864.26	87.1646	3,864.26	87.1681	3,864.26	86.3046	3,864.26	86.4221	3,864.26	84.7637	3,864.26	84.8743	3,864.26	82.6933	3,864.26	82.7026	3,864.26	79.8944	3,864.26	80.2818	3,864.26	77.4178	3,864.26	77.8482	3,864.26	74.9833	3,864.26	74.944	3,864.26	72.5431	3,864.26	72.1787	3,864.26	69.8508	3,864.26	69.9842	3,864.26	68.2887	3,864.26	68.0207	3,864.26	66.7831	3,864.26	66.9643	3,864.26	65.5781	3,864.26	65.7549	3,864.26	63.08	3,864.26	65.4773	3,864.26	62.2319	3,864.26	62.5827	3,864.26	63.0109	3,864.26	62.7527	3,864.26	60.4956	3,864.26	60.2581	3,864.26	59.9863	3,864.26	57.2977	3,864.26	66.2578
4,000.49	87.1739	4,000.49	86.3501	4,000.49	87.0153	4,000.49	85.5466	4,000.49	85.7744	4,000.49	83.9731	4,000.49	84.3539	4,000.49	81.5129	4,000.49	82.4829	4,000.49	79.6852	4,000.49	80.646	4,000.49	77.2369	4,000.49	77.6442	4,000.49	74.9422	4,000.49	75.0848	4,000.49	71.8056	4,000.49	73.4995	4,000.49	69.9957	4,000.49	70.7763	4,000.49	68.0011	4,000.49	68.7456	4,000.49	65.9135	4,000.49	66.5853	4,000.49	64.6854	4,000.49	65.3926	4,000.49	64.4975	4,000.49	62.8325	4,000.49	60.1807	4,000.49	61.14	4,000.49	61.2392	4,000.49	63.6392	4,000.49	58.8479	4,000.49	60.5955	4,000.49	56.4497	4,000.49	57.8936	4,000.49	64.4439
4,141.11	86.7788	4,141.11	86.6052	4,141.11	86.416	4,141.11	85.5011	4,141.11	85.794	4,141.11	83.9748	4,141.11	84.4899	4,141.11	82.5191	4,141.11	82.8092	4,141.11	80.0871	4,141.11	80.3669	4,141.11	77.1548	4,141.11	77.6849	4,141.11	74.6205	4,141.11	74.8642	4,141.11	72.329	4,141.11	72.3314	4,141.11	69.7935	4,141.11	70.1714	4,141.11	66.8175	4,141.11	67.6614	4,141.11	66.0718	4,141.11	66.6283	4,141.11	63.8547	4,141.11	63.9755	4,141.11	63.552	4,141.11	63.6164	4,141.11	63.1864	4,141.11	63.3432	4,141.11	62.8235	4,141.11	63.1151	4,141.11	58.0353	4,141.11	55.8619	4,141.11	57.7008	4,141.11	57.1329	4,141.11	65.6403
4,287.6	87.0146	4,287.6	86.8197	4,287.6	86.8573	4,287.6	85.6419	4,287.6	86.0027	4,287.6	84.4062	4,287.6	84.7317	4,287.6	82.7649	4,287.6	82.7563	4,287.6	80.3123	4,287.6	80.1913	4,287.6	77.1371	4,287.6	77.9661	4,287.6	74.1098	4,287.6	75.5167	4,287.6	71.3118	4,287.6	72.6954	4,287.6	68.8986	4,287.6	70.2799	4,287.6	68.3986	4,287.6	68.5605	4,287.6	65.7732	4,287.6	65.5484	4,287.6	63.1887	4,287.6	64.0904	4,287.6	61.9454	4,287.6	64.6501	4,287.6	60.7998	4,287.6	62.5083	4,287.6	62.0458	4,287.6	61.8134	4,287.6	57.141	4,287.6	59.7089	4,287.6	57.4159	4,287.6	57.8991	4,287.6	64.5283
4,438.48	86.8788	4,438.48	86.1051	4,438.48	86.6231	4,438.48	85.5672	4,438.48	85.5665	4,438.48	83.9022	4,438.48	84.1938	4,438.48	81.7974	4,438.48	82.6576	4,438.48	79.3022	4,438.48	80.2603	4,438.48	76.9124	4,438.48	77.2868	4,438.48	74.202	4,438.48	74.8462	4,438.48	72.0032	4,438.48	72.1523	4,438.48	69.197	4,438.48	69.8772	4,438.48	66.9846	4,438.48	67.1122	4,438.48	64.7638	4,438.48	65.6295	4,438.48	63.8622	4,438.48	63.6789	4,438.48	63.7389	4,438.48	61.6725	4,438.48	60.4259	4,438.48	59.2257	4,438.48	59.2807	4,438.48	62.0889	4,438.48	58.1377	4,438.48	58.101	4,438.48	55.3786	4,438.48	56.5342	4,438.48	63.9974
4,595.21	87.3201	4,595.21	86.8817	4,595.21	87.0118	4,595.21	85.5924	4,595.21	86.2051	4,595.21	84.6411	4,595.21	85.0505	4,595.21	82.7578	4,595.21	83.5143	4,595.21	79.9523	4,595.21	80.9624	4,595.21	76.6678	4,595.21	77.9447	4,595.21	73.7398	4,595.21	74.9531	4,595.21	70.3089	4,595.21	72.2941	4,595.21	67.959	4,595.21	70.1469	4,595.21	65.9813	4,595.21	68.8681	4,595.21	65.542	4,595.21	66.1736	4,595.21	63.0133	4,595.21	63.8493	4,595.21	63.1043	4,595.21	64.5928	4,595.21	61.2726	4,595.21	63.3013	4,595.21	60.0643	4,595.21	61.6719	4,595.21	55.2883	4,595.21	58.4481	4,595.21	56.389	4,595.21	60.5384	4,595.21	64.2774
4,756.35	86.243	4,756.35	85.6591	4,756.35	86.2368	4,756.35	85.3305	4,756.35	85.6286	4,756.35	83.8616	4,756.35	85.008	4,756.35	82.0961	4,756.35	82.9726	4,756.35	78.849	4,756.35	79.7346	4,756.35	75.3551	4,756.35	77.2257	4,756.35	72.7511	4,756.35	74.5911	4,756.35	71.399	4,756.35	72.0091	4,756.35	69.3674	4,756.35	69.5712	4,756.35	67.9328	4,756.35	66.933	4,756.35	64.2146	4,756.35	65.3581	4,756.35	64.0474	4,756.35	63.913	4,756.35	62.9161	4,756.35	62.6799	4,756.35	61.4617	4,756.35	62.6753	4,756.35	58.643	4,756.35	61.0606	4,756.35	50.9112	4,756.35	56.3792	4,756.35	54.0686	4,756.35	57.8083	4,756.35	63.3364
4,924.8	87.3262	4,924.8	86.9802	4,924.8	87.1396	4,924.8	86.3648	4,924.8	86.7225	4,924.8	85.1267	4,924.8	85.5473	4,924.8	82.6079	4,924.8	83.4183	4,924.8	79.4677	4,924.8	80.7067	4,924.8	76.7146	4,924.8	77.6416	4,924.8	74.3764	4,924.8	75.2389	4,924.8	72.0159	4,924.8	73.1552	4,924.8	67.6887	4,924.8	70.0027	4,924.8	66.1577	4,924.8	68.4704	4,924.8	64.7959	4,924.8	66.2253	4,924.8	61.91	4,924.8	64.029	4,924.8	60.6926	4,924.8	64.9328	4,924.8	59.603	4,924.8	61.3138	4,924.8	58.6183	4,924.8	60.7395	4,924.8	52.744	4,924.8	59.0206	4,924.8	55.1163	4,924.8	57.3695	4,924.8	61.6177
5,097.66	87.0665	5,097.66	86.5138	5,097.66	87.2798	5,097.66	85.3063	5,097.66	86.728	5,097.66	83.4116	5,097.66	85.4281	5,097.66	80.3034	5,097.66	82.9423	5,097.66	76.8958	5,097.66	80.0595	5,097.66	75.1873	5,097.66	77.7583	5,097.66	73.1529	5,097.66	75.5597	5,097.66	70.6505	5,097.66	71.9889	5,097.66	68.6992	5,097.66	70.023	5,097.66	64.2417	5,097.66	67.5556	5,097.66	63.7758	5,097.66	65.4198	5,097.66	61.6243	5,097.66	63.5475	5,097.66	62.0041	5,097.66	62.0601	5,097.66	59.2844	5,097.66	60.6386	5,097.66	59.0589	5,097.66	59.4587	5,097.66	52.2811	5,097.66	57.0678	5,097.66	54.4657	5,097.66	59.4306	5,097.66	61.1017
5,277.83	87.4031	5,277.83	86.7815	5,277.83	87.359	5,277.83	85.8826	5,277.83	86.6654	5,277.83	83.9591	5,277.83	85.1381	5,277.83	81.2242	5,277.83	82.7044	5,277.83	78.7934	5,277.83	80.2099	5,277.83	76.4098	5,277.83	77.6654	5,277.83	73.6038	5,277.83	75.025	5,277.83	70.5957	5,277.83	72.3593	5,277.83	67.3715	5,277.83	69.3062	5,277.83	66.2473	5,277.83	67.0786	5,277.83	63.191	5,277.83	64.9336	5,277.83	59.8305	5,277.83	63.5379	5,277.83	62.1527	5,277.83	63.5842	5,277.83	58.8382	5,277.83	61.1454	5,277.83	58.2463	5,277.83	59.0036	5,277.83	55.8026	5,277.83	56.2455	5,277.83	55.9484	5,277.83	57.1474	5,277.83	61.1896
5,463.87	87.4768	5,463.87	86.9426	5,463.87	87.4865	5,463.87	85.5949	5,463.87	86.6874	5,463.87	83.3277	5,463.87	84.8599	5,463.87	80.1169	5,463.87	82.6378	5,463.87	77.8786	5,463.87	80.2834	5,463.87	74.9011	5,463.87	77.7774	5,463.87	71.5643	5,463.87	75.1086	5,463.87	68.1152	5,463.87	70.8542	5,463.87	64.9169	5,463.87	68.569	5,463.87	62.0919	5,463.87	66.0806	5,463.87	60.448	5,463.87	63.9066	5,463.87	60.297	5,463.87	63.1575	5,463.87	57.9132	5,463.87	62.719	5,463.87	58.6705	5,463.87	60.3141	5,463.87	56.4985	5,463.87	56.923	5,463.87	52.5338	5,463.87	56.412	5,463.87	46.1526	5,463.87	54.373	5,463.87	59.8095
5,657.23	87.1065	5,657.23	86.4994	5,657.23	87.3947	5,657.23	85.1189	5,657.23	86.4455	5,657.23	82.3425	5,657.23	84.7689	5,657.23	79.6114	5,657.23	82.0179	5,657.23	77.4224	5,657.23	79.637	5,657.23	74.4129	5,657.23	77.2021	5,657.23	70.6965	5,657.23	73.1762	5,657.23	68.4073	5,657.23	69.9975	5,657.23	65.6653	5,657.23	68.4432	5,657.23	65.5121	5,657.23	65.3779	5,657.23	62.9728	5,657.23	62.7687	5,657.23	61.2239	5,657.23	62.6711	5,657.23	62.885	5,657.23	61.349	5,657.23	56.6419	5,657.23	58.6247	5,657.23	56.1171	5,657.23	55.9035	5,657.23	54.5308	5,657.23	54.3269	5,657.23	55.4585	5,657.23	57.502	5,657.23	60.1523
5,856.45	87.1342	5,856.45	86.7291	5,856.45	87.1684	5,856.45	85.3336	5,856.45	86.4023	5,856.45	83.0638	5,856.45	84.1322	5,856.45	80.7993	5,856.45	82.0164	5,856.45	78.5827	5,856.45	79.6215	5,856.45	75.1649	5,856.45	76.2103	5,856.45	72.0179	5,856.45	72.9181	5,856.45	68.8928	5,856.45	70.2841	5,856.45	66.627	5,856.45	66.9754	5,856.45	63.5935	5,856.45	65.121	5,856.45	61.4179	5,856.45	63.4139	5,856.45	61.0088	5,856.45	61.7542	5,856.45	58.9412	5,856.45	60.0901	5,856.45	56.5433	5,856.45	58.6184	5,856.45	57.0137	5,856.45	56.848	5,856.45	55.5862	5,856.45	55.8798	5,856.45	48.859	5,856.45	53.8712	5,856.45	59.1236
6,062.99	86.9871	6,062.99	86.6626	6,062.99	87.1469	6,062.99	85.1931	6,062.99	86.0686	6,062.99	82.8572	6,062.99	83.9491	6,062.99	80.8434	6,062.99	81.619	6,062.99	78.1355	6,062.99	78.6558	6,062.99	74.5761	6,062.99	75.3937	6,062.99	71.7118	6,062.99	71.4989	6,062.99	68.0906	6,062.99	68.2225	6,062.99	66.3286	6,062.99	66.605	6,062.99	63.3344	6,062.99	64.0188	6,062.99	62.3182	6,062.99	62.1096	6,062.99	61.7849	6,062.99	60.5977	6,062.99	61.2701	6,062.99	58.2102	6,062.99	58.6056	6,062.99	58.0801	6,062.99	54.4491	6,062.99	53.7803	6,062.99	54.4012	6,062.99	52.7178	6,062.99	51.6885	6,062.99	55.0806	6,062.99	60.0476
6,276.86	87.0247	6,276.86	86.7698	6,276.86	87.0986	6,276.86	85.107	6,276.86	86.1497	6,276.86	82.9451	6,276.86	83.8934	6,276.86	81.0217	6,276.86	82.0841	6,276.86	77.9427	6,276.86	79.4127	6,276.86	74.0226	6,276.86	74.9514	6,276.86	70.6712	6,276.86	71.9935	6,276.86	69.334	6,276.86	69.7492	6,276.86	67.1099	6,276.86	67.2092	6,276.86	65.6398	6,276.86	65.2107	6,276.86	62.901	6,276.86	63.3653	6,276.86	61.431	6,276.86	60.6641	6,276.86	60.9823	6,276.86	60.997	6,276.86	59.4945	6,276.86	59.5534	6,276.86	57.4484	6,276.86	56.8821	6,276.86	56.6349	6,276.86	53.2109	6,276.86	52.2556	6,276.86	54.0444	6,276.86	59.6374
6,498.05	86.2728	6,498.05	86.091	6,498.05	86.4282	6,498.05	84.6724	6,498.05	85.3356	6,498.05	82.812	6,498.05	83.5138	6,498.05	81.0847	6,498.05	81.4761	6,498.05	77.8766	6,498.05	78.1791	6,498.05	74.3296	6,498.05	74.832	6,498.05	71.861	6,498.05	71.7852	6,498.05	69.4447	6,498.05	68.4843	6,498.05	66.6441	6,498.05	66.5169	6,498.05	64.242	6,498.05	65.1499	6,498.05	61.5607	6,498.05	61.5983	6,498.05	60.3809	6,498.05	60.1578	6,498.05	58.3664	6,498.05	58.8606	6,498.05	57.3746	6,498.05	59.5124	6,498.05	55.0678	6,498.05	52.9068	6,498.05	54.6896	6,498.05	51.5193	6,498.05	48.2917	6,498.05	52.6939	6,498.05	58.3484
6,726.56	86.2819	6,726.56	86.2807	6,726.56	86.3973	6,726.56	85.0085	6,726.56	85.4365	6,726.56	83.3233	6,726.56	83.4624	6,726.56	81.1031	6,726.56	81.4869	6,726.56	77.1433	6,726.56	77.7907	6,726.56	74.2465	6,726.56	73.9396	6,726.56	71.0251	6,726.56	70.9815	6,726.56	68.9596	6,726.56	68.8288	6,726.56	66.2971	6,726.56	66.3812	6,726.56	63.765	6,726.56	62.7917	6,726.56	61.6858	6,726.56	60.5117	6,726.56	61.3143	6,726.56	61.5283	6,726.56	57.6754	6,726.56	59.655	6,726.56	58.1276	6,726.56	57.4895	6,726.56	55.082	6,726.56	53.3796	6,726.56	54.8042	6,726.56	53.439	6,726.56	48.4429	6,726.56	51.6243	6,726.56	57.5506
6,963.87	87.0014	6,963.87	86.8392	6,963.87	87.0697	6,963.87	85.3885	6,963.87	85.7778	6,963.87	83.4351	6,963.87	83.8543	6,963.87	80.86	6,963.87	81.2716	6,963.87	77.2304	6,963.87	77.2627	6,963.87	74.019	6,963.87	74.6913	6,963.87	71.948	6,963.87	72.0337	6,963.87	68.5072	6,963.87	68.8529	6,963.87	66.0955	6,963.87	66.9144	6,963.87	63.3493	6,963.87	63.1113	6,963.87	61.3351	6,963.87	62.5307	6,963.87	59.8386	6,963.87	60.5594	6,963.87	57.7448	6,963.87	56.0443	6,963.87	58.158	6,963.87	58.365	6,963.87	55.0485	6,963.87	55.9262	6,963.87	54.477	6,963.87	54.353	6,963.87	50.3168	6,963.87	51.4874	6,963.87	56.961
7,209.96	87.0163	7,209.96	86.7124	7,209.96	86.9943	7,209.96	85.1276	7,209.96	85.6921	7,209.96	83.2426	7,209.96	83.7652	7,209.96	80.3162	7,209.96	81.1145	7,209.96	76.4555	7,209.96	76.971	7,209.96	74.5635	7,209.96	74.2129	7,209.96	71.8882	7,209.96	71.5886	7,209.96	68.1014	7,209.96	67.9482	7,209.96	65.8289	7,209.96	65.674	7,209.96	63.2504	7,209.96	62.8638	7,209.96	61.6013	7,209.96	60.761	7,209.96	58.4497	7,209.96	59.6676	7,209.96	55.5791	7,209.96	55.624	7,209.96	57.2639	7,209.96	56.6659	7,209.96	56.348	7,209.96	54.9641	7,209.96	53.9457	7,209.96	53.1496	7,209.96	48.961	7,209.96	52.627	7,209.96	56.1118
7,464.84	86.6929	7,464.84	86.3524	7,464.84	86.589	7,464.84	84.7108	7,464.84	85.3174	7,464.84	82.8889	7,464.84	83.4738	7,464.84	79.5681	7,464.84	80.3057	7,464.84	76.8783	7,464.84	76.7457	7,464.84	73.6583	7,464.84	73.9868	7,464.84	69.3575	7,464.84	69.91	7,464.84	66.9198	7,464.84	65.9288	7,464.84	64.7814	7,464.84	64.2586	7,464.84	62.9704	7,464.84	62.7178	7,464.84	60.6937	7,464.84	59.145	7,464.84	59.4862	7,464.84	57.4497	7,464.84	54.4994	7,464.84	57.1248	7,464.84	55.11	7,464.84	55.8146	7,464.84	54.3568	7,464.84	56.4548	7,464.84	52.6588	7,464.84	52.2624	7,464.84	47.8718	7,464.84	50.3606	7,464.84	55.2776
7,727.05	86.4742	7,727.05	86.067	7,727.05	86.3411	7,727.05	84.5075	7,727.05	85.0156	7,727.05	82.4954	7,727.05	82.9597	7,727.05	79.3349	7,727.05	79.83	7,727.05	76.0637	7,727.05	76.6458	7,727.05	72.9518	7,727.05	73.4173	7,727.05	69.012	7,727.05	70.1587	7,727.05	67.1006	7,727.05	66.9943	7,727.05	65.1206	7,727.05	65.2245	7,727.05	62.2446	7,727.05	61.9512	7,727.05	60.592	7,727.05	60.3099	7,727.05	58.5068	7,727.05	59.0301	7,727.05	54.2301	7,727.05	56.8417	7,727.05	53.2937	7,727.05	55.7269	7,727.05	54.8339	7,727.05	55.1824	7,727.05	54.5526	7,727.05	55.0106	7,727.05	46.8334	7,727.05	41.4409	7,727.05	54.2074
7,999.51	86.5473	7,999.51	85.818	7,999.51	86.1828	7,999.51	84.2058	7,999.51	84.566	7,999.51	82.0821	7,999.51	82.5322	7,999.51	78.729	7,999.51	78.9682	7,999.51	75.3335	7,999.51	75.5177	7,999.51	72.0051	7,999.51	72.2157	7,999.51	69.376	7,999.51	68.8088	7,999.51	65.8034	7,999.51	66.2571	7,999.51	64.326	7,999.51	63.6928	7,999.51	60.0859	7,999.51	59.6497	7,999.51	58.7394	7,999.51	59.7883	7,999.51	56.7413	7,999.51	56.4221	7,999.51	53.0469	7,999.51	54.3473	7,999.51	54.3488	7,999.51	54.5471	7,999.51	53.5973	7,999.51	54.2365	7,999.51	53.8099	7,999.51	52.1466	7,999.51	44.3328	7,999.51	42.6149	7,999.51	53.2154
8,282.23	86.3977	8,282.23	85.5064	8,282.23	85.8375	8,282.23	83.8318	8,282.23	84.1594	8,282.23	81.1718	8,282.23	81.8464	8,282.23	77.8064	8,282.23	78.0564	8,282.23	74.0888	8,282.23	74.2587	8,282.23	70.2873	8,282.23	70.0974	8,282.23	67.6623	8,282.23	66.7475	8,282.23	65.3858	8,282.23	64.0886	8,282.23	62.438	8,282.23	62.0061	8,282.23	60.3011	8,282.23	60.5804	8,282.23	58.1066	8,282.23	57.5731	8,282.23	53.6465	8,282.23	55.113	8,282.23	52.9278	8,282.23	54.451	8,282.23	53.8524	8,282.23	53.6036	8,282.23	54.0095	8,282.23	52.0068	8,282.23	52.6858	8,282.23	50.4088	8,282.23	42.101	8,282.23	41.9618	8,282.23	50.7375
8,573.73	86.0636	8,573.73	85.0737	8,573.73	85.3372	8,573.73	83.5008	8,573.73	83.8259	8,573.73	80.9121	8,573.73	81.3449	8,573.73	77.5676	8,573.73	77.7108	8,573.73	73.686	8,573.73	74.0102	8,573.73	70.7783	8,573.73	70.0273	8,573.73	68.1492	8,573.73	68.2496	8,573.73	65.394	8,573.73	64.9807	8,573.73	62.5444	8,573.73	62.4082	8,573.73	59.857	8,573.73	59.3529	8,573.73	57.0225	8,573.73	56.3565	8,573.73	55.2235	8,573.73	55.1965	8,573.73	53.8879	8,573.73	53.0748	8,573.73	53.3004	8,573.73	51.8613	8,573.73	53.2033	8,573.73	51.058	8,573.73	53.316	8,573.73	50.3126	8,573.73	43.3068	8,573.73	40.7148	8,573.73	49.4575
8,876.95	86.2031	8,876.95	85.2014	8,876.95	85.4084	8,876.95	83.6562	8,876.95	83.8463	8,876.95	80.7569	8,876.95	81.0207	8,876.95	77.2755	8,876.95	77.3264	8,876.95	73.1569	8,876.95	73.0969	8,876.95	70.2734	8,876.95	69.5629	8,876.95	67.4019	8,876.95	67.1992	8,876.95	63.6106	8,876.95	64.2885	8,876.95	61.7034	8,876.95	60.8564	8,876.95	57.5468	8,876.95	56.9405	8,876.95	56.6187	8,876.95	55.4281	8,876.95	54.103	8,876.95	53.5884	8,876.95	52.3444	8,876.95	51.691	8,876.95	51.3263	8,876.95	50.3574	8,876.95	52.074	8,876.95	49.6537	8,876.95	51.8378	8,876.95	50.0039	8,876.95	41.2067	8,876.95	35.9254	8,876.95	46.7363
9,188.96	86.5473	9,188.96	85.5182	9,188.96	85.7562	9,188.96	83.4605	9,188.96	83.7263	9,188.96	79.906	9,188.96	80.2506	9,188.96	75.6338	9,188.96	75.7618	9,188.96	70.5868	9,188.96	70.2819	9,188.96	67.9044	9,188.96	66.46	9,188.96	65.377	9,188.96	63.6499	9,188.96	61.353	9,188.96	60.9874	9,188.96	58.2292	9,188.96	56.7316	9,188.96	56.2893	9,188.96	54.8053	9,188.96	53.0228	9,188.96	52.1647	9,188.96	50.4115	9,188.96	49.4235	9,188.96	52.9122	9,188.96	49.7004	9,188.96	49.5482	9,188.96	46.0647	9,188.96	49.2857	9,188.96	47.6211	9,188.96	48.6561	9,188.96	47.1627	9,188.96	30.6977	9,188.96	19.517	9,188.96	44.536
9,514.16	86.917	9,514.16	85.7934	9,514.16	86.0198	9,514.16	83.1751	9,514.16	83.519	9,514.16	78.788	9,514.16	79.0387	9,514.16	73.319	9,514.16	73.2559	9,514.16	67.8984	9,514.16	66.2688	9,514.16	65.9336	9,514.16	63.6751	9,514.16	62.2853	9,514.16	60.4666	9,514.16	60.2354	9,514.16	56.6332	9,514.16	56.506	9,514.16	54.3288	9,514.16	55.1811	9,514.16	52.7655	9,514.16	52.1779	9,514.16	49.5052	9,514.16	49.7597	9,514.16	46.8435	9,514.16	50.5932	9,514.16	46.4207	9,514.16	48.2533	9,514.16	43.5564	9,514.16	47.0276	9,514.16	41.9466	9,514.16	48.3762	9,514.16	46.7958	9,514.16	41.3424	9,514.16	28.5046	9,514.16	42.9011
9,849.61	87.3773	9,849.61	86.0953	9,849.61	86.3011	9,849.61	82.9676	9,849.61	83.342	9,849.61	77.655	9,849.61	77.8103	9,849.61	71.5164	9,849.61	70.5084	9,849.61	68.1431	9,849.61	65.9215	9,849.61	67.2405	9,849.61	65.0179	9,849.61	64.5269	9,849.61	63.0037	9,849.61	61.5215	9,849.61	61.0016	9,849.61	59.2838	9,849.61	57.6075	9,849.61	56.3078	9,849.61	55.1158	9,849.61	54.3848	9,849.61	52.0828	9,849.61	50.5256	9,849.61	50.1948	9,849.61	50.0669	9,849.61	48.1112	9,849.61	48.81	9,849.61	47.5484	9,849.61	47.5851	9,849.61	42.5167	9,849.61	48.6015	9,849.61	47.2894	9,849.61	44.8258	9,849.61	34.7123	9,849.61	42.0149
10,196.8	87.8234	10,196.8	86.3995	10,196.8	86.5951	10,196.8	82.9983	10,196.8	83.2754	10,196.8	77.5141	10,196.8	77.3037	10,196.8	72.9645	10,196.8	71.1424	10,196.8	71.2871	10,196.8	70.1016	10,196.8	69.9468	10,196.8	68.801	10,196.8	67.0688	10,196.8	66.2678	10,196.8	63.7702	10,196.8	63.5972	10,196.8	60.6392	10,196.8	60.3626	10,196.8	58.5632	10,196.8	57.9402	10,196.8	55.747	10,196.8	54.6986	10,196.8	52.4947	10,196.8	53.6684	10,196.8	52.9419	10,196.8	50.4971	10,196.8	50.8019	10,196.8	49.8512	10,196.8	49.0989	10,196.8	45.5772	10,196.8	49.8793	10,196.8	48.268	10,196.8	46.4235	10,196.8	33.7572	10,196.8	44.5606
10,555.7	87.9736	10,555.7	86.4502	10,555.7	86.6909	10,555.7	82.9875	10,555.7	83.1052	10,555.7	78.1707	10,555.7	77.6491	10,555.7	75.0381	10,555.7	73.5378	10,555.7	73.6568	10,555.7	72.9707	10,555.7	71.5806	10,555.7	70.9528	10,555.7	68.9752	10,555.7	68.14	10,555.7	65.6387	10,555.7	64.8718	10,555.7	62.0499	10,555.7	62.3056	10,555.7	60.091	10,555.7	59.5745	10,555.7	56.492	10,555.7	56.0977	10,555.7	54.637	10,555.7	55.7149	10,555.7	54.5661	10,555.7	51.6736	10,555.7	53.0949	10,555.7	50.1208	10,555.7	49.0436	10,555.7	47.529	10,555.7	50.2677	10,555.7	48.7768	10,555.7	47.6373	10,555.7	31.949	10,555.7	46.4368
10,927.7	87.8717	10,927.7	86.2579	10,927.7	86.6036	10,927.7	82.5445	10,927.7	82.8124	10,927.7	78.3294	10,927.7	78.3005	10,927.7	76.133	10,927.7	75.4469	10,927.7	74.3188	10,927.7	74.7054	10,927.7	72.3463	10,927.7	72.1845	10,927.7	69.6869	10,927.7	69.7326	10,927.7	66.1331	10,927.7	66.5552	10,927.7	62.4345	10,927.7	63.4518	10,927.7	60.6434	10,927.7	59.5004	10,927.7	57.0688	10,927.7	57.2469	10,927.7	55.5484	10,927.7	56.4585	10,927.7	53.8668	10,927.7	50.1168	10,927.7	53.0335	10,927.7	50.1299	10,927.7	49.6913	10,927.7	48.4071	10,927.7	48.8919	10,927.7	50.3344	10,927.7	45.9382	10,927.7	23.2085	10,927.7	46.9104
11,313	87.7054	11,313	85.9897	11,313	86.5646	11,313	81.9804	11,313	82.995	11,313	78.3666	11,313	79.0953	11,313	76.9644	11,313	76.9151	11,313	74.8922	11,313	75.8403	11,313	72.6992	11,313	73.4365	11,313	70.1551	11,313	70.7838	11,313	66.1569	11,313	66.6133	11,313	63.676	11,313	63.906	11,313	60.3588	11,313	59.7673	11,313	57.1585	11,313	58.7581	11,313	55.7078	11,313	57.7131	11,313	52.7823	11,313	52.0515	11,313	52.3596	11,313	50.198	11,313	49.7262	11,313	50.4088	11,313	46.9428	11,313	50.2065	11,313	45.2984	11,313	31.2503	11,313	46.3284
11,712.9	87.3955	11,712.9	85.6743	11,712.9	86.5532	11,712.9	81.588	11,712.9	83.053	11,712.9	78.6249	11,712.9	79.3005	11,712.9	78.2841	11,712.9	77.9581	11,712.9	76.0501	11,712.9	76.5257	11,712.9	73.8427	11,712.9	74.2431	11,712.9	70.5993	11,712.9	70.9131	11,712.9	67.0155	11,712.9	66.6147	11,712.9	63.7009	11,712.9	64.325	11,712.9	60.9177	11,712.9	60.2683	11,712.9	57.4729	11,712.9	59.0381	11,712.9	56.1703	11,712.9	57.6316	11,712.9	52.553	11,712.9	51.4216	11,712.9	51.8235	11,712.9	50.8893	11,712.9	48.8466	11,712.9	50.204	11,712.9	44.583	11,712.9	50.1581	11,712.9	48.1702	11,712.9	33.2508	11,712.9	46.0414
12,126	87.3097	12,126	85.721	12,126	86.5781	12,126	81.6718	12,126	82.8712	12,126	79.5879	12,126	79.5715	12,126	79.6997	12,126	78.7545	12,126	77.2353	12,126	77.2209	12,126	74.8099	12,126	74.8158	12,126	71.5063	12,126	71.1188	12,126	68.2304	12,126	68.4774	12,126	65.7074	12,126	65.2197	12,126	61.6803	12,126	61.7567	12,126	58.7013	12,126	59.9709	12,126	57.3872	12,126	56.9396	12,126	53.4678	12,126	49.8739	12,126	52.5586	12,126	50.3038	12,126	46.1842	12,126	52.4171	12,126	40.8035	12,126	52.7293	12,126	50.8015	12,126	31.7771	12,126	45.0374
12,553.7	87.076	12,553.7	85.74	12,553.7	86.1533	12,553.7	82.2431	12,553.7	82.3753	12,553.7	81.1001	12,553.7	79.9637	12,553.7	81.1934	12,553.7	79.5228	12,553.7	78.7498	12,553.7	78.0492	12,553.7	75.5964	12,553.7	75.1262	12,553.7	72.7225	12,553.7	71.9285	12,553.7	69.6076	12,553.7	68.5694	12,553.7	66.6826	12,553.7	65.2381	12,553.7	62.5084	12,553.7	62.6745	12,553.7	60.4271	12,553.7	60.1209	12,553.7	57.797	12,553.7	56.7924	12,553.7	53.9601	12,553.7	52.2435	12,553.7	52.9067	12,553.7	50.0975	12,553.7	47.7079	12,553.7	52.5349	12,553.7	28.3264	12,553.7	51.7079	12,553.7	53.1419	12,553.7	36.4376	12,553.7	45.3246
12,996.1	86.7889	12,996.1	85.7912	12,996.1	85.7563	12,996.1	83.1984	12,996.1	82.5465	12,996.1	82.3557	12,996.1	81.0923	12,996.1	82.2941	12,996.1	80.3665	12,996.1	80.0705	12,996.1	78.8746	12,996.1	76.688	12,996.1	75.5994	12,996.1	73.7874	12,996.1	72.7822	12,996.1	70.4332	12,996.1	69.0179	12,996.1	66.8091	12,996.1	65.2572	12,996.1	62.6836	12,996.1	62.5799	12,996.1	60.55	12,996.1	59.0888	12,996.1	57.3231	12,996.1	56.7279	12,996.1	51.9543	12,996.1	50.469	12,996.1	51.8957	12,996.1	50.6016	12,996.1	43.4624	12,996.1	53.2733	12,996.1	38.9323	12,996.1	50.0947	12,996.1	53.2464	12,996.1	37.2082	12,996.1	43.2112
13,454.6	86.4119	13,454.6	85.5812	13,454.6	85.3664	13,454.6	84.0382	13,454.6	83.3103	13,454.6	83.3288	13,454.6	82.1289	13,454.6	83.307	13,454.6	80.8348	13,454.6	80.7008	13,454.6	79.3211	13,454.6	77.3074	13,454.6	76.0895	13,454.6	74.0616	13,454.6	72.5886	13,454.6	70.5503	13,454.6	69.629	13,454.6	67.0521	13,454.6	65.8631	13,454.6	63.4924	13,454.6	63.2521	13,454.6	61.0882	13,454.6	59.8632	13,454.6	56.6824	13,454.6	56.7076	13,454.6	53.0004	13,454.6	52.6456	13,454.6	48.823	13,454.6	52.0598	13,454.6	43.7274	13,454.6	53.7071	13,454.6	46.4639	13,454.6	48.3292	13,454.6	53.8785	13,454.6	35.8755	13,454.6	43.1086
13,929.2	85.9376	13,929.2	85.4566	13,929.2	85.4298	13,929.2	84.1977	13,929.2	84.1989	13,929.2	83.6574	13,929.2	82.6682	13,929.2	83.2358	13,929.2	80.8366	13,929.2	80.3297	13,929.2	78.7387	13,929.2	77.1524	13,929.2	76.3244	13,929.2	73.1352	13,929.2	72.2076	13,929.2	70.7373	13,929.2	69.6615	13,929.2	67.0151	13,929.2	66.293	13,929.2	63.8086	13,929.2	63.762	13,929.2	60.9157	13,929.2	59.6273	13,929.2	56.5104	13,929.2	56.7083	13,929.2	54.6021	13,929.2	53.0879	13,929.2	39.652	13,929.2	53.8976	13,929.2	40.5377	13,929.2	55.5764	13,929.2	49.1631	13,929.2	49.128	13,929.2	52.6689	13,929.2	49.105	13,929.2	45.2968
14,419.9	86.0181	14,419.9	85.4977	14,419.9	85.8088	14,419.9	83.9284	14,419.9	84.1801	14,419.9	82.8694	14,419.9	82.1021	14,419.9	81.9842	14,419.9	80.4322	14,419.9	78.7819	14,419.9	78.2826	14,419.9	75.7091	14,419.9	76.1759	14,419.9	72.2651	14,419.9	72.3121	14,419.9	69.8449	14,419.9	70.5048	14,419.9	65.9708	14,419.9	66.2017	14,419.9	62.3127	14,419.9	62.5259	14,419.9	59.3619	14,419.9	59.6562	14,419.9	56.0077	14,419.9	57.8424	14,419.9	54.3861	14,419.9	52.3175	14,419.9	34.7318	14,419.9	53.5505	14,419.9	42.3225	14,419.9	55.7575	14,419.9	46.8893	14,419.9	48.2876	14,419.9	51.5489	14,419.9	52.5693	14,419.9	46.8155
14,928.2	86.4998	14,928.2	85.55	14,928.2	85.7952	14,928.2	83.5407	14,928.2	83.6808	14,928.2	81.6671	14,928.2	81.9298	14,928.2	80.9305	14,928.2	81.338	14,928.2	77.6912	14,928.2	79.3646	14,928.2	73.8545	14,928.2	76.1295	14,928.2	71.4056	14,928.2	72.6448	14,928.2	68.3156	14,928.2	69.6462	14,928.2	63.7812	14,928.2	65.9263	14,928.2	60.7944	14,928.2	62.5822	14,928.2	58.5194	14,928.2	59.6404	14,928.2	56.0984	14,928.2	57.1571	14,928.2	52.4011	14,928.2	49.6251	14,928.2	45.6548	14,928.2	53.7418	14,928.2	42.5785	14,928.2	55.0134	14,928.2	39.1629	14,928.2	41.9029	14,928.2	52.1215	14,928.2	54.3199	14,928.2	47.9625
15,455.6	86.8321	15,455.6	85.6419	15,455.6	85.6264	15,455.6	83.1288	15,455.6	83.302	15,455.6	81.301	15,455.6	82.252	15,455.6	80.6467	15,455.6	81.9581	15,455.6	77.6679	15,455.6	79.6258	15,455.6	74.0768	15,455.6	75.9064	15,455.6	70.3807	15,455.6	71.9568	15,455.6	68.1521	15,455.6	68.8565	15,455.6	63.8661	15,455.6	65.8536	15,455.6	60.3264	15,455.6	62.6197	15,455.6	56.9173	15,455.6	59.7659	15,455.6	54.2498	15,455.6	53.8799	15,455.6	53.2578	15,455.6	50.1149	15,455.6	49.8547	15,455.6	52.8148	15,455.6	45.9003	15,455.6	54.8449	15,455.6	41.4247	15,455.6	44.986	15,455.6	52.4209	15,455.6	53	15,455.6	48.1678
16,000.5	86.9826	16,000.5	85.7755	16,000.5	85.8189	16,000.5	82.7108	16,000.5	83.4901	16,000.5	81.2778	16,000.5	82.6398	16,000.5	80.791	16,000.5	81.8549	16,000.5	77.2911	16,000.5	79.0961	16,000.5	74.3644	16,000.5	75.4337	16,000.5	69.3461	16,000.5	69.5318	16,000.5	67.7766	16,000.5	68.1646	16,000.5	63.3261	16,000.5	64.8256	16,000.5	60.1996	16,000.5	61.532	16,000.5	56.6944	16,000.5	58.7311	16,000.5	54.8999	16,000.5	51.7222	16,000.5	51.288	16,000.5	47.9103	16,000.5	50.6425	16,000.5	52.5602	16,000.5	48.3037	16,000.5	54.6927	16,000.5	47.6098	16,000.5	53.457	16,000.5	53.8776	16,000.5	52.8993	16,000.5	47.6464
16,564.5	87.1527	16,564.5	85.4893	16,564.5	85.791	16,564.5	82.111	16,564.5	83.3878	16,564.5	81.1503	16,564.5	82.3642	16,564.5	80.3831	16,564.5	81.2591	16,564.5	76.462	16,564.5	78.143	16,564.5	73.1013	16,564.5	73.6561	16,564.5	67.6132	16,564.5	68.8634	16,564.5	66.1227	16,564.5	64.4336	16,564.5	62.3677	16,564.5	62.8214	16,564.5	58.7285	16,564.5	58.5935	16,564.5	56.5409	16,564.5	56.1291	16,564.5	54.033	16,564.5	48.8592	16,564.5	49.881	16,564.5	48.601	16,564.5	50.6175	16,564.5	49.6803	16,564.5	49.3029	16,564.5	52.5367	16,564.5	52.401	16,564.5	54.9914	16,564.5	54.6226	16,564.5	53.7931	16,564.5	47.9726
17,148.9	87.0511	17,148.9	85.1788	17,148.9	85.8631	17,148.9	82.016	17,148.9	83.6315	17,148.9	81.3717	17,148.9	82.3545	17,148.9	80.4093	17,148.9	81.1096	17,148.9	75.9351	17,148.9	77.8581	17,148.9	71.7363	17,148.9	72.5471	17,148.9	66.1222	17,148.9	68.255	17,148.9	64.5086	17,148.9	62.4618	17,148.9	61.34	17,148.9	63.1879	17,148.9	56.7052	17,148.9	56.7195	17,148.9	57.3613	17,148.9	54.6241	17,148.9	54.8992	17,148.9	49.4296	17,148.9	46.6365	17,148.9	48.8761	17,148.9	48.7072	17,148.9	47.2088	17,148.9	47.9793	17,148.9	50.3104	17,148.9	51.0597	17,148.9	54.7522	17,148.9	55.561	17,148.9	55.1343	17,148.9	48.9051
17,752.4	86.3535	17,752.4	84.6978	17,752.4	85.4716	17,752.4	81.7442	17,752.4	83.7136	17,752.4	81.2456	17,752.4	82.3676	17,752.4	80.8851	17,752.4	81.4402	17,752.4	76.7202	17,752.4	79.0026	17,752.4	72.4616	17,752.4	73.7773	17,752.4	65.6128	17,752.4	70.5498	17,752.4	64.4982	17,752.4	62.6191	17,752.4	62.1658	17,752.4	64.3187	17,752.4	58.3703	17,752.4	56.1306	17,752.4	56.8632	17,752.4	55.5887	17,752.4	54.5986	17,752.4	52.5998	17,752.4	44.9987	17,752.4	43.2886	17,752.4	47.3381	17,752.4	49.6328	17,752.4	40.6201	17,752.4	51.809	17,752.4	47.3954	17,752.4	55.7479	17,752.4	56.978	17,752.4	55.0192	17,752.4	48.2232
18,379.4	85.3835	18,379.4	83.2557	18,379.4	83.9866	18,379.4	79.7952	18,379.4	81.8123	18,379.4	80.7514	18,379.4	82.1078	18,379.4	81.4308	18,379.4	82.044	18,379.4	77.377	18,379.4	79.7066	18,379.4	72.2631	18,379.4	74.5263	18,379.4	65.8548	18,379.4	71.2588	18,379.4	63.3892	18,379.4	61.6098	18,379.4	61.3175	18,379.4	64.1816	18,379.4	57.7229	18,379.4	55.164	18,379.4	56.9165	18,379.4	53.6005	18,379.4	52.1218	18,379.4	46.0168	18,379.4	46.1256	18,379.4	47.9227	18,379.4	45.227	18,379.4	49.3187	18,379.4	17.3365	18,379.4	50.9384	18,379.4	43.488	18,379.4	56.1685	18,379.4	56.4442	18,379.4	55.104	18,379.4	48.5597
19,026.9	86.8385	19,026.9	83.8017	19,026.9	84.5756	19,026.9	80.5132	19,026.9	81.2558	19,026.9	81.0383	19,026.9	82.1801	19,026.9	80.2047	19,026.9	80.8517	19,026.9	74.8553	19,026.9	77.3526	19,026.9	68.7812	19,026.9	71.2089	19,026.9	61.6283	19,026.9	67.7519	19,026.9	57.2049	19,026.9	56.9027	19,026.9	56.2831	19,026.9	59.6154	19,026.9	52.7733	19,026.9	48.3129	19,026.9	51.8506	19,026.9	48.1873	19,026.9	47.7037	19,026.9	37.3262	19,026.9	43.2367	19,026.9	45.0645	19,026.9	40.8309	19,026.9	44.8322	19,026.9	31.9799	19,026.9	46.2114	19,026.9	43.0254	19,026.9	51.6775	19,026.9	51.1516	19,026.9	50.5991	19,026.9	47.551
19,697.8	85.5118	19,697.8	82.9314	19,697.8	83.8548	19,697.8	80.7377	19,697.8	81.0967	19,697.8	79.1858	19,697.8	80.3657	19,697.8	75.8688	19,697.8	77.057	19,697.8	68.5186	19,697.8	71.9416	19,697.8	60.0378	19,697.8	63.7155	19,697.8	50.2052	19,697.8	59.7409	19,697.8	47.2474	19,697.8	48.9011	19,697.8	44.6365	19,697.8	49.7497	19,697.8	40.3208	19,697.8	38.7154	19,697.8	41.9179	19,697.8	39.9652	19,697.8	40.5086	19,697.8	35.6552	19,697.8	37.6465	19,697.8	34.9262	19,697.8	37.9352	19,697.8	21.3734	19,697.8	34.4758	19,697.8	24.2689	19,697.8	36.1432	19,697.8	39.213	19,697.8	39.6894	19,697.8	34.3254	19,697.8	47.406
19,999.5	84.1806	19,999.5	81.9086	19,999.5	82.7842	19,999.5	80.2589	19,999.5	80.2208	19,999.5	77.8614	19,999.5	79.1265	19,999.5	72.7921	19,999.5	74.9011	19,999.5	64.0841	19,999.5	69.4016	19,999.5	53.2551	19,999.5	60.6338	19,999.5	47.0544	19,999.5	54.6737	19,999.5	48.0949	19,999.5	38.2831	19,999.5	44.2234	19,999.5	42.4693	19,999.5	45.5685	19,999.5	40.3532	19,999.5	42.8145	19,999.5	50.2121	19,999.5	38.4693	19,999.5	39.3312	19,999.5	40.9146	19,999.5	51.4917	19,999.5	42.4554	19,999.5	35.5284	19,999.5	36.1107	19,999.5	38.1677	19,999.5	32.2903	19,999.5	39.8873	19,999.5	45.1983	19,999.5	40.8487	19,999.5	38.8644
