"SPL Horizontal"
"On-Axis"		"10°"		"-10°"		"20°"		"-20°"		"30°"		"-30°"		"40°"		"-40°"		"50°"		"-50°"		"60°"		"-60°"		"70°"		"-70°"		"80°"		"-80°"		"90°"		"-90°"		"100°"		"-100°"		"110°"		"-110°"		"120°"		"-120°"		"130°"		"-130°"		"140°"		"-140°"		"150°"		"-150°"		"160°"		"-160°"		"170°"		"-170°"		"180°"
"Frequency / Hz"	"Sound Pressure Level / dB (re 20 µPa/V)  [2.83  V @ 1. m]"	"Frequency / Hz"	"Sound Pressure Level / dB (re 20 µPa/V)  [2.83  V @ 1. m]"	"Frequency / Hz"	"Sound Pressure Level / dB (re 20 µPa/V)  [2.83  V @ 1. m]"	"Frequency / Hz"	"Sound Pressure Level / dB (re 20 µPa/V)  [2.83  V @ 1. m]"	"Frequency / Hz"	"Sound Pressure Level / dB (re 20 µPa/V)  [2.83  V @ 1. m]"	"Frequency / Hz"	"Sound Pressure Level / dB (re 20 µPa/V)  [2.83  V @ 1. m]"	"Frequency / Hz"	"Sound Pressure Level / dB (re 20 µPa/V)  [2.83  V @ 1. m]"	"Frequency / Hz"	"Sound Pressure Level / dB (re 20 µPa/V)  [2.83  V @ 1. m]"	"Frequency / Hz"	"Sound Pressure Level / dB (re 20 µPa/V)  [2.83  V @ 1. m]"	"Frequency / Hz"	"Sound Pressure Level / dB (re 20 µPa/V)  [2.83  V @ 1. m]"	"Frequency / Hz"	"Sound Pressure Level / dB (re 20 µPa/V)  [2.83  V @ 1. m]"	"Frequency / Hz"	"Sound Pressure Level / dB (re 20 µPa/V)  [2.83  V @ 1. m]"	"Frequency / Hz"	"Sound Pressure Level / dB (re 20 µPa/V)  [2.83  V @ 1. m]"	"Frequency / Hz"	"Sound Pressure Level / dB (re 20 µPa/V)  [2.83  V @ 1. m]"	"Frequency / Hz"	"Sound Pressure Level / dB (re 20 µPa/V)  [2.83  V @ 1. m]"	"Frequency / Hz"	"Sound Pressure Level / dB (re 20 µPa/V)  [2.83  V @ 1. m]"	"Frequency / Hz"	"Sound Pressure Level / dB (re 20 µPa/V)  [2.83  V @ 1. m]"	"Frequency / Hz"	"Sound Pressure Level / dB (re 20 µPa/V)  [2.83  V @ 1. m]"	"Frequency / Hz"	"Sound Pressure Level / dB (re 20 µPa/V)  [2.83  V @ 1. m]"	"Frequency / Hz"	"Sound Pressure Level / dB (re 20 µPa/V)  [2.83  V @ 1. m]"	"Frequency / Hz"	"Sound Pressure Level / dB (re 20 µPa/V)  [2.83  V @ 1. m]"	"Frequency / Hz"	"Sound Pressure Level / dB (re 20 µPa/V)  [2.83  V @ 1. m]"	"Frequency / Hz"	"Sound Pressure Level / dB (re 20 µPa/V)  [2.83  V @ 1. m]"	"Frequency / Hz"	"Sound Pressure Level / dB (re 20 µPa/V)  [2.83  V @ 1. m]"	"Frequency / Hz"	"Sound Pressure Level / dB (re 20 µPa/V)  [2.83  V @ 1. m]"	"Frequency / Hz"	"Sound Pressure Level / dB (re 20 µPa/V)  [2.83  V @ 1. m]"	"Frequency / Hz"	"Sound Pressure Level / dB (re 20 µPa/V)  [2.83  V @ 1. m]"	"Frequency / Hz"	"Sound Pressure Level / dB (re 20 µPa/V)  [2.83  V @ 1. m]"	"Frequency / Hz"	"Sound Pressure Level / dB (re 20 µPa/V)  [2.83  V @ 1. m]"	"Frequency / Hz"	"Sound Pressure Level / dB (re 20 µPa/V)  [2.83  V @ 1. m]"	"Frequency / Hz"	"Sound Pressure Level / dB (re 20 µPa/V)  [2.83  V @ 1. m]"	"Frequency / Hz"	"Sound Pressure Level / dB (re 20 µPa/V)  [2.83  V @ 1. m]"	"Frequency / Hz"	"Sound Pressure Level / dB (re 20 µPa/V)  [2.83  V @ 1. m]"	"Frequency / Hz"	"Sound Pressure Level / dB (re 20 µPa/V)  [2.83  V @ 1. m]"	"Frequency / Hz"	"Sound Pressure Level / dB (re 20 µPa/V)  [2.83  V @ 1. m]"	"Frequency / Hz"	"Sound Pressure Level / dB (re 20 µPa/V)  [2.83  V @ 1. m]"
20.5078	63.0124	20.5078	62.9775	20.5078	63.0373	20.5078	62.9333	20.5078	63.0513	20.5078	62.8801	20.5078	63.0533	20.5078	62.8182	20.5078	63.0421	20.5078	62.7475	20.5078	63.0167	20.5078	62.6683	20.5078	62.9764	20.5078	62.5814	20.5078	62.9206	20.5078	62.488	20.5078	62.8494	20.5078	62.3904	20.5078	62.7636	20.5078	62.2919	20.5078	62.6651	20.5078	62.1963	20.5078	62.557	20.5078	62.1081	20.5078	62.4434	20.5078	62.0313	20.5078	62.3294	20.5078	61.9698	20.5078	62.2204	20.5078	61.9267	20.5078	62.1216	20.5078	61.9042	20.5078	62.0373	20.5078	61.904	20.5078	61.9715	20.5078	61.9265
21.9727	62.7822	21.9727	62.7778	21.9727	62.7766	21.9727	62.7629	21.9727	62.7611	21.9727	62.7374	21.9727	62.7355	21.9727	62.7011	21.9727	62.6992	21.9727	62.654	21.9727	62.6518	21.9727	62.5963	21.9727	62.5927	21.9727	62.5287	21.9727	62.5222	21.9727	62.452	21.9727	62.4411	21.9727	62.3678	21.9727	62.3514	21.9727	62.278	21.9727	62.2559	21.9727	62.1856	21.9727	62.1582	21.9727	62.094	21.9727	62.0627	21.9727	62.0069	21.9727	61.9738	21.9727	61.928	21.9727	61.8957	21.9727	61.8607	21.9727	61.8325	21.9727	61.8082	21.9727	61.7871	21.9727	61.773	21.9727	61.7617	21.9727	61.7571
23.4375	64.3134	23.4375	64.2929	23.4375	64.3224	23.4375	64.2606	23.4375	64.3203	23.4375	64.2166	23.4375	64.3075	23.4375	64.1612	23.4375	64.284	23.4375	64.0953	23.4375	64.25	23.4375	64.0203	23.4375	64.2054	23.4375	63.9382	23.4375	64.1505	23.4375	63.8513	23.4375	64.0856	23.4375	63.7626	23.4375	64.012	23.4375	63.6751	23.4375	63.9312	23.4375	63.5924	23.4375	63.8456	23.4375	63.5178	23.4375	63.7583	23.4375	63.4546	23.4375	63.6725	23.4375	63.4053	23.4375	63.5917	23.4375	63.3719	23.4375	63.5191	23.4375	63.3556	23.4375	63.4573	23.4375	63.3566	23.4375	63.4085	23.4375	63.3745
24.9023	65.1273	24.9023	65.119	24.9023	65.127	24.9023	65.1016	24.9023	65.1185	24.9023	65.0745	24.9023	65.102	24.9023	65.0372	24.9023	65.0776	24.9023	64.9896	24.9023	65.045	24.9023	64.9322	24.9023	65.0042	24.9023	64.8659	24.9023	64.9553	24.9023	64.7926	24.9023	64.8986	24.9023	64.7146	24.9023	64.8349	24.9023	64.635	24.9023	64.7655	24.9023	64.557	24.9023	64.692	24.9023	64.4842	24.9023	64.6169	24.9023	64.4197	24.9023	64.5431	24.9023	64.3664	24.9023	64.4737	24.9023	64.3264	24.9023	64.4119	24.9023	64.3014	24.9023	64.3607	24.9023	64.2924	24.9023	64.3227	24.9023	64.2996
26.3672	65.5963	26.3672	65.5999	26.3672	65.5864	26.3672	65.5966	26.3672	65.5704	26.3672	65.5855	26.3672	65.5479	26.3672	65.5652	26.3672	65.5185	26.3672	65.5346	26.3672	65.4813	26.3672	65.493	26.3672	65.4356	26.3672	65.4403	26.3672	65.3813	26.3672	65.3773	26.3672	65.3188	26.3672	65.3058	26.3672	65.2491	26.3672	65.2283	26.3672	65.1744	26.3672	65.1482	26.3672	65.0975	26.3672	65.0691	26.3672	65.0219	26.3672	64.9943	26.3672	64.9515	26.3672	64.9271	26.3672	64.8897	26.3672	64.8703	26.3672	64.8399	26.3672	64.8261	26.3672	64.8045	26.3672	64.7964	26.3672	64.7852	26.3672	64.7825
27.832	66.3111	27.832	66.3023	27.832	66.3132	27.832	66.2865	27.832	66.3082	27.832	66.2632	27.832	66.295	27.832	66.2313	27.832	66.2727	27.832	66.1894	27.832	66.2401	27.832	66.1366	27.832	66.1965	27.832	66.0727	27.832	66.1414	27.832	65.9984	27.832	66.0754	27.832	65.9156	27.832	65.9995	27.832	65.8273	27.832	65.9157	27.832	65.7371	27.832	65.8268	27.832	65.6493	27.832	65.7362	27.832	65.568	27.832	65.648	27.832	65.4972	27.832	65.5662	27.832	65.4405	27.832	65.4951	27.832	65.4007	27.832	65.4383	27.832	65.3799	27.832	65.3991	27.832	65.3792
29.2969	67.3884	29.2969	67.3923	29.2969	67.3739	29.2969	67.385	29.2969	67.3494	29.2969	67.3656	29.2969	67.3155	29.2969	67.3335	29.2969	67.2724	29.2969	67.2881	29.2969	67.2205	29.2969	67.2295	29.2969	67.16	29.2969	67.1581	29.2969	67.0915	29.2969	67.0753	29.2969	67.0157	29.2969	66.9834	29.2969	66.9338	29.2969	66.8855	29.2969	66.8473	29.2969	66.7852	29.2969	66.7588	29.2969	66.687	29.2969	66.6711	29.2969	66.5951	29.2969	66.5876	29.2969	66.5138	29.2969	66.512	29.2969	66.4467	29.2969	66.4481	29.2969	66.3969	29.2969	66.3991	29.2969	66.3666	29.2969	66.3681	29.2969	66.357
30.7617	68.0123	30.7617	68.0278	30.7617	67.988	30.7617	68.0334	30.7617	67.9555	30.7617	68.0281	30.7617	67.9152	30.7617	68.0107	30.7617	67.8676	30.7617	67.9803	30.7617	67.8126	30.7617	67.9365	30.7617	67.7506	30.7617	67.8794	30.7617	67.6822	30.7617	67.8099	30.7617	67.6085	30.7617	67.73	30.7617	67.5311	30.7617	67.6424	30.7617	67.4523	30.7617	67.5506	30.7617	67.3749	30.7617	67.4586	30.7617	67.3018	30.7617	67.3705	30.7617	67.2361	30.7617	67.2901	30.7617	67.1807	30.7617	67.221	30.7617	67.1379	30.7617	67.1656	30.7617	67.1099	30.7617	67.1261	30.7617	67.0981	30.7617	67.1034
32.2266	68.7958	32.2266	68.8088	32.2266	68.7733	32.2266	68.8115	32.2266	68.7422	32.2266	68.8029	32.2266	68.7031	32.2266	68.7823	32.2266	68.6567	32.2266	68.7492	32.2266	68.6034	32.2266	68.7035	32.2266	68.5438	32.2266	68.6459	32.2266	68.4786	32.2266	68.5777	32.2266	68.4092	32.2266	68.501	32.2266	68.3369	32.2266	68.4188	32.2266	68.2639	32.2266	68.3344	32.2266	68.1926	32.2266	68.2512	32.2266	68.1257	32.2266	68.1729	32.2266	68.0659	32.2266	68.1025	32.2266	68.0156	32.2266	68.0427	32.2266	67.9769	32.2266	67.9954	32.2266	67.9513	32.2266	67.9621	32.2266	67.94	32.2266	67.9435
33.6914	69.3516	33.6914	69.3654	33.6914	69.3285	33.6914	69.3692	33.6914	69.2964	33.6914	69.3625	33.6914	69.2554	33.6914	69.3445	33.6914	69.2058	33.6914	69.3143	33.6914	69.1478	33.6914	69.2716	33.6914	69.082	33.6914	69.2166	33.6914	69.0093	33.6914	69.15	33.6914	68.9313	33.6914	69.0736	33.6914	68.8502	33.6914	68.9899	33.6914	68.7687	33.6914	68.902	33.6914	68.6901	33.6914	68.8135	33.6914	68.6175	33.6914	68.728	33.6914	68.5543	33.6914	68.6492	33.6914	68.5032	33.6914	68.58	33.6914	68.4663	33.6914	68.5229	33.6914	68.4451	33.6914	68.4798	33.6914	68.4403	33.6914	68.4519
35.1562	69.8628	35.1562	69.8768	35.1562	69.8384	35.1562	69.8796	35.1562	69.8041	35.1562	69.8706	35.1562	69.7601	35.1562	69.849	35.1562	69.707	35.1562	69.8142	35.1562	69.6452	35.1562	69.7661	35.1562	69.5754	35.1562	69.7052	35.1562	69.4988	35.1562	69.6325	35.1562	69.4172	35.1562	69.5503	35.1562	69.3328	35.1562	69.4612	35.1562	69.2484	35.1562	69.3687	35.1562	69.1673	35.1562	69.2765	35.1562	69.0926	35.1562	69.1884	35.1562	69.0275	35.1562	69.108	35.1562	68.9744	35.1562	69.0381	35.1562	68.9354	35.1562	68.9814	35.1562	68.9117	35.1562	68.9395	35.1562	68.9044	35.1562	68.9137
36.6211	70.5725	36.6211	70.5837	36.6211	70.5509	36.6211	70.5838	36.6211	70.5194	36.6211	70.5721	36.6211	70.4787	36.6211	70.5481	36.6211	70.4295	36.6211	70.5117	36.6211	70.3722	36.6211	70.4628	36.6211	70.3079	36.6211	70.4021	36.6211	70.2375	36.6211	70.3312	36.6211	70.1625	36.6211	70.252	36.6211	70.0849	36.6211	70.1674	36.6211	70.007	36.6211	70.0805	36.6211	69.9315	36.6211	69.9949	36.6211	69.8613	36.6211	69.9139	36.6211	69.7988	36.6211	69.8407	36.6211	69.7466	36.6211	69.7781	36.6211	69.7066	36.6211	69.7283	36.6211	69.6802	36.6211	69.6929	36.6211	69.6688	36.6211	69.673
38.0859	71.0879	38.0859	71.0984	38.0859	71.0656	38.0859	71.0962	38.0859	71.032	38.0859	71.0809	38.0859	70.9881	38.0859	71.052	38.0859	70.9347	38.0859	71.0092	38.0859	70.8726	38.0859	70.953	38.0859	70.8029	38.0859	70.8842	38.0859	70.7271	38.0859	70.8045	38.0859	70.6466	38.0859	70.7162	38.0859	70.5636	38.0859	70.6225	38.0859	70.4802	38.0859	70.527	38.0859	70.3989	38.0859	70.4335	38.0859	70.3222	38.0859	70.3458	38.0859	70.2529	38.0859	70.2673	38.0859	70.1934	38.0859	70.201	38.0859	70.1462	38.0859	70.1494	38.0859	70.1132	38.0859	70.1142	38.0859	70.0963	38.0859	70.0964
39.5508	71.6213	39.5508	71.6376	39.5508	71.5946	39.5508	71.6428	39.5508	71.558	39.5508	71.6362	39.5508	71.5123	39.5508	71.6172	39.5508	71.4579	39.5508	71.5855	39.5508	71.3959	39.5508	71.541	39.5508	71.3272	39.5508	71.4843	39.5508	71.2533	39.5508	71.4167	39.5508	71.1762	39.5508	71.3403	39.5508	71.0982	39.5508	71.2578	39.5508	71.0217	39.5508	71.1724	39.5508	70.9496	39.5508	71.0875	39.5508	70.8845	39.5508	71.0065	39.5508	70.8288	39.5508	70.9322	39.5508	70.7844	39.5508	70.8672	39.5508	70.753	39.5508	70.8135	39.5508	70.7357	39.5508	70.7726	39.5508	70.7332	39.5508	70.7456
41.0156	72.0625	41.0156	72.0764	41.0156	72.0352	41.0156	72.0767	41.0156	71.9952	41.0156	72.063	41.0156	71.9434	41.0156	72.0355	41.0156	71.8811	41.0156	71.9951	41.0156	71.8098	41.0156	71.943	41.0156	71.7318	41.0156	71.8812	41.0156	71.65	41.0156	71.8124	41.0156	71.5678	41.0156	71.7395	41.0156	71.4894	41.0156	71.6656	41.0156	71.4185	41.0156	71.5936	41.0156	71.3586	41.0156	71.5261	41.0156	71.3117	41.0156	71.4649	41.0156	71.2784	41.0156	71.4113	41.0156	71.2582	41.0156	71.3657	41.0156	71.2495	41.0156	71.3282	41.0156	71.2504	41.0156	71.2983	41.0156	71.2594	41.0156	71.2754
42.4805	72.8788	42.4805	72.8948	42.4805	72.8502	42.4805	72.8978	42.4805	72.8096	42.4805	72.8876	42.4805	72.7577	42.4805	72.864	42.4805	72.6952	42.4805	72.8273	42.4805	72.6236	42.4805	72.7783	42.4805	72.5444	42.4805	72.7182	42.4805	72.46	42.4805	72.6489	42.4805	72.3733	42.4805	72.5731	42.4805	72.2877	42.4805	72.4935	42.4805	72.2071	42.4805	72.4131	42.4805	72.1348	42.4805	72.3347	42.4805	72.074	42.4805	72.2606	42.4805	72.0266	42.4805	72.1925	42.4805	71.994	42.4805	72.1319	42.4805	71.9761	42.4805	72.0797	42.4805	71.9724	42.4805	72.0367	42.4805	71.982	42.4805	72.0038
43.9453	73.3798	43.9453	73.3961	43.9453	73.3516	43.9453	73.4	43.9453	73.3118	43.9453	73.3915	43.9453	73.2612	43.9453	73.3705	43.9453	73.2004	43.9453	73.3373	43.9453	73.1307	43.9453	73.2926	43.9453	73.0537	43.9453	73.2376	43.9453	72.972	43.9453	73.1743	43.9453	72.8885	43.9453	73.1049	43.9453	72.8068	43.9453	73.0321	43.9453	72.7308	43.9453	72.9586	43.9453	72.6641	43.9453	72.8868	43.9453	72.6098	43.9453	72.8187	43.9453	72.5696	43.9453	72.756	43.9453	72.5443	43.9453	72.6996	43.9453	72.5335	43.9453	72.6502	43.9453	72.5359	43.9453	72.6083	43.9453	72.5501	43.9453	72.5747
45.4102	73.6777	45.4102	73.6884	45.4102	73.6534	45.4102	73.6853	45.4102	73.616	45.4102	73.6687	45.4102	73.5659	45.4102	73.6389	45.4102	73.5042	45.4102	73.5966	45.4102	73.4325	45.4102	73.5431	45.4102	73.3526	45.4102	73.48	45.4102	73.2673	45.4102	73.4096	45.4102	73.1799	45.4102	73.3346	45.4102	73.0939	45.4102	73.2577	45.4102	73.0135	45.4102	73.1819	45.4102	72.9422	45.4102	73.1094	45.4102	72.8829	45.4102	73.0422	45.4102	72.8377	45.4102	72.9815	45.4102	72.8072	45.4102	72.9282	45.4102	72.791	45.4102	72.8827	45.4102	72.7882	45.4102	72.8454	45.4102	72.7972	45.4102	72.8166
46.875	74.1985	46.875	74.21	46.875	74.172	46.875	74.2062	46.875	74.1308	46.875	74.1873	46.875	74.0757	46.875	74.1537	46.875	74.008	46.875	74.1063	46.875	73.9294	46.875	74.0464	46.875	73.842	46.875	73.9759	46.875	73.7487	46.875	73.8973	46.875	73.6529	46.875	73.8133	46.875	73.5584	46.875	73.7271	46.875	73.4693	46.875	73.6416	46.875	73.3893	46.875	73.5595	46.875	73.3215	46.875	73.4829	46.875	73.2682	46.875	73.4135	46.875	73.2305	46.875	73.3525	46.875	73.2084	46.875	73.3007	46.875	73.2013	46.875	73.2588	46.875	73.2081	46.875	73.2277
48.3398	74.7188	48.3398	74.728	48.3398	74.6939	48.3398	74.7211	48.3398	74.6535	48.3398	74.6984	48.3398	74.5987	48.3398	74.6603	48.3398	74.5307	48.3398	74.6079	48.3398	74.4512	48.3398	74.5425	48.3398	74.3624	48.3398	74.4662	48.3398	74.2671	48.3398	74.3815	48.3398	74.1686	48.3398	74.2914	48.3398	74.0706	48.3398	74.1992	48.3398	73.9771	48.3398	74.1081	48.3398	73.8917	48.3398	74.0211	48.3398	73.8176	48.3398	73.9404	48.3398	73.7572	48.3398	73.8681	48.3398	73.712	48.3398	73.8053	48.3398	73.6825	48.3398	73.7533	48.3398	73.6686	48.3398	73.7128	48.3398	73.6695	48.3398	73.6846
51.2695	75.6105	51.2695	75.6201	51.2695	75.5849	51.2695	75.6136	51.2695	75.5436	51.2695	75.5915	51.2695	75.4876	51.2695	75.5547	51.2695	75.4182	51.2695	75.5045	51.2695	75.3375	51.2695	75.4424	51.2695	75.2483	51.2695	75.3707	51.2695	75.1536	51.2695	75.2921	51.2695	75.0573	51.2695	75.2093	51.2695	74.9634	51.2695	75.1254	51.2695	74.876	51.2695	75.0432	51.2695	74.7987	51.2695	74.9651	51.2695	74.7343	51.2695	74.8929	51.2695	74.6846	51.2695	74.828	51.2695	74.6502	51.2695	74.771	51.2695	74.631	51.2695	74.7225	51.2695	74.6259	51.2695	74.683	51.2695	74.6338	51.2695	74.6532
52.7344	76.0284	52.7344	76.0433	52.7344	75.9976	52.7344	76.0419	52.7344	75.9514	52.7344	76.0247	52.7344	75.8911	52.7344	75.9926	52.7344	75.8186	52.7344	75.9469	52.7344	75.7361	52.7344	75.8896	52.7344	75.6468	52.7344	75.8231	52.7344	75.5542	52.7344	75.7502	52.7344	75.4623	52.7344	75.6738	52.7344	75.3751	52.7344	75.5967	52.7344	75.2964	52.7344	75.5217	52.7344	75.2296	52.7344	75.4506	52.7344	75.1768	52.7344	75.3849	52.7344	75.1392	52.7344	75.3252	52.7344	75.1168	52.7344	75.272	52.7344	75.1085	52.7344	75.2253	52.7344	75.1129	52.7344	75.1855	52.7344	75.1282	52.7344	75.1528
54.1992	76.3858	54.1992	76.4001	54.1992	76.3557	54.1992	76.3986	54.1992	76.3105	54.1992	76.3816	54.1992	76.2514	54.1992	76.3505	54.1992	76.1805	54.1992	76.3067	54.1992	76.1003	54.1992	76.2526	54.1992	76.0141	54.1992	76.1908	54.1992	75.9257	54.1992	76.1241	54.1992	75.8392	54.1992	76.0557	54.1992	75.7589	54.1992	75.9883	54.1992	75.6886	54.1992	75.9241	54.1992	75.6313	54.1992	75.8646	54.1992	75.589	54.1992	75.8103	54.1992	75.562	54.1992	75.7613	54.1992	75.5498	54.1992	75.7172	54.1992	75.5507	54.1992	75.6773	54.1992	75.5624	54.1992	75.6413	54.1992	75.5827	54.1992	75.6095
55.6641	76.8236	55.6641	76.8243	55.6641	76.8047	55.6641	76.807	55.6641	76.7682	55.6641	76.7725	55.6641	76.7156	55.6641	76.7225	55.6641	76.649	55.6641	76.6594	55.6641	76.5714	55.6641	76.5864	55.6641	76.4863	55.6641	76.5073	55.6641	76.3978	55.6641	76.4263	55.6641	76.3103	55.6641	76.3473	55.6641	76.2281	55.6641	76.2741	55.6641	76.1548	55.6641	76.2091	55.6641	76.0933	55.6641	76.1539	55.6641	76.0452	55.6641	76.1087	55.6641	76.0108	55.6641	76.0726	55.6641	75.989	55.6641	76.0441	55.6641	75.9781	55.6641	76.0216	55.6641	75.976	55.6641	76.0039	55.6641	75.9806	55.6641	75.9902
58.5938	77.794	58.5938	77.7975	58.5938	77.77	58.5938	77.7806	58.5938	77.7262	58.5938	77.7441	58.5938	77.6642	58.5938	77.6895	58.5938	77.5861	58.5938	77.6191	58.5938	77.4949	58.5938	77.5357	58.5938	77.3942	58.5938	77.4429	58.5938	77.2882	58.5938	77.3447	58.5938	77.1811	58.5938	77.2455	58.5938	77.0773	58.5938	77.1492	58.5938	76.9811	58.5938	77.0594	58.5938	76.8961	58.5938	76.9788	58.5938	76.825	58.5938	76.9086	58.5938	76.7693	58.5938	76.8493	58.5938	76.7296	58.5938	76.8003	58.5938	76.7052	58.5938	76.7609	58.5938	76.6948	58.5938	76.7305	58.5938	76.6965	58.5938	76.7088
60.0586	78.1557	60.0586	78.1567	60.0586	78.1334	60.0586	78.1364	60.0586	78.0907	60.0586	78.0959	60.0586	78.0292	60.0586	78.0369	60.0586	77.9513	60.0586	77.962	60.0586	77.8604	60.0586	77.8746	60.0586	77.7603	60.0586	77.7787	60.0586	77.6555	60.0586	77.6786	60.0586	77.5506	60.0586	77.5787	60.0586	77.4501	60.0586	77.4831	60.0586	77.358	60.0586	77.3952	60.0586	77.2774	60.0586	77.3172	60.0586	77.2103	60.0586	77.2506	60.0586	77.1574	60.0586	77.1956	60.0586	77.1185	60.0586	77.1518	60.0586	77.0926	60.0586	77.1185	60.0586	77.0784	60.0586	77.0948	60.0586	77.0745	60.0586	77.0802
62.9883	78.755	62.9883	78.7572	62.9883	78.7306	62.9883	78.7375	62.9883	78.6847	62.9883	78.6972	62.9883	78.6193	62.9883	78.6388	62.9883	78.5374	62.9883	78.5656	62.9883	78.443	62.9883	78.4817	62.9883	78.3406	62.9883	78.3917	62.9883	78.2356	62.9883	78.3001	62.9883	78.1332	62.9883	78.2115	62.9883	78.0385	62.9883	78.1296	62.9883	77.9556	62.9883	78.0568	62.9883	77.8874	62.9883	77.9944	62.9883	77.8353	62.9883	77.9425	62.9883	77.7992	62.9883	77.9001	62.9883	77.778	62.9883	77.8655	62.9883	77.7693	62.9883	77.8371	62.9883	77.7706	62.9883	77.8136	62.9883	77.7796	62.9883	77.7943
64.4531	79.12	64.4531	79.1224	64.4531	79.0951	64.4531	79.1025	64.4531	79.0485	64.4531	79.0617	64.4531	78.9824	64.4531	79.0026	64.4531	78.8998	64.4531	78.9287	64.4531	78.8051	64.4531	78.8443	64.4531	78.7029	64.4531	78.7542	64.4531	78.5986	64.4531	78.6631	64.4531	78.4975	64.4531	78.5756	64.4531	78.4045	64.4531	78.4953	64.4531	78.3238	64.4531	78.4248	64.4531	78.2579	64.4531	78.3651	64.4531	78.2083	64.4531	78.3161	64.4531	78.1748	64.4531	78.2765	64.4531	78.1558	64.4531	78.2445	64.4531	78.1491	64.4531	78.2181	64.4531	78.1521	64.4531	78.1959	64.4531	78.1621	64.4531	78.1771
67.3828	79.8219	67.3828	79.8229	67.3828	79.7968	67.3828	79.8005	67.3828	79.7488	67.3828	79.7562	67.3828	79.6801	67.3828	79.6931	67.3828	79.5942	67.3828	79.6152	67.3828	79.4955	67.3828	79.5273	67.3828	79.3895	67.3828	79.4347	67.3828	79.282	67.3828	79.3426	67.3828	79.1787	67.3828	79.2556	67.3828	79.0848	67.3828	79.1773	67.3828	79.0046	67.3828	79.11	67.3828	78.9408	67.3828	79.0544	67.3828	78.8942	67.3828	79.0096	67.3828	78.8645	67.3828	78.974	67.3828	78.8496	67.3828	78.9453	67.3828	78.8468	67.3828	78.9212	67.3828	78.853	67.3828	78.9003	67.3828	78.8653	67.3828	78.8815
68.8477	80.1723	68.8477	80.1702	68.8477	80.1495	68.8477	80.1437	68.8477	80.1026	68.8477	80.0946	68.8477	80.0339	68.8477	80.0263	68.8477	79.9473	68.8477	79.9431	68.8477	79.8473	68.8477	79.8502	68.8477	79.7397	68.8477	79.7534	68.8477	79.6306	68.8477	79.6583	68.8477	79.5262	68.8477	79.5698	68.8477	79.4319	68.8477	79.492	68.8477	79.3523	68.8477	79.427	68.8477	79.29	68.8477	79.3753	68.8477	79.2457	68.8477	79.3359	68.8477	79.2185	68.8477	79.3065	68.8477	79.206	68.8477	79.2843	68.8477	79.2049	68.8477	79.2666	68.8477	79.2116	68.8477	79.2511	68.8477	79.2229	68.8477	79.2365
71.7773	80.8083	71.7773	80.8006	71.7773	80.7892	71.7773	80.7667	71.7773	80.7443	71.7773	80.709	71.7773	80.6758	71.7773	80.631	71.7773	80.5878	71.7773	80.5375	71.7773	80.4851	71.7773	80.4344	71.7773	80.3738	71.7773	80.3281	71.7773	80.2606	71.7773	80.2248	71.7773	80.1518	71.7773	80.1303	71.7773	80.0536	71.7773	80.0489	71.7773	79.9703	71.7773	79.983	71.7773	79.9051	71.7773	79.9333	71.7773	79.8585	71.7773	79.8983	71.7773	79.8296	71.7773	79.8752	71.7773	79.8156	71.7773	79.8603	71.7773	79.8127	71.7773	79.8502	71.7773	79.8169	71.7773	79.8418	71.7773	79.8247	71.7773	79.8334
74.707	81.4081	74.707	81.4042	74.707	81.3838	74.707	81.3727	74.707	81.3325	74.707	81.3159	74.707	81.257	74.707	81.2377	74.707	81.1615	74.707	81.1432	74.707	81.0519	74.707	81.0388	74.707	80.9346	74.707	80.931	74.707	80.8168	74.707	80.8266	74.707	80.7054	74.707	80.7313	74.707	80.6063	74.707	80.6494	74.707	80.5242	74.707	80.5832	74.707	80.4615	74.707	80.5329	74.707	80.4187	74.707	80.497	74.707	80.3941	74.707	80.4725	74.707	80.3846	74.707	80.4556	74.707	80.3863	74.707	80.4428	74.707	80.3949	74.707	80.4313	74.707	80.4068	74.707	80.4193
77.6367	81.9749	77.6367	81.9697	77.6367	81.9503	77.6367	81.9355	77.6367	81.8973	77.6367	81.8751	77.6367	81.8188	77.6367	81.7927	77.6367	81.7197	77.6367	81.6943	77.6367	81.6062	77.6367	81.5869	77.6367	81.4857	77.6367	81.4777	77.6367	81.366	77.6367	81.3739	77.6367	81.2544	77.6367	81.2815	77.6367	81.1576	77.6367	81.2049	77.6367	81.0799	77.6367	81.1459	77.6367	81.0239	77.6367	81.1042	77.6367	80.9892	77.6367	81.0774	77.6367	80.9734	77.6367	81.0615	77.6367	80.9726	77.6367	81.0521	77.6367	80.982	77.6367	81.0452	77.6367	80.9966	77.6367	81.0372	77.6367	81.0124	77.6367	81.0264
79.1016	82.2556	79.1016	82.2501	79.1016	82.2301	79.1016	82.2147	79.1016	82.175	79.1016	82.152	79.1016	82.0936	79.1016	82.0667	79.1016	81.9908	79.1016	81.9652	79.1016	81.8733	79.1016	81.8546	79.1016	81.7488	79.1016	81.7429	79.1016	81.6255	79.1016	81.6374	79.1016	81.5114	79.1016	81.5445	79.1016	81.4132	79.1016	81.4686	79.1016	81.3357	79.1016	81.4116	79.1016	81.2812	79.1016	81.3728	79.1016	81.2493	79.1016	81.3493	79.1016	81.2374	79.1016	81.337	79.1016	81.241	79.1016	81.3307	79.1016	81.2547	79.1016	81.3259	79.1016	81.2732	79.1016	81.3189	79.1016	81.292	79.1016	81.3077
82.0312	82.8064	82.0312	82.8	82.0312	82.7796	82.0312	82.7614	82.0312	82.7207	82.0312	82.6939	82.0312	82.6331	82.0312	82.6024	82.0312	82.5222	82.0312	82.4936	82.0312	82.3949	82.0312	82.3754	82.0312	82.2595	82.0312	82.2561	82.0312	82.125	82.0312	82.1435	82.0312	82.0002	82.0312	82.0445	82.0312	81.8926	82.0312	81.9635	82.0312	81.8076	82.0312	81.9028	82.0312	81.7481	82.0312	81.8616	82.0312	81.7138	82.0312	81.8367	82.0312	81.7018	82.0312	81.8235	82.0312	81.7073	82.0312	81.8165	82.0312	81.7243	82.0312	81.8106	82.0312	81.7466	82.0312	81.802	82.0312	81.7692	82.0312	81.7883
84.9609	83.327	84.9609	83.3199	84.9609	83.2998	84.9609	83.2795	84.9609	83.2394	84.9609	83.2094	84.9609	83.1494	84.9609	83.1148	84.9609	83.0352	84.9609	83.0031	84.9609	82.9044	84.9609	82.8823	84.9609	82.7655	84.9609	82.7611	84.9609	82.6278	84.9609	82.6475	84.9609	82.5002	84.9609	82.5481	84.9609	82.3901	84.9609	82.4671	84.9609	82.3028	84.9609	82.4061	84.9609	82.2411	84.9609	82.364	84.9609	82.2045	84.9609	82.3374	84.9609	82.1902	84.9609	82.3216	84.9609	82.1935	84.9609	82.3113	84.9609	82.2088	84.9609	82.3019	84.9609	82.2303	84.9609	82.29	84.9609	82.2532	84.9609	82.2737
87.8906	83.7453	87.8906	83.7353	87.8906	83.7187	87.8906	83.69	87.8906	83.6568	87.8906	83.6133	87.8906	83.5637	87.8906	83.5112	87.8906	83.4456	87.8906	83.3919	87.8906	83.3108	87.8906	83.2649	87.8906	83.1693	87.8906	83.1399	87.8906	83.0312	87.8906	83.0264	87.8906	82.9065	87.8906	82.9317	87.8906	82.8035	87.8906	82.8607	87.8906	82.7277	87.8906	82.8146	87.8906	82.6813	87.8906	82.7913	87.8906	82.6628	87.8906	82.786	87.8906	82.6676	87.8906	82.792	87.8906	82.6891	87.8906	82.8021	87.8906	82.7198	87.8906	82.8099	87.8906	82.7524	87.8906	82.8104	87.8906	82.7809	87.8906	82.8009
90.8203	84.1964	90.8203	84.1876	90.8203	84.1659	90.8203	84.1408	90.8203	84.0974	90.8203	84.0601	90.8203	83.9951	90.8203	83.9521	90.8203	83.866	90.8203	83.8253	90.8203	83.7189	90.8203	83.6898	90.8203	83.5645	90.8203	83.556	90.8203	83.4139	90.8203	83.4337	90.8203	83.2777	90.8203	83.3308	90.8203	83.1651	90.8203	83.2526	90.8203	83.0819	90.8203	83.2006	90.8203	83.0306	90.8203	83.1727	90.8203	83.0099	90.8203	83.1639	90.8203	83.015	90.8203	83.1673	90.8203	83.0387	90.8203	83.1753	90.8203	83.073	90.8203	83.1809	90.8203	83.1098	90.8203	83.1789	90.8203	83.1425	90.8203	83.1663
95.2148	84.7517	95.2148	84.7382	95.2148	84.7239	95.2148	84.6848	95.2148	84.6563	95.2148	84.5962	95.2148	84.5532	95.2148	84.4797	95.2148	84.4221	95.2148	84.3449	95.2148	84.2726	95.2148	84.2027	95.2148	84.1161	95.2148	84.0648	95.2148	83.9646	95.2148	83.9419	95.2148	83.8295	95.2148	83.8425	95.2148	83.7204	95.2148	83.7717	95.2148	83.6435	95.2148	83.7307	95.2148	83.6007	95.2148	83.7165	95.2148	83.59	95.2148	83.7228	95.2148	83.6055	95.2148	83.7412	95.2148	83.6389	95.2148	83.7631	95.2148	83.681	95.2148	83.7804	95.2148	83.723	95.2148	83.7871	95.2148	83.7576	95.2148	83.7797
98.1445	85.1376	98.1445	85.1248	98.1445	85.1063	98.1445	85.0698	98.1445	85.0326	98.1445	84.9774	98.1445	84.9212	98.1445	84.8557	98.1445	84.7801	98.1445	84.7151	98.1445	84.6198	98.1445	84.5674	98.1445	84.4526	98.1445	84.4252	98.1445	84.2918	98.1445	84.2998	98.1445	84.1497	98.1445	84.2005	98.1445	84.0369	98.1445	84.1325	98.1445	83.9598	98.1445	84.0965	98.1445	83.9206	98.1445	84.0888	98.1445	83.9168	98.1445	84.102	98.1445	83.9417	98.1445	84.1267	98.1445	83.9861	98.1445	84.153	98.1445	84.0397	98.1445	84.1721	98.1445	84.0926	98.1445	84.1776	98.1445	84.1366	98.1445	84.1659
101.074	85.5076	101.074	85.4941	101.074	85.4735	101.074	85.4345	101.074	85.3935	101.074	85.3341	101.074	85.2729	101.074	85.2012	101.074	85.1203	101.074	85.0467	101.074	84.9467	101.074	84.8837	101.074	84.7655	101.074	84.7256	101.074	84.5907	101.074	84.5853	101.074	84.4358	101.074	84.4731	101.074	84.3121	101.074	84.3952	101.074	84.227	101.074	84.3532	101.074	84.1832	101.074	84.3435	101.074	84.178	101.074	84.3582	101.074	84.2044	101.074	84.387	101.074	84.2522	101.074	84.4188	101.074	84.3101	101.074	84.4433	101.074	84.3669	101.074	84.4529	101.074	84.4135	101.074	84.4432
105.469	85.9101	105.469	85.8924	105.469	85.8779	105.469	85.8267	105.469	85.798	105.469	85.7189	105.469	85.6764	105.469	85.5786	105.469	85.5228	105.469	85.4183	105.469	85.3499	105.469	85.2525	105.469	85.1724	105.469	85.0962	105.469	85.0055	105.469	84.963	105.469	84.8632	105.469	84.863	105.469	84.7564	105.469	84.8013	105.469	84.6912	105.469	84.7774	105.469	84.6679	105.469	84.7859	105.469	84.6815	105.469	84.8174	105.469	84.7226	105.469	84.8608	105.469	84.7799	105.469	84.9051	105.469	84.8415	105.469	84.9407	105.469	84.8969	105.469	84.9604	105.469	84.9381	105.469	84.96
108.398	86.1782	108.398	86.1588	108.398	86.1431	108.398	86.0874	108.398	86.0555	108.398	85.9703	108.398	85.9214	108.398	85.8177	108.398	85.7507	108.398	85.643	108.398	85.5568	108.398	85.462	108.398	85.3556	108.398	85.291	108.398	85.1644	108.398	85.1453	108.398	84.9998	108.398	85.0367	108.398	84.8756	108.398	84.9717	108.398	84.8002	108.398	84.9506	108.398	84.7756	108.398	84.967	108.398	84.7969	108.398	85.0102	108.398	84.8535	108.398	85.0666	108.398	84.9312	108.398	85.1226	108.398	85.0151	108.398	85.1661	108.398	85.0916	108.398	85.188	108.398	85.15	108.398	85.1831
112.793	86.6922	112.793	86.6591	112.793	86.6667	112.793	86.5703	112.793	86.584	112.793	86.433	112.793	86.4501	112.793	86.2582	112.793	86.2748	112.793	86.0607	112.793	86.0718	112.793	85.8572	112.793	85.8577	112.793	85.6656	112.793	85.6501	112.793	85.5024	112.793	85.4668	112.793	85.3807	112.793	85.3226	112.793	85.3078	112.793	85.2275	112.793	85.2837	112.793	85.185	112.793	85.3019	112.793	85.1912	112.793	85.3502	112.793	85.2365	112.793	85.4137	112.793	85.3069	112.793	85.477	112.793	85.3869	112.793	85.5269	112.793	85.4618	112.793	85.5534	112.793	85.5193	112.793	85.5512
117.188	86.8931	117.188	86.8616	117.188	86.8639	117.188	86.772	117.188	86.7762	117.188	86.6313	117.188	86.6367	117.188	86.4509	117.188	86.4563	117.188	86.2454	117.188	86.25	117.188	86.0325	117.188	86.0354	117.188	85.8307	117.188	85.8315	117.188	85.6579	117.188	85.6566	117.188	85.5286	117.188	85.5257	117.188	85.4519	117.188	85.4478	117.188	85.4295	117.188	85.4248	117.188	85.4557	117.188	85.4508	117.188	85.5184	117.188	85.5134	117.188	85.6016	117.188	85.5965	117.188	85.6879	117.188	85.6832	117.188	85.7617	117.188	85.7579	117.188	85.8106	117.188	85.8084	117.188	85.827
120.117	87.1843	120.117	87.1525	120.117	87.1536	120.117	87.0612	120.117	87.0625	120.117	86.9181	120.117	86.9175	120.117	86.7352	120.117	86.7299	120.117	86.5282	120.117	86.515	120.117	86.3153	120.117	86.291	120.117	86.1158	120.117	86.0779	120.117	85.9473	120.117	85.8947	120.117	85.8239	120.117	85.7578	120.117	85.7537	120.117	85.6773	120.117	85.7374	120.117	85.6558	120.117	85.7681	120.117	85.6876	120.117	85.8334	120.117	85.7595	120.117	85.917	120.117	85.8543	120.117	86.002	120.117	85.9535	120.117	86.0728	120.117	86.04	120.117	86.1172	120.117	86.1007	120.117	86.1274
124.512	87.5809	124.512	87.555	124.512	87.5386	124.512	87.4635	124.512	87.431	124.512	87.314	124.512	87.2661	124.512	87.1194	124.512	87.0569	124.512	86.8968	124.512	86.8205	124.512	86.6665	124.512	86.577	124.512	86.4501	124.512	86.348	124.512	86.2678	124.512	86.1542	124.512	86.1357	124.512	86.0122	124.512	86.0629	124.512	85.9324	124.512	86.0496	124.512	85.9164	124.512	86.0876	124.512	85.9575	124.512	86.1621	124.512	86.0413	124.512	86.2546	124.512	86.1495	124.512	86.3462	124.512	86.2623	124.512	86.4202	124.512	86.3618	124.512	86.4637	124.512	86.4337	124.512	86.4689
128.906	87.8556	128.906	87.8343	128.906	87.8026	128.906	87.7415	128.906	87.678	128.906	87.5856	128.906	87.4897	128.906	87.3798	128.906	87.2514	128.906	87.1422	128.906	86.9814	128.906	86.8939	128.906	86.702	128.906	86.6578	128.906	86.4379	128.906	86.4558	128.906	86.2131	128.906	86.3058	128.906	86.0482	128.906	86.2184	128.906	85.9562	128.906	86.1953	128.906	85.9403	128.906	86.2288	128.906	85.9925	128.906	86.3036	128.906	86.0962	128.906	86.4	128.906	86.2288	128.906	86.4969	128.906	86.3665	128.906	86.5753	128.906	86.4879	128.906	86.6201	128.906	86.5763	128.906	86.6215
133.301	88.096	133.301	88.0685	133.301	88.0449	133.301	87.9658	133.301	87.9175	133.301	87.7973	133.301	87.7224	133.301	87.5778	133.301	87.4737	133.301	87.3268	133.301	87.1907	133.301	87.0671	133.301	86.8966	133.301	86.8228	133.301	86.6167	133.301	86.6163	133.301	86.3759	133.301	86.4652	133.301	86.195	133.301	86.3789	133.301	86.0875	133.301	86.3572	133.301	86.057	133.301	86.3907	133.301	86.0968	133.301	86.4628	133.301	86.191	133.301	86.5531	133.301	86.3182	133.301	86.6411	133.301	86.455	133.301	86.7084	133.301	86.5799	133.301	86.7411	133.301	86.6756	133.301	86.7309
139.16	88.2366	139.16	88.1969	139.16	88.193	139.16	88.0779	139.16	88.0685	139.16	87.8901	139.16	87.8721	139.16	87.65	139.16	87.619	139.16	87.3796	139.16	87.3298	139.16	87.1046	139.16	87.0296	139.16	86.852	139.16	86.7457	139.16	86.6468	139.16	86.505	139.16	86.508	139.16	86.3295	139.16	86.4447	139.16	86.2333	139.16	86.4549	139.16	86.2192	139.16	86.5255	139.16	86.2789	139.16	86.6354	139.16	86.3944	139.16	86.7605	139.16	86.5422	139.16	86.8769	139.16	86.6973	139.16	86.9645	139.16	86.837	139.16	87.0088	139.16	86.9426	139.16	87.0018
143.555	88.275	143.555	88.228	143.555	88.2343	143.555	88.0977	143.555	88.1089	143.555	87.895	143.555	87.9087	143.555	87.6379	143.555	87.6505	143.555	87.3499	143.555	87.3565	143.555	87.0588	143.555	87.0538	143.555	86.7942	143.555	86.7716	143.555	86.5833	143.555	86.5379	143.555	86.4473	143.555	86.3759	143.555	86.3965	143.555	86.299	143.555	86.4282	143.555	86.3088	143.555	86.5277	143.555	86.3941	143.555	86.6709	143.555	86.534	143.555	86.8303	143.555	86.7019	143.555	86.9791	143.555	86.8709	143.555	87.095	143.555	87.0169	143.555	87.1621	143.555	87.1212	143.555	87.1714
147.949	88.4032	147.949	88.3546	147.949	88.3611	147.949	88.2193	147.949	88.2316	147.949	88.0083	147.949	88.0248	147.949	87.7393	147.949	87.7578	147.949	87.4362	147.949	87.4536	147.949	87.1275	147.949	87.1399	147.949	86.8439	147.949	86.8473	147.949	86.6144	147.949	86.6053	147.949	86.4625	147.949	86.4386	147.949	86.4012	147.949	86.362	147.949	86.4299	147.949	86.3772	147.949	86.5346	147.949	86.4726	147.949	86.6911	147.949	86.6252	147.949	86.8695	147.949	86.8061	147.949	87.0403	147.949	86.9859	147.949	87.1778	147.949	87.1381	147.949	87.2634	147.949	87.2424	147.949	87.2859
153.809	88.5926	153.809	88.5528	153.809	88.5321	153.809	88.4173	153.809	88.3741	153.809	88.1983	153.809	88.1294	153.809	87.915	153.809	87.8163	153.809	87.5929	153.809	87.4604	153.809	87.2625	153.809	87.093	153.809	86.9562	153.809	86.7492	153.809	86.7049	153.809	86.4632	153.809	86.5328	153.809	86.2636	153.809	86.4532	153.809	86.1673	153.809	86.4654	153.809	86.1764	153.809	86.5551	153.809	86.2771	153.809	86.6973	153.809	86.4439	153.809	86.8618	153.809	86.6446	153.809	87.0183	153.809	86.8469	153.809	87.1407	153.809	87.0224	153.809	87.2095	153.809	87.1491	153.809	87.2134
159.668	88.7802	159.668	88.7252	159.668	88.7274	159.668	88.5682	159.668	88.5695	159.668	88.3231	159.668	88.3174	159.668	88.0117	159.668	87.9906	159.668	87.663	159.668	87.616	159.668	87.311	159.668	87.2277	159.668	86.992	159.668	86.8638	159.668	86.7392	159.668	86.5628	159.668	86.5776	159.668	86.3568	159.668	86.5184	159.668	86.2652	159.668	86.5575	159.668	86.2896	159.668	86.6762	159.668	86.4134	159.668	86.8462	159.668	86.6061	159.668	87.0351	159.668	86.8311	159.668	87.2118	159.668	87.0529	159.668	87.3496	159.668	87.2413	159.668	87.4291	159.668	87.3743	159.668	87.4385
165.527	88.8869	165.527	88.8308	165.527	88.8289	165.527	88.6659	165.527	88.66	165.527	88.406	165.527	88.3924	165.527	88.0737	165.527	88.0466	165.527	87.6995	165.527	87.6515	165.527	87.32	165.527	87.2426	165.527	86.9752	165.527	86.8601	165.527	86.703	165.527	86.5443	165.527	86.5329	165.527	86.3297	165.527	86.479	165.527	86.2377	165.527	86.5374	165.527	86.2714	165.527	86.6864	165.527	86.4141	165.527	86.8927	165.527	86.634	165.527	87.1184	165.527	86.8911	165.527	87.3273	165.527	87.1455	165.527	87.489	165.527	87.3627	165.527	87.5815	165.527	87.5169	165.527	87.5919
171.387	88.8847	171.387	88.8234	171.387	88.823	171.387	88.6445	171.387	88.642	171.387	88.363	171.387	88.3548	171.387	88.0028	171.387	87.9834	171.387	87.5969	171.387	87.5583	171.387	87.1853	171.387	87.1176	171.387	86.8118	171.387	86.7044	171.387	86.5179	171.387	86.3627	171.387	86.3354	171.387	86.1304	171.387	86.2794	171.387	86.0317	171.387	86.3442	171.387	86.0704	171.387	86.5059	171.387	86.2281	171.387	86.7281	171.387	86.4688	171.387	86.9707	171.387	86.7479	171.387	87.1955	171.387	87.0214	171.387	87.3708	171.387	87.2522	171.387	87.4733	171.387	87.4134	171.387	87.489
177.246	88.6485	177.246	88.584	177.246	88.5852	177.246	88.3973	177.246	88.3984	177.246	88.1042	177.246	88.1027	177.246	87.7308	177.246	87.7225	177.246	87.3127	177.246	87.2918	177.246	86.8936	177.246	86.8521	177.246	86.5211	177.246	86.4496	177.246	86.2403	177.246	86.1295	177.246	86.0847	177.246	85.9283	177.246	86.0679	177.246	85.8665	177.246	86.18	177.246	85.9431	177.246	86.3907	177.246	86.1361	177.246	86.658	177.246	86.4075	177.246	86.9375	177.246	86.7123	177.246	87.1892	177.246	87.0068	177.246	87.3815	177.246	87.2541	177.246	87.4922	177.246	87.4269	177.246	87.5084
183.105	88.737	183.105	88.6699	183.105	88.6652	183.105	88.4703	183.105	88.4584	183.105	88.1548	183.105	88.1312	183.105	87.7507	183.105	87.7089	183.105	87.2952	183.105	87.2279	183.105	86.8341	183.105	86.7345	183.105	86.4189	183.105	86.2821	183.105	86.1001	183.105	85.9254	183.105	85.9184	183.105	85.7097	183.105	85.8938	183.105	85.6605	183.105	86.02	183.105	85.7754	183.105	86.2653	183.105	86.0246	183.105	86.582	183.105	86.3603	183.105	86.9177	183.105	86.7278	183.105	87.2244	183.105	87.0759	183.105	87.4637	183.105	87.3622	183.105	87.6078	183.105	87.5565	183.105	87.6405
188.965	88.7744	188.965	88.7088	188.965	88.6889	188.965	88.4994	188.965	88.4557	188.965	88.1642	188.965	88.0888	188.965	87.7327	188.965	87.613	188.965	87.2458	188.965	87.0646	188.965	86.7546	188.965	86.4911	188.965	86.3156	188.965	85.9501	188.965	85.9833	188.965	85.5046	188.965	85.7988	188.965	85.2122	188.965	85.7796	188.965	85.1108	188.965	85.9136	188.965	85.2052	188.965	86.1637	188.965	85.4647	188.965	86.4777	188.965	85.8335	188.965	86.8008	188.965	86.2477	188.965	87.0843	188.965	86.649	188.965	87.29	188.965	86.9906	188.965	87.3921	188.965	87.2398	188.965	87.3763
196.289	88.7983	196.289	88.7067	196.289	88.7321	196.289	88.4629	196.289	88.5135	196.289	88.0841	196.289	88.1585	196.289	87.6001	196.289	87.6939	196.289	87.0536	196.289	87.157	196.289	86.4997	196.289	86.5952	196.289	86.0017	196.289	86.0636	196.289	85.6237	196.289	85.6208	196.289	85.4168	196.289	85.3207	196.289	85.4055	196.289	85.2016	196.289	85.5781	196.289	85.2741	196.289	85.8903	196.289	85.5164	196.289	86.2793	196.289	85.8792	196.289	86.6791	196.289	86.2989	196.289	87.0322	196.289	86.7123	196.289	87.2949	196.289	87.0654	196.289	87.4381	196.289	87.3186	196.289	87.4466
203.613	88.8539	203.613	88.7471	203.613	88.7838	203.613	88.4692	203.613	88.5427	203.613	88.0394	203.613	88.149	203.613	87.4905	203.613	87.6333	203.613	86.8701	203.613	87.0393	203.613	86.2406	203.613	86.4225	203.613	85.6752	203.613	85.8482	203.613	85.2489	203.613	85.3845	203.613	85.0213	203.613	85.0909	203.613	85.019	203.613	85.0039	203.613	85.2255	203.613	85.1253	203.613	85.5879	203.613	85.4211	203.613	86.0348	203.613	85.8315	203.613	86.4942	203.613	86.2873	203.613	86.9041	203.613	86.7228	203.613	87.2175	203.613	87.0841	203.613	87.4023	203.613	87.332	203.613	87.4415
210.938	88.9978	210.938	88.891	210.938	88.918	210.938	88.6055	210.938	88.6551	210.938	88.1609	210.938	88.2246	210.938	87.5887	210.938	87.6544	210.938	86.9337	210.938	86.9866	210.938	86.2545	210.938	86.2782	210.938	85.623	210.938	85.6008	210.938	85.1179	210.938	85.0359	210.938	84.811	210.938	84.6626	210.938	84.7451	210.938	84.5356	210.938	84.9158	210.938	84.6626	210.938	85.2716	210.938	84.9999	210.938	85.7328	210.938	85.4685	210.938	86.2163	210.938	85.9814	210.938	86.6514	210.938	86.4623	210.938	86.9857	210.938	86.8538	210.938	87.185	210.938	87.1174	210.938	87.2305
218.262	88.7952	218.262	88.6877	218.262	88.7087	218.262	88.3936	218.262	88.4325	218.262	87.9327	218.262	87.9827	218.262	87.3382	218.262	87.3887	218.262	86.6586	218.262	86.6945	218.262	85.9585	218.262	85.961	218.262	85.3179	218.262	85.266	218.262	84.8237	218.262	84.6992	218.262	84.5527	218.262	84.3472	218.262	84.5463	218.262	84.2665	218.262	84.7916	218.262	84.4594	218.262	85.2256	218.262	84.8713	218.262	85.7589	218.262	85.4134	218.262	86.3021	218.262	85.9926	218.262	86.7815	218.262	86.5299	218.262	87.1437	218.262	86.9666	218.262	87.3542	218.262	87.2629	218.262	87.3953
225.586	89.1971	225.586	89.0827	225.586	89.1017	225.586	88.7652	225.586	88.8004	225.586	88.2633	225.586	88.3085	225.586	87.609	225.586	87.6533	225.586	86.8496	225.586	86.8756	225.586	86.0507	225.586	86.0325	225.586	85.2967	225.586	85.2003	225.586	84.6861	225.586	84.4755	225.586	84.3141	225.586	83.9669	225.586	84.2421	225.586	83.7679	225.586	84.468	225.586	83.9128	225.586	84.9246	225.586	84.3519	225.586	85.5073	225.586	84.9735	225.586	86.1096	225.586	85.6527	225.586	86.6433	225.586	86.2859	225.586	87.0454	225.586	86.8007	225.586	87.2756	225.586	87.1513	225.586	87.3127
232.91	89.2026	232.91	89.0839	232.91	89.1042	232.91	88.7552	232.91	88.7933	232.91	88.2355	232.91	88.2859	232.91	87.5571	232.91	87.6105	232.91	86.7669	232.91	86.8093	232.91	85.9286	232.91	85.9391	232.91	85.1241	232.91	85.0734	232.91	84.45	232.91	84.3018	232.91	84.0043	232.91	83.7249	232.91	83.8583	232.91	83.4347	232.91	84.0232	232.91	83.4798	232.91	84.4405	232.91	83.8342	232.91	85.0054	232.91	84.4042	232.91	85.605	232.91	85.0671	232.91	86.1431	232.91	85.7101	232.91	86.5494	232.91	86.2478	232.91	86.7779	232.91	86.6235	232.91	86.8045
241.699	88.9468	241.699	88.8215	241.699	88.8401	241.699	88.4702	241.699	88.5079	241.699	87.9115	241.699	87.969	241.699	87.1782	241.699	87.2557	241.699	86.3202	241.699	86.4151	241.699	85.4077	241.699	85.5105	241.699	84.5355	241.699	84.6228	241.699	83.8208	241.699	83.8491	241.699	83.3833	241.699	83.2957	241.699	83.3007	241.699	83.0537	241.699	83.5648	241.699	83.1614	241.699	84.0831	241.699	83.5764	241.699	84.7259	241.699	84.1908	241.699	85.3734	241.699	84.8776	241.699	85.9353	241.699	85.5276	241.699	86.3506	241.699	86.0629	241.699	86.5818	241.699	86.4333	241.699	86.6103
250.488	89.3575	250.488	89.2279	250.488	89.2383	250.488	88.8566	250.488	88.8755	250.488	88.2629	250.488	88.2867	250.488	87.4799	250.488	87.5033	250.488	86.5559	250.488	86.5721	250.488	85.5579	250.488	85.5571	250.488	84.5746	250.488	84.5426	250.488	83.7189	250.488	83.6358	250.488	83.1201	250.488	82.9652	250.488	82.8917	250.488	82.657	250.488	83.074	250.488	82.7769	250.488	83.5988	250.488	83.2772	250.488	84.3213	250.488	84.0138	250.488	85.0866	250.488	84.8201	250.488	85.7722	250.488	85.5622	250.488	86.2967	250.488	86.1522	250.488	86.6123	250.488	86.5387	250.488	86.695
259.277	89.4022	259.277	89.2629	259.277	89.2817	259.277	88.8702	259.277	88.9071	259.277	88.243	259.277	88.2968	259.277	87.4148	259.277	87.4833	259.277	86.4369	259.277	86.5148	259.277	85.3837	259.277	85.4575	259.277	84.3577	259.277	84.3975	259.277	83.4912	259.277	83.4444	259.277	82.9301	259.277	82.7301	259.277	82.7846	259.277	82.3877	259.277	83.0665	259.277	82.4949	259.277	83.6748	259.277	83.0144	259.277	84.4514	259.277	83.8027	259.277	85.2459	259.277	84.6833	259.277	85.9443	259.277	85.5077	259.277	86.4694	259.277	86.1751	259.277	86.7728	259.277	86.6253	259.277	86.8276
268.066	89.3852	268.066	89.2213	268.066	89.2709	268.066	88.7873	268.066	88.8841	268.066	88.1057	268.066	88.2444	268.066	87.2134	268.066	87.3845	268.066	86.1622	268.066	86.3501	268.066	85.0206	268.066	85.2009	268.066	83.8787	268.066	84.0153	268.066	82.8571	268.066	82.9021	268.066	82.1104	268.066	82.0135	268.066	81.7966	268.066	81.5339	268.066	81.9946	268.066	81.5994	268.066	82.6323	268.066	82.1853	268.066	83.5227	268.066	83.1034	268.066	84.4658	268.066	84.1209	268.066	85.3096	268.066	85.0555	268.066	85.9568	268.066	85.7928	268.066	86.3498	268.066	86.2701	268.066	86.458
276.855	89.6178	276.855	89.4629	276.855	89.503	276.855	89.0384	276.855	89.1247	276.855	88.3517	276.855	88.4963	276.855	87.4204	276.855	87.6391	276.855	86.2804	276.855	86.5843	276.855	84.9986	276.855	85.3776	276.855	83.6899	276.855	84.0885	276.855	82.5309	276.855	82.8229	276.855	81.7448	276.855	81.7389	276.855	81.5166	276.855	81.0407	276.855	81.861	276.855	80.9049	276.855	82.604	276.855	81.3504	276.855	83.5122	276.855	82.2072	276.855	84.4013	276.855	83.2349	276.855	85.1528	276.855	84.2333	276.855	85.6929	276.855	85.0685	276.855	85.9736	276.855	85.66	276.855	85.966
287.109	89.6281	287.109	89.493	287.109	89.4773	287.109	89.0792	287.109	89.0483	287.109	88.4086	287.109	88.3636	287.109	87.5171	287.109	87.4607	287.109	86.4509	287.109	86.391	287.109	85.262	287.109	85.2172	287.109	84.0098	287.109	84.0082	287.109	82.7818	287.109	82.8414	287.109	81.7421	287.109	81.8216	287.109	81.1646	287.109	81.1171	287.109	81.2997	287.109	80.9455	287.109	82.0965	287.109	81.4158	287.109	83.2211	287.109	82.3735	287.109	84.3475	287.109	83.5151	287.109	85.2858	287.109	84.5903	287.109	85.9493	287.109	85.4578	287.109	86.3029	287.109	86.0498	287.109	86.3358
297.363	90.1317	297.363	89.993	297.363	89.9599	297.363	89.5554	297.363	89.4785	297.363	88.844	297.363	88.702	297.363	87.898	297.363	87.6612	297.363	86.7708	297.363	86.4072	297.363	85.5275	297.363	85.0158	297.363	84.2413	297.363	83.5892	297.363	82.9936	297.363	82.2536	297.363	81.8917	297.363	81.1565	297.363	81.111	297.363	80.4673	297.363	80.898	297.363	80.3526	297.363	81.3979	297.363	80.8775	297.363	82.4407	297.363	81.9023	297.363	83.6636	297.363	83.1433	297.363	84.7704	297.363	84.3317	297.363	85.6008	297.363	85.2904	297.363	86.0843	297.363	85.9252	297.363	86.1941
307.617	89.831	307.617	89.6574	307.617	89.6908	307.617	89.1787	307.617	89.2428	307.617	88.4175	307.617	88.5081	307.617	87.4113	307.617	87.5236	307.617	86.2139	307.617	86.3429	307.617	84.8977	307.617	85.0352	307.617	83.5574	307.617	83.682	307.617	82.3139	307.617	82.3767	307.617	81.3157	307.617	81.2341	307.617	80.7269	307.617	80.4121	307.617	80.6755	307.617	80.1055	307.617	81.1704	307.617	80.4334	307.617	82.0645	307.617	81.295	307.617	83.1208	307.617	82.4182	307.617	84.1125	307.617	83.5349	307.617	84.8772	307.617	84.4649	307.617	85.3196	307.617	85.1043	307.617	85.3971
319.336	89.5915	319.336	89.4254	319.336	89.4246	319.336	88.933	319.336	88.9324	319.336	88.1369	319.336	88.1373	319.336	87.0759	319.336	87.0768	319.336	85.8062	319.336	85.8038	319.336	84.4013	319.336	84.386	319.336	82.9515	319.336	82.9055	319.336	81.571	319.336	81.4616	319.336	80.4217	319.336	80.1945	319.336	79.7441	319.336	79.3314	319.336	79.7886	319.336	79.168	319.336	80.5768	319.336	79.8297	319.336	81.8134	319.336	81.0681	319.336	83.1313	319.336	82.4795	319.336	84.2812	319.336	83.77	319.336	85.1335	319.336	84.7848	319.336	85.6269	319.336	85.4507	319.336	85.7349
329.59	89.7853	329.59	89.6158	329.59	89.6125	329.59	89.1141	329.59	89.1023	329.59	88.3042	329.59	88.2768	329.59	87.2237	329.59	87.1787	329.59	85.9263	329.59	85.8722	329.59	84.4847	329.59	84.4414	329.59	82.9936	329.59	82.981	329.59	81.5734	329.59	81.5829	329.59	80.3812	329.59	80.3339	329.59	79.6298	329.59	79.3549	329.59	79.554	329.59	78.8738	329.59	80.2313	329.59	79.1729	329.59	81.4371	329.59	80.2607	329.59	82.8022	329.59	81.7536	329.59	84.0321	329.59	83.2236	329.59	84.9546	329.59	84.4152	329.59	85.4815	329.59	85.213	329.59	85.572
341.309	89.8504	341.309	89.6391	341.309	89.6718	341.309	89.05	341.309	89.1095	341.309	88.1155	341.309	88.1885	341.309	86.8907	341.309	86.9544	341.309	85.4553	341.309	85.4758	341.309	83.9114	341.309	83.8456	341.309	82.3744	341.309	82.1781	341.309	80.9638	341.309	80.6038	341.309	79.8174	341.309	79.273	341.309	79.1345	341.309	78.3891	341.309	79.1619	341.309	78.2201	341.309	79.9806	341.309	78.9293	341.309	81.328	341.309	80.3222	341.309	82.8	341.309	81.9624	341.309	84.0993	341.309	83.4806	341.309	85.0686	341.309	84.6709	341.309	85.6347	341.309	85.4423	341.309	85.7641
353.027	90.1061	353.027	89.8907	353.027	89.9497	353.027	89.3085	353.027	89.4304	353.027	88.3783	353.027	88.5718	353.027	87.1342	353.027	87.4138	353.027	85.6302	353.027	86.0143	353.027	83.948	353.027	84.4511	353.027	82.2034	353.027	82.82	353.027	80.547	353.027	81.2247	353.027	79.1606	353.027	79.7633	353.027	78.2764	353.027	78.546	353.027	78.1791	353.027	77.7887	353.027	79.0073	353.027	77.8765	353.027	80.4967	353.027	79.0065	353.027	82.1706	353.027	80.7712	353.027	83.6624	353.027	82.5716	353.027	84.7708	353.027	84.0444	353.027	85.3958	353.027	85.0354	353.027	85.4895
366.211	91.0121	366.211	90.7657	366.211	90.8337	366.211	90.1031	366.211	90.2366	366.211	89.05	366.211	89.2428	366.211	87.6532	366.211	87.8945	366.211	85.9871	366.211	86.2601	366.211	84.1569	366.211	84.4413	366.211	82.2921	366.211	82.5699	366.211	80.5267	366.211	80.7863	366.211	78.9963	366.211	79.2159	366.211	77.9065	366.211	78.0077	366.211	77.6251	366.211	77.4381	366.211	78.4417	366.211	77.8289	366.211	80.0653	366.211	79.1294	366.211	81.8704	366.211	80.8596	366.211	83.4261	366.211	82.5461	366.211	84.5447	366.211	83.9145	366.211	85.1612	366.211	84.8363	366.211	85.2581
379.395	90.6287	379.395	90.3972	379.395	90.4497	379.395	89.7597	379.395	89.8689	379.395	88.736	379.395	88.9098	379.395	87.3664	379.395	87.6161	379.395	85.7181	379.395	86.0599	379.395	83.8936	379.395	84.3474	379.395	82.0365	379.395	82.6134	379.395	80.3248	379.395	80.9961	379.395	78.9462	379.395	79.602	379.395	78.083	379.395	78.5102	379.395	77.9216	379.395	77.8688	379.395	78.5912	379.395	77.9875	379.395	79.9752	379.395	79.0756	379.395	81.6883	379.395	80.816	379.395	83.3192	379.395	82.6343	379.395	84.591	379.395	84.134	379.395	85.3549	379.395	85.1279	379.395	85.541
392.578	90.7941	392.578	90.5374	392.578	90.6249	392.578	89.867	392.578	90.0302	392.578	88.8064	392.578	89.0257	392.578	87.394	392.578	87.6484	392.578	85.6902	392.578	85.966	392.578	83.7877	392.578	84.0897	392.578	81.8191	392.578	82.1822	392.578	79.9579	392.578	80.4382	392.578	78.4293	392.578	79.0265	392.578	77.5395	392.578	78.0537	392.578	77.5984	392.578	77.641	392.578	78.6239	392.578	78.0097	392.578	80.2475	392.578	79.244	392.578	82.0144	392.578	80.9943	392.578	83.5917	392.578	82.7554	392.578	84.7775	392.578	84.1973	392.578	85.4617	392.578	85.1654	392.578	85.5942
405.762	90.7526	405.762	90.4833	405.762	90.5499	405.762	89.7514	405.762	89.8836	405.762	88.5852	405.762	88.7798	405.762	87.0327	405.762	87.2846	405.762	85.1634	405.762	85.4697	405.762	83.0701	405.762	83.4445	405.762	80.8771	405.762	81.3662	405.762	78.7627	405.762	79.4317	405.762	77.0308	405.762	77.8446	405.762	76.2223	405.762	76.8125	405.762	76.8156	405.762	76.5845	405.762	78.4723	405.762	77.3489	405.762	80.4304	405.762	78.9486	405.762	82.2403	405.762	80.8996	405.762	83.7311	405.762	82.741	405.762	84.823	405.762	84.202	405.762	85.4549	405.762	85.1609	405.762	85.5776
420.41	91.4479	420.41	91.1978	420.41	91.1928	420.41	90.4534	420.41	90.4408	420.41	89.244	420.41	89.2206	420.41	87.6174	420.41	87.5859	420.41	85.64	420.41	85.6241	420.41	83.3983	420.41	83.4646	420.41	81.0018	420.41	81.2711	420.41	78.5798	420.41	79.1958	420.41	76.2884	420.41	77.3109	420.41	74.4524	420.41	75.6537	420.41	73.9622	420.41	74.5859	420.41	75.5918	420.41	75.0516	420.41	78.3441	420.41	77.1473	420.41	81.0027	420.41	79.7074	420.41	83.1138	420.41	81.9817	420.41	84.5682	420.41	83.7409	420.41	85.3476	420.41	84.9126	420.41	85.4571
435.059	90.6683	435.059	90.3874	435.059	90.4292	435.059	89.5931	435.059	89.6827	435.059	88.3064	435.059	88.4629	435.059	86.5601	435.059	86.8273	435.059	84.4032	435.059	84.8545	435.059	81.9151	435.059	82.6434	435.059	79.2303	435.059	80.3176	435.059	76.5533	435.059	78.0316	435.059	74.1248	435.059	75.9521	435.059	72.2962	435.059	74.2134	435.059	72.1996	435.059	73.0715	435.059	74.7129	435.059	73.4738	435.059	78.1317	435.059	76.0664	435.059	81.1305	435.059	79.4264	435.059	83.4345	435.059	82.3251	435.059	85.0432	435.059	84.4269	435.059	85.9711	435.059	85.7061	435.059	86.2045
451.172	90.936	451.172	90.5873	451.172	90.7294	451.172	89.6779	451.172	89.9727	451.172	88.2078	451.172	88.6727	451.172	86.1927	451.172	86.8435	451.172	83.6792	451.172	84.5234	451.172	80.7652	451.172	81.8097	451.172	77.6255	451.172	78.92	451.172	74.5208	451.172	76.2306	451.172	71.7304	451.172	74.1479	451.172	69.5492	451.172	72.8448	451.172	68.9688	451.172	72.3139	451.172	71.1871	451.172	72.7238	451.172	74.7049	451.172	74.3053	451.172	77.93	451.172	76.697	451.172	80.428	451.172	79.152	451.172	82.1305	451.172	81.1689	451.172	83.0389	451.172	82.5335	451.172	83.1673
465.82	90.7883	465.82	90.4726	465.82	90.5556	465.82	89.5986	465.82	89.7802	465.82	88.1553	465.82	88.4636	465.82	86.1357	465.82	86.6084	465.82	83.5477	465.82	84.2376	465.82	80.4402	465.82	81.4423	465.82	76.9566	465.82	78.4673	465.82	73.3859	465.82	75.7525	465.82	70.0548	465.82	73.6606	465.82	67.2668	465.82	72.0807	465.82	66.9609	465.82	70.9329	465.82	70.6982	465.82	71.4084	465.82	75.1127	465.82	74.277	465.82	78.7729	465.82	77.7369	465.82	81.5559	465.82	80.6635	465.82	83.4779	465.82	82.8337	465.82	84.5532	465.82	84.2157	465.82	84.7943
483.398	90.9366	483.398	90.4734	483.398	90.7762	483.398	89.4065	483.398	89.9914	483.398	87.7618	483.398	88.6064	483.398	85.5568	483.398	86.6677	483.398	82.796	483.398	84.2371	483.398	79.4941	483.398	81.3925	483.398	75.7773	483.398	78.2661	483.398	72.1309	483.398	75.1318	483.398	69.3416	483.398	72.4408	483.398	66.9865	483.398	70.6164	483.398	62.9137	483.398	69.9045	483.398	63.6165	483.398	70.7432	483.398	71.7155	483.398	73.4923	483.398	76.9863	483.398	77.0749	483.398	80.464	483.398	80.2386	483.398	82.7335	483.398	82.5429	483.398	84.023	483.398	83.9278	483.398	84.4155
499.512	91.3099	499.512	90.8517	499.512	91.0728	499.512	89.7093	499.512	90.1441	499.512	87.9041	499.512	88.5421	499.512	85.4585	499.512	86.2941	499.512	82.3851	499.512	83.4291	499.512	78.7071	499.512	79.9793	499.512	74.6221	499.512	76.0266	499.512	70.9233	499.512	71.8773	499.512	68.502	499.512	68.1906	499.512	66.274	499.512	65.2486	499.512	62.2814	499.512	64.5068	499.512	65.3762	499.512	69.1302	499.512	73.2036	499.512	74.3774	499.512	78.4478	499.512	78.514	499.512	81.9829	499.512	81.6437	499.512	84.2712	499.512	83.887	499.512	85.5218	499.512	85.2865	499.512	85.841
517.09	89.8774	517.09	89.5197	517.09	89.5655	517.09	88.4737	517.09	88.5944	517.09	86.7254	517.09	86.9546	517.09	84.2733	517.09	84.6081	517.09	81.1237	517.09	81.4718	517.09	77.2969	517.09	77.3761	517.09	73.0529	517.09	72.0555	517.09	69.8334	517.09	66.4708	517.09	68.9874	517.09	65.9314	517.09	68.1352	517.09	66.7262	517.09	64.3058	517.09	64.7867	517.09	52.856	517.09	54.5606	517.09	69.0339	517.09	64.2865	517.09	75.7599	517.09	73.4238	517.09	79.8695	517.09	78.5647	517.09	82.5178	517.09	81.8201	517.09	84.0039	517.09	83.7016	517.09	84.4028
536.133	90.4962	536.133	90.0027	536.133	90.1982	536.133	88.7167	536.133	89.0994	536.133	86.6231	536.133	87.1785	536.133	83.6851	536.133	84.3923	536.133	79.8338	536.133	80.6485	536.133	74.9724	536.133	75.7658	536.133	69.1505	536.133	69.5445	536.133	64.0728	536.133	63.3898	536.133	63.8531	536.133	63.085	536.133	65.4471	536.133	64.9599	536.133	65.3164	536.133	64.8139	536.133	60.711	536.133	58.5486	536.133	64.7239	536.133	61.1368	536.133	73.6581	536.133	72.1483	536.133	78.56	536.133	77.4312	536.133	81.4002	536.133	80.5919	536.133	82.8406	536.133	82.4129	536.133	83.1475
555.176	91.6708	555.176	91.3637	555.176	91.1918	555.176	90.255	555.176	89.9261	555.176	88.3005	555.176	87.8487	555.176	85.3959	555.176	84.8744	555.176	81.3151	555.176	80.7727	555.176	75.5518	555.176	74.9126	555.176	67.1619	555.176	65.7625	555.176	63.9122	555.176	65.2896	555.176	66.7121	555.176	69.2481	555.176	66.0983	555.176	70.0308	555.176	61.0809	555.176	68.9161	555.176	60.2892	555.176	65.4765	555.176	70.6726	555.176	59.8361	555.176	76.6944	555.176	70.5252	555.176	80.7259	555.176	77.3169	555.176	83.3342	555.176	81.4174	555.176	84.6957	555.176	83.8183	555.176	84.8662
574.219	91.3626	574.219	90.9862	574.219	90.8643	574.219	89.7333	574.219	89.4789	574.219	87.5825	574.219	87.1604	574.219	84.4481	574.219	83.7764	574.219	80.0511	574.219	78.9301	574.219	73.4942	574.219	71.0872	574.219	60.5297	574.219	48.0885	574.219	65.414	574.219	68.6555	574.219	70.6347	574.219	72.2974	574.219	72.4466	574.219	73.3837	574.219	72.1407	574.219	73.1069	574.219	69.4249	574.219	71.2934	574.219	67.9449	574.219	65.4285	574.219	74.4906	574.219	65.2477	574.219	79.6386	574.219	75.8043	574.219	82.8226	574.219	80.8613	574.219	84.4603	574.219	83.5873	574.219	84.7155
594.727	91.5639	594.727	91.0132	594.727	91.171	594.727	89.5236	594.727	89.7754	594.727	87.0353	594.727	87.2451	594.727	83.3733	594.727	83.2955	594.727	78.0529	594.727	77.1435	594.727	69.2146	594.727	65.4408	594.727	60.2224	594.727	67.5858	594.727	69.7791	594.727	72.8862	594.727	72.8236	594.727	74.9101	594.727	73.8363	594.727	75.6875	594.727	73.5678	594.727	75.5265	594.727	72.0559	594.727	74.2359	594.727	70.4578	594.727	70.9655	594.727	73.9948	594.727	65.0165	594.727	78.9109	594.727	72.6949	594.727	82.1376	594.727	78.904	594.727	83.7076	594.727	82.2617	594.727	83.7604
615.234	92.3015	615.234	91.7338	615.234	91.8445	615.234	90.1066	615.234	90.3749	615.234	87.3536	615.234	87.8264	615.234	83.2574	615.234	83.9128	615.234	76.9838	615.234	77.6498	615.234	64.0069	615.234	62.6538	615.234	68.5796	615.234	68.9379	615.234	73.5042	615.234	74.0816	615.234	74.7626	615.234	75.6885	615.234	74.7466	615.234	76.1354	615.234	74.3433	615.234	75.7947	615.234	73.0142	615.234	74.4045	615.234	69.3671	615.234	70.763	615.234	70.4575	615.234	60.2131	615.234	77.2377	615.234	72.7632	615.234	81.4229	615.234	79.4127	615.234	83.582	615.234	82.7362	615.234	84.023
637.207	91.4291	637.207	90.8046	637.207	90.982	637.207	89.0598	637.207	89.4272	637.207	86.0406	637.207	86.6025	637.207	81.3907	637.207	82.0086	637.207	74.3788	637.207	73.8204	637.207	69.3521	637.207	65.2174	637.207	73.0818	637.207	73.4812	637.207	75.2408	637.207	75.7998	637.207	76.3051	637.207	76.5779	637.207	76.8543	637.207	76.9562	637.207	76.7544	637.207	76.8206	637.207	75.6348	637.207	75.8155	637.207	72.8349	637.207	73.4568	637.207	67.6853	637.207	66.7931	637.207	72.2755	637.207	64.674	637.207	78.1209	637.207	76.0621	637.207	80.937	637.207	80.2094	637.207	81.5937
659.18	91.1903	659.18	90.4555	659.18	90.6746	659.18	88.4193	659.18	88.8348	659.18	84.8493	659.18	85.3932	659.18	79.0268	659.18	79.4337	659.18	70.0085	659.18	65.0664	659.18	73.0088	659.18	71.5348	659.18	76.6294	659.18	77.0095	659.18	77.8692	659.18	78.7973	659.18	77.9848	659.18	78.9831	659.18	77.5358	659.18	78.3798	659.18	76.9673	659.18	77.7577	659.18	76.1049	659.18	76.8537	659.18	73.7868	659.18	74.0184	659.18	72.227	659.18	66.2941	659.18	77.978	659.18	73.4718	659.18	82.4824	659.18	80.1321	659.18	84.6749	659.18	83.5259	659.18	84.9701
682.617	92.6853	682.617	92.0413	682.617	92.0468	682.617	90.013	682.617	90.0666	682.617	86.2691	682.617	86.3735	682.617	79.6607	682.617	79.5666	682.617	67.2911	682.617	54.3655	682.617	75.7968	682.617	75.5766	682.617	79.0869	682.617	79.1769	682.617	79.8183	682.617	80.1971	682.617	79.6731	682.617	80.3489	682.617	79.3184	682.617	79.9203	682.617	78.7985	682.617	78.9516	682.617	78.0069	682.617	77.7032	682.617	76.6681	682.617	75.7608	682.617	73.9635	682.617	70.4025	682.617	74.0856	682.617	65.2793	682.617	79.2014	682.617	77.1761	682.617	82.2203	682.617	81.5279	682.617	82.9564
707.52	92.3661	707.52	91.5614	707.52	91.7588	707.52	89.1999	707.52	89.685	707.52	84.7881	707.52	85.7572	707.52	76.876	707.52	78.2998	707.52	73.779	707.52	61.9425	707.52	79.3937	707.52	77.4958	707.52	81.9936	707.52	80.9622	707.52	82.9662	707.52	82.0537	707.52	82.5495	707.52	82.0078	707.52	81.3328	707.52	81.3839	707.52	80.5522	707.52	80.5947	707.52	79.9137	707.52	79.6845	707.52	77.9225	707.52	78.1322	707.52	73.6091	707.52	74.4942	707.52	70.8655	707.52	61.106	707.52	76.95	707.52	73.5077	707.52	80.5943	707.52	79.6397	707.52	81.4845
732.422	92.5286	732.422	91.7609	732.422	91.8035	732.422	89.4036	732.422	89.4843	732.422	84.9557	732.422	85.1084	732.422	76.3773	732.422	76.3867	732.422	74.5799	732.422	71.4252	732.422	80.7334	732.422	79.9868	732.422	82.7315	732.422	82.4234	732.422	83.111	732.422	82.8345	732.422	82.7307	732.422	82.3325	732.422	81.822	732.422	81.424	732.422	80.7927	732.422	80.5951	732.422	80.1529	732.422	80.0762	732.422	79.1249	732.422	79.0236	732.422	75.847	732.422	75.7807	732.422	71.6349	732.422	64.6975	732.422	78.3683	732.422	75.3151	732.422	82.368	732.422	81.4252	732.422	83.3024
757.324	92.5773	757.324	91.6422	757.324	91.9488	757.324	88.9949	757.324	89.6232	757.324	83.996	757.324	84.9414	757.324	76.5629	757.324	74.5937	757.324	79.3775	757.324	74.9895	757.324	82.5647	757.324	81.3325	757.324	83.7002	757.324	83.3012	757.324	83.9752	757.324	83.8204	757.324	83.6348	757.324	83.6741	757.324	82.8866	757.324	83.0863	757.324	82.3658	757.324	82.2226	757.324	81.9653	757.324	81.4764	757.324	80.8865	757.324	80.6467	757.324	78.2816	757.324	78.092	757.324	70.7491	757.324	68.7437	757.324	75.7733	757.324	74.3237	757.324	82.0451	757.324	81.5154	757.324	83.5029
785.156	92.3879	785.156	91.0484	785.156	91.858	785.156	87.4321	785.156	89.3154	785.156	79.4312	785.156	83.9345	785.156	72.0229	785.156	71.7095	785.156	81.7521	785.156	77.8262	785.156	84.7183	785.156	82.9697	785.156	85.7727	785.156	84.5903	785.156	85.8778	785.156	84.545	785.156	85.2659	785.156	83.8942	785.156	83.9286	785.156	83.2534	785.156	82.3349	785.156	82.6582	785.156	81.2644	785.156	82.3896	785.156	80.1857	785.156	82.1438	785.156	77.3177	785.156	80.389	785.156	66.8807	785.156	74.2416	785.156	75.9081	785.156	69.1122	785.156	81.9373	785.156	79.8509	785.156	82.8833
811.523	92.8459	811.523	91.6731	811.523	92.0502	811.523	88.2183	811.523	89.1098	811.523	81.3829	811.523	82.7356	811.523	77.6777	811.523	70.9965	811.523	83.2212	811.523	81.7236	811.523	85.5407	811.523	85.0726	811.523	86.0585	811.523	85.8003	811.523	85.7328	811.523	85.278	811.523	85.2056	811.523	84.1487	811.523	84.5059	811.523	82.8759	811.523	83.5105	811.523	81.879	811.523	82.7697	811.523	81.1883	811.523	82.2487	811.523	80.7658	811.523	80.1483	811.523	79.4522	811.523	74.5413	811.523	73.0084	811.523	75.918	811.523	71.1813	811.523	81.3334	811.523	80.6296	811.523	82.8383
840.82	92.7397	840.82	91.247	840.82	92.0096	840.82	87.1355	840.82	88.6969	840.82	78.2008	840.82	80.7862	840.82	78.8952	840.82	74.8169	840.82	84.3263	840.82	83.2017	840.82	85.9194	840.82	85.7726	840.82	86.0129	840.82	86.4962	840.82	85.4984	840.82	86.1952	840.82	84.627	840.82	85.2735	840.82	83.7272	840.82	84.0979	840.82	83.3945	840.82	82.7396	840.82	83.2375	840.82	82.0697	840.82	82.5172	840.82	82.1187	840.82	80.825	840.82	80.6648	840.82	74.8149	840.82	75.1436	840.82	71.4814	840.82	67.4453	840.82	81.4296	840.82	80.6322	840.82	83.3997
870.117	94.0138	870.117	92.6642	870.117	92.9958	870.117	88.1836	870.117	89.3536	870.117	75.1011	870.117	80.5176	870.117	80.7783	870.117	77.2958	870.117	86.371	870.117	85.5567	870.117	88.079	870.117	87.9648	870.117	88.0865	870.117	88.3075	870.117	87.1147	870.117	87.5993	870.117	85.9349	870.117	86.2745	870.117	84.5841	870.117	84.6277	870.117	82.5761	870.117	83.3112	870.117	81.4629	870.117	81.8092	870.117	81.8986	870.117	81.3228	870.117	80.55	870.117	81.8512	870.117	73.0994	870.117	78.6185	870.117	76.5732	870.117	66.2564	870.117	83.1245	870.117	79.9452	870.117	83.8607
900.879	93.6613	900.879	91.909	900.879	92.7456	900.879	86.6052	900.879	88.6764	900.879	73.1193	900.879	77.6496	900.879	83.5949	900.879	81.4631	900.879	87.1509	900.879	86.7319	900.879	87.9003	900.879	88.4197	900.879	87.7966	900.879	88.8547	900.879	87.2758	900.879	88.6254	900.879	86.2997	900.879	88.0957	900.879	85.264	900.879	87.1854	900.879	84.8411	900.879	85.7372	900.879	84.3297	900.879	84.5034	900.879	83.3945	900.879	83.3936	900.879	81.8761	900.879	81.9063	900.879	76.4244	900.879	78.5046	900.879	69.0838	900.879	71.5351	900.879	81.2625	900.879	80.3873	900.879	83.4196
933.105	93.7986	933.105	92.0548	933.105	92.5881	933.105	86.0568	933.105	87.625	933.105	67.0658	933.105	63.6562	933.105	85.7949	933.105	84.4973	933.105	89.2925	933.105	88.5717	933.105	90.0192	933.105	89.417	933.105	89.546	933.105	88.9903	933.105	88.6339	933.105	88.1947	933.105	87.4716	933.105	87.3702	933.105	85.6534	933.105	86.2567	933.105	82.7296	933.105	84.8035	933.105	81.317	933.105	82.964	933.105	82.1247	933.105	81.7498	933.105	81.4431	933.105	82.1101	933.105	76.0826	933.105	79.1412	933.105	71.1578	933.105	64.5968	933.105	82.0145	933.105	80.2937	933.105	83.8491
965.332	93.7329	965.332	91.9373	965.332	92.2288	965.332	85.5375	965.332	86.0266	965.332	71.0831	965.332	71.9338	965.332	85.9955	965.332	86.3725	965.332	88.8041	965.332	89.1505	965.332	89.1161	965.332	89.7575	965.332	88.6147	965.332	89.7325	965.332	87.9388	965.332	89.0827	965.332	86.6406	965.332	88.0876	965.332	85.6821	965.332	87.2722	965.332	85.3888	965.332	86.0006	965.332	83.838	965.332	84.911	965.332	82.9339	965.332	84.4634	965.332	82.4818	965.332	83.241	965.332	79.5107	965.332	80.7199	965.332	60.8851	965.332	66.9271	965.332	81.1759	965.332	80.2551	965.332	84.1883
1,000.49	94.2794	1,000.49	92.484	1,000.49	92.5875	1,000.49	85.6498	1,000.49	86.2274	1,000.49	75.6162	1,000.49	78.4888	1,000.49	87.3448	1,000.49	87.5209	1,000.49	89.6461	1,000.49	89.9438	1,000.49	89.6611	1,000.49	90.0109	1,000.49	88.9885	1,000.49	89.186	1,000.49	87.9096	1,000.49	88.3429	1,000.49	86.9534	1,000.49	87.4965	1,000.49	86.1331	1,000.49	86.3943	1,000.49	84.5331	1,000.49	84.6501	1,000.49	83.1446	1,000.49	81.9828	1,000.49	82.708	1,000.49	81.3709	1,000.49	82.4709	1,000.49	82.3776	1,000.49	79.1256	1,000.49	81.8815	1,000.49	70.1738	1,000.49	74.9416	1,000.49	80.0902	1,000.49	78.7473	1,000.49	83.0942
1,035.64	94.7346	1,035.64	92.8184	1,035.64	93.3403	1,035.64	85.4295	1,035.64	87.8701	1,035.64	79.4217	1,035.64	78.9695	1,035.64	88.042	1,035.64	87.1047	1,035.64	89.8746	1,035.64	89.5014	1,035.64	89.6076	1,035.64	89.251	1,035.64	88.1638	1,035.64	87.7687	1,035.64	86.6612	1,035.64	86.3662	1,035.64	85.2371	1,035.64	85.6096	1,035.64	83.9473	1,035.64	85.3447	1,035.64	83.2996	1,035.64	84.8655	1,035.64	82.2447	1,035.64	83.219	1,035.64	81.607	1,035.64	82.3608	1,035.64	81.0228	1,035.64	82.2749	1,035.64	78.8223	1,035.64	79.9423	1,035.64	62.1673	1,035.64	72.7193	1,035.64	80.4371	1,035.64	76.9764	1,035.64	82.3343
1,072.27	93.3973	1,072.27	90.9116	1,072.27	91.8217	1,072.27	81.6368	1,072.27	85.4697	1,072.27	80.81	1,072.27	79.6187	1,072.27	87.7226	1,072.27	87.7732	1,072.27	88.9788	1,072.27	89.7705	1,072.27	87.9927	1,072.27	89.1616	1,072.27	85.8648	1,072.27	87.595	1,072.27	83.5315	1,072.27	85.9205	1,072.27	81.9967	1,072.27	84.6171	1,072.27	81.2582	1,072.27	83.1595	1,072.27	80.4584	1,072.27	81.3565	1,072.27	79.2625	1,072.27	79.0516	1,072.27	78.8386	1,072.27	76.5313	1,072.27	81.0816	1,072.27	76.7086	1,072.27	80.8761	1,072.27	78.2491	1,072.27	78.2805	1,072.27	76.1076	1,072.27	79.5851	1,072.27	79.332	1,072.27	81.4881
1,108.89	92.757	1,108.89	90.2144	1,108.89	91.8906	1,108.89	82.9345	1,108.89	87.2787	1,108.89	82.2607	1,108.89	81.712	1,108.89	87.046	1,108.89	86.0786	1,108.89	87.8831	1,108.89	87.2469	1,108.89	86.3988	1,108.89	86.0807	1,108.89	83.5426	1,108.89	83.4331	1,108.89	80.7961	1,108.89	81.4865	1,108.89	78.8353	1,108.89	81.2557	1,108.89	78.0269	1,108.89	81.4668	1,108.89	79.3396	1,108.89	82.3433	1,108.89	79.1824	1,108.89	80.2989	1,108.89	76.9576	1,108.89	77.803	1,108.89	70.3493	1,108.89	76.5348	1,108.89	70.0841	1,108.89	75.7271	1,108.89	76.5925	1,108.89	72.2455	1,108.89	83.0128	1,108.89	80.3085	1,108.89	84.2957
1,148.44	92.894	1,148.44	91.1055	1,148.44	91.4748	1,148.44	85.6145	1,148.44	86.39	1,148.44	82.1423	1,148.44	81.8319	1,148.44	85.6752	1,148.44	86.3668	1,148.44	86.5359	1,148.44	87.7773	1,148.44	85.6531	1,148.44	86.4902	1,148.44	82.8808	1,148.44	83.4823	1,148.44	78.7185	1,148.44	78.7987	1,148.44	74.6196	1,148.44	72.685	1,148.44	70.4357	1,148.44	70.8199	1,148.44	72.7543	1,148.44	74.6014	1,148.44	76.0675	1,148.44	76.2681	1,148.44	76	1,148.44	73.8113	1,148.44	73.3999	1,148.44	69.924	1,148.44	70.4919	1,148.44	66.3321	1,148.44	77.5313	1,148.44	69.4459	1,148.44	81.8684	1,148.44	78.6146	1,148.44	82.1444
1,189.45	95.8756	1,189.45	94.3231	1,189.45	94.4369	1,189.45	89.0241	1,189.45	89.568	1,189.45	79.883	1,189.45	79.236	1,189.45	83.9121	1,189.45	83.032	1,189.45	85.8141	1,189.45	85.9191	1,189.45	85.2256	1,189.45	85.8963	1,189.45	82.7334	1,189.45	84.7255	1,189.45	79.9676	1,189.45	82.0582	1,189.45	78.5595	1,189.45	77.354	1,189.45	74.9072	1,189.45	69.2542	1,189.45	66.1181	1,189.45	67.806	1,189.45	68.1487	1,189.45	75.4979	1,189.45	75.917	1,189.45	77.4293	1,189.45	77.1924	1,189.45	77.3222	1,189.45	71.9804	1,189.45	70.9095	1,189.45	75.7037	1,189.45	65.862	1,189.45	80.9285	1,189.45	74.7884	1,189.45	80.5688
1,230.47	96.5991	1,230.47	94.6779	1,230.47	95.2377	1,230.47	89.1083	1,230.47	90.0711	1,230.47	77.8721	1,230.47	79.4898	1,230.47	82.4119	1,230.47	83.2604	1,230.47	83.5224	1,230.47	85.9188	1,230.47	82.3221	1,230.47	85.6633	1,230.47	80.0174	1,230.47	84.0508	1,230.47	75.2515	1,230.47	81.1696	1,230.47	75.6042	1,230.47	79.0138	1,230.47	76.6258	1,230.47	76.0051	1,230.47	73.9051	1,230.47	62.8932	1,230.47	71.1841	1,230.47	73.2811	1,230.47	62.3198	1,230.47	75.5042	1,230.47	72.7602	1,230.47	76.2638	1,230.47	72.8796	1,230.47	70.2365	1,230.47	66.3383	1,230.47	70.9836	1,230.47	80.678	1,230.47	80.2551	1,230.47	82.7382
1,274.41	95.5288	1,274.41	94.0614	1,274.41	93.8803	1,274.41	88.9318	1,274.41	88.3765	1,274.41	75.1124	1,274.41	74.3463	1,274.41	76.135	1,274.41	78.169	1,274.41	79.2566	1,274.41	81.3745	1,274.41	77.3351	1,274.41	79.3752	1,274.41	73.7134	1,274.41	76.2371	1,274.41	70.6157	1,274.41	74.0697	1,274.41	71.4161	1,274.41	71.5599	1,274.41	73.6848	1,274.41	71.9765	1,274.41	73.529	1,274.41	70.4858	1,274.41	71.9462	1,274.41	68.3429	1,274.41	66.2054	1,274.41	68.7302	1,274.41	65.2067	1,274.41	71.8741	1,274.41	63.4282	1,274.41	65.6121	1,274.41	66.1173	1,274.41	66.9777	1,274.41	77.918	1,274.41	77.2237	1,274.41	80.8107
1,319.82	94.4405	1,319.82	92.5089	1,319.82	93.0419	1,319.82	87.1504	1,319.82	88.0526	1,319.82	76.9503	1,319.82	76.2812	1,319.82	77.7711	1,319.82	70.141	1,319.82	77.9162	1,319.82	73.9368	1,319.82	74.6696	1,319.82	67.8635	1,319.82	73.0001	1,319.82	63.4418	1,319.82	74.1171	1,319.82	67.2954	1,319.82	73.1704	1,319.82	70.5422	1,319.82	69.6309	1,319.82	74.9782	1,319.82	66.6271	1,319.82	75.0308	1,319.82	70.4436	1,319.82	71.1692	1,319.82	69.8885	1,319.82	68.5113	1,319.82	62.4367	1,319.82	75.4039	1,319.82	64.9882	1,319.82	76.4886	1,319.82	71.8446	1,319.82	74.947	1,319.82	78.9464	1,319.82	77.9931	1,319.82	81.0174
1,366.7	94.0179	1,366.7	92.2322	1,366.7	92.7477	1,366.7	86.6975	1,366.7	88.1111	1,366.7	76.4141	1,366.7	80.5357	1,366.7	77.1251	1,366.7	79.1321	1,366.7	76.5193	1,366.7	77.1546	1,366.7	72.4134	1,366.7	77.2075	1,366.7	74.8266	1,366.7	76.3103	1,366.7	74.8419	1,366.7	74.484	1,366.7	74.7478	1,366.7	71.157	1,366.7	70.982	1,366.7	67.8017	1,366.7	72.9192	1,366.7	69.8769	1,366.7	72.8133	1,366.7	70.2637	1,366.7	73.2556	1,366.7	67.0955	1,366.7	69.6881	1,366.7	68.3139	1,366.7	70.2081	1,366.7	75.3707	1,366.7	72.1748	1,366.7	73.8095	1,366.7	76.7391	1,366.7	73.8034	1,366.7	78.3128
1,413.57	94.1905	1,413.57	91.8844	1,413.57	92.8619	1,413.57	86.1362	1,413.57	88.1387	1,413.57	81.251	1,413.57	83.498	1,413.57	81.5767	1,413.57	84.1607	1,413.57	81.1445	1,413.57	83.0102	1,413.57	79.9977	1,413.57	81.0995	1,413.57	80.2753	1,413.57	80.7814	1,413.57	79.5956	1,413.57	79.4339	1,413.57	79.4613	1,413.57	78.1224	1,413.57	77.5814	1,413.57	76.758	1,413.57	73.6213	1,413.57	78.2207	1,413.57	73.0308	1,413.57	76.9887	1,413.57	76.8789	1,413.57	76.0751	1,413.57	73.8475	1,413.57	71.2979	1,413.57	73.6393	1,413.57	75.6753	1,413.57	73.8527	1,413.57	75.5342	1,413.57	73.4968	1,413.57	70.0699	1,413.57	74.8317
1,463.38	94.7944	1,463.38	92.8413	1,463.38	93.1725	1,463.38	88.0151	1,463.38	88.0146	1,463.38	85.5834	1,463.38	85.2789	1,463.38	85.5174	1,463.38	86.3727	1,463.38	84.004	1,463.38	85.6781	1,463.38	83.4081	1,463.38	84.5508	1,463.38	82.1455	1,463.38	84.0359	1,463.38	80.4868	1,463.38	83.0936	1,463.38	78.9931	1,463.38	82.0229	1,463.38	77.3504	1,463.38	80.6188	1,463.38	74.116	1,463.38	80.9174	1,463.38	76.4824	1,463.38	79.9964	1,463.38	77.7768	1,463.38	79.2208	1,463.38	77.7494	1,463.38	78.2397	1,463.38	73.3193	1,463.38	73.8825	1,463.38	72.7755	1,463.38	75.3363	1,463.38	69.1953	1,463.38	70.1284	1,463.38	72.9818
1,516.11	95.0574	1,516.11	92.9304	1,516.11	93.3391	1,516.11	88.5315	1,516.11	87.4693	1,516.11	87.1375	1,516.11	86.1844	1,516.11	87.8117	1,516.11	87.5365	1,516.11	86.321	1,516.11	87.3153	1,516.11	84.6448	1,516.11	86.7356	1,516.11	82.3869	1,516.11	85.6333	1,516.11	81.1383	1,516.11	84.6324	1,516.11	80.4698	1,516.11	83.7249	1,516.11	81.3332	1,516.11	82.6281	1,516.11	79.9258	1,516.11	81.5552	1,516.11	78.7913	1,516.11	80.9131	1,516.11	79.0551	1,516.11	80.2049	1,516.11	76.7816	1,516.11	80.2346	1,516.11	69.2986	1,516.11	76.4308	1,516.11	70.3496	1,516.11	76.6027	1,516.11	73.3588	1,516.11	69.94	1,516.11	76.8654
1,568.85	94.8756	1,568.85	92.9735	1,568.85	93.1249	1,568.85	89.5018	1,568.85	87.5766	1,568.85	89.0495	1,568.85	87.7348	1,568.85	89.1474	1,568.85	88.3608	1,568.85	87.4929	1,568.85	88.0212	1,568.85	85.8234	1,568.85	87.2103	1,568.85	84.3089	1,568.85	85.3789	1,568.85	82.4425	1,568.85	83.2902	1,568.85	80.8884	1,568.85	80.755	1,568.85	79.662	1,568.85	79.5949	1,568.85	80.4417	1,568.85	80.5813	1,568.85	80.1463	1,568.85	79.8107	1,568.85	80.1385	1,568.85	78.8668	1,568.85	79.3641	1,568.85	78.4149	1,568.85	75.8845	1,568.85	73.9628	1,568.85	70.8491	1,568.85	74.3438	1,568.85	77.0883	1,568.85	67.1802	1,568.85	79.1397
1,624.51	93.9178	1,624.51	92.0393	1,624.51	92.3763	1,624.51	88.5327	1,624.51	88.211	1,624.51	89.11	1,624.51	88.3096	1,624.51	88.1052	1,624.51	89.8255	1,624.51	87.5746	1,624.51	89.7572	1,624.51	87.5871	1,624.51	87.5625	1,624.51	86.6913	1,624.51	85.8568	1,624.51	84.405	1,624.51	83.8924	1,624.51	82.462	1,624.51	81.6186	1,624.51	80.7513	1,624.51	78.3462	1,624.51	80.8426	1,624.51	78.8597	1,624.51	78.4014	1,624.51	79.057	1,624.51	80.0521	1,624.51	78.5611	1,624.51	79.4387	1,624.51	80.3688	1,624.51	76.9963	1,624.51	77.2673	1,624.51	74.6724	1,624.51	73.1335	1,624.51	66.1569	1,624.51	65.7408	1,624.51	77.101
1,681.64	93.3456	1,681.64	91.1945	1,681.64	91.9178	1,681.64	87.6288	1,681.64	88.0661	1,681.64	88.6951	1,681.64	88.589	1,681.64	88.988	1,681.64	90.0191	1,681.64	88.834	1,681.64	89.444	1,681.64	87.7494	1,681.64	88.9965	1,681.64	85.4888	1,681.64	86.3949	1,681.64	82.8776	1,681.64	84.1068	1,681.64	81.5545	1,681.64	82.8611	1,681.64	80.1174	1,681.64	79.6444	1,681.64	80.3827	1,681.64	80.0638	1,681.64	78.8539	1,681.64	79.1214	1,681.64	79.3672	1,681.64	78.2687	1,681.64	79.6263	1,681.64	78.4609	1,681.64	69.6138	1,681.64	75.3553	1,681.64	71.2639	1,681.64	72.9049	1,681.64	69.8024	1,681.64	63.5178	1,681.64	77.8575
1,741.7	94.4182	1,741.7	91.929	1,741.7	92.91	1,741.7	89.4248	1,741.7	89.6206	1,741.7	91.3399	1,741.7	90.6403	1,741.7	91.7796	1,741.7	91.3238	1,741.7	91.158	1,741.7	90.8872	1,741.7	89.1114	1,741.7	89.6426	1,741.7	86.7712	1,741.7	87.5823	1,741.7	83.1018	1,741.7	86.2365	1,741.7	81.0396	1,741.7	83.8394	1,741.7	78.3264	1,741.7	80.8532	1,741.7	78.5436	1,741.7	78.439	1,741.7	79.8842	1,741.7	80.9578	1,741.7	77.1355	1,741.7	79.775	1,741.7	78.4757	1,741.7	81.4852	1,741.7	73.8179	1,741.7	81.5164	1,741.7	74.3614	1,741.7	74.1115	1,741.7	76.1374	1,741.7	74.1622	1,741.7	79.8777
1,803.22	94.2654	1,803.22	92.5422	1,803.22	92.6584	1,803.22	90.8659	1,803.22	90.3183	1,803.22	91.9642	1,803.22	91.1666	1,803.22	92.5331	1,803.22	92.0756	1,803.22	92.0111	1,803.22	91.7018	1,803.22	89.9979	1,803.22	89.8107	1,803.22	87.609	1,803.22	87.595	1,803.22	84.9281	1,803.22	85.6006	1,803.22	81.197	1,803.22	82.3574	1,803.22	80.5846	1,803.22	79.4512	1,803.22	77.4787	1,803.22	76.5647	1,803.22	78.9194	1,803.22	80.0415	1,803.22	79.1828	1,803.22	79.4045	1,803.22	80.2115	1,803.22	80.9201	1,803.22	75.8749	1,803.22	80.5572	1,803.22	70.7954	1,803.22	76.1378	1,803.22	70.4478	1,803.22	62.3733	1,803.22	77.1444
1,866.21	92.9506	1,866.21	92.2058	1,866.21	91.7045	1,866.21	90.2096	1,866.21	88.5834	1,866.21	91.1596	1,866.21	90.8143	1,866.21	91.8429	1,866.21	91.7488	1,866.21	90.3827	1,866.21	91.2123	1,866.21	87.9912	1,866.21	88.9903	1,866.21	85.4697	1,866.21	86.9569	1,866.21	82.6033	1,866.21	84.6683	1,866.21	81.9096	1,866.21	80.7003	1,866.21	79.6281	1,866.21	78.1975	1,866.21	79.4411	1,866.21	74.9955	1,866.21	76.1662	1,866.21	77.5762	1,866.21	80.18	1,866.21	77.8015	1,866.21	80.8662	1,866.21	78.0994	1,866.21	79.6163	1,866.21	77.1262	1,866.21	67.1829	1,866.21	71.6281	1,866.21	65.6703	1,866.21	66.2035	1,866.21	76.3665
1,932.13	91.7961	1,932.13	91.286	1,932.13	90.6876	1,932.13	90.3348	1,932.13	88.8082	1,932.13	90.8072	1,932.13	90.1718	1,932.13	90.4268	1,932.13	90.7206	1,932.13	88.2449	1,932.13	89.4317	1,932.13	87.1741	1,932.13	87.8619	1,932.13	83.9087	1,932.13	85.183	1,932.13	83.4811	1,932.13	82.0003	1,932.13	80.6483	1,932.13	80.9847	1,932.13	79.3111	1,932.13	79.4083	1,932.13	78.6505	1,932.13	76.7882	1,932.13	78.1516	1,932.13	75.6405	1,932.13	73.5097	1,932.13	79.8428	1,932.13	81.1852	1,932.13	76.6105	1,932.13	75.6121	1,932.13	78.3419	1,932.13	59.202	1,932.13	59.9617	1,932.13	71.2613	1,932.13	66.3926	1,932.13	73.8556
1,999.51	92.4713	1,999.51	92.642	1,999.51	92.3356	1,999.51	91.702	1,999.51	91.9466	1,999.51	91.6434	1,999.51	92.0584	1,999.51	91.276	1,999.51	91.9027	1,999.51	90.0777	1,999.51	90.8441	1,999.51	88.2718	1,999.51	88.9776	1,999.51	85.1617	1,999.51	86.1171	1,999.51	81.8837	1,999.51	83.6775	1,999.51	79.7079	1,999.51	81.3016	1,999.51	78.8592	1,999.51	80.1327	1,999.51	76.3003	1,999.51	77.4016	1,999.51	77.6413	1,999.51	76.5327	1,999.51	78.8159	1,999.51	79.8418	1,999.51	76.3107	1,999.51	77.4422	1,999.51	72.9365	1,999.51	75.861	1,999.51	59.1968	1,999.51	68.4981	1,999.51	69.1627	1,999.51	60.5543	1,999.51	74.0278
2,069.82	92.4289	2,069.82	93.3954	2,069.82	92.4085	2,069.82	93.2073	2,069.82	92.6791	2,069.82	92.9297	2,069.82	92.7834	2,069.82	92.3417	2,069.82	92.4461	2,069.82	91.1436	2,069.82	91.0129	2,069.82	88.7515	2,069.82	88.8513	2,069.82	85.8741	2,069.82	85.8197	2,069.82	82.1802	2,069.82	82.2973	2,069.82	79.9278	2,069.82	79.7457	2,069.82	79.4553	2,069.82	80.3584	2,069.82	77.7241	2,069.82	77.3859	2,069.82	78.4844	2,069.82	77.7605	2,069.82	78.3929	2,069.82	79.6163	2,069.82	74.9066	2,069.82	78.0914	2,069.82	72.4658	2,069.82	74.7542	2,069.82	59.8227	2,069.82	66.6675	2,069.82	66.1455	2,069.82	65.5082	2,069.82	74.3373
2,143.07	90.4234	2,143.07	92.0905	2,143.07	90.7998	2,143.07	93.1414	2,143.07	91.8165	2,143.07	92.2415	2,143.07	91.4914	2,143.07	91.3912	2,143.07	91.0058	2,143.07	90.0705	2,143.07	89.2931	2,143.07	87.9641	2,143.07	87.0422	2,143.07	85.5569	2,143.07	83.5206	2,143.07	80.7058	2,143.07	79.8251	2,143.07	79.2089	2,143.07	77.779	2,143.07	78.5172	2,143.07	77.6325	2,143.07	77.271	2,143.07	76.9051	2,143.07	78.8077	2,143.07	75.4505	2,143.07	80.4109	2,143.07	77.1845	2,143.07	76.9741	2,143.07	77.4022	2,143.07	70.5874	2,143.07	73.3005	2,143.07	65.9277	2,143.07	68.5056	2,143.07	68.6978	2,143.07	68.8372	2,143.07	72.4393
2,219.24	88.1981	2,219.24	90.9623	2,219.24	89.975	2,219.24	92.6581	2,219.24	92.1944	2,219.24	91.2486	2,219.24	91.7278	2,219.24	89.3611	2,219.24	90.2581	2,219.24	88.0966	2,219.24	88.9807	2,219.24	86.4347	2,219.24	86.9286	2,219.24	83.2194	2,219.24	84.4424	2,219.24	81.0907	2,219.24	80.5453	2,219.24	76.4465	2,219.24	77.8432	2,219.24	77.4096	2,219.24	76.4545	2,219.24	77.3218	2,219.24	77.3098	2,219.24	75.7407	2,219.24	76.8288	2,219.24	78.9841	2,219.24	76.8958	2,219.24	77.7427	2,219.24	77.7333	2,219.24	70.513	2,219.24	73.7093	2,219.24	70.2812	2,219.24	68.1479	2,219.24	64.974	2,219.24	74.9059	2,219.24	65.8381
2,296.88	88.9669	2,296.88	91.8054	2,296.88	91.0853	2,296.88	93.0091	2,296.88	93.7359	2,296.88	91.4197	2,296.88	93.2599	2,296.88	89.5597	2,296.88	91.6605	2,296.88	87.8707	2,296.88	89.9325	2,296.88	86.7947	2,296.88	87.6365	2,296.88	84.6026	2,296.88	85.3277	2,296.88	81.5241	2,296.88	82.6294	2,296.88	76.1664	2,296.88	79.794	2,296.88	73.4999	2,296.88	78.5162	2,296.88	78.0036	2,296.88	78.2318	2,296.88	74.8398	2,296.88	77.1319	2,296.88	76.5508	2,296.88	79.0755	2,296.88	76.3657	2,296.88	78.3973	2,296.88	66.5937	2,296.88	73.3103	2,296.88	70.926	2,296.88	68.2914	2,296.88	70.4827	2,296.88	71.0682	2,296.88	72.1674
2,378.91	89.0527	2,378.91	92.0811	2,378.91	91.1144	2,378.91	93.5926	2,378.91	93.5778	2,378.91	91.7867	2,378.91	92.7759	2,378.91	89.7508	2,378.91	90.5058	2,378.91	88.1122	2,378.91	89.2666	2,378.91	87.2565	2,378.91	87.0668	2,378.91	85.473	2,378.91	85.3781	2,378.91	83.7035	2,378.91	82.2146	2,378.91	80.1097	2,378.91	77.7292	2,378.91	77.6623	2,378.91	73.9667	2,378.91	76.6154	2,378.91	76.7704	2,378.91	77.6415	2,378.91	77.7605	2,378.91	75.2348	2,378.91	76.8177	2,378.91	76.5292	2,378.91	76.375	2,378.91	66.5791	2,378.91	72.1219	2,378.91	70.7227	2,378.91	71.5497	2,378.91	72.4833	2,378.91	71.8306	2,378.91	71.2238
2,462.4	90.0283	2,462.4	92.5149	2,462.4	90.9567	2,462.4	93.5079	2,462.4	93.2425	2,462.4	91.324	2,462.4	92.5927	2,462.4	88.224	2,462.4	90.3802	2,462.4	87.202	2,462.4	88.6964	2,462.4	85.7172	2,462.4	87.113	2,462.4	84.777	2,462.4	85.6453	2,462.4	82.1707	2,462.4	82.8938	2,462.4	80.1711	2,462.4	80.2411	2,462.4	78.3885	2,462.4	75.6689	2,462.4	77.5053	2,462.4	72.8838	2,462.4	78.9502	2,462.4	78.2401	2,462.4	77.1412	2,462.4	75.9796	2,462.4	77.067	2,462.4	75.0804	2,462.4	61.9686	2,462.4	67.2909	2,462.4	69.8058	2,462.4	68.7817	2,462.4	69.8979	2,462.4	71.2988	2,462.4	68.1188
2,548.83	92.4526	2,548.83	93.0338	2,548.83	92.6957	2,548.83	93.6816	2,548.83	93.8599	2,548.83	92.154	2,548.83	92.6152	2,548.83	89.2522	2,548.83	90.53	2,548.83	88.4199	2,548.83	89.5962	2,548.83	87.4434	2,548.83	88.8589	2,548.83	86.3439	2,548.83	86.8191	2,548.83	79.7864	2,548.83	84.3702	2,548.83	78.9195	2,548.83	82.043	2,548.83	78.1149	2,548.83	78.9391	2,548.83	77.0184	2,548.83	76.4021	2,548.83	78.2646	2,548.83	77.9836	2,548.83	76.0559	2,548.83	79.7191	2,548.83	74.0614	2,548.83	76.638	2,548.83	63.0043	2,548.83	67.5737	2,548.83	66.0427	2,548.83	63.3094	2,548.83	70.8729	2,548.83	73.4659	2,548.83	64.2301
2,639.65	92.1284	2,639.65	92.3047	2,639.65	92.4545	2,639.65	93.4196	2,639.65	93.2109	2,639.65	91.751	2,639.65	92.2219	2,639.65	89.1103	2,639.65	88.9963	2,639.65	89.0445	2,639.65	89.2379	2,639.65	87.877	2,639.65	88.7899	2,639.65	86.3431	2,639.65	86.8553	2,639.65	82.7311	2,639.65	83.4012	2,639.65	79.0414	2,639.65	79.234	2,639.65	76.1058	2,639.65	77.8687	2,639.65	78.0116	2,639.65	78.1488	2,639.65	77.8854	2,639.65	76.2718	2,639.65	77.6082	2,639.65	78.3788	2,639.65	75.7711	2,639.65	76.3875	2,639.65	63.768	2,639.65	66.1944	2,639.65	52.9296	2,639.65	61.1528	2,639.65	73.969	2,639.65	74.0584	2,639.65	61.7618
2,731.93	91.7542	2,731.93	92.1098	2,731.93	92.0626	2,731.93	93.1181	2,731.93	93.2761	2,731.93	91.1162	2,731.93	92.2154	2,731.93	88.1775	2,731.93	88.7113	2,731.93	88.6744	2,731.93	88.8788	2,731.93	87.8886	2,731.93	89.5376	2,731.93	85.4528	2,731.93	87.4305	2,731.93	82.5793	2,731.93	84.1002	2,731.93	78.5187	2,731.93	80.2906	2,731.93	75.3817	2,731.93	76.7264	2,731.93	78.1712	2,731.93	78.8742	2,731.93	76.955	2,731.93	75.6916	2,731.93	78.5712	2,731.93	78.6293	2,731.93	75.1355	2,731.93	76.4545	2,731.93	66.2756	2,731.93	68.7478	2,731.93	65.8173	2,731.93	60.7716	2,731.93	70.6577	2,731.93	72.9403	2,731.93	56.9704
2,828.61	92.0857	2,828.61	92.5283	2,828.61	92.7332	2,828.61	93.261	2,828.61	93.5263	2,828.61	91.0435	2,828.61	92.4532	2,828.61	88.1097	2,828.61	88.6505	2,828.61	89.0976	2,828.61	88.9462	2,828.61	88.7582	2,828.61	89.4087	2,828.61	85.3573	2,828.61	87.8529	2,828.61	84.0145	2,828.61	84.438	2,828.61	78.9347	2,828.61	81.387	2,828.61	74.2904	2,828.61	76.4141	2,828.61	77.1772	2,828.61	77.7891	2,828.61	76.9029	2,828.61	77.1636	2,828.61	78.0742	2,828.61	79.5677	2,828.61	74.4209	2,828.61	77.8225	2,828.61	66.6092	2,828.61	70.2786	2,828.61	67.0612	2,828.61	65.4287	2,828.61	71.3694	2,828.61	71.7465	2,828.61	58.6142
2,928.22	91.5044	2,928.22	92.1249	2,928.22	91.5849	2,928.22	92.3387	2,928.22	92.5559	2,928.22	90.2035	2,928.22	91.373	2,928.22	87.7323	2,928.22	87.7457	2,928.22	88.5231	2,928.22	87.534	2,928.22	88.1038	2,928.22	87.4083	2,928.22	84.7784	2,928.22	85.3442	2,928.22	83.5571	2,928.22	81.7287	2,928.22	78.5569	2,928.22	78.4317	2,928.22	77.3147	2,928.22	75.2603	2,928.22	76.0798	2,928.22	72.7199	2,928.22	77.2956	2,928.22	76.2292	2,928.22	77.0749	2,928.22	77.8625	2,928.22	73.8674	2,928.22	75.2069	2,928.22	65.9133	2,928.22	66.0248	2,928.22	70.768	2,928.22	64.0192	2,928.22	72.971	2,928.22	69.347	2,928.22	56.0155
3,030.76	91.8266	3,030.76	92.1884	3,030.76	92.2342	3,030.76	92.2856	3,030.76	92.3587	3,030.76	90.0914	3,030.76	91.2186	3,030.76	87.4727	3,030.76	88.1703	3,030.76	88.4059	3,030.76	88.1009	3,030.76	86.8727	3,030.76	86.7079	3,030.76	84.277	3,030.76	84.0354	3,030.76	81.5362	3,030.76	81.9721	3,030.76	77.5585	3,030.76	77.3309	3,030.76	75.2801	3,030.76	75.5035	3,030.76	74.2217	3,030.76	72.3336	3,030.76	75.472	3,030.76	75.5348	3,030.76	76.7579	3,030.76	74.7671	3,030.76	73.0549	3,030.76	75.7722	3,030.76	63.4531	3,030.76	64.6739	3,030.76	66.5912	3,030.76	63.4168	3,030.76	67.5495	3,030.76	70.4103	3,030.76	60.2161
3,137.7	92.2944	3,137.7	92.6258	3,137.7	92.0845	3,137.7	92.3307	3,137.7	92.7065	3,137.7	90.5267	3,137.7	91.2298	3,137.7	87.7997	3,137.7	88.3533	3,137.7	88.1886	3,137.7	87.493	3,137.7	86.8681	3,137.7	86.8758	3,137.7	84.8875	3,137.7	84.0942	3,137.7	80.8081	3,137.7	81.5822	3,137.7	78.5258	3,137.7	77.4366	3,137.7	73.9641	3,137.7	75.2069	3,137.7	72.722	3,137.7	73.4592	3,137.7	74.6005	3,137.7	73.8023	3,137.7	73.8722	3,137.7	75.5841	3,137.7	72.4378	3,137.7	77.0605	3,137.7	57.5467	3,137.7	62.6359	3,137.7	68.7765	3,137.7	67.4013	3,137.7	65.3415	3,137.7	68.3179	3,137.7	64.0771
3,249.02	91.9951	3,249.02	92.274	3,249.02	91.3998	3,249.02	91.7537	3,249.02	91.9765	3,249.02	90.1803	3,249.02	90.6392	3,249.02	87.7976	3,249.02	87.8775	3,249.02	86.0712	3,249.02	85.7749	3,249.02	85.6289	3,249.02	86.2632	3,249.02	83.8229	3,249.02	84.337	3,249.02	79.8215	3,249.02	81.191	3,249.02	78.3473	3,249.02	77.8136	3,249.02	72.99	3,249.02	73.4535	3,249.02	73.2658	3,249.02	73.936	3,249.02	74.799	3,249.02	72.4831	3,249.02	73.2095	3,249.02	74.9628	3,249.02	73.959	3,249.02	75.3103	3,249.02	54.6798	3,249.02	51.332	3,249.02	68.471	3,249.02	64.8001	3,249.02	62.0301	3,249.02	65.7477	3,249.02	64.4435
3,363.28	91.7028	3,363.28	92.0342	3,363.28	91.544	3,363.28	90.9948	3,363.28	91.2232	3,363.28	90.1738	3,363.28	90.5783	3,363.28	86.9132	3,363.28	87.4845	3,363.28	85.4995	3,363.28	85.49	3,363.28	85.6848	3,363.28	85.8088	3,363.28	83.623	3,363.28	84.0885	3,363.28	79.5295	3,363.28	81.103	3,363.28	77.1368	3,363.28	77.7928	3,363.28	73.0537	3,363.28	74.1595	3,363.28	72.568	3,363.28	73.2068	3,363.28	74.4202	3,363.28	73.3633	3,363.28	73.8461	3,363.28	73.6685	3,363.28	73.1862	3,363.28	73.0265	3,363.28	57.9463	3,363.28	50.028	3,363.28	69.4086	3,363.28	67.6473	3,363.28	62.8838	3,363.28	56.5754	3,363.28	63.0733
3,481.93	92.2552	3,481.93	92.463	3,481.93	92.1595	3,481.93	91.2561	3,481.93	91.3267	3,481.93	90.3956	3,481.93	90.851	3,481.93	87.0909	3,481.93	87.6274	3,481.93	85.1574	3,481.93	85.3272	3,481.93	86.0777	3,481.93	86.3506	3,481.93	83.6108	3,481.93	84.4967	3,481.93	79.7506	3,481.93	80.3092	3,481.93	76.431	3,481.93	76.3918	3,481.93	73.4744	3,481.93	74.2317	3,481.93	69.5051	3,481.93	70.643	3,481.93	73.4265	3,481.93	74.2031	3,481.93	72.855	3,481.93	74.5766	3,481.93	71.0868	3,481.93	73.7041	3,481.93	61.9257	3,481.93	50.185	3,481.93	67.2009	3,481.93	67.4342	3,481.93	58.2905	3,481.93	54.4921	3,481.93	64.2815
3,604.98	92.2578	3,604.98	91.725	3,604.98	92.1763	3,604.98	90.8298	3,604.98	90.5327	3,604.98	90.1136	3,604.98	90.4466	3,604.98	86.3481	3,604.98	87.1956	3,604.98	84.7377	3,604.98	85.1819	3,604.98	84.7754	3,604.98	85.7623	3,604.98	81.7389	3,604.98	83.5443	3,604.98	78.2286	3,604.98	79.5526	3,604.98	74.4176	3,604.98	75.9012	3,604.98	72.6979	3,604.98	72.8879	3,604.98	68.2457	3,604.98	67.276	3,604.98	74.5991	3,604.98	73.3799	3,604.98	73.4522	3,604.98	73.9875	3,604.98	69.099	3,604.98	72.9161	3,604.98	62.2758	3,604.98	45.7813	3,604.98	65.4779	3,604.98	67.3351	3,604.98	54.8641	3,604.98	55.497	3,604.98	61.6697
3,732.42	92.7904	3,732.42	91.9099	3,732.42	92.3218	3,732.42	91.072	3,732.42	90.9515	3,732.42	90.1056	3,732.42	90.6691	3,732.42	86.7952	3,732.42	88.0703	3,732.42	85.4916	3,732.42	86.0573	3,732.42	85.0128	3,732.42	85.8071	3,732.42	82.1075	3,732.42	83.2003	3,732.42	79.0006	3,732.42	80.5584	3,732.42	75.4223	3,732.42	76.3698	3,732.42	72.4782	3,732.42	73.2153	3,732.42	70.9526	3,732.42	69.0859	3,732.42	74.0668	3,732.42	73.367	3,732.42	72.8488	3,732.42	73.3158	3,732.42	67.4224	3,732.42	72.5762	3,732.42	65.2205	3,732.42	57.6261	3,732.42	67.2502	3,732.42	65.815	3,732.42	58.2742	3,732.42	51.3107	3,732.42	58.0441
3,864.26	92.8385	3,864.26	91.8239	3,864.26	92.6037	3,864.26	91.2746	3,864.26	91.0537	3,864.26	89.8641	3,864.26	90.5209	3,864.26	87.3122	3,864.26	88.2618	3,864.26	84.781	3,864.26	85.3896	3,864.26	84.4541	3,864.26	85.149	3,864.26	82.316	3,864.26	83.66	3,864.26	80.1409	3,864.26	79.6955	3,864.26	75.3461	3,864.26	76.0397	3,864.26	72.1122	3,864.26	73.1977	3,864.26	72.5259	3,864.26	71.0713	3,864.26	73.5362	3,864.26	72.6197	3,864.26	73.1639	3,864.26	71.6628	3,864.26	60.7681	3,864.26	70.731	3,864.26	65.5611	3,864.26	61.793	3,864.26	66.4318	3,864.26	65.4256	3,864.26	61.4786	3,864.26	46.8283	3,864.26	56.4977
4,000.49	93.1248	4,000.49	91.5706	4,000.49	92.2669	4,000.49	90.467	4,000.49	90.7418	4,000.49	89.1985	4,000.49	89.6003	4,000.49	87.006	4,000.49	88.4344	4,000.49	83.7487	4,000.49	83.5003	4,000.49	85.0261	4,000.49	84.2458	4,000.49	83.7733	4,000.49	83.388	4,000.49	80.3787	4,000.49	80.9272	4,000.49	74.99	4,000.49	76.2002	4,000.49	72.0585	4,000.49	72.6333	4,000.49	71.6048	4,000.49	72.0645	4,000.49	73.2258	4,000.49	72.0667	4,000.49	71.3292	4,000.49	71.558	4,000.49	61.7749	4,000.49	70.2326	4,000.49	61.2429	4,000.49	64.3025	4,000.49	64.828	4,000.49	62.0029	4,000.49	64.8141	4,000.49	57.9763	4,000.49	51.0635
4,141.11	92.7531	4,141.11	91.6892	4,141.11	92.5417	4,141.11	90.0226	4,141.11	90.4306	4,141.11	88.4379	4,141.11	89.1081	4,141.11	85.3872	4,141.11	87.9193	4,141.11	81.6758	4,141.11	81.4678	4,141.11	83.94	4,141.11	83.871	4,141.11	82.7688	4,141.11	83.0185	4,141.11	77.9528	4,141.11	78.8274	4,141.11	74.9578	4,141.11	74.4178	4,141.11	71.1372	4,141.11	71.7695	4,141.11	71.0238	4,141.11	70.3725	4,141.11	71.5315	4,141.11	71.118	4,141.11	70.538	4,141.11	64.7424	4,141.11	64.1161	4,141.11	66.9255	4,141.11	62.8352	4,141.11	58.9515	4,141.11	58.4899	4,141.11	61.2139	4,141.11	64.1605	4,141.11	63.9955	4,141.11	57.2465
4,287.6	93.4537	4,287.6	93.2465	4,287.6	93.3193	4,287.6	90.9669	4,287.6	90.8535	4,287.6	89.8408	4,287.6	89.7877	4,287.6	86.4427	4,287.6	87.7183	4,287.6	83.3254	4,287.6	83.3874	4,287.6	83.3447	4,287.6	83.8193	4,287.6	82.0817	4,287.6	82.846	4,287.6	78.1199	4,287.6	79.2596	4,287.6	74.8522	4,287.6	75.1298	4,287.6	68.124	4,287.6	72.3833	4,287.6	67.8051	4,287.6	70.5816	4,287.6	71.4306	4,287.6	70.275	4,287.6	68.6852	4,287.6	69.666	4,287.6	60.2025	4,287.6	59.6973	4,287.6	65.5692	4,287.6	61.9102	4,287.6	55.3967	4,287.6	62.5414	4,287.6	61.9977	4,287.6	59.5928	4,287.6	56.082
4,438.48	93.8439	4,438.48	93.9424	4,438.48	93.7463	4,438.48	90.5717	4,438.48	91.9047	4,438.48	89.6665	4,438.48	89.9574	4,438.48	87.315	4,438.48	87.636	4,438.48	83.0691	4,438.48	83.8201	4,438.48	81.4692	4,438.48	82.5224	4,438.48	79.8826	4,438.48	81.7933	4,438.48	78.2458	4,438.48	80.2809	4,438.48	73.6808	4,438.48	76.2162	4,438.48	72.2555	4,438.48	73.7295	4,438.48	69.8678	4,438.48	72.0247	4,438.48	69.5195	4,438.48	69.5586	4,438.48	67.9607	4,438.48	70.9856	4,438.48	54.1356	4,438.48	64.4539	4,438.48	60.7215	4,438.48	63.0732	4,438.48	64.6375	4,438.48	65.1746	4,438.48	60.9486	4,438.48	57.9132	4,438.48	42.4972
4,595.21	95.1006	4,595.21	94.7626	4,595.21	94.6538	4,595.21	91.7991	4,595.21	92.3561	4,595.21	90.5479	4,595.21	90.1118	4,595.21	88.532	4,595.21	87.7476	4,595.21	82.9848	4,595.21	80.907	4,595.21	83.3574	4,595.21	82.8008	4,595.21	81.9966	4,595.21	82.9743	4,595.21	80.021	4,595.21	79.6599	4,595.21	74.0928	4,595.21	74.9826	4,595.21	72.8194	4,595.21	71.9797	4,595.21	66.7955	4,595.21	69.7936	4,595.21	67.924	4,595.21	68.1869	4,595.21	70.6455	4,595.21	68.7235	4,595.21	54.7943	4,595.21	66.4685	4,595.21	63.8939	4,595.21	64.7913	4,595.21	66.1131	4,595.21	62.3237	4,595.21	62.6165	4,595.21	62.4588	4,595.21	58.1694
4,756.35	96.0705	4,756.35	95.0348	4,756.35	95.7155	4,756.35	93.4004	4,756.35	93.4389	4,756.35	90.4226	4,756.35	90.0336	4,756.35	86.6394	4,756.35	87.6154	4,756.35	80.0714	4,756.35	82.3312	4,756.35	82.7384	4,756.35	82.5813	4,756.35	81.8187	4,756.35	83.1883	4,756.35	77.0461	4,756.35	80.162	4,756.35	72.2726	4,756.35	75.6075	4,756.35	71.8663	4,756.35	70.2241	4,756.35	68.69	4,756.35	68.568	4,756.35	69.1139	4,756.35	67.5558	4,756.35	68.9512	4,756.35	66.4831	4,756.35	61.2948	4,756.35	53.6071	4,756.35	59.727	4,756.35	65.6758	4,756.35	65.0879	4,756.35	56.8827	4,756.35	57.9699	4,756.35	63.3067	4,756.35	57.8681
4,924.8	96.1856	4,924.8	94.8124	4,924.8	95.0083	4,924.8	93.2956	4,924.8	93.207	4,924.8	89.363	4,924.8	88.255	4,924.8	86.5267	4,924.8	87.9549	4,924.8	78.7667	4,924.8	83.0372	4,924.8	82.7472	4,924.8	81.5401	4,924.8	82.4142	4,924.8	81.8778	4,924.8	78.0476	4,924.8	78.2509	4,924.8	75.0507	4,924.8	76.0978	4,924.8	67.7634	4,924.8	71.2475	4,924.8	66.564	4,924.8	68.1656	4,924.8	66.6665	4,924.8	62.9576	4,924.8	66.9522	4,924.8	67.9545	4,924.8	59.6609	4,924.8	55.9792	4,924.8	53.7535	4,924.8	56.5059	4,924.8	64.5394	4,924.8	61.9358	4,924.8	60.3209	4,924.8	56.9079	4,924.8	55.0652
5,097.66	96.3018	5,097.66	95.311	5,097.66	94.9934	5,097.66	92.3642	5,097.66	93.9546	5,097.66	89.4185	5,097.66	89.5012	5,097.66	87.4842	5,097.66	88.0947	5,097.66	82.6621	5,097.66	83.1519	5,097.66	81.8966	5,097.66	80.9497	5,097.66	82.074	5,097.66	82.6417	5,097.66	79.8159	5,097.66	78.7295	5,097.66	75.4483	5,097.66	77.646	5,097.66	74.2406	5,097.66	71.0533	5,097.66	71.0912	5,097.66	71.9602	5,097.66	65.4694	5,097.66	62.124	5,097.66	67.3396	5,097.66	71.3146	5,097.66	59.9993	5,097.66	64.6794	5,097.66	56.5616	5,097.66	61.7277	5,097.66	62.6414	5,097.66	64.3886	5,097.66	64.5878	5,097.66	53.9728	5,097.66	57.447
5,277.83	95.9237	5,277.83	94.2444	5,277.83	95.1239	5,277.83	91.6794	5,277.83	93.5112	5,277.83	87.9237	5,277.83	89.6508	5,277.83	86.1857	5,277.83	86.9866	5,277.83	81.9181	5,277.83	81.9693	5,277.83	79.9159	5,277.83	77.9631	5,277.83	81.3335	5,277.83	83.2111	5,277.83	80.5626	5,277.83	81.0135	5,277.83	75.3248	5,277.83	77.9497	5,277.83	78.0533	5,277.83	73.2757	5,277.83	69.762	5,277.83	69.7276	5,277.83	64.6458	5,277.83	67.7644	5,277.83	70.208	5,277.83	67.8641	5,277.83	57.7053	5,277.83	61.7816	5,277.83	59.5777	5,277.83	67.4883	5,277.83	64.4987	5,277.83	49.6374	5,277.83	61.0674	5,277.83	61.7784	5,277.83	62.3832
5,463.87	96.5263	5,463.87	94.8549	5,463.87	96.011	5,463.87	93.5064	5,463.87	93.4752	5,463.87	89.7319	5,463.87	90.1267	5,463.87	88.12	5,463.87	86.9745	5,463.87	82.6458	5,463.87	82.921	5,463.87	82.6765	5,463.87	77.3914	5,463.87	83.4178	5,463.87	83.1618	5,463.87	82.2129	5,463.87	81.4035	5,463.87	78.5914	5,463.87	78.1621	5,463.87	73.1231	5,463.87	74.3523	5,463.87	69.5633	5,463.87	71.5778	5,463.87	65.0519	5,463.87	69.5915	5,463.87	69.881	5,463.87	65.2596	5,463.87	62.7194	5,463.87	61.1015	5,463.87	61.0792	5,463.87	64.1358	5,463.87	68.2279	5,463.87	56.4527	5,463.87	59.9503	5,463.87	63.8265	5,463.87	61.383
5,657.23	96.5656	5,657.23	95.049	5,657.23	95.6311	5,657.23	93.8118	5,657.23	93.5069	5,657.23	89.6206	5,657.23	89.2132	5,657.23	87.5475	5,657.23	85.88	5,657.23	82.9958	5,657.23	85.337	5,657.23	81.0663	5,657.23	77.4963	5,657.23	85.4202	5,657.23	83.9892	5,657.23	81.574	5,657.23	83.2576	5,657.23	80.0035	5,657.23	79.4359	5,657.23	74.0702	5,657.23	76.5275	5,657.23	70.3438	5,657.23	71.3635	5,657.23	67.8925	5,657.23	66.272	5,657.23	67.3154	5,657.23	69.9308	5,657.23	64.4022	5,657.23	62.6414	5,657.23	53.3012	5,657.23	63.6767	5,657.23	62.4761	5,657.23	63.6993	5,657.23	52.785	5,657.23	54.8659	5,657.23	60.5712
5,856.45	96.5598	5,856.45	95.1688	5,856.45	95.0223	5,856.45	93.1505	5,856.45	93.4066	5,856.45	88.8722	5,856.45	89.0799	5,856.45	86.168	5,856.45	85.8576	5,856.45	85.3755	5,856.45	86.1708	5,856.45	80.3463	5,856.45	80.6571	5,856.45	87.1932	5,856.45	86.363	5,856.45	82.8012	5,856.45	83.9244	5,856.45	81.8596	5,856.45	81.1101	5,856.45	75.1301	5,856.45	76.5628	5,856.45	72.4744	5,856.45	73.5811	5,856.45	68.2333	5,856.45	67.1073	5,856.45	64.1088	5,856.45	73.2254	5,856.45	60.6684	5,856.45	63.2347	5,856.45	60.6175	5,856.45	62.116	5,856.45	59.3751	5,856.45	63.6204	5,856.45	61.3517	5,856.45	63.5126	5,856.45	60.8816
6,062.99	95.3943	6,062.99	94.0996	6,062.99	93.9342	6,062.99	91.767	6,062.99	92.224	6,062.99	87.9762	6,062.99	88.561	6,062.99	86.0255	6,062.99	85.3199	6,062.99	85.9429	6,062.99	85.6762	6,062.99	81.3867	6,062.99	80.6248	6,062.99	86.1618	6,062.99	85.3217	6,062.99	82.6499	6,062.99	83.8039	6,062.99	80.3653	6,062.99	79.6423	6,062.99	74.0688	6,062.99	76.5939	6,062.99	70.1216	6,062.99	69.789	6,062.99	68.8213	6,062.99	61.4807	6,062.99	70.5251	6,062.99	69.6014	6,062.99	54.4939	6,062.99	63.1114	6,062.99	64.1054	6,062.99	62.5495	6,062.99	59.9127	6,062.99	63.3238	6,062.99	53.5714	6,062.99	62.0326	6,062.99	54.9676
6,276.86	93.8687	6,276.86	93.3108	6,276.86	93.0764	6,276.86	91.5529	6,276.86	90.7136	6,276.86	88.2709	6,276.86	87.9772	6,276.86	86.9855	6,276.86	84.6376	6,276.86	85.5137	6,276.86	84.1112	6,276.86	81.4228	6,276.86	80.2075	6,276.86	84.1838	6,276.86	83.337	6,276.86	83.1173	6,276.86	83.1246	6,276.86	78.5636	6,276.86	79.6918	6,276.86	73.7387	6,276.86	74.7845	6,276.86	69.5549	6,276.86	69.2343	6,276.86	67.8971	6,276.86	68.4016	6,276.86	64.5598	6,276.86	69.9792	6,276.86	51.2475	6,276.86	66.1429	6,276.86	55.7003	6,276.86	62.7632	6,276.86	59.5685	6,276.86	59.1403	6,276.86	60.3578	6,276.86	58.273	6,276.86	55.6546
6,498.05	93.0427	6,498.05	92.801	6,498.05	92.1167	6,498.05	91.343	6,498.05	89.5256	6,498.05	88.008	6,498.05	86.4497	6,498.05	85.7782	6,498.05	82.7117	6,498.05	83.8841	6,498.05	82.7075	6,498.05	79.5377	6,498.05	78.9919	6,498.05	82.7427	6,498.05	81.7525	6,498.05	81.2256	6,498.05	81.7833	6,498.05	76.5033	6,498.05	77.1682	6,498.05	70.3334	6,498.05	69.2506	6,498.05	68.3548	6,498.05	63.7674	6,498.05	64.9631	6,498.05	62.8625	6,498.05	64.7531	6,498.05	63.2158	6,498.05	50.8571	6,498.05	60.9384	6,498.05	54.1499	6,498.05	54.5617	6,498.05	59.1035	6,498.05	55.6483	6,498.05	62.7618	6,498.05	45.1496	6,498.05	51.6922
6,726.56	91.1878	6,726.56	91.0163	6,726.56	89.8755	6,726.56	89.2579	6,726.56	87.426	6,726.56	86.0336	6,726.56	84.4796	6,726.56	82.3022	6,726.56	80.048	6,726.56	82.1356	6,726.56	82.0154	6,726.56	76.614	6,726.56	78.5265	6,726.56	80.8377	6,726.56	79.3976	6,726.56	78.6748	6,726.56	78.1249	6,726.56	73.6382	6,726.56	73.8427	6,726.56	67.5813	6,726.56	64.4567	6,726.56	63.6224	6,726.56	63.3027	6,726.56	65.3708	6,726.56	63.5936	6,726.56	58.0231	6,726.56	66.1833	6,726.56	59.0247	6,726.56	59.9873	6,726.56	54.8588	6,726.56	53.2675	6,726.56	52.3185	6,726.56	52.3874	6,726.56	57.5362	6,726.56	48.1861	6,726.56	46.7332
6,963.87	89.0726	6,963.87	89.0719	6,963.87	88.2995	6,963.87	87.1359	6,963.87	85.2613	6,963.87	84.5325	6,963.87	83.8708	6,963.87	78.5465	6,963.87	80.2546	6,963.87	78.6771	6,963.87	80.524	6,963.87	73.6159	6,963.87	77.714	6,963.87	77.8665	6,963.87	75.4724	6,963.87	76.7919	6,963.87	76.9346	6,963.87	71.1527	6,963.87	70.3382	6,963.87	64.3185	6,963.87	66.5197	6,963.87	61.7884	6,963.87	59.2373	6,963.87	63.2008	6,963.87	59.7045	6,963.87	54.2355	6,963.87	65.0913	6,963.87	55.288	6,963.87	60.9029	6,963.87	51.7368	6,963.87	49.1539	6,963.87	53.6388	6,963.87	51.6398	6,963.87	51.4474	6,963.87	50.3546	6,963.87	50.8991
7,209.96	87.8666	7,209.96	87.1108	7,209.96	87.9042	7,209.96	84.3303	7,209.96	86.3542	7,209.96	79.325	7,209.96	84.741	7,209.96	71.5933	7,209.96	81.7306	7,209.96	72.6116	7,209.96	81.278	7,209.96	72.9936	7,209.96	77.706	7,209.96	73.5988	7,209.96	74.638	7,209.96	72.5439	7,209.96	75.2694	7,209.96	66.0611	7,209.96	68.3159	7,209.96	59.3115	7,209.96	64.5484	7,209.96	59.607	7,209.96	59.9848	7,209.96	59.39	7,209.96	58.7645	7,209.96	50.6856	7,209.96	63.086	7,209.96	47.0254	7,209.96	58.1908	7,209.96	47.2315	7,209.96	23.8324	7,209.96	50.9627	7,209.96	49.0604	7,209.96	51.322	7,209.96	48.9405	7,209.96	53.8359
7,464.84	88.0919	7,464.84	86.1924	7,464.84	88.6039	7,464.84	81.9335	7,464.84	87.5595	7,464.84	74.5383	7,464.84	85.166	7,464.84	71.9469	7,464.84	82.9592	7,464.84	75.0578	7,464.84	81.9501	7,464.84	72.7226	7,464.84	78.7954	7,464.84	70.735	7,464.84	75.1221	7,464.84	66.4982	7,464.84	76.6942	7,464.84	59.6637	7,464.84	69.8766	7,464.84	48.4943	7,464.84	67.1868	7,464.84	55.1196	7,464.84	60.7898	7,464.84	56.0369	7,464.84	61.2215	7,464.84	42.1439	7,464.84	62.8543	7,464.84	31.409	7,464.84	58.4681	7,464.84	42.0579	7,464.84	39.9873	7,464.84	52.146	7,464.84	49.2217	7,464.84	43.9168	7,464.84	49.5871	7,464.84	53.1561
7,727.05	88.537	7,727.05	86.0158	7,727.05	88.7596	7,727.05	81.1418	7,727.05	87.9232	7,727.05	75.0848	7,727.05	84.5985	7,727.05	77.655	7,727.05	82.7096	7,727.05	77.3587	7,727.05	81.4454	7,727.05	70.5506	7,727.05	79.4368	7,727.05	66.5	7,727.05	75.9273	7,727.05	65.5859	7,727.05	76.9515	7,727.05	55.1098	7,727.05	70.066	7,727.05	52.1502	7,727.05	68.0007	7,727.05	55.889	7,727.05	62.7512	7,727.05	55.3387	7,727.05	60.6566	7,727.05	47.9316	7,727.05	60.7733	7,727.05	45.0069	7,727.05	58.5591	7,727.05	41.4602	7,727.05	50.3516	7,727.05	46.7677	7,727.05	53.1201	7,727.05	33.4118	7,727.05	50.9779	7,727.05	52.7
7,999.51	89.5116	7,999.51	86.8406	7,999.51	89.9392	7,999.51	82.542	7,999.51	88.1437	7,999.51	79.7393	7,999.51	84.862	7,999.51	81.2409	7,999.51	83.268	7,999.51	79.9073	7,999.51	82.042	7,999.51	71.9144	7,999.51	80.3877	7,999.51	65.6653	7,999.51	76.6314	7,999.51	71.3111	7,999.51	76.415	7,999.51	64.003	7,999.51	71.1243	7,999.51	61.6734	7,999.51	67.7564	7,999.51	57.4902	7,999.51	60.1358	7,999.51	55.8984	7,999.51	55.2797	7,999.51	51.1191	7,999.51	57.5655	7,999.51	52.8408	7,999.51	54.3888	7,999.51	40.2284	7,999.51	55.3091	7,999.51	52.5137	7,999.51	56.9713	7,999.51	42.9103	7,999.51	52.5816	7,999.51	52.4011
8,282.23	90.3601	8,282.23	88.1856	8,282.23	90.5671	8,282.23	84.8993	8,282.23	88.4125	8,282.23	82.7839	8,282.23	85.2212	8,282.23	83.5157	8,282.23	84.408	8,282.23	80.2596	8,282.23	83.0021	8,282.23	73.9136	8,282.23	80.6533	8,282.23	71.0832	8,282.23	76.2011	8,282.23	74.8496	8,282.23	75.6727	8,282.23	67.8644	8,282.23	71.516	8,282.23	65.374	8,282.23	65.4113	8,282.23	61.8722	8,282.23	61.0779	8,282.23	61.4826	8,282.23	56.7589	8,282.23	28.2765	8,282.23	57.8737	8,282.23	51.1943	8,282.23	53.7316	8,282.23	51.1968	8,282.23	55.8292	8,282.23	54.3879	8,282.23	57.4428	8,282.23	53.4827	8,282.23	53.9382	8,282.23	57.486
8,573.73	90.6073	8,573.73	88.8859	8,573.73	90.3936	8,573.73	84.8558	8,573.73	88.1441	8,573.73	85.5723	8,573.73	85.5231	8,573.73	84.5833	8,573.73	85.3926	8,573.73	78.8864	8,573.73	83.5563	8,573.73	76.8893	8,573.73	79.5502	8,573.73	73.4796	8,573.73	75.4141	8,573.73	74.7201	8,573.73	75.0013	8,573.73	67.0131	8,573.73	71.408	8,573.73	65.6937	8,573.73	65.2811	8,573.73	56.9681	8,573.73	56.7576	8,573.73	58.983	8,573.73	51.0686	8,573.73	50.6686	8,573.73	51.6977	8,573.73	49.9952	8,573.73	48.54	8,573.73	47.8278	8,573.73	58.1683	8,573.73	56.5954	8,573.73	52.4043	8,573.73	49.2998	8,573.73	50.3391	8,573.73	55.5072
8,876.95	90.3275	8,876.95	88.6699	8,876.95	90.0395	8,876.95	86.7269	8,876.95	87.2041	8,876.95	85.9801	8,876.95	85.6709	8,876.95	84.2669	8,876.95	85.263	8,876.95	80.8926	8,876.95	82.3185	8,876.95	76.8815	8,876.95	78.221	8,876.95	73.405	8,876.95	73.6293	8,876.95	74.2251	8,876.95	73.3634	8,876.95	67.7836	8,876.95	69.7163	8,876.95	65.1092	8,876.95	62.3767	8,876.95	60.9623	8,876.95	56.4275	8,876.95	52.0151	8,876.95	55.116	8,876.95	56.4504	8,876.95	53.1002	8,876.95	44.7423	8,876.95	52.1092	8,876.95	57.2599	8,876.95	33.6711	8,876.95	52.1503	8,876.95	50.049	8,876.95	48.0578	8,876.95	38.3961	8,876.95	50.7493
9,188.96	90.4393	9,188.96	88.8208	9,188.96	89.5572	9,188.96	86.3762	9,188.96	87.5561	9,188.96	86.3523	9,188.96	86.1218	9,188.96	84.3586	9,188.96	84.6849	9,188.96	80.6741	9,188.96	81.2399	9,188.96	77.014	9,188.96	76.8442	9,188.96	72.3411	9,188.96	72.0233	9,188.96	73.2226	9,188.96	72.755	9,188.96	68.9371	9,188.96	69.0221	9,188.96	65.4103	9,188.96	63.405	9,188.96	59.7755	9,188.96	57.7724	9,188.96	56.8666	9,188.96	42.3217	9,188.96	58.7707	9,188.96	47.0682	9,188.96	44.224	9,188.96	50.5794	9,188.96	58.5749	9,188.96	51.2505	9,188.96	57.497	9,188.96	37.9054	9,188.96	51.3227	9,188.96	52.8844	9,188.96	52.7665
9,514.16	89.7968	9,514.16	89.143	9,514.16	89.6388	9,514.16	85.696	9,514.16	86.6161	9,514.16	86.004	9,514.16	86.0993	9,514.16	83.7535	9,514.16	83.8685	9,514.16	77.9773	9,514.16	80.1442	9,514.16	75.7516	9,514.16	75.9624	9,514.16	71.8734	9,514.16	71.6078	9,514.16	72.2436	9,514.16	71.7858	9,514.16	69.6559	9,514.16	70.8924	9,514.16	65.4245	9,514.16	64.7943	9,514.16	56.6423	9,514.16	57.854	9,514.16	47.7344	9,514.16	50.0671	9,514.16	56.1962	9,514.16	55.732	9,514.16	23.0677	9,514.16	50.4209	9,514.16	54.4324	9,514.16	49.6824	9,514.16	52.3395	9,514.16	51.0735	9,514.16	53.818	9,514.16	58.6504	9,514.16	52.1697
9,849.61	88.9854	9,849.61	88.3897	9,849.61	88.9893	9,849.61	85.3898	9,849.61	86.5675	9,849.61	84.4429	9,849.61	85.5595	9,849.61	81.6331	9,849.61	82.5721	9,849.61	76.4925	9,849.61	78.5891	9,849.61	71.9248	9,849.61	73.9133	9,849.61	72.7942	9,849.61	70.4064	9,849.61	72.0262	9,849.61	73.0857	9,849.61	68.0128	9,849.61	70.4513	9,849.61	63.1473	9,849.61	62.906	9,849.61	57.1158	9,849.61	58.009	9,849.61	51.5628	9,849.61	59.0625	9,849.61	55.4607	9,849.61	57.6282	9,849.61	43.9607	9,849.61	52.7804	9,849.61	44.9912	9,849.61	55.4105	9,849.61	47.4586	9,849.61	51.7243	9,849.61	47.8327	9,849.61	57.1056	9,849.61	49.9066
10,196.8	87.7675	10,196.8	86.0297	10,196.8	87.964	10,196.8	83.384	10,196.8	86.1186	10,196.8	83.3059	10,196.8	85.4479	10,196.8	79.2197	10,196.8	82.6663	10,196.8	73.4047	10,196.8	77.1475	10,196.8	71.207	10,196.8	74.4806	10,196.8	70.4066	10,196.8	70.3507	10,196.8	69.6859	10,196.8	72.802	10,196.8	67.6068	10,196.8	70.1726	10,196.8	61.9921	10,196.8	62.8395	10,196.8	47.3117	10,196.8	56.642	10,196.8	51.3335	10,196.8	53.2178	10,196.8	46.1948	10,196.8	55.8396	10,196.8	49.6042	10,196.8	43.3037	10,196.8	50.9301	10,196.8	53.6961	10,196.8	48.7505	10,196.8	49.6668	10,196.8	47.4956	10,196.8	50.0443	10,196.8	52.3195
10,555.7	86.3212	10,555.7	84.0078	10,555.7	86.9421	10,555.7	83.6764	10,555.7	86.0232	10,555.7	82.1224	10,555.7	84.9372	10,555.7	77.7572	10,555.7	81.9343	10,555.7	72.8024	10,555.7	77.8922	10,555.7	71.107	10,555.7	73.9252	10,555.7	69.677	10,555.7	68.5148	10,555.7	67.5635	10,555.7	71.6569	10,555.7	64.3403	10,555.7	69.4139	10,555.7	58.661	10,555.7	59.4735	10,555.7	49.852	10,555.7	55.2909	10,555.7	46.7359	10,555.7	50.7444	10,555.7	42.6155	10,555.7	56.0904	10,555.7	50.8186	10,555.7	44.9682	10,555.7	47.1066	10,555.7	54.2658	10,555.7	52.0362	10,555.7	51.425	10,555.7	45.3722	10,555.7	44.3369	10,555.7	45.6409
10,927.7	87.1666	10,927.7	85.1986	10,927.7	87.1432	10,927.7	84.8035	10,927.7	87.2122	10,927.7	82.4491	10,927.7	85.3708	10,927.7	77.1654	10,927.7	82.3223	10,927.7	74.3509	10,927.7	78.4522	10,927.7	70.79	10,927.7	74.4411	10,927.7	68.5301	10,927.7	68.205	10,927.7	65.671	10,927.7	71.6411	10,927.7	64.7016	10,927.7	68.614	10,927.7	58.1762	10,927.7	60.9939	10,927.7	43.7768	10,927.7	55.027	10,927.7	50.1207	10,927.7	53.1994	10,927.7	52.5918	10,927.7	55.6834	10,927.7	49.9395	10,927.7	31.0489	10,927.7	50.7814	10,927.7	55.0845	10,927.7	50.1293	10,927.7	44.7134	10,927.7	41.4081	10,927.7	44.5311	10,927.7	50.3353
11,313	88.7332	11,313	86.9186	11,313	88.422	11,313	85.4449	11,313	87.419	11,313	81.8177	11,313	84.9405	11,313	76.165	11,313	80.9888	11,313	72.1344	11,313	78.3124	11,313	67.1009	11,313	72.3798	11,313	65.0075	11,313	66.2726	11,313	63.2941	11,313	67.3232	11,313	58.7424	11,313	66.098	11,313	55.0229	11,313	55.445	11,313	44.1746	11,313	48.4816	11,313	49.8144	11,313	42.4589	11,313	50.2473	11,313	49.8628	11,313	42.9876	11,313	47.8809	11,313	48.714	11,313	49.9355	11,313	50.1575	11,313	39.5431	11,313	42.4678	11,313	43.228	11,313	47.2998
11,712.9	90.2772	11,712.9	88.2113	11,712.9	89.547	11,712.9	84.9398	11,712.9	87.1363	11,712.9	79.1709	11,712.9	82.6618	11,712.9	70.9141	11,712.9	77.8001	11,712.9	64.1392	11,712.9	71.9835	11,712.9	59.3357	11,712.9	63.7711	11,712.9	54.5067	11,712.9	56.9572	11,712.9	56.3918	11,712.9	61.7118	11,712.9	53.1196	11,712.9	59.7724	11,712.9	54.5557	11,712.9	42.4328	11,712.9	37.6776	11,712.9	46.7737	11,712.9	44.5673	11,712.9	44.0749	11,712.9	47.1253	11,712.9	54.5984	11,712.9	47.1082	11,712.9	44.9948	11,712.9	50.1281	11,712.9	36.1324	11,712.9	47.0727	11,712.9	44.1582	11,712.9	45.7188	11,712.9	47.924	11,712.9	43.3583
12,126	90.3532	12,126	87.8029	12,126	89.205	12,126	83.6014	12,126	86.0203	12,126	77.5574	12,126	80.8898	12,126	66.4631	12,126	75.3856	12,126	63.7559	12,126	70.1087	12,126	60.6619	12,126	60.3276	12,126	49.3486	12,126	52.9591	12,126	49.1083	12,126	59.8846	12,126	55.4909	12,126	58.1014	12,126	50.0951	12,126	50.8682	12,126	16.9539	12,126	51.5747	12,126	45.3239	12,126	49.7428	12,126	51.3545	12,126	53.0664	12,126	51.4179	12,126	44.3993	12,126	48.2476	12,126	37.1312	12,126	46.8687	12,126	48.1515	12,126	41.3032	12,126	40.683	12,126	50.0935
12,553.7	89.5178	12,553.7	86.6148	12,553.7	88.5523	12,553.7	82.4557	12,553.7	84.8722	12,553.7	73.9151	12,553.7	79.6515	12,553.7	65.8916	12,553.7	73.768	12,553.7	57.4654	12,553.7	67.6616	12,553.7	59.8355	12,553.7	64.0699	12,553.7	50.0713	12,553.7	57.7834	12,553.7	46.4117	12,553.7	59.4481	12,553.7	52.2126	12,553.7	54.2387	12,553.7	45.4331	12,553.7	53.1271	12,553.7	37.6497	12,553.7	52.4143	12,553.7	43.5281	12,553.7	50.4968	12,553.7	49.7106	12,553.7	53.9445	12,553.7	39.4155	12,553.7	45.4224	12,553.7	46.956	12,553.7	36.9097	12,553.7	46.7982	12,553.7	48.2257	12,553.7	44.131	12,553.7	48.1969	12,553.7	46.7585
12,996.1	88.2671	12,996.1	85.079	12,996.1	87.4729	12,996.1	79.9588	12,996.1	83.8154	12,996.1	71.8721	12,996.1	78.6128	12,996.1	52.3564	12,996.1	72.0736	12,996.1	62.7017	12,996.1	65.9414	12,996.1	58.5863	12,996.1	63.405	12,996.1	56.1612	12,996.1	58.3147	12,996.1	54.9343	12,996.1	56.5834	12,996.1	54.7555	12,996.1	52.3052	12,996.1	48.1948	12,996.1	49.8225	12,996.1	44.4838	12,996.1	49.9824	12,996.1	44.3885	12,996.1	50.1107	12,996.1	48.6225	12,996.1	54.5194	12,996.1	45.989	12,996.1	31.991	12,996.1	47.8013	12,996.1	47.7782	12,996.1	45.2865	12,996.1	47.3429	12,996.1	42.8925	12,996.1	44.3312	12,996.1	46.9004
13,454.6	87.3063	13,454.6	84.0282	13,454.6	86.3186	13,454.6	77.6348	13,454.6	81.948	13,454.6	65.0871	13,454.6	76.5204	13,454.6	56.3591	13,454.6	68.4996	13,454.6	62.5071	13,454.6	59.9951	13,454.6	61.8083	13,454.6	61.1095	13,454.6	56.8106	13,454.6	48.5063	13,454.6	56.0325	13,454.6	43.4482	13,454.6	53.7027	13,454.6	42.3847	13,454.6	39.9654	13,454.6	44.8805	13,454.6	34.5146	13,454.6	43.6743	13,454.6	40.8737	13,454.6	43.0141	13,454.6	46.5986	13,454.6	50.3259	13,454.6	42.6419	13,454.6	34.8486	13,454.6	41.6697	13,454.6	46.2194	13,454.6	44.636	13,454.6	36.8153	13,454.6	35.0501	13,454.6	44.2127	13,454.6	45.007
13,929.2	85.2205	13,929.2	81.7021	13,929.2	84.089	13,929.2	73.6267	13,929.2	79.0291	13,929.2	51.556	13,929.2	72.571	13,929.2	62.9904	13,929.2	64.5408	13,929.2	63.4079	13,929.2	50.8815	13,929.2	63.3426	13,929.2	49.6193	13,929.2	57.3314	13,929.2	51.1372	13,929.2	53.064	13,929.2	42.7445	13,929.2	49.0417	13,929.2	30.2764	13,929.2	37.9014	13,929.2	34.1671	13,929.2	39.0776	13,929.2	39.7748	13,929.2	33.1602	13,929.2	43.1228	13,929.2	35.0895	13,929.2	45.068	13,929.2	37.2983	13,929.2	35.793	13,929.2	39.887	13,929.2	38.7821	13,929.2	41.6147	13,929.2	35.9161	13,929.2	42.4829	13,929.2	38.1255	13,929.2	39.2318
14,419.9	83.3383	14,419.9	78.7203	14,419.9	80.5453	14,419.9	63.7978	14,419.9	71.6693	14,419.9	64.9852	14,419.9	61.1064	14,419.9	67.0261	14,419.9	61.6125	14,419.9	66.2626	14,419.9	61.2944	14,419.9	63.4893	14,419.9	60.499	14,419.9	58.6431	14,419.9	60.3206	14,419.9	55.8717	14,419.9	54.6904	14,419.9	51.717	14,419.9	48.9904	14,419.9	41.274	14,419.9	40.9603	14,419.9	43.567	14,419.9	16.8649	14,419.9	41.2688	14,419.9	35.307	14,419.9	36.4133	14,419.9	40.5481	14,419.9	32.072	14,419.9	32.7744	14,419.9	37.4484	14,419.9	41.211	14,419.9	39.1499	14,419.9	39.228	14,419.9	39.6641	14,419.9	39.6282	14,419.9	40.2526
14,928.2	81.3453	14,928.2	73.7639	14,928.2	77.8981	14,928.2	66.1788	14,928.2	63.0634	14,928.2	71.1235	14,928.2	60.8625	14,928.2	71.7253	14,928.2	66.9132	14,928.2	68.8107	14,928.2	66.7478	14,928.2	67.9977	14,928.2	64.7648	14,928.2	61.6074	14,928.2	63.6197	14,928.2	57.6082	14,928.2	55.3088	14,928.2	52.9684	14,928.2	50.2697	14,928.2	40.4274	14,928.2	45.9218	14,928.2	42.9204	14,928.2	39.0367	14,928.2	42.0877	14,928.2	41.4548	14,928.2	41.1445	14,928.2	41.8825	14,928.2	39.3091	14,928.2	28.0686	14,928.2	33.4026	14,928.2	38.3808	14,928.2	40.2979	14,928.2	42.7636	14,928.2	42.7904	14,928.2	38.8133	14,928.2	45.843
15,455.6	83.1868	15,455.6	76.8756	15,455.6	77.4474	15,455.6	80.2625	15,455.6	76.0917	15,455.6	78.8934	15,455.6	70.9186	15,455.6	78.2619	15,455.6	70.7384	15,455.6	74.7765	15,455.6	68.6448	15,455.6	73.0496	15,455.6	67.7982	15,455.6	67.5809	15,455.6	66.9914	15,455.6	62.8028	15,455.6	53.2625	15,455.6	53.6773	15,455.6	54.176	15,455.6	47.856	15,455.6	46.4624	15,455.6	36.6604	15,455.6	45.1375	15,455.6	41.1556	15,455.6	48.5337	15,455.6	48.3782	15,455.6	48.4598	15,455.6	36.3478	15,455.6	32.2564	15,455.6	39.8945	15,455.6	38.0521	15,455.6	38.8172	15,455.6	45.3657	15,455.6	47.6065	15,455.6	44.1345	15,455.6	51.5819
16,000.5	88.3361	16,000.5	85.2525	16,000.5	82.7342	16,000.5	85.9849	16,000.5	82.5945	16,000.5	83.4107	16,000.5	76.0843	16,000.5	81.8495	16,000.5	76.8273	16,000.5	78.7624	16,000.5	72.2339	16,000.5	76.7334	16,000.5	74.5096	16,000.5	71.4362	16,000.5	72.0892	16,000.5	66.2909	16,000.5	62.9192	16,000.5	58.8552	16,000.5	54.8523	16,000.5	52.7075	16,000.5	46.4943	16,000.5	44.6686	16,000.5	37.8096	16,000.5	41.6749	16,000.5	50.3122	16,000.5	47.312	16,000.5	51.8998	16,000.5	47.8142	16,000.5	37.6924	16,000.5	49.8013	16,000.5	40.4196	16,000.5	43.9003	16,000.5	50.0675	16,000.5	46.6053	16,000.5	53.1816	16,000.5	54.5031
16,564.5	90.4837	16,564.5	87.2916	16,564.5	86.5896	16,564.5	86.2353	16,564.5	85.5348	16,564.5	82.1413	16,564.5	79.2917	16,564.5	81.5132	16,564.5	79.0722	16,564.5	78.4928	16,564.5	73.4705	16,564.5	76.7628	16,564.5	75.3959	16,564.5	72.2479	16,564.5	73.3667	16,564.5	66.5275	16,564.5	65.0641	16,564.5	52.4042	16,564.5	54.9821	16,564.5	46.6496	16,564.5	48.5653	16,564.5	44.3386	16,564.5	43.8834	16,564.5	45.3399	16,564.5	47.2564	16,564.5	44.7036	16,564.5	44.2024	16,564.5	39.8294	16,564.5	13.0588	16,564.5	40.1155	16,564.5	37.8526	16,564.5	47.6295	16,564.5	50.9732	16,564.5	48.2162	16,564.5	53.604	16,564.5	55.1522
17,148.9	94.9164	17,148.9	91.7511	17,148.9	91.283	17,148.9	91.3528	17,148.9	90.1414	17,148.9	87.2928	17,148.9	84.7843	17,148.9	85.4782	17,148.9	84.0587	17,148.9	81.9777	17,148.9	79.165	17,148.9	80.601	17,148.9	79.2642	17,148.9	78.2196	17,148.9	80.129	17,148.9	70.0279	17,148.9	69.7867	17,148.9	57.8832	17,148.9	61.5244	17,148.9	48.6874	17,148.9	50.0925	17,148.9	47.2113	17,148.9	47.1838	17,148.9	49.3402	17,148.9	52.1574	17,148.9	52.9828	17,148.9	44.2133	17,148.9	40.0158	17,148.9	39.2321	17,148.9	48.3714	17,148.9	48.3173	17,148.9	49.5447	17,148.9	51.0951	17,148.9	54.7832	17,148.9	57.0003	17,148.9	53.8669
17,752.4	93.2769	17,752.4	90.6506	17,752.4	90.8033	17,752.4	90.4941	17,752.4	90.0543	17,752.4	87.6052	17,752.4	85.6032	17,752.4	83.41	17,752.4	83.4487	17,752.4	81.6409	17,752.4	80.9155	17,752.4	80.916	17,752.4	80.1955	17,752.4	76.5983	17,752.4	79.6576	17,752.4	70.0905	17,752.4	70.6606	17,752.4	59.1646	17,752.4	63.3623	17,752.4	52.5817	17,752.4	55.8851	17,752.4	43.4374	17,752.4	36.0124	17,752.4	50.1939	17,752.4	53.0717	17,752.4	49.297	17,752.4	46.3773	17,752.4	35.062	17,752.4	43.0726	17,752.4	44.909	17,752.4	40.7988	17,752.4	49.1005	17,752.4	39.956	17,752.4	56.9034	17,752.4	54.971	17,752.4	50.0033
18,379.4	87.6991	18,379.4	86.6749	18,379.4	86.8779	18,379.4	87.0075	18,379.4	86.6172	18,379.4	84.906	18,379.4	82.8925	18,379.4	80.1357	18,379.4	79.8588	18,379.4	78.7208	18,379.4	78.7497	18,379.4	77.2361	18,379.4	77.6001	18,379.4	72.806	18,379.4	73.6662	18,379.4	68.6506	18,379.4	70.2122	18,379.4	57.9983	18,379.4	62.4714	18,379.4	50.3019	18,379.4	55.0111	18,379.4	47.6303	18,379.4	45.9937	18,379.4	48.2041	18,379.4	51.0088	18,379.4	44.6535	18,379.4	50.0999	18,379.4	34.3817	18,379.4	40.1764	18,379.4	48.9974	18,379.4	38.869	18,379.4	45.8021	18,379.4	48.3182	18,379.4	53.5723	18,379.4	54.6469	18,379.4	45.843
19,026.9	80.5528	19,026.9	82.9511	19,026.9	82.4236	19,026.9	82.6724	19,026.9	81.9777	19,026.9	80.8521	19,026.9	78.7526	19,026.9	75.9614	19,026.9	75.4778	19,026.9	73.7769	19,026.9	73.9385	19,026.9	70.2711	19,026.9	71.58	19,026.9	70.2174	19,026.9	69.5604	19,026.9	64.3938	19,026.9	65.982	19,026.9	52.4281	19,026.9	58.1567	19,026.9	44.1362	19,026.9	50.1644	19,026.9	43.5877	19,026.9	42.1069	19,026.9	40.5682	19,026.9	42.2189	19,026.9	36.5029	19,026.9	42.4654	19,026.9	33.8687	19,026.9	34.5564	19,026.9	47.3777	19,026.9	32.1407	19,026.9	40.7986	19,026.9	45.1908	19,026.9	51.4783	19,026.9	50.3779	19,026.9	47.156
19,697.8	74.4783	19,697.8	80.4813	19,697.8	78.074	19,697.8	78.3176	19,697.8	77.3427	19,697.8	76.2499	19,697.8	75.049	19,697.8	71.685	19,697.8	72.3173	19,697.8	70.0048	19,697.8	70.3588	19,697.8	64.9075	19,697.8	65.7642	19,697.8	65.6438	19,697.8	66.0396	19,697.8	58.6605	19,697.8	60.2568	19,697.8	47.5417	19,697.8	52.4107	19,697.8	43.4601	19,697.8	41.4796	19,697.8	40.3718	19,697.8	32.9472	19,697.8	34.3857	19,697.8	33.212	19,697.8	30.4787	19,697.8	15.3844	19,697.8	38.7886	19,697.8	33.2084	19,697.8	42.3057	19,697.8	35.3537	19,697.8	39.2777	19,697.8	41.1106	19,697.8	48.6817	19,697.8	48.882	19,697.8	47.7965
19,999.5	72.2977	19,999.5	79.1858	19,999.5	76.2316	19,999.5	76.7834	19,999.5	75.5952	19,999.5	73.9914	19,999.5	73.2165	19,999.5	70.5766	19,999.5	70.8374	19,999.5	68.3787	19,999.5	68.4995	19,999.5	63.4288	19,999.5	63.6613	19,999.5	63.2619	19,999.5	64.5163	19,999.5	53.1043	19,999.5	59.16	19,999.5	48.4737	19,999.5	50.3547	19,999.5	41.8982	19,999.5	42.8223	19,999.5	39.17	19,999.5	44.9407	19,999.5	43.0345	19,999.5	46.7472	19,999.5	46.0077	19,999.5	34.2061	19,999.5	31.3503	19,999.5	39.2213	19,999.5	39.6507	19,999.5	37.2525	19,999.5	42.5797	19,999.5	34.6379	19,999.5	50.6358	19,999.5	45.3621	19,999.5	44.1033
