"SPL Vertical"
"On-Axis"		"10°"		"-10°"		"20°"		"-20°"		"30°"		"-30°"		"40°"		"-40°"		"50°"		"-50°"		"60°"		"-60°"		"70°"		"-70°"		"80°"		"-80°"		"90°"		"-90°"		"100°"		"-100°"		"110°"		"-110°"		"120°"		"-120°"		"130°"		"-130°"		"140°"		"-140°"		"150°"		"-150°"		"160°"		"-160°"		"170°"		"-170°"		"180°"
"Frequency [Hz]"	"Sound Pessure Level [dB]  / [2.83V 1m] "	"Frequency [Hz]"	"Sound Pessure Level [dB]  / [2.83V 1m] "	"Frequency [Hz]"	"Sound Pessure Level [dB]  / [2.83V 1m] "	"Frequency [Hz]"	"Sound Pessure Level [dB]  / [2.83V 1m] "	"Frequency [Hz]"	"Sound Pessure Level [dB]  / [2.83V 1m] "	"Frequency [Hz]"	"Sound Pessure Level [dB]  / [2.83V 1m] "	"Frequency [Hz]"	"Sound Pessure Level [dB]  / [2.83V 1m] "	"Frequency [Hz]"	"Sound Pessure Level [dB]  / [2.83V 1m] "	"Frequency [Hz]"	"Sound Pessure Level [dB]  / [2.83V 1m] "	"Frequency [Hz]"	"Sound Pessure Level [dB]  / [2.83V 1m] "	"Frequency [Hz]"	"Sound Pessure Level [dB]  / [2.83V 1m] "	"Frequency [Hz]"	"Sound Pessure Level [dB]  / [2.83V 1m] "	"Frequency [Hz]"	"Sound Pessure Level [dB]  / [2.83V 1m] "	"Frequency [Hz]"	"Sound Pessure Level [dB]  / [2.83V 1m] "	"Frequency [Hz]"	"Sound Pessure Level [dB]  / [2.83V 1m] "	"Frequency [Hz]"	"Sound Pessure Level [dB]  / [2.83V 1m] "	"Frequency [Hz]"	"Sound Pessure Level [dB]  / [2.83V 1m] "	"Frequency [Hz]"	"Sound Pessure Level [dB]  / [2.83V 1m] "	"Frequency [Hz]"	"Sound Pessure Level [dB]  / [2.83V 1m] "	"Frequency [Hz]"	"Sound Pessure Level [dB]  / [2.83V 1m] "	"Frequency [Hz]"	"Sound Pessure Level [dB]  / [2.83V 1m] "	"Frequency [Hz]"	"Sound Pessure Level [dB]  / [2.83V 1m] "	"Frequency [Hz]"	"Sound Pessure Level [dB]  / [2.83V 1m] "	"Frequency [Hz]"	"Sound Pessure Level [dB]  / [2.83V 1m] "	"Frequency [Hz]"	"Sound Pessure Level [dB]  / [2.83V 1m] "	"Frequency [Hz]"	"Sound Pessure Level [dB]  / [2.83V 1m] "	"Frequency [Hz]"	"Sound Pessure Level [dB]  / [2.83V 1m] "	"Frequency [Hz]"	"Sound Pessure Level [dB]  / [2.83V 1m] "	"Frequency [Hz]"	"Sound Pessure Level [dB]  / [2.83V 1m] "	"Frequency [Hz]"	"Sound Pessure Level [dB]  / [2.83V 1m] "	"Frequency [Hz]"	"Sound Pessure Level [dB]  / [2.83V 1m] "	"Frequency [Hz]"	"Sound Pessure Level [dB]  / [2.83V 1m] "	"Frequency [Hz]"	"Sound Pessure Level [dB]  / [2.83V 1m] "	"Frequency [Hz]"	"Sound Pessure Level [dB]  / [2.83V 1m] "	"Frequency [Hz]"	"Sound Pessure Level [dB]  / [2.83V 1m] "	"Frequency [Hz]"	"Sound Pessure Level [dB]  / [2.83V 1m] "
20.5078	50.2857	20.5078	50.0892	20.5078	50.5114	20.5078	49.9381	20.5078	50.7476	20.5078	49.844	20.5078	50.9749	20.5078	49.8127	20.5078	51.1756	20.5078	49.8443	20.5078	51.3354	20.5078	49.9338	20.5078	51.4436	20.5078	50.0719	20.5078	51.4949	20.5078	50.2468	20.5078	51.4893	20.5078	50.445	20.5078	51.4331	20.5078	50.6526	20.5078	51.3396	20.5078	50.8557	20.5078	51.2274	20.5078	51.0407	20.5078	51.1192	20.5078	51.1946	20.5078	51.037	20.5078	51.3063	20.5078	50.9981	20.5078	51.3674	20.5078	51.0102	20.5078	51.3749	20.5078	51.0686	20.5078	51.3329	20.5078	51.1576	20.5078	51.2538
21.9727	52.1875	21.9727	51.7964	21.9727	52.6102	21.9727	51.4448	21.9727	53.0532	21.9727	51.1377	21.9727	53.5012	21.9727	50.8783	21.9727	53.9358	21.9727	50.6689	21.9727	54.3368	21.9727	50.511	21.9727	54.6843	21.9727	50.406	21.9727	54.9609	21.9727	50.3553	21.9727	55.1533	21.9727	50.3598	21.9727	55.2529	21.9727	50.42	21.9727	55.256	21.9727	50.5353	21.9727	55.1635	21.9727	50.7043	21.9727	54.9804	21.9727	50.9246	21.9727	54.7155	21.9727	51.1939	21.9727	54.3812	21.9727	51.5092	21.9727	53.993	21.9727	51.867	21.9727	53.5686	21.9727	52.2621	21.9727	53.127	21.9727	52.6862
23.4375	53.1987	23.4375	53.0278	23.4375	53.4016	23.4375	52.8942	23.4375	53.6274	23.4375	52.7994	23.4375	53.864	23.4375	52.742	23.4375	54.0973	23.4375	52.7192	23.4375	54.313	23.4375	52.7269	23.4375	54.4984	23.4375	52.7614	23.4375	54.6436	23.4375	52.8191	23.4375	54.7427	23.4375	52.8972	23.4375	54.7942	23.4375	52.9927	23.4375	54.8007	23.4375	53.1031	23.4375	54.7687	23.4375	53.2254	23.4375	54.7062	23.4375	53.3565	23.4375	54.6216	23.4375	53.493	23.4375	54.5217	23.4375	53.6318	23.4375	54.4112	23.4375	53.7704	23.4375	54.2931	23.4375	53.9069	23.4375	54.1691	23.4375	54.0401
24.9023	56.4222	24.9023	56.2399	24.9023	56.6439	24.9023	56.0977	24.9023	56.9002	24.9023	55.9936	24.9023	57.1816	24.9023	55.9246	24.9023	57.4741	24.9023	55.887	24.9023	57.7604	24.9023	55.8777	24.9023	58.0222	24.9023	55.8941	24.9023	58.2427	24.9023	55.9345	24.9023	58.4086	24.9023	55.9974	24.9023	58.5119	24.9023	56.082	24.9023	58.5501	24.9023	56.1873	24.9023	58.5259	24.9023	56.3123	24.9023	58.4466	24.9023	56.4556	24.9023	58.3219	24.9023	56.6154	24.9023	58.1629	24.9023	56.7895	24.9023	57.9802	24.9023	56.9756	24.9023	57.783	24.9023	57.1711	24.9023	57.5788	24.9023	57.3734
26.3672	59.3132	26.3672	59.0875	26.3672	59.5811	26.3672	58.9121	26.3672	59.8789	26.3672	58.7905	26.3672	60.1913	26.3672	58.7221	26.3672	60.5016	26.3672	58.7031	26.3672	60.7931	26.3672	58.7277	26.3672	61.0508	26.3672	58.7897	26.3672	61.2627	26.3672	58.8827	26.3672	61.4203	26.3672	59.0011	26.3672	61.5194	26.3672	59.1402	26.3672	61.5604	26.3672	59.2958	26.3672	61.5472	26.3672	59.4644	26.3672	61.4871	26.3672	59.6429	26.3672	61.3887	26.3672	59.8282	26.3672	61.2609	26.3672	60.0177	26.3672	61.1114	26.3672	60.209	26.3672	60.9465	26.3672	60.3997	26.3672	60.7708	26.3672	60.5877
27.832	60.8027	27.832	60.6118	27.832	61.0255	27.832	60.4562	27.832	61.2741	27.832	60.3367	27.832	61.5395	27.832	60.2527	27.832	61.81	27.832	60.2022	27.832	62.0719	27.832	60.1827	27.832	62.3107	27.832	60.1917	27.832	62.5127	27.832	60.2269	27.832	62.6669	27.832	60.2868	27.832	62.7659	27.832	60.3702	27.832	62.8071	27.832	60.4765	27.832	62.7927	27.832	60.605	27.832	62.7282	27.832	60.7548	27.832	62.6216	27.832	60.924	27.832	62.4813	27.832	61.11	27.832	62.3153	27.832	61.3088	27.832	62.1301	27.832	61.5156	27.832	61.9316	27.832	61.725
29.2969	65.2354	29.2969	65.0688	29.2969	65.4198	29.2969	64.9235	29.2969	65.6169	29.2969	64.8019	29.2969	65.8206	29.2969	64.7051	29.2969	66.0229	29.2969	64.6336	29.2969	66.215	29.2969	64.5869	29.2969	66.3871	29.2969	64.5643	29.2969	66.53	29.2969	64.5649	29.2969	66.6354	29.2969	64.5878	29.2969	66.6976	29.2969	64.632	29.2969	66.7137	29.2969	64.6969	29.2969	66.6842	29.2969	64.7818	29.2969	66.6124	29.2969	64.8861	29.2969	66.5037	29.2969	65.0093	29.2969	66.3649	29.2969	65.1501	29.2969	66.2035	29.2969	65.307	29.2969	66.027	29.2969	65.4773	29.2969	65.8428	29.2969	65.6575
30.7617	62.5831	30.7617	62.4704	30.7617	62.7381	30.7617	62.3948	30.7617	62.9357	30.7617	62.3481	30.7617	63.1681	30.7617	62.322	30.7617	63.4188	30.7617	62.3088	30.7617	63.6641	30.7617	62.3021	30.7617	63.8774	30.7617	62.297	30.7617	64.0335	30.7617	62.2898	30.7617	64.1133	30.7617	62.2787	30.7617	64.1066	30.7617	62.263	30.7617	64.0134	30.7617	62.2438	30.7617	63.8446	30.7617	62.2234	30.7617	63.6194	30.7617	62.2057	30.7617	63.363	30.7617	62.1956	30.7617	63.1018	30.7617	62.1989	30.7617	62.8584	30.7617	62.2224	30.7617	62.649	30.7617	62.2729	30.7617	62.4816	30.7617	62.3574
32.2266	68.835	32.2266	68.5824	32.2266	69.1081	32.2266	68.3561	32.2266	69.3935	32.2266	68.1595	32.2266	69.6801	32.2266	67.9943	32.2266	69.9546	32.2266	67.8613	32.2266	70.203	32.2266	67.7607	32.2266	70.412	32.2266	67.6927	32.2266	70.57	32.2266	67.6577	32.2266	70.669	32.2266	67.6561	32.2266	70.7046	32.2266	67.6887	32.2266	70.6772	32.2266	67.7558	32.2266	70.5909	32.2266	67.8576	32.2266	70.4531	32.2266	67.9931	32.2266	70.2731	32.2266	68.1605	32.2266	70.061	32.2266	68.3563	32.2266	69.8262	32.2266	68.5761	32.2266	69.5771	32.2266	68.8142	32.2266	69.3211	32.2266	69.0646
33.6914	70.6663	33.6914	70.4164	33.6914	70.9384	33.6914	70.1959	33.6914	71.2228	33.6914	70.0092	33.6914	71.5067	33.6914	69.8579	33.6914	71.7764	33.6914	69.742	33.6914	72.0176	33.6914	69.6606	33.6914	72.2173	33.6914	69.6118	33.6914	72.3651	33.6914	69.594	33.6914	72.4533	33.6914	69.6056	33.6914	72.4786	33.6914	69.6453	33.6914	72.4412	33.6914	69.7122	33.6914	72.3457	33.6914	69.8052	33.6914	72.1998	33.6914	69.9237	33.6914	72.0136	33.6914	70.0665	33.6914	71.7982	33.6914	70.2324	33.6914	71.5648	33.6914	70.4195	33.6914	71.3233	33.6914	70.6256	33.6914	71.082	33.6914	70.8478
35.1562	72.4845	35.1562	72.2858	35.1562	72.7056	35.1562	72.1144	35.1562	72.942	35.1562	71.9734	35.1562	73.1845	35.1562	71.8641	35.1562	73.4224	35.1562	71.7864	35.1562	73.6441	35.1562	71.7395	35.1562	73.8383	35.1562	71.722	35.1562	73.9947	35.1562	71.7322	35.1562	74.1055	35.1562	71.7685	35.1562	74.1658	35.1562	71.8295	35.1562	74.1744	35.1562	71.9138	35.1562	74.1336	35.1562	72.02	35.1562	74.0485	35.1562	72.1469	35.1562	73.9263	35.1562	72.293	35.1562	73.7747	35.1562	72.4561	35.1562	73.6014	35.1562	72.6338	35.1562	73.4135	35.1562	72.8226	35.1562	73.2173	35.1562	73.0186
36.6211	74.8976	36.6211	74.6971	36.6211	75.1103	36.6211	74.5141	36.6211	75.3285	36.6211	74.3521	36.6211	75.5439	36.6211	74.2134	36.6211	75.747	36.6211	74.0996	36.6211	75.9276	36.6211	74.011	36.6211	76.0759	36.6211	73.9478	36.6211	76.1831	36.6211	73.9096	36.6211	76.2427	36.6211	73.8963	36.6211	76.2512	36.6211	73.9075	36.6211	76.2088	36.6211	73.9429	36.6211	76.1192	36.6211	74.0024	36.6211	75.9888	36.6211	74.0859	36.6211	75.8261	36.6211	74.1929	36.6211	75.6403	36.6211	74.3226	36.6211	75.4403	36.6211	74.4738	36.6211	75.2342	36.6211	74.6442	36.6211	75.029	36.6211	74.8306
38.0859	77.0619	38.0859	76.8738	38.0859	77.2573	38.0859	76.6975	38.0859	77.4544	38.0859	76.5361	38.0859	77.646	38.0859	76.3917	38.0859	77.8235	38.0859	76.2657	38.0859	77.978	38.0859	76.1591	38.0859	78.1002	38.0859	76.0725	38.0859	78.182	38.0859	76.0065	38.0859	78.2171	38.0859	75.9617	38.0859	78.202	38.0859	75.9388	38.0859	78.1366	38.0859	75.9386	38.0859	78.0241	38.0859	75.9621	38.0859	77.8711	38.0859	76.0104	38.0859	77.6865	38.0859	76.0844	38.0859	77.4806	38.0859	76.1847	38.0859	77.2637	38.0859	76.3115	38.0859	77.0458	38.0859	76.4639	38.0859	76.8354	38.0859	76.6397
39.5508	78.7679	39.5508	78.5838	39.5508	78.9605	39.5508	78.4129	39.5508	79.156	39.5508	78.2582	39.5508	79.3468	39.5508	78.1218	39.5508	79.5248	39.5508	78.0049	39.5508	79.6807	39.5508	77.9082	39.5508	79.8058	39.5508	77.8321	39.5508	79.8921	39.5508	77.7769	39.5508	79.9337	39.5508	77.7428	39.5508	79.9271	39.5508	77.7303	39.5508	79.8723	39.5508	77.74	39.5508	79.7724	39.5508	77.7726	39.5508	79.6335	39.5508	77.8289	39.5508	79.4635	39.5508	77.9094	39.5508	79.272	39.5508	78.0146	39.5508	79.0684	39.5508	78.1441	39.5508	78.8617	39.5508	78.2966	39.5508	78.66	39.5508	78.4698
41.0156	80.3495	41.0156	80.2002	41.0156	80.5107	41.0156	80.0664	41.0156	80.6789	41.0156	79.9506	41.0156	80.8482	41.0156	79.8544	41.0156	81.0114	41.0156	79.7789	41.0156	81.1611	41.0156	79.7248	41.0156	81.2896	41.0156	79.6921	41.0156	81.3904	41.0156	79.6811	41.0156	81.4586	41.0156	79.6915	41.0156	81.4916	41.0156	79.723	41.0156	81.4891	41.0156	79.7754	41.0156	81.4531	41.0156	79.8479	41.0156	81.3874	41.0156	79.9397	41.0156	81.2962	41.0156	80.0491	41.0156	81.1842	41.0156	80.1743	41.0156	81.0556	41.0156	80.3124	41.0156	80.9147	41.0156	80.4598	41.0156	80.7654	41.0156	80.6123
42.4805	81.2895	42.4805	81.1155	42.4805	81.469	42.4805	80.9516	42.4805	81.6486	42.4805	80.8013	42.4805	81.8214	42.4805	80.6671	42.4805	81.9797	42.4805	80.5509	42.4805	82.1156	42.4805	80.454	42.4805	82.221	42.4805	80.3772	42.4805	82.2891	42.4805	80.3211	42.4805	82.3148	42.4805	80.286	42.4805	82.2957	42.4805	80.2722	42.4805	82.2327	42.4805	80.2798	42.4805	82.1297	42.4805	80.3091	42.4805	81.9931	42.4805	80.3601	42.4805	81.8313	42.4805	80.4329	42.4805	81.653	42.4805	80.5274	42.4805	81.467	42.4805	80.6429	42.4805	81.2807	42.4805	80.7784	42.4805	81.1007	42.4805	80.932
43.9453	82.7822	43.9453	82.6086	43.9453	82.9605	43.9453	82.4443	43.9453	83.1377	43.9453	82.293	43.9453	83.3073	43.9453	82.1575	43.9453	83.4619	43.9453	82.0401	43.9453	83.5938	43.9453	81.9421	43.9453	83.6957	43.9453	81.8646	43.9453	83.7613	43.9453	81.8084	43.9453	83.7859	43.9453	81.7737	43.9453	83.7677	43.9453	81.761	43.9453	83.7073	43.9453	81.7704	43.9453	83.6085	43.9453	81.802	43.9453	83.4774	43.9453	81.8557	43.9453	83.3215	43.9453	81.9314	43.9453	83.1489	43.9453	82.0287	43.9453	82.9676	43.9453	82.1468	43.9453	82.7848	43.9453	82.2841	43.9453	82.6067	43.9453	82.4384
45.4102	84.2163	45.4102	84.0476	45.4102	84.3876	45.4102	83.8858	45.4102	84.5558	45.4102	83.7348	45.4102	84.7147	45.4102	83.5975	45.4102	84.8573	45.4102	83.4761	45.4102	84.9767	45.4102	83.3722	45.4102	85.0658	45.4102	83.2873	45.4102	85.1187	45.4102	83.222	45.4102	85.1314	45.4102	83.1772	45.4102	85.1021	45.4102	83.1533	45.4102	85.0317	45.4102	83.1507	45.4102	84.924	45.4102	83.1697	45.4102	84.7852	45.4102	83.2106	45.4102	84.623	45.4102	83.2736	45.4102	84.4458	45.4102	83.3587	45.4102	84.262	45.4102	83.4655	45.4102	84.0789	45.4102	83.5932	45.4102	83.9033	45.4102	83.74
46.875	85.4637	46.875	85.3016	46.875	85.6272	46.875	85.1454	46.875	85.7867	46.875	84.9987	46.875	85.9365	46.875	84.8646	46.875	86.0701	46.875	84.7454	46.875	86.1809	46.875	84.6429	46.875	86.2625	46.875	84.5583	46.875	86.3096	46.875	84.4927	46.875	86.3183	46.875	84.4467	46.875	86.2871	46.875	84.4207	46.875	86.2169	46.875	84.4151	46.875	86.1112	46.875	84.4303	46.875	85.9759	46.875	84.4665	46.875	85.8181	46.875	84.5241	46.875	85.6461	46.875	84.6031	46.875	85.4679	46.875	84.7035	46.875	85.2908	46.875	84.8245	46.875	85.1214	46.875	84.9646
48.3398	86.528	48.3398	86.3711	48.3398	86.6856	48.3398	86.2192	48.3398	86.8389	48.3398	86.076	48.3398	86.9821	48.3398	85.9445	48.3398	87.1092	48.3398	85.8271	48.3398	87.2139	48.3398	85.7256	48.3398	87.2902	48.3398	85.6416	48.3398	87.3332	48.3398	85.5761	48.3398	87.3393	48.3398	85.5297	48.3398	87.3072	48.3398	85.5031	48.3398	87.238	48.3398	85.4966	48.3398	87.1351	48.3398	85.5106	48.3398	87.0041	48.3398	85.5453	48.3398	86.8519	48.3398	85.6009	48.3398	86.6861	48.3398	85.6776	48.3398	86.5143	48.3398	85.7749	48.3398	86.3434	48.3398	85.8923	48.3398	86.1797	48.3398	86.028
51.2695	88.2192	51.2695	88.0658	51.2695	88.3729	51.2695	87.9173	51.2695	88.522	51.2695	87.7771	51.2695	88.661	51.2695	87.6485	51.2695	88.7839	51.2695	87.5338	51.2695	88.8847	51.2695	87.4351	51.2695	88.9579	51.2695	87.3539	51.2695	88.9989	51.2695	87.2912	51.2695	89.0045	51.2695	87.2478	51.2695	88.9739	51.2695	87.2243	51.2695	88.9081	51.2695	87.2208	51.2695	88.8106	51.2695	87.2375	51.2695	88.6866	51.2695	87.2745	51.2695	88.5424	51.2695	87.3317	51.2695	88.3849	51.2695	87.4089	51.2695	88.2212	51.2695	87.5057	51.2695	88.0578	51.2695	87.6211	51.2695	87.9002	51.2695	87.7535
52.7344	88.9219	52.7344	88.7719	52.7344	89.0707	52.7344	88.6251	52.7344	89.2134	52.7344	88.4855	52.7344	89.3446	52.7344	88.3564	52.7344	89.4588	52.7344	88.2404	52.7344	89.5504	52.7344	88.1399	52.7344	89.6144	52.7344	88.0564	52.7344	89.6468	52.7344	87.9914	52.7344	89.6449	52.7344	87.9455	52.7344	89.608	52.7344	87.9194	52.7344	89.5376	52.7344	87.9131	52.7344	89.4372	52.7344	87.9267	52.7344	89.3121	52.7344	87.9599	52.7344	89.1686	52.7344	88.0125	52.7344	89.0138	52.7344	88.0842	52.7344	88.8544	52.7344	88.1744	52.7344	88.6968	52.7344	88.2825	52.7344	88.5463	52.7344	88.4071
54.1992	89.5367	54.1992	89.3907	54.1992	89.6811	54.1992	89.2476	54.1992	89.8192	54.1992	89.111	54.1992	89.9458	54.1992	88.9843	54.1992	90.0557	54.1992	88.8702	54.1992	90.1434	54.1992	88.771	54.1992	90.2042	54.1992	88.6884	54.1992	90.2343	54.1992	88.6237	54.1992	90.2311	54.1992	88.5778	54.1992	90.1941	54.1992	88.5511	54.1992	90.1247	54.1992	88.544	54.1992	90.0264	54.1992	88.5562	54.1992	89.9043	54.1992	88.5878	54.1992	89.7644	54.1992	88.6384	54.1992	89.6136	54.1992	88.7078	54.1992	89.4582	54.1992	88.7954	54.1992	89.3045	54.1992	88.9006	54.1992	89.1577	54.1992	89.022
55.6641	90.0287	55.6641	89.8833	55.6641	90.1725	55.6641	89.7408	55.6641	90.3099	55.6641	89.6052	55.6641	90.4357	55.6641	89.4799	55.6641	90.5446	55.6641	89.3677	55.6641	90.6314	55.6641	89.2709	55.6641	90.6917	55.6641	89.1913	55.6641	90.7219	55.6641	89.13	55.6641	90.7196	55.6641	89.0879	55.6641	90.6847	55.6641	89.0653	55.6641	90.6184	55.6641	89.0622	55.6641	90.5244	55.6641	89.0783	55.6641	90.4072	55.6641	89.1133	55.6641	90.2729	55.6641	89.1668	55.6641	90.1276	55.6641	89.2382	55.6641	89.9776	55.6641	89.3268	55.6641	89.8285	55.6641	89.4319	55.6641	89.6853	55.6641	89.5521
58.5938	90.8725	58.5938	90.7307	58.5938	91.0112	58.5938	90.5904	58.5938	91.1418	58.5938	90.4557	58.5938	91.2593	58.5938	90.3305	58.5938	91.3588	58.5938	90.2178	58.5938	91.4355	58.5938	90.1204	58.5938	91.4855	58.5938	90.04	58.5938	91.5059	58.5938	89.9782	58.5938	91.4952	58.5938	89.9359	58.5938	91.4537	58.5938	89.9132	58.5938	91.3836	58.5938	89.9101	58.5938	91.2885	58.5938	89.9261	58.5938	91.1736	58.5938	89.9604	58.5938	91.0444	58.5938	90.0121	58.5938	90.9069	58.5938	90.0802	58.5938	90.7666	58.5938	90.1638	58.5938	90.6283	58.5938	90.2619	58.5938	90.4961	58.5938	90.3732
60.0586	91.1941	60.0586	91.0547	60.0586	91.3296	60.0586	90.9161	60.0586	91.4567	60.0586	90.7825	60.0586	91.5703	60.0586	90.6575	60.0586	91.6656	60.0586	90.5443	60.0586	91.7383	60.0586	90.4458	60.0586	91.7844	60.0586	90.3639	60.0586	91.8014	60.0586	90.3001	60.0586	91.7878	60.0586	90.2556	60.0586	91.7441	60.0586	90.2305	60.0586	91.6724	60.0586	90.2249	60.0586	91.5766	60.0586	90.2383	60.0586	91.4615	60.0586	90.27	60.0586	91.3329	60.0586	90.3191	60.0586	91.1965	60.0586	90.3847	60.0586	91.0576	60.0586	90.4658	60.0586	90.9211	60.0586	90.5614	60.0586	90.791	60.0586	90.6703
62.9883	91.6822	62.9883	91.5446	62.9883	91.8154	62.9883	91.407	62.9883	91.9393	62.9883	91.2739	62.9883	92.0493	62.9883	91.149	62.9883	92.1406	62.9883	91.0357	62.9883	92.2089	62.9883	90.9369	62.9883	92.2509	62.9883	90.8548	62.9883	92.264	62.9883	90.791	62.9883	92.2474	62.9883	90.7465	62.9883	92.2016	62.9883	90.7216	62.9883	92.1292	62.9883	90.7163	62.9883	92.0339	62.9883	90.7299	62.9883	91.9207	62.9883	90.7616	62.9883	91.7951	62.9883	90.8103	62.9883	91.6624	62.9883	90.8749	62.9883	91.5279	62.9883	90.9543	62.9883	91.3958	62.9883	91.0474	62.9883	91.27	62.9883	91.1532
64.4531	91.8483	64.4531	91.7107	64.4531	91.9811	64.4531	91.5728	64.4531	92.104	64.4531	91.4389	64.4531	92.2125	64.4531	91.3132	64.4531	92.3017	64.4531	91.1989	64.4531	92.3676	64.4531	91.0991	64.4531	92.4069	64.4531	91.0161	64.4531	92.4172	64.4531	90.9515	64.4531	92.398	64.4531	90.9063	64.4531	92.35	64.4531	90.8809	64.4531	92.276	64.4531	90.8751	64.4531	92.1798	64.4531	90.8884	64.4531	92.0665	64.4531	90.9197	64.4531	91.9414	64.4531	90.9679	64.4531	91.8098	64.4531	91.0319	64.4531	91.6767	64.4531	91.1105	64.4531	91.5464	64.4531	91.2026	64.4531	91.4222	64.4531	91.307
67.3828	92.2002	67.3828	92.0632	67.3828	92.3307	67.3828	91.9243	67.3828	92.45	67.3828	91.7881	67.3828	92.5533	67.3828	91.6588	67.3828	92.6365	67.3828	91.54	67.3828	92.6958	67.3828	91.4349	67.3828	92.7283	67.3828	91.3462	67.3828	92.7324	67.3828	91.2757	67.3828	92.7076	67.3828	91.2248	67.3828	92.6552	67.3828	91.1939	67.3828	92.5779	67.3828	91.1831	67.3828	92.4794	67.3828	91.192	67.3828	92.3644	67.3828	91.2195	67.3828	92.2382	67.3828	91.2648	67.3828	92.1056	67.3828	91.3266	67.3828	91.9715	67.3828	91.4037	67.3828	91.8402	67.3828	91.4952	67.3828	91.7153	67.3828	91.5995
68.8477	92.3492	68.8477	92.2144	68.8477	92.4768	68.8477	92.0771	68.8477	92.5924	68.8477	91.9418	68.8477	92.6916	68.8477	91.8127	68.8477	92.7704	68.8477	91.6936	68.8477	92.8251	68.8477	91.588	68.8477	92.8533	68.8477	91.4985	68.8477	92.8535	68.8477	91.4271	68.8477	92.8255	68.8477	91.3752	68.8477	92.7708	68.8477	91.3432	68.8477	92.6922	68.8477	91.3314	68.8477	92.5937	68.8477	91.339	68.8477	92.4798	68.8477	91.3652	68.8477	92.3556	68.8477	91.4089	68.8477	92.2258	68.8477	91.4688	68.8477	92.0951	68.8477	91.5438	68.8477	91.9674	68.8477	91.6325	68.8477	91.8461	68.8477	91.7338
71.7773	92.5341	71.7773	92.4002	71.7773	92.6604	71.7773	92.2634	71.7773	92.7742	71.7773	92.1285	71.7773	92.8711	71.7773	91.9999	71.7773	92.9469	71.7773	91.8815	71.7773	92.9984	71.7773	91.7768	71.7773	93.0233	71.7773	91.6886	71.7773	93.0205	71.7773	91.6189	71.7773	92.9903	71.7773	91.5691	71.7773	92.9345	71.7773	91.5395	71.7773	92.8562	71.7773	91.5301	71.7773	92.7593	71.7773	91.5402	71.7773	92.6484	71.7773	91.5684	71.7773	92.5284	71.7773	91.6134	71.7773	92.4038	71.7773	91.6738	71.7773	92.2786	71.7773	91.7479	71.7773	92.1566	71.7773	91.8346	71.7773	92.0405	71.7773	91.9326
74.707	92.6772	74.707	92.5476	74.707	92.7989	74.707	92.4148	74.707	92.9079	74.707	92.2837	74.707	92.9999	74.707	92.1586	74.707	93.071	74.707	92.0436	74.707	93.1183	74.707	91.942	74.707	93.1397	74.707	91.8566	74.707	93.1345	74.707	91.7893	74.707	93.1033	74.707	91.7412	74.707	93.048	74.707	91.7129	74.707	92.9715	74.707	91.7038	74.707	92.8778	74.707	91.7133	74.707	92.771	74.707	91.74	74.707	92.6557	74.707	91.7825	74.707	92.536	74.707	91.8395	74.707	92.4158	74.707	91.9096	74.707	92.2988	74.707	91.9917	74.707	92.1877	74.707	92.0849
77.6367	92.7398	77.6367	92.6111	77.6367	92.8604	77.6367	92.4791	77.6367	92.9679	77.6367	92.3489	77.6367	93.0581	77.6367	92.2251	77.6367	93.1272	77.6367	92.1119	77.6367	93.1726	77.6367	92.0131	77.6367	93.1927	77.6367	91.9314	77.6367	93.1871	77.6367	91.8689	77.6367	93.157	77.6367	91.8265	77.6367	93.1045	77.6367	91.8046	77.6367	93.0329	77.6367	91.8024	77.6367	92.9459	77.6367	91.8188	77.6367	92.8477	77.6367	91.8521	77.6367	92.7419	77.6367	91.9003	77.6367	92.6321	77.6367	91.9617	77.6367	92.5213	77.6367	92.0344	77.6367	92.4124	77.6367	92.1172	77.6367	92.3075	77.6367	92.2086
79.1016	92.7637	79.1016	92.6345	79.1016	92.8839	79.1016	92.5013	79.1016	92.9904	79.1016	92.3691	79.1016	93.0789	79.1016	92.2426	79.1016	93.1456	79.1016	92.1263	79.1016	93.188	79.1016	92.0241	79.1016	93.2045	79.1016	91.9389	79.1016	93.1948	79.1016	91.8733	79.1016	93.1602	79.1016	91.8284	79.1016	93.1033	79.1016	91.8048	79.1016	93.0278	79.1016	91.8019	79.1016	92.9377	79.1016	91.8185	79.1016	92.8376	79.1016	91.8527	79.1016	92.7314	79.1016	91.9022	79.1016	92.6228	79.1016	91.9647	79.1016	92.5144	79.1016	92.0381	79.1016	92.4086	79.1016	92.1206	79.1016	92.3069	79.1016	92.2106
82.0312	92.8723	82.0312	92.7432	82.0312	92.9909	82.0312	92.6084	82.0312	93.0941	82.0312	92.4731	82.0312	93.1777	82.0312	92.3422	82.0312	93.2384	82.0312	92.2205	82.0312	93.2737	82.0312	92.1119	82.0312	93.2823	82.0312	92.0201	82.0312	93.2645	82.0312	91.9475	82.0312	93.2219	82.0312	91.896	82.0312	93.1575	82.0312	91.8662	82.0312	93.0752	82.0312	91.8577	82.0312	92.9797	82.0312	91.8695	82.0312	92.8755	82.0312	91.8997	82.0312	92.7666	82.0312	91.9459	82.0312	92.6565	82.0312	92.0059	82.0312	92.5478	82.0312	92.0772	82.0312	92.4423	82.0312	92.1579	82.0312	92.3415	82.0312	92.2464
84.9609	92.9136	84.9609	92.7825	84.9609	93.0328	84.9609	92.6447	84.9609	93.1354	84.9609	92.5054	84.9609	93.2171	84.9609	92.3698	84.9609	93.2747	84.9609	92.2427	84.9609	93.3058	84.9609	92.1284	84.9609	93.3094	84.9609	92.0307	84.9609	93.286	84.9609	91.9523	84.9609	93.2373	84.9609	91.895	84.9609	93.1663	84.9609	91.8596	84.9609	93.0772	84.9609	91.8458	84.9609	92.9744	84.9609	91.8525	84.9609	92.8629	84.9609	91.8779	84.9609	92.7469	84.9609	91.9199	84.9609	92.6304	84.9609	91.9759	84.9609	92.5164	84.9609	92.044	84.9609	92.4074	84.9609	92.1223	84.9609	92.3048	84.9609	92.2095
87.8906	92.8672	87.8906	92.7398	87.8906	92.984	87.8906	92.6068	87.8906	93.0855	87.8906	92.4735	87.8906	93.1678	87.8906	92.3448	87.8906	93.2277	87.8906	92.2256	87.8906	93.2631	87.8906	92.12	87.8906	93.2733	87.8906	92.0314	87.8906	93.2588	87.8906	91.9626	87.8906	93.2215	87.8906	91.915	87.8906	93.1643	87.8906	91.8893	87.8906	93.0905	87.8906	91.885	87.8906	93.004	87.8906	91.9008	87.8906	92.9084	87.8906	91.9348	87.8906	92.8069	87.8906	91.9847	87.8906	92.7023	87.8906	92.048	87.8906	92.5971	87.8906	92.1223	87.8906	92.4932	87.8906	92.2056	87.8906	92.3924	87.8906	92.2961
90.8203	92.9186	90.8203	92.7911	90.8203	93.0354	90.8203	92.658	90.8203	93.1367	90.8203	92.5248	90.8203	93.2183	90.8203	92.3964	90.8203	93.2769	90.8203	92.2778	90.8203	93.3106	90.8203	92.1732	90.8203	93.3186	90.8203	92.0862	90.8203	93.3017	90.8203	92.0192	90.8203	93.2621	90.8203	91.9738	90.8203	93.2031	90.8203	91.9506	90.8203	93.1286	90.8203	91.9491	90.8203	93.0427	90.8203	91.9677	90.8203	92.9493	90.8203	92.0044	90.8203	92.8515	90.8203	92.0564	90.8203	92.7519	90.8203	92.1211	90.8203	92.6523	90.8203	92.1957	90.8203	92.5541	90.8203	92.278	90.8203	92.4584	90.8203	92.366
95.2148	92.8653	95.2148	92.7384	95.2148	92.9785	95.2148	92.6031	95.2148	93.0735	95.2148	92.4649	95.2148	93.1469	95.2148	92.3298	95.2148	93.1964	95.2148	92.2035	95.2148	93.2209	95.2148	92.0913	95.2148	93.2208	95.2148	91.9977	95.2148	93.1979	95.2148	91.9262	95.2148	93.1551	95.2148	91.8789	95.2148	93.0962	95.2148	91.8564	95.2148	93.0251	95.2148	91.858	95.2148	92.9454	95.2148	91.8819	95.2148	92.8601	95.2148	91.9251	95.2148	92.7712	95.2148	91.9841	95.2148	92.6801	95.2148	92.0554	95.2148	92.5877	95.2148	92.1355	95.2148	92.495	95.2148	92.2214	95.2148	92.4024	95.2148	92.3109
98.1445	92.8524	98.1445	92.7262	98.1445	92.9636	98.1445	92.5906	98.1445	93.0555	98.1445	92.4513	98.1445	93.1245	98.1445	92.3142	98.1445	93.1682	98.1445	92.1854	98.1445	93.186	98.1445	92.0701	98.1445	93.1785	98.1445	91.973	98.1445	93.1481	98.1445	91.8975	98.1445	93.0981	98.1445	91.846	98.1445	93.0329	98.1445	91.8191	98.1445	92.9568	98.1445	91.8162	98.1445	92.8738	98.1445	91.8356	98.1445	92.7867	98.1445	91.8745	98.1445	92.6974	98.1445	91.9294	98.1445	92.607	98.1445	91.997	98.1445	92.516	98.1445	92.0739	98.1445	92.4247	98.1445	92.157	98.1445	92.3339	98.1445	92.2443
101.074	92.7799	101.074	92.6516	101.074	92.8923	101.074	92.5129	101.074	92.9841	101.074	92.3697	101.074	93.0518	101.074	92.2285	101.074	93.0936	101.074	92.0955	101.074	93.1087	101.074	91.9766	101.074	93.0985	101.074	91.8767	101.074	93.0656	101.074	91.7998	101.074	93.0139	101.074	91.7482	101.074	92.9483	101.074	91.7228	101.074	92.8733	101.074	91.7229	101.074	92.7928	101.074	91.7464	101.074	92.7095	101.074	91.7901	101.074	92.6246	101.074	91.8504	101.074	92.5385	101.074	91.9231	101.074	92.451	101.074	92.0047	101.074	92.3621	101.074	92.0916	101.074	92.272	101.074	92.1814
105.469	92.6153	105.469	92.4864	105.469	92.7258	105.469	92.3447	105.469	92.813	105.469	92.1967	105.469	92.8732	105.469	92.049	105.469	92.9044	105.469	91.9082	105.469	92.9064	105.469	91.7807	105.469	92.8811	105.469	91.672	105.469	92.8323	105.469	91.5867	105.469	92.7653	105.469	91.528	105.469	92.6864	105.469	91.4973	105.469	92.6019	105.469	91.4943	105.469	92.5166	105.469	91.5172	105.469	92.434	105.469	91.5624	105.469	92.3548	105.469	91.6256	105.469	92.2783	105.469	91.7018	105.469	92.2025	105.469	91.7858	105.469	92.1251	105.469	91.8731	105.469	92.0444	105.469	91.9601
108.398	92.6093	108.398	92.4896	108.398	92.7091	108.398	92.3559	108.398	92.7845	108.398	92.2145	108.398	92.8323	108.398	92.0721	108.398	92.851	108.398	91.9356	108.398	92.841	108.398	91.811	108.398	92.8045	108.398	91.7038	108.398	92.7456	108.398	91.6183	108.398	92.6698	108.398	91.5572	108.398	92.5832	108.398	91.5216	108.398	92.4921	108.398	91.5111	108.398	92.4017	108.398	91.5237	108.398	92.3157	108.398	91.5565	108.398	92.2354	108.398	91.6054	108.398	92.1605	108.398	91.6661	108.398	92.0894	108.398	91.7342	108.398	92.0198	108.398	91.806	108.398	91.9498	108.398	91.8784
112.793	92.425	112.793	92.298	112.793	92.5337	112.793	92.1583	112.793	92.6191	112.793	92.0125	112.793	92.6778	112.793	91.8678	112.793	92.7079	112.793	91.7311	112.793	92.7092	112.793	91.6091	112.793	92.6833	112.793	91.5075	112.793	92.6337	112.793	91.4307	112.793	92.5657	112.793	91.3811	112.793	92.4855	112.793	91.3594	112.793	92.3995	112.793	91.3641	112.793	92.3133	112.793	91.3922	112.793	92.2305	112.793	91.4393	112.793	92.1526	112.793	91.5005	112.793	92.0794	112.793	91.5708	112.793	92.0092	112.793	91.6459	112.793	91.9399	112.793	91.7221	112.793	91.8696	112.793	91.797
117.188	92.496	117.188	92.3783	117.188	92.5941	117.188	92.2465	117.188	92.6677	117.188	92.1069	117.188	92.7132	117.188	91.9664	117.188	92.7286	117.188	91.8315	117.188	92.7139	117.188	91.7089	117.188	92.6712	117.188	91.6044	117.188	92.605	117.188	91.5228	117.188	92.5217	117.188	91.4674	117.188	92.4289	117.188	91.4396	117.188	92.3344	117.188	91.4387	117.188	92.2448	117.188	91.462	117.188	92.1647	117.188	91.5052	117.188	92.0958	117.188	91.5627	117.188	92.0368	117.188	91.6287	117.188	91.9845	117.188	91.6975	117.188	91.9346	117.188	91.7645	117.188	91.883	117.188	91.8266
120.117	92.4879	120.117	92.3632	120.117	92.5919	120.117	92.2239	120.117	92.6701	120.117	92.0768	120.117	92.7186	120.117	91.9291	120.117	92.7353	120.117	91.7878	120.117	92.72	120.117	91.66	120.117	92.675	120.117	91.5518	120.117	92.6049	120.117	91.4682	120.117	92.5163	120.117	91.4128	120.117	92.4176	120.117	91.3871	120.117	92.3172	120.117	91.3905	120.117	92.223	120.117	91.4203	120.117	92.1405	120.117	91.4717	120.117	92.0722	120.117	91.5383	120.117	92.0168	120.117	91.6133	120.117	91.9701	120.117	91.6895	120.117	91.9263	120.117	91.7614	120.117	91.8794	120.117	91.825
124.512	92.4304	124.512	92.2969	124.512	92.5416	124.512	92.1477	124.512	92.6254	124.512	91.9898	124.512	92.6776	124.512	91.8303	124.512	92.6963	124.512	91.6764	124.512	92.6811	124.512	91.5346	124.512	92.6342	124.512	91.4109	124.512	92.5595	124.512	91.3098	124.512	92.4629	124.512	91.2347	124.512	92.3513	124.512	91.1875	124.512	92.2323	124.512	91.1679	124.512	92.1132	124.512	91.1743	124.512	91.9999	124.512	91.2034	124.512	91.8967	124.512	91.2503	124.512	91.8051	124.512	91.3098	124.512	91.7242	124.512	91.3763	124.512	91.6512	124.512	91.4455	124.512	91.5824	124.512	91.5144
128.906	92.1933	128.906	92.0698	128.906	92.2921	128.906	91.9274	128.906	92.3615	128.906	91.7731	128.906	92.399	128.906	91.6146	128.906	92.4039	128.906	91.4594	128.906	92.3774	128.906	91.315	128.906	92.323	128.906	91.1877	128.906	92.2454	128.906	91.0826	128.906	92.1505	128.906	91.0031	128.906	92.0447	128.906	90.9509	128.906	91.9338	128.906	90.9255	128.906	91.823	128.906	90.925	128.906	91.7161	128.906	90.9459	128.906	91.6158	128.906	90.9839	128.906	91.5234	128.906	91.0343	128.906	91.4391	128.906	91.0927	128.906	91.3618	128.906	91.1558	128.906	91.29	128.906	91.2217
133.301	91.8287	133.301	91.6935	133.301	91.9384	133.301	91.5393	133.301	92.0177	133.301	91.3742	133.301	92.0641	133.301	91.2073	133.301	92.0772	133.301	91.0478	133.301	92.059	133.301	90.9044	133.301	92.0132	133.301	90.7844	133.301	91.9455	133.301	90.6932	133.301	91.8625	133.301	90.6339	133.301	91.7713	133.301	90.607	133.301	91.6782	133.301	90.6104	133.301	91.5883	133.301	90.6403	133.301	91.5042	133.301	90.6914	133.301	91.4264	133.301	90.7577	133.301	91.3539	133.301	90.8334	133.301	91.2845	133.301	90.9133	133.301	91.2155	133.301	90.9933	133.301	91.1448	133.301	91.0708
139.16	91.6114	139.16	91.4664	139.16	91.7302	139.16	91.3026	139.16	91.8175	139.16	91.1288	139.16	91.87	139.16	90.9547	139.16	91.8865	139.16	90.7906	139.16	91.8688	139.16	90.6459	139.16	91.8209	139.16	90.5285	139.16	91.7493	139.16	90.4439	139.16	91.6622	139.16	90.3944	139.16	91.5681	139.16	90.3792	139.16	91.4744	139.16	90.3948	139.16	91.3864	139.16	90.4359	139.16	91.3061	139.16	90.4963	139.16	91.2332	139.16	90.5696	139.16	91.1657	139.16	90.65	139.16	91.1006	139.16	90.7329	139.16	91.0348	139.16	90.8145	139.16	90.966	139.16	90.8926
143.555	91.4907	143.555	91.3331	143.555	91.6158	143.555	91.1506	143.555	91.703	143.555	90.9524	143.555	91.749	143.555	90.7492	143.555	91.753	143.555	90.5528	143.555	91.7172	143.555	90.3754	143.555	91.6473	143.555	90.2283	143.555	91.5519	143.555	90.1207	143.555	91.4422	143.555	90.0584	143.555	91.3302	143.555	90.0426	143.555	91.2268	143.555	90.0702	143.555	91.139	143.555	90.1341	143.555	91.0694	143.555	90.2246	143.555	91.0152	143.555	90.3313	143.555	90.9705	143.555	90.4443	143.555	90.9276	143.555	90.5549	143.555	90.8791	143.555	90.6567	143.555	90.8195	143.555	90.7455
147.949	91.704	147.949	91.5386	147.949	91.8346	147.949	91.3452	147.949	91.9251	147.949	91.1324	147.949	91.9719	147.949	90.9098	147.949	91.9734	147.949	90.6887	147.949	91.9306	147.949	90.4811	147.949	91.8477	147.949	90.2989	147.949	91.732	147.949	90.1531	147.949	91.594	147.949	90.052	147.949	91.446	147.949	90	147.949	91.301	147.949	89.997	147.949	91.1699	147.949	90.0382	147.949	91.0596	147.949	90.1147	147.949	90.9719	147.949	90.2157	147.949	90.9031	147.949	90.3291	147.949	90.845	147.949	90.4439	147.949	90.7881	147.949	90.5513	147.949	90.7235	147.949	90.6452
153.809	91.5532	153.809	91.3889	153.809	91.6826	153.809	91.197	153.809	91.7716	153.809	90.9867	153.809	91.8175	153.809	90.7683	153.809	91.8204	153.809	90.5526	153.809	91.7831	153.809	90.3509	153.809	91.7116	153.809	90.1744	153.809	91.6136	153.809	90.0331	153.809	91.4985	153.809	89.9356	153.809	91.3762	153.809	89.8872	153.809	91.2564	153.809	89.8893	153.809	91.1468	153.809	89.9388	153.809	91.0526	153.809	90.0278	153.809	90.9752	153.809	90.1449	153.809	90.9117	153.809	90.2768	153.809	90.8553	153.809	90.4102	153.809	90.797	153.809	90.5341	153.809	90.7276	153.809	90.6408
159.668	91.8467	159.668	91.7005	159.668	91.9615	159.668	91.5299	159.668	92.0402	159.668	91.3433	159.668	92.08	159.668	91.1501	159.668	92.0812	159.668	90.9597	159.668	92.0463	159.668	90.7811	159.668	91.9801	159.668	90.6223	159.668	91.8889	159.668	90.4897	159.668	91.7801	159.668	90.3884	159.668	91.661	159.668	90.3216	159.668	91.5386	159.668	90.291	159.668	91.4191	159.668	90.296	159.668	91.3072	159.668	90.3339	159.668	91.2058	159.668	90.3993	159.668	91.115	159.668	90.4848	159.668	91.0319	159.668	90.5819	159.668	90.9516	159.668	90.6821	159.668	90.8685	159.668	90.7788
165.527	91.7512	165.527	91.5933	165.527	91.8744	165.527	91.4085	165.527	91.9581	165.527	91.2073	165.527	92.0006	165.527	91.0021	165.527	92.0038	165.527	90.8064	165.527	91.9726	165.527	90.633	165.527	91.9145	165.527	90.4932	165.527	91.8387	165.527	90.3948	165.527	91.7543	165.527	90.3412	165.527	91.6693	165.527	90.3316	165.527	91.5889	165.527	90.3616	165.527	91.5158	165.527	90.4244	165.527	91.4501	165.527	90.5117	165.527	91.3899	165.527	90.6153	165.527	91.3323	165.527	90.7273	165.527	91.2732	165.527	90.8403	165.527	91.2082	165.527	90.9484	165.527	91.1336	165.527	91.047
171.387	91.7195	171.387	91.563	171.387	91.8271	171.387	91.3636	171.387	91.8828	171.387	91.1307	171.387	91.8877	171.387	90.8758	171.387	91.8463	171.387	90.6132	171.387	91.7666	171.387	90.3585	171.387	91.6593	171.387	90.1283	171.387	91.5366	171.387	89.9388	171.387	91.4103	171.387	89.8037	171.387	91.291	171.387	89.7325	171.387	91.1864	171.387	89.7281	171.387	91.1008	171.387	89.7868	171.387	91.0349	171.387	89.8978	171.387	90.9855	171.387	90.0461	171.387	90.9454	171.387	90.2138	171.387	90.9046	171.387	90.3835	171.387	90.8517	171.387	90.5402	171.387	90.7766	171.387	90.673
177.246	91.4902	177.246	91.3156	177.246	91.6334	177.246	91.1162	177.246	91.7415	177.246	90.9015	177.246	91.8135	177.246	90.6834	177.246	91.8508	177.246	90.4748	177.246	91.8571	177.246	90.2881	177.246	91.8378	177.246	90.1335	177.246	91.7994	177.246	90.0173	177.246	91.748	177.246	89.9422	177.246	91.6874	177.246	89.9071	177.246	91.6181	177.246	89.9091	177.246	91.5378	177.246	89.9445	177.246	91.4435	177.246	90.0098	177.246	91.3338	177.246	90.1013	177.246	91.2097	177.246	90.2148	177.246	91.0744	177.246	90.3454	177.246	90.9316	177.246	90.4874	177.246	90.7843	177.246	90.6352
183.105	91.8396	183.105	91.6375	183.105	91.9877	183.105	91.3914	183.105	92.0748	183.105	91.1139	183.105	92.097	183.105	90.8205	183.105	92.0542	183.105	90.5296	183.105	91.9516	183.105	90.2615	183.105	91.8007	183.105	90.0369	183.105	91.6202	183.105	89.8736	183.105	91.4345	183.105	89.7836	183.105	91.2696	183.105	89.7697	183.105	91.1464	183.105	89.8253	183.105	91.0745	183.105	89.9367	183.105	91.0492	183.105	90.0863	183.105	91.0535	183.105	90.2564	183.105	91.0655	183.105	90.4318	183.105	91.0646	183.105	90.6002	183.105	91.0367	183.105	90.7518	183.105	90.9749	183.105	90.8787
188.965	91.7021	188.965	91.5613	188.965	91.7876	188.965	91.3729	188.965	91.8122	188.965	91.1456	188.965	91.7736	188.965	90.8894	188.965	91.674	188.965	90.6154	188.965	91.5213	188.965	90.3375	188.965	91.3291	188.965	90.0723	188.965	91.1152	188.965	89.8389	188.965	90.8998	188.965	89.6566	188.965	90.703	188.965	89.5416	188.965	90.5425	188.965	89.5024	188.965	90.4312	188.965	89.5376	188.965	90.3735	188.965	89.6354	188.965	90.3637	188.965	89.7768	188.965	90.3854	188.965	89.9394	188.965	90.4154	188.965	90.101	188.965	90.4299	188.965	90.242	188.965	90.4106	188.965	90.348
196.289	91.4032	196.289	91.2685	196.289	91.4831	196.289	91.0841	196.289	91.5066	196.289	90.8589	196.289	91.4768	196.289	90.6046	196.289	91.4013	196.289	90.3356	196.289	91.2917	196.289	90.0688	196.289	91.1628	196.289	89.8229	196.289	91.0307	196.289	89.6164	196.289	90.9103	196.289	89.4659	196.289	90.8128	196.289	89.3829	196.289	90.743	196.289	89.3714	196.289	90.6987	196.289	89.4272	196.289	90.6722	196.289	89.5387	196.289	90.6531	196.289	89.6892	196.289	90.6305	196.289	89.8605	196.289	90.5944	196.289	90.0349	196.289	90.5371	196.289	90.198	196.289	90.4528	196.289	90.3393
203.613	91.4905	203.613	91.3211	203.613	91.5996	203.613	91.0977	203.613	91.6445	203.613	90.8288	203.613	91.6232	203.613	90.5247	203.613	91.5359	203.613	90.198	203.613	91.3859	203.613	89.8642	203.613	91.1813	203.613	89.5419	203.613	90.937	203.613	89.253	203.613	90.6765	203.613	89.022	203.613	90.4304	203.613	88.8716	203.613	90.2308	203.613	88.8175	203.613	90.1023	203.613	88.8628	203.613	90.0518	203.613	88.9954	203.613	90.0649	203.613	89.1912	203.613	90.111	203.613	89.4196	203.613	90.1542	203.613	89.6498	203.613	90.1639	203.613	89.8555	203.613	90.1205	203.613	90.0166
210.938	91.2974	210.938	91.1581	210.938	91.3827	210.938	90.9735	210.938	91.4071	210.938	90.7535	210.938	91.3672	210.938	90.5082	210.938	91.2644	210.938	90.2471	210.938	91.1054	210.938	89.9791	210.938	90.9025	210.938	89.7133	210.938	90.6724	210.938	89.4603	210.938	90.4338	210.938	89.2329	210.938	90.2054	210.938	89.0472	210.938	90.0039	210.938	88.9202	210.938	89.8427	210.938	88.8655	210.938	89.7299	210.938	88.8875	210.938	89.6663	210.938	88.9777	210.938	89.6426	210.938	89.1148	210.938	89.6399	210.938	89.2705	210.938	89.6341	210.938	89.4164	210.938	89.6025	210.938	89.5306
218.262	90.9193	218.262	90.8115	218.262	90.9719	218.262	90.6546	218.262	90.9678	218.262	90.4589	218.262	90.9105	218.262	90.2378	218.262	90.8086	218.262	90.0066	218.262	90.675	218.262	89.7809	218.262	90.5253	218.262	89.5745	218.262	90.3765	218.262	89.3975	218.262	90.2459	218.262	89.2554	218.262	90.148	218.262	89.1507	218.262	90.0918	218.262	89.0845	218.262	90.0761	218.262	89.0593	218.262	90.0882	218.262	89.0786	218.262	90.107	218.262	89.1449	218.262	90.1095	218.262	89.2563	218.262	90.078	218.262	89.4035	218.262	90.0036	218.262	89.5704	218.262	89.8873	218.262	89.738
225.586	91.3318	225.586	91.1931	225.586	91.395	225.586	90.9889	225.586	91.3784	225.586	90.7348	225.586	91.2845	225.586	90.4517	225.586	91.1239	225.586	90.1647	225.586	90.9156	225.586	89.9016	225.586	90.6858	225.586	89.6889	225.586	90.465	225.586	89.5468	225.586	90.2821	225.586	89.4845	225.586	90.1595	225.586	89.4988	225.586	90.1088	225.586	89.5767	225.586	90.13	225.586	89.7004	225.586	90.2113	225.586	89.8528	225.586	90.331	225.586	90.0194	225.586	90.4602	225.586	90.1883	225.586	90.569	225.586	90.3482	225.586	90.6332	225.586	90.4863	225.586	90.6399	225.586	90.588
232.91	91.416	232.91	91.2591	232.91	91.484	232.91	91.0189	232.91	91.463	232.91	90.7059	232.91	91.3573	232.91	90.3373	232.91	91.176	232.91	89.9375	232.91	90.9327	232.91	89.5397	232.91	90.6471	232.91	89.1842	232.91	90.3479	232.91	88.9137	232.91	90.0747	232.91	88.7636	232.91	89.8739	232.91	88.7511	232.91	89.7859	232.91	88.869	232.91	89.8274	232.91	89.0898	232.91	89.9806	232.91	89.3761	232.91	90.1991	232.91	89.6903	232.91	90.4262	232.91	90.0006	232.91	90.612	232.91	90.2809	232.91	90.7229	232.91	90.5097	232.91	90.7422	232.91	90.6684
241.699	91.6771	241.699	91.5099	241.699	91.7787	241.699	91.2879	241.699	91.8062	241.699	91.023	241.699	91.7545	241.699	90.7272	241.699	91.6235	241.699	90.413	241.699	91.4186	241.699	90.0951	241.699	91.151	241.699	89.7923	241.699	90.8389	241.699	89.5291	241.699	90.5089	241.699	89.3332	241.699	90.1973	241.699	89.2291	241.699	89.9471	241.699	89.2284	241.699	89.7987	241.699	89.3243	241.699	89.7727	241.699	89.4927	241.699	89.8564	241.699	89.7006	241.699	90.0066	241.699	89.9147	241.699	90.1684	241.699	90.1069	241.699	90.2944	241.699	90.2549	241.699	90.3557	241.699	90.3416
250.488	92.156	250.488	91.9995	250.488	92.2377	250.488	91.7777	250.488	92.2369	250.488	91.5013	250.488	92.1497	250.488	91.1808	250.488	91.9772	250.488	90.8267	250.488	91.7266	250.488	90.4505	250.488	91.4112	250.488	90.0662	250.488	91.0514	250.488	89.6927	250.488	90.6744	250.488	89.3551	250.488	90.3136	250.488	89.0833	250.488	90.0062	250.488	88.9074	250.488	89.7873	250.488	88.8482	250.488	89.6792	250.488	88.9079	250.488	89.6791	250.488	89.0659	250.488	89.7551	250.488	89.2843	250.488	89.8563	250.488	89.5182	250.488	89.9312	250.488	89.7252	250.488	89.9425	250.488	89.873
259.277	91.989	259.277	91.825	259.277	92.0712	259.277	91.5847	259.277	92.0702	259.277	91.2785	259.277	91.9873	259.277	90.9235	259.277	91.8274	259.277	90.5442	259.277	91.6003	259.277	90.1698	259.277	91.3223	259.277	89.8307	259.277	91.0159	259.277	89.5515	259.277	90.706	259.277	89.346	259.277	90.4164	259.277	89.2166	259.277	90.1675	259.277	89.1576	259.277	89.9779	259.277	89.1615	259.277	89.8641	259.277	89.2228	259.277	89.8335	259.277	89.336	259.277	89.8732	259.277	89.4904	259.277	89.9472	259.277	89.6655	259.277	90.0085	259.277	89.8316	259.277	90.0178	259.277	89.9569
268.066	91.4022	268.066	91.1759	268.066	91.5249	268.066	90.8689	268.066	91.5282	268.066	90.5087	268.066	91.4065	268.066	90.1252	268.066	91.1688	268.066	89.7492	268.066	90.8412	268.066	89.4117	268.066	90.4689	268.066	89.143	268.066	90.1103	268.066	88.97	268.066	89.8259	268.066	88.9083	268.066	89.6598	268.066	88.9542	268.066	89.6236	268.066	89.0842	268.066	89.696	268.066	89.2637	268.066	89.8367	268.066	89.4612	268.066	90.0035	268.066	89.6563	268.066	90.1607	268.066	89.8405	268.066	90.2804	268.066	90.01	268.066	90.3431	268.066	90.1586	268.066	90.3399	268.066	90.274
276.855	91.7432	276.855	91.6735	276.855	91.7357	276.855	91.5345	276.855	91.6439	276.855	91.3321	276.855	91.4639	276.855	91.0708	276.855	91.1975	276.855	90.7573	276.855	90.8519	276.855	90.4065	276.855	90.4419	276.855	90.0479	276.855	89.9956	276.855	89.7284	276.855	89.564	276.855	89.5058	276.855	89.2224	276.855	89.429	276.855	89.0499	276.855	89.5134	276.855	89.0884	276.855	89.7303	276.855	89.3148	276.855	90.0213	276.855	89.6568	276.855	90.324	276.855	90.0323	276.855	90.5896	276.855	90.3772	276.855	90.7871	276.855	90.6511	276.855	90.8991	276.855	90.8334	276.855	90.9161
287.109	92.532	287.109	92.3466	287.109	92.6416	287.109	92.1013	287.109	92.6594	287.109	91.8108	287.109	92.5699	287.109	91.4871	287.109	92.3594	287.109	91.1376	287.109	92.0187	287.109	90.7664	287.109	91.5489	287.109	90.3778	287.109	90.9694	287.109	89.9844	287.109	90.3289	287.109	89.6159	287.109	89.7159	287.109	89.323	287.109	89.2551	287.109	89.167	287.109	89.0661	287.109	89.1935	287.109	89.1889	287.109	89.4026	287.109	89.5488	287.109	89.7437	287.109	90.0074	287.109	90.137	287.109	90.4373	287.109	90.5037	287.109	90.7563	287.109	90.7819	287.109	90.9242	287.109	90.93
297.363	92.7604	297.363	92.5213	297.363	92.8864	297.363	92.1787	297.363	92.8916	297.363	91.7452	297.363	92.771	297.363	91.2396	297.363	92.5242	297.363	90.6908	297.363	92.157	297.363	90.1396	297.363	91.6814	297.363	89.6368	297.363	91.1176	297.363	89.2335	297.363	90.498	297.363	88.966	297.363	89.8774	297.363	88.8449	297.363	89.3421	297.363	88.8563	297.363	89.0006	297.363	88.9746	297.363	88.9339	297.363	89.1746	297.363	89.1318	297.363	89.4329	297.363	89.4889	297.363	89.7213	297.363	89.8697	297.363	90.001	297.363	90.1698	297.363	90.2249	297.363	90.3338	297.363	90.3473
307.617	92.7091	307.617	92.4604	307.617	92.8731	307.617	92.1443	307.617	92.9354	307.617	91.775	307.617	92.8826	307.617	91.3633	307.617	92.7083	307.617	90.919	307.617	92.4136	307.617	90.456	307.617	92.0067	307.617	89.9978	307.617	91.5024	307.617	89.5805	307.617	90.9232	307.617	89.2496	307.617	90.3073	307.617	89.0483	307.617	89.7216	307.617	88.9992	307.617	89.2705	307.617	89.0922	307.617	89.0659	307.617	89.2896	307.617	89.1495	307.617	89.5436	307.617	89.444	307.617	89.8096	307.617	89.8044	307.617	90.05	307.617	90.1057	307.617	90.2306	307.617	90.2816	307.617	90.3178
319.336	92.6561	319.336	92.3997	319.336	92.8132	319.336	92.0594	319.336	92.8612	319.336	91.6549	319.336	92.7955	319.336	91.208	319.336	92.6165	319.336	90.7393	319.336	92.3286	319.336	90.2665	319.336	91.9389	319.336	89.8058	319.336	91.4557	319.336	89.378	319.336	90.8886	319.336	89.0151	319.336	90.255	319.336	88.7609	319.336	89.5982	319.336	88.6573	319.336	89.0135	319.336	88.7209	319.336	88.6475	319.336	88.9289	319.336	88.6183	319.336	89.2259	319.336	88.8991	319.336	89.5457	319.336	89.3263	319.336	89.8273	319.336	89.7245	319.336	90.0204	319.336	89.9885	319.336	90.0841
329.59	92.3251	329.59	92.1156	329.59	92.4541	329.59	91.8383	329.59	92.4916	329.59	91.5057	329.59	92.4289	329.59	91.1284	329.59	92.261	329.59	90.715	329.59	91.9882	329.59	90.2742	329.59	91.617	329.59	89.8191	329.59	91.1598	329.59	89.3727	329.59	90.6337	329.59	88.9694	329.59	90.0604	329.59	88.6523	329.59	89.4725	329.59	88.4631	329.59	88.9277	329.59	88.4287	329.59	88.5215	329.59	88.5485	329.59	88.3631	329.59	88.7895	329.59	88.4947	329.59	89.0914	329.59	88.8331	329.59	89.3796	329.59	89.2182	329.59	89.5805	329.59	89.5101	329.59	89.6346
341.309	92.5456	341.309	92.3113	341.309	92.6724	341.309	91.9809	341.309	92.6866	341.309	91.5695	341.309	92.5931	341.309	91.0931	341.309	92.4069	341.309	90.5685	341.309	92.15	341.309	90.0154	341.309	91.8436	341.309	89.461	341.309	91.4997	341.309	88.9461	341.309	91.1189	341.309	88.5253	341.309	90.6962	341.309	88.2564	341.309	90.2383	341.309	88.1783	341.309	89.7854	341.309	88.291	341.309	89.4218	341.309	88.5555	341.309	89.2469	341.309	88.9109	341.309	89.302	341.309	89.2922	341.309	89.5238	341.309	89.6372	341.309	89.7847	341.309	89.8906	341.309	89.968	341.309	90.0082
353.027	92.6576	353.027	92.4032	353.027	92.7932	353.027	92.0397	353.027	92.8082	353.027	91.5827	353.027	92.7084	353.027	91.0537	353.027	92.5056	353.027	90.479	353.027	92.2133	353.027	89.8892	353.027	91.8435	353.027	89.3175	353.027	91.4051	353.027	88.7981	353.027	90.9049	353.027	88.3658	353.027	90.354	353.027	88.0559	353.027	89.7808	353.027	87.9004	353.027	89.2523	353.027	87.9184	353.027	88.8788	353.027	88.104	353.027	88.7643	353.027	88.421	353.027	88.9146	353.027	88.808	353.027	89.2141	353.027	89.1917	353.027	89.5062	353.027	89.5	353.027	89.6762	353.027	89.6737
366.211	92.6252	366.211	92.3486	366.211	92.7954	366.211	91.9816	366.211	92.8453	366.211	91.5394	366.211	92.7643	366.211	91.0346	366.211	92.5468	366.211	90.4756	366.211	92.1973	366.211	89.8694	366.211	91.7377	366.211	89.2287	366.211	91.2121	366.211	88.5828	366.211	90.6813	366.211	87.9881	366.211	90.2038	366.211	87.5257	366.211	89.813	366.211	87.2762	366.211	89.5144	366.211	87.2765	366.211	89.3039	366.211	87.4967	366.211	89.1839	366.211	87.8596	366.211	89.1559	366.211	88.2775	366.211	89.1991	366.211	88.6742	366.211	89.2616	366.211	88.9923	366.211	89.2782	366.211	89.1963
379.395	92.9109	379.395	92.6539	379.395	93.0754	379.395	92.3207	379.395	93.1325	379.395	91.9259	379.395	93.0694	379.395	91.4812	379.395	92.876	379.395	90.9939	379.395	92.5457	379.395	90.4703	379.395	92.077	379.395	89.9215	379.395	91.4768	379.395	89.3695	379.395	90.7659	379.395	88.8511	379.395	89.9913	379.395	88.4144	379.395	89.2471	379.395	88.1073	379.395	88.6885	379.395	87.965	379.395	88.4823	379.395	88.0029	379.395	88.67	379.395	88.2147	379.395	89.0997	379.395	88.5676	379.395	89.5438	379.395	88.9988	379.395	89.8357	379.395	89.4231	379.395	89.904	379.395	89.7504
392.578	92.7851	392.578	92.5456	392.578	92.9297	392.578	92.2304	392.578	92.9613	392.578	91.8582	392.578	92.8648	392.578	91.443	392.578	92.6342	392.578	90.9899	392.578	92.2789	392.578	90.4924	392.578	91.8267	392.578	89.9407	392.578	91.3149	392.578	89.3382	392.578	90.7718	392.578	88.7251	392.578	90.2023	392.578	88.1915	392.578	89.5972	392.578	87.8568	392.578	88.9789	392.578	87.8015	392.578	88.4585	392.578	88.0082	392.578	88.2227	392.578	88.3794	392.578	88.3737	392.578	88.8025	392.578	88.788	392.578	89.1889	392.578	89.2271	392.578	89.472	392.578	89.5177	392.578	89.596
405.762	92.6815	405.762	92.4491	405.762	92.7939	405.762	92.1204	405.762	92.7669	405.762	91.7166	405.762	92.5933	405.762	91.2534	405.762	92.2863	405.762	90.7414	405.762	91.8806	405.762	90.1884	405.762	91.4263	405.762	89.6041	405.762	90.9716	405.762	89.0063	405.762	90.5416	405.762	88.4301	405.762	90.1242	405.762	87.9362	405.762	89.686	405.762	87.6095	405.762	89.2211	405.762	87.5325	405.762	88.8068	405.762	87.7346	405.762	88.596	405.762	88.1594	405.762	88.6934	405.762	88.6876	405.762	89.0301	405.762	89.19	405.762	89.4159	405.762	89.5624	405.762	89.6811	405.762	89.7362
420.41	92.87	420.41	92.614	420.41	93.0048	420.41	92.2573	420.41	93.0106	420.41	91.8281	420.41	92.8922	420.41	91.3554	420.41	92.6636	420.41	90.8621	420.41	92.3389	420.41	90.3625	420.41	91.9248	420.41	89.865	420.41	91.419	420.41	89.3783	420.41	90.8207	420.41	88.9179	420.41	90.1476	420.41	88.5084	420.41	89.4514	420.41	88.1832	420.41	88.8298	420.41	87.9822	420.41	88.419	420.41	87.948	420.41	88.3338	420.41	88.1075	420.41	88.5666	420.41	88.44	420.41	88.965	420.41	88.8613	420.41	89.3326	420.41	89.2509	420.41	89.5292	420.41	89.4973
435.059	92.769	435.059	92.5086	435.059	92.9113	435.059	92.1464	435.059	92.9278	435.059	91.7037	435.059	92.8214	435.059	91.2017	435.059	92.6028	435.059	90.6576	435.059	92.2874	435.059	90.0844	435.059	91.8919	435.059	89.4972	435.059	91.4322	435.059	88.9277	435.059	90.9155	435.059	88.4374	435.059	90.3343	435.059	88.1138	435.059	89.681	435.059	88.0294	435.059	88.9978	435.059	88.1901	435.059	88.4426	435.059	88.5278	435.059	88.2621	435.059	88.9473	435.059	88.5605	435.059	89.3705	435.059	89.1367	435.059	89.7427	435.059	89.6885	435.059	90.0156	435.059	90.0348	435.059	90.1326
451.172	93.2238	451.172	92.8859	451.172	93.4235	451.172	92.4242	451.172	93.4726	451.172	91.8568	451.172	93.3597	451.172	91.2037	451.172	93.0785	451.172	90.4814	451.172	92.6361	451.172	89.7	451.172	92.0611	451.172	88.8657	451.172	91.4047	451.172	87.993	451.172	90.7291	451.172	87.1254	451.172	90.0781	451.172	86.3641	451.172	89.4473	451.172	85.8805	451.172	88.7907	451.172	85.8465	451.172	88.0922	451.172	86.2828	451.172	87.4711	451.172	87.0148	451.172	87.1989	451.172	87.8031	451.172	87.4519	451.172	88.456	451.172	88.0419	451.172	88.8474	451.172	88.6068	451.172	88.9031
465.82	93.1641	465.82	92.8533	465.82	93.3227	465.82	92.4031	465.82	93.3212	465.82	91.8289	465.82	93.1624	465.82	91.1509	465.82	92.8627	465.82	90.3982	465.82	92.4462	465.82	89.6086	465.82	91.9315	465.82	88.8237	465.82	91.3268	465.82	88.0827	465.82	90.6417	465.82	87.4236	465.82	89.91	465.82	86.895	465.82	89.21	465.82	86.5702	465.82	88.6622	465.82	86.5334	465.82	88.3813	465.82	86.8234	465.82	88.397	465.82	87.3798	465.82	88.6326	465.82	88.0582	465.82	88.9635	465.82	88.6992	465.82	89.2704	465.82	89.1808	465.82	89.4532	465.82	89.4359
483.398	93.1134	483.398	92.8897	483.398	93.1945	483.398	92.5322	483.398	93.1376	483.398	92.0616	483.398	92.9572	483.398	91.5044	483.398	92.671	483.398	90.8839	483.398	92.2945	483.398	90.2088	483.398	91.8435	483.398	89.4687	483.398	91.3413	483.398	88.6459	483.398	90.8175	483.398	87.7513	483.398	90.2905	483.398	86.8708	483.398	89.7614	483.398	86.1816	483.398	89.2474	483.398	85.883	483.398	88.8332	483.398	86.0684	483.398	88.6595	483.398	86.669	483.398	88.8002	483.398	87.5092	483.398	89.1553	483.398	88.3831	483.398	89.5141	483.398	89.1083	483.398	89.6862	483.398	89.56
499.512	93.5038	499.512	93.1811	499.512	93.6826	499.512	92.7314	499.512	93.711	499.512	92.1841	499.512	93.5899	499.512	91.5797	499.512	93.3281	499.512	90.9571	499.512	92.9389	499.512	90.3338	499.512	92.4333	499.512	89.6917	499.512	91.8133	499.512	88.9837	499.512	91.0792	499.512	88.1692	499.512	90.252	499.512	87.2709	499.512	89.4079	499.512	86.4443	499.512	88.7093	499.512	85.9878	499.512	88.3768	499.512	86.1467	499.512	88.5211	499.512	86.8448	499.512	88.9961	499.512	87.7779	499.512	89.5257	499.512	88.6795	499.512	89.9015	499.512	89.3968	499.512	90.023	499.512	89.8549
517.09	93.0423	517.09	92.7002	517.09	93.205	517.09	92.2086	517.09	93.194	517.09	91.6282	517.09	93.0463	517.09	91.0362	517.09	92.8119	517.09	90.5009	517.09	92.5266	517.09	90.0504	517.09	92.1983	517.09	89.6523	517.09	91.8164	517.09	89.2213	517.09	91.364	517.09	88.6564	517.09	90.8123	517.09	87.8956	517.09	90.1119	517.09	86.9817	517.09	89.2316	517.09	86.1551	517.09	88.3075	517.09	85.8842	517.09	87.8295	517.09	86.5075	517.09	88.2846	517.09	87.763	517.09	89.3508	517.09	89.1094	517.09	90.3299	517.09	90.1769	517.09	90.841	517.09	90.7831
536.133	93.813	536.133	93.3017	536.133	94.0587	536.133	92.5584	536.133	94.0371	536.133	91.6566	536.133	93.7713	536.133	90.7142	536.133	93.3065	536.133	89.8744	536.133	92.7106	536.133	89.2459	536.133	92.0821	536.133	88.8275	536.133	91.5486	536.133	88.4999	536.133	91.2105	536.133	88.1123	536.133	91.0472	536.133	87.5872	536.133	90.9067	536.133	86.9814	536.133	90.6124	536.133	86.5017	536.133	90.1006	536.133	86.4417	536.133	89.5429	536.133	86.9785	536.133	89.3355	536.133	87.9829	536.133	89.686	536.133	89.1173	536.133	90.2789	536.133	90.0608	536.133	90.6653	536.133	90.6065
555.176	94.1438	555.176	93.5365	555.176	94.5018	555.176	92.696	555.176	94.6229	555.176	91.6794	555.176	94.5289	555.176	90.591	555.176	94.2355	555.176	89.5715	555.176	93.7482	555.176	88.7547	555.176	93.0774	555.176	88.192	555.176	92.2606	555.176	87.8091	555.176	91.3799	555.176	87.4569	555.176	90.5743	555.176	87.0107	555.176	90.0185	555.176	86.4515	555.176	89.8103	555.176	85.9298	555.176	89.8501	555.176	85.7757	555.176	89.9383	555.176	86.2819	555.176	89.9939	555.176	87.3534	555.176	90.0977	555.176	88.585	555.176	90.2917	555.176	89.6098	555.176	90.4152	555.176	90.2307
574.219	94.3646	574.219	93.6027	574.219	94.904	574.219	92.6498	574.219	95.2057	574.219	91.5554	574.219	95.2659	574.219	90.3855	574.219	95.0884	574.219	89.2239	574.219	94.6917	574.219	88.1761	574.219	94.1214	574.219	87.3474	574.219	93.4565	574.219	86.7756	574.219	92.7839	574.219	86.3761	574.219	92.1417	574.219	85.9692	574.219	91.4837	574.219	85.3773	574.219	90.7465	574.219	84.5871	574.219	90.0213	574.219	84.0611	574.219	89.6699	574.219	84.7406	574.219	89.9961	574.219	86.6328	574.219	90.7426	574.219	88.7001	574.219	91.3935	574.219	90.3052	574.219	91.6205	574.219	91.2787
594.727	93.2283	594.727	92.3181	594.727	93.9093	594.727	91.214	594.727	94.3548	594.727	89.9792	594.727	94.5783	594.727	88.7002	594.727	94.5978	594.727	87.4837	594.727	94.4274	594.727	86.4407	594.727	94.0857	594.727	85.6356	594.727	93.6104	594.727	85.0306	594.727	93.0526	594.727	84.5095	594.727	92.4432	594.727	83.9596	594.727	91.7591	594.727	83.3137	594.727	90.9393	594.727	82.5468	594.727	89.9981	594.727	81.7822	594.727	89.2218	594.727	81.6728	594.727	89.1137	594.727	83.1249	594.727	89.6617	594.727	85.5827	594.727	90.2026	594.727	87.8546	594.727	90.1965	594.727	89.428
615.234	89	615.234	88.1255	615.234	89.8906	615.234	87.396	615.234	90.6827	615.234	86.9066	615.234	91.2973	615.234	86.6571	615.234	91.703	615.234	86.5491	615.234	91.9152	615.234	86.4685	615.234	91.9772	615.234	86.3722	615.234	91.9326	615.234	86.2882	615.234	91.8008	615.234	86.2287	615.234	91.5644	615.234	86.1226	615.234	91.1823	615.234	85.8393	615.234	90.6272	615.234	85.2328	615.234	89.909	615.234	84.1439	615.234	89.0834	615.234	82.4312	615.234	88.2879	615.234	80.3864	615.234	87.6965	615.234	80.0591	615.234	87.2303	615.234	82.4302	615.234	86.4516	615.234	84.8989
637.207	91.67	637.207	91.9619	637.207	91.1055	637.207	91.9868	637.207	90.3068	637.207	91.7772	637.207	89.3669	637.207	91.3831	637.207	88.4052	637.207	90.8699	637.207	87.4922	637.207	90.3114	637.207	86.6019	637.207	89.7762	637.207	85.7169	637.207	89.3143	637.207	85.0178	637.207	88.9534	637.207	84.7879	637.207	88.6975	637.207	84.9633	637.207	88.5184	637.207	85.1162	637.207	88.3504	637.207	84.9643	637.207	88.1047	637.207	84.6877	637.207	87.7055	637.207	84.7409	637.207	87.1376	637.207	85.1785	637.207	86.4995	637.207	85.5995	637.207	86.0038	637.207	85.7665	637.207	85.8031
659.18	95.1002	659.18	95.0678	659.18	94.8121	659.18	94.7462	659.18	94.1985	659.18	94.1895	659.18	93.281	659.18	93.4723	659.18	92.1028	659.18	92.6884	659.18	90.7289	659.18	91.9381	659.18	89.2716	659.18	91.2863	659.18	87.9065	659.18	90.7188	659.18	86.7959	659.18	90.1671	659.18	85.9559	659.18	89.6039	659.18	85.2382	659.18	89.112	659.18	84.4751	659.18	88.8235	659.18	83.6489	659.18	88.7757	659.18	83.0654	659.18	88.9075	659.18	83.4769	659.18	89.1702	659.18	85.1615	659.18	89.5024	659.18	87.187	659.18	89.7189	659.18	88.7251	659.18	89.5401
682.617	95.7015	682.617	95.3582	682.617	95.7194	682.617	94.7265	682.617	95.3957	682.617	93.8544	682.617	94.752	682.617	92.8106	682.617	93.8342	682.617	91.7061	682.617	92.6808	682.617	90.699	682.617	91.3731	682.617	89.9488	682.617	90.1872	682.617	89.5117	682.617	89.5434	682.617	89.2722	682.617	89.4799	682.617	89.0341	682.617	89.4971	682.617	88.697	682.617	89.1865	682.617	88.3427	682.617	88.5531	682.617	88.1738	682.617	87.8545	682.617	88.3421	682.617	87.3881	682.617	88.823	682.617	87.48	682.617	89.4271	682.617	88.2576	682.617	89.864	682.617	89.2438	682.617	89.8466
707.52	95.4059	707.52	94.8555	707.52	95.6964	707.52	94.0364	707.52	95.7571	707.52	93.0012	707.52	95.5878	707.52	91.8736	707.52	95.1306	707.52	90.8133	707.52	94.3238	707.52	89.9573	707.52	93.2075	707.52	89.3778	707.52	91.9644	707.52	89.0087	707.52	90.802	707.52	88.6281	707.52	89.8066	707.52	88.0423	707.52	88.9775	707.52	87.2629	707.52	88.2976	707.52	86.4997	707.52	87.6951	707.52	86.0463	707.52	87.1338	707.52	86.1884	707.52	86.9286	707.52	87.0666	707.52	87.6157	707.52	88.3948	707.52	88.9034	707.52	89.5808	707.52	89.9108	707.52	90.156
732.422	93.0276	732.422	92.4835	732.422	93.3817	732.422	91.8082	732.422	93.5221	732.422	91.0754	732.422	93.4456	732.422	90.3079	732.422	93.1431	732.422	89.4335	732.422	92.5888	732.422	88.368	732.422	91.7734	732.422	87.2004	732.422	90.7587	732.422	86.2572	732.422	89.7072	732.422	85.7567	732.422	88.8734	732.422	85.5072	732.422	88.4794	732.422	85.2337	732.422	88.4391	732.422	84.8287	732.422	88.3282	732.422	84.3242	732.422	87.8134	732.422	83.9409	732.422	87.1608	732.422	84.1912	732.422	87.1822	732.422	85.3892	732.422	87.8708	732.422	86.9379	732.422	88.3323	732.422	88.0376
757.324	92.1759	757.324	91.8187	757.324	92.4046	757.324	91.3693	757.324	92.4821	757.324	90.8595	757.324	92.3806	757.324	90.2697	757.324	92.0384	757.324	89.4974	757.324	91.3706	757.324	88.3906	757.324	90.3781	757.324	86.8558	757.324	89.2986	757.324	85.0633	757.324	88.5295	757.324	83.651	757.324	88.2071	757.324	83.2546	757.324	88.0981	757.324	83.5375	757.324	88.051	757.324	83.734	757.324	88.0683	757.324	83.5167	757.324	87.9753	757.324	83.0794	757.324	87.5912	757.324	83.0458	757.324	87.1281	757.324	83.9258	757.324	86.955	757.324	85.3024	757.324	86.8865	757.324	86.4005
785.156	92.4278	785.156	92.303	785.156	92.394	785.156	92.0527	785.156	92.1811	785.156	91.6814	785.156	91.7639	785.156	91.1507	785.156	91.0702	785.156	90.4285	785.156	90.0463	785.156	89.5323	785.156	88.8091	785.156	88.5164	785.156	87.6375	785.156	87.4414	785.156	86.7342	785.156	86.37	785.156	86.0698	785.156	85.3717	785.156	85.3818	785.156	84.5043	785.156	84.468	785.156	83.8126	785.156	83.5769	785.156	83.3608	785.156	83.2497	785.156	83.2112	785.156	83.5938	785.156	83.3728	785.156	84.3034	785.156	83.8681	785.156	85.0745	785.156	84.6431	785.156	85.5113	785.156	85.3332
811.523	92.4228	811.523	92.2976	811.523	92.3038	811.523	91.9099	811.523	91.9892	811.523	91.2741	811.523	91.5309	811.523	90.4403	811.523	90.9132	811.523	89.4864	811.523	89.9926	811.523	88.4711	811.523	88.5778	811.523	87.3682	811.523	86.6578	811.523	86.1225	811.523	84.6664	811.523	84.8452	811.523	83.6163	811.523	83.8813	811.523	83.9721	811.523	83.503	811.523	84.5465	811.523	83.5184	811.523	84.2548	811.523	83.503	811.523	82.817	811.523	83.3927	811.523	81.3177	811.523	83.6291	811.523	82.5301	811.523	84.5083	811.523	84.8675	811.523	85.6089	811.523	86.1728	811.523	86.313
840.82	92.629	840.82	92.3773	840.82	92.6171	840.82	91.9367	840.82	92.3858	840.82	91.4389	840.82	91.9898	840.82	90.875	840.82	91.3757	840.82	90.0222	840.82	90.4409	840.82	88.6537	840.82	89.2239	840.82	86.8567	840.82	87.9036	840.82	85.1834	840.82	86.4771	840.82	84.2195	840.82	84.7647	840.82	83.8325	840.82	82.9219	840.82	83.4673	840.82	81.7094	840.82	82.9421	840.82	81.7897	840.82	82.5168	840.82	82.5648	840.82	82.5199	840.82	83.1201	840.82	83.1432	840.82	83.5586	840.82	84.2887	840.82	84.5232	840.82	85.4297	840.82	85.5984	840.82	85.9667
870.117	92.6502	870.117	92.4294	870.117	92.4966	870.117	91.8607	870.117	92.0327	870.117	90.9945	870.117	91.3742	870.117	89.8179	870.117	90.603	870.117	88.3318	870.117	89.72	870.117	86.7786	870.117	88.6371	870.117	85.6009	870.117	87.2474	870.117	84.9736	870.117	85.7579	870.117	84.6665	870.117	84.9339	870.117	84.3317	870.117	84.9475	870.117	83.7668	870.117	84.9231	870.117	82.9552	870.117	84.3138	870.117	81.9732	870.117	82.9981	870.117	81.1906	870.117	81.4249	870.117	81.5415	870.117	81.8007	870.117	83.2161	870.117	84.1052	870.117	85.0091	870.117	85.7298	870.117	85.9847
900.879	93.3763	900.879	92.9522	900.879	93.4178	900.879	92.2179	900.879	93.1629	900.879	91.3044	900.879	92.7284	900.879	90.163	900.879	92.1223	900.879	88.5498	900.879	91.2815	900.879	86.3096	900.879	90.189	900.879	83.8089	900.879	88.8177	900.879	82.093	900.879	86.9762	900.879	81.8418	900.879	84.4999	900.879	82.3823	900.879	82.1725	900.879	82.9045	900.879	82.3247	900.879	83.1487	900.879	84.1125	900.879	82.8911	900.879	85.1993	900.879	82.0329	900.879	85.0433	900.879	81.7913	900.879	84.2018	900.879	83.6292	900.879	84.5045	900.879	85.7342	900.879	85.9623	900.879	86.5997
933.105	92.2994	933.105	91.7166	933.105	92.4371	933.105	90.9214	933.105	92.0971	933.105	89.9853	933.105	91.5518	933.105	88.7065	933.105	91.0078	933.105	86.9853	933.105	90.3544	933.105	85.2196	933.105	89.6324	933.105	84.0472	933.105	89.1696	933.105	83.3572	933.105	88.7927	933.105	82.5191	933.105	87.9052	933.105	81.5931	933.105	86.4295	933.105	81.1101	933.105	84.9808	933.105	81.0966	933.105	84.128	933.105	81.0151	933.105	83.6929	933.105	80.2013	933.105	83.4082	933.105	78.8954	933.105	83.5811	933.105	80.379	933.105	84.5783	933.105	83.7205	933.105	85.6608	933.105	85.5922
965.332	92.3626	965.332	92.4923	965.332	92.1754	965.332	92.3452	965.332	92.0118	965.332	91.6612	965.332	91.7632	965.332	90.3119	965.332	91.2923	965.332	88.4324	965.332	90.6735	965.332	86.4473	965.332	89.9616	965.332	84.9462	965.332	88.9764	965.332	84.3653	965.332	87.7929	965.332	84.5582	965.332	86.736	965.332	84.6416	965.332	85.7612	965.332	84.0343	965.332	85.0173	965.332	83.1123	965.332	85.149	965.332	82.8951	965.332	85.3351	965.332	83.0583	965.332	84.5928	965.332	82.1008	965.332	83.8808	965.332	79.9027	965.332	84.735	965.332	80.9851	965.332	85.3455	965.332	84.1088
1,000.49	92.511	1,000.49	92.4035	1,000.49	92.2883	1,000.49	92.072	1,000.49	91.7256	1,000.49	91.4767	1,000.49	91.0175	1,000.49	90.4214	1,000.49	90.3691	1,000.49	88.8208	1,000.49	89.7386	1,000.49	87.0721	1,000.49	88.8508	1,000.49	85.7371	1,000.49	87.4416	1,000.49	84.7541	1,000.49	85.6268	1,000.49	84.1971	1,000.49	84.2792	1,000.49	83.7162	1,000.49	84.1348	1,000.49	82.7994	1,000.49	83.9617	1,000.49	82.0328	1,000.49	82.4125	1,000.49	82.1786	1,000.49	80.2154	1,000.49	82.5714	1,000.49	79.9882	1,000.49	82.1588	1,000.49	80.7947	1,000.49	81.7797	1,000.49	82.2539	1,000.49	83.2103	1,000.49	84.1054	1,000.49	84.5431
1,035.64	92.1119	1,035.64	92.6578	1,035.64	91.3619	1,035.64	92.7078	1,035.64	90.7373	1,035.64	92.0916	1,035.64	90.3039	1,035.64	90.874	1,035.64	89.8208	1,035.64	89.4618	1,035.64	89.1769	1,035.64	88.2467	1,035.64	88.4677	1,035.64	86.9143	1,035.64	87.5422	1,035.64	84.7784	1,035.64	86.4943	1,035.64	82.0834	1,035.64	85.6506	1,035.64	81.0166	1,035.64	84.5639	1,035.64	81.9586	1,035.64	83.5984	1,035.64	82.5447	1,035.64	84.4382	1,035.64	82.3207	1,035.64	85.2368	1,035.64	82.139	1,035.64	84.2919	1,035.64	82.1309	1,035.64	82.4554	1,035.64	81.8282	1,035.64	83.1662	1,035.64	82.4462	1,035.64	84.481	1,035.64	84.0599
1,072.27	91.9479	1,072.27	92.1351	1,072.27	91.5	1,072.27	92.1455	1,072.27	90.7192	1,072.27	91.7789	1,072.27	89.7025	1,072.27	90.7946	1,072.27	88.6127	1,072.27	89.5014	1,072.27	87.7325	1,072.27	88.7018	1,072.27	86.9747	1,072.27	88.3041	1,072.27	85.389	1,072.27	87.1559	1,072.27	82.7196	1,072.27	84.9123	1,072.27	81.2892	1,072.27	83.4115	1,072.27	82.1951	1,072.27	83.8188	1,072.27	82.5133	1,072.27	83.9253	1,072.27	81.1647	1,072.27	82.2965	1,072.27	79.4407	1,072.27	80.7894	1,072.27	79.1261	1,072.27	81.8444	1,072.27	80.3098	1,072.27	82.5871	1,072.27	81.9121	1,072.27	82.5948	1,072.27	83.1014	1,072.27	83.1295
1,108.89	91.4336	1,108.89	91.9577	1,108.89	90.832	1,108.89	92.1661	1,108.89	90.2458	1,108.89	91.9075	1,108.89	89.3056	1,108.89	91.205	1,108.89	87.6657	1,108.89	90.2861	1,108.89	85.9096	1,108.89	89.237	1,108.89	84.9407	1,108.89	87.9146	1,108.89	84.3445	1,108.89	86.6097	1,108.89	83.4508	1,108.89	85.5391	1,108.89	82.0322	1,108.89	84.6838	1,108.89	80.689	1,108.89	84.5317	1,108.89	80.389	1,108.89	84.9738	1,108.89	80.326	1,108.89	84.7342	1,108.89	80.8759	1,108.89	83.6536	1,108.89	80.5754	1,108.89	82.3738	1,108.89	78.537	1,108.89	81.2364	1,108.89	80.0103	1,108.89	80.6353	1,108.89	81.8958	1,108.89	81.4707
1,148.44	91.5138	1,148.44	92.2554	1,148.44	90.3717	1,148.44	92.4329	1,148.44	89.0836	1,148.44	92.0398	1,148.44	87.7731	1,148.44	91.2698	1,148.44	86.4674	1,148.44	90.4925	1,148.44	85.3152	1,148.44	89.77	1,148.44	84.1407	1,148.44	88.5913	1,148.44	82.2956	1,148.44	86.8186	1,148.44	79.7351	1,148.44	85.2634	1,148.44	77.8273	1,148.44	84.4289	1,148.44	77.3038	1,148.44	84.1274	1,148.44	78.6585	1,148.44	84.2525	1,148.44	81.3575	1,148.44	84.1494	1,148.44	81.7767	1,148.44	82.7303	1,148.44	77.7355	1,148.44	80.7302	1,148.44	73.0822	1,148.44	81.1788	1,148.44	75.7473	1,148.44	81.7162	1,148.44	78.0508	1,148.44	80.456
1,189.45	92.0251	1,189.45	92.366	1,189.45	91.3222	1,189.45	92.5362	1,189.45	89.9808	1,189.45	92.4236	1,189.45	87.7038	1,189.45	91.7866	1,189.45	84.7967	1,189.45	90.7113	1,189.45	82.6857	1,189.45	89.402	1,189.45	81.6027	1,189.45	87.9561	1,189.45	81.424	1,189.45	86.4827	1,189.45	82.0758	1,189.45	85.0862	1,189.45	81.3024	1,189.45	84.1902	1,189.45	78.0079	1,189.45	84.3905	1,189.45	73.3186	1,189.45	85.0936	1,189.45	71.6874	1,189.45	84.8722	1,189.45	77.3164	1,189.45	83.3371	1,189.45	79.9502	1,189.45	81.7151	1,189.45	76.8592	1,189.45	81.5927	1,189.45	68.578	1,189.45	81.7091	1,189.45	77.9028	1,189.45	80.8862
1,230.47	93.169	1,230.47	93.7104	1,230.47	92.1552	1,230.47	93.6302	1,230.47	90.606	1,230.47	92.7768	1,230.47	88.2286	1,230.47	91.4989	1,230.47	85.3291	1,230.47	90.6702	1,230.47	83.7361	1,230.47	90.2671	1,230.47	84.3687	1,230.47	89.0154	1,230.47	84.6411	1,230.47	86.3884	1,230.47	81.861	1,230.47	83.6705	1,230.47	76.9839	1,230.47	82.7164	1,230.47	77.6333	1,230.47	83.2304	1,230.47	77.0581	1,230.47	84.0952	1,230.47	76.8822	1,230.47	84.6641	1,230.47	82.5983	1,230.47	84.4672	1,230.47	82.7975	1,230.47	83.7239	1,230.47	78.5057	1,230.47	83.4631	1,230.47	74.7309	1,230.47	83.1458	1,230.47	78.6813	1,230.47	81.6689
1,274.41	93.6659	1,274.41	93.9044	1,274.41	92.6288	1,274.41	93.6185	1,274.41	90.4642	1,274.41	92.6682	1,274.41	87.9539	1,274.41	91.2037	1,274.41	87.0849	1,274.41	90.2806	1,274.41	87.0733	1,274.41	90.0602	1,274.41	86.6723	1,274.41	88.8372	1,274.41	86.1354	1,274.41	86.2259	1,274.41	84.7271	1,274.41	84.2639	1,274.41	82.9988	1,274.41	83.0869	1,274.41	81.495	1,274.41	81.9183	1,274.41	78.5788	1,274.41	84.2473	1,274.41	77.7319	1,274.41	85.8082	1,274.41	80.1703	1,274.41	85.0448	1,274.41	80.4046	1,274.41	82.6351	1,274.41	79.6262	1,274.41	82.3227	1,274.41	74.8027	1,274.41	83.4767	1,274.41	77.7561	1,274.41	82.5102
1,319.82	93.1112	1,319.82	93.7909	1,319.82	92.0007	1,319.82	93.4078	1,319.82	90.9704	1,319.82	91.7946	1,319.82	90.346	1,319.82	89.8249	1,319.82	89.6988	1,319.82	88.2521	1,319.82	88.335	1,319.82	86.6839	1,319.82	87.0349	1,319.82	85.3128	1,319.82	86.953	1,319.82	83.7546	1,319.82	86.0611	1,319.82	83.0869	1,319.82	83.0363	1,319.82	82.2727	1,319.82	80.3937	1,319.82	79.5592	1,319.82	81.7081	1,319.82	79.3737	1,319.82	77.057	1,319.82	84.0521	1,319.82	79.3056	1,319.82	85.8629	1,319.82	84.3985	1,319.82	83.8566	1,319.82	84.4315	1,319.82	80.9777	1,319.82	80.7609	1,319.82	83.8149	1,319.82	80.146	1,319.82	83.9895
1,366.7	94.3517	1,366.7	94.8872	1,366.7	93.5091	1,366.7	94.2876	1,366.7	92.6133	1,366.7	92.7616	1,366.7	91.274	1,366.7	91.878	1,366.7	89.5996	1,366.7	90.9327	1,366.7	87.9768	1,366.7	87.5883	1,366.7	87.0814	1,366.7	83.4782	1,366.7	87.4578	1,366.7	82.1896	1,366.7	87.5802	1,366.7	81.5849	1,366.7	85.7415	1,366.7	81.9371	1,366.7	82.5842	1,366.7	81.6097	1,366.7	78.9021	1,366.7	77.4505	1,366.7	74.7007	1,366.7	80.7269	1,366.7	81.8418	1,366.7	85.3808	1,366.7	82.9221	1,366.7	85.0546	1,366.7	81.0917	1,366.7	81.149	1,366.7	81.1845	1,366.7	80.0352	1,366.7	81.6055	1,366.7	81.9381
1,413.57	93.693	1,413.57	94.4141	1,413.57	92.6249	1,413.57	94.2258	1,413.57	91.5792	1,413.57	93.0895	1,413.57	90.475	1,413.57	91.7047	1,413.57	88.7951	1,413.57	90.0226	1,413.57	86.8094	1,413.57	87.291	1,413.57	86.2977	1,413.57	83.667	1,413.57	85.8923	1,413.57	81.2371	1,413.57	84.7582	1,413.57	81.1641	1,413.57	84.2557	1,413.57	80.1142	1,413.57	82.1797	1,413.57	78.2797	1,413.57	78.7917	1,413.57	77.0154	1,413.57	79.6444	1,413.57	76.0344	1,413.57	77.8762	1,413.57	80.0176	1,413.57	78.0936	1,413.57	81.0248	1,413.57	82.4522	1,413.57	79.891	1,413.57	80.1908	1,413.57	80.4302	1,413.57	79.7005	1,413.57	82.0862
1,463.38	93.576	1,463.38	94.1714	1,463.38	92.1283	1,463.38	93.3809	1,463.38	90.9148	1,463.38	92.4978	1,463.38	89.7623	1,463.38	92.1412	1,463.38	88.2415	1,463.38	89.9847	1,463.38	85.9873	1,463.38	85.6123	1,463.38	84.284	1,463.38	83.8669	1,463.38	83.683	1,463.38	83.0532	1,463.38	83.5317	1,463.38	80.0902	1,463.38	82.3377	1,463.38	80.4068	1,463.38	80.1905	1,463.38	80.7505	1,463.38	78.3215	1,463.38	75.7556	1,463.38	74.7454	1,463.38	69.0133	1,463.38	72.2428	1,463.38	75.2901	1,463.38	77.1665	1,463.38	78.5907	1,463.38	77.7856	1,463.38	78.9318	1,463.38	78.5216	1,463.38	78.8733	1,463.38	80.3393	1,463.38	79.9587
1,516.11	91.9898	1,516.11	92.0181	1,516.11	91.1105	1,516.11	91.4985	1,516.11	89.8976	1,516.11	91.2766	1,516.11	88.6149	1,516.11	90.3582	1,516.11	87.3467	1,516.11	87.6387	1,516.11	87.2181	1,516.11	85.7619	1,516.11	86.1776	1,516.11	86.2201	1,516.11	84.1775	1,516.11	83.9593	1,516.11	84.3135	1,516.11	79.6578	1,516.11	83.8774	1,516.11	78.8652	1,516.11	80.9552	1,516.11	82.7837	1,516.11	81.3772	1,516.11	83.1175	1,516.11	78.4156	1,516.11	76.9598	1,516.11	76.2997	1,516.11	75.7691	1,516.11	80.3465	1,516.11	79.867	1,516.11	77.8701	1,516.11	77.368	1,516.11	75.7789	1,516.11	76.8902	1,516.11	79.2817	1,516.11	79.7723
1,568.85	91.7495	1,568.85	91.1618	1,568.85	91.0344	1,568.85	91.0692	1,568.85	89.024	1,568.85	91.6229	1,568.85	87.8955	1,568.85	90.1817	1,568.85	88.3984	1,568.85	86.7687	1,568.85	87.1012	1,568.85	85.9236	1,568.85	86.445	1,568.85	85.4246	1,568.85	85.4501	1,568.85	81.5226	1,568.85	84.7159	1,568.85	75.5226	1,568.85	83.5312	1,568.85	75.5446	1,568.85	81.0851	1,568.85	79.9423	1,568.85	82.8989	1,568.85	80.3908	1,568.85	78.9708	1,568.85	80.3163	1,568.85	77.1412	1,568.85	78.7141	1,568.85	80.4072	1,568.85	81.4099	1,568.85	77.2342	1,568.85	79.9308	1,568.85	76.4527	1,568.85	75.7914	1,568.85	80.6203	1,568.85	78.8569
1,624.51	92.0892	1,624.51	91.393	1,624.51	91.4051	1,624.51	90.4715	1,624.51	89.2861	1,624.51	90.0155	1,624.51	87.294	1,624.51	89.0448	1,624.51	86.2859	1,624.51	86.9154	1,624.51	85.0173	1,624.51	86.0123	1,624.51	85.6001	1,624.51	83.3188	1,624.51	85.3259	1,624.51	79.7633	1,624.51	84.762	1,624.51	78.3315	1,624.51	84.6265	1,624.51	72.0391	1,624.51	82.1026	1,624.51	67.6158	1,624.51	80.5789	1,624.51	76.0338	1,624.51	80.9925	1,624.51	80.7221	1,624.51	77.6134	1,624.51	76.8543	1,624.51	76.6548	1,624.51	77.24	1,624.51	75.2409	1,624.51	79.2045	1,624.51	70.7466	1,624.51	76.9864	1,624.51	76.2201	1,624.51	77.7484
1,681.64	92.5435	1,681.64	92.2375	1,681.64	91.5878	1,681.64	91.4643	1,681.64	89.5859	1,681.64	90.4538	1,681.64	86.3213	1,681.64	87.6695	1,681.64	83.1483	1,681.64	85.8868	1,681.64	83.3526	1,681.64	85.7342	1,681.64	84.4902	1,681.64	81.6656	1,681.64	83.1031	1,681.64	77.1303	1,681.64	84.4877	1,681.64	78.5882	1,681.64	83.894	1,681.64	73.7073	1,681.64	81.651	1,681.64	61.5453	1,681.64	83.7762	1,681.64	56.9677	1,681.64	82.7459	1,681.64	77.6	1,681.64	77.8484	1,681.64	77.0942	1,681.64	78.7686	1,681.64	72.6999	1,681.64	79.2087	1,681.64	77.3443	1,681.64	73.0999	1,681.64	75.5829	1,681.64	74.3742	1,681.64	75.5031
1,741.7	93.0503	1,741.7	93.4585	1,741.7	91.736	1,741.7	93.0154	1,741.7	88.6006	1,741.7	90.9865	1,741.7	84.8113	1,741.7	87.9075	1,741.7	82.3746	1,741.7	86.6152	1,741.7	80.3728	1,741.7	86.1541	1,741.7	82.34	1,741.7	82.4921	1,741.7	83.7954	1,741.7	76.912	1,741.7	83.7799	1,741.7	72.2007	1,741.7	83.3232	1,741.7	73.7052	1,741.7	81.2522	1,741.7	76.8974	1,741.7	81.2921	1,741.7	68.3451	1,741.7	80.0715	1,741.7	72.3054	1,741.7	73.7179	1,741.7	77.0858	1,741.7	80.4242	1,741.7	76.7699	1,741.7	77.8589	1,741.7	75.3242	1,741.7	76.1438	1,741.7	78.3939	1,741.7	78.9194	1,741.7	80.3375
1,803.22	92.3136	1,803.22	93.325	1,803.22	91.1464	1,803.22	93.0063	1,803.22	88.6617	1,803.22	90.3698	1,803.22	84.0445	1,803.22	87.1858	1,803.22	81.3147	1,803.22	86.4127	1,803.22	81.3316	1,803.22	85.6093	1,803.22	83.0694	1,803.22	81.8247	1,803.22	83.0229	1,803.22	81.0844	1,803.22	83.5514	1,803.22	79.252	1,803.22	84.6985	1,803.22	81.606	1,803.22	85.8481	1,803.22	81.5761	1,803.22	83.2724	1,803.22	73.9093	1,803.22	78.5461	1,803.22	66.7158	1,803.22	75.5857	1,803.22	73.0228	1,803.22	79.3711	1,803.22	76.1114	1,803.22	77.2932	1,803.22	77.6434	1,803.22	75.1738	1,803.22	74.3479	1,803.22	79.371	1,803.22	78.7776
1,866.21	91.8957	1,866.21	93.4331	1,866.21	89.848	1,866.21	93.3756	1,866.21	87.1546	1,866.21	91.6346	1,866.21	79.1718	1,866.21	89.682	1,866.21	79.5389	1,866.21	88.6983	1,866.21	83.4291	1,866.21	81.9999	1,866.21	82.6344	1,866.21	74.9267	1,866.21	81.9673	1,866.21	77.0567	1,866.21	82.4123	1,866.21	69.8456	1,866.21	85.8184	1,866.21	68.9023	1,866.21	84.8169	1,866.21	77.105	1,866.21	82.494	1,866.21	82.126	1,866.21	78.5983	1,866.21	76.678	1,866.21	79.3222	1,866.21	68.9274	1,866.21	78.4848	1,866.21	75.2268	1,866.21	78.6316	1,866.21	77.1875	1,866.21	72.3577	1,866.21	78.0176	1,866.21	78.1671	1,866.21	75.8968
1,932.13	91.2262	1,932.13	92.2511	1,932.13	88.8306	1,932.13	91.5918	1,932.13	86.359	1,932.13	92.2409	1,932.13	79.4395	1,932.13	90.1191	1,932.13	78.6579	1,932.13	85.1502	1,932.13	83.1709	1,932.13	83.3729	1,932.13	84.4716	1,932.13	77.3926	1,932.13	83.4229	1,932.13	77.4639	1,932.13	83.4874	1,932.13	70.2171	1,932.13	84.8875	1,932.13	66.498	1,932.13	84.3315	1,932.13	65.3227	1,932.13	81.6046	1,932.13	64.9285	1,932.13	81.3404	1,932.13	66.2392	1,932.13	81.6819	1,932.13	62.5166	1,932.13	79.0348	1,932.13	74.3692	1,932.13	77.9449	1,932.13	71.1244	1,932.13	68.6895	1,932.13	75.7731	1,932.13	77.7658	1,932.13	77.8359
1,999.51	92.5422	1,999.51	91.9939	1,999.51	88.3666	1,999.51	92.0802	1,999.51	84.4253	1,999.51	92.9889	1,999.51	74.8642	1,999.51	89.873	1,999.51	82.625	1,999.51	86.3611	1,999.51	84.8957	1,999.51	80.1332	1,999.51	85.4869	1,999.51	73.7418	1,999.51	84.5854	1,999.51	58.8051	1,999.51	83.5473	1,999.51	73.4338	1,999.51	83.5034	1,999.51	76.4509	1,999.51	84.118	1,999.51	73.4026	1,999.51	84.9656	1,999.51	65.7624	1,999.51	82.1812	1,999.51	71.5215	1,999.51	81.5425	1,999.51	69.4264	1,999.51	79.3584	1,999.51	72.4989	1,999.51	76.8931	1,999.51	74.6119	1,999.51	70.3683	1,999.51	72.878	1,999.51	77.2458	1,999.51	76.9362
2,069.82	92.8688	2,069.82	92.5396	2,069.82	89.7304	2,069.82	92.9515	2,069.82	82.0855	2,069.82	91.5584	2,069.82	72.5566	2,069.82	88.3054	2,069.82	82.4362	2,069.82	84.2903	2,069.82	86.0756	2,069.82	78.1407	2,069.82	85.5941	2,069.82	75.5495	2,069.82	85.0099	2,069.82	68.8396	2,069.82	83.5528	2,069.82	74.0495	2,069.82	85.1643	2,069.82	71.5815	2,069.82	85.8975	2,069.82	71.9835	2,069.82	84.5713	2,069.82	75.5394	2,069.82	84.2902	2,069.82	66.9744	2,069.82	80.9929	2,069.82	72.8674	2,069.82	80.6878	2,069.82	72.7021	2,069.82	77.6284	2,069.82	72.2828	2,069.82	75.4341	2,069.82	66.9263	2,069.82	78.8713	2,069.82	75.5412
2,143.07	91.9594	2,143.07	93.8151	2,143.07	89.1901	2,143.07	93.4449	2,143.07	81.5511	2,143.07	88.7237	2,143.07	82.6494	2,143.07	86.1404	2,143.07	83.9269	2,143.07	80.5994	2,143.07	86.3183	2,143.07	72.6685	2,143.07	86.4591	2,143.07	74.5951	2,143.07	85.5756	2,143.07	79.4668	2,143.07	84.6538	2,143.07	69.9853	2,143.07	84.0403	2,143.07	77.5199	2,143.07	85.3338	2,143.07	67.4904	2,143.07	84.8557	2,143.07	76.9145	2,143.07	84.1171	2,143.07	72.1223	2,143.07	79.664	2,143.07	69.8142	2,143.07	77.436	2,143.07	71.1834	2,143.07	72.1659	2,143.07	70.8728	2,143.07	75.683	2,143.07	72.6161	2,143.07	78.9955	2,143.07	72.9741
2,219.24	91.6987	2,219.24	94.0394	2,219.24	88.489	2,219.24	92.8077	2,219.24	77.0936	2,219.24	88.8897	2,219.24	84.9189	2,219.24	83.0687	2,219.24	87.0274	2,219.24	78.7083	2,219.24	87.7253	2,219.24	75.9319	2,219.24	87.6416	2,219.24	77.5799	2,219.24	84.1105	2,219.24	73.2859	2,219.24	80.5507	2,219.24	78.8276	2,219.24	82.2091	2,219.24	77.9968	2,219.24	82.2008	2,219.24	75.7404	2,219.24	85.0163	2,219.24	75.3018	2,219.24	82.4639	2,219.24	75.2624	2,219.24	79.4582	2,219.24	70.7653	2,219.24	74.1397	2,219.24	74.2098	2,219.24	70.1052	2,219.24	65.0833	2,219.24	72.329	2,219.24	70.5759	2,219.24	77.4168	2,219.24	74.1027
2,296.88	91.9312	2,296.88	93.0656	2,296.88	87.5166	2,296.88	91.6641	2,296.88	78.0868	2,296.88	89.4201	2,296.88	85.2712	2,296.88	82.9474	2,296.88	88.4988	2,296.88	76.9457	2,296.88	89.2322	2,296.88	79.7173	2,296.88	88.7919	2,296.88	80.6578	2,296.88	85.2553	2,296.88	80.102	2,296.88	80.5442	2,296.88	80.6259	2,296.88	81.3211	2,296.88	78.8845	2,296.88	79.9355	2,296.88	74.8441	2,296.88	82.5598	2,296.88	73.4343	2,296.88	81.5163	2,296.88	77.1245	2,296.88	78.1235	2,296.88	71.9662	2,296.88	75.181	2,296.88	73.3579	2,296.88	74.1185	2,296.88	57.4836	2,296.88	72.1509	2,296.88	73.248	2,296.88	75.2811	2,296.88	68.5065
2,378.91	92.5434	2,378.91	91.7246	2,378.91	88.6543	2,378.91	90.2038	2,378.91	75.4739	2,378.91	88.1383	2,378.91	84.7443	2,378.91	82.675	2,378.91	88.7585	2,378.91	79.0608	2,378.91	89.2032	2,378.91	78.9737	2,378.91	89.2519	2,378.91	80.0492	2,378.91	87.374	2,378.91	73.3584	2,378.91	82.6327	2,378.91	77.251	2,378.91	84.118	2,378.91	73.7041	2,378.91	82.422	2,378.91	78.0425	2,378.91	76.9933	2,378.91	74.4059	2,378.91	80.0401	2,378.91	75.3903	2,378.91	78.7614	2,378.91	73.1591	2,378.91	74.4123	2,378.91	70.2457	2,378.91	74.5003	2,378.91	57.0289	2,378.91	60.4533	2,378.91	74.1152	2,378.91	75.2223	2,378.91	73.0529
2,462.4	92.9861	2,462.4	92.4033	2,462.4	90.0317	2,462.4	91.2129	2,462.4	80.5224	2,462.4	86.1575	2,462.4	82.4445	2,462.4	82.8699	2,462.4	88.3679	2,462.4	77.6003	2,462.4	89.5894	2,462.4	79.5609	2,462.4	89.5311	2,462.4	76.0626	2,462.4	87.7951	2,462.4	81.7626	2,462.4	80.0889	2,462.4	77.7628	2,462.4	80.536	2,462.4	79.2436	2,462.4	82.9917	2,462.4	76.984	2,462.4	81.3428	2,462.4	76.0036	2,462.4	75.6825	2,462.4	74.5414	2,462.4	80.7566	2,462.4	73.805	2,462.4	73.2089	2,462.4	72.3472	2,462.4	72.5574	2,462.4	65.6747	2,462.4	69.7377	2,462.4	71.3144	2,462.4	76.3985	2,462.4	74.7115
2,548.83	91.5945	2,548.83	92.5985	2,548.83	90.1674	2,548.83	90.5311	2,548.83	83.0088	2,548.83	82.6967	2,548.83	77.5505	2,548.83	75.2772	2,548.83	86.4055	2,548.83	79.044	2,548.83	88.6865	2,548.83	78.4638	2,548.83	88.8573	2,548.83	80.08	2,548.83	86.4618	2,548.83	76.0601	2,548.83	83.7888	2,548.83	79.3724	2,548.83	83.1103	2,548.83	79.6069	2,548.83	84.2593	2,548.83	77.0324	2,548.83	80.4639	2,548.83	77.2399	2,548.83	80.3428	2,548.83	73.3921	2,548.83	79.6921	2,548.83	75.5256	2,548.83	78.098	2,548.83	71.8666	2,548.83	74.0581	2,548.83	65.0112	2,548.83	70.8928	2,548.83	72.211	2,548.83	76.8599	2,548.83	69.9628
2,639.65	90.1351	2,639.65	91.5374	2,639.65	88.5521	2,639.65	88.3767	2,639.65	80.823	2,639.65	83.1567	2,639.65	79.0018	2,639.65	78.1002	2,639.65	84.7058	2,639.65	81.8137	2,639.65	89.1844	2,639.65	80.52	2,639.65	88.1524	2,639.65	83.0318	2,639.65	86.9319	2,639.65	79.6281	2,639.65	84.9825	2,639.65	77.7073	2,639.65	82.3187	2,639.65	77.0719	2,639.65	83.95	2,639.65	76.3591	2,639.65	77.5172	2,639.65	74.9228	2,639.65	80.9967	2,639.65	76.184	2,639.65	76.5481	2,639.65	74.8863	2,639.65	77.6273	2,639.65	73.6964	2,639.65	76.089	2,639.65	66.3021	2,639.65	70.1194	2,639.65	69.1517	2,639.65	77.4828	2,639.65	64.8784
2,731.93	91.175	2,731.93	89.8367	2,731.93	88.9989	2,731.93	84.2554	2,731.93	83.0516	2,731.93	80.8291	2,731.93	81.954	2,731.93	83.2276	2,731.93	86.1139	2,731.93	82.081	2,731.93	88.165	2,731.93	81.4598	2,731.93	88.0457	2,731.93	76.8159	2,731.93	85.5206	2,731.93	77.5096	2,731.93	83.4213	2,731.93	75.7276	2,731.93	82.2734	2,731.93	74.2095	2,731.93	81.7406	2,731.93	75.9755	2,731.93	80.0044	2,731.93	76.0916	2,731.93	80.0994	2,731.93	75.9753	2,731.93	79.6274	2,731.93	74.817	2,731.93	74.0667	2,731.93	72.6586	2,731.93	71.2029	2,731.93	68.0859	2,731.93	71.7517	2,731.93	52.822	2,731.93	74.7081	2,731.93	62.1235
2,828.61	92.7749	2,828.61	89.7009	2,828.61	91.2289	2,828.61	85.2264	2,828.61	86.0217	2,828.61	82.8907	2,828.61	84.4001	2,828.61	84.3428	2,828.61	89.2058	2,828.61	82.6596	2,828.61	89.2034	2,828.61	81.521	2,828.61	88.1456	2,828.61	79.1068	2,828.61	85.1339	2,828.61	78.868	2,828.61	86.4948	2,828.61	80.0952	2,828.61	84.3767	2,828.61	79.8609	2,828.61	76.3212	2,828.61	78.7693	2,828.61	75.3473	2,828.61	75.767	2,828.61	81.8379	2,828.61	76.7437	2,828.61	78.475	2,828.61	75.6885	2,828.61	74.7313	2,828.61	74.0714	2,828.61	73.0046	2,828.61	72.1464	2,828.61	72.5906	2,828.61	61.7607	2,828.61	74.1472	2,828.61	72.8623
2,928.22	92.9707	2,928.22	90.6391	2,928.22	92.7872	2,928.22	87.7582	2,928.22	88.7914	2,928.22	86.319	2,928.22	84.9832	2,928.22	85.3848	2,928.22	90.4993	2,928.22	85.1108	2,928.22	90.6745	2,928.22	82.1118	2,928.22	89.6283	2,928.22	83.0542	2,928.22	87.5611	2,928.22	83.463	2,928.22	86.6522	2,928.22	81.4799	2,928.22	81.9102	2,928.22	79.3963	2,928.22	68.3385	2,928.22	76.5273	2,928.22	73.1303	2,928.22	76.6363	2,928.22	81.1631	2,928.22	76.8335	2,928.22	78.3173	2,928.22	78.0599	2,928.22	73.6928	2,928.22	74.1975	2,928.22	74.5547	2,928.22	72.7389	2,928.22	72.6898	2,928.22	62.5308	2,928.22	75.1969	2,928.22	69.5101
3,030.76	92.6905	3,030.76	90.5324	3,030.76	92.8924	3,030.76	87.8725	3,030.76	89.8119	3,030.76	88.2138	3,030.76	84.3772	3,030.76	85.6764	3,030.76	89.9783	3,030.76	84.5774	3,030.76	91.7078	3,030.76	84.4975	3,030.76	90.799	3,030.76	85.0489	3,030.76	88.8389	3,030.76	81.4852	3,030.76	87.775	3,030.76	81.4687	3,030.76	71.2316	3,030.76	80	3,030.76	64.0075	3,030.76	81.3005	3,030.76	81.9261	3,030.76	79.2403	3,030.76	79.2717	3,030.76	78.8103	3,030.76	80.8243	3,030.76	78.3906	3,030.76	75.6929	3,030.76	77.185	3,030.76	74.7343	3,030.76	74.1667	3,030.76	77.0744	3,030.76	64.6209	3,030.76	76.5233	3,030.76	73.8734
3,137.7	91.9494	3,137.7	90.3749	3,137.7	93.2952	3,137.7	90.2216	3,137.7	90.157	3,137.7	89.856	3,137.7	86.267	3,137.7	87.1381	3,137.7	89.9416	3,137.7	86.8401	3,137.7	92.5135	3,137.7	86.9175	3,137.7	89.5873	3,137.7	84.5415	3,137.7	88.0129	3,137.7	85.153	3,137.7	86.7269	3,137.7	85.1856	3,137.7	70.3372	3,137.7	82.321	3,137.7	72.268	3,137.7	81.6571	3,137.7	78.5573	3,137.7	79.8169	3,137.7	80.3636	3,137.7	79.455	3,137.7	80.0739	3,137.7	79.2485	3,137.7	75.7799	3,137.7	79.228	3,137.7	73.9157	3,137.7	74.3067	3,137.7	79.2645	3,137.7	64.0471	3,137.7	75.4666	3,137.7	75.3107
3,249.02	90.9349	3,249.02	90.9956	3,249.02	92.7552	3,249.02	91.2366	3,249.02	90.8155	3,249.02	90.464	3,249.02	88.0019	3,249.02	89.1564	3,249.02	90.494	3,249.02	88.6038	3,249.02	91.6345	3,249.02	89.3031	3,249.02	89.0653	3,249.02	87.3564	3,249.02	88.1593	3,249.02	87.5777	3,249.02	83.2924	3,249.02	82.8883	3,249.02	73.4763	3,249.02	81.9132	3,249.02	72.7223	3,249.02	79.2911	3,249.02	77.9229	3,249.02	79.9359	3,249.02	76.4298	3,249.02	78.1683	3,249.02	81.1861	3,249.02	78.8859	3,249.02	75.4117	3,249.02	77.2697	3,249.02	72.3589	3,249.02	74.3414	3,249.02	78.8796	3,249.02	65.9856	3,249.02	74.6141	3,249.02	71.3484
3,363.28	91.9535	3,363.28	92.1544	3,363.28	91.8652	3,363.28	91.9451	3,363.28	91.2194	3,363.28	89.9825	3,363.28	87.6401	3,363.28	89.6509	3,363.28	89.6375	3,363.28	90.1881	3,363.28	90.7651	3,363.28	88.5082	3,363.28	89.6444	3,363.28	87.5056	3,363.28	89.9332	3,363.28	83.4028	3,363.28	82.6966	3,363.28	81.5154	3,363.28	81.6153	3,363.28	81.5551	3,363.28	81.9751	3,363.28	79.9879	3,363.28	72.5532	3,363.28	80.1337	3,363.28	71.9937	3,363.28	78.4241	3,363.28	81.3272	3,363.28	77.7074	3,363.28	76.6128	3,363.28	77.6013	3,363.28	70.2219	3,363.28	70.3456	3,363.28	78.8252	3,363.28	68.8673	3,363.28	71.407	3,363.28	66.0675
3,481.93	92.1129	3,481.93	92.7762	3,481.93	91.4223	3,481.93	93.2587	3,481.93	91.3092	3,481.93	91.0411	3,481.93	87.3419	3,481.93	90.7035	3,481.93	89.2944	3,481.93	90.6633	3,481.93	89.8887	3,481.93	89.1435	3,481.93	89.4006	3,481.93	85.4907	3,481.93	91.3739	3,481.93	84.5978	3,481.93	82.0456	3,481.93	83.8871	3,481.93	84.9796	3,481.93	79.5468	3,481.93	81.9148	3,481.93	79.5804	3,481.93	75.8015	3,481.93	78.7284	3,481.93	72.5736	3,481.93	79.7543	3,481.93	80.2485	3,481.93	79.1748	3,481.93	72.8322	3,481.93	79.0184	3,481.93	71.8265	3,481.93	75.908	3,481.93	77.7856	3,481.93	71.0746	3,481.93	70.6299	3,481.93	70.0968
3,604.98	92.6682	3,604.98	93.2086	3,604.98	91.7036	3,604.98	93.6156	3,604.98	90.423	3,604.98	90.9576	3,604.98	88.7483	3,604.98	90.6819	3,604.98	87.3269	3,604.98	90.9614	3,604.98	89.0655	3,604.98	88.1911	3,604.98	91.9817	3,604.98	86.0565	3,604.98	90.2681	3,604.98	85.016	3,604.98	85.9869	3,604.98	80.8746	3,604.98	86.4097	3,604.98	79.9429	3,604.98	84.1541	3,604.98	80.0687	3,604.98	81.4759	3,604.98	80.2161	3,604.98	77.6737	3,604.98	78.7388	3,604.98	78.1288	3,604.98	79.1369	3,604.98	69.8381	3,604.98	78.4145	3,604.98	68.8958	3,604.98	76.5997	3,604.98	77.2286	3,604.98	70.8672	3,604.98	70.634	3,604.98	67.4275
3,732.42	93.0624	3,732.42	94.0773	3,732.42	93.2472	3,732.42	92.6743	3,732.42	90.571	3,732.42	90.7022	3,732.42	87.1577	3,732.42	92.3632	3,732.42	83.7352	3,732.42	90.5867	3,732.42	87.2956	3,732.42	87.0489	3,732.42	92.1188	3,732.42	86.5063	3,732.42	89.6658	3,732.42	83.1271	3,732.42	87.4326	3,732.42	83.7377	3,732.42	84.2794	3,732.42	81.3012	3,732.42	84.3495	3,732.42	78.4098	3,732.42	82.1428	3,732.42	78.7536	3,732.42	79.981	3,732.42	79.0464	3,732.42	73.8479	3,732.42	80.0004	3,732.42	68.8594	3,732.42	79.277	3,732.42	67.6192	3,732.42	77.0689	3,732.42	77.6865	3,732.42	72.4526	3,732.42	70.2166	3,732.42	67.4844
3,864.26	92.1243	3,864.26	93.8945	3,864.26	92.3594	3,864.26	92.5672	3,864.26	92.3405	3,864.26	92.347	3,864.26	88.4542	3,864.26	91.6579	3,864.26	84.2551	3,864.26	89.6324	3,864.26	87.9641	3,864.26	88.4473	3,864.26	92.7951	3,864.26	86.8761	3,864.26	88.2129	3,864.26	87.7198	3,864.26	85.2785	3,864.26	85.5638	3,864.26	78.3786	3,864.26	83.938	3,864.26	82.4795	3,864.26	81.3193	3,864.26	80.8377	3,864.26	81.2103	3,864.26	76.3911	3,864.26	78.9646	3,864.26	75.9464	3,864.26	80.1885	3,864.26	68.4175	3,864.26	80.5694	3,864.26	63.7014	3,864.26	77.8419	3,864.26	78.2236	3,864.26	73.6747	3,864.26	71.6196	3,864.26	65.2697
4,000.49	91.8528	4,000.49	93.9828	4,000.49	90.5804	4,000.49	91.8907	4,000.49	91.6343	4,000.49	92.3585	4,000.49	89.3009	4,000.49	90.3852	4,000.49	83.2608	4,000.49	90.2367	4,000.49	89.7992	4,000.49	88.8761	4,000.49	91.9166	4,000.49	87.7659	4,000.49	88.0982	4,000.49	87.3501	4,000.49	85.0994	4,000.49	81.2841	4,000.49	84.7481	4,000.49	82.1086	4,000.49	78.4441	4,000.49	79.4231	4,000.49	75.0553	4,000.49	81.1535	4,000.49	78.5602	4,000.49	78.9534	4,000.49	75.5754	4,000.49	78.4239	4,000.49	64.0386	4,000.49	79.1693	4,000.49	51.1664	4,000.49	76.0527	4,000.49	75.826	4,000.49	72.8308	4,000.49	72.2519	4,000.49	57.637
4,141.11	92.775	4,141.11	94.1578	4,141.11	91.2878	4,141.11	91.322	4,141.11	91.7806	4,141.11	92.3907	4,141.11	91.0384	4,141.11	91.26	4,141.11	88.3066	4,141.11	89.2736	4,141.11	90.2618	4,141.11	89.8218	4,141.11	91.0233	4,141.11	86.4715	4,141.11	87.6184	4,141.11	83.4883	4,141.11	86.1782	4,141.11	84.1845	4,141.11	86.5127	4,141.11	81.5302	4,141.11	71.4263	4,141.11	78.4881	4,141.11	69.2487	4,141.11	79.176	4,141.11	75.7226	4,141.11	78.7739	4,141.11	75.0751	4,141.11	78.0574	4,141.11	70.0877	4,141.11	78.9465	4,141.11	51.8542	4,141.11	76.6285	4,141.11	72.9757	4,141.11	72.9077	4,141.11	70.2741	4,141.11	68.3652
4,287.6	93.5275	4,287.6	92.1217	4,287.6	89.5229	4,287.6	92.8777	4,287.6	91.9416	4,287.6	93.0165	4,287.6	91.0606	4,287.6	89.2709	4,287.6	89.9968	4,287.6	89.5892	4,287.6	89.453	4,287.6	88.1916	4,287.6	91.9534	4,287.6	84.652	4,287.6	88.1733	4,287.6	85.1716	4,287.6	87.0766	4,287.6	76.8497	4,287.6	84.012	4,287.6	78.7153	4,287.6	65.4743	4,287.6	77.2706	4,287.6	77.1614	4,287.6	79.0926	4,287.6	74.9297	4,287.6	78.4116	4,287.6	74.9423	4,287.6	76.5426	4,287.6	73.0615	4,287.6	75.8124	4,287.6	57.0222	4,287.6	77.7505	4,287.6	74.1027	4,287.6	71.4437	4,287.6	67.4675	4,287.6	63.0702
4,438.48	93.8758	4,438.48	91.4995	4,438.48	88.4958	4,438.48	93.5478	4,438.48	90.2694	4,438.48	89.9146	4,438.48	90.9101	4,438.48	90.0049	4,438.48	88.9289	4,438.48	89.3471	4,438.48	90.2867	4,438.48	85.5205	4,438.48	92.1135	4,438.48	85.9165	4,438.48	91.3508	4,438.48	80.4231	4,438.48	88.0462	4,438.48	84.8263	4,438.48	73.2692	4,438.48	79.9765	4,438.48	77.2078	4,438.48	79.3022	4,438.48	78.2016	4,438.48	75.8696	4,438.48	78.5585	4,438.48	79.1583	4,438.48	75.7328	4,438.48	78.5815	4,438.48	73.2194	4,438.48	74.937	4,438.48	63.9244	4,438.48	76.1616	4,438.48	74.5503	4,438.48	70.8752	4,438.48	68.8636	4,438.48	59.6175
4,595.21	91.929	4,595.21	90.901	4,595.21	90.1706	4,595.21	90.8034	4,595.21	89.4012	4,595.21	89.1443	4,595.21	91.8486	4,595.21	89.6363	4,595.21	90.8396	4,595.21	86.8189	4,595.21	90.2968	4,595.21	84.3227	4,595.21	92.5193	4,595.21	84.9156	4,595.21	91.9713	4,595.21	86.3233	4,595.21	88.8836	4,595.21	79.096	4,595.21	78.0991	4,595.21	80.6707	4,595.21	77.8316	4,595.21	78.875	4,595.21	79.233	4,595.21	76.3663	4,595.21	78.6201	4,595.21	79.6473	4,595.21	79.078	4,595.21	77.496	4,595.21	71.7877	4,595.21	77.4044	4,595.21	67.7148	4,595.21	78.1348	4,595.21	77.0014	4,595.21	74.2603	4,595.21	70.2793	4,595.21	63.1521
4,756.35	92.8806	4,756.35	89.8223	4,756.35	91.9561	4,756.35	91.4774	4,756.35	88.8296	4,756.35	89.0808	4,756.35	92.8578	4,756.35	87.4848	4,756.35	88.931	4,756.35	88.6188	4,756.35	88.8024	4,756.35	86.7253	4,756.35	92.6177	4,756.35	87.5722	4,756.35	92.3011	4,756.35	82.986	4,756.35	87.4442	4,756.35	84.3167	4,756.35	83.2601	4,756.35	80.825	4,756.35	76.1262	4,756.35	81.7826	4,756.35	70.0505	4,756.35	78.6432	4,756.35	76.7678	4,756.35	79.5724	4,756.35	78.2291	4,756.35	74.8448	4,756.35	72.0081	4,756.35	77.9017	4,756.35	71.352	4,756.35	75.9286	4,756.35	76.4409	4,756.35	70.7593	4,756.35	70.5392	4,756.35	65.9663
4,924.8	93.1555	4,924.8	93.0356	4,924.8	94.8368	4,924.8	92.1966	4,924.8	89.9897	4,924.8	91.1281	4,924.8	94.4111	4,924.8	91.8132	4,924.8	90.168	4,924.8	88.8845	4,924.8	86.9594	4,924.8	88.7512	4,924.8	92.0764	4,924.8	86.8717	4,924.8	89.4085	4,924.8	86.9224	4,924.8	82.6935	4,924.8	82.4228	4,924.8	84.0573	4,924.8	80.3402	4,924.8	79.6703	4,924.8	78.2344	4,924.8	68.3367	4,924.8	75.2082	4,924.8	76.7322	4,924.8	77.4757	4,924.8	78.5509	4,924.8	77.0614	4,924.8	75.8237	4,924.8	78.0321	4,924.8	69.7647	4,924.8	77.6032	4,924.8	71.4879	4,924.8	71.9863	4,924.8	71.0143	4,924.8	59.707
5,097.66	91.5853	5,097.66	92.462	5,097.66	93.9987	5,097.66	92.0421	5,097.66	92.3331	5,097.66	93.1381	5,097.66	95.0607	5,097.66	89.0293	5,097.66	92.1631	5,097.66	89.549	5,097.66	85.6481	5,097.66	87.7072	5,097.66	90.443	5,097.66	86.5213	5,097.66	87.1942	5,097.66	80.092	5,097.66	80.0906	5,097.66	81.2207	5,097.66	83.3696	5,097.66	77.7021	5,097.66	78.1232	5,097.66	77.5646	5,097.66	71.6424	5,097.66	75.4243	5,097.66	77.8167	5,097.66	76.5413	5,097.66	78.4868	5,097.66	73.7977	5,097.66	74.4202	5,097.66	76.6324	5,097.66	59.1162	5,097.66	76.0882	5,097.66	71.6466	5,097.66	74.1773	5,097.66	65.675	5,097.66	53.7013
5,277.83	92.053	5,277.83	93.5883	5,277.83	94.1105	5,277.83	91.869	5,277.83	91.5526	5,277.83	91.0849	5,277.83	94.632	5,277.83	89.262	5,277.83	93.662	5,277.83	88.8642	5,277.83	88.0923	5,277.83	86.5123	5,277.83	86.9783	5,277.83	83.426	5,277.83	87.9651	5,277.83	82.856	5,277.83	85.7962	5,277.83	79.6255	5,277.83	82.9361	5,277.83	78.0396	5,277.83	72.1929	5,277.83	77.725	5,277.83	74.325	5,277.83	75.2021	5,277.83	76.8017	5,277.83	76.2858	5,277.83	77.2171	5,277.83	74.0377	5,277.83	74.0402	5,277.83	76.0604	5,277.83	67.5944	5,277.83	76.3051	5,277.83	72.4878	5,277.83	71.5158	5,277.83	66.6018	5,277.83	59.4058
5,463.87	93.4442	5,463.87	93.5755	5,463.87	95.3146	5,463.87	92.5593	5,463.87	90.6537	5,463.87	90.0739	5,463.87	93.3363	5,463.87	89.4676	5,463.87	94.9326	5,463.87	88.6544	5,463.87	87.7404	5,463.87	84.3753	5,463.87	83.9132	5,463.87	83.3878	5,463.87	86.8899	5,463.87	80.8334	5,463.87	87.1784	5,463.87	82.1031	5,463.87	81.6294	5,463.87	78.6863	5,463.87	67.119	5,463.87	75.4609	5,463.87	70.7268	5,463.87	76.4117	5,463.87	76.9717	5,463.87	75.0889	5,463.87	74.5913	5,463.87	74.9662	5,463.87	68.5065	5,463.87	73.7024	5,463.87	69.3342	5,463.87	75.8853	5,463.87	71.5064	5,463.87	68.8833	5,463.87	67.4652	5,463.87	65.9283
5,657.23	94.2673	5,657.23	93.2058	5,657.23	95.3001	5,657.23	93.4536	5,657.23	93.9635	5,657.23	91.1548	5,657.23	92.2764	5,657.23	92.0893	5,657.23	95.215	5,657.23	88.2439	5,657.23	85.5002	5,657.23	86.204	5,657.23	85.7291	5,657.23	87.0031	5,657.23	89.2165	5,657.23	83.4016	5,657.23	88.3223	5,657.23	80.3917	5,657.23	77.9918	5,657.23	79.1796	5,657.23	71.4831	5,657.23	76.6031	5,657.23	77.2501	5,657.23	76.6395	5,657.23	73.6638	5,657.23	76.8903	5,657.23	69.8992	5,657.23	75.5455	5,657.23	61.4564	5,657.23	76.1675	5,657.23	70.6821	5,657.23	76.6231	5,657.23	66.8948	5,657.23	74.9091	5,657.23	70.9366	5,657.23	65.9687
5,856.45	93.9539	5,856.45	93.6244	5,856.45	93.9335	5,856.45	94.5231	5,856.45	95.3331	5,856.45	91.6009	5,856.45	92.1253	5,856.45	91.4623	5,856.45	94.1996	5,856.45	89.1494	5,856.45	85.8075	5,856.45	87.6931	5,856.45	88.0218	5,856.45	85.7882	5,856.45	90.5774	5,856.45	83.1328	5,856.45	87.9156	5,856.45	81.7759	5,856.45	79.9974	5,856.45	79.2761	5,856.45	73.0917	5,856.45	76.8572	5,856.45	77.1573	5,856.45	75.966	5,856.45	75.5588	5,856.45	77.3005	5,856.45	66.9838	5,856.45	74.2449	5,856.45	72.2668	5,856.45	75.5642	5,856.45	65.9699	5,856.45	76.4013	5,856.45	73.0275	5,856.45	71.9717	5,856.45	62.7033	5,856.45	65.4229
6,062.99	94.3793	6,062.99	94.1635	6,062.99	94.2738	6,062.99	93.9666	6,062.99	94.4872	6,062.99	93.184	6,062.99	93.2457	6,062.99	90.2262	6,062.99	92.7856	6,062.99	90.4529	6,062.99	83.518	6,062.99	86.9315	6,062.99	88.546	6,062.99	86.4473	6,062.99	90.7776	6,062.99	81.3219	6,062.99	85.9279	6,062.99	80.701	6,062.99	78.8575	6,062.99	78.4732	6,062.99	67.9028	6,062.99	77.0371	6,062.99	70.8539	6,062.99	75.0002	6,062.99	73.5106	6,062.99	76.2325	6,062.99	59.5394	6,062.99	74.0773	6,062.99	72.2978	6,062.99	77.3771	6,062.99	69.0995	6,062.99	75.5665	6,062.99	72.6595	6,062.99	72.962	6,062.99	69.7301	6,062.99	68.2982
6,276.86	93.3466	6,276.86	93.9813	6,276.86	93.6819	6,276.86	93.6632	6,276.86	93.7722	6,276.86	93.2272	6,276.86	91.8274	6,276.86	90.7823	6,276.86	91.6946	6,276.86	91.2229	6,276.86	82.2578	6,276.86	87.3094	6,276.86	88.8146	6,276.86	86.4847	6,276.86	90.3662	6,276.86	84.3081	6,276.86	83.9766	6,276.86	80.3295	6,276.86	81.1365	6,276.86	79.1179	6,276.86	65.716	6,276.86	77.2848	6,276.86	67.4585	6,276.86	76.4366	6,276.86	70.8812	6,276.86	74.6925	6,276.86	66.0962	6,276.86	74.6238	6,276.86	74.2221	6,276.86	77.6011	6,276.86	66.6056	6,276.86	73.4102	6,276.86	65.2765	6,276.86	75.078	6,276.86	71.8922	6,276.86	69.7098
6,498.05	94.2367	6,498.05	94.2128	6,498.05	93.8291	6,498.05	93.6155	6,498.05	93.9082	6,498.05	92.6299	6,498.05	90.5447	6,498.05	91.155	6,498.05	90.3238	6,498.05	89.1413	6,498.05	85.8606	6,498.05	87.0833	6,498.05	86.6107	6,498.05	84.7848	6,498.05	88.2185	6,498.05	81.6763	6,498.05	81.271	6,498.05	79.8588	6,498.05	81.6799	6,498.05	76.0303	6,498.05	66.8886	6,498.05	75.5608	6,498.05	70.9761	6,498.05	72.9535	6,498.05	66.6104	6,498.05	73.6216	6,498.05	65.6938	6,498.05	74.4798	6,498.05	73.6001	6,498.05	74.5604	6,498.05	65.2546	6,498.05	74.5796	6,498.05	63.5605	6,498.05	74.3324	6,498.05	70.1364	6,498.05	64.4137
6,726.56	94.3602	6,726.56	92.9526	6,726.56	95.1039	6,726.56	93.3248	6,726.56	94.9203	6,726.56	91.2944	6,726.56	89.9018	6,726.56	90.3245	6,726.56	90.7564	6,726.56	87.9459	6,726.56	87.549	6,726.56	86.4062	6,726.56	85.64	6,726.56	83.0656	6,726.56	86.5019	6,726.56	79.152	6,726.56	84.6465	6,726.56	78.4302	6,726.56	82.7896	6,726.56	76.5866	6,726.56	75.5766	6,726.56	74.5067	6,726.56	71.8804	6,726.56	74.6068	6,726.56	64.7785	6,726.56	72.9279	6,726.56	57.4249	6,726.56	73.7195	6,726.56	62.6941	6,726.56	70.9819	6,726.56	59.9077	6,726.56	75.113	6,726.56	55.6849	6,726.56	72.2307	6,726.56	65.1252	6,726.56	61.3104
6,963.87	94.1275	6,963.87	92.8548	6,963.87	93.7365	6,963.87	93.6579	6,963.87	95.4355	6,963.87	91.6139	6,963.87	91.6601	6,963.87	90.185	6,963.87	91.6418	6,963.87	88.8927	6,963.87	88.896	6,963.87	85.543	6,963.87	83.073	6,963.87	83.5534	6,963.87	86.9692	6,963.87	81.6597	6,963.87	87.5205	6,963.87	79.2813	6,963.87	84.2989	6,963.87	76.7052	6,963.87	69.5297	6,963.87	74.1745	6,963.87	70.0799	6,963.87	75.2002	6,963.87	69.9027	6,963.87	72.5709	6,963.87	62.5849	6,963.87	74.317	6,963.87	55.6621	6,963.87	72.5685	6,963.87	59.4125	6,963.87	74.6665	6,963.87	66.9986	6,963.87	71.0833	6,963.87	63.8787	6,963.87	63.3701
7,209.96	94.6189	7,209.96	94.2312	7,209.96	93.058	7,209.96	94.2662	7,209.96	93.461	7,209.96	91.5725	7,209.96	94.4309	7,209.96	90.1346	7,209.96	91.1613	7,209.96	89.1932	7,209.96	90.8724	7,209.96	85.6178	7,209.96	76.3577	7,209.96	84.5092	7,209.96	88.5179	7,209.96	80.2823	7,209.96	86.4748	7,209.96	78.2351	7,209.96	81.1084	7,209.96	75.5369	7,209.96	75.4029	7,209.96	73.6352	7,209.96	69.0315	7,209.96	74.0569	7,209.96	69.872	7,209.96	74.7408	7,209.96	68.0165	7,209.96	73.3765	7,209.96	65.5957	7,209.96	70.5941	7,209.96	67.6914	7,209.96	74.9372	7,209.96	60.1102	7,209.96	73.1972	7,209.96	71.7201	7,209.96	66.4078
7,464.84	94.1122	7,464.84	94.2327	7,464.84	94.8578	7,464.84	93.4299	7,464.84	93.7232	7,464.84	92.1933	7,464.84	94.7293	7,464.84	90.9569	7,464.84	90.4375	7,464.84	87.3384	7,464.84	90.8877	7,464.84	86.7888	7,464.84	79.242	7,464.84	81.8518	7,464.84	87.9736	7,464.84	76.6022	7,464.84	85.6858	7,464.84	76.7556	7,464.84	75.7113	7,464.84	73.998	7,464.84	79.1644	7,464.84	72.7337	7,464.84	69.5817	7,464.84	73.1326	7,464.84	68.7114	7,464.84	72.3824	7,464.84	69.2456	7,464.84	72.7766	7,464.84	66.9785	7,464.84	70.7214	7,464.84	63.9794	7,464.84	72.7763	7,464.84	65.4603	7,464.84	73.0918	7,464.84	70.5206	7,464.84	64.6783
7,727.05	94.4372	7,727.05	94.6523	7,727.05	95.3181	7,727.05	93.7326	7,727.05	94.3595	7,727.05	93.2732	7,727.05	93.8092	7,727.05	90.201	7,727.05	90.2014	7,727.05	88.7808	7,727.05	91.4291	7,727.05	85.6906	7,727.05	81.287	7,727.05	83.3669	7,727.05	88.5344	7,727.05	81.3008	7,727.05	83.9283	7,727.05	79.6882	7,727.05	75.1554	7,727.05	77.6586	7,727.05	76.8647	7,727.05	74.203	7,727.05	68.7689	7,727.05	74.7699	7,727.05	70.6802	7,727.05	73.7826	7,727.05	73.2824	7,727.05	75.3709	7,727.05	69.4298	7,727.05	71.8058	7,727.05	57.6293	7,727.05	74.5542	7,727.05	65.4463	7,727.05	74.0427	7,727.05	57.7583	7,727.05	63.4594
7,999.51	94.8842	7,999.51	94.2247	7,999.51	95.1861	7,999.51	94.5423	7,999.51	94.4583	7,999.51	93.6155	7,999.51	90.8038	7,999.51	91.0258	7,999.51	92.4921	7,999.51	89.831	7,999.51	91.9162	7,999.51	86.9005	7,999.51	85.916	7,999.51	86.1693	7,999.51	86.3881	7,999.51	82.013	7,999.51	78.9934	7,999.51	78.603	7,999.51	78.5054	7,999.51	75.6788	7,999.51	77.2239	7,999.51	73.3327	7,999.51	61.5234	7,999.51	74.6577	7,999.51	70.9341	7,999.51	72.0813	7,999.51	69.5994	7,999.51	75.4276	7,999.51	62.1866	7,999.51	72.9342	7,999.51	63.4105	7,999.51	72.8524	7,999.51	57.8675	7,999.51	74.8879	7,999.51	69.1513	7,999.51	66.9298
8,282.23	95.2594	8,282.23	96.1816	8,282.23	95.0507	8,282.23	96.0113	8,282.23	94.3044	8,282.23	93.4399	8,282.23	92.1725	8,282.23	92.556	8,282.23	94.5236	8,282.23	88.235	8,282.23	92.6084	8,282.23	88.9329	8,282.23	86.6913	8,282.23	82.0547	8,282.23	82.7733	8,282.23	80.5147	8,282.23	84.0156	8,282.23	78.8972	8,282.23	80.7654	8,282.23	78.3027	8,282.23	79.6713	8,282.23	74.6094	8,282.23	73.2958	8,282.23	75.1042	8,282.23	72.1356	8,282.23	74.2356	8,282.23	67.1511	8,282.23	75.9847	8,282.23	63.1028	8,282.23	73.1482	8,282.23	69.1667	8,282.23	75.1961	8,282.23	59.9656	8,282.23	77.061	8,282.23	71.3556	8,282.23	69.49
8,573.73	95.2807	8,573.73	94.9578	8,573.73	95.0628	8,573.73	94.8539	8,573.73	95.9117	8,573.73	93.4712	8,573.73	95.6184	8,573.73	91.8807	8,573.73	94.8978	8,573.73	89.0623	8,573.73	93.0852	8,573.73	86.6889	8,573.73	84.4778	8,573.73	85.6241	8,573.73	81.3315	8,573.73	83.983	8,573.73	87.091	8,573.73	80.4551	8,573.73	79.9182	8,573.73	78.6955	8,573.73	74.049	8,573.73	74.9589	8,573.73	69.6625	8,573.73	76.6657	8,573.73	73.7259	8,573.73	74.8524	8,573.73	68.5215	8,573.73	75.4457	8,573.73	69.0016	8,573.73	73.4162	8,573.73	63.5997	8,573.73	77.0579	8,573.73	56.0307	8,573.73	76.8648	8,573.73	66.464	8,573.73	66.2292
8,876.95	95.1505	8,876.95	93.1305	8,876.95	94.2885	8,876.95	94.0066	8,876.95	95.1571	8,876.95	92.6532	8,876.95	94.8891	8,876.95	89.706	8,876.95	91.3576	8,876.95	88.5015	8,876.95	92.5968	8,876.95	88.0902	8,876.95	82.625	8,876.95	85.4502	8,876.95	81.2166	8,876.95	81.5246	8,876.95	86.245	8,876.95	78.2029	8,876.95	75.0387	8,876.95	76.5879	8,876.95	68.8697	8,876.95	73.6863	8,876.95	69.3093	8,876.95	75.1113	8,876.95	68.6003	8,876.95	74.2496	8,876.95	68.1725	8,876.95	73.5817	8,876.95	59.2792	8,876.95	71.2406	8,876.95	64.7588	8,876.95	76.5427	8,876.95	58.8264	8,876.95	75.0061	8,876.95	63.5991	8,876.95	66.3275
9,188.96	92.8452	9,188.96	92.7841	9,188.96	93.5374	9,188.96	93.6553	9,188.96	91.6067	9,188.96	90.4709	9,188.96	91.3053	9,188.96	89.4828	9,188.96	89.3495	9,188.96	87.5199	9,188.96	90.7744	9,188.96	87.2582	9,188.96	81.6036	9,188.96	82.3627	9,188.96	82.6932	9,188.96	81.2033	9,188.96	87.4306	9,188.96	79.0345	9,188.96	77.648	9,188.96	76.3316	9,188.96	55.8377	9,188.96	71.4732	9,188.96	65.6748	9,188.96	74.2671	9,188.96	61.9421	9,188.96	73.6057	9,188.96	64.0575	9,188.96	73.3343	9,188.96	55.3854	9,188.96	71.5686	9,188.96	62.6843	9,188.96	73.9144	9,188.96	67.4698	9,188.96	73.2126	9,188.96	63.6464	9,188.96	63.8532
9,514.16	91.9525	9,514.16	92.6733	9,514.16	92.7262	9,514.16	92.0261	9,514.16	92.5046	9,514.16	89.1705	9,514.16	90.0613	9,514.16	88.3561	9,514.16	90.0539	9,514.16	86.4887	9,514.16	87.5475	9,514.16	84.9391	9,514.16	86.0941	9,514.16	83.1656	9,514.16	81.8294	9,514.16	79.7829	9,514.16	85.3808	9,514.16	76.5207	9,514.16	75.3128	9,514.16	72.8133	9,514.16	72.6372	9,514.16	73.8949	9,514.16	66.5261	9,514.16	71.7267	9,514.16	55.5916	9,514.16	74.4113	9,514.16	67.3439	9,514.16	73.2274	9,514.16	64.3403	9,514.16	71.1486	9,514.16	51.8152	9,514.16	72.6958	9,514.16	61.7534	9,514.16	73.4881	9,514.16	54.5819	9,514.16	65.4939
9,849.61	90.7036	9,849.61	92.0872	9,849.61	92.1536	9,849.61	88.633	9,849.61	91.2744	9,849.61	87.4362	9,849.61	91.8598	9,849.61	87.0677	9,849.61	88.9179	9,849.61	86.0818	9,849.61	81.6392	9,849.61	87.1354	9,849.61	88.3236	9,849.61	83.2612	9,849.61	74.6668	9,849.61	80.6083	9,849.61	83.6586	9,849.61	77.3136	9,849.61	75.4715	9,849.61	74.0402	9,849.61	75.7426	9,849.61	71.0453	9,849.61	60.6482	9,849.61	73.8855	9,849.61	58.4374	9,849.61	73.405	9,849.61	62.758	9,849.61	74.2809	9,849.61	69.5071	9,849.61	69.5345	9,849.61	58.3353	9,849.61	72.3087	9,849.61	65.5348	9,849.61	73.5946	9,849.61	49.9142	9,849.61	60.321
10,196.8	91.9922	10,196.8	91.3078	10,196.8	90.6147	10,196.8	88.4462	10,196.8	90.6132	10,196.8	86.5292	10,196.8	90.2338	10,196.8	88.1926	10,196.8	86.9699	10,196.8	88.659	10,196.8	84.302	10,196.8	86.1444	10,196.8	87.7659	10,196.8	82.307	10,196.8	74.0757	10,196.8	79.8225	10,196.8	80.6894	10,196.8	74.9443	10,196.8	70.961	10,196.8	72.2304	10,196.8	78.489	10,196.8	68.8524	10,196.8	71.2571	10,196.8	70.4135	10,196.8	59.2993	10,196.8	71.4197	10,196.8	68.7599	10,196.8	70.5468	10,196.8	66.5691	10,196.8	66.8749	10,196.8	61.3856	10,196.8	70.0528	10,196.8	61.9329	10,196.8	70.576	10,196.8	50.5999	10,196.8	65.2852
10,555.7	91.1157	10,555.7	90.0132	10,555.7	89.1975	10,555.7	89.5754	10,555.7	88.6971	10,555.7	88.5663	10,555.7	89.8607	10,555.7	90.0665	10,555.7	87.681	10,555.7	87.3091	10,555.7	88.6435	10,555.7	85.0068	10,555.7	88.3806	10,555.7	79.8952	10,555.7	79.1601	10,555.7	77.2726	10,555.7	79.163	10,555.7	74.4248	10,555.7	73.5211	10,555.7	70.1938	10,555.7	77.1441	10,555.7	69.1175	10,555.7	68.6663	10,555.7	66.3425	10,555.7	52.3077	10,555.7	70.7684	10,555.7	64.5177	10,555.7	70.6003	10,555.7	65.6099	10,555.7	65.5464	10,555.7	55.8679	10,555.7	66.7845	10,555.7	60.2288	10,555.7	69.8368	10,555.7	53.7051	10,555.7	67.3157
10,927.7	89.9447	10,927.7	88.7649	10,927.7	88.9995	10,927.7	88.7118	10,927.7	86.8442	10,927.7	89.8965	10,927.7	88.5995	10,927.7	89.6626	10,927.7	88.4082	10,927.7	86.8886	10,927.7	91.0796	10,927.7	86.6819	10,927.7	84.7916	10,927.7	81.38	10,927.7	84.6681	10,927.7	81.0205	10,927.7	80.7764	10,927.7	77.0773	10,927.7	76.1013	10,927.7	72.5956	10,927.7	73.1138	10,927.7	70.3253	10,927.7	59.9741	10,927.7	70.972	10,927.7	62.9323	10,927.7	71.3143	10,927.7	56.6533	10,927.7	71.2487	10,927.7	59.1779	10,927.7	70.4133	10,927.7	58.332	10,927.7	70.6725	10,927.7	49.8957	10,927.7	71.0866	10,927.7	59.9759	10,927.7	67.9564
11,313	90.6552	11,313	89.0177	11,313	90.6098	11,313	89.2334	11,313	90.9786	11,313	89.176	11,313	89.7715	11,313	88.6425	11,313	87.7978	11,313	87.9813	11,313	91.5873	11,313	87.0125	11,313	82.2328	11,313	84.1687	11,313	84.8106	11,313	80.8151	11,313	81.2562	11,313	76.909	11,313	76.6239	11,313	72.1951	11,313	65.7459	11,313	69.6874	11,313	64.9925	11,313	70.1411	11,313	64.3194	11,313	71.187	11,313	52.4839	11,313	70.8003	11,313	60.4976	11,313	71.8827	11,313	59.9382	11,313	72.0884	11,313	58.7021	11,313	70.9907	11,313	57.1326	11,313	66.0578
11,712.9	90.86	11,712.9	90.7077	11,712.9	92.0781	11,712.9	91.3395	11,712.9	91.2671	11,712.9	90.474	11,712.9	93.2495	11,712.9	89.8661	11,712.9	89.0734	11,712.9	87.1644	11,712.9	91.7095	11,712.9	87.9078	11,712.9	86.8058	11,712.9	81.2971	11,712.9	80.465	11,712.9	79.7417	11,712.9	75.7136	11,712.9	76.9969	11,712.9	71.144	11,712.9	70.0978	11,712.9	70.5639	11,712.9	70.3773	11,712.9	72.229	11,712.9	68.7278	11,712.9	58.4897	11,712.9	70.3531	11,712.9	61.4662	11,712.9	71.2711	11,712.9	53.4903	11,712.9	70.5545	11,712.9	55.7523	11,712.9	68.0512	11,712.9	59.7402	11,712.9	69.6222	11,712.9	55.739	11,712.9	65.1665
12,126	92.9713	12,126	93.1801	12,126	93.5677	12,126	93.7732	12,126	91.7882	12,126	90.6938	12,126	90.9265	12,126	88.269	12,126	92.9285	12,126	86.9532	12,126	89.7436	12,126	85.3674	12,126	86.4508	12,126	82.1297	12,126	83.0977	12,126	79.1862	12,126	75.6485	12,126	75.6796	12,126	73.9381	12,126	68.2655	12,126	70.3902	12,126	69.7331	12,126	70.514	12,126	68.4371	12,126	50.2881	12,126	70.7752	12,126	58.6873	12,126	70.7201	12,126	57.2005	12,126	68.1775	12,126	51.1234	12,126	66.4702	12,126	54.7129	12,126	69.3291	12,126	54.3852	12,126	65.7883
12,553.7	94.3922	12,553.7	94.6648	12,553.7	94.4128	12,553.7	94.0786	12,553.7	93.5681	12,553.7	89.2941	12,553.7	91.0245	12,553.7	87.4389	12,553.7	92.3901	12,553.7	85.2407	12,553.7	86.0243	12,553.7	85.0766	12,553.7	83.6497	12,553.7	80.0064	12,553.7	82.0535	12,553.7	77.542	12,553.7	75.4211	12,553.7	74.3005	12,553.7	73.126	12,553.7	67.2387	12,553.7	66.8224	12,553.7	66.3954	12,553.7	63.943	12,553.7	66.9065	12,553.7	47.4188	12,553.7	69.6589	12,553.7	55.6949	12,553.7	68.8258	12,553.7	51.3843	12,553.7	68.3346	12,553.7	50.9084	12,553.7	65.7169	12,553.7	51.1765	12,553.7	67.6235	12,553.7	54.9172	12,553.7	62.3552
12,996.1	94.5427	12,996.1	94.6756	12,996.1	94.5675	12,996.1	92.7122	12,996.1	93.4836	12,996.1	88.681	12,996.1	90.9656	12,996.1	85.4605	12,996.1	87.6477	12,996.1	82.0455	12,996.1	81.282	12,996.1	81.0011	12,996.1	79.4715	12,996.1	76.7054	12,996.1	77.3966	12,996.1	74.4666	12,996.1	61.1414	12,996.1	71.3808	12,996.1	48.6761	12,996.1	65.3013	12,996.1	55.9171	12,996.1	65.022	12,996.1	64.0169	12,996.1	63.9762	12,996.1	59.3514	12,996.1	66.7275	12,996.1	51.015	12,996.1	65.169	12,996.1	54.7732	12,996.1	65.1268	12,996.1	47.5205	12,996.1	61.3763	12,996.1	51.4047	12,996.1	62.0841	12,996.1	44.4656	12,996.1	57.8511
13,454.6	94.1316	13,454.6	93.1691	13,454.6	93.5313	13,454.6	90.9265	13,454.6	91.6647	13,454.6	86.3755	13,454.6	87.4035	13,454.6	82.0525	13,454.6	79.048	13,454.6	77.1398	13,454.6	78.6015	13,454.6	76.5477	13,454.6	76.6741	13,454.6	73.2948	13,454.6	74.0415	13,454.6	71.0518	13,454.6	60.1333	13,454.6	67.6065	13,454.6	57.6991	13,454.6	61.2339	13,454.6	60.9602	13,454.6	61.9441	13,454.6	61.8061	13,454.6	60.4838	13,454.6	53.7596	13,454.6	62.4472	13,454.6	48.1932	13,454.6	61.7276	13,454.6	51.4629	13,454.6	62.8359	13,454.6	48.8097	13,454.6	59.8925	13,454.6	50.167	13,454.6	59.9329	13,454.6	49.2129	13,454.6	54.7366
13,929.2	93.7947	13,929.2	92.4114	13,929.2	92.8931	13,929.2	89.6682	13,929.2	90.5116	13,929.2	83.5739	13,929.2	86.6034	13,929.2	75.8827	13,929.2	81.2164	13,929.2	70.0332	13,929.2	77.4117	13,929.2	73.3493	13,929.2	74.7542	13,929.2	71.4645	13,929.2	73.548	13,929.2	69.7586	13,929.2	66.4089	13,929.2	67.0744	13,929.2	59.0044	13,929.2	61.1729	13,929.2	49.8413	13,929.2	58.0275	13,929.2	53.6688	13,929.2	60.4268	13,929.2	50.0739	13,929.2	61.8602	13,929.2	49.722	13,929.2	61.0679	13,929.2	51.8768	13,929.2	61.8408	13,929.2	46.1412	13,929.2	57.5169	13,929.2	26.3293	13,929.2	57.3324	13,929.2	51.6707	13,929.2	49.233
14,419.9	93.7687	14,419.9	92.3133	14,419.9	92.6136	14,419.9	89.8432	14,419.9	89.8423	14,419.9	82.5899	14,419.9	86.8152	14,419.9	74.0409	14,419.9	81.6871	14,419.9	63.9134	14,419.9	75.688	14,419.9	72.2256	14,419.9	73.7208	14,419.9	71.5887	14,419.9	67.7936	14,419.9	68.8882	14,419.9	68.1219	14,419.9	65.4061	14,419.9	42.6695	14,419.9	60.9899	14,419.9	45.0221	14,419.9	58.4368	14,419.9	58.2679	14,419.9	60.5034	14,419.9	53.3793	14,419.9	61.2718	14,419.9	49.0045	14,419.9	60.2721	14,419.9	47.7562	14,419.9	61.0023	14,419.9	46.8382	14,419.9	56.9697	14,419.9	37.5896	14,419.9	57.8915	14,419.9	48.9499	14,419.9	50.1443
14,928.2	93.695	14,928.2	92.8302	14,928.2	92.937	14,928.2	90.0989	14,928.2	90.1168	14,928.2	84.0083	14,928.2	87.4324	14,928.2	77.3961	14,928.2	82.5161	14,928.2	67.3683	14,928.2	74.9	14,928.2	73.0869	14,928.2	70.1498	14,928.2	71.2354	14,928.2	63.5875	14,928.2	69.7355	14,928.2	63.9041	14,928.2	66.5529	14,928.2	57.5747	14,928.2	61.5069	14,928.2	55.3848	14,928.2	58.2411	14,928.2	66.9345	14,928.2	59.9268	14,928.2	55.9771	14,928.2	61.9743	14,928.2	50.9539	14,928.2	60.9727	14,928.2	48.3334	14,928.2	61.3719	14,928.2	48.1511	14,928.2	57.1355	14,928.2	42.7364	14,928.2	58.2306	14,928.2	42.3785	14,928.2	52.4373
15,455.6	93.6567	15,455.6	93.1712	15,455.6	92.9663	15,455.6	90.7088	15,455.6	90.285	15,455.6	85.1571	15,455.6	87.3885	15,455.6	79.82	15,455.6	81.8163	15,455.6	70.559	15,455.6	72.3484	15,455.6	71.642	15,455.6	58.2678	15,455.6	70.6076	15,455.6	61.6661	15,455.6	68.4028	15,455.6	52.4956	15,455.6	65.7539	15,455.6	56.4301	15,455.6	60.5514	15,455.6	40.094	15,455.6	57.8646	15,455.6	66.4664	15,455.6	59.1209	15,455.6	54.5044	15,455.6	60.8095	15,455.6	54.1601	15,455.6	61.3103	15,455.6	47.6836	15,455.6	61.1867	15,455.6	50.909	15,455.6	56.7726	15,455.6	50.8917	15,455.6	58.2099	15,455.6	43.5918	15,455.6	53.6996
16,000.5	93.7408	16,000.5	93.1437	16,000.5	92.8597	16,000.5	90.5964	16,000.5	90.6772	16,000.5	84.6496	16,000.5	88.0558	16,000.5	80.17	16,000.5	81.7255	16,000.5	68.8367	16,000.5	72.4081	16,000.5	69.0058	16,000.5	66.1517	16,000.5	69.5734	16,000.5	53.6326	16,000.5	66.5292	16,000.5	62.4001	16,000.5	64.0993	16,000.5	55.2926	16,000.5	58.3367	16,000.5	64.5666	16,000.5	54.3167	16,000.5	62.7627	16,000.5	57.9173	16,000.5	54.5859	16,000.5	60.0724	16,000.5	51.6411	16,000.5	59.4237	16,000.5	50.7457	16,000.5	60.5861	16,000.5	46.4519	16,000.5	55.8155	16,000.5	52.4816	16,000.5	56.9261	16,000.5	44.2922	16,000.5	53.6586
16,564.5	93.3278	16,564.5	92.7734	16,564.5	92.9907	16,564.5	90.0541	16,564.5	91.0705	16,564.5	85.0731	16,564.5	88.4037	16,564.5	79.3401	16,564.5	82.7222	16,564.5	68.3723	16,564.5	69.5048	16,564.5	73.571	16,564.5	72.1671	16,564.5	72.2022	16,564.5	67.061	16,564.5	69.5395	16,564.5	68.0804	16,564.5	66.1232	16,564.5	58.5078	16,564.5	60.2174	16,564.5	72.1323	16,564.5	58.6858	16,564.5	69.357	16,564.5	54.8266	16,564.5	46.6861	16,564.5	62.1299	16,564.5	48.0668	16,564.5	62.0068	16,564.5	50.3596	16,564.5	62.8077	16,564.5	35.0561	16,564.5	56.6874	16,564.5	51.6883	16,564.5	57.7035	16,564.5	39.4292	16,564.5	53.5589
17,148.9	92.5785	17,148.9	92.5441	17,148.9	92.5044	17,148.9	90.9073	17,148.9	91.2122	17,148.9	85.5177	17,148.9	88.108	17,148.9	78.9644	17,148.9	82.4369	17,148.9	75.1231	17,148.9	66.816	17,148.9	77.4734	17,148.9	72.7721	17,148.9	74.4636	17,148.9	70.372	17,148.9	70.2342	17,148.9	70.1383	17,148.9	67.4486	17,148.9	63.8004	17,148.9	62.0977	17,148.9	73.398	17,148.9	58.2338	17,148.9	72.5929	17,148.9	55.9099	17,148.9	51.515	17,148.9	63.4128	17,148.9	56.2634	17,148.9	63.3801	17,148.9	51.7855	17,148.9	62.6345	17,148.9	50.7461	17,148.9	55.6421	17,148.9	56.3515	17,148.9	60.3728	17,148.9	51.5602	17,148.9	55.8694
17,752.4	91.0267	17,752.4	91.3698	17,752.4	90.8691	17,752.4	90.243	17,752.4	89.7581	17,752.4	85.1127	17,752.4	86.0287	17,752.4	81.0896	17,752.4	79.6824	17,752.4	74.5852	17,752.4	65.2616	17,752.4	75.1852	17,752.4	72.6327	17,752.4	72.3312	17,752.4	67.0597	17,752.4	67.2347	17,752.4	65.8601	17,752.4	63.4443	17,752.4	60.6097	17,752.4	57.0005	17,752.4	69.5161	17,752.4	51.882	17,752.4	71.6448	17,752.4	53.2685	17,752.4	53.1479	17,752.4	60.625	17,752.4	53.3081	17,752.4	58.8613	17,752.4	50.5081	17,752.4	58.9913	17,752.4	49.2566	17,752.4	50.2777	17,752.4	54.9487	17,752.4	57.1828	17,752.4	51.4494	17,752.4	54.9205
18,379.4	89.737	18,379.4	89.3877	18,379.4	89.9346	18,379.4	88.8872	18,379.4	88.6591	18,379.4	83.4782	18,379.4	84.0474	18,379.4	78.9933	18,379.4	74.8798	18,379.4	66.6983	18,379.4	65.1559	18,379.4	66.7858	18,379.4	73.0736	18,379.4	66.7462	18,379.4	72.5701	18,379.4	62.511	18,379.4	58.1443	18,379.4	57.6669	18,379.4	54.8838	18,379.4	55.7514	18,379.4	66.3955	18,379.4	49.6323	18,379.4	67.4749	18,379.4	46.9592	18,379.4	49.1105	18,379.4	63.4491	18,379.4	47.8292	18,379.4	54.9536	18,379.4	46.0222	18,379.4	56.8641	18,379.4	43.6039	18,379.4	47.3697	18,379.4	52.6661	18,379.4	48.3017	18,379.4	51.5678	18,379.4	51.7841
19,026.9	89.9146	19,026.9	88.8577	19,026.9	90.4059	19,026.9	88.0675	19,026.9	89.3413	19,026.9	81.396	19,026.9	83.7048	19,026.9	73.5087	19,026.9	70.4084	19,026.9	66.132	19,026.9	71.025	19,026.9	69.8039	19,026.9	74.7749	19,026.9	69.0618	19,026.9	74.0768	19,026.9	63.5338	19,026.9	71.0485	19,026.9	61.1405	19,026.9	56.6912	19,026.9	58.8568	19,026.9	66.2009	19,026.9	49.7115	19,026.9	57.6991	19,026.9	55.4659	19,026.9	55.4493	19,026.9	59.1241	19,026.9	56.116	19,026.9	59.1532	19,026.9	52.4255	19,026.9	60.1548	19,026.9	51.2891	19,026.9	53.4233	19,026.9	54.7862	19,026.9	55.063	19,026.9	49.8618	19,026.9	53.3912
19,697.8	89.6147	19,697.8	89.1238	19,697.8	90.4368	19,697.8	87.1148	19,697.8	89.1008	19,697.8	78.2422	19,697.8	83.8804	19,697.8	55.2159	19,697.8	65.725	19,697.8	74.0566	19,697.8	74.3823	19,697.8	73.8403	19,697.8	77.4604	19,697.8	71.1251	19,697.8	74.6068	19,697.8	65.866	19,697.8	71.4873	19,697.8	62.5622	19,697.8	62.1269	19,697.8	59.512	19,697.8	68.9536	19,697.8	51.1209	19,697.8	63.5076	19,697.8	56.155	19,697.8	54.4705	19,697.8	60.8654	19,697.8	52.0477	19,697.8	59.5587	19,697.8	54.7994	19,697.8	61.5552	19,697.8	52.6294	19,697.8	55.6081	19,697.8	54.5306	19,697.8	56.9788	19,697.8	50.0953	19,697.8	53.9457
19,999.5	89.3778	19,999.5	89.4155	19,999.5	90.0407	19,999.5	86.6955	19,999.5	89.0664	19,999.5	76.4793	19,999.5	82.9625	19,999.5	66.5431	19,999.5	66.4516	19,999.5	75.0775	19,999.5	74.8671	19,999.5	73.8622	19,999.5	76.6039	19,999.5	73.376	19,999.5	77.3034	19,999.5	67.2501	19,999.5	67.474	19,999.5	62.1151	19,999.5	52.8274	19,999.5	60.1039	19,999.5	69.5795	19,999.5	56.3188	19,999.5	63.5632	19,999.5	59.3085	19,999.5	32.3682	19,999.5	63.2548	19,999.5	51.0394	19,999.5	52.3959	19,999.5	54.5282	19,999.5	61.0037	19,999.5	57.5267	19,999.5	61.9417	19,999.5	50.4512	19,999.5	50.5971	19,999.5	54.1799	19,999.5	50.525
