"SPL Horizontal"
"On-Axis"		"10°"		"-10°"		"20°"		"-20°"		"30°"		"-30°"		"40°"		"-40°"		"50°"		"-50°"		"60°"		"-60°"		"70°"		"-70°"		"80°"		"-80°"		"90°"		"-90°"		"100°"		"-100°"		"110°"		"-110°"		"120°"		"-120°"		"130°"		"-130°"		"140°"		"-140°"		"150°"		"-150°"		"160°"		"-160°"		"170°"		"-170°"		"180°"
"Frequency [Hz]"	"Sound Pessure Level [dB]  / [2.83V 1m] "	"Frequency [Hz]"	"Sound Pessure Level [dB]  / [2.83V 1m] "	"Frequency [Hz]"	"Sound Pessure Level [dB]  / [2.83V 1m] "	"Frequency [Hz]"	"Sound Pessure Level [dB]  / [2.83V 1m] "	"Frequency [Hz]"	"Sound Pessure Level [dB]  / [2.83V 1m] "	"Frequency [Hz]"	"Sound Pessure Level [dB]  / [2.83V 1m] "	"Frequency [Hz]"	"Sound Pessure Level [dB]  / [2.83V 1m] "	"Frequency [Hz]"	"Sound Pessure Level [dB]  / [2.83V 1m] "	"Frequency [Hz]"	"Sound Pessure Level [dB]  / [2.83V 1m] "	"Frequency [Hz]"	"Sound Pessure Level [dB]  / [2.83V 1m] "	"Frequency [Hz]"	"Sound Pessure Level [dB]  / [2.83V 1m] "	"Frequency [Hz]"	"Sound Pessure Level [dB]  / [2.83V 1m] "	"Frequency [Hz]"	"Sound Pessure Level [dB]  / [2.83V 1m] "	"Frequency [Hz]"	"Sound Pessure Level [dB]  / [2.83V 1m] "	"Frequency [Hz]"	"Sound Pessure Level [dB]  / [2.83V 1m] "	"Frequency [Hz]"	"Sound Pessure Level [dB]  / [2.83V 1m] "	"Frequency [Hz]"	"Sound Pessure Level [dB]  / [2.83V 1m] "	"Frequency [Hz]"	"Sound Pessure Level [dB]  / [2.83V 1m] "	"Frequency [Hz]"	"Sound Pessure Level [dB]  / [2.83V 1m] "	"Frequency [Hz]"	"Sound Pessure Level [dB]  / [2.83V 1m] "	"Frequency [Hz]"	"Sound Pessure Level [dB]  / [2.83V 1m] "	"Frequency [Hz]"	"Sound Pessure Level [dB]  / [2.83V 1m] "	"Frequency [Hz]"	"Sound Pessure Level [dB]  / [2.83V 1m] "	"Frequency [Hz]"	"Sound Pessure Level [dB]  / [2.83V 1m] "	"Frequency [Hz]"	"Sound Pessure Level [dB]  / [2.83V 1m] "	"Frequency [Hz]"	"Sound Pessure Level [dB]  / [2.83V 1m] "	"Frequency [Hz]"	"Sound Pessure Level [dB]  / [2.83V 1m] "	"Frequency [Hz]"	"Sound Pessure Level [dB]  / [2.83V 1m] "	"Frequency [Hz]"	"Sound Pessure Level [dB]  / [2.83V 1m] "	"Frequency [Hz]"	"Sound Pessure Level [dB]  / [2.83V 1m] "	"Frequency [Hz]"	"Sound Pessure Level [dB]  / [2.83V 1m] "	"Frequency [Hz]"	"Sound Pessure Level [dB]  / [2.83V 1m] "	"Frequency [Hz]"	"Sound Pessure Level [dB]  / [2.83V 1m] "	"Frequency [Hz]"	"Sound Pessure Level [dB]  / [2.83V 1m] "	"Frequency [Hz]"	"Sound Pessure Level [dB]  / [2.83V 1m] "	"Frequency [Hz]"	"Sound Pessure Level [dB]  / [2.83V 1m] "
20.5078	50.2857	20.5078	50.2209	20.5078	50.3423	20.5078	50.151	20.5078	50.3871	20.5078	50.0787	20.5078	50.415	20.5078	50.0066	20.5078	50.4199	20.5078	49.9383	20.5078	50.3968	20.5078	49.8784	20.5078	50.3464	20.5078	49.8326	20.5078	50.2809	20.5078	49.8083	20.5078	50.2261	20.5078	49.8146	20.5078	50.2166	20.5078	49.8628	20.5078	50.2807	20.5078	49.9632	20.5078	50.4243	20.5078	50.1198	20.5078	50.6255	20.5078	50.3248	20.5078	50.8448	20.5078	50.5576	20.5078	51.0422	20.5078	50.7897	20.5078	51.1898	20.5078	50.9942	20.5078	51.275	20.5078	51.1521	20.5078	51.2955	20.5078	51.2538
21.9727	52.1875	21.9727	51.8913	21.9727	52.5243	21.9727	51.6543	21.9727	52.8807	21.9727	51.4899	21.9727	53.2349	21.9727	51.4035	21.9727	53.5658	21.9727	51.3915	21.9727	53.8537	21.9727	51.4418	21.9727	54.0819	21.9727	51.5371	21.9727	54.2385	21.9727	51.6595	21.9727	54.3173	21.9727	51.7931	21.9727	54.3187	21.9727	51.9255	21.9727	54.2485	21.9727	52.0476	21.9727	54.1173	21.9727	52.1534	21.9727	53.9381	21.9727	52.2414	21.9727	53.7257	21.9727	52.3154	21.9727	53.4957	21.9727	52.3845	21.9727	53.2636	21.9727	52.4612	21.9727	53.0439	21.9727	52.5584	21.9727	52.8487	21.9727	52.6862
23.4375	53.1987	23.4375	53.0449	23.4375	53.3733	23.4375	52.9155	23.4375	53.5632	23.4375	52.8123	23.4375	53.761	23.4375	52.7356	23.4375	53.9567	23.4375	52.6842	23.4375	54.1394	23.4375	52.6556	23.4375	54.2985	23.4375	52.6478	23.4375	54.427	23.4375	52.6597	23.4375	54.5227	23.4375	52.6923	23.4375	54.5885	23.4375	52.7482	23.4375	54.6303	23.4375	52.8307	23.4375	54.6526	23.4375	52.9419	23.4375	54.6563	23.4375	53.0819	23.4375	54.6372	23.4375	53.248	23.4375	54.5884	23.4375	53.4348	23.4375	54.5037	23.4375	53.6352	23.4375	54.3811	23.4375	53.8402	23.4375	54.2239	23.4375	54.0401
24.9023	56.4222	24.9023	56.4181	24.9023	56.4502	24.9023	56.4371	24.9023	56.5012	24.9023	56.4774	24.9023	56.5723	24.9023	56.5369	24.9023	56.6585	24.9023	56.6131	24.9023	56.7531	24.9023	56.7024	24.9023	56.8496	24.9023	56.7999	24.9023	56.9421	24.9023	56.9	24.9023	57.0271	24.9023	56.9968	24.9023	57.1035	24.9023	57.0853	24.9023	57.1716	24.9023	57.1624	24.9023	57.2318	24.9023	57.2264	24.9023	57.2835	24.9023	57.2768	24.9023	57.3251	24.9023	57.3141	24.9023	57.3547	24.9023	57.3396	24.9023	57.372	24.9023	57.356	24.9023	57.3786	24.9023	57.3663	24.9023	57.378	24.9023	57.3734
26.3672	59.3132	26.3672	59.3972	26.3672	59.2547	26.3672	59.5044	26.3672	59.2233	26.3672	59.6314	26.3672	59.2198	26.3672	59.7743	26.3672	59.2436	26.3672	59.9277	26.3672	59.2926	26.3672	60.0846	26.3672	59.3641	26.3672	60.2367	26.3672	59.4545	26.3672	60.3752	26.3672	59.5602	26.3672	60.4925	26.3672	59.6774	26.3672	60.5839	26.3672	59.8025	26.3672	60.6482	26.3672	59.9311	26.3672	60.6873	26.3672	60.0583	26.3672	60.7052	26.3672	60.1788	26.3672	60.7059	26.3672	60.2883	26.3672	60.6927	26.3672	60.3838	26.3672	60.6679	26.3672	60.4647	26.3672	60.6328	26.3672	60.5321	26.3672	60.5877
27.832	60.8027	27.832	60.8466	27.832	60.773	27.832	60.9013	27.832	60.7598	27.832	60.9632	27.832	60.7644	27.832	61.0286	27.832	60.786	27.832	61.0948	27.832	60.8225	27.832	61.1601	27.832	60.8707	27.832	61.224	27.832	60.9273	27.832	61.287	27.832	60.99	27.832	61.3504	27.832	61.0576	27.832	61.4154	27.832	61.1306	27.832	61.4826	27.832	61.2095	27.832	61.5506	27.832	61.2937	27.832	61.6161	27.832	61.3814	27.832	61.6737	27.832	61.4688	27.832	61.7175	27.832	61.5515	27.832	61.7423	27.832	61.6247	27.832	61.745	27.832	61.6839	27.832	61.725
29.2969	65.2354	29.2969	65.3353	29.2969	65.1479	29.2969	65.4446	29.2969	65.0749	29.2969	65.5599	29.2969	65.0181	29.2969	65.6766	29.2969	64.9785	29.2969	65.7893	29.2969	64.9566	29.2969	65.8914	29.2969	64.9521	29.2969	65.9763	29.2969	64.9644	29.2969	66.038	29.2969	64.9922	29.2969	66.0723	29.2969	65.034	29.2969	66.0783	29.2969	65.0879	29.2969	66.0589	29.2969	65.1516	29.2969	66.0194	29.2969	65.2225	29.2969	65.967	29.2969	65.2974	29.2969	65.9078	29.2969	65.3736	29.2969	65.8462	29.2969	65.4489	29.2969	65.7841	29.2969	65.5216	29.2969	65.7215	29.2969	65.5911	29.2969	65.6575
30.7617	62.5831	30.7617	62.6236	30.7617	62.5651	30.7617	62.6915	30.7617	62.5638	30.7617	62.7885	30.7617	62.5729	30.7617	62.9117	30.7617	62.5872	30.7617	63.0517	30.7617	62.6021	30.7617	63.1925	30.7617	62.6145	30.7617	63.3133	30.7617	62.6222	30.7617	63.3923	30.7617	62.6245	30.7617	63.4119	30.7617	62.6211	30.7617	63.3638	30.7617	62.6119	30.7617	63.2515	30.7617	62.5965	30.7617	63.0906	30.7617	62.5735	30.7617	62.9053	30.7617	62.5414	30.7617	62.7223	30.7617	62.5002	30.7617	62.5652	30.7617	62.4527	30.7617	62.4493	30.7617	62.4057	30.7617	62.381	30.7617	62.3697	30.7617	62.3574
32.2266	68.835	32.2266	68.7958	32.2266	68.87	32.2266	68.7515	32.2266	68.9018	32.2266	68.7019	32.2266	68.9316	32.2266	68.6476	32.2266	68.9603	32.2266	68.591	32.2266	68.9888	32.2266	68.5367	32.2266	69.0176	32.2266	68.4913	32.2266	69.0469	32.2266	68.4624	32.2266	69.0764	32.2266	68.4568	32.2266	69.1057	32.2266	68.4778	32.2266	69.1333	32.2266	68.5246	32.2266	69.1578	32.2266	68.5922	32.2266	69.1768	32.2266	68.6733	32.2266	69.188	32.2266	68.7603	32.2266	69.1889	32.2266	68.8469	32.2266	69.1778	32.2266	68.9284	32.2266	69.1534	32.2266	69.0017	32.2266	69.1155	32.2266	69.0646
33.6914	70.6663	33.6914	70.6649	33.6914	70.6711	33.6914	70.6663	33.6914	70.6796	33.6914	70.6698	33.6914	70.6919	33.6914	70.6745	33.6914	70.7074	33.6914	70.6798	33.6914	70.7254	33.6914	70.6856	33.6914	70.7452	33.6914	70.6927	33.6914	70.766	33.6914	70.702	33.6914	70.7871	33.6914	70.7146	33.6914	70.808	33.6914	70.7309	33.6914	70.8278	33.6914	70.7501	33.6914	70.8452	33.6914	70.7704	33.6914	70.8592	33.6914	70.7896	33.6914	70.8683	33.6914	70.8062	33.6914	70.872	33.6914	70.8194	33.6914	70.8704	33.6914	70.8298	33.6914	70.8647	33.6914	70.8389	33.6914	70.8567	33.6914	70.8478
35.1562	72.4845	35.1562	72.4548	35.1562	72.5201	35.1562	72.4319	35.1562	72.5609	35.1562	72.4166	35.1562	72.606	35.1562	72.4099	35.1562	72.6547	35.1562	72.4127	35.1562	72.7062	35.1562	72.4261	35.1562	72.7595	35.1562	72.4507	35.1562	72.8135	35.1562	72.4866	35.1562	72.8664	35.1562	72.5333	35.1562	72.9162	35.1562	72.5889	35.1562	72.9607	35.1562	72.6509	35.1562	72.9979	35.1562	72.7163	35.1562	73.0263	35.1562	72.7817	35.1562	73.0455	35.1562	72.844	35.1562	73.0559	35.1562	72.9005	35.1562	73.0581	35.1562	72.949	35.1562	73.0527	35.1562	72.9885	35.1562	73.0398	35.1562	73.0186
36.6211	74.8976	36.6211	74.8808	36.6211	74.9125	36.6211	74.8623	36.6211	74.9254	36.6211	74.842	36.6211	74.9364	36.6211	74.8206	36.6211	74.9453	36.6211	74.7985	36.6211	74.952	36.6211	74.7767	36.6211	74.9565	36.6211	74.7564	36.6211	74.9585	36.6211	74.7388	36.6211	74.9581	36.6211	74.7254	36.6211	74.9551	36.6211	74.7172	36.6211	74.9496	36.6211	74.7149	36.6211	74.9417	36.6211	74.7188	36.6211	74.9316	36.6211	74.7287	36.6211	74.9194	36.6211	74.7438	36.6211	74.9053	36.6211	74.7631	36.6211	74.8894	36.6211	74.785	36.6211	74.8716	36.6211	74.8079	36.6211	74.852	36.6211	74.8306
38.0859	77.0619	38.0859	77.0538	38.0859	77.0645	38.0859	77.0403	38.0859	77.0614	38.0859	77.0214	38.0859	77.0529	38.0859	76.9974	38.0859	77.0387	38.0859	76.9687	38.0859	77.019	38.0859	76.9362	38.0859	76.9939	38.0859	76.9006	38.0859	76.9639	38.0859	76.8634	38.0859	76.9297	38.0859	76.8256	38.0859	76.8923	38.0859	76.7887	38.0859	76.8531	38.0859	76.7537	38.0859	76.8137	38.0859	76.7216	38.0859	76.7758	38.0859	76.6935	38.0859	76.7408	38.0859	76.6702	38.0859	76.7098	38.0859	76.6528	38.0859	76.6838	38.0859	76.6417	38.0859	76.6633	38.0859	76.6374	38.0859	76.6484	38.0859	76.6397
39.5508	78.7679	39.5508	78.7739	39.5508	78.7582	39.5508	78.7761	39.5508	78.745	39.5508	78.7743	39.5508	78.7284	39.5508	78.7684	39.5508	78.7085	39.5508	78.7585	39.5508	78.6853	39.5508	78.7445	39.5508	78.659	39.5508	78.7268	39.5508	78.63	39.5508	78.7056	39.5508	78.5991	39.5508	78.6817	39.5508	78.5676	39.5508	78.6556	39.5508	78.5371	39.5508	78.6281	39.5508	78.5092	39.5508	78.6003	39.5508	78.4858	39.5508	78.5729	39.5508	78.468	39.5508	78.5469	39.5508	78.4566	39.5508	78.5232	39.5508	78.4517	39.5508	78.5022	39.5508	78.4528	39.5508	78.4843	39.5508	78.4591	39.5508	78.4698
41.0156	80.3495	41.0156	80.3462	41.0156	80.3568	41.0156	80.3469	41.0156	80.368	41.0156	80.3515	41.0156	80.3827	41.0156	80.3601	41.0156	80.4005	41.0156	80.3726	41.0156	80.4205	41.0156	80.389	41.0156	80.4414	41.0156	80.4089	41.0156	80.462	41.0156	80.432	41.0156	80.4811	41.0156	80.4575	41.0156	80.4981	41.0156	80.4843	41.0156	80.5129	41.0156	80.5113	41.0156	80.5261	41.0156	80.5372	41.0156	80.5388	41.0156	80.5609	41.0156	80.552	41.0156	80.5813	41.0156	80.566	41.0156	80.5974	41.0156	80.5806	41.0156	80.6084	41.0156	80.5943	41.0156	80.6134	41.0156	80.6055	41.0156	80.6123
42.4805	81.2895	42.4805	81.2931	42.4805	81.2817	42.4805	81.2925	42.4805	81.2696	42.4805	81.2878	42.4805	81.2536	42.4805	81.2792	42.4805	81.2339	42.4805	81.2667	42.4805	81.211	42.4805	81.2503	42.4805	81.1854	42.4805	81.23	42.4805	81.1574	42.4805	81.2057	42.4805	81.1272	42.4805	81.1777	42.4805	81.095	42.4805	81.1468	42.4805	81.0616	42.4805	81.1137	42.4805	81.0279	42.4805	81.08	42.4805	80.9957	42.4805	81.047	42.4805	80.9673	42.4805	81.0161	42.4805	80.9448	42.4805	80.9885	42.4805	80.9298	42.4805	80.9649	42.4805	80.9229	42.4805	80.9459	42.4805	80.924	42.4805	80.932
43.9453	82.7822	43.9453	82.7756	43.9453	82.7831	43.9453	82.7636	43.9453	82.7782	43.9453	82.7467	43.9453	82.7675	43.9453	82.7256	43.9453	82.7516	43.9453	82.7009	43.9453	82.7311	43.9453	82.6736	43.9453	82.7069	43.9453	82.6444	43.9453	82.68	43.9453	82.6141	43.9453	82.6514	43.9453	82.5838	43.9453	82.6219	43.9453	82.5543	43.9453	82.5921	43.9453	82.5265	43.9453	82.563	43.9453	82.5015	43.9453	82.5351	43.9453	82.48	43.9453	82.5095	43.9453	82.4625	43.9453	82.487	43.9453	82.4495	43.9453	82.4683	43.9453	82.4411	43.9453	82.4539	43.9453	82.4375	43.9453	82.4439	43.9453	82.4384
45.4102	84.2163	45.4102	84.2144	45.4102	84.2117	45.4102	84.206	45.4102	84.2006	45.4102	84.1916	45.4102	84.1831	45.4102	84.1714	45.4102	84.1597	45.4102	84.146	45.4102	84.1309	45.4102	84.1162	45.4102	84.0974	45.4102	84.0824	45.4102	84.0599	45.4102	84.0455	45.4102	84.0195	45.4102	84.0063	45.4102	83.9771	45.4102	83.9659	45.4102	83.9339	45.4102	83.9254	45.4102	83.8913	45.4102	83.8861	45.4102	83.8511	45.4102	83.8494	45.4102	83.8149	45.4102	83.8163	45.4102	83.7844	45.4102	83.788	45.4102	83.761	45.4102	83.7653	45.4102	83.7457	45.4102	83.7491	45.4102	83.7388	45.4102	83.74
46.875	85.4637	46.875	85.4579	46.875	85.4625	46.875	85.4453	46.875	85.4541	46.875	85.4263	46.875	85.4389	46.875	85.4016	46.875	85.4171	46.875	85.3719	46.875	85.3892	46.875	85.338	46.875	85.356	46.875	85.3008	46.875	85.3182	46.875	85.2613	46.875	85.2766	46.875	85.2203	46.875	85.2325	46.875	85.179	46.875	85.1871	46.875	85.1383	46.875	85.1418	46.875	85.0994	46.875	85.0984	46.875	85.0635	46.875	85.0586	46.875	85.0317	46.875	85.0243	46.875	85.005	46.875	84.997	46.875	84.9844	46.875	84.9776	46.875	84.9707	46.875	84.9668	46.875	84.9646
48.3398	86.528	48.3398	86.5203	48.3398	86.5282	48.3398	86.5054	48.3398	86.5209	48.3398	86.4838	48.3398	86.5061	48.3398	86.4562	48.3398	86.4843	48.3398	86.4234	48.3398	86.4561	48.3398	86.3865	48.3398	86.4223	48.3398	86.3465	48.3398	86.3837	48.3398	86.3047	48.3398	86.3415	48.3398	86.2623	48.3398	86.297	48.3398	86.2205	48.3398	86.2514	48.3398	86.1804	48.3398	86.2065	48.3398	86.1432	48.3398	86.1637	48.3398	86.1099	48.3398	86.1248	48.3398	86.0813	48.3398	86.0913	48.3398	86.0583	48.3398	86.0642	48.3398	86.0414	48.3398	86.0445	48.3398	86.0312	48.3398	86.0324	48.3398	86.028
51.2695	88.2192	51.2695	88.2141	51.2695	88.2168	51.2695	88.202	51.2695	88.207	51.2695	88.1833	51.2695	88.1901	51.2695	88.1586	51.2695	88.1664	51.2695	88.1289	51.2695	88.1366	51.2695	88.0951	51.2695	88.1017	51.2695	88.0583	51.2695	88.0629	51.2695	88.0199	51.2695	88.0212	51.2695	87.9809	51.2695	87.9783	51.2695	87.9424	51.2695	87.9355	51.2695	87.9056	51.2695	87.8944	51.2695	87.8712	51.2695	87.8565	51.2695	87.8401	51.2695	87.8231	51.2695	87.8129	51.2695	87.7955	51.2695	87.7901	51.2695	87.7745	51.2695	87.7723	51.2695	87.7605	51.2695	87.7599	51.2695	87.7535	51.2695	87.7535
52.7344	88.9219	52.7344	88.914	52.7344	88.9216	52.7344	88.8982	52.7344	88.913	52.7344	88.875	52.7344	88.8964	52.7344	88.8452	52.7344	88.8724	52.7344	88.8098	52.7344	88.8417	52.7344	88.77	52.7344	88.8053	52.7344	88.7271	52.7344	88.7643	52.7344	88.6826	52.7344	88.7201	52.7344	88.638	52.7344	88.6742	52.7344	88.5946	52.7344	88.6281	52.7344	88.5537	52.7344	88.5833	52.7344	88.5163	52.7344	88.5413	52.7344	88.4834	52.7344	88.5033	52.7344	88.4558	52.7344	88.4706	52.7344	88.4339	52.7344	88.4441	52.7344	88.4183	52.7344	88.4245	52.7344	88.4092	52.7344	88.4122	52.7344	88.4071
54.1992	89.5367	54.1992	89.5316	54.1992	89.5334	54.1992	89.5185	54.1992	89.5219	54.1992	89.4979	54.1992	89.5025	54.1992	89.4706	54.1992	89.4756	54.1992	89.4375	54.1992	89.4421	54.1992	89.3998	54.1992	89.403	54.1992	89.359	54.1992	89.3596	54.1992	89.3163	54.1992	89.3133	54.1992	89.2731	54.1992	89.2657	54.1992	89.2306	54.1992	89.2186	54.1992	89.19	54.1992	89.1736	54.1992	89.1522	54.1992	89.1324	54.1992	89.1181	54.1992	89.0963	54.1992	89.0882	54.1992	89.0665	54.1992	89.063	54.1992	89.0439	54.1992	89.0433	54.1992	89.0289	54.1992	89.0294	54.1992	89.0217	54.1992	89.022
55.6641	90.0287	55.6641	90.0237	55.6641	90.0257	55.6641	90.0111	55.6641	90.0147	55.6641	89.9915	55.6641	89.9959	55.6641	89.9656	55.6641	89.97	55.6641	89.9345	55.6641	89.9376	55.6641	89.8994	55.6641	89.8999	55.6641	89.8615	55.6641	89.8583	55.6641	89.8222	55.6641	89.8142	55.6641	89.7828	55.6641	89.7694	55.6641	89.7442	55.6641	89.7255	55.6641	89.7075	55.6641	89.6841	55.6641	89.6735	55.6641	89.6466	55.6641	89.6426	55.6641	89.6143	55.6641	89.6153	55.6641	89.5881	55.6641	89.5921	55.6641	89.5685	55.6641	89.5735	55.6641	89.556	55.6641	89.5599	55.6641	89.5506	55.6641	89.5521
58.5938	90.8725	58.5938	90.8619	58.5938	90.8742	58.5938	90.8428	58.5938	90.8669	58.5938	90.8158	58.5938	90.851	58.5938	90.782	58.5938	90.8272	58.5938	90.7427	58.5938	90.7962	58.5938	90.6996	58.5938	90.7593	58.5938	90.6543	58.5938	90.7179	58.5938	90.6087	58.5938	90.6736	58.5938	90.5643	58.5938	90.6281	58.5938	90.5228	58.5938	90.583	58.5938	90.4853	58.5938	90.54	58.5938	90.4526	58.5938	90.5003	58.5938	90.4252	58.5938	90.4652	58.5938	90.4035	58.5938	90.4352	58.5938	90.3874	58.5938	90.4109	58.5938	90.377	58.5938	90.3924	58.5938	90.3723	58.5938	90.3799	58.5938	90.3732
60.0586	91.1941	60.0586	91.1825	60.0586	91.196	60.0586	91.1618	60.0586	91.1882	60.0586	91.1327	60.0586	91.171	60.0586	91.0965	60.0586	91.1451	60.0586	91.0546	60.0586	91.1113	60.0586	91.0089	60.0586	91.0712	60.0586	90.9611	60.0586	91.0263	60.0586	90.9133	60.0586	90.9784	60.0586	90.8671	60.0586	90.9296	60.0586	90.8241	60.0586	90.8818	60.0586	90.7855	60.0586	90.8367	60.0586	90.7521	60.0586	90.7958	60.0586	90.7243	60.0586	90.7599	60.0586	90.7023	60.0586	90.7299	60.0586	90.686	60.0586	90.7058	60.0586	90.6753	60.0586	90.688	60.0586	90.6701	60.0586	90.6762	60.0586	90.6703
62.9883	91.6822	62.9883	91.672	62.9883	91.6826	62.9883	91.6523	62.9883	91.6732	62.9883	91.624	62.9883	91.6543	62.9883	91.5883	62.9883	91.6267	62.9883	91.5464	62.9883	91.5915	62.9883	91.5003	62.9883	91.55	62.9883	91.4518	62.9883	91.5041	62.9883	91.4029	62.9883	91.4555	62.9883	91.3556	62.9883	91.4063	62.9883	91.3116	62.9883	91.3585	62.9883	91.2721	62.9883	91.3137	62.9883	91.238	62.9883	91.2733	62.9883	91.2097	62.9883	91.2382	62.9883	91.1873	62.9883	91.209	62.9883	91.1706	62.9883	91.1859	62.9883	91.1595	62.9883	91.1691	62.9883	91.1537	62.9883	91.1582	62.9883	91.1532
64.4531	91.8483	64.4531	91.8378	64.4531	91.8487	64.4531	91.8177	64.4531	91.839	64.4531	91.7887	64.4531	91.8195	64.4531	91.7521	64.4531	91.791	64.4531	91.7095	64.4531	91.7547	64.4531	91.6625	64.4531	91.7122	64.4531	91.6132	64.4531	91.6652	64.4531	91.5636	64.4531	91.6156	64.4531	91.5156	64.4531	91.5654	64.4531	91.4708	64.4531	91.5166	64.4531	91.4304	64.4531	91.4709	64.4531	91.3954	64.4531	91.4296	64.4531	91.3663	64.4531	91.3936	64.4531	91.3431	64.4531	91.3637	64.4531	91.3258	64.4531	91.3401	64.4531	91.314	64.4531	91.3229	64.4531	91.3078	64.4531	91.312	64.4531	91.307
67.3828	92.2002	67.3828	92.1848	67.3828	92.2043	67.3828	92.1585	67.3828	92.1967	67.3828	92.1226	67.3828	92.1778	67.3828	92.0785	67.3828	92.1485	67.3828	92.0282	67.3828	92.1099	67.3828	91.9737	67.3828	92.0637	67.3828	91.9173	67.3828	92.0119	67.3828	91.8613	67.3828	91.9567	67.3828	91.8077	67.3828	91.9006	67.3828	91.7584	67.3828	91.8458	67.3828	91.7147	67.3828	91.7942	67.3828	91.6776	67.3828	91.7474	67.3828	91.6476	67.3828	91.7065	67.3828	91.6249	67.3828	91.672	67.3828	91.609	67.3828	91.6442	67.3828	91.5998	67.3828	91.6231	67.3828	91.5967	67.3828	91.6083	67.3828	91.5995
68.8477	92.3492	68.8477	92.3316	68.8477	92.355	68.8477	92.3027	68.8477	92.3488	68.8477	92.2638	68.8477	92.3309	68.8477	92.2165	68.8477	92.3023	68.8477	92.1627	68.8477	92.2641	68.8477	92.1047	68.8477	92.2182	68.8477	92.0451	68.8477	92.1665	68.8477	91.9864	68.8477	92.1112	68.8477	91.9308	68.8477	92.0546	68.8477	91.8802	68.8477	91.999	68.8477	91.8361	68.8477	91.9462	68.8477	91.7994	68.8477	91.8977	68.8477	91.7705	68.8477	91.8548	68.8477	91.7493	68.8477	91.8179	68.8477	91.7355	68.8477	91.7874	68.8477	91.7286	68.8477	91.7633	68.8477	91.7281	68.8477	91.7455	68.8477	91.7338
71.7773	92.5341	71.7773	92.5193	71.7773	92.5372	71.7773	92.493	71.7773	92.5283	71.7773	92.4564	71.7773	92.5081	71.7773	92.411	71.7773	92.4777	71.7773	92.3586	71.7773	92.4383	71.7773	92.3015	71.7773	92.3919	71.7773	92.242	71.7773	92.3406	71.7773	92.1828	71.7773	92.2867	71.7773	92.1263	71.7773	92.2324	71.7773	92.0745	71.7773	92.1797	71.7773	92.0293	71.7773	92.1304	71.7773	91.9917	71.7773	92.0857	71.7773	91.9626	71.7773	92.0464	71.7773	91.942	71.7773	92.0128	71.7773	91.9294	71.7773	91.9849	71.7773	91.9242	71.7773	91.9623	71.7773	91.9255	71.7773	91.9449	71.7773	91.9326
74.707	92.6772	74.707	92.6635	74.707	92.6791	74.707	92.6386	74.707	92.6693	74.707	92.6036	74.707	92.6482	74.707	92.56	74.707	92.6168	74.707	92.5099	74.707	92.5767	74.707	92.4554	74.707	92.5297	74.707	92.3989	74.707	92.4781	74.707	92.3428	74.707	92.424	74.707	92.2892	74.707	92.3699	74.707	92.2398	74.707	92.3178	74.707	92.196	74.707	92.2694	74.707	92.1589	74.707	92.2259	74.707	92.1289	74.707	92.1881	74.707	92.1063	74.707	92.1561	74.707	92.091	74.707	92.1301	74.707	92.0826	74.707	92.1096	74.707	92.0807	74.707	92.0945	74.707	92.0849
77.6367	92.7398	77.6367	92.7282	77.6367	92.7396	77.6367	92.7055	77.6367	92.7276	77.6367	92.6727	77.6367	92.7042	77.6367	92.6317	77.6367	92.6708	77.6367	92.5845	77.6367	92.629	77.6367	92.5336	77.6367	92.5811	77.6367	92.4813	77.6367	92.5295	77.6367	92.4302	77.6367	92.4769	77.6367	92.3824	77.6367	92.4258	77.6367	92.3395	77.6367	92.3783	77.6367	92.3026	77.6367	92.336	77.6367	92.2724	77.6367	92.3	77.6367	92.2487	77.6367	92.2706	77.6367	92.2312	77.6367	92.2478	77.6367	92.2192	77.6367	92.231	77.6367	92.2119	77.6367	92.2193	77.6367	92.2085	77.6367	92.2121	77.6367	92.2086
79.1016	92.7637	79.1016	92.7511	79.1016	92.7637	79.1016	92.7267	79.1016	92.7512	79.1016	92.6917	79.1016	92.7266	79.1016	92.6479	79.1016	92.6914	79.1016	92.5976	79.1016	92.6471	79.1016	92.5434	79.1016	92.5961	79.1016	92.4879	79.1016	92.5412	79.1016	92.434	79.1016	92.485	79.1016	92.384	79.1016	92.4305	79.1016	92.3396	79.1016	92.3799	79.1016	92.3021	79.1016	92.3352	79.1016	92.2719	79.1016	92.2976	79.1016	92.2488	79.1016	92.2677	79.1016	92.2321	79.1016	92.2452	79.1016	92.2209	79.1016	92.2294	79.1016	92.2142	79.1016	92.2191	79.1016	92.2109	79.1016	92.2131	79.1016	92.2106
82.0312	92.8723	82.0312	92.8607	82.0312	92.87	82.0312	92.8357	82.0312	92.8539	82.0312	92.7988	82.0312	92.8245	82.0312	92.7518	82.0312	92.7832	82.0312	92.6972	82.0312	92.7321	82.0312	92.6377	82.0312	92.6735	82.0312	92.5763	82.0312	92.6105	82.0312	92.5161	82.0312	92.546	82.0312	92.4597	82.0312	92.4834	82.0312	92.4091	82.0312	92.4253	82.0312	92.3659	82.0312	92.3743	82.0312	92.3304	82.0312	92.3319	82.0312	92.3026	82.0312	92.2989	82.0312	92.2818	82.0312	92.2749	82.0312	92.2668	82.0312	92.2591	82.0312	92.2565	82.0312	92.25	82.0312	92.2499	82.0312	92.2462	82.0312	92.2464
84.9609	92.9136	84.9609	92.8969	84.9609	92.9159	84.9609	92.8664	84.9609	92.9036	84.9609	92.8237	84.9609	92.8772	84.9609	92.7707	84.9609	92.8379	84.9609	92.7098	84.9609	92.7874	84.9609	92.6439	84.9609	92.728	84.9609	92.5759	84.9609	92.6624	84.9609	92.5088	84.9609	92.5936	84.9609	92.4453	84.9609	92.5248	84.9609	92.3878	84.9609	92.459	84.9609	92.3378	84.9609	92.3987	84.9609	92.2964	84.9609	92.3462	84.9609	92.264	84.9609	92.3026	84.9609	92.24	84.9609	92.2684	84.9609	92.2235	84.9609	92.2431	84.9609	92.2136	84.9609	92.2256	84.9609	92.2091	84.9609	92.2148	84.9609	92.2095
87.8906	92.8672	87.8906	92.844	87.8906	92.8768	87.8906	92.8081	87.8906	92.8727	87.8906	92.7611	87.8906	92.8555	87.8906	92.7052	87.8906	92.8264	87.8906	92.6432	87.8906	92.7872	87.8906	92.5782	87.8906	92.7404	87.8906	92.5134	87.8906	92.6886	87.8906	92.4518	87.8906	92.6346	87.8906	92.3964	87.8906	92.5812	87.8906	92.3492	87.8906	92.5305	87.8906	92.3117	87.8906	92.4845	87.8906	92.2848	87.8906	92.444	87.8906	92.2681	87.8906	92.4094	87.8906	92.2609	87.8906	92.38	87.8906	92.2618	87.8906	92.3549	87.8906	92.269	87.8906	92.333	87.8906	92.2809	87.8906	92.3135	87.8906	92.2961
90.8203	92.9186	90.8203	92.9074	90.8203	92.916	90.8203	92.8829	90.8203	92.8994	90.8203	92.8466	90.8203	92.8699	90.8203	92.8005	90.8203	92.8292	90.8203	92.7473	90.8203	92.7794	90.8203	92.6897	90.8203	92.7237	90.8203	92.6309	90.8203	92.6651	90.8203	92.5738	90.8203	92.6071	90.8203	92.5209	90.8203	92.5525	90.8203	92.4746	90.8203	92.504	90.8203	92.4362	90.8203	92.4633	90.8203	92.4066	90.8203	92.4312	90.8203	92.3856	90.8203	92.4075	90.8203	92.3725	90.8203	92.3911	90.8203	92.3656	90.8203	92.3804	90.8203	92.3633	90.8203	92.3736	90.8203	92.3639	90.8203	92.3692	90.8203	92.366
95.2148	92.8653	95.2148	92.8513	95.2148	92.8649	95.2148	92.8239	95.2148	92.8502	95.2148	92.7844	95.2148	92.8218	95.2148	92.7352	95.2148	92.7812	95.2148	92.6789	95.2148	92.7305	95.2148	92.6188	95.2148	92.6725	95.2148	92.5583	95.2148	92.6104	95.2148	92.5005	95.2148	92.5479	95.2148	92.4484	95.2148	92.4885	95.2148	92.4041	95.2148	92.4353	95.2148	92.369	95.2148	92.3909	95.2148	92.3435	95.2148	92.3566	95.2148	92.3269	95.2148	92.3327	95.2148	92.3176	95.2148	92.3181	95.2148	92.3136	95.2148	92.311	95.2148	92.3123	95.2148	92.3089	95.2148	92.3118	95.2148	92.3096	95.2148	92.3109
98.1445	92.8524	98.1445	92.8369	98.1445	92.8524	98.1445	92.8068	98.1445	92.8368	98.1445	92.764	98.1445	92.8063	98.1445	92.7109	98.1445	92.7625	98.1445	92.6509	98.1445	92.7075	98.1445	92.5875	98.1445	92.6442	98.1445	92.5245	98.1445	92.576	98.1445	92.4653	98.1445	92.5068	98.1445	92.4127	98.1445	92.4403	98.1445	92.3685	98.1445	92.3802	98.1445	92.3335	98.1445	92.3293	98.1445	92.3073	98.1445	92.2894	98.1445	92.2886	98.1445	92.261	98.1445	92.2756	98.1445	92.2436	98.1445	92.2662	98.1445	92.2355	98.1445	92.2585	98.1445	92.2345	98.1445	92.2513	98.1445	92.2381	98.1445	92.2443
101.074	92.7799	101.074	92.7638	101.074	92.7796	101.074	92.7322	101.074	92.7627	101.074	92.6872	101.074	92.73	101.074	92.6317	101.074	92.6834	101.074	92.5691	101.074	92.6255	101.074	92.5034	101.074	92.5596	101.074	92.4387	101.074	92.4893	101.074	92.3788	101.074	92.4188	101.074	92.3269	101.074	92.3518	101.074	92.2847	101.074	92.292	101.074	92.2531	101.074	92.2422	101.074	92.2313	101.074	92.2042	101.074	92.2175	101.074	92.1787	101.074	92.2091	101.074	92.1648	101.074	92.2031	101.074	92.1609	101.074	92.1973	101.074	92.1643	101.074	92.1902	101.074	92.172	101.074	92.1814
105.469	92.6153	105.469	92.5956	105.469	92.6161	105.469	92.5576	105.469	92.5981	105.469	92.5035	105.469	92.5626	105.469	92.4362	105.469	92.5119	105.469	92.3596	105.469	92.4491	105.469	92.2784	105.469	92.3782	105.469	92.1976	105.469	92.3034	105.469	92.122	105.469	92.2293	105.469	92.0562	105.469	92.1604	105.469	92.0033	105.469	92.1003	105.469	91.9651	105.469	92.0517	105.469	91.9418	105.469	92.0155	105.469	91.9316	105.469	91.9912	105.469	91.9314	105.469	91.9768	105.469	91.9375	105.469	91.9695	105.469	91.9461	105.469	91.9661	105.469	91.9542	105.469	91.9637	105.469	91.9601
108.398	92.6093	108.398	92.5905	108.398	92.6095	108.398	92.554	108.398	92.5912	108.398	92.502	108.398	92.5554	108.398	92.4372	108.398	92.504	108.398	92.3633	108.398	92.4397	108.398	92.2845	108.398	92.366	108.398	92.2049	108.398	92.2869	108.398	92.1289	108.398	92.2069	108.398	92.0599	108.398	92.1302	108.398	92.001	108.398	92.0609	108.398	91.9538	108.398	92.0023	108.398	91.9188	108.398	91.9562	108.398	91.8955	108.398	91.9231	108.398	91.8821	108.398	91.9016	108.398	91.8764	108.398	91.8894	108.398	91.8754	108.398	91.8832	108.398	91.8766	108.398	91.8803	108.398	91.8784
112.793	92.425	112.793	92.4175	112.793	92.4132	112.793	92.3911	112.793	92.3828	112.793	92.3476	112.793	92.3355	112.793	92.2899	112.793	92.2743	112.793	92.2221	112.793	92.2029	112.793	92.1489	112.793	92.1256	112.793	92.0753	112.793	92.0469	112.793	92.0062	112.793	91.9714	112.793	91.9458	112.793	91.9035	112.793	91.8968	112.793	91.8467	112.793	91.8605	112.793	91.8035	112.793	91.8362	112.793	91.7749	112.793	91.822	112.793	91.7603	112.793	91.8148	112.793	91.7578	112.793	91.8114	112.793	91.7639	112.793	91.8087	112.793	91.7747	112.793	91.8043	112.793	91.7867	112.793	91.797
117.188	92.496	117.188	92.4876	117.188	92.4816	117.188	92.4575	117.188	92.4447	117.188	92.4079	117.188	92.387	117.188	92.3425	117.188	92.3118	117.188	92.266	117.188	92.2237	117.188	92.1839	117.188	92.1283	117.188	92.1026	117.188	92.0316	117.188	92.028	117.188	91.9399	117.188	91.9655	117.188	91.8587	117.188	91.9189	117.188	91.7925	117.188	91.8892	117.188	91.7446	117.188	91.8746	117.188	91.7163	117.188	91.8708	117.188	91.7073	117.188	91.8718	117.188	91.7151	117.188	91.8715	117.188	91.7361	117.188	91.8651	117.188	91.7651	117.188	91.8501	117.188	91.7969	117.188	91.8266
120.117	92.4879	120.117	92.4674	120.117	92.485	120.117	92.4256	120.117	92.458	120.117	92.3656	120.117	92.4077	120.117	92.2916	120.117	92.3366	120.117	92.2083	120.117	92.249	120.117	92.1211	120.117	92.1507	120.117	92.0356	120.117	92.0488	120.117	91.9577	120.117	91.951	120.117	91.8923	120.117	91.8642	120.117	91.8437	120.117	91.7945	120.117	91.8138	120.117	91.7457	120.117	91.8019	120.117	91.719	120.117	91.8045	120.117	91.7133	120.117	91.8158	120.117	91.7246	120.117	91.8288	120.117	91.7478	120.117	91.8372	120.117	91.7762	120.117	91.8365	120.117	91.8038	120.117	91.825
124.512	92.4304	124.512	92.3876	124.512	92.4486	124.512	92.3223	124.512	92.4416	124.512	92.2376	124.512	92.4096	124.512	92.1377	124.512	92.3547	124.512	92.0273	124.512	92.2801	124.512	91.9121	124.512	92.1905	124.512	91.7978	124.512	92.0917	124.512	91.6904	124.512	91.9906	124.512	91.5953	124.512	91.8936	124.512	91.5172	124.512	91.8068	124.512	91.4597	124.512	91.7338	124.512	91.4243	124.512	91.6763	124.512	91.4104	124.512	91.6334	124.512	91.415	124.512	91.6022	124.512	91.4332	124.512	91.5786	124.512	91.4591	124.512	91.5585	124.512	91.4875	124.512	91.5378	124.512	91.5144
128.906	92.1933	128.906	92.1471	128.906	92.215	128.906	92.0783	128.906	92.2115	128.906	91.99	128.906	92.183	128.906	91.8862	128.906	92.1314	128.906	91.7719	128.906	92.0594	128.906	91.6525	128.906	91.9711	128.906	91.5342	128.906	91.872	128.906	91.423	128.906	91.7682	128.906	91.3243	128.906	91.6662	128.906	91.243	128.906	91.5723	128.906	91.1822	128.906	91.491	128.906	91.1434	128.906	91.4246	128.906	91.1259	128.906	91.3729	128.906	91.1267	128.906	91.3333	128.906	91.1416	128.906	91.302	128.906	91.1654	128.906	91.275	128.906	91.1932	128.906	91.2489	128.906	91.2217
133.301	91.8287	133.301	91.8153	133.301	91.8174	133.301	91.7776	133.301	91.7822	133.301	91.7179	133.301	91.7254	133.301	91.6397	133.301	91.6507	133.301	91.5481	133.301	91.5629	133.301	91.449	133.301	91.4674	133.301	91.3489	133.301	91.3705	133.301	91.2545	133.301	91.2786	133.301	91.1716	133.301	91.1975	133.301	91.1051	133.301	91.1321	133.301	91.0579	133.301	91.0853	133.301	91.0304	133.301	91.0576	133.301	91.0206	133.301	91.0467	133.301	91.0246	133.301	91.048	133.301	91.0367	133.301	91.056	133.301	91.0514	133.301	91.0652	133.301	91.0639	133.301	91.071	133.301	91.0708
139.16	91.6114	139.16	91.5927	139.16	91.6039	139.16	91.5496	139.16	91.5705	139.16	91.4856	139.16	91.5134	139.16	91.4061	139.16	91.4367	139.16	91.3171	139.16	91.3458	139.16	91.2255	139.16	91.2472	139.16	91.1377	139.16	91.1479	139.16	91.0589	139.16	91.0546	139.16	90.9931	139.16	90.9734	139.16	90.9422	139.16	90.9086	139.16	90.9065	139.16	90.8634	139.16	90.885	139.16	90.8383	139.16	90.8755	139.16	90.8316	139.16	90.875	139.16	90.8391	139.16	90.8802	139.16	90.8547	139.16	90.8873	139.16	90.872	139.16	90.8925	139.16	90.8857	139.16	90.8926
143.555	91.4907	143.555	91.4597	143.555	91.488	143.555	91.3974	143.555	91.4517	143.555	91.3088	143.555	91.3842	143.555	91.201	143.555	91.2902	143.555	91.0831	143.555	91.1768	143.555	90.9654	143.555	91.0531	143.555	90.8579	143.555	90.9297	143.555	90.7691	143.555	90.8171	143.555	90.7043	143.555	90.7245	143.555	90.6654	143.555	90.6581	143.555	90.6506	143.555	90.6201	143.555	90.6554	143.555	90.6088	143.555	90.6733	143.555	90.619	143.555	90.6974	143.555	90.6435	143.555	90.7214	143.555	90.6749	143.555	90.7397	143.555	90.7059	143.555	90.7485	143.555	90.7307	143.555	90.7455
147.949	91.704	147.949	91.6784	147.949	91.692	147.949	91.6158	147.949	91.6435	147.949	91.519	147.949	91.5613	147.949	91.3932	147.949	91.4497	147.949	91.2461	147.949	91.315	147.949	91.0883	147.949	91.1656	147.949	90.9321	147.949	91.0115	147.949	90.7906	147.949	90.8643	147.949	90.6749	147.949	90.7353	147.949	90.5922	147.949	90.6342	147.949	90.5448	147.949	90.5669	147.949	90.5293	147.949	90.5341	147.949	90.5387	147.949	90.5313	147.949	90.5637	147.949	90.5501	147.949	90.5946	147.949	90.58	147.949	90.6226	147.949	90.611	147.949	90.6408	147.949	90.6345	147.949	90.6452
153.809	91.5532	153.809	91.5115	153.809	91.5632	153.809	91.4412	153.809	91.5397	153.809	91.3469	153.809	91.4832	153.809	91.2338	153.809	91.3963	153.809	91.1078	153.809	91.2836	153.809	90.9755	153.809	91.1522	153.809	90.8443	153.809	91.0109	153.809	90.723	153.809	90.8702	153.809	90.6205	153.809	90.7411	153.809	90.5453	153.809	90.6341	153.809	90.5021	153.809	90.5571	153.809	90.4912	153.809	90.5142	153.809	90.5072	153.809	90.5043	153.809	90.5409	153.809	90.5211	153.809	90.581	153.809	90.5544	153.809	90.6163	153.809	90.5925	153.809	90.638	153.809	90.6241	153.809	90.6408
159.668	91.8467	159.668	91.8019	159.668	91.8567	159.668	91.7269	159.668	91.8298	159.668	91.6282	159.668	91.766	159.668	91.5135	159.668	91.6681	159.668	91.3906	159.668	91.5415	159.668	91.2673	159.668	91.3938	159.668	91.1498	159.668	91.2352	159.668	91.0433	159.668	91.077	159.668	90.952	159.668	90.9309	159.668	90.8796	159.668	90.8074	159.668	90.8287	159.668	90.7144	159.668	90.7999	159.668	90.656	159.668	90.7904	159.668	90.632	159.668	90.794	159.668	90.638	159.668	90.8022	159.668	90.6657	159.668	90.8061	159.668	90.7051	159.668	90.7994	159.668	90.7456	159.668	90.7788
165.527	91.7512	165.527	91.6983	165.527	91.7717	165.527	91.6151	165.527	91.7597	165.527	91.5058	165.527	91.7172	165.527	91.3771	165.527	91.6478	165.527	91.2381	165.527	91.5565	165.527	91.0995	165.527	91.4499	165.527	90.9727	165.527	91.3359	165.527	90.8682	165.527	91.2233	165.527	90.794	165.527	91.1213	165.527	90.7547	165.527	91.0386	165.527	90.7502	165.527	90.9815	165.527	90.7763	165.527	90.9528	165.527	90.8248	165.527	90.9505	165.527	90.8849	165.527	90.968	165.527	90.9453	165.527	90.996	165.527	90.9964	165.527	91.0242	165.527	91.0314	165.527	91.0434	165.527	91.047
171.387	91.7195	171.387	91.6918	171.387	91.7083	171.387	91.6265	171.387	91.6587	171.387	91.5271	171.387	91.5736	171.387	91.3991	171.387	91.4581	171.387	91.2497	171.387	91.3192	171.387	91.0883	171.387	91.1662	171.387	90.9254	171.387	91.0098	171.387	90.7722	171.387	90.8619	171.387	90.6398	171.387	90.7338	171.387	90.5375	171.387	90.6356	171.387	90.4719	171.387	90.5737	171.387	90.445	171.387	90.5493	171.387	90.4539	171.387	90.5576	171.387	90.4905	171.387	90.5881	171.387	90.5432	171.387	90.627	171.387	90.5987	171.387	90.6607	171.387	90.645	171.387	90.678	171.387	90.673
177.246	91.4902	177.246	91.4604	177.246	91.4826	177.246	91.3983	177.246	91.4352	177.246	91.3115	177.246	91.3488	177.246	91.2091	177.246	91.2273	177.246	91.1012	177.246	91.0784	177.246	90.998	177.246	90.9129	177.246	90.9079	177.246	90.744	177.246	90.8372	177.246	90.5857	177.246	90.7886	177.246	90.4515	177.246	90.7611	177.246	90.3516	177.246	90.7507	177.246	90.2922	177.246	90.751	177.246	90.2741	177.246	90.755	177.246	90.2933	177.246	90.7558	177.246	90.3424	177.246	90.7477	177.246	90.4115	177.246	90.7263	177.246	90.4898	177.246	90.6889	177.246	90.567	177.246	90.6352
183.105	91.8396	183.105	91.7831	183.105	91.8434	183.105	91.675	183.105	91.7959	183.105	91.5194	183.105	91.7004	183.105	91.3244	183.105	91.5621	183.105	91.1032	183.105	91.3892	183.105	90.8737	183.105	91.1927	183.105	90.6571	183.105	90.9871	183.105	90.476	183.105	90.79	183.105	90.3492	183.105	90.6202	183.105	90.2882	183.105	90.4952	183.105	90.2944	183.105	90.427	183.105	90.3587	183.105	90.4196	183.105	90.4638	183.105	90.467	183.105	90.5882	183.105	90.5544	183.105	90.7096	183.105	90.6609	183.105	90.8078	183.105	90.7637	183.105	90.8672	183.105	90.8416	183.105	90.8787
188.965	91.7021	188.965	91.6802	188.965	91.6761	188.965	91.611	188.965	91.6026	188.965	91.4968	188.965	91.4834	188.965	91.3421	188.965	91.3216	188.965	91.1544	188.965	91.1231	188.965	90.9453	188.965	90.8969	188.965	90.7305	188.965	90.6562	188.965	90.5288	188.965	90.4185	188.965	90.3594	188.965	90.2045	188.965	90.2376	188.965	90.0348	188.965	90.171	188.965	89.9255	188.965	90.1578	188.965	89.8843	188.965	90.1871	188.965	89.9077	188.965	90.2421	188.965	89.9818	188.965	90.303	188.965	90.0853	188.965	90.3505	188.965	90.1943	188.965	90.3686	188.965	90.2873	188.965	90.348
196.289	91.4032	196.289	91.3583	196.289	91.404	196.289	91.272	196.289	91.3599	196.289	91.1498	196.289	91.2726	196.289	90.9988	196.289	91.1463	196.289	90.829	196.289	90.9873	196.289	90.6524	196.289	90.8045	196.289	90.4831	196.289	90.609	196.289	90.3365	196.289	90.4146	196.289	90.2272	196.289	90.2365	196.289	90.1655	196.289	90.0898	196.289	90.1543	196.289	89.9868	196.289	90.1869	196.289	89.9347	196.289	90.2479	196.289	89.9342	196.289	90.3169	196.289	89.9798	196.289	90.3733	196.289	90.0599	196.289	90.4005	196.289	90.1586	196.289	90.3894	196.289	90.2577	196.289	90.3393
203.613	91.4905	203.613	91.4281	203.613	91.49	203.613	91.3041	203.613	91.4281	203.613	91.1226	203.613	91.3091	203.613	90.8913	203.613	91.1403	203.613	90.6223	203.613	90.9324	203.613	90.3325	203.613	90.6999	203.613	90.0435	203.613	90.4604	203.613	89.7801	203.613	90.2342	203.613	89.5674	203.613	90.0423	203.613	89.4256	203.613	89.9023	203.613	89.3652	203.613	89.8244	203.613	89.3836	203.613	89.8072	203.613	89.4656	203.613	89.8381	203.613	89.5883	203.613	89.897	203.613	89.7258	203.613	89.9619	203.613	89.8544	203.613	90.0129	203.613	89.9552	203.613	90.0346	203.613	90.0166
210.938	91.2974	210.938	91.2554	210.938	91.2897	210.938	91.1673	210.938	91.23	210.938	91.0376	210.938	91.1186	210.938	90.8713	210.938	90.9587	210.938	90.6741	210.938	90.7572	210.938	90.4532	210.938	90.5249	210.938	90.2183	210.938	90.276	210.938	89.9829	210.938	90.0267	210.938	89.7645	210.938	89.7944	210.938	89.5828	210.938	89.5957	210.938	89.4551	210.938	89.4447	210.938	89.39	210.938	89.3505	210.938	89.3829	210.938	89.3146	210.938	89.4167	210.938	89.3289	210.938	89.4675	210.938	89.3773	210.938	89.5129	210.938	89.4393	210.938	89.5366	210.938	89.4955	210.938	89.5306
218.262	90.9193	218.262	90.8781	218.262	90.9167	218.262	90.7949	218.262	90.8688	218.262	90.6725	218.262	90.774	218.262	90.5169	218.262	90.6318	218.262	90.3369	218.262	90.4448	218.262	90.1446	218.262	90.2231	218.262	89.9537	218.262	89.9868	218.262	89.7783	218.262	89.7654	218.262	89.6317	218.262	89.5897	218.262	89.5265	218.262	89.4805	218.262	89.4731	218.262	89.439	218.262	89.475	218.262	89.4487	218.262	89.5249	218.262	89.4868	218.262	89.6025	218.262	89.536	218.262	89.6809	218.262	89.5888	218.262	89.7361	218.262	89.6434	218.262	89.7549	218.262	89.6963	218.262	89.738
225.586	91.3318	225.586	91.3109	225.586	91.3001	225.586	91.2386	225.586	91.2171	225.586	91.1191	225.586	91.0868	225.586	90.96	225.586	90.915	225.586	90.7729	225.586	90.7087	225.586	90.5742	225.586	90.4761	225.586	90.3838	225.586	90.2293	225.586	90.2212	225.586	89.9882	225.586	90.1004	225.586	89.7837	225.586	90.0272	225.586	89.6535	225.586	90.0016	225.586	89.6281	225.586	90.0219	225.586	89.7138	225.586	90.087	225.586	89.8858	225.586	90.1913	225.586	90.0986	225.586	90.3195	225.586	90.3044	225.586	90.4467	225.586	90.4664	225.586	90.5442	225.586	90.5635	225.586	90.588
232.91	91.416	232.91	91.3623	232.91	91.3979	232.91	91.2445	232.91	91.3051	232.91	91.0743	232.91	91.1403	232.91	90.8663	232.91	90.9123	232.91	90.6382	232.91	90.6358	232.91	90.411	232.91	90.3307	232.91	90.2088	232.91	90.0208	232.91	90.0569	232.91	89.7337	232.91	89.9765	232.91	89.4993	232.91	89.9774	232.91	89.347	232.91	90.054	232.91	89.2997	232.91	90.1862	232.91	89.3655	232.91	90.3461	232.91	89.5328	232.91	90.505	232.91	89.7721	232.91	90.637	232.91	90.0433	232.91	90.7195	232.91	90.305	232.91	90.7338	232.91	90.5216	232.91	90.6684
241.699	91.6771	241.699	91.5872	241.699	91.6911	241.699	91.4278	241.699	91.626	241.699	91.2082	241.699	91.4822	241.699	90.9413	241.699	91.264	241.699	90.6432	241.699	90.981	241.699	90.3339	241.699	90.6499	241.699	90.038	241.699	90.2962	241.699	89.7847	241.699	89.9552	241.699	89.6044	241.699	89.6685	241.699	89.522	241.699	89.4747	241.699	89.5464	241.699	89.3955	241.699	89.6644	241.699	89.4277	241.699	89.8427	241.699	89.5467	241.699	90.0383	241.699	89.7182	241.699	90.2101	241.699	89.9092	241.699	90.3271	241.699	90.0921	241.699	90.3722	241.699	90.243	241.699	90.3416
250.488	92.156	250.488	92.0718	250.488	92.1603	250.488	91.9087	250.488	92.0859	250.488	91.6718	250.488	91.9353	250.488	91.3721	250.488	91.7127	250.488	91.028	250.488	91.4251	250.488	90.6645	250.488	91.0844	250.488	90.3096	250.488	90.7102	250.488	89.9879	250.488	90.3326	250.488	89.7155	250.488	89.9928	250.488	89.5009	250.488	89.7389	250.488	89.3496	250.488	89.6097	250.488	89.2672	250.488	89.6128	250.488	89.2574	250.488	89.7133	250.488	89.3163	250.488	89.8488	250.488	89.43	250.488	89.9578	250.488	89.5773	250.488	90.0017	250.488	89.7336	250.488	89.9698	250.488	89.873
259.277	91.989	259.277	91.9388	259.277	91.9693	259.277	91.8194	259.277	91.8795	259.277	91.6334	259.277	91.7195	259.277	91.389	259.277	91.4914	259.277	91.1025	259.277	91.2027	259.277	90.7997	259.277	90.8682	259.277	90.5138	259.277	90.5097	259.277	90.277	259.277	90.1531	259.277	90.1088	259.277	89.827	259.277	90.0068	259.277	89.5626	259.277	89.95	259.277	89.3928	259.277	89.9135	259.277	89.3423	259.277	89.8836	259.277	89.4101	259.277	89.8624	259.277	89.5599	259.277	89.8608	259.277	89.7326	259.277	89.885	259.277	89.872	259.277	89.9256	259.277	89.9469	259.277	89.9569
268.066	91.4022	268.066	91.3224	268.066	91.3954	268.066	91.1566	268.066	91.3024	268.066	90.9097	268.066	91.124	268.066	90.5948	268.066	90.8613	268.066	90.2401	268.066	90.5183	268.066	89.8948	268.066	90.1063	268.066	89.6267	268.066	89.6483	268.066	89.5016	268.066	89.1817	268.066	89.5491	268.066	88.7584	268.066	89.743	268.066	88.442	268.066	90.0157	268.066	88.2966	268.066	90.2922	268.066	88.3596	268.066	90.5133	268.066	88.6122	268.066	90.6437	268.066	88.9803	268.066	90.672	268.066	89.3745	268.066	90.6067	268.066	89.7324	268.066	90.4679	268.066	90.0311	268.066	90.274
276.855	91.7432	276.855	91.6663	276.855	91.748	276.855	91.5124	276.855	91.6855	276.855	91.2755	276.855	91.5583	276.855	90.9473	276.855	91.3643	276.855	90.5174	276.855	91.0971	276.855	89.9819	276.855	90.7534	276.855	89.3626	276.855	90.3451	276.855	88.7385	276.855	89.9121	276.855	88.2664	276.855	89.5217	276.855	88.1353	276.855	89.2452	276.855	88.4244	276.855	89.1243	276.855	89.0177	276.855	89.1585	276.855	89.7037	276.855	89.3248	276.855	90.3122	276.855	89.597	276.855	90.7524	276.855	89.9432	276.855	90.9935	276.855	90.3164	276.855	91.0399	276.855	90.6592	276.855	90.9161
287.109	92.532	287.109	92.4471	287.109	92.5187	287.109	92.2673	287.109	92.4094	287.109	92.0016	287.109	92.2132	287.109	91.6674	287.109	91.9472	287.109	91.2916	287.109	91.6316	287.109	90.9039	287.109	91.2805	287.109	90.5242	287.109	90.8933	287.109	90.1543	287.109	90.4595	287.109	89.7885	287.109	89.9823	287.109	89.443	287.109	89.5109	287.109	89.1852	287.109	89.1494	287.109	89.1246	287.109	89.0114	287.109	89.3379	287.109	89.1391	287.109	89.7796	287.109	89.4744	287.109	90.2943	287.109	89.9118	287.109	90.7155	287.109	90.3528	287.109	90.938	287.109	90.7159	287.109	90.93
297.363	92.7604	297.363	92.5873	297.363	92.8228	297.363	92.3174	297.363	92.7587	297.363	91.9605	297.363	92.5532	297.363	91.5252	297.363	92.1956	297.363	91.0298	297.363	91.6863	297.363	90.5229	297.363	91.0477	297.363	90.0954	297.363	90.3379	297.363	89.853	297.363	89.6516	297.363	89.8392	297.363	89.0897	297.363	89.9852	297.363	88.7113	297.363	90.1601	297.363	88.519	297.363	90.2659	297.363	88.4992	297.363	90.289	297.363	88.6526	297.363	90.2855	297.363	88.9669	297.363	90.316	297.363	89.3813	297.363	90.38	297.363	89.8013	297.363	90.4145	297.363	90.1404	297.363	90.3473
307.617	92.7091	307.617	92.7074	307.617	92.6546	307.617	92.6194	307.617	92.5655	307.617	92.4188	307.617	92.4447	307.617	92.0894	307.617	92.2757	307.617	91.6249	307.617	92.03	307.617	91.0267	307.617	91.6806	307.617	90.3144	307.617	91.2152	307.617	89.558	307.617	90.6504	307.617	88.917	307.617	90.0443	307.617	88.6054	307.617	89.4984	307.617	88.7188	307.617	89.1262	307.617	89.1186	307.617	88.9953	307.617	89.5734	307.617	89.0934	307.617	89.9339	307.617	89.3496	307.617	90.1636	307.617	89.6734	307.617	90.2884	307.617	89.9786	307.617	90.3394	307.617	90.2016	307.617	90.3178
319.336	92.6561	319.336	92.5177	319.336	92.6984	319.336	92.2868	319.336	92.6446	319.336	91.9673	319.336	92.4994	319.336	91.5619	319.336	92.2712	319.336	91.0718	319.336	91.9652	319.336	90.5007	319.336	91.5776	319.336	89.8621	319.336	91.0971	319.336	89.1917	319.336	90.5189	319.336	88.5637	319.336	89.8677	319.336	88.102	319.336	89.2218	319.336	87.9488	319.336	88.7158	319.336	88.1638	319.336	88.4872	319.336	88.6469	319.336	88.5772	319.336	89.2052	319.336	88.8946	319.336	89.6763	319.336	89.292	319.336	89.9816	319.336	89.6553	319.336	90.1105	319.336	89.9268	319.336	90.0841
329.59	92.3251	329.59	92.2341	329.59	92.3738	329.59	92.1132	329.59	92.3569	329.59	91.9578	329.59	92.2495	329.59	91.7488	329.59	92.0368	329.59	91.4584	329.59	91.7183	329.59	91.0596	329.59	91.306	329.59	90.5381	329.59	90.8172	329.59	89.9093	329.59	90.2684	329.59	89.235	329.59	89.6761	329.59	88.6265	329.59	89.0686	329.59	88.2172	329.59	88.5048	329.59	88.1016	329.59	88.085	329.59	88.28	329.59	87.9246	329.59	88.6582	329.59	88.0782	329.59	89.0956	329.59	88.4785	329.59	89.4601	329.59	88.9685	329.59	89.6567	329.59	89.3895	329.59	89.6346
341.309	92.5456	341.309	92.4714	341.309	92.501	341.309	92.2822	341.309	92.3451	341.309	91.9925	341.309	92.0932	341.309	91.6233	341.309	91.7593	341.309	91.1985	341.309	91.3491	341.309	90.7387	341.309	90.8602	341.309	90.2557	341.309	90.2951	341.309	89.7538	341.309	89.6856	341.309	89.2482	341.309	89.1141	341.309	88.7898	341.309	88.7041	341.309	88.4689	341.309	88.5543	341.309	88.3707	341.309	88.6633	341.309	88.514	341.309	88.9371	341.309	88.837	341.309	89.2659	341.309	89.2372	341.309	89.5758	341.309	89.6125	341.309	89.8252	341.309	89.884	341.309	89.9806	341.309	90.0082
353.027	92.6576	353.027	92.5663	353.027	92.674	353.027	92.3944	353.027	92.6159	353.027	92.1287	353.027	92.4816	353.027	91.7534	353.027	92.269	353.027	91.2621	353.027	91.9721	353.027	90.6744	353.027	91.5741	353.027	90.0473	353.027	91.0445	353.027	89.4656	353.027	90.3459	353.027	89.0054	353.027	89.4588	353.027	88.7015	353.027	88.4309	353.027	88.562	353.027	87.4463	353.027	88.5985	353.027	86.8351	353.027	88.8084	353.027	86.8505	353.027	89.1315	353.027	87.3906	353.027	89.4611	353.027	88.1356	353.027	89.6982	353.027	88.8324	353.027	89.7805	353.027	89.3582	353.027	89.6737
366.211	92.6252	366.211	92.4936	366.211	92.6998	366.211	92.288	366.211	92.7189	366.211	91.9884	366.211	92.6644	366.211	91.5836	366.211	92.5073	366.211	91.0742	366.211	92.2264	366.211	90.4696	366.211	91.8242	366.211	89.7897	366.211	91.3276	366.211	89.0865	366.211	90.7658	366.211	88.4693	366.211	90.1436	366.211	88.0771	366.211	89.4482	366.211	87.9731	366.211	88.7027	366.211	88.0912	366.211	88.0251	366.211	88.3264	366.211	87.6112	366.211	88.6208	366.211	87.5929	366.211	88.9365	366.211	87.9145	366.211	89.1989	366.211	88.3979	366.211	89.308	366.211	88.8682	366.211	89.1963
379.395	92.9109	379.395	92.8368	379.395	92.9149	379.395	92.6866	379.395	92.8587	379.395	92.4506	379.395	92.7544	379.395	92.1103	379.395	92.6028	379.395	91.643	379.395	92.3794	379.395	91.0336	379.395	92.0395	379.395	90.2855	379.395	91.5467	379.395	89.4294	379.395	90.9072	379.395	88.5428	379.395	90.188	379.395	87.7887	379.395	89.4999	379.395	87.4055	379.395	88.9476	379.395	87.5318	379.395	88.5953	379.395	88.0342	379.395	88.4809	379.395	88.6421	379.395	88.6145	379.395	89.1649	379.395	88.934	379.395	89.5305	379.395	89.3068	379.395	89.7262	379.395	89.6033	379.395	89.7504
392.578	92.7851	392.578	92.7253	392.578	92.7626	392.578	92.5792	392.578	92.6618	392.578	92.3434	392.578	92.4877	392.578	92.0156	392.578	92.248	392.578	91.5941	392.578	91.9498	392.578	91.0765	392.578	91.5905	392.578	90.4621	392.578	91.1505	392.578	89.7624	392.578	90.604	392.578	89.0236	392.578	89.9487	392.578	88.3506	392.578	89.239	392.578	87.9039	392.578	88.5964	392.578	87.8206	392.578	88.1731	392.578	88.0912	392.578	88.0717	392.578	88.5532	392.578	88.2802	392.578	89.0193	392.578	88.6795	392.578	89.3742	392.578	89.1091	392.578	89.572	392.578	89.4372	392.578	89.596
405.762	92.6815	405.762	92.5364	405.762	92.7356	405.762	92.308	405.762	92.6871	405.762	92.0029	405.762	92.525	405.762	91.6313	405.762	92.2483	405.762	91.202	405.762	91.8695	405.762	90.7113	405.762	91.4046	405.762	90.141	405.762	90.8571	405.762	89.484	405.762	90.2154	405.762	88.7854	405.762	89.4802	405.762	88.1687	405.762	88.7183	405.762	87.8112	405.762	88.0979	405.762	87.8429	405.762	87.8154	405.762	88.231	405.762	87.9212	405.762	88.7898	405.762	88.2816	405.762	89.3117	405.762	88.7287	405.762	89.6643	405.762	89.1562	405.762	89.8018	405.762	89.5065	405.762	89.7362
420.41	92.87	420.41	92.7691	420.41	92.8998	420.41	92.5907	420.41	92.8623	420.41	92.3274	420.41	92.7564	420.41	91.9718	420.41	92.5743	420.41	91.5179	420.41	92.3006	420.41	90.9639	420.41	91.9135	420.41	90.312	420.41	91.391	420.41	89.5689	420.41	90.7203	420.41	88.7656	420.41	89.9051	420.41	88.0154	420.41	88.9731	420.41	87.5447	420.41	88.0024	420.41	87.5435	420.41	87.1772	420.41	87.941	420.41	86.7902	420.41	88.4934	420.41	87.0238	420.41	89.0113	420.41	87.7083	420.41	89.3948	420.41	88.4948	420.41	89.5759	420.41	89.1291	420.41	89.4973
435.059	92.769	435.059	92.6891	435.059	92.7657	435.059	92.5133	435.059	92.691	435.059	92.2282	435.059	92.5516	435.059	91.8191	435.059	92.3417	435.059	91.2729	435.059	92.0457	435.059	90.5863	435.059	91.6477	435.059	89.7758	435.059	91.1347	435.059	88.8843	435.059	90.4903	435.059	87.9793	435.059	89.6988	435.059	87.1709	435.059	88.7879	435.059	86.6681	435.059	87.9086	435.059	86.7401	435.059	87.3646	435.059	87.4203	435.059	87.414	435.059	88.3792	435.059	87.9742	435.059	89.2454	435.059	88.7257	435.059	89.8351	435.059	89.4066	435.059	90.1214	435.059	89.8899	435.059	90.1326
451.172	93.2238	451.172	93.0484	451.172	93.3003	451.172	92.7825	451.172	93.2799	451.172	92.4405	451.172	93.1742	451.172	92.0369	451.172	92.9928	451.172	91.5771	451.172	92.7303	451.172	91.038	451.172	92.3675	451.172	90.3544	451.172	91.8868	451.172	89.4484	451.172	91.2821	451.172	88.3246	451.172	90.5479	451.172	87.2035	451.172	89.6682	451.172	86.5186	451.172	88.6562	451.172	86.5239	451.172	87.655	451.172	87.0199	451.172	86.9859	451.172	87.7016	451.172	86.9083	451.172	88.3661	451.172	87.3171	451.172	88.8512	451.172	87.9183	451.172	89.0403	451.172	88.4937	451.172	88.9031
465.82	93.1641	465.82	93.1019	465.82	93.1387	465.82	92.9406	465.82	93.0347	465.82	92.6725	465.82	92.8589	465.82	92.2913	465.82	92.6231	465.82	91.7823	465.82	92.3318	465.82	91.1277	465.82	91.9554	465.82	90.3287	465.82	91.4331	465.82	89.4206	465.82	90.7283	465.82	88.4631	465.82	89.8863	465.82	87.5499	465.82	89.0243	465.82	86.8775	465.82	88.2434	465.82	86.7168	465.82	87.6028	465.82	87.1139	465.82	87.2518	465.82	87.7838	465.82	87.4124	465.82	88.4392	465.82	88.0353	465.82	88.9609	465.82	88.7578	465.82	89.3107	465.82	89.262	465.82	89.4359
483.398	93.1134	483.398	92.9673	483.398	93.2201	483.398	92.7961	483.398	93.2643	483.398	92.6108	483.398	93.2119	483.398	92.4112	483.398	93.0369	483.398	92.1671	483.398	92.7447	483.398	91.8135	483.398	92.3649	483.398	91.2701	483.398	91.9036	483.398	90.4733	483.398	91.3073	483.398	89.3987	483.398	90.4936	483.398	88.0957	483.398	89.4343	483.398	86.7982	483.398	88.2345	483.398	86.0745	483.398	87.1706	483.398	86.4204	483.398	86.6236	483.398	87.4587	483.398	86.8186	483.398	88.4951	483.398	87.5796	483.398	89.2131	483.398	88.4842	483.398	89.5648	483.398	89.193	483.398	89.56
499.512	93.5038	499.512	93.3268	499.512	93.5656	499.512	93.0644	499.512	93.5072	499.512	92.7322	499.512	93.3556	499.512	92.3108	499.512	93.1372	499.512	91.7709	499.512	92.8505	499.512	91.1098	499.512	92.4734	499.512	90.3561	499.512	91.9858	499.512	89.546	499.512	91.3747	499.512	88.715	499.512	90.6268	499.512	87.9301	499.512	89.7498	499.512	87.3395	499.512	88.8353	499.512	87.1635	499.512	88.1033	499.512	87.5388	499.512	87.7766	499.512	88.3293	499.512	87.8642	499.512	89.198	499.512	88.2247	499.512	89.8321	499.512	88.7528	499.512	90.0565	499.512	89.3531	499.512	89.8549
517.09	93.0423	517.09	93.0685	517.09	92.9455	517.09	92.9722	517.09	92.8306	517.09	92.736	517.09	92.7239	517.09	92.3871	517.09	92.6104	517.09	91.9549	517.09	92.438	517.09	91.4037	517.09	92.1516	517.09	90.6236	517.09	91.7287	517.09	89.5127	517.09	91.1768	517.09	88.1083	517.09	90.4904	517.09	86.7031	517.09	89.6342	517.09	85.8001	517.09	88.6253	517.09	85.7636	517.09	87.7057	517.09	86.5356	517.09	87.3781	517.09	87.7589	517.09	87.8947	517.09	89.0229	517.09	88.8748	517.09	90.0303	517.09	89.8282	517.09	90.6316	517.09	90.499	517.09	90.7831
536.133	93.813	536.133	93.6193	536.133	93.8667	536.133	93.3152	536.133	93.7688	536.133	92.9505	536.133	93.5161	536.133	92.5699	536.133	93.1244	536.133	92.179	536.133	92.6386	536.133	91.7324	536.133	92.0996	536.133	91.1426	536.133	91.4897	536.133	90.2965	536.133	90.7411	536.133	89.0964	536.133	89.8118	536.133	87.5744	536.133	88.7314	536.133	86.1868	536.133	87.5895	536.133	85.9418	536.133	86.6342	536.133	87.0192	536.133	86.4777	536.133	88.3887	536.133	87.453	536.133	89.435	536.133	88.8368	536.133	90.097	536.133	89.9001	536.133	90.4692	536.133	90.4596	536.133	90.6065
555.176	94.1438	555.176	94.0817	555.176	94.1758	555.176	93.9822	555.176	94.1825	555.176	93.821	555.176	94.1575	555.176	93.5548	555.176	94.0665	555.176	93.1416	555.176	93.8649	555.176	92.5539	555.176	93.5353	555.176	91.7695	555.176	93.0883	555.176	90.7539	555.176	92.5104	555.176	89.4548	555.176	91.7138	555.176	87.8308	555.176	90.5567	555.176	86.0123	555.176	88.9516	555.176	84.7321	555.176	87.0648	555.176	85.123	555.176	85.6025	555.176	86.793	555.176	85.5515	555.176	88.5233	555.176	86.7857	555.176	89.747	555.176	88.3192	555.176	90.3159	555.176	89.5394	555.176	90.2307
574.219	94.3646	574.219	94.1878	574.219	94.4286	574.219	93.9511	574.219	94.3233	574.219	93.6783	574.219	94.0513	574.219	93.3879	574.219	93.6937	574.219	93.0896	574.219	93.3474	574.219	92.742	574.219	93.0405	574.219	92.2455	574.219	92.7075	574.219	91.4929	574.219	92.2277	574.219	90.414	574.219	91.4781	574.219	88.9882	574.219	90.3952	574.219	87.3139	574.219	89.055	574.219	85.9266	574.219	87.7493	574.219	85.9483	574.219	86.9438	574.219	87.4275	574.219	87.0254	574.219	89.1413	574.219	88.0191	574.219	90.4405	574.219	89.4512	574.219	91.18	574.219	90.6709	574.219	91.2787
594.727	93.2283	594.727	93.0476	594.727	93.3122	594.727	92.7848	594.727	93.2874	594.727	92.443	594.727	93.1572	594.727	92.0254	594.727	92.9384	594.727	91.5677	594.727	92.6345	594.727	91.1178	594.727	92.2142	594.727	90.6391	594.727	91.6372	594.727	89.9766	594.727	90.9019	594.727	88.9721	594.727	90.0154	594.727	87.602	594.727	88.8678	594.727	86.1001	594.727	87.1777	594.727	85.1518	594.727	84.735	594.727	85.537	594.727	82.6001	594.727	86.879	594.727	83.6172	594.727	88.2323	594.727	86.0644	594.727	89.1452	594.727	87.8425	594.727	89.5303	594.727	88.8879	594.727	89.428
615.234	89	615.234	88.9365	615.234	89.0379	615.234	88.8396	615.234	89.1094	615.234	88.7661	615.234	89.2151	615.234	88.7312	615.234	89.2734	615.234	88.6468	615.234	89.2257	615.234	88.3876	615.234	89.0885	615.234	87.8467	615.234	88.8553	615.234	86.9204	615.234	88.4086	615.234	85.5207	615.234	87.594	615.234	83.6611	615.234	86.3469	615.234	81.6084	615.234	84.7046	615.234	80.0563	615.234	82.7646	615.234	79.9102	615.234	80.928	615.234	81.2118	615.234	80.2904	615.234	82.9446	615.234	81.2979	615.234	84.2994	615.234	82.8576	615.234	84.9684	615.234	84.1531	615.234	84.8989
637.207	91.67	637.207	91.4728	637.207	91.7037	637.207	91.173	637.207	91.5017	637.207	90.7753	637.207	91.078	637.207	90.2822	637.207	90.5414	637.207	89.7411	637.207	90.0237	637.207	89.2294	637.207	89.6429	637.207	88.789	637.207	89.4495	637.207	88.306	637.207	89.3047	637.207	87.4815	637.207	88.9154	637.207	86.0011	637.207	88.0435	637.207	83.75	637.207	86.625	637.207	81.1502	637.207	84.6866	637.207	79.8656	637.207	82.2453	637.207	81.22	637.207	79.994	637.207	83.438	637.207	80.4987	637.207	85.0601	637.207	82.9851	637.207	85.8325	637.207	84.8988	637.207	85.8031
659.18	95.1002	659.18	94.9351	659.18	95.0623	659.18	94.5808	659.18	94.852	659.18	94.1058	659.18	94.5272	659.18	93.62	659.18	94.1625	659.18	93.2075	659.18	93.8125	659.18	92.8189	659.18	93.4604	659.18	92.2987	659.18	93.0546	659.18	91.5525	659.18	92.5951	659.18	90.5784	659.18	92.0779	659.18	89.2932	659.18	91.347	659.18	87.4564	659.18	90.1111	659.18	85.2054	659.18	88.1135	659.18	84.4163	659.18	85.5865	659.18	86.0185	659.18	84.2637	659.18	87.804	659.18	85.3584	659.18	89	659.18	87.1857	659.18	89.6104	659.18	88.6944	659.18	89.5401
682.617	95.7015	682.617	95.4742	682.617	95.7533	682.617	95.133	682.617	95.5979	682.617	94.7501	682.617	95.2108	682.617	94.3213	682.617	94.6209	682.617	93.8048	682.617	93.977	682.617	93.2648	682.617	93.465	682.617	92.7778	682.617	93.0936	682.617	92.1611	682.617	92.6897	682.617	91.0902	682.617	92.1085	682.617	89.4442	682.617	91.2775	682.617	87.4119	682.617	90.069	682.617	85.476	682.617	88.3269	682.617	84.8105	682.617	86.3076	682.617	86.3453	682.617	85.3704	682.617	88.3655	682.617	86.381	682.617	89.6157	682.617	87.9686	682.617	90.0333	682.617	89.1725	682.617	89.8466
707.52	95.4059	707.52	95.2093	707.52	95.3834	707.52	94.8236	707.52	95.1808	707.52	94.318	707.52	94.8844	707.52	93.8142	707.52	94.5132	707.52	93.4263	707.52	94.0258	707.52	93.1279	707.52	93.4916	707.52	92.8235	707.52	93.1002	707.52	92.4643	707.52	92.8616	707.52	91.9037	707.52	92.4988	707.52	90.8064	707.52	91.7498	707.52	88.8211	707.52	90.5119	707.52	85.919	707.52	88.6717	707.52	83.5154	707.52	86.0051	707.52	84.3045	707.52	83.2597	707.52	86.8303	707.52	83.9575	707.52	89.0292	707.52	86.7583	707.52	90.2058	707.52	88.9557	707.52	90.156
732.422	93.0276	732.422	92.8718	732.422	93.0596	732.422	92.5488	732.422	92.9149	732.422	92.0183	732.422	92.5352	732.422	91.3527	732.422	92.0055	732.422	90.7205	732.422	91.5073	732.422	90.2765	732.422	91.1339	732.422	90.0082	732.422	90.8638	732.422	89.7041	732.422	90.6774	732.422	89.0982	732.422	90.5342	732.422	87.9356	732.422	90.2606	732.422	85.9377	732.422	89.5535	732.422	83.0407	732.422	88.0683	732.422	81.2012	732.422	85.5674	732.422	83.2541	732.422	82.6093	732.422	85.8729	732.422	82.2896	732.422	87.4809	732.422	84.7897	732.422	88.1749	732.422	86.9434	732.422	88.0376
757.324	92.1759	757.324	91.8319	757.324	92.2319	757.324	91.2366	757.324	92.0572	757.324	90.5662	757.324	91.6726	757.324	90.0034	757.324	91.037	757.324	89.591	757.324	90.2022	757.324	89.3266	757.324	89.4571	757.324	89.2549	757.324	89.1185	757.324	89.2293	757.324	89.1066	757.324	88.8244	757.324	89.0463	757.324	87.6358	757.324	88.6404	757.324	85.4477	757.324	87.7224	757.324	82.1998	757.324	86.1702	757.324	79.1366	757.324	83.9109	757.324	80.9091	757.324	81.42	757.324	84.2885	757.324	81.1321	757.324	86.3031	757.324	83.1962	757.324	86.9184	757.324	85.1102	757.324	86.4005
785.156	92.4278	785.156	92.0822	785.156	92.5076	785.156	91.5299	785.156	92.2742	785.156	90.8005	785.156	91.739	785.156	89.9401	785.156	91.0059	785.156	89.0745	785.156	90.222	785.156	88.4707	785.156	89.5092	785.156	88.3163	785.156	88.9882	785.156	88.3457	785.156	88.7537	785.156	88.1867	785.156	88.6843	785.156	87.6537	785.156	88.4514	785.156	86.4321	785.156	87.7838	785.156	83.8421	785.156	86.493	785.156	79.7293	785.156	84.2547	785.156	79.6393	785.156	80.9395	785.156	82.3596	785.156	79.7078	785.156	83.7213	785.156	82.6857	785.156	84.6553	785.156	84.8838	785.156	85.3332
811.523	92.4228	811.523	92.093	811.523	92.4543	811.523	91.4625	811.523	92.1684	811.523	90.5539	811.523	91.583	811.523	89.4669	811.523	90.7876	811.523	88.3727	811.523	89.8363	811.523	87.543	811.523	88.7924	811.523	87.2659	811.523	87.9514	811.523	87.5232	811.523	87.6231	811.523	87.6733	811.523	87.6314	811.523	86.9966	811.523	87.6336	811.523	85.2789	811.523	87.4136	811.523	82.82	811.523	86.5603	811.523	80.4004	811.523	84.4782	811.523	80.0671	811.523	81.1415	811.523	82.9234	811.523	80.0191	811.523	85.5018	811.523	82.9428	811.523	86.5171	811.523	85.2135	811.523	86.313
840.82	92.629	840.82	92.398	840.82	92.6508	840.82	91.8663	840.82	92.462	840.82	90.9357	840.82	92.0074	840.82	89.64	840.82	91.2421	840.82	88.162	840.82	90.1465	840.82	86.8708	840.82	88.8002	840.82	86.2019	840.82	87.4875	840.82	86.0477	840.82	86.6307	840.82	86.1908	840.82	86.4626	840.82	86.3505	840.82	86.6395	840.82	85.7644	840.82	86.5127	840.82	83.6523	840.82	85.5461	840.82	79.9286	840.82	83.3966	840.82	79.5803	840.82	80.6696	840.82	82.3325	840.82	80.2534	840.82	84.4018	840.82	82.3225	840.82	85.8082	840.82	84.6156	840.82	85.9667
870.117	92.6502	870.117	92.4614	870.117	92.724	870.117	91.9728	870.117	92.6191	870.117	91.0415	870.117	92.1469	870.117	89.8236	870.117	91.2619	870.117	88.4925	870.117	90.1515	870.117	86.9567	870.117	88.9886	870.117	85.575	870.117	87.7432	870.117	85.4599	870.117	86.5928	870.117	85.8695	870.117	86.0144	870.117	85.3906	870.117	85.9443	870.117	84.0584	870.117	85.7699	870.117	82.1742	870.117	85.0927	870.117	79.3525	870.117	83.4773	870.117	78.2976	870.117	80.5805	870.117	81.7522	870.117	79.3162	870.117	84.5761	870.117	82.3714	870.117	85.8056	870.117	85.0033	870.117	85.9847
900.879	93.3763	900.879	93.0781	900.879	93.3417	900.879	92.6071	900.879	93.1686	900.879	92.1071	900.879	92.9753	900.879	91.2397	900.879	92.5715	900.879	89.7861	900.879	91.7273	900.879	88.1981	900.879	90.3856	900.879	86.8016	900.879	88.7499	900.879	85.3302	900.879	87.3328	900.879	84.6291	900.879	86.5509	900.879	85.2052	900.879	86.214	900.879	85.0579	900.879	85.9072	900.879	82.781	900.879	85.0391	900.879	77.4604	900.879	82.858	900.879	76.7241	900.879	79.1816	900.879	82.4714	900.879	78.6646	900.879	85.6284	900.879	82.6114	900.879	86.8424	900.879	85.2618	900.879	86.5997
933.105	92.2994	933.105	92.0461	933.105	92.5559	933.105	91.6937	933.105	92.3514	933.105	90.7456	933.105	91.798	933.105	89.7071	933.105	91.1421	933.105	89.0894	933.105	90.1695	933.105	87.8228	933.105	89.0341	933.105	85.6644	933.105	88.0278	933.105	85.301	933.105	86.696	933.105	86.3755	933.105	85.5608	933.105	86.4365	933.105	85.94	933.105	85.5389	933.105	86.4889	933.105	84.0046	933.105	85.7839	933.105	80.2473	933.105	83.7899	933.105	74.7444	933.105	80.3385	933.105	79.4776	933.105	76.1915	933.105	82.974	933.105	79.662	933.105	84.977	933.105	83.9725	933.105	85.5922
965.332	92.3626	965.332	92.2126	965.332	92.0852	965.332	91.669	965.332	91.9065	965.332	91.1911	965.332	91.7085	965.332	90.3315	965.332	91.2205	965.332	88.6384	965.332	90.5744	965.332	87.1537	965.332	89.352	965.332	86.5366	965.332	87.3652	965.332	85.4159	965.332	86.0315	965.332	84.0711	965.332	85.7319	965.332	84.054	965.332	85.2052	965.332	83.707	965.332	84.7169	965.332	81.5978	965.332	84.1991	965.332	77.0643	965.332	82.1151	965.332	71.9357	965.332	77.855	965.332	78.8175	965.332	75.6063	965.332	82.7851	965.332	80.7495	965.332	83.9169	965.332	83.6114	965.332	84.1088
1,000.49	92.511	1,000.49	92.2387	1,000.49	92.6366	1,000.49	91.8976	1,000.49	92.346	1,000.49	91.2375	1,000.49	91.867	1,000.49	90.503	1,000.49	91.2042	1,000.49	89.7351	1,000.49	89.9678	1,000.49	88.0625	1,000.49	88.6193	1,000.49	85.3237	1,000.49	87.3666	1,000.49	84.3984	1,000.49	85.1177	1,000.49	85.7013	1,000.49	82.906	1,000.49	86.2231	1,000.49	83.4887	1,000.49	85.7429	1,000.49	84.1613	1,000.49	84.7695	1,000.49	83.8312	1,000.49	82.3046	1,000.49	83.348	1,000.49	76.7562	1,000.49	80.7914	1,000.49	76.4658	1,000.49	72.9747	1,000.49	81.8476	1,000.49	75.6557	1,000.49	84.4648	1,000.49	81.7517	1,000.49	84.5431
1,035.64	92.1119	1,035.64	92.0859	1,035.64	91.9516	1,035.64	91.8292	1,035.64	91.8371	1,035.64	91.4709	1,035.64	91.4797	1,035.64	90.6959	1,035.64	90.8176	1,035.64	89.4043	1,035.64	90.2011	1,035.64	88.1298	1,035.64	89.2371	1,035.64	86.8121	1,035.64	87.4282	1,035.64	84.6464	1,035.64	85.4576	1,035.64	82.3224	1,035.64	83.8628	1,035.64	82.7172	1,035.64	82.677	1,035.64	83.3216	1,035.64	82.9052	1,035.64	82.0179	1,035.64	83.1033	1,035.64	79.2371	1,035.64	81.4553	1,035.64	77.6626	1,035.64	77.9826	1,035.64	79.4533	1,035.64	73.9093	1,035.64	82.4103	1,035.64	79.2595	1,035.64	83.8759	1,035.64	83.0542	1,035.64	84.0599
1,072.27	91.9479	1,072.27	91.7959	1,072.27	91.783	1,072.27	91.3529	1,072.27	91.4736	1,072.27	90.7464	1,072.27	91.25	1,072.27	90.1857	1,072.27	90.8456	1,072.27	89.4806	1,072.27	89.8937	1,072.27	88.0821	1,072.27	88.6543	1,072.27	85.8192	1,072.27	87.4312	1,072.27	83.3653	1,072.27	85.7826	1,072.27	81.8698	1,072.27	83.5845	1,072.27	82.0334	1,072.27	81.995	1,072.27	83.0037	1,072.27	81.4459	1,072.27	82.4503	1,072.27	81.7211	1,072.27	79.2832	1,072.27	81.4682	1,072.27	74.5339	1,072.27	78.8754	1,072.27	76.9638	1,072.27	73.1821	1,072.27	81.3771	1,072.27	76.6122	1,072.27	83.4398	1,072.27	80.7179	1,072.27	83.1295
1,108.89	91.4336	1,108.89	91.0947	1,108.89	91.6011	1,108.89	90.6432	1,108.89	91.2848	1,108.89	89.9073	1,108.89	90.4418	1,108.89	89.1518	1,108.89	89.351	1,108.89	88.5283	1,108.89	88.4766	1,108.89	87.5538	1,108.89	87.9192	1,108.89	86.2552	1,108.89	86.9844	1,108.89	84.9626	1,108.89	85.3049	1,108.89	83.1395	1,108.89	83.6305	1,108.89	81.793	1,108.89	82.2527	1,108.89	81.584	1,108.89	81.01	1,108.89	80.5294	1,108.89	80.319	1,108.89	77.3412	1,108.89	79.3046	1,108.89	72.4186	1,108.89	76.2388	1,108.89	75.0978	1,108.89	69.9284	1,108.89	80.3693	1,108.89	74.195	1,108.89	81.7064	1,108.89	80.1767	1,108.89	81.4707
1,148.44	91.5138	1,148.44	91.0928	1,148.44	91.808	1,148.44	90.6558	1,148.44	91.3505	1,148.44	89.8986	1,148.44	90.5937	1,148.44	89.0076	1,148.44	90.0746	1,148.44	88.0077	1,148.44	89.2013	1,148.44	86.7814	1,148.44	88.1065	1,148.44	85.5216	1,148.44	86.9039	1,148.44	84.1653	1,148.44	84.9264	1,148.44	82.3656	1,148.44	83.1992	1,148.44	81.0604	1,148.44	82.5147	1,148.44	81.2481	1,148.44	80.5469	1,148.44	80.3776	1,148.44	78.9966	1,148.44	76.6271	1,148.44	78.937	1,148.44	74.5214	1,148.44	75.849	1,148.44	75.8566	1,148.44	69.8175	1,148.44	79.3168	1,148.44	72.8863	1,148.44	81.0215	1,148.44	77.9715	1,148.44	80.456
1,189.45	92.0251	1,189.45	91.7698	1,189.45	91.937	1,189.45	91.3005	1,189.45	91.778	1,189.45	90.4372	1,189.45	91.7271	1,189.45	89.3046	1,189.45	91.1791	1,189.45	88.2224	1,189.45	90.1048	1,189.45	86.7125	1,189.45	89.1342	1,189.45	84.769	1,189.45	88.0645	1,189.45	83.0984	1,189.45	86.2665	1,189.45	81.7158	1,189.45	84.2637	1,189.45	81.9196	1,189.45	82.6158	1,189.45	82.2367	1,189.45	81.7116	1,189.45	80.9036	1,189.45	82.4769	1,189.45	77.6003	1,189.45	82.4114	1,189.45	68.3743	1,189.45	78.7262	1,189.45	71.2582	1,189.45	71.0848	1,189.45	78.4269	1,189.45	50.6185	1,189.45	80.7675	1,189.45	75.2962	1,189.45	80.8862
1,230.47	93.169	1,230.47	92.7864	1,230.47	93.2587	1,230.47	92.0599	1,230.47	93.1635	1,230.47	91.4994	1,230.47	92.6728	1,230.47	90.8737	1,230.47	92.0206	1,230.47	89.7275	1,230.47	91.2864	1,230.47	88.5858	1,230.47	90.3314	1,230.47	87.3815	1,230.47	89.3375	1,230.47	85.1842	1,230.47	87.9377	1,230.47	83.3778	1,230.47	86.0367	1,230.47	83.5556	1,230.47	84.8921	1,230.47	83.1668	1,230.47	84.5706	1,230.47	81.7728	1,230.47	83.9651	1,230.47	79.1688	1,230.47	83.0298	1,230.47	72.5305	1,230.47	81.2628	1,230.47	72.4446	1,230.47	75.4732	1,230.47	78.9144	1,230.47	71.4663	1,230.47	82.1275	1,230.47	78.7217	1,230.47	81.6689
1,274.41	93.6659	1,274.41	93.2995	1,274.41	93.5596	1,274.41	92.6951	1,274.41	93.3813	1,274.41	91.989	1,274.41	92.9808	1,274.41	91.0937	1,274.41	92.15	1,274.41	90.0267	1,274.41	91.4054	1,274.41	88.5868	1,274.41	90.7146	1,274.41	87.0494	1,274.41	89.3502	1,274.41	85.3027	1,274.41	87.5198	1,274.41	83.6142	1,274.41	85.9911	1,274.41	82.1822	1,274.41	84.3897	1,274.41	82.2424	1,274.41	82.9189	1,274.41	83.785	1,274.41	83.52	1,274.41	82.5946	1,274.41	83.9918	1,274.41	76.4128	1,274.41	81.85	1,274.41	72.1422	1,274.41	76.422	1,274.41	80.5698	1,274.41	66.6084	1,274.41	82.3613	1,274.41	79.8425	1,274.41	82.5102
1,319.82	93.1112	1,319.82	92.9433	1,319.82	93.202	1,319.82	92.6414	1,319.82	92.9279	1,319.82	91.8895	1,319.82	92.6517	1,319.82	91.1667	1,319.82	92.0025	1,319.82	90.6342	1,319.82	91.2236	1,319.82	89.5147	1,319.82	90.6125	1,319.82	87.8701	1,319.82	89.7902	1,319.82	86.8129	1,319.82	88.5443	1,319.82	84.5623	1,319.82	86.4412	1,319.82	81.1104	1,319.82	84.7842	1,319.82	81.6127	1,319.82	84.3548	1,319.82	82.0075	1,319.82	84.0935	1,319.82	79.8618	1,319.82	84.1931	1,319.82	71.5083	1,319.82	82.5001	1,319.82	72.6964	1,319.82	74.8419	1,319.82	79.9288	1,319.82	69.8411	1,319.82	84.0964	1,319.82	79.918	1,319.82	83.9895
1,366.7	94.3517	1,366.7	93.9643	1,366.7	94.1467	1,366.7	93.094	1,366.7	93.7577	1,366.7	92.2975	1,366.7	93.1638	1,366.7	91.7295	1,366.7	92.3526	1,366.7	91.0679	1,366.7	91.4944	1,366.7	90.6376	1,366.7	90.4312	1,366.7	89.1977	1,366.7	89.4589	1,366.7	86.0464	1,366.7	88.2014	1,366.7	84.6865	1,366.7	86.3369	1,366.7	84.8747	1,366.7	84.9351	1,366.7	84.7506	1,366.7	84.4498	1,366.7	84.9286	1,366.7	84.9787	1,366.7	83.9442	1,366.7	85.1701	1,366.7	79.3799	1,366.7	83.0742	1,366.7	47.0166	1,366.7	78.0462	1,366.7	79.8726	1,366.7	63.5437	1,366.7	82.9477	1,366.7	79.4741	1,366.7	81.9381
1,413.57	93.693	1,413.57	93.5601	1,413.57	93.697	1,413.57	92.7749	1,413.57	93.6533	1,413.57	92.0834	1,413.57	92.5644	1,413.57	91.1122	1,413.57	91.4799	1,413.57	89.8882	1,413.57	90.6113	1,413.57	89.112	1,413.57	89.0861	1,413.57	88.3517	1,413.57	87.9377	1,413.57	86.6813	1,413.57	86.9482	1,413.57	84.5603	1,413.57	85.5298	1,413.57	83.4641	1,413.57	82.8046	1,413.57	83.7581	1,413.57	80.7739	1,413.57	85.4105	1,413.57	81.8456	1,413.57	83.4442	1,413.57	82.5691	1,413.57	78.9248	1,413.57	83.3961	1,413.57	60.2531	1,413.57	79.6853	1,413.57	77.7466	1,413.57	67.016	1,413.57	81.2242	1,413.57	77.9761	1,413.57	82.0862
1,463.38	93.576	1,463.38	92.856	1,463.38	93.5064	1,463.38	92.1725	1,463.38	92.6821	1,463.38	91.153	1,463.38	92.242	1,463.38	89.9414	1,463.38	91.3197	1,463.38	89.3196	1,463.38	89.3704	1,463.38	88.1141	1,463.38	88.4645	1,463.38	86.8799	1,463.38	87.6067	1,463.38	87.2315	1,463.38	86.0151	1,463.38	85.0621	1,463.38	85.0469	1,463.38	81.476	1,463.38	82.0623	1,463.38	82.14	1,463.38	79.7323	1,463.38	82.9156	1,463.38	79.6828	1,463.38	83.6402	1,463.38	82.3378	1,463.38	80.8119	1,463.38	82.3059	1,463.38	71.9925	1,463.38	79.2117	1,463.38	76.3288	1,463.38	69.0401	1,463.38	80.8007	1,463.38	71.6922	1,463.38	79.9587
1,516.11	91.9898	1,516.11	91.6158	1,516.11	91.8301	1,516.11	90.6986	1,516.11	91.4222	1,516.11	89.8224	1,516.11	90.7338	1,516.11	88.4123	1,516.11	90.0898	1,516.11	86.4946	1,516.11	89.152	1,516.11	85.8061	1,516.11	87.6667	1,516.11	85.0211	1,516.11	86.3165	1,516.11	84.7925	1,516.11	85.6153	1,516.11	83.8734	1,516.11	83.6321	1,516.11	80.5385	1,516.11	81.7391	1,516.11	78.4079	1,516.11	79.9114	1,516.11	79.5222	1,516.11	77.0245	1,516.11	79.6164	1,516.11	80.7306	1,516.11	76.3027	1,516.11	81.2048	1,516.11	73.4724	1,516.11	78.7073	1,516.11	77.702	1,516.11	73.0824	1,516.11	80.9536	1,516.11	72.337	1,516.11	79.7723
1,568.85	91.7495	1,568.85	91.0698	1,568.85	91.7674	1,568.85	90.5319	1,568.85	91.5175	1,568.85	89.4157	1,568.85	91.1061	1,568.85	87.9685	1,568.85	90.3698	1,568.85	87.1822	1,568.85	88.6319	1,568.85	85.0032	1,568.85	87.8625	1,568.85	84.6079	1,568.85	86.0255	1,568.85	84.8732	1,568.85	85.3536	1,568.85	82.3477	1,568.85	85.1278	1,568.85	80.1849	1,568.85	84.0488	1,568.85	80.3675	1,568.85	81.7645	1,568.85	81.5031	1,568.85	80.1695	1,568.85	81.6532	1,568.85	80.4864	1,568.85	77.9379	1,568.85	81.142	1,568.85	65.7741	1,568.85	80.8525	1,568.85	73.1211	1,568.85	74.8988	1,568.85	80.6479	1,568.85	68.8244	1,568.85	78.8569
1,624.51	92.0892	1,624.51	91.547	1,624.51	91.9534	1,624.51	90.803	1,624.51	91.9066	1,624.51	90.2152	1,624.51	91.6972	1,624.51	88.5816	1,624.51	91.1594	1,624.51	87.0327	1,624.51	89.5042	1,624.51	85.8996	1,624.51	88.4748	1,624.51	84.0034	1,624.51	87.1353	1,624.51	82.9904	1,624.51	84.6749	1,624.51	81.2209	1,624.51	84.4632	1,624.51	76.9353	1,624.51	83.5034	1,624.51	76.9968	1,624.51	81.8302	1,624.51	77.0783	1,624.51	80.7916	1,624.51	78.2484	1,624.51	79.3186	1,624.51	77.8193	1,624.51	81.1623	1,624.51	64.3107	1,624.51	78.4438	1,624.51	73.1743	1,624.51	72.4133	1,624.51	79.0779	1,624.51	71.2086	1,624.51	77.7484
1,681.64	92.5435	1,681.64	91.9554	1,681.64	92.9903	1,681.64	91.4633	1,681.64	92.3615	1,681.64	90.4237	1,681.64	91.8488	1,681.64	89.5582	1,681.64	91.0951	1,681.64	88.0477	1,681.64	91.063	1,681.64	85.1232	1,681.64	89.6032	1,681.64	85.2214	1,681.64	87.6814	1,681.64	82.6809	1,681.64	87.0698	1,681.64	79.2544	1,681.64	85.6731	1,681.64	78.2788	1,681.64	82.4068	1,681.64	78.8334	1,681.64	81.8421	1,681.64	78.72	1,681.64	82.8832	1,681.64	80.7972	1,681.64	80.2388	1,681.64	79.2396	1,681.64	79.9149	1,681.64	71.8372	1,681.64	80.6028	1,681.64	77.5365	1,681.64	75.8605	1,681.64	79.1139	1,681.64	76.4811	1,681.64	75.5031
1,741.7	93.0503	1,741.7	92.5795	1,741.7	93.1246	1,741.7	91.9101	1,741.7	92.7103	1,741.7	91.4683	1,741.7	91.7668	1,741.7	89.2486	1,741.7	92.0435	1,741.7	88.0976	1,741.7	90.5079	1,741.7	87.0989	1,741.7	89.4111	1,741.7	85.2087	1,741.7	88.577	1,741.7	84.2604	1,741.7	86.6798	1,741.7	83.5673	1,741.7	86.11	1,741.7	80.0476	1,741.7	82.2955	1,741.7	78.4428	1,741.7	80.3083	1,741.7	78.5673	1,741.7	80.9237	1,741.7	80.6569	1,741.7	79.7714	1,741.7	80.2985	1,741.7	80.2431	1,741.7	76.5477	1,741.7	77.6375	1,741.7	69.7537	1,741.7	76.7241	1,741.7	78.5054	1,741.7	75.4691	1,741.7	80.3375
1,803.22	92.3136	1,803.22	91.8795	1,803.22	92.1	1,803.22	91.6657	1,803.22	91.8501	1,803.22	90.4897	1,803.22	90.9016	1,803.22	89.32	1,803.22	90.1633	1,803.22	89.4401	1,803.22	89.7412	1,803.22	87.884	1,803.22	87.8522	1,803.22	86.9686	1,803.22	86.6485	1,803.22	83.5867	1,803.22	86.2432	1,803.22	82.7478	1,803.22	84.242	1,803.22	81.0227	1,803.22	83.1816	1,803.22	80.6024	1,803.22	81.3685	1,803.22	80.0734	1,803.22	79.2476	1,803.22	79.9936	1,803.22	79.7736	1,803.22	79.6915	1,803.22	80.1375	1,803.22	74.2123	1,803.22	79.3083	1,803.22	72.3215	1,803.22	71.0532	1,803.22	81.5241	1,803.22	71.8286	1,803.22	78.7776
1,866.21	91.8957	1,866.21	90.8751	1,866.21	91.5382	1,866.21	90.9143	1,866.21	91.0316	1,866.21	90.5606	1,866.21	90.6555	1,866.21	89.5963	1,866.21	89.0777	1,866.21	87.8259	1,866.21	87.8042	1,866.21	86.8838	1,866.21	85.8178	1,866.21	86.5341	1,866.21	84.1836	1,866.21	84.6527	1,866.21	83.6977	1,866.21	83.4529	1,866.21	81.8424	1,866.21	79.6548	1,866.21	80.637	1,866.21	77.6614	1,866.21	76.554	1,866.21	79.2809	1,866.21	78.8839	1,866.21	82.8764	1,866.21	77.9164	1,866.21	79.9806	1,866.21	79.6923	1,866.21	72.8651	1,866.21	77.7605	1,866.21	75.9927	1,866.21	73.5955	1,866.21	75.1083	1,866.21	62.3155	1,866.21	75.8968
1,932.13	91.2262	1,932.13	91.2308	1,932.13	91.3597	1,932.13	90.5112	1,932.13	91.2188	1,932.13	89.4826	1,932.13	90.3373	1,932.13	87.8286	1,932.13	89.557	1,932.13	86.2036	1,932.13	88.5688	1,932.13	86.0082	1,932.13	87.2569	1,932.13	84.1849	1,932.13	85.5303	1,932.13	84.3479	1,932.13	84.354	1,932.13	82.8176	1,932.13	83.5684	1,932.13	80.3171	1,932.13	83.1746	1,932.13	77.346	1,932.13	80.874	1,932.13	78.1549	1,932.13	78.6682	1,932.13	79.493	1,932.13	77.7248	1,932.13	78.4046	1,932.13	78.6217	1,932.13	73.7617	1,932.13	79.9727	1,932.13	74.3162	1,932.13	75.7505	1,932.13	77.9667	1,932.13	66.532	1,932.13	77.8359
1,999.51	92.5422	1,999.51	91.9988	1,999.51	92.581	1,999.51	91.0715	1,999.51	92.3304	1,999.51	90.3662	1,999.51	91.8998	1,999.51	89.4179	1,999.51	91.2219	1,999.51	87.5464	1,999.51	90.0059	1,999.51	84.8705	1,999.51	88.9721	1,999.51	84.2803	1,999.51	87.1695	1,999.51	82.6364	1,999.51	86.1893	1,999.51	81.8167	1,999.51	84.3326	1,999.51	79.5466	1,999.51	83.4877	1,999.51	77.1914	1,999.51	82.2748	1,999.51	76.6025	1,999.51	81.1233	1,999.51	78.3317	1,999.51	79.0738	1,999.51	78.1822	1,999.51	80.7389	1,999.51	70.6198	1,999.51	80.3335	1,999.51	71.5808	1,999.51	77.557	1,999.51	76.7432	1,999.51	69.73	1,999.51	76.9362
2,069.82	92.8688	2,069.82	92.3571	2,069.82	92.869	2,069.82	91.7644	2,069.82	92.659	2,069.82	90.9418	2,069.82	92.3403	2,069.82	90.0345	2,069.82	91.5415	2,069.82	88.7153	2,069.82	90.3929	2,069.82	86.9285	2,069.82	88.9571	2,069.82	84.186	2,069.82	87.5421	2,069.82	82.8876	2,069.82	86.3685	2,069.82	82.016	2,069.82	85.6813	2,069.82	80.7007	2,069.82	83.3403	2,069.82	78.2686	2,069.82	81.5206	2,069.82	74.8673	2,069.82	79.9702	2,069.82	77.5585	2,069.82	79.518	2,069.82	80.0178	2,069.82	80.2513	2,069.82	76.3982	2,069.82	81.1217	2,069.82	55.7818	2,069.82	78.0724	2,069.82	76.5413	2,069.82	68.2915	2,069.82	75.5412
2,143.07	91.9594	2,143.07	91.7725	2,143.07	91.8839	2,143.07	91.3563	2,143.07	91.7008	2,143.07	90.7936	2,143.07	91.3388	2,143.07	90.1099	2,143.07	90.589	2,143.07	89.3749	2,143.07	89.7344	2,143.07	88.083	2,143.07	88.5878	2,143.07	86.0606	2,143.07	87.161	2,143.07	83.6279	2,143.07	85.2995	2,143.07	81.8182	2,143.07	83.5978	2,143.07	81.5935	2,143.07	82.8842	2,143.07	81.0061	2,143.07	80.9637	2,143.07	74.9883	2,143.07	78.6164	2,143.07	77.374	2,143.07	77.8465	2,143.07	79.2535	2,143.07	79.2899	2,143.07	77.1353	2,143.07	80.4873	2,143.07	70.1226	2,143.07	78.3684	2,143.07	67.4881	2,143.07	70.7167	2,143.07	72.9741
2,219.24	91.6987	2,219.24	91.5585	2,219.24	91.4704	2,219.24	90.7596	2,219.24	91.2129	2,219.24	90.2359	2,219.24	90.5188	2,219.24	89.2636	2,219.24	89.9731	2,219.24	88.3051	2,219.24	88.6775	2,219.24	87.4345	2,219.24	87.4205	2,219.24	85.4733	2,219.24	86.0221	2,219.24	83.2766	2,219.24	83.8036	2,219.24	81.5096	2,219.24	82.6115	2,219.24	80.4617	2,219.24	80.715	2,219.24	79.9091	2,219.24	78.7819	2,219.24	78.1452	2,219.24	77.6706	2,219.24	76.167	2,219.24	74.6586	2,219.24	79.1814	2,219.24	77.0798	2,219.24	79.7454	2,219.24	79.0051	2,219.24	72.6265	2,219.24	77.0073	2,219.24	74.2618	2,219.24	72.3907	2,219.24	74.1027
2,296.88	91.9312	2,296.88	91.1086	2,296.88	91.864	2,296.88	90.6094	2,296.88	91.3067	2,296.88	89.2953	2,296.88	91.1466	2,296.88	88.6581	2,296.88	89.9172	2,296.88	87.5989	2,296.88	88.8557	2,296.88	85.503	2,296.88	87.3851	2,296.88	84.5272	2,296.88	86.0435	2,296.88	83.0795	2,296.88	83.4975	2,296.88	80.6072	2,296.88	82.2709	2,296.88	79.9491	2,296.88	81.0387	2,296.88	79.0767	2,296.88	79.8814	2,296.88	77.8105	2,296.88	78.7363	2,296.88	76.9816	2,296.88	75.9234	2,296.88	79.1263	2,296.88	75.3697	2,296.88	77.3932	2,296.88	77.9955	2,296.88	73.5902	2,296.88	78.5103	2,296.88	73.1016	2,296.88	69.3534	2,296.88	68.5065
2,378.91	92.5434	2,378.91	91.9142	2,378.91	92.2219	2,378.91	91.1681	2,378.91	92.3828	2,378.91	90.2858	2,378.91	91.5877	2,378.91	88.8792	2,378.91	91.3317	2,378.91	86.8002	2,378.91	89.9975	2,378.91	85.5836	2,378.91	88.6708	2,378.91	83.9318	2,378.91	87.0298	2,378.91	80.2554	2,378.91	85.3164	2,378.91	80.154	2,378.91	83.664	2,378.91	78.9669	2,378.91	82.2276	2,378.91	78.8912	2,378.91	81.3795	2,378.91	77.5302	2,378.91	78.9337	2,378.91	75.8627	2,378.91	78.9427	2,378.91	78.4327	2,378.91	76.6671	2,378.91	74.2634	2,378.91	79.521	2,378.91	70.162	2,378.91	77.8371	2,378.91	72.5341	2,378.91	73.1607	2,378.91	73.0529
2,462.4	92.9861	2,462.4	92.526	2,462.4	92.695	2,462.4	91.883	2,462.4	92.5441	2,462.4	91.3035	2,462.4	92.1749	2,462.4	89.9731	2,462.4	91.3009	2,462.4	88.1097	2,462.4	90.446	2,462.4	86.3646	2,462.4	89.3146	2,462.4	84.7665	2,462.4	87.9146	2,462.4	81.797	2,462.4	86.0535	2,462.4	81.7817	2,462.4	83.1194	2,462.4	79.9467	2,462.4	82.5689	2,462.4	79.0457	2,462.4	81.4367	2,462.4	77.7714	2,462.4	79.829	2,462.4	75.6927	2,462.4	79.1611	2,462.4	78.4002	2,462.4	77.8651	2,462.4	78.5618	2,462.4	79.1038	2,462.4	73.0215	2,462.4	79.5055	2,462.4	71.2519	2,462.4	74.8957	2,462.4	74.7115
2,548.83	91.5945	2,548.83	91.2616	2,548.83	92.0022	2,548.83	91.496	2,548.83	91.2769	2,548.83	90.4636	2,548.83	91.1857	2,548.83	90.0196	2,548.83	90.0647	2,548.83	88.8039	2,548.83	89.2454	2,548.83	86.5467	2,548.83	87.9974	2,548.83	84.7839	2,548.83	86.6033	2,548.83	84.9007	2,548.83	85.1688	2,548.83	81.7573	2,548.83	82.7926	2,548.83	81.0191	2,548.83	81.3289	2,548.83	80.2489	2,548.83	80.3182	2,548.83	79.0323	2,548.83	78.8848	2,548.83	77.6312	2,548.83	77.9107	2,548.83	77.3773	2,548.83	75.5979	2,548.83	78.141	2,548.83	77.7154	2,548.83	73.531	2,548.83	79.205	2,548.83	70.6639	2,548.83	72.6686	2,548.83	69.9628
2,639.65	90.1351	2,639.65	90.4292	2,639.65	90.5258	2,639.65	89.7999	2,639.65	90.2057	2,639.65	89.4761	2,639.65	89.6926	2,639.65	88.4701	2,639.65	89.0446	2,639.65	87.6702	2,639.65	87.9088	2,639.65	86.5456	2,639.65	86.4674	2,639.65	84.8598	2,639.65	84.7441	2,639.65	84.1178	2,639.65	83.6698	2,639.65	81.7597	2,639.65	82.5158	2,639.65	80.4356	2,639.65	79.1398	2,639.65	79.1823	2,639.65	79.0408	2,639.65	79.0462	2,639.65	78.8732	2,639.65	76.5989	2,639.65	78.0341	2,639.65	76.0321	2,639.65	76.3005	2,639.65	77.4159	2,639.65	76.0761	2,639.65	72.5511	2,639.65	77.7267	2,639.65	71.5508	2,639.65	74.1104	2,639.65	64.8784
2,731.93	91.175	2,731.93	91.4745	2,731.93	91.1292	2,731.93	90.1681	2,731.93	91.3685	2,731.93	89.5776	2,731.93	90.4942	2,731.93	88.006	2,731.93	89.9097	2,731.93	86.6991	2,731.93	88.5539	2,731.93	85.5507	2,731.93	87.4473	2,731.93	84.6758	2,731.93	85.851	2,731.93	83.0268	2,731.93	84.1274	2,731.93	81.7943	2,731.93	82.0767	2,731.93	79.8082	2,731.93	80.5521	2,731.93	76.7526	2,731.93	80.1766	2,731.93	79.1205	2,731.93	78.0234	2,731.93	77.0447	2,731.93	78.5172	2,731.93	75.1175	2,731.93	78.0165	2,731.93	77.3069	2,731.93	76.16	2,731.93	72.9933	2,731.93	78.4813	2,731.93	63.9051	2,731.93	74.7561	2,731.93	62.1235
2,828.61	92.7749	2,828.61	92.5013	2,828.61	92.2401	2,828.61	91.8591	2,828.61	92.4058	2,828.61	91.2148	2,828.61	91.6445	2,828.61	89.6609	2,828.61	90.9377	2,828.61	87.0211	2,828.61	89.8651	2,828.61	86.7739	2,828.61	89.0591	2,828.61	84.9894	2,828.61	87.5206	2,828.61	81.72	2,828.61	85.5108	2,828.61	81.9561	2,828.61	83.6606	2,828.61	80.0155	2,828.61	82.6663	2,828.61	77.6446	2,828.61	81.1679	2,828.61	79.9825	2,828.61	79.0179	2,828.61	78.7472	2,828.61	80.2227	2,828.61	76.6806	2,828.61	79.0859	2,828.61	76.286	2,828.61	77.2683	2,828.61	72.4787	2,828.61	78.7011	2,828.61	69.8009	2,828.61	74.2642	2,828.61	72.8623
2,928.22	92.9707	2,928.22	92.5395	2,928.22	93.0514	2,928.22	92.1804	2,928.22	92.5625	2,928.22	91.3359	2,928.22	92.3214	2,928.22	90.3129	2,928.22	91.6121	2,928.22	88.9163	2,928.22	91.1182	2,928.22	87.1792	2,928.22	89.7624	2,928.22	84.8618	2,928.22	88.2201	2,928.22	83.0048	2,928.22	86.7239	2,928.22	82.6623	2,928.22	85.6893	2,928.22	81.6613	2,928.22	83.4022	2,928.22	80.7058	2,928.22	80.3062	2,928.22	79.6034	2,928.22	79.4343	2,928.22	80.8815	2,928.22	79.5592	2,928.22	78.217	2,928.22	80.1727	2,928.22	78.2844	2,928.22	79.0292	2,928.22	73.8852	2,928.22	78.2907	2,928.22	60.3652	2,928.22	77.8966	2,928.22	69.5101
3,030.76	92.6905	3,030.76	92.2121	3,030.76	93.1115	3,030.76	92.1418	3,030.76	92.7001	3,030.76	91.5026	3,030.76	92.4872	3,030.76	90.7	3,030.76	91.4965	3,030.76	89.5108	3,030.76	90.8266	3,030.76	87.6967	3,030.76	90.0489	3,030.76	85.0054	3,030.76	88.1082	3,030.76	84.8084	3,030.76	86.4846	3,030.76	82.0612	3,030.76	84.3726	3,030.76	81.9891	3,030.76	83.2531	3,030.76	80.8451	3,030.76	82.344	3,030.76	80.3615	3,030.76	81.7776	3,030.76	79.7733	3,030.76	79.5197	3,030.76	79.2549	3,030.76	81.3721	3,030.76	79.1411	3,030.76	78.5533	3,030.76	74.7218	3,030.76	80.3582	3,030.76	74.1886	3,030.76	77.4813	3,030.76	73.8734
3,137.7	91.9494	3,137.7	91.8524	3,137.7	92.6121	3,137.7	91.6634	3,137.7	92.0712	3,137.7	91.1968	3,137.7	92.0064	3,137.7	91.023	3,137.7	91.462	3,137.7	90.9071	3,137.7	90.6969	3,137.7	88.8419	3,137.7	89.5391	3,137.7	87.4517	3,137.7	88.6003	3,137.7	86.0986	3,137.7	87.2055	3,137.7	83.7398	3,137.7	85.8419	3,137.7	82.5426	3,137.7	83.6122	3,137.7	81.7554	3,137.7	82.5343	3,137.7	80.9199	3,137.7	82.3824	3,137.7	82.4508	3,137.7	80.7984	3,137.7	80.9953	3,137.7	82.1354	3,137.7	80.7996	3,137.7	79.8251	3,137.7	77.1172	3,137.7	80.4694	3,137.7	75.351	3,137.7	77.9454	3,137.7	75.3107
3,249.02	90.9349	3,249.02	91.1374	3,249.02	91.3077	3,249.02	91.055	3,249.02	91.0622	3,249.02	90.8861	3,249.02	90.8076	3,249.02	90.6187	3,249.02	90.5355	3,249.02	89.9804	3,249.02	89.9678	3,249.02	89.2274	3,249.02	89.6931	3,249.02	87.8597	3,249.02	88.8078	3,249.02	86.4756	3,249.02	87.5476	3,249.02	83.8305	3,249.02	86.4275	3,249.02	82.7142	3,249.02	84.2326	3,249.02	81.8988	3,249.02	82.3011	3,249.02	80.6628	3,249.02	81.7176	3,249.02	82.5394	3,249.02	80.8869	3,249.02	80.8702	3,249.02	82.4369	3,249.02	82.0926	3,249.02	81.4259	3,249.02	78.422	3,249.02	80.6019	3,249.02	75.0126	3,249.02	79.0245	3,249.02	71.3484
3,363.28	91.9535	3,363.28	91.8017	3,363.28	91.726	3,363.28	91.3568	3,363.28	91.8372	3,363.28	91.1815	3,363.28	91.4203	3,363.28	90.689	3,363.28	91.5317	3,363.28	89.633	3,363.28	90.5659	3,363.28	88.5171	3,363.28	89.5186	3,363.28	87.4597	3,363.28	88.0142	3,363.28	85.493	3,363.28	87.0667	3,363.28	82.6566	3,363.28	86.1372	3,363.28	81.8168	3,363.28	83.7656	3,363.28	81.8097	3,363.28	82.4923	3,363.28	79.2092	3,363.28	81.5939	3,363.28	80.6448	3,363.28	79.9113	3,363.28	79.8951	3,363.28	82.1776	3,363.28	80.9611	3,363.28	81.7685	3,363.28	76.5671	3,363.28	81.1185	3,363.28	68.9696	3,363.28	78.908	3,363.28	66.0675
3,481.93	92.1129	3,481.93	92.8124	3,481.93	91.423	3,481.93	93.159	3,481.93	92.4331	3,481.93	93.2374	3,481.93	92.2564	3,481.93	92.8471	3,481.93	91.9027	3,481.93	90.5457	3,481.93	91.1441	3,481.93	89.316	3,481.93	90.3763	3,481.93	87.6901	3,481.93	87.9827	3,481.93	85.8484	3,481.93	86.2624	3,481.93	82.9292	3,481.93	84.4002	3,481.93	81.7176	3,481.93	83.2926	3,481.93	81.4151	3,481.93	81.7622	3,481.93	80.0939	3,481.93	80.8955	3,481.93	81.7787	3,481.93	77.8177	3,481.93	79.9286	3,481.93	79.2633	3,481.93	80.783	3,481.93	80.2125	3,481.93	77.708	3,481.93	79.0837	3,481.93	66.438	3,481.93	77.0039	3,481.93	70.0968
3,604.98	92.6682	3,604.98	93.0282	3,604.98	92.2901	3,604.98	93.6929	3,604.98	92.5025	3,604.98	93.6713	3,604.98	93.1815	3,604.98	92.8291	3,604.98	93.1866	3,604.98	90.5311	3,604.98	93.0595	3,604.98	89.0884	3,604.98	91.8084	3,604.98	87.7029	3,604.98	89.8202	3,604.98	86.0309	3,604.98	87.4849	3,604.98	82.9213	3,604.98	85.4472	3,604.98	80.9559	3,604.98	83.9176	3,604.98	81.0726	3,604.98	82.2635	3,604.98	79.5195	3,604.98	81.1594	3,604.98	81.029	3,604.98	80.6531	3,604.98	81.3237	3,604.98	77.7136	3,604.98	79.3664	3,604.98	80.8482	3,604.98	76.7055	3,604.98	78.8538	3,604.98	66.8211	3,604.98	77.4298	3,604.98	67.4275
3,732.42	93.0624	3,732.42	93.4984	3,732.42	93.3615	3,732.42	94.2794	3,732.42	93.0637	3,732.42	94.5408	3,732.42	93.7989	3,732.42	93.2779	3,732.42	93.5385	3,732.42	91.7318	3,732.42	93.2165	3,732.42	89.7388	3,732.42	91.8162	3,732.42	88.0902	3,732.42	89.4533	3,732.42	86.0704	3,732.42	88.3439	3,732.42	83.6258	3,732.42	85.2522	3,732.42	82.0447	3,732.42	83.2018	3,732.42	80.3411	3,732.42	81.9961	3,732.42	80.4402	3,732.42	80.2853	3,732.42	80.8855	3,732.42	80.6828	3,732.42	82.1903	3,732.42	78.7938	3,732.42	79.6825	3,732.42	81.3582	3,732.42	78.418	3,732.42	79.5856	3,732.42	68.2149	3,732.42	79.1179	3,732.42	67.4844
3,864.26	92.1243	3,864.26	92.4229	3,864.26	92.4555	3,864.26	92.8602	3,864.26	92.4356	3,864.26	93.0754	3,864.26	93.0105	3,864.26	91.7098	3,864.26	93.2557	3,864.26	91.3978	3,864.26	92.8011	3,864.26	89.3971	3,864.26	90.8389	3,864.26	87.5246	3,864.26	88.7486	3,864.26	85.5574	3,864.26	87.1071	3,864.26	83.7672	3,864.26	84.6939	3,864.26	82.1409	3,864.26	82.7972	3,864.26	80.7169	3,864.26	80.5549	3,864.26	80.6419	3,864.26	79.605	3,864.26	80.0087	3,864.26	78.0378	3,864.26	81.4783	3,864.26	77.4308	3,864.26	80.963	3,864.26	80.0968	3,864.26	77.3987	3,864.26	78.2266	3,864.26	65.6797	3,864.26	79.1459	3,864.26	65.2697
4,000.49	91.8528	4,000.49	92.4846	4,000.49	91.5728	4,000.49	93.076	4,000.49	92.8579	4,000.49	92.6774	4,000.49	93.2187	4,000.49	91.7338	4,000.49	93.6175	4,000.49	91.0584	4,000.49	92.6652	4,000.49	88.728	4,000.49	90.7243	4,000.49	86.9737	4,000.49	89.2646	4,000.49	84.4479	4,000.49	87.6452	4,000.49	83.399	4,000.49	84.8741	4,000.49	79.8464	4,000.49	83.4282	4,000.49	80.2263	4,000.49	80.2802	4,000.49	79.3371	4,000.49	80.9665	4,000.49	77.3587	4,000.49	80.1246	4,000.49	80.8604	4,000.49	77.5034	4,000.49	79.6619	4,000.49	79.9903	4,000.49	77.4353	4,000.49	79.6841	4,000.49	52.813	4,000.49	79.0467	4,000.49	57.637
4,141.11	92.775	4,141.11	94.2658	4,141.11	92.2706	4,141.11	93.7708	4,141.11	93.3464	4,141.11	93.7315	4,141.11	93.5375	4,141.11	93.6008	4,141.11	93.6555	4,141.11	91.7105	4,141.11	92.6104	4,141.11	90.0897	4,141.11	91.1736	4,141.11	87.7802	4,141.11	89.8444	4,141.11	84.1745	4,141.11	86.7042	4,141.11	84.526	4,141.11	84.3808	4,141.11	81.6502	4,141.11	83.4268	4,141.11	80.2661	4,141.11	79.4699	4,141.11	79.0189	4,141.11	80.4479	4,141.11	79.4172	4,141.11	78.1918	4,141.11	80.3874	4,141.11	77.9467	4,141.11	77.7147	4,141.11	79.3151	4,141.11	77.7174	4,141.11	79.8749	4,141.11	65.3472	4,141.11	79.2254	4,141.11	68.3652
4,287.6	93.5275	4,287.6	93.6003	4,287.6	93.9454	4,287.6	94.1158	4,287.6	93.1632	4,287.6	93.6255	4,287.6	93.6601	4,287.6	92.7879	4,287.6	92.6375	4,287.6	91.3151	4,287.6	91.6488	4,287.6	89.8889	4,287.6	91.3182	4,287.6	87.7423	4,287.6	90.5073	4,287.6	86.0545	4,287.6	87.5662	4,287.6	84.4305	4,287.6	86.1753	4,287.6	81.9883	4,287.6	83.6799	4,287.6	78.9844	4,287.6	81.7297	4,287.6	80.4816	4,287.6	77.7579	4,287.6	76.2851	4,287.6	79.8252	4,287.6	78.6431	4,287.6	79.3934	4,287.6	78.5849	4,287.6	79.8737	4,287.6	75.8569	4,287.6	77.5411	4,287.6	69.43	4,287.6	79.6152	4,287.6	63.0702
4,438.48	93.8758	4,438.48	93.4176	4,438.48	93.802	4,438.48	94.7216	4,438.48	93.3353	4,438.48	93.5783	4,438.48	92.5485	4,438.48	91.9264	4,438.48	93.47	4,438.48	91.0039	4,438.48	92.7444	4,438.48	90.5703	4,438.48	91.7684	4,438.48	88.3326	4,438.48	90.9604	4,438.48	85.6886	4,438.48	87.7068	4,438.48	82.9528	4,438.48	86.7681	4,438.48	79.3302	4,438.48	83.2094	4,438.48	79.5901	4,438.48	81.761	4,438.48	80.8031	4,438.48	81.272	4,438.48	80.3006	4,438.48	78.687	4,438.48	78.7789	4,438.48	79.448	4,438.48	75.2951	4,438.48	80.144	4,438.48	76.3122	4,438.48	77.0271	4,438.48	66.6111	4,438.48	77.8498	4,438.48	59.6175
4,595.21	91.929	4,595.21	92.5001	4,595.21	91.945	4,595.21	91.1315	4,595.21	93.1122	4,595.21	91.3728	4,595.21	93.295	4,595.21	91.1864	4,595.21	93.3817	4,595.21	89.9611	4,595.21	93.4608	4,595.21	88.7167	4,595.21	92.0624	4,595.21	87.5291	4,595.21	90.4693	4,595.21	84.3067	4,595.21	89.8452	4,595.21	83.6928	4,595.21	87.1452	4,595.21	80.9923	4,595.21	84.7514	4,595.21	79.8446	4,595.21	83.6134	4,595.21	79.9343	4,595.21	80.8688	4,595.21	80.7443	4,595.21	79.6999	4,595.21	80.274	4,595.21	79.4375	4,595.21	76.4646	4,595.21	80.3884	4,595.21	75.8975	4,595.21	79.4642	4,595.21	65.3604	4,595.21	74.0551	4,595.21	63.1521
4,756.35	92.8806	4,756.35	92.0262	4,756.35	94.2427	4,756.35	92.8359	4,756.35	93.8438	4,756.35	92.0429	4,756.35	94.6517	4,756.35	91.87	4,756.35	94.0384	4,756.35	90.3658	4,756.35	92.9875	4,756.35	87.7755	4,756.35	92.992	4,756.35	83.0279	4,756.35	91.589	4,756.35	83.1251	4,756.35	88.6638	4,756.35	80.9674	4,756.35	88.2501	4,756.35	81.8881	4,756.35	85.2047	4,756.35	75.384	4,756.35	84.1401	4,756.35	78.6921	4,756.35	80.7793	4,756.35	77.4078	4,756.35	81.7308	4,756.35	79.8326	4,756.35	80.0879	4,756.35	75.9999	4,756.35	80.9949	4,756.35	76.516	4,756.35	80.5957	4,756.35	70.145	4,756.35	76.8236	4,756.35	65.9663
4,924.8	93.1555	4,924.8	92.6297	4,924.8	92.5079	4,924.8	93.84	4,924.8	92.7368	4,924.8	93.0519	4,924.8	93.3578	4,924.8	93.0951	4,924.8	93.3461	4,924.8	91.5711	4,924.8	92.985	4,924.8	89.8239	4,924.8	91.7658	4,924.8	87.838	4,924.8	90.3315	4,924.8	86.2445	4,924.8	89.4843	4,924.8	81.9878	4,924.8	86.2761	4,924.8	81.594	4,924.8	83.1529	4,924.8	80.1943	4,924.8	80.8577	4,924.8	77.1936	4,924.8	80.3846	4,924.8	76.7926	4,924.8	80.3226	4,924.8	77.428	4,924.8	76.5664	4,924.8	77.5795	4,924.8	77.9137	4,924.8	76.7561	4,924.8	78.5528	4,924.8	71.5411	4,924.8	77.8702	4,924.8	59.707
5,097.66	91.5853	5,097.66	92.5258	5,097.66	91.309	5,097.66	90.6129	5,097.66	93.0738	5,097.66	92.5483	5,097.66	92.5582	5,097.66	90.955	5,097.66	93.7314	5,097.66	90.6295	5,097.66	93.6427	5,097.66	89.923	5,097.66	92.017	5,097.66	88.6183	5,097.66	89.4101	5,097.66	86.2975	5,097.66	88.6608	5,097.66	83.2104	5,097.66	85.1687	5,097.66	77.7643	5,097.66	83.5772	5,097.66	79.1826	5,097.66	82.2512	5,097.66	80.044	5,097.66	76.3896	5,097.66	76.7276	5,097.66	77.9041	5,097.66	78.6881	5,097.66	76.5106	5,097.66	78.1396	5,097.66	78.7645	5,097.66	73.1446	5,097.66	79.1773	5,097.66	57.4762	5,097.66	76.2912	5,097.66	53.7013
5,277.83	92.053	5,277.83	92.1795	5,277.83	93.0637	5,277.83	92.4328	5,277.83	91.6166	5,277.83	92.0794	5,277.83	93.0049	5,277.83	93.0099	5,277.83	92.1516	5,277.83	91.9754	5,277.83	91.4803	5,277.83	90.7711	5,277.83	91.2109	5,277.83	89.1237	5,277.83	89.4761	5,277.83	85.643	5,277.83	85.4398	5,277.83	84.0885	5,277.83	85.2516	5,277.83	82.1627	5,277.83	81.812	5,277.83	78.7064	5,277.83	80.6506	5,277.83	74.8033	5,277.83	79.2942	5,277.83	74.3783	5,277.83	76.3071	5,277.83	77.9885	5,277.83	77.4152	5,277.83	76.6574	5,277.83	77.9697	5,277.83	75.889	5,277.83	78.6925	5,277.83	69.0073	5,277.83	75.1456	5,277.83	59.4058
5,463.87	93.4442	5,463.87	92.7622	5,463.87	92.934	5,463.87	92.6809	5,463.87	92.8173	5,463.87	93.0321	5,463.87	91.4904	5,463.87	93.255	5,463.87	91.8423	5,463.87	92.0468	5,463.87	91.5938	5,463.87	90.1867	5,463.87	90.1023	5,463.87	87.3097	5,463.87	87.7276	5,463.87	86.7662	5,463.87	87.6803	5,463.87	83.105	5,463.87	84.7162	5,463.87	83.5006	5,463.87	83.5322	5,463.87	78.6193	5,463.87	79.9641	5,463.87	77.9304	5,463.87	75.7865	5,463.87	75.719	5,463.87	79.0712	5,463.87	74.8934	5,463.87	78.0908	5,463.87	76.9965	5,463.87	76.1434	5,463.87	73.2341	5,463.87	78.571	5,463.87	71.4501	5,463.87	69.8433	5,463.87	65.9283
5,657.23	94.2673	5,657.23	93.5474	5,657.23	94.0644	5,657.23	92.6152	5,657.23	93.1816	5,657.23	92.6963	5,657.23	91.5282	5,657.23	91.5061	5,657.23	92.0768	5,657.23	90.721	5,657.23	92.0181	5,657.23	88.7465	5,657.23	90.4985	5,657.23	87.7105	5,657.23	89.3525	5,657.23	82.5827	5,657.23	87.0674	5,657.23	80.6099	5,657.23	82.5045	5,657.23	72.3019	5,657.23	80.2371	5,657.23	73.9434	5,657.23	78.8083	5,657.23	76.5313	5,657.23	77.4983	5,657.23	75.3097	5,657.23	74.8921	5,657.23	75.8538	5,657.23	76.857	5,657.23	74.4255	5,657.23	76.0863	5,657.23	65.3125	5,657.23	77.3152	5,657.23	69.3585	5,657.23	73.5712	5,657.23	65.9687
5,856.45	93.9539	5,856.45	93.4247	5,856.45	94.4902	5,856.45	92.9755	5,856.45	92.7011	5,856.45	91.8838	5,856.45	93.0205	5,856.45	91.2769	5,856.45	91.987	5,856.45	89.673	5,856.45	90.9336	5,856.45	88.0221	5,856.45	90.5297	5,856.45	86.8906	5,856.45	88.8713	5,856.45	81.3998	5,856.45	85.2812	5,856.45	80.784	5,856.45	82.8505	5,856.45	74.6383	5,856.45	80.7433	5,856.45	73.7966	5,856.45	77.8524	5,856.45	76.1587	5,856.45	74.3235	5,856.45	75.6339	5,856.45	75.2457	5,856.45	76.7404	5,856.45	76.8219	5,856.45	74.8435	5,856.45	75.0247	5,856.45	70.7745	5,856.45	75.6708	5,856.45	68.7736	5,856.45	70.2198	5,856.45	65.4229
6,062.99	94.3793	6,062.99	93.6117	6,062.99	93.9393	6,062.99	93.3246	6,062.99	93.5438	6,062.99	92.7962	6,062.99	91.9434	6,062.99	92.1559	6,062.99	92.7333	6,062.99	89.9666	6,062.99	91.7858	6,062.99	86.9401	6,062.99	89.8043	6,062.99	80.274	6,062.99	87.1192	6,062.99	81.0488	6,062.99	85.1136	6,062.99	77.0337	6,062.99	83.3255	6,062.99	77.3408	6,062.99	78.3246	6,062.99	74.8706	6,062.99	78.023	6,062.99	74.1442	6,062.99	74.4472	6,062.99	76.3135	6,062.99	74.7017	6,062.99	73.9881	6,062.99	75.4089	6,062.99	74.7662	6,062.99	76.2409	6,062.99	68.9252	6,062.99	75.7934	6,062.99	73.0924	6,062.99	71.0731	6,062.99	68.2982
6,276.86	93.3466	6,276.86	92.4855	6,276.86	93.8441	6,276.86	92.1441	6,276.86	92.7065	6,276.86	92.085	6,276.86	92.1222	6,276.86	91.2693	6,276.86	91.1478	6,276.86	89.9527	6,276.86	91.2926	6,276.86	87.7114	6,276.86	90.0264	6,276.86	85.4183	6,276.86	89.5173	6,276.86	83.1598	6,276.86	86.0532	6,276.86	79.9652	6,276.86	83.0834	6,276.86	77.9072	6,276.86	81.0595	6,276.86	75.7014	6,276.86	78.1275	6,276.86	74.5804	6,276.86	73.5813	6,276.86	79.6588	6,276.86	74.6301	6,276.86	78.7516	6,276.86	72.0038	6,276.86	76.614	6,276.86	74.4472	6,276.86	70.0161	6,276.86	77.0625	6,276.86	68.9318	6,276.86	73.1576	6,276.86	69.7098
6,498.05	94.2367	6,498.05	93.3049	6,498.05	94.4757	6,498.05	92.6347	6,498.05	92.9604	6,498.05	92.4988	6,498.05	92.7191	6,498.05	91.9285	6,498.05	91.8468	6,498.05	90.7991	6,498.05	90.6621	6,498.05	88.3875	6,498.05	90.5304	6,498.05	86.8035	6,498.05	88.9433	6,498.05	83.7671	6,498.05	86.5262	6,498.05	81.1479	6,498.05	84.6316	6,498.05	78.1961	6,498.05	82.4406	6,498.05	76.4342	6,498.05	78.4522	6,498.05	75.0008	6,498.05	77.244	6,498.05	77.4731	6,498.05	75.2827	6,498.05	76.5541	6,498.05	74.3572	6,498.05	77.0905	6,498.05	76.8535	6,498.05	68.7049	6,498.05	77.4572	6,498.05	66.2487	6,498.05	72.7839	6,498.05	64.4137
6,726.56	94.3602	6,726.56	93.8006	6,726.56	94.3837	6,726.56	92.4036	6,726.56	93.7812	6,726.56	92.0605	6,726.56	91.8649	6,726.56	91.8437	6,726.56	92.0111	6,726.56	89.5038	6,726.56	91.7406	6,726.56	89.1342	6,726.56	89.82	6,726.56	86.2754	6,726.56	87.8656	6,726.56	83.7833	6,726.56	86.3559	6,726.56	80.6231	6,726.56	84.0039	6,726.56	78.2745	6,726.56	81.0215	6,726.56	76.1704	6,726.56	77.788	6,726.56	72.8464	6,726.56	76.8826	6,726.56	73.934	6,726.56	70.3491	6,726.56	75.974	6,726.56	72.1076	6,726.56	75.4436	6,726.56	77.8374	6,726.56	68.9326	6,726.56	75.2987	6,726.56	67.6508	6,726.56	70.7668	6,726.56	61.3104
6,963.87	94.1275	6,963.87	93.569	6,963.87	94.7984	6,963.87	91.674	6,963.87	93.5733	6,963.87	91.602	6,963.87	92.268	6,963.87	90.6999	6,963.87	90.7926	6,963.87	90.6694	6,963.87	90.8813	6,963.87	87.1035	6,963.87	90.3735	6,963.87	85.3582	6,963.87	88.6219	6,963.87	82.731	6,963.87	85.9368	6,963.87	79.959	6,963.87	82.526	6,963.87	75.6201	6,963.87	80.9164	6,963.87	77.5772	6,963.87	78.9252	6,963.87	72.5153	6,963.87	74.4493	6,963.87	70.4811	6,963.87	74.0572	6,963.87	71.7757	6,963.87	75.369	6,963.87	74.6116	6,963.87	73.3329	6,963.87	65.7434	6,963.87	74.8618	6,963.87	64.9051	6,963.87	69.7912	6,963.87	63.3701
7,209.96	94.6189	7,209.96	93.7255	7,209.96	94.6579	7,209.96	92.7741	7,209.96	93.9017	7,209.96	91.906	7,209.96	92.7718	7,209.96	91.1484	7,209.96	92.2663	7,209.96	89.8047	7,209.96	91.4384	7,209.96	87.9618	7,209.96	90.2463	7,209.96	86.3212	7,209.96	88.2302	7,209.96	84.3897	7,209.96	86.5477	7,209.96	81.1097	7,209.96	83.7963	7,209.96	77.7879	7,209.96	81.2935	7,209.96	75.2495	7,209.96	77.7894	7,209.96	71.9932	7,209.96	78.2969	7,209.96	73.3876	7,209.96	71.6916	7,209.96	75.0192	7,209.96	74.4645	7,209.96	76.1556	7,209.96	76.2955	7,209.96	65.0775	7,209.96	76.3232	7,209.96	68.2763	7,209.96	66.8102	7,209.96	66.4078
7,464.84	94.1122	7,464.84	93.9246	7,464.84	93.9628	7,464.84	92.579	7,464.84	93.4703	7,464.84	91.6987	7,464.84	91.9013	7,464.84	90.472	7,464.84	91.2378	7,464.84	88.6334	7,464.84	91.2858	7,464.84	88.18	7,464.84	89.2576	7,464.84	85.6914	7,464.84	88.2039	7,464.84	82.1247	7,464.84	85.316	7,464.84	77.765	7,464.84	82.6958	7,464.84	75.824	7,464.84	78.6878	7,464.84	70.9663	7,464.84	78.3825	7,464.84	72.9307	7,464.84	73.3775	7,464.84	73.2218	7,464.84	75.5133	7,464.84	72.7958	7,464.84	74.3612	7,464.84	73.1715	7,464.84	71.4862	7,464.84	65.6416	7,464.84	75.0982	7,464.84	66.3137	7,464.84	68.1639	7,464.84	64.6783
7,727.05	94.4372	7,727.05	94.5448	7,727.05	94.614	7,727.05	92.5086	7,727.05	94.4464	7,727.05	90.844	7,727.05	93.6192	7,727.05	90.821	7,727.05	91.5486	7,727.05	90.0579	7,727.05	90.873	7,727.05	87.6652	7,727.05	90.8	7,727.05	86.4025	7,727.05	89.8875	7,727.05	83.0112	7,727.05	87.0098	7,727.05	81.3839	7,727.05	84.9859	7,727.05	76.855	7,727.05	80.7121	7,727.05	71.2068	7,727.05	78.4732	7,727.05	74.4205	7,727.05	74.3198	7,727.05	74.5641	7,727.05	74.5074	7,727.05	75.1416	7,727.05	74.1941	7,727.05	75.9325	7,727.05	76.251	7,727.05	64.1037	7,727.05	76.122	7,727.05	70.9515	7,727.05	70.8578	7,727.05	63.4594
7,999.51	94.8842	7,999.51	94.3232	7,999.51	94.6155	7,999.51	91.8493	7,999.51	94.3421	7,999.51	91.0057	7,999.51	92.6955	7,999.51	91.0354	7,999.51	92.2742	7,999.51	90.3873	7,999.51	91.4433	7,999.51	89.4838	7,999.51	91.8143	7,999.51	87.9153	7,999.51	90.4672	7,999.51	84.6134	7,999.51	87.9414	7,999.51	82.5236	7,999.51	86.0994	7,999.51	79.4183	7,999.51	83.0516	7,999.51	77.2734	7,999.51	79.9713	7,999.51	74.2975	7,999.51	78.4054	7,999.51	76.9748	7,999.51	70.6334	7,999.51	77.0273	7,999.51	74.7029	7,999.51	75.9525	7,999.51	76.4809	7,999.51	65.9667	7,999.51	73.5515	7,999.51	71.6978	7,999.51	68.0499	7,999.51	66.9298
8,282.23	95.2594	8,282.23	94.1539	8,282.23	95.4492	8,282.23	93.2965	8,282.23	95.6375	8,282.23	92.2531	8,282.23	93.9401	8,282.23	92.707	8,282.23	92.5561	8,282.23	93.0834	8,282.23	92.3103	8,282.23	90.9529	8,282.23	92.8747	8,282.23	89.6591	8,282.23	92.3119	8,282.23	85.6391	8,282.23	90.2897	8,282.23	83.1982	8,282.23	87.2284	8,282.23	79.1211	8,282.23	83.5011	8,282.23	76.9884	8,282.23	81.3621	8,282.23	76.7779	8,282.23	75.883	8,282.23	78.0711	8,282.23	77.8898	8,282.23	77.3088	8,282.23	77.9829	8,282.23	74.6212	8,282.23	77.9726	8,282.23	62.5474	8,282.23	74.9016	8,282.23	73.5096	8,282.23	71.7348	8,282.23	69.49
8,573.73	95.2807	8,573.73	94.877	8,573.73	96.2171	8,573.73	93.0639	8,573.73	94.869	8,573.73	92.6051	8,573.73	94.373	8,573.73	92.8642	8,573.73	93.0563	8,573.73	92.632	8,573.73	93.2151	8,573.73	91.1601	8,573.73	92.5784	8,573.73	87.7645	8,573.73	91.1444	8,573.73	86.1031	8,573.73	89.4908	8,573.73	81.8311	8,573.73	85.9325	8,573.73	80.7346	8,573.73	83.1021	8,573.73	77.6688	8,573.73	79.8865	8,573.73	75.4413	8,573.73	75.9912	8,573.73	77.9368	8,573.73	76.4529	8,573.73	78.0326	8,573.73	76.9296	8,573.73	76.2447	8,573.73	76.3694	8,573.73	51.7435	8,573.73	74.6137	8,573.73	72.4723	8,573.73	64.625	8,573.73	66.2292
8,876.95	95.1505	8,876.95	94.5226	8,876.95	95.2916	8,876.95	93.0127	8,876.95	94.7346	8,876.95	91.5583	8,876.95	94.0881	8,876.95	91.6428	8,876.95	92.4757	8,876.95	91.2896	8,876.95	91.8511	8,876.95	89.5492	8,876.95	91.4288	8,876.95	85.9642	8,876.95	89.518	8,876.95	84.9782	8,876.95	89.0071	8,876.95	79.3164	8,876.95	84.8288	8,876.95	79.0144	8,876.95	82.3261	8,876.95	76.202	8,876.95	78.1095	8,876.95	72.3998	8,876.95	73.4671	8,876.95	76.4924	8,876.95	75.8473	8,876.95	76.8534	8,876.95	74.999	8,876.95	73.0376	8,876.95	76.874	8,876.95	40.8089	8,876.95	72.6544	8,876.95	69.4819	8,876.95	62.2494	8,876.95	66.3275
9,188.96	92.8452	9,188.96	92.3163	9,188.96	92.9026	9,188.96	91.5422	9,188.96	92.5803	9,188.96	90.377	9,188.96	91.6354	9,188.96	90.5434	9,188.96	90.7448	9,188.96	89.7346	9,188.96	90.0933	9,188.96	88.9915	9,188.96	90.1318	9,188.96	85.915	9,188.96	89.0937	9,188.96	83.9661	9,188.96	87.7962	9,188.96	80.6375	9,188.96	84.4245	9,188.96	78.1746	9,188.96	80.7159	9,188.96	74.8296	9,188.96	77.2949	9,188.96	72.0004	9,188.96	74.2814	9,188.96	70.5157	9,188.96	73.1822	9,188.96	75.237	9,188.96	72.6473	9,188.96	71.7896	9,188.96	74.1062	9,188.96	46.153	9,188.96	72.7512	9,188.96	67.4114	9,188.96	62.0577	9,188.96	63.8532
9,514.16	91.9525	9,514.16	92.3599	9,514.16	91.7818	9,514.16	90.8737	9,514.16	92.1378	9,514.16	88.7264	9,514.16	90.8858	9,514.16	88.7561	9,514.16	89.6596	9,514.16	88.6425	9,514.16	89.4255	9,514.16	87.4644	9,514.16	89.0968	9,514.16	86.1727	9,514.16	87.8899	9,514.16	83.1944	9,514.16	87.3601	9,514.16	79.4918	9,514.16	83.9663	9,514.16	75.9225	9,514.16	81.1565	9,514.16	72.9129	9,514.16	78.4639	9,514.16	69.752	9,514.16	74.5962	9,514.16	71.5476	9,514.16	71.3871	9,514.16	75.1786	9,514.16	71.418	9,514.16	70.775	9,514.16	74.751	9,514.16	57.2121	9,514.16	71.3269	9,514.16	63.6832	9,514.16	61.4717	9,514.16	65.4939
9,849.61	90.7036	9,849.61	90.6195	9,849.61	91.4024	9,849.61	89.2443	9,849.61	91.3061	9,849.61	89.0895	9,849.61	90.8229	9,849.61	87.4126	9,849.61	89.5356	9,849.61	87.5583	9,849.61	88.4409	9,849.61	86.4425	9,849.61	88.1272	9,849.61	84.0405	9,849.61	86.5442	9,849.61	81.4917	9,849.61	84.9732	9,849.61	78.4054	9,849.61	82.5036	9,849.61	76.5078	9,849.61	79.511	9,849.61	73.2871	9,849.61	75.3865	9,849.61	67.3637	9,849.61	70.9972	9,849.61	69.3472	9,849.61	71.3187	9,849.61	72.1931	9,849.61	71.6954	9,849.61	71.0323	9,849.61	72.1357	9,849.61	56.5285	9,849.61	71.2852	9,849.61	65.6696	9,849.61	61.464	9,849.61	60.321
10,196.8	91.9922	10,196.8	91.1584	10,196.8	92.456	10,196.8	89.7548	10,196.8	92.0779	10,196.8	87.4872	10,196.8	91.4069	10,196.8	87.0769	10,196.8	89.9932	10,196.8	87.2661	10,196.8	88.4894	10,196.8	85.652	10,196.8	88.599	10,196.8	82.9276	10,196.8	87.8076	10,196.8	81.3981	10,196.8	85.6499	10,196.8	78.3135	10,196.8	83.0734	10,196.8	75.2173	10,196.8	79.8984	10,196.8	70.5113	10,196.8	76.6255	10,196.8	64.2815	10,196.8	75.1517	10,196.8	69.1129	10,196.8	70.9839	10,196.8	72.7295	10,196.8	70.1318	10,196.8	71.0115	10,196.8	73.6034	10,196.8	58.716	10,196.8	72.6588	10,196.8	66.4121	10,196.8	67.876	10,196.8	65.2852
10,555.7	91.1157	10,555.7	90.5682	10,555.7	91.0095	10,555.7	90.4311	10,555.7	90.8109	10,555.7	88.9439	10,555.7	90.5138	10,555.7	88.1611	10,555.7	89.9318	10,555.7	87.2879	10,555.7	88.4774	10,555.7	86.6269	10,555.7	89.3372	10,555.7	85.0805	10,555.7	89.1449	10,555.7	80.6875	10,555.7	86.8798	10,555.7	78.0825	10,555.7	83.895	10,555.7	74.4098	10,555.7	79.7551	10,555.7	70.8882	10,555.7	77.6391	10,555.7	69.1433	10,555.7	76.0352	10,555.7	70.4017	10,555.7	67.8203	10,555.7	71.8457	10,555.7	69.5678	10,555.7	68.8219	10,555.7	74.3321	10,555.7	60.6717	10,555.7	71.0706	10,555.7	42.6494	10,555.7	66.9833	10,555.7	67.3157
10,927.7	89.9447	10,927.7	90.5565	10,927.7	90.2063	10,927.7	91.1852	10,927.7	90.3587	10,927.7	90.3387	10,927.7	91.6949	10,927.7	88.3299	10,927.7	91.3978	10,927.7	88.9248	10,927.7	89.7547	10,927.7	87.4354	10,927.7	89.5696	10,927.7	86.7637	10,927.7	88.9737	10,927.7	81.5477	10,927.7	87.1812	10,927.7	78.9872	10,927.7	84.0522	10,927.7	73.3204	10,927.7	79.1162	10,927.7	71.7147	10,927.7	76.5424	10,927.7	69.2725	10,927.7	72.8688	10,927.7	68.0035	10,927.7	72.5404	10,927.7	71.5076	10,927.7	70.1569	10,927.7	67.0162	10,927.7	72.7166	10,927.7	60.2602	10,927.7	69.6167	10,927.7	56.8327	10,927.7	64.121	10,927.7	67.9564
11,313	90.6552	11,313	90.7234	11,313	91.2214	11,313	90.9316	11,313	91.4056	11,313	90.6812	11,313	92.1945	11,313	89.4406	11,313	91.6188	11,313	89.2803	11,313	90.4534	11,313	89.0208	11,313	90.047	11,313	86.5129	11,313	89.3675	11,313	83.2557	11,313	87.0977	11,313	79.2126	11,313	84.2021	11,313	75.7832	11,313	80.2447	11,313	71.3631	11,313	77.7301	11,313	68.0859	11,313	73.808	11,313	65.7041	11,313	67.8915	11,313	71.0078	11,313	69.2589	11,313	66.1608	11,313	70.8835	11,313	49.435	11,313	69.006	11,313	55.5464	11,313	59.9389	11,313	66.0578
11,712.9	90.86	11,712.9	90.2819	11,712.9	90.8095	11,712.9	91.1627	11,712.9	90.748	11,712.9	91.2853	11,712.9	91.4201	11,712.9	91.2096	11,712.9	92.1519	11,712.9	90.5708	11,712.9	91.8678	11,712.9	89.2018	11,712.9	91.0677	11,712.9	86.3133	11,712.9	89.6514	11,712.9	83.5208	11,712.9	87.1045	11,712.9	80.5662	11,712.9	84.1721	11,712.9	76.6796	11,712.9	80.8734	11,712.9	73.5145	11,712.9	75.9745	11,712.9	69.043	11,712.9	74.2435	11,712.9	69.1168	11,712.9	69.2234	11,712.9	71.5852	11,712.9	66.5847	11,712.9	65.8408	11,712.9	69.7466	11,712.9	59.6228	11,712.9	68.6721	11,712.9	61.7405	11,712.9	60.5367	11,712.9	65.1665
12,126	92.9713	12,126	92.9718	12,126	93.0115	12,126	92.1923	12,126	92.8585	12,126	92.0151	12,126	92.2157	12,126	90.9557	12,126	92.2168	12,126	90.4974	12,126	91.165	12,126	89.7642	12,126	90.6889	12,126	87.5905	12,126	90.5372	12,126	84.4042	12,126	88.8636	12,126	80.2082	12,126	84.9495	12,126	76.6495	12,126	80.9906	12,126	72.9137	12,126	77.8805	12,126	68.7524	12,126	74.7731	12,126	69.2237	12,126	67.0023	12,126	72.3627	12,126	66.98	12,126	66.8637	12,126	69.9519	12,126	59.1216	12,126	69.9413	12,126	61.3057	12,126	61.8815	12,126	65.7883
12,553.7	94.3922	12,553.7	93.7942	12,553.7	94.7415	12,553.7	92.1269	12,553.7	94.3142	12,553.7	91.3117	12,553.7	93.2121	12,553.7	89.0275	12,553.7	91.9624	12,553.7	88.5621	12,553.7	89.7501	12,553.7	88.0275	12,553.7	88.4191	12,553.7	86.1553	12,553.7	88.5043	12,553.7	82.6518	12,553.7	86.5282	12,553.7	79.1846	12,553.7	82.9204	12,553.7	75.4309	12,553.7	78.3632	12,553.7	71.9722	12,553.7	77.0953	12,553.7	68.5624	12,553.7	72.1965	12,553.7	66.8189	12,553.7	69.136	12,553.7	70.678	12,553.7	67.4931	12,553.7	63.5633	12,553.7	68.2096	12,553.7	56.5924	12,553.7	66.9904	12,553.7	58.5344	12,553.7	58.332	12,553.7	62.3552
12,996.1	94.5427	12,996.1	93.9076	12,996.1	94.9883	12,996.1	92.3841	12,996.1	94.4778	12,996.1	90.0707	12,996.1	93.1362	12,996.1	86.8713	12,996.1	90.7482	12,996.1	84.1451	12,996.1	87.4285	12,996.1	83.9099	12,996.1	83.9256	12,996.1	82.1281	12,996.1	82.8398	12,996.1	79.8427	12,996.1	81.1887	12,996.1	74.696	12,996.1	77.802	12,996.1	73.6793	12,996.1	74.923	12,996.1	68.3189	12,996.1	70.6828	12,996.1	64.6656	12,996.1	66.9569	12,996.1	63.3921	12,996.1	63.3966	12,996.1	65.8792	12,996.1	61.508	12,996.1	60.9942	12,996.1	62.3912	12,996.1	44.5075	12,996.1	61.6774	12,996.1	60.099	12,996.1	49.5847	12,996.1	57.8511
13,454.6	94.1316	13,454.6	93.1195	13,454.6	94.5794	13,454.6	90.91	13,454.6	93.8125	13,454.6	87.981	13,454.6	91.934	13,454.6	84.1711	13,454.6	88.2712	13,454.6	79.7491	13,454.6	83.0598	13,454.6	79.5627	13,454.6	76.3777	13,454.6	78.5156	13,454.6	72.1912	13,454.6	75.9612	13,454.6	72.622	13,454.6	71.7271	13,454.6	69.9684	13,454.6	69.2	13,454.6	67.2767	13,454.6	64.8865	13,454.6	62.4768	13,454.6	60.0498	13,454.6	57.1436	13,454.6	59.5616	13,454.6	52.1744	13,454.6	60.0516	13,454.6	52.6157	13,454.6	57.8219	13,454.6	54.4829	13,454.6	45.6276	13,454.6	54.8472	13,454.6	59.9289	13,454.6	46.1654	13,454.6	54.7366
13,929.2	93.7947	13,929.2	92.16	13,929.2	94.0808	13,929.2	88.697	13,929.2	92.6977	13,929.2	84.5895	13,929.2	89.7533	13,929.2	79.9155	13,929.2	85.5778	13,929.2	74.2248	13,929.2	81.1182	13,929.2	74.9923	13,929.2	76.3469	13,929.2	75.6172	13,929.2	70.6371	13,929.2	72.687	13,929.2	69.8209	13,929.2	69.7417	13,929.2	66.1454	13,929.2	66.0338	13,929.2	62.0867	13,929.2	63.4309	13,929.2	59.172	13,929.2	58.6848	13,929.2	52.791	13,929.2	58.4976	13,929.2	54.0357	13,929.2	58.5529	13,929.2	39.0736	13,929.2	50.3869	13,929.2	51.9814	13,929.2	46.0318	13,929.2	57.1525	13,929.2	56.4696	13,929.2	40.9356	13,929.2	49.233
14,419.9	93.7687	14,419.9	91.7281	14,419.9	93.9934	14,419.9	87.693	14,419.9	91.9308	14,419.9	82.6625	14,419.9	88.682	14,419.9	78.2095	14,419.9	85.0128	14,419.9	72.3364	14,419.9	81.8742	14,419.9	73.6067	14,419.9	77.2045	14,419.9	74.8536	14,419.9	70.9552	14,419.9	72.6273	14,419.9	69.7128	14,419.9	68.9312	14,419.9	67.0803	14,419.9	65.4752	14,419.9	64.2996	14,419.9	62.6611	14,419.9	61.1581	14,419.9	55.8553	14,419.9	54.5786	14,419.9	56.3124	14,419.9	54.0679	14,419.9	59.8736	14,419.9	44.0334	14,419.9	49.2111	14,419.9	55.132	14,419.9	50.1167	14,419.9	58.4885	14,419.9	53.5781	14,419.9	48.1033	14,419.9	50.1443
14,928.2	93.695	14,928.2	91.5466	14,928.2	93.8994	14,928.2	87.6009	14,928.2	92.0303	14,928.2	81.7462	14,928.2	89.0245	14,928.2	74.5175	14,928.2	85.4691	14,928.2	69.515	14,928.2	81.1875	14,928.2	75.0271	14,928.2	75.6682	14,928.2	75.6246	14,928.2	70.7274	14,928.2	73.2678	14,928.2	70.4815	14,928.2	69.7145	14,928.2	68.853	14,928.2	65.7175	14,928.2	65.4689	14,928.2	60.5829	14,928.2	61.7766	14,928.2	54.4191	14,928.2	57.7114	14,928.2	56.9009	14,928.2	55.547	14,928.2	61.0425	14,928.2	47.5964	14,928.2	53.718	14,928.2	57.512	14,928.2	53.6039	14,928.2	57.0692	14,928.2	51.2031	14,928.2	47.8792	14,928.2	52.4373
15,455.6	93.6567	15,455.6	91.7538	15,455.6	93.8587	15,455.6	88.468	15,455.6	92.2302	15,455.6	82.6343	15,455.6	89.7608	15,455.6	69.9918	15,455.6	85.8805	15,455.6	68.7006	15,455.6	79.3843	15,455.6	76.4671	15,455.6	71.7467	15,455.6	76.7909	15,455.6	72.0566	15,455.6	74.0154	15,455.6	73.1782	15,455.6	70.6716	15,455.6	70.1611	15,455.6	66.9395	15,455.6	65.7439	15,455.6	61.084	15,455.6	63.0855	15,455.6	56.6257	15,455.6	58.2546	15,455.6	57.4721	15,455.6	55.2116	15,455.6	60.5593	15,455.6	47.1126	15,455.6	54.5567	15,455.6	58.5656	15,455.6	52.3224	15,455.6	58.7622	15,455.6	51.4808	15,455.6	48.0629	15,455.6	53.6996
16,000.5	93.7408	16,000.5	92.3553	16,000.5	93.9976	16,000.5	89.739	16,000.5	92.9075	16,000.5	84.6947	16,000.5	91.018	16,000.5	75.2236	16,000.5	86.9877	16,000.5	70.2445	16,000.5	79.1253	16,000.5	77.4203	16,000.5	53.4727	16,000.5	77.746	16,000.5	74.3337	16,000.5	74.9649	16,000.5	74.5998	16,000.5	71.1833	16,000.5	71.7989	16,000.5	69.1699	16,000.5	68.8014	16,000.5	64.3931	16,000.5	65.4173	16,000.5	58.9009	16,000.5	60.7911	16,000.5	58.4325	16,000.5	61.8327	16,000.5	60.5062	16,000.5	49.2764	16,000.5	54.7597	16,000.5	59.9007	16,000.5	42.7112	16,000.5	59.4895	16,000.5	53.8258	16,000.5	54.0287	16,000.5	53.6586
16,564.5	93.3278	16,564.5	92.4572	16,564.5	93.89	16,564.5	90.3636	16,564.5	93.5115	16,564.5	86.2684	16,564.5	92.158	16,564.5	76.283	16,564.5	88.2138	16,564.5	68.9453	16,564.5	80.5294	16,564.5	75.6908	16,564.5	66.5452	16,564.5	75.7941	16,564.5	72.5874	16,564.5	73.0432	16,564.5	74.5493	16,564.5	69.8807	16,564.5	72.5362	16,564.5	66.824	16,564.5	69.9068	16,564.5	61.9015	16,564.5	64.9533	16,564.5	52.8292	16,564.5	62.9445	16,564.5	59.2005	16,564.5	62.3904	16,564.5	62.2206	16,564.5	46.2237	16,564.5	56.9191	16,564.5	58.4854	16,564.5	55.5087	16,564.5	59.5497	16,564.5	57.3551	16,564.5	54.9133	16,564.5	53.5589
17,148.9	92.5785	17,148.9	91.8063	17,148.9	93.1526	17,148.9	89.8053	17,148.9	93.0114	17,148.9	84.6945	17,148.9	91.918	17,148.9	71.7646	17,148.9	88.0517	17,148.9	68.2306	17,148.9	80.0772	17,148.9	75.4796	17,148.9	65.381	17,148.9	74.6438	17,148.9	71.1669	17,148.9	70.5574	17,148.9	72.9123	17,148.9	68.5353	17,148.9	68.232	17,148.9	64.2057	17,148.9	64.5108	17,148.9	61.2213	17,148.9	61.9603	17,148.9	56.1063	17,148.9	61.0886	17,148.9	56.9144	17,148.9	60.2169	17,148.9	62.1392	17,148.9	51.6833	17,148.9	58.388	17,148.9	54.9029	17,148.9	55.5756	17,148.9	56.9675	17,148.9	56.8897	17,148.9	53.1752	17,148.9	55.8694
17,752.4	91.0267	17,752.4	90.4779	17,752.4	91.543	17,752.4	88.0656	17,752.4	91.632	17,752.4	81.8055	17,752.4	89.8926	17,752.4	65.189	17,752.4	84.5746	17,752.4	74.1241	17,752.4	74.4681	17,752.4	77.8234	17,752.4	74.5904	17,752.4	77.719	17,752.4	77.9935	17,752.4	73.808	17,752.4	77.9163	17,752.4	69.9701	17,752.4	74.1157	17,752.4	66.4777	17,752.4	71.6332	17,752.4	63.6848	17,752.4	66.0341	17,752.4	59.2682	17,752.4	65.2664	17,752.4	40.1937	17,752.4	62.4898	17,752.4	60.2652	17,752.4	57.0719	17,752.4	59.3336	17,752.4	52.6537	17,752.4	54.9227	17,752.4	56.7474	17,752.4	54.967	17,752.4	53.1913	17,752.4	54.9205
18,379.4	89.737	18,379.4	89.5208	18,379.4	90.1885	18,379.4	85.9065	18,379.4	90.5416	18,379.4	76.2484	18,379.4	88.5879	18,379.4	74.2201	18,379.4	80.4391	18,379.4	78.8514	18,379.4	71.2151	18,379.4	80.6416	18,379.4	78.9207	18,379.4	79.2373	18,379.4	81.5582	18,379.4	74.2852	18,379.4	81.4281	18,379.4	71.6882	18,379.4	77.681	18,379.4	67.7942	18,379.4	74.5736	18,379.4	65.509	18,379.4	70.45	18,379.4	61.4439	18,379.4	68.356	18,379.4	45.0383	18,379.4	64.7106	18,379.4	57.1048	18,379.4	58.2047	18,379.4	59.2973	18,379.4	57.6822	18,379.4	54.2254	18,379.4	58.4008	18,379.4	50.6371	18,379.4	57.9636	18,379.4	51.7841
19,026.9	89.9146	19,026.9	88.6773	19,026.9	90.798	19,026.9	85.488	19,026.9	90.7582	19,026.9	76.5459	19,026.9	88.3762	19,026.9	77.4949	19,026.9	82.7909	19,026.9	80.2707	19,026.9	78.3569	19,026.9	81.5032	19,026.9	81.0236	19,026.9	80.7024	19,026.9	83.033	19,026.9	76.1279	19,026.9	82.7853	19,026.9	72.9027	19,026.9	78.9719	19,026.9	67.8714	19,026.9	75.2194	19,026.9	66.4367	19,026.9	71.2266	19,026.9	61.7867	19,026.9	70.0086	19,026.9	51.9362	19,026.9	67.2063	19,026.9	52.659	19,026.9	62.5366	19,026.9	56.9809	19,026.9	61.1701	19,026.9	37.2047	19,026.9	56.6182	19,026.9	45.9529	19,026.9	55.8229	19,026.9	53.3912
19,697.8	89.6147	19,697.8	88.2501	19,697.8	90.4984	19,697.8	85.732	19,697.8	90.4955	19,697.8	79.2689	19,697.8	88.6972	19,697.8	76.1629	19,697.8	84.6674	19,697.8	78.4198	19,697.8	79.3079	19,697.8	79.8966	19,697.8	80.4637	19,697.8	79.7915	19,697.8	82.393	19,697.8	75.3403	19,697.8	81.5325	19,697.8	71.3642	19,697.8	78.4964	19,697.8	66.2604	19,697.8	74.8715	19,697.8	64.6469	19,697.8	70.5392	19,697.8	59.1153	19,697.8	69.4219	19,697.8	52.5527	19,697.8	66.9315	19,697.8	54.5272	19,697.8	61.9497	19,697.8	53.1778	19,697.8	61.9209	19,697.8	50.8216	19,697.8	53.8526	19,697.8	49.406	19,697.8	53.9155	19,697.8	53.9457
19,999.5	89.3778	19,999.5	87.7436	19,999.5	90.2212	19,999.5	84.7462	19,999.5	89.7183	19,999.5	79.9619	19,999.5	88.9834	19,999.5	72.7649	19,999.5	84.8911	19,999.5	77.2111	19,999.5	78.5605	19,999.5	79.7102	19,999.5	79.8698	19,999.5	77.51	19,999.5	81.7947	19,999.5	75.1513	19,999.5	81.1033	19,999.5	66.5256	19,999.5	78.0822	19,999.5	67.2285	19,999.5	73.9989	19,999.5	62.144	19,999.5	68.8907	19,999.5	54.2426	19,999.5	69.357	19,999.5	58.4085	19,999.5	63.9907	19,999.5	61.4572	19,999.5	63.2969	19,999.5	57.5956	19,999.5	52.8075	19,999.5	50.1959	19,999.5	48.2746	19,999.5	42.1137	19,999.5	48.5821	19,999.5	50.525
