"SPL Horizontal"
"On-Axis"		"10°"		"-10°"		"20°"		"-20°"		"30°"		"-30°"		"40°"		"-40°"		"50°"		"-50°"		"60°"		"-60°"		"70°"		"-70°"		"80°"		"-80°"		"90°"		"-90°"		"100°"		"-100°"		"110°"		"-110°"		"120°"		"-120°"		"130°"		"-130°"		"140°"		"-140°"		"150°"		"-150°"		"160°"		"-160°"		"170°"		"-170°"		"180°"
"Frequency / Hz"	"Sound Pressure Level / dB (re 20 µPa/V)  [2.83  V @ 1. m]"	"Frequency / Hz"	"Sound Pressure Level / dB (re 20 µPa/V)  [2.83  V @ 1. m]"	"Frequency / Hz"	"Sound Pressure Level / dB (re 20 µPa/V)  [2.83  V @ 1. m]"	"Frequency / Hz"	"Sound Pressure Level / dB (re 20 µPa/V)  [2.83  V @ 1. m]"	"Frequency / Hz"	"Sound Pressure Level / dB (re 20 µPa/V)  [2.83  V @ 1. m]"	"Frequency / Hz"	"Sound Pressure Level / dB (re 20 µPa/V)  [2.83  V @ 1. m]"	"Frequency / Hz"	"Sound Pressure Level / dB (re 20 µPa/V)  [2.83  V @ 1. m]"	"Frequency / Hz"	"Sound Pressure Level / dB (re 20 µPa/V)  [2.83  V @ 1. m]"	"Frequency / Hz"	"Sound Pressure Level / dB (re 20 µPa/V)  [2.83  V @ 1. m]"	"Frequency / Hz"	"Sound Pressure Level / dB (re 20 µPa/V)  [2.83  V @ 1. m]"	"Frequency / Hz"	"Sound Pressure Level / dB (re 20 µPa/V)  [2.83  V @ 1. m]"	"Frequency / Hz"	"Sound Pressure Level / dB (re 20 µPa/V)  [2.83  V @ 1. m]"	"Frequency / Hz"	"Sound Pressure Level / dB (re 20 µPa/V)  [2.83  V @ 1. m]"	"Frequency / Hz"	"Sound Pressure Level / dB (re 20 µPa/V)  [2.83  V @ 1. m]"	"Frequency / Hz"	"Sound Pressure Level / dB (re 20 µPa/V)  [2.83  V @ 1. m]"	"Frequency / Hz"	"Sound Pressure Level / dB (re 20 µPa/V)  [2.83  V @ 1. m]"	"Frequency / Hz"	"Sound Pressure Level / dB (re 20 µPa/V)  [2.83  V @ 1. m]"	"Frequency / Hz"	"Sound Pressure Level / dB (re 20 µPa/V)  [2.83  V @ 1. m]"	"Frequency / Hz"	"Sound Pressure Level / dB (re 20 µPa/V)  [2.83  V @ 1. m]"	"Frequency / Hz"	"Sound Pressure Level / dB (re 20 µPa/V)  [2.83  V @ 1. m]"	"Frequency / Hz"	"Sound Pressure Level / dB (re 20 µPa/V)  [2.83  V @ 1. m]"	"Frequency / Hz"	"Sound Pressure Level / dB (re 20 µPa/V)  [2.83  V @ 1. m]"	"Frequency / Hz"	"Sound Pressure Level / dB (re 20 µPa/V)  [2.83  V @ 1. m]"	"Frequency / Hz"	"Sound Pressure Level / dB (re 20 µPa/V)  [2.83  V @ 1. m]"	"Frequency / Hz"	"Sound Pressure Level / dB (re 20 µPa/V)  [2.83  V @ 1. m]"	"Frequency / Hz"	"Sound Pressure Level / dB (re 20 µPa/V)  [2.83  V @ 1. m]"	"Frequency / Hz"	"Sound Pressure Level / dB (re 20 µPa/V)  [2.83  V @ 1. m]"	"Frequency / Hz"	"Sound Pressure Level / dB (re 20 µPa/V)  [2.83  V @ 1. m]"	"Frequency / Hz"	"Sound Pressure Level / dB (re 20 µPa/V)  [2.83  V @ 1. m]"	"Frequency / Hz"	"Sound Pressure Level / dB (re 20 µPa/V)  [2.83  V @ 1. m]"	"Frequency / Hz"	"Sound Pressure Level / dB (re 20 µPa/V)  [2.83  V @ 1. m]"	"Frequency / Hz"	"Sound Pressure Level / dB (re 20 µPa/V)  [2.83  V @ 1. m]"	"Frequency / Hz"	"Sound Pressure Level / dB (re 20 µPa/V)  [2.83  V @ 1. m]"	"Frequency / Hz"	"Sound Pressure Level / dB (re 20 µPa/V)  [2.83  V @ 1. m]"	"Frequency / Hz"	"Sound Pressure Level / dB (re 20 µPa/V)  [2.83  V @ 1. m]"	"Frequency / Hz"	"Sound Pressure Level / dB (re 20 µPa/V)  [2.83  V @ 1. m]"
20.5078	71.0347	20.5078	71.074	20.5078	71.0143	20.5078	71.1322	20.5078	71.0198	20.5078	71.2165	20.5078	71.0661	20.5078	71.3403	20.5078	71.174	20.5078	71.5213	20.5078	71.3687	20.5078	71.7792	20.5078	71.674	20.5078	72.1313	20.5078	72.1064	20.5078	72.5891	20.5078	72.6691	20.5078	73.1544	20.5078	73.3487	20.5078	73.8176	20.5078	74.1169	20.5078	74.558	20.5078	74.9343	20.5078	75.3446	20.5078	75.7566	20.5078	76.1374	20.5078	76.5394	20.5078	76.8891	20.5078	77.2412	20.5078	77.5498	20.5078	77.8249	20.5078	78.0724	20.5078	78.2576	20.5078	78.4196	20.5078	78.5119	20.5078	78.5685
21.9727	71.0428	21.9727	71.0357	21.9727	71.0509	21.9727	71.0307	21.9727	71.0667	21.9727	71.0366	21.9727	71.1046	21.9727	71.0703	21.9727	71.1862	21.9727	71.1561	21.9727	71.3386	21.9727	71.3237	21.9727	71.5906	21.9727	71.6029	21.9727	71.9653	21.9727	72.0167	21.9727	72.4732	21.9727	72.573	21.9727	73.1068	21.9727	73.2598	21.9727	73.8402	21.9727	74.0459	21.9727	74.6346	21.9727	74.8861	21.9727	75.4443	21.9727	75.7282	21.9727	76.2233	21.9727	76.5184	21.9727	76.9274	21.9727	77.206	21.9727	77.516	21.9727	77.7464	21.9727	77.9528	21.9727	78.1054	21.9727	78.2081	21.9727	78.2616
23.4375	71.8078	23.4375	71.7986	23.4375	71.8295	23.4375	71.8052	23.4375	71.8673	23.4375	71.8374	23.4375	71.9306	23.4375	71.9107	23.4375	72.035	23.4375	72.0451	23.4375	72.1996	23.4375	72.2617	23.4375	72.4446	23.4375	72.5785	23.4375	72.7866	23.4375	73.0054	23.4375	73.2338	23.4375	73.5403	23.4375	73.7824	23.4375	74.1681	23.4375	74.4163	23.4375	74.8631	23.4375	75.1088	23.4375	75.592	23.4375	75.8262	23.4375	76.3174	23.4375	76.5309	23.4375	76.9989	23.4375	77.1827	23.4375	77.5949	23.4375	77.7407	23.4375	78.0647	23.4375	78.1659	23.4375	78.3734	23.4375	78.4252	23.4375	78.4967
24.9023	73.5062	24.9023	73.5099	24.9023	73.518	24.9023	73.5325	24.9023	73.5462	24.9023	73.5817	24.9023	73.5964	24.9023	73.6688	24.9023	73.6788	24.9023	73.8077	24.9023	73.8068	24.9023	74.0125	24.9023	73.9961	24.9023	74.295	24.9023	74.2616	24.9023	74.662	24.9023	74.6141	24.9023	75.113	24.9023	75.0571	24.9023	75.6393	24.9023	75.5841	24.9023	76.224	24.9023	76.1785	24.9023	76.8436	24.9023	76.8139	24.9023	77.468	24.9023	77.4559	24.9023	78.0618	24.9023	78.0643	24.9023	78.5853	24.9023	78.5963	24.9023	78.9979	24.9023	79.0103	24.9023	79.2641	24.9023	79.272	24.9023	79.3589
26.3672	74.6194	26.3672	74.6584	26.3672	74.5977	26.3672	74.7164	26.3672	74.5951	26.3672	74.7977	26.3672	74.6164	26.3672	74.9088	26.3672	74.6697	26.3672	75.0579	26.3672	74.7655	26.3672	75.2535	26.3672	74.9161	26.3672	75.5029	26.3672	75.1332	26.3672	75.811	26.3672	75.4259	26.3672	76.1789	26.3672	75.7979	26.3672	76.6028	26.3672	76.2461	26.3672	77.0733	26.3672	76.7588	26.3672	77.575	26.3672	77.3158	26.3672	78.0862	26.3672	77.8881	26.3672	78.5782	26.3672	78.4391	26.3672	79.0168	26.3672	78.9282	26.3672	79.3645	26.3672	79.3149	26.3672	79.5868	26.3672	79.5652	26.3672	79.6575
27.832	75.9439	27.832	75.96	27.832	75.9384	27.832	75.9872	27.832	75.9449	27.832	76.0284	27.832	75.9672	27.832	76.0881	27.832	76.011	27.832	76.1728	27.832	76.0839	27.832	76.2901	27.832	76.1947	27.832	76.448	27.832	76.3526	27.832	76.6538	27.832	76.5657	27.832	76.9126	27.832	76.8394	27.832	77.2259	27.832	77.1748	27.832	77.5903	27.832	77.5667	27.832	77.9959	27.832	78.0021	27.832	78.4255	27.832	78.4589	27.832	78.8539	27.832	78.9064	27.832	79.2487	27.832	79.3074	27.832	79.5732	27.832	79.6233	27.832	79.7921	27.832	79.8209	27.832	79.8788
29.2969	76.6745	29.2969	76.6892	29.2969	76.6715	29.2969	76.7165	29.2969	76.681	29.2969	76.7588	29.2969	76.7056	29.2969	76.8205	29.2969	76.7498	29.2969	76.9068	29.2969	76.8195	29.2969	77.0241	29.2969	76.922	29.2969	77.1786	29.2969	77.0651	29.2969	77.3758	29.2969	77.2558	29.2969	77.6193	29.2969	77.4993	29.2969	77.9096	29.2969	77.7973	29.2969	78.2431	29.2969	78.1458	29.2969	78.6106	29.2969	78.5343	29.2969	78.996	29.2969	78.9437	29.2969	79.3766	29.2969	79.3471	29.2969	79.7234	29.2969	79.7116	29.2969	80.0042	29.2969	80.0027	29.2969	80.1886	29.2969	80.1901	29.2969	80.2539
30.7617	77.2704	30.7617	77.2854	30.7617	77.2708	30.7617	77.3166	30.7617	77.2871	30.7617	77.3658	30.7617	77.3211	30.7617	77.4359	30.7617	77.3756	30.7617	77.5306	30.7617	77.4549	30.7617	77.654	30.7617	77.5639	30.7617	77.8102	30.7617	77.7079	30.7617	78.0026	30.7617	77.8919	30.7617	78.2331	30.7617	78.1193	30.7617	78.5016	30.7617	78.3912	30.7617	78.8047	30.7617	78.7047	30.7617	79.1345	30.7617	79.0514	30.7617	79.478	30.7617	79.416	30.7617	79.8162	30.7617	79.7758	30.7617	80.124	30.7617	80.1021	30.7617	80.3733	30.7617	80.3641	30.7617	80.5366	30.7617	80.5339	30.7617	80.5932
32.2266	78.2112	32.2266	78.225	32.2266	78.2126	32.2266	78.2543	32.2266	78.2298	32.2266	78.3002	32.2266	78.2639	32.2266	78.364	32.2266	78.3168	32.2266	78.4482	32.2266	78.3913	32.2266	78.5552	32.2266	78.4903	32.2266	78.6878	32.2266	78.6175	32.2266	78.8487	32.2266	78.776	32.2266	79.0397	32.2266	78.9685	32.2266	79.2612	32.2266	79.196	32.2266	79.5115	32.2266	79.4569	32.2266	79.7853	32.2266	79.7453	32.2266	80.0731	32.2266	80.0497	32.2266	80.3596	32.2266	80.3517	32.2266	80.6237	32.2266	80.627	32.2266	80.8406	32.2266	80.8486	32.2266	80.9853	32.2266	80.9914	32.2266	81.0385
33.6914	78.9029	33.6914	78.9109	33.6914	78.9092	33.6914	78.9333	33.6914	78.93	33.6914	78.9708	33.6914	78.9659	33.6914	79.0246	33.6914	79.0179	33.6914	79.0961	33.6914	79.0878	33.6914	79.1874	33.6914	79.1773	33.6914	79.3005	33.6914	79.2887	33.6914	79.4376	33.6914	79.4243	33.6914	79.6003	33.6914	79.5862	33.6914	79.7889	33.6914	79.7756	33.6914	80.0023	33.6914	79.9916	33.6914	80.2363	33.6914	80.2305	33.6914	80.4832	33.6914	80.4838	33.6914	80.7299	33.6914	80.7369	33.6914	80.9584	33.6914	80.9696	33.6914	81.1469	33.6914	81.1583	33.6914	81.2733	33.6914	81.2804	33.6914	81.3203
35.1562	79.5662	35.1562	79.5706	35.1562	79.5758	35.1562	79.589	35.1562	79.5993	35.1562	79.6217	35.1562	79.6369	35.1562	79.6695	35.1562	79.6892	35.1562	79.7333	35.1562	79.7569	35.1562	79.8142	35.1562	79.8408	35.1562	79.9137	35.1562	79.9423	35.1562	80.0333	35.1562	80.0627	35.1562	80.1743	35.1562	80.2034	35.1562	80.3371	35.1562	80.3653	35.1562	80.5208	35.1562	80.5482	35.1562	80.7224	35.1562	80.7495	35.1562	80.9353	35.1562	80.9627	35.1562	81.1488	35.1562	81.1763	35.1562	81.3477	35.1562	81.3734	35.1562	81.5129	35.1562	81.5335	35.1562	81.6249	35.1562	81.6365	35.1562	81.6684
36.6211	80.0848	36.6211	80.088	36.6211	80.0943	36.6211	80.104	36.6211	80.1164	36.6211	80.133	36.6211	80.151	36.6211	80.1754	36.6211	80.1983	36.6211	80.2315	36.6211	80.2585	36.6211	80.3023	36.6211	80.3322	36.6211	80.3885	36.6211	80.4201	36.6211	80.4913	36.6211	80.5233	36.6211	80.6116	36.6211	80.6428	36.6211	80.7498	36.6211	80.7794	36.6211	80.9053	36.6211	80.9332	36.6211	81.0758	36.6211	81.1022	36.6211	81.2563	36.6211	81.2818	36.6211	81.4379	36.6211	81.4624	36.6211	81.6077	36.6211	81.63	36.6211	81.7493	36.6211	81.7668	36.6211	81.8455	36.6211	81.8553	36.6211	81.8829
38.0859	80.6231	38.0859	80.6218	38.0859	80.6369	38.0859	80.6333	38.0859	80.663	38.0859	80.6578	38.0859	80.701	38.0859	80.6955	38.0859	80.7506	38.0859	80.7465	38.0859	80.8115	38.0859	80.8114	38.0859	80.8836	38.0859	80.8907	38.0859	80.9669	38.0859	80.9851	38.0859	81.0618	38.0859	81.0951	38.0859	81.1689	38.0859	81.2208	38.0859	81.2888	38.0859	81.3614	38.0859	81.4216	38.0859	81.5147	38.0859	81.5662	38.0859	81.676	38.0859	81.719	38.0859	81.8376	38.0859	81.8726	38.0859	81.988	38.0859	82.0153	38.0859	82.113	38.0859	82.1323	38.0859	82.198	38.0859	82.2081	38.0859	82.2313
39.5508	81.2813	39.5508	81.283	39.5508	81.2915	39.5508	81.2967	39.5508	81.3134	39.5508	81.3222	39.5508	81.3464	39.5508	81.3594	39.5508	81.3902	39.5508	81.4081	39.5508	81.4441	39.5508	81.4681	39.5508	81.5077	39.5508	81.5395	39.5508	81.5806	39.5508	81.6223	39.5508	81.663	39.5508	81.7165	39.5508	81.7549	39.5508	81.822	39.5508	81.8569	39.5508	81.9381	39.5508	81.9688	39.5508	82.0631	39.5508	82.0897	39.5508	82.1934	39.5508	82.2165	39.5508	82.3232	39.5508	82.3434	39.5508	82.4438	39.5508	82.4609	39.5508	82.5441	39.5508	82.5571	39.5508	82.6123	39.5508	82.6194	39.5508	82.6388
41.0156	81.738	41.0156	81.7417	41.0156	81.7452	41.0156	81.7562	41.0156	81.7631	41.0156	81.7814	41.0156	81.7914	41.0156	81.8169	41.0156	81.8294	41.0156	81.8623	41.0156	81.8766	41.0156	81.9173	41.0156	81.9322	41.0156	81.9819	41.0156	81.9958	41.0156	82.0559	41.0156	82.0671	41.0156	82.1394	41.0156	82.1461	41.0156	82.2321	41.0156	82.2331	41.0156	82.3333	41.0156	82.3281	41.0156	82.4414	41.0156	82.4307	41.0156	82.5533	41.0156	82.5389	41.0156	82.6637	41.0156	82.6483	41.0156	82.7652	41.0156	82.7515	41.0156	82.848	41.0156	82.8381	41.0156	82.9021	41.0156	82.897	41.0156	82.9194
42.4805	82.2797	42.4805	82.2918	42.4805	82.2783	42.4805	82.3143	42.4805	82.2877	42.4805	82.3468	42.4805	82.3073	42.4805	82.3884	42.4805	82.3366	42.4805	82.4381	42.4805	82.3747	42.4805	82.4947	42.4805	82.4207	42.4805	82.5569	42.4805	82.4739	42.4805	82.6239	42.4805	82.5337	42.4805	82.6948	42.4805	82.6002	42.4805	82.7692	42.4805	82.6733	42.4805	82.8471	42.4805	82.7533	42.4805	82.9279	42.4805	82.8399	42.4805	83.0103	42.4805	82.9316	42.4805	83.0911	42.4805	83.0248	42.4805	83.1648	42.4805	83.1134	42.4805	83.2239	42.4805	83.1891	42.4805	83.2603	42.4805	83.2427	42.4805	83.2674
43.9453	82.7332	43.9453	82.7425	43.9453	82.7364	43.9453	82.7642	43.9453	82.7519	43.9453	82.7979	43.9453	82.7792	43.9453	82.8427	43.9453	82.8175	43.9453	82.8977	43.9453	82.8658	43.9453	82.9619	43.9453	82.9229	43.9453	83.0341	43.9453	82.9879	43.9453	83.1131	43.9453	83.0598	43.9453	83.1978	43.9453	83.1381	43.9453	83.287	43.9453	83.2222	43.9453	83.3792	43.9453	83.3114	43.9453	83.4724	43.9453	83.4047	43.9453	83.5642	43.9453	83.5002	43.9453	83.6507	43.9453	83.5944	43.9453	83.727	43.9453	83.6819	43.9453	83.7868	43.9453	83.7554	43.9453	83.8231	43.9453	83.8071	43.9453	83.8305
45.4102	83.0896	45.4102	83.1054	45.4102	83.0851	45.4102	83.1321	45.4102	83.0916	45.4102	83.1691	45.4102	83.1088	45.4102	83.2153	45.4102	83.1357	45.4102	83.2693	45.4102	83.1714	45.4102	83.3293	45.4102	83.2148	45.4102	83.3935	45.4102	83.2646	45.4102	83.4603	45.4102	83.3199	45.4102	83.528	45.4102	83.3798	45.4102	83.5954	45.4102	83.4437	45.4102	83.6613	45.4102	83.5112	45.4102	83.7245	45.4102	83.5817	45.4102	83.7838	45.4102	83.6543	45.4102	83.8374	45.4102	83.7269	45.4102	83.8826	45.4102	83.796	45.4102	83.9156	45.4102	83.8564	45.4102	83.932	45.4102	83.9021	45.4102	83.928
46.875	83.7681	46.875	83.779	46.875	83.7648	46.875	83.7974	46.875	83.7691	46.875	83.8224	46.875	83.7804	46.875	83.8533	46.875	83.798	46.875	83.8885	46.875	83.821	46.875	83.9268	46.875	83.848	46.875	83.9663	46.875	83.8779	46.875	84.0056	46.875	83.9096	46.875	84.0433	46.875	83.9422	46.875	84.0785	46.875	83.9749	46.875	84.1103	46.875	84.0076	46.875	84.1385	46.875	84.0403	46.875	84.1629	46.875	84.0732	46.875	84.1836	46.875	84.1063	46.875	84.2001	46.875	84.1388	46.875	84.2111	46.875	84.1687	46.875	84.2146	46.875	84.1929	46.875	84.2087
48.3398	84.2853	48.3398	84.2918	48.3398	84.2842	48.3398	84.3034	48.3398	84.2883	48.3398	84.3195	48.3398	84.2972	48.3398	84.3393	48.3398	84.31	48.3398	84.3614	48.3398	84.3258	48.3398	84.3844	48.3398	84.3435	48.3398	84.407	48.3398	84.3619	48.3398	84.4277	48.3398	84.3798	48.3398	84.4456	48.3398	84.3963	48.3398	84.46	48.3398	84.4109	48.3398	84.4709	48.3398	84.4233	48.3398	84.4787	48.3398	84.434	48.3398	84.4842	48.3398	84.4437	48.3398	84.4882	48.3398	84.4534	48.3398	84.4913	48.3398	84.4638	48.3398	84.4934	48.3398	84.4744	48.3398	84.4936	48.3398	84.4839	48.3398	84.4905
51.2695	84.8758	51.2695	84.8892	51.2695	84.8692	51.2695	84.9091	51.2695	84.8691	51.2695	84.935	51.2695	84.8752	51.2695	84.9656	51.2695	84.8863	51.2695	84.9997	51.2695	84.9012	51.2695	85.0354	51.2695	84.9183	51.2695	85.0707	51.2695	84.9359	51.2695	85.1037	51.2695	84.9526	51.2695	85.1324	51.2695	84.967	51.2695	85.1553	51.2695	84.9788	51.2695	85.1711	51.2695	84.9883	51.2695	85.1793	51.2695	84.9967	51.2695	85.1798	51.2695	85.0059	51.2695	85.1735	51.2695	85.018	51.2695	85.1614	51.2695	85.0343	51.2695	85.1449	51.2695	85.0549	51.2695	85.1248	51.2695	85.0782	51.2695	85.1022
52.7344	85.2083	52.7344	85.2176	52.7344	85.2069	52.7344	85.2347	52.7344	85.2133	52.7344	85.2592	52.7344	85.2267	52.7344	85.29	52.7344	85.246	52.7344	85.3255	52.7344	85.27	52.7344	85.3641	52.7344	85.2971	52.7344	85.4035	52.7344	85.3257	52.7344	85.4416	52.7344	85.354	52.7344	85.4763	52.7344	85.3807	52.7344	85.5057	52.7344	85.4047	52.7344	85.5285	52.7344	85.4255	52.7344	85.544	52.7344	85.4432	52.7344	85.5524	52.7344	85.4584	52.7344	85.5543	52.7344	85.4722	52.7344	85.5512	52.7344	85.4856	52.7344	85.5447	52.7344	85.4991	52.7344	85.5357	52.7344	85.5124	52.7344	85.5248
54.1992	85.5713	54.1992	85.5701	54.1992	85.5795	54.1992	85.5762	54.1992	85.5942	54.1992	85.589	54.1992	85.6145	54.1992	85.608	54.1992	85.6392	54.1992	85.6318	54.1992	85.6667	54.1992	85.6588	54.1992	85.6952	54.1992	85.687	54.1992	85.7229	54.1992	85.7142	54.1992	85.7477	54.1992	85.7382	54.1992	85.768	54.1992	85.7572	54.1992	85.7823	54.1992	85.7696	54.1992	85.7897	54.1992	85.7749	54.1992	85.7902	54.1992	85.7734	54.1992	85.7847	54.1992	85.7668	54.1992	85.7748	54.1992	85.7576	54.1992	85.7633	54.1992	85.7489	54.1992	85.7525	54.1992	85.743	54.1992	85.7448	54.1992	85.7415
55.6641	85.9114	55.6641	85.9068	55.6641	85.9224	55.6641	85.909	55.6641	85.9395	55.6641	85.9176	55.6641	85.9614	55.6641	85.9319	55.6641	85.987	55.6641	85.9505	55.6641	86.0144	55.6641	85.9718	55.6641	86.0417	55.6641	85.9935	55.6641	86.0665	55.6641	86.0132	55.6641	86.0866	55.6641	86.0286	55.6641	86.0999	55.6641	86.0377	55.6641	86.1045	55.6641	86.0388	55.6641	86.0995	55.6641	86.0318	55.6641	86.0851	55.6641	86.0175	55.6641	86.0625	55.6641	85.9985	55.6641	86.0348	55.6641	85.9785	55.6641	86.0057	55.6641	85.9617	55.6641	85.9797	55.6641	85.9517	55.6641	85.9607	55.6641	85.9511
58.5938	86.6561	58.5938	86.6545	58.5938	86.6635	58.5938	86.6591	58.5938	86.6764	58.5938	86.6693	58.5938	86.6939	58.5938	86.6844	58.5938	86.7147	58.5938	86.7029	58.5938	86.737	58.5938	86.723	58.5938	86.7589	58.5938	86.7423	58.5938	86.7779	58.5938	86.7581	58.5938	86.7915	58.5938	86.7676	58.5938	86.7974	58.5938	86.7686	58.5938	86.7938	58.5938	86.7596	58.5938	86.7795	58.5938	86.7404	58.5938	86.7548	58.5938	86.7124	58.5938	86.7217	58.5938	86.6789	58.5938	86.6838	58.5938	86.6444	58.5938	86.6461	58.5938	86.6143	58.5938	86.6142	58.5938	86.5935	58.5938	86.5931	58.5938	86.5859
60.0586	86.9056	60.0586	86.8969	60.0586	86.921	60.0586	86.8951	60.0586	86.9421	60.0586	86.9	60.0586	86.9682	60.0586	86.9111	60.0586	86.9977	60.0586	86.9272	60.0586	87.0286	60.0586	86.9465	60.0586	87.0589	60.0586	86.9667	60.0586	87.0857	60.0586	86.9851	60.0586	87.1062	60.0586	86.9986	60.0586	87.1179	60.0586	87.0045	60.0586	87.1182	60.0586	87.0008	60.0586	87.1059	60.0586	86.9869	60.0586	87.0808	60.0586	86.9639	60.0586	87.0447	60.0586	86.935	60.0586	87.0012	60.0586	86.905	60.0586	86.9556	60.0586	86.8801	60.0586	86.9142	60.0586	86.8658	60.0586	86.883	60.0586	86.8663
62.9883	87.4718	62.9883	87.4656	62.9883	87.4832	62.9883	87.4648	62.9883	87.4991	62.9883	87.4692	62.9883	87.5188	62.9883	87.4781	62.9883	87.541	62.9883	87.4903	62.9883	87.5638	62.9883	87.5038	62.9883	87.5851	62.9883	87.5162	62.9883	87.6023	62.9883	87.5243	62.9883	87.6123	62.9883	87.5251	62.9883	87.6122	62.9883	87.5157	62.9883	87.5994	62.9883	87.4942	62.9883	87.5722	62.9883	87.4602	62.9883	87.5306	62.9883	87.4155	62.9883	87.4767	62.9883	87.3643	62.9883	87.4148	62.9883	87.3133	62.9883	87.352	62.9883	87.2704	62.9883	87.2966	62.9883	87.2435	62.9883	87.2567	62.9883	87.2382
64.4531	87.7001	64.4531	87.6874	64.4531	87.7176	64.4531	87.6801	64.4531	87.7393	64.4531	87.678	64.4531	87.7642	64.4531	87.6809	64.4531	87.7909	64.4531	87.6876	64.4531	87.8175	64.4531	87.6965	64.4531	87.8419	64.4531	87.7051	64.4531	87.8611	64.4531	87.7104	64.4531	87.8721	64.4531	87.7094	64.4531	87.8717	64.4531	87.699	64.4531	87.8572	64.4531	87.6773	64.4531	87.8269	64.4531	87.6436	64.4531	87.7806	64.4531	87.5998	64.4531	87.7204	64.4531	87.5502	64.4531	87.651	64.4531	87.5015	64.4531	87.5796	64.4531	87.462	64.4531	87.5152	64.4531	87.4397	64.4531	87.4667	64.4531	87.4406
67.3828	88.1869	67.3828	88.1691	67.3828	88.2084	67.3828	88.1553	67.3828	88.2327	67.3828	88.146	67.3828	88.2589	67.3828	88.1408	67.3828	88.2855	67.3828	88.1391	67.3828	88.3109	67.3828	88.1392	67.3828	88.3326	67.3828	88.1389	67.3828	88.348	67.3828	88.1354	67.3828	88.3536	67.3828	88.1254	67.3828	88.3463	67.3828	88.1059	67.3828	88.3231	67.3828	88.0749	67.3828	88.2821	67.3828	88.032	67.3828	88.2233	67.3828	87.9792	67.3828	88.1488	67.3828	87.9215	67.3828	88.0639	67.3828	87.8663	67.3828	87.9769	67.3828	87.8226	67.3828	87.8982	67.3828	87.7997	67.3828	87.8379	67.3828	87.804
68.8477	88.4271	68.8477	88.4052	68.8477	88.4517	68.8477	88.3865	68.8477	88.4782	68.8477	88.3713	68.8477	88.5056	68.8477	88.3597	68.8477	88.5328	68.8477	88.3511	68.8477	88.5579	68.8477	88.3441	68.8477	88.5787	68.8477	88.3367	68.8477	88.5923	68.8477	88.3263	68.8477	88.5953	68.8477	88.3098	68.8477	88.5844	68.8477	88.2842	68.8477	88.5566	68.8477	88.2477	68.8477	88.5098	68.8477	88.2	68.8477	88.4438	68.8477	88.1433	68.8477	88.3612	68.8477	88.0828	68.8477	88.2673	68.8477	88.0263	68.8477	88.1708	68.8477	87.9833	68.8477	88.0826	68.8477	87.9632	68.8477	88.0137	68.8477	87.9727
71.7773	88.8593	71.7773	88.8316	71.7773	88.8873	71.7773	88.8047	71.7773	88.9152	71.7773	88.779	71.7773	88.9424	71.7773	88.7544	71.7773	88.9678	71.7773	88.7307	71.7773	88.99	71.7773	88.7071	71.7773	89.0068	71.7773	88.682	71.7773	89.015	71.7773	88.6532	71.7773	89.0112	71.7773	88.6183	71.7773	88.9914	71.7773	88.5747	71.7773	88.9521	71.7773	88.521	71.7773	88.8908	71.7773	88.4574	71.7773	88.8073	71.7773	88.3867	71.7773	88.7039	71.7773	88.3147	71.7773	88.587	71.7773	88.2503	71.7773	88.4663	71.7773	88.2045	71.7773	88.3545	71.7773	88.1878	71.7773	88.2647	71.7773	88.2073
74.707	89.2482	74.707	89.2265	74.707	89.2692	74.707	89.2042	74.707	89.2891	74.707	89.1814	74.707	89.3076	74.707	89.158	74.707	89.3241	74.707	89.1337	74.707	89.3375	74.707	89.1075	74.707	89.3457	74.707	89.0777	74.707	89.3461	74.707	89.0423	74.707	89.335	74.707	88.9987	74.707	89.3086	74.707	88.9447	74.707	89.2634	74.707	88.8791	74.707	89.1966	74.707	88.8025	74.707	89.1077	74.707	88.7182	74.707	88.9993	74.707	88.6329	74.707	88.8774	74.707	88.5562	74.707	88.7522	74.707	88.4998	74.707	88.6371	74.707	88.4752	74.707	88.5459	74.707	88.49
77.6367	89.5666	77.6367	89.553	77.6367	89.579	77.6367	89.5383	77.6367	89.5903	77.6367	89.5223	77.6367	89.6005	77.6367	89.505	77.6367	89.609	77.6367	89.4857	77.6367	89.615	77.6367	89.4634	77.6367	89.6166	77.6367	89.4362	77.6367	89.6111	77.6367	89.4019	77.6367	89.5951	77.6367	89.3576	77.6367	89.5646	77.6367	89.301	77.6367	89.5159	77.6367	89.2306	77.6367	89.4462	77.6367	89.1468	77.6367	89.3552	77.6367	89.0528	77.6367	89.2454	77.6367	88.9556	77.6367	89.1234	77.6367	88.8653	77.6367	88.9998	77.6367	88.7945	77.6367	88.8886	77.6367	88.7558	77.6367	88.8042	77.6367	88.7582
79.1016	89.694	79.1016	89.6841	79.1016	89.7024	79.1016	89.6726	79.1016	89.7093	79.1016	89.6595	79.1016	89.7148	79.1016	89.6446	79.1016	89.7187	79.1016	89.6275	79.1016	89.7201	79.1016	89.6071	79.1016	89.7177	79.1016	89.5816	79.1016	89.7087	79.1016	89.5484	79.1016	89.6898	79.1016	89.5048	79.1016	89.6571	79.1016	89.4479	79.1016	89.6066	79.1016	89.3761	79.1016	89.5357	79.1016	89.2895	79.1016	89.4439	79.1016	89.1913	79.1016	89.3338	79.1016	89.0884	79.1016	89.2121	79.1016	88.9911	79.1016	89.09	79.1016	88.9125	79.1016	88.9814	79.1016	88.866	79.1016	88.9013	79.1016	88.8612
82.0312	89.9103	82.0312	89.9094	82.0312	89.908	82.0312	89.905	82.0312	89.9027	82.0312	89.8973	82.0312	89.8949	82.0312	89.8863	82.0312	89.885	82.0312	89.8717	82.0312	89.873	82.0312	89.8528	82.0312	89.8578	82.0312	89.8278	82.0312	89.8376	82.0312	89.7944	82.0312	89.8095	82.0312	89.7495	82.0312	89.7698	82.0312	89.6904	82.0312	89.715	82.0312	89.6149	82.0312	89.6424	82.0312	89.523	82.0312	89.5516	82.0312	89.4176	82.0312	89.4452	82.0312	89.3054	82.0312	89.33	82.0312	89.1969	82.0312	89.2168	82.0312	89.1056	82.0312	89.1195	82.0312	89.0452	82.0312	89.0523	82.0312	89.0261
84.9609	89.9968	84.9609	90.0026	84.9609	89.9862	84.9609	90.0035	84.9609	89.9711	84.9609	90	84.9609	89.9524	84.9609	89.9924	84.9609	89.9309	84.9609	89.9809	84.9609	89.9073	84.9609	89.9649	84.9609	89.8816	84.9609	89.9433	84.9609	89.8528	84.9609	89.9137	84.9609	89.8188	84.9609	89.8731	84.9609	89.7766	84.9609	89.8185	84.9609	89.723	84.9609	89.7478	84.9609	89.6556	84.9609	89.6602	84.9609	89.5736	84.9609	89.5581	84.9609	89.4794	84.9609	89.4473	84.9609	89.3789	84.9609	89.3375	84.9609	89.2823	84.9609	89.2413	84.9609	89.2023	84.9609	89.1722	84.9609	89.1519	84.9609	89.1409
87.8906	90.2268	87.8906	90.2249	87.8906	90.2196	87.8906	90.2141	87.8906	90.2032	87.8906	90.1953	87.8906	90.1783	87.8906	90.1694	87.8906	90.1459	87.8906	90.1373	87.8906	90.1066	87.8906	90.099	87.8906	90.0611	87.8906	90.0539	87.8906	90.0089	87.8906	90.0004	87.8906	89.9489	87.8906	89.9361	87.8906	89.8793	87.8906	89.8587	87.8906	89.7978	87.8906	89.7665	87.8906	89.703	87.8906	89.6595	87.8906	89.5954	87.8906	89.5405	87.8906	89.478	87.8906	89.4156	87.8906	89.3578	87.8906	89.2947	87.8906	89.2455	87.8906	89.1906	87.8906	89.1543	87.8906	89.1168	87.8906	89.0974	87.8906	89.084
90.8203	90.3126	90.8203	90.3081	90.8203	90.3062	90.8203	90.2931	90.8203	90.289	90.8203	90.2684	90.8203	90.262	90.8203	90.2353	90.8203	90.2265	90.8203	90.1949	90.8203	90.1838	90.8203	90.1479	90.8203	90.135	90.8203	90.0941	90.8203	90.0801	90.8203	90.0323	90.8203	90.0184	90.8203	89.9607	90.8203	89.9481	90.8203	89.8772	90.8203	89.8669	90.8203	89.7805	90.8203	89.773	90.8203	89.671	90.8203	89.6662	90.8203	89.5516	90.8203	89.5491	90.8203	89.4288	90.8203	89.4278	90.8203	89.3128	90.8203	89.3125	90.8203	89.2161	90.8203	89.216	90.8203	89.1515	90.8203	89.1515	90.8203	89.1287
95.2148	90.3998	95.2148	90.3902	95.2148	90.3956	95.2148	90.3675	95.2148	90.3776	95.2148	90.333	95.2148	90.3464	95.2148	90.288	95.2148	90.3029	95.2148	90.2339	95.2148	90.2481	95.2148	90.1716	95.2148	90.1829	95.2148	90.1011	95.2148	90.1076	95.2148	90.0216	95.2148	90.0217	95.2148	89.9315	95.2148	89.9244	95.2148	89.8292	95.2148	89.8146	95.2148	89.7136	95.2148	89.6921	95.2148	89.5853	95.2148	89.5583	95.2148	89.4479	95.2148	89.4173	95.2148	89.3082	95.2148	89.2768	95.2148	89.1769	95.2148	89.1482	95.2148	89.0669	95.2148	89.0448	95.2148	88.9914	95.2148	88.9792	95.2148	88.9606
98.1445	90.3256	98.1445	90.3178	98.1445	90.3186	98.1445	90.296	98.1445	90.2971	98.1445	90.261	98.1445	90.262	98.1445	90.2144	98.1445	90.2144	98.1445	90.1578	98.1445	90.1559	98.1445	90.0921	98.1445	90.0874	98.1445	90.0178	98.1445	90.0094	98.1445	89.9342	98.1445	89.9215	98.1445	89.8402	98.1445	89.8228	98.1445	89.7342	98.1445	89.7122	98.1445	89.6152	98.1445	89.5891	98.1445	89.4843	98.1445	89.4548	98.1445	89.3449	98.1445	89.3136	98.1445	89.2043	98.1445	89.173	98.1445	89.073	98.1445	89.0446	98.1445	88.9636	98.1445	88.9417	98.1445	88.8887	98.1445	88.8767	98.1445	88.8583
101.074	90.1732	101.074	90.1672	101.074	90.1614	101.074	90.144	101.074	90.1321	101.074	90.1051	101.074	90.0866	101.074	90.0526	101.074	90.0268	101.074	89.9887	101.074	89.9551	101.074	89.9152	101.074	89.8735	101.074	89.8334	101.074	89.7837	101.074	89.7435	101.074	89.6862	101.074	89.6448	101.074	89.5809	101.074	89.5361	101.074	89.4673	101.074	89.4167	101.074	89.345	101.074	89.2873	101.074	89.2151	101.074	89.151	101.074	89.0814	101.074	89.0142	101.074	88.9506	101.074	88.8866	101.074	88.8329	101.074	88.7796	101.074	88.7404	101.074	88.705	101.074	88.6842	101.074	88.6718
105.469	90.3156	105.469	90.2904	105.469	90.3154	105.469	90.2407	105.469	90.2897	105.469	90.1684	105.469	90.2396	105.469	90.0762	105.469	90.1669	105.469	89.9676	105.469	90.0737	105.469	89.8456	105.469	89.962	105.469	89.7131	105.469	89.8335	105.469	89.572	105.469	89.6894	105.469	89.4234	105.469	89.5305	105.469	89.2678	105.469	89.3579	105.469	89.1054	105.469	89.1735	105.469	88.9378	105.469	88.9817	105.469	88.7687	105.469	88.7896	105.469	88.6049	105.469	88.6074	105.469	88.4565	105.469	88.4479	105.469	88.3357	105.469	88.3241	105.469	88.255	105.469	88.2472	105.469	88.2238
108.398	90.5562	108.398	90.5362	108.398	90.5507	108.398	90.4908	108.398	90.5201	108.398	90.4216	108.398	90.4658	108.398	90.3304	108.398	90.3899	108.398	90.2198	108.398	90.2945	108.398	90.0926	108.398	90.1817	108.398	89.9512	108.398	90.0533	108.398	89.7977	108.398	89.9102	108.398	89.634	108.398	89.7531	108.398	89.4616	108.398	89.5825	108.398	89.283	108.398	89.4	108.398	89.1017	108.398	89.2091	108.398	88.9236	108.398	89.0162	108.398	88.757	108.398	88.8312	108.398	88.6121	108.398	88.6665	108.398	88.5002	108.398	88.5351	108.398	88.4314	108.398	88.4483	108.398	88.413
112.793	90.6149	112.793	90.6027	112.793	90.5989	112.793	90.5628	112.793	90.5553	112.793	90.4968	112.793	90.4858	112.793	90.4071	112.793	90.3931	112.793	90.2968	112.793	90.2803	112.793	90.1689	112.793	90.1508	112.793	90.0266	112.793	90.0076	112.793	89.8725	112.793	89.853	112.793	89.7087	112.793	89.6885	112.793	89.5373	112.793	89.5154	112.793	89.3606	112.793	89.3353	112.793	89.1821	112.793	89.1519	112.793	89.007	112.793	88.9715	112.793	88.8427	112.793	88.8035	112.793	88.6981	112.793	88.6597	112.793	88.5827	112.793	88.5514	112.793	88.5051	112.793	88.4874	112.793	88.472
117.188	90.5844	117.188	90.5643	117.188	90.5735	117.188	90.5142	117.188	90.5319	117.188	90.4359	117.188	90.4609	117.188	90.3322	117.188	90.3629	117.188	90.2066	117.188	90.2409	117.188	90.0626	117.188	90.0983	117.188	89.904	117.188	89.9385	117.188	89.7343	117.188	89.7644	117.188	89.5567	117.188	89.5788	117.188	89.3741	117.188	89.3841	117.188	89.1897	117.188	89.1838	117.188	89.0071	117.188	88.9829	117.188	88.8311	117.188	88.7892	117.188	88.6678	117.188	88.6132	117.188	88.5246	117.188	88.4666	117.188	88.4092	117.188	88.3601	117.188	88.3291	117.188	88.3009	117.188	88.2913
120.117	90.6131	120.117	90.5823	120.117	90.6095	120.117	90.5184	120.117	90.5716	120.117	90.4232	120.117	90.5001	120.117	90.2998	120.117	90.3971	120.117	90.1512	120.117	90.2651	120.117	89.9814	120.117	90.1073	120.117	89.7941	120.117	89.9271	120.117	89.5933	120.117	89.728	120.117	89.383	120.117	89.5138	120.117	89.168	120.117	89.2888	120.117	88.9534	120.117	89.0585	120.117	88.7458	120.117	88.8301	120.117	88.5526	120.117	88.6132	120.117	88.3819	120.117	88.4187	120.117	88.2408	120.117	88.2578	120.117	88.1351	120.117	88.1395	120.117	88.0689	120.117	88.0686	120.117	88.0458
124.512	90.874	124.512	90.8418	124.512	90.8754	124.512	90.7791	124.512	90.8465	124.512	90.6872	124.512	90.7886	124.512	90.5683	124.512	90.7037	124.512	90.4249	124.512	90.5937	124.512	90.26	124.512	90.4602	124.512	90.0766	124.512	90.3045	124.512	89.8777	124.512	90.1272	124.512	89.6664	124.512	89.9287	124.512	89.4463	124.512	89.7104	124.512	89.2224	124.512	89.4758	124.512	89.0016	124.512	89.232	124.512	88.7931	124.512	88.99	124.512	88.6078	124.512	88.7641	124.512	88.4563	124.512	88.5698	124.512	88.3474	124.512	88.4196	124.512	88.2866	124.512	88.3213	124.512	88.2772
128.906	90.6661	128.906	90.6413	128.906	90.6608	128.906	90.5859	128.906	90.6267	128.906	90.5006	128.906	90.5666	128.906	90.3873	128.906	90.4836	128.906	90.2483	128.906	90.3809	128.906	90.0868	128.906	90.2612	128.906	89.9061	128.906	90.1261	128.906	89.7097	128.906	89.9761	128.906	89.5018	128.906	89.8107	128.906	89.2873	128.906	89.6294	128.906	89.0725	128.906	89.4336	128.906	88.8658	128.906	89.2271	128.906	88.6777	128.906	89.0181	128.906	88.519	128.906	88.8178	128.906	88.3993	128.906	88.6385	128.906	88.325	128.906	88.4912	128.906	88.2981	128.906	88.383	128.906	88.318
133.301	90.3472	133.301	90.3426	133.301	90.3221	133.301	90.3077	133.301	90.2693	133.301	90.2433	133.301	90.1921	133.301	90.1512	133.301	90.0949	133.301	90.034	133.301	89.9826	133.301	89.8946	133.301	89.8594	133.301	89.7358	133.301	89.7285	133.301	89.5607	133.301	89.5911	133.301	89.3725	133.301	89.4468	133.301	89.1752	133.301	89.2944	133.301	88.9744	133.301	89.1334	133.301	88.7782	133.301	88.9657	133.301	88.5969	133.301	88.7963	133.301	88.442	133.301	88.634	133.301	88.3237	133.301	88.4887	133.301	88.2487	133.301	88.3693	133.301	88.2183	133.301	88.282	133.301	88.2306
139.16	90.0418	139.16	90.046	139.16	89.9994	139.16	90.0135	139.16	89.9194	139.16	89.9476	139.16	89.8046	139.16	89.853	139.16	89.6603	139.16	89.7347	139.16	89.4939	139.16	89.598	139.16	89.3138	139.16	89.4474	139.16	89.1289	139.16	89.287	139.16	88.9473	139.16	89.1199	139.16	88.7752	139.16	88.9496	139.16	88.6168	139.16	88.7799	139.16	88.4746	139.16	88.6166	139.16	88.3505	139.16	88.4667	139.16	88.2467	139.16	88.3374	139.16	88.1657	139.16	88.2343	139.16	88.1094	139.16	88.1586	139.16	88.0778	139.16	88.1082	139.16	88.0686	139.16	88.079
143.555	89.9263	143.555	89.8946	143.555	89.9155	143.555	89.8227	143.555	89.8623	143.555	89.7147	143.555	89.7687	143.555	89.5767	143.555	89.6387	143.555	89.4159	143.555	89.478	143.555	89.2402	143.555	89.2934	143.555	89.0575	143.555	89.092	143.555	88.8748	143.555	88.8816	143.555	88.6982	143.555	88.6693	143.555	88.5324	143.555	88.4627	143.555	88.3815	143.555	88.2697	143.555	88.249	143.555	88.0992	143.555	88.1371	143.555	87.9604	143.555	88.0466	143.555	87.8609	143.555	87.9753	143.555	87.804	143.555	87.9187	143.555	87.7865	143.555	87.8713	143.555	87.7992	143.555	87.8304
147.949	89.8439	147.949	89.8088	147.949	89.8308	147.949	89.7261	147.949	89.7711	147.949	89.598	147.949	89.6687	147.949	89.4292	147.949	89.5288	147.949	89.2257	147.949	89.3583	147.949	88.9951	147.949	89.1647	147.949	88.7459	147.949	88.9556	147.949	88.4878	147.949	88.7379	147.949	88.2312	147.949	88.5182	147.949	87.9877	147.949	88.3023	147.949	87.77	147.949	88.0962	147.949	87.5901	147.949	87.9067	147.949	87.4573	147.949	87.7416	147.949	87.3748	147.949	87.6077	147.949	87.3377	147.949	87.5087	147.949	87.3335	147.949	87.4422	147.949	87.3479	147.949	87.3997	147.949	87.3705
153.809	89.7042	153.809	89.6871	153.809	89.6675	153.809	89.616	153.809	89.5789	153.809	89.4931	153.809	89.4428	153.809	89.322	153.809	89.2654	153.809	89.1081	153.809	89.0551	153.809	88.8579	153.809	88.8215	153.809	88.5794	153.809	88.5747	153.809	88.2819	153.809	88.3247	153.809	87.9765	153.809	88.0805	153.809	87.6772	153.809	87.85	153.809	87.4006	153.809	87.64	153.809	87.165	153.809	87.4564	153.809	86.9871	153.809	87.3037	153.809	86.8764	153.809	87.1841	153.809	86.8311	153.809	87.0951	153.809	86.8373	153.809	87.0289	153.809	86.8743	153.809	86.9746	153.809	86.9234
159.668	89.853	159.668	89.8485	159.668	89.8057	159.668	89.7938	159.668	89.7067	159.668	89.6913	159.668	89.5576	159.668	89.5442	159.668	89.362	159.668	89.3561	159.668	89.1255	159.668	89.131	159.668	88.8562	159.668	88.8732	159.668	88.5639	159.668	88.588	159.668	88.2597	159.668	88.2826	159.668	87.9562	159.668	87.9675	159.668	87.6664	159.668	87.6579	159.668	87.4041	159.668	87.3739	159.668	87.1823	159.668	87.137	159.668	87.0118	159.668	86.9639	159.668	86.8972	159.668	86.8588	159.668	86.8338	159.668	86.8109	159.668	86.8079	159.668	86.7982	159.668	86.8011	159.668	86.7988
165.527	89.8404	165.527	89.8328	165.527	89.7982	165.527	89.7774	165.527	89.7057	165.527	89.6773	165.527	89.5638	165.527	89.5363	165.527	89.3752	165.527	89.3585	165.527	89.1447	165.527	89.1482	165.527	88.8794	165.527	88.9093	165.527	88.5885	165.527	88.6459	165.527	88.2838	165.527	88.3636	165.527	87.9784	165.527	88.0704	165.527	87.6865	165.527	87.779	165.527	87.4222	165.527	87.5072	165.527	87.1995	165.527	87.2751	165.527	87.0301	165.527	87.0996	165.527	86.9202	165.527	86.9865	165.527	86.8665	165.527	86.9263	165.527	86.8551	165.527	86.8985	165.527	86.8658	165.527	86.8819
171.387	89.5608	171.387	89.5128	171.387	89.556	171.387	89.4154	171.387	89.4965	171.387	89.2742	171.387	89.3826	171.387	89.0961	171.387	89.2158	171.387	88.8898	171.387	88.9995	171.387	88.6643	171.387	88.7391	171.387	88.4291	171.387	88.4422	171.387	88.1928	171.387	88.1201	171.387	87.9632	171.387	87.7878	171.387	87.7469	171.387	87.4646	171.387	87.5501	171.387	87.1722	171.387	87.3786	171.387	86.9327	171.387	87.2372	171.387	86.764	171.387	87.1277	171.387	86.6744	171.387	87.0454	171.387	86.6586	171.387	86.9796	171.387	86.6985	171.387	86.9164	171.387	86.7688	171.387	86.8459
177.246	89.3272	177.246	89.2874	177.246	89.3056	177.246	89.1848	177.246	89.2257	177.246	89.0205	177.246	89.0929	177.246	88.7976	177.246	88.914	177.246	88.5215	177.246	88.6974	177.246	88.2011	177.246	88.4525	177.246	87.8497	177.246	88.19	177.246	87.4862	177.246	87.9215	177.246	87.1356	177.246	87.6597	177.246	86.828	177.246	87.417	177.246	86.5936	177.246	87.2053	177.246	86.4553	177.246	87.0354	177.246	86.4192	177.246	86.916	177.246	86.4699	177.246	86.8503	177.246	86.5739	177.246	86.8315	177.246	86.6906	177.246	86.8412	177.246	86.7856	177.246	86.8527	177.246	86.8397
183.105	89.0633	183.105	89.057	183.105	89.0047	183.105	88.9864	183.105	88.882	183.105	88.8534	183.105	88.6981	183.105	88.6599	183.105	88.4583	183.105	88.4085	183.105	88.1711	183.105	88.103	183.105	87.8479	183.105	87.7499	183.105	87.5049	183.105	87.3612	183.105	87.1629	183.105	86.9571	183.105	86.8474	183.105	86.568	183.105	86.5844	183.105	86.2337	183.105	86.3944	183.105	85.9963	183.105	86.2864	183.105	85.8863	183.105	86.2553	183.105	85.9057	183.105	86.2835	183.105	86.0222	183.105	86.3449	183.105	86.1805	183.105	86.4077	183.105	86.3244	183.105	86.4396	183.105	86.4152
188.965	89.0062	188.965	88.9795	188.965	88.9573	188.965	88.881	188.965	88.8301	188.965	88.7147	188.965	88.6235	188.965	88.4845	188.965	88.3388	188.965	88.194	188.965	87.9809	188.965	87.8472	188.965	87.5599	188.965	87.45	188.965	87.0939	188.965	87.0141	188.965	86.6123	188.965	86.5609	188.965	86.1569	188.965	86.126	188.965	85.7782	188.965	85.7578	188.965	85.5241	188.965	85.508	188.965	85.4219	188.965	85.4118	188.965	85.4645	188.965	85.4675	188.965	85.612	188.965	85.6314	188.965	85.8045	188.965	85.8344	188.965	85.9803	188.965	86.0073	188.965	86.0889	188.965	86.0997
196.289	89.5719	196.289	89.546	196.289	89.5307	196.289	89.4558	196.289	89.4193	196.289	89.3023	196.289	89.2332	196.289	89.0855	196.289	88.9674	196.289	88.8031	196.289	88.6162	196.289	88.4511	196.289	88.1753	196.289	88.0245	196.289	87.646	196.289	87.5213	196.289	87.0411	196.289	86.9474	196.289	86.3946	196.289	86.3269	196.289	85.7677	196.289	85.711	196.289	85.2457	196.289	85.1826	196.289	84.9128	196.289	84.8373	196.289	84.8096	196.289	84.7348	196.289	84.9052	196.289	84.8511	196.289	85.111	196.289	85.0855	196.289	85.3224	196.289	85.3169	196.289	85.4534	196.289	85.4537
203.613	89.3446	203.613	89.2697	203.613	89.3525	203.613	89.1328	203.613	89.2891	203.613	88.9388	203.613	89.1499	203.613	88.6921	203.613	88.9299	203.613	88.395	203.613	88.6229	203.613	88.047	203.613	88.2214	203.613	87.6445	203.613	87.7199	203.613	87.1837	203.613	87.1198	203.613	86.6649	203.613	86.4383	203.613	86.1009	203.613	85.7185	203.613	85.5266	203.613	85.0367	203.613	85.0045	203.613	84.4937	203.613	84.6149	203.613	84.1787	203.613	84.4194	203.613	84.1162	203.613	84.416	203.613	84.2445	203.613	84.5295	203.613	84.4504	203.613	84.6526	203.613	84.6246	203.613	84.6975
210.938	89.3009	210.938	89.2309	210.938	89.3021	210.938	89.0942	210.938	89.2335	210.938	88.894	210.938	89.0951	210.938	88.6337	210.938	88.8856	210.938	88.3159	210.938	88.6015	210.938	87.9414	210.938	88.2358	210.938	87.5094	210.938	87.7806	210.938	87.0195	210.938	87.232	210.938	86.4759	210.938	86.5997	210.938	85.8948	210.938	85.9179	210.938	85.3125	210.938	85.2543	210.938	84.791	210.938	84.7039	210.938	84.4096	210.938	84.3567	210.938	84.2306	210.938	84.2458	210.938	84.253	210.938	84.3209	210.938	84.4	210.938	84.4776	210.938	84.5601	210.938	84.6087	210.938	84.6426
218.262	89.0588	218.262	88.9929	218.262	89.0675	218.262	88.873	218.262	89.0163	218.262	88.701	218.262	88.9023	218.262	88.4779	218.262	88.7224	218.262	88.202	218.262	88.4723	218.262	87.8696	218.262	88.1453	218.262	87.4749	218.262	87.7325	218.262	87.013	218.262	87.2271	218.262	86.4847	218.262	86.6308	218.262	85.9038	218.262	85.9654	218.262	85.3056	218.262	85.285	218.262	84.753	218.262	84.6803	218.262	84.3299	218.262	84.258	218.262	84.1095	218.262	84.0854	218.262	84.1044	218.262	84.1367	218.262	84.2436	218.262	84.3016	218.262	84.4084	218.262	84.4505	218.262	84.4936
225.586	88.9078	225.586	88.8882	225.586	88.8717	225.586	88.812	225.586	88.78	225.586	88.6786	225.586	88.6323	225.586	88.4862	225.586	88.4263	225.586	88.232	225.586	88.1571	225.586	87.9113	225.586	87.8167	225.586	87.5181	225.586	87.3964	225.586	87.0478	225.586	86.893	225.586	86.5032	225.586	86.3194	225.586	85.9027	225.586	85.7175	225.586	85.2897	225.586	85.1639	225.586	84.737	225.586	84.7534	225.586	84.3371	225.586	84.5536	225.586	84.1659	225.586	84.5601	225.586	84.2314	225.586	84.6957	225.586	84.4548	225.586	84.8528	225.586	84.711	225.586	84.9365	225.586	84.8904
232.91	88.9862	232.91	88.9515	232.91	88.9623	232.91	88.8591	232.91	88.8792	232.91	88.7107	232.91	88.7349	232.91	88.5082	232.91	88.5252	232.91	88.252	232.91	88.2407	232.91	87.9391	232.91	87.8662	232.91	87.5611	232.91	87.3812	232.91	87.1064	232.91	86.7659	232.91	86.5676	232.91	86.0143	232.91	85.9527	232.91	85.1575	232.91	85.2988	232.91	84.2964	232.91	84.6818	232.91	83.6179	232.91	84.2085	232.91	83.3205	232.91	83.9753	232.91	83.4478	232.91	84.0034	232.91	83.8324	232.91	84.2088	232.91	84.2415	232.91	84.445	232.91	84.5112	232.91	84.5741
241.699	88.9808	241.699	88.9224	241.699	88.9871	241.699	88.8131	241.699	88.939	241.699	88.6528	241.699	88.8325	241.699	88.4399	241.699	88.6609	241.699	88.1705	241.699	88.412	241.699	87.837	241.699	88.066	241.699	87.4271	241.699	87.595	241.699	86.926	241.699	86.9665	241.699	86.3237	241.699	86.1533	241.699	85.6297	241.699	85.1538	241.699	84.8889	241.699	84.0287	241.699	84.1893	241.699	82.9559	241.699	83.6446	241.699	82.2402	241.699	83.3457	241.699	82.1207	241.699	83.3039	241.699	82.4967	241.699	83.4342	241.699	83.0303	241.699	83.5912	241.699	83.4456	241.699	83.628
250.488	88.9803	250.488	88.8879	250.488	89.0138	250.488	88.7376	250.488	88.9905	250.488	88.5338	250.488	88.9151	250.488	88.2832	250.488	88.7929	250.488	87.9933	250.488	88.6256	250.488	87.6685	250.488	88.4055	250.488	87.3051	250.488	88.113	250.488	86.8888	250.488	87.7181	250.488	86.4	250.488	87.1899	250.488	85.8272	250.488	86.5083	250.488	85.1879	250.488	85.6808	250.488	84.5461	250.488	84.7648	250.488	84.0071	250.488	83.8923	250.488	83.668	250.488	83.2567	250.488	83.5462	250.488	83.0026	250.488	83.5588	250.488	83.0874	250.488	83.5788	250.488	83.3162	250.488	83.5064
259.277	89.0886	259.277	89.0222	259.277	89.106	259.277	88.9053	259.277	89.0728	259.277	88.7341	259.277	88.9858	259.277	88.5027	259.277	88.8411	259.277	88.2051	259.277	88.6342	259.277	87.8343	259.277	88.3552	259.277	87.3818	259.277	87.9848	259.277	86.836	259.277	87.4939	259.277	86.1868	259.277	86.8561	259.277	85.439	259.277	86.0702	259.277	84.6362	259.277	85.1906	259.277	83.8831	259.277	84.3468	259.277	83.3354	259.277	83.7158	259.277	83.1173	259.277	83.4227	259.277	83.2166	259.277	83.4447	259.277	83.4852	259.277	83.6333	259.277	83.7439	259.277	83.8155	259.277	83.8676
268.066	88.5279	268.066	88.4857	268.066	88.5223	268.066	88.3943	268.066	88.4748	268.066	88.2569	268.066	88.3932	268.066	88.0794	268.066	88.2839	268.066	87.8654	268.066	88.1482	268.066	87.6118	268.066	87.9781	268.066	87.3066	268.066	87.7506	268.066	86.9289	268.066	87.4262	268.066	86.4549	268.066	86.9572	268.066	85.8694	268.066	86.3075	268.066	85.1847	268.066	85.4849	268.066	84.4617	268.066	84.5792	268.066	83.8171	268.066	83.7778	268.066	83.3872	268.066	83.2913	268.066	83.2409	268.066	83.1855	268.066	83.3173	268.066	83.3207	268.066	83.4668	268.066	83.4878	268.066	83.5469
276.855	88.1718	276.855	88.1311	276.855	88.1573	276.855	88.0308	276.855	88.0985	276.855	87.8738	276.855	88.0086	276.855	87.6678	276.855	87.8984	276.855	87.4206	276.855	87.7704	276.855	87.1342	276.855	87.6142	276.855	86.7998	276.855	87.4045	276.855	86.3992	276.855	87.1029	276.855	85.9145	276.855	86.6689	276.855	85.3465	276.855	86.0821	276.855	84.735	276.855	85.3736	276.855	84.1671	276.855	84.6539	276.855	83.7534	276.855	84.0951	276.855	83.5699	276.855	83.8289	276.855	83.6087	276.855	83.8358	276.855	83.7832	276.855	83.9719	276.855	83.9774	276.855	84.0874	276.855	84.0946
287.109	88.1206	287.109	88.1167	287.109	88.0438	287.109	88.03	287.109	87.8963	287.109	87.8638	287.109	87.6968	287.109	87.6248	287.109	87.472	287.109	87.3196	287.109	87.25	287.109	86.9503	287.109	87.0454	287.109	86.5105	287.109	86.84	287.109	85.9829	287.109	86.5751	287.109	85.3474	287.109	86.1685	287.109	84.604	287.109	85.551	287.109	83.8129	287.109	84.7175	287.109	83.126	287.109	83.7917	287.109	82.7428	287.109	83.0628	287.109	82.7558	287.109	82.8298	287.109	83.0587	287.109	83.0793	287.109	83.4522	287.109	83.5031	287.109	83.7718	287.109	83.8216	287.109	83.9134
297.363	88.218	297.363	88.2139	297.363	88.1025	297.363	88.0999	297.363	87.8726	297.363	87.8979	297.363	87.5487	297.363	87.6352	297.363	87.1616	297.363	87.3368	297.363	86.7448	297.363	87.017	297.363	86.3263	297.363	86.6705	297.363	85.9218	297.363	86.267	297.363	85.5277	297.363	85.7561	297.363	85.1189	297.363	85.09	297.363	84.6597	297.363	84.2677	297.363	84.1376	297.363	83.3989	297.363	83.6137	297.363	82.739	297.363	83.2475	297.363	82.5592	297.363	83.2065	297.363	82.8681	297.363	83.4818	297.363	83.4002	297.363	83.8656	297.363	83.8783	297.363	84.1286	297.363	84.1412
307.617	89.097	307.617	88.999	307.617	89.0765	307.617	88.7876	307.617	88.9381	307.617	88.4732	307.617	88.6883	307.617	88.0696	307.617	88.3399	307.617	87.5913	307.617	87.9105	307.617	87.0488	307.617	87.4144	307.617	86.4465	307.617	86.8474	307.617	85.7825	307.617	86.1717	307.617	85.0542	307.617	85.3201	307.617	84.272	307.617	84.2313	307.617	83.4835	307.617	82.9256	307.617	82.7954	307.617	81.6353	307.617	82.355	307.617	80.8652	307.617	82.2554	307.617	80.9672	307.617	82.4422	307.617	81.6381	307.617	82.7476	307.617	82.3599	307.617	82.9962	307.617	82.8565	307.617	83.0592
319.336	88.5757	319.336	88.5423	319.336	88.521	319.336	88.4231	319.336	88.3854	319.336	88.226	319.336	88.1833	319.336	87.9581	319.336	87.9315	319.336	87.6192	319.336	87.6424	319.336	87.1957	319.336	87.3175	319.336	86.6577	319.336	86.9387	319.336	85.9635	319.336	86.4606	319.336	85.0746	319.336	85.8122	319.336	83.9912	319.336	84.9193	319.336	82.8156	319.336	83.7557	319.336	81.8239	319.336	82.4392	319.336	81.3918	319.336	81.3492	319.336	81.6372	319.336	80.9935	319.336	82.259	319.336	81.4301	319.336	82.8691	319.336	82.1955	319.336	83.227	319.336	82.8635	319.336	83.2299
329.59	88.9158	329.59	88.8646	329.59	88.8638	329.59	88.7229	329.59	88.707	329.59	88.5086	329.59	88.4595	329.59	88.2374	329.59	88.1506	329.59	87.9155	329.59	87.8175	329.59	87.5328	329.59	87.4847	329.59	87.055	329.59	87.1395	329.59	86.4167	329.59	86.7192	329.59	85.5235	329.59	86.1241	329.59	84.2775	329.59	85.2517	329.59	82.6563	329.59	84.0482	329.59	80.9314	329.59	82.6092	329.59	79.9431	329.59	81.3585	329.59	80.3385	329.59	80.9748	329.59	81.4529	329.59	81.5511	329.59	82.4761	329.59	82.4314	329.59	83.1204	329.59	83.0868	329.59	83.3276
341.309	89.1158	341.309	89.0929	341.309	89.0217	341.309	88.9547	341.309	88.8241	341.309	88.7223	341.309	88.5446	341.309	88.4312	341.309	88.2098	341.309	88.1175	341.309	87.855	341.309	87.7985	341.309	87.5232	341.309	87.4598	341.309	87.2432	341.309	87.049	341.309	86.9848	341.309	86.4758	341.309	86.6356	341.309	85.623	341.309	86.034	341.309	84.3814	341.309	85.0383	341.309	82.7438	341.309	83.6167	341.309	81.0447	341.309	82.0273	341.309	80.1798	341.309	81.0252	341.309	80.6547	341.309	81.2147	341.309	81.6939	341.309	82.0383	341.309	82.5285	341.309	82.7031	341.309	82.885
353.027	89.1806	353.027	89.1462	353.027	89.069	353.027	88.9741	353.027	88.8137	353.027	88.683	353.027	88.4245	353.027	88.2999	353.027	87.915	353.027	87.8523	353.027	87.3012	353.027	87.3569	353.027	86.6049	353.027	86.8078	353.027	85.859	353.027	86.1673	353.027	85.0971	353.027	85.364	353.027	84.317	353.027	84.303	353.027	83.4565	353.027	82.9069	353.027	82.4332	353.027	81.2268	353.027	81.27	353.027	79.6796	353.027	80.2592	353.027	79.0842	353.027	79.9105	353.027	79.6446	353.027	80.3455	353.027	80.5999	353.027	81.0687	353.027	81.3518	353.027	81.5897	353.027	81.6973
366.211	88.5893	366.211	88.4484	366.211	88.5993	366.211	88.1897	366.211	88.489	366.211	87.8507	366.211	88.2831	366.211	87.4837	366.211	88.0074	366.211	87.1346	366.211	87.6749	366.211	86.8192	366.211	87.2799	366.211	86.5099	366.211	86.7976	366.211	86.1391	366.211	86.183	366.211	85.6139	366.211	85.3656	366.211	84.8341	366.211	84.2461	366.211	83.7258	366.211	82.7202	366.211	82.3221	366.211	80.7699	366.211	80.9295	366.211	78.7446	366.211	80.1613	366.211	77.6919	366.211	80.2627	366.211	78.197	366.211	80.6994	366.211	79.3085	366.211	80.9362	366.211	80.2376	366.211	80.7881
379.395	88.3457	379.395	88.3066	379.395	88.3308	379.395	88.2073	379.395	88.2762	379.395	88.0551	379.395	88.1962	379.395	87.8699	379.395	88.0957	379.395	87.672	379.395	87.9629	379.395	87.4566	379.395	87.7715	379.395	87.1779	379.395	87.4868	379.395	86.7554	379.395	87.0646	379.395	86.0884	379.395	86.4386	379.395	85.0555	379.395	85.5123	379.395	83.5086	379.395	84.1755	379.395	81.3271	379.395	82.3631	379.395	78.7847	379.395	80.2266	379.395	77.5068	379.395	78.5065	379.395	78.5474	379.395	78.2471	379.395	79.9776	379.395	79.1269	379.395	80.721	379.395	80.116	379.395	80.7172
392.578	88.3772	392.578	88.3602	392.578	88.2898	392.578	88.2638	392.578	88.104	392.578	88.1304	392.578	87.8757	392.578	88.0151	392.578	87.7043	392.578	87.9692	392.578	87.67	392.578	88.0006	392.578	87.7519	392.578	88.0432	392.578	87.8266	392.578	87.9749	392.578	87.7429	392.578	87.6618	392.578	87.375	392.578	86.9844	392.578	86.626	392.578	85.8427	392.578	85.4185	392.578	84.1829	392.578	83.7378	392.578	82.1688	392.578	81.8367	392.578	80.673	392.578	80.6079	392.578	80.8718	392.578	80.8866	392.578	82.0627	392.578	81.9687	392.578	82.9942	392.578	82.8881	392.578	83.27
405.762	89.1469	405.762	89.0622	405.762	89.0407	405.762	88.7971	405.762	88.7409	405.762	88.3792	405.762	88.2683	405.762	87.8814	405.762	87.7003	405.762	87.4407	405.762	87.1934	405.762	87.207	405.762	86.9322	405.762	87.2112	405.762	86.9772	405.762	87.3006	405.762	87.1775	405.762	87.2381	405.762	87.2742	405.762	86.8154	405.762	87.0341	405.762	85.883	405.762	86.2935	405.762	84.3658	405.762	84.9777	405.762	82.4359	405.762	83.2249	405.762	81.0508	405.762	81.7422	405.762	81.4491	405.762	81.6293	405.762	82.7885	405.762	82.6324	405.762	83.785	405.762	83.627	405.762	84.064
420.41	89.8218	420.41	89.6644	420.41	89.766	420.41	89.3038	420.41	89.4895	420.41	88.7494	420.41	88.9985	420.41	88.0278	420.41	88.3236	420.41	87.2176	420.41	87.5221	420.41	86.4709	420.41	86.6729	420.41	85.9558	420.41	85.866	420.41	85.7036	420.41	85.1708	420.41	85.535	420.41	84.5736	420.41	85.1661	420.41	83.9321	420.41	84.3409	420.41	83.0318	420.41	82.9235	420.41	81.7642	420.41	81.1669	420.41	80.5158	420.41	80.3025	420.41	80.4569	420.41	81.3217	420.41	81.8392	420.41	82.9611	420.41	83.3899	420.41	84.139	420.41	84.3631	420.41	84.6135
435.059	89.9356	435.059	89.8238	435.059	89.8979	435.059	89.5718	435.059	89.6982	435.059	89.1806	435.059	89.3406	435.059	88.6637	435.059	88.8718	435.059	88.089	435.059	88.3951	435.059	87.6005	435.059	88.0482	435.059	87.3427	435.059	87.9185	435.059	87.3049	435.059	87.9515	435.059	87.284	435.059	87.9569	435.059	87.0086	435.059	87.6913	435.059	86.2307	435.059	86.9151	435.059	84.7173	435.059	85.4001	435.059	82.2415	435.059	82.9553	435.059	78.9927	435.059	79.7261	435.059	77.5732	435.059	77.5552	435.059	79.3295	435.059	78.5246	435.059	80.8206	435.059	80.2102	435.059	81.0786
451.172	89.6285	451.172	89.5653	451.172	89.5426	451.172	89.3546	451.172	89.2945	451.172	88.9962	451.172	88.8737	451.172	88.5136	451.172	88.3069	451.172	87.9742	451.172	87.6816	451.172	87.4794	451.172	87.1199	451.172	87.1072	451.172	86.6931	451.172	86.8419	451.172	86.359	451.172	86.5662	451.172	85.9913	451.172	86.1129	451.172	85.4405	451.172	85.3104	451.172	84.5709	451.172	84.0195	451.172	83.3412	451.172	82.2842	451.172	82.0452	451.172	80.8553	451.172	81.5206	451.172	81.1059	451.172	82.1966	451.172	82.5327	451.172	83.2919	451.172	83.7322	451.172	84.0659	451.172	84.2454
465.82	91.0073	465.82	90.9401	465.82	90.8614	465.82	90.6382	465.82	90.493	465.82	90.0668	465.82	89.8674	465.82	89.2121	465.82	88.9691	465.82	88.1537	465.82	87.8951	465.82	87.1703	465.82	86.9571	465.82	86.6919	465.82	86.5593	465.82	86.8428	465.82	86.7299	465.82	87.2154	465.82	87.0458	465.82	87.3088	465.82	87.0514	465.82	86.7664	465.82	86.4005	465.82	85.2789	465.82	84.7716	465.82	82.5082	465.82	81.9428	465.82	78.94	465.82	79.2848	465.82	79.3407	465.82	80.7282	465.82	82.4571	465.82	83.3436	465.82	84.4314	465.82	84.8267	465.82	85.1667
483.398	90.1007	483.398	90.0095	483.398	89.9655	483.398	89.703	483.398	89.6259	483.398	89.2177	483.398	89.1167	483.398	88.5862	483.398	88.4661	483.398	87.8285	483.398	87.712	483.398	86.9936	483.398	86.9551	483.398	86.2198	483.398	86.3806	483.398	85.6994	483.398	86.1355	483.398	85.4715	483.398	86.1198	483.398	85.3045	483.398	86.0046	483.398	84.8762	483.398	85.4365	483.398	83.9389	483.398	84.1355	483.398	82.3397	483.398	81.905	483.398	80.2129	483.398	78.9791	483.398	78.8695	483.398	77.6935	483.398	79.8337	483.398	79.5516	483.398	81.3962	483.398	81.4057	483.398	82.0356
499.512	89.9078	499.512	89.8105	499.512	89.7841	499.512	89.5008	499.512	89.4483	499.512	89.007	499.512	88.906	499.512	88.3604	499.512	88.1564	499.512	87.596	499.512	87.2401	499.512	86.8079	499.512	86.3263	499.512	86.2066	499.512	85.7234	499.512	85.9758	499.512	85.6162	499.512	85.9867	499.512	85.7944	499.512	85.8662	499.512	85.8444	499.512	85.286	499.512	85.4186	499.512	84.0266	499.512	84.2577	499.512	81.9175	499.512	82.1791	499.512	79.0112	499.512	79.4641	499.512	76.9777	499.512	78.2761	499.512	78.3192	499.512	79.773	499.512	80.4183	499.512	81.2149	499.512	81.4627
517.09	89.6652	517.09	89.544	517.09	89.6144	517.09	89.2645	517.09	89.3799	517.09	88.829	517.09	88.9449	517.09	88.2139	517.09	88.2803	517.09	87.3964	517.09	87.3771	517.09	86.4364	517.09	86.3363	517.09	85.5617	517.09	85.456	517.09	85.0652	517.09	85.0749	517.09	84.9484	517.09	85.1277	517.09	84.8457	517.09	85.1548	517.09	84.3526	517.09	84.7436	517.09	83.1945	517.09	83.6864	517.09	81.2511	517.09	82.0019	517.09	79.021	517.09	80.2787	517.09	78.6783	517.09	79.9636	517.09	80.4962	517.09	81.1452	517.09	82.0885	517.09	82.3067	517.09	82.6889
536.133	90.081	536.133	89.964	536.133	90.0259	536.133	89.6771	536.133	89.7775	536.133	89.2002	536.133	89.3069	536.133	88.509	536.133	88.582	536.133	87.6098	536.133	87.5796	536.133	86.5737	536.133	86.3494	536.133	85.5799	536.133	85.1641	536.133	84.939	536.133	84.5488	536.133	84.8503	536.133	84.6928	536.133	85.0044	536.133	85.0396	536.133	84.7923	536.133	84.9206	536.133	83.7596	536.133	83.8923	536.133	81.7745	536.133	81.5881	536.133	79.3033	536.133	77.86	536.133	77.9549	536.133	76.0184	536.133	78.8528	536.133	78.9519	536.133	80.5135	536.133	81.0874	536.133	81.4846
555.176	89.7528	555.176	89.6443	555.176	89.7313	555.176	89.411	555.176	89.5607	555.176	89.0258	555.176	89.2127	555.176	88.4282	555.176	88.6365	555.176	87.5542	555.176	87.7547	555.176	86.4023	555.176	86.5204	555.176	85.1615	555.176	85.1022	555.176	84.3232	555.176	84.132	555.176	84.248	555.176	84.1561	555.176	84.4753	555.176	84.5685	555.176	84.2425	555.176	84.4442	555.176	83.095	555.176	83.3192	555.176	80.8352	555.176	81.0845	555.176	77.7854	555.176	78.4539	555.176	76.8728	555.176	78.158	555.176	79.2891	555.176	80.0791	555.176	81.3393	555.176	81.6196	555.176	82.0905
574.219	89.3841	574.219	89.3793	574.219	89.2914	574.219	89.2212	574.219	89.1351	574.219	88.8584	574.219	88.8846	574.219	88.2473	574.219	88.4317	574.219	87.3533	574.219	87.6452	574.219	86.1787	574.219	86.4763	574.219	84.8612	574.219	85.1002	574.219	83.8762	574.219	84.0537	574.219	83.8574	574.219	83.9105	574.219	84.5641	574.219	84.3879	574.219	85.0293	574.219	84.614	574.219	84.5483	574.219	83.9553	574.219	82.784	574.219	82.1101	574.219	79.9561	574.219	79.2775	574.219	78.2075	574.219	77.4119	574.219	79.1821	574.219	78.3886	574.219	80.355	574.219	79.8908	574.219	80.6076
594.727	89.5886	594.727	89.4472	594.727	89.5295	594.727	89.1467	594.727	89.2977	594.727	88.743	594.727	88.9389	594.727	88.2013	594.727	88.4291	594.727	87.379	594.727	87.6571	594.727	86.1437	594.727	86.5042	594.727	84.566	594.727	85.0072	594.727	83.1304	594.727	83.5918	594.727	82.5581	594.727	82.9833	594.727	82.8243	594.727	83.2843	594.727	83.1329	594.727	83.7889	594.727	82.8131	594.727	83.7593	594.727	81.4249	594.727	82.6009	594.727	78.6136	594.727	79.828	594.727	75.3119	594.727	76.0968	594.727	76.3366	594.727	76.4734	594.727	78.8639	594.727	78.9167	594.727	79.7842
615.234	89.7475	615.234	89.6362	615.234	89.6454	615.234	89.3439	615.234	89.3335	615.234	88.9068	615.234	88.8737	615.234	88.3577	615.234	88.3301	615.234	87.6856	615.234	87.6553	615.234	86.7512	615.234	86.6845	615.234	85.3527	615.234	85.3126	615.234	83.6259	615.234	83.7758	615.234	82.5586	615.234	82.8154	615.234	82.735	615.234	82.7931	615.234	82.9952	615.234	82.9018	615.234	82.4212	615.234	82.31	615.234	80.8011	615.234	80.6286	615.234	78.5521	615.234	78.0718	615.234	78.0404	615.234	77.4871	615.234	80.1279	615.234	80.0558	615.234	82.0366	615.234	82.1193	615.234	82.7589
637.207	89.5919	637.207	89.5071	637.207	89.4975	637.207	89.2436	637.207	89.2151	637.207	88.7916	637.207	88.7498	637.207	88.1416	637.207	88.1404	637.207	87.3075	637.207	87.4171	637.207	86.3291	637.207	86.5321	637.207	85.2184	637.207	85.4353	637.207	83.9866	637.207	84.309	637.207	82.8641	637.207	83.5586	637.207	82.3241	637.207	83.1914	637.207	82.3574	637.207	82.7288	637.207	82.2234	637.207	81.9058	637.207	81.2471	637.207	80.8025	637.207	79.2997	637.207	79.5919	637.207	77.5628	637.207	78.7019	637.207	78.1379	637.207	79.0236	637.207	79.7419	637.207	80.1187	637.207	80.5392
659.18	89.6324	659.18	89.5383	659.18	89.5864	659.18	89.3228	659.18	89.3667	659.18	88.9583	659.18	88.9457	659.18	88.3825	659.18	88.3224	659.18	87.5499	659.18	87.535	659.18	86.4552	659.18	86.5836	659.18	85.1337	659.18	85.372	659.18	83.7382	659.18	83.9701	659.18	82.7813	659.18	83.0575	659.18	82.8018	659.18	83.1951	659.18	83.0874	659.18	83.5526	659.18	82.41	659.18	83.0363	659.18	80.1781	659.18	81.0902	659.18	77.1233	659.18	78.4754	659.18	77.2584	659.18	78.8995	659.18	80.0521	659.18	81.1621	659.18	82.1045	659.18	82.5529	659.18	82.8873
682.617	89.6434	682.617	89.5897	682.617	89.5203	682.617	89.3266	682.617	89.2441	682.617	88.8439	682.617	88.7985	682.617	88.1656	682.617	88.1319	682.617	87.3095	682.617	87.2556	682.617	86.2469	682.617	86.2708	682.617	84.9831	682.617	85.1758	682.617	83.7461	682.617	83.9313	682.617	82.9757	682.617	82.9677	682.617	82.7458	682.617	82.7937	682.617	82.4204	682.617	82.7913	682.617	81.2697	682.617	82.0274	682.617	79.1432	682.617	80.3046	682.617	77.2167	682.617	78.5291	682.617	77.6041	682.617	78.6942	682.617	79.9237	682.617	80.696	682.617	82.1147	682.617	82.4659	682.617	83.029
707.52	89.379	707.52	89.3882	707.52	89.2317	707.52	89.2099	707.52	88.9837	707.52	88.8416	707.52	88.6705	707.52	88.3481	707.52	88.2384	707.52	87.6819	707.52	87.4889	707.52	86.6132	707.52	86.2948	707.52	85.0149	707.52	84.8793	707.52	83.2676	707.52	83.768	707.52	82.3464	707.52	83.2146	707.52	82.4583	707.52	82.9965	707.52	82.5035	707.52	82.7076	707.52	81.6936	707.52	81.7482	707.52	79.8759	707.52	79.7325	707.52	77.8551	707.52	78.0565	707.52	78.2479	707.52	79.0898	707.52	80.4343	707.52	80.9743	707.52	82.0643	707.52	82.2775	707.52	82.6806
732.422	89.8203	732.422	89.7423	732.422	89.7024	732.422	89.5038	732.422	89.4037	732.422	89.1188	732.422	89.0172	732.422	88.5763	732.422	88.6017	732.422	87.8649	732.422	88.0023	732.422	86.8522	732.422	86.9262	732.422	85.1806	732.422	85.159	732.422	82.7155	732.422	82.7984	732.422	81.2293	732.422	81.4305	732.422	82.368	732.422	82.3111	732.422	83.1721	732.422	82.6845	732.422	82.1415	732.422	81.1784	732.422	79.1382	732.422	77.9256	732.422	76.393	732.422	75.1345	732.422	78.688	732.422	78.3035	732.422	81.4333	732.422	81.711	732.422	82.9634	732.422	83.2778	732.422	83.5656
757.324	89.129	757.324	88.8893	757.324	89.1478	757.324	88.5834	757.324	88.8641	757.324	88.3383	757.324	88.4229	757.324	88.2054	757.324	88.1913	757.324	88.1078	757.324	88.1237	757.324	87.6695	757.324	87.5168	757.324	86.2325	757.324	85.7781	757.324	83.197	757.324	83.0671	757.324	79.9643	757.324	81.8401	757.324	81.8341	757.324	83.2925	757.324	83.9654	757.324	83.9795	757.324	83.497	757.324	82.4296	757.324	79.4175	757.324	76.9633	757.324	63.6178	757.324	60.7705	757.324	78.0402	757.324	78.7851	757.324	83.9059	757.324	83.3694	757.324	86.4137	757.324	85.7521	757.324	86.8696
785.156	89.4336	785.156	89.3451	785.156	89.097	785.156	88.8507	785.156	88.422	785.156	88.1088	785.156	87.5401	785.156	87.5557	785.156	86.6861	785.156	87.5646	785.156	86.2785	785.156	87.5705	785.156	86.2649	785.156	86.7405	785.156	85.5685	785.156	84.429	785.156	82.7076	785.156	79.8009	785.156	76.0693	785.156	78.8891	785.156	78.7225	785.156	83.3892	785.156	83.2228	785.156	84.4272	785.156	84.2982	785.156	82.0212	785.156	82.5021	785.156	74.3404	785.156	74.495	785.156	74.6619	785.156	75.274	785.156	83.011	785.156	83.1021	785.156	85.8457	785.156	85.5503	785.156	86.2919
811.523	90.0004	811.523	89.8574	811.523	89.8282	811.523	89.2798	811.523	89.3339	811.523	88.1881	811.523	88.3171	811.523	86.6876	811.523	86.7875	811.523	85.4949	811.523	85.7063	811.523	85.6702	811.523	85.8731	811.523	86.2829	811.523	86.2372	811.523	85.723	811.523	85.5133	811.523	83.1341	811.523	82.5324	811.523	78.8335	811.523	77.6689	811.523	80.5473	811.523	79.9168	811.523	83.5805	811.523	82.6442	811.523	83.1928	811.523	82.4285	811.523	78.0979	811.523	78.4324	811.523	73.2007	811.523	72.6897	811.523	81.315	811.523	80.9383	811.523	84.7212	811.523	84.9572	811.523	85.9208
840.82	90.6045	840.82	90.2987	840.82	90.4132	840.82	89.6387	840.82	89.7825	840.82	88.7234	840.82	88.7382	840.82	87.2966	840.82	87.1617	840.82	85.1844	840.82	85.3836	840.82	83.6042	840.82	84.4244	840.82	83.7758	840.82	84.2576	840.82	83.785	840.82	83.9454	840.82	81.8939	840.82	82.2968	840.82	77.7806	840.82	78.6517	840.82	78.1311	840.82	79.7659	840.82	81.1597	840.82	83.163	840.82	81.5604	840.82	83.5964	840.82	78.3885	840.82	80.9495	840.82	66.282	840.82	73.5387	840.82	76.8822	840.82	75.4499	840.82	82.1276	840.82	81.8159	840.82	83.5051
870.117	90.1996	870.117	90.0204	870.117	90.046	870.117	89.5931	870.117	89.612	870.117	88.9533	870.117	88.9383	870.117	87.8248	870.117	87.8832	870.117	86.0664	870.117	86.3012	870.117	84.1408	870.117	85.0718	870.117	83.1869	870.117	84.9737	870.117	83.4286	870.117	84.2023	870.117	82.5461	870.117	81.5524	870.117	79.2355	870.117	77.7298	870.117	77.9395	870.117	78.6716	870.117	81.4717	870.117	82.6689	870.117	83.0378	870.117	83.8271	870.117	80.8376	870.117	81.5545	870.117	73.0399	870.117	74.5745	870.117	71.0661	870.117	66.4337	870.117	78.3566	870.117	78.579	870.117	80.6966
900.879	91.0893	900.879	90.9933	900.879	91.006	900.879	90.5105	900.879	90.6982	900.879	89.6401	900.879	90.0238	900.879	88.6682	900.879	89.0409	900.879	87.3924	900.879	87.5899	900.879	85.6546	900.879	85.2599	900.879	84.4785	900.879	83.2906	900.879	83.7645	900.879	83.4995	900.879	82.1439	900.879	83.7764	900.879	79.2442	900.879	81.5739	900.879	76.7474	900.879	78.1626	900.879	80.1013	900.879	79.8333	900.879	82.3562	900.879	80.4413	900.879	81.0872	900.879	80.1358	900.879	75.396	900.879	75.5659	900.879	69.6435	900.879	70.9942	900.879	76.0929	900.879	78.5854	900.879	78.959
933.105	90.787	933.105	90.6457	933.105	90.871	933.105	90.453	933.105	90.5919	933.105	89.9473	933.105	89.9405	933.105	88.9376	933.105	89.1438	933.105	87.5477	933.105	87.9343	933.105	86.1601	933.105	86.0588	933.105	84.8027	933.105	84.7501	933.105	83.9944	933.105	84.5723	933.105	83.394	933.105	83.3212	933.105	81.0003	933.105	80.1796	933.105	78.1742	933.105	75.4395	933.105	79.1395	933.105	77.0498	933.105	80.5038	933.105	80.7231	933.105	79.7991	933.105	79.7952	933.105	73.0483	933.105	71.926	933.105	68.4653	933.105	69.8859	933.105	76.8984	933.105	76.7276	933.105	77.9317
965.332	90.5245	965.332	90.5072	965.332	90.3866	965.332	90.407	965.332	90.1519	965.332	89.8086	965.332	89.8372	965.332	88.6744	965.332	89.1191	965.332	87.5261	965.332	87.9839	965.332	85.7612	965.332	86.3469	965.332	83.5696	965.332	84.089	965.332	82.8048	965.332	82.5063	965.332	81.9899	965.332	81.6297	965.332	79.9916	965.332	79.9248	965.332	76.2249	965.332	78.2185	965.332	76.9496	965.332	79.7276	965.332	79.4365	965.332	80.264	965.332	78.509	965.332	78.0178	965.332	74.2619	965.332	72.8603	965.332	63.9874	965.332	64.2166	965.332	76.7244	965.332	76.7465	965.332	79.6199
1,000.49	90.587	1,000.49	90.4473	1,000.49	90.502	1,000.49	89.9551	1,000.49	90.0475	1,000.49	89.212	1,000.49	89.2603	1,000.49	88.5149	1,000.49	88.3586	1,000.49	87.5415	1,000.49	87.2307	1,000.49	85.9517	1,000.49	85.8537	1,000.49	84.0921	1,000.49	84.3236	1,000.49	83.0716	1,000.49	83.1756	1,000.49	82.8126	1,000.49	81.99	1,000.49	81.7524	1,000.49	79.4583	1,000.49	79.5051	1,000.49	77.9786	1,000.49	77.8779	1,000.49	79.4312	1,000.49	79.5033	1,000.49	80.9854	1,000.49	79.5273	1,000.49	79.6636	1,000.49	74.0507	1,000.49	73.2669	1,000.49	62.8331	1,000.49	65.8289	1,000.49	75.32	1,000.49	75.4994	1,000.49	77.5018
1,035.64	90.3903	1,035.64	90.0632	1,035.64	90.0839	1,035.64	89.4429	1,035.64	89.4522	1,035.64	88.8444	1,035.64	88.7958	1,035.64	87.915	1,035.64	87.9063	1,035.64	86.6798	1,035.64	86.5196	1,035.64	85.6202	1,035.64	84.7525	1,035.64	84.2166	1,035.64	82.9081	1,035.64	82.0514	1,035.64	81.2388	1,035.64	81.2844	1,035.64	81.0156	1,035.64	80.5692	1,035.64	80.131	1,035.64	77.8213	1,035.64	77.4421	1,035.64	78.4291	1,035.64	76.6299	1,035.64	79.8975	1,035.64	77.3533	1,035.64	79.6763	1,035.64	77.6627	1,035.64	75.7267	1,035.64	72.0379	1,035.64	66.5246	1,035.64	68.6263	1,035.64	74.0434	1,035.64	75.776	1,035.64	76.4895
1,072.27	89.0342	1,072.27	88.9591	1,072.27	88.9028	1,072.27	88.6749	1,072.27	88.5205	1,072.27	88.1249	1,072.27	87.8115	1,072.27	87.1666	1,072.27	87.0502	1,072.27	86.1819	1,072.27	86.1759	1,072.27	84.7702	1,072.27	84.8663	1,072.27	82.8351	1,072.27	83.3698	1,072.27	81.8349	1,072.27	82.0856	1,072.27	80.1859	1,072.27	80.9149	1,072.27	78.9259	1,072.27	79.096	1,072.27	78.0994	1,072.27	74.281	1,072.27	76.4646	1,072.27	74.5063	1,072.27	78.3717	1,072.27	77.5415	1,072.27	77.6968	1,072.27	76.8354	1,072.27	72.5639	1,072.27	73.1001	1,072.27	63.5825	1,072.27	63.2729	1,072.27	74.5559	1,072.27	75.1159	1,072.27	76.7988
1,108.89	88.6444	1,108.89	88.8005	1,108.89	88.4305	1,108.89	88.3887	1,108.89	88.0946	1,108.89	87.4481	1,108.89	87.2787	1,108.89	86.4514	1,108.89	86.1859	1,108.89	85.1193	1,108.89	85.357	1,108.89	83.8132	1,108.89	84.1765	1,108.89	82.6621	1,108.89	82.0953	1,108.89	81.1142	1,108.89	80.4749	1,108.89	79.9809	1,108.89	79.3988	1,108.89	77.4721	1,108.89	77.7711	1,108.89	73.8885	1,108.89	76.5404	1,108.89	73.2143	1,108.89	75.1882	1,108.89	74.5514	1,108.89	77.9088	1,108.89	74.7828	1,108.89	77.8931	1,108.89	71.7461	1,108.89	72.811	1,108.89	66.8521	1,108.89	64.4467	1,108.89	72.4596	1,108.89	72.7656	1,108.89	76.1242
1,148.44	89.1021	1,148.44	88.7653	1,148.44	89.0123	1,148.44	88.1026	1,148.44	88.4405	1,148.44	87	1,148.44	87.7488	1,148.44	85.8943	1,148.44	87.0189	1,148.44	85.0113	1,148.44	85.7358	1,148.44	83.5432	1,148.44	84.1838	1,148.44	81.47	1,148.44	82.7157	1,148.44	79.9382	1,148.44	81.1865	1,148.44	79.0772	1,148.44	80.8877	1,148.44	78.5419	1,148.44	79.9527	1,148.44	77.4854	1,148.44	77.2771	1,148.44	76.027	1,148.44	76.0695	1,148.44	77.3037	1,148.44	76.8499	1,148.44	78.285	1,148.44	77.043	1,148.44	74.1263	1,148.44	72.2235	1,148.44	59.7699	1,148.44	66.6857	1,148.44	73.9717	1,148.44	74.7469	1,148.44	76.6241
1,189.45	89.2352	1,189.45	88.9586	1,189.45	88.9749	1,189.45	88.1126	1,189.45	88.5652	1,189.45	87.2584	1,189.45	87.7109	1,189.45	86.2447	1,189.45	86.3178	1,189.45	85.2533	1,189.45	85.2176	1,189.45	84.0946	1,189.45	84.363	1,189.45	81.9634	1,189.45	82.8476	1,189.45	79.76	1,189.45	81.3295	1,189.45	78.7551	1,189.45	80.0819	1,189.45	77.8307	1,189.45	78.4945	1,189.45	75.508	1,189.45	76.1795	1,189.45	74.2362	1,189.45	74.8522	1,189.45	76.0402	1,189.45	76.5191	1,189.45	75.2696	1,189.45	76.1419	1,189.45	71.8587	1,189.45	73.692	1,189.45	62.2479	1,189.45	64.2538	1,189.45	73.631	1,189.45	74.132	1,189.45	76.0026
1,230.47	89.2399	1,230.47	88.9943	1,230.47	89.0606	1,230.47	88.4488	1,230.47	88.4317	1,230.47	87.5157	1,230.47	87.6846	1,230.47	86.6058	1,230.47	86.6664	1,230.47	85.389	1,230.47	85.6665	1,230.47	83.8992	1,230.47	84.4966	1,230.47	82.9213	1,230.47	82.8509	1,230.47	81.399	1,230.47	80.8518	1,230.47	79.4674	1,230.47	78.744	1,230.47	79.0601	1,230.47	78.1639	1,230.47	76.6953	1,230.47	76.5876	1,230.47	74.3295	1,230.47	74.2966	1,230.47	75.7606	1,230.47	76.6841	1,230.47	78.1853	1,230.47	78.4149	1,230.47	75.7204	1,230.47	74.5625	1,230.47	63.6336	1,230.47	58.4316	1,230.47	72.0327	1,230.47	73.3035	1,230.47	76.673
1,274.41	88.711	1,274.41	88.6556	1,274.41	88.7178	1,274.41	88.2169	1,274.41	88.2071	1,274.41	87.3215	1,274.41	86.9973	1,274.41	86.1255	1,274.41	85.9966	1,274.41	84.8556	1,274.41	84.7217	1,274.41	83.7439	1,274.41	83.3024	1,274.41	82.3318	1,274.41	81.8063	1,274.41	80.7722	1,274.41	80.0317	1,274.41	79.4933	1,274.41	78.819	1,274.41	77.2833	1,274.41	78.3325	1,274.41	73.6612	1,274.41	76.9355	1,274.41	71.8041	1,274.41	75.0756	1,274.41	72.8139	1,274.41	75.7715	1,274.41	74.5919	1,274.41	76.2421	1,274.41	74.6082	1,274.41	74.2367	1,274.41	68.2793	1,274.41	66.804	1,274.41	68.848	1,274.41	70.3442	1,274.41	73.6212
1,319.82	88.3939	1,319.82	88.2174	1,319.82	88.3776	1,319.82	87.8535	1,319.82	87.7044	1,319.82	86.8315	1,319.82	86.9185	1,319.82	85.563	1,319.82	85.7155	1,319.82	84.2457	1,319.82	84.0038	1,319.82	83.1525	1,319.82	82.8007	1,319.82	81.882	1,319.82	81.3892	1,319.82	79.9576	1,319.82	79.8836	1,319.82	78.2482	1,319.82	79.6328	1,319.82	77.0338	1,319.82	78.6917	1,319.82	75.5621	1,319.82	75.4537	1,319.82	74.7373	1,319.82	73.2551	1,319.82	74.9915	1,319.82	72.4844	1,319.82	75.2313	1,319.82	74.899	1,319.82	74.6912	1,319.82	74.6082	1,319.82	70.3511	1,319.82	68.2688	1,319.82	68.0352	1,319.82	68.3141	1,319.82	72.1862
1,366.7	88.1256	1,366.7	87.875	1,366.7	87.6115	1,366.7	87.3346	1,366.7	87.3934	1,366.7	86.8144	1,366.7	87.0376	1,366.7	86.0512	1,366.7	85.4357	1,366.7	84.8042	1,366.7	83.8683	1,366.7	83.0424	1,366.7	83.0454	1,366.7	81.5548	1,366.7	81.1025	1,366.7	78.7625	1,366.7	79.443	1,366.7	77.1019	1,366.7	78.3645	1,366.7	77.2787	1,366.7	76.5938	1,366.7	76.9095	1,366.7	73.5742	1,366.7	74.7983	1,366.7	70.0498	1,366.7	73.2383	1,366.7	72.4763	1,366.7	74.4733	1,366.7	73.6322	1,366.7	74.297	1,366.7	72.5741	1,366.7	68.9538	1,366.7	67.254	1,366.7	65.9966	1,366.7	67.7517	1,366.7	71.3502
1,413.57	88.4146	1,413.57	88.1174	1,413.57	88.4171	1,413.57	87.6149	1,413.57	87.8637	1,413.57	86.7486	1,413.57	87.1749	1,413.57	85.5737	1,413.57	86.2268	1,413.57	84.0239	1,413.57	84.6127	1,413.57	82.5567	1,413.57	82.8533	1,413.57	81.3333	1,413.57	82.3415	1,413.57	80.4826	1,413.57	81.0183	1,413.57	79.0912	1,413.57	77.3595	1,413.57	78.1306	1,413.57	75.8668	1,413.57	75.1833	1,413.57	76.6534	1,413.57	70.7535	1,413.57	75.2939	1,413.57	72.6639	1,413.57	72.5882	1,413.57	72.2958	1,413.57	72.1559	1,413.57	73.2097	1,413.57	73.1927	1,413.57	71.4739	1,413.57	72.3219	1,413.57	72.2231	1,413.57	72.3745	1,413.57	73.3546
1,463.38	89.0946	1,463.38	89.0501	1,463.38	89.0232	1,463.38	88.3918	1,463.38	88.6548	1,463.38	87.2533	1,463.38	88.081	1,463.38	86.2488	1,463.38	87.0091	1,463.38	84.8762	1,463.38	85.5258	1,463.38	83.5543	1,463.38	84.259	1,463.38	81.9167	1,463.38	82.9038	1,463.38	81.5278	1,463.38	80.2054	1,463.38	79.7293	1,463.38	77.695	1,463.38	78.0391	1,463.38	79.5073	1,463.38	76.7644	1,463.38	77.8369	1,463.38	75.0847	1,463.38	75.4706	1,463.38	71.862	1,463.38	75.3426	1,463.38	70.5539	1,463.38	74.2207	1,463.38	72.4179	1,463.38	72.7232	1,463.38	69.2177	1,463.38	74.3442	1,463.38	72.289	1,463.38	73.3782	1,463.38	73.5244
1,516.11	89.9659	1,516.11	89.8997	1,516.11	89.6748	1,516.11	89.0908	1,516.11	89.5531	1,516.11	88.5576	1,516.11	88.1402	1,516.11	87.5509	1,516.11	87.0898	1,516.11	86.534	1,516.11	86.3206	1,516.11	84.2793	1,516.11	84.4516	1,516.11	82.5485	1,516.11	82.8795	1,516.11	81.0622	1,516.11	80.5296	1,516.11	78.6479	1,516.11	80.0573	1,516.11	76.722	1,516.11	78.2305	1,516.11	74.495	1,516.11	76.2083	1,516.11	75.4174	1,516.11	73.543	1,516.11	76.9301	1,516.11	73.8404	1,516.11	73.2923	1,516.11	71.9504	1,516.11	73.1861	1,516.11	72.2887	1,516.11	70.8004	1,516.11	63.8493	1,516.11	73.2282	1,516.11	74.6696	1,516.11	78.1229
1,568.85	90.2678	1,568.85	89.3777	1,568.85	90.2073	1,568.85	89.0182	1,568.85	89.346	1,568.85	88.4492	1,568.85	88.892	1,568.85	87.3821	1,568.85	88.0021	1,568.85	85.5448	1,568.85	86.0171	1,568.85	83.959	1,568.85	85.225	1,568.85	83.8161	1,568.85	83.7638	1,568.85	81.9229	1,568.85	81.453	1,568.85	78.6623	1,568.85	79.4453	1,568.85	78.6693	1,568.85	77.7813	1,568.85	77.3992	1,568.85	76.7367	1,568.85	74.3265	1,568.85	73.8745	1,568.85	73.7227	1,568.85	76.0214	1,568.85	70.4399	1,568.85	75.1582	1,568.85	72.2976	1,568.85	70.5463	1,568.85	72.5071	1,568.85	72.0787	1,568.85	73.3666	1,568.85	71.9364	1,568.85	77.2314
1,624.51	89.8103	1,624.51	89.8119	1,624.51	89.9334	1,624.51	89.1772	1,624.51	89.1206	1,624.51	88.2917	1,624.51	87.9114	1,624.51	87.9563	1,624.51	87.0228	1,624.51	86.4026	1,624.51	86.4174	1,624.51	85.1139	1,624.51	84.9663	1,624.51	84.7035	1,624.51	83.1901	1,624.51	82.144	1,624.51	82.9134	1,624.51	80.0309	1,624.51	78.2717	1,624.51	78.4384	1,624.51	72.7546	1,624.51	76.4909	1,624.51	77.5715	1,624.51	70.8973	1,624.51	74.1308	1,624.51	72.4018	1,624.51	71.7393	1,624.51	74.8895	1,624.51	73.4563	1,624.51	70.8767	1,624.51	72.7443	1,624.51	72.5662	1,624.51	60.8128	1,624.51	68.9099	1,624.51	72.0794	1,624.51	76.6427
1,681.64	89.8255	1,681.64	89.4989	1,681.64	89.6483	1,681.64	89.0434	1,681.64	89.1704	1,681.64	88.2811	1,681.64	88.2718	1,681.64	87.2252	1,681.64	87.4105	1,681.64	85.9879	1,681.64	86.025	1,681.64	84.6014	1,681.64	85.2277	1,681.64	83.2433	1,681.64	83.4762	1,681.64	81.1349	1,681.64	80.8323	1,681.64	79.6124	1,681.64	79.7148	1,681.64	77.926	1,681.64	78.2705	1,681.64	78.2897	1,681.64	77.5409	1,681.64	72.5993	1,681.64	73.384	1,681.64	75.2111	1,681.64	74.4478	1,681.64	74.7557	1,681.64	73.707	1,681.64	72.1389	1,681.64	70.5986	1,681.64	63.9611	1,681.64	66.0996	1,681.64	69.642	1,681.64	71.5824	1,681.64	77.611
1,741.7	90.5081	1,741.7	90.3843	1,741.7	90.5431	1,741.7	90.01	1,741.7	90.4102	1,741.7	89.1675	1,741.7	89.8832	1,741.7	88.0449	1,741.7	88.8491	1,741.7	86.4992	1,741.7	87.3914	1,741.7	85.4045	1,741.7	85.8726	1,741.7	83.4431	1,741.7	84.059	1,741.7	81.7511	1,741.7	82.2963	1,741.7	80.1934	1,741.7	81.5115	1,741.7	77.7909	1,741.7	78.4472	1,741.7	76.9134	1,741.7	78.3022	1,741.7	74.7496	1,741.7	72.959	1,741.7	74.0894	1,741.7	72.9779	1,741.7	71.1618	1,741.7	74.3696	1,741.7	74.0197	1,741.7	72.8458	1,741.7	68.9004	1,741.7	70.8808	1,741.7	73.0146	1,741.7	74.3661	1,741.7	75.1765
1,803.22	90.6711	1,803.22	90.576	1,803.22	90.5906	1,803.22	90.3367	1,803.22	90.6569	1,803.22	89.8738	1,803.22	90.3483	1,803.22	89.1507	1,803.22	89.2515	1,803.22	87.7742	1,803.22	87.9939	1,803.22	85.9626	1,803.22	86.4309	1,803.22	84.2201	1,803.22	84.5094	1,803.22	82.2385	1,803.22	82.2035	1,803.22	80.8033	1,803.22	80.5899	1,803.22	78.6431	1,803.22	79.7425	1,803.22	76.2689	1,803.22	78.4904	1,803.22	72.5473	1,803.22	76.5196	1,803.22	69.9494	1,803.22	74.9884	1,803.22	73.9086	1,803.22	74.4232	1,803.22	73.4449	1,803.22	73.1513	1,803.22	70.7315	1,803.22	66.5306	1,803.22	68.4524	1,803.22	65.6348	1,803.22	75.2485
1,866.21	90.5648	1,866.21	90.3387	1,866.21	90.3138	1,866.21	90.2329	1,866.21	90.2795	1,866.21	89.9988	1,866.21	89.6726	1,866.21	89.1036	1,866.21	89.1967	1,866.21	87.9983	1,866.21	88.0901	1,866.21	86.261	1,866.21	86.5082	1,866.21	84.985	1,866.21	84.7623	1,866.21	83.498	1,866.21	82.4746	1,866.21	80.8516	1,866.21	80.8985	1,866.21	79.42	1,866.21	77.6982	1,866.21	78.9808	1,866.21	78.8748	1,866.21	76.781	1,866.21	75.4121	1,866.21	70.3371	1,866.21	72.95	1,866.21	73.2186	1,866.21	73.5932	1,866.21	64.9642	1,866.21	74.0527	1,866.21	68.9336	1,866.21	71.6704	1,866.21	64.0376	1,866.21	74.3595	1,866.21	74.2413
1,932.13	89.753	1,932.13	89.8865	1,932.13	89.7785	1,932.13	89.7051	1,932.13	89.3801	1,932.13	88.8669	1,932.13	89.0299	1,932.13	88.5698	1,932.13	88.2816	1,932.13	87.4694	1,932.13	86.8982	1,932.13	85.8391	1,932.13	84.921	1,932.13	84.2586	1,932.13	84.1566	1,932.13	81.9439	1,932.13	81.5799	1,932.13	80.7116	1,932.13	80.261	1,932.13	78.8044	1,932.13	77.1692	1,932.13	78.146	1,932.13	76.4614	1,932.13	77.6069	1,932.13	75.283	1,932.13	69.0009	1,932.13	68.4093	1,932.13	74.139	1,932.13	73.8857	1,932.13	75.9172	1,932.13	66.6227	1,932.13	73.5459	1,932.13	65.6647	1,932.13	69.1656	1,932.13	65.8671	1,932.13	76.5505
1,999.51	89.7688	1,999.51	89.9113	1,999.51	89.9314	1,999.51	89.2162	1,999.51	89.6167	1,999.51	88.7064	1,999.51	88.9254	1,999.51	87.763	1,999.51	88.0827	1,999.51	86.5173	1,999.51	86.9835	1,999.51	85.2842	1,999.51	84.9707	1,999.51	83.1425	1,999.51	82.9239	1,999.51	81.5643	1,999.51	82.5461	1,999.51	79.0195	1,999.51	79.607	1,999.51	77.4741	1,999.51	78.3397	1,999.51	74.6982	1,999.51	76.2402	1,999.51	75.2628	1,999.51	76.789	1,999.51	72.188	1,999.51	70.6313	1,999.51	70.6333	1,999.51	70.3275	1,999.51	61.8489	1,999.51	71.8215	1,999.51	69.46	1,999.51	68.8306	1,999.51	68.2151	1,999.51	65.8487	1,999.51	71.4423
2,069.82	90.9481	2,069.82	90.8609	2,069.82	90.7758	2,069.82	90.7533	2,069.82	90.5022	2,069.82	90.0436	2,069.82	90.0404	2,069.82	88.9334	2,069.82	88.9145	2,069.82	87.6133	2,069.82	87.7322	2,069.82	85.6684	2,069.82	86.5265	2,069.82	83.549	2,069.82	83.5291	2,069.82	81.6912	2,069.82	82.622	2,069.82	80.1586	2,069.82	80.1018	2,069.82	78.6636	2,069.82	78.6415	2,069.82	74.2382	2,069.82	76.2951	2,069.82	75.8621	2,069.82	76.8039	2,069.82	70.8565	2,069.82	72.4547	2,069.82	69.522	2,069.82	71.9582	2,069.82	66.6423	2,069.82	67.7973	2,069.82	64.4874	2,069.82	65.1481	2,069.82	68.6061	2,069.82	47.9836	2,069.82	70.2604
2,143.07	90.5866	2,143.07	90.9352	2,143.07	90.6152	2,143.07	91.0102	2,143.07	90.5598	2,143.07	90.7526	2,143.07	90.1735	2,143.07	89.5311	2,143.07	88.8178	2,143.07	88.0079	2,143.07	87.2956	2,143.07	86.8357	2,143.07	85.6576	2,143.07	84.1352	2,143.07	83.7392	2,143.07	82.0977	2,143.07	81.4735	2,143.07	80.524	2,143.07	80.2876	2,143.07	77.9235	2,143.07	77.9562	2,143.07	76.5679	2,143.07	74.3817	2,143.07	76.1748	2,143.07	75.3434	2,143.07	75.561	2,143.07	71.8261	2,143.07	71.4103	2,143.07	71.027	2,143.07	72.3309	2,143.07	70.8262	2,143.07	70.8929	2,143.07	69.6008	2,143.07	64.1422	2,143.07	62.6038	2,143.07	68.4316
2,219.24	89.9785	2,219.24	89.9894	2,219.24	89.7441	2,219.24	89.6954	2,219.24	89.3496	2,219.24	89.6677	2,219.24	88.7422	2,219.24	88.7207	2,219.24	87.8621	2,219.24	87.3586	2,219.24	86.5123	2,219.24	86.1697	2,219.24	84.9529	2,219.24	84.1056	2,219.24	82.7738	2,219.24	82.3265	2,219.24	80.9687	2,219.24	80.0003	2,219.24	78.9245	2,219.24	78.6503	2,219.24	76.5778	2,219.24	77.2708	2,219.24	74.843	2,219.24	76.4514	2,219.24	74.7967	2,219.24	75.1908	2,219.24	74.0875	2,219.24	71.7993	2,219.24	70.1342	2,219.24	65.956	2,219.24	67.3671	2,219.24	66.5539	2,219.24	69.8909	2,219.24	60.146	2,219.24	61.7506	2,219.24	61.7988
2,296.88	90.1441	2,296.88	89.6818	2,296.88	90.0257	2,296.88	89.5352	2,296.88	89.8355	2,296.88	88.8437	2,296.88	89.1274	2,296.88	88.0704	2,296.88	88.0363	2,296.88	86.5001	2,296.88	86.3957	2,296.88	84.4323	2,296.88	84.421	2,296.88	82.8397	2,296.88	82.7261	2,296.88	80.2948	2,296.88	80.4963	2,296.88	78.1919	2,296.88	78.0631	2,296.88	75.0567	2,296.88	77.1735	2,296.88	74.4458	2,296.88	76.1275	2,296.88	73.7855	2,296.88	71.3295	2,296.88	73.7307	2,296.88	73.7916	2,296.88	71.7637	2,296.88	71.7647	2,296.88	71.5134	2,296.88	68.5538	2,296.88	70.1161	2,296.88	68.7348	2,296.88	66.8162	2,296.88	49.6671	2,296.88	44.0254
2,378.91	90.8989	2,378.91	90.5638	2,378.91	90.5326	2,378.91	90.217	2,378.91	90.1759	2,378.91	89.4614	2,378.91	89.2107	2,378.91	88.2726	2,378.91	88.0632	2,378.91	86.8262	2,378.91	86.1699	2,378.91	84.9595	2,378.91	83.8594	2,378.91	82.7355	2,378.91	82.4241	2,378.91	79.9544	2,378.91	78.7077	2,378.91	77.9838	2,378.91	77.6613	2,378.91	76.3201	2,378.91	75.885	2,378.91	74.4519	2,378.91	73.8166	2,378.91	72.6277	2,378.91	72.0897	2,378.91	73.3166	2,378.91	73.8952	2,378.91	70.6946	2,378.91	70.8693	2,378.91	69.4787	2,378.91	69.2142	2,378.91	70.2036	2,378.91	70.293	2,378.91	62.9954	2,378.91	61.5027	2,378.91	53.2175
2,462.4	90.3494	2,462.4	90.2467	2,462.4	90.205	2,462.4	90.3538	2,462.4	89.7568	2,462.4	89.669	2,462.4	88.8403	2,462.4	88.7867	2,462.4	87.0604	2,462.4	87.1413	2,462.4	85.4098	2,462.4	84.6175	2,462.4	83.4129	2,462.4	82.6849	2,462.4	81.1356	2,462.4	81.1313	2,462.4	78.9642	2,462.4	78.1011	2,462.4	76.4294	2,462.4	76.4107	2,462.4	75.3816	2,462.4	76.4423	2,462.4	73.7541	2,462.4	72.8759	2,462.4	71.0696	2,462.4	73.086	2,462.4	71.3412	2,462.4	71.5833	2,462.4	71.5656	2,462.4	66.5352	2,462.4	68.1655	2,462.4	70.3005	2,462.4	64.8512	2,462.4	63.4765	2,462.4	65.1455	2,462.4	59.0258
2,548.83	90.1793	2,548.83	90.2793	2,548.83	89.9145	2,548.83	90.0263	2,548.83	89.5651	2,548.83	89.1069	2,548.83	88.8226	2,548.83	87.8924	2,548.83	87.365	2,548.83	86.4347	2,548.83	85.5245	2,548.83	83.8929	2,548.83	83.6904	2,548.83	81.1527	2,548.83	81.2065	2,548.83	80.1547	2,548.83	79.8174	2,548.83	77.2602	2,548.83	77.1885	2,548.83	75.3609	2,548.83	75.2174	2,548.83	73.2403	2,548.83	73.7642	2,548.83	70.9787	2,548.83	72.0614	2,548.83	70.821	2,548.83	70.564	2,548.83	71.3088	2,548.83	70.5129	2,548.83	70.1451	2,548.83	69.4506	2,548.83	67.5574	2,548.83	67.8693	2,548.83	65.7804	2,548.83	66.7753	2,548.83	67.4373
2,639.65	90.7032	2,639.65	91.0168	2,639.65	90.1892	2,639.65	90.5759	2,639.65	89.9933	2,639.65	89.8682	2,639.65	88.8229	2,639.65	87.7588	2,639.65	87.6895	2,639.65	86.013	2,639.65	85.8081	2,639.65	84.127	2,639.65	83.7787	2,639.65	80.6734	2,639.65	81.7253	2,639.65	78.3099	2,639.65	79.6397	2,639.65	76.3817	2,639.65	76.7166	2,639.65	74.6093	2,639.65	74.2541	2,639.65	72.3391	2,639.65	73.0622	2,639.65	72.0823	2,639.65	71.8909	2,639.65	69.4452	2,639.65	70.9933	2,639.65	70.3967	2,639.65	71.1524	2,639.65	70.9525	2,639.65	73.0568	2,639.65	66.7094	2,639.65	70.3373	2,639.65	62.8698	2,639.65	66.2915	2,639.65	66.2844
2,731.93	90.6353	2,731.93	90.8845	2,731.93	90.0258	2,731.93	90.587	2,731.93	89.4832	2,731.93	89.6722	2,731.93	88.5739	2,731.93	87.3658	2,731.93	87.1372	2,731.93	84.7959	2,731.93	85.2751	2,731.93	83.0068	2,731.93	83.1644	2,731.93	80.3438	2,731.93	80.7081	2,731.93	76.9751	2,731.93	78.2977	2,731.93	76.0513	2,731.93	76.3661	2,731.93	73.617	2,731.93	74.9864	2,731.93	72.3565	2,731.93	72.1519	2,731.93	71.327	2,731.93	71.1462	2,731.93	69.0058	2,731.93	69.206	2,731.93	70.6899	2,731.93	69.2362	2,731.93	71.8981	2,731.93	71.2326	2,731.93	68.7242	2,731.93	68.1191	2,731.93	67.6438	2,731.93	61.2	2,731.93	67.6766
2,828.61	91.1464	2,828.61	90.9534	2,828.61	90.7775	2,828.61	90.6061	2,828.61	89.6516	2,828.61	89.1487	2,828.61	89.0669	2,828.61	87.6925	2,828.61	87.3487	2,828.61	85.0558	2,828.61	85.5861	2,828.61	81.3292	2,828.61	83.2861	2,828.61	78.7814	2,828.61	80.8065	2,828.61	76.9322	2,828.61	79.462	2,828.61	75.5739	2,828.61	78.0073	2,828.61	73.3978	2,828.61	75.5317	2,828.61	70.7727	2,828.61	72.1782	2,828.61	70.5711	2,828.61	70.322	2,828.61	68.4928	2,828.61	68.1986	2,828.61	69.0808	2,828.61	69.0163	2,828.61	71.369	2,828.61	71.2296	2,828.61	69.2995	2,828.61	67.8239	2,828.61	65.386	2,828.61	64.3489	2,828.61	68.8413
2,928.22	91.2255	2,928.22	91.3016	2,928.22	90.8525	2,928.22	90.7721	2,928.22	89.8818	2,928.22	89.4698	2,928.22	88.6492	2,928.22	87.6831	2,928.22	86.8545	2,928.22	85.5406	2,928.22	85.0069	2,928.22	82.7512	2,928.22	83.0089	2,928.22	80.6832	2,928.22	80.4995	2,928.22	78.9713	2,928.22	78.018	2,928.22	75.8682	2,928.22	76.0984	2,928.22	74.118	2,928.22	73.9553	2,928.22	70.8167	2,928.22	72.3094	2,928.22	70.4495	2,928.22	69.7765	2,928.22	66.7743	2,928.22	69.7159	2,928.22	65.4793	2,928.22	68.3509	2,928.22	70.2949	2,928.22	68.9736	2,928.22	68.4784	2,928.22	67.2521	2,928.22	65.3762	2,928.22	59.1193	2,928.22	66.1295
3,030.76	90.7859	3,030.76	90.814	3,030.76	90.3606	3,030.76	89.7004	3,030.76	89.6783	3,030.76	88.4575	3,030.76	88.1141	3,030.76	86.462	3,030.76	86.4127	3,030.76	84.5737	3,030.76	83.9399	3,030.76	82.0014	3,030.76	81.5948	3,030.76	80.814	3,030.76	78.8158	3,030.76	78.5752	3,030.76	77.3145	3,030.76	75.8744	3,030.76	75.4452	3,030.76	74.7797	3,030.76	72.1326	3,030.76	72.1022	3,030.76	70.1242	3,030.76	70.22	3,030.76	70.6879	3,030.76	68.7736	3,030.76	66.1858	3,030.76	67.631	3,030.76	66.6476	3,030.76	70.0137	3,030.76	66.8183	3,030.76	67.0405	3,030.76	64.1524	3,030.76	64.5848	3,030.76	59.6391	3,030.76	66.0376
3,137.7	91.6021	3,137.7	91.1589	3,137.7	91.1429	3,137.7	90.3211	3,137.7	90.1304	3,137.7	88.8556	3,137.7	88.6185	3,137.7	86.3846	3,137.7	86.5896	3,137.7	83.757	3,137.7	84.2348	3,137.7	82.5381	3,137.7	81.8875	3,137.7	80.3448	3,137.7	79.5408	3,137.7	77.33	3,137.7	76.7236	3,137.7	75.5437	3,137.7	74.0639	3,137.7	72.5608	3,137.7	72.9418	3,137.7	71.9986	3,137.7	70.6989	3,137.7	69.0653	3,137.7	69.2212	3,137.7	68.1219	3,137.7	64.8042	3,137.7	63.5498	3,137.7	63.8796	3,137.7	65.1581	3,137.7	65.8204	3,137.7	65.2949	3,137.7	66.5257	3,137.7	65.176	3,137.7	61.9603	3,137.7	64.4809
3,249.02	91.5438	3,249.02	91.1263	3,249.02	91.1974	3,249.02	90.0932	3,249.02	90.0761	3,249.02	88.3373	3,249.02	88.3371	3,249.02	85.9235	3,249.02	85.935	3,249.02	83.6427	3,249.02	83.5826	3,249.02	81.9052	3,249.02	81.3027	3,249.02	79.5031	3,249.02	79.4351	3,249.02	77.2907	3,249.02	76.5038	3,249.02	75.1762	3,249.02	73.9404	3,249.02	73.0698	3,249.02	72.3694	3,249.02	70.843	3,249.02	70.3708	3,249.02	68.9076	3,249.02	69.0264	3,249.02	67.0305	3,249.02	67.0871	3,249.02	61.2769	3,249.02	60.0929	3,249.02	65.8289	3,249.02	66.6907	3,249.02	64.678	3,249.02	64.9338	3,249.02	66.5645	3,249.02	60.7811	3,249.02	65.619
3,363.28	90.9264	3,363.28	90.5204	3,363.28	90.9336	3,363.28	89.5877	3,363.28	89.4078	3,363.28	87.42	3,363.28	87.6056	3,363.28	84.7248	3,363.28	84.929	3,363.28	82.9412	3,363.28	82.6693	3,363.28	80.6234	3,363.28	79.8685	3,363.28	78.3315	3,363.28	78.9132	3,363.28	77.4261	3,363.28	76.4127	3,363.28	75.6388	3,363.28	73.8484	3,363.28	73.1671	3,363.28	72.4011	3,363.28	71.0476	3,363.28	68.4502	3,363.28	68.9209	3,363.28	66.9745	3,363.28	69.1562	3,363.28	66.3637	3,363.28	63.3671	3,363.28	62.3004	3,363.28	67.6017	3,363.28	66.8707	3,363.28	66.7569	3,363.28	63.9256	3,363.28	60.9959	3,363.28	58.3611	3,363.28	61.8053
3,481.93	91.2651	3,481.93	90.8576	3,481.93	90.9254	3,481.93	89.2728	3,481.93	89.781	3,481.93	87.0528	3,481.93	87.5625	3,481.93	84.7375	3,481.93	85.0258	3,481.93	83.4715	3,481.93	82.2852	3,481.93	80.9566	3,481.93	80.9452	3,481.93	79.6687	3,481.93	78.6827	3,481.93	77.334	3,481.93	75.8386	3,481.93	75.2745	3,481.93	75.3547	3,481.93	72.6094	3,481.93	72.1932	3,481.93	70.1808	3,481.93	70.3138	3,481.93	68.7706	3,481.93	67.1689	3,481.93	67.7509	3,481.93	67.913	3,481.93	64.3433	3,481.93	64.178	3,481.93	66.8444	3,481.93	66.0625	3,481.93	64.9096	3,481.93	63.2687	3,481.93	51.2188	3,481.93	63.1705	3,481.93	63.8756
3,604.98	91.0448	3,604.98	90.4576	3,604.98	90.5425	3,604.98	88.735	3,604.98	89.273	3,604.98	86.5389	3,604.98	87.1016	3,604.98	84.639	3,604.98	84.6281	3,604.98	82.8734	3,604.98	82.6998	3,604.98	81.6057	3,604.98	81.081	3,604.98	80.2704	3,604.98	78.9864	3,604.98	77.8874	3,604.98	76.9926	3,604.98	75.7152	3,604.98	74.3975	3,604.98	72.5718	3,604.98	72.0563	3,604.98	71.4838	3,604.98	70.3045	3,604.98	68.5025	3,604.98	68.927	3,604.98	68.2283	3,604.98	68.8534	3,604.98	64.5469	3,604.98	63.928	3,604.98	62.7821	3,604.98	66.5317	3,604.98	62.4212	3,604.98	60.6079	3,604.98	64.0472	3,604.98	59.8236	3,604.98	64.2676
3,732.42	90.2107	3,732.42	89.4296	3,732.42	89.9764	3,732.42	88.1863	3,732.42	88.5377	3,732.42	86.2805	3,732.42	86.6006	3,732.42	84.4529	3,732.42	84.5121	3,732.42	82.5576	3,732.42	83.2337	3,732.42	81.5628	3,732.42	81.6035	3,732.42	79.7119	3,732.42	79.1565	3,732.42	77.2612	3,732.42	77.2106	3,732.42	74.8875	3,732.42	74.6584	3,732.42	71.8558	3,732.42	72.771	3,732.42	71.3699	3,732.42	70.4959	3,732.42	67.8025	3,732.42	67.7873	3,732.42	67.9897	3,732.42	65.8518	3,732.42	65.3617	3,732.42	62.1516	3,732.42	63.0792	3,732.42	63.1876	3,732.42	63.5849	3,732.42	61.3971	3,732.42	59.8575	3,732.42	58.5822	3,732.42	64.0763
3,864.26	90.2212	3,864.26	89.5494	3,864.26	90.1492	3,864.26	88.0784	3,864.26	88.6213	3,864.26	86.4613	3,864.26	86.8781	3,864.26	84.8653	3,864.26	85.3171	3,864.26	83.7401	3,864.26	83.8116	3,864.26	82.0398	3,864.26	81.8444	3,864.26	79.9228	3,864.26	79.4883	3,864.26	77.0054	3,864.26	77.0264	3,864.26	73.8545	3,864.26	73.8144	3,864.26	72.1265	3,864.26	70.8143	3,864.26	69.7722	3,864.26	70.0099	3,864.26	67.2947	3,864.26	66.1381	3,864.26	66.0381	3,864.26	65.9264	3,864.26	64.5413	3,864.26	62.136	3,864.26	63.2685	3,864.26	60.7485	3,864.26	63.625	3,864.26	61.8625	3,864.26	58.5407	3,864.26	58.8867	3,864.26	63.3492
4,000.49	89.8561	4,000.49	89.2489	4,000.49	89.7582	4,000.49	87.5964	4,000.49	88.5569	4,000.49	85.9725	4,000.49	86.7138	4,000.49	84.3538	4,000.49	85.5058	4,000.49	83.9271	4,000.49	83.6796	4,000.49	81.5277	4,000.49	81.4916	4,000.49	79.2124	4,000.49	79.0991	4,000.49	76.0526	4,000.49	75.8904	4,000.49	73.5163	4,000.49	73.7105	4,000.49	71.5117	4,000.49	71.3042	4,000.49	70.3866	4,000.49	69.2446	4,000.49	67.2454	4,000.49	68.7026	4,000.49	63.771	4,000.49	67.4286	4,000.49	65.3027	4,000.49	65.2964	4,000.49	63.3501	4,000.49	60.0453	4,000.49	61.5224	4,000.49	62.4051	4,000.49	58.7266	4,000.49	55.3297	4,000.49	64.5708
4,141.11	90.2489	4,141.11	90.0574	4,141.11	89.5535	4,141.11	88.4598	4,141.11	88.5398	4,141.11	86.8864	4,141.11	86.7435	4,141.11	86.2569	4,141.11	84.7012	4,141.11	83.9608	4,141.11	82.7158	4,141.11	81.6052	4,141.11	81.1443	4,141.11	78.3817	4,141.11	77.7542	4,141.11	75.5738	4,141.11	74.4598	4,141.11	73.1984	4,141.11	73.0032	4,141.11	70.3931	4,141.11	69.1735	4,141.11	68.7888	4,141.11	68.1076	4,141.11	67.604	4,141.11	64.1998	4,141.11	67.3071	4,141.11	63.3096	4,141.11	64.1023	4,141.11	64.7584	4,141.11	55.2139	4,141.11	60.3934	4,141.11	62.0667	4,141.11	61.1532	4,141.11	57.2057	4,141.11	57.5318	4,141.11	61.9425
4,287.6	90.6434	4,287.6	89.6433	4,287.6	90.7149	4,287.6	88.3066	4,287.6	88.8071	4,287.6	86.8535	4,287.6	87.0083	4,287.6	84.7519	4,287.6	85.2662	4,287.6	83.1997	4,287.6	83.6084	4,287.6	80.7116	4,287.6	81.1388	4,287.6	77.5988	4,287.6	78.5085	4,287.6	75.391	4,287.6	75.1548	4,287.6	73.0603	4,287.6	72.4481	4,287.6	72.1365	4,287.6	70.5593	4,287.6	67.3141	4,287.6	68.4343	4,287.6	66.8239	4,287.6	67.3936	4,287.6	65.4121	4,287.6	68.1635	4,287.6	66.1353	4,287.6	65.4916	4,287.6	62.6231	4,287.6	58.9381	4,287.6	61.3147	4,287.6	55.3729	4,287.6	59.4193	4,287.6	58.9515	4,287.6	62.0852
4,438.48	90.6521	4,438.48	89.9241	4,438.48	89.9818	4,438.48	88.3009	4,438.48	88.5719	4,438.48	86.5796	4,438.48	86.7045	4,438.48	85.2412	4,438.48	85.646	4,438.48	83.2485	4,438.48	83.3753	4,438.48	80.4876	4,438.48	80.1488	4,438.48	77.9839	4,438.48	76.9816	4,438.48	75.3104	4,438.48	75.1081	4,438.48	72.0116	4,438.48	71.6769	4,438.48	68.6965	4,438.48	70.4921	4,438.48	66.7422	4,438.48	67.5596	4,438.48	65.6912	4,438.48	66.5879	4,438.48	63.1239	4,438.48	61.7782	4,438.48	63.8112	4,438.48	62.3857	4,438.48	59.1391	4,438.48	61.5229	4,438.48	63.7621	4,438.48	57.2417	4,438.48	60.0832	4,438.48	56.2985	4,438.48	60.1058
4,595.21	91.0439	4,595.21	90.5707	4,595.21	90.6187	4,595.21	88.7046	4,595.21	89.2182	4,595.21	87.3345	4,595.21	87.5796	4,595.21	85.9764	4,595.21	85.3832	4,595.21	83.0888	4,595.21	82.8803	4,595.21	79.5905	4,595.21	80.9507	4,595.21	77.1976	4,595.21	78.694	4,595.21	73.5661	4,595.21	75.6154	4,595.21	72.8614	4,595.21	73.9912	4,595.21	70.8324	4,595.21	70.5924	4,595.21	68.887	4,595.21	67.5844	4,595.21	66.4562	4,595.21	67.7771	4,595.21	66.4313	4,595.21	63.8938	4,595.21	64.9942	4,595.21	64.7496	4,595.21	62.7125	4,595.21	62.9475	4,595.21	62.2867	4,595.21	59.1835	4,595.21	60.2944	4,595.21	58.6027	4,595.21	62.3018
4,756.35	90.5552	4,756.35	89.5989	4,756.35	90.1246	4,756.35	88.6932	4,756.35	88.032	4,756.35	87.1454	4,756.35	86.3753	4,756.35	85.3853	4,756.35	84.8014	4,756.35	83.3966	4,756.35	82.6535	4,756.35	80.9845	4,756.35	79.8816	4,756.35	78.7015	4,756.35	78.2028	4,756.35	76.6218	4,756.35	75.8139	4,756.35	73.7264	4,756.35	73.0097	4,756.35	72.6098	4,756.35	70.7838	4,756.35	68.7864	4,756.35	67.8577	4,756.35	67.3975	4,756.35	66.265	4,756.35	62.654	4,756.35	65.2703	4,756.35	65.8518	4,756.35	64.214	4,756.35	62.2162	4,756.35	60.6407	4,756.35	63.6883	4,756.35	60.0369	4,756.35	53.8519	4,756.35	47.7112	4,756.35	62.1972
4,924.8	91.4486	4,924.8	90.7693	4,924.8	90.7692	4,924.8	88.8512	4,924.8	89.0873	4,924.8	87.6388	4,924.8	87.391	4,924.8	85.5079	4,924.8	85.8453	4,924.8	82.6129	4,924.8	83.2945	4,924.8	80.5264	4,924.8	81.2106	4,924.8	78.4754	4,924.8	78.421	4,924.8	75.7852	4,924.8	75.7038	4,924.8	73.5022	4,924.8	74.2612	4,924.8	70.5462	4,924.8	71.2557	4,924.8	69.8987	4,924.8	68.2931	4,924.8	67.491	4,924.8	67.3964	4,924.8	65.6705	4,924.8	59.5465	4,924.8	64.2174	4,924.8	64.4568	4,924.8	63.2964	4,924.8	59.5138	4,924.8	63.5542	4,924.8	60.5043	4,924.8	55.4399	4,924.8	56.0954	4,924.8	62.6467
5,097.66	90.7937	5,097.66	89.8326	5,097.66	90.2181	5,097.66	88.5367	5,097.66	88.1741	5,097.66	86.9506	5,097.66	86.9716	5,097.66	85.3282	5,097.66	84.6919	5,097.66	83.0927	5,097.66	82.1189	5,097.66	80.9484	5,097.66	80.1213	5,097.66	78.5277	5,097.66	77.7281	5,097.66	77.1019	5,097.66	75.0719	5,097.66	75.6007	5,097.66	72.269	5,097.66	72.6725	5,097.66	70.6335	5,097.66	69.2829	5,097.66	66.9943	5,097.66	66.073	5,097.66	65.6788	5,097.66	65.5773	5,097.66	63.4043	5,097.66	65.6313	5,097.66	61.7799	5,097.66	61.7006	5,097.66	64.2768	5,097.66	62.0807	5,097.66	62.6471	5,097.66	58.7315	5,097.66	56.9076	5,097.66	62.8148
5,277.83	91.4874	5,277.83	90.6267	5,277.83	90.2516	5,277.83	89.1938	5,277.83	88.7019	5,277.83	88.1217	5,277.83	87.0084	5,277.83	85.9759	5,277.83	85.425	5,277.83	83.4419	5,277.83	83.0934	5,277.83	81.1444	5,277.83	80.4845	5,277.83	79.0606	5,277.83	78.3884	5,277.83	77.1094	5,277.83	75.5105	5,277.83	72.4494	5,277.83	72.7874	5,277.83	71.3386	5,277.83	70.2642	5,277.83	67.0753	5,277.83	68.0116	5,277.83	65.5334	5,277.83	66.7124	5,277.83	62.2224	5,277.83	62.3668	5,277.83	63.4304	5,277.83	62.3677	5,277.83	64.2321	5,277.83	57.414	5,277.83	61.3069	5,277.83	60.3251	5,277.83	53.2823	5,277.83	37.3613	5,277.83	60.7491
5,463.87	90.4211	5,463.87	89.6234	5,463.87	89.8011	5,463.87	88.2172	5,463.87	88.3571	5,463.87	86.8229	5,463.87	87.1592	5,463.87	84.5936	5,463.87	84.7574	5,463.87	82.3628	5,463.87	82.6399	5,463.87	81.1518	5,463.87	80.9253	5,463.87	79.6587	5,463.87	78.7583	5,463.87	77.241	5,463.87	74.8409	5,463.87	75.1312	5,463.87	73.4112	5,463.87	71.1134	5,463.87	69.9741	5,463.87	68.4741	5,463.87	68.7435	5,463.87	67.1853	5,463.87	66.3889	5,463.87	63.0437	5,463.87	62.8619	5,463.87	63.1785	5,463.87	60.0032	5,463.87	61.6743	5,463.87	60.5278	5,463.87	60.119	5,463.87	60.9183	5,463.87	60.3061	5,463.87	55.0033	5,463.87	60.9488
5,657.23	90.1803	5,657.23	89.7179	5,657.23	89.3581	5,657.23	89.1006	5,657.23	88.0706	5,657.23	87.6951	5,657.23	86.6512	5,657.23	85.9263	5,657.23	84.8595	5,657.23	84.2417	5,657.23	83.1829	5,657.23	82.053	5,657.23	80.8181	5,657.23	79.6312	5,657.23	78.7791	5,657.23	76.4427	5,657.23	76.0865	5,657.23	73.9467	5,657.23	73.4764	5,657.23	70.4727	5,657.23	68.7551	5,657.23	66.3771	5,657.23	68.351	5,657.23	64.4443	5,657.23	66.1723	5,657.23	63.4221	5,657.23	63.102	5,657.23	57.1975	5,657.23	60.9141	5,657.23	59.5478	5,657.23	59.7605	5,657.23	61.69	5,657.23	60.3425	5,657.23	56.2039	5,657.23	52.2985	5,657.23	61.1855
5,856.45	90.2809	5,856.45	90.153	5,856.45	89.5153	5,856.45	89.3514	5,856.45	87.9807	5,856.45	87.3902	5,856.45	86.2898	5,856.45	85.2535	5,856.45	84.091	5,856.45	83.2517	5,856.45	81.8177	5,856.45	80.5792	5,856.45	80.2534	5,856.45	77.4302	5,856.45	77.4905	5,856.45	73.6311	5,856.45	73.3306	5,856.45	70.8036	5,856.45	71.8787	5,856.45	69.6793	5,856.45	68.9907	5,856.45	68.0471	5,856.45	65.5867	5,856.45	65.7207	5,856.45	63.7746	5,856.45	56.6608	5,856.45	62.7495	5,856.45	62.2525	5,856.45	60.801	5,856.45	63.6517	5,856.45	57.5876	5,856.45	61.5816	5,856.45	59.6597	5,856.45	55.3336	5,856.45	53.3701	5,856.45	59.1103
6,062.99	90.3958	6,062.99	90.2573	6,062.99	89.6181	6,062.99	89.1392	6,062.99	88.4747	6,062.99	87.1201	6,062.99	86.2401	6,062.99	85.1295	6,062.99	84.4924	6,062.99	82.5896	6,062.99	82.2828	6,062.99	80.013	6,062.99	79.3368	6,062.99	76.694	6,062.99	75.4204	6,062.99	75.6005	6,062.99	73.7903	6,062.99	72.7409	6,062.99	71.3522	6,062.99	70.7193	6,062.99	68.6167	6,062.99	67.1489	6,062.99	65.0269	6,062.99	67.3106	6,062.99	63.7571	6,062.99	64.8723	6,062.99	60.9996	6,062.99	60.5992	6,062.99	58.7483	6,062.99	58.8279	6,062.99	57.1283	6,062.99	62.2356	6,062.99	61.1829	6,062.99	54.5044	6,062.99	54.9948	6,062.99	58.8622
6,276.86	89.9485	6,276.86	89.9818	6,276.86	89.6513	6,276.86	88.9942	6,276.86	88.3879	6,276.86	87.0039	6,276.86	86.4844	6,276.86	85.2199	6,276.86	84.6153	6,276.86	82.8501	6,276.86	81.6967	6,276.86	80.0041	6,276.86	79.4469	6,276.86	78.1392	6,276.86	77.3506	6,276.86	75.4893	6,276.86	74.0233	6,276.86	71.5487	6,276.86	70.2061	6,276.86	68.8771	6,276.86	69.027	6,276.86	66.3943	6,276.86	66.0855	6,276.86	64.0807	6,276.86	63.118	6,276.86	60.5509	6,276.86	58.2577	6,276.86	61.1915	6,276.86	58.3965	6,276.86	59.6681	6,276.86	56.2851	6,276.86	60.7565	6,276.86	59.9168	6,276.86	52.461	6,276.86	44.5921	6,276.86	54.9092
6,498.05	89.5524	6,498.05	89.9307	6,498.05	89.0765	6,498.05	88.8743	6,498.05	87.9931	6,498.05	86.7456	6,498.05	85.9255	6,498.05	84.8683	6,498.05	84.2902	6,498.05	82.7065	6,498.05	81.7576	6,498.05	80.1777	6,498.05	78.3341	6,498.05	77.5939	6,498.05	75.3749	6,498.05	73.2792	6,498.05	71.52	6,498.05	70.2164	6,498.05	68.9722	6,498.05	66.987	6,498.05	66.1641	6,498.05	65.9362	6,498.05	64.3346	6,498.05	64.2846	6,498.05	60.7148	6,498.05	55.4704	6,498.05	62.2859	6,498.05	60.39	6,498.05	58.4357	6,498.05	59.7008	6,498.05	56.2654	6,498.05	59.2086	6,498.05	61.0085	6,498.05	54.4329	6,498.05	42.466	6,498.05	55.5124
6,726.56	89.7152	6,726.56	90.1202	6,726.56	89.5895	6,726.56	89.0571	6,726.56	88.1432	6,726.56	86.9763	6,726.56	86.4321	6,726.56	85.0347	6,726.56	84.3337	6,726.56	82.423	6,726.56	81.6996	6,726.56	78.8333	6,726.56	78.9917	6,726.56	75.1048	6,726.56	75.5866	6,726.56	72.8519	6,726.56	71.0788	6,726.56	69.8958	6,726.56	68.0993	6,726.56	67.8583	6,726.56	64.4267	6,726.56	65.7735	6,726.56	63.4738	6,726.56	60.7799	6,726.56	61.8983	6,726.56	60.1107	6,726.56	62.1325	6,726.56	58.0534	6,726.56	60.233	6,726.56	59.4744	6,726.56	56.7858	6,726.56	58.7899	6,726.56	59.5871	6,726.56	53.5109	6,726.56	53.9684	6,726.56	58.6861
6,963.87	89.8102	6,963.87	90.2013	6,963.87	89.7585	6,963.87	89.1056	6,963.87	88.6261	6,963.87	86.7858	6,963.87	86.5385	6,963.87	84.9311	6,963.87	84.7088	6,963.87	81.9279	6,963.87	81.6394	6,963.87	78.9095	6,963.87	78.6649	6,963.87	74.8981	6,963.87	75.3658	6,963.87	74.1241	6,963.87	71.1321	6,963.87	69.3254	6,963.87	69.9691	6,963.87	66.9556	6,963.87	65.3029	6,963.87	63.9164	6,963.87	64.2688	6,963.87	60.5466	6,963.87	61.3458	6,963.87	57.5335	6,963.87	59.2009	6,963.87	60.6202	6,963.87	60.0248	6,963.87	56.9813	6,963.87	54.4084	6,963.87	59.135	6,963.87	59.2292	6,963.87	52.0748	6,963.87	47.3954	6,963.87	56.1151
7,209.96	89.2423	7,209.96	89.8176	7,209.96	89.4012	7,209.96	88.7412	7,209.96	88.2613	7,209.96	86.5054	7,209.96	86.2016	7,209.96	84.8359	7,209.96	83.9812	7,209.96	81.7522	7,209.96	81.1261	7,209.96	79.3564	7,209.96	78.6726	7,209.96	75.7482	7,209.96	74.4032	7,209.96	72.2921	7,209.96	70.076	7,209.96	69.9801	7,209.96	68.7665	7,209.96	66.774	7,209.96	66.5249	7,209.96	64.1369	7,209.96	64.2976	7,209.96	62.1073	7,209.96	59.1583	7,209.96	58.8938	7,209.96	62.7307	7,209.96	59.9808	7,209.96	59.0657	7,209.96	59.2273	7,209.96	56.7617	7,209.96	57.3451	7,209.96	57.079	7,209.96	50.8588	7,209.96	52.7713	7,209.96	56.0263
7,464.84	89.6099	7,464.84	90.0642	7,464.84	89.4687	7,464.84	88.9361	7,464.84	88.3821	7,464.84	86.8072	7,464.84	85.9761	7,464.84	85.0243	7,464.84	84.08	7,464.84	81.5875	7,464.84	81.2841	7,464.84	78.5436	7,464.84	77.066	7,464.84	75.774	7,464.84	73.8069	7,464.84	72.68	7,464.84	71.7419	7,464.84	70.7379	7,464.84	68.6114	7,464.84	67.8401	7,464.84	67.7428	7,464.84	64.3916	7,464.84	64.5544	7,464.84	60.9958	7,464.84	60.3074	7,464.84	59.1934	7,464.84	61.6034	7,464.84	60.5934	7,464.84	59.1272	7,464.84	60.0456	7,464.84	55.0765	7,464.84	57.8914	7,464.84	58.3447	7,464.84	55.1065	7,464.84	53.806	7,464.84	52.6163
7,727.05	89.8698	7,727.05	90.2655	7,727.05	89.6823	7,727.05	89.2012	7,727.05	88.4804	7,727.05	86.9518	7,727.05	86.3419	7,727.05	84.9848	7,727.05	84.2196	7,727.05	82.1415	7,727.05	81.2975	7,727.05	78.9635	7,727.05	78.2229	7,727.05	75.9793	7,727.05	76.321	7,727.05	73.8584	7,727.05	72.2709	7,727.05	71.6198	7,727.05	71.1087	7,727.05	67.4649	7,727.05	66.8911	7,727.05	65.8713	7,727.05	65.0334	7,727.05	62.8375	7,727.05	62.8023	7,727.05	60.7726	7,727.05	63.8964	7,727.05	57.5052	7,727.05	59.4186	7,727.05	60.2853	7,727.05	53.7443	7,727.05	56.6829	7,727.05	58.8442	7,727.05	56.035	7,727.05	52.3122	7,727.05	51.4522
7,999.51	90.0884	7,999.51	90.2087	7,999.51	89.9561	7,999.51	89.2893	7,999.51	88.6999	7,999.51	86.7394	7,999.51	86.4668	7,999.51	84.9612	7,999.51	84.2855	7,999.51	81.8712	7,999.51	81.352	7,999.51	79.324	7,999.51	78.6547	7,999.51	76.4542	7,999.51	76.5649	7,999.51	74.2262	7,999.51	73.3897	7,999.51	71.7477	7,999.51	71.139	7,999.51	68.0625	7,999.51	67.4068	7,999.51	65.8729	7,999.51	64.643	7,999.51	63.9875	7,999.51	62.0037	7,999.51	61.0885	7,999.51	63.1717	7,999.51	54.0303	7,999.51	59.5742	7,999.51	56.403	7,999.51	50.521	7,999.51	55.6917	7,999.51	56.963	7,999.51	56.0125	7,999.51	54.01	7,999.51	50.9528
8,282.23	90.4387	8,282.23	90.2073	8,282.23	90.1643	8,282.23	89.3416	8,282.23	88.8347	8,282.23	86.8904	8,282.23	86.6278	8,282.23	85.1573	8,282.23	84.4028	8,282.23	81.8263	8,282.23	81.1575	8,282.23	79.7056	8,282.23	78.8505	8,282.23	77.1448	8,282.23	76.1868	8,282.23	73.5939	8,282.23	72.9722	8,282.23	71.0161	8,282.23	69.907	8,282.23	68.8689	8,282.23	67.5302	8,282.23	64.9959	8,282.23	65.94	8,282.23	60.009	8,282.23	63.256	8,282.23	61.3479	8,282.23	63.7129	8,282.23	57.9019	8,282.23	58.7035	8,282.23	57.0424	8,282.23	55.5653	8,282.23	51.5374	8,282.23	57.8915	8,282.23	57.7345	8,282.23	55.7066	8,282.23	51.854
8,573.73	90.6474	8,573.73	90.4323	8,573.73	90.1798	8,573.73	89.4857	8,573.73	89.0046	8,573.73	87.2202	8,573.73	86.8791	8,573.73	85.0439	8,573.73	84.2271	8,573.73	81.6537	8,573.73	81.3373	8,573.73	79.5843	8,573.73	78.7602	8,573.73	76.3755	8,573.73	75.9736	8,573.73	73.5687	8,573.73	72.4161	8,573.73	70.3205	8,573.73	69.4808	8,573.73	67.6203	8,573.73	67.3817	8,573.73	65.2524	8,573.73	63.9911	8,573.73	61.0698	8,573.73	62.8998	8,573.73	60.0366	8,573.73	60.9158	8,573.73	58.1375	8,573.73	54.5572	8,573.73	58.7409	8,573.73	52.6098	8,573.73	52.3701	8,573.73	57.4846	8,573.73	55.5958	8,573.73	53.8109	8,573.73	49.5602
8,876.95	90.8211	8,876.95	90.6422	8,876.95	90.2718	8,876.95	89.6615	8,876.95	88.9522	8,876.95	87.4137	8,876.95	87.0241	8,876.95	84.7139	8,876.95	84.0288	8,876.95	81.8918	8,876.95	81.4349	8,876.95	79.7471	8,876.95	78.8855	8,876.95	76.1718	8,876.95	75.7572	8,876.95	73.6648	8,876.95	72.4343	8,876.95	71.0098	8,876.95	70.1343	8,876.95	67.1379	8,876.95	67.3055	8,876.95	65.1892	8,876.95	63.1572	8,876.95	61.6005	8,876.95	61.6026	8,876.95	60.3885	8,876.95	61.5349	8,876.95	56.7222	8,876.95	56.7607	8,876.95	56.0088	8,876.95	53.5322	8,876.95	53.6525	8,876.95	59.2537	8,876.95	56.5841	8,876.95	52.1225	8,876.95	46.0992
9,188.96	91.1125	9,188.96	90.6112	9,188.96	90.2831	9,188.96	89.5085	9,188.96	88.7053	9,188.96	87.1809	9,188.96	86.965	9,188.96	84.867	9,188.96	83.7833	9,188.96	82.0528	9,188.96	81.5167	9,188.96	79.7254	9,188.96	78.9275	9,188.96	75.9936	9,188.96	75.7337	9,188.96	72.9137	9,188.96	73.1215	9,188.96	71.1521	9,188.96	69.9745	9,188.96	67.6998	9,188.96	66.5281	9,188.96	66.4701	9,188.96	64.5578	9,188.96	61.1286	9,188.96	63.953	9,188.96	60.9024	9,188.96	61.1887	9,188.96	56.927	9,188.96	57.0837	9,188.96	56.5548	9,188.96	50.2862	9,188.96	51.0711	9,188.96	57.7635	9,188.96	56.3595	9,188.96	45.7561	9,188.96	43.2472
9,514.16	90.7506	9,514.16	90.1051	9,514.16	89.8538	9,514.16	89.0423	9,514.16	88.6138	9,514.16	87.3492	9,514.16	87.1591	9,514.16	84.6156	9,514.16	83.6244	9,514.16	82.4659	9,514.16	81.903	9,514.16	80.1044	9,514.16	78.7408	9,514.16	75.665	9,514.16	76.042	9,514.16	73.7919	9,514.16	73.4559	9,514.16	70.0997	9,514.16	69.1551	9,514.16	67.955	9,514.16	67.1342	9,514.16	65.5283	9,514.16	63.2693	9,514.16	61.7542	9,514.16	61.32	9,514.16	62.4955	9,514.16	59.1795	9,514.16	55.9248	9,514.16	52.4401	9,514.16	55.176	9,514.16	51.3501	9,514.16	53.072	9,514.16	58.4289	9,514.16	56.1623	9,514.16	48.5454	9,514.16	46.8269
9,849.61	90.5829	9,849.61	89.7252	9,849.61	89.5131	9,849.61	88.5867	9,849.61	88.2412	9,849.61	87.203	9,849.61	86.8919	9,849.61	84.4605	9,849.61	83.583	9,849.61	82.2653	9,849.61	81.9447	9,849.61	79.6786	9,849.61	78.9405	9,849.61	75.5914	9,849.61	76.5839	9,849.61	74.5364	9,849.61	73.4234	9,849.61	71.5202	9,849.61	69.3337	9,849.61	68.1482	9,849.61	67.372	9,849.61	66.24	9,849.61	63.7807	9,849.61	64.2296	9,849.61	60.7399	9,849.61	64.1845	9,849.61	56.6712	9,849.61	55.8089	9,849.61	53.9066	9,849.61	57.431	9,849.61	48.5152	9,849.61	54.1847	9,849.61	57.4172	9,849.61	58.8153	9,849.61	45.3842	9,849.61	42.6619
10,196.8	90.4286	10,196.8	89.0883	10,196.8	89.3504	10,196.8	88.2509	10,196.8	87.9494	10,196.8	86.3494	10,196.8	86.618	10,196.8	84.7727	10,196.8	84.3757	10,196.8	82.1244	10,196.8	81.7855	10,196.8	80.5064	10,196.8	79.6276	10,196.8	77.2514	10,196.8	76.3866	10,196.8	74.2449	10,196.8	72.6424	10,196.8	71.9807	10,196.8	68.628	10,196.8	68.2253	10,196.8	65.9147	10,196.8	67.974	10,196.8	63.3783	10,196.8	64.7238	10,196.8	62.0891	10,196.8	62.5206	10,196.8	57.385	10,196.8	53.5592	10,196.8	53.9262	10,196.8	52.5268	10,196.8	52.5608	10,196.8	53.9192	10,196.8	58.6095	10,196.8	56.478	10,196.8	32.7135	10,196.8	45.4242
10,555.7	89.983	10,555.7	88.4127	10,555.7	88.5758	10,555.7	87.8602	10,555.7	88.0285	10,555.7	86.6431	10,555.7	86.9163	10,555.7	85.4756	10,555.7	84.8869	10,555.7	81.8837	10,555.7	82.0918	10,555.7	80.9993	10,555.7	79.5597	10,555.7	77.0883	10,555.7	76.1016	10,555.7	73.6571	10,555.7	73.1418	10,555.7	70.082	10,555.7	70.4953	10,555.7	68.1765	10,555.7	67.1355	10,555.7	66.0491	10,555.7	63.1794	10,555.7	62.2053	10,555.7	59.6393	10,555.7	61.9545	10,555.7	45.1861	10,555.7	53.4603	10,555.7	50.8875	10,555.7	49.4858	10,555.7	51.8691	10,555.7	55.2704	10,555.7	58.3055	10,555.7	56.6956	10,555.7	30.2646	10,555.7	51.253
10,927.7	89.1999	10,927.7	87.7609	10,927.7	87.7949	10,927.7	88.2072	10,927.7	87.9051	10,927.7	87.3523	10,927.7	87.0416	10,927.7	86.4088	10,927.7	85.5809	10,927.7	82.915	10,927.7	82.4895	10,927.7	81.1684	10,927.7	79.8229	10,927.7	77.3593	10,927.7	76.6629	10,927.7	73.7189	10,927.7	73.2462	10,927.7	71.3022	10,927.7	70.8569	10,927.7	67.5889	10,927.7	67.7848	10,927.7	65.2974	10,927.7	63.8666	10,927.7	62.029	10,927.7	62.5273	10,927.7	61.0744	10,927.7	46.4852	10,927.7	57.9701	10,927.7	52.158	10,927.7	49.9624	10,927.7	49.2677	10,927.7	55.069	10,927.7	60.1798	10,927.7	55.6579	10,927.7	41.4237	10,927.7	52.0209
11,313	88.3517	11,313	86.9472	11,313	87.7804	11,313	88.3969	11,313	87.9406	11,313	87.8723	11,313	87.3772	11,313	86.6904	11,313	85.9699	11,313	83.9586	11,313	83.2053	11,313	81.4872	11,313	80.5694	11,313	78.5087	11,313	76.8139	11,313	73.8813	11,313	73.1891	11,313	71.9624	11,313	70.611	11,313	66.5723	11,313	66.828	11,313	65.3981	11,313	64.3073	11,313	62.1428	11,313	63.0989	11,313	57.5703	11,313	51.106	11,313	58.9948	11,313	47.2208	11,313	48.3908	11,313	43.3651	11,313	54.4579	11,313	60.2243	11,313	51.769	11,313	30.0686	11,313	52.1825
11,712.9	88.155	11,712.9	87.5733	11,712.9	87.7285	11,712.9	88.1685	11,712.9	88.016	11,712.9	88.4749	11,712.9	87.6924	11,712.9	87.26	11,712.9	85.9971	11,712.9	83.8726	11,712.9	83.8077	11,712.9	81.7694	11,712.9	80.9974	11,712.9	78.9615	11,712.9	76.3638	11,712.9	74.1149	11,712.9	71.8199	11,712.9	71.1271	11,712.9	70.5282	11,712.9	68.5878	11,712.9	66.6423	11,712.9	64.2683	11,712.9	64.906	11,712.9	61.5185	11,712.9	60.262	11,712.9	60.658	11,712.9	52.384	11,712.9	58.3708	11,712.9	44.0997	11,712.9	47.1232	11,712.9	48.2364	11,712.9	51.5215	11,712.9	60.9907	11,712.9	51.5983	11,712.9	42.5646	11,712.9	53.3961
12,126	87.5324	12,126	87.9979	12,126	88.1302	12,126	88.8931	12,126	87.9248	12,126	89.3462	12,126	87.7931	12,126	88.0275	12,126	86.4495	12,126	84.1811	12,126	84.3074	12,126	82.0491	12,126	80.9501	12,126	78.9185	12,126	77.5928	12,126	74.1393	12,126	71.7721	12,126	71.4683	12,126	70.4318	12,126	68.4083	12,126	65.7045	12,126	64.9502	12,126	63.9303	12,126	61.63	12,126	58.9878	12,126	59.7891	12,126	55.8347	12,126	57.6814	12,126	51.9422	12,126	52.8009	12,126	43.2425	12,126	48.7785	12,126	59.6188	12,126	56.0898	12,126	38.3282	12,126	53.4208
12,553.7	87.2857	12,553.7	88.5736	12,553.7	88.2747	12,553.7	89.4229	12,553.7	88.1285	12,553.7	89.5813	12,553.7	88.634	12,553.7	88.1682	12,553.7	86.9576	12,553.7	83.9022	12,553.7	84.6682	12,553.7	81.8456	12,553.7	81.4399	12,553.7	77.909	12,553.7	78.2185	12,553.7	73.0372	12,553.7	72.1804	12,553.7	69.9919	12,553.7	70.8602	12,553.7	67.3308	12,553.7	65.1563	12,553.7	63.3892	12,553.7	63.33	12,553.7	61.8713	12,553.7	59.3529	12,553.7	57.8835	12,553.7	55.9611	12,553.7	55.9574	12,553.7	53.0807	12,553.7	53.4412	12,553.7	48.4544	12,553.7	38.4755	12,553.7	59.1379	12,553.7	55.2038	12,553.7	35.3251	12,553.7	52.1053
12,996.1	87.3171	12,996.1	89.4425	12,996.1	88.4008	12,996.1	89.7214	12,996.1	88.3061	12,996.1	89.3657	12,996.1	88.7916	12,996.1	87.7681	12,996.1	87.4178	12,996.1	82.518	12,996.1	84.857	12,996.1	80.2394	12,996.1	81.7684	12,996.1	75.6518	12,996.1	78.5125	12,996.1	72.0527	12,996.1	72.7823	12,996.1	69.2872	12,996.1	71.1318	12,996.1	66.5722	12,996.1	65.8601	12,996.1	61.0971	12,996.1	64.5609	12,996.1	61.0492	12,996.1	60.3992	12,996.1	59.0927	12,996.1	60.294	12,996.1	49.9804	12,996.1	53.2937	12,996.1	49.2887	12,996.1	43.688	12,996.1	33.7157	12,996.1	59.2004	12,996.1	48.9585	12,996.1	42.0363	12,996.1	52.1194
13,454.6	88.4621	13,454.6	90.2264	13,454.6	89.2253	13,454.6	89.9992	13,454.6	88.7661	13,454.6	89.0028	13,454.6	89.346	13,454.6	87.6462	13,454.6	87.8096	13,454.6	82.0282	13,454.6	85.2555	13,454.6	79.6029	13,454.6	82.4761	13,454.6	74.193	13,454.6	78.6831	13,454.6	72.3714	13,454.6	73.8994	13,454.6	70.168	13,454.6	71.3156	13,454.6	65.9431	13,454.6	66.8753	13,454.6	62.3066	13,454.6	64.4888	13,454.6	60.9939	13,454.6	61.5251	13,454.6	56.7953	13,454.6	61.2837	13,454.6	43.1454	13,454.6	54.2465	13,454.6	49.2321	13,454.6	53.2374	13,454.6	39.6956	13,454.6	62.0245	13,454.6	44.3813	13,454.6	42.2718	13,454.6	54.0096
13,929.2	89.5485	13,929.2	90.7722	13,929.2	90.0175	13,929.2	90.3345	13,929.2	89.4966	13,929.2	89.1806	13,929.2	89.8916	13,929.2	88.1292	13,929.2	88.4251	13,929.2	82.687	13,929.2	85.8567	13,929.2	79.8686	13,929.2	82.384	13,929.2	76.0621	13,929.2	78.4744	13,929.2	73.3755	13,929.2	74.9336	13,929.2	70.843	13,929.2	71.44	13,929.2	64.162	13,929.2	68.2312	13,929.2	63.2545	13,929.2	64.9915	13,929.2	62.2658	13,929.2	59.9595	13,929.2	58.5313	13,929.2	63.628	13,929.2	28.1693	13,929.2	55.1507	13,929.2	40.2129	13,929.2	50.5815	13,929.2	46.9994	13,929.2	61.2213	13,929.2	37.4625	13,929.2	48.8418	13,929.2	52.6193
14,419.9	90.4806	14,419.9	91.1046	14,419.9	90.7843	14,419.9	90.8426	14,419.9	90.3541	14,419.9	89.6985	14,419.9	90.4558	14,419.9	88.4677	14,419.9	88.7902	14,419.9	83.6777	14,419.9	86.3891	14,419.9	80.4046	14,419.9	82.0608	14,419.9	77.4674	14,419.9	78.7828	14,419.9	72.858	14,419.9	74.4553	14,419.9	70.5856	14,419.9	70.4153	14,419.9	63.4131	14,419.9	68.395	14,419.9	64.4586	14,419.9	64.2396	14,419.9	61.6226	14,419.9	59.8631	14,419.9	57.0629	14,419.9	62.2594	14,419.9	47.2578	14,419.9	53.4504	14,419.9	52.4878	14,419.9	48.2103	14,419.9	48.6557	14,419.9	57.8681	14,419.9	48.9305	14,419.9	52.4256	14,419.9	53.3489
14,928.2	91.3838	14,928.2	91.3271	14,928.2	91.1425	14,928.2	90.7418	14,928.2	90.6683	14,928.2	89.9125	14,928.2	90.5844	14,928.2	88.6672	14,928.2	88.5811	14,928.2	84.2755	14,928.2	86.1788	14,928.2	81.2564	14,928.2	81.4363	14,928.2	77.9056	14,928.2	77.0815	14,928.2	72.9945	14,928.2	72.9491	14,928.2	70.2987	14,928.2	69.6208	14,928.2	65.1802	14,928.2	67.2729	14,928.2	64.4283	14,928.2	63.5487	14,928.2	62.1004	14,928.2	60.5841	14,928.2	58.2188	14,928.2	62.8469	14,928.2	43.2985	14,928.2	55.2054	14,928.2	54.0355	14,928.2	51.1673	14,928.2	49.1562	14,928.2	53.3543	14,928.2	48.2731	14,928.2	50.7227	14,928.2	51.9069
15,455.6	92.0623	15,455.6	91.3054	15,455.6	91.4618	15,455.6	90.6882	15,455.6	90.6743	15,455.6	89.7225	15,455.6	90.3602	15,455.6	88.7934	15,455.6	87.8838	15,455.6	84.0497	15,455.6	84.8735	15,455.6	81.1791	15,455.6	80.1551	15,455.6	77.3648	15,455.6	74.9461	15,455.6	72.861	15,455.6	70.2464	15,455.6	69.2231	15,455.6	67.8391	15,455.6	65.5669	15,455.6	64.6501	15,455.6	63.3174	15,455.6	62.28	15,455.6	59.4358	15,455.6	59.7408	15,455.6	58.5242	15,455.6	60.5576	15,455.6	45.8383	15,455.6	53.2629	15,455.6	54.7704	15,455.6	48.1684	15,455.6	50.5479	15,455.6	40.7991	15,455.6	48.9493	15,455.6	45.2264	15,455.6	47.635
16,000.5	91.9993	16,000.5	91.1754	16,000.5	91.4178	16,000.5	90.5255	16,000.5	90.455	16,000.5	89.5543	16,000.5	89.7957	16,000.5	88.5059	16,000.5	86.6425	16,000.5	83.1578	16,000.5	82.5068	16,000.5	79.7619	16,000.5	77.1153	16,000.5	75.9791	16,000.5	72.1746	16,000.5	71.2689	16,000.5	66.8611	16,000.5	67.2892	16,000.5	64.7176	16,000.5	63.6572	16,000.5	60.2931	16,000.5	60.3211	16,000.5	59.8538	16,000.5	57.8693	16,000.5	56.598	16,000.5	54.6261	16,000.5	57.2868	16,000.5	40.638	16,000.5	50.6634	16,000.5	53.1088	16,000.5	39.8825	16,000.5	49.9683	16,000.5	49.2378	16,000.5	50.1296	16,000.5	40.5762	16,000.5	36.2651
16,564.5	91.4559	16,564.5	90.7012	16,564.5	90.9992	16,564.5	90.1605	16,564.5	89.9541	16,564.5	89.0705	16,564.5	88.8737	16,564.5	87.7819	16,564.5	85.048	16,564.5	81.8675	16,564.5	80.0272	16,564.5	77.6379	16,564.5	73.3815	16,564.5	73.2501	16,564.5	68.765	16,564.5	68.8757	16,564.5	62.7813	16,564.5	64.4512	16,564.5	59.6036	16,564.5	61.4103	16,564.5	55.3345	16,564.5	56.1178	16,564.5	55.9869	16,564.5	57.2589	16,564.5	53.3526	16,564.5	53.2025	16,564.5	53.0153	16,564.5	29.7125	16,564.5	46.2027	16,564.5	49.8397	16,564.5	36.2133	16,564.5	47.8601	16,564.5	52.4641	16,564.5	48.5003	16,564.5	34.1215	16,564.5	41.37
17,148.9	90.7909	17,148.9	90.1666	17,148.9	90.5228	17,148.9	89.5898	17,148.9	89.3305	17,148.9	88.1091	17,148.9	87.7085	17,148.9	86.1855	17,148.9	82.8743	17,148.9	79.1981	17,148.9	76.4708	17,148.9	73.7236	17,148.9	69.0004	17,148.9	68.271	17,148.9	63.8345	17,148.9	65.2188	17,148.9	60.0178	17,148.9	61.6928	17,148.9	53.8612	17,148.9	56.4873	17,148.9	54.9192	17,148.9	53.5079	17,148.9	51.1906	17,148.9	55.6292	17,148.9	48.4555	17,148.9	50.3357	17,148.9	48.3689	17,148.9	34.0387	17,148.9	44.6197	17,148.9	47.6757	17,148.9	42.4082	17,148.9	46.3399	17,148.9	51.3782	17,148.9	51.6348	17,148.9	42.0256	17,148.9	49.3195
17,752.4	90.3173	17,752.4	90.0118	17,752.4	90.1484	17,752.4	89.3064	17,752.4	88.8377	17,752.4	87.0785	17,752.4	86.486	17,752.4	84.0102	17,752.4	80.4209	17,752.4	75.2771	17,752.4	72.594	17,752.4	68.2304	17,752.4	63.5168	17,752.4	63.2779	17,752.4	59.3341	17,752.4	60.2911	17,752.4	60.5129	17,752.4	60.1665	17,752.4	55.077	17,752.4	47.7865	17,752.4	52.7918	17,752.4	53.7893	17,752.4	42.8871	17,752.4	54.1119	17,752.4	42.7394	17,752.4	47.1219	17,752.4	46.498	17,752.4	38.0693	17,752.4	43.7619	17,752.4	45.1266	17,752.4	48.0449	17,752.4	46.2883	17,752.4	51.5958	17,752.4	53.3179	17,752.4	46.3152	17,752.4	51.8344
18,379.4	90.5109	18,379.4	90.0726	18,379.4	89.9327	18,379.4	88.8645	18,379.4	88.0692	18,379.4	85.919	18,379.4	84.751	18,379.4	81.9196	18,379.4	76.8371	18,379.4	71.9218	18,379.4	66.8202	18,379.4	65.7507	18,379.4	63.6247	18,379.4	62.4719	18,379.4	61.0447	18,379.4	60.8848	18,379.4	57.7437	18,379.4	59.8312	18,379.4	57.9166	18,379.4	53.6269	18,379.4	50.2923	18,379.4	55.7997	18,379.4	47.8143	18,379.4	53.0788	18,379.4	37.4121	18,379.4	47.5538	18,379.4	49.022	18,379.4	42.4749	18,379.4	44.648	18,379.4	36.9004	18,379.4	49.652	18,379.4	46.8969	18,379.4	52.2387	18,379.4	54.571	18,379.4	49.4168	18,379.4	52.3213
19,026.9	91.0427	19,026.9	90.1987	19,026.9	89.6816	19,026.9	88.0461	19,026.9	86.7389	19,026.9	84.2172	19,026.9	82.0447	19,026.9	79.478	19,026.9	71.8362	19,026.9	70.5641	19,026.9	68.4958	19,026.9	65.8186	19,026.9	66.664	19,026.9	64.3595	19,026.9	64.2855	19,026.9	59.4459	19,026.9	51.9834	19,026.9	58.336	19,026.9	59.5181	19,026.9	55.0606	19,026.9	46.3208	19,026.9	56.1975	19,026.9	49.0603	19,026.9	51.5556	19,026.9	37.3873	19,026.9	47.1279	19,026.9	47.7669	19,026.9	41.2172	19,026.9	44.5543	19,026.9	40.1259	19,026.9	51.0943	19,026.9	46.0971	19,026.9	52.3085	19,026.9	54.833	19,026.9	48.7238	19,026.9	52.4435
19,697.8	91.3463	19,697.8	90.2984	19,697.8	89.4377	19,697.8	87.1025	19,697.8	85.1193	19,697.8	82.0508	19,697.8	78.2214	19,697.8	77.208	19,697.8	65.9011	19,697.8	70.6434	19,697.8	69.3823	19,697.8	65.9131	19,697.8	67.3932	19,697.8	62.3879	19,697.8	63.9702	19,697.8	59.1585	19,697.8	51.2591	19,697.8	56.1735	19,697.8	58.5036	19,697.8	54.4056	19,697.8	39.9846	19,697.8	55.03	19,697.8	47.2427	19,697.8	49.2285	19,697.8	39.7554	19,697.8	47.4281	19,697.8	49.2372	19,697.8	37.8435	19,697.8	45.2102	19,697.8	37.9439	19,697.8	52.1535	19,697.8	45.5924	19,697.8	52.4282	19,697.8	54.1871	19,697.8	47.55	19,697.8	51.7035
19,999.5	91.2153	19,999.5	90.243	19,999.5	89.1494	19,999.5	86.9334	19,999.5	84.2004	19,999.5	81.081	19,999.5	75.919	19,999.5	76.9699	19,999.5	64.8024	19,999.5	70.6489	19,999.5	68.8105	19,999.5	66.2768	19,999.5	67.785	19,999.5	61.6976	19,999.5	64.5817	19,999.5	60.7794	19,999.5	50.9247	19,999.5	62.2223	19,999.5	55.6824	19,999.5	57.3434	19,999.5	36.8198	19,999.5	49.5047	19,999.5	49.1844	19,999.5	50.604	19,999.5	48.4713	19,999.5	45.0586	19,999.5	48.0747	19,999.5	40.3777	19,999.5	42.5796	19,999.5	43.2585	19,999.5	50.0415	19,999.5	54.9007	19,999.5	48.5026	19,999.5	56.6269	19,999.5	49.9828	19,999.5	55.0979
