"SPL Vertical"
"On-Axis"		"10°"		"-10°"		"20°"		"-20°"		"30°"		"-30°"		"40°"		"-40°"		"50°"		"-50°"		"60°"		"-60°"		"70°"		"-70°"		"80°"		"-80°"		"90°"		"-90°"		"100°"		"-100°"		"110°"		"-110°"		"120°"		"-120°"		"130°"		"-130°"		"140°"		"-140°"		"150°"		"-150°"		"160°"		"-160°"		"170°"		"-170°"		"180°"
"Frequency / Hz"	"Sound Pressure Level / dB (re 20 µPa/V)  [2.83  V @ 1. m]"	"Frequency / Hz"	"Sound Pressure Level / dB (re 20 µPa/V)  [2.83  V @ 1. m]"	"Frequency / Hz"	"Sound Pressure Level / dB (re 20 µPa/V)  [2.83  V @ 1. m]"	"Frequency / Hz"	"Sound Pressure Level / dB (re 20 µPa/V)  [2.83  V @ 1. m]"	"Frequency / Hz"	"Sound Pressure Level / dB (re 20 µPa/V)  [2.83  V @ 1. m]"	"Frequency / Hz"	"Sound Pressure Level / dB (re 20 µPa/V)  [2.83  V @ 1. m]"	"Frequency / Hz"	"Sound Pressure Level / dB (re 20 µPa/V)  [2.83  V @ 1. m]"	"Frequency / Hz"	"Sound Pressure Level / dB (re 20 µPa/V)  [2.83  V @ 1. m]"	"Frequency / Hz"	"Sound Pressure Level / dB (re 20 µPa/V)  [2.83  V @ 1. m]"	"Frequency / Hz"	"Sound Pressure Level / dB (re 20 µPa/V)  [2.83  V @ 1. m]"	"Frequency / Hz"	"Sound Pressure Level / dB (re 20 µPa/V)  [2.83  V @ 1. m]"	"Frequency / Hz"	"Sound Pressure Level / dB (re 20 µPa/V)  [2.83  V @ 1. m]"	"Frequency / Hz"	"Sound Pressure Level / dB (re 20 µPa/V)  [2.83  V @ 1. m]"	"Frequency / Hz"	"Sound Pressure Level / dB (re 20 µPa/V)  [2.83  V @ 1. m]"	"Frequency / Hz"	"Sound Pressure Level / dB (re 20 µPa/V)  [2.83  V @ 1. m]"	"Frequency / Hz"	"Sound Pressure Level / dB (re 20 µPa/V)  [2.83  V @ 1. m]"	"Frequency / Hz"	"Sound Pressure Level / dB (re 20 µPa/V)  [2.83  V @ 1. m]"	"Frequency / Hz"	"Sound Pressure Level / dB (re 20 µPa/V)  [2.83  V @ 1. m]"	"Frequency / Hz"	"Sound Pressure Level / dB (re 20 µPa/V)  [2.83  V @ 1. m]"	"Frequency / Hz"	"Sound Pressure Level / dB (re 20 µPa/V)  [2.83  V @ 1. m]"	"Frequency / Hz"	"Sound Pressure Level / dB (re 20 µPa/V)  [2.83  V @ 1. m]"	"Frequency / Hz"	"Sound Pressure Level / dB (re 20 µPa/V)  [2.83  V @ 1. m]"	"Frequency / Hz"	"Sound Pressure Level / dB (re 20 µPa/V)  [2.83  V @ 1. m]"	"Frequency / Hz"	"Sound Pressure Level / dB (re 20 µPa/V)  [2.83  V @ 1. m]"	"Frequency / Hz"	"Sound Pressure Level / dB (re 20 µPa/V)  [2.83  V @ 1. m]"	"Frequency / Hz"	"Sound Pressure Level / dB (re 20 µPa/V)  [2.83  V @ 1. m]"	"Frequency / Hz"	"Sound Pressure Level / dB (re 20 µPa/V)  [2.83  V @ 1. m]"	"Frequency / Hz"	"Sound Pressure Level / dB (re 20 µPa/V)  [2.83  V @ 1. m]"	"Frequency / Hz"	"Sound Pressure Level / dB (re 20 µPa/V)  [2.83  V @ 1. m]"	"Frequency / Hz"	"Sound Pressure Level / dB (re 20 µPa/V)  [2.83  V @ 1. m]"	"Frequency / Hz"	"Sound Pressure Level / dB (re 20 µPa/V)  [2.83  V @ 1. m]"	"Frequency / Hz"	"Sound Pressure Level / dB (re 20 µPa/V)  [2.83  V @ 1. m]"	"Frequency / Hz"	"Sound Pressure Level / dB (re 20 µPa/V)  [2.83  V @ 1. m]"	"Frequency / Hz"	"Sound Pressure Level / dB (re 20 µPa/V)  [2.83  V @ 1. m]"	"Frequency / Hz"	"Sound Pressure Level / dB (re 20 µPa/V)  [2.83  V @ 1. m]"	"Frequency / Hz"	"Sound Pressure Level / dB (re 20 µPa/V)  [2.83  V @ 1. m]"
20.5078	71.0347	20.5078	71.0777	20.5078	71.0216	20.5078	71.1594	20.5078	71.0348	20.5078	71.2943	20.5078	71.0766	20.5078	71.5008	20.5078	71.1562	20.5078	71.7997	20.5078	71.2903	20.5078	72.2094	20.5078	71.5019	20.5078	72.7397	20.5078	71.8171	20.5078	73.3866	20.5078	72.258	20.5078	74.1289	20.5078	72.8328	20.5078	74.9309	20.5078	73.5297	20.5078	75.7471	20.5078	74.3165	20.5078	76.5289	20.5078	75.1462	20.5078	77.231	20.5078	75.9674	20.5078	77.8152	20.5078	76.7317	20.5078	78.2539	20.5078	77.3992	20.5078	78.5298	20.5078	77.9402	20.5078	78.6349	20.5078	78.3342	20.5078	78.5685
21.9727	71.0428	21.9727	71.0627	21.9727	71.0305	21.9727	71.0965	21.9727	71.0257	21.9727	71.1574	21.9727	71.0356	21.9727	71.2653	21.9727	71.0749	21.9727	71.4455	21.9727	71.1676	21.9727	71.7253	21.9727	71.3458	21.9727	72.1278	21.9727	71.6442	21.9727	72.6631	21.9727	72.0901	21.9727	73.3217	21.9727	72.6909	21.9727	74.0739	21.9727	73.4267	21.9727	74.875	21.9727	74.2535	21.9727	75.6744	21.9727	75.1136	21.9727	76.4233	21.9727	75.9476	21.9727	77.08	21.9727	76.7023	21.9727	77.612	21.9727	77.3354	21.9727	77.9958	21.9727	77.8169	21.9727	78.2157	21.9727	78.1284	21.9727	78.2616
23.4375	71.8078	23.4375	71.8135	23.4375	71.8198	23.4375	71.8429	23.4375	71.849	23.4375	71.9073	23.4375	71.8999	23.4375	72.023	23.4375	71.9832	23.4375	72.2101	23.4375	72.1155	23.4375	72.4896	23.4375	72.3186	23.4375	72.8781	23.4375	72.6153	23.4375	73.382	23.4375	73.0238	23.4375	73.9925	23.4375	73.5496	23.4375	74.6848	23.4375	74.181	23.4375	75.4213	23.4375	74.8883	23.4375	76.1576	23.4375	75.6297	23.4375	76.8485	23.4375	76.3584	23.4375	77.4539	23.4375	77.0294	23.4375	77.9409	23.4375	77.6042	23.4375	78.2858	23.4375	78.0529	23.4375	78.4735	23.4375	78.3547	23.4375	78.4967
24.9023	73.5062	24.9023	73.5323	24.9023	73.5018	24.9023	73.5836	24.9023	73.5191	24.9023	73.6671	24.9023	73.562	24.9023	73.7931	24.9023	73.6389	24.9023	73.9745	24.9023	73.7618	24.9023	74.2251	24.9023	73.9462	24.9023	74.5569	24.9023	74.2085	24.9023	74.9762	24.9023	74.5619	24.9023	75.4803	24.9023	75.0114	24.9023	76.0546	24.9023	75.5497	24.9023	76.673	24.9023	76.156	24.9023	77.3008	24.9023	76.7979	24.9023	77.8995	24.9023	77.4364	24.9023	78.4313	24.9023	78.0315	24.9023	78.8638	24.9023	78.5468	24.9023	79.1721	24.9023	78.9527	24.9023	79.3399	24.9023	79.2278	24.9023	79.3589
26.3672	74.6194	26.3672	74.6361	26.3672	74.6244	26.3672	74.6767	26.3672	74.6515	26.3672	74.7459	26.3672	74.7035	26.3672	74.8507	26.3672	74.7858	26.3672	75.0002	26.3672	74.9068	26.3672	75.2047	26.3672	75.0768	26.3672	75.474	26.3672	75.3073	26.3672	75.8146	26.3672	75.6079	26.3672	76.2273	26.3672	75.9837	26.3672	76.7039	26.3672	76.431	26.3672	77.2265	26.3672	76.9361	26.3672	77.768	26.3672	77.4751	26.3672	78.2953	26.3672	78.0165	26.3672	78.7735	26.3672	78.5257	26.3672	79.1707	26.3672	78.9693	26.3672	79.461	26.3672	79.3189	26.3672	79.6264	26.3672	79.553	26.3672	79.6575
27.832	75.9439	27.832	75.9583	27.832	75.9434	27.832	75.9872	27.832	75.9579	27.832	76.0333	27.832	75.99	27.832	76.1011	27.832	76.0443	27.832	76.1975	27.832	76.1269	27.832	76.3312	27.832	76.2459	27.832	76.5121	27.832	76.4105	27.832	76.749	27.832	76.6293	27.832	77.047	27.832	76.9083	27.832	77.4046	27.832	77.2477	27.832	77.8116	27.832	77.6399	27.832	78.2478	27.832	78.0682	27.832	78.6852	27.832	78.5079	27.832	79.0921	27.832	78.929	27.832	79.4372	27.832	79.301	27.832	79.6945	27.832	79.5965	27.832	79.8451	27.832	79.7938	27.832	79.8788
29.2969	76.6745	29.2969	76.682	29.2969	76.6828	29.2969	76.7061	29.2969	76.7069	29.2969	76.7493	29.2969	76.7486	29.2969	76.8154	29.2969	76.8108	29.2969	76.9098	29.2969	76.8977	29.2969	77.0393	29.2969	77.0153	29.2969	77.2114	29.2969	77.1702	29.2969	77.4327	29.2969	77.369	29.2969	77.7073	29.2969	77.6167	29.2969	78.0339	29.2969	77.9145	29.2969	78.4035	29.2969	78.2573	29.2969	78.7988	29.2969	78.6322	29.2969	79.1948	29.2969	79.0189	29.2969	79.5622	29.2969	79.3919	29.2969	79.872	29.2969	79.7241	29.2969	80.1	29.2969	79.9906	29.2969	80.23	29.2969	80.1718	29.2969	80.2539
30.7617	77.2704	30.7617	77.2847	30.7617	77.2756	30.7617	77.3187	30.7617	77.3006	30.7617	77.3735	30.7617	77.3466	30.7617	77.4513	30.7617	77.4154	30.7617	77.5553	30.7617	77.5098	30.7617	77.6894	30.7617	77.6331	30.7617	77.8584	30.7617	77.7894	30.7617	78.0666	30.7617	77.9829	30.7617	78.3166	30.7617	78.2166	30.7617	78.6078	30.7617	78.4911	30.7617	78.934	30.7617	78.8022	30.7617	79.2823	30.7617	79.1396	30.7617	79.6327	30.7617	79.4866	30.7617	79.9606	30.7617	79.8212	30.7617	80.2399	30.7617	80.1195	30.7617	80.4481	30.7617	80.359	30.7617	80.5686	30.7617	80.5212	30.7617	80.5932
32.2266	78.2112	32.2266	78.2285	32.2266	78.2124	32.2266	78.2642	32.2266	78.2327	32.2266	78.3188	32.2266	78.2726	32.2266	78.393	32.2266	78.3334	32.2266	78.4886	32.2266	78.4166	32.2266	78.6077	32.2266	78.5243	32.2266	78.7532	32.2266	78.659	32.2266	78.9284	32.2266	78.8235	32.2266	79.1354	32.2266	79.0202	32.2266	79.3748	32.2266	79.2496	32.2266	79.6429	32.2266	79.5094	32.2266	79.9306	32.2266	79.7921	32.2266	80.2228	32.2266	80.0847	32.2266	80.499	32.2266	80.3694	32.2266	80.7366	32.2266	80.6256	32.2266	80.9148	32.2266	80.8331	32.2266	81.0182	32.2266	80.9747	32.2266	81.0385
33.6914	78.9029	33.6914	78.9098	33.6914	78.9127	33.6914	78.9334	33.6914	78.9391	33.6914	78.974	33.6914	78.9826	33.6914	79.0322	33.6914	79.0433	33.6914	79.1091	33.6914	79.1222	33.6914	79.2063	33.6914	79.2203	33.6914	79.3262	33.6914	79.3392	33.6914	79.4712	33.6914	79.4812	33.6914	79.6435	33.6914	79.6482	33.6914	79.8439	33.6914	79.8412	33.6914	80.0703	33.6914	80.0585	33.6914	80.3161	33.6914	80.2948	33.6914	80.5692	33.6914	80.5396	33.6914	80.8123	33.6914	80.7778	33.6914	81.0257	33.6914	80.9914	33.6914	81.1903	33.6914	81.1625	33.6914	81.2913	33.6914	81.2757	33.6914	81.3203
35.1562	79.5662	35.1562	79.5757	35.1562	79.5726	35.1562	79.6009	35.1562	79.5948	35.1562	79.6417	35.1562	79.6331	35.1562	79.6982	35.1562	79.6874	35.1562	79.7707	35.1562	79.7582	35.1562	79.8599	35.1562	79.8458	35.1562	79.967	35.1562	79.9512	35.1562	80.0936	35.1562	80.0758	35.1562	80.2413	35.1562	80.2208	35.1562	80.4109	35.1562	80.3872	35.1562	80.6013	35.1562	80.5741	35.1562	80.8078	35.1562	80.7773	35.1562	81.0213	35.1562	80.9887	35.1562	81.2279	35.1562	81.1953	35.1562	81.4109	35.1562	81.3816	35.1562	81.5536	35.1562	81.5312	35.1562	81.6422	35.1562	81.6301	35.1562	81.6684
36.6211	80.0848	36.6211	80.0935	36.6211	80.0903	36.6211	80.1161	36.6211	80.11	36.6211	80.1523	36.6211	80.1441	36.6211	80.2021	36.6211	80.1925	36.6211	80.2654	36.6211	80.2553	36.6211	80.3425	36.6211	80.3326	36.6211	80.4342	36.6211	80.4249	36.6211	80.5416	36.6211	80.5329	36.6211	80.6659	36.6211	80.6575	36.6211	80.808	36.6211	80.7995	36.6211	80.9673	36.6211	80.9582	36.6211	81.1406	36.6211	81.1305	36.6211	81.3208	36.6211	81.3096	36.6211	81.4967	36.6211	81.4851	36.6211	81.6542	36.6211	81.6433	36.6211	81.7785	36.6211	81.7699	36.6211	81.8574	36.6211	81.8526	36.6211	81.8829
38.0859	80.6231	38.0859	80.6309	38.0859	80.6297	38.0859	80.6529	38.0859	80.6506	38.0859	80.6886	38.0859	80.6856	38.0859	80.7376	38.0859	80.7343	38.0859	80.7993	38.0859	80.796	38.0859	80.8731	38.0859	80.8705	38.0859	80.9589	38.0859	80.9574	38.0859	81.0571	38.0859	81.0571	38.0859	81.1683	38.0859	81.1699	38.0859	81.293	38.0859	81.2964	38.0859	81.4311	38.0859	81.436	38.0859	81.5802	38.0859	81.5865	38.0859	81.7351	38.0859	81.7422	38.0859	81.887	38.0859	81.8942	38.0859	82.0242	38.0859	82.0306	38.0859	82.1341	38.0859	82.139	38.0859	82.2057	38.0859	82.2083	38.0859	82.2313
39.5508	81.2813	39.5508	81.291	39.5508	81.2849	39.5508	81.3135	39.5508	81.3019	39.5508	81.3479	39.5508	81.3323	39.5508	81.3935	39.5508	81.3755	39.5508	81.4495	39.5508	81.4309	39.5508	81.515	39.5508	81.4975	39.5508	81.5896	39.5508	81.5747	39.5508	81.6732	39.5508	81.6619	39.5508	81.7663	39.5508	81.759	39.5508	81.8692	39.5508	81.866	39.5508	81.9821	39.5508	81.9826	39.5508	82.1034	39.5508	82.1071	39.5508	82.2295	39.5508	82.2356	39.5508	82.3536	39.5508	82.361	39.5508	82.4662	39.5508	82.4737	39.5508	82.5572	39.5508	82.5632	39.5508	82.6169	39.5508	82.6203	39.5508	82.6388
41.0156	81.738	41.0156	81.7479	41.0156	81.7401	41.0156	81.7693	41.0156	81.7543	41.0156	81.8016	41.0156	81.7805	41.0156	81.8439	41.0156	81.8181	41.0156	81.8952	41.0156	81.8665	41.0156	81.9546	41.0156	81.9248	41.0156	82.0215	41.0156	81.9921	41.0156	82.0955	41.0156	82.0681	41.0156	82.1766	41.0156	82.1524	41.0156	82.2651	41.0156	82.2451	41.0156	82.361	41.0156	82.3463	41.0156	82.4635	41.0156	82.4545	41.0156	82.5697	41.0156	82.5666	41.0156	82.6746	41.0156	82.6763	41.0156	82.7703	41.0156	82.7752	41.0156	82.8483	41.0156	82.8537	41.0156	82.9001	41.0156	82.9035	41.0156	82.9194
42.4805	82.2797	42.4805	82.2906	42.4805	82.2792	42.4805	82.3114	42.4805	82.2895	42.4805	82.3414	42.4805	82.3105	42.4805	82.3797	42.4805	82.3421	42.4805	82.4254	42.4805	82.3836	42.4805	82.4775	42.4805	82.4341	42.4805	82.535	42.4805	82.4929	42.4805	82.5975	42.4805	82.559	42.4805	82.6646	42.4805	82.632	42.4805	82.7365	42.4805	82.7116	42.4805	82.8134	42.4805	82.7975	42.4805	82.8948	42.4805	82.8886	42.4805	82.9792	42.4805	82.9821	42.4805	83.063	42.4805	83.073	42.4805	83.1406	42.4805	83.1542	42.4805	83.205	42.4805	83.2177	42.4805	83.2491	42.4805	83.2568	42.4805	83.2674
43.9453	82.7332	43.9453	82.7429	43.9453	82.7359	43.9453	82.7652	43.9453	82.7507	43.9453	82.7999	43.9453	82.777	43.9453	82.8467	43.9453	82.8141	43.9453	82.9043	43.9453	82.8614	43.9453	82.9714	43.9453	82.9179	43.9453	83.0461	43.9453	82.9828	43.9453	83.1265	43.9453	83.0551	43.9453	83.2113	43.9453	83.1343	43.9453	83.299	43.9453	83.2199	43.9453	83.3889	43.9453	83.3113	43.9453	83.4798	43.9453	83.4076	43.9453	83.5694	43.9453	83.5061	43.9453	83.6543	43.9453	83.6024	43.9453	83.7289	43.9453	83.6899	43.9453	83.7869	43.9453	83.7613	43.9453	83.8223	43.9453	83.8097	43.9453	83.8305
45.4102	83.0896	45.4102	83.1018	45.4102	83.0887	45.4102	83.1247	45.4102	83.099	45.4102	83.1576	45.4102	83.1202	45.4102	83.1994	45.4102	83.1518	45.4102	83.2484	45.4102	83.1928	45.4102	83.3031	45.4102	83.2421	45.4102	83.3615	45.4102	83.2983	45.4102	83.4221	45.4102	83.3599	45.4102	83.4836	45.4102	83.4259	45.4102	83.5452	45.4102	83.4951	45.4102	83.6065	45.4102	83.5668	45.4102	83.6676	45.4102	83.6401	45.4102	83.7279	45.4102	83.7132	45.4102	83.7862	45.4102	83.7827	45.4102	83.8396	45.4102	83.8439	45.4102	83.8841	45.4102	83.8913	45.4102	83.915	45.4102	83.9201	45.4102	83.928
46.875	83.7681	46.875	83.7748	46.875	83.7682	46.875	83.7879	46.875	83.7753	46.875	83.8071	46.875	83.7892	46.875	83.8315	46.875	83.8095	46.875	83.8603	46.875	83.8354	46.875	83.8923	46.875	83.8659	46.875	83.9261	46.875	83.8997	46.875	83.9605	46.875	83.9353	46.875	83.9942	46.875	83.9715	46.875	84.0264	46.875	84.0076	46.875	84.0568	46.875	84.0431	46.875	84.0857	46.875	84.078	46.875	84.1134	46.875	84.1121	46.875	84.1399	46.875	84.1442	46.875	84.1646	46.875	84.1723	46.875	84.1859	46.875	84.1938	46.875	84.2013	46.875	84.2063	46.875	84.2087
48.3398	84.2853	48.3398	84.2951	48.3398	84.2794	48.3398	84.3082	48.3398	84.2778	48.3398	84.3237	48.3398	84.281	48.3398	84.3409	48.3398	84.2889	48.3398	84.3591	48.3398	84.3012	48.3398	84.3775	48.3398	84.3174	48.3398	84.3952	48.3398	84.3362	48.3398	84.4113	48.3398	84.3563	48.3398	84.4251	48.3398	84.3765	48.3398	84.4362	48.3398	84.3958	48.3398	84.4447	48.3398	84.4139	48.3398	84.4514	48.3398	84.4309	48.3398	84.4573	48.3398	84.4471	48.3398	84.4638	48.3398	84.4623	48.3398	84.4712	48.3398	84.4755	48.3398	84.4791	48.3398	84.4854	48.3398	84.4862	48.3398	84.4905	48.3398	84.4905
51.2695	84.8758	51.2695	84.8775	51.2695	84.8793	51.2695	84.8843	51.2695	84.888	51.2695	84.8958	51.2695	84.902	51.2695	84.9114	51.2695	84.9207	51.2695	84.9304	51.2695	84.9436	51.2695	84.9515	51.2695	84.9696	51.2695	84.9732	51.2695	84.9972	51.2695	84.9939	51.2695	85.0246	51.2695	85.012	51.2695	85.0499	51.2695	85.0265	51.2695	85.0716	51.2695	85.0372	51.2695	85.0888	51.2695	85.0447	51.2695	85.1014	51.2695	85.0508	51.2695	85.11	51.2695	85.0575	51.2695	85.1153	51.2695	85.0664	51.2695	85.1175	51.2695	85.0778	51.2695	85.1163	51.2695	85.0904	51.2695	85.1112	51.2695	85.1022
52.7344	85.2083	52.7344	85.2209	52.7344	85.2018	52.7344	85.2391	52.7344	85.2019	52.7344	85.262	52.7344	85.209	52.7344	85.2889	52.7344	85.2231	52.7344	85.3185	52.7344	85.2441	52.7344	85.3494	52.7344	85.2711	52.7344	85.3799	52.7344	85.3028	52.7344	85.4084	52.7344	85.3374	52.7344	85.433	52.7344	85.3727	52.7344	85.4526	52.7344	85.4066	52.7344	85.4669	52.7344	85.4375	52.7344	85.4766	52.7344	85.4645	52.7344	85.4835	52.7344	85.4873	52.7344	85.4899	52.7344	85.5055	52.7344	85.4975	52.7344	85.519	52.7344	85.5068	52.7344	85.5269	52.7344	85.5167	52.7344	85.5287	52.7344	85.5248
54.1992	85.5713	54.1992	85.5893	54.1992	85.5579	54.1992	85.6115	54.1992	85.5495	54.1992	85.6372	54.1992	85.5465	54.1992	85.6657	54.1992	85.5493	54.1992	85.6961	54.1992	85.5577	54.1992	85.727	54.1992	85.5713	54.1992	85.7566	54.1992	85.5889	54.1992	85.7827	54.1992	85.6091	54.1992	85.8031	54.1992	85.6299	54.1992	85.816	54.1992	85.6495	54.1992	85.8205	54.1992	85.6665	54.1992	85.8169	54.1992	85.6806	54.1992	85.8068	54.1992	85.6923	54.1992	85.793	54.1992	85.7026	54.1992	85.7781	54.1992	85.7123	54.1992	85.7642	54.1992	85.722	54.1992	85.7521	54.1992	85.7316	54.1992	85.7415
55.6641	85.9114	55.6641	85.9256	55.6641	85.9003	55.6641	85.943	55.6641	85.8926	55.6641	85.9634	55.6641	85.8885	55.6641	85.9867	55.6641	85.8879	55.6641	86.0124	55.6641	85.8908	55.6641	86.0392	55.6641	85.8967	55.6641	86.0653	55.6641	85.9045	55.6641	86.0883	55.6641	85.9128	55.6641	86.1055	55.6641	85.9197	55.6641	86.1144	55.6641	85.9239	55.6641	86.1132	55.6641	85.9246	55.6641	86.1018	55.6641	85.9224	55.6641	86.0815	55.6641	85.9189	55.6641	86.0552	55.6641	85.9165	55.6641	86.0263	55.6641	85.9175	55.6641	85.9979	55.6641	85.9233	55.6641	85.9724	55.6641	85.9346	55.6641	85.9511
58.5938	86.6561	58.5938	86.6584	58.5938	86.6552	58.5938	86.6626	58.5938	86.6557	58.5938	86.6691	58.5938	86.6576	58.5938	86.6783	58.5938	86.6608	58.5938	86.6902	58.5938	86.6653	58.5938	86.7042	58.5938	86.6703	58.5938	86.7191	58.5938	86.6747	58.5938	86.7327	58.5938	86.6766	58.5938	86.7425	58.5938	86.6741	58.5938	86.7461	58.5938	86.6654	58.5938	86.742	58.5938	86.6501	58.5938	86.7296	58.5938	86.6292	58.5938	86.7102	58.5938	86.606	58.5938	86.6858	58.5938	86.5848	58.5938	86.6591	58.5938	86.5703	58.5938	86.6322	58.5938	86.5656	58.5938	86.6071	58.5938	86.5712	58.5938	86.5859
60.0586	86.9056	60.0586	86.9083	60.0586	86.9049	60.0586	86.9132	60.0586	86.906	60.0586	86.9206	60.0586	86.909	60.0586	86.9309	60.0586	86.9142	60.0586	86.944	60.0586	86.9215	60.0586	86.9593	60.0586	86.9303	60.0586	86.9755	60.0586	86.9395	60.0586	86.9905	60.0586	86.9473	60.0586	87.0016	60.0586	86.9512	60.0586	87.0064	60.0586	86.9494	60.0586	87.0031	60.0586	86.9405	60.0586	86.9914	60.0586	86.925	60.0586	86.9725	60.0586	86.9053	60.0586	86.949	60.0586	86.8852	60.0586	86.924	60.0586	86.8689	60.0586	86.9006	60.0586	86.8596	60.0586	86.8808	60.0586	86.8588	60.0586	86.8663
62.9883	87.4718	62.9883	87.4741	62.9883	87.4686	62.9883	87.4757	62.9883	87.4648	62.9883	87.4772	62.9883	87.461	62.9883	87.4791	62.9883	87.4579	62.9883	87.482	62.9883	87.4562	62.9883	87.4857	62.9883	87.4557	62.9883	87.4892	62.9883	87.4557	62.9883	87.4906	62.9883	87.4542	62.9883	87.4875	62.9883	87.4488	62.9883	87.4771	62.9883	87.4368	62.9883	87.4575	62.9883	87.4164	62.9883	87.4286	62.9883	87.3872	62.9883	87.3919	62.9883	87.3515	62.9883	87.3512	62.9883	87.3136	62.9883	87.3112	62.9883	87.279	62.9883	87.2766	62.9883	87.2527	62.9883	87.2514	62.9883	87.2386	62.9883	87.2382
64.4531	87.7001	64.4531	87.7014	64.4531	87.6972	64.4531	87.7015	64.4531	87.6929	64.4531	87.7009	64.4531	87.6881	64.4531	87.7005	64.4531	87.6836	64.4531	87.7011	64.4531	87.6801	64.4531	87.7026	64.4531	87.6779	64.4531	87.7044	64.4531	87.6761	64.4531	87.7045	64.4531	87.673	64.4531	87.7003	64.4531	87.6659	64.4531	87.6892	64.4531	87.6521	64.4531	87.6691	64.4531	87.6297	64.4531	87.6393	64.4531	87.5983	64.4531	87.6015	64.4531	87.5601	64.4531	87.5594	64.4531	87.5198	64.4531	87.5178	64.4531	87.483	64.4531	87.4815	64.4531	87.4554	64.4531	87.4548	64.4531	87.4407	64.4531	87.4406
67.3828	88.1869	67.3828	88.1845	67.3828	88.1852	67.3828	88.1784	67.3828	88.1797	67.3828	88.1695	67.3828	88.1714	67.3828	88.1591	67.3828	88.1616	67.3828	88.1487	67.3828	88.1514	67.3828	88.1389	67.3828	88.1416	67.3828	88.1295	67.3828	88.1317	67.3828	88.1192	67.3828	88.1203	67.3828	88.1057	67.3828	88.1048	67.3828	88.0862	67.3828	88.0823	67.3828	88.0586	67.3828	88.0507	67.3828	88.0221	67.3828	88.0095	67.3828	87.9782	67.3828	87.9612	67.3828	87.9306	67.3828	87.9105	67.3828	87.8845	67.3828	87.8641	67.3828	87.8452	67.3828	87.8283	67.3828	87.8172	67.3828	87.8076	67.3828	87.804
68.8477	88.4271	68.8477	88.4229	68.8477	88.4257	68.8477	88.4136	68.8477	88.4191	68.8477	88.4003	68.8477	88.4083	68.8477	88.3846	68.8477	88.3949	68.8477	88.3682	68.8477	88.3804	68.8477	88.3521	68.8477	88.3658	68.8477	88.3365	68.8477	88.3508	68.8477	88.3201	68.8477	88.3342	68.8477	88.3009	68.8477	88.3136	68.8477	88.2762	68.8477	88.2859	68.8477	88.2438	68.8477	88.2491	68.8477	88.203	68.8477	88.2026	68.8477	88.1553	68.8477	88.1488	68.8477	88.1044	68.8477	88.0928	68.8477	88.0556	68.8477	88.0415	68.8477	88.0144	68.8477	88.0015	68.8477	87.9856	68.8477	87.9779	68.8477	87.9727
71.7773	88.8593	71.7773	88.8568	71.7773	88.8533	71.7773	88.8461	71.7773	88.8392	71.7773	88.8287	71.7773	88.8187	71.7773	88.8063	71.7773	88.7937	71.7773	88.7811	71.7773	88.7663	71.7773	88.7544	71.7773	88.7378	71.7773	88.7269	71.7773	88.7086	71.7773	88.6977	71.7773	88.6775	71.7773	88.665	71.7773	88.6423	71.7773	88.6262	71.7773	88.5997	71.7773	88.5791	71.7773	88.5476	71.7773	88.5228	71.7773	88.4856	71.7773	88.459	71.7773	88.4164	71.7773	88.3915	71.7773	88.3461	71.7773	88.3264	71.7773	88.2831	71.7773	88.27	71.7773	88.2355	71.7773	88.2286	71.7773	88.2093	71.7773	88.2073
74.707	89.2482	74.707	89.2467	74.707	89.2387	74.707	89.2344	74.707	89.219	74.707	89.213	74.707	89.1908	74.707	89.1849	74.707	89.1567	74.707	89.1525	74.707	89.1196	74.707	89.1179	74.707	89.0814	74.707	89.0821	74.707	89.0432	74.707	89.0448	74.707	89.0041	74.707	89.0041	74.707	88.962	74.707	88.9574	74.707	88.9137	74.707	88.9024	74.707	88.8566	74.707	88.8381	74.707	88.7899	74.707	88.7662	74.707	88.7163	74.707	88.6909	74.707	88.6415	74.707	88.6188	74.707	88.5739	74.707	88.557	74.707	88.5223	74.707	88.5123	74.707	88.4933	74.707	88.49
77.6367	89.5666	77.6367	89.5641	77.6367	89.5558	77.6367	89.5487	77.6367	89.5325	77.6367	89.5224	77.6367	89.499	77.6367	89.488	77.6367	89.4585	77.6367	89.4487	77.6367	89.4142	77.6367	89.4071	77.6367	89.369	77.6367	89.3649	77.6367	89.3244	77.6367	89.3221	77.6367	89.2802	77.6367	89.277	77.6367	89.2344	77.6367	89.2272	77.6367	89.1838	77.6367	89.1702	77.6367	89.1257	77.6367	89.1048	77.6367	89.0589	77.6367	89.0324	77.6367	88.9854	77.6367	88.9571	77.6367	88.9108	77.6367	88.8853	77.6367	88.8433	77.6367	88.824	77.6367	88.7915	77.6367	88.7799	77.6367	88.762	77.6367	88.7582
79.1016	89.694	79.1016	89.691	79.1016	89.6826	79.1016	89.6741	79.1016	89.6576	79.1016	89.6453	79.1016	89.6215	79.1016	89.6078	79.1016	89.5777	79.1016	89.5651	79.1016	89.5297	79.1016	89.5201	79.1016	89.481	79.1016	89.4749	79.1016	89.4331	79.1016	89.4297	79.1016	89.3862	79.1016	89.383	79.1016	89.3384	79.1016	89.3321	79.1016	89.2866	79.1016	89.2746	79.1016	89.2276	79.1016	89.2091	79.1016	89.1604	79.1016	89.1369	79.1016	89.0868	79.1016	89.0618	79.1016	89.0123	79.1016	88.9899	79.1016	88.9449	79.1016	88.9282	79.1016	88.8934	79.1016	88.8836	79.1016	88.8644	79.1016	88.8612
82.0312	89.9103	82.0312	89.9051	82.0312	89.8979	82.0312	89.8831	82.0312	89.8689	82.0312	89.8471	82.0312	89.826	82.0312	89.8009	82.0312	89.7732	82.0312	89.749	82.0312	89.7152	82.0312	89.6954	82.0312	89.6561	82.0312	89.6428	82.0312	89.5987	82.0312	89.5921	82.0312	89.5438	82.0312	89.5421	82.0312	89.49	82.0312	89.49	82.0312	89.4347	82.0312	89.4329	82.0312	89.3745	82.0312	89.3689	82.0312	89.3082	82.0312	89.2986	82.0312	89.2369	82.0312	89.2253	82.0312	89.1658	82.0312	89.1548	82.0312	89.1021	82.0312	89.094	82.0312	89.0539	82.0312	89.0493	82.0312	89.0276	82.0312	89.0261
84.9609	89.9968	84.9609	89.9901	84.9609	89.9834	84.9609	89.9643	84.9609	89.9511	84.9609	89.9224	84.9609	89.9029	84.9609	89.8689	84.9609	89.8437	84.9609	89.809	84.9609	89.7789	84.9609	89.7477	84.9609	89.7134	84.9609	89.6887	84.9609	89.6511	84.9609	89.6338	84.9609	89.5937	84.9609	89.5826	84.9609	89.5403	84.9609	89.5328	84.9609	89.4883	84.9609	89.4813	84.9609	89.4347	84.9609	89.4261	84.9609	89.3774	84.9609	89.3667	84.9609	89.317	84.9609	89.3055	84.9609	89.2571	84.9609	89.247	84.9609	89.2039	84.9609	89.1968	84.9609	89.1639	84.9609	89.16	84.9609	89.1421	84.9609	89.1409
87.8906	90.2268	87.8906	90.2191	87.8906	90.2088	87.8906	90.1864	87.8906	90.1664	87.8906	90.1319	87.8906	90.1035	87.8906	90.0604	87.8906	90.0255	87.8906	89.9777	87.8906	89.9386	87.8906	89.8897	87.8906	89.8492	87.8906	89.8014	87.8906	89.7622	87.8906	89.7158	87.8906	89.6803	87.8906	89.6337	87.8906	89.6038	87.8906	89.5545	87.8906	89.5308	87.8906	89.4764	87.8906	89.4585	87.8906	89.3985	87.8906	89.3848	87.8906	89.3216	87.8906	89.3102	87.8906	89.2484	87.8906	89.238	87.8906	89.1835	87.8906	89.1737	87.8906	89.1317	87.8906	89.1236	87.8906	89.0975	87.8906	89.0928	87.8906	89.084
90.8203	90.3126	90.8203	90.2999	90.8203	90.2962	90.8203	90.2595	90.8203	90.2519	90.8203	90.1953	90.8203	90.1836	90.8203	90.1132	90.8203	90.0973	90.8203	90.0201	90.8203	90	90.8203	89.9229	90.8203	89.8989	90.8203	89.8273	90.8203	89.8001	90.8203	89.7369	90.8203	89.7075	90.8203	89.6529	90.8203	89.6221	90.8203	89.5743	90.8203	89.5428	90.8203	89.499	90.8203	89.4675	90.8203	89.4255	90.8203	89.3943	90.8203	89.3538	90.8203	89.3233	90.8203	89.2858	90.8203	89.2572	90.8203	89.2254	90.8203	89.2006	90.8203	89.1768	90.8203	89.1581	90.8203	89.1436	90.8203	89.1336	90.8203	89.1287
95.2148	90.3998	95.2148	90.389	95.2148	90.3754	95.2148	90.3444	95.2148	90.318	95.2148	90.2698	95.2148	90.2323	95.2148	90.1718	95.2148	90.1256	95.2148	90.0582	95.2148	90.0063	95.2148	89.9372	95.2148	89.883	95.2148	89.8161	95.2148	89.7629	95.2148	89.6998	95.2148	89.6505	95.2148	89.5909	95.2148	89.5474	95.2148	89.4893	95.2148	89.4524	95.2148	89.3933	95.2148	89.3628	95.2148	89.3018	95.2148	89.2766	95.2148	89.2149	95.2148	89.1938	95.2148	89.1348	95.2148	89.1168	95.2148	89.0652	95.2148	89.0505	95.2148	89.0106	95.2148	88.9998	95.2148	88.9749	95.2148	88.9691	95.2148	88.9606
98.1445	90.3256	98.1445	90.3151	98.1445	90.2976	98.1445	90.2672	98.1445	90.2336	98.1445	90.1862	98.1445	90.1391	98.1445	90.0792	98.1445	90.0225	98.1445	89.9552	98.1445	89.8932	98.1445	89.8234	98.1445	89.7612	98.1445	89.6924	98.1445	89.6346	98.1445	89.5681	98.1445	89.5188	98.1445	89.4536	98.1445	89.4157	98.1445	89.3489	98.1445	89.3238	98.1445	89.2525	98.1445	89.2399	98.1445	89.1628	98.1445	89.1608	98.1445	89.0796	98.1445	89.0853	98.1445	89.0048	98.1445	89.0147	98.1445	88.9418	98.1445	88.9526	98.1445	88.8945	98.1445	88.9034	98.1445	88.8661	98.1445	88.8711	98.1445	88.8583
101.074	90.1732	101.074	90.1565	101.074	90.1456	101.074	90.0971	101.074	90.0761	101.074	90.0004	101.074	89.9706	101.074	89.8749	101.074	89.8383	101.074	89.7313	101.074	89.6902	101.074	89.5809	101.074	89.5383	101.074	89.4342	101.074	89.3931	101.074	89.299	101.074	89.2622	101.074	89.1792	101.074	89.1495	101.074	89.0756	101.074	89.0548	101.074	88.986	101.074	88.9751	101.074	88.9077	101.074	88.9064	101.074	88.8388	101.074	88.8456	101.074	88.7793	101.074	88.7916	101.074	88.7309	101.074	88.7451	101.074	88.6958	101.074	88.7081	101.074	88.6759	101.074	88.683	101.074	88.6718
105.469	90.3156	105.469	90.2954	105.469	90.2822	105.469	90.2234	105.469	90.1973	105.469	90.1051	105.469	90.0671	105.469	89.9496	105.469	89.9008	105.469	89.7684	105.469	89.7101	105.469	89.574	105.469	89.5075	105.469	89.3785	105.469	89.3051	105.469	89.1919	105.469	89.1128	105.469	89.0206	105.469	88.9374	105.469	88.8672	105.469	88.7819	105.469	88.7315	105.469	88.6467	105.469	88.6116	105.469	88.5307	105.469	88.506	105.469	88.4329	105.469	88.4146	105.469	88.353	105.469	88.3387	105.469	88.2915	105.469	88.2805	105.469	88.249	105.469	88.2419	105.469	88.2263	105.469	88.2238
108.398	90.5562	108.398	90.537	108.398	90.5198	108.398	90.464	108.398	90.4301	108.398	90.3426	108.398	90.2933	108.398	90.1821	108.398	90.1187	108.398	89.994	108.398	89.9183	108.398	89.7912	108.398	89.7049	108.398	89.5864	108.398	89.4909	108.398	89.3906	108.398	89.2866	108.398	89.2113	108.398	89.0991	108.398	89.0528	108.398	88.9324	108.398	88.9156	108.398	88.7876	108.398	88.7984	108.398	88.6651	108.398	88.6987	108.398	88.5652	108.398	88.6144	108.398	88.4886	108.398	88.5438	108.398	88.4361	108.398	88.4864	108.398	88.4072	108.398	88.4424	108.398	88.4004	108.398	88.413
112.793	90.6149	112.793	90.5988	112.793	90.5706	112.793	90.5235	112.793	90.4691	112.793	90.3946	112.793	90.318	112.793	90.2213	112.793	90.1283	112.793	90.0159	112.793	89.9139	112.793	89.7923	112.793	89.6898	112.793	89.5643	112.793	89.4705	112.793	89.3445	112.793	89.2676	112.793	89.1429	112.793	89.0889	112.793	88.966	112.793	88.9377	112.793	88.8176	112.793	88.8134	112.793	88.6989	112.793	88.7135	112.793	88.609	112.793	88.6348	112.793	88.5454	112.793	88.5746	112.793	88.5044	112.793	88.5304	112.793	88.4813	112.793	88.5002	112.793	88.4716	112.793	88.4813	112.793	88.472
117.188	90.5844	117.188	90.5619	117.188	90.5408	117.188	90.4754	117.188	90.4342	117.188	90.3314	117.188	90.272	117.188	90.1405	117.188	90.0661	117.188	89.9164	117.188	89.8314	117.188	89.6742	117.188	89.5843	117.188	89.4292	117.188	89.341	117.188	89.1944	117.188	89.1152	117.188	88.9801	117.188	88.9162	117.188	88.7931	117.188	88.749	117.188	88.6367	117.188	88.6141	117.188	88.5123	117.188	88.5094	117.188	88.4191	117.188	88.4312	117.188	88.3548	117.188	88.3757	117.188	88.3155	117.188	88.3383	117.188	88.2955	117.188	88.3144	117.188	88.2891	117.188	88.2997	117.188	88.2913
120.117	90.6131	120.117	90.5923	120.117	90.5623	120.117	90.502	120.117	90.4429	120.117	90.3489	120.117	90.2622	120.117	90.144	120.117	90.032	120.117	89.9013	120.117	89.7676	120.117	89.6367	120.117	89.4859	120.117	89.3662	120.117	89.2041	120.117	89.1044	120.117	88.9379	120.117	88.8631	120.117	88.6993	120.117	88.6506	120.117	88.4961	120.117	88.4722	120.117	88.3322	120.117	88.33	120.117	88.2079	120.117	88.2237	120.117	88.1211	120.117	88.15	120.117	88.0676	120.117	88.1029	120.117	88.041	120.117	88.0747	120.117	88.0335	120.117	88.0576	120.117	88.037	120.117	88.0458
124.512	90.874	124.512	90.8479	124.512	90.8298	124.512	90.7538	124.512	90.7179	124.512	90.599	124.512	90.546	124.512	90.3951	124.512	90.3258	124.512	90.1569	124.512	90.0724	124.512	89.9006	124.512	89.802	124.512	89.6417	124.512	89.5306	124.512	89.3934	124.512	89.2716	124.512	89.1655	124.512	89.0348	124.512	88.9637	124.512	88.8257	124.512	88.7911	124.512	88.6475	124.512	88.6485	124.512	88.5016	124.512	88.5355	124.512	88.3895	124.512	88.4497	124.512	88.312	124.512	88.3867	124.512	88.2677	124.512	88.3404	124.512	88.2521	124.512	88.305	124.512	88.2578	124.512	88.2772
128.906	90.6661	128.906	90.6318	128.906	90.6247	128.906	90.5243	128.906	90.5107	128.906	90.3524	128.906	90.3334	128.906	90.1297	128.906	90.107	128.906	89.8733	128.906	89.8495	128.906	89.6024	128.906	89.5807	128.906	89.3352	128.906	89.3189	128.906	89.0871	128.906	89.0792	128.906	88.8694	128.906	88.8708	128.906	88.6888	128.906	88.6975	128.906	88.5479	128.906	88.5588	128.906	88.4464	128.906	88.4524	128.906	88.3811	128.906	88.3761	128.906	88.3459	128.906	88.3279	128.906	88.3315	128.906	88.3047	128.906	88.3275	128.906	88.3008	128.906	88.3247	128.906	88.3081	128.906	88.318
133.301	90.3472	133.301	90.303	133.301	90.3121	133.301	90.1825	133.301	90.2012	133.301	89.9957	133.301	90.0248	133.301	89.7583	133.301	89.799	133.301	89.4902	133.301	89.5441	133.301	89.2133	133.301	89.2821	133.301	88.9486	133.301	89.0338	133.301	88.7132	133.301	88.8151	133.301	88.5181	133.301	88.635	133.301	88.3681	133.301	88.495	133.301	88.2629	133.301	88.3916	133.301	88.1987	133.301	88.3185	133.301	88.1695	133.301	88.2701	133.301	88.1672	133.301	88.242	133.301	88.1819	133.301	88.2301	133.301	88.203	133.301	88.229	133.301	88.221	133.301	88.2316	133.301	88.2306
139.16	90.0418	139.16	89.9958	139.16	89.998	139.16	89.8624	139.16	89.8693	139.16	89.6515	139.16	89.6678	139.16	89.3795	139.16	89.4122	139.16	89.0688	139.16	89.126	139.16	88.7453	139.16	88.8356	139.16	88.4361	139.16	88.5663	139.16	88.1655	139.16	88.3387	139.16	87.9524	139.16	88.1653	139.16	87.8074	139.16	88.0494	139.16	87.7318	139.16	87.9862	139.16	87.7188	139.16	87.9657	139.16	87.7551	139.16	87.9759	139.16	87.8234	139.16	88.0048	139.16	87.9051	139.16	88.0404	139.16	87.9831	139.16	88.0714	139.16	88.0437	139.16	88.0869	139.16	88.079
143.555	89.9263	143.555	89.885	143.555	89.8694	143.555	89.7474	143.555	89.7199	143.555	89.5231	143.555	89.4912	143.555	89.2284	143.555	89.2036	143.555	88.8858	143.555	88.8829	143.555	88.5221	143.555	88.5583	143.555	88.1661	143.555	88.2578	143.555	87.8459	143.555	88.0046	143.555	87.5859	143.555	87.813	143.555	87.404	143.555	87.6873	143.555	87.3087	143.555	87.6231	143.555	87.2973	143.555	87.6101	143.555	87.3557	143.555	87.6359	143.555	87.4605	143.555	87.6865	143.555	87.5839	143.555	87.7471	143.555	87.6989	143.555	87.8015	143.555	87.7849	143.555	87.8336	143.555	87.8304
147.949	89.8439	147.949	89.8063	147.949	89.7754	147.949	89.6646	147.949	89.6067	147.949	89.4286	147.949	89.3518	147.949	89.1148	147.949	89.0319	147.949	88.7459	147.949	88.6745	147.949	88.3483	147.949	88.3105	147.949	87.9504	147.949	87.9702	147.949	87.5799	147.949	87.6788	147.949	87.262	147.949	87.4526	147.949	87.0175	147.949	87.2974	147.949	86.861	147.949	87.21	147.949	86.7983	147.949	87.1815	147.949	86.8232	147.949	87.1995	147.949	86.9166	147.949	87.2489	147.949	87.0488	147.949	87.3113	147.949	87.1865	147.949	87.3653	147.949	87.3003	147.949	87.3903	147.949	87.3705
153.809	89.7042	153.809	89.6731	153.809	89.6155	153.809	89.5249	153.809	89.4128	153.809	89.2704	153.809	89.1108	153.809	88.9278	153.809	88.7334	153.809	88.5214	153.809	88.3123	153.809	88.0799	153.809	87.8848	153.809	87.6343	153.809	87.4886	153.809	87.2157	153.809	87.1556	153.809	86.8529	153.809	86.9055	153.809	86.5707	153.809	86.7433	153.809	86.3877	153.809	86.6612	153.809	86.312	153.809	86.6449	153.809	86.337	153.809	86.6779	153.809	86.4399	153.809	86.7436	153.809	86.5857	153.809	86.823	153.809	86.7353	153.809	86.8942	153.809	86.855	153.809	86.9338	153.809	86.9234
159.668	89.853	159.668	89.8267	159.668	89.7576	159.668	89.682	159.668	89.546	159.668	89.4302	159.668	89.2324	159.668	89.0895	159.668	88.8403	159.668	88.684	159.668	88.4019	159.668	88.2414	159.668	87.9557	159.668	87.7904	159.668	87.5424	159.668	87.3586	159.668	87.1973	159.668	86.9706	159.668	86.9426	159.668	86.6486	159.668	86.7826	159.668	86.4122	159.668	86.7051	159.668	86.2761	159.668	86.6882	159.668	86.2448	159.668	86.7096	159.668	86.3061	159.668	86.7512	159.668	86.4302	159.668	86.7973	159.668	86.5773	159.668	86.8322	159.668	86.7089	159.668	86.8379	159.668	86.7988
165.527	89.8404	165.527	89.8284	165.527	89.7241	165.527	89.6926	165.527	89.4844	165.527	89.446	165.527	89.1355	165.527	89.1097	165.527	88.7013	165.527	88.7108	165.527	88.2152	165.527	88.2802	165.527	87.7182	165.527	87.8489	165.527	87.2559	165.527	87.4448	165.527	86.8714	165.527	87.0904	165.527	86.5966	165.527	86.8026	165.527	86.4439	165.527	86.5937	165.527	86.4036	165.527	86.472	165.527	86.4488	165.527	86.4388	165.527	86.5455	165.527	86.4843	165.527	86.6617	165.527	86.5849	165.527	86.7715	165.527	86.7068	165.527	86.8547	165.527	86.8148	165.527	86.895	165.527	86.8819
171.387	89.5608	171.387	89.5271	171.387	89.4576	171.387	89.3618	171.387	89.2219	171.387	89.0802	171.387	88.8682	171.387	88.7064	171.387	88.4208	171.387	88.2724	171.387	87.9137	171.387	87.815	171.387	87.3891	171.387	87.3722	171.387	86.8936	171.387	86.9785	171.387	86.4735	171.387	86.6611	171.387	86.1663	171.387	86.4372	171.387	85.993	171.387	86.313	171.387	85.9531	171.387	86.2844	171.387	86.0254	171.387	86.337	171.387	86.1752	171.387	86.4474	171.387	86.3629	171.387	86.5849	171.387	86.551	171.387	86.7162	171.387	86.7082	171.387	86.8107	171.387	86.8111	171.387	86.8459
177.246	89.3272	177.246	89.2692	177.246	89.2327	177.246	89.0648	177.246	88.9897	177.246	88.7312	177.246	88.6137	177.246	88.2951	177.246	88.131	177.246	87.7923	177.246	87.58	177.246	87.2649	177.246	87.0094	177.246	86.7571	177.246	86.4762	177.246	86.3112	177.246	86.0378	177.246	85.9629	177.246	85.7408	177.246	85.7381	177.246	85.6078	177.246	85.6508	177.246	85.6305	177.246	85.699	177.246	85.7752	177.246	85.8622	177.246	85.9958	177.246	86.1015	177.246	86.2463	177.246	86.3656	177.246	86.4868	177.246	86.6021	177.246	86.6834	177.246	86.7687	177.246	86.8081	177.246	86.8397
183.105	89.0633	183.105	89.0004	183.105	88.9614	183.105	88.7787	183.105	88.6994	183.105	88.4156	183.105	88.2933	183.105	87.9386	183.105	87.7699	183.105	87.385	183.105	87.167	183.105	86.7989	183.105	86.5329	183.105	86.228	183.105	85.9258	183.105	85.7191	183.105	85.4095	183.105	85.3135	183.105	85.0447	183.105	85.0432	183.105	84.8735	183.105	84.9274	183.105	84.9031	183.105	84.9684	183.105	85.0999	183.105	85.1482	183.105	85.4014	183.105	85.4276	183.105	85.7377	183.105	85.751	183.105	86.0471	183.105	86.0571	183.105	86.2827	183.105	86.2912	183.105	86.4116	183.105	86.4152
188.965	89.0062	188.965	88.9538	188.965	88.8822	188.965	88.7325	188.965	88.5849	188.965	88.36	188.965	88.1287	188.965	87.8635	188.965	87.5394	188.965	87.2784	188.965	86.8552	188.965	86.646	188.965	86.1272	188.965	86.0113	188.965	85.4188	188.965	85.4205	188.965	84.8035	188.965	84.9204	188.965	84.3564	188.965	84.5567	188.965	84.137	188.965	84.3685	188.965	84.1654	188.965	84.3757	188.965	84.4092	188.965	84.566	188.965	84.7934	188.965	84.8919	188.965	85.2271	188.965	85.281	188.965	85.6276	188.965	85.6549	188.965	85.9313	188.965	85.9443	188.965	86.0958	188.965	86.0997
196.289	89.5719	196.289	89.4913	196.289	89.4722	196.289	89.2409	196.289	89.1927	196.289	88.8413	196.289	88.7442	196.289	88.3225	196.289	88.1475	196.289	87.721	196.289	87.4329	196.289	87.0763	196.289	86.6403	196.289	86.4257	196.289	85.8204	196.289	85.8022	196.289	85.0377	196.289	85.2347	196.289	84.3717	196.289	84.7534	196.289	83.9096	196.289	84.394	196.289	83.7186	196.289	84.1956	196.289	83.8076	196.289	84.1847	196.289	84.113	196.289	84.3542	196.289	84.5277	196.289	84.6526	196.289	84.9427	196.289	84.9948	196.289	85.2701	196.289	85.2874	196.289	85.45	196.289	85.4537
203.613	89.3446	203.613	89.2155	203.613	89.2762	203.613	88.899	203.613	89.013	203.613	88.418	203.613	88.5696	203.613	87.8076	203.613	87.9722	203.613	87.1133	203.613	87.2571	203.613	86.3868	203.613	86.4696	203.613	85.6805	203.613	85.6618	203.613	85.0421	203.613	84.8916	203.613	84.512	203.613	84.2212	203.613	84.1226	203.613	83.7133	203.613	83.8952	203.613	83.4191	203.613	83.8331	203.613	83.3571	203.613	83.9129	203.613	83.4991	203.613	84.0891	203.613	83.7769	203.613	84.3069	203.613	84.1054	203.613	84.5122	203.613	84.4043	203.613	84.6561	203.613	84.6128	203.613	84.6975
210.938	89.3009	210.938	89.1821	210.938	89.2105	210.938	88.8662	210.938	88.9106	210.938	88.377	210.938	88.412	210.938	87.7495	210.938	87.7372	210.938	87.0276	210.938	86.9202	210.938	86.2596	210.938	86.0088	210.938	85.491	210.938	85.0662	210.938	84.7602	210.938	84.1767	210.938	84.1001	210.938	83.4449	210.938	83.5506	210.938	82.9768	210.938	83.1715	210.938	82.8301	210.938	83.0304	210.938	82.9716	210.938	83.1544	210.938	83.2964	210.938	83.4858	210.938	83.6898	210.938	83.9032	210.938	84.0683	210.938	84.2833	210.938	84.3785	210.938	84.5426	210.938	84.581	210.938	84.6426
218.262	89.0588	218.262	88.92	218.262	88.9962	218.262	88.5914	218.262	88.7325	218.262	88.0968	218.262	88.2784	218.262	87.4731	218.262	87.6544	218.262	86.7681	218.262	86.8889	218.262	86.0359	218.262	86.0175	218.262	85.3278	218.262	85.0826	218.262	84.6823	218.262	84.139	218.262	84.1194	218.262	83.2664	218.262	83.6475	218.262	82.5826	218.262	83.2829	218.262	82.2232	218.262	83.0658	218.262	82.261	218.262	83.0507	218.262	82.6306	218.262	83.2575	218.262	83.1684	218.262	83.6261	218.262	83.713	218.262	84.0329	218.262	84.1541	218.262	84.3507	218.262	84.4261	218.262	84.4936
225.586	88.9078	225.586	88.7412	225.586	88.8614	225.586	88.3696	225.586	88.606	225.586	87.8153	225.586	88.1567	225.586	87.1164	225.586	87.5373	225.586	86.3272	225.586	86.7795	225.586	85.5146	225.586	85.9213	225.586	84.7502	225.586	85.0084	225.586	84.0962	225.586	84.1002	225.586	83.593	225.586	83.2853	225.586	83.255	225.586	82.6945	225.586	83.0806	225.586	82.4679	225.586	83.0677	225.586	82.6524	225.586	83.219	225.586	83.1362	225.586	83.5241	225.586	83.7266	225.586	83.9347	225.586	84.2653	225.586	84.3621	225.586	84.6631	225.586	84.7061	225.586	84.8775	225.586	84.8904
232.91	88.9862	232.91	88.8339	232.91	88.9145	232.91	88.4643	232.91	88.6251	232.91	87.8979	232.91	88.1358	232.91	87.1702	232.91	87.4743	232.91	86.331	232.91	86.675	232.91	85.4421	232.91	85.7751	232.91	84.5701	232.91	84.8109	232.91	83.7762	232.91	83.8201	232.91	83.1084	232.91	82.8603	232.91	82.6022	232.91	82.05	232.91	82.2901	232.91	81.5904	232.91	82.2091	232.91	81.661	232.91	82.3832	232.91	82.2173	232.91	82.7882	232.91	82.9973	232.91	83.3335	232.91	83.7359	232.91	83.8895	232.91	84.2785	232.91	84.3329	232.91	84.5622	232.91	84.5741
241.699	88.9808	241.699	88.8451	241.699	88.8831	241.699	88.4811	241.699	88.5601	241.699	87.9076	241.699	88.0326	241.699	87.1568	241.699	87.3332	241.699	86.2747	241.699	86.5026	241.699	85.3192	241.699	85.5826	241.699	84.3569	241.699	84.6073	241.699	83.4564	241.699	83.5973	241.699	82.6819	241.699	82.5699	241.699	82.0879	241.699	81.583	241.699	81.7154	241.699	80.8085	241.699	81.5871	241.699	80.5331	241.699	81.7002	241.699	80.9089	241.699	82.0216	241.699	81.7146	241.699	82.4828	241.699	82.5724	241.699	82.9821	241.699	83.2294	241.699	83.4005	241.699	83.5847	241.699	83.628
250.488	88.9803	250.488	88.8333	250.488	88.8891	250.488	88.4562	250.488	88.5654	250.488	87.8718	250.488	88.0281	250.488	87.1182	250.488	87.3095	250.488	86.2495	250.488	86.4538	250.488	85.3329	250.488	85.5142	250.488	84.4416	250.488	84.5463	250.488	83.6422	250.488	83.6019	250.488	82.9814	250.488	82.7277	250.488	82.4821	250.488	81.9774	250.488	82.1544	250.488	81.4307	250.488	82.0128	250.488	81.1892	250.488	82.0764	250.488	81.3181	250.488	82.337	250.488	81.7662	250.488	82.7272	250.488	82.3703	250.488	83.1293	250.488	82.9425	250.488	83.4197	250.488	83.3445	250.488	83.5064
259.277	89.0886	259.277	88.9462	259.277	88.9983	259.277	88.5688	259.277	88.6895	259.277	87.9669	259.277	88.1859	259.277	87.1663	259.277	87.5179	259.277	86.2097	259.277	86.7179	259.277	85.1589	259.277	85.8152	259.277	84.0956	259.277	84.8296	259.277	83.1173	259.277	83.7711	259.277	82.3232	259.277	82.6565	259.277	81.7886	259.277	81.5591	259.277	81.5398	259.277	80.6869	259.277	81.5544	259.277	80.3685	259.277	81.791	259.277	80.7613	259.277	82.2058	259.277	81.6181	259.277	82.7344	259.277	82.5488	259.277	83.2706	259.277	83.2959	259.277	83.6857	259.277	83.7455	259.277	83.8676
268.066	88.5279	268.066	88.4289	268.066	88.373	268.066	88.0756	268.066	87.9862	268.066	87.4882	268.066	87.4096	268.066	86.7048	268.066	86.7	268.066	85.7785	268.066	85.9179	268.066	84.7734	268.066	85.1115	268.066	83.7617	268.066	84.3057	268.066	82.8229	268.066	83.4999	268.066	82.0446	268.066	82.6814	268.066	81.5164	268.066	81.8579	268.066	81.3028	268.066	81.1137	268.066	81.4017	268.066	80.6495	268.066	81.7393	268.066	80.6874	268.066	82.2136	268.066	81.2302	268.066	82.7281	268.066	82.0217	268.066	83.1871	268.066	82.7739	268.066	83.4896	268.066	83.3074	268.066	83.5469
276.855	88.1718	276.855	88.0412	276.855	88.0163	276.855	87.6344	276.855	87.5901	276.855	86.9846	276.855	86.9337	276.855	86.145	276.855	86.1104	276.855	85.183	276.855	85.1966	276.855	84.1692	276.855	84.2647	276.855	83.1681	276.855	83.3646	276.855	82.2361	276.855	82.5133	276.855	81.4352	276.855	81.7039	276.855	80.8594	276.855	80.9408	276.855	80.6351	276.855	80.3084	276.855	80.8419	276.855	80.0295	276.855	81.4128	276.855	80.3455	276.855	82.1677	276.855	81.2104	276.855	82.9296	276.855	82.2796	276.855	83.5686	276.855	83.2177	276.855	83.9845	276.855	83.843	276.855	84.0946
287.109	88.1206	287.109	87.9866	287.109	87.9104	287.109	87.5151	287.109	87.3799	287.109	86.7409	287.109	86.5878	287.109	85.7288	287.109	85.6291	287.109	84.5745	287.109	84.6212	287.109	83.3975	287.109	83.6682	287.109	82.3195	287.109	82.8193	287.109	81.4324	287.109	82.0548	287.109	80.7817	287.109	81.3111	287.109	80.3862	287.109	80.5327	287.109	80.2798	287.109	79.7624	287.109	80.5154	287.109	79.2522	287.109	81.0947	287.109	79.3957	287.109	81.9039	287.109	80.2829	287.109	82.7534	287.109	81.5255	287.109	83.459	287.109	82.6848	287.109	83.8783	287.109	83.513	287.109	83.9134
297.363	88.218	297.363	88.0507	297.363	87.9944	297.363	87.5039	297.363	87.393	297.363	86.6117	297.363	86.4602	297.363	85.4335	297.363	85.29	297.363	84.06	297.363	84.0368	297.363	82.6179	297.363	82.9004	297.363	81.2648	297.363	82.0523	297.363	80.1624	297.363	81.5397	297.363	79.4305	297.363	81.2696	297.363	79.1172	297.363	81.0879	297.363	79.2174	297.363	80.8811	297.363	79.7098	297.363	80.6685	297.363	80.5449	297.363	80.658	297.363	81.5942	297.363	81.1108	297.363	82.656	297.363	82.0049	297.363	83.5254	297.363	83.0038	297.363	84.0498	297.363	83.7749	297.363	84.1412
307.617	89.097	307.617	88.8943	307.617	88.8919	307.617	88.3007	307.617	88.2779	307.617	87.3471	307.617	87.2769	307.617	86.0795	307.617	85.9461	307.617	84.5652	307.617	84.3959	307.617	82.9005	307.617	82.8038	307.617	81.2133	307.617	81.3952	307.617	79.6496	307.617	80.3601	307.617	78.3389	307.617	79.7518	307.617	77.3747	307.617	79.4802	307.617	76.8605	307.617	79.417	307.617	76.9746	307.617	79.5099	307.617	77.8387	307.617	79.8175	307.617	79.2441	307.617	80.4248	307.617	80.7489	307.617	81.2828	307.617	81.9926	307.617	82.1697	307.617	82.7859	307.617	82.8237	307.617	83.0592
319.336	88.5757	319.336	88.4636	319.336	88.297	319.336	87.9723	319.336	87.6269	319.336	87.1232	319.336	86.5807	319.336	85.9491	319.336	85.201	319.336	84.4978	319.336	83.5742	319.336	82.8388	319.336	81.8488	319.336	81.0747	319.336	80.2359	319.336	79.3532	319.336	78.9686	319.336	77.887	319.336	78.2244	319.336	76.9667	319.336	78.0703	319.336	76.8352	319.336	78.4594	319.336	77.4169	319.336	79.244	319.336	78.3952	319.336	80.2206	319.336	79.5437	319.336	81.2151	319.336	80.7548	319.336	82.1161	319.336	81.8909	319.336	82.8281	319.336	82.765	319.336	83.2354	319.336	83.2299
329.59	88.9158	329.59	88.7744	329.59	88.6211	329.59	88.219	329.59	87.8845	329.59	87.2898	329.59	86.719	329.59	86.0463	329.59	85.1656	329.59	84.5658	329.59	83.3089	329.59	82.9354	329.59	81.2962	329.59	81.2396	329.59	79.3354	329.59	79.5448	329.59	77.644	329.59	77.8973	329.59	76.3728	329.59	76.4084	329.59	75.6482	329.59	75.4853	329.59	75.745	329.59	75.7381	329.59	76.8778	329.59	77.0827	329.59	78.6626	329.59	78.8106	329.59	80.4599	329.59	80.4513	329.59	81.9068	329.59	81.815	329.59	82.8836	329.59	82.7985	329.59	83.3598	329.59	83.3276
341.309	89.1158	341.309	88.9089	341.309	88.8761	341.309	88.2785	341.309	88.1848	341.309	87.266	341.309	87.0593	341.309	85.9337	341.309	85.551	341.309	84.3658	341.309	83.7585	341.309	82.6618	341.309	81.8351	341.309	80.924	341.309	79.9616	341.309	79.238	341.309	78.2635	341.309	77.6467	341.309	76.7082	341.309	76.1884	341.309	75.1282	341.309	75.1248	341.309	73.6413	341.309	75.0871	341.309	73.5318	341.309	76.2827	341.309	75.6678	341.309	78.0544	341.309	78.3777	341.309	79.8124	341.309	80.5614	341.309	81.296	341.309	82.0287	341.309	82.3589	341.309	82.7918	341.309	82.885
353.027	89.1806	353.027	88.9624	353.027	88.9546	353.027	88.3112	353.027	88.2904	353.027	87.2604	353.027	87.2116	353.027	85.8755	353.027	85.7694	353.027	84.2611	353.027	84.0593	353.027	82.5599	353.027	82.2413	353.027	80.9359	353.027	80.5319	353.027	79.5214	353.027	79.1229	353.027	78.3116	353.027	78.0283	353.027	77.0909	353.027	77.0038	353.027	75.5355	353.027	75.6654	353.027	73.5955	353.027	73.8087	353.027	72.6816	353.027	72.4453	353.027	74.753	353.027	74.0599	353.027	77.7393	353.027	77.1669	353.027	80.0044	353.027	79.65	353.027	81.3175	353.027	81.1516	353.027	81.6973
366.211	88.5893	366.211	88.2648	366.211	88.361	366.211	87.4196	366.211	87.5762	366.211	86.1329	366.211	86.2574	366.211	84.5551	366.211	84.4719	366.211	82.9098	366.211	82.3804	366.211	81.4295	366.211	80.3009	366.211	80.2598	366.211	78.6691	366.211	79.4331	366.211	77.7597	366.211	78.8815	366.211	77.4293	366.211	78.4459	366.211	77.2552	366.211	77.9802	366.211	76.8527	366.211	77.4918	366.211	76.1415	366.211	77.1859	366.211	75.6189	366.211	77.3888	366.211	76.1699	366.211	78.2584	366.211	77.7126	366.211	79.4602	366.211	79.3174	366.211	80.428	366.211	80.4089	366.211	80.7881
379.395	88.3457	379.395	87.9403	379.395	88.1602	379.395	86.9279	379.395	87.3999	379.395	85.3008	379.395	86.0802	379.395	83.0849	379.395	84.2257	379.395	80.4074	379.395	81.9055	379.395	77.6549	379.395	79.3194	379.395	75.6039	379.395	76.9361	379.395	74.9327	379.395	75.4714	379.395	75.4641	379.395	75.3187	379.395	76.5583	379.395	76.0591	379.395	77.6678	379.395	76.962	379.395	78.4501	379.395	77.5506	379.395	78.7903	379.395	77.7031	379.395	78.8589	379.395	77.6864	379.395	79.1031	379.395	78.1017	379.395	79.776	379.395	79.1485	379.395	80.4936	379.395	80.2166	379.395	80.7172
392.578	88.3772	392.578	88.056	392.578	88.0631	392.578	87.0986	392.578	87.1108	392.578	85.5078	392.578	85.5128	392.578	83.3044	392.578	83.2694	392.578	80.5454	392.578	80.4292	392.578	77.3443	392.578	77.1893	392.578	73.89	392.578	74.0611	392.578	70.4043	392.578	71.8698	392.578	66.9005	392.578	71.1559	392.578	64.8725	392.578	71.7048	392.578	69.1291	392.578	73.1769	392.578	74.1117	392.578	75.3378	392.578	77.5987	392.578	77.6823	392.578	79.9116	392.578	79.7271	392.578	81.436	392.578	81.2934	392.578	82.4459	392.578	82.3893	392.578	83.0592	392.578	83.0477	392.578	83.27
405.762	89.1469	405.762	88.7344	405.762	88.8198	405.762	87.5766	405.762	87.7481	405.762	85.6702	405.762	85.9051	405.762	83.0428	405.762	83.2269	405.762	79.8249	405.762	79.6025	405.762	76.3924	405.762	74.8971	405.762	73.4337	405.762	69.094	405.762	71.534	405.762	62.8591	405.762	70.465	405.762	62.1019	405.762	69.1576	405.762	66.8614	405.762	66.9997	405.762	70.4434	405.762	68.5075	405.762	73.0887	405.762	73.7162	405.762	75.7007	405.762	77.7224	405.762	78.4501	405.762	80.4758	405.762	80.9097	405.762	82.3724	405.762	82.7355	405.762	83.5716	405.762	83.795	405.762	84.064
420.41	89.8218	420.41	89.4515	420.41	89.5036	420.41	88.3805	420.41	88.5044	420.41	86.5877	420.41	86.8283	420.41	84.0417	420.41	84.4843	420.41	80.718	420.41	81.5295	420.41	76.6905	420.41	78.2131	420.41	72.4248	420.41	75.1723	420.41	69.0854	420.41	72.9686	420.41	67.5699	420.41	71.1247	420.41	67.3031	420.41	68.6495	420.41	66.834	420.41	64.2249	420.41	66.0301	420.41	58.4392	420.41	70.0204	420.41	68.1765	420.41	75.8427	420.41	74.823	420.41	80.0537	420.41	79.1962	420.41	82.7675	420.41	82.1413	420.41	84.2442	420.41	83.918	420.41	84.6135
435.059	89.9356	435.059	89.5963	435.059	89.6152	435.059	88.5787	435.059	88.6479	435.059	86.8592	435.059	87.0401	435.059	84.4172	435.059	84.7986	435.059	81.2708	435.059	81.9681	435.059	77.6125	435.059	78.7502	435.059	74.125	435.059	75.7022	435.059	71.9134	435.059	73.5361	435.059	71.0217	435.059	72.3155	435.059	70.258	435.059	71.6345	435.059	68.6527	435.059	71.0948	435.059	67.1199	435.059	70.3367	435.059	69.6092	435.059	69.9484	435.059	73.5784	435.059	71.967	435.059	76.7556	435.059	75.5074	435.059	79.1269	435.059	78.497	435.059	80.6253	435.059	80.3782	435.059	81.0786
451.172	89.6285	451.172	89.3327	451.172	89.177	451.172	88.2802	451.172	87.984	451.172	86.4545	451.172	86.055	451.172	83.8362	451.172	83.4006	451.172	80.4369	451.172	80.0543	451.172	76.4347	451.172	76.2051	451.172	72.5464	451.172	72.6679	451.172	70.2393	451.172	70.5972	451.172	70.0881	451.172	68.9459	451.172	70.6449	451.172	65.3051	451.172	70.3391	451.172	59.7587	451.172	68.764	451.172	67.1632	451.172	70.3194	451.172	72.7737	451.172	75.6627	451.172	76.6153	451.172	79.8012	451.172	79.6965	451.172	82.4403	451.172	82.0885	451.172	83.869	451.172	83.6366	451.172	84.2454
465.82	91.0073	465.82	90.6604	465.82	90.603	465.82	89.5565	465.82	89.4368	465.82	87.6629	465.82	87.4918	465.82	84.9081	465.82	84.7604	465.82	81.1784	465.82	81.29	465.82	76.3835	465.82	77.353	465.82	70.9149	465.82	73.8752	465.82	66.4518	465.82	71.9682	465.82	63.0095	465.82	70.8174	465.82	61.0659	465.82	68.9843	465.82	64.0004	465.82	65.9899	465.82	65.0513	465.82	62.0761	465.82	65.7239	465.82	64.4747	465.82	73.0715	465.82	72.8132	465.82	79.0023	465.82	78.6086	465.82	82.6537	465.82	82.3115	465.82	84.6103	465.82	84.4197	465.82	85.1667
483.398	90.1007	483.398	89.7083	483.398	89.6523	483.398	88.4913	483.398	88.3331	483.398	86.4511	483.398	86.0939	483.398	83.5652	483.398	82.8585	483.398	79.773	483.398	78.5264	483.398	75.0785	483.398	73.0641	483.398	70.7068	483.398	67.5886	483.398	69.9259	483.398	67.224	483.398	70.3344	483.398	69.7374	483.398	68.9151	483.398	70.8411	483.398	63.9588	483.398	69.4152	483.398	50.4273	483.398	62.8167	483.398	63.3651	483.398	62.0793	483.398	69.3976	483.398	72.2166	483.398	74.4594	483.398	77.0731	483.398	78.4845	483.398	80.047	483.398	81.0053	483.398	81.6887	483.398	82.0356
499.512	89.9078	499.512	89.5081	499.512	89.4844	499.512	88.2737	499.512	88.1935	499.512	86.1298	499.512	85.9195	499.512	82.9102	499.512	82.4299	499.512	78.2871	499.512	77.2683	499.512	71.6276	499.512	69.7537	499.512	64.2594	499.512	65.1161	499.512	66.6097	499.512	67.6708	499.512	68.9831	499.512	68.9472	499.512	69.1029	499.512	69.1135	499.512	66.8142	499.512	67.9053	499.512	60.6964	499.512	64.0405	499.512	54.6135	499.512	48.1066	499.512	66.5274	499.512	66.1845	499.512	73.4664	499.512	73.9231	499.512	77.9783	499.512	78.3359	499.512	80.5683	499.512	80.7419	499.512	81.4627
517.09	89.6652	517.09	89.3276	517.09	89.1421	517.09	88.1073	517.09	87.7094	517.09	85.8973	517.09	85.2349	517.09	82.4587	517.09	81.4428	517.09	77.275	517.09	75.7669	517.09	69.1065	517.09	68.4939	517.09	63.4953	517.09	69.8175	517.09	68.2724	517.09	73.0332	517.09	70.2287	517.09	74.4976	517.09	70.3385	517.09	74.4847	517.09	68.3945	517.09	72.5917	517.09	62.6134	517.09	67.5143	517.09	52.2482	517.09	48.6654	517.09	67.2003	517.09	68.5364	517.09	74.1069	517.09	75.7978	517.09	78.7323	517.09	80.0113	517.09	81.5436	517.09	82.2106	517.09	82.6889
536.133	90.081	536.133	89.668	536.133	89.6244	536.133	88.3507	536.133	88.2502	536.133	86.0027	536.133	85.7872	536.133	82.3224	536.133	81.8194	536.133	76.5688	536.133	75.2962	536.133	67.7215	536.133	65.6795	536.133	69.1458	536.133	69.7045	536.133	72.5199	536.133	72.1677	536.133	73.6683	536.133	73.2042	536.133	73.8044	536.133	73.7397	536.133	72.8357	536.133	72.7859	536.133	69.9534	536.133	69.3512	536.133	63.0146	536.133	61.4295	536.133	60.908	536.133	61.8942	536.133	71.4984	536.133	72.7068	536.133	77.0653	536.133	78.1555	536.133	80.2368	536.133	80.8627	536.133	81.4846
555.176	89.7528	555.176	89.3175	555.176	89.2778	555.176	87.9341	555.176	87.8403	555.176	85.478	555.176	85.2394	555.176	81.6415	555.176	80.9367	555.176	75.5657	555.176	73.3147	555.176	66.9576	555.176	67.0986	555.176	71.1387	555.176	73.5128	555.176	74.2135	555.176	75.471	555.176	74.8867	555.176	75.7271	555.176	74.4183	555.176	75.5321	555.176	73.225	555.176	74.8833	555.176	70.965	555.176	73.1478	555.176	66.6334	555.176	69.3008	555.176	63.2624	555.176	65.0213	555.176	72.1362	555.176	73.327	555.176	77.8997	555.176	78.7147	555.176	80.9939	555.176	81.3855	555.176	82.0905
574.219	89.3841	574.219	89.0458	574.219	88.6157	574.219	87.534	574.219	86.759	574.219	84.7406	574.219	83.6725	574.219	80.4005	574.219	78.698	574.219	73.4444	574.219	69.3525	574.219	51.059	574.219	69.921	574.219	69.156	574.219	75.4137	574.219	73.9188	574.219	77.1796	574.219	75.4625	574.219	77.4912	574.219	75.3207	574.219	77.0195	574.219	74.2425	574.219	75.7347	574.219	72.8118	574.219	73.8786	574.219	70.3051	574.219	71.928	574.219	63.4639	574.219	67.4546	574.219	66.9833	574.219	66.901	574.219	75.2369	574.219	75.9389	574.219	79.1731	574.219	79.7347	574.219	80.6076
594.727	89.5886	594.727	89.1021	594.727	88.7311	594.727	87.2513	594.727	86.4459	594.727	83.8957	594.727	82.4417	594.727	78.6095	594.727	75.6203	594.727	69.7574	594.727	58.6866	594.727	62.8718	594.727	71.2087	594.727	71.9336	594.727	75.4679	594.727	76.0106	594.727	76.8606	594.727	77.8288	594.727	77.089	594.727	77.7853	594.727	76.7798	594.727	76.2051	594.727	75.9695	594.727	74.1639	594.727	74.8252	594.727	72.5892	594.727	74.0734	594.727	69.2885	594.727	72.4007	594.727	67.2916	594.727	64.6323	594.727	74.9447	594.727	70.8357	594.727	78.8906	594.727	77.7039	594.727	79.7842
615.234	89.7475	615.234	89.0506	615.234	89.1685	615.234	87.0216	615.234	87.23	615.234	83.3701	615.234	83.6265	615.234	77.1991	615.234	77.2605	615.234	66.7142	615.234	65.9977	615.234	70.0096	615.234	74.6864	615.234	74.0737	615.234	78.598	615.234	76.916	615.234	79.7554	615.234	78.679	615.234	79.2329	615.234	78.5462	615.234	77.301	615.234	76.0096	615.234	74.5734	615.234	72.3732	615.234	73.4456	615.234	73.0247	615.234	73.3542	615.234	71.96	615.234	69.3594	615.234	64.4527	615.234	66.0367	615.234	75.7429	615.234	77.394	615.234	81.1067	615.234	81.6774	615.234	82.7589
637.207	89.5919	637.207	88.9668	637.207	88.8166	637.207	86.859	637.207	86.5223	637.207	82.8734	637.207	82.2155	637.207	75.6914	637.207	73.695	637.207	68.2667	637.207	65.1826	637.207	73.8398	637.207	76.223	637.207	75.3137	637.207	79.5762	637.207	76.6368	637.207	80.778	637.207	79.357	637.207	80.5982	637.207	80.9158	637.207	79.25	637.207	80.1422	637.207	76.8046	637.207	76.8714	637.207	74.4684	637.207	73.9038	637.207	74.9683	637.207	73.1216	637.207	74.2846	637.207	66.8694	637.207	63.9934	637.207	70.116	637.207	73.0341	637.207	78.0408	637.207	79.4448	637.207	80.5392
659.18	89.6324	659.18	88.9986	659.18	88.768	659.18	86.7382	659.18	86.2833	659.18	82.2549	659.18	81.6339	659.18	72.9493	659.18	72.5549	659.18	71.6498	659.18	67.2746	659.18	78.1176	659.18	75.0704	659.18	79.8901	659.18	78.1239	659.18	79.853	659.18	80.2069	659.18	79.6653	659.18	81.5754	659.18	80.1473	659.18	81.5882	659.18	79.6651	659.18	79.2757	659.18	76.4703	659.18	74.4053	659.18	72.9238	659.18	75.0999	659.18	73.114	659.18	76.0085	659.18	62.9628	659.18	70.5672	659.18	74.3061	659.18	74.7592	659.18	81.1944	659.18	81.1251	659.18	82.8873
682.617	89.6434	682.617	88.8681	682.617	88.8248	682.617	86.3276	682.617	86.2348	682.617	81.2295	682.617	81.008	682.617	70.8738	682.617	67.4647	682.617	74.4719	682.617	72.4794	682.617	78.4065	682.617	77.8897	682.617	78.8291	682.617	79.4454	682.617	78.4307	682.617	80.4167	682.617	79.353	682.617	81.5071	682.617	80.6833	682.617	81.9009	682.617	80.6158	682.617	80.4696	682.617	78.2159	682.617	76.3485	682.617	74.1454	682.617	74.5053	682.617	72.6075	682.617	76.144	682.617	63.8123	682.617	70.7067	682.617	73.7834	682.617	71.5593	682.617	81.2188	682.617	80.8428	682.617	83.029
707.52	89.379	707.52	88.7686	707.52	88.1576	707.52	86.0814	707.52	84.8059	707.52	80.0536	707.52	77.5642	707.52	67.8497	707.52	66.7744	707.52	77.6889	707.52	78.1109	707.52	80.6992	707.52	80.5121	707.52	81.0096	707.52	80.3139	707.52	80.4083	707.52	80.2441	707.52	79.7278	707.52	81.3607	707.52	79.2057	707.52	81.2644	707.52	78.7635	707.52	78.6694	707.52	77.2017	707.52	75.3913	707.52	75.2573	707.52	75.8328	707.52	75.8265	707.52	76.2988	707.52	72.2157	707.52	71.2614	707.52	68.5885	707.52	71.8917	707.52	79.9358	707.52	80.8538	707.52	82.6806
732.422	89.8203	732.422	88.8589	732.422	88.6761	732.422	85.5823	732.422	85.0467	732.422	78.2887	732.422	76.5804	732.422	66.1592	732.422	69.9087	732.422	79.2569	732.422	80.0164	732.422	81.8963	732.422	82.3869	732.422	81.398	732.422	82.1415	732.422	80.4498	732.422	81.3433	732.422	82.2566	732.422	82.6869	732.422	83.6343	732.422	83.9342	732.422	82.3	732.422	82.329	732.422	76.7327	732.422	74.9096	732.422	70.4568	732.422	72.4149	732.422	75.2545	732.422	77.8797	732.422	69.5254	732.422	73.9012	732.422	73.1105	732.422	72.8821	732.422	81.6221	732.422	81.4762	732.422	83.5656
757.324	89.129	757.324	88.0862	757.324	88.138	757.324	84.6603	757.324	84.8844	757.324	76.5398	757.324	77.418	757.324	70.7191	757.324	69.2133	757.324	81.4813	757.324	81.1606	757.324	84.4871	757.324	84.2103	757.324	84.1872	757.324	83.7115	757.324	80.9838	757.324	80.2382	757.324	80.6473	757.324	80.0475	757.324	84.0971	757.324	83.3977	757.324	84.3465	757.324	83.4709	757.324	79.9407	757.324	78.3565	757.324	65.6097	757.324	68.0283	757.324	77.6139	757.324	80.243	757.324	75.3528	757.324	78.8774	757.324	75.1357	757.324	70.3256	757.324	84.6724	757.324	84.1864	757.324	86.8696
785.156	89.4336	785.156	88.5288	785.156	87.9186	785.156	85.2678	785.156	83.3912	785.156	78.8654	785.156	72.6793	785.156	69.743	785.156	72.4602	785.156	79.7404	785.156	81.6146	785.156	85.021	785.156	85.4174	785.156	86.7463	785.156	86.3286	785.156	84.7091	785.156	84.2618	785.156	78.0418	785.156	79.3132	785.156	82.9697	785.156	80.9677	785.156	86.0166	785.156	84.1875	785.156	83.9162	785.156	83.6685	785.156	73.5287	785.156	76.6807	785.156	77.8608	785.156	77.0919	785.156	79.3874	785.156	80.6241	785.156	72.947	785.156	60.1515	785.156	83.4079	785.156	82.8093	785.156	86.2919
811.523	90.0004	811.523	88.8815	811.523	88.2679	811.523	84.352	811.523	83.2698	811.523	73.327	811.523	73.8617	811.523	77.2479	811.523	73.6394	811.523	81.8477	811.523	79.4708	811.523	84.7633	811.523	83.9783	811.523	86.5591	811.523	86.0975	811.523	85.782	811.523	85.3204	811.523	80.5047	811.523	80.6196	811.523	76.7343	811.523	77.4573	811.523	84.0997	811.523	82.6958	811.523	85.0508	811.523	84.0049	811.523	80.3253	811.523	79.9577	811.523	65.7744	811.523	68.0159	811.523	76.0907	811.523	79.7398	811.523	67.5325	811.523	69.9832	811.523	82.5042	811.523	81.5042	811.523	85.9208
840.82	90.6045	840.82	89.266	840.82	88.8077	840.82	83.9609	840.82	82.5675	840.82	70.2737	840.82	61.8244	840.82	81.3194	840.82	79.3286	840.82	83.643	840.82	80.8617	840.82	83.6754	840.82	82.3881	840.82	85.0409	840.82	85.6327	840.82	86.0114	840.82	86.7266	840.82	84.3941	840.82	84.7719	840.82	79.7003	840.82	80.273	840.82	79.7098	840.82	79.2245	840.82	81.7331	840.82	81.3472	840.82	78.3898	840.82	78.2608	840.82	59.0881	840.82	66.9677	840.82	75.7785	840.82	78.328	840.82	64.7595	840.82	71.3562	840.82	79.0991	840.82	79.752	840.82	83.5051
870.117	90.1996	870.117	88.6182	870.117	88.6299	870.117	82.5829	870.117	82.5991	870.117	66.3459	870.117	66.3076	870.117	82.0139	870.117	81.6205	870.117	84.0822	870.117	84.1042	870.117	83.42	870.117	84.1793	870.117	83.1539	870.117	84.5912	870.117	83.8973	870.117	84.9886	870.117	83.3043	870.117	83.7291	870.117	81.627	870.117	81.7495	870.117	83.0387	870.117	82.0042	870.117	84.6771	870.117	82.7461	870.117	82.9549	870.117	80.5429	870.117	73.9013	870.117	71.2226	870.117	70.5726	870.117	73.1966	870.117	68.9096	870.117	71.2501	870.117	74.3874	870.117	78.6176	870.117	80.6966
900.879	91.0893	900.879	89.4027	900.879	89.2703	900.879	82.7487	900.879	82.1137	900.879	71.1987	900.879	75.0734	900.879	83.9757	900.879	84.5324	900.879	86.0936	900.879	85.6416	900.879	85.1132	900.879	83.997	900.879	83.0348	900.879	82.9885	900.879	81.9854	900.879	83.4091	900.879	80.183	900.879	82.8529	900.879	75.674	900.879	80.9848	900.879	80.8167	900.879	82.3345	900.879	84.4328	900.879	84.1716	900.879	82.9904	900.879	82.5998	900.879	74.5961	900.879	75.6295	900.879	71.6024	900.879	66.502	900.879	69.3843	900.879	66.2668	900.879	72.3505	900.879	74.9984	900.879	78.959
933.105	90.787	933.105	89.4092	933.105	88.8805	933.105	83.2012	933.105	82.3863	933.105	72.8771	933.105	77.832	933.105	84.4849	933.105	85.7126	933.105	86.545	933.105	87.383	933.105	86.0532	933.105	86.0732	933.105	84.9434	933.105	84.333	933.105	83.5411	933.105	83.6928	933.105	81.6137	933.105	82.6885	933.105	79.9162	933.105	81.1548	933.105	77.2414	933.105	79.8715	933.105	80.7687	933.105	81.2743	933.105	82.3975	933.105	81.3991	933.105	75.2499	933.105	73.8807	933.105	69.5732	933.105	74.8513	933.105	71.8244	933.105	72.8122	933.105	66.9837	933.105	75.1999	933.105	77.9317
965.332	90.5245	965.332	88.7965	965.332	88.5375	965.332	81.7492	965.332	81.2499	965.332	76.0504	965.332	75.707	965.332	85.4602	965.332	84.4011	965.332	87.5615	965.332	86.4222	965.332	86.2971	965.332	85.2519	965.332	83.6688	965.332	82.2142	965.332	82.9615	965.332	80.2588	965.332	81.5411	965.332	79.3963	965.332	78.0753	965.332	78.3099	965.332	77.5291	965.332	79.4867	965.332	79.7872	965.332	81.5973	965.332	81.0812	965.332	81.9665	965.332	76.2359	965.332	77.8383	965.332	70.8116	965.332	72.2053	965.332	74.1749	965.332	72.6198	965.332	71.4185	965.332	74.7906	965.332	79.6199
1,000.49	90.587	1,000.49	88.6663	1,000.49	88.2266	1,000.49	80.5562	1,000.49	80.0926	1,000.49	77.8385	1,000.49	79.6118	1,000.49	85.2785	1,000.49	86.0134	1,000.49	86.9123	1,000.49	87.4808	1,000.49	85.9632	1,000.49	86.2983	1,000.49	82.9348	1,000.49	83.6719	1,000.49	78.7717	1,000.49	81.4456	1,000.49	76.9324	1,000.49	79.8958	1,000.49	73.6999	1,000.49	76.8022	1,000.49	76.7287	1,000.49	74.9658	1,000.49	79.5524	1,000.49	78.5395	1,000.49	78.6403	1,000.49	76.4096	1,000.49	74.5337	1,000.49	72.4424	1,000.49	67.8687	1,000.49	74.9946	1,000.49	71.2417	1,000.49	68.1148	1,000.49	71.5931	1,000.49	74.2297	1,000.49	77.5018
1,035.64	90.3903	1,035.64	88.3593	1,035.64	88.114	1,035.64	80.0705	1,035.64	79.7853	1,035.64	78.8142	1,035.64	79.0673	1,035.64	85.1107	1,035.64	84.1425	1,035.64	86.0035	1,035.64	85.0554	1,035.64	85.0645	1,035.64	84.1737	1,035.64	83.5356	1,035.64	82.063	1,035.64	81.4045	1,035.64	80.3124	1,035.64	78.9161	1,035.64	79.2626	1,035.64	77.0216	1,035.64	77.9147	1,035.64	75.0582	1,035.64	76.4252	1,035.64	79.2205	1,035.64	77.3779	1,035.64	80.7406	1,035.64	80.4995	1,035.64	77.4811	1,035.64	76.0366	1,035.64	67.8215	1,035.64	68.6799	1,035.64	68.1767	1,035.64	73.1396	1,035.64	69.1491	1,035.64	71.5937	1,035.64	76.4895
1,072.27	89.0342	1,072.27	87.0455	1,072.27	87.2266	1,072.27	79.1241	1,072.27	80.4202	1,072.27	79.3239	1,072.27	80.6589	1,072.27	85.209	1,072.27	85.6594	1,072.27	86.3771	1,072.27	86.2291	1,072.27	85.303	1,072.27	84.4748	1,072.27	83.1702	1,072.27	81.3735	1,072.27	81.3254	1,072.27	77.92	1,072.27	79.5024	1,072.27	76.5611	1,072.27	76.8509	1,072.27	75.4759	1,072.27	68.7313	1,072.27	73.3694	1,072.27	70.8421	1,072.27	74.5717	1,072.27	75.9588	1,072.27	73.529	1,072.27	73.9818	1,072.27	70.8389	1,072.27	72.5629	1,072.27	70.3626	1,072.27	70.3054	1,072.27	69.235	1,072.27	70.4591	1,072.27	74.5445	1,072.27	76.7988
1,108.89	88.6444	1,108.89	87.0548	1,108.89	86.2103	1,108.89	79.1444	1,108.89	79.1571	1,108.89	79.4726	1,108.89	80.6278	1,108.89	84.6538	1,108.89	84.5949	1,108.89	84.9011	1,108.89	84.5846	1,108.89	83.427	1,108.89	81.9908	1,108.89	81.0137	1,108.89	77.929	1,108.89	77.5825	1,108.89	73.7091	1,108.89	70.8117	1,108.89	68.9975	1,108.89	65.252	1,108.89	66.3101	1,108.89	72.8056	1,108.89	71.3944	1,108.89	73.5131	1,108.89	74.753	1,108.89	73.5095	1,108.89	77.8367	1,108.89	72.0592	1,108.89	74.9242	1,108.89	68.9843	1,108.89	69.3624	1,108.89	70.0937	1,108.89	69.9695	1,108.89	73.4761	1,108.89	72.1469	1,108.89	76.1242
1,148.44	89.1021	1,148.44	86.7692	1,148.44	86.2825	1,148.44	77.2013	1,148.44	78.6393	1,148.44	81.1835	1,148.44	81.1314	1,148.44	84.4773	1,148.44	84.849	1,148.44	84.4323	1,148.44	84.8083	1,148.44	82.6899	1,148.44	82.1958	1,148.44	78.7289	1,148.44	78.4395	1,148.44	72.3192	1,148.44	74.0112	1,148.44	70.0189	1,148.44	68.9397	1,148.44	69.7778	1,148.44	65.0556	1,148.44	67.5191	1,148.44	67.046	1,148.44	70.6191	1,148.44	66.6644	1,148.44	71.9344	1,148.44	69.6597	1,148.44	70.8369	1,148.44	71.7909	1,148.44	71.4079	1,148.44	73.2786	1,148.44	70.2964	1,148.44	69.3595	1,148.44	71.4054	1,148.44	72.0455	1,148.44	76.6241
1,189.45	89.2352	1,189.45	87.1325	1,189.45	86.8816	1,189.45	79.8206	1,189.45	80.0857	1,189.45	80.4449	1,189.45	81.6784	1,189.45	83.8858	1,189.45	84.1989	1,189.45	83.8826	1,189.45	83.3332	1,189.45	81.5316	1,189.45	80.5557	1,189.45	76.6419	1,189.45	75.4196	1,189.45	70.3041	1,189.45	68.3006	1,189.45	64.3738	1,189.45	64.5091	1,189.45	57.4627	1,189.45	61.9943	1,189.45	68.3748	1,189.45	64.6405	1,189.45	66.9477	1,189.45	69.7024	1,189.45	66.8291	1,189.45	72.0071	1,189.45	67.6136	1,189.45	70.3495	1,189.45	69.0604	1,189.45	66.7899	1,189.45	64.8589	1,189.45	69.7232	1,189.45	71.687	1,189.45	72.7798	1,189.45	76.0026
1,230.47	89.2399	1,230.47	86.8107	1,230.47	87.0454	1,230.47	79.8644	1,230.47	80.4537	1,230.47	81.7039	1,230.47	81.9266	1,230.47	83.1288	1,230.47	83.6834	1,230.47	82.086	1,230.47	81.9717	1,230.47	79.3837	1,230.47	78.8146	1,230.47	74.2063	1,230.47	74.8447	1,230.47	67.2202	1,230.47	67.9634	1,230.47	64.5841	1,230.47	56.38	1,230.47	63.6025	1,230.47	55.7321	1,230.47	59.2103	1,230.47	59.6524	1,230.47	66.6536	1,230.47	61.5609	1,230.47	67.3019	1,230.47	62.6504	1,230.47	64.7594	1,230.47	65.4089	1,230.47	70.7507	1,230.47	69.6779	1,230.47	68.9338	1,230.47	64.4919	1,230.47	70.6296	1,230.47	72.4159	1,230.47	76.673
1,274.41	88.711	1,274.41	86.7028	1,274.41	86.4873	1,274.41	80.0889	1,274.41	80.9519	1,274.41	80.3588	1,274.41	81.827	1,274.41	82.7026	1,274.41	83.3708	1,274.41	81.8822	1,274.41	81.3937	1,274.41	78.1877	1,274.41	77.0468	1,274.41	72.4156	1,274.41	72.7055	1,274.41	64.1493	1,274.41	65.3006	1,274.41	64.3832	1,274.41	60.8882	1,274.41	70.0958	1,274.41	66.2394	1,274.41	65.9238	1,274.41	67.8831	1,274.41	60.0203	1,274.41	66.9644	1,274.41	62.6651	1,274.41	65.4108	1,274.41	57.2703	1,274.41	66.5165	1,274.41	63.741	1,274.41	62.0201	1,274.41	65.5662	1,274.41	67.8024	1,274.41	67.5273	1,274.41	69.6736	1,274.41	73.6212
1,319.82	88.3939	1,319.82	86.2695	1,319.82	86.2805	1,319.82	81.2391	1,319.82	80.6523	1,319.82	80.8424	1,319.82	80.8296	1,319.82	82.1162	1,319.82	81.7691	1,319.82	80.5507	1,319.82	80.0216	1,319.82	77.5014	1,319.82	77.3807	1,319.82	73.959	1,319.82	72.0187	1,319.82	69.1335	1,319.82	68.4948	1,319.82	69.548	1,319.82	68.9759	1,319.82	67.3956	1,319.82	71.6024	1,319.82	69.4293	1,319.82	66.0075	1,319.82	71.414	1,319.82	63.5077	1,319.82	66.2046	1,319.82	65.631	1,319.82	63.758	1,319.82	59.5043	1,319.82	67.7952	1,319.82	68.6977	1,319.82	65.1087	1,319.82	60.5053	1,319.82	68.2629	1,319.82	67.2515	1,319.82	72.1862
1,366.7	88.1256	1,366.7	85.9294	1,366.7	85.9703	1,366.7	80.9111	1,366.7	80.2382	1,366.7	80.2515	1,366.7	80.6449	1,366.7	81.743	1,366.7	80.934	1,366.7	79.4869	1,366.7	78.59	1,366.7	77.0037	1,366.7	75.4893	1,366.7	75.9155	1,366.7	73.1162	1,366.7	74.7165	1,366.7	70.9153	1,366.7	74.146	1,366.7	70.5923	1,366.7	75.1754	1,366.7	73.8138	1,366.7	71.2349	1,366.7	73.2226	1,366.7	69.5816	1,366.7	70.3914	1,366.7	72.0809	1,366.7	73.4877	1,366.7	63.1586	1,366.7	65.9869	1,366.7	60.2534	1,366.7	53.9594	1,366.7	62.7483	1,366.7	65.4625	1,366.7	63.5707	1,366.7	68.8723	1,366.7	71.3502
1,413.57	88.4146	1,413.57	86.1393	1,413.57	86.1408	1,413.57	80.2205	1,413.57	81.3103	1,413.57	81.2673	1,413.57	81.4515	1,413.57	81.7019	1,413.57	80.8978	1,413.57	79.7873	1,413.57	78.6694	1,413.57	78.3536	1,413.57	77.845	1,413.57	75.7289	1,413.57	77.0509	1,413.57	75.8584	1,413.57	73.6752	1,413.57	71.5239	1,413.57	73.3131	1,413.57	69.9949	1,413.57	74.2182	1,413.57	75.7621	1,413.57	74.5439	1,413.57	71.4811	1,413.57	67.4836	1,413.57	69.4136	1,413.57	70.1094	1,413.57	65.1624	1,413.57	61.4166	1,413.57	66.4135	1,413.57	60.1231	1,413.57	58.099	1,413.57	67.3844	1,413.57	66.2208	1,413.57	66.7711	1,413.57	73.3546
1,463.38	89.0946	1,463.38	86.9825	1,463.38	86.5948	1,463.38	80.4601	1,463.38	81.1474	1,463.38	80.7294	1,463.38	80.9884	1,463.38	80.6798	1,463.38	79.5113	1,463.38	79.4665	1,463.38	81.0852	1,463.38	80.8925	1,463.38	81.3668	1,463.38	78.7084	1,463.38	75.8819	1,463.38	74.5853	1,463.38	75.0851	1,463.38	76.0065	1,463.38	73.4086	1,463.38	74.2893	1,463.38	76.5289	1,463.38	72.7548	1,463.38	77.6881	1,463.38	75.9793	1,463.38	74.3858	1,463.38	74.9131	1,463.38	64.6094	1,463.38	69.4854	1,463.38	69.5836	1,463.38	54.258	1,463.38	63.594	1,463.38	64.628	1,463.38	56.659	1,463.38	70.3565	1,463.38	61.6901	1,463.38	73.5244
1,516.11	89.9659	1,516.11	87.6418	1,516.11	87.3633	1,516.11	82.5887	1,516.11	82.1817	1,516.11	81.1142	1,516.11	81.5396	1,516.11	80.1766	1,516.11	81.0555	1,516.11	79.4652	1,516.11	79.9143	1,516.11	79.1781	1,516.11	80.1179	1,516.11	79.7747	1,516.11	80.3513	1,516.11	80.0534	1,516.11	81.6599	1,516.11	76.0802	1,516.11	78.7302	1,516.11	74.9396	1,516.11	76.1951	1,516.11	75.5947	1,516.11	76.4819	1,516.11	76.8009	1,516.11	79.1102	1,516.11	73.7447	1,516.11	73.1914	1,516.11	70.7697	1,516.11	64.6337	1,516.11	69.0532	1,516.11	60.7121	1,516.11	66.2896	1,516.11	69.086	1,516.11	63.0326	1,516.11	75.8471	1,516.11	78.1229
1,568.85	90.2678	1,568.85	88.505	1,568.85	87.9022	1,568.85	84.6168	1,568.85	83.2365	1,568.85	82.8467	1,568.85	80.893	1,568.85	80.9731	1,568.85	79.6379	1,568.85	81.2528	1,568.85	79.3164	1,568.85	82.4488	1,568.85	82.5234	1,568.85	81.4343	1,568.85	82.2084	1,568.85	81.145	1,568.85	76.7119	1,568.85	79.5143	1,568.85	70.9466	1,568.85	76.9593	1,568.85	76.6561	1,568.85	71.4316	1,568.85	77.6083	1,568.85	73.5141	1,568.85	77.0547	1,568.85	78.0065	1,568.85	79.9209	1,568.85	60.1722	1,568.85	64.8298	1,568.85	62.661	1,568.85	67.409	1,568.85	62.3813	1,568.85	71.3751	1,568.85	68.4185	1,568.85	70.4429	1,568.85	77.2314
1,624.51	89.8103	1,624.51	88.0231	1,624.51	87.28	1,624.51	84.2382	1,624.51	84.8019	1,624.51	83.2323	1,624.51	83.0252	1,624.51	81.8822	1,624.51	78.715	1,624.51	83.8987	1,624.51	80.8275	1,624.51	85.3925	1,624.51	83.597	1,624.51	83.0342	1,624.51	84.2944	1,624.51	81.3968	1,624.51	81.4238	1,624.51	76.3844	1,624.51	77.3043	1,624.51	78.1626	1,624.51	73.5264	1,624.51	76.9526	1,624.51	76.1312	1,624.51	78.47	1,624.51	77.0911	1,624.51	76.8321	1,624.51	76.843	1,624.51	68.0317	1,624.51	67.9414	1,624.51	71.4306	1,624.51	69.5376	1,624.51	65.6982	1,624.51	70.7742	1,624.51	61.6208	1,624.51	71.206	1,624.51	76.6427
1,681.64	89.8255	1,681.64	87.0932	1,681.64	87.3972	1,681.64	85.0017	1,681.64	84.9529	1,681.64	83.7489	1,681.64	84.5285	1,681.64	81.6195	1,681.64	82.5216	1,681.64	84.302	1,681.64	85.2906	1,681.64	84.3977	1,681.64	85.9252	1,681.64	83.8779	1,681.64	84.7727	1,681.64	80.2603	1,681.64	81.6688	1,681.64	77.8763	1,681.64	77.6504	1,681.64	73.8136	1,681.64	79.5533	1,681.64	78.4806	1,681.64	80.1506	1,681.64	74.2694	1,681.64	78.423	1,681.64	77.0425	1,681.64	80.4067	1,681.64	74.1745	1,681.64	73.8566	1,681.64	64.3284	1,681.64	68.1526	1,681.64	67.1348	1,681.64	70.145	1,681.64	65.0624	1,681.64	71.1717	1,681.64	77.611
1,741.7	90.5081	1,741.7	88.0642	1,741.7	87.9099	1,741.7	86.2588	1,741.7	85.2953	1,741.7	82.8771	1,741.7	84.3515	1,741.7	83.4681	1,741.7	84.4435	1,741.7	85.659	1,741.7	86.2297	1,741.7	86.529	1,741.7	86.9621	1,741.7	84.6768	1,741.7	84.9011	1,741.7	82.4838	1,741.7	81.9777	1,741.7	80.6404	1,741.7	81.4721	1,741.7	79.1398	1,741.7	76.9636	1,741.7	78.8498	1,741.7	78.8761	1,741.7	76.695	1,741.7	76.9181	1,741.7	79.7877	1,741.7	78.9132	1,741.7	78.513	1,741.7	73.5338	1,741.7	72.3264	1,741.7	68.563	1,741.7	54.9277	1,741.7	68.9867	1,741.7	68.7856	1,741.7	70.447	1,741.7	75.1765
1,803.22	90.6711	1,803.22	89.6868	1,803.22	89.9008	1,803.22	87.6702	1,803.22	87.2801	1,803.22	85.1549	1,803.22	84.5654	1,803.22	85.1676	1,803.22	83.193	1,803.22	86.1573	1,803.22	86.6774	1,803.22	86.6103	1,803.22	86.6645	1,803.22	85.5624	1,803.22	85.8082	1,803.22	83.0156	1,803.22	82.4618	1,803.22	80.1034	1,803.22	77.4395	1,803.22	75.0948	1,803.22	77.8761	1,803.22	77.3353	1,803.22	73.1465	1,803.22	74.3792	1,803.22	72.913	1,803.22	80.269	1,803.22	76.6786	1,803.22	76.0567	1,803.22	76.0815	1,803.22	70.9751	1,803.22	71.3217	1,803.22	69.8252	1,803.22	68.4056	1,803.22	71.4943	1,803.22	70.8324	1,803.22	75.2485
1,866.21	90.5648	1,866.21	90.4621	1,866.21	90.4582	1,866.21	88.2564	1,866.21	88.4059	1,866.21	85.3528	1,866.21	84.6123	1,866.21	85.5331	1,866.21	85.4821	1,866.21	88.005	1,866.21	87.115	1,866.21	87.1745	1,866.21	88.0868	1,866.21	85.6188	1,866.21	85.248	1,866.21	82.8344	1,866.21	84.1273	1,866.21	78.9239	1,866.21	79.0706	1,866.21	77.2461	1,866.21	79.0829	1,866.21	76.9263	1,866.21	73.3462	1,866.21	76.3718	1,866.21	74.4453	1,866.21	75.6152	1,866.21	75.9579	1,866.21	75.5257	1,866.21	78.0032	1,866.21	69.6671	1,866.21	68.1283	1,866.21	62.5361	1,866.21	61.7546	1,866.21	69.1023	1,866.21	75.3053	1,866.21	74.2413
1,932.13	89.753	1,932.13	89.6916	1,932.13	89.7446	1,932.13	88.7624	1,932.13	89.4295	1,932.13	86.5272	1,932.13	86.5351	1,932.13	86.2629	1,932.13	86.0702	1,932.13	87.1169	1,932.13	87.2383	1,932.13	87.2087	1,932.13	88.0857	1,932.13	85.8547	1,932.13	86.1954	1,932.13	82.1222	1,932.13	81.9389	1,932.13	79.6622	1,932.13	80.6546	1,932.13	78.5033	1,932.13	74.4872	1,932.13	74.0021	1,932.13	79.3217	1,932.13	76.2756	1,932.13	76.1491	1,932.13	78.691	1,932.13	77.5911	1,932.13	80.1096	1,932.13	78.8837	1,932.13	74.8153	1,932.13	71.55	1,932.13	59.7565	1,932.13	72.0387	1,932.13	69.6685	1,932.13	62.1267	1,932.13	76.5505
1,999.51	89.7688	1,999.51	89.7546	1,999.51	89.4529	1,999.51	88.5984	1,999.51	88.5521	1,999.51	87.4724	1,999.51	86.726	1,999.51	84.773	1,999.51	86.6638	1,999.51	88.1998	1,999.51	87.7353	1,999.51	87.2729	1,999.51	88.0314	1,999.51	86.3663	1,999.51	86.5504	1,999.51	83.1186	1,999.51	81.5016	1,999.51	79.8589	1,999.51	78.4749	1,999.51	75.1886	1,999.51	75.7949	1,999.51	76.5407	1,999.51	77.0267	1,999.51	77.339	1,999.51	75.0048	1,999.51	77.5345	1,999.51	78.3202	1,999.51	77.8312	1,999.51	77.751	1,999.51	70.9667	1,999.51	68.0104	1,999.51	63.0021	1,999.51	64.8327	1,999.51	68.4167	1,999.51	70.2665	1,999.51	71.4423
2,069.82	90.9481	2,069.82	90.0417	2,069.82	90.359	2,069.82	89.9708	2,069.82	89.0348	2,069.82	86.4882	2,069.82	86.2911	2,069.82	87.3966	2,069.82	87.8358	2,069.82	88.5302	2,069.82	88.8533	2,069.82	88.5547	2,069.82	87.1786	2,069.82	85.3008	2,069.82	85.0631	2,069.82	81.9061	2,069.82	82.0691	2,069.82	78.7525	2,069.82	75.4334	2,069.82	76.5233	2,069.82	65.2972	2,069.82	75.7234	2,069.82	77.7992	2,069.82	75.6464	2,069.82	76.9505	2,069.82	78.3269	2,069.82	79.7609	2,069.82	77.0631	2,069.82	76.302	2,069.82	73.8559	2,069.82	70.6443	2,069.82	58.9367	2,069.82	63.5239	2,069.82	73.5614	2,069.82	73.8513	2,069.82	70.2604
2,143.07	90.5866	2,143.07	90.7935	2,143.07	91.0096	2,143.07	89.8094	2,143.07	89.815	2,143.07	86.3067	2,143.07	86.8051	2,143.07	87.6936	2,143.07	87.335	2,143.07	87.7761	2,143.07	88.8784	2,143.07	87.4944	2,143.07	87.4463	2,143.07	85.0373	2,143.07	84.7635	2,143.07	82.9754	2,143.07	81.7743	2,143.07	78.8585	2,143.07	79.8868	2,143.07	77.2157	2,143.07	66.6174	2,143.07	74.1098	2,143.07	74.0597	2,143.07	75.1836	2,143.07	75.7696	2,143.07	76.4464	2,143.07	75.846	2,143.07	76.1669	2,143.07	75.27	2,143.07	70.6693	2,143.07	69.844	2,143.07	58.9793	2,143.07	62.614	2,143.07	72.3084	2,143.07	72.7916	2,143.07	68.4316
2,219.24	89.9785	2,219.24	90.1995	2,219.24	89.9783	2,219.24	89.5054	2,219.24	89.6937	2,219.24	88.3618	2,219.24	88.1917	2,219.24	86.7833	2,219.24	86.4132	2,219.24	87.8018	2,219.24	88.1058	2,219.24	86.968	2,219.24	86.9461	2,219.24	85.7223	2,219.24	85.5198	2,219.24	80.2075	2,219.24	80.13	2,219.24	77.3516	2,219.24	77.8893	2,219.24	75.9531	2,219.24	73.8505	2,219.24	74.3391	2,219.24	66.307	2,219.24	75.0663	2,219.24	76.0642	2,219.24	76.0433	2,219.24	74.2971	2,219.24	77.4503	2,219.24	72.2881	2,219.24	74.1423	2,219.24	68.2396	2,219.24	55.9249	2,219.24	64.2207	2,219.24	73.8168	2,219.24	74.0425	2,219.24	61.7988
2,296.88	90.1441	2,296.88	89.3823	2,296.88	89.4087	2,296.88	88.7022	2,296.88	88.1565	2,296.88	88.3652	2,296.88	88.0686	2,296.88	85.8714	2,296.88	86.7981	2,296.88	87.6828	2,296.88	87.5857	2,296.88	86.8574	2,296.88	87.1503	2,296.88	85.6102	2,296.88	83.9265	2,296.88	82.7454	2,296.88	80.413	2,296.88	78.3606	2,296.88	75.7571	2,296.88	76.4985	2,296.88	75.6687	2,296.88	75.1718	2,296.88	72.5373	2,296.88	75.1935	2,296.88	74.0717	2,296.88	76.602	2,296.88	74.9494	2,296.88	75.3537	2,296.88	74.3053	2,296.88	71.6866	2,296.88	67.3806	2,296.88	39.8172	2,296.88	63.5452	2,296.88	73.3244	2,296.88	72.446	2,296.88	44.0254
2,378.91	90.8989	2,378.91	89.9123	2,378.91	89.9686	2,378.91	88.9516	2,378.91	89.035	2,378.91	87.7762	2,378.91	87.3673	2,378.91	87.1991	2,378.91	87.7701	2,378.91	87.1294	2,378.91	87.0066	2,378.91	87.219	2,378.91	86.9606	2,378.91	83.937	2,378.91	83.0662	2,378.91	81.9073	2,378.91	81.8795	2,378.91	78.7104	2,378.91	76.4786	2,378.91	69.3544	2,378.91	74.8805	2,378.91	73.444	2,378.91	71.7814	2,378.91	74.6703	2,378.91	73.4594	2,378.91	76.2881	2,378.91	75.727	2,378.91	75.72	2,378.91	73.1585	2,378.91	72.3818	2,378.91	67.127	2,378.91	63.0719	2,378.91	65.4564	2,378.91	71.6835	2,378.91	70.6779	2,378.91	53.2175
2,462.4	90.3494	2,462.4	89.3286	2,462.4	90.0023	2,462.4	89.855	2,462.4	90.035	2,462.4	88.2563	2,462.4	86.736	2,462.4	86.3571	2,462.4	86.2082	2,462.4	84.8478	2,462.4	86.9752	2,462.4	86.3837	2,462.4	86.6177	2,462.4	84.5682	2,462.4	83.8145	2,462.4	81.8731	2,462.4	79.8263	2,462.4	76.2011	2,462.4	77.0545	2,462.4	74.7829	2,462.4	74.3833	2,462.4	73.3069	2,462.4	65.1511	2,462.4	74.4529	2,462.4	75.4251	2,462.4	75.479	2,462.4	74.5903	2,462.4	73.2794	2,462.4	73.5811	2,462.4	70.1353	2,462.4	66.4315	2,462.4	67.1327	2,462.4	67.3609	2,462.4	70.823	2,462.4	70.683	2,462.4	59.0258
2,548.83	90.1793	2,548.83	89.4053	2,548.83	89.7333	2,548.83	89.7737	2,548.83	89.8304	2,548.83	88.9945	2,548.83	88.0712	2,548.83	85.4552	2,548.83	84.5742	2,548.83	86.4591	2,548.83	86.7055	2,548.83	85.0286	2,548.83	85.8484	2,548.83	84.1259	2,548.83	83.0069	2,548.83	79.4068	2,548.83	75.9649	2,548.83	76.8705	2,548.83	76.6824	2,548.83	76.1591	2,548.83	75.3059	2,548.83	70.2078	2,548.83	72.0334	2,548.83	73.944	2,548.83	69.6664	2,548.83	73.791	2,548.83	73.6803	2,548.83	74.4675	2,548.83	70.2234	2,548.83	70.6456	2,548.83	64.837	2,548.83	65.8486	2,548.83	69.9115	2,548.83	69.7539	2,548.83	70.8481	2,548.83	67.4373
2,639.65	90.7032	2,639.65	89.9591	2,639.65	90.4282	2,639.65	89.0484	2,639.65	89.6706	2,639.65	89.261	2,639.65	88.5315	2,639.65	85.3659	2,639.65	85.4183	2,639.65	85.3004	2,639.65	85.3623	2,639.65	85.149	2,639.65	85.37	2,639.65	83.4411	2,639.65	82.6902	2,639.65	78.6711	2,639.65	78.7361	2,639.65	78.1741	2,639.65	76.2135	2,639.65	67.6985	2,639.65	75.2322	2,639.65	72.9093	2,639.65	72.8087	2,639.65	70.968	2,639.65	70.4737	2,639.65	73.2092	2,639.65	72.1131	2,639.65	74.1692	2,639.65	73.8351	2,639.65	67.7031	2,639.65	64.1048	2,639.65	67.5256	2,639.65	65.8726	2,639.65	66.9141	2,639.65	66.5694	2,639.65	66.2844
2,731.93	90.6353	2,731.93	90.0754	2,731.93	90.5429	2,731.93	89.9415	2,731.93	90.5144	2,731.93	88.1233	2,731.93	88.851	2,731.93	86.3051	2,731.93	85.8873	2,731.93	84.1109	2,731.93	85.3619	2,731.93	85.2451	2,731.93	85.1011	2,731.93	81.9549	2,731.93	81.436	2,731.93	80.8694	2,731.93	78.9302	2,731.93	72.0776	2,731.93	73.7321	2,731.93	71.4408	2,731.93	75.3058	2,731.93	70.9364	2,731.93	70.5336	2,731.93	70.8428	2,731.93	70.3554	2,731.93	73.8718	2,731.93	69.0288	2,731.93	73.805	2,731.93	73.966	2,731.93	64.8899	2,731.93	65.1032	2,731.93	67.7312	2,731.93	66.9673	2,731.93	68.0033	2,731.93	66.8014	2,731.93	67.6766
2,828.61	91.1464	2,828.61	90.4161	2,828.61	90.3495	2,828.61	90.0295	2,828.61	89.9882	2,828.61	88.5475	2,828.61	88.8337	2,828.61	85.8452	2,828.61	85.2427	2,828.61	84.4261	2,828.61	84.5613	2,828.61	84.0712	2,828.61	83.141	2,828.61	82.9734	2,828.61	82.6039	2,828.61	79.8785	2,828.61	79.6177	2,828.61	75.0594	2,828.61	76.393	2,828.61	75.1327	2,828.61	73.2335	2,828.61	68.9121	2,828.61	69.6916	2,828.61	73.4662	2,828.61	69.4752	2,828.61	73.2916	2,828.61	72.427	2,828.61	73.4578	2,828.61	73.3034	2,828.61	62.222	2,828.61	60.9999	2,828.61	67.5154	2,828.61	68.1405	2,828.61	65.3282	2,828.61	63.9223	2,828.61	68.8413
2,928.22	91.2255	2,928.22	90.9222	2,928.22	91.1906	2,928.22	89.757	2,928.22	89.5477	2,928.22	89.3751	2,928.22	88.8031	2,928.22	85.7016	2,928.22	85.2584	2,928.22	83.884	2,928.22	84.601	2,928.22	83.6591	2,928.22	83.289	2,928.22	82.4575	2,928.22	80.523	2,928.22	78.3085	2,928.22	80.5968	2,928.22	77.2983	2,928.22	76.9733	2,928.22	69.8421	2,928.22	63.4656	2,928.22	70.1877	2,928.22	54.9441	2,928.22	71.8494	2,928.22	65.924	2,928.22	73.2527	2,928.22	70.9678	2,928.22	72.0844	2,928.22	73.514	2,928.22	57.9602	2,928.22	61.5	2,928.22	68.1638	2,928.22	66.4553	2,928.22	63.0959	2,928.22	64.1961	2,928.22	66.1295
3,030.76	90.7859	3,030.76	90.6254	3,030.76	90.8242	3,030.76	89.4551	3,030.76	89.5901	3,030.76	89.1871	3,030.76	89.6037	3,030.76	85.6377	3,030.76	84.9027	3,030.76	82.5107	3,030.76	83.3919	3,030.76	84.4043	3,030.76	83.043	3,030.76	82.428	3,030.76	81.0513	3,030.76	79.0619	3,030.76	78.7673	3,030.76	74.8961	3,030.76	71.2631	3,030.76	70.6017	3,030.76	70.9496	3,030.76	69.691	3,030.76	71.6589	3,030.76	70.1226	3,030.76	62.7074	3,030.76	72.2477	3,030.76	72.2037	3,030.76	72.1488	3,030.76	68.3719	3,030.76	59.5102	3,030.76	55.4265	3,030.76	67.142	3,030.76	66.6402	3,030.76	66.7002	3,030.76	62.521	3,030.76	66.0376
3,137.7	91.6021	3,137.7	91.1165	3,137.7	90.8268	3,137.7	89.684	3,137.7	89.0538	3,137.7	88.6519	3,137.7	89.0658	3,137.7	85.1549	3,137.7	85.1633	3,137.7	81.8049	3,137.7	82.3627	3,137.7	83.5583	3,137.7	83.93	3,137.7	82.256	3,137.7	80.9916	3,137.7	79.3873	3,137.7	77.766	3,137.7	72.9538	3,137.7	70.7584	3,137.7	72.3812	3,137.7	74.5769	3,137.7	66.4674	3,137.7	71.8587	3,137.7	69.5497	3,137.7	68.385	3,137.7	73.4744	3,137.7	72.0057	3,137.7	70.9338	3,137.7	67.5455	3,137.7	57.8918	3,137.7	57.797	3,137.7	68.2051	3,137.7	67.5604	3,137.7	64.582	3,137.7	63.0835	3,137.7	64.4809
3,249.02	91.5438	3,249.02	90.8483	3,249.02	90.8286	3,249.02	89.6618	3,249.02	89.2556	3,249.02	89.0145	3,249.02	87.8883	3,249.02	84.747	3,249.02	84.8357	3,249.02	82.8124	3,249.02	82.5075	3,249.02	82.401	3,249.02	83.3391	3,249.02	81.7034	3,249.02	82.424	3,249.02	76.5978	3,249.02	79.3833	3,249.02	73.6753	3,249.02	75.4145	3,249.02	70.8512	3,249.02	75.9059	3,249.02	65.288	3,249.02	70.0188	3,249.02	69.2674	3,249.02	67.7543	3,249.02	72.7758	3,249.02	71.4273	3,249.02	69.4259	3,249.02	63.6176	3,249.02	54.8721	3,249.02	54.1364	3,249.02	68.8181	3,249.02	66.8045	3,249.02	66.12	3,249.02	62.9576	3,249.02	65.619
3,363.28	90.9264	3,363.28	90.4125	3,363.28	90.7859	3,363.28	88.9203	3,363.28	89.3387	3,363.28	88.6509	3,363.28	87.4343	3,363.28	84.665	3,363.28	84.1205	3,363.28	80.3518	3,363.28	80.0387	3,363.28	82.9137	3,363.28	81.8629	3,363.28	80.9518	3,363.28	82.8539	3,363.28	79.7881	3,363.28	78.8839	3,363.28	75.9876	3,363.28	77.84	3,363.28	70.5953	3,363.28	78.2119	3,363.28	68.0599	3,363.28	69.614	3,363.28	69.7558	3,363.28	63.3506	3,363.28	72.2081	3,363.28	72.2151	3,363.28	69.0518	3,363.28	62.5973	3,363.28	56.9263	3,363.28	57.7632	3,363.28	66.7833	3,363.28	68.075	3,363.28	63.8083	3,363.28	62.211	3,363.28	61.8053
3,481.93	91.2651	3,481.93	90.5831	3,481.93	90.0594	3,481.93	89.5049	3,481.93	89.3047	3,481.93	87.8048	3,481.93	87.3111	3,481.93	85.3036	3,481.93	84.0783	3,481.93	79.6108	3,481.93	78.5583	3,481.93	81.9344	3,481.93	82.9564	3,481.93	82.0188	3,481.93	83.4833	3,481.93	79.829	3,481.93	79.8866	3,481.93	74.7087	3,481.93	79.8011	3,481.93	68.7339	3,481.93	78.6622	3,481.93	67.9753	3,481.93	72.2629	3,481.93	68.8556	3,481.93	59.1252	3,481.93	72.9889	3,481.93	69.4924	3,481.93	68.9653	3,481.93	63.222	3,481.93	60.5905	3,481.93	63.3728	3,481.93	67.2455	3,481.93	67.8384	3,481.93	59.0306	3,481.93	60.9278	3,481.93	63.8756
3,604.98	91.0448	3,604.98	90.2953	3,604.98	90.0804	3,604.98	89.3909	3,604.98	89.133	3,604.98	87.3542	3,604.98	87.1216	3,604.98	84.8976	3,604.98	84.5109	3,604.98	79.6428	3,604.98	78.6987	3,604.98	82.0874	3,604.98	83.8364	3,604.98	82.6952	3,604.98	83.5148	3,604.98	78.2039	3,604.98	80.382	3,604.98	76.7417	3,604.98	77.4194	3,604.98	68.1054	3,604.98	74.0825	3,604.98	69.0659	3,604.98	69.4936	3,604.98	70.9825	3,604.98	61.8807	3,604.98	71.831	3,604.98	69.6897	3,604.98	65.0126	3,604.98	61.4575	3,604.98	61.2852	3,604.98	60.1803	3,604.98	67.9185	3,604.98	68.1835	3,604.98	59.1806	3,604.98	59.185	3,604.98	64.2676
3,732.42	90.2107	3,732.42	90.215	3,732.42	90.0453	3,732.42	88.581	3,732.42	88.4212	3,732.42	87.1777	3,732.42	87.376	3,732.42	84.8843	3,732.42	84.6103	3,732.42	79.1382	3,732.42	81.3562	3,732.42	81.6439	3,732.42	83.896	3,732.42	80.9983	3,732.42	83.1808	3,732.42	78.8485	3,732.42	78.9145	3,732.42	71.6798	3,732.42	72.1176	3,732.42	67.1874	3,732.42	70.9563	3,732.42	69.3661	3,732.42	73.5756	3,732.42	69.587	3,732.42	64.4622	3,732.42	71.0697	3,732.42	67.391	3,732.42	65.315	3,732.42	63.0663	3,732.42	58.1893	3,732.42	63.0257	3,732.42	65.0184	3,732.42	66.2263	3,732.42	56.4915	3,732.42	48.8521	3,732.42	64.0763
3,864.26	90.2212	3,864.26	90.5113	3,864.26	90.4483	3,864.26	88.0695	3,864.26	87.5875	3,864.26	87.0245	3,864.26	87.1854	3,864.26	84.8254	3,864.26	85.6561	3,864.26	81.2833	3,864.26	82.1642	3,864.26	81.124	3,864.26	83.2443	3,864.26	81.6441	3,864.26	80.6851	3,864.26	76.0984	3,864.26	77.95	3,864.26	74.1417	3,864.26	61.5928	3,864.26	68.1969	3,864.26	70.0422	3,864.26	64.7587	3,864.26	73.8542	3,864.26	67.3761	3,864.26	67.7215	3,864.26	69.4018	3,864.26	66.0832	3,864.26	61.3624	3,864.26	60.7502	3,864.26	60.4779	3,864.26	62.7107	3,864.26	65.6607	3,864.26	65.9209	3,864.26	60.3119	3,864.26	47.179	3,864.26	63.3492
4,000.49	89.8561	4,000.49	90.4293	4,000.49	90.2204	4,000.49	88.622	4,000.49	87.7841	4,000.49	87.1305	4,000.49	86.334	4,000.49	84.9499	4,000.49	85.8099	4,000.49	80.2774	4,000.49	81.8876	4,000.49	79.9284	4,000.49	81.9995	4,000.49	79.9656	4,000.49	80.3548	4,000.49	78.6665	4,000.49	77.5223	4,000.49	72.7778	4,000.49	69.9111	4,000.49	68.2419	4,000.49	50.7179	4,000.49	66.5605	4,000.49	68.2166	4,000.49	67.5089	4,000.49	63.3652	4,000.49	68.0614	4,000.49	65.7957	4,000.49	64.2702	4,000.49	53.3409	4,000.49	64.0385	4,000.49	62.418	4,000.49	64.7275	4,000.49	67.3605	4,000.49	50.804	4,000.49	46.6826	4,000.49	64.5708
4,141.11	90.2489	4,141.11	90.2929	4,141.11	90.0102	4,141.11	87.4224	4,141.11	87.8966	4,141.11	86.4748	4,141.11	86.2736	4,141.11	85.2201	4,141.11	85.4888	4,141.11	80.4721	4,141.11	81.1646	4,141.11	79.8063	4,141.11	81.1446	4,141.11	81.4965	4,141.11	79.6123	4,141.11	76.2117	4,141.11	71.0427	4,141.11	72.8428	4,141.11	69.364	4,141.11	68.7049	4,141.11	69.242	4,141.11	65.4276	4,141.11	68.1466	4,141.11	65.3151	4,141.11	58.7857	4,141.11	67.9911	4,141.11	64.0754	4,141.11	59.3986	4,141.11	21.3635	4,141.11	61.5129	4,141.11	60.494	4,141.11	60.2488	4,141.11	63.0807	4,141.11	53.0163	4,141.11	57.3368	4,141.11	61.9425
4,287.6	90.6434	4,287.6	89.7649	4,287.6	89.6029	4,287.6	88.966	4,287.6	88.0367	4,287.6	85.9704	4,287.6	85.6931	4,287.6	85.5384	4,287.6	85.2275	4,287.6	80.9266	4,287.6	80.9124	4,287.6	80.0922	4,287.6	80.3595	4,287.6	79.3792	4,287.6	75.7755	4,287.6	77.3275	4,287.6	74.6947	4,287.6	70.3092	4,287.6	69.1985	4,287.6	66.3743	4,287.6	67.1032	4,287.6	65.6783	4,287.6	73.9376	4,287.6	65.2232	4,287.6	48.9354	4,287.6	65.4747	4,287.6	64.7546	4,287.6	61.7453	4,287.6	47.9863	4,287.6	60.0539	4,287.6	64.3033	4,287.6	62.4988	4,287.6	60.9107	4,287.6	56.5544	4,287.6	54.042	4,287.6	62.0852
4,438.48	90.6521	4,438.48	90.0562	4,438.48	89.9173	4,438.48	88.3154	4,438.48	88.7841	4,438.48	85.1268	4,438.48	85.4669	4,438.48	84.6556	4,438.48	85.2887	4,438.48	80.5006	4,438.48	81.5117	4,438.48	78.487	4,438.48	78.3086	4,438.48	78.5951	4,438.48	75.8011	4,438.48	73.2006	4,438.48	76.339	4,438.48	71.068	4,438.48	74.3709	4,438.48	66.9565	4,438.48	72.8405	4,438.48	59.1439	4,438.48	70.8613	4,438.48	61.7732	4,438.48	51.7379	4,438.48	63.2489	4,438.48	60.2946	4,438.48	60.5025	4,438.48	57.4073	4,438.48	56.8564	4,438.48	62.8487	4,438.48	63.4652	4,438.48	61.2829	4,438.48	51.0969	4,438.48	54.1161	4,438.48	60.1058
4,595.21	91.0439	4,595.21	89.7028	4,595.21	90.2392	4,595.21	88.4389	4,595.21	88.8777	4,595.21	85.5996	4,595.21	85.8162	4,595.21	84.6237	4,595.21	85.0031	4,595.21	81.0557	4,595.21	80.8545	4,595.21	77.0385	4,595.21	75.1977	4,595.21	77.6368	4,595.21	79.3167	4,595.21	76.5769	4,595.21	79.3678	4,595.21	69.2143	4,595.21	72.9509	4,595.21	69.3023	4,595.21	69.9488	4,595.21	65.1326	4,595.21	69.2767	4,595.21	63.3162	4,595.21	57.8644	4,595.21	60.7001	4,595.21	58.5426	4,595.21	58.4067	4,595.21	53.2818	4,595.21	60.9802	4,595.21	61.0345	4,595.21	63.9766	4,595.21	64.3772	4,595.21	45.7346	4,595.21	51.3349	4,595.21	62.3018
4,756.35	90.5552	4,756.35	89.9991	4,756.35	90.2482	4,756.35	87.8759	4,756.35	89.0444	4,756.35	86.0917	4,756.35	86.0264	4,756.35	84.3183	4,756.35	85.1993	4,756.35	80.3319	4,756.35	80.0755	4,756.35	75.9845	4,756.35	76.0831	4,756.35	79.8151	4,756.35	82.0443	4,756.35	76.2401	4,756.35	78.1304	4,756.35	73.6263	4,756.35	75.0557	4,756.35	69.7862	4,756.35	64.5531	4,756.35	60.2343	4,756.35	61.6122	4,756.35	61.4803	4,756.35	59.3435	4,756.35	59.4655	4,756.35	63.0361	4,756.35	62.0576	4,756.35	57.4722	4,756.35	58.8588	4,756.35	62.1828	4,756.35	64.4464	4,756.35	63.7994	4,756.35	51.1944	4,756.35	51.3352	4,756.35	62.1972
4,924.8	91.4486	4,924.8	90.2034	4,924.8	90.187	4,924.8	88.1491	4,924.8	88.1829	4,924.8	87.0195	4,924.8	86.8656	4,924.8	85.8647	4,924.8	84.8645	4,924.8	81.3999	4,924.8	79.8533	4,924.8	76.8658	4,924.8	77.0329	4,924.8	79.1543	4,924.8	81.6612	4,924.8	77.4294	4,924.8	75.501	4,924.8	72.9242	4,924.8	69.5881	4,924.8	70.9188	4,924.8	69.5611	4,924.8	57.9467	4,924.8	62.0265	4,924.8	59.877	4,924.8	61.6872	4,924.8	52.9062	4,924.8	64.6342	4,924.8	63.0336	4,924.8	58.6741	4,924.8	61.9408	4,924.8	53.5785	4,924.8	65.2671	4,924.8	62.021	4,924.8	43.9137	4,924.8	48.8144	4,924.8	62.6467
5,097.66	90.7937	5,097.66	89.8657	5,097.66	89.8176	5,097.66	89.02	5,097.66	88.4941	5,097.66	87.5061	5,097.66	86.3902	5,097.66	85.8329	5,097.66	84.1042	5,097.66	82.7378	5,097.66	79.9876	5,097.66	77.7905	5,097.66	76.9294	5,097.66	80.7093	5,097.66	79.1819	5,097.66	77.9953	5,097.66	74.0171	5,097.66	75.5954	5,097.66	69.4459	5,097.66	70.8615	5,097.66	65.3024	5,097.66	58.4713	5,097.66	63.3825	5,097.66	63.8449	5,097.66	55.1743	5,097.66	64.1533	5,097.66	63.5542	5,097.66	64.0454	5,097.66	41.0836	5,097.66	63.4635	5,097.66	52.4584	5,097.66	62.7383	5,097.66	57.8648	5,097.66	37.8457	5,097.66	51.6324	5,097.66	62.8148
5,277.83	91.4874	5,277.83	90.7572	5,277.83	89.398	5,277.83	89.5333	5,277.83	87.4639	5,277.83	88.25	5,277.83	85.7403	5,277.83	86.4591	5,277.83	82.4167	5,277.83	83.3903	5,277.83	80.4838	5,277.83	77.4097	5,277.83	74.961	5,277.83	81.2431	5,277.83	77.3235	5,277.83	78.7636	5,277.83	71.3282	5,277.83	74.6152	5,277.83	71.7208	5,277.83	69.3787	5,277.83	64.8877	5,277.83	57.5352	5,277.83	60.7388	5,277.83	65.7711	5,277.83	52.087	5,277.83	63.4239	5,277.83	60.6531	5,277.83	63.0143	5,277.83	55.0217	5,277.83	65.1355	5,277.83	59.8607	5,277.83	65.5256	5,277.83	60.7283	5,277.83	55.0104	5,277.83	56.8866	5,277.83	60.7491
5,463.87	90.4211	5,463.87	90.0557	5,463.87	88.6347	5,463.87	89.817	5,463.87	87.6057	5,463.87	88.6886	5,463.87	85.6418	5,463.87	85.7643	5,463.87	82.189	5,463.87	84.3301	5,463.87	78.8677	5,463.87	76.9405	5,463.87	75.1106	5,463.87	80.7117	5,463.87	74.4218	5,463.87	78.4399	5,463.87	72.9186	5,463.87	74.9527	5,463.87	68.2779	5,463.87	71.5774	5,463.87	68.3491	5,463.87	48.8888	5,463.87	66.5984	5,463.87	62.4658	5,463.87	52.1275	5,463.87	60.7782	5,463.87	53.117	5,463.87	59.5491	5,463.87	52.5471	5,463.87	63.8041	5,463.87	58.1137	5,463.87	60.584	5,463.87	55.2223	5,463.87	49.6096	5,463.87	58.1595	5,463.87	60.9488
5,657.23	90.1803	5,657.23	90.7395	5,657.23	89.2734	5,657.23	89.92	5,657.23	87.4124	5,657.23	88.1742	5,657.23	85.62	5,657.23	85.8225	5,657.23	82.9766	5,657.23	83.6608	5,657.23	81.1403	5,657.23	77.7815	5,657.23	74.8099	5,657.23	79.4445	5,657.23	75.4773	5,657.23	76.9824	5,657.23	72.1517	5,657.23	73.2258	5,657.23	68.9485	5,657.23	65.8515	5,657.23	63.9192	5,657.23	55.8416	5,657.23	62.7523	5,657.23	64.6763	5,657.23	57.4079	5,657.23	62.5104	5,657.23	46.7732	5,657.23	59.5431	5,657.23	57.3825	5,657.23	63.2948	5,657.23	51.6638	5,657.23	59.4531	5,657.23	56.3437	5,657.23	53.7091	5,657.23	56.7729	5,657.23	61.1855
5,856.45	90.2809	5,856.45	90.0918	5,856.45	88.8933	5,856.45	89.1907	5,856.45	88.3064	5,856.45	88.005	5,856.45	85.8659	5,856.45	85.2073	5,856.45	83.0221	5,856.45	83.6009	5,856.45	82.792	5,856.45	77.0903	5,856.45	74.917	5,856.45	78.4455	5,856.45	75.174	5,856.45	76.5874	5,856.45	71.8609	5,856.45	73.5048	5,856.45	73.8836	5,856.45	69.3423	5,856.45	59.3104	5,856.45	56.7511	5,856.45	43.1594	5,856.45	53.8665	5,856.45	53.9479	5,856.45	54.8116	5,856.45	54.5362	5,856.45	46.5493	5,856.45	54.4937	5,856.45	61.886	5,856.45	57.8883	5,856.45	53.2704	5,856.45	57.3902	5,856.45	50.7588	5,856.45	47.6525	5,856.45	59.1103
6,062.99	90.3958	6,062.99	89.6099	6,062.99	89.3514	6,062.99	89.5303	6,062.99	88.3459	6,062.99	87.3386	6,062.99	85.014	6,062.99	85.0219	6,062.99	83.9224	6,062.99	83.3697	6,062.99	83.8529	6,062.99	77.6519	6,062.99	75.9818	6,062.99	76.8137	6,062.99	77.504	6,062.99	75.4576	6,062.99	74.7103	6,062.99	70.3245	6,062.99	73.318	6,062.99	63.321	6,062.99	64.1807	6,062.99	63.7234	6,062.99	59.2071	6,062.99	62.7918	6,062.99	49.7539	6,062.99	63.8217	6,062.99	52.5947	6,062.99	53.9704	6,062.99	54.013	6,062.99	58.6794	6,062.99	58.0016	6,062.99	44.143	6,062.99	53.6583	6,062.99	41.9443	6,062.99	46.6145	6,062.99	58.8622
6,276.86	89.9485	6,276.86	90.0981	6,276.86	89.3504	6,276.86	89.3187	6,276.86	88.4577	6,276.86	87.0788	6,276.86	85.8428	6,276.86	84.5505	6,276.86	84.5821	6,276.86	83.175	6,276.86	83.9088	6,276.86	77.434	6,276.86	75.5707	6,276.86	75.6315	6,276.86	77.4871	6,276.86	75.1048	6,276.86	76.5248	6,276.86	71.8398	6,276.86	74.0548	6,276.86	65.8451	6,276.86	67.5459	6,276.86	59.5666	6,276.86	64.2643	6,276.86	61.5097	6,276.86	54.5797	6,276.86	58.96	6,276.86	44.8213	6,276.86	41.3077	6,276.86	51.635	6,276.86	58.4094	6,276.86	56.3367	6,276.86	52.0845	6,276.86	57.0837	6,276.86	32.7458	6,276.86	48.7329	6,276.86	54.9092
6,498.05	89.5524	6,498.05	89.8939	6,498.05	89.8534	6,498.05	89.0835	6,498.05	89.0825	6,498.05	87.369	6,498.05	86.3922	6,498.05	84.6184	6,498.05	84.7309	6,498.05	83.1446	6,498.05	82.9767	6,498.05	76.6238	6,498.05	76.4312	6,498.05	75.1687	6,498.05	75.7911	6,498.05	75.1932	6,498.05	77.7927	6,498.05	71.254	6,498.05	71.9078	6,498.05	61.7439	6,498.05	67.3673	6,498.05	65.1595	6,498.05	66.7381	6,498.05	62.0464	6,498.05	58.8836	6,498.05	56.2366	6,498.05	54.6864	6,498.05	45.1114	6,498.05	51.9546	6,498.05	58.5575	6,498.05	57.1013	6,498.05	53.4187	6,498.05	62.5368	6,498.05	47.281	6,498.05	48.7657	6,498.05	55.5124
6,726.56	89.7152	6,726.56	89.738	6,726.56	89.8446	6,726.56	89.1058	6,726.56	88.534	6,726.56	86.9866	6,726.56	86.9949	6,726.56	84.6402	6,726.56	84.9684	6,726.56	81.9797	6,726.56	81.6263	6,726.56	76.4463	6,726.56	77.0356	6,726.56	72.974	6,726.56	77.5562	6,726.56	74.8726	6,726.56	75.8455	6,726.56	70.6498	6,726.56	68.0904	6,726.56	63.0865	6,726.56	65.0452	6,726.56	63.7129	6,726.56	63.8209	6,726.56	62.6894	6,726.56	55.8614	6,726.56	55.1236	6,726.56	59.23	6,726.56	46.8651	6,726.56	51.042	6,726.56	48.581	6,726.56	55.7276	6,726.56	59.4882	6,726.56	62.2423	6,726.56	36.1518	6,726.56	49.0002	6,726.56	58.6861
6,963.87	89.8102	6,963.87	89.8814	6,963.87	89.9454	6,963.87	89.0054	6,963.87	88.7931	6,963.87	86.8259	6,963.87	86.9609	6,963.87	84.0274	6,963.87	83.9205	6,963.87	81.8652	6,963.87	81.6291	6,963.87	76.7153	6,963.87	77.9748	6,963.87	72.7688	6,963.87	75.1385	6,963.87	74.2345	6,963.87	70.9048	6,963.87	67.6493	6,963.87	63.8504	6,963.87	58.296	6,963.87	65.1609	6,963.87	65.7085	6,963.87	66.0053	6,963.87	62.9088	6,963.87	57.8051	6,963.87	49.5648	6,963.87	52.4296	6,963.87	55.6724	6,963.87	50.8887	6,963.87	46.6518	6,963.87	52.4263	6,963.87	57.6359	6,963.87	57.6681	6,963.87	50.9985	6,963.87	40.3875	6,963.87	56.1151
7,209.96	89.2423	7,209.96	89.8997	7,209.96	89.8974	7,209.96	88.6999	7,209.96	88.7802	7,209.96	86.8186	7,209.96	86.7317	7,209.96	83.6049	7,209.96	83.7265	7,209.96	81.381	7,209.96	82.0862	7,209.96	75.9613	7,209.96	78.9837	7,209.96	70.6599	7,209.96	69.3094	7,209.96	72.7934	7,209.96	74.5278	7,209.96	68.0065	7,209.96	69.3615	7,209.96	60.1675	7,209.96	63.1391	7,209.96	63.4843	7,209.96	69.6463	7,209.96	61.6374	7,209.96	61.1943	7,209.96	43.3033	7,209.96	54.2581	7,209.96	57.6453	7,209.96	48.593	7,209.96	51.7746	7,209.96	52.8397	7,209.96	55.9094	7,209.96	58.2966	7,209.96	38.7124	7,209.96	39.9208	7,209.96	56.0263
7,464.84	89.6099	7,464.84	90.0163	7,464.84	90.0719	7,464.84	88.7519	7,464.84	88.5692	7,464.84	86.4637	7,464.84	86.5234	7,464.84	83.5241	7,464.84	83.7875	7,464.84	81.0216	7,464.84	81.5998	7,464.84	75.7672	7,464.84	77.2964	7,464.84	71.6338	7,464.84	68.2345	7,464.84	71.2187	7,464.84	76.1073	7,464.84	65.5507	7,464.84	68.18	7,464.84	56.5245	7,464.84	60.7205	7,464.84	63.9058	7,464.84	69.0754	7,464.84	62.2469	7,464.84	59.8456	7,464.84	51.6893	7,464.84	56.4962	7,464.84	60.0143	7,464.84	50.0902	7,464.84	42.0518	7,464.84	42.873	7,464.84	50.9344	7,464.84	50.4124	7,464.84	50.6663	7,464.84	40.1764	7,464.84	52.6163
7,727.05	89.8698	7,727.05	90.1117	7,727.05	90.3897	7,727.05	88.6502	7,727.05	88.5698	7,727.05	86.7999	7,727.05	86.5859	7,727.05	83.5836	7,727.05	84.1745	7,727.05	81.3512	7,727.05	81.6205	7,727.05	75.9206	7,727.05	75.9505	7,727.05	68.9978	7,727.05	73.6679	7,727.05	71.9464	7,727.05	75.3107	7,727.05	64.7855	7,727.05	69.87	7,727.05	60.7912	7,727.05	61.9511	7,727.05	67.8196	7,727.05	68.3698	7,727.05	61.2551	7,727.05	62.04	7,727.05	50.2323	7,727.05	57.1751	7,727.05	61.1332	7,727.05	45.7667	7,727.05	43.4601	7,727.05	46.8442	7,727.05	47.5102	7,727.05	46.6956	7,727.05	50.9223	7,727.05	49.7094	7,727.05	51.4522
7,999.51	90.0884	7,999.51	90.3929	7,999.51	90.3565	7,999.51	88.727	7,999.51	88.7799	7,999.51	86.7545	7,999.51	86.2862	7,999.51	83.7915	7,999.51	83.2287	7,999.51	80.8313	7,999.51	81.5954	7,999.51	75.4364	7,999.51	74.1887	7,999.51	64.824	7,999.51	74.3458	7,999.51	72.7695	7,999.51	72.1718	7,999.51	66.0195	7,999.51	67.0399	7,999.51	56.1913	7,999.51	64.0783	7,999.51	60.505	7,999.51	65.64	7,999.51	59.9974	7,999.51	51.2719	7,999.51	39.3643	7,999.51	45.1336	7,999.51	56.6126	7,999.51	51.2892	7,999.51	54.7443	7,999.51	52.7682	7,999.51	46.4067	7,999.51	56.1826	7,999.51	50.6724	7,999.51	48.3219	7,999.51	50.9528
8,282.23	90.4387	8,282.23	90.2877	8,282.23	90.2556	8,282.23	89.0356	8,282.23	89.1771	8,282.23	86.4576	8,282.23	85.8159	8,282.23	83.2265	8,282.23	81.3954	8,282.23	80.6019	8,282.23	81.2455	8,282.23	74.7266	8,282.23	75.049	8,282.23	64.5626	8,282.23	70.1107	8,282.23	72.049	8,282.23	71.3349	8,282.23	66.175	8,282.23	67.2292	8,282.23	59.5307	8,282.23	47.8487	8,282.23	67.3004	8,282.23	64.3963	8,282.23	61.3811	8,282.23	57.1317	8,282.23	54.9256	8,282.23	45.1656	8,282.23	58.4619	8,282.23	51.8198	8,282.23	56.4956	8,282.23	55.6144	8,282.23	48.0592	8,282.23	54.1911	8,282.23	52.809	8,282.23	48.3854	8,282.23	51.854
8,573.73	90.6474	8,573.73	90.4492	8,573.73	90.0568	8,573.73	89.104	8,573.73	88.867	8,573.73	86.3497	8,573.73	86.0984	8,573.73	82.7785	8,573.73	83.3123	8,573.73	79.229	8,573.73	79.4002	8,573.73	75.6478	8,573.73	76.2458	8,573.73	66.9814	8,573.73	65.7422	8,573.73	71.6157	8,573.73	72.139	8,573.73	63.4614	8,573.73	63.0834	8,573.73	63.2465	8,573.73	59.8932	8,573.73	66.9249	8,573.73	66.511	8,573.73	57.4825	8,573.73	49.3169	8,573.73	56.6529	8,573.73	49.7234	8,573.73	57.6656	8,573.73	56.2848	8,573.73	58.1821	8,573.73	54.2993	8,573.73	49.1237	8,573.73	54.9241	8,573.73	52.9206	8,573.73	50.0124	8,573.73	49.5602
8,876.95	90.8211	8,876.95	90.3822	8,876.95	90.1586	8,876.95	89.0761	8,876.95	88.826	8,876.95	86.1167	8,876.95	86.1811	8,876.95	82.9167	8,876.95	82.9516	8,876.95	77.8245	8,876.95	78.9667	8,876.95	76.396	8,876.95	77.7206	8,876.95	69.1843	8,876.95	70.2626	8,876.95	70.3045	8,876.95	73.4997	8,876.95	63.3606	8,876.95	67.9579	8,876.95	61.1413	8,876.95	64.3363	8,876.95	61.9838	8,876.95	66.1352	8,876.95	58.5572	8,876.95	54.7775	8,876.95	53.8083	8,876.95	55.7388	8,876.95	55.6543	8,876.95	46.9129	8,876.95	54.7258	8,876.95	50.7823	8,876.95	52.5989	8,876.95	54.6877	8,876.95	54.154	8,876.95	51.2781	8,876.95	46.0992
9,188.96	91.1125	9,188.96	90.1243	9,188.96	89.8435	9,188.96	89.1075	9,188.96	88.6832	9,188.96	85.9882	9,188.96	85.5658	9,188.96	82.6118	9,188.96	82.3358	9,188.96	77.6479	9,188.96	81.5137	9,188.96	77.3018	9,188.96	77.0333	9,188.96	69.4415	9,188.96	72.9421	9,188.96	70.4772	9,188.96	71.6264	9,188.96	62.0591	9,188.96	67.8129	9,188.96	58.5845	9,188.96	58.418	9,188.96	63.1547	9,188.96	65.9162	9,188.96	55.3778	9,188.96	59.2467	9,188.96	54.4793	9,188.96	51.8797	9,188.96	56.0028	9,188.96	45.6543	9,188.96	53.9918	9,188.96	52.9342	9,188.96	50.3553	9,188.96	53.8864	9,188.96	55.2318	9,188.96	48.8879	9,188.96	43.2472
9,514.16	90.7506	9,514.16	90.053	9,514.16	89.3859	9,514.16	88.913	9,514.16	88.529	9,514.16	86.2535	9,514.16	86.222	9,514.16	82.5589	9,514.16	82.7715	9,514.16	77.9859	9,514.16	82.2956	9,514.16	78.3232	9,514.16	75.0674	9,514.16	70.7386	9,514.16	73.325	9,514.16	71.2029	9,514.16	72.6736	9,514.16	65.1265	9,514.16	65.1319	9,514.16	63.6481	9,514.16	62.5658	9,514.16	64.3159	9,514.16	62.4705	9,514.16	54.0778	9,514.16	53.8018	9,514.16	57.9141	9,514.16	53.5968	9,514.16	50.0615	9,514.16	49.893	9,514.16	52.0546	9,514.16	54.049	9,514.16	51.2297	9,514.16	52.0757	9,514.16	57.0825	9,514.16	54.4441	9,514.16	46.8269
9,849.61	90.5829	9,849.61	89.4015	9,849.61	89.1188	9,849.61	88.6684	9,849.61	88.3717	9,849.61	86.4751	9,849.61	86.1772	9,849.61	81.9518	9,849.61	83.5479	9,849.61	80.1002	9,849.61	82.1733	9,849.61	77.655	9,849.61	76.9335	9,849.61	73.8747	9,849.61	75.0562	9,849.61	71.4279	9,849.61	71.9051	9,849.61	66.2091	9,849.61	67.6226	9,849.61	63.2684	9,849.61	63.4141	9,849.61	64.7024	9,849.61	66.2255	9,849.61	54.6016	9,849.61	58.0722	9,849.61	59.0552	9,849.61	50.2753	9,849.61	45.4004	9,849.61	49.1924	9,849.61	46.9056	9,849.61	52.0531	9,849.61	49.9314	9,849.61	53.1376	9,849.61	56.0789	9,849.61	55.3734	9,849.61	42.6619
10,196.8	90.4286	10,196.8	89.1513	10,196.8	88.9425	10,196.8	88.3462	10,196.8	88.1206	10,196.8	86.7237	10,196.8	86.3646	10,196.8	82.1087	10,196.8	84.4469	10,196.8	80.6587	10,196.8	81.682	10,196.8	77.9292	10,196.8	79.1395	10,196.8	75.1023	10,196.8	75.2654	10,196.8	70.716	10,196.8	71.9269	10,196.8	66.9253	10,196.8	66.5535	10,196.8	60.9604	10,196.8	53.8432	10,196.8	61.2232	10,196.8	67.1282	10,196.8	53.1511	10,196.8	62.1414	10,196.8	57.0595	10,196.8	54.4532	10,196.8	50.2844	10,196.8	52.0484	10,196.8	38.1294	10,196.8	51.056	10,196.8	49.5383	10,196.8	53.5726	10,196.8	51.8039	10,196.8	51.583	10,196.8	45.4242
10,555.7	89.983	10,555.7	89.1279	10,555.7	88.4271	10,555.7	87.8406	10,555.7	88.0713	10,555.7	87.1312	10,555.7	87.0892	10,555.7	83.3721	10,555.7	84.4862	10,555.7	80.6114	10,555.7	82.5919	10,555.7	77.3179	10,555.7	78.8776	10,555.7	74.9406	10,555.7	76.4713	10,555.7	67.7034	10,555.7	70.5086	10,555.7	63.4699	10,555.7	64.323	10,555.7	58.7328	10,555.7	57.5094	10,555.7	56.1504	10,555.7	66.9817	10,555.7	49.3685	10,555.7	61.4264	10,555.7	52.6795	10,555.7	55.7157	10,555.7	50.2105	10,555.7	53.8992	10,555.7	49.4295	10,555.7	46.7631	10,555.7	49.9297	10,555.7	51.6352	10,555.7	49.2843	10,555.7	54.7615	10,555.7	51.253
10,927.7	89.1999	10,927.7	88.6054	10,927.7	88.2151	10,927.7	87.6978	10,927.7	88.3541	10,927.7	86.9129	10,927.7	87.4333	10,927.7	84.0505	10,927.7	85.4513	10,927.7	80.5258	10,927.7	83.71	10,927.7	77.6255	10,927.7	79.1973	10,927.7	73.8518	10,927.7	76.9467	10,927.7	62.2249	10,927.7	69.4697	10,927.7	62.5461	10,927.7	67.8938	10,927.7	58.2849	10,927.7	60.6623	10,927.7	52.4509	10,927.7	65.8823	10,927.7	54.8224	10,927.7	59.0962	10,927.7	48.5673	10,927.7	47.9799	10,927.7	57.2135	10,927.7	46.7087	10,927.7	56.1377	10,927.7	45.2493	10,927.7	46.9116	10,927.7	51.9213	10,927.7	51.1929	10,927.7	56.0993	10,927.7	52.0209
11,313	88.3517	11,313	87.997	11,313	87.9513	11,313	87.7669	11,313	88.6592	11,313	86.3758	11,313	87.9932	11,313	84.3849	11,313	86.167	11,313	80.729	11,313	84.6179	11,313	77.6973	11,313	79.9899	11,313	72.0643	11,313	76.2783	11,313	62.8707	11,313	66.7118	11,313	62.0141	11,313	55.3795	11,313	59.2565	11,313	54.9525	11,313	55.5284	11,313	67.7803	11,313	57.4357	11,313	56.5804	11,313	44.8955	11,313	44.8791	11,313	60.5538	11,313	49.7211	11,313	55.7759	11,313	52.1148	11,313	42.0429	11,313	49.3924	11,313	48.0756	11,313	53.2553	11,313	52.1825
11,712.9	88.155	11,712.9	87.6063	11,712.9	87.7927	11,712.9	87.4693	11,712.9	88.732	11,712.9	86.0817	11,712.9	88.2726	11,712.9	84.5844	11,712.9	86.0986	11,712.9	80.8913	11,712.9	85.1863	11,712.9	77.0144	11,712.9	80.8169	11,712.9	71.686	11,712.9	75.4941	11,712.9	65.8077	11,712.9	70.3608	11,712.9	62.3917	11,712.9	60.8048	11,712.9	60.5694	11,712.9	64.5691	11,712.9	59.2625	11,712.9	70.8403	11,712.9	60.5248	11,712.9	60.9819	11,712.9	51.1012	11,712.9	51.3862	11,712.9	58.588	11,712.9	55.2954	11,712.9	53.4498	11,712.9	49.094	11,712.9	48.5057	11,712.9	49.3174	11,712.9	54.8618	11,712.9	53.0848	11,712.9	53.3961
12,126	87.5324	12,126	87.2049	12,126	88.2985	12,126	87.3255	12,126	89.3033	12,126	86.6697	12,126	88.9674	12,126	84.064	12,126	86.1244	12,126	81.5058	12,126	84.1833	12,126	76.8877	12,126	82.6679	12,126	73.0834	12,126	72.3746	12,126	64.8968	12,126	70.0543	12,126	64.5609	12,126	60.0464	12,126	62.4209	12,126	63.9994	12,126	59.9603	12,126	71.7512	12,126	61.1914	12,126	56.5682	12,126	53.6168	12,126	52.3251	12,126	55.8678	12,126	53.3961	12,126	45.8214	12,126	44.6122	12,126	51.5328	12,126	46.3645	12,126	56.7333	12,126	56.2127	12,126	53.4208
12,553.7	87.2857	12,553.7	87.0148	12,553.7	88.7213	12,553.7	87.7908	12,553.7	89.4953	12,553.7	87.5815	12,553.7	89.365	12,553.7	83.8206	12,553.7	86.7265	12,553.7	81.187	12,553.7	83.0518	12,553.7	77.4092	12,553.7	81.5577	12,553.7	73.3667	12,553.7	72.7711	12,553.7	62.8491	12,553.7	64.3599	12,553.7	64.5039	12,553.7	58.4152	12,553.7	61.4167	12,553.7	63.1141	12,553.7	58.1823	12,553.7	71.8094	12,553.7	58.1451	12,553.7	58.5563	12,553.7	54.8896	12,553.7	51.6368	12,553.7	52.1534	12,553.7	46.1736	12,553.7	33.2541	12,553.7	50.3941	12,553.7	46.1287	12,553.7	47.276	12,553.7	56.5731	12,553.7	55.3144	12,553.7	52.1053
12,996.1	87.3171	12,996.1	87.9621	12,996.1	88.9235	12,996.1	88.1675	12,996.1	89.4681	12,996.1	87.8047	12,996.1	89.4412	12,996.1	83.7856	12,996.1	86.9185	12,996.1	80.0187	12,996.1	82.3366	12,996.1	78.2577	12,996.1	80.8402	12,996.1	72.8251	12,996.1	70.2849	12,996.1	55.5699	12,996.1	53.612	12,996.1	62.5952	12,996.1	56.1259	12,996.1	59.4673	12,996.1	65.6586	12,996.1	54.0534	12,996.1	72.4131	12,996.1	55.547	12,996.1	59.0352	12,996.1	49.3063	12,996.1	50.8772	12,996.1	45.6574	12,996.1	46.0674	12,996.1	46.5314	12,996.1	50.2578	12,996.1	48.79	12,996.1	47.5796	12,996.1	56.474	12,996.1	51.1121	12,996.1	52.1194
13,454.6	88.4621	13,454.6	89.0296	13,454.6	89.8129	13,454.6	88.0375	13,454.6	89.8093	13,454.6	87.2539	13,454.6	89.0673	13,454.6	83.7691	13,454.6	86.7125	13,454.6	79.9166	13,454.6	83.1034	13,454.6	77.1599	13,454.6	80.378	13,454.6	72.0752	13,454.6	66.3054	13,454.6	53.4515	13,454.6	58.5672	13,454.6	63.0011	13,454.6	63.9634	13,454.6	58.0154	13,454.6	65.231	13,454.6	54.2604	13,454.6	73.8095	13,454.6	56.3075	13,454.6	57.6907	13,454.6	45.4688	13,454.6	52.7538	13,454.6	40.4501	13,454.6	50.4286	13,454.6	53.0069	13,454.6	50.4424	13,454.6	53.9723	13,454.6	53.4282	13,454.6	55.6776	13,454.6	50.4107	13,454.6	54.0096
13,929.2	89.5485	13,929.2	89.6959	13,929.2	90.6221	13,929.2	88.6673	13,929.2	90.5932	13,929.2	87.086	13,929.2	89.0888	13,929.2	84.2055	13,929.2	87.0587	13,929.2	81.5165	13,929.2	82.9885	13,929.2	77.4619	13,929.2	78.2351	13,929.2	73.0192	13,929.2	63.4076	13,929.2	61.8565	13,929.2	64.1573	13,929.2	62.8061	13,929.2	53.2962	13,929.2	59.6602	13,929.2	68.1701	13,929.2	57.0224	13,929.2	75.2879	13,929.2	55.52	13,929.2	62.0534	13,929.2	48.368	13,929.2	52.9844	13,929.2	45.1257	13,929.2	45.3619	13,929.2	50.2901	13,929.2	45.71	13,929.2	50.2997	13,929.2	47.3474	13,929.2	54.1736	13,929.2	50.8771	13,929.2	52.6193
14,419.9	90.4806	14,419.9	90.2419	14,419.9	91.0079	14,419.9	89.4219	14,419.9	91.4248	14,419.9	87.8467	14,419.9	89.7717	14,419.9	85.0345	14,419.9	87.2123	14,419.9	82.6966	14,419.9	83.8842	14,419.9	78.759	14,419.9	76.6592	14,419.9	73.818	14,419.9	69.5649	14,419.9	62.1108	14,419.9	47.6547	14,419.9	64.0695	14,419.9	59.4957	14,419.9	59.0256	14,419.9	68.2922	14,419.9	54.474	14,419.9	76.2059	14,419.9	53.8923	14,419.9	63.0544	14,419.9	45.14	14,419.9	40.728	14,419.9	45.7653	14,419.9	33.1402	14,419.9	51.3147	14,419.9	42.8312	14,419.9	49.4505	14,419.9	50.9771	14,419.9	53.2831	14,419.9	53.3234	14,419.9	53.3489
14,928.2	91.3838	14,928.2	90.1103	14,928.2	91.5124	14,928.2	89.3941	14,928.2	91.5383	14,928.2	88.4402	14,928.2	90.1399	14,928.2	85.2729	14,928.2	87.3821	14,928.2	83.219	14,928.2	83.981	14,928.2	79.1093	14,928.2	74.0697	14,928.2	74.2789	14,928.2	66.6372	14,928.2	59.7051	14,928.2	65.6922	14,928.2	62.8561	14,928.2	59.3178	14,928.2	56.9633	14,928.2	67.8792	14,928.2	53.6565	14,928.2	75.3952	14,928.2	46.0099	14,928.2	58.7926	14,928.2	49.423	14,928.2	37.821	14,928.2	50.1874	14,928.2	49.5973	14,928.2	52.7295	14,928.2	42.7424	14,928.2	54.598	14,928.2	50.3006	14,928.2	53.1027	14,928.2	52.2579	14,928.2	51.9069
15,455.6	92.0623	15,455.6	90.0779	15,455.6	91.7356	15,455.6	89.1726	15,455.6	91.4964	15,455.6	88.4822	15,455.6	89.6645	15,455.6	84.8996	15,455.6	86.4166	15,455.6	82.2236	15,455.6	82.2651	15,455.6	76.7605	15,455.6	74.0811	15,455.6	73.659	15,455.6	69.4571	15,455.6	61.1282	15,455.6	63.4249	15,455.6	60.5811	15,455.6	51.4509	15,455.6	54.0149	15,455.6	66.2894	15,455.6	43.9101	15,455.6	74.8397	15,455.6	43.6238	15,455.6	59.6619	15,455.6	51.7398	15,455.6	50.3019	15,455.6	53.8416	15,455.6	50.4229	15,455.6	58.1196	15,455.6	43.6724	15,455.6	53.772	15,455.6	48.44	15,455.6	55.1643	15,455.6	47.9185	15,455.6	47.635
16,000.5	91.9993	16,000.5	90.0006	16,000.5	91.6944	16,000.5	89.11	16,000.5	91.364	16,000.5	88.3671	16,000.5	89.0546	16,000.5	84.1972	16,000.5	85.2416	16,000.5	81.089	16,000.5	80.3246	16,000.5	74.8864	16,000.5	73.3372	16,000.5	71.661	16,000.5	68.2221	16,000.5	61.6564	16,000.5	55.8879	16,000.5	58.4728	16,000.5	52.5839	16,000.5	50.8995	16,000.5	65.2118	16,000.5	47.2277	16,000.5	74.0678	16,000.5	48.2007	16,000.5	60.2092	16,000.5	53.2049	16,000.5	50.3575	16,000.5	52.6742	16,000.5	48.1201	16,000.5	57.302	16,000.5	33.1275	16,000.5	51.4797	16,000.5	43.1779	16,000.5	53.7114	16,000.5	50.5756	16,000.5	36.2651
16,564.5	91.4559	16,564.5	89.8659	16,564.5	91.3349	16,564.5	89.1131	16,564.5	91.1265	16,564.5	87.6315	16,564.5	88.0303	16,564.5	82.4721	16,564.5	83.0814	16,564.5	78.4622	16,564.5	78.012	16,564.5	70.8257	16,564.5	72.2759	16,564.5	66.3371	16,564.5	68.4348	16,564.5	56.9876	16,564.5	56.7066	16,564.5	53.4803	16,564.5	53.178	16,564.5	51.1567	16,564.5	63.9623	16,564.5	53.2285	16,564.5	73.0692	16,564.5	50.9175	16,564.5	59.0044	16,564.5	52.0171	16,564.5	44.4933	16,564.5	48.3428	16,564.5	43.8356	16,564.5	50.8091	16,564.5	39.8419	16,564.5	50.0365	16,564.5	47.0975	16,564.5	50.5777	16,564.5	47.349	16,564.5	41.37
17,148.9	90.7909	17,148.9	89.5423	17,148.9	90.6249	17,148.9	88.7503	17,148.9	90.3857	17,148.9	86.57	17,148.9	86.935	17,148.9	79.823	17,148.9	81.513	17,148.9	74.017	17,148.9	74.4138	17,148.9	61.7631	17,148.9	69.6057	17,148.9	61.4662	17,148.9	67.0434	17,148.9	55.3383	17,148.9	53.1357	17,148.9	51.5779	17,148.9	51.6776	17,148.9	49.6334	17,148.9	61.7755	17,148.9	52.9908	17,148.9	71.8877	17,148.9	49.633	17,148.9	57.8008	17,148.9	49.9258	17,148.9	44.4631	17,148.9	44.747	17,148.9	38.4422	17,148.9	49.6366	17,148.9	39.3884	17,148.9	41.6429	17,148.9	48.5253	17,148.9	48.4887	17,148.9	46.5547	17,148.9	49.3195
17,752.4	90.3173	17,752.4	89.3519	17,752.4	89.901	17,752.4	88.1523	17,752.4	89.3027	17,752.4	85.1	17,752.4	85.1613	17,752.4	76.5398	17,752.4	78.7848	17,752.4	69.7698	17,752.4	70.0058	17,752.4	59.7578	17,752.4	66.9267	17,752.4	55.9774	17,752.4	65.3711	17,752.4	59.0299	17,752.4	51.4867	17,752.4	47.8656	17,752.4	39.7119	17,752.4	49.5634	17,752.4	58.7349	17,752.4	52.5285	17,752.4	70.4356	17,752.4	49.8639	17,752.4	56.2684	17,752.4	46.0359	17,752.4	39.5758	17,752.4	41.6601	17,752.4	25.0831	17,752.4	49.0013	17,752.4	37.0114	17,752.4	46.7221	17,752.4	45.4014	17,752.4	49.8631	17,752.4	46.8986	17,752.4	51.8344
18,379.4	90.5109	18,379.4	89.3428	18,379.4	89.5709	18,379.4	87.3206	18,379.4	87.9826	18,379.4	82.9992	18,379.4	82.4225	18,379.4	72.2191	18,379.4	74.6842	18,379.4	64.1125	18,379.4	67.5316	18,379.4	66.2077	18,379.4	65.5895	18,379.4	55.669	18,379.4	65.3611	18,379.4	59.6116	18,379.4	52.6408	18,379.4	49.7392	18,379.4	46.4858	18,379.4	48.2724	18,379.4	56.0485	18,379.4	51.0745	18,379.4	69.2186	18,379.4	49.7531	18,379.4	54.986	18,379.4	47.6716	18,379.4	41.077	18,379.4	47.0522	18,379.4	38.7552	18,379.4	48.5385	18,379.4	39.133	18,379.4	46.3006	18,379.4	48.0061	18,379.4	49.5142	18,379.4	41.6437	18,379.4	52.3213
19,026.9	91.0427	19,026.9	89.3157	19,026.9	89.3311	19,026.9	86.113	19,026.9	86.4083	19,026.9	80.1852	19,026.9	79.1466	19,026.9	68.2914	19,026.9	70.0902	19,026.9	65.7175	19,026.9	67.92	19,026.9	67.5842	19,026.9	64.1427	19,026.9	58.6264	19,026.9	64.0248	19,026.9	57.2779	19,026.9	53.5575	19,026.9	43.0703	19,026.9	40.8029	19,026.9	50.0087	19,026.9	55.6402	19,026.9	53.8804	19,026.9	68.6607	19,026.9	49.8125	19,026.9	53.6623	19,026.9	43.2698	19,026.9	40.4445	19,026.9	43.9563	19,026.9	42.9932	19,026.9	40.986	19,026.9	39.9327	19,026.9	44.7718	19,026.9	48.963	19,026.9	49.8487	19,026.9	42.5181	19,026.9	52.4435
19,697.8	91.3463	19,697.8	89.3148	19,697.8	89.0575	19,697.8	84.5487	19,697.8	84.3568	19,697.8	76.8378	19,697.8	74.9639	19,697.8	67.4513	19,697.8	69.5825	19,697.8	68.7365	19,697.8	69.1342	19,697.8	66.2416	19,697.8	61.7716	19,697.8	56.9989	19,697.8	58.4554	19,697.8	57.8172	19,697.8	54.715	19,697.8	46.5795	19,697.8	42.716	19,697.8	47.2923	19,697.8	54.8563	19,697.8	51.629	19,697.8	68.1322	19,697.8	47.4495	19,697.8	52.1298	19,697.8	40.395	19,697.8	35.2554	19,697.8	40.372	19,697.8	43.3432	19,697.8	45.9476	19,697.8	41.883	19,697.8	45.1395	19,697.8	48.896	19,697.8	48.7941	19,697.8	44.0464	19,697.8	51.7035
19,999.5	91.2153	19,999.5	89.0218	19,999.5	88.9928	19,999.5	82.8804	19,999.5	83.3969	19,999.5	75.1844	19,999.5	73.543	19,999.5	68.2546	19,999.5	66.4395	19,999.5	68.9054	19,999.5	70.5076	19,999.5	66.9663	19,999.5	59.1767	19,999.5	57.1599	19,999.5	59.7253	19,999.5	56.774	19,999.5	45.0123	19,999.5	50.7935	19,999.5	46.1615	19,999.5	41.8085	19,999.5	51.624	19,999.5	45.6837	19,999.5	66.8699	19,999.5	55.3041	19,999.5	47.6916	19,999.5	53.8072	19,999.5	45.174	19,999.5	55.9624	19,999.5	51.9071	19,999.5	49.3792	19,999.5	43.4251	19,999.5	48.6825	19,999.5	49.6813	19,999.5	52.1174	19,999.5	50.5424	19,999.5	55.0979
