"SPL Horizontal"
"On-Axis"		"10°"		"-10°"		"20°"		"-20°"		"30°"		"-30°"		"40°"		"-40°"		"50°"		"-50°"		"60°"		"-60°"		"70°"		"-70°"		"80°"		"-80°"		"90°"		"-90°"		"100°"		"-100°"		"110°"		"-110°"		"120°"		"-120°"		"130°"		"-130°"		"140°"		"-140°"		"150°"		"-150°"		"160°"		"-160°"		"170°"		"-170°"		"180°"
"Frequency [Hz]"	"Sound Pessure Level [dB]  / [2.83V 1m] "	"Frequency [Hz]"	"Sound Pessure Level [dB]  / [2.83V 1m] "	"Frequency [Hz]"	"Sound Pessure Level [dB]  / [2.83V 1m] "	"Frequency [Hz]"	"Sound Pessure Level [dB]  / [2.83V 1m] "	"Frequency [Hz]"	"Sound Pessure Level [dB]  / [2.83V 1m] "	"Frequency [Hz]"	"Sound Pessure Level [dB]  / [2.83V 1m] "	"Frequency [Hz]"	"Sound Pessure Level [dB]  / [2.83V 1m] "	"Frequency [Hz]"	"Sound Pessure Level [dB]  / [2.83V 1m] "	"Frequency [Hz]"	"Sound Pessure Level [dB]  / [2.83V 1m] "	"Frequency [Hz]"	"Sound Pessure Level [dB]  / [2.83V 1m] "	"Frequency [Hz]"	"Sound Pessure Level [dB]  / [2.83V 1m] "	"Frequency [Hz]"	"Sound Pessure Level [dB]  / [2.83V 1m] "	"Frequency [Hz]"	"Sound Pessure Level [dB]  / [2.83V 1m] "	"Frequency [Hz]"	"Sound Pessure Level [dB]  / [2.83V 1m] "	"Frequency [Hz]"	"Sound Pessure Level [dB]  / [2.83V 1m] "	"Frequency [Hz]"	"Sound Pessure Level [dB]  / [2.83V 1m] "	"Frequency [Hz]"	"Sound Pessure Level [dB]  / [2.83V 1m] "	"Frequency [Hz]"	"Sound Pessure Level [dB]  / [2.83V 1m] "	"Frequency [Hz]"	"Sound Pessure Level [dB]  / [2.83V 1m] "	"Frequency [Hz]"	"Sound Pessure Level [dB]  / [2.83V 1m] "	"Frequency [Hz]"	"Sound Pessure Level [dB]  / [2.83V 1m] "	"Frequency [Hz]"	"Sound Pessure Level [dB]  / [2.83V 1m] "	"Frequency [Hz]"	"Sound Pessure Level [dB]  / [2.83V 1m] "	"Frequency [Hz]"	"Sound Pessure Level [dB]  / [2.83V 1m] "	"Frequency [Hz]"	"Sound Pessure Level [dB]  / [2.83V 1m] "	"Frequency [Hz]"	"Sound Pessure Level [dB]  / [2.83V 1m] "	"Frequency [Hz]"	"Sound Pessure Level [dB]  / [2.83V 1m] "	"Frequency [Hz]"	"Sound Pessure Level [dB]  / [2.83V 1m] "	"Frequency [Hz]"	"Sound Pessure Level [dB]  / [2.83V 1m] "	"Frequency [Hz]"	"Sound Pessure Level [dB]  / [2.83V 1m] "	"Frequency [Hz]"	"Sound Pessure Level [dB]  / [2.83V 1m] "	"Frequency [Hz]"	"Sound Pessure Level [dB]  / [2.83V 1m] "	"Frequency [Hz]"	"Sound Pessure Level [dB]  / [2.83V 1m] "	"Frequency [Hz]"	"Sound Pessure Level [dB]  / [2.83V 1m] "	"Frequency [Hz]"	"Sound Pessure Level [dB]  / [2.83V 1m] "	"Frequency [Hz]"	"Sound Pessure Level [dB]  / [2.83V 1m] "
20.5078	73.6252	20.5078	73.6188	20.5078	73.635	20.5078	73.6163	20.5078	73.6475	20.5078	73.6183	20.5078	73.6623	20.5078	73.625	20.5078	73.6788	20.5078	73.6369	20.5078	73.6968	20.5078	73.654	20.5078	73.7159	20.5078	73.6762	20.5078	73.7358	20.5078	73.7032	20.5078	73.7568	20.5078	73.7345	20.5078	73.7786	20.5078	73.7688	20.5078	73.8016	20.5078	73.805	20.5078	73.8257	20.5078	73.8412	20.5078	73.8508	20.5078	73.8756	20.5078	73.8762	20.5078	73.9062	20.5078	73.9009	20.5078	73.9314	20.5078	73.9236	20.5078	73.9496	20.5078	73.9423	20.5078	73.9598	20.5078	73.9555	20.5078	73.9616
23.4375	77.7321	23.4375	77.746	23.4375	77.7239	23.4375	77.7655	23.4375	77.7213	23.4375	77.7902	23.4375	77.7244	23.4375	77.8198	23.4375	77.7329	23.4375	77.8536	23.4375	77.7467	23.4375	77.8909	23.4375	77.7654	23.4375	77.9306	23.4375	77.7888	23.4375	77.9717	23.4375	77.8162	23.4375	78.0129	23.4375	77.8474	23.4375	78.0526	23.4375	77.8816	23.4375	78.0893	23.4375	77.9184	23.4375	78.1214	23.4375	77.9569	23.4375	78.1476	23.4375	77.9961	23.4375	78.1665	23.4375	78.035	23.4375	78.1772	23.4375	78.0722	23.4375	78.1792	23.4375	78.106	23.4375	78.1725	23.4375	78.1349	23.4375	78.1575
26.3672	80.6149	26.3672	80.6282	26.3672	80.6082	26.3672	80.6478	26.3672	80.6082	26.3672	80.6733	26.3672	80.6149	26.3672	80.704	26.3672	80.6279	26.3672	80.7393	26.3672	80.6469	26.3672	80.7782	26.3672	80.6714	26.3672	80.8195	26.3672	80.7007	26.3672	80.8619	26.3672	80.7341	26.3672	80.9043	26.3672	80.7708	26.3672	80.945	26.3672	80.8097	26.3672	80.9828	26.3672	80.85	26.3672	81.0162	26.3672	80.8905	26.3672	81.0441	26.3672	80.9302	26.3672	81.0653	26.3672	80.9678	26.3672	81.0792	26.3672	81.0021	26.3672	81.0852	26.3672	81.0318	26.3672	81.0831	26.3672	81.0558	26.3672	81.0732
29.2969	83.1002	29.2969	83.1146	29.2969	83.0927	29.2969	83.1355	29.2969	83.0921	29.2969	83.1622	29.2969	83.0987	29.2969	83.1942	29.2969	83.1122	29.2969	83.2307	29.2969	83.1323	29.2969	83.2705	29.2969	83.1584	29.2969	83.3126	29.2969	83.1899	29.2969	83.3557	29.2969	83.226	29.2969	83.3986	29.2969	83.2656	29.2969	83.4398	29.2969	83.3077	29.2969	83.4781	29.2969	83.3509	29.2969	83.5122	29.2969	83.394	29.2969	83.5409	29.2969	83.4357	29.2969	83.5632	29.2969	83.4745	29.2969	83.5785	29.2969	83.5093	29.2969	83.5861	29.2969	83.5387	29.2969	83.5858	29.2969	83.5617	29.2969	83.5776
32.2266	84.6309	32.2266	84.6419	32.2266	84.6284	32.2266	84.6609	32.2266	84.6342	32.2266	84.6876	32.2266	84.6481	32.2266	84.7213	32.2266	84.6695	32.2266	84.7611	32.2266	84.6978	32.2266	84.806	32.2266	84.7321	32.2266	84.8545	32.2266	84.7711	32.2266	84.9052	32.2266	84.8138	32.2266	84.9564	32.2266	84.859	32.2266	85.0063	32.2266	84.9054	32.2266	85.0532	32.2266	84.9518	32.2266	85.0953	32.2266	84.9972	32.2266	85.131	32.2266	85.0404	32.2266	85.1592	32.2266	85.0802	32.2266	85.1789	32.2266	85.1155	32.2266	85.1896	32.2266	85.1453	32.2266	85.1912	32.2266	85.1684	32.2266	85.184
35.1562	86.3571	35.1562	86.3701	35.1562	86.3517	35.1562	86.3902	35.1562	86.354	35.1562	86.417	35.1562	86.3641	35.1562	86.4496	35.1562	86.3818	35.1562	86.4872	35.1562	86.4064	35.1562	86.5288	35.1562	86.4375	35.1562	86.5732	35.1562	86.4741	35.1562	86.6192	35.1562	86.5152	35.1562	86.6655	35.1562	86.5596	35.1562	86.7106	35.1562	86.606	35.1562	86.7533	35.1562	86.653	35.1562	86.7921	35.1562	86.6993	35.1562	86.8258	35.1562	86.7433	35.1562	86.8532	35.1562	86.7836	35.1562	86.8732	35.1562	86.8189	35.1562	86.8852	35.1562	86.848	35.1562	86.8887	35.1562	86.8698	35.1562	86.8835
38.0859	87.5037	38.0859	87.5179	38.0859	87.4969	38.0859	87.5392	38.0859	87.4977	38.0859	87.567	38.0859	87.5061	38.0859	87.6005	38.0859	87.522	38.0859	87.6389	38.0859	87.5449	38.0859	87.6811	38.0859	87.5742	38.0859	87.726	38.0859	87.6092	38.0859	87.7722	38.0859	87.6489	38.0859	87.8184	38.0859	87.6921	38.0859	87.8631	38.0859	87.7377	38.0859	87.905	38.0859	87.7842	38.0859	87.9426	38.0859	87.8302	38.0859	87.9747	38.0859	87.8743	38.0859	88.0001	38.0859	87.9151	38.0859	88.0179	38.0859	87.9513	38.0859	88.0275	38.0859	87.9817	38.0859	88.0286	38.0859	88.0052	38.0859	88.021
41.0156	88.4327	41.0156	88.4462	41.0156	88.4263	41.0156	88.4663	41.0156	88.427	41.0156	88.4927	41.0156	88.4348	41.0156	88.5246	41.0156	88.4495	41.0156	88.5612	41.0156	88.4708	41.0156	88.6015	41.0156	88.4981	41.0156	88.6443	41.0156	88.5308	41.0156	88.6885	41.0156	88.5678	41.0156	88.7326	41.0156	88.6083	41.0156	88.7752	41.0156	88.651	41.0156	88.8149	41.0156	88.6948	41.0156	88.8505	41.0156	88.7383	41.0156	88.8806	41.0156	88.7801	41.0156	88.9043	41.0156	88.819	41.0156	88.9206	41.0156	88.8536	41.0156	88.9291	41.0156	88.8829	41.0156	88.9294	41.0156	88.9058	41.0156	88.9215
43.9453	89.0281	43.9453	89.0414	43.9453	89.0214	43.9453	89.0609	43.9453	89.0214	43.9453	89.0861	43.9453	89.0281	43.9453	89.1164	43.9453	89.0414	43.9453	89.151	43.9453	89.0609	43.9453	89.1888	43.9453	89.0861	43.9453	89.2289	43.9453	89.1164	43.9453	89.27	43.9453	89.1509	43.9453	89.3108	43.9453	89.1887	43.9453	89.3501	43.9453	89.2287	43.9453	89.3867	43.9453	89.2697	43.9453	89.4193	43.9453	89.3105	43.9453	89.4469	43.9453	89.3497	43.9453	89.4685	43.9453	89.3863	43.9453	89.4834	43.9453	89.4189	43.9453	89.4909	43.9453	89.4466	43.9453	89.4908	43.9453	89.4682	43.9453	89.4832
46.875	89.18	46.875	89.1927	46.875	89.1739	46.875	89.2116	46.875	89.1745	46.875	89.2362	46.875	89.1818	46.875	89.266	46.875	89.1956	46.875	89.3002	46.875	89.2158	46.875	89.3378	46.875	89.2418	46.875	89.3779	46.875	89.2729	46.875	89.4194	46.875	89.3084	46.875	89.4609	46.875	89.3474	46.875	89.5014	46.875	89.3887	46.875	89.5394	46.875	89.431	46.875	89.5739	46.875	89.4732	46.875	89.6034	46.875	89.5137	46.875	89.6271	46.875	89.5514	46.875	89.644	46.875	89.5848	46.875	89.6534	46.875	89.6127	46.875	89.655	46.875	89.6342	46.875	89.6485
49.8047	88.9959	49.8047	89.0106	49.8047	88.988	49.8047	89.0319	49.8047	88.9873	49.8047	89.0591	49.8047	88.9939	49.8047	89.0914	49.8047	89.0075	49.8047	89.128	49.8047	89.0279	49.8047	89.1679	49.8047	89.0545	49.8047	89.2099	49.8047	89.0865	49.8047	89.2529	49.8047	89.1232	49.8047	89.2956	49.8047	89.1635	49.8047	89.3367	49.8047	89.2061	49.8047	89.375	49.8047	89.2499	49.8047	89.4093	49.8047	89.2935	49.8047	89.4384	49.8047	89.3354	49.8047	89.4612	49.8047	89.3745	49.8047	89.4771	49.8047	89.4093	49.8047	89.4852	49.8047	89.4387	49.8047	89.4853	49.8047	89.4617	49.8047	89.4774
55.6641	88.2936	55.6641	88.3075	55.6641	88.287	55.6641	88.3282	55.6641	88.288	55.6641	88.3551	55.6641	88.2964	55.6641	88.3874	55.6641	88.3121	55.6641	88.4241	55.6641	88.3347	55.6641	88.4643	55.6641	88.3635	55.6641	88.5067	55.6641	88.3976	55.6641	88.5502	55.6641	88.4361	55.6641	88.5934	55.6641	88.4777	55.6641	88.635	55.6641	88.5211	55.6641	88.6739	55.6641	88.5652	55.6641	88.7088	55.6641	88.6085	55.6641	88.7385	55.6641	88.6497	55.6641	88.7622	55.6641	88.6876	55.6641	88.779	55.6641	88.7208	55.6641	88.7883	55.6641	88.7485	55.6641	88.7899	55.6641	88.7696	55.6641	88.7836
58.5938	87.7854	58.5938	87.7937	58.5938	87.7844	58.5938	87.8091	58.5938	87.791	58.5938	87.8308	58.5938	87.8048	58.5938	87.8583	58.5938	87.8254	58.5938	87.8904	58.5938	87.8522	58.5938	87.9261	58.5938	87.8841	58.5938	87.9644	58.5938	87.9202	58.5938	88.0039	58.5938	87.9591	58.5938	88.0437	58.5938	87.9998	58.5938	88.0824	58.5938	88.0408	58.5938	88.1191	58.5938	88.0811	58.5938	88.1528	58.5938	88.1192	58.5938	88.1825	58.5938	88.1542	58.5938	88.2076	58.5938	88.1848	58.5938	88.2273	58.5938	88.2102	58.5938	88.241	58.5938	88.2297	58.5938	88.2483	58.5938	88.2426	58.5938	88.2489
61.5234	87.3642	61.5234	87.3754	61.5234	87.3593	61.5234	87.3924	61.5234	87.3607	61.5234	87.4147	61.5234	87.3686	61.5234	87.4417	61.5234	87.3827	61.5234	87.4725	61.5234	87.4027	61.5234	87.5062	61.5234	87.4279	61.5234	87.5419	61.5234	87.4576	61.5234	87.5785	61.5234	87.4909	61.5234	87.6148	61.5234	87.5267	61.5234	87.6497	61.5234	87.5637	61.5234	87.6823	61.5234	87.6009	61.5234	87.7115	61.5234	87.6369	61.5234	87.7364	61.5234	87.6706	61.5234	87.7562	61.5234	87.7011	61.5234	87.7703	61.5234	87.7276	61.5234	87.7785	61.5234	87.7492	61.5234	87.7803	61.5234	87.7655	61.5234	87.7759
67.3828	86.4649	67.3828	86.4781	67.3828	86.4584	67.3828	86.4977	67.3828	86.4588	67.3828	86.5231	67.3828	86.4663	67.3828	86.5537	67.3828	86.4806	67.3828	86.5886	67.3828	86.5014	67.3828	86.6268	67.3828	86.528	67.3828	86.6672	67.3828	86.5599	67.3828	86.7087	67.3828	86.596	67.3828	86.7499	67.3828	86.6353	67.3828	86.7897	67.3828	86.6766	67.3828	86.8267	67.3828	86.7185	67.3828	86.8597	67.3828	86.7597	67.3828	86.8876	67.3828	86.799	67.3828	86.9096	67.3828	86.8351	67.3828	86.925	67.3828	86.8669	67.3828	86.9332	67.3828	86.8933	67.3828	86.934	67.3828	86.9138	67.3828	86.9275
73.2422	86.2026	73.2422	86.2158	73.2422	86.1969	73.2422	86.2359	73.2422	86.1989	73.2422	86.2626	73.2422	86.2085	73.2422	86.2951	73.2422	86.2257	73.2422	86.3326	73.2422	86.2501	73.2422	86.3741	73.2422	86.2812	73.2422	86.4184	73.2422	86.3181	73.2422	86.4644	73.2422	86.3598	73.2422	86.5106	73.2422	86.4051	73.2422	86.5558	73.2422	86.4526	73.2422	86.5984	73.2422	86.5007	73.2422	86.6372	73.2422	86.5479	73.2422	86.6709	73.2422	86.5924	73.2422	86.6984	73.2422	86.6329	73.2422	86.7187	73.2422	86.668	73.2422	86.731	73.2422	86.6965	73.2422	86.7351	73.2422	86.7176	73.2422	86.7306
76.1719	86.3664	76.1719	86.3822	76.1719	86.3581	76.1719	86.4052	76.1719	86.3578	76.1719	86.4348	76.1719	86.3654	76.1719	86.4701	76.1719	86.3809	76.1719	86.5103	76.1719	86.4039	76.1719	86.5542	76.1719	86.4339	76.1719	86.6007	76.1719	86.47	76.1719	86.6482	76.1719	86.5113	76.1719	86.6955	76.1719	86.5564	76.1719	86.741	76.1719	86.6042	76.1719	86.7834	76.1719	86.6529	76.1719	86.8212	76.1719	86.7011	76.1719	86.8532	76.1719	86.7472	76.1719	86.8785	76.1719	86.7897	76.1719	86.8961	76.1719	86.8271	76.1719	86.9055	76.1719	86.8584	76.1719	86.9064	76.1719	86.8825	76.1719	86.8986
82.0312	86.7334	82.0312	86.7497	82.0312	86.7244	82.0312	86.7729	82.0312	86.723	82.0312	86.8024	82.0312	86.7293	82.0312	86.8372	82.0312	86.7434	82.0312	86.8766	82.0312	86.765	82.0312	86.9195	82.0312	86.7934	82.0312	86.9645	82.0312	86.8281	82.0312	87.0103	82.0312	86.868	82.0312	87.0556	82.0312	86.9118	82.0312	87.0988	82.0312	86.958	82.0312	87.1385	82.0312	87.0052	82.0312	87.1735	82.0312	87.0516	82.0312	87.2028	82.0312	87.0957	82.0312	87.2253	82.0312	87.1362	82.0312	87.2406	82.0312	87.1717	82.0312	87.2483	82.0312	87.2013	82.0312	87.248	82.0312	87.2243	82.0312	87.24
87.8906	87.4345	87.8906	87.4514	87.8906	87.4254	87.8906	87.4754	87.8906	87.4242	87.8906	87.506	87.8906	87.4312	87.8906	87.5424	87.8906	87.4462	87.8906	87.5835	87.8906	87.469	87.8906	87.6281	87.8906	87.4989	87.8906	87.675	87.8906	87.535	87.8906	87.7227	87.8906	87.5764	87.8906	87.7697	87.8906	87.6217	87.8906	87.8144	87.8906	87.6692	87.8906	87.8553	87.8906	87.7175	87.8906	87.8912	87.8906	87.7649	87.8906	87.9209	87.8906	87.8098	87.8906	87.9436	87.8906	87.8509	87.8906	87.9588	87.8906	87.887	87.8906	87.966	87.8906	87.9171	87.8906	87.9653	87.8906	87.9406	87.8906	87.9568
93.75	88.0877	93.75	88.1009	93.75	88.0814	93.75	88.1207	93.75	88.0823	93.75	88.1467	93.75	88.0904	93.75	88.1781	93.75	88.1056	93.75	88.2142	93.75	88.1277	93.75	88.2539	93.75	88.1561	93.75	88.2963	93.75	88.1902	93.75	88.3399	93.75	88.229	93.75	88.3834	93.75	88.2713	93.75	88.4255	93.75	88.3156	93.75	88.4646	93.75	88.3605	93.75	88.4996	93.75	88.4044	93.75	88.5293	93.75	88.4458	93.75	88.5528	93.75	88.4832	93.75	88.5695	93.75	88.5157	93.75	88.5789	93.75	88.5423	93.75	88.5808	93.75	88.5623	93.75	88.5752
102.539	88.6766	102.539	88.6909	102.539	88.6694	102.539	88.7117	102.539	88.6694	102.539	88.7386	102.539	88.6768	102.539	88.7708	102.539	88.6914	102.539	88.8075	102.539	88.7129	102.539	88.8477	102.539	88.7409	102.539	88.8903	102.539	88.7746	102.539	88.934	102.539	88.813	102.539	88.9774	102.539	88.8548	102.539	89.0191	102.539	88.8988	102.539	89.0579	102.539	88.9433	102.539	89.0924	102.539	88.987	102.539	89.1214	102.539	89.0284	102.539	89.1442	102.539	89.0662	102.539	89.1599	102.539	89.0992	102.539	89.1682	102.539	89.1267	102.539	89.1689	102.539	89.1478	102.539	89.162
108.398	88.8341	108.398	88.8457	108.398	88.8299	108.398	88.8642	108.398	88.8331	108.398	88.8892	108.398	88.8439	108.398	88.92	108.398	88.8619	108.398	88.9556	108.398	88.8868	108.398	88.9952	108.398	88.9179	108.398	89.0374	108.398	88.9542	108.398	89.0811	108.398	88.9946	108.398	89.1249	108.398	89.0377	108.398	89.1674	108.398	89.0821	108.398	89.2071	108.398	89.1262	108.398	89.2429	108.398	89.1687	108.398	89.2735	108.398	89.2081	108.398	89.2982	108.398	89.2434	108.398	89.3161	108.398	89.2735	108.398	89.3269	108.398	89.2978	108.398	89.3305	108.398	89.3157	108.398	89.3267
117.188	88.9298	117.188	88.9393	117.188	88.9278	117.188	88.9561	117.188	88.9334	117.188	88.9797	117.188	88.9465	117.188	89.0096	117.188	88.9668	117.188	89.045	117.188	88.9939	117.188	89.0849	117.188	89.0271	117.188	89.1282	117.188	89.0655	117.188	89.1735	117.188	89.108	117.188	89.2195	117.188	89.1532	117.188	89.2646	117.188	89.1996	117.188	89.3073	117.188	89.2455	117.188	89.3463	117.188	89.2896	117.188	89.3802	117.188	89.3303	117.188	89.4082	117.188	89.3664	117.188	89.4294	117.188	89.3969	117.188	89.4431	117.188	89.4209	117.188	89.4492	117.188	89.4379	117.188	89.4474
125.977	88.5299	125.977	88.5423	125.977	88.5244	125.977	88.5613	125.977	88.526	125.977	88.5866	125.977	88.5349	125.977	88.6176	125.977	88.551	125.977	88.6537	125.977	88.5742	125.977	88.6941	125.977	88.6041	125.977	88.7379	125.977	88.64	125.977	88.7837	125.977	88.6809	125.977	88.8302	125.977	88.7256	125.977	88.876	125.977	88.7726	125.977	88.9193	125.977	88.8203	125.977	88.9587	125.977	88.867	125.977	88.9927	125.977	88.9112	125.977	89.0202	125.977	88.9514	125.977	89.0401	125.977	88.9863	125.977	89.0519	125.977	89.0149	125.977	89.0551	125.977	89.0363	125.977	89.0499
134.766	87.7407	134.766	87.7547	134.766	87.7338	134.766	87.7752	134.766	87.7343	134.766	87.8019	134.766	87.7423	134.766	87.8341	134.766	87.7578	134.766	87.871	134.766	87.7806	134.766	87.9116	134.766	87.8103	134.766	87.9549	134.766	87.8462	134.766	87.9996	134.766	87.8871	134.766	88.0443	134.766	87.9317	134.766	88.0875	134.766	87.9785	134.766	88.1278	134.766	88.0256	134.766	88.1639	134.766	88.0714	134.766	88.1945	134.766	88.1142	134.766	88.2189	134.766	88.1526	134.766	88.2364	134.766	88.1855	134.766	88.2465	134.766	88.2121	134.766	88.2491	134.766	88.2318	134.766	88.2442
143.555	86.9061	143.555	86.9232	143.555	86.8963	143.555	86.9469	143.555	86.8942	143.555	86.9763	143.555	86.9001	143.555	87.0106	143.555	86.9142	143.555	87.0487	143.555	86.9362	143.555	87.0895	143.555	86.9656	143.555	87.1318	143.555	87.0015	143.555	87.1743	143.555	87.0426	143.555	87.2156	143.555	87.0873	143.555	87.2546	143.555	87.1339	143.555	87.2901	143.555	87.1804	143.555	87.3211	143.555	87.2249	143.555	87.3468	143.555	87.2659	143.555	87.3668	143.555	87.302	143.555	87.3807	143.555	87.3324	143.555	87.3884	143.555	87.3564	143.555	87.3899	143.555	87.374	143.555	87.3851
155.273	86.3982	155.273	86.4141	155.273	86.3904	155.273	86.4377	155.273	86.391	155.273	86.4684	155.273	86.3999	155.273	86.5053	155.273	86.4169	155.273	86.5473	155.273	86.4418	155.273	86.593	155.273	86.4738	155.273	86.641	155.273	86.5122	155.273	86.6896	155.273	86.5557	155.273	86.7371	155.273	86.6028	155.273	86.782	155.273	86.6518	155.273	86.8228	155.273	86.701	155.273	86.8582	155.273	86.7484	155.273	86.8874	155.273	86.7924	155.273	86.9096	155.273	86.8316	155.273	86.9246	155.273	86.8652	155.273	86.9323	155.273	86.8923	155.273	86.9328	155.273	86.9127	155.273	86.9263
164.062	86.534	164.062	86.5454	164.062	86.5306	164.062	86.5644	164.062	86.5352	164.062	86.5906	164.062	86.5476	164.062	86.6235	164.062	86.5676	164.062	86.6622	164.062	86.5947	164.062	86.7055	164.062	86.6282	164.062	86.7522	164.062	86.6671	164.062	86.8008	164.062	86.7101	164.062	86.8496	164.062	86.756	164.062	86.8972	164.062	86.8031	164.062	86.9416	164.062	86.8501	164.062	86.9815	164.062	86.8954	164.062	87.0154	164.062	86.9377	164.062	87.0423	164.062	86.9759	164.062	87.0614	164.062	87.0088	164.062	87.0723	164.062	87.0359	164.062	87.0749	164.062	87.0562	164.062	87.0694
175.781	86.492	175.781	86.5097	175.781	86.4817	175.781	86.5341	175.781	86.4794	175.781	86.5648	175.781	86.4855	175.781	86.6007	175.781	86.5	175.781	86.6411	175.781	86.5229	175.781	86.6847	175.781	86.5537	175.781	86.7305	175.781	86.5914	175.781	86.7771	175.781	86.6346	175.781	86.8231	175.781	86.6819	175.781	86.8671	175.781	86.7314	175.781	86.9079	175.781	86.7813	175.781	86.9442	175.781	86.8299	175.781	86.975	175.781	86.8757	175.781	86.9993	175.781	86.9171	175.781	87.0163	175.781	86.9531	175.781	87.0256	175.781	86.9827	175.781	87.0269	175.781	87.0052	175.781	87.02
190.43	85.9209	190.43	85.9381	190.43	85.9128	190.43	85.9638	190.43	85.9138	190.43	85.9975	190.43	85.924	190.43	86.0381	190.43	85.9433	190.43	86.0844	190.43	85.9709	190.43	86.1348	190.43	86.0062	190.43	86.1872	190.43	86.0481	190.43	86.2396	190.43	86.0952	190.43	86.2898	190.43	86.1459	190.43	86.3359	190.43	86.1987	190.43	86.3763	190.43	86.2514	190.43	86.4102	190.43	86.302	190.43	86.4371	190.43	86.3485	190.43	86.4572	190.43	86.389	190.43	86.4709	190.43	86.4224	190.43	86.4785	190.43	86.4479	190.43	86.4804	190.43	86.4657	190.43	86.4763
202.148	85.6348	202.148	85.6501	202.148	85.6282	202.148	85.6738	202.148	85.6307	202.148	85.7052	202.148	85.6422	202.148	85.7434	202.148	85.6626	202.148	85.7871	202.148	85.6914	202.148	85.8346	202.148	85.7277	202.148	85.8842	202.148	85.7706	202.148	85.9336	202.148	85.8185	202.148	85.9808	202.148	85.8695	202.148	86.0237	202.148	85.9215	202.148	86.0607	202.148	85.9721	202.148	86.0909	202.148	86.0187	202.148	86.1139	202.148	86.0592	202.148	86.1303	202.148	86.0921	202.148	86.141	202.148	86.1168	202.148	86.1471	202.148	86.1337	202.148	86.1497	202.148	86.1439	202.148	86.1488
216.797	85.6779	216.797	85.6958	216.797	85.6684	216.797	85.7209	216.797	85.6686	216.797	85.7523	216.797	85.6792	216.797	85.7888	216.797	85.7007	216.797	85.83	216.797	85.7327	216.797	85.875	216.797	85.7739	216.797	85.9231	216.797	85.8223	216.797	85.9735	216.797	85.8755	216.797	86.0247	216.797	85.9305	216.797	86.075	216.797	85.9845	216.797	86.1221	216.797	86.0353	216.797	86.1637	216.797	86.0809	216.797	86.1979	216.797	86.1205	216.797	86.2231	216.797	86.1539	216.797	86.2388	216.797	86.1816	216.797	86.2454	216.797	86.2042	216.797	86.2439	216.797	86.2223	216.797	86.2358
234.375	85.8207	234.375	85.8362	234.375	85.8126	234.375	85.8592	234.375	85.8122	234.375	85.8895	234.375	85.8196	234.375	85.9265	234.375	85.8355	234.375	85.969	234.375	85.8602	234.375	86.0156	234.375	85.8937	234.375	86.0644	234.375	85.9353	234.375	86.1137	234.375	85.9838	234.375	86.162	234.375	86.0371	234.375	86.2083	234.375	86.0929	234.375	86.2516	234.375	86.1489	234.375	86.2914	234.375	86.2027	234.375	86.3268	234.375	86.2526	234.375	86.3568	234.375	86.297	234.375	86.3802	234.375	86.3349	234.375	86.3956	234.375	86.3651	234.375	86.4022	234.375	86.3868	234.375	86.3993
249.023	85.7433	249.023	85.7693	249.023	85.7244	249.023	85.8017	249.023	85.7135	249.023	85.8397	249.023	85.7119	249.023	85.8823	249.023	85.7208	249.023	85.9277	249.023	85.7413	249.023	85.9738	249.023	85.7734	249.023	86.0182	249.023	85.8159	249.023	86.059	249.023	85.8666	249.023	86.0947	249.023	85.9224	249.023	86.1252	249.023	85.9798	249.023	86.1508	249.023	86.0358	249.023	86.1726	249.023	86.0879	249.023	86.1917	249.023	86.1343	249.023	86.2088	249.023	86.1735	249.023	86.224	249.023	86.2046	249.023	86.2362	249.023	86.2271	249.023	86.2442	249.023	86.2409	249.023	86.2462
266.602	85.8134	266.602	85.8306	266.602	85.8019	266.602	85.8554	266.602	85.7941	266.602	85.8895	266.602	85.7896	266.602	85.9328	266.602	85.7892	266.602	85.9836	266.602	85.7951	266.602	86.0383	266.602	85.8097	266.602	86.0925	266.602	85.8345	266.602	86.1414	266.602	85.8698	266.602	86.1815	266.602	85.9139	266.602	86.2102	266.602	85.9637	266.602	86.2271	266.602	86.0151	266.602	86.2332	266.602	86.0641	266.602	86.2312	266.602	86.1073	266.602	86.2244	266.602	86.1421	266.602	86.2161	266.602	86.1674	266.602	86.2088	266.602	86.1839	266.602	86.2033	266.602	86.1935	266.602	86.199
287.109	85.9019	287.109	85.917	287.109	85.9044	287.109	85.9492	287.109	85.9221	287.109	85.9957	287.109	85.951	287.109	86.0524	287.109	85.9857	287.109	86.1145	287.109	86.0217	287.109	86.177	287.109	86.0563	287.109	86.2351	287.109	86.0892	287.109	86.2844	287.109	86.1225	287.109	86.3213	287.109	86.1594	287.109	86.3435	287.109	86.2024	287.109	86.3506	287.109	86.2515	287.109	86.3446	287.109	86.3034	287.109	86.3304	287.109	86.3513	287.109	86.3147	287.109	86.387	287.109	86.3053	287.109	86.4041	287.109	86.308	287.109	86.4007	287.109	86.3247	287.109	86.3804	287.109	86.3517
307.617	86.1149	307.617	86.1393	307.617	86.0955	307.617	86.1689	307.617	86.0823	307.617	86.2048	307.617	86.0778	307.617	86.2477	307.617	86.0852	307.617	86.2971	307.617	86.1066	307.617	86.3519	307.617	86.1422	307.617	86.41	307.617	86.1903	307.617	86.4693	307.617	86.2472	307.617	86.5274	307.617	86.3084	307.617	86.5818	307.617	86.3693	307.617	86.6293	307.617	86.4256	307.617	86.6665	307.617	86.4741	307.617	86.6907	307.617	86.5132	307.617	86.7001	307.617	86.5432	307.617	86.6955	307.617	86.5667	307.617	86.6795	307.617	86.5872	307.617	86.6567	307.617	86.6084	307.617	86.6318
331.055	85.9383	331.055	85.9625	331.055	85.9187	331.055	85.9933	331.055	85.903	331.055	86.0328	331.055	85.8933	331.055	86.0812	331.055	85.8936	331.055	86.1361	331.055	85.908	331.055	86.1929	331.055	85.9386	331.055	86.2462	331.055	85.9842	331.055	86.2911	331.055	86.0407	331.055	86.325	331.055	86.1019	331.055	86.3474	331.055	86.1615	331.055	86.3599	331.055	86.2147	331.055	86.3655	331.055	86.259	331.055	86.3676	331.055	86.2941	331.055	86.369	331.055	86.321	331.055	86.3708	331.055	86.3413	331.055	86.3728	331.055	86.3562	331.055	86.3737	331.055	86.3662	331.055	86.3719
354.492	86.108	354.492	86.1546	354.492	86.0641	354.492	86.2043	354.492	86.0232	354.492	86.2578	354.492	85.9872	354.492	86.3151	354.492	85.9596	354.492	86.3752	354.492	85.9449	354.492	86.4354	354.492	85.9478	354.492	86.4912	354.492	85.9717	354.492	86.537	354.492	86.0177	354.492	86.567	354.492	86.0832	354.492	86.5771	354.492	86.1629	354.492	86.5664	354.492	86.2489	354.492	86.5386	354.492	86.3321	354.492	86.5012	354.492	86.4035	354.492	86.4642	354.492	86.4556	354.492	86.4374	354.492	86.4838	354.492	86.4271	354.492	86.4886	354.492	86.4341	354.492	86.4753	354.492	86.4534
377.93	86.14	377.93	86.1334	377.93	86.153	377.93	86.142	377.93	86.1642	377.93	86.1722	377.93	86.1682	377.93	86.2263	377.93	86.1639	377.93	86.3006	377.93	86.1539	377.93	86.3866	377.93	86.1441	377.93	86.4731	377.93	86.1421	377.93	86.5486	377.93	86.1553	377.93	86.6042	377.93	86.1892	377.93	86.6343	377.93	86.2454	377.93	86.6379	377.93	86.32	377.93	86.6183	377.93	86.404	377.93	86.5837	377.93	86.4842	377.93	86.5453	377.93	86.5471	377.93	86.5157	377.93	86.583	377.93	86.5046	377.93	86.5891	377.93	86.5149	377.93	86.571	377.93	86.5412
407.227	85.9038	407.227	85.9407	407.227	85.881	407.227	85.9881	407.227	85.8735	407.227	86.0418	407.227	85.8791	407.227	86.0995	407.227	85.8928	407.227	86.1602	407.227	85.9089	407.227	86.2237	407.227	85.923	407.227	86.2884	407.227	85.9335	407.227	86.3498	407.227	85.9415	407.227	86.4011	407.227	85.9506	407.227	86.4344	407.227	85.9647	407.227	86.4433	407.227	85.987	407.227	86.4247	407.227	86.0172	407.227	86.3811	407.227	86.0515	407.227	86.3206	407.227	86.0833	407.227	86.2553	407.227	86.1066	407.227	86.198	407.227	86.1195	407.227	86.1575	407.227	86.1261	407.227	86.1355
436.523	85.0394	436.523	85.0675	436.523	85.009	436.523	85.1002	436.523	84.9721	436.523	85.1442	436.523	84.9294	436.523	85.2026	436.523	84.886	436.523	85.2739	436.523	84.8496	436.523	85.3528	436.523	84.8273	436.523	85.4319	436.523	84.8247	436.523	85.5042	436.523	84.8447	436.523	85.5631	436.523	84.8879	436.523	85.6036	436.523	84.952	436.523	85.6222	436.523	85.0308	436.523	85.6179	436.523	85.1148	436.523	85.5929	436.523	85.1931	436.523	85.553	436.523	85.2571	436.523	85.5057	436.523	85.3037	436.523	85.4588	436.523	85.3357	436.523	85.418	436.523	85.3603	436.523	85.3858
465.82	84.4332	465.82	84.4486	465.82	84.4237	465.82	84.4701	465.82	84.4188	465.82	84.4979	465.82	84.4152	465.82	84.5333	465.82	84.4086	465.82	84.5776	465.82	84.3951	465.82	84.631	465.82	84.3734	465.82	84.6902	465.82	84.3459	465.82	84.7486	465.82	84.3187	465.82	84.7975	465.82	84.3	465.82	84.8296	465.82	84.2975	465.82	84.8419	465.82	84.3166	465.82	84.8364	465.82	84.3587	465.82	84.8192	465.82	84.4206	465.82	84.7978	465.82	84.4945	465.82	84.778	465.82	84.5702	465.82	84.7617	465.82	84.6373	465.82	84.7458	465.82	84.689	465.82	84.7239
500.977	83.4527	500.977	83.4749	500.977	83.4362	500.977	83.5004	500.977	83.4266	500.977	83.5282	500.977	83.422	500.977	83.5604	500.977	83.4174	500.977	83.601	500.977	83.4072	500.977	83.6536	500.977	83.3876	500.977	83.7176	500.977	83.3595	500.977	83.7873	500.977	83.3297	500.977	83.8542	500.977	83.3088	500.977	83.9102	500.977	83.3068	500.977	83.9499	500.977	83.3285	500.977	83.9701	500.977	83.3704	500.977	83.9689	500.977	83.4233	500.977	83.9455	500.977	83.4777	500.977	83.9008	500.977	83.529	500.977	83.8391	500.977	83.5792	500.977	83.7682	500.977	83.634	500.977	83.6975
536.133	83.2007	536.133	83.2841	536.133	83.1271	536.133	83.3675	536.133	83.0681	536.133	83.4411	536.133	83.0225	536.133	83.4986	536.133	82.9842	536.133	83.5388	536.133	82.947	536.133	83.5635	536.133	82.9067	536.133	83.5749	536.133	82.8625	536.133	83.5737	536.133	82.8159	536.133	83.5595	536.133	82.7705	536.133	83.5319	536.133	82.7316	536.133	83.4914	536.133	82.7057	536.133	83.4381	536.133	82.6978	536.133	83.371	536.133	82.7091	536.133	83.2898	536.133	82.7359	536.133	83.1971	536.133	82.7724	536.133	83.0999	536.133	82.8152	536.133	83.0079	536.133	82.8659	536.133	82.9292
574.219	82.9331	574.219	82.9417	574.219	82.9092	574.219	82.9501	574.219	82.8627	574.219	82.9713	574.219	82.8	574.219	83.0092	574.219	82.7379	574.219	83.0594	574.219	82.6935	574.219	83.1135	574.219	82.673	574.219	83.1636	574.219	82.6676	574.219	83.2032	574.219	82.6591	574.219	83.2266	574.219	82.631	574.219	83.2295	574.219	82.58	574.219	83.2102	574.219	82.5183	574.219	83.1731	574.219	82.4684	574.219	83.128	574.219	82.4532	574.219	83.0867	574.219	82.4871	574.219	83.0552	574.219	82.5706	574.219	83.0279	574.219	82.6885	574.219	82.988	574.219	82.8135	574.219	82.9181
615.234	83.3137	615.234	83.3355	615.234	83.2992	615.234	83.3783	615.234	83.2758	615.234	83.4477	615.234	83.2315	615.234	83.5347	615.234	83.1636	615.234	83.6165	615.234	83.082	615.234	83.6663	615.234	83.0057	615.234	83.668	615.234	82.9526	615.234	83.6246	615.234	82.9278	615.234	83.5566	615.234	82.9188	615.234	83.4891	615.234	82.9031	615.234	83.4362	615.234	82.8627	615.234	83.3916	615.234	82.7954	615.234	83.3339	615.234	82.7158	615.234	83.2432	615.234	82.6474	615.234	83.1166	615.234	82.6094	615.234	82.971	615.234	82.6094	615.234	82.8325	615.234	82.6472	615.234	82.7218
659.18	83.7079	659.18	83.7545	659.18	83.6677	659.18	83.8059	659.18	83.6266	659.18	83.8499	659.18	83.575	659.18	83.8719	659.18	83.5053	659.18	83.8668	659.18	83.4136	659.18	83.8425	659.18	83.3029	659.18	83.8114	659.18	83.1847	659.18	83.7781	659.18	83.0757	659.18	83.7366	659.18	82.9885	659.18	83.6773	659.18	82.9253	659.18	83.5965	659.18	82.8817	659.18	83.5014	659.18	82.8548	659.18	83.4094	659.18	82.8458	659.18	83.3377	659.18	82.8565	659.18	83.2896	659.18	82.8893	659.18	83.2496	659.18	82.9475	659.18	83.1958	659.18	83.0289	659.18	83.1186
706.055	83.9341	706.055	84.0051	706.055	83.8402	706.055	84.0565	706.055	83.7392	706.055	84.1115	706.055	83.6533	706.055	84.1902	706.055	83.6003	706.055	84.2846	706.055	83.5865	706.055	84.359	706.055	83.6011	706.055	84.3778	706.055	83.6195	706.055	84.3318	706.055	83.6195	706.055	84.2393	706.055	83.5947	706.055	84.1274	706.055	83.5533	706.055	84.0155	706.055	83.5056	706.055	83.9147	706.055	83.458	706.055	83.8349	706.055	83.421	706.055	83.7826	706.055	83.4128	706.055	83.7545	706.055	83.4467	706.055	83.7365	706.055	83.5161	706.055	83.7111	706.055	83.5971	706.055	83.6657
758.789	84.4128	758.789	84.4229	758.789	84.3883	758.789	84.4263	758.789	84.3592	758.789	84.4338	758.789	84.3415	758.789	84.4477	758.789	84.3336	758.789	84.471	758.789	84.3133	758.789	84.5147	758.789	84.2565	758.789	84.5756	758.789	84.1549	758.789	84.6116	758.789	84.0218	758.789	84.5625	758.789	83.8895	758.789	84.4088	758.789	83.7929	758.789	84.2042	758.789	83.7439	758.789	84.039	758.789	83.725	758.789	83.9644	758.789	83.7133	758.789	83.961	758.789	83.7062	758.789	83.9786	758.789	83.7212	758.789	83.9834	758.789	83.7712	758.789	83.9639	758.789	83.8453	758.789	83.9165
811.523	85.1233	811.523	85.291	811.523	85.048	811.523	85.4449	811.523	85.1029	811.523	85.5082	811.523	85.2241	811.523	85.4862	811.523	85.3122	811.523	85.4386	811.523	85.3092	811.523	85.4227	811.523	85.2193	811.523	85.4616	811.523	85.088	811.523	85.5397	811.523	84.9658	811.523	85.6082	811.523	84.8789	811.523	85.6115	811.523	84.8312	811.523	85.5381	811.523	84.8285	811.523	85.438	811.523	84.8816	811.523	85.3707	811.523	84.9797	811.523	85.3336	811.523	85.0745	811.523	85.2638	811.523	85.1071	811.523	85.1246	811.523	85.0547	811.523	84.9727	811.523	84.9582	811.523	84.9078
870.117	85.0206	870.117	85.0037	870.117	85.1038	870.117	85.0497	870.117	85.2132	870.117	85.1109	870.117	85.3029	870.117	85.1429	870.117	85.3493	870.117	85.147	870.117	85.3403	870.117	85.1617	870.117	85.2482	870.117	85.2146	870.117	85.0394	870.117	85.2858	870.117	84.7435	870.117	85.3254	870.117	84.4891	870.117	85.3062	870.117	84.4054	870.117	85.2524	870.117	84.489	870.117	85.2144	870.117	84.638	870.117	85.2269	870.117	84.7767	870.117	85.2888	870.117	84.8822	870.117	85.3623	870.117	84.9542	870.117	85.3892	870.117	85.0116	870.117	85.333	870.117	85.0928	870.117	85.2138
931.641	85.2698	931.641	85.429	931.641	85.0513	931.641	85.4061	931.641	84.972	931.641	85.2429	931.641	85.1175	931.641	85.1124	931.641	85.3528	931.641	85.1684	931.641	85.4586	931.641	85.3837	931.641	85.3393	931.641	85.5893	931.641	85.0783	931.641	85.6708	931.641	84.8298	931.641	85.6544	931.641	84.681	931.641	85.6255	931.641	84.625	931.641	85.6225	931.641	84.6299	931.641	85.6273	931.641	84.6772	931.641	85.6185	931.641	84.7428	931.641	85.5981	931.641	84.798	931.641	85.5679	931.641	84.8457	931.641	85.5036	931.641	84.9196	931.641	85.3798	931.641	85.0444	931.641	85.211
999.023	85.2695	999.023	85.4265	999.023	85.496	999.023	85.7763	999.023	85.7916	999.023	85.8965	999.023	85.9045	999.023	85.741	999.023	85.9192	999.023	85.6364	999.023	86.0097	999.023	85.8332	999.023	86.1358	999.023	86.2034	999.023	86.146	999.023	86.4804	999.023	86.0583	999.023	86.5169	999.023	86.0134	999.023	86.3353	999.023	86.0156	999.023	86.1197	999.023	85.9518	999.023	86.0372	999.023	85.8135	999.023	86.0623	999.023	85.697	999.023	86.1376	999.023	85.654	999.023	86.234	999.023	85.6897	999.023	86.1899	999.023	85.7582	999.023	85.9432	999.023	85.7546	999.023	85.7525
1,072.27	82.9487	1,072.27	82.7305	1,072.27	82.4364	1,072.27	81.9504	1,072.27	81.8122	1,072.27	81.6414	1,072.27	81.836	1,072.27	82.3964	1,072.27	82.2967	1,072.27	83.2304	1,072.27	82.624	1,072.27	83.5154	1,072.27	82.7061	1,072.27	83.4734	1,072.27	82.7853	1,072.27	83.4851	1,072.27	82.9839	1,072.27	83.6724	1,072.27	83.2138	1,072.27	84.0144	1,072.27	83.4982	1,072.27	84.3824	1,072.27	83.8494	1,072.27	84.5349	1,072.27	84.0895	1,072.27	84.4987	1,072.27	84.1423	1,072.27	84.3514	1,072.27	84.1092	1,072.27	84.0144	1,072.27	84.1073	1,072.27	83.837	1,072.27	84.168	1,072.27	84.1569	1,072.27	84.3365	1,072.27	84.4353
1,148.44	81.639	1,148.44	81.6163	1,148.44	82.4026	1,148.44	82.4253	1,148.44	83.0845	1,148.44	82.8794	1,148.44	83.2859	1,148.44	82.4699	1,148.44	83.018	1,148.44	81.784	1,148.44	82.7495	1,148.44	82.0107	1,148.44	82.9306	1,148.44	82.9865	1,148.44	83.2882	1,148.44	83.5525	1,148.44	83.5469	1,148.44	83.5436	1,148.44	83.8575	1,148.44	83.5534	1,148.44	84.1283	1,148.44	83.7706	1,148.44	84.2839	1,148.44	83.8887	1,148.44	84.6433	1,148.44	84.1522	1,148.44	85.1109	1,148.44	84.6757	1,148.44	85.2627	1,148.44	85.1051	1,148.44	85.241	1,148.44	85.3694	1,148.44	85.3007	1,148.44	85.4046	1,148.44	85.3009	1,148.44	85.3028
1,230.47	84.9823	1,230.47	85.1697	1,230.47	85.1248	1,230.47	85.6462	1,230.47	85.3049	1,230.47	85.8264	1,230.47	85.6147	1,230.47	85.6712	1,230.47	85.9683	1,230.47	85.6449	1,230.47	86.1048	1,230.47	85.6329	1,230.47	86.1928	1,230.47	85.4755	1,230.47	86.5164	1,230.47	85.8189	1,230.47	86.806	1,230.47	86.6052	1,230.47	86.8613	1,230.47	86.9751	1,230.47	86.8789	1,230.47	86.8971	1,230.47	86.9011	1,230.47	86.931	1,230.47	86.9637	1,230.47	86.9829	1,230.47	87.1871	1,230.47	86.9353	1,230.47	87.3417	1,230.47	87.2564	1,230.47	87.3379	1,230.47	87.5807	1,230.47	87.4473	1,230.47	87.3697	1,230.47	87.4701	1,230.47	87.2548
1,318.36	87.4323	1,318.36	87.3523	1,318.36	87.2253	1,318.36	86.9896	1,318.36	87.1575	1,318.36	87.0126	1,318.36	87.3156	1,318.36	87.3008	1,318.36	87.5367	1,318.36	87.2916	1,318.36	87.4923	1,318.36	87.2018	1,318.36	87.2517	1,318.36	87.2856	1,318.36	87.3178	1,318.36	87.293	1,318.36	87.509	1,318.36	87.2388	1,318.36	87.4221	1,318.36	87.3245	1,318.36	87.3837	1,318.36	87.438	1,318.36	87.6344	1,318.36	87.5558	1,318.36	87.7785	1,318.36	87.7811	1,318.36	87.6978	1,318.36	87.8962	1,318.36	87.6777	1,318.36	87.8022	1,318.36	87.8223	1,318.36	87.8013	1,318.36	87.9969	1,318.36	87.9578	1,318.36	88.0853	1,318.36	88.0702
1,415.04	87.4614	1,415.04	87.3665	1,415.04	87.6007	1,415.04	87.8094	1,415.04	87.7363	1,415.04	88.2387	1,415.04	87.9111	1,415.04	87.9605	1,415.04	87.9628	1,415.04	87.6574	1,415.04	87.9189	1,415.04	87.8152	1,415.04	87.8522	1,415.04	87.7395	1,415.04	87.9177	1,415.04	87.5652	1,415.04	88.0332	1,415.04	87.8488	1,415.04	88.0563	1,415.04	88.132	1,415.04	88.0536	1,415.04	88.1215	1,415.04	88.0065	1,415.04	88.1672	1,415.04	88.0981	1,415.04	88.2863	1,415.04	88.4881	1,415.04	88.2476	1,415.04	88.7239	1,415.04	88.5266	1,415.04	88.5844	1,415.04	88.8953	1,415.04	88.5723	1,415.04	88.6994	1,415.04	88.7068	1,415.04	88.5901
1,514.65	87.0768	1,514.65	87.2079	1,514.65	87.2002	1,514.65	87.2159	1,514.65	87.6514	1,514.65	87.5426	1,514.65	87.596	1,514.65	87.682	1,514.65	87.7093	1,514.65	87.4953	1,514.65	88.1119	1,514.65	87.3214	1,514.65	87.893	1,514.65	86.9787	1,514.65	87.5326	1,514.65	86.8555	1,514.65	87.8132	1,514.65	87.1895	1,514.65	87.8437	1,514.65	87.1512	1,514.65	87.26	1,514.65	86.6985	1,514.65	87.1777	1,514.65	86.7636	1,514.65	87.3967	1,514.65	86.9367	1,514.65	87.0979	1,514.65	86.6741	1,514.65	86.8713	1,514.65	87.0042	1,514.65	86.9324	1,514.65	87.3624	1,514.65	87.087	1,514.65	87.1683	1,514.65	87.4042	1,514.65	87.336
1,623.05	85.9756	1,623.05	85.9001	1,623.05	86.001	1,623.05	85.6965	1,623.05	86.0581	1,623.05	85.6018	1,623.05	86.1019	1,623.05	85.8789	1,623.05	86.1685	1,623.05	86.1776	1,623.05	86.4751	1,623.05	86.0247	1,623.05	86.6718	1,623.05	85.8462	1,623.05	86.1265	1,623.05	85.9166	1,623.05	85.4888	1,623.05	85.6305	1,623.05	85.315	1,623.05	85.1606	1,623.05	85.1215	1,623.05	84.8664	1,623.05	85.208	1,623.05	84.6626	1,623.05	85.4656	1,623.05	84.5994	1,623.05	85.7117	1,623.05	84.8972	1,623.05	86.1539	1,623.05	85.2938	1,623.05	86.5038	1,623.05	85.418	1,623.05	86.2452	1,623.05	85.8533	1,623.05	86.0137	1,623.05	86.179
1,740.23	84.417	1,740.23	84.2424	1,740.23	84.3782	1,740.23	84.1573	1,740.23	84.35	1,740.23	84.3432	1,740.23	84.6312	1,740.23	84.5661	1,740.23	84.6159	1,740.23	84.5943	1,740.23	84.5714	1,740.23	84.6212	1,740.23	85.0958	1,740.23	84.7501	1,740.23	85.0634	1,740.23	84.7948	1,740.23	84.2568	1,740.23	84.7069	1,740.23	83.6761	1,740.23	84.4489	1,740.23	83.8107	1,740.23	84.1067	1,740.23	84.0187	1,740.23	83.9696	1,740.23	84.1473	1,740.23	83.8395	1,740.23	84.7792	1,740.23	84.2047	1,740.23	85.0594	1,740.23	84.3255	1,740.23	85.2181	1,740.23	84.1764	1,740.23	85.2718	1,740.23	84.8551	1,740.23	84.9959	1,740.23	85.1529
1,866.21	83.347	1,866.21	82.7609	1,866.21	83.6411	1,866.21	82.5205	1,866.21	83.427	1,866.21	82.2901	1,866.21	83.328	1,866.21	82.2637	1,866.21	83.2786	1,866.21	82.3777	1,866.21	83.3551	1,866.21	82.1601	1,866.21	83.3507	1,866.21	82.2372	1,866.21	82.6924	1,866.21	82.5022	1,866.21	81.7151	1,866.21	82.3618	1,866.21	81.2166	1,866.21	82.0992	1,866.21	81.8682	1,866.21	82.2518	1,866.21	82.6314	1,866.21	82.8886	1,866.21	83.093	1,866.21	83.4661	1,866.21	83.407	1,866.21	83.6271	1,866.21	83.9594	1,866.21	83.7021	1,866.21	84.205	1,866.21	83.624	1,866.21	83.6677	1,866.21	83.3296	1,866.21	83.4316	1,866.21	83.3938
2,000.98	82.5872	2,000.98	82.2589	2,000.98	82.7767	2,000.98	81.8947	2,000.98	82.6084	2,000.98	81.568	2,000.98	82.4673	2,000.98	81.3004	2,000.98	82.3387	2,000.98	80.884	2,000.98	82.2045	2,000.98	80.6678	2,000.98	82.0442	2,000.98	80.307	2,000.98	81.8127	2,000.98	79.9768	2,000.98	81.2376	2,000.98	79.7314	2,000.98	81.3393	2,000.98	79.9939	2,000.98	82.5701	2,000.98	81.2648	2,000.98	82.753	2,000.98	82.4417	2,000.98	82.6384	2,000.98	83.223	2,000.98	83.3535	2,000.98	83.3805	2,000.98	84.1542	2,000.98	83.1294	2,000.98	84.0112	2,000.98	82.963	2,000.98	83.4058	2,000.98	82.6377	2,000.98	83.083	2,000.98	82.6081
2,144.53	82.1094	2,144.53	82.0718	2,144.53	82.28	2,144.53	82.2871	2,144.53	81.9547	2,144.53	82.0423	2,144.53	81.3928	2,144.53	81.2417	2,144.53	81.4274	2,144.53	81.0748	2,144.53	81.4593	2,144.53	81.1013	2,144.53	81.2235	2,144.53	80.3785	2,144.53	81.5874	2,144.53	79.5418	2,144.53	82.1362	2,144.53	79.0646	2,144.53	82.949	2,144.53	79.7588	2,144.53	83.2702	2,144.53	81.1286	2,144.53	83.2366	2,144.53	82.8901	2,144.53	83.8835	2,144.53	83.8245	2,144.53	84.8081	2,144.53	83.8255	2,144.53	84.9785	2,144.53	84.0913	2,144.53	84.9292	2,144.53	84.3747	2,144.53	85.1097	2,144.53	84.1787	2,144.53	84.7883	2,144.53	84.2073
2,296.88	79.6441	2,296.88	79.4789	2,296.88	79.6279	2,296.88	79.7693	2,296.88	78.8294	2,296.88	79.6672	2,296.88	78.3933	2,296.88	79.2082	2,296.88	78.5689	2,296.88	79.15	2,296.88	78.2057	2,296.88	79.7943	2,296.88	78.5325	2,296.88	80.2316	2,296.88	79.5382	2,296.88	78.9864	2,296.88	79.7937	2,296.88	78.4429	2,296.88	79.6632	2,296.88	78.802	2,296.88	80.0668	2,296.88	79.9624	2,296.88	80.6215	2,296.88	81.3567	2,296.88	81.1139	2,296.88	82.0176	2,296.88	81.4302	2,296.88	81.8919	2,296.88	81.2719	2,296.88	81.8277	2,296.88	81.2857	2,296.88	82.863	2,296.88	81.9918	2,296.88	83.3952	2,296.88	81.8541	2,296.88	82.2596
2,460.94	82.4923	2,460.94	82.8631	2,460.94	82.0655	2,460.94	82.4854	2,460.94	82.1385	2,460.94	82.4347	2,460.94	82.059	2,460.94	82.5266	2,460.94	81.7083	2,460.94	81.5736	2,460.94	81.672	2,460.94	80.7965	2,460.94	82.293	2,460.94	80.7451	2,460.94	82.8451	2,460.94	81.3789	2,460.94	83.0228	2,460.94	81.9584	2,460.94	83.2017	2,460.94	81.8251	2,460.94	82.9632	2,460.94	81.6097	2,460.94	82.8759	2,460.94	81.9672	2,460.94	83.2156	2,460.94	82.782	2,460.94	82.8042	2,460.94	83.2024	2,460.94	82.5532	2,460.94	83.5225	2,460.94	82.6868	2,460.94	83.4872	2,460.94	82.7294	2,460.94	83.3729	2,460.94	83.214	2,460.94	83.4946
2,639.65	83.6223	2,639.65	83.6892	2,639.65	83.2231	2,639.65	83.8434	2,639.65	82.7286	2,639.65	83.7564	2,639.65	83.0228	2,639.65	83.3399	2,639.65	82.751	2,639.65	82.6623	2,639.65	82.8181	2,639.65	81.4319	2,639.65	83.2238	2,639.65	79.704	2,639.65	83.3854	2,639.65	80.5884	2,639.65	83.0432	2,639.65	81.5208	2,639.65	82.7904	2,639.65	81.8504	2,639.65	82.2533	2,639.65	81.9107	2,639.65	82.1047	2,639.65	81.7016	2,639.65	82.3685	2,639.65	82.1162	2,639.65	82.0574	2,639.65	82.952	2,639.65	82.2376	2,639.65	83.4302	2,639.65	82.2337	2,639.65	82.6829	2,639.65	82.1829	2,639.65	81.9637	2,639.65	82.5129	2,639.65	82.351
2,827.15	77.8673	2,827.15	79.0675	2,827.15	76.2931	2,827.15	79.395	2,827.15	77.687	2,827.15	80.4014	2,827.15	78.8993	2,827.15	80.5817	2,827.15	80.3166	2,827.15	80.1411	2,827.15	81.2412	2,827.15	79.5897	2,827.15	81.3719	2,827.15	80.131	2,827.15	81.3612	2,827.15	80.5232	2,827.15	81.1743	2,827.15	80.0409	2,827.15	80.9674	2,827.15	79.0966	2,827.15	79.985	2,827.15	78.0808	2,827.15	79.5774	2,827.15	78.2247	2,827.15	78.9814	2,827.15	78.5515	2,827.15	79.1067	2,827.15	79.8745	2,827.15	78.4719	2,827.15	80.6658	2,827.15	77.6736	2,827.15	80.2275	2,827.15	77.671	2,827.15	79.6623	2,827.15	78.7861	2,827.15	79.6125
3,032.23	77.8815	3,032.23	77.4919	3,032.23	79.6825	3,032.23	77.8555	3,032.23	81.5511	3,032.23	78.4161	3,032.23	82.6557	3,032.23	79.0083	3,032.23	82.9406	3,032.23	79.7737	3,032.23	82.5927	3,032.23	80.1654	3,032.23	82.1105	3,032.23	80.1399	3,032.23	81.4227	3,032.23	79.9732	3,032.23	81.5394	3,032.23	79.6052	3,032.23	80.9623	3,032.23	78.4999	3,032.23	79.4027	3,032.23	77.8767	3,032.23	79.8069	3,032.23	77.6866	3,032.23	80.5839	3,032.23	78.1138	3,032.23	80.8172	3,032.23	79.109	3,032.23	81.1308	3,032.23	79.9317	3,032.23	81.1901	3,032.23	80.6542	3,032.23	80.4264	3,032.23	81.0404	3,032.23	79.7934	3,032.23	80.3978
3,249.02	80.1013	3,249.02	78.4863	3,249.02	81.9752	3,249.02	77.8804	3,249.02	83.2365	3,249.02	78.22	3,249.02	83.747	3,249.02	79.2189	3,249.02	83.5399	3,249.02	79.86	3,249.02	82.5277	3,249.02	79.9379	3,249.02	81.1775	3,249.02	80.1241	3,249.02	80.8677	3,249.02	79.9062	3,249.02	81.2926	3,249.02	78.9708	3,249.02	81.1988	3,249.02	78.4188	3,249.02	81.38	3,249.02	78.65	3,249.02	81.011	3,249.02	79.568	3,249.02	81.0126	3,249.02	80.6208	3,249.02	82.0867	3,249.02	80.7486	3,249.02	82.6927	3,249.02	80.0192	3,249.02	82.5757	3,249.02	80.594	3,249.02	82.0536	3,249.02	81.073	3,249.02	80.7983	3,249.02	80.2484
3,483.4	82.0865	3,483.4	81.4225	3,483.4	82.8325	3,483.4	80.4518	3,483.4	83.6971	3,483.4	80.8828	3,483.4	83.8358	3,483.4	81.3079	3,483.4	83.8847	3,483.4	80.5495	3,483.4	83.0296	3,483.4	80.0423	3,483.4	81.9557	3,483.4	80.5924	3,483.4	81.7244	3,483.4	80.7138	3,483.4	82.1283	3,483.4	80.977	3,483.4	83.0845	3,483.4	80.9708	3,483.4	83.2884	3,483.4	80.6927	3,483.4	82.4187	3,483.4	80.2112	3,483.4	82.4096	3,483.4	80.6476	3,483.4	83.0214	3,483.4	81.1068	3,483.4	83.4811	3,483.4	80.869	3,483.4	83.9547	3,483.4	81.2711	3,483.4	83.4242	3,483.4	81.9198	3,483.4	82.8242	3,483.4	82.4554
3,732.42	83.4894	3,732.42	82.6113	3,732.42	84.907	3,732.42	82.6629	3,732.42	84.675	3,732.42	82.0343	3,732.42	83.2916	3,732.42	80.6953	3,732.42	82.9013	3,732.42	78.906	3,732.42	82.3566	3,732.42	78.7898	3,732.42	82.3579	3,732.42	80.6266	3,732.42	81.7087	3,732.42	81.8528	3,732.42	82.4482	3,732.42	82.5994	3,732.42	83.3547	3,732.42	81.9318	3,732.42	83.3456	3,732.42	81.1273	3,732.42	83.5133	3,732.42	79.8542	3,732.42	82.3705	3,732.42	79.204	3,732.42	80.1317	3,732.42	78.5216	3,732.42	80.8375	3,732.42	78.6534	3,732.42	82.4802	3,732.42	79.3929	3,732.42	83.8017	3,732.42	81.19	3,732.42	82.8128	3,732.42	81.9132
3,999.02	82.2403	3,999.02	82.3675	3,999.02	83.1998	3,999.02	82.5228	3,999.02	82.5098	3,999.02	81.4965	3,999.02	81.6597	3,999.02	80.3133	3,999.02	80.6011	3,999.02	78.222	3,999.02	79.5376	3,999.02	76.9457	3,999.02	80.5449	3,999.02	76.4871	3,999.02	81.2882	3,999.02	79.7348	3,999.02	82.0613	3,999.02	81.2993	3,999.02	82.852	3,999.02	81.9267	3,999.02	83.5054	3,999.02	81.1226	3,999.02	83.9316	3,999.02	77.6295	3,999.02	81.9245	3,999.02	74.8263	3,999.02	80.6367	3,999.02	76.7927	3,999.02	81.2622	3,999.02	76.8713	3,999.02	81.5579	3,999.02	76.5179	3,999.02	81.0962	3,999.02	77.0243	3,999.02	80.8741	3,999.02	79.689
4,286.13	82.9216	4,286.13	82.4722	4,286.13	80.6562	4,286.13	79.4741	4,286.13	80.3383	4,286.13	79.0755	4,286.13	80.8096	4,286.13	78.9971	4,286.13	80.1511	4,286.13	79.3427	4,286.13	80.6553	4,286.13	80.2569	4,286.13	80.6314	4,286.13	81.0376	4,286.13	81.3163	4,286.13	81.8792	4,286.13	83.9795	4,286.13	83.3055	4,286.13	84.5927	4,286.13	83.3241	4,286.13	84.0483	4,286.13	81.6917	4,286.13	83.2095	4,286.13	77.9863	4,286.13	81.7967	4,286.13	77.5623	4,286.13	80.8923	4,286.13	75.846	4,286.13	79.7635	4,286.13	77.4033	4,286.13	81.7921	4,286.13	78.6042	4,286.13	83.1403	4,286.13	78.71	4,286.13	82.1459	4,286.13	79.2272
4,593.75	80.3272	4,593.75	79.228	4,593.75	79.9728	4,593.75	77.5783	4,593.75	77.5053	4,593.75	71.0187	4,593.75	77.2963	4,593.75	69.9713	4,593.75	79.5011	4,593.75	77.6758	4,593.75	80.4648	4,593.75	81.3337	4,593.75	80.0605	4,593.75	80.5725	4,593.75	81.0608	4,593.75	80.2521	4,593.75	82.5903	4,593.75	79.2626	4,593.75	83.6717	4,593.75	79.1742	4,593.75	84.5374	4,593.75	77.4313	4,593.75	81.6445	4,593.75	78.9389	4,593.75	78.8672	4,593.75	75.0567	4,593.75	79.061	4,593.75	74.9656	4,593.75	80.0907	4,593.75	78.3262	4,593.75	80.5163	4,593.75	77.2389	4,593.75	81.4013	4,593.75	76.2072	4,593.75	80.4952	4,593.75	78.091
4,924.8	78.9063	4,924.8	80.2558	4,924.8	80.746	4,924.8	79.2055	4,924.8	80.2162	4,924.8	77.8731	4,924.8	78.3138	4,924.8	79.2525	4,924.8	79.921	4,924.8	79.8116	4,924.8	81.5339	4,924.8	80.8485	4,924.8	81.8969	4,924.8	81.1041	4,924.8	80.3102	4,924.8	79.2603	4,924.8	81.5386	4,924.8	78.2834	4,924.8	82.5214	4,924.8	80.7002	4,924.8	81.1669	4,924.8	81.8906	4,924.8	79.7674	4,924.8	79.4401	4,924.8	79.4187	4,924.8	79.9591	4,924.8	72.8788	4,924.8	80.9461	4,924.8	71.8444	4,924.8	80.0376	4,924.8	79.1126	4,924.8	81.459	4,924.8	81.8297	4,924.8	80.1019	4,924.8	78.417	4,924.8	74.053
5,279.3	81.4038	5,279.3	82.6279	5,279.3	76.7003	5,279.3	80.3609	5,279.3	77.92	5,279.3	81.3233	5,279.3	79.8418	5,279.3	82.2289	5,279.3	78.8547	5,279.3	81.4123	5,279.3	81.3323	5,279.3	80.9031	5,279.3	83.4793	5,279.3	80.1033	5,279.3	83.7651	5,279.3	82.5069	5,279.3	80.9121	5,279.3	82.1364	5,279.3	78.675	5,279.3	83.0982	5,279.3	81.3132	5,279.3	80.7372	5,279.3	82.8763	5,279.3	82.3882	5,279.3	81.0349	5,279.3	84.9527	5,279.3	81.1928	5,279.3	82.368	5,279.3	80.5395	5,279.3	81.7518	5,279.3	79.4247	5,279.3	83.2738	5,279.3	79.4974	5,279.3	82.6446	5,279.3	79.8163	5,279.3	82.4701
5,657.23	81.1459	5,657.23	80.5291	5,657.23	79.745	5,657.23	80.6632	5,657.23	78.768	5,657.23	80.5861	5,657.23	80.2034	5,657.23	80.4906	5,657.23	80.2579	5,657.23	82.6459	5,657.23	80.7258	5,657.23	83.6466	5,657.23	81.943	5,657.23	84.716	5,657.23	81.8308	5,657.23	82.6797	5,657.23	80.4655	5,657.23	81.0378	5,657.23	81.277	5,657.23	79.1744	5,657.23	81.6669	5,657.23	80.7845	5,657.23	82.432	5,657.23	84.9017	5,657.23	84.184	5,657.23	84.6079	5,657.23	83.2342	5,657.23	83.5359	5,657.23	79.9809	5,657.23	81.7679	5,657.23	78.5695	5,657.23	80.6802	5,657.23	78.0196	5,657.23	85.0606	5,657.23	76.7267	5,657.23	84.4387
6,061.52	79.7294	6,061.52	79.1281	6,061.52	78.8441	6,061.52	78.1732	6,061.52	77.7649	6,061.52	79.0632	6,061.52	78.6158	6,061.52	79.9629	6,061.52	79.7877	6,061.52	80.4463	6,061.52	78.3492	6,061.52	80.6925	6,061.52	78.0567	6,061.52	83.741	6,061.52	77.8725	6,061.52	82.4939	6,061.52	78.1518	6,061.52	80.6866	6,061.52	76.9053	6,061.52	79.1331	6,061.52	76.8917	6,061.52	82.5758	6,061.52	78.837	6,061.52	82.8548	6,061.52	81.1399	6,061.52	83.5172	6,061.52	79.3954	6,061.52	81.7407	6,061.52	82.0437	6,061.52	77.9443	6,061.52	79.4044	6,061.52	78.5853	6,061.52	75.2182	6,061.52	82.0151	6,061.52	81.8099	6,061.52	82.9147
6,498.05	78.5453	6,498.05	74.739	6,498.05	79.8247	6,498.05	76.9135	6,498.05	79.2866	6,498.05	79.4829	6,498.05	77.7022	6,498.05	78.4825	6,498.05	76.0042	6,498.05	77.9035	6,498.05	78.1189	6,498.05	81.3581	6,498.05	79.7633	6,498.05	82.5097	6,498.05	79.1803	6,498.05	79.113	6,498.05	76.7075	6,498.05	75.9962	6,498.05	74.1326	6,498.05	76.8246	6,498.05	74.9257	6,498.05	75.3886	6,498.05	76.3582	6,498.05	77.6106	6,498.05	73.9251	6,498.05	79.2122	6,498.05	80.2962	6,498.05	81.0802	6,498.05	78.6153	6,498.05	76.1102	6,498.05	64.6503	6,498.05	76.9054	6,498.05	76.2606	6,498.05	80.9042	6,498.05	81.5634	6,498.05	82.4057
6,963.87	79.0697	6,963.87	78.379	6,963.87	80.4434	6,963.87	79.415	6,963.87	79.8397	6,963.87	76.8082	6,963.87	78.7164	6,963.87	77.8608	6,963.87	79.1454	6,963.87	80.4314	6,963.87	80.5601	6,963.87	81.6191	6,963.87	79.0418	6,963.87	80.0248	6,963.87	78.5016	6,963.87	77.7061	6,963.87	80.8611	6,963.87	78.2215	6,963.87	78.3396	6,963.87	76.0533	6,963.87	74.7421	6,963.87	78.8428	6,963.87	73.1479	6,963.87	77.396	6,963.87	79.2347	6,963.87	80.3929	6,963.87	82.2591	6,963.87	79.4825	6,963.87	78.8546	6,963.87	78.6843	6,963.87	79.4435	6,963.87	80.7944	6,963.87	80.7426	6,963.87	81.5826	6,963.87	82.3939	6,963.87	82.615
7,464.84	82.5873	7,464.84	80.9483	7,464.84	81.8877	7,464.84	79.9493	7,464.84	80.5098	7,464.84	81.7649	7,464.84	80.0851	7,464.84	82.7648	7,464.84	81.2735	7,464.84	83.0942	7,464.84	79.8336	7,464.84	82.4421	7,464.84	81.2672	7,464.84	81.3425	7,464.84	81.9615	7,464.84	80.6503	7,464.84	82.1346	7,464.84	80.4363	7,464.84	79.7162	7,464.84	82.6685	7,464.84	79.2352	7,464.84	80.7482	7,464.84	81.12	7,464.84	81.5288	7,464.84	82.0547	7,464.84	83.3235	7,464.84	81.5278	7,464.84	81.6371	7,464.84	81.5151	7,464.84	81.332	7,464.84	83.6795	7,464.84	79.9118	7,464.84	82.3979	7,464.84	81.3205	7,464.84	81.1224	7,464.84	82.7776
8,000.98	80.78	8,000.98	80.599	8,000.98	80.8841	8,000.98	79.476	8,000.98	81.0528	8,000.98	78.3941	8,000.98	79.8771	8,000.98	81.349	8,000.98	80.2323	8,000.98	82.2115	8,000.98	81.0015	8,000.98	79.9834	8,000.98	81.56	8,000.98	79.1475	8,000.98	79.9806	8,000.98	77.7075	8,000.98	78.1725	8,000.98	79.8372	8,000.98	77.796	8,000.98	79.064	8,000.98	78.2185	8,000.98	80.0057	8,000.98	79.7632	8,000.98	81.0548	8,000.98	80.7716	8,000.98	79.0961	8,000.98	80.8514	8,000.98	77.4899	8,000.98	80.0973	8,000.98	79.315	8,000.98	78.5978	8,000.98	77.6235	8,000.98	79.4821	8,000.98	76.3658	8,000.98	80.3404	8,000.98	79.9679
8,575.2	77.9057	8,575.2	79.0963	8,575.2	80.0273	8,575.2	79.1282	8,575.2	81.3026	8,575.2	81.1985	8,575.2	79.7964	8,575.2	82.0583	8,575.2	78.2687	8,575.2	80.0782	8,575.2	80.1242	8,575.2	77.7767	8,575.2	80.7406	8,575.2	76.8355	8,575.2	78.6367	8,575.2	78.1037	8,575.2	81.7908	8,575.2	79.7796	8,575.2	79.1514	8,575.2	80.5936	8,575.2	80.5058	8,575.2	81.0901	8,575.2	81.0552	8,575.2	80.7909	8,575.2	80.1972	8,575.2	77.342	8,575.2	78.053	8,575.2	76.1421	8,575.2	75.6968	8,575.2	77.1668	8,575.2	76.7194	8,575.2	74.0896	8,575.2	78.1893	8,575.2	74.8609	8,575.2	76.3167	8,575.2	75.137
9,190.43	78.6328	9,190.43	78.1739	9,190.43	79.7297	9,190.43	77.8183	9,190.43	80.4128	9,190.43	80.2533	9,190.43	76.4835	9,190.43	79.3352	9,190.43	76.1068	9,190.43	78.7603	9,190.43	79.5579	9,190.43	75.5354	9,190.43	78.5588	9,190.43	75.4838	9,190.43	79.1743	9,190.43	79.6815	9,190.43	78.8523	9,190.43	79.8073	9,190.43	77.3122	9,190.43	79.7297	9,190.43	79.215	9,190.43	80.991	9,190.43	80.2337	9,190.43	78.2238	9,190.43	80.4449	9,190.43	75.3999	9,190.43	78.0742	9,190.43	78.418	9,190.43	75.3708	9,190.43	72.9918	9,190.43	74.3297	9,190.43	71.1907	9,190.43	73.4177	9,190.43	70.7434	9,190.43	74.9585	9,190.43	75.8697
9,849.61	79.1171	9,849.61	78.4601	9,849.61	79.1224	9,849.61	79.8891	9,849.61	78.4194	9,849.61	79.7897	9,849.61	75.0274	9,849.61	78.5409	9,849.61	75.7134	9,849.61	76.813	9,849.61	78.338	9,849.61	75.4055	9,849.61	77.6493	9,849.61	77.4344	9,849.61	77.8619	9,849.61	78.8364	9,849.61	77.2911	9,849.61	79.4413	9,849.61	78.8992	9,849.61	79.3132	9,849.61	79.3499	9,849.61	79.5376	9,849.61	80.835	9,849.61	78.6366	9,849.61	79.2912	9,849.61	78.8966	9,849.61	76.5364	9,849.61	77.2188	9,849.61	75.8034	9,849.61	73.3852	9,849.61	74.8469	9,849.61	70.8583	9,849.61	66.4136	9,849.61	70.0318	9,849.61	69.0846	9,849.61	69.0532
10,555.7	80.9084	10,555.7	80.306	10,555.7	80.356	10,555.7	80.5504	10,555.7	78.9262	10,555.7	79.1269	10,555.7	78.7496	10,555.7	79.1519	10,555.7	77.6556	10,555.7	78.8495	10,555.7	79.2374	10,555.7	78.4977	10,555.7	78.6003	10,555.7	79.1234	10,555.7	78.55	10,555.7	79.9092	10,555.7	79.2881	10,555.7	80.4314	10,555.7	80.511	10,555.7	78.3696	10,555.7	79.8989	10,555.7	80.5594	10,555.7	81.6937	10,555.7	78.9078	10,555.7	80.278	10,555.7	81.5613	10,555.7	79.8234	10,555.7	82.2289	10,555.7	82.2965	10,555.7	78.2709	10,555.7	79.7859	10,555.7	77.7649	10,555.7	74.1983	10,555.7	76.4821	10,555.7	65.4547	10,555.7	74.7888
11,314.5	81.3885	11,314.5	81.1597	11,314.5	79.7212	11,314.5	80.3038	11,314.5	79.8247	11,314.5	80.7183	11,314.5	81.3458	11,314.5	81.1	11,314.5	79.8917	11,314.5	80.7945	11,314.5	80.37	11,314.5	79.7971	11,314.5	79.9951	11,314.5	81.4393	11,314.5	78.5575	11,314.5	80.644	11,314.5	79.0889	11,314.5	79.6444	11,314.5	80.2518	11,314.5	78.1133	11,314.5	78.1543	11,314.5	80.5758	11,314.5	81.7231	11,314.5	81.4716	11,314.5	79.2303	11,314.5	83.7159	11,314.5	82.5427	11,314.5	83.8617	11,314.5	84.2398	11,314.5	79.576	11,314.5	83.4371	11,314.5	81.6052	11,314.5	78.4319	11,314.5	80.5525	11,314.5	73.7496	11,314.5	77.8032
12,126	82.2004	12,126	82.5021	12,126	80.1247	12,126	79.5803	12,126	79.6733	12,126	81.4686	12,126	81.4683	12,126	78.0128	12,126	78.7355	12,126	79.8369	12,126	80.5809	12,126	80.0781	12,126	79.2757	12,126	79.2275	12,126	78.6415	12,126	77.723	12,126	79.8788	12,126	78.8143	12,126	77.7124	12,126	76.5848	12,126	79.1399	12,126	81.6182	12,126	78.6176	12,126	82.9368	12,126	80.3488	12,126	84.8631	12,126	84.2073	12,126	84.3245	12,126	83.4865	12,126	80.4768	12,126	84.8793	12,126	82.2332	12,126	80.0193	12,126	80.5341	12,126	76.3681	12,126	80.2507
12,996.1	83.9825	12,996.1	84.5126	12,996.1	82.1067	12,996.1	79.6007	12,996.1	82.9588	12,996.1	83.0844	12,996.1	80.759	12,996.1	80.1626	12,996.1	80.8731	12,996.1	83.5654	12,996.1	83.461	12,996.1	82.468	12,996.1	81.3754	12,996.1	79.9706	12,996.1	82.8302	12,996.1	76.4155	12,996.1	81.4795	12,996.1	81.8899	12,996.1	79.6508	12,996.1	80.1674	12,996.1	80.3727	12,996.1	83.3194	12,996.1	80.4309	12,996.1	87.4871	12,996.1	83.4598	12,996.1	86.5804	12,996.1	87.6467	12,996.1	87.6989	12,996.1	85.5458	12,996.1	84.4334	12,996.1	88.6651	12,996.1	84.7143	12,996.1	82.0621	12,996.1	82.0487	12,996.1	82.1345	12,996.1	83.9925
13,927.7	81.3002	13,927.7	80.4734	13,927.7	79.5356	13,927.7	78.4136	13,927.7	80.1939	13,927.7	79.5875	13,927.7	74.4908	13,927.7	77.6912	13,927.7	81.9038	13,927.7	81.8636	13,927.7	81.9484	13,927.7	78.2908	13,927.7	79.736	13,927.7	71.9856	13,927.7	80.3857	13,927.7	72.7282	13,927.7	76.5576	13,927.7	77.1926	13,927.7	77.5589	13,927.7	76.9886	13,927.7	74.8032	13,927.7	78.4974	13,927.7	76.8739	13,927.7	84.3978	13,927.7	80.1193	13,927.7	80.6497	13,927.7	84.9406	13,927.7	85.0626	13,927.7	81.7284	13,927.7	84.2168	13,927.7	86.9753	13,927.7	85.7691	13,927.7	80.5575	13,927.7	82.7559	13,927.7	83.0399	13,927.7	80.9083
14,929.7	82.8112	14,929.7	78.4947	14,929.7	79.0698	14,929.7	82.0087	14,929.7	77.2798	14,929.7	80.2421	14,929.7	78.6156	14,929.7	78.7459	14,929.7	83.6909	14,929.7	81.6269	14,929.7	80.7087	14,929.7	74.8734	14,929.7	78.1796	14,929.7	75.444	14,929.7	80.2553	14,929.7	67.9708	14,929.7	72.3428	14,929.7	80.0755	14,929.7	76.1531	14,929.7	76.8804	14,929.7	73.2258	14,929.7	77.013	14,929.7	78.4519	14,929.7	83.2282	14,929.7	78.9245	14,929.7	76.1912	14,929.7	82.9884	14,929.7	85.0982	14,929.7	78.5028	14,929.7	84.1846	14,929.7	86.8589	14,929.7	84.5235	14,929.7	82.2212	14,929.7	83.1739	14,929.7	86.9071	14,929.7	79.2482
15,999	77.9962	15,999	71.9651	15,999	73.9099	15,999	78.1796	15,999	71.2741	15,999	75.1132	15,999	77.1559	15,999	74.4983	15,999	79.0341	15,999	76.1711	15,999	76.9792	15,999	69.8834	15,999	74.1031	15,999	71.4968	15,999	71.6626	15,999	70.4511	15,999	60.8133	15,999	72.1667	15,999	67.7954	15,999	71.2695	15,999	72.8485	15,999	68.3253	15,999	76.7464	15,999	72.6117	15,999	69.7772	15,999	70.7028	15,999	71.9689	15,999	78.0598	15,999	67.8722	15,999	80.0892	15,999	80.1448	15,999	82.5202	15,999	76.3141	15,999	82.1941	15,999	81.1236	15,999	69.0535
17,147.5	79.4605	17,147.5	78.0345	17,147.5	77.5359	17,147.5	77.8965	17,147.5	73.9818	17,147.5	76.0133	17,147.5	77.06	17,147.5	76.5892	17,147.5	76.4026	17,147.5	77.4097	17,147.5	77.0238	17,147.5	75.5324	17,147.5	73.1287	17,147.5	74.2541	17,147.5	70.592	17,147.5	74.9824	17,147.5	68.4035	17,147.5	72.7879	17,147.5	67.0336	17,147.5	69.8016	17,147.5	74.5001	17,147.5	73.1152	17,147.5	80.0824	17,147.5	70.5777	17,147.5	75.2519	17,147.5	75.2205	17,147.5	64.4625	17,147.5	73.5872	17,147.5	78.0483	17,147.5	80.4761	17,147.5	78.0379	17,147.5	82.9538	17,147.5	77.7847	17,147.5	81.5382	17,147.5	77.4699	17,147.5	70.3706
18,377.9	78.5663	18,377.9	76.0619	18,377.9	74.7891	18,377.9	76.2608	18,377.9	74.9097	18,377.9	77.0847	18,377.9	75.9869	18,377.9	76.3831	18,377.9	75.7318	18,377.9	75.2612	18,377.9	75.645	18,377.9	73.7136	18,377.9	69.2277	18,377.9	63.884	18,377.9	68.175	18,377.9	75.5438	18,377.9	67.1143	18,377.9	77.057	18,377.9	61.2052	18,377.9	67.9055	18,377.9	72.0339	18,377.9	70.3798	18,377.9	77.0894	18,377.9	66.0759	18,377.9	74.2523	18,377.9	72.9209	18,377.9	70.2078	18,377.9	68.4937	18,377.9	78.1981	18,377.9	77.77	18,377.9	77.7438	18,377.9	79.3542	18,377.9	74.3493	18,377.9	78.7253	18,377.9	75.4016	18,377.9	72.9441
19,699.2	67.5219	19,699.2	67.3503	19,699.2	63.4933	19,699.2	69.0647	19,699.2	68.7886	19,699.2	69.0095	19,699.2	69.049	19,699.2	67.7855	19,699.2	69.0004	19,699.2	63.1253	19,699.2	62.3158	19,699.2	61.4083	19,699.2	59.6311	19,699.2	57.3966	19,699.2	56.6641	19,699.2	68.8066	19,699.2	59.9731	19,699.2	70.401	19,699.2	39.4775	19,699.2	56.8866	19,699.2	54.4152	19,699.2	58.646	19,699.2	66.1784	19,699.2	58.6075	19,699.2	66.7731	19,699.2	53.6946	19,699.2	64.5693	19,699.2	57.611	19,699.2	66.4515	19,699.2	67.0742	19,699.2	66.0958	19,699.2	68.1434	19,699.2	59.3426	19,699.2	67.7827	19,699.2	67.3159	19,699.2	65.3196
19,998	59.4908	19,998	60.9897	19,998	57.1144	19,998	61.8514	19,998	63.0409	19,998	62.2151	19,998	63.9753	19,998	61.6886	19,998	62.7328	19,998	53.9212	19,998	53.9577	19,998	53.4712	19,998	52.9407	19,998	42.7907	19,998	49.1563	19,998	62.0618	19,998	56.6124	19,998	63.4195	19,998	47.2519	19,998	46.9903	19,998	46.9693	19,998	51.6691	19,998	57.5952	19,998	54.3058	19,998	59.0151	19,998	39.0194	19,998	58.7075	19,998	52.9258	19,998	59.9446	19,998	60.4032	19,998	58.3846	19,998	61.6875	19,998	53.3079	19,998	60.2505	19,998	61.2356	19,998	58.6266
