"SPL Vertical"
"On-Axis"		"10°"		"-10°"		"20°"		"-20°"		"30°"		"-30°"		"40°"		"-40°"		"50°"		"-50°"		"60°"		"-60°"		"70°"		"-70°"		"80°"		"-80°"		"90°"		"-90°"		"100°"		"-100°"		"110°"		"-110°"		"120°"		"-120°"		"130°"		"-130°"		"140°"		"-140°"		"150°"		"-150°"		"160°"		"-160°"		"170°"		"-170°"		"180°"
"Frequency [Hz]"	"Sound Pessure Level [dB]  / [2.83V 1m] "	"Frequency [Hz]"	"Sound Pessure Level [dB]  / [2.83V 1m] "	"Frequency [Hz]"	"Sound Pessure Level [dB]  / [2.83V 1m] "	"Frequency [Hz]"	"Sound Pessure Level [dB]  / [2.83V 1m] "	"Frequency [Hz]"	"Sound Pessure Level [dB]  / [2.83V 1m] "	"Frequency [Hz]"	"Sound Pessure Level [dB]  / [2.83V 1m] "	"Frequency [Hz]"	"Sound Pessure Level [dB]  / [2.83V 1m] "	"Frequency [Hz]"	"Sound Pessure Level [dB]  / [2.83V 1m] "	"Frequency [Hz]"	"Sound Pessure Level [dB]  / [2.83V 1m] "	"Frequency [Hz]"	"Sound Pessure Level [dB]  / [2.83V 1m] "	"Frequency [Hz]"	"Sound Pessure Level [dB]  / [2.83V 1m] "	"Frequency [Hz]"	"Sound Pessure Level [dB]  / [2.83V 1m] "	"Frequency [Hz]"	"Sound Pessure Level [dB]  / [2.83V 1m] "	"Frequency [Hz]"	"Sound Pessure Level [dB]  / [2.83V 1m] "	"Frequency [Hz]"	"Sound Pessure Level [dB]  / [2.83V 1m] "	"Frequency [Hz]"	"Sound Pessure Level [dB]  / [2.83V 1m] "	"Frequency [Hz]"	"Sound Pessure Level [dB]  / [2.83V 1m] "	"Frequency [Hz]"	"Sound Pessure Level [dB]  / [2.83V 1m] "	"Frequency [Hz]"	"Sound Pessure Level [dB]  / [2.83V 1m] "	"Frequency [Hz]"	"Sound Pessure Level [dB]  / [2.83V 1m] "	"Frequency [Hz]"	"Sound Pessure Level [dB]  / [2.83V 1m] "	"Frequency [Hz]"	"Sound Pessure Level [dB]  / [2.83V 1m] "	"Frequency [Hz]"	"Sound Pessure Level [dB]  / [2.83V 1m] "	"Frequency [Hz]"	"Sound Pessure Level [dB]  / [2.83V 1m] "	"Frequency [Hz]"	"Sound Pessure Level [dB]  / [2.83V 1m] "	"Frequency [Hz]"	"Sound Pessure Level [dB]  / [2.83V 1m] "	"Frequency [Hz]"	"Sound Pessure Level [dB]  / [2.83V 1m] "	"Frequency [Hz]"	"Sound Pessure Level [dB]  / [2.83V 1m] "	"Frequency [Hz]"	"Sound Pessure Level [dB]  / [2.83V 1m] "	"Frequency [Hz]"	"Sound Pessure Level [dB]  / [2.83V 1m] "	"Frequency [Hz]"	"Sound Pessure Level [dB]  / [2.83V 1m] "	"Frequency [Hz]"	"Sound Pessure Level [dB]  / [2.83V 1m] "	"Frequency [Hz]"	"Sound Pessure Level [dB]  / [2.83V 1m] "	"Frequency [Hz]"	"Sound Pessure Level [dB]  / [2.83V 1m] "	"Frequency [Hz]"	"Sound Pessure Level [dB]  / [2.83V 1m] "	"Frequency [Hz]"	"Sound Pessure Level [dB]  / [2.83V 1m] "
20.5078	73.6252	20.5078	73.7572	20.5078	73.4999	20.5078	73.8931	20.5078	73.3838	20.5078	74.0297	20.5078	73.279	20.5078	74.1633	20.5078	73.1875	20.5078	74.2898	20.5078	73.1113	20.5078	74.4049	20.5078	73.0524	20.5078	74.5042	20.5078	73.0128	20.5078	74.5836	20.5078	72.9941	20.5078	74.6394	20.5078	72.9981	20.5078	74.6686	20.5078	73.0257	20.5078	74.6691	20.5078	73.0773	20.5078	74.6402	20.5078	73.1526	20.5078	74.5823	20.5078	73.2503	20.5078	74.4973	20.5078	73.368	20.5078	74.3882	20.5078	73.5026	20.5078	74.2592	20.5078	73.6497	20.5078	74.1151	20.5078	73.8046	20.5078	73.9616
23.4375	77.7321	23.4375	77.8638	23.4375	77.6091	23.4375	78.001	23.4375	77.4978	23.4375	78.1399	23.4375	77.4007	23.4375	78.2763	23.4375	77.3197	23.4375	78.406	23.4375	77.2567	23.4375	78.5244	23.4375	77.213	23.4375	78.627	23.4375	77.1896	23.4375	78.7098	23.4375	77.1872	23.4375	78.769	23.4375	77.2061	23.4375	78.8018	23.4375	77.2463	23.4375	78.8065	23.4375	77.3073	23.4375	78.7825	23.4375	77.3879	23.4375	78.7305	23.4375	77.4868	23.4375	78.6525	23.4375	77.6017	23.4375	78.5518	23.4375	77.7299	23.4375	78.4325	23.4375	77.868	23.4375	78.2993	23.4375	78.012	23.4375	78.1575
26.3672	80.6149	26.3672	80.7474	26.3672	80.4922	26.3672	80.8864	26.3672	80.3821	26.3672	81.028	26.3672	80.2871	26.3672	81.1679	26.3672	80.209	26.3672	81.3016	26.3672	80.1493	26.3672	81.4241	26.3672	80.1093	26.3672	81.5309	26.3672	80.0895	26.3672	81.6175	26.3672	80.0906	26.3672	81.6801	26.3672	80.1127	26.3672	81.7157	26.3672	80.1555	26.3672	81.7225	26.3672	80.2185	26.3672	81.6999	26.3672	80.3006	26.3672	81.6485	26.3672	80.4005	26.3672	81.5706	26.3672	80.5159	26.3672	81.4695	26.3672	80.6445	26.3672	81.3496	26.3672	80.7829	26.3672	81.2157	26.3672	80.9272	26.3672	81.0732
29.2969	83.1002	29.2969	83.235	29.2969	82.9752	29.2969	83.376	29.2969	82.8631	29.2969	83.5194	29.2969	82.7662	29.2969	83.6608	29.2969	82.6869	29.2969	83.7956	29.2969	82.6266	29.2969	83.9192	29.2969	82.5867	29.2969	84.0268	29.2969	82.5679	29.2969	84.1141	29.2969	82.5707	29.2969	84.1775	29.2969	82.5951	29.2969	84.2139	29.2969	82.6407	29.2969	84.2215	29.2969	82.7069	29.2969	84.1998	29.2969	82.7924	29.2969	84.1496	29.2969	82.8955	29.2969	84.0728	29.2969	83.0139	29.2969	83.9727	29.2969	83.145	29.2969	83.8536	29.2969	83.2853	29.2969	83.7202	29.2969	83.431	29.2969	83.5776
32.2266	84.6309	32.2266	84.7605	32.2266	84.5126	32.2266	84.8979	32.2266	84.4085	32.2266	85.039	32.2266	84.3211	32.2266	85.1795	32.2266	84.2521	32.2266	85.3146	32.2266	84.2029	32.2266	85.4396	32.2266	84.1742	32.2266	85.5499	32.2266	84.1664	32.2266	85.6409	32.2266	84.1793	32.2266	85.7091	32.2266	84.2125	32.2266	85.7513	32.2266	84.2653	32.2266	85.7657	32.2266	84.3365	32.2266	85.7517	32.2266	84.4247	32.2266	85.7098	32.2266	84.5283	32.2266	85.642	32.2266	84.645	32.2266	85.5513	32.2266	84.7722	32.2266	85.4416	32.2266	84.907	32.2266	85.3176	32.2266	85.0456	32.2266	85.184
35.1562	86.3571	35.1562	86.4856	35.1562	86.2391	35.1562	86.6211	35.1562	86.1344	35.1562	86.7599	35.1562	86.0456	35.1562	86.8977	35.1562	85.9745	35.1562	87.03	35.1562	85.9226	35.1562	87.1523	35.1562	85.8909	35.1562	87.2599	35.1562	85.8798	35.1562	87.3487	35.1562	85.8896	35.1562	87.4148	35.1562	85.9199	35.1562	87.4555	35.1562	85.97	35.1562	87.4687	35.1562	86.0391	35.1562	87.4537	35.1562	86.1258	35.1562	87.4111	35.1562	86.2282	35.1562	87.3428	35.1562	86.3443	35.1562	87.2517	35.1562	86.4713	35.1562	87.1418	35.1562	86.606	35.1562	87.0174	35.1562	86.7449	35.1562	86.8835
38.0859	87.5037	38.0859	87.6321	38.0859	87.3859	38.0859	87.7676	38.0859	87.2815	38.0859	87.9065	38.0859	87.1929	38.0859	88.0444	38.0859	87.122	38.0859	88.1769	38.0859	87.07	38.0859	88.2992	38.0859	87.0381	38.0859	88.4067	38.0859	87.0266	38.0859	88.4951	38.0859	87.0357	38.0859	88.5606	38.0859	87.0652	38.0859	88.6003	38.0859	87.1145	38.0859	88.6122	38.0859	87.1826	38.0859	88.5959	38.0859	87.2682	38.0859	88.552	38.0859	87.3696	38.0859	88.4824	38.0859	87.4846	38.0859	88.3903	38.0859	87.6107	38.0859	88.2796	38.0859	87.7446	38.0859	88.1549	38.0859	87.8828	38.0859	88.021
41.0156	88.4327	41.0156	88.5627	41.0156	88.3129	41.0156	88.6996	41.0156	88.2062	41.0156	88.8394	41.0156	88.1149	41.0156	88.9779	41.0156	88.0409	41.0156	89.1105	41.0156	87.9858	41.0156	89.2324	41.0156	87.9504	41.0156	89.3391	41.0156	87.9354	41.0156	89.4262	41.0156	87.9412	41.0156	89.4899	41.0156	87.9675	41.0156	89.5273	41.0156	88.0139	41.0156	89.5365	41.0156	88.0797	41.0156	89.5171	41.0156	88.1636	41.0156	89.4698	41.0156	88.2639	41.0156	89.3966	41.0156	88.3787	41.0156	89.3008	41.0156	88.5053	41.0156	89.1865	41.0156	88.6405	41.0156	89.0584	41.0156	88.7806	41.0156	88.9215
43.9453	89.0281	43.9453	89.1582	43.9453	88.9077	43.9453	89.2946	43.9453	88.7999	43.9453	89.4336	43.9453	88.707	43.9453	89.5709	43.9453	88.6309	43.9453	89.702	43.9453	88.5732	43.9453	89.8222	43.9453	88.5349	43.9453	89.9268	43.9453	88.5168	43.9453	90.0117	43.9453	88.5193	43.9453	90.0729	43.9453	88.5423	43.9453	90.1077	43.9453	88.5856	43.9453	90.1142	43.9453	88.6484	43.9453	90.092	43.9453	88.7297	43.9453	90.0419	43.9453	88.8279	43.9453	89.966	43.9453	88.9411	43.9453	89.8677	43.9453	89.0666	43.9453	89.7513	43.9453	89.2013	43.9453	89.6214	43.9453	89.3416	43.9453	89.4832
46.875	89.18	46.875	89.3089	46.875	89.061	46.875	89.4444	46.875	88.9547	46.875	89.5827	46.875	88.8634	46.875	89.7195	46.875	88.7891	46.875	89.8503	46.875	88.7332	46.875	89.9705	46.875	88.6966	46.875	90.0753	46.875	88.6802	46.875	90.1606	46.875	88.6843	46.875	90.2225	46.875	88.7087	46.875	90.2582	46.875	88.7532	46.875	90.266	46.875	88.817	46.875	90.2453	46.875	88.899	46.875	90.1969	46.875	88.9976	46.875	90.123	46.875	89.1106	46.875	90.0269	46.875	89.2357	46.875	89.9126	46.875	89.3695	46.875	89.7848	46.875	89.5085	46.875	89.6485
49.8047	88.9959	49.8047	89.1262	49.8047	88.8758	49.8047	89.2635	49.8047	88.769	49.8047	89.404	49.8047	88.6776	49.8047	89.5432	49.8047	88.6036	49.8047	89.6765	49.8047	88.5482	49.8047	89.7992	49.8047	88.5125	49.8047	89.9063	49.8047	88.4971	49.8047	89.9936	49.8047	88.5023	49.8047	90.057	49.8047	88.5279	49.8047	90.0937	49.8047	88.5736	49.8047	90.1018	49.8047	88.6386	49.8047	90.081	49.8047	88.7217	49.8047	90.032	49.8047	88.8213	49.8047	89.9571	49.8047	88.9354	49.8047	89.8598	49.8047	89.0614	49.8047	89.7441	49.8047	89.1962	49.8047	89.615	49.8047	89.3363	49.8047	89.4774
55.6641	88.2936	55.6641	88.427	55.6641	88.1711	55.6641	88.5676	55.6641	88.0624	55.6641	88.7115	55.6641	87.9699	55.6641	88.854	55.6641	87.8954	55.6641	88.9904	55.6641	87.8404	55.6641	89.1155	55.6641	87.8056	55.6641	89.2245	55.6641	87.7916	55.6641	89.3128	55.6641	87.7985	55.6641	89.3765	55.6641	87.826	55.6641	89.4127	55.6641	87.8735	55.6641	89.4196	55.6641	87.9401	55.6641	89.397	55.6641	88.0246	55.6641	89.3461	55.6641	88.1251	55.6641	89.2691	55.6641	88.2399	55.6641	89.1697	55.6641	88.3663	55.6641	89.0524	55.6641	88.5015	55.6641	88.922	55.6641	88.6419	55.6641	88.7836
58.5938	87.7854	58.5938	87.9224	58.5938	87.6589	58.5938	88.066	58.5938	87.5461	58.5938	88.2118	58.5938	87.4497	58.5938	88.3553	58.5938	87.3719	58.5938	88.4913	58.5938	87.3142	58.5938	88.615	58.5938	87.2775	58.5938	88.7214	58.5938	87.2624	58.5938	88.8061	58.5938	87.2687	58.5938	88.8655	58.5938	87.2962	58.5938	88.897	58.5938	87.344	58.5938	88.8992	58.5938	87.4109	58.5938	88.8721	58.5938	87.4956	58.5938	88.8171	58.5938	87.5961	58.5938	88.7369	58.5938	87.7103	58.5938	88.6354	58.5938	87.8358	58.5938	88.517	58.5938	87.9696	58.5938	88.3866	58.5938	88.1085	58.5938	88.2489
61.5234	87.3642	61.5234	87.4974	61.5234	87.2406	61.5234	87.6368	61.5234	87.1297	61.5234	87.7783	61.5234	87.034	61.5234	87.9174	61.5234	86.9554	61.5234	88.0495	61.5234	86.8955	61.5234	88.1695	61.5234	86.8552	61.5234	88.2729	61.5234	86.8352	61.5234	88.355	61.5234	86.8359	61.5234	88.4122	61.5234	86.857	61.5234	88.4417	61.5234	86.8981	61.5234	88.4419	61.5234	86.9585	61.5234	88.4128	61.5234	87.0369	61.5234	88.3555	61.5234	87.132	61.5234	88.2729	61.5234	87.2419	61.5234	88.1689	61.5234	87.3642	61.5234	88.048	61.5234	87.4963	61.5234	87.9153	61.5234	87.6348	61.5234	87.7759
67.3828	86.4649	67.3828	86.5938	67.3828	86.3465	67.3828	86.7299	67.3828	86.2415	67.3828	86.8692	67.3828	86.1522	67.3828	87.0075	67.3828	86.0802	67.3828	87.1398	67.3828	86.0269	67.3828	87.2612	67.3828	85.9931	67.3828	87.3669	67.3828	85.9793	67.3828	87.4521	67.3828	85.9855	67.3828	87.5131	67.3828	86.0115	67.3828	87.547	67.3828	86.0567	67.3828	87.5521	67.3828	86.1202	67.3828	87.5283	67.3828	86.2008	67.3828	87.4768	67.3828	86.2968	67.3828	87.4003	67.3828	86.4064	67.3828	87.3025	67.3828	86.5272	67.3828	87.1878	67.3828	86.6565	67.3828	87.0612	67.3828	86.7912	67.3828	86.9275
73.2422	86.2026	73.2422	86.3321	73.2422	86.0848	73.2422	86.47	73.2422	85.9814	73.2422	86.6123	73.2422	85.8945	73.2422	86.7546	73.2422	85.8257	73.2422	86.8919	73.2422	85.7761	73.2422	87.019	73.2422	85.7465	73.2422	87.1307	73.2422	85.7372	73.2422	87.2222	73.2422	85.7481	73.2422	87.2893	73.2422	85.779	73.2422	87.3291	73.2422	85.8291	73.2422	87.3397	73.2422	85.8976	73.2422	87.3208	73.2422	85.983	73.2422	87.2734	73.2422	86.0837	73.2422	87.2002	73.2422	86.1977	73.2422	87.1048	73.2422	86.3225	73.2422	86.9915	73.2422	86.4552	73.2422	86.8651	73.2422	86.5925	73.2422	86.7306
76.1719	86.3664	76.1719	86.4971	76.1719	86.2476	76.1719	86.6365	76.1719	86.1435	76.1719	86.7807	76.1719	86.0562	76.1719	86.9248	76.1719	85.9871	76.1719	87.064	76.1719	85.9374	76.1719	87.1929	76.1719	85.9077	76.1719	87.3061	76.1719	85.8983	76.1719	87.3987	76.1719	85.9092	76.1719	87.4666	76.1719	85.9401	76.1719	87.5067	76.1719	85.9903	76.1719	87.5171	76.1719	86.0588	76.1719	87.4976	76.1719	86.1445	76.1719	87.4493	76.1719	86.2457	76.1719	87.3748	76.1719	86.3604	76.1719	87.2779	76.1719	86.4862	76.1719	87.1629	76.1719	86.6202	76.1719	87.0349	76.1719	86.7589	76.1719	86.8986
82.0312	86.7334	82.0312	86.8657	82.0312	86.6131	82.0312	87.0067	82.0312	86.5077	82.0312	87.1522	82.0312	86.4194	82.0312	87.2974	82.0312	86.3495	82.0312	87.4371	82.0312	86.2992	82.0312	87.5659	82.0312	86.269	82.0312	87.6785	82.0312	86.2591	82.0312	87.7698	82.0312	86.2692	82.0312	87.8356	82.0312	86.2989	82.0312	87.8729	82.0312	86.3475	82.0312	87.8799	82.0312	86.4139	82.0312	87.8565	82.0312	86.4971	82.0312	87.8042	82.0312	86.5956	82.0312	87.7257	82.0312	86.7075	82.0312	87.6252	82.0312	86.8308	82.0312	87.5073	82.0312	86.9628	82.0312	87.3772	82.0312	87.1004	82.0312	87.24
87.8906	87.4345	87.8906	87.5696	87.8906	87.3121	87.8906	87.7137	87.8906	87.2052	87.8906	87.8626	87.8906	87.1161	87.8906	88.0113	87.8906	87.0462	87.8906	88.1545	87.8906	86.9964	87.8906	88.2864	87.8906	86.9674	87.8906	88.4015	87.8906	86.959	87.8906	88.4946	87.8906	86.971	87.8906	88.5616	87.8906	87.0027	87.8906	88.5993	87.8906	87.0533	87.8906	88.6061	87.8906	87.1217	87.8906	88.5819	87.8906	87.2067	87.8906	88.5282	87.8906	87.3067	87.8906	88.4483	87.8906	87.42	87.8906	88.3461	87.8906	87.5444	87.8906	88.2267	87.8906	87.6775	87.8906	88.0952	87.8906	87.8161	87.8906	87.9568
93.75	88.0877	93.75	88.2209	93.75	87.9666	93.75	88.3628	93.75	87.8608	93.75	88.5089	93.75	87.7724	93.75	88.6544	93.75	87.703	93.75	88.7939	93.75	87.6536	93.75	88.9217	93.75	87.6246	93.75	89.0326	93.75	87.616	93.75	89.1214	93.75	87.6274	93.75	89.1841	93.75	87.6581	93.75	89.2177	93.75	87.7071	93.75	89.2207	93.75	87.7732	93.75	89.1935	93.75	87.8551	93.75	89.1377	93.75	87.9512	93.75	89.0568	93.75	88.0599	93.75	88.9551	93.75	88.1791	93.75	88.8376	93.75	88.3066	93.75	88.7093	93.75	88.4397	93.75	88.5752
102.539	88.6766	102.539	88.8061	102.539	88.5598	102.539	88.9447	102.539	88.4582	102.539	89.0883	102.539	88.374	102.539	89.2319	102.539	88.3083	102.539	89.3701	102.539	88.262	102.539	89.4972	102.539	88.2354	102.539	89.6076	102.539	88.2284	102.539	89.6961	102.539	88.2406	102.539	89.7584	102.539	88.2713	102.539	89.7917	102.539	88.3195	102.539	89.7946	102.539	88.3841	102.539	89.7674	102.539	88.4638	102.539	89.7122	102.539	88.5572	102.539	89.6324	102.539	88.6626	102.539	89.5324	102.539	88.7781	102.539	89.4174	102.539	88.9016	102.539	89.2924	102.539	89.0305	102.539	89.162
108.398	88.8341	108.398	88.9677	108.398	88.7138	108.398	89.111	108.398	88.6095	108.398	89.2596	108.398	88.5232	108.398	89.4082	108.398	88.4561	108.398	89.5511	108.398	88.409	108.398	89.6823	108.398	88.382	108.398	89.7959	108.398	88.3748	108.398	89.8866	108.398	88.3872	108.398	89.95	108.398	88.4182	108.398	89.9832	108.398	88.467	108.398	89.9848	108.398	88.5324	108.398	89.9554	108.398	88.6133	108.398	89.8971	108.398	88.7081	108.398	89.8136	108.398	88.8153	108.398	89.7096	108.398	88.9331	108.398	89.5903	108.398	89.0593	108.398	89.461	108.398	89.1915	108.398	89.3267
117.188	88.9298	117.188	89.0671	117.188	88.8065	117.188	89.2144	117.188	88.6999	117.188	89.3673	117.188	88.612	117.188	89.5204	117.188	88.5442	117.188	89.6676	117.188	88.4971	117.188	89.8029	117.188	88.4708	117.188	89.9202	117.188	88.465	117.188	90.014	117.188	88.479	117.188	90.0799	117.188	88.5121	117.188	90.1148	117.188	88.5632	117.188	90.1175	117.188	88.6311	117.188	90.0884	117.188	88.7145	117.188	90.0297	117.188	88.8121	117.188	89.9451	117.188	88.9223	117.188	89.8392	117.188	89.0433	117.188	89.7174	117.188	89.173	117.188	89.5851	117.188	89.3087	117.188	89.4474
125.977	88.5299	125.977	88.6708	125.977	88.4031	125.977	88.8221	125.977	88.2935	125.977	88.9789	125.977	88.2032	125.977	89.1357	125.977	88.1335	125.977	89.2864	125.977	88.0853	125.977	89.4247	125.977	88.0585	125.977	89.5442	125.977	88.0529	125.977	89.6393	125.977	88.0678	125.977	89.7055	125.977	88.1021	125.977	89.7396	125.977	88.1546	125.977	89.7405	125.977	88.2241	125.977	89.7088	125.977	88.309	125.977	89.6469	125.977	88.408	125.977	89.5588	125.977	88.5194	125.977	89.4496	125.977	88.6415	125.977	89.3247	125.977	88.7724	125.977	89.1898	125.977	88.9095	125.977	89.0499
134.766	87.7407	134.766	87.8825	134.766	87.6139	134.766	88.0353	134.766	87.5049	134.766	88.1942	134.766	87.4157	134.766	88.3534	134.766	87.3475	134.766	88.5064	134.766	87.3009	134.766	88.6464	134.766	87.2757	134.766	88.7667	134.766	87.2714	134.766	88.8613	134.766	87.2871	134.766	88.9255	134.766	87.3216	134.766	88.9563	134.766	87.3737	134.766	88.9527	134.766	87.4419	134.766	88.9158	134.766	87.5248	134.766	88.8487	134.766	87.6209	134.766	88.756	134.766	87.7288	134.766	88.6435	134.766	87.8469	134.766	88.517	134.766	87.9736	134.766	88.3823	134.766	88.1069	134.766	88.2442
143.555	86.9061	143.555	87.0435	143.555	86.7842	143.555	87.1926	143.555	86.6805	143.555	87.3485	143.555	86.5967	143.555	87.5052	143.555	86.534	143.555	87.6562	143.555	86.4923	143.555	87.7942	143.555	86.4715	143.555	87.9124	143.555	86.4705	143.555	88.0045	143.555	86.4883	143.555	88.0656	143.555	86.5235	143.555	88.0927	143.555	86.5745	143.555	88.0852	143.555	86.6398	143.555	88.0445	143.555	86.7179	143.555	87.9744	143.555	86.8075	143.555	87.8803	143.555	86.9074	143.555	87.7684	143.555	87.0164	143.555	87.6449	143.555	87.1333	143.555	87.5156	143.555	87.2568	143.555	87.3851
155.273	86.3982	155.273	86.5324	155.273	86.281	155.273	86.6797	155.273	86.1833	155.273	86.8354	155.273	86.1064	155.273	86.9931	155.273	86.0509	155.273	87.1461	155.273	86.0166	155.273	87.2868	155.273	86.0027	155.273	87.4081	155.273	86.008	155.273	87.5034	155.273	86.0313	155.273	87.5679	155.273	86.071	155.273	87.5985	155.273	86.1255	155.273	87.5946	155.273	86.1932	155.273	87.5577	155.273	86.2726	155.273	87.4917	155.273	86.3625	155.273	87.402	155.273	86.4615	155.273	87.2948	155.273	86.5686	155.273	87.1763	155.273	86.6826	155.273	87.052	155.273	86.8024	155.273	86.9263
164.062	86.534	164.062	86.6704	164.062	86.4152	164.062	86.8202	164.062	86.3167	164.062	86.978	164.062	86.24	164.062	87.1375	164.062	86.1858	164.062	87.2915	164.062	86.1537	164.062	87.4324	164.062	86.1425	164.062	87.5532	164.062	86.151	164.062	87.6475	164.062	86.1772	164.062	87.7107	164.062	86.2195	164.062	87.7399	164.062	86.276	164.062	87.7347	164.062	86.3449	164.062	87.6969	164.062	86.4247	164.062	87.6305	164.062	86.5141	164.062	87.5408	164.062	86.612	164.062	87.4342	164.062	86.7174	164.062	87.3166	164.062	86.8295	164.062	87.1936	164.062	86.9473	164.062	87.0694
175.781	86.492	175.781	86.6277	175.781	86.3752	175.781	86.778	175.781	86.2802	175.781	86.9375	175.781	86.2084	175.781	87.0993	175.781	86.1603	175.781	87.2558	175.781	86.1349	175.781	87.399	175.781	86.1308	175.781	87.5213	175.781	86.1456	175.781	87.6159	175.781	86.1771	175.781	87.6777	175.781	86.2225	175.781	87.7041	175.781	86.2797	175.781	87.6948	175.781	86.3467	175.781	87.6524	175.781	86.422	175.781	87.5813	175.781	86.5047	175.781	87.4878	175.781	86.5944	175.781	87.3788	175.781	86.6909	175.781	87.2609	175.781	86.7943	175.781	87.1399	175.781	86.9043	175.781	87.02
190.43	85.9209	190.43	86.0702	190.43	85.793	190.43	86.236	190.43	85.6896	190.43	86.4121	190.43	85.612	190.43	86.5906	190.43	85.5605	190.43	86.7627	190.43	85.534	190.43	86.9192	190.43	85.5307	190.43	87.0511	190.43	85.5481	190.43	87.151	190.43	85.5835	190.43	87.2132	190.43	85.6343	190.43	87.235	190.43	85.6977	190.43	87.2169	190.43	85.7716	190.43	87.1625	190.43	85.8541	190.43	87.0781	190.43	85.9436	190.43	86.9716	190.43	86.0392	190.43	86.8515	190.43	86.1403	190.43	86.7254	190.43	86.2467	190.43	86.5991	190.43	86.3587	190.43	86.4763
202.148	85.6348	202.148	85.7852	202.148	85.5042	202.148	85.9503	202.148	85.3975	202.148	86.1235	202.148	85.3168	202.148	86.2974	202.148	85.2632	202.148	86.4636	202.148	85.2361	202.148	86.6135	202.148	85.234	202.148	86.7386	202.148	85.2543	202.148	86.8318	202.148	85.2938	202.148	86.8878	202.148	85.349	202.148	86.9039	202.148	85.4162	202.148	86.8807	202.148	85.4924	202.148	86.8219	202.148	85.5748	202.148	86.7343	202.148	85.6613	202.148	86.6263	202.148	85.751	202.148	86.5067	202.148	85.8437	202.148	86.3838	202.148	85.9399	202.148	86.2633	202.148	86.0412	202.148	86.1488
216.797	85.6779	216.797	85.8283	216.797	85.5481	216.797	85.9945	216.797	85.4423	216.797	86.1704	216.797	85.3625	216.797	86.3485	216.797	85.3095	216.797	86.5204	216.797	85.2827	216.797	86.6771	216.797	85.2802	216.797	86.8101	216.797	85.2998	216.797	86.9114	216.797	85.3381	216.797	86.9757	216.797	85.3921	216.797	86.9998	216.797	85.4585	216.797	86.984	216.797	85.5343	216.797	86.9313	216.797	85.6175	216.797	86.8478	216.797	85.7065	216.797	86.7409	216.797	85.8006	216.797	86.6191	216.797	85.8999	216.797	86.4904	216.797	86.0051	216.797	86.3611	216.797	86.1169	216.797	86.2358
234.375	85.8207	234.375	85.9792	234.375	85.6793	234.375	86.1501	234.375	85.5587	234.375	86.3276	234.375	85.4615	234.375	86.5047	234.375	85.3897	234.375	86.6736	234.375	85.3441	234.375	86.8259	234.375	85.3251	234.375	86.9534	234.375	85.3319	234.375	87.0494	234.375	85.3629	234.375	87.1089	234.375	85.4157	234.375	87.1297	234.375	85.4877	234.375	87.1129	234.375	85.5756	234.375	87.0621	234.375	85.6762	234.375	86.9833	234.375	85.7864	234.375	86.8838	234.375	85.9034	234.375	86.7706	234.375	86.0247	234.375	86.6496	234.375	86.1484	234.375	86.5251	234.375	86.2735	234.375	86.3993
249.023	85.7433	249.023	85.9205	249.023	85.5813	249.023	86.1084	249.023	85.4385	249.023	86.3013	249.023	85.3182	249.023	86.4923	249.023	85.2234	249.023	86.6735	249.023	85.1565	249.023	86.8357	249.023	85.1194	249.023	86.9696	249.023	85.1129	249.023	87.0665	249.023	85.1365	249.023	87.1202	249.023	85.1883	249.023	87.1278	249.023	85.265	249.023	87.0907	249.023	85.3622	249.023	87.0145	249.023	85.4751	249.023	86.9082	249.023	85.5984	249.023	86.7823	249.023	85.7275	249.023	86.6473	249.023	85.8583	249.023	86.5107	249.023	85.9885	249.023	86.3768	249.023	86.1175	249.023	86.2462
266.602	85.8134	266.602	85.9838	266.602	85.6541	266.602	86.1625	266.602	85.5086	266.602	86.3462	266.602	85.3804	266.602	86.5301	266.602	85.2733	266.602	86.7073	266.602	85.1917	266.602	86.869	266.602	85.1392	266.602	87.0049	266.602	85.1183	266.602	87.1054	266.602	85.1297	266.602	87.1626	266.602	85.172	266.602	87.1718	266.602	85.242	266.602	87.1328	266.602	85.3349	266.602	87.0499	266.602	85.4448	266.602	86.9318	266.602	85.5654	266.602	86.7899	266.602	85.691	266.602	86.6368	266.602	85.8175	266.602	86.4832	266.602	85.943	266.602	86.3365	266.602	86.0691	266.602	86.199
287.109	85.9019	287.109	86.0965	287.109	85.7264	287.109	86.3058	287.109	85.5718	287.109	86.5225	287.109	85.4385	287.109	86.7374	287.109	85.3272	287.109	86.94	287.109	85.2401	287.109	87.1196	287.109	85.1809	287.109	87.2661	287.109	85.1544	287.109	87.3709	287.109	85.1643	287.109	87.4278	287.109	85.2116	287.109	87.4335	287.109	85.2938	287.109	87.3881	287.109	85.4046	287.109	87.2958	287.109	85.5352	287.109	87.1646	287.109	85.6756	287.109	87.006	287.109	85.8171	287.109	86.8338	287.109	85.954	287.109	86.6616	287.109	86.0856	287.109	86.4995	287.109	86.2158	287.109	86.3517
307.617	86.1149	307.617	86.3616	307.617	85.881	307.617	86.6115	307.617	85.6687	307.617	86.8544	307.617	85.4848	307.617	87.0811	307.617	85.3344	307.617	87.2838	307.617	85.2214	307.617	87.4558	307.617	85.1487	307.617	87.5922	307.617	85.1189	307.617	87.6894	307.617	85.133	307.617	87.7451	307.617	85.1901	307.617	87.7583	307.617	85.2865	307.617	87.7289	307.617	85.4151	307.617	87.6578	307.617	85.5669	307.617	87.5473	307.617	85.7324	307.617	87.4015	307.617	85.904	307.617	87.2272	307.617	86.0782	307.617	87.0338	307.617	86.2556	307.617	86.8321	307.617	86.4393	307.617	86.6318
331.055	85.9383	331.055	86.2055	331.055	85.6721	331.055	86.4629	331.055	85.4182	331.055	86.7015	331.055	85.1878	331.055	86.9142	331.055	84.9913	331.055	87.0966	331.055	84.8382	331.055	87.2457	331.055	84.7365	331.055	87.3592	331.055	84.6912	331.055	87.435	331.055	84.704	331.055	87.4716	331.055	84.7719	331.055	87.468	331.055	84.8878	331.055	87.4249	331.055	85.0411	331.055	87.3444	331.055	85.2198	331.055	87.2303	331.055	85.4121	331.055	87.0879	331.055	85.6085	331.055	86.924	331.055	85.8033	331.055	86.7457	331.055	85.9947	331.055	86.56	331.055	86.1836	331.055	86.3719
354.492	86.108	354.492	86.3949	354.492	85.8106	354.492	86.6631	354.492	85.5123	354.492	86.9062	354.492	85.2244	354.492	87.1196	354.492	84.9601	354.492	87.3005	354.492	84.734	354.492	87.4473	354.492	84.561	354.492	87.5585	354.492	84.4536	354.492	87.6331	354.492	84.4203	354.492	87.6699	354.492	84.4631	354.492	87.668	354.492	84.5774	354.492	87.627	354.492	84.7526	354.492	87.5468	354.492	84.9735	354.492	87.4287	354.492	85.2225	354.492	87.2759	354.492	85.4823	354.492	87.0942	354.492	85.7398	354.492	86.8916	354.492	85.9876	354.492	86.6761	354.492	86.2247	354.492	86.4534
377.93	86.14	377.93	86.5109	377.93	85.749	377.93	86.8492	377.93	85.3506	377.93	87.1444	377.93	84.9575	377.93	87.3898	377.93	84.5844	377.93	87.5836	377.93	84.2501	377.93	87.7282	377.93	83.9778	377.93	87.8285	377.93	83.7928	377.93	87.8899	377.93	83.7171	377.93	87.916	377.93	83.7622	377.93	87.9082	377.93	83.9243	377.93	87.8657	377.93	84.1843	377.93	87.7864	377.93	84.5121	377.93	87.6677	377.93	84.8747	377.93	87.5084	377.93	85.2434	377.93	87.3101	377.93	85.5991	377.93	87.078	377.93	85.9334	377.93	86.8194	377.93	86.2463	377.93	86.5412
407.227	85.9038	407.227	86.2983	407.227	85.4807	407.227	86.6479	407.227	85.0479	407.227	86.942	407.227	84.624	407.227	87.1778	407.227	84.2275	407.227	87.36	407.227	83.8769	407.227	87.4969	407.227	83.5926	407.227	87.5965	407.227	83.3957	407.227	87.6632	407.227	83.3048	407.227	87.6968	407.227	83.3308	407.227	87.6942	407.227	83.4725	407.227	87.6508	407.227	83.7148	407.227	87.5622	407.227	84.0315	407.227	87.4249	407.227	84.3913	407.227	87.2384	407.227	84.7651	407.227	87.0066	407.227	85.132	407.227	86.7382	407.227	85.4822	407.227	86.4445	407.227	85.8153	407.227	86.1355
436.523	85.0394	436.523	85.5509	436.523	84.4726	436.523	85.9935	436.523	83.8712	436.523	86.3613	436.523	83.2623	436.523	86.6557	436.523	82.6784	436.523	86.8829	436.523	82.1573	436.523	87.0504	436.523	81.74	436.523	87.1639	436.523	81.466	436.523	87.2266	436.523	81.3653	436.523	87.2402	436.523	81.4489	436.523	87.2066	436.523	81.7028	436.523	87.1281	436.523	82.091	436.523	87.007	436.523	82.5654	436.523	86.8436	436.523	83.0788	436.523	86.6368	436.523	83.5939	436.523	86.3856	436.523	84.0882	436.523	86.0909	436.523	84.5521	436.523	85.7559	436.523	84.9843	436.523	85.3858
465.82	84.4332	465.82	84.9023	465.82	83.899	465.82	85.2994	465.82	83.3128	465.82	85.6237	465.82	82.6963	465.82	85.8803	465.82	82.0817	465.82	86.0789	465.82	81.5122	465.82	86.2301	465.82	81.0361	465.82	86.3414	465.82	80.6988	465.82	86.4145	465.82	80.5342	465.82	86.4466	465.82	80.5598	465.82	86.4333	465.82	80.7738	465.82	86.3713	465.82	81.1531	465.82	86.2595	465.82	81.6555	465.82	86.099	465.82	82.2275	465.82	85.8936	465.82	82.8161	465.82	85.6494	465.82	83.3785	465.82	85.3727	465.82	83.8882	465.82	85.0659	465.82	84.3353	465.82	84.7239
500.977	83.4527	500.977	83.9906	500.977	82.9025	500.977	84.4869	500.977	82.3769	500.977	84.924	500.977	81.9128	500.977	85.2962	500.977	81.54	500.977	85.6047	500.977	81.2737	500.977	85.8513	500.977	81.1119	500.977	86.0339	500.977	81.0405	500.977	86.1457	500.977	81.0438	500.977	86.1797	500.977	81.1138	500.977	86.1321	500.977	81.2506	500.977	86.0041	500.977	81.4566	500.977	85.8002	500.977	81.7275	500.977	85.5268	500.977	82.0473	500.977	85.1933	500.977	82.391	500.977	84.8171	500.977	82.7335	500.977	84.4249	500.977	83.0604	500.977	84.0459	500.977	83.3755	500.977	83.6975
536.133	83.2007	536.133	83.7977	536.133	82.6031	536.133	84.3536	536.133	82.0497	536.133	84.8379	536.133	81.5822	536.133	85.2336	536.133	81.2315	536.133	85.5381	536.133	81.0113	536.133	85.7596	536.133	80.9148	536.133	85.9116	536.133	80.9181	536.133	86.0052	536.133	80.9886	536.133	86.0433	536.133	81.095	536.133	86.0197	536.133	81.2158	536.133	85.9215	536.133	81.3424	536.133	85.7334	536.133	81.4768	536.133	85.4424	536.133	81.6255	536.133	85.0433	536.133	81.7943	536.133	84.5469	536.133	81.9897	536.133	83.9886	536.133	82.2259	536.133	83.428	536.133	82.5296	536.133	82.9292
574.219	82.9331	574.219	83.5132	574.219	82.3998	574.219	84.0806	574.219	81.9711	574.219	84.5872	574.219	81.6885	574.219	85.0042	574.219	81.567	574.219	85.3249	574.219	81.5926	574.219	85.5591	574.219	81.7294	574.219	85.7232	574.219	81.9303	574.219	85.8281	574.219	82.1467	574.219	85.8733	574.219	82.3369	574.219	85.8479	574.219	82.4711	574.219	85.7392	574.219	82.5356	574.219	85.5383	574.219	82.5337	574.219	85.2419	574.219	82.4852	574.219	84.8524	574.219	82.4236	574.219	84.3827	574.219	82.3927	574.219	83.8648	574.219	82.4401	574.219	83.3543	574.219	82.6082	574.219	82.9181
615.234	83.3137	615.234	83.8999	615.234	82.7718	615.234	84.471	615.234	82.3271	615.234	84.9779	615.234	82.0159	615.234	85.3944	615.234	81.8568	615.234	85.7183	615.234	81.8542	615.234	85.9617	615.234	81.9949	615.234	86.1358	615.234	82.2382	615.234	86.2399	615.234	82.5167	615.234	86.2622	615.234	82.757	615.234	86.1894	615.234	82.9055	615.234	86.0143	615.234	82.9423	615.234	85.7375	615.234	82.8769	615.234	85.3629	615.234	82.7382	615.234	84.8955	615.234	82.5666	615.234	84.3483	615.234	82.415	615.234	83.7558	615.234	82.3493	615.234	83.1846	615.234	82.4379	615.234	82.7218
659.18	83.7079	659.18	84.1387	659.18	83.4141	659.18	84.66	659.18	83.2782	659.18	85.2124	659.18	83.2984	659.18	85.7424	659.18	83.462	659.18	86.212	659.18	83.749	659.18	86.597	659.18	84.1214	659.18	86.8785	659.18	84.5152	659.18	87.0365	659.18	84.8496	659.18	87.0515	659.18	85.0532	659.18	86.9119	659.18	85.0862	659.18	86.6205	659.18	84.9496	659.18	86.1959	659.18	84.6773	659.18	85.6664	659.18	84.3194	659.18	85.0664	659.18	83.9273	659.18	84.4407	659.18	83.5505	659.18	83.8537	659.18	83.2453	659.18	83.3876	659.18	83.0799	659.18	83.1186
706.055	83.9341	706.055	84.4412	706.055	83.6712	706.055	85.0859	706.055	83.7004	706.055	85.7537	706.055	83.9845	706.055	86.3594	706.055	84.4287	706.055	86.8607	706.055	84.9383	706.055	87.2528	706.055	85.4524	706.055	87.547	706.055	85.9343	706.055	87.7434	706.055	86.3427	706.055	87.818	706.055	86.6255	706.055	87.7347	706.055	86.7387	706.055	87.471	706.055	86.6663	706.055	87.034	706.055	86.4207	706.055	86.4564	706.055	86.0278	706.055	85.7814	706.055	85.5156	706.055	85.0607	706.055	84.9218	706.055	84.3762	706.055	84.3214	706.055	83.8615	706.055	83.8485	706.055	83.6657
758.789	84.4128	758.789	85.0382	758.789	83.9605	758.789	85.7514	758.789	83.8008	758.789	86.4861	758.789	84.0366	758.789	87.1762	758.789	84.6463	758.789	87.7637	758.789	85.4623	758.789	88.2163	758.789	86.2849	758.789	88.5265	758.789	86.9845	758.789	88.6934	758.789	87.5118	758.789	88.7093	758.789	87.8547	758.789	88.5696	758.789	87.9973	758.789	88.2869	758.789	87.9062	758.789	87.8844	758.789	87.5429	758.789	87.3781	758.789	86.8868	758.789	86.7712	758.789	85.9717	758.789	86.067	758.789	84.939	758.789	85.293	758.789	84.0753	758.789	84.5251	758.789	83.7039	758.789	83.9165
811.523	85.1233	811.523	85.3747	811.523	84.9455	811.523	85.7007	811.523	84.8557	811.523	86.1001	811.523	84.8926	811.523	86.5681	811.523	85.1136	811.523	87.1124	811.523	85.5707	811.523	87.7391	811.523	86.264	811.523	88.3856	811.523	87.0935	811.523	88.8871	811.523	87.8662	811.523	89.0541	811.523	88.372	811.523	88.7807	811.523	88.4747	811.523	88.0987	811.523	88.1599	811.523	87.1754	811.523	87.5293	811.523	86.2589	811.523	86.749	811.523	85.5649	811.523	85.9852	811.523	85.1703	811.523	85.3761	811.523	85.0079	811.523	85.0137	811.523	84.9503	811.523	84.893	811.523	84.9078
870.117	85.0206	870.117	85.0662	870.117	85.0592	870.117	85.2351	870.117	85.2145	870.117	85.6165	870.117	85.5383	870.117	86.3067	870.117	86.0278	870.117	87.3404	870.117	86.6308	870.117	88.5907	870.117	87.2835	870.117	89.7798	870.117	87.9055	870.117	90.6162	870.117	88.394	870.117	90.9032	870.117	88.649	870.117	90.5766	870.117	88.6248	870.117	89.7058	870.117	88.3699	870.117	88.4662	870.117	87.997	870.117	87.0867	870.117	87.5882	870.117	85.8223	870.117	87.1551	870.117	84.9442	870.117	86.6898	870.117	84.6246	870.117	86.2034	870.117	84.7913	870.117	85.7076	870.117	85.2138
931.641	85.2698	931.641	85.4224	931.641	84.8677	931.641	85.5266	931.641	84.4852	931.641	85.9218	931.641	84.7411	931.641	86.7305	931.641	85.7718	931.641	87.837	931.641	87.0417	931.641	88.9936	931.641	88.0947	931.641	89.9407	931.641	88.7824	931.641	90.5298	931.641	89.1466	931.641	90.706	931.641	89.2868	931.641	90.456	931.641	89.2522	931.641	89.7897	931.641	89.0297	931.641	88.7108	931.641	88.5866	931.641	87.2655	931.641	87.913	931.641	85.7216	931.641	87.0882	931.641	84.6211	931.641	86.3161	931.641	84.3644	931.641	85.8073	931.641	84.7358	931.641	85.5263	931.641	85.211
999.023	85.2695	999.023	85.1997	999.023	84.7815	999.023	84.686	999.023	84.077	999.023	84.2207	999.023	83.7872	999.023	84.3878	999.023	84.2978	999.023	85.7208	999.023	85.3477	999.023	87.5291	999.023	86.6036	999.023	88.9193	999.023	87.9339	999.023	89.8632	999.023	89.1405	999.023	90.1634	999.023	89.9303	999.023	89.6479	999.023	90.115	999.023	88.4792	999.023	89.7242	999.023	86.6251	999.023	88.9447	999.023	84.2595	999.023	87.9374	999.023	82.8917	999.023	86.7089	999.023	83.7102	999.023	85.3736	999.023	85.2005	999.023	84.6173	999.023	85.9603	999.023	84.9911	999.023	85.7525
1,072.27	82.9487	1,072.27	80.941	1,072.27	84.6797	1,072.27	81.1796	1,072.27	85.2713	1,072.27	83.3942	1,072.27	84.8879	1,072.27	85.3855	1,072.27	84.3879	1,072.27	86.8327	1,072.27	85.1549	1,072.27	87.4393	1,072.27	87.1347	1,072.27	87.8305	1,072.27	89.0242	1,072.27	89.3073	1,072.27	90.3428	1,072.27	90.0066	1,072.27	91.1549	1,072.27	88.791	1,072.27	91.4535	1,072.27	86.8764	1,072.27	91.0991	1,072.27	86.2813	1,072.27	90.1822	1,072.27	86.367	1,072.27	88.9799	1,072.27	86.0506	1,072.27	87.4601	1,072.27	85.3128	1,072.27	85.7313	1,072.27	84.5741	1,072.27	84.5892	1,072.27	84.3163	1,072.27	84.4136	1,072.27	84.4353
1,148.44	81.639	1,148.44	83.174	1,148.44	81.2947	1,148.44	83.7851	1,148.44	82.7762	1,148.44	83.9454	1,148.44	84.0244	1,148.44	84.458	1,148.44	84.409	1,148.44	85.3356	1,148.44	84.4255	1,148.44	87.9273	1,148.44	85.3059	1,148.44	91.3572	1,148.44	86.9006	1,148.44	93.8514	1,148.44	87.9856	1,148.44	94.7404	1,148.44	88.2201	1,148.44	94.0894	1,148.44	87.9909	1,148.44	92.0977	1,148.44	87.9279	1,148.44	88.8593	1,148.44	88.4002	1,148.44	85.3257	1,148.44	88.6446	1,148.44	83.9553	1,148.44	87.5689	1,148.44	84.9548	1,148.44	85.317	1,148.44	86.1337	1,148.44	83.6658	1,148.44	86.2699	1,148.44	83.992	1,148.44	85.3028
1,230.47	84.9823	1,230.47	86.01	1,230.47	83.4283	1,230.47	85.5769	1,230.47	82.6307	1,230.47	83.9666	1,230.47	82.9047	1,230.47	83.7737	1,230.47	83.4286	1,230.47	86.5721	1,230.47	83.6929	1,230.47	89.7714	1,230.47	84.0568	1,230.47	91.4817	1,230.47	84.8841	1,230.47	92.0597	1,230.47	85.6131	1,230.47	92.5663	1,230.47	85.6042	1,230.47	93.0675	1,230.47	85.1153	1,230.47	92.752	1,230.47	85.4289	1,230.47	91.185	1,230.47	86.6069	1,230.47	88.749	1,230.47	86.9696	1,230.47	86.3653	1,230.47	85.5075	1,230.47	85.385	1,230.47	83.5619	1,230.47	86.2914	1,230.47	84.1326	1,230.47	87.3626	1,230.47	85.9547	1,230.47	87.2548
1,318.36	87.4323	1,318.36	88.017	1,318.36	86.16	1,318.36	87.2817	1,318.36	84.8208	1,318.36	85.4093	1,318.36	83.4528	1,318.36	84.0541	1,318.36	82.0639	1,318.36	85.7838	1,318.36	81.4128	1,318.36	88.9898	1,318.36	82.5232	1,318.36	91.3868	1,318.36	84.5663	1,318.36	92.9824	1,318.36	86.3723	1,318.36	93.5767	1,318.36	87.5155	1,318.36	92.9113	1,318.36	88.0421	1,318.36	91.6258	1,318.36	88.1204	1,318.36	90.31	1,318.36	87.438	1,318.36	88.957	1,318.36	85.6476	1,318.36	88.3393	1,318.36	83.2628	1,318.36	88.5391	1,318.36	83.0421	1,318.36	88.4173	1,318.36	85.1982	1,318.36	88.2544	1,318.36	87.1087	1,318.36	88.0702
1,415.04	87.4614	1,415.04	89.2653	1,415.04	85.2227	1,415.04	89.4098	1,415.04	84.0429	1,415.04	87.1862	1,415.04	84.4987	1,415.04	83.6363	1,415.04	85.2504	1,415.04	84.5983	1,415.04	85.1777	1,415.04	88.9702	1,415.04	84.5213	1,415.04	91.2525	1,415.04	85.1667	1,415.04	91.6091	1,415.04	87.0457	1,415.04	91.7483	1,415.04	87.8291	1,415.04	92.2996	1,415.04	87.5497	1,415.04	92.2155	1,415.04	87.5663	1,415.04	90.8753	1,415.04	87.4379	1,415.04	89.6746	1,415.04	85.9172	1,415.04	89.9384	1,415.04	83.8708	1,415.04	90.6238	1,415.04	84.7278	1,415.04	90.6891	1,415.04	86.2837	1,415.04	89.8955	1,415.04	87.3655	1,415.04	88.5901
1,514.65	87.0768	1,514.65	88.6121	1,514.65	84.6222	1,514.65	88.0926	1,514.65	82.2668	1,514.65	86.3538	1,514.65	80.2262	1,514.65	85.689	1,514.65	80.5855	1,514.65	85.336	1,514.65	82.9716	1,514.65	87.8058	1,514.65	84.0029	1,514.65	89.69	1,514.65	83.2882	1,514.65	91.4861	1,514.65	83.0736	1,514.65	92.5236	1,514.65	84.4882	1,514.65	91.1279	1,514.65	87.3622	1,514.65	88.7479	1,514.65	89.0818	1,514.65	87.562	1,514.65	87.7105	1,514.65	87.9588	1,514.65	84.2066	1,514.65	89.8069	1,514.65	83.7275	1,514.65	91.2595	1,514.65	84.867	1,514.65	91.0325	1,514.65	84.8911	1,514.65	89.4089	1,514.65	85.5595	1,514.65	87.336
1,623.05	85.9756	1,623.05	86.4286	1,623.05	84.4075	1,623.05	86.4226	1,623.05	82.3528	1,623.05	86.6839	1,623.05	80.9891	1,623.05	85.527	1,623.05	80.8791	1,623.05	83.2953	1,623.05	81.7175	1,623.05	85.2334	1,623.05	82.4526	1,623.05	89.1326	1,623.05	83.473	1,623.05	91.3555	1,623.05	85.7771	1,623.05	91.6384	1,623.05	88.4502	1,623.05	91.1837	1,623.05	89.9892	1,623.05	89.9695	1,623.05	89.5046	1,623.05	87.4165	1,623.05	87.2215	1,623.05	86.1321	1,623.05	85.2839	1,623.05	87.1521	1,623.05	83.9353	1,623.05	88.8309	1,623.05	81.6348	1,623.05	89.4667	1,623.05	81.3484	1,623.05	88.3845	1,623.05	83.7823	1,623.05	86.179
1,740.23	84.417	1,740.23	86.7519	1,740.23	82.2852	1,740.23	87.9406	1,740.23	81.8596	1,740.23	87.9017	1,740.23	81.7815	1,740.23	86.34	1,740.23	80.7203	1,740.23	83.0573	1,740.23	80.7746	1,740.23	83.2717	1,740.23	82.6878	1,740.23	88.2552	1,740.23	83.2261	1,740.23	92.1442	1,740.23	83.5995	1,740.23	93.4729	1,740.23	85.5668	1,740.23	92.7208	1,740.23	87.7962	1,740.23	90.6673	1,740.23	88.2161	1,740.23	88.2694	1,740.23	86.6337	1,740.23	87.4995	1,740.23	84.0779	1,740.23	88.0898	1,740.23	79.4571	1,740.23	88.9456	1,740.23	76.8393	1,740.23	89.196	1,740.23	80.0305	1,740.23	87.8339	1,740.23	82.5718	1,740.23	85.1529
1,866.21	83.347	1,866.21	85.5089	1,866.21	81.665	1,866.21	86.6443	1,866.21	81.7974	1,866.21	86.9355	1,866.21	82.6998	1,866.21	85.9587	1,866.21	82.6542	1,866.21	82.8687	1,866.21	82.1803	1,866.21	82.1763	1,866.21	82.3888	1,866.21	87.0939	1,866.21	82.6835	1,866.21	89.325	1,866.21	84.0915	1,866.21	89.4781	1,866.21	86.7634	1,866.21	89.3609	1,866.21	88.2667	1,866.21	88.5495	1,866.21	87.5419	1,866.21	87.8591	1,866.21	85.844	1,866.21	88.5065	1,866.21	83.8488	1,866.21	89.1453	1,866.21	79.952	1,866.21	88.6154	1,866.21	79.3567	1,866.21	87.677	1,866.21	80.7975	1,866.21	86.0973	1,866.21	81.3026	1,866.21	83.3938
2,000.98	82.5872	2,000.98	82.1387	2,000.98	82.6117	2,000.98	82.7727	2,000.98	81.5528	2,000.98	85.2695	2,000.98	81.1996	2,000.98	85.6425	2,000.98	81.5602	2,000.98	83.6118	2,000.98	80.6319	2,000.98	82.3342	2,000.98	81.0085	2,000.98	85.3033	2,000.98	82.9571	2,000.98	87.6808	2,000.98	83.8511	2,000.98	89.2839	2,000.98	84.7671	2,000.98	89.326	2,000.98	86.3997	2,000.98	87.5991	2,000.98	86.336	2,000.98	86.572	2,000.98	85.2852	2,000.98	87.7482	2,000.98	82.1728	2,000.98	88.7182	2,000.98	76.4796	2,000.98	87.8245	2,000.98	80.0168	2,000.98	86.0332	2,000.98	80.665	2,000.98	84.187	2,000.98	80.9825	2,000.98	82.6081
2,144.53	82.1094	2,144.53	79.8351	2,144.53	84.5608	2,144.53	82.7343	2,144.53	83.8375	2,144.53	86.2545	2,144.53	80.965	2,144.53	86.8197	2,144.53	79.734	2,144.53	85.0135	2,144.53	79.0812	2,144.53	83.0944	2,144.53	80.6835	2,144.53	85.9104	2,144.53	84.2873	2,144.53	89.6749	2,144.53	86.5979	2,144.53	91.7568	2,144.53	88.006	2,144.53	91.0445	2,144.53	88.6481	2,144.53	88.6376	2,144.53	88.6279	2,144.53	86.8838	2,144.53	87.5587	2,144.53	87.298	2,144.53	82.0124	2,144.53	87.9564	2,144.53	76.6704	2,144.53	87.4446	2,144.53	81.5657	2,144.53	85.8228	2,144.53	82.3661	2,144.53	84.5523	2,144.53	83.3947	2,144.53	84.2073
2,296.88	79.6441	2,296.88	81.3169	2,296.88	83.9492	2,296.88	85.1555	2,296.88	84.6669	2,296.88	86.964	2,296.88	82.2741	2,296.88	86.855	2,296.88	79.3793	2,296.88	85.9721	2,296.88	78.4295	2,296.88	82.3346	2,296.88	79.6209	2,296.88	83.9518	2,296.88	83.1388	2,296.88	88.8556	2,296.88	86.5048	2,296.88	91.1232	2,296.88	87.8096	2,296.88	91.2275	2,296.88	86.9853	2,296.88	90.3158	2,296.88	87.5074	2,296.88	88.6298	2,296.88	86.8375	2,296.88	88.4845	2,296.88	78.42	2,296.88	88.354	2,296.88	79.8941	2,296.88	86.9589	2,296.88	81.591	2,296.88	84.0707	2,296.88	81.4894	2,296.88	82.2414	2,296.88	82.1486	2,296.88	82.2596
2,460.94	82.4923	2,460.94	84.4565	2,460.94	79.6359	2,460.94	83.2329	2,460.94	81.1267	2,460.94	82.7808	2,460.94	80.9638	2,460.94	86.0729	2,460.94	78.536	2,460.94	86.825	2,460.94	77.9921	2,460.94	83.4898	2,460.94	80.6136	2,460.94	84.3769	2,460.94	83.9451	2,460.94	88.3412	2,460.94	85.2592	2,460.94	90.33	2,460.94	83.6654	2,460.94	90.4684	2,460.94	83.9093	2,460.94	88.3577	2,460.94	86.1259	2,460.94	86.3368	2,460.94	83.3798	2,460.94	87.2738	2,460.94	77.1964	2,460.94	88.1158	2,460.94	75.9484	2,460.94	86.1408	2,460.94	77.3767	2,460.94	82.8422	2,460.94	80.1493	2,460.94	82.6108	2,460.94	82.5833	2,460.94	83.4946
2,639.65	83.6223	2,639.65	83.4488	2,639.65	81.0046	2,639.65	81.7776	2,639.65	80.7159	2,639.65	84.6345	2,639.65	82.1799	2,639.65	87.7974	2,639.65	80.1723	2,639.65	86.9239	2,639.65	75.5929	2,639.65	83.3397	2,639.65	77.0471	2,639.65	83.8365	2,639.65	81.3025	2,639.65	88.3925	2,639.65	85.1268	2,639.65	90.6728	2,639.65	85.6215	2,639.65	89.6984	2,639.65	87.0055	2,639.65	86.7596	2,639.65	87.254	2,639.65	85.0942	2,639.65	83.4391	2,639.65	86.4831	2,639.65	74.2962	2,639.65	86.494	2,639.65	73.0884	2,639.65	84.9046	2,639.65	80.5618	2,639.65	83.9029	2,639.65	82.685	2,639.65	83.0975	2,639.65	82.6531	2,639.65	82.351
2,827.15	77.8673	2,827.15	79.8633	2,827.15	77.8912	2,827.15	82.1385	2,827.15	77.2404	2,827.15	83.5896	2,827.15	77.7038	2,827.15	84.9554	2,827.15	77.8598	2,827.15	85.327	2,827.15	74.6331	2,827.15	83.9371	2,827.15	73.862	2,827.15	82.3456	2,827.15	75.9059	2,827.15	86.1591	2,827.15	74.9077	2,827.15	87.4458	2,827.15	77.2323	2,827.15	86.8654	2,827.15	84.0726	2,827.15	84.6	2,827.15	85.252	2,827.15	82.7668	2,827.15	81.0309	2,827.15	84.828	2,827.15	68.7882	2,827.15	85.0075	2,827.15	77.0324	2,827.15	83.1538	2,827.15	80.5445	2,827.15	81.4286	2,827.15	79.2956	2,827.15	80.3528	2,827.15	78.798	2,827.15	79.6125
3,032.23	77.8815	3,032.23	80.4472	3,032.23	75.3617	3,032.23	81.2829	3,032.23	73.5948	3,032.23	80.4294	3,032.23	73.3427	3,032.23	83.1495	3,032.23	72.0633	3,032.23	84.8648	3,032.23	74.7608	3,032.23	82.5082	3,032.23	77.7957	3,032.23	78.3559	3,032.23	76.9355	3,032.23	82.9137	3,032.23	76.5367	3,032.23	86.4396	3,032.23	81.1058	3,032.23	85.5689	3,032.23	83.6281	3,032.23	81.4517	3,032.23	82.2207	3,032.23	81.8915	3,032.23	78.7779	3,032.23	84.8945	3,032.23	69.787	3,032.23	84.1769	3,032.23	79.4371	3,032.23	83.49	3,032.23	80.0745	3,032.23	84.5776	3,032.23	79.962	3,032.23	82.5954	3,032.23	81.2043	3,032.23	80.3978
3,249.02	80.1013	3,249.02	78.9909	3,249.02	79.2514	3,249.02	80.6113	3,249.02	75.2027	3,249.02	79.7538	3,249.02	72.0021	3,249.02	79.9395	3,249.02	69.3232	3,249.02	84.2835	3,249.02	65.5831	3,249.02	83.2088	3,249.02	75.7256	3,249.02	79.5035	3,249.02	77.9795	3,249.02	84.5203	3,249.02	78.4854	3,249.02	85.9527	3,249.02	83.0235	3,249.02	83.2605	3,249.02	86.3302	3,249.02	79.9582	3,249.02	84.4853	3,249.02	83.8231	3,249.02	79.883	3,249.02	85.4553	3,249.02	72.1289	3,249.02	83.8774	3,249.02	79.7231	3,249.02	84.1494	3,249.02	81.1416	3,249.02	84.7808	3,249.02	80.7024	3,249.02	82.9545	3,249.02	79.8554	3,249.02	80.2484
3,483.4	82.0865	3,483.4	79.838	3,483.4	81.667	3,483.4	81.2134	3,483.4	78.3954	3,483.4	81.2292	3,483.4	77.4639	3,483.4	78.8512	3,483.4	77.2471	3,483.4	81.298	3,483.4	72.3025	3,483.4	81.1626	3,483.4	76.5287	3,483.4	78.3129	3,483.4	81.6367	3,483.4	81.4896	3,483.4	83.5739	3,483.4	83.6705	3,483.4	81.187	3,483.4	83.5514	3,483.4	82.9804	3,483.4	81.963	3,483.4	82.7785	3,483.4	84.2314	3,483.4	82.766	3,483.4	85.4355	3,483.4	78.6875	3,483.4	84.1736	3,483.4	80.6278	3,483.4	82.6853	3,483.4	77.5866	3,483.4	81.0806	3,483.4	75.3051	3,483.4	82.5307	3,483.4	77.9518	3,483.4	82.4554
3,732.42	83.4894	3,732.42	81.866	3,732.42	81.3037	3,732.42	76.5801	3,732.42	80.4285	3,732.42	78.4068	3,732.42	80.0563	3,732.42	78.3171	3,732.42	79.208	3,732.42	77.6082	3,732.42	74.4731	3,732.42	81.3335	3,732.42	71.9308	3,732.42	78.1013	3,732.42	79.3678	3,732.42	80.6085	3,732.42	79.3059	3,732.42	86.7322	3,732.42	69.2606	3,732.42	85.7175	3,732.42	68.7847	3,732.42	85.8958	3,732.42	77.8323	3,732.42	86.9748	3,732.42	81.0719	3,732.42	85.6696	3,732.42	79.4288	3,732.42	84.2935	3,732.42	79.0846	3,732.42	82.3522	3,732.42	74.8172	3,732.42	79.5479	3,732.42	70.5237	3,732.42	80.9106	3,732.42	78.2134	3,732.42	81.9132
3,999.02	82.2403	3,999.02	82.2477	3,999.02	82.2813	3,999.02	81.2078	3,999.02	83.2268	3,999.02	78.4829	3,999.02	82.2478	3,999.02	78.7327	3,999.02	80.343	3,999.02	80.4945	3,999.02	76.5234	3,999.02	80.6812	3,999.02	77.5054	3,999.02	80.4694	3,999.02	81.7084	3,999.02	82.4406	3,999.02	77.652	3,999.02	86.2632	3,999.02	75.5797	3,999.02	88.5328	3,999.02	77.2459	3,999.02	88.2183	3,999.02	78.8853	3,999.02	88.8723	3,999.02	82.898	3,999.02	87.6633	3,999.02	73.6704	3,999.02	85.3122	3,999.02	76.4681	3,999.02	81.9218	3,999.02	70.6612	3,999.02	80.1543	3,999.02	75.0852	3,999.02	80.1704	3,999.02	78.0264	3,999.02	79.689
4,286.13	82.9216	4,286.13	84.1782	4,286.13	83.7454	4,286.13	81.4137	4,286.13	82.9289	4,286.13	81.9844	4,286.13	80.9045	4,286.13	83.0571	4,286.13	80.6524	4,286.13	81.2551	4,286.13	69.1136	4,286.13	84.4146	4,286.13	74.9637	4,286.13	81.4396	4,286.13	80.6846	4,286.13	82.8073	4,286.13	73.4	4,286.13	90.0758	4,286.13	75.677	4,286.13	90.2248	4,286.13	55.365	4,286.13	89.2763	4,286.13	79.3051	4,286.13	89.1137	4,286.13	81.5827	4,286.13	88.1143	4,286.13	75.7263	4,286.13	86.467	4,286.13	79.1029	4,286.13	82.574	4,286.13	72.3517	4,286.13	82.9802	4,286.13	78.6496	4,286.13	81.9076	4,286.13	78.1121	4,286.13	79.2272
4,593.75	80.3272	4,593.75	81.5159	4,593.75	82.5783	4,593.75	80.9554	4,593.75	82.0229	4,593.75	79.5232	4,593.75	81.0804	4,593.75	82.4976	4,593.75	78.7432	4,593.75	82.7882	4,593.75	78.7891	4,593.75	83.4563	4,593.75	70.5703	4,593.75	83.7457	4,593.75	66.8736	4,593.75	84.7565	4,593.75	69.7792	4,593.75	90.0439	4,593.75	63.0156	4,593.75	90.9198	4,593.75	73.5136	4,593.75	89.7389	4,593.75	80.1869	4,593.75	89.3332	4,593.75	82.8814	4,593.75	88.9647	4,593.75	79.3866	4,593.75	84.3037	4,593.75	76.0789	4,593.75	80.8991	4,593.75	65.7934	4,593.75	81.01	4,593.75	79.3988	4,593.75	79.0291	4,593.75	80.0777	4,593.75	78.091
4,924.8	78.9063	4,924.8	81.2955	4,924.8	80.9629	4,924.8	80.1258	4,924.8	83.3315	4,924.8	80.0554	4,924.8	81.3973	4,924.8	82.5592	4,924.8	78.187	4,924.8	83.332	4,924.8	80.2588	4,924.8	85.5795	4,924.8	76.855	4,924.8	84.3296	4,924.8	70.3156	4,924.8	83.9718	4,924.8	74.8785	4,924.8	90.0208	4,924.8	66.2268	4,924.8	90.4531	4,924.8	68.1825	4,924.8	89.2063	4,924.8	78.9329	4,924.8	89.1795	4,924.8	84.4111	4,924.8	88.6867	4,924.8	79.1782	4,924.8	83.4451	4,924.8	69.992	4,924.8	81.2775	4,924.8	76.5375	4,924.8	82.2702	4,924.8	79.6196	4,924.8	79.7799	4,924.8	77.7448	4,924.8	74.053
5,279.3	81.4038	5,279.3	81.8617	5,279.3	82.1097	5,279.3	81.3426	5,279.3	83.3057	5,279.3	78.8393	5,279.3	84.7617	5,279.3	80.6236	5,279.3	82.3649	5,279.3	82.8663	5,279.3	75.8434	5,279.3	84.9487	5,279.3	73.6281	5,279.3	85.4041	5,279.3	72.1515	5,279.3	86.3779	5,279.3	71.171	5,279.3	90.668	5,279.3	51.2064	5,279.3	90.356	5,279.3	68.7468	5,279.3	87.6606	5,279.3	76.525	5,279.3	89.7582	5,279.3	83.2771	5,279.3	88.1056	5,279.3	75.1714	5,279.3	84.3945	5,279.3	77.1011	5,279.3	82.7811	5,279.3	80.3962	5,279.3	83.3214	5,279.3	75.7428	5,279.3	81.7964	5,279.3	75.414	5,279.3	82.4701
5,657.23	81.1459	5,657.23	80.7747	5,657.23	81.5694	5,657.23	82.901	5,657.23	81.4079	5,657.23	82.7563	5,657.23	84.7457	5,657.23	82.0339	5,657.23	82.9247	5,657.23	83.0258	5,657.23	79.5673	5,657.23	85.5436	5,657.23	75.1741	5,657.23	85.2554	5,657.23	72.6702	5,657.23	87.5328	5,657.23	71.422	5,657.23	91.6595	5,657.23	73.1433	5,657.23	90.4405	5,657.23	74.5398	5,657.23	87.2413	5,657.23	72.5132	5,657.23	89.7793	5,657.23	79.7621	5,657.23	85.9252	5,657.23	72.6711	5,657.23	82.0902	5,657.23	78.9294	5,657.23	86.7459	5,657.23	80.5406	5,657.23	84.3192	5,657.23	80.5603	5,657.23	84.3704	5,657.23	80.6051	5,657.23	84.4387
6,061.52	79.7294	6,061.52	81.2772	6,061.52	81.3249	6,061.52	80.8753	6,061.52	81.6961	6,061.52	81.7004	6,061.52	80.9812	6,061.52	82.2037	6,061.52	81.0458	6,061.52	82.3894	6,061.52	81.6106	6,061.52	85.7984	6,061.52	78.0755	6,061.52	84.3275	6,061.52	72.7047	6,061.52	86.5398	6,061.52	72.437	6,061.52	90.7159	6,061.52	72.2055	6,061.52	88.7121	6,061.52	71.659	6,061.52	84.7329	6,061.52	71.4624	6,061.52	86.7642	6,061.52	77.6922	6,061.52	79.9685	6,061.52	66.2903	6,061.52	84.1773	6,061.52	76.7748	6,061.52	85.8328	6,061.52	79.5414	6,061.52	84.5683	6,061.52	76.3718	6,061.52	84.5733	6,061.52	78.2502	6,061.52	82.9147
6,498.05	78.5453	6,498.05	80.0184	6,498.05	77.9546	6,498.05	80.0024	6,498.05	79.7821	6,498.05	80.9743	6,498.05	79.5071	6,498.05	79.1865	6,498.05	78.4038	6,498.05	79.4842	6,498.05	79.7865	6,498.05	83.7877	6,498.05	76.1816	6,498.05	82.5576	6,498.05	67.1821	6,498.05	85.2649	6,498.05	69.4687	6,498.05	88.2093	6,498.05	66.4961	6,498.05	85.6018	6,498.05	55.563	6,498.05	82.1317	6,498.05	74.4532	6,498.05	82.812	6,498.05	76.905	6,498.05	77.1568	6,498.05	75.089	6,498.05	85.3174	6,498.05	80.1204	6,498.05	84.4163	6,498.05	67.2625	6,498.05	82.0689	6,498.05	78.8148	6,498.05	81.7507	6,498.05	77.9279	6,498.05	82.4057
6,963.87	79.0697	6,963.87	79.8818	6,963.87	76.4413	6,963.87	80.5372	6,963.87	78.4007	6,963.87	81.7349	6,963.87	81.2576	6,963.87	80.0678	6,963.87	81.9048	6,963.87	81.1608	6,963.87	80.4051	6,963.87	83.714	6,963.87	78.1671	6,963.87	80.5961	6,963.87	69.518	6,963.87	86.0479	6,963.87	65.3716	6,963.87	88.6912	6,963.87	57.5611	6,963.87	84.5058	6,963.87	67.555	6,963.87	80.9549	6,963.87	71.8671	6,963.87	80.3819	6,963.87	70.0858	6,963.87	77.7784	6,963.87	75.3435	6,963.87	85.2033	6,963.87	70.2278	6,963.87	84.5194	6,963.87	78.324	6,963.87	82.9048	6,963.87	79.4286	6,963.87	81.2226	6,963.87	81.3297	6,963.87	82.615
7,464.84	82.5873	7,464.84	83.7894	7,464.84	81.3427	7,464.84	83.7048	7,464.84	79.9907	7,464.84	84.9645	7,464.84	81.0255	7,464.84	83.0549	7,464.84	83.3683	7,464.84	83.2635	7,464.84	82.1486	7,464.84	84.9603	7,464.84	80.7474	7,464.84	79.0346	7,464.84	73.8749	7,464.84	86.8462	7,464.84	74.9422	7,464.84	89.6467	7,464.84	67.4426	7,464.84	83.9794	7,464.84	64.7013	7,464.84	79.009	7,464.84	73.5187	7,464.84	80.5429	7,464.84	71.0415	7,464.84	78.0682	7,464.84	78.3617	7,464.84	85.2953	7,464.84	65.4471	7,464.84	85.3984	7,464.84	77.7236	7,464.84	84.4539	7,464.84	76.6585	7,464.84	83.5309	7,464.84	81.7705	7,464.84	82.7776
8,000.98	80.78	8,000.98	81.9162	8,000.98	77.8384	8,000.98	81.4289	8,000.98	79.2553	8,000.98	84.6488	8,000.98	77.8391	8,000.98	82.0137	8,000.98	78.986	8,000.98	82.8398	8,000.98	78.918	8,000.98	84.0014	8,000.98	77.4477	8,000.98	76.4803	8,000.98	74.3321	8,000.98	84.9144	8,000.98	73.9895	8,000.98	86.8518	8,000.98	66.7792	8,000.98	79.965	8,000.98	72.2009	8,000.98	72.9759	8,000.98	73.0722	8,000.98	79.175	8,000.98	69.488	8,000.98	75.3197	8,000.98	78.0802	8,000.98	83.6196	8,000.98	61.1548	8,000.98	83.188	8,000.98	75.4404	8,000.98	84.1803	8,000.98	77.8095	8,000.98	81.0946	8,000.98	83.511	8,000.98	79.9679
8,575.2	77.9057	8,575.2	79.7946	8,575.2	75.4284	8,575.2	80.394	8,575.2	74.9708	8,575.2	81.3071	8,575.2	71.9767	8,575.2	78.8545	8,575.2	78.5552	8,575.2	82.6088	8,575.2	77.7135	8,575.2	81.9615	8,575.2	77.0206	8,575.2	76.9814	8,575.2	76.3936	8,575.2	84.7872	8,575.2	65.723	8,575.2	85.1942	8,575.2	55.1839	8,575.2	77.1548	8,575.2	71.4078	8,575.2	73.2192	8,575.2	67.9825	8,575.2	77.4264	8,575.2	63.1977	8,575.2	74.618	8,575.2	74.7174	8,575.2	81.5671	8,575.2	73.2907	8,575.2	80.2606	8,575.2	71.0311	8,575.2	83.6409	8,575.2	77.9531	8,575.2	80.7022	8,575.2	80.5107	8,575.2	75.137
9,190.43	78.6328	9,190.43	80.0883	9,190.43	75.6864	9,190.43	79.5486	9,190.43	76.1069	9,190.43	78.0118	9,190.43	75.1362	9,190.43	77.0126	9,190.43	75.7636	9,190.43	80.584	9,190.43	74.2116	9,190.43	78.0872	9,190.43	78.2274	9,190.43	78.2265	9,190.43	73.8443	9,190.43	83.7604	9,190.43	67.2499	9,190.43	82.9764	9,190.43	65.4337	9,190.43	73.9519	9,190.43	66.0109	9,190.43	74.6644	9,190.43	66.1748	9,190.43	75.4066	9,190.43	58.7597	9,190.43	77.3918	9,190.43	67.576	9,190.43	79.1022	9,190.43	72.5495	9,190.43	79.1777	9,190.43	66.361	9,190.43	81.4722	9,190.43	74.958	9,190.43	80.5234	9,190.43	77.5405	9,190.43	75.8697
9,849.61	79.1171	9,849.61	80.0011	9,849.61	75.4777	9,849.61	78.876	9,849.61	73.6062	9,849.61	74.9374	9,849.61	71.9693	9,849.61	77.0418	9,849.61	69.6529	9,849.61	78.4277	9,849.61	74.9315	9,849.61	71.4796	9,849.61	76.1559	9,849.61	77.6947	9,849.61	70.4337	9,849.61	80.9984	9,849.61	63.8299	9,849.61	80.5087	9,849.61	65.2329	9,849.61	72.0217	9,849.61	69.9756	9,849.61	70.5557	9,849.61	69.569	9,849.61	72.2292	9,849.61	63.9391	9,849.61	76.5622	9,849.61	71.1233	9,849.61	72.6427	9,849.61	71.5705	9,849.61	73.9224	9,849.61	68.0139	9,849.61	75.6205	9,849.61	70.6927	9,849.61	76.2099	9,849.61	75.2854	9,849.61	69.0532
10,555.7	80.9084	10,555.7	80.9304	10,555.7	79.238	10,555.7	79.1264	10,555.7	74.3708	10,555.7	75.8837	10,555.7	74.4788	10,555.7	80.3042	10,555.7	72.4535	10,555.7	79.4623	10,555.7	72.5445	10,555.7	71.0207	10,555.7	74.1361	10,555.7	79.5675	10,555.7	72.7808	10,555.7	81.0853	10,555.7	66.798	10,555.7	81.1192	10,555.7	70.4445	10,555.7	70.4485	10,555.7	72.0894	10,555.7	69.2127	10,555.7	73.5901	10,555.7	72.9081	10,555.7	69.7721	10,555.7	81.3677	10,555.7	65.1475	10,555.7	71.3496	10,555.7	72.8054	10,555.7	80.3514	10,555.7	71.6182	10,555.7	80.7343	10,555.7	73.5445	10,555.7	80.5226	10,555.7	75.7313	10,555.7	74.7888
11,314.5	81.3885	11,314.5	80.7846	11,314.5	80.6348	11,314.5	76.6702	11,314.5	78.8681	11,314.5	79.5895	11,314.5	76.5769	11,314.5	81.612	11,314.5	75.2148	11,314.5	76.1467	11,314.5	75.3889	11,314.5	76.0837	11,314.5	74.7224	11,314.5	82.0948	11,314.5	72.4085	11,314.5	81.0594	11,314.5	70.1589	11,314.5	80.8502	11,314.5	66.7584	11,314.5	67.8031	11,314.5	71.6522	11,314.5	73.7994	11,314.5	72.0034	11,314.5	75.5339	11,314.5	69.1485	11,314.5	82.6868	11,314.5	60.1784	11,314.5	70.2869	11,314.5	75.086	11,314.5	81.0401	11,314.5	71.5824	11,314.5	82.0902	11,314.5	65.4763	11,314.5	82.1359	11,314.5	76.8014	11,314.5	77.8032
12,126	82.2004	12,126	80.1868	12,126	80.448	12,126	78.1691	12,126	78.5447	12,126	81.9123	12,126	72.8296	12,126	81.8273	12,126	75.6598	12,126	75.4794	12,126	75.7673	12,126	76.8677	12,126	72.8342	12,126	80.0678	12,126	71.0662	12,126	79.9657	12,126	68.2579	12,126	79.6261	12,126	66.2548	12,126	60.1676	12,126	70.1174	12,126	74.3606	12,126	66.2503	12,126	77.1912	12,126	71.1278	12,126	82.5536	12,126	58.9028	12,126	69.0674	12,126	76.3013	12,126	81.5312	12,126	54.4451	12,126	82.639	12,126	66.7019	12,126	83.9613	12,126	73.744	12,126	80.2507
12,996.1	83.9825	12,996.1	82.5947	12,996.1	82.1093	12,996.1	84.2402	12,996.1	82.0489	12,996.1	84.8107	12,996.1	80.0255	12,996.1	81.5154	12,996.1	78.0739	12,996.1	75.315	12,996.1	75.253	12,996.1	75.8772	12,996.1	75.924	12,996.1	81.7567	12,996.1	72.6865	12,996.1	83.9785	12,996.1	68.306	12,996.1	79.7007	12,996.1	71.4718	12,996.1	69.1012	12,996.1	72.6242	12,996.1	76.263	12,996.1	71.8274	12,996.1	76.7449	12,996.1	71.2661	12,996.1	85.2235	12,996.1	50.5485	12,996.1	74.2111	12,996.1	79.2546	12,996.1	82.9894	12,996.1	63.5421	12,996.1	84.7156	12,996.1	72.8822	12,996.1	87.0669	12,996.1	79.0589	12,996.1	83.9925
13,927.7	81.3002	13,927.7	82.075	13,927.7	79.9935	13,927.7	84.842	13,927.7	79.1342	13,927.7	81.2785	13,927.7	78.5956	13,927.7	76.246	13,927.7	73.4757	13,927.7	73.4692	13,927.7	74.2791	13,927.7	70.1958	13,927.7	71.0893	13,927.7	81.3836	13,927.7	69.8338	13,927.7	82.3623	13,927.7	68.1549	13,927.7	74.3213	13,927.7	72.3881	13,927.7	70.2779	13,927.7	70.7364	13,927.7	75.1705	13,927.7	73.6777	13,927.7	71.6432	13,927.7	70.1812	13,927.7	82.1143	13,927.7	62.4573	13,927.7	75.9738	13,927.7	72.8536	13,927.7	76.6768	13,927.7	51.2585	13,927.7	80.7507	13,927.7	72.8697	13,927.7	83.2185	13,927.7	77.0369	13,927.7	80.9083
14,929.7	82.8112	14,929.7	84.2802	14,929.7	82.9807	14,929.7	84.4814	14,929.7	81.6536	14,929.7	80.7284	14,929.7	79.3015	14,929.7	79.3498	14,929.7	74.6069	14,929.7	75.3013	14,929.7	76.5414	14,929.7	74.8644	14,929.7	74.3891	14,929.7	81.529	14,929.7	72.3221	14,929.7	81.6662	14,929.7	71.6755	14,929.7	75.1589	14,929.7	72.1484	14,929.7	72.6269	14,929.7	69.3611	14,929.7	74.797	14,929.7	73.756	14,929.7	68.2906	14,929.7	68.7148	14,929.7	78.5503	14,929.7	67.9943	14,929.7	77.6377	14,929.7	72.1401	14,929.7	70.1284	14,929.7	57.4228	14,929.7	82.0659	14,929.7	76.4994	14,929.7	82.6828	14,929.7	77.6362	14,929.7	79.2482
15,999	77.9962	15,999	78.8068	15,999	77.4787	15,999	78.1329	15,999	76.4851	15,999	76.899	15,999	75.8395	15,999	73.7487	15,999	73.1399	15,999	73.1698	15,999	71.6937	15,999	75.9854	15,999	71.6052	15,999	77.2811	15,999	65.4608	15,999	76.853	15,999	66.4734	15,999	69.8984	15,999	66.7585	15,999	61.554	15,999	66.8345	15,999	67.8596	15,999	58.2528	15,999	68.0078	15,999	58.5712	15,999	72.281	15,999	63.149	15,999	71.8772	15,999	55.7276	15,999	65.4439	15,999	64.1313	15,999	76.8991	15,999	72.8401	15,999	76.0201	15,999	70.7308	15,999	69.0535
17,147.5	79.4605	17,147.5	81.1673	17,147.5	78.3958	17,147.5	81.1107	17,147.5	77.6942	17,147.5	78.3069	17,147.5	77.89	17,147.5	76.8928	17,147.5	75.1376	17,147.5	75.8415	17,147.5	72.7445	17,147.5	74.7049	17,147.5	70.8998	17,147.5	77.7663	17,147.5	65.8526	17,147.5	76.1607	17,147.5	66.6827	17,147.5	65.9065	17,147.5	68.6343	17,147.5	67.2082	17,147.5	68.8571	17,147.5	71.2755	17,147.5	66.6408	17,147.5	63.6337	17,147.5	63.5512	17,147.5	73.2259	17,147.5	60.4939	17,147.5	69.3899	17,147.5	64.0958	17,147.5	72.9712	17,147.5	69.1072	17,147.5	71.8301	17,147.5	66.8444	17,147.5	72.4921	17,147.5	66.8107	17,147.5	70.3706
18,377.9	78.5663	18,377.9	79.0095	18,377.9	77.2099	18,377.9	76.9203	18,377.9	75.8682	18,377.9	77.8025	18,377.9	74.0872	18,377.9	78.5174	18,377.9	71.9771	18,377.9	75.6764	18,377.9	69.8874	18,377.9	71.8861	18,377.9	68.3824	18,377.9	74.4986	18,377.9	66.3024	18,377.9	70.7539	18,377.9	60.304	18,377.9	65.5204	18,377.9	60.9153	18,377.9	70.443	18,377.9	57.5514	18,377.9	60.5881	18,377.9	60.505	18,377.9	61.0919	18,377.9	63.9294	18,377.9	65.1211	18,377.9	58.1442	18,377.9	58.5311	18,377.9	61.3119	18,377.9	67.8912	18,377.9	64.1686	18,377.9	73.7613	18,377.9	67.4788	18,377.9	62.1726	18,377.9	63.8043	18,377.9	72.9441
19,699.2	67.5219	19,699.2	67.7322	19,699.2	67.2096	19,699.2	67.629	19,699.2	65.1487	19,699.2	68.2046	19,699.2	62.2732	19,699.2	68.153	19,699.2	63.0943	19,699.2	67.6434	19,699.2	59.8098	19,699.2	64.2737	19,699.2	57.1259	19,699.2	63.1028	19,699.2	57.3651	19,699.2	60.508	19,699.2	50.7921	19,699.2	48.6538	19,699.2	51.1974	19,699.2	59.0268	19,699.2	46.7322	19,699.2	54.6409	19,699.2	46.6275	19,699.2	54.7747	19,699.2	51.8679	19,699.2	51.0984	19,699.2	48.5542	19,699.2	58.8282	19,699.2	50.2294	19,699.2	61.179	19,699.2	51.6413	19,699.2	67.6066	19,699.2	58.4223	19,699.2	62.7181	19,699.2	60.8534	19,699.2	65.3196
19,998	59.4908	19,998	60.6403	19,998	60.4737	19,998	61.1194	19,998	58.1941	19,998	61.6313	19,998	55.4794	19,998	61.4188	19,998	54.8087	19,998	60.5185	19,998	52.4415	19,998	57.237	19,998	53.323	19,998	57.5025	19,998	51.2329	19,998	52.6781	19,998	41.9061	19,998	36.4568	19,998	42.0757	19,998	51.9736	19,998	43.2031	19,998	44.0622	19,998	45.0796	19,998	50.3052	19,998	47.9463	19,998	52.7218	19,998	46.8678	19,998	48.5352	19,998	45.6139	19,998	57.7236	19,998	41.7267	19,998	59.9707	19,998	51.833	19,998	55.7823	19,998	56.7914	19,998	58.6266
