"SPL Horizontal"
"On-Axis"		"10°"		"-10°"		"20°"		"-20°"		"30°"		"-30°"		"40°"		"-40°"		"50°"		"-50°"		"60°"		"-60°"		"70°"		"-70°"		"80°"		"-80°"		"90°"		"-90°"		"100°"		"-100°"		"110°"		"-110°"		"120°"		"-120°"		"130°"		"-130°"		"140°"		"-140°"		"150°"		"-150°"		"160°"		"-160°"		"170°"		"-170°"		"180°"
"Frequency [Hz]"	"Sound Pessure Level [dB]  / [2.83V 1m] "	"Frequency [Hz]"	"Sound Pessure Level [dB]  / [2.83V 1m] "	"Frequency [Hz]"	"Sound Pessure Level [dB]  / [2.83V 1m] "	"Frequency [Hz]"	"Sound Pessure Level [dB]  / [2.83V 1m] "	"Frequency [Hz]"	"Sound Pessure Level [dB]  / [2.83V 1m] "	"Frequency [Hz]"	"Sound Pessure Level [dB]  / [2.83V 1m] "	"Frequency [Hz]"	"Sound Pessure Level [dB]  / [2.83V 1m] "	"Frequency [Hz]"	"Sound Pessure Level [dB]  / [2.83V 1m] "	"Frequency [Hz]"	"Sound Pessure Level [dB]  / [2.83V 1m] "	"Frequency [Hz]"	"Sound Pessure Level [dB]  / [2.83V 1m] "	"Frequency [Hz]"	"Sound Pessure Level [dB]  / [2.83V 1m] "	"Frequency [Hz]"	"Sound Pessure Level [dB]  / [2.83V 1m] "	"Frequency [Hz]"	"Sound Pessure Level [dB]  / [2.83V 1m] "	"Frequency [Hz]"	"Sound Pessure Level [dB]  / [2.83V 1m] "	"Frequency [Hz]"	"Sound Pessure Level [dB]  / [2.83V 1m] "	"Frequency [Hz]"	"Sound Pessure Level [dB]  / [2.83V 1m] "	"Frequency [Hz]"	"Sound Pessure Level [dB]  / [2.83V 1m] "	"Frequency [Hz]"	"Sound Pessure Level [dB]  / [2.83V 1m] "	"Frequency [Hz]"	"Sound Pessure Level [dB]  / [2.83V 1m] "	"Frequency [Hz]"	"Sound Pessure Level [dB]  / [2.83V 1m] "	"Frequency [Hz]"	"Sound Pessure Level [dB]  / [2.83V 1m] "	"Frequency [Hz]"	"Sound Pessure Level [dB]  / [2.83V 1m] "	"Frequency [Hz]"	"Sound Pessure Level [dB]  / [2.83V 1m] "	"Frequency [Hz]"	"Sound Pessure Level [dB]  / [2.83V 1m] "	"Frequency [Hz]"	"Sound Pessure Level [dB]  / [2.83V 1m] "	"Frequency [Hz]"	"Sound Pessure Level [dB]  / [2.83V 1m] "	"Frequency [Hz]"	"Sound Pessure Level [dB]  / [2.83V 1m] "	"Frequency [Hz]"	"Sound Pessure Level [dB]  / [2.83V 1m] "	"Frequency [Hz]"	"Sound Pessure Level [dB]  / [2.83V 1m] "	"Frequency [Hz]"	"Sound Pessure Level [dB]  / [2.83V 1m] "	"Frequency [Hz]"	"Sound Pessure Level [dB]  / [2.83V 1m] "	"Frequency [Hz]"	"Sound Pessure Level [dB]  / [2.83V 1m] "	"Frequency [Hz]"	"Sound Pessure Level [dB]  / [2.83V 1m] "	"Frequency [Hz]"	"Sound Pessure Level [dB]  / [2.83V 1m] "	"Frequency [Hz]"	"Sound Pessure Level [dB]  / [2.83V 1m] "	"Frequency [Hz]"	"Sound Pessure Level [dB]  / [2.83V 1m] "
20.5078	50.5127	20.5078	50.4434	20.5078	50.4195	20.5078	50.2142	20.5078	50.1719	20.5078	49.846	20.5078	49.7915	20.5078	49.3964	20.5078	49.3232	20.5078	48.9904	20.5078	48.8563	20.5078	48.8371	20.5078	48.5438	20.5078	49.1597	20.5078	48.5824	20.5078	50.0215	20.5078	49.1071	20.5078	51.2601	20.5078	50.0781	20.5078	52.6357	20.5078	51.316	20.5078	53.9699	20.5078	52.6322	20.5078	55.1658	20.5078	53.8988	20.5078	56.1788	20.5078	55.0448	20.5078	56.99	20.5078	56.0342	20.5078	57.5923	20.5078	56.8477	20.5078	57.9837	20.5078	57.4743	20.5078	58.165	20.5078	57.9064	20.5078	58.1381
21.9727	52.2147	21.9727	52.0996	21.9727	52.1752	21.9727	51.8412	21.9727	51.9841	21.9727	51.474	21.9727	51.6594	21.9727	51.076	21.9727	51.2446	21.9727	50.7931	21.9727	50.8286	21.9727	50.8304	21.9727	50.5649	21.9727	51.3512	21.9727	50.6488	21.9727	52.3391	21.9727	51.2097	21.9727	53.6111	21.9727	52.2018	21.9727	54.961	21.9727	53.4455	21.9727	56.247	21.9727	54.7566	21.9727	57.3925	21.9727	56.0119	21.9727	58.3606	21.9727	57.1442	21.9727	59.1348	21.9727	58.1203	21.9727	59.7079	21.9727	58.9231	21.9727	60.0775	21.9727	59.5427	21.9727	60.2435	21.9727	59.9726	21.9727	60.2075
23.4375	54.3115	23.4375	54.2958	23.4375	54.2356	23.4375	54.202	23.4375	54.0753	23.4375	54.0679	23.4375	53.8594	23.4375	53.9623	23.4375	53.6441	23.4375	53.9842	23.4375	53.5161	23.4375	54.2395	23.4375	53.5821	23.4375	54.7915	23.4375	53.9308	23.4375	55.6191	23.4375	54.5836	23.4375	56.6292	23.4375	55.4803	23.4375	57.7086	23.4375	56.5168	23.4375	58.763	23.4375	57.5919	23.4375	59.7277	23.4375	58.63	23.4375	60.5624	23.4375	59.5813	23.4375	61.243	23.4375	60.414	23.4375	61.7553	23.4375	61.1072	23.4375	62.0912	23.4375	61.6464	23.4375	62.2471	23.4375	62.0208	23.4375	62.2228
24.9023	56.4303	24.9023	56.3879	24.9023	56.3988	24.9023	56.279	24.9023	56.3002	24.9023	56.1284	24.9023	56.1557	24.9023	55.9838	24.9023	56.0038	24.9023	55.9187	24.9023	55.9022	24.9023	56.0233	24.9023	55.9248	24.9023	56.3736	24.9023	56.143	24.9023	56.9902	24.9023	56.597	24.9023	57.8228	24.9023	57.2728	24.9023	58.7775	24.9023	58.1089	24.9023	59.7573	24.9023	59.0239	24.9023	60.6853	24.9023	59.9427	24.9023	61.5086	24.9023	60.8075	24.9023	62.1936	24.9023	61.5774	24.9023	62.7192	24.9023	62.224	24.9023	63.0733	24.9023	62.7271	24.9023	63.2502	24.9023	63.0722	24.9023	63.2488
26.3672	58.047	26.3672	58.0256	26.3672	58.026	26.3672	57.9716	26.3672	57.9666	26.3672	57.9104	26.3672	57.8867	26.3672	57.8842	26.3672	57.8185	26.3672	57.9498	26.3672	57.8081	26.3672	58.1664	26.3672	57.91	26.3672	58.5749	26.3672	58.1727	26.3672	59.1772	26.3672	58.6208	26.3672	59.9326	26.3672	59.242	26.3672	60.7748	26.3672	59.9919	26.3672	61.6338	26.3672	60.8101	26.3672	62.4501	26.3672	61.6372	26.3672	63.1787	26.3672	62.4236	26.3672	63.7878	26.3672	63.1313	26.3672	64.256	26.3672	63.7321	26.3672	64.5694	26.3672	64.2049	26.3672	64.7209	26.3672	64.5339	26.3672	64.7082
27.832	60.3519	27.832	60.3444	27.832	60.3321	27.832	60.316	27.832	60.2879	27.832	60.2835	27.832	60.2316	27.832	60.2746	27.832	60.1852	27.832	60.3267	27.832	60.18	27.832	60.4816	27.832	60.2541	27.832	60.7734	27.832	60.4443	27.832	61.2156	27.832	60.7753	27.832	61.7929	27.832	61.2487	27.832	62.4653	27.832	61.8412	27.832	63.1794	27.832	62.511	27.832	63.8818	27.832	63.2097	27.832	64.5262	27.832	63.8911	27.832	65.0765	27.832	64.5163	27.832	65.5064	27.832	65.0544	27.832	65.7986	27.832	65.4814	27.832	65.9428	27.832	65.7794	27.832	65.9357
29.2969	62.1286	29.2969	62.1399	29.2969	62.0992	29.2969	62.1386	29.2969	62.0543	29.2969	62.1389	29.2969	62.0044	29.2969	62.1636	29.2969	61.9679	29.2969	62.2424	29.2969	61.9709	29.2969	62.4074	29.2969	62.0439	29.2969	62.6846	29.2969	62.2169	29.2969	63.084	29.2969	62.5104	29.2969	63.5948	29.2969	62.9279	29.2969	64.1864	29.2969	63.4528	29.2969	64.8163	29.2969	64.0524	29.2969	65.4394	29.2969	64.6857	29.2969	66.0144	29.2969	65.3116	29.2969	66.5072	29.2969	65.8933	29.2969	66.8921	29.2969	66.4001	29.2969	67.1509	29.2969	66.8073	29.2969	67.273	29.2969	67.0964	29.2969	67.2542
30.7617	63.7287	30.7617	63.7299	30.7617	63.7132	30.7617	63.7219	30.7617	63.6854	30.7617	63.7172	30.7617	63.6541	30.7617	63.7358	30.7617	63.635	30.7617	63.8036	30.7617	63.6501	30.7617	63.9483	30.7617	63.7253	30.7617	64.1935	30.7617	63.8858	30.7617	64.5499	30.7617	64.1499	30.7617	65.0099	30.7617	64.5217	30.7617	65.5485	30.7617	64.9892	30.7617	66.1283	30.7617	65.5261	30.7617	66.7078	30.7617	66.0974	30.7617	67.2476	30.7617	66.6662	30.7617	67.7142	30.7617	67.1981	30.7617	68.0818	30.7617	67.6633	30.7617	68.3321	30.7617	68.0375	30.7617	68.4541	30.7617	68.302	30.7617	68.4434
32.2266	65.2251	32.2266	65.2404	32.2266	65.2042	32.2266	65.2539	32.2266	65.1798	32.2266	65.2756	32.2266	65.1596	32.2266	65.3209	32.2266	65.1568	32.2266	65.4099	32.2266	65.1889	32.2266	65.5638	32.2266	65.2759	32.2266	65.7999	32.2266	65.4369	32.2266	66.1263	32.2266	65.6852	32.2266	66.5376	32.2266	66.0239	32.2266	67.0146	32.2266	66.4438	32.2266	67.5276	32.2266	66.9241	32.2266	68.0422	32.2266	67.4368	32.2266	68.5239	32.2266	67.9504	32.2266	68.9423	32.2266	68.4345	32.2266	69.2727	32.2266	68.8613	32.2266	69.497	32.2266	69.2076	32.2266	69.6041	32.2266	69.4547	32.2266	69.5895
33.6914	66.8752	33.6914	66.8838	33.6914	66.8634	33.6914	66.8929	33.6914	66.8496	33.6914	66.911	33.6914	66.8395	33.6914	66.9512	33.6914	66.8433	33.6914	67.0299	33.6914	66.8749	33.6914	67.1646	33.6914	66.9507	33.6914	67.3697	33.6914	67.0868	33.6914	67.6529	33.6914	67.2957	33.6914	68.0108	33.6914	67.5824	33.6914	68.429	33.6914	67.9417	33.6914	68.8833	33.6914	68.3585	33.6914	69.3439	33.6914	68.8095	33.6914	69.7795	33.6914	69.2674	33.6914	70.1613	33.6914	69.7036	33.6914	70.465	33.6914	70.0918	33.6914	70.6726	33.6914	70.4087	33.6914	70.7724	33.6914	70.6358	33.6914	70.7596
35.1562	68.2903	35.1562	68.3039	35.1562	68.2788	35.1562	68.3224	35.1562	68.2702	35.1562	68.3526	35.1562	68.2695	35.1562	68.4047	35.1562	68.2849	35.1562	68.4917	35.1562	68.3278	35.1562	68.6272	35.1562	68.4115	35.1562	68.8225	35.1562	68.549	35.1562	69.0838	35.1562	68.7502	35.1562	69.409	35.1562	69.0188	35.1562	69.7868	35.1562	69.3503	35.1562	70.1972	35.1562	69.7315	35.1562	70.6147	35.1562	70.1427	35.1562	71.0118	35.1562	70.5599	35.1562	71.3619	35.1562	70.9577	35.1562	71.6423	35.1562	71.312	35.1562	71.8354	35.1562	71.6014	35.1562	71.9297	35.1562	71.8084	35.1562	71.9203
36.6211	69.4944	36.6211	69.5126	36.6211	69.4799	36.6211	69.5367	36.6211	69.4702	36.6211	69.572	36.6211	69.4697	36.6211	69.627	36.6211	69.4856	36.6211	69.7126	36.6211	69.5276	36.6211	69.8404	36.6211	69.6071	36.6211	70.0206	36.6211	69.7348	36.6211	70.2588	36.6211	69.9193	36.6211	70.5541	36.6211	70.164	36.6211	70.8971	36.6211	70.4655	36.6211	71.2708	36.6211	70.8131	36.6211	71.6527	36.6211	71.1898	36.6211	72.0175	36.6211	71.5742	36.6211	72.3402	36.6211	71.9434	36.6211	72.5991	36.6211	72.2745	36.6211	72.777	36.6211	72.5468	36.6211	72.8626	36.6211	72.7432	36.6211	72.8509
38.0859	70.7741	38.0859	70.7869	38.0859	70.7671	38.0859	70.8074	38.0859	70.7666	38.0859	70.8403	38.0859	70.7759	38.0859	70.8928	38.0859	70.8007	38.0859	70.9741	38.0859	70.8486	38.0859	71.094	38.0859	70.9286	38.0859	71.261	38.0859	71.0495	38.0859	71.4799	38.0859	71.2186	38.0859	71.7499	38.0859	71.439	38.0859	72.063	38.0859	71.7087	38.0859	72.4045	38.0859	72.0195	38.0859	72.7545	38.0859	72.3574	38.0859	73.0901	38.0859	72.7041	38.0859	73.3884	38.0859	73.0389	38.0859	73.6288	38.0859	73.3406	38.0859	73.7951	38.0859	73.5896	38.0859	73.8761	38.0859	73.7692	38.0859	73.8671
39.5508	71.877	39.5508	71.8957	39.5508	71.8676	39.5508	71.9255	39.5508	71.8677	39.5508	71.9705	39.5508	71.8801	39.5508	72.0367	39.5508	71.9092	39.5508	72.1313	39.5508	71.9614	39.5508	72.2618	39.5508	72.0443	39.5508	72.4341	39.5508	72.1654	39.5508	72.6513	39.5508	72.3305	39.5508	72.9115	39.5508	72.5427	39.5508	73.2075	39.5508	72.8	39.5508	73.5262	39.5508	73.095	39.5508	73.8502	39.5508	73.4153	39.5508	74.1595	39.5508	73.7441	39.5508	74.4334	39.5508	74.0623	39.5508	74.6531	39.5508	74.35	39.5508	74.8033	39.5508	74.5887	39.5508	74.8739	39.5508	74.7626	39.5508	74.8599
41.0156	73.2949	41.0156	73.3238	41.0156	73.275	41.0156	73.3627	41.0156	73.2651	41.0156	73.4143	41.0156	73.2679	41.0156	73.4829	41.0156	73.2875	41.0156	73.5737	41.0156	73.3297	41.0156	73.6923	41.0156	73.4006	41.0156	73.8436	41.0156	73.5062	41.0156	74.0298	41.0156	73.651	41.0156	74.2499	41.0156	73.8366	41.0156	74.4985	41.0156	74.0609	41.0156	74.7652	41.0156	74.3172	41.0156	75.0362	41.0156	74.595	41.0156	75.2946	41.0156	74.8804	41.0156	75.5232	41.0156	75.1574	41.0156	75.7057	41.0156	75.4092	41.0156	75.8288	41.0156	75.6198	41.0156	75.8833	41.0156	75.7752	41.0156	75.8651
42.4805	74.1108	42.4805	74.1393	42.4805	74.0934	42.4805	74.1794	42.4805	74.0877	42.4805	74.2332	42.4805	74.0956	42.4805	74.3037	42.4805	74.1204	42.4805	74.3951	42.4805	74.1661	42.4805	74.5115	42.4805	74.2374	42.4805	74.6567	42.4805	74.3389	42.4805	74.8327	42.4805	74.4743	42.4805	75.0387	42.4805	74.6455	42.4805	75.2699	42.4805	74.8513	42.4805	75.5179	42.4805	75.0868	42.4805	75.77	42.4805	75.3434	42.4805	76.0112	42.4805	75.6088	42.4805	76.2252	42.4805	75.8684	42.4805	76.3962	42.4805	76.1061	42.4805	76.5114	42.4805	76.3063	42.4805	76.5615	42.4805	76.4553	42.4805	76.5424
43.9453	75.0543	43.9453	75.0758	43.9453	75.044	43.9453	75.1097	43.9453	75.0449	43.9453	75.1581	43.9453	75.0585	43.9453	75.2239	43.9453	75.0874	43.9453	75.3105	43.9453	75.1352	43.9453	75.4214	43.9453	75.2062	43.9453	75.5593	43.9453	75.3049	43.9453	75.7254	43.9453	75.4345	43.9453	75.9188	43.9453	75.5969	43.9453	76.1352	43.9453	75.7907	43.9453	76.3668	43.9453	76.0115	43.9453	76.6027	43.9453	76.2511	43.9453	76.8293	43.9453	76.498	43.9453	77.0317	43.9453	76.7383	43.9453	77.1955	43.9453	76.9572	43.9453	77.3082	43.9453	77.14	43.9453	77.361	43.9453	77.2739	43.9453	77.3494
45.4102	75.8862	45.4102	75.9083	45.4102	75.8762	45.4102	75.9433	45.4102	75.8782	45.4102	75.9929	45.4102	75.8936	45.4102	76.0593	45.4102	75.9244	45.4102	76.1454	45.4102	75.9736	45.4102	76.2538	45.4102	76.0447	45.4102	76.3865	45.4102	76.1411	45.4102	76.5443	45.4102	76.2654	45.4102	76.726	45.4102	76.419	45.4102	76.9279	45.4102	76.6006	45.4102	77.1429	45.4102	76.8061	45.4102	77.3611	45.4102	77.0282	45.4102	77.5703	45.4102	77.2568	45.4102	77.757	45.4102	77.4793	45.4102	77.908	45.4102	77.6822	45.4102	78.0116	45.4102	77.852	45.4102	78.0596	45.4102	77.9769	45.4102	78.0478
46.875	76.6079	46.875	76.6291	46.875	76.5994	46.875	76.6636	46.875	76.6036	46.875	76.7125	46.875	76.6214	46.875	76.7776	46.875	76.6544	46.875	76.8609	46.875	76.705	46.875	76.9645	46.875	76.7757	46.875	77.0897	46.875	76.8691	46.875	77.2373	46.875	76.9873	46.875	77.406	46.875	77.1313	46.875	77.5926	46.875	77.2997	46.875	77.7908	46.875	77.4892	46.875	77.992	46.875	77.6933	46.875	78.185	46.875	77.9029	46.875	78.3577	46.875	78.107	46.875	78.4975	46.875	78.2932	46.875	78.5939	46.875	78.4491	46.875	78.6389	46.875	78.5638	46.875	78.6287
48.3398	77.2579	48.3398	77.281	48.3398	77.2478	48.3398	77.3176	48.3398	77.251	48.3398	77.3685	48.3398	77.2681	48.3398	77.4347	48.3398	77.3003	48.3398	77.5177	48.3398	77.3495	48.3398	77.6186	48.3398	77.4174	48.3398	77.7383	48.3398	77.5061	48.3398	77.8768	48.3398	77.6171	48.3398	78.0329	48.3398	77.7509	48.3398	78.2036	48.3398	77.9063	48.3398	78.3835	48.3398	78.0803	48.3398	78.565	48.3398	78.2673	48.3398	78.7386	48.3398	78.4593	48.3398	78.8933	48.3398	78.6465	48.3398	79.0182	48.3398	78.8178	48.3398	79.1035	48.3398	78.9619	48.3398	79.142	48.3398	79.0687	48.3398	79.1302
51.2695	78.2735	51.2695	78.2983	51.2695	78.2626	51.2695	78.337	51.2695	78.2657	51.2695	78.3897	51.2695	78.2832	51.2695	78.4567	51.2695	78.3158	51.2695	78.5381	51.2695	78.3642	51.2695	78.6342	51.2695	78.4293	51.2695	78.7447	51.2695	78.512	51.2695	78.869	51.2695	78.6126	51.2695	79.0057	51.2695	78.7311	51.2695	79.152	51.2695	78.8662	51.2695	79.3038	51.2695	79.0153	51.2695	79.4551	51.2695	79.1741	51.2695	79.5984	51.2695	79.3365	51.2695	79.7252	51.2695	79.4948	51.2695	79.8265	51.2695	79.6401	51.2695	79.8945	51.2695	79.7631	51.2695	79.9233	51.2695	79.8553	51.2695	79.91
52.7344	78.6614	52.7344	78.6855	52.7344	78.6518	52.7344	78.7241	52.7344	78.6568	52.7344	78.777	52.7344	78.6766	52.7344	78.8442	52.7344	78.7115	52.7344	78.9253	52.7344	78.7619	52.7344	79.02	52.7344	78.8282	52.7344	79.1278	52.7344	78.9107	52.7344	79.2475	52.7344	79.0094	52.7344	79.3777	52.7344	79.1238	52.7344	79.5155	52.7344	79.2526	52.7344	79.6573	52.7344	79.3931	52.7344	79.7975	52.7344	79.5414	52.7344	79.9297	52.7344	79.6919	52.7344	80.0462	52.7344	79.8377	52.7344	80.1393	52.7344	79.9708	52.7344	80.2017	52.7344	80.0832	52.7344	80.2284	52.7344	80.1671	52.7344	80.2167
54.1992	79.0524	54.1992	79.0755	54.1992	79.0439	54.1992	79.1133	54.1992	79.0502	54.1992	79.1656	54.1992	79.071	54.1992	79.232	54.1992	79.1064	54.1992	79.3119	54.1992	79.1562	54.1992	79.4045	54.1992	79.2205	54.1992	79.5088	54.1992	79.2991	54.1992	79.6233	54.1992	79.3918	54.1992	79.7461	54.1992	79.4978	54.1992	79.8746	54.1992	79.6158	54.1992	80.005	54.1992	79.7437	54.1992	80.1326	54.1992	79.878	54.1992	80.2514	54.1992	80.0142	54.1992	80.355	54.1992	80.1464	54.1992	80.4365	54.1992	80.2677	54.1992	80.4899	54.1992	80.3709	54.1992	80.5107	54.1992	80.4492	54.1992	80.4969
55.6641	79.3244	55.6641	79.3486	55.6641	79.3151	55.6641	79.3874	55.6641	79.3208	55.6641	79.4404	55.6641	79.3414	55.6641	79.5069	55.6641	79.3768	55.6641	79.5859	55.6641	79.4264	55.6641	79.6763	55.6641	79.4899	55.6641	79.7766	55.6641	79.5667	55.6641	79.8852	55.6641	79.656	55.6641	80.0001	55.6641	79.7569	55.6641	80.1187	55.6641	79.8677	55.6641	80.2377	55.6641	79.9866	55.6641	80.3531	55.6641	80.1104	55.6641	80.4598	55.6641	80.2353	55.6641	80.5522	55.6641	80.356	55.6641	80.6245	55.6641	80.4666	55.6641	80.6715	55.6641	80.5606	55.6641	80.6893	55.6641	80.632	55.6641	80.6759
58.5938	79.8089	58.5938	79.8323	58.5938	79.8	58.5938	79.8697	58.5938	79.8057	58.5938	79.9201	58.5938	79.8259	58.5938	79.9822	58.5938	79.8601	58.5938	80.0545	58.5938	79.9073	58.5938	80.1353	58.5938	79.9667	58.5938	80.2228	58.5938	80.0371	58.5938	80.3152	58.5938	80.1171	58.5938	80.4107	58.5938	80.2054	58.5938	80.5072	58.5938	80.3003	58.5938	80.6025	58.5938	80.3999	58.5938	80.6938	58.5938	80.5018	58.5938	80.7776	58.5938	80.6029	58.5938	80.85	58.5938	80.6993	58.5938	80.9068	58.5938	80.7867	58.5938	80.9441	58.5938	80.8602	58.5938	80.9587	58.5938	80.9155	58.5938	80.9491
60.0586	79.9146	60.0586	79.936	60.0586	79.908	60.0586	79.9715	60.0586	79.916	60.0586	80.0203	60.0586	79.9383	60.0586	80.0811	60.0586	79.9741	60.0586	80.1521	60.0586	80.0223	60.0586	80.2315	60.0586	80.0817	60.0586	80.3171	60.0586	80.1507	60.0586	80.407	60.0586	80.228	60.0586	80.499	60.0586	80.312	60.0586	80.591	60.0586	80.4011	60.0586	80.6806	60.0586	80.4934	60.0586	80.7652	60.0586	80.5868	60.0586	80.8419	60.0586	80.6788	60.0586	80.9072	60.0586	80.766	60.0586	80.9578	60.0586	80.8448	60.0586	80.9903	60.0586	80.9112	60.0586	81.0022	60.0586	80.9615	60.0586	80.9925
62.9883	80.441	62.9883	80.463	62.9883	80.4328	62.9883	80.4985	62.9883	80.4384	62.9883	80.5462	62.9883	80.4572	62.9883	80.6047	62.9883	80.4883	62.9883	80.6718	62.9883	80.5302	62.9883	80.7454	62.9883	80.5815	62.9883	80.8229	62.9883	80.6402	62.9883	80.9017	62.9883	80.7048	62.9883	80.9795	62.9883	80.7737	62.9883	81.0543	62.9883	80.8455	62.9883	81.124	62.9883	80.9187	62.9883	81.1868	62.9883	80.992	62.9883	81.241	62.9883	81.0638	62.9883	81.2847	62.9883	81.1322	62.9883	81.3161	62.9883	81.1947	62.9883	81.3333	62.9883	81.2488	62.9883	81.335	62.9883	81.2917	62.9883	81.321
64.4531	80.6605	64.4531	80.6816	64.4531	80.6521	64.4531	80.7151	64.4531	80.6564	64.4531	80.7597	64.4531	80.673	64.4531	80.8138	64.4531	80.7006	64.4531	80.8753	64.4531	80.738	64.4531	80.9419	64.4531	80.7834	64.4531	81.011	64.4531	80.8352	64.4531	81.0802	64.4531	80.8916	64.4531	81.1474	64.4531	80.9512	64.4531	81.2105	64.4531	81.0127	64.4531	81.268	64.4531	81.0748	64.4531	81.3188	64.4531	81.1366	64.4531	81.3614	64.4531	81.1968	64.4531	81.3949	64.4531	81.254	64.4531	81.4179	64.4531	81.3064	64.4531	81.4293	64.4531	81.352	64.4531	81.4283	64.4531	81.3887	64.4531	81.4146
67.3828	80.9091	67.3828	80.9309	67.3828	80.8986	67.3828	80.9632	67.3828	80.8997	67.3828	81.0045	67.3828	80.9122	67.3828	81.053	67.3828	80.9353	67.3828	81.1064	67.3828	80.9676	67.3828	81.1624	67.3828	81.0075	67.3828	81.2186	67.3828	81.053	67.3828	81.2729	67.3828	81.1023	67.3828	81.3236	67.3828	81.1535	67.3828	81.3693	67.3828	81.2049	67.3828	81.4094	67.3828	81.2553	67.3828	81.4431	67.3828	81.3037	67.3828	81.4704	67.3828	81.349	67.3828	81.4909	67.3828	81.3906	67.3828	81.5045	67.3828	81.4274	67.3828	81.5108	67.3828	81.4585	67.3828	81.5094	67.3828	81.4829	67.3828	81.5001
68.8477	80.9119	68.8477	80.9294	68.8477	80.9063	68.8477	80.9581	68.8477	80.9129	68.8477	80.9966	68.8477	80.9311	68.8477	81.0428	68.8477	80.9597	68.8477	81.0945	68.8477	80.9972	68.8477	81.1492	68.8477	81.0415	68.8477	81.2044	68.8477	81.0905	68.8477	81.2578	68.8477	81.1419	68.8477	81.3077	68.8477	81.1937	68.8477	81.3525	68.8477	81.2442	68.8477	81.3915	68.8477	81.292	68.8477	81.4242	68.8477	81.336	68.8477	81.4505	68.8477	81.3754	68.8477	81.4704	68.8477	81.4097	68.8477	81.4842	68.8477	81.4385	68.8477	81.4919	68.8477	81.4615	68.8477	81.4936	68.8477	81.4783	68.8477	81.4891
71.7773	81.0254	71.7773	81.0393	71.7773	81.0239	71.7773	81.065	71.7773	81.0347	71.7773	81.1012	71.7773	81.057	71.7773	81.146	71.7773	81.0892	71.7773	81.1969	71.7773	81.1296	71.7773	81.2513	71.7773	81.1757	71.7773	81.3063	71.7773	81.2252	71.7773	81.3593	71.7773	81.2756	71.7773	81.4081	71.7773	81.3248	71.7773	81.4507	71.7773	81.371	71.7773	81.4861	71.7773	81.4129	71.7773	81.5139	71.7773	81.4496	71.7773	81.5341	71.7773	81.4805	71.7773	81.5477	71.7773	81.5057	71.7773	81.5557	71.7773	81.5254	71.7773	81.5593	71.7773	81.5399	71.7773	81.5594	71.7773	81.55	71.7773	81.5563
74.707	81.4604	74.707	81.4809	74.707	81.4528	74.707	81.5134	74.707	81.4585	74.707	81.5561	74.707	81.4769	74.707	81.6066	74.707	81.5065	74.707	81.662	74.707	81.5454	74.707	81.7193	74.707	81.591	74.707	81.775	74.707	81.6406	74.707	81.8261	74.707	81.6912	74.707	81.87	74.707	81.7398	74.707	81.9047	74.707	81.7841	74.707	81.9292	74.707	81.822	74.707	81.9436	74.707	81.8525	74.707	81.9491	74.707	81.8752	74.707	81.9477	74.707	81.891	74.707	81.9418	74.707	81.9012	74.707	81.9339	74.707	81.908	74.707	81.926	74.707	81.9134	74.707	81.9191
77.6367	81.7091	77.6367	81.7296	77.6367	81.7006	77.6367	81.7615	77.6367	81.7044	77.6367	81.8028	77.6367	81.7195	77.6367	81.8512	77.6367	81.7445	77.6367	81.9037	77.6367	81.7772	77.6367	81.9567	77.6367	81.815	77.6367	82.0066	77.6367	81.8549	77.6367	82.05	77.6367	81.894	77.6367	82.0841	77.6367	81.9293	77.6367	82.1071	77.6367	81.9586	77.6367	82.1183	77.6367	81.9804	77.6367	82.1183	77.6367	81.9945	77.6367	82.1089	77.6367	82.0018	77.6367	82.0927	77.6367	82.0042	77.6367	82.0728	77.6367	82.0046	77.6367	82.0522	77.6367	82.0058	77.6367	82.0338	77.6367	82.0103	77.6367	82.0195
79.1016	81.7444	79.1016	81.7625	79.1016	81.7377	79.1016	81.7914	79.1016	81.7425	79.1016	81.829	79.1016	81.758	79.1016	81.8731	79.1016	81.7826	79.1016	81.9204	79.1016	81.8141	79.1016	81.9674	79.1016	81.8499	79.1016	82.0107	79.1016	81.8868	79.1016	82.047	79.1016	81.922	79.1016	82.0737	79.1016	81.9525	79.1016	82.0894	79.1016	81.9759	79.1016	82.0936	79.1016	81.991	79.1016	82.0873	79.1016	81.9976	79.1016	82.0724	79.1016	81.9968	79.1016	82.0519	79.1016	81.991	79.1016	82.0292	79.1016	81.9832	79.1016	82.0077	79.1016	81.9769	79.1016	81.9903	79.1016	81.9749	79.1016	81.9792
82.0312	81.9866	82.0312	82.0016	82.0312	81.9809	82.0312	82.025	82.0312	81.9843	82.0312	82.0552	82.0312	81.9961	82.0312	82.09	82.0312	82.0148	82.0312	82.1265	82.0312	82.0383	82.0312	82.1616	82.0312	82.064	82.0312	82.1922	82.0312	82.0893	82.0312	82.2153	82.0312	82.1113	82.0312	82.2286	82.0312	82.1276	82.0312	82.2308	82.0312	82.1364	82.0312	82.2218	82.0312	82.137	82.0312	82.2028	82.0312	82.1295	82.0312	82.1763	82.0312	82.1157	82.0312	82.1458	82.0312	82.0981	82.0312	82.1152	82.0312	82.0802	82.0312	82.0884	82.0312	82.0656	82.0312	82.0687	82.0312	82.0575	82.0312	82.0582
84.9609	82.1989	84.9609	82.2192	84.9609	82.1885	84.9609	82.2483	84.9609	82.188	84.9609	82.2842	84.9609	82.1969	84.9609	82.3244	84.9609	82.2137	84.9609	82.3657	84.9609	82.2363	84.9609	82.4043	84.9609	82.2621	84.9609	82.4368	84.9609	82.2884	84.9609	82.4597	84.9609	82.3125	84.9609	82.4709	84.9609	82.3317	84.9609	82.4691	84.9609	82.3443	84.9609	82.4548	84.9609	82.3492	84.9609	82.4301	84.9609	82.3464	84.9609	82.3985	84.9609	82.337	84.9609	82.3643	84.9609	82.323	84.9609	82.3321	84.9609	82.3072	84.9609	82.3059	84.9609	82.2928	84.9609	82.2886	84.9609	82.2831	84.9609	82.2811
87.8906	81.8402	87.8906	81.8406	87.8906	81.857	87.8906	81.8577	87.8906	81.8902	87.8906	81.8902	87.8906	81.9381	87.8906	81.9355	87.8906	81.998	87.8906	81.9904	87.8906	82.0666	87.8906	82.0508	87.8906	82.1398	87.8906	82.1129	87.8906	82.2136	87.8906	82.1725	87.8906	82.2839	87.8906	82.2266	87.8906	82.3473	87.8906	82.2728	87.8906	82.401	87.8906	82.3103	87.8906	82.4429	87.8906	82.3393	87.8906	82.4721	87.8906	82.3612	87.8906	82.4885	87.8906	82.3782	87.8906	82.4933	87.8906	82.3929	87.8906	82.4882	87.8906	82.4074	87.8906	82.4758	87.8906	82.4234	87.8906	82.4591	87.8906	82.4409
90.8203	82.2117	90.8203	82.2216	90.8203	82.2134	90.8203	82.2423	90.8203	82.2269	90.8203	82.2721	90.8203	82.2513	90.8203	82.309	90.8203	82.2848	90.8203	82.35	90.8203	82.3247	90.8203	82.3921	90.8203	82.3673	90.8203	82.4316	90.8203	82.4086	90.8203	82.4649	90.8203	82.4445	90.8203	82.489	90.8203	82.4715	90.8203	82.5015	90.8203	82.4871	90.8203	82.5013	90.8203	82.4901	90.8203	82.4889	90.8203	82.4809	90.8203	82.4667	90.8203	82.4615	90.8203	82.4385	90.8203	82.4356	90.8203	82.4089	90.8203	82.4077	90.8203	82.3831	90.8203	82.3829	90.8203	82.3657	90.8203	82.3658	90.8203	82.3596
95.2148	82.5419	95.2148	82.5588	95.2148	82.531	95.2148	82.581	95.2148	82.5258	95.2148	82.6074	95.2148	82.526	95.2148	82.6365	95.2148	82.5306	95.2148	82.6658	95.2148	82.538	95.2148	82.6924	95.2148	82.5463	95.2148	82.713	95.2148	82.5532	95.2148	82.7243	95.2148	82.5558	95.2148	82.7233	95.2148	82.5518	95.2148	82.7078	95.2148	82.5395	95.2148	82.6771	95.2148	82.518	95.2148	82.6323	95.2148	82.4883	95.2148	82.5766	95.2148	82.4526	95.2148	82.5152	95.2148	82.4147	95.2148	82.4547	95.2148	82.3795	95.2148	82.4019	95.2148	82.3523	95.2148	82.3629	95.2148	82.3383	95.2148	82.3413
98.1445	82.7055	98.1445	82.7175	98.1445	82.6962	98.1445	82.7317	98.1445	82.6899	98.1445	82.7474	98.1445	82.6866	98.1445	82.7633	98.1445	82.6857	98.1445	82.7776	98.1445	82.6867	98.1445	82.7882	98.1445	82.688	98.1445	82.7924	98.1445	82.6879	98.1445	82.7876	98.1445	82.6845	98.1445	82.7712	98.1445	82.6757	98.1445	82.7417	98.1445	82.6595	98.1445	82.6985	98.1445	82.6345	98.1445	82.6431	98.1445	82.6002	98.1445	82.5794	98.1445	82.5575	98.1445	82.5132	98.1445	82.5089	98.1445	82.4521	98.1445	82.4592	98.1445	82.4037	98.1445	82.4145	98.1445	82.3743	98.1445	82.3817	98.1445	82.367
101.074	82.6699	101.074	82.6973	101.074	82.6505	101.074	82.7314	101.074	82.6395	101.074	82.7702	101.074	82.6369	101.074	82.8108	101.074	82.6419	101.074	82.8498	101.074	82.6533	101.074	82.8831	101.074	82.6693	101.074	82.9066	101.074	82.6878	101.074	82.9166	101.074	82.7058	101.074	82.9101	101.074	82.7203	101.074	82.8857	101.074	82.7279	101.074	82.844	101.074	82.7258	101.074	82.7881	101.074	82.7122	101.074	82.7232	101.074	82.687	101.074	82.6569	101.074	82.6521	101.074	82.5975	101.074	82.6117	101.074	82.5525	101.074	82.5722	101.074	82.5274	101.074	82.5406	101.074	82.524
105.469	82.7436	105.469	82.8005	105.469	82.7017	105.469	82.8684	105.469	82.678	105.469	82.9424	105.469	82.6737	105.469	83.0174	105.469	82.6881	105.469	83.0887	105.469	82.7184	105.469	83.1519	105.469	82.7603	105.469	83.2028	105.469	82.8084	105.469	83.2382	105.469	82.8568	105.469	83.2556	105.469	82.9	105.469	83.2539	105.469	82.9336	105.469	83.2337	105.469	82.9548	105.469	83.1974	105.469	82.9628	105.469	83.1493	105.469	82.959	105.469	83.0948	105.469	82.947	105.469	83.0401	105.469	82.9322	105.469	82.9911	105.469	82.9207	105.469	82.9527	105.469	82.9179	105.469	82.928
108.398	83.0555	108.398	83.0984	108.398	83.0137	108.398	83.1404	108.398	82.9751	108.398	83.1795	108.398	82.9423	108.398	83.214	108.398	82.9173	108.398	83.242	108.398	82.9017	108.398	83.261	108.398	82.8956	108.398	83.2687	108.398	82.8977	108.398	83.2626	108.398	82.9052	108.398	83.2409	108.398	82.9141	108.398	83.203	108.398	82.92	108.398	83.1496	108.398	82.9188	108.398	83.0837	108.398	82.9079	108.398	83.01	108.398	82.8864	108.398	82.935	108.398	82.8562	108.398	82.8661	108.398	82.8216	108.398	82.8107	108.398	82.7892	108.398	82.7744	108.398	82.7663	108.398	82.7599
112.793	83.0778	112.793	83.0899	112.793	83.0694	112.793	83.1056	112.793	83.0643	112.793	83.1243	112.793	83.0619	112.793	83.1447	112.793	83.0616	112.793	83.1642	112.793	83.0629	112.793	83.18	112.793	83.0651	112.793	83.1884	112.793	83.067	112.793	83.1861	112.793	83.0669	112.793	83.1702	112.793	83.0622	112.793	83.139	112.793	83.0501	112.793	83.0929	112.793	83.0284	112.793	83.0342	112.793	82.9956	112.793	82.9674	112.793	82.9524	112.793	82.8992	112.793	82.902	112.793	82.8369	112.793	82.8496	112.793	82.7881	112.793	82.8024	112.793	82.7587	112.793	82.7677	112.793	82.7519
117.188	83.1695	117.188	83.1922	117.188	83.146	117.188	83.2131	117.188	83.1231	117.188	83.2311	117.188	83.1021	117.188	83.2449	117.188	83.0839	117.188	83.2529	117.188	83.0696	117.188	83.2532	117.188	83.0592	117.188	83.2435	117.188	83.0524	117.188	83.2215	117.188	83.0476	117.188	83.1859	117.188	83.0426	117.188	83.1365	117.188	83.0346	117.188	83.0751	117.188	83.0204	117.188	83.0057	117.188	82.9973	117.188	82.934	117.188	82.9643	117.188	82.8668	117.188	82.9222	117.188	82.8112	117.188	82.8746	117.188	82.7732	117.188	82.8275	117.188	82.7567	117.188	82.7877	117.188	82.7624
120.117	83.424	120.117	83.44	120.117	83.4024	120.117	83.4499	120.117	83.3761	120.117	83.4531	120.117	83.3458	120.117	83.4489	120.117	83.3122	120.117	83.436	120.117	83.276	120.117	83.4129	120.117	83.2374	120.117	83.3775	120.117	83.1962	120.117	83.3277	120.117	83.1514	120.117	83.2619	120.117	83.1017	120.117	83.1797	120.117	83.0457	120.117	83.0826	120.117	82.982	120.117	82.9747	120.117	82.9104	120.117	82.8625	120.117	82.8321	120.117	82.7545	120.117	82.751	120.117	82.6603	120.117	82.673	120.117	82.5887	120.117	82.6058	120.117	82.5463	120.117	82.5577	120.117	82.5363
124.512	83.4125	124.512	83.408	124.512	83.4107	124.512	83.3975	124.512	83.4021	124.512	83.3811	124.512	83.3861	124.512	83.3584	124.512	83.362	124.512	83.3287	124.512	83.329	124.512	83.2908	124.512	83.2866	124.512	83.2432	124.512	83.2341	124.512	83.1842	124.512	83.1712	124.512	83.1127	124.512	83.098	124.512	83.0281	124.512	83.0148	124.512	82.9316	124.512	82.9229	124.512	82.8264	124.512	82.8246	124.512	82.7178	124.512	82.7235	124.512	82.6134	124.512	82.6251	124.512	82.5214	124.512	82.5358	124.512	82.4502	124.512	82.4632	124.512	82.4066	124.512	82.4142	124.512	82.3944
128.906	83.2672	128.906	83.2897	128.906	83.2442	128.906	83.3103	128.906	83.2215	128.906	83.327	128.906	83.1991	128.906	83.3372	128.906	83.1764	128.906	83.3378	128.906	83.1517	128.906	83.3254	128.906	83.1226	128.906	83.2968	128.906	83.0859	128.906	83.2489	128.906	83.0387	128.906	83.1802	128.906	82.9784	128.906	83.0904	128.906	82.9042	128.906	82.9818	128.906	82.817	128.906	82.8589	128.906	82.7202	128.906	82.729	128.906	82.619	128.906	82.6014	128.906	82.5204	128.906	82.4866	128.906	82.4322	128.906	82.3948	128.906	82.3626	128.906	82.334	128.906	82.3194	128.906	82.3088
133.301	83.1665	133.301	83.1953	133.301	83.1368	133.301	83.2226	133.301	83.1068	133.301	83.2476	133.301	83.0768	133.301	83.2687	133.301	83.0473	133.301	83.2839	133.301	83.0183	133.301	83.29	133.301	82.9893	133.301	83.2833	133.301	82.9588	133.301	83.2604	133.301	82.9247	133.301	83.2182	133.301	82.8847	133.301	83.1553	133.301	82.8368	133.301	83.0723	133.301	82.7804	133.301	82.9727	133.301	82.7165	133.301	82.8624	133.301	82.6484	133.301	82.7497	133.301	82.5813	133.301	82.6443	133.301	82.5218	133.301	82.5559	133.301	82.4771	133.301	82.4924	133.301	82.4541	133.301	82.4582
139.16	83.2488	139.16	83.266	139.16	83.2284	139.16	83.2798	139.16	83.2055	139.16	83.2901	139.16	83.1806	139.16	83.2966	139.16	83.1546	139.16	83.2985	139.16	83.1276	139.16	83.2939	139.16	83.099	139.16	83.2801	139.16	83.067	139.16	83.2538	139.16	83.029	139.16	83.2113	139.16	82.9818	139.16	83.1497	139.16	82.9229	139.16	83.0682	139.16	82.8513	139.16	82.9683	139.16	82.7687	139.16	82.855	139.16	82.6794	139.16	82.7365	139.16	82.5905	139.16	82.6233	139.16	82.5112	139.16	82.5266	139.16	82.4509	139.16	82.4564	139.16	82.4184	139.16	82.4195
143.555	83.2854	143.555	83.283	143.555	83.279	143.555	83.2723	143.555	83.2637	143.555	83.2547	143.555	83.2403	143.555	83.2313	143.555	83.2102	143.555	83.2028	143.555	83.1749	143.555	83.1693	143.555	83.1355	143.555	83.1294	143.555	83.0927	143.555	83.0812	143.555	83.0458	143.555	83.0222	143.555	82.9934	143.555	82.9507	143.555	82.9339	143.555	82.8667	143.555	82.8656	143.555	82.7724	143.555	82.7883	143.555	82.6733	143.555	82.7039	143.555	82.5769	143.555	82.6166	143.555	82.4921	143.555	82.533	143.555	82.4278	143.555	82.4612	143.555	82.3907	143.555	82.4095	143.555	82.3847
147.949	83.3607	147.949	83.383	147.949	83.3245	147.949	83.3918	147.949	83.2744	147.949	83.3879	147.949	83.2116	147.949	83.3722	147.949	83.1381	147.949	83.3449	147.949	83.0566	147.949	83.3055	147.949	82.9699	147.949	83.2527	147.949	82.8806	147.949	83.1848	147.949	82.7901	147.949	83.1	147.949	82.6991	147.949	82.9973	147.949	82.6075	147.949	82.8773	147.949	82.5149	147.949	82.7432	147.949	82.4219	147.949	82.601	147.949	82.3305	147.949	82.4594	147.949	82.2448	147.949	82.3288	147.949	82.1711	147.949	82.2197	147.949	82.117	147.949	82.1408	147.949	82.0904	147.949	82.0973
153.809	82.9589	153.809	82.9671	153.809	82.9461	153.809	82.9723	153.809	82.9267	153.809	82.9756	153.809	82.8992	153.809	82.977	153.809	82.8626	153.809	82.9752	153.809	82.8171	153.809	82.9676	153.809	82.7638	153.809	82.9507	153.809	82.7049	153.809	82.9211	153.809	82.6432	153.809	82.8764	153.809	82.5812	153.809	82.8159	153.809	82.5201	153.809	82.7411	153.809	82.4601	153.809	82.6557	153.809	82.401	153.809	82.565	153.809	82.3436	153.809	82.4747	153.809	82.2906	153.809	82.3905	153.809	82.2469	153.809	82.3177	153.809	82.2183	153.809	82.2609	153.809	82.2098	153.809	82.2241
159.668	82.9457	159.668	82.9388	159.668	82.9492	159.668	82.93	159.668	82.9486	159.668	82.9202	159.668	82.943	159.668	82.9094	159.668	82.9321	159.668	82.8967	159.668	82.9159	159.668	82.8799	159.668	82.8939	159.668	82.8562	159.668	82.866	159.668	82.8226	159.668	82.8318	159.668	82.7769	159.668	82.7915	159.668	82.7189	159.668	82.7452	159.668	82.6505	159.668	82.6932	159.668	82.576	159.668	82.6359	159.668	82.5016	159.668	82.5748	159.668	82.4341	159.668	82.5122	159.668	82.3798	159.668	82.4517	159.668	82.3433	159.668	82.3983	159.668	82.3273	159.668	82.357	159.668	82.3323
165.527	83.035	165.527	83.0234	165.527	83.0382	165.527	83.0035	165.527	83.034	165.527	82.9764	165.527	83.0241	165.527	82.9441	165.527	83.0103	165.527	82.9081	165.527	82.9937	165.527	82.8693	165.527	82.9746	165.527	82.8271	165.527	82.952	165.527	82.7799	165.527	82.9241	165.527	82.7256	165.527	82.8889	165.527	82.6629	165.527	82.8447	165.527	82.5919	165.527	82.7906	165.527	82.5154	165.527	82.7266	165.527	82.4387	165.527	82.6537	165.527	82.3693	165.527	82.5746	165.527	82.3153	165.527	82.4934	165.527	82.2838	165.527	82.4162	165.527	82.2793	165.527	82.3501	165.527	82.3024
171.387	82.9458	171.387	82.9256	171.387	82.9533	171.387	82.8941	171.387	82.9484	171.387	82.8539	171.387	82.9327	171.387	82.8084	171.387	82.9089	171.387	82.7608	171.387	82.8797	171.387	82.7137	171.387	82.8473	171.387	82.6679	171.387	82.8124	171.387	82.6228	171.387	82.7746	171.387	82.5764	171.387	82.7325	171.387	82.5265	171.387	82.6848	171.387	82.4715	171.387	82.6309	171.387	82.4123	171.387	82.5714	171.387	82.3518	171.387	82.5076	171.387	82.2959	171.387	82.4416	171.387	82.2511	171.387	82.3768	171.387	82.2236	171.387	82.317	171.387	82.2172	171.387	82.2672	171.387	82.2325
177.246	83.0515	177.246	83.0609	177.246	83.0219	177.246	83.048	177.246	82.976	177.246	83.0126	177.246	82.9194	177.246	82.9562	177.246	82.8585	177.246	82.8817	177.246	82.8	177.246	82.7933	177.246	82.7493	177.246	82.696	177.246	82.7094	177.246	82.595	177.246	82.6799	177.246	82.4956	177.246	82.6578	177.246	82.4027	177.246	82.6382	177.246	82.3206	177.246	82.6159	177.246	82.2527	177.246	82.5865	177.246	82.2021	177.246	82.5472	177.246	82.171	177.246	82.4976	177.246	82.1608	177.246	82.4388	177.246	82.1718	177.246	82.3745	177.246	82.2028	177.246	82.3097	177.246	82.2504
183.105	83.1414	183.105	83.1648	183.105	83.0968	183.105	83.1668	183.105	83.0326	183.105	83.1477	183.105	82.9509	183.105	83.1084	183.105	82.8547	183.105	83.0497	183.105	82.7475	183.105	82.9719	183.105	82.6323	183.105	82.8752	183.105	82.5115	183.105	82.7597	183.105	82.3869	183.105	82.6268	183.105	82.2599	183.105	82.4799	183.105	82.1327	183.105	82.3244	183.105	82.0087	183.105	82.1683	183.105	81.8931	183.105	82.0207	183.105	81.7918	183.105	81.8901	183.105	81.7103	183.105	81.7829	183.105	81.652	183.105	81.7021	183.105	81.6175	183.105	81.647	183.105	81.6058	183.105	81.6155
188.965	82.7772	188.965	82.7682	188.965	82.7704	188.965	82.7457	188.965	82.7475	188.965	82.7127	188.965	82.7091	188.965	82.6727	188.965	82.6575	188.965	82.629	188.965	82.5949	188.965	82.5836	188.965	82.5237	188.965	82.5368	188.965	82.4447	188.965	82.4873	188.965	82.358	188.965	82.4323	188.965	82.2622	188.965	82.3678	188.965	82.1566	188.965	82.29	188.965	82.042	188.965	82.1961	188.965	81.9229	188.965	82.0864	188.965	81.8069	188.965	81.9655	188.965	81.7039	188.965	81.8427	188.965	81.6236	188.965	81.7301	188.965	81.5736	188.965	81.6399	188.965	81.5587	188.965	81.5812
196.289	82.7769	196.289	82.7607	196.289	82.7667	196.289	82.7211	196.289	82.7295	196.289	82.6632	196.289	82.6678	196.289	82.5928	196.289	82.5865	196.289	82.5156	196.289	82.4924	196.289	82.4363	196.289	82.3924	196.289	82.3586	196.289	82.2926	196.289	82.2856	196.289	82.1971	196.289	82.22	196.289	82.1081	196.289	82.1642	196.289	82.0262	196.289	82.119	196.289	81.9519	196.289	82.0829	196.289	81.8862	196.289	82.0518	196.289	81.8316	196.289	82.0195	196.289	81.7919	196.289	81.981	196.289	81.7712	196.289	81.9347	196.289	81.7721	196.289	81.8833	196.289	81.7943	196.289	81.8338
203.613	82.9947	203.613	82.9605	203.613	82.9945	203.613	82.8941	203.613	82.96	203.613	82.7998	203.613	82.8932	203.613	82.6838	203.613	82.7984	203.613	82.5526	203.613	82.6812	203.613	82.4128	203.613	82.5485	203.613	82.2703	203.613	82.4076	203.613	82.1307	203.613	82.265	203.613	81.9995	203.613	82.1261	203.613	81.8829	203.613	81.9948	203.613	81.7866	203.613	81.8739	203.613	81.7143	203.613	81.7664	203.613	81.6655	203.613	81.676	203.613	81.6354	203.613	81.6069	203.613	81.616	203.613	81.5625	203.613	81.5992	203.613	81.5432	203.613	81.5804	203.613	81.5451	203.613	81.5603
210.938	82.7424	210.938	82.6946	210.938	82.7638	210.938	82.622	210.938	82.7585	210.938	82.5273	210.938	82.7274	210.938	82.4141	210.938	82.6726	210.938	82.2867	210.938	82.5972	210.938	82.1497	210.938	82.5047	210.938	82.0072	210.938	82.3988	210.938	81.8636	210.938	82.2827	210.938	81.7241	210.938	82.1595	210.938	81.5951	210.938	82.032	210.938	81.4842	210.938	81.903	210.938	81.398	210.938	81.7762	210.938	81.3391	210.938	81.6564	210.938	81.3051	210.938	81.549	210.938	81.29	210.938	81.4591	210.938	81.2874	210.938	81.3897	210.938	81.294	210.938	81.3411	210.938	81.3107
218.262	82.377	218.262	82.3543	218.262	82.378	218.262	82.3104	218.262	82.3587	218.262	82.2478	218.262	82.3216	218.262	82.171	218.262	82.2697	218.262	82.0849	218.262	82.2067	218.262	81.994	218.262	82.1363	218.262	81.9017	218.262	82.0628	218.262	81.8099	218.262	81.9903	218.262	81.7207	218.262	81.9221	218.262	81.6374	218.262	81.8599	218.262	81.5652	218.262	81.8035	218.262	81.51	218.262	81.7512	218.262	81.4758	218.262	81.7014	218.262	81.4625	218.262	81.6538	218.262	81.4654	218.262	81.6099	218.262	81.478	218.262	81.5716	218.262	81.4953	218.262	81.5404	218.262	81.5156
225.586	82.6559	225.586	82.6767	225.586	82.5988	225.586	82.6607	225.586	82.5096	225.586	82.611	225.586	82.3948	225.586	82.5346	225.586	82.2625	225.586	82.4402	225.586	82.1207	225.586	82.3364	225.586	81.9761	225.586	82.2291	225.586	81.8347	225.586	82.1206	225.586	81.7014	225.586	82.0103	225.586	81.5811	225.586	81.8975	225.586	81.478	225.586	81.7845	225.586	81.3955	225.586	81.6773	225.586	81.3348	225.586	81.5839	225.586	81.2955	225.586	81.5099	225.586	81.2762	225.586	81.4555	225.586	81.2751	225.586	81.4147	225.586	81.2895	225.586	81.3801	225.586	81.3151	225.586	81.3468
232.91	82.4362	232.91	82.4297	232.91	82.3956	232.91	82.3822	232.91	82.3058	232.91	82.3024	232.91	82.1697	232.91	82.1999	232.91	81.9963	232.91	82.0844	232.91	81.7996	232.91	81.9653	232.91	81.5965	232.91	81.8506	232.91	81.4035	232.91	81.7464	232.91	81.2338	232.91	81.6566	232.91	81.0962	232.91	81.5822	232.91	80.9951	232.91	81.5221	232.91	80.9325	232.91	81.4737	232.91	80.9081	232.91	81.4347	232.91	80.9195	232.91	81.4021	232.91	80.9613	232.91	81.3723	232.91	81.0252	232.91	81.3399	232.91	81.1007	232.91	81.2987	232.91	81.1768	232.91	81.2444
241.699	82.3938	241.699	82.3165	241.699	82.4165	241.699	82.1891	241.699	82.3833	241.699	82.0209	241.699	82.2959	241.699	81.8264	241.699	82.1582	241.699	81.6238	241.699	81.9764	241.699	81.4324	241.699	81.7594	241.699	81.268	241.699	81.5189	241.699	81.1387	241.699	81.2686	241.699	81.0434	241.699	81.0243	241.699	80.9735	241.699	80.8027	241.699	80.9163	241.699	80.6205	241.699	80.8601	241.699	80.4903	241.699	80.7977	241.699	80.4159	241.699	80.728	241.699	80.39	241.699	80.6555	241.699	80.3969	241.699	80.5877	241.699	80.4203	241.699	80.5307	241.699	80.4504	241.699	80.486
250.488	82.3975	250.488	82.3165	250.488	82.422	250.488	82.1828	250.488	82.3883	250.488	82.0025	250.488	82.2964	250.488	81.785	250.488	82.1489	250.488	81.5432	250.488	81.9531	250.488	81.2923	250.488	81.7216	250.488	81.0487	250.488	81.4728	250.488	80.8278	250.488	81.2277	250.488	80.6416	250.488	81.006	250.488	80.4981	250.488	80.8215	250.488	80.4012	250.488	80.6807	250.488	80.351	250.488	80.5839	250.488	80.3435	250.488	80.5267	250.488	80.369	250.488	80.5021	250.488	80.4134	250.488	80.5006	250.488	80.461	250.488	80.5107	250.488	80.4983	250.488	80.5201	250.488	80.5181
259.277	82.5036	259.277	82.4249	259.277	82.5208	259.277	82.286	259.277	82.4773	259.277	82.0903	259.277	82.3764	259.277	81.8444	259.277	82.2243	259.277	81.5593	259.277	82.0307	259.277	81.2522	259.277	81.8077	259.277	80.9475	259.277	81.5677	259.277	80.6751	259.277	81.3222	259.277	80.4651	259.277	81.0818	259.277	80.337	259.277	80.8586	259.277	80.2911	259.277	80.6685	259.277	80.3081	259.277	80.5297	259.277	80.3604	259.277	80.455	259.277	80.4241	259.277	80.4433	259.277	80.4849	259.277	80.4767	259.277	80.536	259.277	80.5271	259.277	80.5713	259.277	80.568	259.277	80.5838
268.066	82.389	268.066	82.2541	268.066	82.4611	268.066	82.0666	268.066	82.4597	268.066	81.8357	268.066	82.3769	268.066	81.5688	268.066	82.2104	268.066	81.2733	268.066	81.9669	268.066	80.9613	268.066	81.6637	268.066	80.6537	268.066	81.3266	268.066	80.3826	268.066	80.9836	268.066	80.1863	268.066	80.6577	268.066	80.0942	268.066	80.3652	268.066	80.1097	268.066	80.1204	268.066	80.2048	268.066	79.9426	268.066	80.3326	268.066	79.8534	268.066	80.4475	268.066	79.8632	268.066	80.5192	268.066	79.9591	268.066	80.5347	268.066	80.1065	268.066	80.4932	268.066	80.2644	268.066	80.3998
276.855	82.2193	276.855	82.1989	276.855	82.2078	276.855	82.1397	276.855	82.1712	276.855	82.0376	276.855	82.1113	276.855	81.8904	276.855	82.0213	276.855	81.6941	276.855	81.8882	276.855	81.4407	276.855	81.7008	276.855	81.1224	276.855	81.4595	276.855	80.7427	276.855	81.1828	276.855	80.3304	276.855	80.9048	276.855	79.9491	276.855	80.6628	276.855	79.6855	276.855	80.4807	276.855	79.6077	276.855	80.363	276.855	79.7175	276.855	80.3027	276.855	79.9466	276.855	80.2934	276.855	80.2002	276.855	80.331	276.855	80.4024	276.855	80.4037	276.855	80.5146	276.855	80.4844	276.855	80.5341
287.109	82.305	287.109	82.2921	287.109	82.2676	287.109	82.2282	287.109	82.1829	287.109	82.1164	287.109	82.0554	287.109	81.9646	287.109	81.8905	287.109	81.782	287.109	81.6938	287.109	81.5749	287.109	81.4687	287.109	81.3425	287.109	81.2147	287.109	81.0787	287.109	80.9283	287.109	80.783	287.109	80.6101	287.109	80.4742	287.109	80.2739	287.109	80.1975	287.109	79.9528	287.109	80.0119	287.109	79.6941	287.109	79.9555	287.109	79.5427	287.109	80.0133	287.109	79.5195	287.109	80.1213	287.109	79.6115	287.109	80.2041	287.109	79.7784	287.109	80.21	287.109	79.967	287.109	80.1246
297.363	82.7448	297.363	82.7121	297.363	82.6786	297.363	82.5851	297.363	82.5168	297.363	82.372	297.363	82.2724	297.363	82.0825	297.363	81.9649	297.363	81.7315	297.363	81.6137	297.363	81.3476	297.363	81.2337	297.363	80.9782	297.363	80.8375	297.363	80.6769	297.363	80.4448	297.363	80.4742	297.363	80.0872	297.363	80.3547	297.363	79.8014	297.363	80.2681	297.363	79.6094	297.363	80.166	297.363	79.5033	297.363	80.0296	297.363	79.4519	297.363	79.8716	297.363	79.4235	297.363	79.7185	297.363	79.4033	297.363	79.591	297.363	79.393	297.363	79.4965	297.363	79.401	297.363	79.4341
307.617	82.7343	307.617	82.6632	307.617	82.7316	307.617	82.5206	307.617	82.653	307.617	82.3103	307.617	82.498	307.617	82.0381	307.617	82.2727	307.617	81.7083	307.617	81.9939	307.617	81.3197	307.617	81.6874	307.617	80.8682	307.617	81.3765	307.617	80.3625	307.617	81.0694	307.617	79.8464	307.617	80.7575	307.617	79.4087	307.617	80.4317	307.617	79.1532	307.617	80.1024	307.617	79.1311	307.617	79.808	307.617	79.2968	307.617	79.5989	307.617	79.5435	307.617	79.5084	307.617	79.7692	307.617	79.5338	307.617	79.9124	307.617	79.6407	307.617	79.9521	307.617	79.7791	307.617	79.8976
319.336	82.2907	319.336	82.1276	319.336	82.3657	319.336	81.891	319.336	82.3458	319.336	81.6016	319.336	82.2318	319.336	81.2801	319.336	82.0299	319.336	80.9408	319.336	81.7513	319.336	80.5884	319.336	81.4132	319.336	80.2206	319.336	81.0412	319.336	79.8372	319.336	80.6689	319.336	79.4537	319.336	80.334	319.336	79.1114	319.336	80.0699	319.336	78.8709	319.336	79.898	319.336	78.7841	319.336	79.8216	319.336	78.86	319.336	79.8226	319.336	79.0564	319.336	79.8665	319.336	79.305	319.336	79.9156	319.336	79.5431	319.336	79.941	319.336	79.7322	319.336	79.9256	319.336	79.8589
329.59	82.0197	329.59	81.983	329.59	82.0257	329.59	81.9164	329.59	81.992	329.59	81.815	329.59	81.9042	329.59	81.672	329.59	81.7495	329.59	81.4802	329.59	81.5226	329.59	81.2296	329.59	81.2278	329.59	80.9063	329.59	80.8762	329.59	80.4979	329.59	80.4835	329.59	80.009	329.59	80.0718	329.59	79.4786	329.59	79.6731	329.59	78.9891	329.59	79.3315	329.59	78.6432	329.59	79.0955	329.59	78.5081	329.59	78.9983	329.59	78.571	329.59	79.0351	329.59	78.7587	329.59	79.1558	329.59	78.9875	329.59	79.2846	329.59	79.1911	329.59	79.3526	329.59	79.3219
341.309	82.2847	341.309	82.2855	341.309	82.2032	341.309	82.2048	341.309	82.0435	341.309	82.0441	341.309	81.8091	341.309	81.8092	341.309	81.5045	341.309	81.5124	341.309	81.1366	341.309	81.1728	341.309	80.7189	341.309	80.8103	341.309	80.2743	341.309	80.4386	341.309	79.8355	341.309	80.0643	341.309	79.4422	341.309	79.6969	341.309	79.1361	341.309	79.3611	341.309	78.9557	341.309	79.0958	341.309	78.9241	341.309	78.9344	341.309	79.0287	341.309	78.8847	341.309	79.2113	341.309	78.9288	341.309	79.3861	341.309	79.0402	341.309	79.4791	341.309	79.1921	341.309	79.4604	341.309	79.3487
353.027	82.3032	353.027	82.2244	353.027	82.2883	353.027	82.0589	353.027	82.1826	353.027	81.8179	353.027	81.9995	353.027	81.5126	353.027	81.7565	353.027	81.1544	353.027	81.4653	353.027	80.7609	353.027	81.1241	353.027	80.3584	353.027	80.7182	353.027	79.9765	353.027	80.229	353.027	79.6348	353.027	79.6477	353.027	79.3391	353.027	78.991	353.027	79.0955	353.027	78.3166	353.027	78.927	353.027	77.7316	353.027	78.8624	353.027	77.371	353.027	78.897	353.027	77.325	353.027	78.9721	353.027	77.564	353.027	79.003	353.027	77.9592	353.027	78.9244	353.027	78.3725	353.027	78.7103
366.211	82.2074	366.211	82.0926	366.211	82.2405	366.211	81.8852	366.211	82.2039	366.211	81.5869	366.211	82.102	366.211	81.2156	366.211	81.9342	366.211	80.797	366.211	81.7062	366.211	80.3511	366.211	81.4367	366.211	79.8902	366.211	81.1493	366.211	79.4359	366.211	80.8526	366.211	79.0394	366.211	80.5264	366.211	78.7695	366.211	80.1343	366.211	78.6597	366.211	79.6548	366.211	78.6694	366.211	79.1137	366.211	78.7167	366.211	78.594	366.211	78.7413	366.211	78.2078	366.211	78.7267	366.211	78.0347	366.211	78.6752	366.211	78.0697	366.211	78.5784	366.211	78.233	366.211	78.425
379.395	82.2185	379.395	82.2001	379.395	82.1829	379.395	82.117	379.395	82.1038	379.395	81.9595	379.395	81.9878	379.395	81.721	379.395	81.8296	379.395	81.4011	379.395	81.6103	379.395	81.0034	379.395	81.3098	379.395	80.5272	379.395	80.9275	379.395	79.962	379.395	80.4966	379.395	79.3032	379.395	80.0774	379.395	78.5966	379.395	79.7264	379.395	77.9874	379.395	79.4655	379.395	77.6839	379.395	79.2853	379.395	77.7685	379.395	79.175	379.395	78.0918	379.395	79.1328	379.395	78.4441	379.395	79.1451	379.395	78.7235	379.395	79.169	379.395	78.9265	379.395	79.1526	379.395	79.0703
392.578	81.8475	392.578	81.79	392.578	81.8283	392.578	81.6756	392.578	81.7193	392.578	81.5235	392.578	81.5228	392.578	81.3487	392.578	81.2627	392.578	81.1593	392.578	80.9774	392.578	80.9547	392.578	80.696	392.578	80.7228	392.578	80.4157	392.578	80.4385	392.578	80.1075	392.578	80.0641	392.578	79.7501	392.578	79.561	392.578	79.361	392.578	78.917	392.578	78.9928	392.578	78.1876	392.578	78.693	392.578	77.5259	392.578	78.4642	392.578	77.1363	392.578	78.2732	392.578	77.1109	392.578	78.0998	392.578	77.3262	392.578	77.9571	392.578	77.5762	392.578	77.8532	392.578	77.7481
405.762	81.3598	405.762	81.1585	405.762	81.4507	405.762	80.8804	405.762	81.4035	405.762	80.5661	405.762	81.2048	405.762	80.2666	405.762	80.8661	405.762	80.0394	405.762	80.4295	405.762	79.9306	405.762	79.9606	405.762	79.9529	405.762	79.5302	405.762	80.0733	405.762	79.1893	405.762	80.2215	405.762	78.9509	405.762	80.3136	405.762	78.7926	405.762	80.2778	405.762	78.6761	405.762	80.0747	405.762	78.5697	405.762	79.7125	405.762	78.4568	405.762	79.2537	405.762	78.3359	405.762	78.7984	405.762	78.2177	405.762	78.4371	405.762	78.1225	405.762	78.2068	405.762	78.0745	405.762	78.0951
420.41	82.2463	420.41	82.0999	420.41	82.2366	420.41	81.7747	420.41	82.0911	420.41	81.2625	420.41	81.817	420.41	80.584	420.41	81.4154	420.41	79.8055	420.41	80.9073	420.41	79.0568	420.41	80.3593	420.41	78.5231	420.41	79.8806	420.41	78.3631	420.41	79.5659	420.41	78.597	420.41	79.4208	420.41	79.0947	420.41	79.3648	420.41	79.6719	420.41	79.3177	420.41	80.1745	420.41	79.2674	420.41	80.5117	420.41	79.2651	420.41	80.6589	420.41	79.3662	420.41	80.6503	420.41	79.5743	420.41	80.5523	420.41	79.8347	420.41	80.4214	420.41	80.0782	420.41	80.2703
435.059	84.0826	435.059	84.0052	435.059	84.0045	435.059	83.7565	435.059	83.7862	435.059	83.3095	435.059	83.4444	435.059	82.6228	435.059	82.9818	435.059	81.6572	435.059	82.3713	435.059	80.4101	435.059	81.5649	435.059	78.9675	435.059	80.5445	435.059	77.5887	435.059	79.4167	435.059	76.7596	435.059	78.5076	435.059	76.9075	435.059	78.2339	435.059	77.8947	435.059	78.6595	435.059	79.2107	435.059	79.4566	435.059	80.4529	435.059	80.3235	435.059	81.4197	435.059	81.1165	435.059	82.0545	435.059	81.7649	435.059	82.4018	435.059	82.2237	435.059	82.5535	435.059	82.4839	435.059	82.5795
451.172	84.0175	451.172	83.8286	451.172	84.0641	451.172	83.4944	451.172	83.9749	451.172	83.0397	451.172	83.7405	451.172	82.5122	451.172	83.3424	451.172	81.9385	451.172	82.7738	451.172	81.282	451.172	82.051	451.172	80.4589	451.172	81.2014	451.172	79.4212	451.172	80.2465	451.172	78.2733	451.172	79.2196	451.172	77.3423	451.172	78.2446	451.172	77.0131	451.172	77.616	451.172	77.3542	451.172	77.6399	451.172	78.1071	451.172	78.2499	451.172	78.9847	451.172	79.0698	451.172	79.7838	451.172	79.8084	451.172	80.3828	451.172	80.359	451.172	80.7331	451.172	80.7033	451.172	80.8338
465.82	83.8146	465.82	83.7813	465.82	83.7797	465.82	83.663	465.82	83.6824	465.82	83.4263	465.82	83.5147	465.82	83.0226	465.82	83.2474	465.82	82.4088	465.82	82.8305	465.82	81.5709	465.82	82.2071	465.82	80.5287	465.82	81.3388	465.82	79.3299	465.82	80.2399	465.82	78.0963	465.82	79.03	465.82	77.1597	465.82	77.9838	465.82	77.0164	465.82	77.4433	465.82	77.7202	465.82	77.5363	465.82	78.7296	465.82	78.098	465.82	79.588	465.82	78.8904	465.82	80.1699	465.82	79.708	465.82	80.5375	465.82	80.3737	465.82	80.7747	465.82	80.7701	465.82	80.8798
483.398	83.5181	483.398	83.3914	483.398	83.5935	483.398	83.2049	483.398	83.5939	483.398	82.9293	483.398	83.4794	483.398	82.5425	483.398	83.2209	483.398	82.0427	483.398	82.8128	483.398	81.4354	483.398	82.2603	483.398	80.7122	483.398	81.5529	483.398	79.8505	483.398	80.648	483.398	78.8451	483.398	79.4935	483.398	77.7705	483.398	78.1126	483.398	76.8767	483.398	76.7742	483.398	76.6059	483.398	76.1047	483.398	77.197	483.398	76.5138	483.398	78.2923	483.398	77.539	483.398	79.3571	483.398	78.5717	483.398	80.0901	483.398	79.3892	483.398	80.4064	483.398	79.9807	483.398	80.3414
499.512	83.8968	499.512	83.6791	499.512	84.0008	499.512	83.3853	499.512	83.9651	499.512	83.0275	499.512	83.7947	499.512	82.57	499.512	83.5102	499.512	81.9491	499.512	83.1162	499.512	81.1171	499.512	82.5872	499.512	80.078	499.512	81.8839	499.512	78.9109	499.512	80.9806	499.512	77.8064	499.512	79.8827	499.512	77.0768	499.512	78.6566	499.512	76.9834	499.512	77.5237	499.512	77.4853	499.512	76.9214	499.512	78.3189	499.512	77.1505	499.512	79.2308	499.512	77.9518	499.512	80.0344	499.512	78.8831	499.512	80.5928	499.512	79.7069	499.512	80.8275	499.512	80.338	499.512	80.729
517.09	83.2616	517.09	83.2238	517.09	83.2527	517.09	83.0977	517.09	83.2226	517.09	82.8701	517.09	83.1488	517.09	82.5523	517.09	82.9811	517.09	82.1288	517.09	82.6814	517.09	81.5201	517.09	82.2351	517.09	80.5945	517.09	81.6269	517.09	79.2245	517.09	80.8272	517.09	77.3962	517.09	79.8151	517.09	75.4742	517.09	78.6333	517.09	74.5091	517.09	77.4707	517.09	75.1696	517.09	76.7401	517.09	76.5715	517.09	76.8743	517.09	77.8924	517.09	77.7771	517.09	78.9466	517.09	78.9119	517.09	79.7537	517.09	79.8535	517.09	80.3068	517.09	80.4127	517.09	80.5498
536.133	83.679	536.133	83.5627	536.133	83.6308	536.133	83.2782	536.133	83.453	536.133	82.8615	536.133	83.1858	536.133	82.3706	536.133	82.8451	536.133	81.8509	536.133	82.4093	536.133	81.3061	536.133	81.828	536.133	80.6851	536.133	81.0389	536.133	79.892	536.133	79.9872	536.133	78.8131	536.133	78.6565	536.133	77.392	536.133	77.1301	536.133	75.8999	536.133	75.7025	536.133	75.3418	536.133	74.9556	536.133	76.2935	536.133	75.3729	536.133	77.6702	536.133	76.6531	536.133	78.6572	536.133	78.0539	536.133	79.205	536.133	79.0781	536.133	79.5018	536.133	79.579	536.133	79.6559
555.176	83.382	555.176	83.4015	555.176	83.4335	555.176	83.4064	555.176	83.5581	555.176	83.2745	555.176	83.6798	555.176	82.9082	555.176	83.6964	555.176	82.2698	555.176	83.5315	555.176	81.3742	555.176	83.1522	555.176	80.2454	555.176	82.5508	555.176	78.8658	555.176	81.7106	555.176	77.1845	555.176	80.5836	555.176	75.2945	555.176	79.1102	555.176	73.8257	555.176	77.3297	555.176	73.8047	555.176	75.6503	555.176	75.1	555.176	74.9524	555.176	76.6884	555.176	75.5369	555.176	77.9886	555.176	76.6593	555.176	78.8191	555.176	77.7255	555.176	79.1553	555.176	78.5418	555.176	79.04
574.219	83.4738	574.219	83.2374	574.219	83.6094	574.219	82.9922	574.219	83.5562	574.219	82.7569	574.219	83.3072	574.219	82.4847	574.219	82.9422	574.219	82.1216	574.219	82.5554	574.219	81.6127	574.219	82.1629	574.219	80.864	574.219	81.6835	574.219	79.7417	574.219	81.0043	574.219	78.155	574.219	80.0627	574.219	76.2522	574.219	78.9067	574.219	74.6501	574.219	77.7303	574.219	74.0611	574.219	76.8349	574.219	74.4967	574.219	76.446	574.219	75.6525	574.219	76.5677	574.219	77.1399	574.219	77.0915	574.219	78.4296	574.219	77.8744	574.219	79.1482	574.219	78.6785	574.219	79.1922
594.727	83.0335	594.727	83.0278	594.727	82.9592	594.727	82.9195	594.727	82.8639	594.727	82.7102	594.727	82.7882	594.727	82.3994	594.727	82.6848	594.727	81.9751	594.727	82.433	594.727	81.3959	594.727	81.9337	594.727	80.5741	594.727	81.1868	594.727	79.4054	594.727	80.2626	594.727	77.8469	594.727	79.1875	594.727	76.0531	594.727	77.8892	594.727	74.6121	594.727	76.3174	594.727	74.432	594.727	74.809	594.727	75.5435	594.727	74.4834	594.727	77.0312	594.727	75.787	594.727	78.2347	594.727	77.4376	594.727	78.9561	594.727	78.5805	594.727	79.2677	594.727	79.1438	594.727	79.3208
615.234	82.6439	615.234	82.5933	615.234	82.634	615.234	82.5168	615.234	82.5469	615.234	82.4132	615.234	82.3888	615.234	82.2222	615.234	82.1589	615.234	81.8707	615.234	81.8478	615.234	81.3284	615.234	81.4441	615.234	80.6114	615.234	80.8888	615.234	79.7191	615.234	80.0283	615.234	78.5421	615.234	78.6731	615.234	76.8396	615.234	76.7552	615.234	74.4542	615.234	74.595	615.234	72.2829	615.234	73.3799	615.234	72.7865	615.234	74.0739	615.234	74.9067	615.234	75.5916	615.234	76.6034	615.234	76.9896	615.234	77.6758	615.234	78.0445	615.234	78.364	615.234	78.6471	615.234	78.7296
637.207	82.2919	637.207	82.193	637.207	82.3514	637.207	82.0742	637.207	82.314	637.207	81.8875	637.207	82.1579	637.207	81.5801	637.207	81.9264	637.207	81.1627	637.207	81.6773	637.207	80.6617	637.207	81.404	637.207	79.9936	637.207	81.0258	637.207	78.9471	637.207	80.4464	637.207	77.3389	637.207	79.5911	637.207	75.2745	637.207	78.407	637.207	73.4813	637.207	76.8659	637.207	72.9023	637.207	75.1031	637.207	73.4932	637.207	73.8241	637.207	74.7791	637.207	74.1167	637.207	76.2391	637.207	75.6192	637.207	77.3527	637.207	77.0448	637.207	77.9507	637.207	77.8592	637.207	78.1137
659.18	82.1514	659.18	82.0195	659.18	82.1322	659.18	81.7777	659.18	81.9933	659.18	81.499	659.18	81.7993	659.18	81.2133	659.18	81.5723	659.18	80.874	659.18	81.2767	659.18	80.3925	659.18	80.8597	659.18	79.6966	659.18	80.2661	659.18	78.7384	659.18	79.4186	659.18	77.4402	659.18	78.2219	659.18	75.6957	659.18	76.6077	659.18	73.7008	659.18	74.6383	659.18	72.782	659.18	72.9123	659.18	74.0548	659.18	72.837	659.18	75.9805	659.18	74.3014	659.18	77.3867	659.18	75.8136	659.18	78.1158	659.18	76.8815	659.18	78.2931	659.18	77.6013	659.18	78.08
682.617	81.861	682.617	81.826	682.617	81.9127	682.617	81.8072	682.617	81.9061	682.617	81.7188	682.617	81.7832	682.617	81.4896	682.617	81.5568	682.617	81.1195	682.617	81.277	682.617	80.5885	682.617	80.9406	682.617	79.7411	682.617	80.4347	682.617	78.3244	682.617	79.5717	682.617	76.157	682.617	78.1642	682.617	73.4405	682.617	76.0829	682.617	71.4114	682.617	73.4843	682.617	71.5115	682.617	71.6543	682.617	73.0462	682.617	72.2738	682.617	74.9334	682.617	74.1283	682.617	76.5424	682.617	75.8675	682.617	77.583	682.617	77.1313	682.617	78.0682	682.617	77.8587	682.617	78.1398
707.52	80.9272	707.52	80.8712	707.52	80.8259	707.52	80.8565	707.52	80.6558	707.52	81.0057	707.52	80.7431	707.52	81.1896	707.52	81.1351	707.52	81.223	707.52	81.4742	707.52	80.9918	707.52	81.463	707.52	80.372	707.52	81.0664	707.52	79.1684	707.52	80.2799	707.52	77.1036	707.52	78.8678	707.52	73.8308	707.52	76.3575	707.52	70.1603	707.52	72.0651	707.52	71.0329	707.52	66.2043	707.52	74.0758	707.52	70.0324	707.52	76.2608	707.52	74.9953	707.52	77.7098	707.52	77.6784	707.52	78.653	707.52	78.9612	707.52	79.1957	707.52	79.425	707.52	79.4444
732.422	81.1567	732.422	81.005	732.422	81.1929	732.422	80.6887	732.422	81.1212	732.422	80.3065	732.422	80.8785	732.422	80.0804	732.422	80.5248	732.422	80.1115	732.422	80.3331	732.422	80.3087	732.422	80.508	732.422	80.4688	732.422	80.85	732.422	80.2903	732.422	80.9637	732.422	79.369	732.422	80.5917	732.422	77.2045	732.422	79.552	732.422	72.9597	732.422	77.4747	732.422	63.0042	732.422	73.5521	732.422	66.53	732.422	66.475	732.422	74.2464	732.422	68.3791	732.422	77.6942	732.422	74.0728	732.422	79.3391	732.422	77.2197	732.422	79.9407	732.422	78.9841	732.422	79.8196
757.324	82.3322	757.324	82.0081	757.324	82.3397	757.324	81.5215	757.324	82.0697	757.324	81.1414	757.324	81.6461	757.324	81.0015	757.324	81.2091	757.324	81.0442	757.324	80.9376	757.324	81.1609	757.324	80.9465	757.324	81.1723	757.324	81.1052	757.324	80.7866	757.324	81.1118	757.324	79.6768	757.324	80.6629	757.324	77.4319	757.324	79.4816	757.324	73.3605	757.324	77.2463	757.324	66.3861	757.324	73.4968	757.324	67.5316	757.324	68.7927	757.324	73.5337	757.324	70.73	757.324	77.0892	757.324	74.9272	757.324	79.1429	757.324	77.5997	757.324	80.0461	757.324	79.1952	757.324	80.0099
785.156	83.3318	785.156	82.9373	785.156	83.3798	785.156	82.3821	785.156	82.9567	785.156	81.7666	785.156	82.2629	785.156	81.2443	785.156	81.7409	785.156	80.9868	785.156	81.5978	785.156	80.9732	785.156	81.6916	785.156	81.0015	785.156	81.853	785.156	80.8763	785.156	81.8759	785.156	80.3825	785.156	81.451	785.156	79.0362	785.156	80.3058	785.156	75.9677	785.156	78.2391	785.156	69.2754	785.156	74.8536	785.156	66.392	785.156	69.0004	785.156	73.9433	785.156	67.9237	785.156	77.2444	785.156	74.6618	785.156	78.742	785.156	78.1919	785.156	79.489	785.156	79.6533	785.156	79.8753
811.523	84.3454	811.523	84.1547	811.523	84.1434	811.523	83.4722	811.523	83.6903	811.523	82.4071	811.523	83.045	811.523	81.3282	811.523	82.2671	811.523	80.758	811.523	81.6116	811.523	81.0416	811.523	81.4215	811.523	81.8426	811.523	81.6818	811.523	82.3384	811.523	82.0343	811.523	81.9222	811.523	82.0794	811.523	80.3099	811.523	81.4448	811.523	77.2295	811.523	79.7661	811.523	71.6465	811.523	76.4653	811.523	62.738	811.523	70.345	811.523	72.4485	811.523	69.4014	811.523	77.6757	811.523	75.1767	811.523	80.3693	811.523	78.3983	811.523	81.5145	811.523	80.3529	811.523	81.4364
840.82	85.037	840.82	84.7625	840.82	85.1443	840.82	84.362	840.82	84.85	840.82	83.5911	840.82	84.1015	840.82	82.3228	840.82	83.0945	840.82	80.9276	840.82	82.0421	840.82	80.0565	840.82	81.1701	840.82	79.8409	840.82	80.8876	840.82	79.9736	840.82	81.2762	840.82	80.0662	840.82	81.7028	840.82	79.5408	840.82	81.516	840.82	77.6565	840.82	80.3323	840.82	73.2006	840.82	77.5727	840.82	62.8773	840.82	71.6428	840.82	71.2599	840.82	64.4173	840.82	76.3775	840.82	73.3564	840.82	78.5428	840.82	77.7015	840.82	79.647	840.82	79.6985	840.82	80.1512
870.117	85.8902	870.117	85.6926	870.117	85.5717	870.117	84.9017	870.117	84.984	870.117	83.7092	870.117	84.2402	870.117	82.447	870.117	83.2598	870.117	81.4039	870.117	82.1809	870.117	80.8795	870.117	81.5504	870.117	81.0948	870.117	81.5718	870.117	81.4623	870.117	81.6668	870.117	81.1605	870.117	81.3299	870.117	79.8466	870.117	80.4507	870.117	77.1254	870.117	78.8801	870.117	71.982	870.117	76.2026	870.117	61.4266	870.117	71.8184	870.117	70.0367	870.117	68.4414	870.117	76.1978	870.117	73.746	870.117	79.2745	870.117	77.8211	870.117	80.5811	870.117	79.8665	870.117	80.6905
900.879	85.9401	900.879	85.7356	900.879	85.9311	900.879	85.4163	900.879	85.5463	900.879	84.7843	900.879	84.8139	900.879	83.6112	900.879	83.8375	900.879	82.0928	900.879	82.6288	900.879	80.8323	900.879	81.3467	900.879	80.1816	900.879	80.6551	900.879	80.0054	900.879	80.9246	900.879	79.998	900.879	81.5549	900.879	79.5944	900.879	81.5429	900.879	78.0351	900.879	80.1476	900.879	74.4171	900.879	77.0161	900.879	65.5369	900.879	70.8972	900.879	67.5874	900.879	63.5149	900.879	75.7406	900.879	73.7088	900.879	79.0914	900.879	77.4599	900.879	80.2378	900.879	79.0965	900.879	80.0301
933.105	86.3573	933.105	86.1311	933.105	86.2016	933.105	85.3794	933.105	85.7423	933.105	84.2343	933.105	84.851	933.105	82.9737	933.105	83.4292	933.105	81.5586	933.105	81.8193	933.105	80.0489	933.105	80.7017	933.105	79.5131	933.105	80.2526	933.105	80.1525	933.105	80.1068	933.105	80.6867	933.105	80.0223	933.105	80.1907	933.105	79.9763	933.105	78.2951	933.105	79.6722	933.105	74.792	933.105	77.7709	933.105	68.0742	933.105	72.2592	933.105	67.1145	933.105	59.8779	933.105	74.6849	933.105	71.4187	933.105	77.9435	933.105	76.9531	933.105	79.4374	933.105	79.4817	933.105	80.0536
965.332	86.1171	965.332	85.9678	965.332	85.9935	965.332	85.7113	965.332	85.4013	965.332	85.0498	965.332	84.5577	965.332	83.7078	965.332	83.6199	965.332	82.0174	965.332	82.1642	965.332	80.5473	965.332	79.9152	965.332	79.4176	965.332	78.3371	965.332	78.8319	965.332	78.7419	965.332	79.1073	965.332	79.8128	965.332	79.4839	965.332	80.1122	965.332	78.7606	965.332	79.0118	965.332	75.6958	965.332	76.7285	965.332	67.2439	965.332	72.8305	965.332	63.0212	965.332	61.3296	965.332	72.3828	965.332	70.3478	965.332	76.2094	965.332	76.0549	965.332	78.4929	965.332	78.4287	965.332	79.2446
1,000.49	85.9773	1,000.49	85.7817	1,000.49	85.8282	1,000.49	85.1674	1,000.49	85.5615	1,000.49	84.3781	1,000.49	84.9393	1,000.49	83.4146	1,000.49	83.5594	1,000.49	81.923	1,000.49	81.7264	1,000.49	79.8752	1,000.49	80.2935	1,000.49	78.4875	1,000.49	79.1786	1,000.49	78.7599	1,000.49	77.9703	1,000.49	79.3681	1,000.49	77.6995	1,000.49	78.9397	1,000.49	78.151	1,000.49	77.0899	1,000.49	77.6757	1,000.49	74.2716	1,000.49	75.5545	1,000.49	70.4767	1,000.49	71.304	1,000.49	67.879	1,000.49	62.941	1,000.49	73.683	1,000.49	68.0903	1,000.49	76.9536	1,000.49	74.727	1,000.49	78.2257	1,000.49	77.6752	1,000.49	78.5453
1,035.64	85.5538	1,035.64	85.55	1,035.64	85.4967	1,035.64	85.3567	1,035.64	85.1347	1,035.64	84.5905	1,035.64	84.4415	1,035.64	83.2645	1,035.64	83.567	1,035.64	81.8055	1,035.64	82.1648	1,035.64	80.5098	1,035.64	79.7111	1,035.64	79.2284	1,035.64	77.2449	1,035.64	77.9992	1,035.64	77.0745	1,035.64	77.4818	1,035.64	77.9941	1,035.64	77.4479	1,035.64	78.2349	1,035.64	76.4039	1,035.64	77.5693	1,035.64	72.542	1,035.64	76.0926	1,035.64	65.1187	1,035.64	72.6212	1,035.64	67.5559	1,035.64	59.4345	1,035.64	72.3039	1,035.64	68.3964	1,035.64	75.8274	1,035.64	74.2651	1,035.64	77.7575	1,035.64	76.6348	1,035.64	77.8632
1,072.27	85.2152	1,072.27	85.0784	1,072.27	85.2756	1,072.27	84.6614	1,072.27	85.1375	1,072.27	83.8662	1,072.27	84.4828	1,072.27	82.9145	1,072.27	83.4201	1,072.27	81.7566	1,072.27	82.3154	1,072.27	79.8839	1,072.27	80.747	1,072.27	77.5192	1,072.27	77.8931	1,072.27	76.4214	1,072.27	74.7314	1,072.27	76.3841	1,072.27	74.939	1,072.27	76.1131	1,072.27	76.4404	1,072.27	75.1791	1,072.27	75.8024	1,072.27	71.676	1,072.27	73.1138	1,072.27	59.0066	1,072.27	69.5165	1,072.27	69.5176	1,072.27	57.9834	1,072.27	75.0905	1,072.27	69.2519	1,072.27	77.8504	1,072.27	75.7173	1,072.27	78.9655	1,072.27	77.9249	1,072.27	78.8464
1,108.89	85.2048	1,108.89	84.9909	1,108.89	84.9926	1,108.89	84.4948	1,108.89	84.4064	1,108.89	83.8373	1,108.89	83.7898	1,108.89	82.9802	1,108.89	83.0852	1,108.89	81.6464	1,108.89	81.7614	1,108.89	79.9241	1,108.89	80.0591	1,108.89	78.5653	1,108.89	78.9564	1,108.89	78.1595	1,108.89	78.3385	1,108.89	78.3592	1,108.89	77.6001	1,108.89	78.4137	1,108.89	77.1812	1,108.89	77.638	1,108.89	77.2545	1,108.89	75.0233	1,108.89	76.4192	1,108.89	68.3972	1,108.89	72.3965	1,108.89	65.8763	1,108.89	62.3941	1,108.89	72.7885	1,108.89	67.1172	1,108.89	75.4613	1,108.89	73.5665	1,108.89	76.9125	1,108.89	77.0741	1,108.89	77.867
1,148.44	84.7911	1,148.44	84.6619	1,148.44	84.8964	1,148.44	84.3333	1,148.44	84.6659	1,148.44	83.5137	1,148.44	84.1457	1,148.44	82.6028	1,148.44	83.3132	1,148.44	81.3997	1,148.44	81.9293	1,148.44	78.9668	1,148.44	80.1052	1,148.44	76.2772	1,148.44	77.8301	1,148.44	76.3384	1,148.44	75.3717	1,148.44	77.5443	1,148.44	75.7835	1,148.44	77.8343	1,148.44	77.7114	1,148.44	77.0837	1,148.44	78.0857	1,148.44	75.0832	1,148.44	76.9625	1,148.44	69.3286	1,148.44	74.8667	1,148.44	58.8066	1,148.44	70.2167	1,148.44	71.1148	1,148.44	61.0078	1,148.44	74.4745	1,148.44	71.1751	1,148.44	76.676	1,148.44	75.3085	1,148.44	77.0934
1,189.45	84.5479	1,189.45	84.2304	1,189.45	84.3843	1,189.45	83.6329	1,189.45	84.0185	1,189.45	83.0166	1,189.45	83.8072	1,189.45	82.1607	1,189.45	83.5185	1,189.45	80.8209	1,189.45	82.4335	1,189.45	78.8777	1,189.45	80.5186	1,189.45	75.9094	1,189.45	78.4798	1,189.45	72.8419	1,189.45	75.5631	1,189.45	73.0411	1,189.45	72.3171	1,189.45	75.0133	1,189.45	73.6091	1,189.45	76.2388	1,189.45	75.8271	1,189.45	75.4501	1,189.45	75.7279	1,189.45	71.6824	1,189.45	73.6829	1,189.45	57.3078	1,189.45	68.6869	1,189.45	68.6423	1,189.45	53.2395	1,189.45	74.5468	1,189.45	70.6987	1,189.45	76.5273	1,189.45	74.8735	1,189.45	76.6556
1,230.47	84.799	1,230.47	84.4546	1,230.47	84.6161	1,230.47	83.8088	1,230.47	84.4484	1,230.47	83.4672	1,230.47	84.0311	1,230.47	82.6505	1,230.47	82.9461	1,230.47	81.1008	1,230.47	81.6962	1,230.47	79.5473	1,230.47	80.7199	1,230.47	77.3198	1,230.47	78.9449	1,230.47	74.0029	1,230.47	76.3878	1,230.47	73.207	1,230.47	75.6283	1,230.47	75.0651	1,230.47	75.7382	1,230.47	74.5396	1,230.47	75.0595	1,230.47	72.3485	1,230.47	74.8106	1,230.47	68.3053	1,230.47	72.8348	1,230.47	55.5994	1,230.47	66.1433	1,230.47	67.0358	1,230.47	49.8256	1,230.47	71.8048	1,230.47	68.3994	1,230.47	74.5352	1,230.47	72.6068	1,230.47	74.6203
1,274.41	84.9044	1,274.41	84.8288	1,274.41	84.8317	1,274.41	84.2885	1,274.41	84.4405	1,274.41	83.6067	1,274.41	83.6993	1,274.41	82.8907	1,274.41	83.2786	1,274.41	81.5411	1,274.41	82.5134	1,274.41	79.7879	1,274.41	80.5071	1,274.41	77.4535	1,274.41	78.3878	1,274.41	74.4108	1,274.41	76.4971	1,274.41	73.5054	1,274.41	73.6596	1,274.41	74.5274	1,274.41	73.866	1,274.41	74.4212	1,274.41	75.4825	1,274.41	73.2273	1,274.41	74.7507	1,274.41	70.6509	1,274.41	72.2048	1,274.41	60.4329	1,274.41	66.7691	1,274.41	67.6504	1,274.41	61.8664	1,274.41	73.8417	1,274.41	70.103	1,274.41	75.1037	1,274.41	74.1512	1,274.41	75.3757
1,319.82	85.3914	1,319.82	85.4372	1,319.82	85.38	1,319.82	84.8888	1,319.82	85.0856	1,319.82	83.9951	1,319.82	84.335	1,319.82	83.2914	1,319.82	83.5764	1,319.82	82.1733	1,319.82	82.7152	1,319.82	80.1997	1,319.82	81.3117	1,319.82	78.1445	1,319.82	78.8789	1,319.82	76.0835	1,319.82	75.7984	1,319.82	74.5811	1,319.82	74.0473	1,319.82	74.2054	1,319.82	73.5353	1,319.82	74.6517	1,319.82	74.2354	1,319.82	75.6608	1,319.82	74.2589	1,319.82	72.3741	1,319.82	70.791	1,319.82	60.8796	1,319.82	59.2728	1,319.82	68.9396	1,319.82	63.3018	1,319.82	72.8409	1,319.82	71.4285	1,319.82	76.2427	1,319.82	75.9163	1,319.82	76.8307
1,366.7	85.9791	1,366.7	85.6711	1,366.7	85.5872	1,366.7	85.1948	1,366.7	85.2149	1,366.7	84.5267	1,366.7	84.8827	1,366.7	83.4453	1,366.7	84.0107	1,366.7	82.5131	1,366.7	82.8583	1,366.7	81.2162	1,366.7	81.2666	1,366.7	79.1702	1,366.7	79.3687	1,366.7	76.6109	1,366.7	77.0759	1,366.7	73.3387	1,366.7	74.7124	1,366.7	74.536	1,366.7	74.4176	1,366.7	75.8129	1,366.7	75.4619	1,366.7	76.7438	1,366.7	76.3019	1,366.7	74.5823	1,366.7	75.1901	1,366.7	68.4737	1,366.7	69.0931	1,366.7	58.1936	1,366.7	59.3767	1,366.7	69.751	1,366.7	69.5796	1,366.7	75.6774	1,366.7	73.4585	1,366.7	76.0945
1,413.57	86.0015	1,413.57	85.8042	1,413.57	86.0098	1,413.57	85.3933	1,413.57	85.3137	1,413.57	84.5898	1,413.57	84.146	1,413.57	83.6851	1,413.57	82.6854	1,413.57	82.281	1,413.57	81.344	1,413.57	80.4737	1,413.57	80.4305	1,413.57	78.8577	1,413.57	78.2936	1,413.57	76.4645	1,413.57	74.4251	1,413.57	72.621	1,413.57	71.0489	1,413.57	72.3892	1,413.57	69.7795	1,413.57	73.4093	1,413.57	71.6922	1,413.57	72.2545	1,413.57	72.1687	1,413.57	68.5446	1,413.57	70.6898	1,413.57	56.8776	1,413.57	65.4563	1,413.57	65.7329	1,413.57	62.2465	1,413.57	69.737	1,413.57	71.7978	1,413.57	73.7082	1,413.57	75.9752	1,413.57	76.6174
1,463.38	85.5296	1,463.38	85.06	1,463.38	84.9791	1,463.38	84.1156	1,463.38	83.9976	1,463.38	83.665	1,463.38	82.7537	1,463.38	82.106	1,463.38	82.2456	1,463.38	81.1943	1,463.38	79.997	1,463.38	80.9399	1,463.38	77.7335	1,463.38	79.483	1,463.38	77.5471	1,463.38	77.2651	1,463.38	75.0562	1,463.38	75.1394	1,463.38	71.5127	1,463.38	74.0994	1,463.38	70.041	1,463.38	74.6431	1,463.38	70.8318	1,463.38	74.214	1,463.38	71.6483	1,463.38	72.462	1,463.38	71.3413	1,463.38	68.2954	1,463.38	69.8365	1,463.38	63.9935	1,463.38	64.6975	1,463.38	65.7034	1,463.38	64.8199	1,463.38	70.2136	1,463.38	70.2765	1,463.38	71.9643
1,516.11	83.9051	1,516.11	83.9624	1,516.11	83.9979	1,516.11	83.5408	1,516.11	82.9296	1,516.11	82.6981	1,516.11	82.4928	1,516.11	82.0128	1,516.11	81.2493	1,516.11	80.4752	1,516.11	79.5568	1,516.11	79.2446	1,516.11	78.7651	1,516.11	77.3265	1,516.11	75.4157	1,516.11	74.4296	1,516.11	73.2585	1,516.11	71.398	1,516.11	70.0145	1,516.11	69.5234	1,516.11	64.8419	1,516.11	71.7206	1,516.11	67.6047	1,516.11	71.66	1,516.11	65.572	1,516.11	68.0172	1,516.11	67.1794	1,516.11	65.4218	1,516.11	65.0893	1,516.11	66.7627	1,516.11	47.9088	1,516.11	69.7916	1,516.11	65.8419	1,516.11	73.2091	1,516.11	68.6321	1,516.11	73.1465
1,568.85	84.5037	1,568.85	83.8182	1,568.85	84.1988	1,568.85	82.9491	1,568.85	83.0563	1,568.85	81.341	1,568.85	82.4616	1,568.85	79.7464	1,568.85	80.7864	1,568.85	78.9741	1,568.85	78.6669	1,568.85	76.0021	1,568.85	77.4713	1,568.85	73.5756	1,568.85	74.956	1,568.85	71.6483	1,568.85	72.6463	1,568.85	67.4516	1,568.85	70.7832	1,568.85	68.2244	1,568.85	69.4402	1,568.85	69.4438	1,568.85	65.0589	1,568.85	69.8273	1,568.85	65.9644	1,568.85	68.081	1,568.85	68.6463	1,568.85	59.3133	1,568.85	63.4662	1,568.85	61.9117	1,568.85	67.2382	1,568.85	67.001	1,568.85	60.9049	1,568.85	69.3695	1,568.85	61.14	1,568.85	65.9467
1,624.51	83.774	1,624.51	83.3839	1,624.51	83.4279	1,624.51	82.5265	1,624.51	83.0736	1,624.51	81.5129	1,624.51	81.489	1,624.51	79.5431	1,624.51	79.893	1,624.51	77.4109	1,624.51	78.0932	1,624.51	76.885	1,624.51	75.5531	1,624.51	74.4678	1,624.51	73.5922	1,624.51	71.8757	1,624.51	69.9374	1,624.51	68.6261	1,624.51	67.7162	1,624.51	64.8099	1,624.51	64.1648	1,624.51	66.8927	1,624.51	65.6138	1,624.51	66.2896	1,624.51	66.5161	1,624.51	64.9657	1,624.51	62.3396	1,624.51	67.8113	1,624.51	62.9124	1,624.51	66.9585	1,624.51	60.5557	1,624.51	69.3225	1,624.51	57.2088	1,624.51	67.1995	1,624.51	65.871	1,624.51	68.1157
1,681.64	83.8206	1,681.64	83.4542	1,681.64	83.7847	1,681.64	82.5005	1,681.64	82.558	1,681.64	81.2625	1,681.64	81.5539	1,681.64	79.9701	1,681.64	80.0184	1,681.64	78.1554	1,681.64	78.8715	1,681.64	75.4041	1,681.64	76.3803	1,681.64	72.6774	1,681.64	73.0808	1,681.64	70.2999	1,681.64	70.7303	1,681.64	67.303	1,681.64	67.8272	1,681.64	66.9677	1,681.64	67.5221	1,681.64	66.6667	1,681.64	64.7688	1,681.64	61.1535	1,681.64	66.3295	1,681.64	61.5905	1,681.64	65.8853	1,681.64	62.6985	1,681.64	62.2706	1,681.64	64.8872	1,681.64	56.3224	1,681.64	66.5412	1,681.64	62.639	1,681.64	70.342	1,681.64	67.8716	1,681.64	68.6032
1,741.7	83.2878	1,741.7	82.7759	1,741.7	82.6879	1,741.7	81.9443	1,741.7	81.633	1,741.7	80.6213	1,741.7	80.1174	1,741.7	78.3573	1,741.7	78.2656	1,741.7	77.2508	1,741.7	76.1648	1,741.7	75.3312	1,741.7	74.8377	1,741.7	73.2096	1,741.7	72.8084	1,741.7	71.8274	1,741.7	70.8305	1,741.7	68.3661	1,741.7	66.4338	1,741.7	66.8268	1,741.7	61.534	1,741.7	64.5845	1,741.7	64.6368	1,741.7	63.3217	1,741.7	64.6626	1,741.7	60.4017	1,741.7	65.6076	1,741.7	61.6731	1,741.7	64.09	1,741.7	67.0738	1,741.7	48.6288	1,741.7	68.0058	1,741.7	60.6477	1,741.7	70.7411	1,741.7	65.2938	1,741.7	69.8715
1,803.22	82.1193	1,803.22	82.0782	1,803.22	81.7261	1,803.22	81.065	1,803.22	80.6211	1,803.22	79.5878	1,803.22	78.7418	1,803.22	77.9078	1,803.22	77.0996	1,803.22	74.9177	1,803.22	74.8155	1,803.22	74.2768	1,803.22	73.0182	1,803.22	72.4624	1,803.22	71.7669	1,803.22	70.1841	1,803.22	70.115	1,803.22	65.4322	1,803.22	65.7902	1,803.22	61.3913	1,803.22	62.1187	1,803.22	62.3389	1,803.22	57.2421	1,803.22	61.8582	1,803.22	62.6012	1,803.22	61.0529	1,803.22	64.652	1,803.22	45.0393	1,803.22	64.6568	1,803.22	64.5615	1,803.22	59.0203	1,803.22	68.4491	1,803.22	56.6911	1,803.22	68.6503	1,803.22	67.1341	1,803.22	67.0554
1,866.21	81.5286	1,866.21	81.1889	1,866.21	81.2549	1,866.21	80.3565	1,866.21	80.1594	1,866.21	78.8264	1,866.21	78.6754	1,866.21	76.7433	1,866.21	76.6637	1,866.21	73.9328	1,866.21	74.8639	1,866.21	72.0081	1,866.21	72.3612	1,866.21	69.8713	1,866.21	69.6395	1,866.21	71.0828	1,866.21	69.2982	1,866.21	68.2526	1,866.21	69.6103	1,866.21	63.9825	1,866.21	64.6076	1,866.21	60.2594	1,866.21	55.4235	1,866.21	61.7598	1,866.21	61.3268	1,866.21	61.4225	1,866.21	65.0521	1,866.21	53.9587	1,866.21	65.5407	1,866.21	59.0136	1,866.21	59.7014	1,866.21	66.4155	1,866.21	58.5562	1,866.21	70.4541	1,866.21	65.8228	1,866.21	68.853
1,932.13	82.0277	1,932.13	81.3071	1,932.13	81.9923	1,932.13	80.2207	1,932.13	81.3358	1,932.13	79.0062	1,932.13	79.9867	1,932.13	77.0133	1,932.13	78.5029	1,932.13	74.7581	1,932.13	75.9481	1,932.13	67.9934	1,932.13	73.9276	1,932.13	67.4812	1,932.13	71.3769	1,932.13	61.3216	1,932.13	69.2337	1,932.13	63.5424	1,932.13	67.34	1,932.13	64.0487	1,932.13	65.6451	1,932.13	60.4163	1,932.13	62.8258	1,932.13	62.4626	1,932.13	48.2702	1,932.13	60.2126	1,932.13	64.2643	1,932.13	55.4413	1,932.13	68.296	1,932.13	58.6623	1,932.13	66.7078	1,932.13	65.3781	1,932.13	59.7233	1,932.13	66.9037	1,932.13	59.3503	1,932.13	67.3449
1,999.51	82.7584	1,999.51	81.4543	1,999.51	82.8323	1,999.51	80.3485	1,999.51	81.6217	1,999.51	78.2172	1,999.51	80.8281	1,999.51	77.2081	1,999.51	78.298	1,999.51	75.6661	1,999.51	76.388	1,999.51	72.8091	1,999.51	74.6076	1,999.51	67.2225	1,999.51	72.0929	1,999.51	64.9616	1,999.51	69.4995	1,999.51	62.6888	1,999.51	68.6792	1,999.51	65.9048	1,999.51	66.1955	1,999.51	50.8534	1,999.51	62.231	1,999.51	59.053	1,999.51	56.9014	1,999.51	61.3498	1,999.51	60.3721	1,999.51	63.8112	1,999.51	65.2028	1,999.51	60.8096	1,999.51	64.8012	1,999.51	61.0491	1,999.51	62.4633	1,999.51	59.4399	1,999.51	60.5617	1,999.51	60.2245
2,069.82	82.5997	2,069.82	82.1062	2,069.82	82.3215	2,069.82	80.989	2,069.82	82.0829	2,069.82	79.3669	2,069.82	80.4327	2,069.82	77.1283	2,069.82	78.6693	2,069.82	74.8354	2,069.82	76.0404	2,069.82	72.7456	2,069.82	73.1328	2,069.82	69.4088	2,069.82	71.5668	2,069.82	64.4851	2,069.82	69.866	2,069.82	57.8899	2,069.82	67.9647	2,069.82	64.8958	2,069.82	65.6969	2,069.82	61.5654	2,069.82	67.4725	2,069.82	53.3818	2,069.82	61.6001	2,069.82	57.7079	2,069.82	61.0706	2,069.82	63.02	2,069.82	65.5136	2,069.82	62.0994	2,069.82	67.3112	2,069.82	55.4823	2,069.82	63.1211	2,069.82	54.7544	2,069.82	57.5831	2,069.82	55.1471
2,143.07	81.7048	2,143.07	81.2039	2,143.07	81.5788	2,143.07	80.4247	2,143.07	80.5372	2,143.07	78.6911	2,143.07	79.495	2,143.07	77.0422	2,143.07	77.3462	2,143.07	75.1975	2,143.07	75.2227	2,143.07	73.4367	2,143.07	72.4364	2,143.07	70.8974	2,143.07	70.762	2,143.07	64.6513	2,143.07	66.3161	2,143.07	65.2554	2,143.07	62.0899	2,143.07	65.7913	2,143.07	65.6742	2,143.07	60.5335	2,143.07	64.3939	2,143.07	61.7634	2,143.07	58.061	2,143.07	57.3214	2,143.07	61.2995	2,143.07	63.1543	2,143.07	65.9346	2,143.07	64.1419	2,143.07	66.6105	2,143.07	58.2827	2,143.07	63.7806	2,143.07	58.9325	2,143.07	59.2599	2,143.07	58.1926
2,219.24	79.8025	2,219.24	79.1336	2,219.24	79.6846	2,219.24	78.1917	2,219.24	79.4673	2,219.24	76.2315	2,219.24	78.1453	2,219.24	74.8698	2,219.24	76.3015	2,219.24	71.9569	2,219.24	73.5832	2,219.24	67.7316	2,219.24	71.6367	2,219.24	67.5067	2,219.24	69.9809	2,219.24	68.9121	2,219.24	66.7524	2,219.24	66.862	2,219.24	62.3822	2,219.24	67.1072	2,219.24	64.3041	2,219.24	63.5658	2,219.24	66.241	2,219.24	62.3937	2,219.24	58.4995	2,219.24	66.481	2,219.24	60.0396	2,219.24	64.7877	2,219.24	67.7058	2,219.24	60.594	2,219.24	65.9862	2,219.24	54.3264	2,219.24	64.3092	2,219.24	56.088	2,219.24	43.2419	2,219.24	53.3147
2,296.88	79.0155	2,296.88	78.6143	2,296.88	78.9053	2,296.88	77.8411	2,296.88	79.1415	2,296.88	76.7048	2,296.88	78.2701	2,296.88	73.9654	2,296.88	77.0196	2,296.88	70.0266	2,296.88	74.6656	2,296.88	71.7263	2,296.88	71.6928	2,296.88	70.0904	2,296.88	70.1173	2,296.88	63.8724	2,296.88	69.5889	2,296.88	62.9684	2,296.88	66.0511	2,296.88	68.1145	2,296.88	64.0029	2,296.88	65.1768	2,296.88	68.5253	2,296.88	61.1221	2,296.88	63.9403	2,296.88	68.3719	2,296.88	55.5319	2,296.88	70.5106	2,296.88	67.2155	2,296.88	67.5201	2,296.88	71.7708	2,296.88	58.221	2,296.88	69.2087	2,296.88	50.4336	2,296.88	63.6294	2,296.88	51.4348
2,378.91	79.3543	2,378.91	78.7363	2,378.91	79.4469	2,378.91	77.8323	2,378.91	79.065	2,378.91	76.9145	2,378.91	78.3668	2,378.91	75.7964	2,378.91	78.0149	2,378.91	73.6042	2,378.91	76.7522	2,378.91	71.039	2,378.91	74.0198	2,378.91	70.627	2,378.91	71.6248	2,378.91	72.5185	2,378.91	70.4898	2,378.91	64.8421	2,378.91	65.656	2,378.91	65.6915	2,378.91	64.83	2,378.91	68.2611	2,378.91	70.2642	2,378.91	57.9841	2,378.91	69.4823	2,378.91	64.0866	2,378.91	58.7339	2,378.91	70.9035	2,378.91	66.6099	2,378.91	70.2539	2,378.91	71.9298	2,378.91	67.0475	2,378.91	72.88	2,378.91	59.0028	2,378.91	69.3645	2,378.91	58.3982
2,462.4	80.0983	2,462.4	80.6875	2,462.4	80.2456	2,462.4	79.8208	2,462.4	79.1702	2,462.4	78.822	2,462.4	78.4567	2,462.4	78.2605	2,462.4	77.5481	2,462.4	78.4082	2,462.4	76.8986	2,462.4	76.5427	2,462.4	75.2128	2,462.4	73.6906	2,462.4	73.1124	2,462.4	75.393	2,462.4	70.8525	2,462.4	71.538	2,462.4	71.6915	2,462.4	64.6086	2,462.4	64.3558	2,462.4	69.7949	2,462.4	69.81	2,462.4	68.9799	2,462.4	70.9438	2,462.4	61.0488	2,462.4	62.2464	2,462.4	69.3864	2,462.4	66.7763	2,462.4	71.6315	2,462.4	73.0461	2,462.4	69.4719	2,462.4	71.917	2,462.4	62.8851	2,462.4	69.2221	2,462.4	66.3575
2,548.83	79.7054	2,548.83	80.7326	2,548.83	79.0558	2,548.83	79.8017	2,548.83	78.8605	2,548.83	80.2804	2,548.83	77.6783	2,548.83	79.3483	2,548.83	76.8192	2,548.83	78.5016	2,548.83	76.6762	2,548.83	78.4186	2,548.83	75.7365	2,548.83	77.0205	2,548.83	72.9071	2,548.83	75.2483	2,548.83	71.6314	2,548.83	74.8387	2,548.83	70.9361	2,548.83	69.1462	2,548.83	60.8856	2,548.83	69.1122	2,548.83	68.9385	2,548.83	71.1056	2,548.83	71.0101	2,548.83	65.6518	2,548.83	66.8676	2,548.83	71.4233	2,548.83	65.5055	2,548.83	72.0862	2,548.83	72.2507	2,548.83	69.465	2,548.83	70.6018	2,548.83	65.848	2,548.83	65.4942	2,548.83	66.4862
2,639.65	79.3694	2,639.65	79.121	2,639.65	78.2078	2,639.65	80.2352	2,639.65	78.2572	2,639.65	79.6195	2,639.65	77.598	2,639.65	79.386	2,639.65	76.9477	2,639.65	77.5585	2,639.65	76.4564	2,639.65	76.7756	2,639.65	76.4413	2,639.65	74.9941	2,639.65	74.0261	2,639.65	72.5246	2,639.65	71.9847	2,639.65	73.744	2,639.65	70.4673	2,639.65	70.1612	2,639.65	68.2041	2,639.65	70.8898	2,639.65	64.6832	2,639.65	70.1648	2,639.65	69.3433	2,639.65	68.995	2,639.65	68.2083	2,639.65	70.9552	2,639.65	65.5495	2,639.65	69.4125	2,639.65	70.0324	2,639.65	66.9877	2,639.65	69.6005	2,639.65	64.3004	2,639.65	64.2871	2,639.65	64.5142
2,731.93	79.0112	2,731.93	78.609	2,731.93	79.3791	2,731.93	79.9464	2,731.93	78.689	2,731.93	79.6569	2,731.93	78.792	2,731.93	78.6484	2,731.93	78.5259	2,731.93	77.4072	2,731.93	77.2479	2,731.93	75.7057	2,731.93	76.6588	2,731.93	72.4658	2,731.93	75.372	2,731.93	71.785	2,731.93	72.9414	2,731.93	71.3104	2,731.93	72.2288	2,731.93	68.5809	2,731.93	70.8102	2,731.93	69.6373	2,731.93	63.775	2,731.93	69.7629	2,731.93	64.8552	2,731.93	68.5901	2,731.93	68.047	2,731.93	70.2327	2,731.93	63.4873	2,731.93	68.9531	2,731.93	69.4626	2,731.93	64.8882	2,731.93	69.1265	2,731.93	64.685	2,731.93	64.1586	2,731.93	67.3737
2,828.61	80.0851	2,828.61	80.6365	2,828.61	80.7608	2,828.61	80.8489	2,828.61	80.2686	2,828.61	80.8314	2,828.61	80.3316	2,828.61	80.1688	2,828.61	80.2069	2,828.61	79.706	2,828.61	78.9299	2,828.61	77.093	2,828.61	76.9378	2,828.61	75.0318	2,828.61	76.3335	2,828.61	73.2866	2,828.61	74.1407	2,828.61	70.3956	2,828.61	73.5206	2,828.61	68.2421	2,828.61	71.9198	2,828.61	67.9605	2,828.61	65.861	2,828.61	68.6085	2,828.61	65.9979	2,828.61	67.4878	2,828.61	67.5946	2,828.61	69.1601	2,828.61	66.0342	2,828.61	69.3202	2,828.61	69.9234	2,828.61	62.505	2,828.61	69.6621	2,828.61	61.4376	2,828.61	66.8628	2,828.61	64.4596
2,928.22	81.3211	2,928.22	81.8667	2,928.22	81.2367	2,928.22	81.8298	2,928.22	81.5221	2,928.22	82.0563	2,928.22	81.3682	2,928.22	81.7427	2,928.22	81.0558	2,928.22	80.531	2,928.22	79.9749	2,928.22	78.7037	2,928.22	78.4602	2,928.22	77.357	2,928.22	76.6306	2,928.22	74.5845	2,928.22	74.7119	2,928.22	71.0492	2,928.22	71.9459	2,928.22	70.3346	2,928.22	71.8739	2,928.22	68.6093	2,928.22	69.4521	2,928.22	69.8126	2,928.22	68.7361	2,928.22	69.0263	2,928.22	68.5758	2,928.22	70.3971	2,928.22	69.3402	2,928.22	71.1689	2,928.22	69.6535	2,928.22	66.1975	2,928.22	70.7616	2,928.22	65.1428	2,928.22	63.8538	2,928.22	65.1057
3,030.76	82.0554	3,030.76	82.2943	3,030.76	81.7665	3,030.76	82.2889	3,030.76	82.2415	3,030.76	82.2787	3,030.76	82.0395	3,030.76	81.9326	3,030.76	82.0171	3,030.76	80.4726	3,030.76	80.9661	3,030.76	78.9129	3,030.76	79.5042	3,030.76	77.7264	3,030.76	77.5779	3,030.76	74.4897	3,030.76	76.2094	3,030.76	72.3879	3,030.76	73.7028	3,030.76	71.4537	3,030.76	72.3112	3,030.76	68.9622	3,030.76	71.2254	3,030.76	68.2816	3,030.76	69.0395	3,030.76	69.1386	3,030.76	69.4292	3,030.76	70.834	3,030.76	69.5527	3,030.76	70.5194	3,030.76	70.6549	3,030.76	65.8018	3,030.76	70.4827	3,030.76	60.3489	3,030.76	63.8317	3,030.76	63.6727
3,137.7	82.0573	3,137.7	82.1524	3,137.7	81.8452	3,137.7	82.2575	3,137.7	82.2633	3,137.7	82.3441	3,137.7	82.1994	3,137.7	81.5208	3,137.7	82.2942	3,137.7	80.1159	3,137.7	81.5208	3,137.7	78.6549	3,137.7	80.0324	3,137.7	77.1895	3,137.7	77.9072	3,137.7	74.6948	3,137.7	76.7186	3,137.7	72.3726	3,137.7	73.9098	3,137.7	72.1559	3,137.7	72.5949	3,137.7	69.982	3,137.7	71.6378	3,137.7	69.251	3,137.7	68.9652	3,137.7	69.4589	3,137.7	69.7123	3,137.7	70.1205	3,137.7	69.2356	3,137.7	71.0206	3,137.7	70.6404	3,137.7	66.7342	3,137.7	70.986	3,137.7	60.1909	3,137.7	64.4233	3,137.7	61.0866
3,249.02	82.222	3,249.02	82.0551	3,249.02	82.0851	3,249.02	82.2665	3,249.02	82.7393	3,249.02	82.0609	3,249.02	82.8125	3,249.02	81.3727	3,249.02	82.496	3,249.02	79.9218	3,249.02	81.6546	3,249.02	77.7933	3,249.02	79.9453	3,249.02	75.7628	3,249.02	77.3127	3,249.02	73.3338	3,249.02	76.0692	3,249.02	72.2915	3,249.02	74.0665	3,249.02	71.6111	3,249.02	72.0265	3,249.02	70.0964	3,249.02	72.2684	3,249.02	69.229	3,249.02	69.2915	3,249.02	70.9668	3,249.02	69.623	3,249.02	68.9569	3,249.02	69.8065	3,249.02	70.5583	3,249.02	69.3924	3,249.02	66.6749	3,249.02	69.8404	3,249.02	60.2644	3,249.02	63.3257	3,249.02	63.3309
3,363.28	82.5658	3,363.28	82.4946	3,363.28	82.7321	3,363.28	82.8448	3,363.28	82.731	3,363.28	82.6112	3,363.28	82.8143	3,363.28	81.3117	3,363.28	82.0228	3,363.28	79.8096	3,363.28	80.8741	3,363.28	78.0152	3,363.28	79.7754	3,363.28	75.4534	3,363.28	77.4697	3,363.28	73.2166	3,363.28	74.794	3,363.28	71.1321	3,363.28	72.7917	3,363.28	69.4595	3,363.28	70.7761	3,363.28	69.75	3,363.28	71.0998	3,363.28	66.1634	3,363.28	69.6248	3,363.28	70.2363	3,363.28	66.9977	3,363.28	68.7906	3,363.28	70.3088	3,363.28	67.9259	3,363.28	68.9928	3,363.28	65.4455	3,363.28	68.2315	3,363.28	62.2882	3,363.28	64.775	3,363.28	64.0241
3,481.93	81.9937	3,481.93	82.0669	3,481.93	82.8476	3,481.93	82.3518	3,481.93	82.3674	3,481.93	82.3115	3,481.93	82.6805	3,481.93	81.2068	3,481.93	82.261	3,481.93	80.6609	3,481.93	81.6995	3,481.93	78.6542	3,481.93	79.6932	3,481.93	76.2478	3,481.93	77.5405	3,481.93	73.9756	3,481.93	75.3688	3,481.93	73.056	3,481.93	73.6193	3,481.93	70.3359	3,481.93	71.8607	3,481.93	71.3961	3,481.93	70.0429	3,481.93	67.9234	3,481.93	70.6876	3,481.93	69.8025	3,481.93	65.1312	3,481.93	70.4799	3,481.93	70.3093	3,481.93	68.3789	3,481.93	70.7687	3,481.93	65.3194	3,481.93	67.9286	3,481.93	63.5982	3,481.93	63.9569	3,481.93	64.193
3,604.98	82.4842	3,604.98	82.9546	3,604.98	83.2792	3,604.98	83.153	3,604.98	84.029	3,604.98	82.9452	3,604.98	84.3607	3,604.98	81.9286	3,604.98	83.9068	3,604.98	80.8268	3,604.98	82.6821	3,604.98	78.9295	3,604.98	80.6512	3,604.98	76.5543	3,604.98	78.5948	3,604.98	74.2409	3,604.98	76.9387	3,604.98	72.7415	3,604.98	74.0629	3,604.98	69.3307	3,604.98	73.044	3,604.98	71.0151	3,604.98	69.8781	3,604.98	68.8113	3,604.98	71.4482	3,604.98	68.6395	3,604.98	69.2471	3,604.98	70.7046	3,604.98	71.0186	3,604.98	69.4083	3,604.98	71.9917	3,604.98	62.2547	3,604.98	69.7207	3,604.98	61.7849	3,604.98	62.8129	3,604.98	62.4709
3,732.42	83.8804	3,732.42	84.5511	3,732.42	83.757	3,732.42	84.6407	3,732.42	84.7025	3,732.42	84.5747	3,732.42	84.7199	3,732.42	84.1641	3,732.42	84.249	3,732.42	82.3169	3,732.42	82.7032	3,732.42	80.1061	3,732.42	80.5188	3,732.42	77.6086	3,732.42	78.5665	3,732.42	75.3016	3,732.42	76.4572	3,732.42	73.0684	3,732.42	73.8441	3,732.42	70.7401	3,732.42	72.6349	3,732.42	71.4195	3,732.42	69.2848	3,732.42	70.2352	3,732.42	71.0115	3,732.42	69.1094	3,732.42	67.0313	3,732.42	71.1167	3,732.42	70.6516	3,732.42	70.4868	3,732.42	71.3797	3,732.42	66.5222	3,732.42	70.51	3,732.42	56.3077	3,732.42	63.8883	3,732.42	58.619
3,864.26	83.1042	3,864.26	83.8545	3,864.26	83.0196	3,864.26	84.214	3,864.26	83.268	3,864.26	84.2064	3,864.26	83.4922	3,864.26	83.3497	3,864.26	82.9184	3,864.26	81.5376	3,864.26	81.6586	3,864.26	79.9791	3,864.26	79.775	3,864.26	77.6215	3,864.26	78.2682	3,864.26	75.9189	3,864.26	76.0299	3,864.26	73.1998	3,864.26	73.686	3,864.26	71.8347	3,864.26	72.2034	3,864.26	71.4524	3,864.26	68.9085	3,864.26	70.2573	3,864.26	70.8673	3,864.26	69.765	3,864.26	69.7162	3,864.26	68.9449	3,864.26	70.0405	3,864.26	70.301	3,864.26	69.8486	3,864.26	68.8805	3,864.26	69.8081	3,864.26	59.2994	3,864.26	65.5985	3,864.26	55.8378
4,000.49	84.2218	4,000.49	84.0079	4,000.49	84.6571	4,000.49	84.2983	4,000.49	84.3003	4,000.49	83.7699	4,000.49	84.3753	4,000.49	82.2646	4,000.49	84.0058	4,000.49	80.6138	4,000.49	82.6104	4,000.49	78.8987	4,000.49	81.491	4,000.49	76.7435	4,000.49	79.1829	4,000.49	75.2018	4,000.49	76.7351	4,000.49	71.9023	4,000.49	74.4229	4,000.49	70.9788	4,000.49	73.7071	4,000.49	69.4747	4,000.49	70.6733	4,000.49	69.7246	4,000.49	72.6399	4,000.49	70.04	4,000.49	70.4557	4,000.49	72.305	4,000.49	72.3669	4,000.49	64.9029	4,000.49	73.053	4,000.49	68.468	4,000.49	66.4795	4,000.49	64.1752	4,000.49	68.4825	4,000.49	65.3468
4,141.11	85.3381	4,141.11	85.1113	4,141.11	85.1945	4,141.11	85.2851	4,141.11	84.7823	4,141.11	84.6252	4,141.11	84.2335	4,141.11	83.6646	4,141.11	83.8795	4,141.11	82.1536	4,141.11	82.6589	4,141.11	80.5834	4,141.11	80.7173	4,141.11	78.975	4,141.11	78.7179	4,141.11	75.7381	4,141.11	77.756	4,141.11	73.0929	4,141.11	75.5319	4,141.11	71.5412	4,141.11	72.7369	4,141.11	70.6114	4,141.11	71.935	4,141.11	72.0894	4,141.11	71.3637	4,141.11	67.1912	4,141.11	71.4377	4,141.11	73.8747	4,141.11	71.1632	4,141.11	69.7585	4,141.11	74.175	4,141.11	62.6754	4,141.11	68.6833	4,141.11	62.7859	4,141.11	62.5698	4,141.11	65.021
4,287.6	84.6607	4,287.6	85.1648	4,287.6	84.4774	4,287.6	84.7218	4,287.6	85.0515	4,287.6	84.8351	4,287.6	84.5433	4,287.6	84.1965	4,287.6	84.1498	4,287.6	82.2969	4,287.6	83.0294	4,287.6	79.7752	4,287.6	80.9623	4,287.6	77.8422	4,287.6	78.8073	4,287.6	76.0288	4,287.6	77.2305	4,287.6	74.7695	4,287.6	76.3789	4,287.6	73.9649	4,287.6	73.5692	4,287.6	71.2174	4,287.6	72.7777	4,287.6	72.4797	4,287.6	69.4617	4,287.6	68.0812	4,287.6	73.0368	4,287.6	72.2411	4,287.6	69.2901	4,287.6	71.5394	4,287.6	72.9927	4,287.6	65.0878	4,287.6	71.9534	4,287.6	53.8847	4,287.6	60.8133	4,287.6	60.7495
4,438.48	84.9046	4,438.48	85.0193	4,438.48	85.389	4,438.48	85.4518	4,438.48	84.7018	4,438.48	84.8009	4,438.48	84.6602	4,438.48	84.1845	4,438.48	83.7802	4,438.48	82.7118	4,438.48	82.1425	4,438.48	81.0408	4,438.48	80.945	4,438.48	78.9808	4,438.48	78.7229	4,438.48	76.3852	4,438.48	77.797	4,438.48	72.9195	4,438.48	75.0979	4,438.48	73.0798	4,438.48	73.302	4,438.48	71.6305	4,438.48	71.1756	4,438.48	70.613	4,438.48	69.1781	4,438.48	68.9902	4,438.48	71.9719	4,438.48	71.719	4,438.48	69.129	4,438.48	70.2109	4,438.48	73.0426	4,438.48	67.334	4,438.48	70.743	4,438.48	50.0772	4,438.48	65.1776	4,438.48	55.6247
4,595.21	84.1044	4,595.21	84.2302	4,595.21	83.9429	4,595.21	84.0996	4,595.21	83.357	4,595.21	83.8397	4,595.21	83.2124	4,595.21	82.3837	4,595.21	82.799	4,595.21	81.0148	4,595.21	81.5775	4,595.21	80.4003	4,595.21	80.6214	4,595.21	79.1996	4,595.21	79.6079	4,595.21	76.623	4,595.21	77.2667	4,595.21	74.8087	4,595.21	75.8205	4,595.21	70.6345	4,595.21	73.2702	4,595.21	71.2907	4,595.21	71.2345	4,595.21	71.1592	4,595.21	68.9533	4,595.21	71.6462	4,595.21	71.9063	4,595.21	71.8883	4,595.21	69.5539	4,595.21	71.2498	4,595.21	71.7352	4,595.21	67.5317	4,595.21	68.3561	4,595.21	54.5361	4,595.21	66.6902	4,595.21	48.3445
4,756.35	84.3282	4,756.35	84.5109	4,756.35	84.3084	4,756.35	82.9504	4,756.35	84.3212	4,756.35	83.6429	4,756.35	83.0849	4,756.35	82.9037	4,756.35	83.687	4,756.35	82.0898	4,756.35	83.6008	4,756.35	80.8305	4,756.35	82.2978	4,756.35	78.7514	4,756.35	80.1866	4,756.35	75.792	4,756.35	78.6919	4,756.35	74.8494	4,756.35	76.0391	4,756.35	73.3087	4,756.35	74.2595	4,756.35	71.372	4,756.35	71.3155	4,756.35	70.1437	4,756.35	70.1193	4,756.35	71.0143	4,756.35	73.39	4,756.35	73.5767	4,756.35	69.1061	4,756.35	69.985	4,756.35	73.7219	4,756.35	67.4194	4,756.35	69.8921	4,756.35	46.0773	4,756.35	66.8825	4,756.35	48.3938
4,924.8	84.9509	4,924.8	84.2717	4,924.8	85.5593	4,924.8	84.3457	4,924.8	83.1707	4,924.8	83.4002	4,924.8	83.7843	4,924.8	84.3875	4,924.8	83.038	4,924.8	83.5288	4,924.8	83.0388	4,924.8	82.2271	4,924.8	82.7272	4,924.8	79.2722	4,924.8	81.097	4,924.8	78.2755	4,924.8	78.9916	4,924.8	74.8674	4,924.8	76.5538	4,924.8	74.5494	4,924.8	75.1146	4,924.8	70.6117	4,924.8	73.1956	4,924.8	70.3503	4,924.8	69.537	4,924.8	71.5844	4,924.8	71.8705	4,924.8	72.1395	4,924.8	69.5914	4,924.8	70.3664	4,924.8	74.518	4,924.8	70.883	4,924.8	69.7826	4,924.8	56.8268	4,924.8	66.1536	4,924.8	47.9616
5,097.66	85.7034	5,097.66	84.4089	5,097.66	84.8813	5,097.66	83.6943	5,097.66	84.1179	5,097.66	83.5803	5,097.66	82.5458	5,097.66	83.6126	5,097.66	83.4083	5,097.66	83.1031	5,097.66	83.6775	5,097.66	81.7531	5,097.66	83.2169	5,097.66	79.7812	5,097.66	81.567	5,097.66	78.3367	5,097.66	78.8224	5,097.66	73.783	5,097.66	77.1469	5,097.66	73.0601	5,097.66	74.6079	5,097.66	71.253	5,097.66	71.6371	5,097.66	71.8874	5,097.66	71.2262	5,097.66	73.0737	5,097.66	72.8434	5,097.66	72.9776	5,097.66	70.2968	5,097.66	71.0334	5,097.66	73.2734	5,097.66	69.0978	5,097.66	68.9984	5,097.66	59.4073	5,097.66	68.3747	5,097.66	56.9588
5,277.83	86.9637	5,277.83	85.5319	5,277.83	86.8075	5,277.83	83.8142	5,277.83	84.4799	5,277.83	83.4066	5,277.83	83.1374	5,277.83	83.6853	5,277.83	83.6592	5,277.83	83.7457	5,277.83	84.5749	5,277.83	83.086	5,277.83	83.3585	5,277.83	81.6601	5,277.83	81.6218	5,277.83	77.5313	5,277.83	80.9934	5,277.83	75.4483	5,277.83	76.5645	5,277.83	71.6477	5,277.83	75.9893	5,277.83	71.2453	5,277.83	73.3541	5,277.83	71.302	5,277.83	70.8403	5,277.83	71.7931	5,277.83	72.4558	5,277.83	73.5542	5,277.83	69.2079	5,277.83	68.5314	5,277.83	73.1075	5,277.83	68.6086	5,277.83	67.4233	5,277.83	59.1465	5,277.83	68.8261	5,277.83	53.335
5,463.87	88.4595	5,463.87	87.3402	5,463.87	88.4407	5,463.87	85.2463	5,463.87	85.8545	5,463.87	84.0962	5,463.87	84.78	5,463.87	84.3481	5,463.87	83.9109	5,463.87	83.0203	5,463.87	83.7202	5,463.87	81.0331	5,463.87	83.861	5,463.87	77.6099	5,463.87	82.1847	5,463.87	76.5279	5,463.87	78.7774	5,463.87	73.9387	5,463.87	76.4248	5,463.87	74.6281	5,463.87	74.5817	5,463.87	72.8032	5,463.87	72.474	5,463.87	70.974	5,463.87	70.5907	5,463.87	72.9601	5,463.87	71.3095	5,463.87	72.6725	5,463.87	71.2306	5,463.87	70.6627	5,463.87	73.7394	5,463.87	64.8436	5,463.87	70.7004	5,463.87	57.9691	5,463.87	65.1244	5,463.87	51.2953
5,657.23	87.8942	5,657.23	86.646	5,657.23	87.4328	5,657.23	85.2553	5,657.23	86.2689	5,657.23	84.9055	5,657.23	84.0376	5,657.23	84.915	5,657.23	83.8875	5,657.23	83.8287	5,657.23	83.4177	5,657.23	81.9023	5,657.23	81.9639	5,657.23	78.7765	5,657.23	78.821	5,657.23	76.924	5,657.23	78.2471	5,657.23	73.5098	5,657.23	75.3041	5,657.23	72.8662	5,657.23	73.8077	5,657.23	71.5037	5,657.23	70.2991	5,657.23	69.7393	5,657.23	70.679	5,657.23	70.1257	5,657.23	70.8827	5,657.23	71.0986	5,657.23	71.0396	5,657.23	70.4652	5,657.23	72.0901	5,657.23	64.1828	5,657.23	68.6271	5,657.23	58.4453	5,657.23	61.8471	5,657.23	61.3663
5,856.45	86.4074	5,856.45	85.5972	5,856.45	86.7436	5,856.45	84.9039	5,856.45	85.5911	5,856.45	85.0409	5,856.45	84.6816	5,856.45	84.1729	5,856.45	83.9246	5,856.45	82.9924	5,856.45	83.7166	5,856.45	80.5273	5,856.45	81.5345	5,856.45	80.0889	5,856.45	79.0093	5,856.45	74.5319	5,856.45	78.0568	5,856.45	73.9967	5,856.45	73.5856	5,856.45	66.174	5,856.45	71.4413	5,856.45	68.8509	5,856.45	70.234	5,856.45	70.384	5,856.45	68.6765	5,856.45	66.7335	5,856.45	69.9272	5,856.45	67.4036	5,856.45	67.483	5,856.45	69.5895	5,856.45	70.3858	5,856.45	67.0702	5,856.45	66.7797	5,856.45	62.3886	5,856.45	62.972	5,856.45	61.4255
6,062.99	86.1398	6,062.99	85.3281	6,062.99	86.2069	6,062.99	85.2192	6,062.99	85.0307	6,062.99	84.6409	6,062.99	85.3528	6,062.99	84.7047	6,062.99	84.8669	6,062.99	82.8411	6,062.99	83.5009	6,062.99	80.6718	6,062.99	81.9075	6,062.99	76.7694	6,062.99	79.8375	6,062.99	74.7051	6,062.99	77.3232	6,062.99	71.774	6,062.99	74.4893	6,062.99	68.7565	6,062.99	71.952	6,062.99	68.5088	6,062.99	69.4738	6,062.99	66.3824	6,062.99	68.2943	6,062.99	65.5085	6,062.99	68.953	6,062.99	69.7092	6,062.99	69.6308	6,062.99	68.8528	6,062.99	71.3109	6,062.99	64.4274	6,062.99	69.067	6,062.99	61.7681	6,062.99	63.0158	6,062.99	46.832
6,276.86	85.9588	6,276.86	85.3202	6,276.86	85.6189	6,276.86	84.3014	6,276.86	85.0875	6,276.86	84.1073	6,276.86	83.1284	6,276.86	83.857	6,276.86	84.5283	6,276.86	82.3317	6,276.86	83.7285	6,276.86	80.396	6,276.86	80.9429	6,276.86	77.6789	6,276.86	76.9583	6,276.86	74.943	6,276.86	77.6871	6,276.86	72.9459	6,276.86	74.0318	6,276.86	69.2876	6,276.86	71.559	6,276.86	68.4401	6,276.86	69.8105	6,276.86	68.6352	6,276.86	68.4843	6,276.86	69.0526	6,276.86	68.6003	6,276.86	68.5481	6,276.86	67.0514	6,276.86	68.1703	6,276.86	69.9364	6,276.86	65.0176	6,276.86	66.7086	6,276.86	54.3287	6,276.86	62.8541	6,276.86	58.082
6,498.05	85.5551	6,498.05	84.709	6,498.05	86.1732	6,498.05	83.9609	6,498.05	84.7578	6,498.05	83.5787	6,498.05	84.4364	6,498.05	83.497	6,498.05	83.7063	6,498.05	82.7557	6,498.05	83.3853	6,498.05	80.0469	6,498.05	81.9641	6,498.05	78.6647	6,498.05	79.9549	6,498.05	76.2452	6,498.05	78.4138	6,498.05	73.6677	6,498.05	73.6844	6,498.05	69.5866	6,498.05	73.2644	6,498.05	67.3673	6,498.05	69.4508	6,498.05	67.5079	6,498.05	66.893	6,498.05	68.855	6,498.05	67.539	6,498.05	70.095	6,498.05	67.9739	6,498.05	70.2289	6,498.05	67.8449	6,498.05	61.8821	6,498.05	68.7498	6,498.05	57.9208	6,498.05	61.6713	6,498.05	59.8641
6,726.56	85.9667	6,726.56	85.5101	6,726.56	85.7167	6,726.56	84.4686	6,726.56	85.4158	6,726.56	83.5444	6,726.56	83.5859	6,726.56	83.3094	6,726.56	83.4145	6,726.56	81.4628	6,726.56	82.874	6,726.56	81.6001	6,726.56	81.6034	6,726.56	79.4468	6,726.56	79.247	6,726.56	75.5876	6,726.56	78.0118	6,726.56	73.3482	6,726.56	74.2021	6,726.56	69.9323	6,726.56	71.527	6,726.56	68.8071	6,726.56	68.8448	6,726.56	69.8488	6,726.56	67.6557	6,726.56	65.892	6,726.56	68.3021	6,726.56	67.9564	6,726.56	69.0804	6,726.56	67.6322	6,726.56	70.5439	6,726.56	58.3488	6,726.56	66.6991	6,726.56	62.6844	6,726.56	57.3608	6,726.56	61.5651
6,963.87	85.0542	6,963.87	85.442	6,963.87	85.4954	6,963.87	84.2988	6,963.87	85.58	6,963.87	82.7627	6,963.87	83.4422	6,963.87	82.3564	6,963.87	82.4797	6,963.87	82.587	6,963.87	82.4206	6,963.87	79.5434	6,963.87	81.3914	6,963.87	77.3947	6,963.87	79.5206	6,963.87	75.3125	6,963.87	77.3792	6,963.87	72.5866	6,963.87	73.8811	6,963.87	69.7151	6,963.87	71.4209	6,963.87	69.6127	6,963.87	68.5631	6,963.87	67.7873	6,963.87	66.5063	6,963.87	68.0989	6,963.87	68.6857	6,963.87	67.6262	6,963.87	68.1253	6,963.87	66.2813	6,963.87	65.7887	6,963.87	60.4674	6,963.87	64.1482	6,963.87	61.3178	6,963.87	56.0329	6,963.87	63.3376
7,209.96	85.6535	7,209.96	85.6335	7,209.96	86.1878	7,209.96	84.6631	7,209.96	86.4488	7,209.96	82.4158	7,209.96	84.7751	7,209.96	82.4696	7,209.96	83.3027	7,209.96	81.4056	7,209.96	82.2976	7,209.96	80.7988	7,209.96	82.2742	7,209.96	78.352	7,209.96	80.1363	7,209.96	75.2244	7,209.96	77.9595	7,209.96	72.221	7,209.96	74.571	7,209.96	70.6834	7,209.96	71.1728	7,209.96	69.8921	7,209.96	69.5655	7,209.96	69.5163	7,209.96	65.4807	7,209.96	68.0972	7,209.96	69.9383	7,209.96	67.3801	7,209.96	68.9141	7,209.96	66.0751	7,209.96	68.9134	7,209.96	58.514	7,209.96	65.5557	7,209.96	61.5946	7,209.96	59.7777	7,209.96	62.6562
7,464.84	85.9579	7,464.84	85.6723	7,464.84	86.425	7,464.84	84.5406	7,464.84	85.8939	7,464.84	82.9187	7,464.84	83.3728	7,464.84	82.3373	7,464.84	82.3657	7,464.84	82.4807	7,464.84	82.2977	7,464.84	81.4482	7,464.84	81.1123	7,464.84	78.7311	7,464.84	77.5202	7,464.84	75.1199	7,464.84	76.7345	7,464.84	70.7947	7,464.84	73.1812	7,464.84	70.5703	7,464.84	70.2123	7,464.84	68.8327	7,464.84	66.5298	7,464.84	68.811	7,464.84	67.1051	7,464.84	66.8206	7,464.84	66.6686	7,464.84	67.4972	7,464.84	66.8455	7,464.84	67.4715	7,464.84	66.8757	7,464.84	53.4261	7,464.84	63.7557	7,464.84	56.5798	7,464.84	53.7021	7,464.84	61.7526
7,727.05	86.5622	7,727.05	86.6868	7,727.05	87.1123	7,727.05	85.2005	7,727.05	87.0369	7,727.05	82.8143	7,727.05	84.7475	7,727.05	82.9399	7,727.05	82.4041	7,727.05	82.1483	7,727.05	82.4638	7,727.05	80.4194	7,727.05	81.0469	7,727.05	77.5096	7,727.05	78.9574	7,727.05	73.8271	7,727.05	77.539	7,727.05	71.655	7,727.05	73.464	7,727.05	69.1213	7,727.05	70.4288	7,727.05	68.1927	7,727.05	67.8129	7,727.05	66.5305	7,727.05	64.6141	7,727.05	66.2171	7,727.05	67.9161	7,727.05	68.3501	7,727.05	67.629	7,727.05	66.3796	7,727.05	68.663	7,727.05	55.4492	7,727.05	66.2215	7,727.05	57.9178	7,727.05	49.2619	7,727.05	61.6902
7,999.51	86.328	7,999.51	86.617	7,999.51	86.6965	7,999.51	84.8375	7,999.51	86.2571	7,999.51	82.3939	7,999.51	83.7003	7,999.51	82.0515	7,999.51	82.5091	7,999.51	82.2479	7,999.51	82.6501	7,999.51	80.4655	7,999.51	81.4709	7,999.51	78.402	7,999.51	78.4821	7,999.51	74.5429	7,999.51	77.6625	7,999.51	72.2233	7,999.51	73.0441	7,999.51	69.6215	7,999.51	71.2265	7,999.51	67.0748	7,999.51	67.4301	7,999.51	68.2913	7,999.51	66.8819	7,999.51	66.4782	7,999.51	68.8569	7,999.51	67.6465	7,999.51	66.5158	7,999.51	66.3575	7,999.51	68.0136	7,999.51	54.6049	7,999.51	65.4109	7,999.51	62.129	7,999.51	51.6125	7,999.51	64.9572
8,282.23	85.6313	8,282.23	85.7911	8,282.23	86.0781	8,282.23	84.3178	8,282.23	86.0557	8,282.23	82.3621	8,282.23	83.7924	8,282.23	81.7954	8,282.23	82.0016	8,282.23	82.0711	8,282.23	82.1174	8,282.23	79.8283	8,282.23	81.4571	8,282.23	76.6311	8,282.23	79.104	8,282.23	74.0223	8,282.23	77.5199	8,282.23	72.2007	8,282.23	73.6965	8,282.23	68.7067	8,282.23	71.9427	8,282.23	65.6691	8,282.23	67.9917	8,282.23	65.8698	8,282.23	65.0242	8,282.23	65.4081	8,282.23	64.8081	8,282.23	67.5129	8,282.23	68.1114	8,282.23	63.0156	8,282.23	68.2214	8,282.23	55.3745	8,282.23	65.3896	8,282.23	62.5098	8,282.23	53.1856	8,282.23	65.06
8,573.73	85.9248	8,573.73	85.8446	8,573.73	86.0494	8,573.73	84.6667	8,573.73	85.4599	8,573.73	82.8358	8,573.73	82.9403	8,573.73	82.4026	8,573.73	82.0297	8,573.73	81.4374	8,573.73	81.9316	8,573.73	79.8569	8,573.73	80.7921	8,573.73	77.1131	8,573.73	78.286	8,573.73	73.6873	8,573.73	76.6969	8,573.73	70.628	8,573.73	72.5479	8,573.73	67.0407	8,573.73	71.1274	8,573.73	61.9611	8,573.73	66.0913	8,573.73	65.3707	8,573.73	66.3146	8,573.73	67.2267	8,573.73	66.9548	8,573.73	67.4699	8,573.73	66.9651	8,573.73	63.5889	8,573.73	66.7918	8,573.73	56.336	8,573.73	64.4526	8,573.73	61.1212	8,573.73	53.2621	8,573.73	66.0702
8,876.95	86.4069	8,876.95	85.6713	8,876.95	86.6874	8,876.95	84.0955	8,876.95	85.4082	8,876.95	83.0363	8,876.95	84.1197	8,876.95	81.6005	8,876.95	82.1599	8,876.95	80.7315	8,876.95	81.2163	8,876.95	79.2451	8,876.95	80.3192	8,876.95	76.6591	8,876.95	78.1888	8,876.95	73.6093	8,876.95	77.0947	8,876.95	71.2538	8,876.95	73.0527	8,876.95	67.0706	8,876.95	70.024	8,876.95	63.3118	8,876.95	66.4287	8,876.95	66.0187	8,876.95	64.0425	8,876.95	68.121	8,876.95	66.1579	8,876.95	66.2671	8,876.95	66.5574	8,876.95	62.1114	8,876.95	67.7238	8,876.95	54.887	8,876.95	64.7053	8,876.95	61.4886	8,876.95	54.9074	8,876.95	63.6645
9,188.96	86.7382	9,188.96	85.879	9,188.96	86.239	9,188.96	85.1791	9,188.96	85.5618	9,188.96	83.2901	9,188.96	84.2387	9,188.96	81.4183	9,188.96	81.5955	9,188.96	81.1507	9,188.96	80.6423	9,188.96	79.8465	9,188.96	79.9739	9,188.96	78.5444	9,188.96	78.698	9,188.96	74.2447	9,188.96	77.3303	9,188.96	70.3631	9,188.96	72.5456	9,188.96	67.3434	9,188.96	69.9416	9,188.96	62.9132	9,188.96	65.6446	9,188.96	65.7313	9,188.96	64.9203	9,188.96	66.7536	9,188.96	66.8138	9,188.96	66.441	9,188.96	65.4253	9,188.96	62.3306	9,188.96	66.2774	9,188.96	54.5437	9,188.96	63.279	9,188.96	59.8296	9,188.96	54.2586	9,188.96	63.3298
9,514.16	87.1192	9,514.16	86.1863	9,514.16	86.9795	9,514.16	85.6419	9,514.16	85.6935	9,514.16	84.0167	9,514.16	85.2025	9,514.16	81.3276	9,514.16	82.936	9,514.16	81.4833	9,514.16	81.1726	9,514.16	80.0622	9,514.16	80.5715	9,514.16	77.5671	9,514.16	77.8444	9,514.16	73.3053	9,514.16	76.8063	9,514.16	68.7252	9,514.16	72.1585	9,514.16	67.2936	9,514.16	68.7295	9,514.16	65.5311	9,514.16	65.2533	9,514.16	64.5304	9,514.16	62.1124	9,514.16	65.4025	9,514.16	64.5346	9,514.16	65.5935	9,514.16	65.6587	9,514.16	60.1268	9,514.16	65.8236	9,514.16	52.7732	9,514.16	62.331	9,514.16	59.5287	9,514.16	55.1237	9,514.16	61.7835
9,849.61	87.8949	9,849.61	86.8476	9,849.61	87.2722	9,849.61	86.0657	9,849.61	86.2285	9,849.61	84.0113	9,849.61	85.2579	9,849.61	81.31	9,849.61	82.5164	9,849.61	81.5208	9,849.61	81.4005	9,849.61	79.7203	9,849.61	80.2796	9,849.61	76.2554	9,849.61	77.2151	9,849.61	73.4034	9,849.61	75.7576	9,849.61	68.9023	9,849.61	71.4495	9,849.61	67.5278	9,849.61	68.4609	9,849.61	64.3653	9,849.61	64.0232	9,849.61	63.8122	9,849.61	61.3485	9,849.61	65.5497	9,849.61	66.552	9,849.61	67.0272	9,849.61	65.283	9,849.61	60.8466	9,849.61	66.0421	9,849.61	51.5158	9,849.61	64.0447	9,849.61	57.3893	9,849.61	57.6474	9,849.61	58.0449
10,196.8	88.5062	10,196.8	87.1971	10,196.8	87.9043	10,196.8	86.4698	10,196.8	86.9282	10,196.8	83.6743	10,196.8	85.4913	10,196.8	81.098	10,196.8	82.431	10,196.8	81.176	10,196.8	81.5382	10,196.8	79.6756	10,196.8	80.6052	10,196.8	75.7035	10,196.8	76.7541	10,196.8	73.7945	10,196.8	75.7437	10,196.8	68.7698	10,196.8	70.1983	10,196.8	67.0376	10,196.8	69.1596	10,196.8	64.3578	10,196.8	60.0319	10,196.8	64.0634	10,196.8	60.9455	10,196.8	65.9354	10,196.8	67.3137	10,196.8	65.3352	10,196.8	64.6526	10,196.8	59.6165	10,196.8	67.1197	10,196.8	38.8944	10,196.8	62.5063	10,196.8	59.4308	10,196.8	57.2385	10,196.8	60.9701
10,555.7	88.9108	10,555.7	87.5019	10,555.7	88.1002	10,555.7	86.3289	10,555.7	87.2977	10,555.7	84.2069	10,555.7	85.6991	10,555.7	80.7258	10,555.7	83.0182	10,555.7	80.7227	10,555.7	81.5093	10,555.7	78.8408	10,555.7	80.0322	10,555.7	76.1345	10,555.7	76.7542	10,555.7	73.2414	10,555.7	75.1475	10,555.7	69.1309	10,555.7	70.6749	10,555.7	66.2	10,555.7	67.2931	10,555.7	64.5879	10,555.7	63.173	10,555.7	63.4153	10,555.7	61.02	10,555.7	65.1361	10,555.7	65.1868	10,555.7	65.6375	10,555.7	62.0801	10,555.7	58.2501	10,555.7	67.3907	10,555.7	42.4359	10,555.7	63.0169	10,555.7	60.8509	10,555.7	58.7991	10,555.7	58.9898
10,927.7	88.9872	10,927.7	87.7267	10,927.7	88.5594	10,927.7	86.6179	10,927.7	87.5881	10,927.7	84.2936	10,927.7	85.8258	10,927.7	80.844	10,927.7	83.2263	10,927.7	79.391	10,927.7	80.9188	10,927.7	78.7566	10,927.7	79.2773	10,927.7	75.8154	10,927.7	76.4216	10,927.7	73.0735	10,927.7	75.7413	10,927.7	67.4852	10,927.7	71.1545	10,927.7	66.3695	10,927.7	68.5079	10,927.7	62.321	10,927.7	64.2841	10,927.7	62.6646	10,927.7	62.3396	10,927.7	63.524	10,927.7	64.5242	10,927.7	65.2253	10,927.7	62.0842	10,927.7	57.0981	10,927.7	67.8675	10,927.7	49.1728	10,927.7	62.1618	10,927.7	59.5485	10,927.7	58.1522	10,927.7	59.6867
11,313	88.7421	11,313	87.7079	11,313	88.6795	11,313	86.3036	11,313	87.6636	11,313	83.5639	11,313	85.6683	11,313	80.6276	11,313	83.0146	11,313	79.1155	11,313	79.8885	11,313	77.9116	11,313	78.8047	11,313	74.2707	11,313	75.6464	11,313	72.7864	11,313	74.9582	11,313	68.231	11,313	71.1089	11,313	66.6501	11,313	67.843	11,313	61.5751	11,313	64.1145	11,313	61.5871	11,313	59.5043	11,313	64.1671	11,313	65.2362	11,313	65.0671	11,313	62.345	11,313	55.4789	11,313	67.5394	11,313	49.1163	11,313	60.4021	11,313	60.1907	11,313	60.9616	11,313	58.9174
11,712.9	88.4933	11,712.9	87.7074	11,712.9	88.5222	11,712.9	85.9186	11,712.9	87.2367	11,712.9	83.9458	11,712.9	85.2529	11,712.9	80.3146	11,712.9	82.7684	11,712.9	78.4988	11,712.9	79.2162	11,712.9	77.8378	11,712.9	78.869	11,712.9	75.6646	11,712.9	76.2453	11,712.9	72.0953	11,712.9	74.6274	11,712.9	69.3167	11,712.9	70.8745	11,712.9	64.8266	11,712.9	67.5841	11,712.9	63.8992	11,712.9	61.3449	11,712.9	61.072	11,712.9	60.272	11,712.9	60.1722	11,712.9	64.2488	11,712.9	64.3048	11,712.9	61.511	11,712.9	55.9571	11,712.9	67.4111	11,712.9	51.8504	11,712.9	58.2325	11,712.9	60.824	11,712.9	61.0089	11,712.9	59.8952
12,126	88.3989	12,126	87.4711	12,126	88.5214	12,126	86.011	12,126	87.1727	12,126	83.9262	12,126	85.2561	12,126	79.5223	12,126	82.4394	12,126	78.0615	12,126	78.5847	12,126	78.0489	12,126	78.4429	12,126	76.0198	12,126	76.2431	12,126	72.6597	12,126	75.1073	12,126	68.0621	12,126	70.9258	12,126	62.5663	12,126	67.1816	12,126	63.1775	12,126	61.9443	12,126	61.0962	12,126	60.0328	12,126	60.858	12,126	61.3524	12,126	64.3878	12,126	62.5821	12,126	56.2414	12,126	66.9762	12,126	53.5578	12,126	58.578	12,126	60.6854	12,126	60.6887	12,126	57.9975
12,553.7	88.1967	12,553.7	87.3294	12,553.7	88.3416	12,553.7	85.7888	12,553.7	86.9786	12,553.7	83.1853	12,553.7	85.1391	12,553.7	79.005	12,553.7	82.3448	12,553.7	77.7321	12,553.7	78.5306	12,553.7	76.9192	12,553.7	77.8559	12,553.7	75.1353	12,553.7	74.7528	12,553.7	72.3691	12,553.7	74.3735	12,553.7	68.0777	12,553.7	70.8136	12,553.7	64.4668	12,553.7	67.8282	12,553.7	61.574	12,553.7	62.5475	12,553.7	59.2881	12,553.7	59.5391	12,553.7	60.5596	12,553.7	63.6752	12,553.7	63.5766	12,553.7	61.3396	12,553.7	52.8882	12,553.7	67.0871	12,553.7	52.7697	12,553.7	57.9588	12,553.7	59.2924	12,553.7	60.9915	12,553.7	55.9493
12,996.1	88.1301	12,996.1	86.9908	12,996.1	88.2028	12,996.1	85.9059	12,996.1	86.7965	12,996.1	82.7087	12,996.1	84.8511	12,996.1	78.7185	12,996.1	81.7907	12,996.1	76.8416	12,996.1	78.216	12,996.1	76.5263	12,996.1	77.3421	12,996.1	74.6964	12,996.1	75.7547	12,996.1	72.5675	12,996.1	74.9451	12,996.1	69.4773	12,996.1	72.0128	12,996.1	65.2407	12,996.1	69.1635	12,996.1	63.1638	12,996.1	61.4808	12,996.1	60.1786	12,996.1	61.7381	12,996.1	61.61	12,996.1	64.1036	12,996.1	63.426	12,996.1	61.8865	12,996.1	51.0995	12,996.1	66.9132	12,996.1	54.6727	12,996.1	55.1357	12,996.1	60.4538	12,996.1	63.062	12,996.1	53.4063
13,454.6	87.8955	13,454.6	86.7232	13,454.6	87.8607	13,454.6	85.7467	13,454.6	86.9033	13,454.6	82.459	13,454.6	84.5097	13,454.6	79.257	13,454.6	81.6432	13,454.6	76.3035	13,454.6	77.6737	13,454.6	76.9635	13,454.6	76.94	13,454.6	75.7545	13,454.6	76.802	13,454.6	72.831	13,454.6	76.4162	13,454.6	69.8602	13,454.6	71.9094	13,454.6	64.0759	13,454.6	68.7579	13,454.6	64.7999	13,454.6	61.3363	13,454.6	61.7633	13,454.6	61.6256	13,454.6	62.2334	13,454.6	63.547	13,454.6	61.9418	13,454.6	60.4112	13,454.6	39.158	13,454.6	67.2492	13,454.6	51.3923	13,454.6	52.8107	13,454.6	62.1904	13,454.6	63.2101	13,454.6	51.672
13,929.2	87.5303	13,929.2	86.5807	13,929.2	87.4223	13,929.2	85.3536	13,929.2	87.0594	13,929.2	82.7134	13,929.2	84.4173	13,929.2	78.4675	13,929.2	81.7833	13,929.2	76.1906	13,929.2	77.0839	13,929.2	77.4582	13,929.2	77.1779	13,929.2	75.8052	13,929.2	76.2161	13,929.2	72.5812	13,929.2	76.0079	13,929.2	69.5651	13,929.2	71.5107	13,929.2	64.3058	13,929.2	67.7318	13,929.2	63.3522	13,929.2	63.5415	13,929.2	59.11	13,929.2	60.7829	13,929.2	57.0868	13,929.2	61.3554	13,929.2	60.7785	13,929.2	59.9348	13,929.2	44.2118	13,929.2	66.2967	13,929.2	47.1844	13,929.2	52.2778	13,929.2	59.2258	13,929.2	63.5707	13,929.2	51.5419
14,419.9	87.2074	14,419.9	86.4068	14,419.9	87.2405	14,419.9	84.9345	14,419.9	86.7248	14,419.9	82.1167	14,419.9	83.9362	14,419.9	78.399	14,419.9	81.6329	14,419.9	76.6079	14,419.9	77.4804	14,419.9	76.3695	14,419.9	77.4087	14,419.9	74.5351	14,419.9	75.1363	14,419.9	72.0686	14,419.9	74.6954	14,419.9	68.7174	14,419.9	71.3559	14,419.9	63.6963	14,419.9	68.4462	14,419.9	62.6985	14,419.9	62.2148	14,419.9	57.8993	14,419.9	60.8957	14,419.9	60.0802	14,419.9	63.4162	14,419.9	57.2873	14,419.9	60.105	14,419.9	50.7892	14,419.9	65.5411	14,419.9	41.5664	14,419.9	53.112	14,419.9	58.5239	14,419.9	63.8773	14,419.9	49.825
14,928.2	86.9199	14,928.2	86.0634	14,928.2	87.0557	14,928.2	84.1208	14,928.2	86.2906	14,928.2	81.5054	14,928.2	83.3849	14,928.2	78.9453	14,928.2	81.3931	14,928.2	76.1882	14,928.2	78.528	14,928.2	75.426	14,928.2	77.5733	14,928.2	74.4821	14,928.2	76.0886	14,928.2	71.4496	14,928.2	75.2697	14,928.2	68.96	14,928.2	71.6064	14,928.2	63.1195	14,928.2	68.7654	14,928.2	62.1599	14,928.2	60.7998	14,928.2	58.3144	14,928.2	60.396	14,928.2	60.6637	14,928.2	63.1788	14,928.2	58.5284	14,928.2	59.8152	14,928.2	51.805	14,928.2	63.521	14,928.2	50.0898	14,928.2	53.536	14,928.2	58.6317	14,928.2	63.8414	14,928.2	48.8251
15,455.6	86.3933	15,455.6	85.6995	15,455.6	86.6738	15,455.6	83.3982	15,455.6	85.6774	15,455.6	80.9566	15,455.6	83.0272	15,455.6	78.4458	15,455.6	81.1609	15,455.6	75.6006	15,455.6	78.1918	15,455.6	75.923	15,455.6	77.0756	15,455.6	74.9805	15,455.6	76.4645	15,455.6	71.5273	15,455.6	74.8384	15,455.6	68.5903	15,455.6	70.5137	15,455.6	63.3856	15,455.6	67.215	15,455.6	61.1202	15,455.6	60.6868	15,455.6	57.2931	15,455.6	60.337	15,455.6	56.7743	15,455.6	60.2019	15,455.6	58.0049	15,455.6	58.111	15,455.6	55.4435	15,455.6	62.8411	15,455.6	47.5989	15,455.6	55.5035	15,455.6	52.0349	15,455.6	64.8355	15,455.6	49.2485
16,000.5	85.9456	16,000.5	85.0177	16,000.5	86.1767	16,000.5	82.968	16,000.5	84.7922	16,000.5	80.3906	16,000.5	82.2227	16,000.5	78.0021	16,000.5	81.1078	16,000.5	75.5613	16,000.5	78.7701	16,000.5	75.6936	16,000.5	76.563	16,000.5	74.1428	16,000.5	75.012	16,000.5	70.533	16,000.5	73.5631	16,000.5	67.1597	16,000.5	69.4913	16,000.5	62.829	16,000.5	66.4427	16,000.5	59.8291	16,000.5	60.4745	16,000.5	56.3474	16,000.5	58.9784	16,000.5	50.9657	16,000.5	58.7842	16,000.5	55.2617	16,000.5	55.8817	16,000.5	56.0754	16,000.5	60.2671	16,000.5	46.2751	16,000.5	54.5147	16,000.5	49.3648	16,000.5	63.031	16,000.5	47.1563
16,564.5	85.7383	16,564.5	84.3994	16,564.5	85.9414	16,564.5	82.2364	16,564.5	84.0107	16,564.5	79.6364	16,564.5	81.463	16,564.5	77.9259	16,564.5	80.2082	16,564.5	75.5176	16,564.5	78.4715	16,564.5	75.1909	16,564.5	76.5079	16,564.5	73.3636	16,564.5	74.3324	16,564.5	69.3394	16,564.5	73.4069	16,564.5	66.5168	16,564.5	69.2221	16,564.5	58.6348	16,564.5	66.1328	16,564.5	57.1441	16,564.5	60.2404	16,564.5	55.0162	16,564.5	58.7475	16,564.5	50.8943	16,564.5	59.0939	16,564.5	53.7441	16,564.5	55.1198	16,564.5	56.742	16,564.5	58.4222	16,564.5	42.9235	16,564.5	53.5918	16,564.5	47.7278	16,564.5	60.5283	16,564.5	44.0099
17,148.9	85.6012	17,148.9	83.8987	17,148.9	85.4081	17,148.9	81.5879	17,148.9	83.4343	17,148.9	79.5406	17,148.9	80.9798	17,148.9	77.7133	17,148.9	79.5686	17,148.9	75.0607	17,148.9	77.7198	17,148.9	73.5684	17,148.9	75.6746	17,148.9	71.9641	17,148.9	74.4166	17,148.9	68.6375	17,148.9	73.0909	17,148.9	64.945	17,148.9	69.3031	17,148.9	57.7759	17,148.9	65.4271	17,148.9	52.7	17,148.9	60.6897	17,148.9	50.0957	17,148.9	57.9693	17,148.9	51.4692	17,148.9	58.4031	17,148.9	54.7188	17,148.9	54.6173	17,148.9	55.1184	17,148.9	56.5016	17,148.9	46.334	17,148.9	54.5311	17,148.9	41.9535	17,148.9	58.8919	17,148.9	39.6584
17,752.4	85.6799	17,752.4	83.6031	17,752.4	85.3559	17,752.4	80.9126	17,752.4	83.337	17,752.4	79.0381	17,752.4	80.7203	17,752.4	77.5159	17,752.4	79.0644	17,752.4	74.0284	17,752.4	77.4642	17,752.4	72.7691	17,752.4	74.5858	17,752.4	69.8369	17,752.4	73.5482	17,752.4	65.9317	17,752.4	71.994	17,752.4	62.4151	17,752.4	68.1571	17,752.4	54.7729	17,752.4	64.3698	17,752.4	51.5636	17,752.4	59.3446	17,752.4	48.3676	17,752.4	56.289	17,752.4	47.8759	17,752.4	56.8057	17,752.4	54.8601	17,752.4	52.1706	17,752.4	52.0778	17,752.4	53.9628	17,752.4	40.3403	17,752.4	55.0903	17,752.4	43.3507	17,752.4	56.4855	17,752.4	40.4788
18,379.4	85.3599	18,379.4	83.3415	18,379.4	85.2378	18,379.4	80.8869	18,379.4	83.1908	18,379.4	78.7383	18,379.4	80.4877	18,379.4	77.3353	18,379.4	78.883	18,379.4	73.2997	18,379.4	76.9861	18,379.4	72.0459	18,379.4	74.2136	18,379.4	68.2767	18,379.4	72.7647	18,379.4	64.2612	18,379.4	71.3535	18,379.4	62.3261	18,379.4	66.4374	18,379.4	49.8575	18,379.4	62.6909	18,379.4	46.4079	18,379.4	57.4096	18,379.4	45.2647	18,379.4	54.9821	18,379.4	41.6041	18,379.4	57.2035	18,379.4	52.2037	18,379.4	51.8102	18,379.4	50.0217	18,379.4	49.7122	18,379.4	27.2664	18,379.4	54.3549	18,379.4	41.1438	18,379.4	54.7569	18,379.4	37.8218
19,026.9	85.1611	19,026.9	83.0897	19,026.9	85.005	19,026.9	80.6517	19,026.9	82.8	19,026.9	78.593	19,026.9	80.3478	19,026.9	76.7964	19,026.9	78.7867	19,026.9	73.3175	19,026.9	76.6894	19,026.9	70.8919	19,026.9	73.699	19,026.9	66.4228	19,026.9	71.6179	19,026.9	63.2164	19,026.9	69.6119	19,026.9	60.1622	19,026.9	65.1601	19,026.9	53.697	19,026.9	61.3378	19,026.9	45.7749	19,026.9	56.8744	19,026.9	36.7787	19,026.9	52.6266	19,026.9	45.162	19,026.9	57.1608	19,026.9	50.0382	19,026.9	50.6285	19,026.9	44.9278	19,026.9	47.1075	19,026.9	31.3575	19,026.9	52.3579	19,026.9	37.2236	19,026.9	52.2849	19,026.9	42.1857
19,697.8	84.544	19,697.8	82.452	19,697.8	84.3811	19,697.8	80.312	19,697.8	82.3315	19,697.8	78.0132	19,697.8	79.9711	19,697.8	76.2695	19,697.8	78.4131	19,697.8	72.5213	19,697.8	75.9829	19,697.8	69.2065	19,697.8	72.1589	19,697.8	64.757	19,697.8	69.2861	19,697.8	60.7408	19,697.8	67.8288	19,697.8	58.0941	19,697.8	62.5914	19,697.8	51.2599	19,697.8	59.2403	19,697.8	50.1048	19,697.8	54.7044	19,697.8	29.8116	19,697.8	50.1571	19,697.8	46.9395	19,697.8	56.8034	19,697.8	48.7812	19,697.8	48.5598	19,697.8	39.5995	19,697.8	45.4834	19,697.8	37.9101	19,697.8	51.6042	19,697.8	41.4014	19,697.8	50.8342	19,697.8	44.848
19,999.5	84.1409	19,999.5	82.0646	19,999.5	84.2056	19,999.5	80.0286	19,999.5	82.2174	19,999.5	77.5434	19,999.5	79.9796	19,999.5	76.154	19,999.5	78.2652	19,999.5	71.5546	19,999.5	75.8621	19,999.5	68.4859	19,999.5	71.5495	19,999.5	64.4328	19,999.5	68.0335	19,999.5	59.7696	19,999.5	68.2533	19,999.5	56.1357	19,999.5	62.4778	19,999.5	54.6643	19,999.5	58.4675	19,999.5	55.6273	19,999.5	52.2649	19,999.5	51.4686	19,999.5	46.8663	19,999.5	60.6221	19,999.5	52.7505	19,999.5	47.1241	19,999.5	49.2735	19,999.5	45.1006	19,999.5	50.9844	19,999.5	45.272	19,999.5	49.483	19,999.5	45.097	19,999.5	54.3083	19,999.5	47.1711
