"SPL Vertical"
"On-Axis"		"10°"		"-10°"		"20°"		"-20°"		"30°"		"-30°"		"40°"		"-40°"		"50°"		"-50°"		"60°"		"-60°"		"70°"		"-70°"		"80°"		"-80°"		"90°"		"-90°"		"100°"		"-100°"		"110°"		"-110°"		"120°"		"-120°"		"130°"		"-130°"		"140°"		"-140°"		"150°"		"-150°"		"160°"		"-160°"		"170°"		"-170°"		"180°"
"Frequency [Hz]"	"Sound Pessure Level [dB]  / [2.83V 1m] "	"Frequency [Hz]"	"Sound Pessure Level [dB]  / [2.83V 1m] "	"Frequency [Hz]"	"Sound Pessure Level [dB]  / [2.83V 1m] "	"Frequency [Hz]"	"Sound Pessure Level [dB]  / [2.83V 1m] "	"Frequency [Hz]"	"Sound Pessure Level [dB]  / [2.83V 1m] "	"Frequency [Hz]"	"Sound Pessure Level [dB]  / [2.83V 1m] "	"Frequency [Hz]"	"Sound Pessure Level [dB]  / [2.83V 1m] "	"Frequency [Hz]"	"Sound Pessure Level [dB]  / [2.83V 1m] "	"Frequency [Hz]"	"Sound Pessure Level [dB]  / [2.83V 1m] "	"Frequency [Hz]"	"Sound Pessure Level [dB]  / [2.83V 1m] "	"Frequency [Hz]"	"Sound Pessure Level [dB]  / [2.83V 1m] "	"Frequency [Hz]"	"Sound Pessure Level [dB]  / [2.83V 1m] "	"Frequency [Hz]"	"Sound Pessure Level [dB]  / [2.83V 1m] "	"Frequency [Hz]"	"Sound Pessure Level [dB]  / [2.83V 1m] "	"Frequency [Hz]"	"Sound Pessure Level [dB]  / [2.83V 1m] "	"Frequency [Hz]"	"Sound Pessure Level [dB]  / [2.83V 1m] "	"Frequency [Hz]"	"Sound Pessure Level [dB]  / [2.83V 1m] "	"Frequency [Hz]"	"Sound Pessure Level [dB]  / [2.83V 1m] "	"Frequency [Hz]"	"Sound Pessure Level [dB]  / [2.83V 1m] "	"Frequency [Hz]"	"Sound Pessure Level [dB]  / [2.83V 1m] "	"Frequency [Hz]"	"Sound Pessure Level [dB]  / [2.83V 1m] "	"Frequency [Hz]"	"Sound Pessure Level [dB]  / [2.83V 1m] "	"Frequency [Hz]"	"Sound Pessure Level [dB]  / [2.83V 1m] "	"Frequency [Hz]"	"Sound Pessure Level [dB]  / [2.83V 1m] "	"Frequency [Hz]"	"Sound Pessure Level [dB]  / [2.83V 1m] "	"Frequency [Hz]"	"Sound Pessure Level [dB]  / [2.83V 1m] "	"Frequency [Hz]"	"Sound Pessure Level [dB]  / [2.83V 1m] "	"Frequency [Hz]"	"Sound Pessure Level [dB]  / [2.83V 1m] "	"Frequency [Hz]"	"Sound Pessure Level [dB]  / [2.83V 1m] "	"Frequency [Hz]"	"Sound Pessure Level [dB]  / [2.83V 1m] "	"Frequency [Hz]"	"Sound Pessure Level [dB]  / [2.83V 1m] "	"Frequency [Hz]"	"Sound Pessure Level [dB]  / [2.83V 1m] "	"Frequency [Hz]"	"Sound Pessure Level [dB]  / [2.83V 1m] "	"Frequency [Hz]"	"Sound Pessure Level [dB]  / [2.83V 1m] "	"Frequency [Hz]"	"Sound Pessure Level [dB]  / [2.83V 1m] "	"Frequency [Hz]"	"Sound Pessure Level [dB]  / [2.83V 1m] "
20.5078	50.5127	20.5078	50.0677	20.5078	50.8167	20.5078	49.5277	20.5078	50.9529	20.5078	48.9754	20.5078	50.9047	20.5078	48.5482	20.5078	50.6653	20.5078	48.4279	20.5078	50.2478	20.5078	48.7595	20.5078	49.7126	20.5078	49.5432	20.5078	49.2204	20.5078	50.6356	20.5078	49.0672	20.5078	51.8591	20.5078	49.5529	20.5078	53.0822	20.5078	50.6795	20.5078	54.2282	20.5078	52.142	20.5078	55.2574	20.5078	53.6284	20.5078	56.1487	20.5078	54.963	20.5078	56.8895	20.5078	56.0747	20.5078	57.4694	20.5078	56.9432	20.5078	57.8783	20.5078	57.5698	20.5078	58.1052	20.5078	57.964	20.5078	58.1381
21.9727	52.2147	21.9727	51.8411	21.9727	52.4569	21.9727	51.3899	21.9727	52.5354	21.9727	50.951	21.9727	52.4317	21.9727	50.6602	21.9727	52.1409	21.9727	50.6764	21.9727	51.6857	21.9727	51.1045	21.9727	51.1499	21.9727	51.9203	21.9727	50.7338	21.9727	52.9921	21.9727	50.7597	21.9727	54.1696	21.9727	51.469	21.9727	55.3414	21.9727	52.7544	21.9727	56.4404	21.9727	54.2807	21.9727	57.4298	21.9727	55.7729	21.9727	58.2889	21.9727	57.091	21.9727	59.0042	21.9727	58.1821	21.9727	59.5649	21.9727	59.0332	21.9727	59.9601	21.9727	59.6475	21.9727	60.1783	21.9727	60.0349	21.9727	60.2075
23.4375	54.3115	23.4375	54.0985	23.4375	54.4606	23.4375	53.8741	23.4375	54.5131	23.4375	53.7122	23.4375	54.4557	23.4375	53.701	23.4375	54.297	23.4375	53.9184	23.4375	54.0794	23.4375	54.3989	23.4375	53.8959	23.4375	55.1155	23.4375	53.8961	23.4375	55.9962	23.4375	54.2405	23.4375	56.9575	23.4375	54.9945	23.4375	57.9288	23.4375	56.068	23.4375	58.8591	23.4375	57.2851	23.4375	59.7138	23.4375	58.4877	23.4375	60.4693	23.4375	59.5747	23.4375	61.108	23.4375	60.4932	23.4375	61.6156	23.4375	61.2201	23.4375	61.9788	23.4375	61.7485	23.4375	62.1852	23.4375	62.0804	23.4375	62.2228
24.9023	56.4303	24.9023	56.2361	24.9023	56.5658	24.9023	56.0192	24.9023	56.6217	24.9023	55.8327	24.9023	56.5908	24.9023	55.7445	24.9023	56.4822	24.9023	55.826	24.9023	56.3275	24.9023	56.1276	24.9023	56.1911	24.9023	56.6562	24.9023	56.1746	24.9023	57.3715	24.9023	56.3947	24.9023	58.2056	24.9023	56.9257	24.9023	59.0881	24.9023	57.7435	24.9023	59.9605	24.9023	58.7377	24.9023	60.7792	24.9023	59.7764	24.9023	61.5134	24.9023	60.7541	24.9023	62.1402	24.9023	61.604	24.9023	62.6414	24.9023	62.2896	24.9023	63.002	24.9023	62.7942	24.9023	63.2085	24.9023	63.1131	24.9023	63.2488
26.3672	58.047	26.3672	57.9106	26.3672	58.157	26.3672	57.7798	26.3672	58.2209	26.3672	57.6986	26.3672	58.2322	26.3672	57.7173	26.3672	58.1999	26.3672	57.8827	26.3672	58.1527	26.3672	58.2225	26.3672	58.1431	26.3672	58.7347	26.3672	58.2457	26.3672	59.3878	26.3672	58.5375	26.3672	60.1332	26.3672	59.0617	26.3672	60.9191	26.3672	59.7982	26.3672	61.6997	26.3672	60.6706	26.3672	62.4381	26.3672	61.5824	26.3672	63.1058	26.3672	62.4493	26.3672	63.68	26.3672	63.2116	26.3672	64.1422	26.3672	63.8326	26.3672	64.4766	26.3672	64.2928	26.3672	64.6692	26.3672	64.5846	26.3672	64.7082
27.832	60.3519	27.832	60.2558	27.832	60.4285	27.832	60.1618	27.832	60.4722	27.832	60.0994	27.832	60.4795	27.832	60.1033	27.832	60.4576	27.832	60.208	27.832	60.4278	27.832	60.4393	27.832	60.4279	27.832	60.8067	27.832	60.5108	27.832	61.299	27.832	60.7334	27.832	61.8876	27.832	61.1338	27.832	62.5345	27.832	61.7097	27.832	63.2	27.832	62.4144	27.832	63.8477	27.832	63.1761	27.832	64.4466	27.832	63.9216	27.832	64.9707	27.832	64.5921	27.832	65.3984	27.832	65.1472	27.832	65.7114	27.832	65.5625	27.832	65.8946	27.832	65.8263	27.832	65.9357
29.2969	62.1286	29.2969	62.0348	29.2969	62.212	29.2969	61.949	29.2969	62.2734	29.2969	61.8963	29.2969	62.3095	29.2969	61.905	29.2969	62.3261	29.2969	62.0033	29.2969	62.3402	29.2969	62.212	29.2969	62.3811	29.2969	62.5393	29.2969	62.4886	29.2969	62.977	29.2969	62.705	29.2969	63.5029	29.2969	63.0597	29.2969	64.0855	29.2969	63.5543	29.2969	64.6905	29.2969	64.1575	29.2969	65.285	29.2969	64.815	29.2969	65.8397	29.2969	65.4666	29.2969	66.3292	29.2969	66.0596	29.2969	66.732	29.2969	66.5547	29.2969	67.03	29.2969	66.9265	29.2969	67.2079	29.2969	67.1612	29.2969	67.2542
30.7617	63.7287	30.7617	63.6383	30.7617	63.812	30.7617	63.5572	30.7617	63.8778	30.7617	63.5068	30.7617	63.923	30.7617	63.5116	30.7617	63.9525	30.7617	63.5955	30.7617	63.9809	30.7617	63.7769	30.7617	64.0332	30.7617	64.0642	30.7617	64.1429	30.7617	64.4524	30.7617	64.3454	30.7617	64.9241	30.7617	64.6658	30.7617	65.4529	30.7617	65.107	30.7617	66.0086	30.7617	65.6447	30.7617	66.5606	30.7617	66.2338	30.7617	67.0807	30.7617	66.822	30.7617	67.544	30.7617	67.3608	30.7617	67.9287	30.7617	67.8127	30.7617	68.2164	30.7617	68.1519	30.7617	68.3918	30.7617	68.364	30.7617	68.4434
32.2266	65.2251	32.2266	65.1561	32.2266	65.2942	32.2266	65.1003	32.2266	65.3551	32.2266	65.0745	32.2266	65.4054	32.2266	65.098	32.2266	65.4493	32.2266	65.189	32.2266	65.4986	32.2266	65.362	32.2266	65.5729	32.2266	65.6237	32.2266	65.6978	32.2266	65.9707	32.2266	65.8999	32.2266	66.3903	32.2266	66.198	32.2266	66.8618	32.2266	66.5949	32.2266	67.3601	32.2266	67.0725	32.2266	67.8587	32.2266	67.5955	32.2266	68.3321	32.2266	68.1205	32.2266	68.7565	32.2266	68.6052	32.2266	69.111	32.2266	69.0146	32.2266	69.3773	32.2266	69.3237	32.2266	69.5405	32.2266	69.5175	32.2266	69.5895
33.6914	66.8752	33.6914	66.8095	33.6914	66.9423	33.6914	66.7561	33.6914	67.0038	33.6914	66.7291	33.6914	67.0572	33.6914	66.7442	33.6914	67.1057	33.6914	66.8169	33.6914	67.1587	33.6914	66.9598	33.6914	67.2318	33.6914	67.1797	33.6914	67.3458	33.6914	67.4757	33.6914	67.5227	33.6914	67.8389	33.6914	67.7793	33.6914	68.2529	33.6914	68.1198	33.6914	68.6968	33.6914	68.5318	33.6914	69.1469	33.6914	68.9876	33.6914	69.5792	33.6914	69.45	33.6914	69.971	33.6914	69.8812	33.6914	70.3015	33.6914	70.248	33.6914	70.5524	33.6914	70.5257	33.6914	70.7088	33.6914	70.6986	33.6914	70.7596
35.1562	68.2903	35.1562	68.2322	35.1562	68.3543	35.1562	68.1891	35.1562	68.4181	35.1562	68.1725	35.1562	68.4797	35.1562	68.1951	35.1562	68.5413	35.1562	68.2694	35.1562	68.6102	35.1562	68.4056	35.1562	68.6988	35.1562	68.6092	35.1562	68.8231	35.1562	68.8797	35.1562	69.0004	35.1562	69.2099	35.1562	69.2435	35.1562	69.5867	35.1562	69.556	35.1562	69.9921	35.1562	69.928	35.1562	70.4053	35.1562	70.3368	35.1562	70.8048	35.1562	70.7514	35.1562	71.1693	35.1562	71.1385	35.1562	71.479	35.1562	71.4681	35.1562	71.7164	35.1562	71.7171	35.1562	71.8671	35.1562	71.8702	35.1562	71.9203
36.6211	69.4944	36.6211	69.4403	36.6211	69.5552	36.6211	69.4008	36.6211	69.6177	36.6211	69.3859	36.6211	69.6798	36.6211	69.4066	36.6211	69.7435	36.6211	69.4738	36.6211	69.8149	36.6211	69.5963	36.6211	69.9044	36.6211	69.7795	36.6211	70.0256	36.6211	70.0237	36.6211	70.1928	36.6211	70.3233	36.6211	70.4171	36.6211	70.667	36.6211	70.702	36.6211	71.0393	36.6211	71.0393	36.6211	71.4215	36.6211	71.41	36.6211	71.7934	36.6211	71.7868	36.6211	72.1349	36.6211	72.1399	36.6211	72.427	36.6211	72.4413	36.6211	72.6525	36.6211	72.669	36.6211	72.7972	36.6211	72.808	36.6211	72.8509
38.0859	70.7741	38.0859	70.7235	38.0859	70.8332	38.0859	70.6879	38.0859	70.8963	38.0859	70.6757	38.0859	70.9619	38.0859	70.6958	38.0859	71.0313	38.0859	70.7574	38.0859	71.1092	38.0859	70.8682	38.0859	71.2037	38.0859	71.0328	38.0859	71.3257	38.0859	71.2519	38.0859	71.4865	38.0859	71.5215	38.0859	71.695	38.0859	71.8323	38.0859	71.9539	38.0859	72.1711	38.0859	72.2569	38.0859	72.5213	38.0859	72.5883	38.0859	72.8648	38.0859	72.9249	38.0859	73.1827	38.0859	73.2406	38.0859	73.4569	38.0859	73.5101	38.0859	73.6709	38.0859	73.7127	38.0859	73.811	38.0859	73.8341	38.0859	73.8671
39.5508	71.877	39.5508	71.8316	39.5508	71.9342	39.5508	71.8034	39.5508	71.9992	39.5508	71.7995	39.5508	72.0704	39.5508	71.8275	39.5508	72.1488	39.5508	71.8947	39.5508	72.2381	39.5508	72.0073	39.5508	72.3445	39.5508	72.1689	39.5508	72.4764	39.5508	72.3797	39.5508	72.6426	39.5508	72.6359	39.5508	72.8496	39.5508	72.9293	39.5508	73.0989	39.5508	73.2482	39.5508	73.3846	39.5508	73.5778	39.5508	73.693	39.5508	73.9015	39.5508	74.0039	39.5508	74.202	39.5508	74.2941	39.5508	74.4623	39.5508	74.5409	39.5508	74.6669	39.5508	74.7253	39.5508	74.8026	39.5508	74.834	39.5508	74.8599
41.0156	73.2949	41.0156	73.2512	41.0156	73.3501	41.0156	73.2239	41.0156	73.4137	41.0156	73.2185	41.0156	73.4836	41.0156	73.2409	41.0156	73.5601	41.0156	73.2969	41.0156	73.6455	41.0156	73.3912	41.0156	73.7444	41.0156	73.5266	41.0156	73.8628	41.0156	73.7036	41.0156	74.0074	41.0156	73.9196	41.0156	74.1838	41.0156	74.1684	41.0156	74.3935	41.0156	74.4409	41.0156	74.6326	41.0156	74.725	41.0156	74.8906	41.0156	75.0066	41.0156	75.1515	41.0156	75.2705	41.0156	75.3958	41.0156	75.5015	41.0156	75.6039	41.0156	75.6852	41.0156	75.7587	41.0156	75.8093	41.0156	75.848	41.0156	75.8651
42.4805	74.1108	42.4805	74.0713	42.4805	74.1621	42.4805	74.0473	42.4805	74.2225	42.4805	74.0434	42.4805	74.2905	42.4805	74.0648	42.4805	74.3664	42.4805	74.1166	42.4805	74.452	42.4805	74.203	42.4805	74.5511	42.4805	74.3272	42.4805	74.6687	42.4805	74.4901	42.4805	74.8101	42.4805	74.6897	42.4805	74.9798	42.4805	74.9212	42.4805	75.1789	42.4805	75.1763	42.4805	75.4037	42.4805	75.4441	42.4805	75.6449	42.4805	75.7112	42.4805	75.8878	42.4805	75.9633	42.4805	76.1148	42.4805	76.1853	42.4805	76.3075	42.4805	76.3632	42.4805	76.45	42.4805	76.4852	42.4805	76.5304	42.4805	76.5424
43.9453	75.0543	43.9453	75.0157	43.9453	75.1046	43.9453	74.9919	43.9453	75.1645	43.9453	74.9871	43.9453	75.2331	43.9453	75.0059	43.9453	75.311	43.9453	75.0529	43.9453	75.3997	43.9453	75.1322	43.9453	75.502	43.9453	75.2469	43.9453	75.6217	43.9453	75.3978	43.9453	75.7623	43.9453	75.5835	43.9453	75.9268	43.9453	75.7998	43.9453	76.1153	43.9453	76.0391	43.9453	76.3245	43.9453	76.2915	43.9453	76.5461	43.9453	76.5446	43.9453	76.7676	43.9453	76.7848	43.9453	76.9734	43.9453	76.9977	43.9453	77.1473	43.9453	77.17	43.9453	77.2745	43.9453	77.29	43.9453	77.3439	43.9453	77.3494
45.4102	75.8862	45.4102	75.8453	45.4102	75.94	45.4102	75.8201	45.4102	76.0046	45.4102	75.814	45.4102	76.0789	45.4102	75.8311	45.4102	76.163	45.4102	75.8752	45.4102	76.2576	45.4102	75.9498	45.4102	76.3645	45.4102	76.0572	45.4102	76.486	45.4102	76.1982	45.4102	76.6247	45.4102	76.3715	45.4102	76.7823	45.4102	76.5731	45.4102	76.9587	45.4102	76.7967	45.4102	77.1507	45.4102	77.033	45.4102	77.3513	45.4102	77.271	45.4102	77.5497	45.4102	77.498	45.4102	77.7325	45.4102	77.7008	45.4102	77.8852	45.4102	77.8669	45.4102	77.9946	45.4102	77.9852	45.4102	78.0507	45.4102	78.0478
46.875	76.6079	46.875	76.5683	46.875	76.6609	46.875	76.5443	46.875	76.7252	46.875	76.539	46.875	76.8	46.875	76.5557	46.875	76.8847	46.875	76.5976	46.875	76.9799	46.875	76.6674	46.875	77.0864	46.875	76.7672	46.875	77.2059	46.875	76.8977	46.875	77.3399	46.875	77.0576	46.875	77.4895	46.875	77.2436	46.875	77.6542	46.875	77.4502	46.875	77.8312	46.875	77.6692	46.875	78.0142	46.875	77.8906	46.875	78.1938	46.875	78.1029	46.875	78.3581	46.875	78.2938	46.875	78.4942	46.875	78.4515	46.875	78.5901	46.875	78.5657	46.875	78.6366	46.875	78.6287
48.3398	77.2579	48.3398	77.2183	48.3398	77.3109	48.3398	77.1943	48.3398	77.3758	48.3398	77.1881	48.3398	77.4517	48.3398	77.2026	48.3398	77.5378	48.3398	77.2403	48.3398	77.6341	48.3398	77.3037	48.3398	77.741	48.3398	77.3944	48.3398	77.859	48.3398	77.513	48.3398	77.9888	48.3398	77.6587	48.3398	78.1306	48.3398	77.8286	48.3398	78.2837	48.3398	78.0179	48.3398	78.4452	48.3398	78.2197	48.3398	78.6097	48.3398	78.4249	48.3398	78.7691	48.3398	78.623	48.3398	78.913	48.3398	78.803	48.3398	79.0303	48.3398	78.9535	48.3398	79.1105	48.3398	79.0651	48.3398	79.1453	48.3398	79.1302
51.2695	78.2735	51.2695	78.2326	51.2695	78.3285	51.2695	78.2073	51.2695	78.3962	51.2695	78.1994	51.2695	78.4754	51.2695	78.2106	51.2695	78.5651	51.2695	78.2428	51.2695	78.6643	51.2695	78.2974	51.2695	78.7721	51.2695	78.3755	51.2695	78.8879	51.2695	78.4774	51.2695	79.0108	51.2695	78.6022	51.2695	79.1399	51.2695	78.7479	51.2695	79.2737	51.2695	78.9106	51.2695	79.4096	51.2695	79.0849	51.2695	79.5435	51.2695	79.2636	51.2695	79.6695	51.2695	79.438	51.2695	79.7798	51.2695	79.5988	51.2695	79.8661	51.2695	79.7364	51.2695	79.9202	51.2695	79.8423	51.2695	79.936	51.2695	79.91
52.7344	78.6614	52.7344	78.6212	52.7344	78.7165	52.7344	78.5972	52.7344	78.7852	52.7344	78.5908	52.7344	78.8662	52.7344	78.6033	52.7344	78.9582	52.7344	78.6358	52.7344	79.0597	52.7344	78.6894	52.7344	79.1694	52.7344	78.7648	52.7344	79.2858	52.7344	78.8618	52.7344	79.4075	52.7344	78.9797	52.7344	79.533	52.7344	79.1164	52.7344	79.6604	52.7344	79.2687	52.7344	79.7873	52.7344	79.4316	52.7344	79.9099	52.7344	79.5989	52.7344	80.0231	52.7344	79.7627	52.7344	80.1203	52.7344	79.9146	52.7344	80.1944	52.7344	80.0459	52.7344	80.2383	52.7344	80.1486	52.7344	80.2467	52.7344	80.2167
54.1992	79.0524	54.1992	79.0151	54.1992	79.1046	54.1992	78.9938	54.1992	79.1707	54.1992	78.9893	54.1992	79.2496	54.1992	79.0024	54.1992	79.3398	54.1992	79.0339	54.1992	79.4398	54.1992	79.0843	54.1992	79.5477	54.1992	79.154	54.1992	79.6615	54.1992	79.243	54.1992	79.7794	54.1992	79.3504	54.1992	79.8994	54.1992	79.4748	54.1992	80.0193	54.1992	79.6132	54.1992	80.1366	54.1992	79.7617	54.1992	80.2478	54.1992	79.9149	54.1992	80.3484	54.1992	80.0658	54.1992	80.4328	54.1992	80.2071	54.1992	80.495	54.1992	80.3306	54.1992	80.529	54.1992	80.4291	54.1992	80.5304	54.1992	80.4969
55.6641	79.3244	55.6641	79.2883	55.6641	79.3754	55.6641	79.268	55.6641	79.4407	55.6641	79.2639	55.6641	79.519	55.6641	79.2767	55.6641	79.6089	55.6641	79.3066	55.6641	79.7087	55.6641	79.3541	55.6641	79.8161	55.6641	79.4192	55.6641	79.9288	55.6641	79.5016	55.6641	80.0443	55.6641	79.6008	55.6641	80.1601	55.6641	79.7152	55.6641	80.2737	55.6641	79.8427	55.6641	80.3824	55.6641	79.9797	55.6641	80.4832	55.6641	80.1215	55.6641	80.572	55.6641	80.2621	55.6641	80.6443	55.6641	80.3947	55.6641	80.695	55.6641	80.5122	55.6641	80.7192	55.6641	80.6077	55.6641	80.7134	55.6641	80.6759
58.5938	79.8089	58.5938	79.77	58.5938	79.8624	58.5938	79.7462	58.5938	79.9297	58.5938	79.7374	58.5938	80.0097	58.5938	79.7437	58.5938	80.1007	58.5938	79.7651	58.5938	80.2002	58.5938	79.8016	58.5938	80.3056	58.5938	79.8529	58.5938	80.4136	58.5938	79.919	58.5938	80.5211	58.5938	79.9992	58.5938	80.6249	58.5938	80.0928	58.5938	80.7222	58.5938	80.1982	58.5938	80.8105	58.5938	80.3131	58.5938	80.8871	58.5938	80.4339	58.5938	80.9494	58.5938	80.5563	58.5938	80.9945	58.5938	80.6748	58.5938	81.0193	58.5938	80.7834	58.5938	81.021	58.5938	80.8765	58.5938	80.9977	58.5938	80.9491
60.0586	79.9146	60.0586	79.8754	60.0586	79.9685	60.0586	79.8512	60.0586	80.0365	60.0586	79.8419	60.0586	80.1173	60.0586	79.8474	60.0586	80.2092	60.0586	79.8674	60.0586	80.3096	60.0586	79.9016	60.0586	80.4156	60.0586	79.9498	60.0586	80.5235	60.0586	80.0117	60.0586	80.6299	60.0586	80.0866	60.0586	80.7313	60.0586	80.1739	60.0586	80.8246	60.0586	80.2722	60.0586	80.907	60.0586	80.3796	60.0586	80.9762	60.0586	80.493	60.0586	81.0298	60.0586	80.6086	60.0586	81.0655	60.0586	80.7216	60.0586	81.0812	60.0586	80.8267	60.0586	81.0748	60.0586	80.9185	60.0586	81.0452	60.0586	80.9925
62.9883	80.441	62.9883	80.3989	62.9883	80.4973	62.9883	80.3711	62.9883	80.5671	62.9883	80.3575	62.9883	80.6489	62.9883	80.3576	62.9883	80.7405	62.9883	80.3706	62.9883	80.8391	62.9883	80.3961	62.9883	80.9409	62.9883	80.4332	62.9883	81.0422	62.9883	80.4816	62.9883	81.1387	62.9883	80.5407	62.9883	81.2269	62.9883	80.61	62.9883	81.3034	62.9883	80.6888	62.9883	81.3659	62.9883	80.7759	62.9883	81.4127	62.9883	80.8694	62.9883	81.4425	62.9883	80.9669	62.9883	81.4546	62.9883	81.0648	62.9883	81.4485	62.9883	81.1593	62.9883	81.4239	62.9883	81.246	62.9883	81.381	62.9883	81.321
64.4531	80.6605	64.4531	80.6169	64.4531	80.7173	64.4531	80.5866	64.4531	80.7866	64.4531	80.5694	64.4531	80.8669	64.4531	80.5647	64.4531	80.9561	64.4531	80.5717	64.4531	81.0511	64.4531	80.5899	64.4531	81.1481	64.4531	80.6186	64.4531	81.2433	64.4531	80.6573	64.4531	81.3324	64.4531	80.7057	64.4531	81.4118	64.4531	80.7636	64.4531	81.4781	64.4531	80.8305	64.4531	81.5293	64.4531	80.9058	64.4531	81.5637	64.4531	80.9882	64.4531	81.5808	64.4531	81.0757	64.4531	81.5804	64.4531	81.1657	64.4531	81.5629	64.4531	81.2547	64.4531	81.5286	64.4531	81.3388	64.4531	81.4786	64.4531	81.4146
67.3828	80.9091	67.3828	80.8635	67.3828	80.966	67.3828	80.8295	67.3828	81.0333	67.3828	80.8071	67.3828	81.1096	67.3828	80.7959	67.3828	81.1929	67.3828	80.7954	67.3828	81.2802	67.3828	80.8048	67.3828	81.3682	67.3828	80.8235	67.3828	81.4532	67.3828	80.8512	67.3828	81.531	67.3828	80.8874	67.3828	81.5981	67.3828	80.932	67.3828	81.6514	67.3828	80.9849	67.3828	81.6886	67.3828	81.0457	67.3828	81.7086	67.3828	81.1138	67.3828	81.7113	67.3828	81.1881	67.3828	81.6972	67.3828	81.2666	67.3828	81.6673	67.3828	81.3469	67.3828	81.6233	67.3828	81.4257	67.3828	81.5668	67.3828	81.5001
68.8477	80.9119	68.8477	80.8685	68.8477	80.9671	68.8477	80.837	68.8477	81.0333	68.8477	80.8172	68.8477	81.1093	68.8477	80.8083	68.8477	81.1928	68.8477	80.8097	68.8477	81.2811	68.8477	80.8205	68.8477	81.3705	68.8477	80.8399	68.8477	81.4569	68.8477	80.8672	68.8477	81.5363	68.8477	80.9022	68.8477	81.6045	68.8477	80.9446	68.8477	81.6582	68.8477	80.9944	68.8477	81.6951	68.8477	81.0514	68.8477	81.7137	68.8477	81.1154	68.8477	81.714	68.8477	81.1855	68.8477	81.6968	68.8477	81.2602	68.8477	81.6635	68.8477	81.3376	68.8477	81.6161	68.8477	81.4149	68.8477	81.5571	68.8477	81.4891
71.7773	81.0254	71.7773	80.9799	71.7773	81.0832	71.7773	80.9468	71.7773	81.1524	71.7773	80.9259	71.7773	81.2314	71.7773	80.9165	71.7773	81.318	71.7773	80.9175	71.7773	81.4092	71.7773	80.9278	71.7773	81.5012	71.7773	80.9463	71.7773	81.5899	71.7773	80.9718	71.7773	81.6709	71.7773	81.0039	71.7773	81.7397	71.7773	81.0421	71.7773	81.7925	71.7773	81.0864	71.7773	81.8262	71.7773	81.1369	71.7773	81.8391	71.7773	81.1939	71.7773	81.8312	71.7773	81.2573	71.7773	81.8036	71.7773	81.3268	71.7773	81.7588	71.7773	81.4011	71.7773	81.7002	71.7773	81.4785	71.7773	81.6314	71.7773	81.5563
74.707	81.4604	74.707	81.4187	74.707	81.5157	74.707	81.3906	74.707	81.584	74.707	81.3752	74.707	81.6635	74.707	81.3713	74.707	81.7515	74.707	81.3771	74.707	81.8446	74.707	81.3907	74.707	81.9384	74.707	81.4103	74.707	82.028	74.707	81.4345	74.707	82.1084	74.707	81.4623	74.707	82.1745	74.707	81.4932	74.707	82.222	74.707	81.5273	74.707	82.248	74.707	81.5653	74.707	82.2511	74.707	81.6082	74.707	82.2317	74.707	81.6572	74.707	82.1921	74.707	81.7129	74.707	82.1363	74.707	81.7758	74.707	82.069	74.707	81.8451	74.707	81.995	74.707	81.9191
77.6367	81.7091	77.6367	81.6669	77.6367	81.7637	77.6367	81.6371	77.6367	81.8303	77.6367	81.6187	77.6367	81.907	77.6367	81.6103	77.6367	81.9914	77.6367	81.61	77.6367	82.08	77.6367	81.616	77.6367	82.1682	77.6367	81.6263	77.6367	82.2511	77.6367	81.6396	77.6367	82.3235	77.6367	81.6549	77.6367	82.3801	77.6367	81.672	77.6367	82.4166	77.6367	81.6915	77.6367	82.43	77.6367	81.7146	77.6367	82.4192	77.6367	81.743	77.6367	82.3853	77.6367	81.7789	77.6367	82.3312	77.6367	81.8239	77.6367	82.2619	77.6367	81.8792	77.6367	82.1829	77.6367	81.9449	77.6367	82.1003	77.6367	82.0195
79.1016	81.7444	79.1016	81.7024	79.1016	81.7983	79.1016	81.6721	79.1016	81.8636	79.1016	81.6524	79.1016	81.9389	79.1016	81.6417	79.1016	82.0214	79.1016	81.6383	79.1016	82.1077	79.1016	81.6401	79.1016	82.1932	79.1016	81.6454	79.1016	82.2727	79.1016	81.6528	79.1016	82.3409	79.1016	81.6614	79.1016	82.3924	79.1016	81.6714	79.1016	82.423	79.1016	81.6833	79.1016	82.4298	79.1016	81.6989	79.1016	82.4119	79.1016	81.7202	79.1016	82.3705	79.1016	81.7495	79.1016	82.3092	79.1016	81.7892	79.1016	82.2332	79.1016	81.8407	79.1016	82.1487	79.1016	81.9044	79.1016	82.0621	79.1016	81.9792
82.0312	81.9866	82.0312	81.9372	82.0312	82.0458	82.0312	81.8976	82.0312	82.114	82.0312	81.8671	82.0312	82.1893	82.0312	81.8445	82.0312	82.2692	82.0312	81.8282	82.0312	82.3499	82.0312	81.8166	82.0312	82.427	82.0312	81.8084	82.0312	82.4957	82.0312	81.8023	82.0312	82.551	82.0312	81.7978	82.0312	82.588	82.0312	81.7951	82.0312	82.6031	82.0312	81.7953	82.0312	82.5939	82.0312	81.8001	82.0312	82.56	82.0312	81.812	82.0312	82.5031	82.0312	81.8337	82.0312	82.4273	82.0312	81.868	82.0312	82.3382	82.0312	81.9167	82.0312	82.2425	82.0312	81.9804	82.0312	82.1472	82.0312	82.0582
84.9609	82.1989	84.9609	82.1444	84.9609	82.2636	84.9609	82.1003	84.9609	82.3371	84.9609	82.0663	84.9609	82.4173	84.9609	82.0411	84.9609	82.5011	84.9609	82.0233	84.9609	82.5846	84.9609	82.0113	84.9609	82.6635	84.9609	82.0032	84.9609	82.7331	84.9609	81.998	84.9609	82.7887	84.9609	81.9948	84.9609	82.826	84.9609	81.9938	84.9609	82.8412	84.9609	81.9959	84.9609	82.8321	84.9609	82.0028	84.9609	82.798	84.9609	82.0171	84.9609	82.7405	84.9609	82.0416	84.9609	82.6634	84.9609	82.079	84.9609	82.5721	84.9609	82.1313	84.9609	82.4733	84.9609	82.1991	84.9609	82.3742	84.9609	82.2811
87.8906	81.8402	87.8906	81.8035	87.8906	81.8932	87.8906	81.7825	87.8906	81.9619	87.8906	81.7762	87.8906	82.0449	87.8906	81.7825	87.8906	82.1402	87.8906	81.7992	87.8906	82.2445	87.8906	81.8237	87.8906	82.3539	87.8906	81.8536	87.8906	82.4633	87.8906	81.8867	87.8906	82.567	87.8906	81.9217	87.8906	82.6584	87.8906	81.958	87.8906	82.7313	87.8906	81.9959	87.8906	82.7803	87.8906	82.0367	87.8906	82.8016	87.8906	82.0824	87.8906	82.7938	87.8906	82.1353	87.8906	82.7582	87.8906	82.1973	87.8906	82.6987	87.8906	82.2696	87.8906	82.6212	87.8906	82.3516	87.8906	82.5329	87.8906	82.4409
90.8203	82.2117	90.8203	82.1784	90.8203	82.2558	90.8203	82.1554	90.8203	82.311	90.8203	82.1412	90.8203	82.3765	90.8203	82.1339	90.8203	82.4508	90.8203	82.1314	90.8203	82.5313	90.8203	82.1312	90.8203	82.6144	90.8203	82.1313	90.8203	82.6953	90.8203	82.1302	90.8203	82.7682	90.8203	82.1271	90.8203	82.8268	90.8203	82.1224	90.8203	82.865	90.8203	82.1176	90.8203	82.8779	90.8203	82.1154	90.8203	82.8625	90.8203	82.1194	90.8203	82.8186	90.8203	82.134	90.8203	82.7491	90.8203	82.1632	90.8203	82.66	90.8203	82.2102	90.8203	82.5594	90.8203	82.2761	90.8203	82.4563	90.8203	82.3596
95.2148	82.5419	95.2148	82.5095	95.2148	82.5789	95.2148	82.4805	95.2148	82.6213	95.2148	82.4539	95.2148	82.6695	95.2148	82.4284	95.2148	82.7234	95.2148	82.4026	95.2148	82.7816	95.2148	82.3755	95.2148	82.8417	95.2148	82.346	95.2148	82.8996	95.2148	82.3137	95.2148	82.95	95.2148	82.2789	95.2148	82.9867	95.2148	82.2426	95.2148	83.0031	95.2148	82.2072	95.2148	82.9941	95.2148	82.1762	95.2148	82.9563	95.2148	82.1543	95.2148	82.8894	95.2148	82.1465	95.2148	82.7969	95.2148	82.1583	95.2148	82.6858	95.2148	82.1939	95.2148	82.5657	95.2148	82.2552	95.2148	82.4475	95.2148	82.3413
98.1445	82.7055	98.1445	82.6596	98.1445	82.7537	98.1445	82.6162	98.1445	82.8042	98.1445	82.5752	98.1445	82.8564	98.1445	82.5365	98.1445	82.9097	98.1445	82.4994	98.1445	82.9627	98.1445	82.4631	98.1445	83.0129	98.1445	82.4269	98.1445	83.0569	98.1445	82.39	98.1445	83.0901	98.1445	82.352	98.1445	83.1073	98.1445	82.3135	98.1445	83.1033	98.1445	82.276	98.1445	83.0742	98.1445	82.2421	98.1445	83.0176	98.1445	82.216	98.1445	82.9347	98.1445	82.2026	98.1445	82.8297	98.1445	82.2072	98.1445	82.7103	98.1445	82.2346	98.1445	82.5865	98.1445	82.2878	98.1445	82.4689	98.1445	82.367
101.074	82.6699	101.074	82.6218	101.074	82.7259	101.074	82.5816	101.074	82.7895	101.074	82.5487	101.074	82.8596	101.074	82.5219	101.074	82.9343	101.074	82.5	101.074	83.0108	101.074	82.4809	101.074	83.0849	101.074	82.4629	101.074	83.1516	101.074	82.4442	101.074	83.2049	101.074	82.4237	101.074	83.2389	101.074	82.4012	101.074	83.2478	101.074	82.3778	101.074	83.2279	101.074	82.3563	101.074	83.1774	101.074	82.3406	101.074	83.098	101.074	82.336	101.074	82.9944	101.074	82.348	101.074	82.8749	101.074	82.3817	101.074	82.7497	101.074	82.4403	101.074	82.6295	101.074	82.524
105.469	82.7436	105.469	82.7034	105.469	82.8008	105.469	82.6796	105.469	82.8743	105.469	82.6705	105.469	82.9617	105.469	82.6732	105.469	83.0594	105.469	82.684	105.469	83.1624	105.469	82.6993	105.469	83.2648	105.469	82.7151	105.469	83.3599	105.469	82.7285	105.469	83.4407	105.469	82.7372	105.469	83.5003	105.469	82.7403	105.469	83.533	105.469	82.7387	105.469	83.5345	105.469	82.7348	105.469	83.5035	105.469	82.7328	105.469	83.4415	105.469	82.7379	105.469	83.3537	105.469	82.7559	105.469	83.2484	105.469	82.7918	105.469	83.1355	105.469	82.849	105.469	83.0257	105.469	82.928
108.398	83.0555	108.398	83.0158	108.398	83.1006	108.398	82.9811	108.398	83.1508	108.398	82.9506	108.398	83.205	108.398	82.923	108.398	83.2617	108.398	82.8965	108.398	83.3187	108.398	82.8693	108.398	83.373	108.398	82.84	108.398	83.4208	108.398	82.8072	108.398	83.4576	108.398	82.7708	108.398	83.4782	108.398	82.7315	108.398	83.4775	108.398	82.6912	108.398	83.4515	108.398	82.6536	108.398	83.3979	108.398	82.6233	108.398	83.3177	108.398	82.6058	108.398	83.2152	108.398	82.6068	108.398	83.098	108.398	82.6314	108.398	82.9761	108.398	82.6825	108.398	82.8602	108.398	82.7599
112.793	83.0778	112.793	83.0313	112.793	83.1287	112.793	82.9891	112.793	83.1833	112.793	82.951	112.793	83.2408	112.793	82.9158	112.793	83.2996	112.793	82.8823	112.793	83.3579	112.793	82.849	112.793	83.4132	112.793	82.8143	112.793	83.4619	112.793	82.7773	112.793	83.4999	112.793	82.7375	112.793	83.5218	112.793	82.6958	112.793	83.5222	112.793	82.6541	112.793	83.4963	112.793	82.616	112.793	83.4413	112.793	82.5862	112.793	83.3574	112.793	82.5707	112.793	83.2486	112.793	82.5755	112.793	83.1228	112.793	82.6059	112.793	82.9904	112.793	82.6647	112.793	82.8632	112.793	82.7519
117.188	83.1695	117.188	83.1175	117.188	83.2207	117.188	83.0653	117.188	83.2708	117.188	83.0133	117.188	83.3192	117.188	82.9618	117.188	83.3659	117.188	82.9105	117.188	83.4103	117.188	82.8593	117.188	83.4514	117.188	82.8079	117.188	83.4872	117.188	82.7563	117.188	83.5143	117.188	82.705	117.188	83.5283	117.188	82.6556	117.188	83.5239	117.188	82.6105	117.188	83.4962	117.188	82.5734	117.188	83.4422	117.188	82.5489	117.188	83.3615	117.188	82.542	117.188	83.2569	117.188	82.5575	117.188	83.135	117.188	82.599	117.188	83.005	117.188	82.6678	117.188	82.8775	117.188	82.7624
120.117	83.424	120.117	83.3658	120.117	83.4779	120.117	83.3041	120.117	83.527	120.117	83.2391	120.117	83.5705	120.117	83.1708	120.117	83.6076	120.117	83.0989	120.117	83.6373	120.117	83.0228	120.117	83.6581	120.117	82.942	120.117	83.6677	120.117	82.8566	120.117	83.6626	120.117	82.7675	120.117	83.6386	120.117	82.6767	120.117	83.5914	120.117	82.5879	120.117	83.5173	120.117	82.5062	120.117	83.4148	120.117	82.4382	120.117	83.2857	120.117	82.3914	120.117	83.1355	120.117	82.3732	120.117	82.9733	120.117	82.3896	120.117	82.8111	120.117	82.4441	120.117	82.6616	120.117	82.5363
124.512	83.4125	124.512	83.3503	124.512	83.4691	124.512	83.283	124.512	83.5196	124.512	83.2111	124.512	83.5633	124.512	83.1346	124.512	83.5996	124.512	83.0533	124.512	83.6276	124.512	82.9668	124.512	83.6457	124.512	82.8749	124.512	83.6513	124.512	82.7777	124.512	83.6409	124.512	82.6765	124.512	83.6099	124.512	82.5735	124.512	83.5538	124.512	82.4729	124.512	83.4688	124.512	82.3801	124.512	83.3536	124.512	82.3025	124.512	83.2102	124.512	82.2481	124.512	83.0448	124.512	82.2249	124.512	82.8674	124.512	82.2397	124.512	82.6909	124.512	82.2963	124.512	82.5291	124.512	82.3944
128.906	83.2672	128.906	83.2071	128.906	83.323	128.906	83.1432	128.906	83.3739	128.906	83.0762	128.906	83.4195	128.906	83.0065	128.906	83.4595	128.906	82.9341	128.906	83.4934	128.906	82.8583	128.906	83.5198	128.906	82.7785	128.906	83.5357	128.906	82.6939	128.906	83.537	128.906	82.6046	128.906	83.5179	128.906	82.5115	128.906	83.4723	128.906	82.4174	128.906	83.3952	128.906	82.3271	128.906	83.2843	128.906	82.2477	128.906	83.1414	128.906	82.1879	128.906	82.973	128.906	82.1571	128.906	82.7907	128.906	82.1638	128.906	82.6091	128.906	82.214	128.906	82.4437	128.906	82.3088
133.301	83.1665	133.301	83.1062	133.301	83.2256	133.301	83.0455	133.301	83.2826	133.301	82.9855	133.301	83.337	133.301	82.9266	133.301	83.3881	133.301	82.8689	133.301	83.4352	133.301	82.8115	133.301	83.4764	133.301	82.7531	133.301	83.5085	133.301	82.6923	133.301	83.5267	133.301	82.628	133.301	83.5251	133.301	82.5602	133.301	83.4973	133.301	82.4907	133.301	83.4381	133.301	82.4232	133.301	83.3451	133.301	82.3638	133.301	83.22	133.301	82.3204	133.301	83.0693	133.301	82.3016	133.301	82.9038	133.301	82.3154	133.301	82.7374	133.301	82.3672	133.301	82.5846	133.301	82.4582
139.16	83.2488	139.16	83.1796	139.16	83.3166	139.16	83.1104	139.16	83.3816	139.16	83.0426	139.16	83.4423	139.16	82.9769	139.16	83.4974	139.16	82.9133	139.16	83.5457	139.16	82.8511	139.16	83.5852	139.16	82.789	139.16	83.6131	139.16	82.7253	139.16	83.625	139.16	82.6584	139.16	83.6149	139.16	82.5877	139.16	83.5762	139.16	82.5142	139.16	83.5032	139.16	82.4409	139.16	83.3933	139.16	82.3734	139.16	83.2485	139.16	82.3195	139.16	83.077	139.16	82.2887	139.16	82.892	139.16	82.2907	139.16	82.71	139.16	82.333	139.16	82.548	139.16	82.4195
143.555	83.2854	143.555	83.2069	143.555	83.3562	143.555	83.1232	143.555	83.4171	143.555	83.0368	143.555	83.4664	143.555	82.9496	143.555	83.5035	143.555	82.8631	143.555	83.5285	143.555	82.778	143.555	83.542	143.555	82.6944	143.555	83.544	143.555	82.6124	143.555	83.5333	143.555	82.532	143.555	83.5069	143.555	82.454	143.555	83.4599	143.555	82.3801	143.555	83.3875	143.555	82.3136	143.555	83.2862	143.555	82.2593	143.555	83.1562	143.555	82.2233	143.555	83.0026	143.555	82.2125	143.555	82.8353	143.555	82.2332	143.555	82.6674	143.555	82.2903	143.555	82.5131	143.555	82.3847
147.949	83.3607	147.949	83.2665	147.949	83.44	147.949	83.1611	147.949	83.5014	147.949	83.0484	147.949	83.543	147.949	82.932	147.949	83.5646	147.949	82.8147	147.949	83.5672	147.949	82.6986	147.949	83.5527	147.949	82.5848	147.949	83.5226	147.949	82.4737	147.949	83.4771	147.949	82.3659	147.949	83.4146	147.949	82.2624	147.949	83.3317	147.949	82.1651	147.949	83.2249	147.949	82.0777	147.949	83.0922	147.949	82.0054	147.949	82.9348	147.949	81.9549	147.949	82.7586	147.949	81.9334	147.949	82.5737	147.949	81.9476	147.949	82.3931	147.949	82.0019	147.949	82.2304	147.949	82.0973
153.809	82.9589	153.809	82.8808	153.809	83.0218	153.809	82.7904	153.809	83.069	153.809	82.6919	153.809	83.103	153.809	82.5902	153.809	83.1286	153.809	82.4898	153.809	83.1519	153.809	82.3939	153.809	83.1778	153.809	82.3047	153.809	83.2078	153.809	82.2232	153.809	83.2385	153.809	82.1497	153.809	83.2615	153.809	82.0844	153.809	83.2654	153.809	82.0282	153.809	83.2382	153.809	81.9834	153.809	83.1713	153.809	81.9537	153.809	83.0622	153.809	81.9446	153.809	82.9153	153.809	81.9623	153.809	82.742	153.809	82.0127	153.809	82.5579	153.809	82.1	153.809	82.3803	153.809	82.2241
159.668	82.9457	159.668	82.856	159.668	83.0275	159.668	82.7613	159.668	83.1005	159.668	82.6647	159.668	83.1649	159.668	82.5698	159.668	83.2223	159.668	82.479	159.668	83.2745	159.668	82.394	159.668	83.3225	159.668	82.3151	159.668	83.3654	159.668	82.2419	159.668	83.3995	159.668	82.1743	159.668	83.4182	159.668	82.1126	159.668	83.4132	159.668	82.0588	159.668	83.3764	159.668	82.0169	159.668	83.3022	159.668	81.9925	159.668	83.1892	159.668	81.9923	159.668	83.0413	159.668	82.023	159.668	82.868	159.668	82.0895	159.668	82.6823	159.668	82.1934	159.668	82.499	159.668	82.3323
165.527	83.035	165.527	82.9523	165.527	83.1088	165.527	82.8637	165.527	83.1718	165.527	82.773	165.527	83.2237	165.527	82.6835	165.527	83.2662	165.527	82.5976	165.527	83.302	165.527	82.5164	165.527	83.3336	165.527	82.4399	165.527	83.3616	165.527	82.3671	165.527	83.3833	165.527	82.2973	165.527	83.3922	165.527	82.2303	165.527	83.3793	165.527	82.1676	165.527	83.3356	165.527	82.1128	165.527	83.2546	165.527	82.0717	165.527	83.1353	165.527	82.0514	165.527	82.9831	165.527	82.0595	165.527	82.8087	165.527	82.1023	165.527	82.6271	165.527	82.1835	165.527	82.4537	165.527	82.3024
171.387	82.9458	171.387	82.8611	171.387	83.0174	171.387	82.7672	171.387	83.0738	171.387	82.6688	171.387	83.1152	171.387	82.5705	171.387	83.1443	171.387	82.476	171.387	83.1651	171.387	82.3875	171.387	83.1822	171.387	82.3056	171.387	83.1982	171.387	82.2301	171.387	83.2124	171.387	82.1602	171.387	83.2197	171.387	82.0957	171.387	83.2114	171.387	82.0381	171.387	83.1778	171.387	81.9907	171.387	83.1113	171.387	81.9589	171.387	83.0092	171.387	81.9494	171.387	82.8745	171.387	81.9686	171.387	82.7163	171.387	82.0216	171.387	82.5473	171.387	82.1103	171.387	82.3816	171.387	82.2325
177.246	83.0515	177.246	82.9471	177.246	83.138	177.246	82.8298	177.246	83.2028	177.246	82.7053	177.246	83.2441	177.246	82.5794	177.246	83.2627	177.246	82.4571	177.246	83.2622	177.246	82.3426	177.246	83.2481	177.246	82.2388	177.246	83.2263	177.246	82.1478	177.246	83.2012	177.246	82.0704	177.246	83.1735	177.246	82.0075	177.246	83.1396	177.246	81.96	177.246	83.093	177.246	81.9297	177.246	83.0266	177.246	81.9193	177.246	82.9356	177.246	81.9318	177.246	82.8198	177.246	81.9703	177.246	82.6839	177.246	82.0368	177.246	82.5365	177.246	82.1312	177.246	82.3885	177.246	82.2504
183.105	83.1414	183.105	83.035	183.105	83.2255	183.105	82.9118	183.105	83.2832	183.105	82.7773	183.105	83.3121	183.105	82.6367	183.105	83.3116	183.105	82.4942	183.105	83.2829	183.105	82.3527	183.105	83.2283	183.105	82.2142	183.105	83.15	183.105	82.0795	183.105	83.0494	183.105	81.9499	183.105	82.9272	183.105	81.8271	183.105	82.785	183.105	81.7146	183.105	82.6264	183.105	81.617	183.105	82.4578	183.105	81.5404	183.105	82.2875	183.105	81.491	183.105	82.1236	183.105	81.4735	183.105	81.9719	183.105	81.4899	183.105	81.8354	183.105	81.5386	183.105	81.7158	183.105	81.6155
188.965	82.7772	188.965	82.7032	188.965	82.8254	188.965	82.6064	188.965	82.8483	188.965	82.4918	188.965	82.8501	188.965	82.3654	188.965	82.839	188.965	82.2332	188.965	82.8254	188.965	82.1007	188.965	82.8187	188.965	81.9721	188.965	82.8232	188.965	81.8507	188.965	82.8347	188.965	81.7383	188.965	82.841	188.965	81.6364	188.965	82.8247	188.965	81.5463	188.965	82.7696	188.965	81.4704	188.965	82.666	188.965	81.4123	188.965	82.5146	188.965	81.3771	188.965	82.3267	188.965	81.3712	188.965	82.1203	188.965	81.4006	188.965	81.9162	188.965	81.4699	188.965	81.7322	188.965	81.5812
196.289	82.7769	196.289	82.6905	196.289	82.8356	196.289	82.5809	196.289	82.8647	196.289	82.4549	196.289	82.8662	196.289	82.3198	196.289	82.8457	196.289	82.183	196.289	82.8123	196.289	82.0504	196.289	82.7761	196.289	81.9269	196.289	82.7461	196.289	81.8155	196.289	82.7264	196.289	81.7185	196.289	82.7146	196.289	81.6374	196.289	82.7018	196.289	81.574	196.289	82.6755	196.289	81.5306	196.289	82.6243	196.289	81.5099	196.289	82.5415	196.289	81.5152	196.289	82.4269	196.289	81.5496	196.289	82.287	196.289	81.6148	196.289	82.133	196.289	81.7106	196.289	81.9778	196.289	81.8338
203.613	82.9947	203.613	82.8987	203.613	83.0551	203.613	82.7717	203.613	83.0774	203.613	82.6199	203.613	83.0625	203.613	82.45	203.613	83.0148	203.613	82.2688	203.613	82.9427	203.613	82.0828	203.613	82.8561	203.613	81.8985	203.613	82.7646	203.613	81.7221	203.613	82.6744	203.613	81.5605	203.613	82.5866	203.613	81.4205	203.613	82.4985	203.613	81.3093	203.613	82.4055	203.613	81.2334	203.613	82.3041	203.613	81.1977	203.613	82.1935	203.613	81.2041	203.613	82.0748	203.613	81.2506	203.613	81.9502	203.613	81.3315	203.613	81.8213	203.613	81.4379	203.613	81.6901	203.613	81.5603
210.938	82.7424	210.938	82.6455	210.938	82.8035	210.938	82.5178	210.938	82.8271	210.938	82.3664	210.938	82.8155	210.938	82.1996	210.938	82.7755	210.938	82.0261	210.938	82.717	210.938	81.8532	210.938	82.6517	210.938	81.687	210.938	82.5893	210.938	81.5317	210.938	82.5339	210.938	81.3899	210.938	82.4824	210.938	81.2641	210.938	82.4255	210.938	81.1573	210.938	82.3519	210.938	81.0737	210.938	82.2527	210.938	81.019	210.938	82.1255	210.938	80.9994	210.938	81.9738	210.938	81.0195	210.938	81.8063	210.938	81.0806	210.938	81.6332	210.938	81.1798	210.938	81.4649	210.938	81.3107
218.262	82.377	218.262	82.2706	218.262	82.4454	218.262	82.1346	218.262	82.4722	218.262	81.9807	218.262	82.4601	218.262	81.8219	218.262	82.4184	218.262	81.6704	218.262	82.3616	218.262	81.5359	218.262	82.3059	218.262	81.4243	218.262	82.2644	218.262	81.3374	218.262	82.2422	218.262	81.2737	218.262	82.2342	218.262	81.2298	218.262	82.2281	218.262	81.2022	218.262	82.2097	218.262	81.1891	218.262	82.1681	218.262	81.1911	218.262	82.0991	218.262	81.2111	218.262	82.0048	218.262	81.2525	218.262	81.8911	218.262	81.3178	218.262	81.766	218.262	81.4067	218.262	81.638	218.262	81.5156
225.586	82.6559	225.586	82.5383	225.586	82.7226	225.586	82.3788	225.586	82.7352	225.586	82.1901	225.586	82.6971	225.586	81.9871	225.586	82.6196	225.586	81.7844	225.586	82.5202	225.586	81.5946	225.586	82.4193	225.586	81.4267	225.586	82.334	225.586	81.2856	225.586	82.272	225.586	81.1722	225.586	82.2284	225.586	81.0856	225.586	82.1893	225.586	81.0242	225.586	82.1387	225.586	80.9881	225.586	82.0661	225.586	80.9788	225.586	81.97	225.586	80.9986	225.586	81.8558	225.586	81.0487	225.586	81.7312	225.586	81.1273	225.586	81.6022	225.586	81.2291	225.586	81.4729	225.586	81.3468
232.91	82.4362	232.91	82.2991	232.91	82.5178	232.91	82.1156	232.91	82.5395	232.91	81.8979	232.91	82.5027	232.91	81.6609	232.91	82.4162	232.91	81.4213	232.91	82.2969	232.91	81.1966	232.91	82.168	232.91	81.0029	232.91	82.0541	232.91	80.8528	232.91	81.9734	232.91	80.7526	232.91	81.9297	232.91	80.7018	232.91	81.9114	232.91	80.6937	232.91	81.8975	232.91	80.7191	232.91	81.8679	232.91	80.7688	232.91	81.8108	232.91	80.8368	232.91	81.7251	232.91	80.9197	232.91	81.6171	232.91	81.0164	232.91	81.4959	232.91	81.1254	232.91	81.3695	232.91	81.2444
241.699	82.3938	241.699	82.2579	241.699	82.4668	241.699	82.0664	241.699	82.4735	241.699	81.8301	241.699	82.4157	241.699	81.5621	241.699	82.3018	241.699	81.2772	241.699	82.1463	241.699	80.9918	241.699	81.9683	241.699	80.7213	241.699	81.7877	241.699	80.4797	241.699	81.6204	241.699	80.2774	241.699	81.4748	241.699	80.1209	241.699	81.3511	241.699	80.014	241.699	81.2436	241.699	79.958	241.699	81.1455	241.699	79.9529	241.699	81.0511	241.699	79.9967	241.699	80.9559	241.699	80.0836	241.699	80.8556	241.699	80.2035	241.699	80.7457	241.699	80.3425	241.699	80.6224	241.699	80.486
250.488	82.3975	250.488	82.2277	250.488	82.4922	250.488	81.9903	250.488	82.5087	250.488	81.6971	250.488	82.4496	250.488	81.363	250.488	82.3244	250.488	81.0065	250.488	82.151	250.488	80.6489	250.488	81.9548	250.488	80.3132	250.488	81.7648	250.488	80.0225	250.488	81.6055	250.488	79.7968	250.488	81.4888	250.488	79.6494	250.488	81.4099	250.488	79.5843	250.488	81.3516	250.488	79.5961	250.488	81.2932	250.488	79.6727	250.488	81.2191	250.488	79.7987	250.488	81.1221	250.488	79.9592	250.488	81.0011	250.488	80.1404	250.488	80.8582	250.488	80.3302	250.488	80.696	250.488	80.5181
259.277	82.5036	259.277	82.3234	259.277	82.6139	259.277	82.0831	259.277	82.6491	259.277	81.7964	259.277	82.6092	259.277	81.4798	259.277	82.5011	259.277	81.1515	259.277	82.3387	259.277	80.8311	259.277	82.1422	259.277	80.5374	259.277	81.9344	259.277	80.2876	259.277	81.7347	259.277	80.0948	259.277	81.5544	259.277	79.9665	259.277	81.3955	259.277	79.9037	259.277	81.2555	259.277	79.9016	259.277	81.1328	259.277	79.9516	259.277	81.0281	259.277	80.0435	259.277	80.9409	259.277	80.1661	259.277	80.8651	259.277	80.3065	259.277	80.7881	259.277	80.4504	259.277	80.6969	259.277	80.5838
268.066	82.389	268.066	82.198	268.066	82.5103	268.066	81.9456	268.066	82.5558	268.066	81.6413	268.066	82.5229	268.066	81.2969	268.066	82.4152	268.066	80.9263	268.066	82.245	268.066	80.548	268.066	82.0356	268.066	80.1852	268.066	81.8178	268.066	79.8661	268.066	81.6223	268.066	79.6194	268.066	81.4678	268.066	79.4675	268.066	81.3533	268.066	79.4181	268.066	81.2611	268.066	79.4616	268.066	81.1693	268.066	79.5751	268.066	81.0636	268.066	79.7312	268.066	80.9423	268.066	79.9054	268.066	80.8117	268.066	80.0806	268.066	80.6779	268.066	80.2466	268.066	80.542	268.066	80.3998
276.855	82.2193	276.855	82.0782	276.855	82.2981	276.855	81.8823	276.855	82.3093	276.855	81.6393	276.855	82.2515	276.855	81.3561	276.855	82.1295	276.855	81.0387	276.855	81.9567	276.855	80.693	276.855	81.7544	276.855	80.3277	276.855	81.5493	276.855	79.9582	276.855	81.3674	276.855	79.6104	276.855	81.2274	276.855	79.3215	276.855	81.1357	276.855	79.1337	276.855	81.0859	276.855	79.0803	276.855	81.0627	276.855	79.1695	276.855	81.0471	276.855	79.3792	276.855	81.0212	276.855	79.6654	276.855	80.9691	276.855	79.9788	276.855	80.8773	276.855	80.2776	276.855	80.7345	276.855	80.5341
287.109	82.305	287.109	82.1928	287.109	82.3457	287.109	82.0165	287.109	82.3134	287.109	81.7877	287.109	82.2149	287.109	81.5192	287.109	82.0656	287.109	81.2225	287.109	81.8885	287.109	80.9058	287.109	81.7082	287.109	80.5733	287.109	81.5444	287.109	80.2275	287.109	81.405	287.109	79.8731	287.109	81.287	287.109	79.5247	287.109	81.1821	287.109	79.2113	287.109	81.0849	287.109	78.9777	287.109	80.995	287.109	78.8726	287.109	80.9134	287.109	78.9269	287.109	80.8334	287.109	79.1328	287.109	80.7369	287.109	79.4434	287.109	80.599	287.109	79.7938	287.109	80.3975	287.109	80.1246
297.363	82.7448	297.363	82.6479	297.363	82.7256	297.363	82.4432	297.363	82.5893	297.363	82.1451	297.363	82.3449	297.363	81.7745	297.363	82.0164	297.363	81.3586	297.363	81.6447	297.363	80.9298	297.363	81.2838	297.363	80.521	297.363	80.9875	297.363	80.1593	297.363	80.7877	297.363	79.8593	297.363	80.6804	297.363	79.6204	297.363	80.63	297.363	79.4299	297.363	80.5911	297.363	79.2738	297.363	80.5282	297.363	79.1477	297.363	80.4248	297.363	79.0627	297.363	80.2794	297.363	79.0401	297.363	80.0979	297.363	79.0977	297.363	79.8883	297.363	79.2359	297.363	79.6609	297.363	79.4341
307.617	82.7343	307.617	82.5653	307.617	82.818	307.617	82.329	307.617	82.7993	307.617	82.0411	307.617	82.6662	307.617	81.7136	307.617	82.4174	307.617	81.3551	307.617	82.0674	307.617	80.973	307.617	81.6503	307.617	80.5762	307.617	81.218	307.617	80.1793	307.617	80.8295	307.617	79.8051	307.617	80.5314	307.617	79.484	307.617	80.3397	307.617	79.2476	307.617	80.2393	307.617	79.1186	307.617	80.1998	307.617	79.102	307.617	80.1912	307.617	79.1834	307.617	80.1895	307.617	79.335	307.617	80.1741	307.617	79.5246	307.617	80.1271	307.617	79.7209	307.617	80.0359	307.617	79.8976
319.336	82.2907	319.336	82.0849	319.336	82.4149	319.336	81.8175	319.336	82.4416	319.336	81.5106	319.336	82.3603	319.336	81.1853	319.336	82.1682	319.336	80.8581	319.336	81.8721	319.336	80.5382	319.336	81.4908	319.336	80.2283	319.336	81.0562	319.336	79.929	319.336	80.6115	319.336	79.6443	319.336	80.2057	319.336	79.3881	319.336	79.8851	319.336	79.1857	319.336	79.6828	319.336	79.0669	319.336	79.6081	319.336	79.0534	319.336	79.6416	319.336	79.1447	319.336	79.7399	319.336	79.3148	319.336	79.8497	319.336	79.5201	319.336	79.9238	319.336	79.7141	319.336	79.9309	319.336	79.8589
329.59	82.0197	329.59	81.8415	329.59	82.1187	329.59	81.599	329.59	82.1286	329.59	81.3099	329.59	82.0461	329.59	80.9918	329.59	81.8754	329.59	80.6596	329.59	81.6291	329.59	80.3223	329.59	81.3268	329.59	79.9837	329.59	80.9909	329.59	79.6448	329.59	80.6405	329.59	79.3089	329.59	80.2887	329.59	78.9875	329.59	79.9477	329.59	78.7055	329.59	79.6401	329.59	78.4997	329.59	79.4039	329.59	78.4095	329.59	79.2776	329.59	78.4573	329.59	79.2689	329.59	78.63	329.59	79.3367	329.59	78.8773	329.59	79.4084	329.59	79.1294	329.59	79.4158	329.59	79.3219
341.309	82.2847	341.309	82.1299	341.309	82.3322	341.309	81.8775	341.309	82.2687	341.309	81.5427	341.309	82.0987	341.309	81.1458	341.309	81.8384	341.309	80.7122	341.309	81.5182	341.309	80.2707	341.309	81.1811	341.309	79.8509	341.309	80.8709	341.309	79.4783	341.309	80.6147	341.309	79.1686	341.309	80.4097	341.309	78.925	341.309	80.2299	341.309	78.7424	341.309	80.0496	341.309	78.6171	341.309	79.8672	341.309	78.5573	341.309	79.7094	341.309	78.5819	341.309	79.6078	341.309	78.7036	341.309	79.5649	341.309	78.9069	341.309	79.5422	341.309	79.1424	341.309	79.4828	341.309	79.3487
353.027	82.3032	353.027	82.0857	353.027	82.4091	353.027	81.7757	353.027	82.3932	353.027	81.3989	353.027	82.2574	353.027	80.9833	353.027	82.0186	353.027	80.5546	353.027	81.709	353.027	80.1307	353.027	81.3709	353.027	79.7201	353.027	81.0435	353.027	79.3248	353.027	80.7461	353.027	78.9472	353.027	80.4718	353.027	78.5979	353.027	80.1975	353.027	78.298	353.027	79.9073	353.027	78.0765	353.027	79.612	353.027	77.961	353.027	79.3482	353.027	77.9668	353.027	79.1528	353.027	78.086	353.027	79.0318	353.027	78.2843	353.027	78.9504	353.027	78.5096	353.027	78.8559	353.027	78.7103
366.211	82.2074	366.211	82.032	366.211	82.2772	366.211	81.772	366.211	82.2253	366.211	81.4484	366.211	82.0456	366.211	81.079	366.211	81.7472	366.211	80.6786	366.211	81.3594	366.211	80.2609	366.211	80.9355	366.211	79.8419	366.211	80.5508	366.211	79.4408	366.211	80.2785	366.211	79.0758	366.211	80.1454	366.211	78.7579	366.211	80.1051	366.211	78.4871	366.211	80.0673	366.211	78.2588	366.211	79.9575	366.211	78.0755	366.211	79.7537	366.211	77.9559	366.211	79.4848	366.211	77.9292	366.211	79.2001	366.211	78.0124	366.211	78.9305	366.211	78.1913	366.211	78.6753	366.211	78.425
379.395	82.2185	379.395	82.0275	379.395	82.3286	379.395	81.7716	379.395	82.3471	379.395	81.4698	379.395	82.2694	379.395	81.1384	379.395	82.0954	379.395	80.7869	379.395	81.8274	379.395	80.4183	379.395	81.4709	379.395	80.033	379.395	81.0368	379.395	79.6366	379.395	80.5478	379.395	79.247	379.395	80.0462	379.395	78.8943	379.395	79.5989	379.395	78.6127	379.395	79.2835	379.395	78.4265	379.395	79.1468	379.395	78.3433	379.395	79.1666	379.395	78.358	379.395	79.2608	379.395	78.4602	379.395	79.3383	379.395	78.634	379.395	79.3394	379.395	78.8513	379.395	79.2452	379.395	79.0703
392.578	81.8475	392.578	81.6116	392.578	81.9792	392.578	81.3007	392.578	81.9869	392.578	80.9525	392.578	81.8608	392.578	80.6072	392.578	81.6072	392.578	80.2962	392.578	81.2569	392.578	80.0291	392.578	80.8669	392.578	79.7886	392.578	80.5035	392.578	79.5393	392.578	80.206	392.578	79.2452	392.578	79.9571	392.578	78.8877	392.578	79.6933	392.578	78.4775	392.578	79.352	392.578	78.058	392.578	78.9232	392.578	77.6973	392.578	78.4722	392.578	77.4644	392.578	78.1115	392.578	77.3951	392.578	77.9151	392.578	77.468	392.578	77.8525	392.578	77.6129	392.578	77.8236	392.578	77.7481
405.762	81.3598	405.762	81.1481	405.762	81.4313	405.762	80.8214	405.762	81.3509	405.762	80.4184	405.762	81.1238	405.762	79.9905	405.762	80.778	405.762	79.596	405.762	80.3705	405.762	79.2865	405.762	79.9853	405.762	79.0883	405.762	79.7116	405.762	78.9909	405.762	79.6033	405.762	78.952	405.762	79.6423	405.762	78.9176	405.762	79.7447	405.762	78.8415	405.762	79.807	405.762	78.7003	405.762	79.7535	405.762	78.5004	405.762	79.56	405.762	78.2782	405.762	79.254	405.762	78.0893	405.762	78.8988	405.762	77.9849	405.762	78.5626	405.762	77.9887	405.762	78.2894	405.762	78.0951
420.41	82.2463	420.41	82.047	420.41	82.225	420.41	81.6546	420.41	81.9779	420.41	81.1147	420.41	81.5273	420.41	80.4906	420.41	80.9309	420.41	79.8632	420.41	80.2862	420.41	79.3298	420.41	79.7197	420.41	78.9908	420.41	79.3503	420.41	78.9111	420.41	79.2325	420.41	79.0748	420.41	79.3338	420.41	79.385	420.41	79.5721	420.41	79.7184	420.41	79.8684	420.41	79.9822	420.41	80.163	420.41	80.1355	420.41	80.4071	420.41	80.1852	420.41	80.5596	420.41	80.1724	420.41	80.5985	420.41	80.1543	420.41	80.5331	420.41	80.1803	420.41	80.4046	420.41	80.2703
435.059	84.0826	435.059	83.8971	435.059	84.0606	435.059	83.5184	435.059	83.8163	435.059	82.9605	435.059	83.3368	435.059	82.2369	435.059	82.6157	435.059	81.3635	435.059	81.6686	435.059	80.3722	435.059	80.5658	435.059	79.3405	435.059	79.4825	435.059	78.4344	435.059	78.7115	435.059	77.9099	435.059	78.5112	435.059	77.966	435.059	78.8692	435.059	78.5446	435.059	79.5518	435.059	79.3875	435.059	80.3379	435.059	80.2534	435.059	81.0954	435.059	81.0102	435.059	81.744	435.059	81.6138	435.059	82.2298	435.059	82.067	435.059	82.5256	435.059	82.3864	435.059	82.6345	435.059	82.5795
451.172	84.0175	451.172	83.7547	451.172	84.1121	451.172	83.3369	451.172	84.02	451.172	82.7768	451.172	83.7166	451.172	82.0914	451.172	83.1773	451.172	81.3053	451.172	82.3895	451.172	80.4479	451.172	81.3722	451.172	79.5486	451.172	80.2033	451.172	78.633	451.172	79.0569	451.172	77.7356	451.172	78.1904	451.172	76.9402	451.172	77.7898	451.172	76.4314	451.172	77.8185	451.172	76.448	451.172	78.1322	451.172	77.0571	451.172	78.6429	451.172	78.0334	451.172	79.289	451.172	79.0628	451.172	79.9577	451.172	79.9314	451.172	80.505	451.172	80.5355	451.172	80.8172	451.172	80.8338
465.82	83.8146	465.82	83.5988	465.82	83.8787	465.82	83.2427	465.82	83.7789	465.82	82.758	465.82	83.5042	465.82	82.1596	465.82	83.0485	465.82	81.4686	465.82	82.4121	465.82	80.7124	465.82	81.6007	465.82	79.9251	465.82	80.6265	465.82	79.1499	465.82	79.5267	465.82	78.4476	465.82	78.4137	465.82	77.9002	465.82	77.5395	465.82	77.599	465.82	77.2394	465.82	77.6121	465.82	77.6273	465.82	77.9494	465.82	78.4447	465.82	78.5455	465.82	79.3466	465.82	79.2741	465.82	80.1186	465.82	79.9867	465.82	80.6589	465.82	80.5527	465.82	80.919	465.82	80.8798
483.398	83.5181	483.398	83.3218	483.398	83.5698	483.398	83.0021	483.398	83.4579	483.398	82.5859	483.398	83.1651	483.398	82.1045	483.398	82.6815	483.398	81.5843	483.398	82.019	483.398	81.0357	483.398	81.2232	483.398	80.4488	483.398	80.3745	483.398	79.806	483.398	79.5745	483.398	79.1046	483.398	78.9188	483.398	78.3801	483.398	78.4677	483.398	77.7215	483.398	78.2496	483.398	77.2748	483.398	78.2996	483.398	77.2036	483.398	78.6439	483.398	77.5821	483.398	79.2129	483.398	78.3046	483.398	79.8282	483.398	79.141	483.398	80.2964	483.398	79.8691	483.398	80.4864	483.398	80.3414
499.512	83.8968	499.512	83.7011	499.512	83.9261	499.512	83.3615	499.512	83.7763	499.512	82.9095	499.512	83.4465	499.512	82.3814	499.512	82.9489	499.512	81.812	499.512	82.3068	499.512	81.2265	499.512	81.5443	499.512	80.6347	499.512	80.6751	499.512	80.0329	499.512	79.7139	499.512	79.4165	499.512	78.7324	499.512	78.8034	499.512	77.9313	499.512	78.2613	499.512	77.6113	499.512	77.9186	499.512	77.9239	499.512	77.9173	499.512	78.6789	499.512	78.301	499.512	79.5395	499.512	78.9552	499.512	80.2592	499.512	79.6831	499.512	80.7176	499.512	80.3116	499.512	80.8738	499.512	80.729
517.09	83.2616	517.09	82.9644	517.09	83.3845	517.09	82.5306	517.09	83.3235	517.09	82.0236	517.09	83.0945	517.09	81.5196	517.09	82.7328	517.09	81.0808	517.09	82.2801	517.09	80.7257	517.09	81.765	517.09	80.4217	517.09	81.1866	517.09	80.1075	517.09	80.5086	517.09	79.7246	517.09	79.6694	517.09	79.2319	517.09	78.6249	517.09	78.6103	517.09	77.4681	517.09	77.894	517.09	76.6447	517.09	77.2569	517.09	76.8396	517.09	77.0729	517.09	78.006	517.09	77.6394	517.09	79.3558	517.09	78.7296	517.09	80.3318	517.09	79.823	517.09	80.739	517.09	80.5498
536.133	83.679	536.133	83.363	536.133	83.7531	536.133	82.84	536.133	83.5695	536.133	82.1683	536.133	83.132	536.133	81.4308	536.133	82.4709	536.133	80.7253	536.133	81.6572	536.133	80.1402	536.133	80.8109	536.133	79.7198	536.133	80.0845	536.133	79.4422	536.133	79.5915	536.133	79.2321	536.133	79.3032	536.133	79.0081	536.133	79.0455	536.133	78.7268	536.133	78.6443	536.133	78.4047	536.133	78.0914	536.133	78.1263	536.133	77.6524	536.133	78.032	536.133	77.7416	536.133	78.2438	536.133	78.3961	536.133	78.7339	536.133	79.1635	536.133	79.2928	536.133	79.6317	536.133	79.6559
555.176	83.382	555.176	83.148	555.176	83.4092	555.176	82.7202	555.176	83.232	555.176	82.1298	555.176	82.8646	555.176	81.4276	555.176	82.3261	555.176	80.6775	555.176	81.6298	555.176	79.9458	555.176	80.7799	555.176	79.3002	555.176	79.7952	555.176	78.816	555.176	78.7615	555.176	78.5498	555.176	77.8771	555.176	78.4718	555.176	77.3987	555.176	78.4527	555.176	77.4287	555.176	78.354	555.176	77.7931	555.176	78.1331	555.176	78.2312	555.176	77.8976	555.176	78.6034	555.176	77.8647	555.176	78.899	555.176	78.1593	555.176	79.1206	555.176	78.6399	555.176	79.199	555.176	79.04
574.219	83.4738	574.219	83.162	574.219	83.5881	574.219	82.6781	574.219	83.5006	574.219	82.0693	574.219	83.2157	574.219	81.3896	574.219	82.7298	574.219	80.6806	574.219	82.0295	574.219	79.9643	574.219	81.117	574.219	79.263	574.219	80.0463	574.219	78.6283	574.219	78.9266	574.219	78.1442	574.219	77.8652	574.219	77.8749	574.219	76.927	574.219	77.791	574.219	76.2409	574.219	77.7721	574.219	76.1311	574.219	77.7107	574.219	76.7879	574.219	77.6285	574.219	77.8462	574.219	77.6944	574.219	78.789	574.219	78.0601	574.219	79.3499	574.219	78.6455	574.219	79.4696	574.219	79.1922
594.727	83.0335	594.727	82.7781	594.727	83.1251	594.727	82.3907	594.727	83.0375	594.727	81.9112	594.727	82.7692	594.727	81.3705	594.727	82.3272	594.727	80.7786	594.727	81.7301	594.727	80.1322	594.727	81.0185	594.727	79.4402	594.727	80.2544	594.727	78.752	594.727	79.4849	594.727	78.1663	594.727	78.6813	594.727	77.7925	594.727	77.723	594.727	77.6625	594.727	76.5432	594.727	77.688	594.727	75.4968	594.727	77.745	594.727	75.4996	594.727	77.8047	594.727	76.6989	594.727	77.9705	594.727	78.0974	594.727	78.3517	594.727	79.0506	594.727	78.88	594.727	79.4331	594.727	79.3208
615.234	82.6439	615.234	82.4534	615.234	82.6403	615.234	82.0883	615.234	82.4412	615.234	81.5887	615.234	82.0586	615.234	81.0052	615.234	81.5192	615.234	80.3818	615.234	80.8693	615.234	79.7453	615.234	80.1601	615.234	79.1167	615.234	79.4218	615.234	78.538	615.234	78.6852	615.234	78.0882	615.234	78.0303	615.234	77.8444	615.234	77.5424	615.234	77.7935	615.234	77.2179	615.234	77.8122	615.234	77.0035	615.234	77.7703	615.234	76.927	615.234	77.6603	615.234	77.1227	615.234	77.6431	615.234	77.6458	615.234	77.9037	615.234	78.2874	615.234	78.3711	615.234	78.7151	615.234	78.7296
637.207	82.2919	637.207	81.9481	637.207	82.4828	637.207	81.4992	637.207	82.5011	637.207	81.0018	637.207	82.3526	637.207	80.4914	637.207	82.0472	637.207	79.9684	637.207	81.5719	637.207	79.418	637.207	80.886	637.207	78.8492	637.207	79.9576	637.207	78.318	637.207	78.8215	637.207	77.9109	637.207	77.6262	637.207	77.6875	637.207	76.6051	637.207	77.6191	637.207	75.9408	637.207	77.5849	637.207	75.7191	637.207	77.4508	637.207	76.0183	637.207	77.1908	637.207	76.766	637.207	76.9785	637.207	77.6169	637.207	77.0948	637.207	78.2126	637.207	77.5762	637.207	78.3789	637.207	78.1137
659.18	82.1514	659.18	82.026	659.18	82.1118	659.18	81.7281	659.18	81.9433	659.18	81.2732	659.18	81.7029	659.18	80.691	659.18	81.4335	659.18	80.0229	659.18	81.1116	659.18	79.3271	659.18	80.6376	659.18	78.6784	659.18	79.9099	659.18	78.1445	659.18	78.9146	659.18	77.7662	659.18	77.7238	659.18	77.5632	659.18	76.4152	659.18	77.5213	659.18	75.1008	659.18	77.5524	659.18	74.234	659.18	77.5197	659.18	74.5459	659.18	77.3584	659.18	75.8163	659.18	77.1889	659.18	77.1107	659.18	77.2604	659.18	77.9466	659.18	77.6438	659.18	78.2451	659.18	78.08
682.617	81.861	682.617	81.6584	682.617	81.8697	682.617	81.3129	682.617	81.6601	682.617	80.8772	682.617	81.2586	682.617	80.3768	682.617	80.7562	682.617	79.799	682.617	80.2809	682.617	79.1276	682.617	79.9182	682.617	78.4109	682.617	79.6309	682.617	77.79	682.617	79.2468	682.617	77.4254	682.617	78.5471	682.617	77.3742	682.617	77.4511	682.617	77.5562	682.617	76.2873	682.617	77.8159	682.617	75.862	682.617	77.9964	682.617	76.4667	682.617	78.0055	682.617	77.3812	682.617	77.8795	682.617	78.0323	682.617	77.7905	682.617	78.3229	682.617	77.8957	682.617	78.3293	682.617	78.1398
707.52	80.9272	707.52	81.1814	707.52	80.6322	707.52	81.3346	707.52	80.3973	707.52	81.3543	707.52	80.3255	707.52	81.1928	707.52	80.4388	707.52	80.7507	707.52	80.6317	707.52	79.8976	707.52	80.7287	707.52	78.5686	707.52	80.5805	707.52	76.9338	707.52	80.0778	707.52	75.629	707.52	79.0498	707.52	75.4959	707.52	77.1431	707.52	76.4387	707.52	73.8653	707.52	77.623	707.52	70.6333	707.52	78.4948	707.52	73.4832	707.52	78.8797	707.52	77.1156	707.52	78.8663	707.52	79.1536	707.52	78.7669	707.52	79.9582	707.52	78.9448	707.52	79.9259	707.52	79.4444
732.422	81.1567	732.422	80.7687	732.422	81.3994	732.422	80.4108	732.422	81.3799	732.422	80.2372	732.422	81.0451	732.422	80.2531	732.422	80.393	732.422	80.2765	732.422	79.5049	732.422	80.0519	732.422	78.627	732.422	79.395	732.422	78.1511	732.422	78.274	732.422	78.2476	732.422	76.857	732.422	78.5577	732.422	75.6006	732.422	78.5354	732.422	75.239	732.422	77.7647	732.422	76.0582	732.422	75.8531	732.422	77.3785	732.422	72.6007	732.422	78.4978	732.422	71.6044	732.422	79.1946	732.422	75.2757	732.422	79.5626	732.422	78.0656	732.422	79.773	732.422	79.4083	732.422	79.8196
757.324	82.3322	757.324	82.0573	757.324	82.5308	757.324	81.7997	757.324	82.5749	757.324	81.5945	757.324	82.4091	757.324	81.3498	757.324	81.9666	757.324	80.8717	757.324	81.1995	757.324	79.9745	757.324	80.2254	757.324	78.5958	757.324	79.422	757.324	76.877	757.324	79.121	757.324	75.2183	757.324	79.1117	757.324	74.2676	757.324	78.8183	757.324	74.4725	757.324	77.8428	757.324	75.4512	757.324	76.3107	757.324	76.531	757.324	75.327	757.324	77.4196	757.324	76.1773	757.324	78.1583	757.324	77.9199	757.324	78.8742	757.324	79.301	757.324	79.5573	757.324	79.9837	757.324	80.0099
785.156	83.3318	785.156	82.8967	785.156	83.6854	785.156	82.5484	785.156	83.7992	785.156	82.3828	785.156	83.5532	785.156	82.3388	785.156	82.8912	785.156	82.2209	785.156	81.8908	785.156	81.8267	785.156	80.8496	785.156	81.052	785.156	80.2226	785.156	79.9085	785.156	80.2219	785.156	78.4798	785.156	80.4276	785.156	76.9538	785.156	80.1255	785.156	75.8836	785.156	78.7639	785.156	76.035	785.156	75.8141	785.156	77.1229	785.156	71.1603	785.156	78.1992	785.156	72.2857	785.156	78.8607	785.156	76.6742	785.156	79.216	785.156	79.0137	785.156	79.5402	785.156	79.8744	785.156	79.8753
811.523	84.3454	811.523	83.7681	811.523	84.6404	811.523	83.0256	811.523	84.6284	811.523	82.3224	811.523	84.3483	811.523	81.8662	811.523	83.8292	811.523	81.6579	811.523	82.995	811.523	81.411	811.523	81.6898	811.523	80.8149	811.523	79.9717	811.523	79.7859	811.523	78.6704	811.523	78.4737	811.523	78.8743	811.523	77.1849	811.523	79.7687	811.523	76.4493	811.523	79.9601	811.523	76.7219	811.523	78.7425	811.523	77.6383	811.523	75.5583	811.523	78.594	811.523	71.9362	811.523	79.4477	811.523	75.5634	811.523	80.2924	811.523	79.2597	811.523	81.0592	811.523	81.0048	811.523	81.4364
840.82	85.037	840.82	84.808	840.82	85.0526	840.82	84.3734	840.82	84.9215	840.82	83.7997	840.82	84.684	840.82	83.1113	840.82	84.245	840.82	82.2414	840.82	83.4281	840.82	81.1278	840.82	82.1849	840.82	79.8654	840.82	80.755	840.82	78.7141	840.82	79.6024	840.82	77.8474	840.82	79.0863	840.82	77.1876	840.82	78.9774	840.82	76.724	840.82	78.6369	840.82	76.7242	840.82	77.6474	840.82	77.2245	840.82	75.9791	840.82	77.8642	840.82	74.6359	840.82	78.4516	840.82	75.81	840.82	79.0885	840.82	78.1856	840.82	79.7761	840.82	79.7256	840.82	80.1512
870.117	85.8902	870.117	85.3763	870.117	85.9074	870.117	84.4906	870.117	85.4234	870.117	83.4157	870.117	84.556	870.117	82.3196	870.117	83.491	870.117	81.3157	870.117	82.3895	870.117	80.3867	870.117	81.2803	870.117	79.4602	870.117	80.1278	870.117	78.6046	870.117	79.3469	870.117	77.863	870.117	79.5556	870.117	77.1336	870.117	80.1042	870.117	76.4749	870.117	80.0699	870.117	76.1657	870.117	78.9759	870.117	76.4166	870.117	76.4223	870.117	77.1703	870.117	73.731	870.117	78.1931	870.117	75.8221	870.117	79.2643	870.117	78.8501	870.117	80.1894	870.117	80.3872	870.117	80.6905
900.879	85.9401	900.879	85.5011	900.879	86.0403	900.879	84.7774	900.879	85.8325	900.879	83.8667	900.879	85.3765	900.879	82.8102	900.879	84.6824	900.879	81.557	900.879	83.6707	900.879	80.0836	900.879	82.1775	900.879	78.5982	900.879	80.0878	900.879	77.4434	900.879	77.7991	900.879	76.6003	900.879	76.8593	900.879	75.9601	900.879	77.8486	900.879	76.0049	900.879	78.8178	900.879	76.7839	900.879	78.594	900.879	77.4317	900.879	77.0286	900.879	77.5156	900.879	74.8651	900.879	77.4355	900.879	75.0662	900.879	78.0726	900.879	77.6553	900.879	79.3052	900.879	79.5466	900.879	80.0301
933.105	86.3573	933.105	85.8704	933.105	86.3565	933.105	85.0141	933.105	85.8478	933.105	83.8777	933.105	84.9746	933.105	82.5281	933.105	83.9272	933.105	81.1687	933.105	82.767	933.105	80.1476	933.105	81.4623	933.105	79.6438	933.105	80.052	933.105	79.2824	933.105	78.7059	933.105	78.2922	933.105	78.0089	933.105	76.3049	933.105	78.5156	933.105	74.4757	933.105	79.0518	933.105	74.9578	933.105	78.4189	933.105	76.4116	933.105	76.1026	933.105	77.1422	933.105	72.5277	933.105	77.1572	933.105	73.8418	933.105	77.6151	933.105	77.7125	933.105	79.0119	933.105	79.7612	933.105	80.0536
965.332	86.1171	965.332	85.8767	965.332	86.0616	965.332	85.2639	965.332	85.7494	965.332	84.186	965.332	85.2214	965.332	82.6693	965.332	84.5113	965.332	80.9695	965.332	83.5711	965.332	79.5799	965.332	82.2486	965.332	79.0628	965.332	80.4711	965.332	79.3464	965.332	78.5253	965.332	79.5313	965.332	77.342	965.332	78.7045	965.332	77.5191	965.332	76.5502	965.332	77.9743	965.332	74.6579	965.332	77.898	965.332	75.8561	965.332	77.0753	965.332	77.6596	965.332	75.2736	965.332	78.209	965.332	74.4836	965.332	77.855	965.332	77.1954	965.332	78.1836	965.332	79.2062	965.332	79.2446
1,000.49	85.9773	1,000.49	85.8605	1,000.49	85.7497	1,000.49	85.3561	1,000.49	85.262	1,000.49	84.3969	1,000.49	84.6521	1,000.49	82.9685	1,000.49	83.9801	1,000.49	81.3044	1,000.49	83.1073	1,000.49	80.0183	1,000.49	81.7903	1,000.49	79.518	1,000.49	79.9763	1,000.49	79.3578	1,000.49	77.9678	1,000.49	79.0225	1,000.49	76.5776	1,000.49	78.0796	1,000.49	76.8261	1,000.49	76.4235	1,000.49	77.4237	1,000.49	74.9838	1,000.49	77.0147	1,000.49	75.3181	1,000.49	75.461	1,000.49	76.8173	1,000.49	73.0791	1,000.49	77.6043	1,000.49	71.8876	1,000.49	77.6572	1,000.49	74.7497	1,000.49	78.0946	1,000.49	77.611	1,000.49	78.5453
1,035.64	85.5538	1,035.64	85.7556	1,035.64	85.1254	1,035.64	85.3667	1,035.64	84.7902	1,035.64	84.2534	1,035.64	84.5938	1,035.64	82.7293	1,035.64	84.3149	1,035.64	81.5367	1,035.64	83.639	1,035.64	81.0649	1,035.64	82.4112	1,035.64	80.5914	1,035.64	80.8231	1,035.64	79.105	1,035.64	79.2195	1,035.64	76.4646	1,035.64	78.142	1,035.64	74.1263	1,035.64	77.7578	1,035.64	73.6734	1,035.64	77.4108	1,035.64	74.5256	1,035.64	77.2699	1,035.64	76.132	1,035.64	77.5621	1,035.64	77.737	1,035.64	77.3166	1,035.64	78.2977	1,035.64	76.078	1,035.64	77.6703	1,035.64	76.2436	1,035.64	77.2478	1,035.64	77.7032	1,035.64	77.8632
1,072.27	85.2152	1,072.27	85.2968	1,072.27	84.8602	1,072.27	84.9539	1,072.27	84.3674	1,072.27	84.0233	1,072.27	83.8367	1,072.27	82.5173	1,072.27	83.3523	1,072.27	81.0117	1,072.27	82.8824	1,072.27	80.4718	1,072.27	81.9973	1,072.27	80.7621	1,072.27	80.1354	1,072.27	80.5637	1,072.27	77.2271	1,072.27	79.1826	1,072.27	75.6996	1,072.27	77.2943	1,072.27	77.6916	1,072.27	76.317	1,072.27	78.7566	1,072.27	76.0025	1,072.27	77.9121	1,072.27	75.4237	1,072.27	74.8624	1,072.27	75.7624	1,072.27	71.0427	1,072.27	77.3265	1,072.27	74.1678	1,072.27	78.3044	1,072.27	77.2955	1,072.27	78.5616	1,072.27	78.7138	1,072.27	78.8464
1,108.89	85.2048	1,108.89	85.172	1,108.89	84.8156	1,108.89	84.7246	1,108.89	84.2172	1,108.89	83.9495	1,108.89	83.6906	1,108.89	82.9016	1,108.89	83.384	1,108.89	81.7413	1,108.89	83.1675	1,108.89	80.8152	1,108.89	82.6594	1,108.89	80.4046	1,108.89	81.6352	1,108.89	80.3193	1,108.89	79.3723	1,108.89	79.9101	1,108.89	75.1442	1,108.89	78.8715	1,108.89	75.6352	1,108.89	77.5569	1,108.89	78.452	1,108.89	76.6823	1,108.89	79.3144	1,108.89	76.7185	1,108.89	77.845	1,108.89	77.5888	1,108.89	73.0515	1,108.89	78.502	1,108.89	70.3907	1,108.89	78.5602	1,108.89	75.7915	1,108.89	77.9106	1,108.89	77.889	1,108.89	77.867
1,148.44	84.7911	1,148.44	85.3033	1,148.44	84.2182	1,148.44	85.4377	1,148.44	83.6886	1,148.44	84.8803	1,148.44	83.0855	1,148.44	83.6908	1,148.44	82.3688	1,148.44	82.547	1,148.44	81.7262	1,148.44	81.9408	1,148.44	81.1873	1,148.44	81.3124	1,148.44	80.4653	1,148.44	80.0011	1,148.44	78.8348	1,148.44	78.0128	1,148.44	75.2674	1,148.44	76.4185	1,148.44	72.5582	1,148.44	76.175	1,148.44	76.7352	1,148.44	76.5217	1,148.44	80.1498	1,148.44	76.756	1,148.44	80.4623	1,148.44	76.8482	1,148.44	77.2888	1,148.44	77.084	1,148.44	71.8567	1,148.44	77.3848	1,148.44	72.7428	1,148.44	77.4404	1,148.44	75.7719	1,148.44	77.0934
1,189.45	84.5479	1,189.45	84.955	1,189.45	84.2438	1,189.45	85.0446	1,189.45	84.1526	1,189.45	84.3667	1,189.45	83.8942	1,189.45	83.0475	1,189.45	83.029	1,189.45	81.7927	1,189.45	81.938	1,189.45	80.5864	1,189.45	81.3243	1,189.45	79.579	1,189.45	80.9843	1,189.45	78.5886	1,189.45	80.0361	1,189.45	77.1584	1,189.45	77.4902	1,189.45	75.9097	1,189.45	73.1205	1,189.45	75.0571	1,189.45	72.1898	1,189.45	75.4749	1,189.45	75.6601	1,189.45	75.3739	1,189.45	77.5678	1,189.45	74.4503	1,189.45	76.4725	1,189.45	74.7007	1,189.45	71.133	1,189.45	76.6795	1,189.45	69.6144	1,189.45	77.457	1,189.45	74.5527	1,189.45	76.6556
1,230.47	84.799	1,230.47	85.3103	1,230.47	84.2206	1,230.47	85.3669	1,230.47	83.6564	1,230.47	84.664	1,230.47	82.9081	1,230.47	83.481	1,230.47	82.1938	1,230.47	82.2436	1,230.47	82.1545	1,230.47	80.6643	1,230.47	82.1566	1,230.47	78.6026	1,230.47	80.9153	1,230.47	76.3745	1,230.47	78.4506	1,230.47	74.998	1,230.47	76.3738	1,230.47	73.3607	1,230.47	74.8286	1,230.47	71.7261	1,230.47	73.9078	1,230.47	73.2406	1,230.47	76.9439	1,230.47	75.4006	1,230.47	78.8015	1,230.47	76.5534	1,230.47	76.8247	1,230.47	76.9091	1,230.47	72.3899	1,230.47	77.0021	1,230.47	71.5611	1,230.47	76.2294	1,230.47	73.0353	1,230.47	74.6203
1,274.41	84.9044	1,274.41	85.1212	1,274.41	84.4759	1,274.41	84.7838	1,274.41	83.8458	1,274.41	83.7969	1,274.41	82.9402	1,274.41	82.7348	1,274.41	82.1776	1,274.41	81.8139	1,274.41	81.5856	1,274.41	80.3486	1,274.41	80.7574	1,274.41	78.131	1,274.41	79.8759	1,274.41	76.7017	1,274.41	79.1524	1,274.41	77.191	1,274.41	77.0925	1,274.41	77.2154	1,274.41	73.0335	1,274.41	74.8757	1,274.41	73.0496	1,274.41	71.3368	1,274.41	75.087	1,274.41	74.3592	1,274.41	75.4121	1,274.41	77.2902	1,274.41	74.7785	1,274.41	77.2082	1,274.41	72.2225	1,274.41	75.8102	1,274.41	67.4451	1,274.41	75.6234	1,274.41	72.6365	1,274.41	75.3757
1,319.82	85.3914	1,319.82	85.8227	1,319.82	84.8067	1,319.82	85.4431	1,319.82	84.4274	1,319.82	84.4528	1,319.82	83.7146	1,319.82	83.7356	1,319.82	82.2195	1,319.82	82.7394	1,319.82	80.7735	1,319.82	80.162	1,319.82	80.2038	1,319.82	76.834	1,319.82	79.5779	1,319.82	75.9495	1,319.82	77.9336	1,319.82	77.1615	1,319.82	75.3488	1,319.82	77.8147	1,319.82	73.7115	1,319.82	75.8708	1,319.82	71.8752	1,319.82	72.6436	1,319.82	72.45	1,319.82	76.4234	1,319.82	76.9147	1,319.82	79.2666	1,319.82	78.1603	1,319.82	78.3815	1,319.82	74.7554	1,319.82	74.9506	1,319.82	67.6807	1,319.82	75.1155	1,319.82	74.6519	1,319.82	76.8307
1,366.7	85.9791	1,366.7	86.8065	1,366.7	84.9561	1,366.7	86.5448	1,366.7	84.5205	1,366.7	85.5658	1,366.7	83.9531	1,366.7	84.5247	1,366.7	82.8652	1,366.7	82.8215	1,366.7	81.685	1,366.7	80.0769	1,366.7	81.086	1,366.7	77.9558	1,366.7	81.4539	1,366.7	77.562	1,366.7	80.9911	1,366.7	77.4354	1,366.7	77.7062	1,366.7	76.8848	1,366.7	73.1815	1,366.7	77.4436	1,366.7	70.7948	1,366.7	77.4724	1,366.7	73.95	1,366.7	74.788	1,366.7	76.6338	1,366.7	74.9785	1,366.7	76.035	1,366.7	78.1105	1,366.7	73.3887	1,366.7	78.0569	1,366.7	72.4853	1,366.7	76.146	1,366.7	75.4553	1,366.7	76.0945
1,413.57	86.0015	1,413.57	86.8429	1,413.57	84.123	1,413.57	86.2796	1,413.57	83.4833	1,413.57	85.6135	1,413.57	84.0452	1,413.57	85.2982	1,413.57	83.4712	1,413.57	84.0495	1,413.57	82.173	1,413.57	82.1242	1,413.57	81.0238	1,413.57	81.4673	1,413.57	80.042	1,413.57	80.2184	1,413.57	79.0549	1,413.57	78.369	1,413.57	77.2288	1,413.57	77.1006	1,413.57	75.4208	1,413.57	76.5109	1,413.57	74.9577	1,413.57	75.5653	1,413.57	73.4666	1,413.57	73.6224	1,413.57	72.0648	1,413.57	74.3757	1,413.57	75.9394	1,413.57	77.0948	1,413.57	76.129	1,413.57	77.0159	1,413.57	69.2743	1,413.57	75.1496	1,413.57	74.2137	1,413.57	76.6174
1,463.38	85.5296	1,463.38	86.3484	1,463.38	84.3031	1,463.38	86.3871	1,463.38	83.5592	1,463.38	86.4159	1,463.38	82.8472	1,463.38	85.6169	1,463.38	82.3251	1,463.38	82.8289	1,463.38	81.9087	1,463.38	80.803	1,463.38	80.7853	1,463.38	81.2812	1,463.38	80.209	1,463.38	80.2371	1,463.38	79.8171	1,463.38	77.722	1,463.38	77.9116	1,463.38	76.6085	1,463.38	74.4269	1,463.38	76.7236	1,463.38	73.5601	1,463.38	75.0781	1,463.38	75.4049	1,463.38	72.847	1,463.38	75.2447	1,463.38	75.81	1,463.38	72.9158	1,463.38	78.884	1,463.38	71.2066	1,463.38	77.1962	1,463.38	72.8204	1,463.38	72.417	1,463.38	71.4526	1,463.38	71.9643
1,516.11	83.9051	1,516.11	85.2316	1,516.11	82.4558	1,516.11	86.0131	1,516.11	81.9911	1,516.11	86.3377	1,516.11	81.9024	1,516.11	84.6479	1,516.11	82.7757	1,516.11	81.747	1,516.11	83.1951	1,516.11	82.2366	1,516.11	81.9098	1,516.11	81.318	1,516.11	80.5331	1,516.11	76.4309	1,516.11	79.1454	1,516.11	72.098	1,516.11	77.7297	1,516.11	74.5252	1,516.11	76.8895	1,516.11	77.7466	1,516.11	75.5433	1,516.11	78.6261	1,516.11	73.5836	1,516.11	76.5658	1,516.11	73.5876	1,516.11	75.2149	1,516.11	75.0442	1,516.11	77.4965	1,516.11	73.5613	1,516.11	77.5626	1,516.11	64.3737	1,516.11	74.4937	1,516.11	72.3269	1,516.11	73.1465
1,568.85	84.5037	1,568.85	84.6978	1,568.85	82.4594	1,568.85	84.9206	1,568.85	80.2189	1,568.85	85.3874	1,568.85	81.2573	1,568.85	84.1519	1,568.85	82.1385	1,568.85	82.9727	1,568.85	80.8279	1,568.85	83.2045	1,568.85	79.5109	1,568.85	80.4653	1,568.85	79.8568	1,568.85	73.6554	1,568.85	78.5165	1,568.85	71.2324	1,568.85	75.8611	1,568.85	69.1983	1,568.85	74.68	1,568.85	61.7673	1,568.85	72.764	1,568.85	68.7703	1,568.85	74.0603	1,568.85	76.671	1,568.85	76.9886	1,568.85	75.571	1,568.85	75.633	1,568.85	75.6883	1,568.85	68.886	1,568.85	75.1734	1,568.85	66.1604	1,568.85	70.6287	1,568.85	66.8432	1,568.85	65.9467
1,624.51	83.774	1,624.51	84.779	1,624.51	81.6801	1,624.51	85.0827	1,624.51	78.7467	1,624.51	84.1857	1,624.51	78.1294	1,624.51	82.7491	1,624.51	80.5771	1,624.51	81.4633	1,624.51	80.7399	1,624.51	79.4098	1,624.51	79.0197	1,624.51	77.678	1,624.51	79.259	1,624.51	75.6736	1,624.51	78.0832	1,624.51	73.5758	1,624.51	75.0157	1,624.51	73.1297	1,624.51	74.7217	1,624.51	70.7148	1,624.51	75.7109	1,624.51	70.5171	1,624.51	74.3839	1,624.51	73.8571	1,624.51	72.1021	1,624.51	74.0279	1,624.51	71.0021	1,624.51	73.7277	1,624.51	70.2131	1,624.51	75.3976	1,624.51	62.4072	1,624.51	73.32	1,624.51	66.7238	1,624.51	68.1157
1,681.64	83.8206	1,681.64	85.0927	1,681.64	81.3802	1,681.64	84.8976	1,681.64	78.6616	1,681.64	82.9687	1,681.64	80.2381	1,681.64	81.0219	1,681.64	81.9458	1,681.64	80.344	1,681.64	81.6369	1,681.64	78.6864	1,681.64	80.251	1,681.64	78.3968	1,681.64	79.7436	1,681.64	77.914	1,681.64	79.3725	1,681.64	76.698	1,681.64	77.4555	1,681.64	76.7474	1,681.64	75.4111	1,681.64	75.3319	1,681.64	74.592	1,681.64	68.1034	1,681.64	75.7357	1,681.64	72.0239	1,681.64	74.9854	1,681.64	74.6296	1,681.64	73.5129	1,681.64	71.9115	1,681.64	72.3751	1,681.64	74.8197	1,681.64	67.4094	1,681.64	72.7138	1,681.64	68.6759	1,681.64	68.6032
1,741.7	83.2878	1,741.7	85.2353	1,741.7	80.6946	1,741.7	84.9008	1,741.7	78.9514	1,741.7	82.0134	1,741.7	81.539	1,741.7	80.9553	1,741.7	82.6233	1,741.7	79.2882	1,741.7	82.2641	1,741.7	79.4165	1,741.7	81.7278	1,741.7	80.3123	1,741.7	80.853	1,741.7	75.7683	1,741.7	77.9095	1,741.7	59.7595	1,741.7	77.0932	1,741.7	64.5187	1,741.7	76.4929	1,741.7	75.0787	1,741.7	74.7229	1,741.7	73.7358	1,741.7	75.2625	1,741.7	65.1119	1,741.7	75.2246	1,741.7	74.0777	1,741.7	75.0462	1,741.7	73.809	1,741.7	74.3923	1,741.7	74.8562	1,741.7	67.8056	1,741.7	74.1048	1,741.7	71.2327	1,741.7	69.8715
1,803.22	82.1193	1,803.22	85.0768	1,803.22	78.5558	1,803.22	84.4703	1,803.22	77.9491	1,803.22	83.3157	1,803.22	81.1258	1,803.22	82.5032	1,803.22	82.4879	1,803.22	79.9628	1,803.22	82.5178	1,803.22	79.1607	1,803.22	81.9655	1,803.22	75.8642	1,803.22	81.0907	1,803.22	73.5353	1,803.22	78.5477	1,803.22	74.2537	1,803.22	75.0859	1,803.22	72.2412	1,803.22	76.0201	1,803.22	55.9852	1,803.22	74.9937	1,803.22	74.1009	1,803.22	75.8909	1,803.22	71.2335	1,803.22	74.111	1,803.22	68.2453	1,803.22	75.597	1,803.22	72.8039	1,803.22	73.0989	1,803.22	74.2081	1,803.22	65.5325	1,803.22	74.7481	1,803.22	68.3326	1,803.22	67.0554
1,866.21	81.5286	1,866.21	84.0954	1,866.21	77.1838	1,866.21	83.1096	1,866.21	76.7287	1,866.21	83.9223	1,866.21	81.5651	1,866.21	83.1036	1,866.21	83.6595	1,866.21	79.8153	1,866.21	83.0527	1,866.21	78.8611	1,866.21	82.2182	1,866.21	75.3704	1,866.21	81.3119	1,866.21	75.4091	1,866.21	78.3493	1,866.21	72.9807	1,866.21	76.5583	1,866.21	72.6852	1,866.21	75.9313	1,866.21	68.8205	1,866.21	72.9507	1,866.21	69.2196	1,866.21	75.4007	1,866.21	73.358	1,866.21	75.8014	1,866.21	67.5109	1,866.21	75.1697	1,866.21	70.6839	1,866.21	75.1448	1,866.21	68.3946	1,866.21	62.5724	1,866.21	71.8966	1,866.21	67.2858	1,866.21	68.853
1,932.13	82.0277	1,932.13	82.4361	1,932.13	76.3889	1,932.13	82.6614	1,932.13	72.0584	1,932.13	84.2414	1,932.13	80.4559	1,932.13	80.8029	1,932.13	83.8696	1,932.13	81.3877	1,932.13	82.8645	1,932.13	78.4493	1,932.13	82.6822	1,932.13	73.8116	1,932.13	80.7519	1,932.13	76.1988	1,932.13	77.6046	1,932.13	72.5479	1,932.13	77.5777	1,932.13	72.2273	1,932.13	75.9464	1,932.13	67.3452	1,932.13	73.5436	1,932.13	68.1187	1,932.13	75.719	1,932.13	73.1152	1,932.13	74.7736	1,932.13	71.6732	1,932.13	75.4198	1,932.13	67.6631	1,932.13	73.9409	1,932.13	68.9622	1,932.13	65.5325	1,932.13	65.9214	1,932.13	66.4472	1,932.13	67.3449
1,999.51	82.7584	1,999.51	82.7168	1,999.51	77.8499	1,999.51	84.1782	1,999.51	74.9676	1,999.51	83.4651	1,999.51	81.6652	1,999.51	81.3561	1,999.51	84.3125	1,999.51	80.85	1,999.51	83.8147	1,999.51	76.9912	1,999.51	82.7759	1,999.51	77.8996	1,999.51	81.3402	1,999.51	75.7176	1,999.51	76.7062	1,999.51	69.0416	1,999.51	74.2586	1,999.51	71.4785	1,999.51	72.9321	1,999.51	71.6787	1,999.51	75.4021	1,999.51	50.457	1,999.51	75.8555	1,999.51	72.3118	1,999.51	74.2556	1,999.51	72.8997	1,999.51	73.3675	1,999.51	70.5452	1,999.51	74.1244	1,999.51	70.8375	1,999.51	63.3096	1,999.51	68.1015	1,999.51	66.3667	1,999.51	60.2245
2,069.82	82.5997	2,069.82	83.2715	2,069.82	78.9525	2,069.82	84.0658	2,069.82	76.0096	2,069.82	81.6701	2,069.82	80.525	2,069.82	81.2692	2,069.82	83.7117	2,069.82	79.7791	2,069.82	83.9883	2,069.82	77.8108	2,069.82	82.7851	2,069.82	75.9058	2,069.82	80.9086	2,069.82	67.4629	2,069.82	77.9346	2,069.82	70.8442	2,069.82	76.7864	2,069.82	64.3525	2,069.82	74.5224	2,069.82	65.7234	2,069.82	74.4762	2,069.82	68.0312	2,069.82	76.0151	2,069.82	64.9627	2,069.82	73.6617	2,069.82	72.4775	2,069.82	71.8474	2,069.82	68.9996	2,069.82	72.7577	2,069.82	69.0831	2,069.82	57.83	2,069.82	69.6229	2,069.82	66.8111	2,069.82	55.1471
2,143.07	81.7048	2,143.07	83.3866	2,143.07	78.4587	2,143.07	83.7806	2,143.07	75.3638	2,143.07	82.2089	2,143.07	81.0679	2,143.07	81.7179	2,143.07	82.8247	2,143.07	79.2397	2,143.07	83.6728	2,143.07	77.1348	2,143.07	83.5221	2,143.07	75.1605	2,143.07	81.1771	2,143.07	72.3739	2,143.07	78.5614	2,143.07	71.1453	2,143.07	74.5974	2,143.07	69.5457	2,143.07	75.4812	2,143.07	65.1265	2,143.07	75.8788	2,143.07	67.455	2,143.07	75.8966	2,143.07	65.2751	2,143.07	72.6346	2,143.07	69.5525	2,143.07	69.8954	2,143.07	70.259	2,143.07	71.0883	2,143.07	68.0272	2,143.07	60.2344	2,143.07	70.442	2,143.07	67.8749	2,143.07	58.1926
2,219.24	79.8025	2,219.24	82.8589	2,219.24	76.8636	2,219.24	83.7327	2,219.24	73.8294	2,219.24	83.1706	2,219.24	80.6652	2,219.24	81.3848	2,219.24	82.1543	2,219.24	77.7653	2,219.24	83.5627	2,219.24	76.1663	2,219.24	83.4277	2,219.24	69.2123	2,219.24	80.0594	2,219.24	69.2756	2,219.24	76.2556	2,219.24	70.4115	2,219.24	75.3624	2,219.24	67.6635	2,219.24	74.5287	2,219.24	62.7728	2,219.24	75.7574	2,219.24	65.5369	2,219.24	75.6254	2,219.24	64.5257	2,219.24	72.986	2,219.24	68.013	2,219.24	70.6726	2,219.24	68.4009	2,219.24	71.3172	2,219.24	63.5875	2,219.24	66.8142	2,219.24	67.9224	2,219.24	69.2719	2,219.24	53.3147
2,296.88	79.0155	2,296.88	82.0712	2,296.88	73.3526	2,296.88	83.4404	2,296.88	72.1462	2,296.88	83.5564	2,296.88	81.0093	2,296.88	80.1974	2,296.88	83.1166	2,296.88	78.4395	2,296.88	83.7991	2,296.88	76.6271	2,296.88	83.1465	2,296.88	74.7421	2,296.88	79.9164	2,296.88	72.8376	2,296.88	75.6706	2,296.88	64.8809	2,296.88	74.5794	2,296.88	68.2863	2,296.88	72.4535	2,296.88	67.7004	2,296.88	72.0564	2,296.88	59.6409	2,296.88	75.6936	2,296.88	68.6122	2,296.88	74.6429	2,296.88	69.9031	2,296.88	70.3415	2,296.88	69.6743	2,296.88	74.5843	2,296.88	61.1887	2,296.88	69.2172	2,296.88	64.5628	2,296.88	68.8566	2,296.88	51.4348
2,378.91	79.3543	2,378.91	82.254	2,378.91	75.1297	2,378.91	83.3219	2,378.91	69.2414	2,378.91	82.4527	2,378.91	80.1756	2,378.91	80.4896	2,378.91	83.405	2,378.91	79.136	2,378.91	84.0616	2,378.91	76.5758	2,378.91	83.2799	2,378.91	72.5932	2,378.91	81.2554	2,378.91	69.5318	2,378.91	77.9686	2,378.91	67.8546	2,378.91	75.3253	2,378.91	59.9403	2,378.91	75.182	2,378.91	66.4336	2,378.91	68.7407	2,378.91	66.7138	2,378.91	74.9408	2,378.91	63.4556	2,378.91	77.8102	2,378.91	69.8857	2,378.91	65.3379	2,378.91	70.1764	2,378.91	72.7045	2,378.91	66.509	2,378.91	65.2922	2,378.91	57.7066	2,378.91	69.1584	2,378.91	58.3982
2,462.4	80.0983	2,462.4	83.4593	2,462.4	74.0982	2,462.4	83.3083	2,462.4	51.102	2,462.4	80.8964	2,462.4	77.2026	2,462.4	79.9325	2,462.4	82.8754	2,462.4	77.633	2,462.4	84.0192	2,462.4	71.4185	2,462.4	83.4126	2,462.4	70.7751	2,462.4	81.3968	2,462.4	66.6381	2,462.4	76.1655	2,462.4	63.2634	2,462.4	73.4174	2,462.4	63.16	2,462.4	74.5575	2,462.4	63.4405	2,462.4	74.4637	2,462.4	66.5873	2,462.4	69.9799	2,462.4	62.0291	2,462.4	77.9395	2,462.4	66.2376	2,462.4	69.4975	2,462.4	69.4961	2,462.4	65.9903	2,462.4	67.7085	2,462.4	60.2012	2,462.4	65.5582	2,462.4	66.6528	2,462.4	66.3575
2,548.83	79.7054	2,548.83	83.4315	2,548.83	71.5381	2,548.83	83.6816	2,548.83	66.2632	2,548.83	82.1483	2,548.83	75.5798	2,548.83	79.1232	2,548.83	80.7645	2,548.83	74.6127	2,548.83	82.987	2,548.83	69.003	2,548.83	82.714	2,548.83	63.0442	2,548.83	79.1419	2,548.83	66.8361	2,548.83	78.2949	2,548.83	65.1341	2,548.83	74.8556	2,548.83	61.1051	2,548.83	73.866	2,548.83	58.0556	2,548.83	73.4423	2,548.83	59.7549	2,548.83	71.8682	2,548.83	65.2019	2,548.83	75.3982	2,548.83	58.053	2,548.83	71.903	2,548.83	63.4713	2,548.83	65.6693	2,548.83	65.911	2,548.83	61.8664	2,548.83	68.043	2,548.83	51.9457	2,548.83	66.4862
2,639.65	79.3694	2,639.65	83.0578	2,639.65	72.752	2,639.65	84.1326	2,639.65	68.7416	2,639.65	82.8892	2,639.65	78.2886	2,639.65	77.3956	2,639.65	80.6091	2,639.65	74.3416	2,639.65	82.6924	2,639.65	68.9721	2,639.65	81.3802	2,639.65	67.7647	2,639.65	78.9474	2,639.65	60.7159	2,639.65	78.4678	2,639.65	69.1948	2,639.65	73.95	2,639.65	65.0094	2,639.65	70.728	2,639.65	66.3718	2,639.65	71.6681	2,639.65	65.6449	2,639.65	72.5926	2,639.65	63.8724	2,639.65	74.0682	2,639.65	61.7082	2,639.65	69.5196	2,639.65	58.9085	2,639.65	64.2166	2,639.65	64.2635	2,639.65	59.7066	2,639.65	64.3446	2,639.65	53.5678	2,639.65	64.5142
2,731.93	79.0112	2,731.93	82.9918	2,731.93	70.0748	2,731.93	83.3604	2,731.93	72.5681	2,731.93	80.6847	2,731.93	80.0856	2,731.93	76.3689	2,731.93	81.2872	2,731.93	72.8153	2,731.93	81.0223	2,731.93	69.1863	2,731.93	80.0729	2,731.93	69.624	2,731.93	77.0599	2,731.93	68.0378	2,731.93	76.2441	2,731.93	68.1818	2,731.93	73.3668	2,731.93	67.1044	2,731.93	66.5332	2,731.93	66.7451	2,731.93	70.7818	2,731.93	64.5245	2,731.93	71.813	2,731.93	66.4204	2,731.93	72.7922	2,731.93	61.1108	2,731.93	66.3206	2,731.93	56.9857	2,731.93	62.9703	2,731.93	61.4698	2,731.93	68.1459	2,731.93	63.0303	2,731.93	52.9537	2,731.93	67.3737
2,828.61	80.0851	2,828.61	83.8008	2,828.61	68.6851	2,828.61	82.5848	2,828.61	74.0103	2,828.61	79.0077	2,828.61	81.0225	2,828.61	76.7658	2,828.61	82.692	2,828.61	71.9786	2,828.61	80.4003	2,828.61	68.1908	2,828.61	78.8688	2,828.61	68.9733	2,828.61	76.4254	2,828.61	69.8469	2,828.61	76.2258	2,828.61	65.4777	2,828.61	72.7085	2,828.61	64.634	2,828.61	58.5826	2,828.61	64.7729	2,828.61	66.2471	2,828.61	65.4036	2,828.61	72.1956	2,828.61	65.2941	2,828.61	70.0303	2,828.61	64.3437	2,828.61	68.1911	2,828.61	59.0491	2,828.61	66.9049	2,828.61	59.0383	2,828.61	68.5698	2,828.61	56.8726	2,828.61	57.1135	2,828.61	64.4596
2,928.22	81.3211	2,928.22	84.879	2,928.22	66.6726	2,928.22	83.6276	2,928.22	75.4624	2,928.22	79.8553	2,928.22	80.6424	2,928.22	75.4481	2,928.22	82.5747	2,928.22	71.5753	2,928.22	80.8247	2,928.22	69.8508	2,928.22	79.2155	2,928.22	70.1084	2,928.22	76.5005	2,928.22	67.8497	2,928.22	74.9494	2,928.22	68.3679	2,928.22	67.6987	2,928.22	68.6794	2,928.22	58.4521	2,928.22	68.1599	2,928.22	57.331	2,928.22	67.6894	2,928.22	69.4715	2,928.22	65.793	2,928.22	67.6511	2,928.22	65.6208	2,928.22	66.1319	2,928.22	62.7802	2,928.22	68.1317	2,928.22	58.1073	2,928.22	68.7351	2,928.22	58.3035	2,928.22	61.7753	2,928.22	65.1057
3,030.76	82.0554	3,030.76	84.4421	3,030.76	68.8686	3,030.76	83.7682	3,030.76	75.9084	3,030.76	80.1216	3,030.76	80.1002	3,030.76	74.2931	3,030.76	81.705	3,030.76	69.5678	3,030.76	81.3246	3,030.76	68.2909	3,030.76	78.5595	3,030.76	69.3571	3,030.76	76.5361	3,030.76	71.0768	3,030.76	75.0088	3,030.76	69.0713	3,030.76	59.719	3,030.76	67.0582	3,030.76	55.4972	3,030.76	65.3491	3,030.76	63.4225	3,030.76	65.8882	3,030.76	66.4194	3,030.76	65.298	3,030.76	68.0887	3,030.76	64.6595	3,030.76	63.9058	3,030.76	65.6618	3,030.76	67.5596	3,030.76	56.174	3,030.76	68.6312	3,030.76	55.6256	3,030.76	62.5303	3,030.76	63.6727
3,137.7	82.0573	3,137.7	84.1204	3,137.7	71.39	3,137.7	82.9671	3,137.7	75.7378	3,137.7	80.2989	3,137.7	81.0962	3,137.7	74.5731	3,137.7	81.461	3,137.7	67.8764	3,137.7	81.3453	3,137.7	68.9161	3,137.7	77.4119	3,137.7	72.4595	3,137.7	76.3226	3,137.7	70.4621	3,137.7	73.5696	3,137.7	66.8926	3,137.7	58.4321	3,137.7	68.82	3,137.7	54.9733	3,137.7	67.5058	3,137.7	61.5839	3,137.7	64.9259	3,137.7	64.5028	3,137.7	67.4127	3,137.7	68.8968	3,137.7	65.0948	3,137.7	63.5988	3,137.7	66.0886	3,137.7	68.0134	3,137.7	58.9963	3,137.7	67.9912	3,137.7	58.1251	3,137.7	63.3365	3,137.7	61.0866
3,249.02	82.222	3,249.02	84.2729	3,249.02	72.7037	3,249.02	83.0356	3,249.02	75.1939	3,249.02	78.9273	3,249.02	82.1371	3,249.02	71.0319	3,249.02	81.3757	3,249.02	68.4698	3,249.02	79.9704	3,249.02	72.2926	3,249.02	77.2481	3,249.02	71.4399	3,249.02	75.8442	3,249.02	72.8446	3,249.02	71.7023	3,249.02	72.411	3,249.02	62.5186	3,249.02	70.2012	3,249.02	61.9609	3,249.02	69.1098	3,249.02	61.742	3,249.02	68.1275	3,249.02	62.2046	3,249.02	67.8093	3,249.02	68.9453	3,249.02	67.4706	3,249.02	61.9504	3,249.02	67.1417	3,249.02	68.6935	3,249.02	60.1475	3,249.02	67.7477	3,249.02	60.0867	3,249.02	64.8508	3,249.02	63.3309
3,363.28	82.5658	3,363.28	84.3822	3,363.28	74.1473	3,363.28	82.5732	3,363.28	74.2621	3,363.28	74.6939	3,363.28	81.515	3,363.28	68.0275	3,363.28	81.3077	3,363.28	71.8911	3,363.28	78.9813	3,363.28	74.0384	3,363.28	77.5733	3,363.28	73.6391	3,363.28	76.0668	3,363.28	75.1235	3,363.28	69.5355	3,363.28	71.4667	3,363.28	68.512	3,363.28	69.9722	3,363.28	67.8655	3,363.28	69.0601	3,363.28	56.3738	3,363.28	69.3767	3,363.28	65.2683	3,363.28	68.086	3,363.28	68.029	3,363.28	68.417	3,363.28	59.845	3,363.28	69.5693	3,363.28	68.707	3,363.28	64.7931	3,363.28	68.9876	3,363.28	54.9294	3,363.28	66.6431	3,363.28	64.0241
3,481.93	81.9937	3,481.93	84.5656	3,481.93	74.5096	3,481.93	82.74	3,481.93	73.9481	3,481.93	72.7859	3,481.93	81.8566	3,481.93	71.4432	3,481.93	81.4943	3,481.93	76.3264	3,481.93	78.6507	3,481.93	76.8754	3,481.93	77.6004	3,481.93	76.3758	3,481.93	76.03	3,481.93	73.6677	3,481.93	68.7187	3,481.93	72.116	3,481.93	71.3441	3,481.93	71.3133	3,481.93	68.0516	3,481.93	68.983	3,481.93	63.8775	3,481.93	69.1767	3,481.93	66.4317	3,481.93	69.4169	3,481.93	67.7992	3,481.93	68.807	3,481.93	55.2054	3,481.93	71.2739	3,481.93	69.1402	3,481.93	68.0999	3,481.93	70.8141	3,481.93	55.0558	3,481.93	67.8312	3,481.93	64.193
3,604.98	82.4842	3,604.98	84.9887	3,604.98	74.0679	3,604.98	81.5045	3,604.98	72.8779	3,604.98	70.8939	3,604.98	80.9953	3,604.98	76.3337	3,604.98	81.4823	3,604.98	77.1578	3,604.98	78.0712	3,604.98	77.4416	3,604.98	79.3264	3,604.98	75.3928	3,604.98	73.4357	3,604.98	75.7444	3,604.98	70.6762	3,604.98	71.4436	3,604.98	72.7035	3,604.98	69.2649	3,604.98	70.9718	3,604.98	67.9614	3,604.98	67.9401	3,604.98	68.1384	3,604.98	66.5657	3,604.98	69.9907	3,604.98	68.5695	3,604.98	69.6664	3,604.98	35.5157	3,604.98	69.9932	3,604.98	68.2651	3,604.98	68.8983	3,604.98	71.5511	3,604.98	57.5256	3,604.98	66.7331	3,604.98	62.4709
3,732.42	83.8804	3,732.42	85.8127	3,732.42	76.3666	3,732.42	80.4043	3,732.42	72.1672	3,732.42	72.1938	3,732.42	79.8952	3,732.42	76.7173	3,732.42	80.3161	3,732.42	79.0813	3,732.42	76.9408	3,732.42	77.6718	3,732.42	78.6376	3,732.42	77.0101	3,732.42	74.9277	3,732.42	74.4216	3,732.42	69.9032	3,732.42	71.4845	3,732.42	66.9783	3,732.42	69.1503	3,732.42	72.2127	3,732.42	68.3945	3,732.42	68.9302	3,732.42	69.2431	3,732.42	66.6606	3,732.42	68.2635	3,732.42	68.9041	3,732.42	69.3553	3,732.42	50.8068	3,732.42	69.7127	3,732.42	65.8587	3,732.42	68.1261	3,732.42	70.1307	3,732.42	52.8772	3,732.42	66.7055	3,732.42	58.619
3,864.26	83.1042	3,864.26	84.7187	3,864.26	75.8742	3,864.26	77.3027	3,864.26	74.2902	3,864.26	76.1057	3,864.26	80.1726	3,864.26	78.3204	3,864.26	80.5161	3,864.26	78.9602	3,864.26	77.6688	3,864.26	77.7883	3,864.26	79.099	3,864.26	74.1677	3,864.26	74.7494	3,864.26	71.4003	3,864.26	69.817	3,864.26	72.0843	3,864.26	64.7052	3,864.26	66.296	3,864.26	70.5122	3,864.26	66.1299	3,864.26	69.3534	3,864.26	68.2959	3,864.26	70.3079	3,864.26	69.2331	3,864.26	67.9904	3,864.26	68.2716	3,864.26	47.3565	3,864.26	70.6222	3,864.26	63.7751	3,864.26	66.3619	3,864.26	69.1631	3,864.26	46.6641	3,864.26	66.5141	3,864.26	55.8378
4,000.49	84.2218	4,000.49	82.9065	4,000.49	76.4715	4,000.49	74.9222	4,000.49	74.9328	4,000.49	75.4399	4,000.49	81.1954	4,000.49	79.7689	4,000.49	79.5853	4,000.49	78.5396	4,000.49	77.0641	4,000.49	76.8821	4,000.49	77.3131	4,000.49	73.076	4,000.49	72.8946	4,000.49	75.2752	4,000.49	71.4074	4,000.49	70.8457	4,000.49	69.8841	4,000.49	68.3318	4,000.49	72.3381	4,000.49	66.022	4,000.49	67.0131	4,000.49	67.669	4,000.49	69.1026	4,000.49	69.3562	4,000.49	65.0836	4,000.49	66.9737	4,000.49	54.5091	4,000.49	71.129	4,000.49	68.9189	4,000.49	68.8874	4,000.49	70.2213	4,000.49	63.7869	4,000.49	68.9961	4,000.49	65.3468
4,141.11	85.3381	4,141.11	84.1202	4,141.11	78.6389	4,141.11	78.343	4,141.11	72.7734	4,141.11	77.1273	4,141.11	82.313	4,141.11	80.8991	4,141.11	81.7484	4,141.11	78.4694	4,141.11	76.0802	4,141.11	75.1915	4,141.11	75.5091	4,141.11	76.0056	4,141.11	74.4867	4,141.11	70.7599	4,141.11	75.0984	4,141.11	73.6791	4,141.11	65.9071	4,141.11	68.7537	4,141.11	70.6321	4,141.11	67.3685	4,141.11	68.4999	4,141.11	66.5097	4,141.11	65.2887	4,141.11	69.4372	4,141.11	66.6976	4,141.11	68.0788	4,141.11	55.119	4,141.11	67.6117	4,141.11	69.7821	4,141.11	71.5239	4,141.11	72.3725	4,141.11	68.1977	4,141.11	70.9331	4,141.11	65.021
4,287.6	84.6607	4,287.6	82.7138	4,287.6	79.601	4,287.6	77.3086	4,287.6	73.3104	4,287.6	79.5375	4,287.6	81.6866	4,287.6	80.3888	4,287.6	82.0289	4,287.6	76.557	4,287.6	75.3998	4,287.6	77.6752	4,287.6	77.6478	4,287.6	75.0668	4,287.6	78.2529	4,287.6	76.4728	4,287.6	78.5244	4,287.6	71.6539	4,287.6	64.9239	4,287.6	67.4398	4,287.6	69.3341	4,287.6	65.6841	4,287.6	64.8264	4,287.6	67.6836	4,287.6	69.9567	4,287.6	67.8205	4,287.6	66.0013	4,287.6	69.4444	4,287.6	57.6021	4,287.6	68.1873	4,287.6	65.9588	4,287.6	69.3454	4,287.6	69.8971	4,287.6	65.8066	4,287.6	70.4118	4,287.6	60.7495
4,438.48	84.9046	4,438.48	80.6616	4,438.48	81.6372	4,438.48	78.5224	4,438.48	74.0931	4,438.48	80.5541	4,438.48	81.2088	4,438.48	78.6095	4,438.48	81.8566	4,438.48	79.5042	4,438.48	74.5184	4,438.48	77.4144	4,438.48	77.9195	4,438.48	78.322	4,438.48	80.2547	4,438.48	71.7034	4,438.48	77.2448	4,438.48	74.3744	4,438.48	67.9447	4,438.48	70.7266	4,438.48	53.3332	4,438.48	62.9548	4,438.48	61.3911	4,438.48	67.0375	4,438.48	71.9011	4,438.48	66.5923	4,438.48	66.1302	4,438.48	69.566	4,438.48	62.3837	4,438.48	69.7827	4,438.48	65.8221	4,438.48	68.022	4,438.48	68.5932	4,438.48	65.0372	4,438.48	69.3599	4,438.48	55.6247
4,595.21	84.1044	4,595.21	82.6814	4,595.21	81.4089	4,595.21	80.2539	4,595.21	74.5431	4,595.21	80.415	4,595.21	82.895	4,595.21	78.5217	4,595.21	81.4822	4,595.21	79.6972	4,595.21	72.4664	4,595.21	78.5176	4,595.21	78.7542	4,595.21	74.214	4,595.21	81.6015	4,595.21	76.9378	4,595.21	77.5644	4,595.21	70.9333	4,595.21	65.3655	4,595.21	69.532	4,595.21	65.3722	4,595.21	65.3864	4,595.21	68.3562	4,595.21	66.2859	4,595.21	71.1969	4,595.21	66.3974	4,595.21	66.8046	4,595.21	68.7728	4,595.21	57.4197	4,595.21	69.3531	4,595.21	67.1811	4,595.21	69.2969	4,595.21	67.7022	4,595.21	65.307	4,595.21	66.621	4,595.21	48.3445
4,756.35	84.3282	4,756.35	82.4027	4,756.35	82.3338	4,756.35	79.0994	4,756.35	71.5738	4,756.35	80.0403	4,756.35	83.194	4,756.35	80.9415	4,756.35	81.6561	4,756.35	80.7894	4,756.35	72.7298	4,756.35	77.7003	4,756.35	77.6528	4,756.35	77.7896	4,756.35	81.311	4,756.35	73.3152	4,756.35	77.324	4,756.35	73.9853	4,756.35	74.2522	4,756.35	69.983	4,756.35	66.038	4,756.35	69.2091	4,756.35	69.1903	4,756.35	65.6379	4,756.35	70.5987	4,756.35	67.1641	4,756.35	63.4392	4,756.35	68.708	4,756.35	61.3635	4,756.35	71.1572	4,756.35	65.6722	4,756.35	69.935	4,756.35	69.1296	4,756.35	66.5747	4,756.35	67.8948	4,756.35	48.3938
4,924.8	84.9509	4,924.8	84.0283	4,924.8	83.1551	4,924.8	81.1239	4,924.8	75.7431	4,924.8	80.7083	4,924.8	82.7126	4,924.8	82.1409	4,924.8	83.0672	4,924.8	79.6861	4,924.8	74.6486	4,924.8	78.7163	4,924.8	78.2845	4,924.8	76.9332	4,924.8	77.2168	4,924.8	77.3426	4,924.8	78.8798	4,924.8	73.202	4,924.8	75.8757	4,924.8	70.5459	4,924.8	66.2584	4,924.8	66.8946	4,924.8	69.7173	4,924.8	64.5005	4,924.8	72.1313	4,924.8	67.9671	4,924.8	64.7438	4,924.8	69.0361	4,924.8	50.6274	4,924.8	70.7294	4,924.8	57.7591	4,924.8	70.1436	4,924.8	66.6515	4,924.8	67.4791	4,924.8	66.1324	4,924.8	47.9616
5,097.66	85.7034	5,097.66	84.0989	5,097.66	82.674	5,097.66	78.8627	5,097.66	79.3844	5,097.66	82.8506	5,097.66	82.4641	5,097.66	82.6579	5,097.66	83.6864	5,097.66	80.5927	5,097.66	78.3477	5,097.66	79.0661	5,097.66	75.0285	5,097.66	78.3007	5,097.66	80.0466	5,097.66	74.3737	5,097.66	79.5244	5,097.66	74.389	5,097.66	75.0711	5,097.66	69.3447	5,097.66	62.9112	5,097.66	67.9898	5,097.66	62.8664	5,097.66	64.9864	5,097.66	70.5348	5,097.66	66.643	5,097.66	62.0181	5,097.66	68.3506	5,097.66	55.5472	5,097.66	71.0076	5,097.66	61.6446	5,097.66	69.8618	5,097.66	66.8686	5,097.66	64.6744	5,097.66	65.7915	5,097.66	56.9588
5,277.83	86.9637	5,277.83	84.4008	5,277.83	82.3347	5,277.83	79.1358	5,277.83	81.3961	5,277.83	84.9458	5,277.83	84.3247	5,277.83	81.8977	5,277.83	84.0604	5,277.83	80.5569	5,277.83	78.9486	5,277.83	79.37	5,277.83	73.249	5,277.83	78.6804	5,277.83	82.4506	5,277.83	76.8085	5,277.83	79.2834	5,277.83	73.8067	5,277.83	74.7136	5,277.83	70.5862	5,277.83	60.7791	5,277.83	67.4832	5,277.83	60.2482	5,277.83	62.8313	5,277.83	65.7204	5,277.83	64.6179	5,277.83	46.6993	5,277.83	69.1395	5,277.83	62.4916	5,277.83	69.9867	5,277.83	64.5462	5,277.83	71.5377	5,277.83	67.7709	5,277.83	68.981	5,277.83	66.9643	5,277.83	53.335
5,463.87	88.4595	5,463.87	81.9809	5,463.87	85.1581	5,463.87	82.6364	5,463.87	81.2271	5,463.87	84.8883	5,463.87	85.4098	5,463.87	82.3069	5,463.87	84.122	5,463.87	81.3914	5,463.87	80.6405	5,463.87	80.4848	5,463.87	77.2931	5,463.87	78.5803	5,463.87	82.162	5,463.87	76.4847	5,463.87	78.6201	5,463.87	75.0436	5,463.87	75.054	5,463.87	70.6897	5,463.87	64.0179	5,463.87	68.8373	5,463.87	67.3812	5,463.87	58.4288	5,463.87	62.4966	5,463.87	66.6	5,463.87	62.5228	5,463.87	69.0728	5,463.87	66.3341	5,463.87	71.5882	5,463.87	62.7973	5,463.87	70.5775	5,463.87	68.0343	5,463.87	69.1711	5,463.87	67.8679	5,463.87	51.2953
5,657.23	87.8942	5,657.23	78.6204	5,657.23	87.2348	5,657.23	85.0469	5,657.23	80.3274	5,657.23	84.5658	5,657.23	84.2233	5,657.23	82.9031	5,657.23	84.3448	5,657.23	81.4083	5,657.23	80.8396	5,657.23	80.3197	5,657.23	79.6407	5,657.23	78.8108	5,657.23	82.6741	5,657.23	75.2183	5,657.23	78.3712	5,657.23	73.7862	5,657.23	74.7561	5,657.23	70.6931	5,657.23	65.7316	5,657.23	67.6946	5,657.23	68.8153	5,657.23	61.7439	5,657.23	58.2179	5,657.23	66.417	5,657.23	63.0022	5,657.23	64.578	5,657.23	64.4883	5,657.23	71.5468	5,657.23	56.2696	5,657.23	69.2551	5,657.23	61.783	5,657.23	69.6833	5,657.23	66	5,657.23	61.3663
5,856.45	86.4074	5,856.45	79.1074	5,856.45	86.1779	5,856.45	86.0697	5,856.45	80.2518	5,856.45	83.6878	5,856.45	83.2171	5,856.45	82.9979	5,856.45	83.1351	5,856.45	81.768	5,856.45	80.9788	5,856.45	80.0336	5,856.45	79.6316	5,856.45	76.9865	5,856.45	82.7196	5,856.45	75.9569	5,856.45	75.183	5,856.45	73.5409	5,856.45	73.7419	5,856.45	70.1871	5,856.45	50.7736	5,856.45	66.3408	5,856.45	61.4934	5,856.45	60.9681	5,856.45	62.638	5,856.45	63.9046	5,856.45	62.4459	5,856.45	65.9692	5,856.45	59.7314	5,856.45	70.6755	5,856.45	55.0461	5,856.45	67.7146	5,856.45	63.854	5,856.45	66.5896	5,856.45	64.5098	5,856.45	61.4255
6,062.99	86.1398	6,062.99	82.9446	6,062.99	86.7686	6,062.99	86.2472	6,062.99	83.8415	6,062.99	83.8711	6,062.99	84.0465	6,062.99	82.7775	6,062.99	83.3239	6,062.99	82.0949	6,062.99	81.125	6,062.99	79.4024	6,062.99	78.6651	6,062.99	77.1564	6,062.99	79.7416	6,062.99	72.4096	6,062.99	70.9572	6,062.99	73.0879	6,062.99	74.6309	6,062.99	69.8816	6,062.99	63.1055	6,062.99	66.0399	6,062.99	57.4684	6,062.99	62.679	6,062.99	65.6172	6,062.99	62.5797	6,062.99	61.8653	6,062.99	66.4142	6,062.99	36.5858	6,062.99	67.4678	6,062.99	51.6238	6,062.99	67.8313	6,062.99	63.7017	6,062.99	67.0972	6,062.99	61.7982	6,062.99	46.832
6,276.86	85.9588	6,276.86	83.4789	6,276.86	86.9963	6,276.86	85.7854	6,276.86	85.2374	6,276.86	84.7772	6,276.86	86.156	6,276.86	83.5305	6,276.86	82.2683	6,276.86	81.3834	6,276.86	82.1473	6,276.86	78.4533	6,276.86	75.0523	6,276.86	76.0861	6,276.86	75.6152	6,276.86	72.056	6,276.86	75.1544	6,276.86	70.6578	6,276.86	70.7596	6,276.86	67.5432	6,276.86	56.389	6,276.86	63.9025	6,276.86	60.6537	6,276.86	63.448	6,276.86	63.9078	6,276.86	62.2818	6,276.86	54.2087	6,276.86	62.7946	6,276.86	61.5607	6,276.86	66.8361	6,276.86	40.339	6,276.86	68.3294	6,276.86	59.4101	6,276.86	66.6229	6,276.86	61.1189	6,276.86	58.082
6,498.05	85.5551	6,498.05	85.239	6,498.05	85.9751	6,498.05	86.4488	6,498.05	83.0063	6,498.05	84.9136	6,498.05	86.9606	6,498.05	83.3584	6,498.05	79.5041	6,498.05	80.4291	6,498.05	83.6067	6,498.05	77.0553	6,498.05	70.064	6,498.05	72.5362	6,498.05	75.4583	6,498.05	71.1665	6,498.05	77.3798	6,498.05	71.9698	6,498.05	67.8277	6,498.05	68.7142	6,498.05	67.7465	6,498.05	62.3448	6,498.05	52.0429	6,498.05	63.6315	6,498.05	63.7611	6,498.05	62.7966	6,498.05	46.3731	6,498.05	63.3628	6,498.05	66.5397	6,498.05	67.3511	6,498.05	50.91	6,498.05	66.9826	6,498.05	60.7531	6,498.05	66.347	6,498.05	57.3042	6,498.05	59.8641
6,726.56	85.9667	6,726.56	85.7342	6,726.56	88.0361	6,726.56	86.5509	6,726.56	79.1469	6,726.56	85.4258	6,726.56	87.4118	6,726.56	82.6093	6,726.56	79.6411	6,726.56	79.9488	6,726.56	85.308	6,726.56	76.6675	6,726.56	70.1545	6,726.56	74.228	6,726.56	78.6006	6,726.56	72.2417	6,726.56	77.2392	6,726.56	72.9802	6,726.56	67.6167	6,726.56	68.8316	6,726.56	66.2749	6,726.56	64.2073	6,726.56	62.799	6,726.56	62.6837	6,726.56	62.3622	6,726.56	62.0875	6,726.56	59.4579	6,726.56	63.9851	6,726.56	65.7167	6,726.56	67.3293	6,726.56	48.4155	6,726.56	65.3967	6,726.56	62.5561	6,726.56	66.7889	6,726.56	61.8189	6,726.56	61.5651
6,963.87	85.0542	6,963.87	86.3075	6,963.87	88.3589	6,963.87	86.4707	6,963.87	83.4203	6,963.87	84.5272	6,963.87	85.1036	6,963.87	83.0179	6,963.87	82.8263	6,963.87	79.4651	6,963.87	84.8353	6,963.87	76.924	6,963.87	68.5379	6,963.87	75.6427	6,963.87	77.3131	6,963.87	71.2234	6,963.87	77.7405	6,963.87	72.2953	6,963.87	73.2921	6,963.87	67.1849	6,963.87	69.8651	6,963.87	62.4643	6,963.87	61.2635	6,963.87	64.5085	6,963.87	55.6178	6,963.87	60.9137	6,963.87	54.5632	6,963.87	65.2442	6,963.87	60.523	6,963.87	65.2982	6,963.87	52.5664	6,963.87	65.8092	6,963.87	60.261	6,963.87	64.8028	6,963.87	57.0806	6,963.87	63.3376
7,209.96	85.6535	7,209.96	87.2595	7,209.96	87.097	7,209.96	86.9511	7,209.96	83.053	7,209.96	84.7869	7,209.96	85.1656	7,209.96	82.5236	7,209.96	85.0816	7,209.96	78.98	7,209.96	83.542	7,209.96	77.3255	7,209.96	72.2794	7,209.96	74.7501	7,209.96	76.3221	7,209.96	70.3828	7,209.96	76.3224	7,209.96	70.3679	7,209.96	75.6199	7,209.96	67.6863	7,209.96	72.6211	7,209.96	63.3866	7,209.96	56.5779	7,209.96	64.6042	7,209.96	53.9026	7,209.96	61.5275	7,209.96	57.5093	7,209.96	65.8807	7,209.96	55.1902	7,209.96	64.8178	7,209.96	54.8159	7,209.96	65.779	7,209.96	61.1928	7,209.96	65.5979	7,209.96	52.57	7,209.96	62.6562
7,464.84	85.9579	7,464.84	86.5459	7,464.84	87.6691	7,464.84	86.7235	7,464.84	83.2749	7,464.84	84.2298	7,464.84	86.3098	7,464.84	81.3289	7,464.84	85.325	7,464.84	79.5148	7,464.84	80.8999	7,464.84	77.4727	7,464.84	75.482	7,464.84	74.2253	7,464.84	70.5298	7,464.84	72.9064	7,464.84	77.4562	7,464.84	71.201	7,464.84	73.5482	7,464.84	66.9263	7,464.84	71.8724	7,464.84	60.6093	7,464.84	57.9799	7,464.84	63.8157	7,464.84	59.2206	7,464.84	60.7916	7,464.84	51.1908	7,464.84	64.6542	7,464.84	61.8164	7,464.84	65.0067	7,464.84	45.9514	7,464.84	66.7514	7,464.84	62.2961	7,464.84	66.4808	7,464.84	57.9581	7,464.84	61.7526
7,727.05	86.5622	7,727.05	87.7104	7,727.05	87.8285	7,727.05	86.9935	7,727.05	84.817	7,727.05	83.4276	7,727.05	86.6452	7,727.05	81.3018	7,727.05	83.296	7,727.05	80.4589	7,727.05	79.2213	7,727.05	77.7418	7,727.05	73.3656	7,727.05	75.3147	7,727.05	66.6226	7,727.05	72.4341	7,727.05	75.8274	7,727.05	70.5054	7,727.05	74.0963	7,727.05	68.3906	7,727.05	70.8176	7,727.05	60.9127	7,727.05	62.8841	7,727.05	64.4013	7,727.05	56.2983	7,727.05	59.7822	7,727.05	55.3867	7,727.05	66.1867	7,727.05	62.5737	7,727.05	63.0099	7,727.05	53.546	7,727.05	66.3844	7,727.05	59.2071	7,727.05	66.1237	7,727.05	51.7825	7,727.05	61.6902
7,999.51	86.328	7,999.51	87.5348	7,999.51	88.6129	7,999.51	86.3413	7,999.51	84.0954	7,999.51	82.9791	7,999.51	85.2443	7,999.51	82.2191	7,999.51	79.0483	7,999.51	79.9902	7,999.51	80.0026	7,999.51	78.061	7,999.51	72.8877	7,999.51	74.4018	7,999.51	71.7778	7,999.51	70.9893	7,999.51	75.8788	7,999.51	69.9556	7,999.51	70.6227	7,999.51	64.7448	7,999.51	68.2565	7,999.51	57.0413	7,999.51	61.5734	7,999.51	62.217	7,999.51	57.2689	7,999.51	59.6473	7,999.51	55.2095	7,999.51	64.3273	7,999.51	56.4269	7,999.51	63.6395	7,999.51	53.2386	7,999.51	67.3822	7,999.51	59.4017	7,999.51	62.4208	7,999.51	59.1478	7,999.51	64.9572
8,282.23	85.6313	8,282.23	88.3155	8,282.23	88.815	8,282.23	85.4194	8,282.23	84.3317	8,282.23	84.2187	8,282.23	84.4641	8,282.23	81.6127	8,282.23	78.5725	8,282.23	79.2891	8,282.23	79.4436	8,282.23	77.4424	8,282.23	74.4799	8,282.23	74.4493	8,282.23	72.5596	8,282.23	71.0522	8,282.23	73.1838	8,282.23	69.7095	8,282.23	66.714	8,282.23	66.7715	8,282.23	59.532	8,282.23	58.7827	8,282.23	52.9922	8,282.23	62.2542	8,282.23	52.4025	8,282.23	60.6342	8,282.23	53.7749	8,282.23	65.0497	8,282.23	61.0352	8,282.23	63.9682	8,282.23	58.4881	8,282.23	67.5788	8,282.23	59.9415	8,282.23	61.8592	8,282.23	56.4129	8,282.23	65.06
8,573.73	85.9248	8,573.73	88.3669	8,573.73	88.2687	8,573.73	84.7167	8,573.73	85.6421	8,573.73	83.983	8,573.73	85.2281	8,573.73	81.2219	8,573.73	81.6844	8,573.73	79.7398	8,573.73	79.1204	8,573.73	77.6657	8,573.73	75.682	8,573.73	74.1273	8,573.73	73.6764	8,573.73	70.5201	8,573.73	70.6129	8,573.73	68.6229	8,573.73	63.1391	8,573.73	66.0199	8,573.73	61.2092	8,573.73	58.0018	8,573.73	58.9237	8,573.73	61.2267	8,573.73	52.2108	8,573.73	54.8455	8,573.73	32.868	8,573.73	64.605	8,573.73	59.9249	8,573.73	64.553	8,573.73	59.3832	8,573.73	64.2455	8,573.73	61.8928	8,573.73	62.342	8,573.73	58.9402	8,573.73	66.0702
8,876.95	86.4069	8,876.95	88.1534	8,876.95	88.1469	8,876.95	84.6829	8,876.95	85.5266	8,876.95	83.5781	8,876.95	86.7921	8,876.95	82.0696	8,876.95	82.8512	8,876.95	79.4006	8,876.95	78.2025	8,876.95	77.0601	8,876.95	79.0678	8,876.95	73.2638	8,876.95	70.084	8,876.95	70.081	8,876.95	69.718	8,876.95	66.2924	8,876.95	63.2168	8,876.95	63.0041	8,876.95	56.8172	8,876.95	53.0005	8,876.95	59.5353	8,876.95	60.4475	8,876.95	51.9977	8,876.95	57.3417	8,876.95	54.8334	8,876.95	64.33	8,876.95	60.3055	8,876.95	63.5973	8,876.95	57.3263	8,876.95	63.885	8,876.95	59.5099	8,876.95	62.8448	8,876.95	56.6417	8,876.95	63.6645
9,188.96	86.7382	9,188.96	87.9626	9,188.96	88.2646	9,188.96	84.2542	9,188.96	84.513	9,188.96	83.655	9,188.96	86.463	9,188.96	82.6357	9,188.96	83.8328	9,188.96	78.227	9,188.96	78.3315	9,188.96	76.5459	9,188.96	79.8312	9,188.96	73.0742	9,188.96	61.2929	9,188.96	70.7897	9,188.96	67.9706	9,188.96	66.0996	9,188.96	66.0768	9,188.96	65.6857	9,188.96	55.974	9,188.96	57.0565	9,188.96	58.7862	9,188.96	58.2834	9,188.96	46.6138	9,188.96	55.7786	9,188.96	56.6135	9,188.96	64.8227	9,188.96	55.6664	9,188.96	61.7897	9,188.96	51.6866	9,188.96	62.4567	9,188.96	57.7671	9,188.96	63.5556	9,188.96	54.4286	9,188.96	63.3298
9,514.16	87.1192	9,514.16	88.0304	9,514.16	88.4178	9,514.16	84.391	9,514.16	85.331	9,514.16	84.1879	9,514.16	84.2861	9,514.16	81.7868	9,514.16	82.7056	9,514.16	78.7216	9,514.16	80.0019	9,514.16	77.037	9,514.16	79.5927	9,514.16	73.3016	9,514.16	71.3544	9,514.16	71.0985	9,514.16	70.24	9,514.16	66.3012	9,514.16	63.0104	9,514.16	64.9676	9,514.16	60.8484	9,514.16	55.3627	9,514.16	51.9545	9,514.16	56.1393	9,514.16	50.1639	9,514.16	55.7147	9,514.16	61.428	9,514.16	63.9286	9,514.16	56.0649	9,514.16	61.4031	9,514.16	48.0453	9,514.16	62.8507	9,514.16	60.0152	9,514.16	63.7539	9,514.16	57.5642	9,514.16	61.7835
9,849.61	87.8949	9,849.61	87.6413	9,849.61	88.1471	9,849.61	85.2735	9,849.61	84.9141	9,849.61	83.6797	9,849.61	85.1095	9,849.61	81.7257	9,849.61	81.257	9,849.61	79.1898	9,849.61	81.3298	9,849.61	76.4589	9,849.61	76.4606	9,849.61	72.2487	9,849.61	74.0034	9,849.61	70.0513	9,849.61	71.7468	9,849.61	65.3838	9,849.61	65.414	9,849.61	63.9774	9,849.61	58.7055	9,849.61	44.38	9,849.61	53.6542	9,849.61	57.9311	9,849.61	54.7746	9,849.61	56.7886	9,849.61	59.1479	9,849.61	63.2646	9,849.61	57.0604	9,849.61	61.9863	9,849.61	45.1295	9,849.61	63.2753	9,849.61	57.7369	9,849.61	62.0626	9,849.61	56.9459	9,849.61	58.0449
10,196.8	88.5062	10,196.8	87.8106	10,196.8	87.9966	10,196.8	85.4789	10,196.8	84.6417	10,196.8	83.7402	10,196.8	85.6333	10,196.8	82.1493	10,196.8	80.4694	10,196.8	78.138	10,196.8	80.7275	10,196.8	76.7185	10,196.8	73.1649	10,196.8	72.8947	10,196.8	73.6707	10,196.8	70.3619	10,196.8	68.3532	10,196.8	63.8711	10,196.8	64.4931	10,196.8	65.647	10,196.8	48.6893	10,196.8	51.4641	10,196.8	56.9016	10,196.8	58.3238	10,196.8	58.1081	10,196.8	51.4626	10,196.8	57.4741	10,196.8	63.1609	10,196.8	47.9523	10,196.8	62.5098	10,196.8	47.4933	10,196.8	62.8546	10,196.8	58.576	10,196.8	58.3333	10,196.8	55.8799	10,196.8	60.9701
10,555.7	88.9108	10,555.7	87.7986	10,555.7	87.9579	10,555.7	85.8471	10,555.7	84.4426	10,555.7	84.1525	10,555.7	84.7458	10,555.7	81.3955	10,555.7	81.1184	10,555.7	77.1113	10,555.7	80.2432	10,555.7	77.5447	10,555.7	73.516	10,555.7	72.4029	10,555.7	73.2858	10,555.7	69.5896	10,555.7	62.7319	10,555.7	64.9608	10,555.7	61.0887	10,555.7	65.5192	10,555.7	54.4901	10,555.7	52.1604	10,555.7	46.4776	10,555.7	57.1521	10,555.7	57.3163	10,555.7	53.5252	10,555.7	57.298	10,555.7	60.8829	10,555.7	51.7821	10,555.7	62.2141	10,555.7	47.5279	10,555.7	61.667	10,555.7	58.824	10,555.7	59.7672	10,555.7	57.599	10,555.7	58.9898
10,927.7	88.9872	10,927.7	87.5689	10,927.7	87.8785	10,927.7	86.4934	10,927.7	85.8312	10,927.7	83.8162	10,927.7	83.5674	10,927.7	80.6231	10,927.7	81.7285	10,927.7	78.1829	10,927.7	78.8802	10,927.7	76.8849	10,927.7	76.8726	10,927.7	72.6485	10,927.7	72.4256	10,927.7	69.6765	10,927.7	56.3509	10,927.7	64.3555	10,927.7	65.8651	10,927.7	64.6346	10,927.7	57.4697	10,927.7	50.8166	10,927.7	44.7336	10,927.7	56.9555	10,927.7	55.8742	10,927.7	53.3174	10,927.7	57.6264	10,927.7	60.6463	10,927.7	52.1929	10,927.7	61.2008	10,927.7	52.8346	10,927.7	61.817	10,927.7	57.0887	10,927.7	54.2146	10,927.7	58.1138	10,927.7	59.6867
11,313	88.7421	11,313	87.583	11,313	87.5513	11,313	86.3226	11,313	85.7413	11,313	83.6576	11,313	83.8444	11,313	80.9655	11,313	81.7231	11,313	77.5959	11,313	78.6473	11,313	77.2311	11,313	77.24	11,313	72.1171	11,313	72.3815	11,313	68.5443	11,313	65.8686	11,313	64.5578	11,313	60.981	11,313	64.5344	11,313	63.192	11,313	51.9381	11,313	29.9601	11,313	56.4111	11,313	51.4487	11,313	54.0786	11,313	56.3278	11,313	59.4988	11,313	53.7778	11,313	60.4209	11,313	50.4162	11,313	60.5538	11,313	55.605	11,313	55.128	11,313	57.4751	11,313	58.9174
11,712.9	88.4933	11,712.9	87.6762	11,712.9	87.8286	11,712.9	85.9924	11,712.9	85.597	11,712.9	83.5875	11,712.9	83.9519	11,712.9	80.9726	11,712.9	80.8403	11,712.9	77.7444	11,712.9	78.0491	11,712.9	76.6627	11,712.9	76.701	11,712.9	70.7251	11,712.9	72.6037	11,712.9	68.4718	11,712.9	66.5582	11,712.9	64.2332	11,712.9	59.1931	11,712.9	64.4412	11,712.9	61.3828	11,712.9	55.0877	11,712.9	44.8329	11,712.9	56.6036	11,712.9	47.2576	11,712.9	54.1822	11,712.9	53.7054	11,712.9	57.9627	11,712.9	55.3591	11,712.9	58.7677	11,712.9	49.1287	11,712.9	60.4264	11,712.9	54.3941	11,712.9	54.5373	11,712.9	56.6933	11,712.9	59.8952
12,126	88.3989	12,126	87.8133	12,126	87.6866	12,126	85.7619	12,126	85.7202	12,126	83.0804	12,126	83.1289	12,126	80.9815	12,126	81.5296	12,126	77.5999	12,126	77.9297	12,126	75.3385	12,126	73.6654	12,126	71.0727	12,126	71.0116	12,126	68.3333	12,126	65.8367	12,126	64.1964	12,126	61.7769	12,126	63.2153	12,126	62.6885	12,126	56.7017	12,126	44.1818	12,126	57.952	12,126	46.9823	12,126	54.3389	12,126	40.8179	12,126	58.1259	12,126	55.6098	12,126	59.8568	12,126	50.8147	12,126	60.6487	12,126	55.5822	12,126	51.9532	12,126	57.7267	12,126	57.9975
12,553.7	88.1967	12,553.7	87.7078	12,553.7	87.315	12,553.7	85.2317	12,553.7	85.7354	12,553.7	82.9953	12,553.7	84.551	12,553.7	80.888	12,553.7	80.7877	12,553.7	76.0233	12,553.7	78.7058	12,553.7	75.0754	12,553.7	73.2011	12,553.7	70.4509	12,553.7	72.683	12,553.7	67.8698	12,553.7	67.6313	12,553.7	65.4582	12,553.7	59.7453	12,553.7	62.7266	12,553.7	62.8399	12,553.7	56.1828	12,553.7	45.9263	12,553.7	58.9551	12,553.7	32.3862	12,553.7	53.4142	12,553.7	49.5295	12,553.7	58.4796	12,553.7	56.6432	12,553.7	59.1982	12,553.7	50.9151	12,553.7	59.018	12,553.7	55.4031	12,553.7	51.7078	12,553.7	56.9915	12,553.7	55.9493
12,996.1	88.1301	12,996.1	87.559	12,996.1	87.2342	12,996.1	85.0183	12,996.1	85.3759	12,996.1	83.0664	12,996.1	84.4371	12,996.1	79.718	12,996.1	78.4451	12,996.1	75.7005	12,996.1	77.6816	12,996.1	74.4623	12,996.1	75.3847	12,996.1	71.7201	12,996.1	72.7584	12,996.1	68.2373	12,996.1	69.0164	12,996.1	65.4153	12,996.1	61.0921	12,996.1	62.6294	12,996.1	66.79	12,996.1	57.5896	12,996.1	53.1121	12,996.1	59.88	12,996.1	35.9101	12,996.1	54.2667	12,996.1	51.7216	12,996.1	60.1132	12,996.1	57.5202	12,996.1	60.4413	12,996.1	52.5928	12,996.1	59.0348	12,996.1	55.2551	12,996.1	51.554	12,996.1	59.7625	12,996.1	53.4063
13,454.6	87.8955	13,454.6	87.7515	13,454.6	87.1457	13,454.6	85.1834	13,454.6	85.5062	13,454.6	82.7179	13,454.6	83.187	13,454.6	78.6109	13,454.6	78.4847	13,454.6	74.9206	13,454.6	76.2246	13,454.6	75.2945	13,454.6	75.1673	13,454.6	71.21	13,454.6	72.3558	13,454.6	67.7965	13,454.6	69.4251	13,454.6	65.8616	13,454.6	63.7187	13,454.6	61.8131	13,454.6	68.7842	13,454.6	57.0474	13,454.6	55.9597	13,454.6	60.2375	13,454.6	47.656	13,454.6	54.2584	13,454.6	49.4279	13,454.6	58.9146	13,454.6	56.3683	13,454.6	59.4711	13,454.6	53.356	13,454.6	60.3576	13,454.6	58.5581	13,454.6	54.9948	13,454.6	58.4037	13,454.6	51.672
13,929.2	87.5303	13,929.2	87.5272	13,929.2	86.7947	13,929.2	84.5863	13,929.2	85.5643	13,929.2	82.6376	13,929.2	83.1727	13,929.2	77.6572	13,929.2	78.9824	13,929.2	75.7588	13,929.2	75.1841	13,929.2	74.9499	13,929.2	75.9264	13,929.2	71.9364	13,929.2	72.9557	13,929.2	68.2831	13,929.2	68.4026	13,929.2	66.8868	13,929.2	61.5389	13,929.2	60.8776	13,929.2	68.5231	13,929.2	57.6486	13,929.2	52.8332	13,929.2	60.3462	13,929.2	44.7267	13,929.2	52.7908	13,929.2	47.9874	13,929.2	58.4577	13,929.2	55.6003	13,929.2	61.1589	13,929.2	50.3892	13,929.2	60.8348	13,929.2	59.3398	13,929.2	55.5706	13,929.2	57.0215	13,929.2	51.5419
14,419.9	87.2074	14,419.9	86.8302	14,419.9	86.6449	14,419.9	84.4518	14,419.9	85.3796	14,419.9	81.7384	14,419.9	82.628	14,419.9	77.0327	14,419.9	77.1518	14,419.9	76.5845	14,419.9	76.8701	14,419.9	75.4612	14,419.9	76.7798	14,419.9	70.9066	14,419.9	70.1501	14,419.9	68.0715	14,419.9	70.8886	14,419.9	66.3958	14,419.9	59.9056	14,419.9	59.6893	14,419.9	68.3948	14,419.9	57.6336	14,419.9	57.3729	14,419.9	59.301	14,419.9	36.2101	14,419.9	54.8454	14,419.9	46.557	14,419.9	57.1612	14,419.9	57.7117	14,419.9	61.3689	14,419.9	48.3167	14,419.9	60.0411	14,419.9	59.0403	14,419.9	53.3587	14,419.9	56.6614	14,419.9	49.825
14,928.2	86.9199	14,928.2	86.8786	14,928.2	86.4814	14,928.2	84.1686	14,928.2	84.8336	14,928.2	81.4289	14,928.2	81.5636	14,928.2	77.5624	14,928.2	77.7679	14,928.2	76.5241	14,928.2	76.9257	14,928.2	75.2742	14,928.2	74.7663	14,928.2	70.7474	14,928.2	66.2929	14,928.2	67.7496	14,928.2	69.5636	14,928.2	66.5998	14,928.2	62.2509	14,928.2	58.7914	14,928.2	69.5424	14,928.2	57.3711	14,928.2	59.7004	14,928.2	58.299	14,928.2	44.2866	14,928.2	54.9292	14,928.2	34.7121	14,928.2	57.3122	14,928.2	55.3401	14,928.2	61.7191	14,928.2	48.991	14,928.2	59.1266	14,928.2	55.2776	14,928.2	53.3225	14,928.2	56.7373	14,928.2	48.8251
15,455.6	86.3933	15,455.6	86.5402	15,455.6	86.3641	15,455.6	83.822	15,455.6	84.8019	15,455.6	80.3337	15,455.6	81.7312	15,455.6	78.1399	15,455.6	78.3842	15,455.6	76.6153	15,455.6	75.6483	15,455.6	74.8921	15,455.6	73.4885	15,455.6	70.4393	15,455.6	71.1218	15,455.6	67.376	15,455.6	64.9285	15,455.6	66.1883	15,455.6	63.2168	15,455.6	56.9346	15,455.6	69.2825	15,455.6	57.0247	15,455.6	57.7522	15,455.6	58.082	15,455.6	37.0762	15,455.6	55.8186	15,455.6	34.0337	15,455.6	57.3177	15,455.6	44.2809	15,455.6	61.5402	15,455.6	50.6297	15,455.6	59.0893	15,455.6	56.0307	15,455.6	54.0803	15,455.6	53.5341	15,455.6	49.2485
16,000.5	85.9456	16,000.5	86.2651	16,000.5	85.9486	16,000.5	83.4187	16,000.5	84.2001	16,000.5	80.2977	16,000.5	80.8866	16,000.5	77.6321	16,000.5	78.1846	16,000.5	75.8535	16,000.5	76.1016	16,000.5	74.63	16,000.5	75.345	16,000.5	70.2212	16,000.5	67.177	16,000.5	66.9335	16,000.5	66.5203	16,000.5	65.5841	16,000.5	61.7986	16,000.5	55.2671	16,000.5	69.6748	16,000.5	56.0112	16,000.5	58.2358	16,000.5	57.9476	16,000.5	46.6021	16,000.5	53.417	16,000.5	38.111	16,000.5	57.4115	16,000.5	45.7731	16,000.5	60.6374	16,000.5	48.9536	16,000.5	58.6495	16,000.5	51.6514	16,000.5	51.235	16,000.5	48.7924	16,000.5	47.1563
16,564.5	85.7383	16,564.5	86.2697	16,564.5	85.5684	16,564.5	82.8337	16,564.5	83.4304	16,564.5	80.2359	16,564.5	80.6506	16,564.5	76.7215	16,564.5	77.0785	16,564.5	76.1068	16,564.5	75.3557	16,564.5	73.7288	16,564.5	72.0051	16,564.5	69.1934	16,564.5	64.8307	16,564.5	65.9831	16,564.5	68.2138	16,564.5	64.6024	16,564.5	59.924	16,564.5	55.4022	16,564.5	69.7999	16,564.5	55.5533	16,564.5	60.2028	16,564.5	57.8625	16,564.5	44.5251	16,564.5	53.008	16,564.5	43.593	16,564.5	57.24	16,564.5	48.1163	16,564.5	59.7088	16,564.5	37.4315	16,564.5	57.8182	16,564.5	47.1834	16,564.5	51.7041	16,564.5	48.7179	16,564.5	44.0099
17,148.9	85.6012	17,148.9	85.8281	17,148.9	85.6131	17,148.9	82.1376	17,148.9	82.5786	17,148.9	80.1664	17,148.9	79.0113	17,148.9	75.9254	17,148.9	76.2052	17,148.9	75.4531	17,148.9	75.1871	17,148.9	72.868	17,148.9	69.7684	17,148.9	68.8144	17,148.9	67.9618	17,148.9	65.4135	17,148.9	65.5736	17,148.9	63.3391	17,148.9	58.7332	17,148.9	55.4063	17,148.9	69.1782	17,148.9	53.403	17,148.9	61.1594	17,148.9	57.2863	17,148.9	46.9952	17,148.9	50.8111	17,148.9	28.6672	17,148.9	56.8615	17,148.9	48.886	17,148.9	57.7399	17,148.9	37.5477	17,148.9	56.7687	17,148.9	45.7546	17,148.9	49.7835	17,148.9	47.2367	17,148.9	39.6584
17,752.4	85.6799	17,752.4	85.4671	17,752.4	85.2673	17,752.4	81.7653	17,752.4	81.7613	17,752.4	79.4481	17,752.4	79.209	17,752.4	75.1839	17,752.4	76.2916	17,752.4	74.6622	17,752.4	74.0082	17,752.4	72.1123	17,752.4	70.9317	17,752.4	67.4526	17,752.4	64.2095	17,752.4	63.8402	17,752.4	62.8855	17,752.4	61.7319	17,752.4	57.5905	17,752.4	56.3176	17,752.4	67.9031	17,752.4	51.1181	17,752.4	62.3819	17,752.4	56.956	17,752.4	48.1967	17,752.4	48.3897	17,752.4	41.463	17,752.4	56.6949	17,752.4	48.5503	17,752.4	56.1763	17,752.4	39.3133	17,752.4	55.6159	17,752.4	48.1318	17,752.4	43.5005	17,752.4	47.2988	17,752.4	40.4788
18,379.4	85.3599	18,379.4	84.9402	18,379.4	84.5392	18,379.4	80.9846	18,379.4	81.3511	18,379.4	78.4254	18,379.4	79.1428	18,379.4	74.5839	18,379.4	75.6067	18,379.4	74.1934	18,379.4	73.0005	18,379.4	70.6975	18,379.4	70.3651	18,379.4	66.5516	18,379.4	62.5884	18,379.4	62.5632	18,379.4	60.8584	18,379.4	59.7326	18,379.4	56.3754	18,379.4	56.0515	18,379.4	65.3227	18,379.4	49.7835	18,379.4	61.5168	18,379.4	55.663	18,379.4	39.538	18,379.4	47.4591	18,379.4	43.964	18,379.4	55.1336	18,379.4	49.0344	18,379.4	54.3098	18,379.4	39.299	18,379.4	53.7512	18,379.4	49.5579	18,379.4	41.1739	18,379.4	46.3957	18,379.4	37.8218
19,026.9	85.1611	19,026.9	84.4126	19,026.9	83.7524	19,026.9	80.4185	19,026.9	80.6714	19,026.9	77.4789	19,026.9	79.576	19,026.9	73.8754	19,026.9	75.6208	19,026.9	73.7371	19,026.9	72.8785	19,026.9	69.8825	19,026.9	69.0062	19,026.9	64.8162	19,026.9	57.9081	19,026.9	60.5161	19,026.9	55.4963	19,026.9	56.3093	19,026.9	54.6602	19,026.9	55.0594	19,026.9	61.621	19,026.9	47.6632	19,026.9	60.403	19,026.9	53.7453	19,026.9	45.2396	19,026.9	45.3821	19,026.9	44.7497	19,026.9	53.9707	19,026.9	51.1166	19,026.9	53.0649	19,026.9	39.0115	19,026.9	52.1476	19,026.9	48.6298	19,026.9	41.257	19,026.9	46.4305	19,026.9	42.1857
19,697.8	84.544	19,697.8	83.8856	19,697.8	83.0553	19,697.8	79.797	19,697.8	80.446	19,697.8	77.2286	19,697.8	79.5499	19,697.8	73.5348	19,697.8	75.7231	19,697.8	73.4798	19,697.8	71.8376	19,697.8	68.3485	19,697.8	64.9581	19,697.8	62.1849	19,697.8	59.8593	19,697.8	57.6337	19,697.8	52.759	19,697.8	51.3882	19,697.8	51.6605	19,697.8	52.4156	19,697.8	57.5086	19,697.8	45.6256	19,697.8	60.1177	19,697.8	51.1873	19,697.8	45.3127	19,697.8	45.3846	19,697.8	46.0984	19,697.8	52.8199	19,697.8	50.0781	19,697.8	50.8146	19,697.8	38.7814	19,697.8	49.2303	19,697.8	46.978	19,697.8	36.426	19,697.8	48.32	19,697.8	44.848
19,999.5	84.1409	19,999.5	83.562	19,999.5	82.649	19,999.5	79.6336	19,999.5	80.1328	19,999.5	77.1045	19,999.5	79.6567	19,999.5	73.4029	19,999.5	75.4893	19,999.5	73.4306	19,999.5	71.3354	19,999.5	67.4148	19,999.5	62.2202	19,999.5	59.6465	19,999.5	61.1822	19,999.5	55.6226	19,999.5	50.1286	19,999.5	46.307	19,999.5	60.1728	19,999.5	52.8657	19,999.5	54.9729	19,999.5	46.8532	19,999.5	60.6613	19,999.5	51.5406	19,999.5	46.836	19,999.5	48.4099	19,999.5	44.033	19,999.5	55.5574	19,999.5	54.4714	19,999.5	56.5643	19,999.5	42.2921	19,999.5	53.727	19,999.5	43.7693	19,999.5	44.2885	19,999.5	51.0387	19,999.5	47.1711
