"SPL Horizontal"
"On-Axis"		"10°"		"-10°"		"20°"		"-20°"		"30°"		"-30°"		"40°"		"-40°"		"50°"		"-50°"		"60°"		"-60°"		"70°"		"-70°"		"80°"		"-80°"		"90°"		"-90°"		"100°"		"-100°"		"110°"		"-110°"		"120°"		"-120°"		"130°"		"-130°"		"140°"		"-140°"		"150°"		"-150°"		"160°"		"-160°"		"170°"		"-170°"		"180°"
"Frequency [Hz]"	"Sound Pessure Level [dB]  / [2.83V 1m] "	"Frequency [Hz]"	"Sound Pessure Level [dB]  / [2.83V 1m] "	"Frequency [Hz]"	"Sound Pessure Level [dB]  / [2.83V 1m] "	"Frequency [Hz]"	"Sound Pessure Level [dB]  / [2.83V 1m] "	"Frequency [Hz]"	"Sound Pessure Level [dB]  / [2.83V 1m] "	"Frequency [Hz]"	"Sound Pessure Level [dB]  / [2.83V 1m] "	"Frequency [Hz]"	"Sound Pessure Level [dB]  / [2.83V 1m] "	"Frequency [Hz]"	"Sound Pessure Level [dB]  / [2.83V 1m] "	"Frequency [Hz]"	"Sound Pessure Level [dB]  / [2.83V 1m] "	"Frequency [Hz]"	"Sound Pessure Level [dB]  / [2.83V 1m] "	"Frequency [Hz]"	"Sound Pessure Level [dB]  / [2.83V 1m] "	"Frequency [Hz]"	"Sound Pessure Level [dB]  / [2.83V 1m] "	"Frequency [Hz]"	"Sound Pessure Level [dB]  / [2.83V 1m] "	"Frequency [Hz]"	"Sound Pessure Level [dB]  / [2.83V 1m] "	"Frequency [Hz]"	"Sound Pessure Level [dB]  / [2.83V 1m] "	"Frequency [Hz]"	"Sound Pessure Level [dB]  / [2.83V 1m] "	"Frequency [Hz]"	"Sound Pessure Level [dB]  / [2.83V 1m] "	"Frequency [Hz]"	"Sound Pessure Level [dB]  / [2.83V 1m] "	"Frequency [Hz]"	"Sound Pessure Level [dB]  / [2.83V 1m] "	"Frequency [Hz]"	"Sound Pessure Level [dB]  / [2.83V 1m] "	"Frequency [Hz]"	"Sound Pessure Level [dB]  / [2.83V 1m] "	"Frequency [Hz]"	"Sound Pessure Level [dB]  / [2.83V 1m] "	"Frequency [Hz]"	"Sound Pessure Level [dB]  / [2.83V 1m] "	"Frequency [Hz]"	"Sound Pessure Level [dB]  / [2.83V 1m] "	"Frequency [Hz]"	"Sound Pessure Level [dB]  / [2.83V 1m] "	"Frequency [Hz]"	"Sound Pessure Level [dB]  / [2.83V 1m] "	"Frequency [Hz]"	"Sound Pessure Level [dB]  / [2.83V 1m] "	"Frequency [Hz]"	"Sound Pessure Level [dB]  / [2.83V 1m] "	"Frequency [Hz]"	"Sound Pessure Level [dB]  / [2.83V 1m] "	"Frequency [Hz]"	"Sound Pessure Level [dB]  / [2.83V 1m] "	"Frequency [Hz]"	"Sound Pessure Level [dB]  / [2.83V 1m] "	"Frequency [Hz]"	"Sound Pessure Level [dB]  / [2.83V 1m] "	"Frequency [Hz]"	"Sound Pessure Level [dB]  / [2.83V 1m] "	"Frequency [Hz]"	"Sound Pessure Level [dB]  / [2.83V 1m] "	"Frequency [Hz]"	"Sound Pessure Level [dB]  / [2.83V 1m] "	"Frequency [Hz]"	"Sound Pessure Level [dB]  / [2.83V 1m] "
20.5078	57.9395	20.5078	58.065	20.5078	57.8642	20.5078	58.2356	20.5078	57.84	20.5078	58.4439	20.5078	57.8636	20.5078	58.6805	20.5078	57.9284	20.5078	58.9345	20.5078	58.0257	20.5078	59.1918	20.5078	58.1452	20.5078	59.4348	20.5078	58.275	20.5078	59.6428	20.5078	58.4012	20.5078	59.7956	20.5078	58.51	20.5078	59.8772	20.5078	58.5903	20.5078	59.8797	20.5078	58.6363	20.5078	59.8041	20.5078	58.6492	20.5078	59.6603	20.5078	58.6368	20.5078	59.466	20.5078	58.6114	20.5078	59.2453	20.5078	58.5879	20.5078	59.0268	20.5078	58.5835	20.5078	58.8378	20.5078	58.6155	20.5078	58.6983
21.9727	53.306	21.9727	53.7597	21.9727	52.8224	21.9727	54.1813	21.9727	52.3103	21.9727	54.5684	21.9727	51.7703	21.9727	54.9196	21.9727	51.204	21.9727	55.2333	21.9727	50.6182	21.9727	55.5066	21.9727	50.0292	21.9727	55.7325	21.9727	49.4676	21.9727	55.8984	21.9727	48.9798	21.9727	55.9876	21.9727	48.6227	21.9727	55.9826	21.9727	48.45	21.9727	55.8699	21.9727	48.495	21.9727	55.6444	21.9727	48.7587	21.9727	55.3106	21.9727	49.2111	21.9727	54.8816	21.9727	49.8021	21.9727	54.3755	21.9727	50.4748	21.9727	53.8107	21.9727	51.179	21.9727	53.2014	21.9727	51.8791	21.9727	52.5559
23.4375	46.2119	23.4375	45.0626	23.4375	47.2406	23.4375	43.7687	23.4375	48.1672	23.4375	42.3119	23.4375	49.0034	23.4375	40.7271	23.4375	49.7552	23.4375	39.2258	23.4375	50.4226	23.4375	38.3393	23.4375	50.9977	23.4375	38.5779	23.4375	51.4636	23.4375	39.6834	23.4375	51.7956	23.4375	41.0049	23.4375	51.9646	23.4375	42.1659	23.4375	51.9421	23.4375	43.0502	23.4375	51.705	23.4375	43.6451	23.4375	51.2374	23.4375	43.9684	23.4375	50.5321	23.4375	44.0555	23.4375	49.592	23.4375	43.9819	23.4375	48.4383	23.4375	43.905	23.4375	47.1322	23.4375	44.0765	23.4375	45.8132	23.4375	44.7176
24.9023	55.5517	24.9023	55.5996	24.9023	55.498	24.9023	55.6414	24.9023	55.4395	24.9023	55.6779	24.9023	55.3786	24.9023	55.7107	24.9023	55.3196	24.9023	55.7421	24.9023	55.2697	24.9023	55.7747	24.9023	55.2385	24.9023	55.8113	24.9023	55.2369	24.9023	55.8545	24.9023	55.2749	24.9023	55.9083	24.9023	55.3585	24.9023	55.978	24.9023	55.4878	24.9023	56.0696	24.9023	55.6571	24.9023	56.1866	24.9023	55.8561	24.9023	56.3267	24.9023	56.0715	24.9023	56.4791	24.9023	56.2877	24.9023	56.6255	24.9023	56.4878	24.9023	56.7442	24.9023	56.6542	24.9023	56.8156	24.9023	56.7708	24.9023	56.826
26.3672	40.4984	26.3672	40.9416	26.3672	40.1987	26.3672	41.4767	26.3672	40.0923	26.3672	42.0574	26.3672	40.2072	26.3672	42.6417	26.3672	40.5283	26.3672	43.1893	26.3672	40.9903	26.3672	43.6594	26.3672	41.4937	26.3672	44.0111	26.3672	41.9281	26.3672	44.2045	26.3672	42.1898	26.3672	44.2001	26.3672	42.1882	26.3672	43.9586	26.3672	41.8456	26.3672	43.4375	26.3672	41.0934	26.3672	42.5875	26.3672	39.8672	26.3672	41.3474	26.3672	38.0995	26.3672	39.6378	26.3672	35.7055	26.3672	37.3484	26.3672	32.543	26.3672	34.307	26.3672	28.3096	26.3672	30.2032	26.3672	23.1803	26.3672	24.74
27.832	51.9525	27.832	51.536	27.832	52.3665	27.832	51.1213	27.832	52.7743	27.832	50.7141	27.832	53.1729	27.832	50.3222	27.832	53.5597	27.832	49.9572	27.832	53.9319	27.832	49.6351	27.832	54.2845	27.832	49.376	27.832	54.6095	27.832	49.2009	27.832	54.8949	27.832	49.1276	27.832	55.1258	27.832	49.1674	27.832	55.2861	27.832	49.325	27.832	55.361	27.832	49.5996	27.832	55.3388	27.832	49.9872	27.832	55.2116	27.832	50.4789	27.832	54.9757	27.832	51.0587	27.832	54.6314	27.832	51.7007	27.832	54.1837	27.832	52.3704	27.832	53.6435	27.832	53.0298
29.2969	46.181	29.2969	46.3409	29.2969	46.0897	29.2969	46.5502	29.2969	46.0896	29.2969	46.7943	29.2969	46.2017	29.2969	47.06	29.2969	46.4351	29.2969	47.3322	29.2969	46.7778	29.2969	47.5915	29.2969	47.1928	29.2969	47.8139	29.2969	47.6241	29.2969	47.9742	29.2969	48.008	29.2969	48.05	29.2969	48.284	29.2969	48.025	29.2969	48.4027	29.2969	47.8889	29.2969	48.3304	29.2969	47.6373	29.2969	48.0519	29.2969	47.2705	29.2969	47.5758	29.2969	46.798	29.2969	46.9412	29.2969	46.2489	29.2969	46.2287	29.2969	45.6873	29.2969	45.5674	29.2969	45.2236	29.2969	45.1163	29.2969	44.9985
30.7617	57.0694	30.7617	56.9882	30.7617	57.1516	30.7617	56.9084	30.7617	57.234	30.7617	56.8306	30.7617	57.3155	30.7617	56.7555	30.7617	57.3951	30.7617	56.6854	30.7617	57.472	30.7617	56.6239	30.7617	57.545	30.7617	56.5757	30.7617	57.6128	30.7617	56.5456	30.7617	57.6726	30.7617	56.5374	30.7617	57.7209	30.7617	56.5534	30.7617	57.7537	30.7617	56.5943	30.7617	57.7679	30.7617	56.6594	30.7617	57.7618	30.7617	56.7464	30.7617	57.7355	30.7617	56.8515	30.7617	57.69	30.7617	56.9695	30.7617	57.6266	30.7617	57.0943	30.7617	57.5462	30.7617	57.2198	30.7617	57.45	30.7617	57.34
32.2266	60.9196	32.2266	60.9211	32.2266	60.9069	32.2266	60.9127	32.2266	60.882	32.2266	60.8953	32.2266	60.8447	32.2266	60.8704	32.2266	60.7957	32.2266	60.8399	32.2266	60.7373	32.2266	60.8069	32.2266	60.6735	32.2266	60.776	32.2266	60.6101	32.2266	60.752	32.2266	60.5538	32.2266	60.7394	32.2266	60.5117	32.2266	60.74	32.2266	60.4895	32.2266	60.7528	32.2266	60.4907	32.2266	60.7735	32.2266	60.515	32.2266	60.7966	32.2266	60.5582	32.2266	60.8166	32.2266	60.6132	32.2266	60.8292	32.2266	60.6715	32.2266	60.8321	32.2266	60.7258	32.2266	60.8237	32.2266	60.7706	32.2266	60.8034
33.6914	64.1743	33.6914	64.1306	33.6914	64.2183	33.6914	64.0876	33.6914	64.262	33.6914	64.0456	33.6914	64.3049	33.6914	64.0051	33.6914	64.347	33.6914	63.9673	33.6914	64.3882	33.6914	63.9343	33.6914	64.4291	33.6914	63.9097	33.6914	64.4699	33.6914	63.8973	33.6914	64.5106	33.6914	63.9007	33.6914	64.5506	33.6914	63.9221	33.6914	64.5882	33.6914	63.9616	33.6914	64.6213	33.6914	64.0175	33.6914	64.6469	33.6914	64.0866	33.6914	64.6617	33.6914	64.1655	33.6914	64.6628	33.6914	64.2503	33.6914	64.6474	33.6914	64.3369	33.6914	64.6143	33.6914	64.4211	33.6914	64.5639	33.6914	64.4983
35.1562	67.8636	35.1562	67.857	35.1562	67.8701	35.1562	67.8507	35.1562	67.8763	35.1562	67.8447	35.1562	67.8817	35.1562	67.8389	35.1562	67.8859	35.1562	67.8332	35.1562	67.8885	35.1562	67.8276	35.1562	67.8887	35.1562	67.8225	35.1562	67.8861	35.1562	67.8183	35.1562	67.8801	35.1562	67.8155	35.1562	67.8707	35.1562	67.8138	35.1562	67.8589	35.1562	67.8131	35.1562	67.8469	35.1562	67.8132	35.1562	67.8371	35.1562	67.8142	35.1562	67.8315	35.1562	67.8165	35.1562	67.8305	35.1562	67.8207	35.1562	67.833	35.1562	67.8264	35.1562	67.8364	35.1562	67.8324	35.1562	67.8382	35.1562	67.8368
36.6211	70.5196	36.6211	70.5374	36.6211	70.4946	36.6211	70.5484	36.6211	70.4624	36.6211	70.5523	36.6211	70.4225	36.6211	70.5489	36.6211	70.3748	36.6211	70.5378	36.6211	70.3193	36.6211	70.5185	36.6211	70.2566	36.6211	70.4911	36.6211	70.1884	36.6211	70.4557	36.6211	70.1174	36.6211	70.413	36.6211	70.0475	36.6211	70.3641	36.6211	69.9839	36.6211	70.3109	36.6211	69.9316	36.6211	70.2553	36.6211	69.8945	36.6211	70.1994	36.6211	69.8745	36.6211	70.1454	36.6211	69.8712	36.6211	70.0947	36.6211	69.8821	36.6211	70.048	36.6211	69.9038	36.6211	70.0056	36.6211	69.9329	36.6211	69.9672
38.0859	73.7763	38.0859	73.7691	38.0859	73.7799	38.0859	73.7578	38.0859	73.7806	38.0859	73.742	38.0859	73.7784	38.0859	73.7212	38.0859	73.7736	38.0859	73.6949	38.0859	73.766	38.0859	73.6632	38.0859	73.755	38.0859	73.6266	38.0859	73.7397	38.0859	73.5859	38.0859	73.7191	38.0859	73.5424	38.0859	73.6919	38.0859	73.4978	38.0859	73.6573	38.0859	73.4535	38.0859	73.6155	38.0859	73.4112	38.0859	73.5675	38.0859	73.3727	38.0859	73.5157	38.0859	73.3401	38.0859	73.463	38.0859	73.3155	38.0859	73.413	38.0859	73.3014	38.0859	73.369	38.0859	73.2994	38.0859	73.3341	38.0859	73.3104
39.5508	76.3093	39.5508	76.3351	39.5508	76.2748	39.5508	76.3519	39.5508	76.2315	39.5508	76.36	39.5508	76.18	39.5508	76.3592	39.5508	76.1206	39.5508	76.3497	39.5508	76.0543	39.5508	76.3317	39.5508	75.9826	39.5508	76.3054	39.5508	75.9076	39.5508	76.2711	39.5508	75.8326	39.5508	76.2293	39.5508	75.7617	39.5508	76.1806	39.5508	75.6994	39.5508	76.1259	39.5508	75.6496	39.5508	76.0664	39.5508	75.615	39.5508	76.0037	39.5508	75.5967	39.5508	75.9395	39.5508	75.5942	39.5508	75.8758	39.5508	75.6059	39.5508	75.8146	39.5508	75.6298	39.5508	75.7579	39.5508	75.6641	39.5508	75.7073
41.0156	79.6616	41.0156	79.6849	41.0156	79.6398	41.0156	79.7088	41.0156	79.6192	41.0156	79.7316	41.0156	79.599	41.0156	79.7508	41.0156	79.5773	41.0156	79.7634	41.0156	79.5518	41.0156	79.7661	41.0156	79.5203	41.0156	79.756	41.0156	79.4808	41.0156	79.7307	41.0156	79.4323	41.0156	79.6885	41.0156	79.3746	41.0156	79.6289	41.0156	79.3086	41.0156	79.5524	41.0156	79.2361	41.0156	79.4616	41.0156	79.1601	41.0156	79.3606	41.0156	79.0853	41.0156	79.2554	41.0156	79.0173	41.0156	79.1533	41.0156	78.9632	41.0156	79.0623	41.0156	78.9295	41.0156	78.9897	41.0156	78.9214	41.0156	78.9416
42.4805	81.4011	42.4805	81.4023	42.4805	81.3942	42.4805	81.3981	42.4805	81.382	42.4805	81.3886	42.4805	81.3648	42.4805	81.3742	42.4805	81.3429	42.4805	81.3556	42.4805	81.3172	42.4805	81.3335	42.4805	81.2883	42.4805	81.3087	42.4805	81.2572	42.4805	81.2821	42.4805	81.225	42.4805	81.2543	42.4805	81.1931	42.4805	81.2258	42.4805	81.1625	42.4805	81.1972	42.4805	81.1344	42.4805	81.1691	42.4805	81.1094	42.4805	81.1419	42.4805	81.088	42.4805	81.1165	42.4805	81.0707	42.4805	81.0937	42.4805	81.0578	42.4805	81.0746	42.4805	81.0498	42.4805	81.0601	42.4805	81.0474	42.4805	81.0508
43.9453	83.4187	43.9453	83.4148	43.9453	83.4171	43.9453	83.4053	43.9453	83.4098	43.9453	83.3906	43.9453	83.397	43.9453	83.371	43.9453	83.379	43.9453	83.347	43.9453	83.356	43.9453	83.3188	43.9453	83.3286	43.9453	83.287	43.9453	83.2973	43.9453	83.252	43.9453	83.2627	43.9453	83.2144	43.9453	83.2256	43.9453	83.1749	43.9453	83.1865	43.9453	83.1345	43.9453	83.1464	43.9453	83.0947	43.9453	83.1061	43.9453	83.0568	43.9453	83.067	43.9453	83.0226	43.9453	83.0308	43.9453	82.9938	43.9453	82.9995	43.9453	82.9719	43.9453	82.9753	43.9453	82.9584	43.9453	82.9599	43.9453	82.9542
45.4102	85.4195	45.4102	85.4179	45.4102	85.4139	45.4102	85.4092	45.4102	85.4012	45.4102	85.3935	45.4102	85.3816	45.4102	85.3712	45.4102	85.3557	45.4102	85.3428	45.4102	85.3239	45.4102	85.309	45.4102	85.287	45.4102	85.2704	45.4102	85.2459	45.4102	85.2279	45.4102	85.2016	45.4102	85.1824	45.4102	85.1554	45.4102	85.1351	45.4102	85.1084	45.4102	85.0874	45.4102	85.0621	45.4102	85.0407	45.4102	85.0177	45.4102	84.9966	45.4102	84.9766	45.4102	84.9568	45.4102	84.9403	45.4102	84.923	45.4102	84.9102	45.4102	84.8968	45.4102	84.888	45.4102	84.8795	45.4102	84.875	45.4102	84.8721
46.875	87.295	46.875	87.2945	46.875	87.2877	46.875	87.2864	46.875	87.2729	46.875	87.2709	46.875	87.2508	46.875	87.2485	46.875	87.222	46.875	87.2199	46.875	87.1871	46.875	87.1858	46.875	87.1471	46.875	87.1472	46.875	87.1029	46.875	87.1051	46.875	87.056	46.875	87.0606	46.875	87.0077	46.875	87.0148	46.875	86.9595	46.875	86.9689	46.875	86.9128	46.875	86.9241	46.875	86.8691	46.875	86.8816	46.875	86.8298	46.875	86.8425	46.875	86.7965	46.875	86.8083	46.875	86.7707	46.875	86.7803	46.875	86.7535	46.875	86.7598	46.875	86.7458	46.875	86.7481
48.3398	89.0185	48.3398	89.0176	48.3398	89.0115	48.3398	89.0089	48.3398	88.9968	48.3398	88.9924	48.3398	88.9749	48.3398	88.9686	48.3398	88.9462	48.3398	88.9382	48.3398	88.9116	48.3398	88.9019	48.3398	88.872	48.3398	88.8609	48.3398	88.8286	48.3398	88.8162	48.3398	88.7826	48.3398	88.7694	48.3398	88.7354	48.3398	88.7217	48.3398	88.6883	48.3398	88.6749	48.3398	88.6428	48.3398	88.6304	48.3398	88.6003	48.3398	88.5895	48.3398	88.5621	48.3398	88.5535	48.3398	88.5296	48.3398	88.5233	48.3398	88.5039	48.3398	88.4997	48.3398	88.486	48.3398	88.4837	48.3398	88.4765	48.3398	88.4758
51.2695	91.8951	51.2695	91.8941	51.2695	91.8874	51.2695	91.8844	51.2695	91.8711	51.2695	91.8664	51.2695	91.8468	51.2695	91.8407	51.2695	91.8152	51.2695	91.8082	51.2695	91.7772	51.2695	91.77	51.2695	91.7341	51.2695	91.7273	51.2695	91.687	51.2695	91.6815	51.2695	91.6377	51.2695	91.6341	51.2695	91.5877	51.2695	91.5865	51.2695	91.5387	51.2695	91.54	51.2695	91.4922	51.2695	91.4961	51.2695	91.4498	51.2695	91.4558	51.2695	91.4129	51.2695	91.4203	51.2695	91.3826	51.2695	91.3903	51.2695	91.3597	51.2695	91.3665	51.2695	91.3449	51.2695	91.3495	51.2695	91.3384	51.2695	91.34
52.7344	93.0515	52.7344	93.0506	52.7344	93.0434	52.7344	93.0408	52.7344	93.0266	52.7344	93.0224	52.7344	93.0016	52.7344	92.9962	52.7344	92.9692	52.7344	92.963	52.7344	92.9304	52.7344	92.9241	52.7344	92.8867	52.7344	92.8808	52.7344	92.8394	52.7344	92.8346	52.7344	92.7902	52.7344	92.787	52.7344	92.7408	52.7344	92.7397	52.7344	92.6927	52.7344	92.694	52.7344	92.6477	52.7344	92.6513	52.7344	92.6071	52.7344	92.6126	52.7344	92.5722	52.7344	92.5788	52.7344	92.5439	52.7344	92.5506	52.7344	92.5227	52.7344	92.5285	52.7344	92.5091	52.7344	92.513	52.7344	92.503	52.7344	92.5044
54.1992	94.0411	54.1992	94.0399	54.1992	94.0331	54.1992	94.0294	54.1992	94.0161	54.1992	94.0102	54.1992	93.9906	54.1992	93.9829	54.1992	93.9576	54.1992	93.9485	54.1992	93.918	54.1992	93.9083	54.1992	93.8735	54.1992	93.8637	54.1992	93.8255	54.1992	93.8164	54.1992	93.7757	54.1992	93.768	54.1992	93.726	54.1992	93.7203	54.1992	93.6781	54.1992	93.6747	54.1992	93.6335	54.1992	93.6327	54.1992	93.5936	54.1992	93.5952	54.1992	93.5596	54.1992	93.563	54.1992	93.5323	54.1992	93.5366	54.1992	93.5121	54.1992	93.5162	54.1992	93.4991	54.1992	93.5021	54.1992	93.4933	54.1992	93.4943
55.6641	94.88	55.6641	94.8759	55.6641	94.8737	55.6641	94.8617	55.6641	94.8573	55.6641	94.8377	55.6641	94.8314	55.6641	94.805	55.6641	94.7969	55.6641	94.7647	55.6641	94.7551	55.6641	94.7183	55.6641	94.7074	55.6641	94.6676	55.6641	94.6556	55.6641	94.6146	55.6641	94.6017	55.6641	94.5612	55.6641	94.5475	55.6641	94.5095	55.6641	94.4948	55.6641	94.461	55.6641	94.4456	55.6641	94.4173	55.6641	94.4013	55.6641	94.3793	55.6641	94.3633	55.6641	94.3475	55.6641	94.3324	55.6641	94.3222	55.6641	94.3092	55.6641	94.3034	55.6641	94.2938	55.6641	94.2909	55.6641	94.2858	55.6641	94.285
58.5938	96.1515	58.5938	96.1451	58.5938	96.1463	58.5938	96.1273	58.5938	96.1297	58.5938	96.0986	58.5938	96.1021	58.5938	96.0602	58.5938	96.0648	58.5938	96.0134	58.5938	96.0189	58.5938	95.96	58.5938	95.9662	58.5938	95.902	58.5938	95.9085	58.5938	95.8416	58.5938	95.848	58.5938	95.7809	58.5938	95.7869	58.5938	95.7222	58.5938	95.7271	58.5938	95.6672	58.5938	95.6707	58.5938	95.6175	58.5938	95.6194	58.5938	95.5744	58.5938	95.5746	58.5938	95.5385	58.5938	95.5374	58.5938	95.5103	58.5938	95.5084	58.5938	95.4899	58.5938	95.488	58.5938	95.4773	58.5938	95.4762	58.5938	95.4727
60.0586	96.6971	60.0586	96.6915	60.0586	96.6913	60.0586	96.6744	60.0586	96.674	60.0586	96.6466	60.0586	96.6461	60.0586	96.6091	60.0586	96.6084	60.0586	96.5633	60.0586	96.5624	60.0586	96.5109	60.0586	96.5098	60.0586	96.4538	60.0586	96.4525	60.0586	96.3943	60.0586	96.3927	60.0586	96.3344	60.0586	96.3326	60.0586	96.2763	60.0586	96.2741	60.0586	96.2218	60.0586	96.2192	60.0586	96.1724	60.0586	96.1694	60.0586	96.1294	60.0586	96.126	60.0586	96.0934	60.0586	96.09	60.0586	96.065	60.0586	96.0618	60.0586	96.0444	60.0586	96.0418	60.0586	96.0316	60.0586	96.0302	60.0586	96.0269
62.9883	97.5567	62.9883	97.5482	62.9883	97.553	62.9883	97.5276	62.9883	97.5372	62.9883	97.4959	62.9883	97.5098	62.9883	97.454	62.9883	97.4719	62.9883	97.4036	62.9883	97.4248	62.9883	97.3464	62.9883	97.3702	62.9883	97.2847	62.9883	97.3102	62.9883	97.2206	62.9883	97.2467	62.9883	97.1564	62.9883	97.1822	62.9883	97.0943	62.9883	97.1187	62.9883	97.0363	62.9883	97.0584	62.9883	96.984	62.9883	97.003	62.9883	96.9385	62.9883	96.9539	62.9883	96.9008	62.9883	96.9125	62.9883	96.8714	62.9883	96.8795	62.9883	96.8504	62.9883	96.8554	62.9883	96.8382	62.9883	96.8405	62.9883	96.8348
64.4531	97.8823	64.4531	97.871	64.4531	97.8816	64.4531	97.8481	64.4531	97.8691	64.4531	97.8143	64.4531	97.8454	64.4531	97.771	64.4531	97.8115	64.4531	97.7197	64.4531	97.7687	64.4531	97.6624	64.4531	97.7187	64.4531	97.6013	64.4531	97.6635	64.4531	97.5388	64.4531	97.605	64.4531	97.4773	64.4531	97.5454	64.4531	97.4188	64.4531	97.4866	64.4531	97.3652	64.4531	97.4303	64.4531	97.3179	64.4531	97.3779	64.4531	97.2779	64.4531	97.3308	64.4531	97.2459	64.4531	97.29	64.4531	97.2221	64.4531	97.2561	64.4531	97.2068	64.4531	97.2298	64.4531	97.1999	64.4531	97.2115	64.4531	97.2015
67.3828	98.4294	67.3828	98.4164	67.3828	98.4304	67.3828	98.3917	67.3828	98.4194	67.3828	98.3562	67.3828	98.3971	67.3828	98.3114	67.3828	98.3646	67.3828	98.259	67.3828	98.3232	67.3828	98.2011	67.3828	98.2749	67.3828	98.1402	67.3828	98.2216	67.3828	98.0787	67.3828	98.1654	67.3828	98.0188	67.3828	98.1083	67.3828	97.9628	67.3828	98.0523	67.3828	97.9123	67.3828	97.9989	67.3828	97.8687	67.3828	97.9494	67.3828	97.8328	67.3828	97.9048	67.3828	97.8051	67.3828	97.8657	67.3828	97.7855	67.3828	97.8328	67.3828	97.7742	67.3828	97.8065	67.3828	97.7708	67.3828	97.7872	67.3828	97.7752
68.8477	98.6745	68.8477	98.6622	68.8477	98.6746	68.8477	98.638	68.8477	98.6626	68.8477	98.6029	68.8477	98.6392	68.8477	98.5582	68.8477	98.6057	68.8477	98.5059	68.8477	98.5635	68.8477	98.4481	68.8477	98.5146	68.8477	98.3873	68.8477	98.4612	68.8477	98.326	68.8477	98.4054	68.8477	98.2668	68.8477	98.3496	68.8477	98.2118	68.8477	98.2956	68.8477	98.1628	68.8477	98.245	68.8477	98.1212	68.8477	98.199	68.8477	98.0877	68.8477	98.1582	68.8477	98.0625	68.8477	98.1229	68.8477	98.0457	68.8477	98.0934	68.8477	98.0366	68.8477	98.0696	68.8477	98.0349	68.8477	98.0518	68.8477	98.0401
71.7773	99.1256	71.7773	99.1149	71.7773	99.1243	71.7773	99.0924	71.7773	99.1113	71.7773	99.059	71.7773	99.0873	71.7773	99.0161	71.7773	99.0536	71.7773	98.9655	71.7773	99.0118	71.7773	98.9094	71.7773	98.964	71.7773	98.8503	71.7773	98.9122	71.7773	98.7911	71.7773	98.8588	71.7773	98.7341	71.7773	98.8059	71.7773	98.6818	71.7773	98.7554	71.7773	98.6359	71.7773	98.7089	71.7773	98.5977	71.7773	98.6675	71.7773	98.5679	71.7773	98.6316	71.7773	98.5463	71.7773	98.6013	71.7773	98.5325	71.7773	98.5762	71.7773	98.5258	71.7773	98.5562	71.7773	98.5255	71.7773	98.5411	71.7773	98.5307
74.707	99.5036	74.707	99.4949	74.707	99.4997	74.707	99.4737	74.707	99.4834	74.707	99.4409	74.707	99.4557	74.707	99.3981	74.707	99.418	74.707	99.3471	74.707	99.3724	74.707	99.2903	74.707	99.3211	74.707	99.2304	74.707	99.2665	74.707	99.1702	74.707	99.2111	74.707	99.1122	74.707	99.1571	74.707	99.0588	74.707	99.1064	74.707	99.0119	74.707	99.0606	74.707	98.9727	74.707	99.0204	74.707	98.9419	74.707	98.9864	74.707	98.9194	74.707	98.9583	74.707	98.9047	74.707	98.9358	74.707	98.8968	74.707	98.9185	74.707	98.8949	74.707	98.906	74.707	98.8981
77.6367	99.8282	77.6367	99.821	77.6367	99.8216	77.6367	99.8004	77.6367	99.8017	77.6367	99.7672	77.6367	99.7693	77.6367	99.7229	77.6367	99.7263	77.6367	99.6696	77.6367	99.6748	77.6367	99.6096	77.6367	99.6171	77.6367	99.5458	77.6367	99.5562	77.6367	99.4809	77.6367	99.4945	77.6367	99.4178	77.6367	99.4347	77.6367	99.3589	77.6367	99.3787	77.6367	99.3062	77.6367	99.3281	77.6367	99.2613	77.6367	99.2838	77.6367	99.2247	77.6367	99.2462	77.6367	99.1965	77.6367	99.2156	77.6367	99.1764	77.6367	99.1917	77.6367	99.1636	77.6367	99.1742	77.6367	99.1573	77.6367	99.1628	77.6367	99.1572
79.1016	99.9708	79.1016	99.9635	79.1016	99.9638	79.1016	99.9424	79.1016	99.943	79.1016	99.9082	79.1016	99.9094	79.1016	99.8627	79.1016	99.8646	79.1016	99.8078	79.1016	99.8109	79.1016	99.7461	79.1016	99.7509	79.1016	99.6803	79.1016	99.6874	79.1016	99.6134	79.1016	99.6234	79.1016	99.5483	79.1016	99.5614	79.1016	99.4875	79.1016	99.5036	79.1016	99.4331	79.1016	99.4516	79.1016	99.3866	79.1016	99.4063	79.1016	99.3487	79.1016	99.3682	79.1016	99.3195	79.1016	99.3372	79.1016	99.2987	79.1016	99.3131	79.1016	99.2854	79.1016	99.2956	79.1016	99.2789	79.1016	99.2841	79.1016	99.2785
82.0312	100.152	82.0312	100.142	82.0312	100.147	82.0312	100.119	82.0312	100.127	82.0312	100.083	82.0312	100.094	82.0312	100.035	82.0312	100.049	82.0312	99.9779	82.0312	99.993	82.0312	99.9142	82.0312	99.93	82.0312	99.8467	82.0312	99.8623	82.0312	99.7779	82.0312	99.7932	82.0312	99.7109	82.0312	99.7256	82.0312	99.648	82.0312	99.6623	82.0312	99.5916	82.0312	99.6054	82.0312	99.5432	82.0312	99.5564	82.0312	99.5037	82.0312	99.5159	82.0312	99.4732	82.0312	99.4838	82.0312	99.4512	82.0312	99.4597	82.0312	99.4368	82.0312	99.4428	82.0312	99.4293	82.0312	99.4324	82.0312	99.4279
84.9609	100.269	84.9609	100.245	84.9609	100.279	84.9609	100.209	84.9609	100.275	84.9609	100.161	84.9609	100.258	84.9609	100.103	84.9609	100.229	84.9609	100.039	84.9609	100.189	84.9609	99.971	84.9609	100.141	84.9609	99.9022	84.9609	100.086	84.9609	99.8357	84.9609	100.029	84.9609	99.7742	84.9609	99.9697	84.9609	99.7203	84.9609	99.9123	84.9609	99.6758	84.9609	99.8583	84.9609	99.6416	84.9609	99.8089	84.9609	99.6182	84.9609	99.765	84.9609	99.6048	84.9609	99.727	84.9609	99.6003	84.9609	99.6945	84.9609	99.6032	84.9609	99.6671	84.9609	99.6121	84.9609	99.6444	84.9609	99.6261
87.8906	100.409	87.8906	100.4	87.8906	100.404	87.8906	100.379	87.8906	100.388	87.8906	100.345	87.8906	100.361	87.8906	100.3	87.8906	100.326	87.8906	100.247	87.8906	100.286	87.8906	100.187	87.8906	100.243	87.8906	100.126	87.8906	100.201	87.8906	100.065	87.8906	100.161	87.8906	100.009	87.8906	100.125	87.8906	99.9615	87.8906	100.094	87.8906	99.9239	87.8906	100.069	87.8906	99.8985	87.8906	100.049	87.8906	99.8857	87.8906	100.032	87.8906	99.8845	87.8906	100.017	87.8906	99.8929	87.8906	100.002	87.8906	99.908	87.8906	99.9851	87.8906	99.927	87.8906	99.967	87.8906	99.9473
90.8203	100.633	90.8203	100.633	90.8203	100.617	90.8203	100.615	90.8203	100.583	90.8203	100.583	90.8203	100.533	90.8203	100.537	90.8203	100.468	90.8203	100.481	90.8203	100.39	90.8203	100.418	90.8203	100.304	90.8203	100.35	90.8203	100.213	90.8203	100.281	90.8203	100.121	90.8203	100.212	90.8203	100.033	90.8203	100.145	90.8203	99.9527	90.8203	100.082	90.8203	99.8847	90.8203	100.024	90.8203	99.8309	90.8203	99.9716	90.8203	99.7923	90.8203	99.9244	90.8203	99.7686	90.8203	99.8826	90.8203	99.7583	90.8203	99.8461	90.8203	99.7597	90.8203	99.8149	90.8203	99.7706	90.8203	99.7895
95.2148	100.515	95.2148	100.517	95.2148	100.498	95.2148	100.504	95.2148	100.467	95.2148	100.478	95.2148	100.425	95.2148	100.44	95.2148	100.375	95.2148	100.392	95.2148	100.321	95.2148	100.34	95.2148	100.267	95.2148	100.287	95.2148	100.216	95.2148	100.236	95.2148	100.171	95.2148	100.192	95.2148	100.135	95.2148	100.156	95.2148	100.11	95.2148	100.131	95.2148	100.094	95.2148	100.115	95.2148	100.087	95.2148	100.108	95.2148	100.088	95.2148	100.108	95.2148	100.094	95.2148	100.111	95.2148	100.103	95.2148	100.116	95.2148	100.111	95.2148	100.12	95.2148	100.118	95.2148	100.121
98.1445	100.664	98.1445	100.665	98.1445	100.644	98.1445	100.648	98.1445	100.607	98.1445	100.614	98.1445	100.554	98.1445	100.564	98.1445	100.489	98.1445	100.502	98.1445	100.417	98.1445	100.432	98.1445	100.341	98.1445	100.358	98.1445	100.267	98.1445	100.284	98.1445	100.198	98.1445	100.215	98.1445	100.14	98.1445	100.154	98.1445	100.092	98.1445	100.103	98.1445	100.057	98.1445	100.063	98.1445	100.033	98.1445	100.035	98.1445	100.018	98.1445	100.018	98.1445	100.01	98.1445	100.008	98.1445	100.007	98.1445	100.005	98.1445	100.007	98.1445	100.005	98.1445	100.006	98.1445	100.005
101.074	100.569	101.074	100.572	101.074	100.548	101.074	100.559	101.074	100.512	101.074	100.532	101.074	100.461	101.074	100.491	101.074	100.397	101.074	100.441	101.074	100.325	101.074	100.384	101.074	100.25	101.074	100.325	101.074	100.174	101.074	100.266	101.074	100.105	101.074	100.211	101.074	100.045	101.074	100.162	101.074	99.9994	101.074	100.122	101.074	99.9685	101.074	100.091	101.074	99.9526	101.074	100.069	101.074	99.95	101.074	100.055	101.074	99.9576	101.074	100.045	101.074	99.9718	101.074	100.038	101.074	99.9886	101.074	100.029	101.074	100.005	101.074	100.019
105.469	100.569	105.469	100.549	105.469	100.57	105.469	100.509	105.469	100.551	105.469	100.452	105.469	100.513	105.469	100.381	105.469	100.459	105.469	100.3	105.469	100.393	105.469	100.215	105.469	100.318	105.469	100.131	105.469	100.24	105.469	100.053	105.469	100.164	105.469	99.985	105.469	100.093	105.469	99.931	105.469	100.032	105.469	99.8922	105.469	99.9816	105.469	99.8678	105.469	99.9436	105.469	99.8557	105.469	99.9166	105.469	99.8525	105.469	99.8986	105.469	99.8547	105.469	99.8871	105.469	99.8594	105.469	99.8797	105.469	99.8647	105.469	99.8744	105.469	99.8697
108.398	100.543	108.398	100.526	108.398	100.539	108.398	100.489	108.398	100.514	108.398	100.433	108.398	100.471	108.398	100.362	108.398	100.412	108.398	100.278	108.398	100.341	108.398	100.188	108.398	100.263	108.398	100.095	108.398	100.182	108.398	100.007	108.398	100.104	108.398	99.9283	108.398	100.034	108.398	99.8633	108.398	99.9745	108.398	99.8149	108.398	99.9282	108.398	99.7841	108.398	99.8949	108.398	99.7695	108.398	99.8729	108.398	99.7682	108.398	99.859	108.398	99.7761	108.398	99.8495	108.398	99.7894	108.398	99.8411	108.398	99.8046	108.398	99.8313	108.398	99.819
112.793	100.462	112.793	100.446	112.793	100.456	112.793	100.409	112.793	100.429	112.793	100.353	112.793	100.382	112.793	100.282	112.793	100.319	112.793	100.2	112.793	100.246	112.793	100.114	112.793	100.166	112.793	100.03	112.793	100.087	112.793	99.9537	112.793	100.015	112.793	99.8899	112.793	99.9524	112.793	99.8423	112.793	99.9043	112.793	99.812	112.793	99.8716	112.793	99.7984	112.793	99.8535	112.793	99.7987	112.793	99.8474	112.793	99.8089	112.793	99.8496	112.793	99.8243	112.793	99.8557	112.793	99.8404	112.793	99.8618	112.793	99.8538	112.793	99.8646	112.793	99.8621
117.188	100.487	117.188	100.471	117.188	100.475	117.188	100.429	117.188	100.436	117.188	100.363	117.188	100.372	117.188	100.276	117.188	100.285	117.188	100.174	117.188	100.181	117.188	100.062	117.188	100.067	117.188	99.9477	117.188	99.9488	117.188	99.8385	117.188	99.8353	117.188	99.7413	117.188	99.7338	117.188	99.6622	117.188	99.6509	117.188	99.6046	117.188	99.5904	117.188	99.5693	117.188	99.5533	117.188	99.554	117.188	99.5375	117.188	99.5537	117.188	99.5382	117.188	99.5623	117.188	99.5491	117.188	99.5731	117.188	99.5634	117.188	99.5808	117.188	99.5757	117.188	99.582
120.117	100.495	120.117	100.474	120.117	100.489	120.117	100.424	120.117	100.455	120.117	100.35	120.117	100.394	120.117	100.253	120.117	100.309	120.117	100.138	120.117	100.204	120.117	100.01	120.117	100.084	120.117	99.8769	120.117	99.954	120.117	99.7444	120.117	99.8219	120.117	99.6206	120.117	99.6947	120.117	99.512	120.117	99.5793	120.117	99.4237	120.117	99.4813	120.117	99.3582	120.117	99.4042	120.117	99.315	120.117	99.3488	120.117	99.2908	120.117	99.3135	120.117	99.2805	120.117	99.2941	120.117	99.2785	120.117	99.2855	120.117	99.2798	120.117	99.2826	120.117	99.2813
124.512	100.291	124.512	100.273	124.512	100.284	124.512	100.232	124.512	100.255	124.512	100.168	124.512	100.203	124.512	100.085	124.512	100.132	124.512	99.9842	124.512	100.043	124.512	99.8707	124.512	99.9419	124.512	99.7496	124.512	99.8319	124.512	99.6265	124.512	99.7183	124.512	99.5076	124.512	99.6064	124.512	99.3988	124.512	99.5013	124.512	99.3051	124.512	99.4073	124.512	99.23	124.512	99.3274	124.512	99.1748	124.512	99.2631	124.512	99.1386	124.512	99.2138	124.512	99.1189	124.512	99.1777	124.512	99.1117	124.512	99.152	124.512	99.1134	124.512	99.1338	124.512	99.1212
128.906	99.9515	128.906	99.9425	128.906	99.9382	128.906	99.9116	128.906	99.9032	128.906	99.8608	128.906	99.8485	128.906	99.7932	128.906	99.7773	128.906	99.7128	128.906	99.6938	128.906	99.6246	128.906	99.6029	128.906	99.5342	128.906	99.5102	128.906	99.4471	128.906	99.4212	128.906	99.3683	128.906	99.3413	128.906	99.3022	128.906	99.2747	128.906	99.2515	128.906	99.2245	128.906	99.2171	128.906	99.1916	128.906	99.198	128.906	99.1751	128.906	99.1913	128.906	99.1718	128.906	99.1927	128.906	99.1774	128.906	99.1975	128.906	99.1869	128.906	99.2013	128.906	99.1959	128.906	99.2011
133.301	99.8702	133.301	99.8644	133.301	99.8507	133.301	99.8342	133.301	99.8066	133.301	99.7815	133.301	99.7403	133.301	99.7097	133.301	99.6551	133.301	99.6235	133.301	99.5558	133.301	99.5281	133.301	99.4484	133.301	99.4298	133.301	99.3393	133.301	99.3344	133.301	99.2352	133.301	99.2476	133.301	99.1425	133.301	99.174	133.301	99.0663	133.301	99.1162	133.301	99.0101	133.301	99.0754	133.301	98.975	133.301	99.0505	133.301	98.9601	133.301	99.0384	133.301	98.9618	133.301	99.0347	133.301	98.9749	133.301	99.0342	133.301	98.9933	133.301	99.032	133.301	99.0113	133.301	99.0248
139.16	99.6558	139.16	99.6449	139.16	99.6408	139.16	99.609	139.16	99.6004	139.16	99.5508	139.16	99.5368	139.16	99.4744	139.16	99.4536	139.16	99.3851	139.16	99.3558	139.16	99.2895	139.16	99.2496	139.16	99.1945	139.16	99.1419	139.16	99.1067	139.16	99.0397	139.16	99.0316	139.16	98.9493	139.16	98.9728	139.16	98.8761	139.16	98.9313	139.16	98.8229	139.16	98.9058	139.16	98.7909	139.16	98.8931	139.16	98.7786	139.16	98.8885	139.16	98.7828	139.16	98.8872	139.16	98.7987	139.16	98.8845	139.16	98.8208	139.16	98.8772	139.16	98.8439	139.16	98.8635
143.555	99.5361	143.555	99.5083	143.555	99.5367	143.555	99.4547	143.555	99.5104	143.555	99.3786	143.555	99.459	143.555	99.2846	143.555	99.3864	143.555	99.179	143.555	99.2978	143.555	99.0693	143.555	99.2	143.555	98.964	143.555	99.1006	143.555	98.8711	143.555	99.0075	143.555	98.7976	143.555	98.9275	143.555	98.748	143.555	98.8657	143.555	98.7235	143.555	98.8244	143.555	98.7217	143.555	98.803	143.555	98.7373	143.555	98.7985	143.555	98.7631	143.555	98.8057	143.555	98.7921	143.555	98.8192	143.555	98.8178	143.555	98.8331	143.555	98.836	143.555	98.8427	143.555	98.8443
147.949	99.5277	147.949	99.4988	147.949	99.5224	147.949	99.4373	147.949	99.4833	147.949	99.347	147.949	99.4132	147.949	99.2336	147.949	99.3169	147.949	99.1042	147.949	99.2011	147.949	98.9674	147.949	99.0742	147.949	98.8323	147.949	98.9452	147.949	98.7083	147.949	98.8238	147.949	98.6035	147.949	98.7185	147.949	98.5244	147.949	98.6359	147.949	98.4742	147.949	98.5793	147.949	98.4525	147.949	98.5484	147.949	98.4553	147.949	98.5395	147.949	98.4758	147.949	98.5458	147.949	98.5055	147.949	98.5597	147.949	98.5365	147.949	98.5733	147.949	98.5618	147.949	98.5805	147.949	98.577
153.809	99.2814	153.809	99.268	153.809	99.2612	153.809	99.2217	153.809	99.2083	153.809	99.145	153.809	99.1256	153.809	99.0422	153.809	99.018	153.809	98.9194	153.809	98.8919	153.809	98.7846	153.809	98.7556	153.809	98.6467	153.809	98.6186	153.809	98.5157	153.809	98.4907	153.809	98.4007	153.809	98.3809	153.809	98.3094	153.809	98.2961	153.809	98.2462	153.809	98.2395	153.809	98.2116	153.809	98.2102	153.809	98.2019	153.809	98.2038	153.809	98.2104	153.809	98.2133	153.809	98.2286	153.809	98.2309	153.809	98.2481	153.809	98.2494	153.809	98.2626	153.809	98.263	153.809	98.2679
159.668	99.158	159.668	99.1427	159.668	99.1394	159.668	99.0953	159.668	99.0874	159.668	99.019	159.668	99.004	159.668	98.9189	159.668	98.8937	159.668	98.8012	159.668	98.7629	159.668	98.6735	159.668	98.6199	159.668	98.5444	159.668	98.4751	159.668	98.4226	159.668	98.3397	159.668	98.3169	159.668	98.2249	159.668	98.2345	159.668	98.1402	159.668	98.1803	159.668	98.091	159.668	98.1555	159.668	98.0778	159.668	98.1569	159.668	98.095	159.668	98.1778	159.668	98.1327	159.668	98.2086	159.668	98.1788	159.668	98.2392	159.668	98.2218	159.668	98.2605	159.668	98.2526	159.668	98.2659
165.527	99.0845	165.527	99.0569	165.527	99.0767	165.527	98.9958	165.527	99.0338	165.527	98.9054	165.527	98.9586	165.527	98.7922	165.527	98.8558	165.527	98.6645	165.527	98.7322	165.527	98.5319	165.527	98.5962	165.527	98.4045	165.527	98.4572	165.527	98.2915	165.527	98.3252	165.527	98.2007	165.527	98.21	165.527	98.1372	165.527	98.1198	165.527	98.1028	165.527	98.0608	165.527	98.0958	165.527	98.0349	165.527	98.1108	165.527	98.04	165.527	98.1399	165.527	98.0691	165.527	98.1736	165.527	98.112	165.527	98.2023	165.527	98.1572	165.527	98.218	165.527	98.1943	165.527	98.2157
171.387	98.9712	171.387	98.9296	171.387	98.9735	171.387	98.8499	171.387	98.9374	171.387	98.7359	171.387	98.8656	171.387	98.5938	171.387	98.7632	171.387	98.4322	171.387	98.637	171.387	98.2625	171.387	98.4954	171.387	98.0973	171.387	98.3484	171.387	97.9501	171.387	98.2067	171.387	97.8328	171.387	98.0806	171.387	97.7539	171.387	97.9793	171.387	97.7174	171.387	97.9094	171.387	97.7209	171.387	97.8735	171.387	97.7569	171.387	97.8695	171.387	97.8136	171.387	97.8904	171.387	97.877	171.387	97.9251	171.387	97.9341	171.387	97.961	171.387	97.9745	171.387	97.9863	171.387	97.9922
177.246	98.8573	177.246	98.841	177.246	98.8319	177.246	98.7826	177.246	98.7673	177.246	98.6844	177.246	98.6684	177.246	98.5511	177.246	98.5424	177.246	98.3901	177.246	98.3986	177.246	98.212	177.246	98.2481	177.246	98.0298	177.246	98.1022	177.246	97.8583	177.246	97.9721	177.246	97.7123	177.246	97.8667	177.246	97.6038	177.246	97.7916	177.246	97.54	177.246	97.7485	177.246	97.5214	177.246	97.7352	177.246	97.5421	177.246	97.7455	177.246	97.5911	177.246	97.7703	177.246	97.655	177.246	97.7991	177.246	97.7204	177.246	97.821	177.246	97.7755	177.246	97.8273	177.246	97.8124
183.105	98.7086	183.105	98.7017	183.105	98.6726	183.105	98.6528	183.105	98.5947	183.105	98.565	183.105	98.4787	183.105	98.4433	183.105	98.3309	183.105	98.295	183.105	98.1605	183.105	98.1292	183.105	97.9796	183.105	97.9574	183.105	97.802	183.105	97.7925	183.105	97.6422	183.105	97.6479	183.105	97.5128	183.105	97.5354	183.105	97.4228	183.105	97.4627	183.105	97.3757	183.105	97.4313	183.105	97.3689	183.105	97.4364	183.105	97.3947	183.105	97.4678	183.105	97.4418	183.105	97.5124	183.105	97.4973	183.105	97.5563	183.105	97.5484	183.105	97.5876	183.105	97.5844	183.105	97.5981
188.965	98.5648	188.965	98.5533	188.965	98.5294	188.965	98.4977	188.965	98.447	188.965	98.4025	188.965	98.32	188.965	98.2749	188.965	98.154	188.965	98.1239	188.965	97.9581	188.965	97.9605	188.965	97.7457	188.965	97.7974	188.965	97.5336	188.965	97.6482	188.965	97.3414	188.965	97.5257	188.965	97.1881	188.965	97.4397	188.965	97.0887	188.965	97.3947	188.965	97.0499	188.965	97.3881	188.965	97.0686	188.965	97.4112	188.965	97.1324	188.965	97.4512	188.965	97.2234	188.965	97.4942	188.965	97.3228	188.965	97.5274	188.965	97.4138	188.965	97.5407	188.965	97.4843	188.965	97.5273
196.289	98.5805	196.289	98.5401	196.289	98.5701	196.289	98.4523	196.289	98.5081	196.289	98.3233	196.289	98.3965	196.289	98.1616	196.289	98.2404	196.289	97.978	196.289	98.0483	196.289	97.7851	196.289	97.8322	196.289	97.5971	196.289	97.6074	196.289	97.4288	196.289	97.3919	196.289	97.2943	196.289	97.2045	196.289	97.2043	196.289	97.0624	196.289	97.1639	196.289	96.9778	196.289	97.1704	196.289	96.9545	196.289	97.2128	196.289	96.9869	196.289	97.2747	196.289	97.0608	196.289	97.3376	196.289	97.1566	196.289	97.3845	196.289	97.2538	196.289	97.403	196.289	97.3346	196.289	97.3865
203.613	98.5768	203.613	98.5112	203.613	98.5846	203.613	98.3901	203.613	98.5348	203.613	98.2188	203.613	98.43	203.613	98.0066	203.613	98.2747	203.613	97.7667	203.613	98.0763	203.613	97.516	203.613	97.845	203.613	97.2742	203.613	97.5954	203.613	97.0625	203.613	97.3462	203.613	96.9004	203.613	97.12	203.613	96.8028	203.613	96.9398	203.613	96.7759	203.613	96.8243	203.613	96.8145	203.613	96.7823	203.613	96.9019	203.613	96.809	203.613	97.0135	203.613	96.8877	203.613	97.1226	203.613	96.9941	203.613	97.2063	203.613	97.1028	203.613	97.2488	203.613	97.1913	203.613	97.2432
210.938	98.4467	210.938	98.383	210.938	98.4602	210.938	98.269	210.938	98.4251	210.938	98.1064	210.938	98.3449	210.938	97.8998	210.938	98.2249	210.938	97.6572	210.938	98.0723	210.938	97.3916	210.938	97.8962	210.938	97.1211	210.938	97.707	210.938	96.8678	210.938	97.516	210.938	96.6558	210.938	97.3351	210.938	96.5067	210.938	97.1762	210.938	96.4346	210.938	97.0508	210.938	96.4412	210.938	96.9673	210.938	96.5137	210.938	96.9283	210.938	96.6284	210.938	96.9281	210.938	96.7564	210.938	96.9536	210.938	96.8717	210.938	96.9864	210.938	96.9558	210.938	97.0074	210.938	97.0005
218.262	98.2444	218.262	98.215	218.262	98.2219	218.262	98.1328	218.262	98.1502	218.262	97.9986	218.262	98.0336	218.262	97.8157	218.262	97.8787	218.262	97.5909	218.262	97.6952	218.262	97.3352	218.262	97.4968	218.262	97.065	218.262	97.3008	218.262	96.8026	218.262	97.1266	218.262	96.5749	218.262	96.9921	218.262	96.4088	218.262	96.9091	218.262	96.3248	218.262	96.8801	218.262	96.3297	218.262	96.8976	218.262	96.413	218.262	96.9469	218.262	96.55	218.262	97.0094	218.262	96.7096	218.262	97.0671	218.262	96.8622	218.262	97.1038	218.262	96.9861	218.262	97.1072	218.262	97.069
225.586	98.2813	225.586	98.2823	225.586	98.2197	225.586	98.2234	225.586	98.0998	225.586	98.1078	225.586	97.9264	225.586	97.9413	225.586	97.7079	225.586	97.7325	225.586	97.4562	225.586	97.4937	225.586	97.1879	225.586	97.2402	225.586	96.9238	225.586	96.9912	225.586	96.6891	225.586	96.769	225.586	96.5098	225.586	96.597	225.586	96.4079	225.586	96.4957	225.586	96.3939	225.586	96.4759	225.586	96.4623	225.586	96.5335	225.586	96.5913	225.586	96.6486	225.586	96.7484	225.586	96.7908	225.586	96.8999	225.586	96.928	225.586	97.0176	225.586	97.0331	225.586	97.083	225.586	97.0879
232.91	98.3423	232.91	98.3211	232.91	98.2985	232.91	98.2378	232.91	98.1896	232.91	98.0974	232.91	98.0184	232.91	97.9074	232.91	97.7911	232.91	97.6775	232.91	97.5174	232.91	97.4196	232.91	97.2112	232.91	97.1485	232.91	96.8912	232.91	96.8811	232.91	96.5813	232.91	96.6363	232.91	96.31	232.91	96.4337	232.91	96.1062	232.91	96.2914	232.91	95.9926	232.91	96.2226	232.91	95.9774	232.91	96.2298	232.91	96.0498	232.91	96.3006	232.91	96.1821	232.91	96.4081	232.91	96.3378	232.91	96.5176	232.91	96.4802	232.91	96.5961	232.91	96.5803	232.91	96.6204
241.699	98.0416	241.699	97.9901	241.699	98.0307	241.699	97.8783	241.699	97.9583	241.699	97.7123	241.699	97.8285	241.699	97.5013	241.699	97.6481	241.699	97.2583	241.699	97.4255	241.699	96.9989	241.699	97.1706	241.699	96.7406	241.699	96.8949	241.699	96.5013	241.699	96.6126	241.699	96.2974	241.699	96.3422	241.699	96.1425	241.699	96.1067	241.699	96.0459	241.699	95.9317	241.699	96.0109	241.699	95.8385	241.699	96.0326	241.699	95.8341	241.699	96.0964	241.699	95.9057	241.699	96.1795	241.699	96.023	241.699	96.2559	241.699	96.1481	241.699	96.302	241.699	96.2479	241.699	96.3014
250.488	98.2921	250.488	98.2603	250.488	98.2453	250.488	98.1509	250.488	98.1221	250.488	97.9678	250.488	97.9278	250.488	97.7193	250.488	97.6715	250.488	97.4194	250.488	97.3675	250.488	97.0887	250.488	97.0364	250.488	96.7551	250.488	96.7055	250.488	96.4495	250.488	96.4061	250.488	96.1985	250.488	96.1684	250.488	96.0178	250.488	96.0128	250.488	95.9096	250.488	95.9442	250.488	95.8675	250.488	95.9512	250.488	95.8829	250.488	96.0118	250.488	95.9448	250.488	96.0998	250.488	96.0375	250.488	96.1898	250.488	96.1395	250.488	96.2596	250.488	96.2274	250.488	96.2931	250.488	96.2821
259.277	98.4124	259.277	98.3646	259.277	98.3865	259.277	98.2434	259.277	98.2876	259.277	98.0509	259.277	98.118	259.277	97.7918	259.277	97.8824	259.277	97.4752	259.277	97.5886	259.277	97.1174	259.277	97.249	259.277	96.7439	259.277	96.8811	259.277	96.39	259.277	96.509	259.277	96.0956	259.277	96.1638	259.277	95.8935	259.277	95.8814	259.277	95.7967	259.277	95.6957	259.277	95.7941	259.277	95.627	259.277	95.8589	259.277	95.6718	259.277	95.9614	259.277	95.8007	259.277	96.076	259.277	95.967	259.277	96.1804	259.277	96.1227	259.277	96.2533	259.277	96.2313	259.277	96.2748
268.066	98.3014	268.066	98.2417	268.066	98.2772	268.066	98.1001	268.066	98.168	268.066	97.8806	268.066	97.9742	268.066	97.5895	268.066	97.6984	268.066	97.2388	268.066	97.3479	268.066	96.8481	268.066	96.9392	268.066	96.4482	268.066	96.5016	268.066	96.0808	268.066	96.079	268.066	95.7917	268.066	95.7212	268.066	95.616	268.066	95.4681	268.066	95.563	268.066	95.3342	268.066	95.6139	268.066	95.3091	268.066	95.7332	268.066	95.3719	268.066	95.883	268.066	95.5026	268.066	96.029	268.066	95.68	268.066	96.1403	268.066	95.8741	268.066	96.1891	268.066	96.0456	268.066	96.1576
276.855	98.4081	276.855	98.3776	276.855	98.3645	276.855	98.2708	276.855	98.2498	276.855	98.0867	276.855	98.0675	276.855	97.8257	276.855	97.8213	276.855	97.4899	276.855	97.5148	276.855	97.0849	276.855	97.1525	276.855	96.6252	276.855	96.7423	276.855	96.14	276.855	96.3044	276.855	95.6789	276.855	95.8807	276.855	95.3053	276.855	95.5388	276.855	95.0759	276.855	95.3497	276.855	95.0126	276.855	95.3436	276.855	95.0931	276.855	95.482	276.855	95.2675	276.855	95.6826	276.855	95.4825	276.855	95.8675	276.855	95.6949	276.855	95.9896	276.855	95.8717	276.855	96.0306	276.855	95.9888
287.109	98.1884	287.109	98.1307	287.109	98.1745	287.109	98.0052	287.109	98.0825	287.109	97.8129	287.109	97.9045	287.109	97.5551	287.109	97.6353	287.109	97.2371	287.109	97.2773	287.109	96.874	287.109	96.8461	287.109	96.4937	287.109	96.3726	287.109	96.1385	287.109	95.8963	287.109	95.8569	287.109	95.4531	287.109	95.6885	287.109	95.0682	287.109	95.6448	287.109	94.7642	287.109	95.7023	287.109	94.5742	287.109	95.8126	287.109	94.5337	287.109	95.9227	287.109	94.6516	287.109	95.9893	287.109	94.8919	287.109	95.9851	287.109	95.1898	287.109	95.8976	287.109	95.4824	287.109	95.7265
297.363	98.3784	297.363	98.3642	297.363	98.3199	297.363	98.2754	297.363	98.1943	297.363	98.1143	297.363	98.0058	297.363	97.8858	297.363	97.7515	297.363	97.5933	297.363	97.4182	297.363	97.2369	297.363	96.988	297.363	96.8166	297.363	96.4567	297.363	96.342	297.363	95.8601	297.363	95.8456	297.363	95.2923	297.363	95.3897	297.363	94.8852	297.363	95.0567	297.363	94.7307	297.363	94.9112	297.363	94.8104	297.363	94.9589	297.363	95.0222	297.363	95.1411	297.363	95.2636	297.363	95.3712	297.363	95.4756	297.363	95.5751	297.363	95.635	297.363	95.7098	297.363	95.733	297.363	95.7611
307.617	98.227	307.617	98.128	307.617	98.2453	307.617	97.9494	307.617	98.1842	307.617	97.6954	307.617	98.0481	307.617	97.3741	307.617	97.8462	307.617	96.9988	307.617	97.591	307.617	96.5878	307.617	97.2911	307.617	96.1635	307.617	96.9422	307.617	95.7532	307.617	96.526	307.617	95.3887	307.617	96.026	307.617	95.1021	307.617	95.4584	307.617	94.9149	307.617	94.8977	307.617	94.8288	307.617	94.469	307.617	94.8264	307.617	94.2814	307.617	94.8804	307.617	94.3433	307.617	94.9619	307.617	94.558	307.617	95.0425	307.617	94.8011	307.617	95.0925	307.617	94.9867	307.617	95.0821
319.336	98.2522	319.336	98.1307	319.336	98.2813	319.336	97.9226	319.336	98.2115	319.336	97.6313	319.336	98.0372	319.336	97.2595	319.336	97.7575	319.336	96.8126	319.336	97.3797	319.336	96.303	319.336	96.9228	319.336	95.755	319.336	96.4195	319.336	95.2083	319.336	95.9143	319.336	94.7193	319.336	95.4559	319.336	94.3568	319.336	95.0865	319.336	94.182	319.336	94.8338	319.336	94.2151	319.336	94.7106	319.336	94.4166	319.336	94.7164	319.336	94.706	319.336	94.8331	319.336	95.0004	319.336	95.0195	319.336	95.2393	319.336	95.2171	319.336	95.3881	319.336	95.3678	319.336	95.431
329.59	97.7192	329.59	97.6573	329.59	97.7293	329.59	97.5422	329.59	97.6823	329.59	97.3667	329.59	97.5677	329.59	97.1207	329.59	97.374	329.59	96.796	329.59	97.0944	329.59	96.3925	329.59	96.731	329.59	95.9257	329.59	96.2968	329.59	95.4303	329.59	95.8164	329.59	94.9594	329.59	95.3258	329.59	94.5761	329.59	94.8716	329.59	94.3385	329.59	94.5064	329.59	94.2791	329.59	94.2749	329.59	94.3869	329.59	94.1983	329.59	94.6049	329.59	94.267	329.59	94.8503	329.59	94.4465	329.59	95.0429	329.59	94.6846	329.59	95.1266	329.59	94.917	329.59	95.0797
341.309	97.9095	341.309	97.8721	341.309	97.8431	341.309	97.727	341.309	97.6831	341.309	97.4782	341.309	97.4433	341.309	97.1374	341.309	97.1364	341.309	96.721	341.309	96.7714	341.309	96.2477	341.309	96.3562	341.309	95.7382	341.309	95.9061	341.309	95.2197	341.309	95.4554	341.309	94.7323	341.309	95.0599	341.309	94.3307	341.309	94.7814	341.309	94.0744	341.309	94.6608	341.309	94.0055	341.309	94.7005	341.309	94.1244	341.309	94.8636	341.309	94.3838	341.309	95.086	341.309	94.7081	341.309	95.297	341.309	95.0227	341.309	95.4413	341.309	95.2739	341.309	95.4895	341.309	95.4332
353.027	98.0957	353.027	97.9875	353.027	98.1187	353.027	97.8019	353.027	98.052	353.027	97.5456	353.027	97.8952	353.027	97.2207	353.027	97.6488	353.027	96.8256	353.027	97.3087	353.027	96.3594	353.027	96.8643	353.027	95.8307	353.027	96.3021	353.027	95.2677	353.027	95.6206	353.027	94.7255	353.027	94.8565	353.027	94.282	353.027	94.1155	353.027	94.0162	353.027	93.57	353.027	93.972	353.027	93.3696	353.027	94.1289	353.027	93.5158	353.027	94.4044	353.027	93.8684	353.027	94.6928	353.027	94.2685	353.027	94.9101	353.027	94.6146	353.027	95.0145	353.027	94.8621	353.027	94.9972
366.211	98.1307	366.211	97.9891	366.211	98.1938	366.211	97.7666	366.211	98.1736	366.211	97.4588	366.211	98.0587	366.211	97.0629	366.211	97.8371	366.211	96.5795	366.211	97.5036	366.211	96.0155	366.211	97.065	366.211	95.3918	366.211	96.5397	366.211	94.7545	366.211	95.9526	366.211	94.1789	366.211	95.3283	366.211	93.7507	366.211	94.6889	366.211	93.5265	366.211	94.0713	366.211	93.5059	366.211	93.5607	366.211	93.643	366.211	93.2899	366.211	93.8779	366.211	93.3446	366.211	94.149	366.211	93.6575	366.211	94.3915	366.211	94.0534	366.211	94.5406	366.211	94.3759	366.211	94.5439
379.395	98.6064	379.395	98.5885	379.395	98.535	379.395	98.468	379.395	98.3894	379.395	98.2343	379.395	98.1826	379.395	97.8778	379.395	97.9191	379.395	97.3903	379.395	97.5925	379.395	96.771	379.395	97.1903	379.395	96.0363	379.395	96.7043	379.395	95.2305	379.395	96.143	379.395	94.4357	379.395	95.5445	379.395	93.7746	379.395	94.98	379.395	93.3863	379.395	94.536	379.395	93.3536	379.395	94.2758	379.395	93.6313	379.395	94.2141	379.395	94.0742	379.395	94.3247	379.395	94.5304	379.395	94.555	379.395	94.8968	379.395	94.8291	379.395	95.1174	379.395	95.0589	379.395	95.1691
392.578	98.0953	392.578	98.0275	392.578	98.1024	392.578	97.9097	392.578	98.0352	392.578	97.74	392.578	97.8855	392.578	97.5006	392.578	97.6516	392.578	97.1625	392.578	97.3342	392.578	96.6981	392.578	96.9336	392.578	96.0961	392.578	96.4536	392.578	95.3754	392.578	95.9079	392.578	94.5964	392.578	95.3257	392.578	93.8651	392.578	94.7572	392.578	93.3187	392.578	94.2791	392.578	93.0745	392.578	93.9799	392.578	93.1587	392.578	93.9079	392.578	93.4802	392.578	94.0269	392.578	93.8902	392.578	94.2409	392.578	94.2606	392.578	94.454	392.578	94.5157	392.578	94.5976	392.578	94.6268
405.762	98.017	405.762	97.9242	405.762	98.0176	405.762	97.7443	405.762	97.9184	405.762	97.4871	405.762	97.7081	405.762	97.1685	405.762	97.3774	405.762	96.7989	405.762	96.9257	405.762	96.3686	405.762	96.365	405.762	95.8489	405.762	95.7212	405.762	95.2224	405.762	95.0401	405.762	94.5293	405.762	94.3933	405.762	93.8937	405.762	93.871	405.762	93.4791	405.762	93.5565	405.762	93.3758	405.762	93.4967	405.762	93.537	405.762	93.6782	405.762	93.8403	405.762	94.0165	405.762	94.1736	405.762	94.383	405.762	94.4661	405.762	94.6639	405.762	94.682	405.762	94.8037	405.762	94.8019
420.41	98.4136	420.41	98.3763	420.41	98.3555	420.41	98.2314	420.41	98.2248	420.41	97.9783	420.41	98.0464	420.41	97.6244	420.41	97.8325	420.41	97.1801	420.41	97.5679	420.41	96.6526	420.41	97.207	420.41	96.0382	420.41	96.6902	420.41	95.3215	420.41	95.9752	420.41	94.4997	420.41	95.0749	420.41	93.6404	420.41	94.0907	420.41	92.9387	420.41	93.2137	420.41	92.6528	420.41	92.6524	420.41	92.868	420.41	92.5182	420.41	93.3995	420.41	92.7799	420.41	93.9892	420.41	93.3003	420.41	94.4577	420.41	93.8955	420.41	94.7052	420.41	94.3958	420.41	94.6844
435.059	97.8852	435.059	97.8255	435.059	97.8579	435.059	97.6905	435.059	97.7348	435.059	97.4856	435.059	97.5165	435.059	97.2008	435.059	97.2193	435.059	96.8086	435.059	96.8756	435.059	96.2773	435.059	96.5183	435.059	95.5955	435.059	96.1462	435.059	94.7958	435.059	95.7081	435.059	93.9645	435.059	95.1393	435.059	93.2347	435.059	94.4404	435.059	92.7573	435.059	93.7418	435.059	92.6406	435.059	93.2734	435.059	92.8803	435.059	93.1818	435.059	93.3562	435.059	93.3978	435.059	93.9008	435.059	93.7556	435.059	94.362	435.059	94.1374	435.059	94.6298	435.059	94.4657	435.059	94.656
451.172	98.9277	451.172	98.813	451.172	98.9169	451.172	98.572	451.172	98.7797	451.172	98.2044	451.172	98.5124	451.172	97.7182	451.172	98.1094	451.172	97.1345	451.172	97.5653	451.172	96.4764	451.172	96.8876	451.172	95.7445	451.172	96.1122	451.172	94.9053	451.172	95.3075	451.172	93.9273	451.172	94.5469	451.172	92.8682	451.172	93.8708	451.172	91.9679	451.172	93.2934	451.172	91.5864	451.172	92.871	451.172	91.8537	451.172	92.7284	451.172	92.5002	451.172	92.9274	451.172	93.1731	451.172	93.3338	451.172	93.6777	451.172	93.7292	451.172	93.967	451.172	93.9817	451.172	94.0615
465.82	98.7887	465.82	98.7283	465.82	98.7645	465.82	98.594	465.82	98.6417	465.82	98.3863	465.82	98.4098	465.82	98.0877	465.82	98.0654	465.82	97.6618	465.82	97.6078	465.82	97.0722	465.82	97.0288	465.82	96.3152	465.82	96.3121	465.82	95.4364	465.82	95.4582	465.82	94.5072	465.82	94.526	465.82	93.5864	465.82	93.6507	465.82	92.7433	465.82	92.9833	465.82	92.1327	465.82	92.5959	465.82	91.9415	465.82	92.4856	465.82	92.1693	465.82	92.6315	465.82	92.6106	465.82	92.9634	465.82	93.0648	465.82	93.3308	465.82	93.419	465.82	93.5738	465.82	93.6043
483.398	98.5775	483.398	98.4564	483.398	98.6126	483.398	98.2499	483.398	98.5734	483.398	97.9812	483.398	98.462	483.398	97.6818	483.398	98.2587	483.398	97.3604	483.398	97.9287	483.398	96.9811	483.398	97.4366	483.398	96.4748	483.398	96.7534	483.398	95.7769	483.398	95.8533	483.398	94.8689	483.398	94.7136	483.398	93.8143	483.398	93.3528	483.398	92.7949	483.398	91.9515	483.398	92.122	483.398	90.9998	483.398	92.0821	483.398	91.0034	483.398	92.6235	483.398	91.7717	483.398	93.3735	483.398	92.7184	483.398	93.9887	483.398	93.5075	483.398	94.313	483.398	94.0482	483.398	94.324
499.512	98.6404	499.512	98.5388	499.512	98.6429	499.512	98.3203	499.512	98.565	499.512	97.9696	499.512	98.4268	499.512	97.4826	499.512	98.2385	499.512	96.8711	499.512	97.9833	499.512	96.1528	499.512	97.6163	499.512	95.341	499.512	97.089	499.512	94.4601	499.512	96.3831	499.512	93.5869	499.512	95.529	499.512	92.8611	499.512	94.5949	499.512	92.415	499.512	93.6603	499.512	92.2996	499.512	92.8172	499.512	92.5052	499.512	92.2218	499.512	92.9733	499.512	92.0756	499.512	93.5456	499.512	92.4243	499.512	94.0075	499.512	93.0496	499.512	94.2039	499.512	93.665	499.512	94.081
517.09	98.2371	517.09	98.1407	517.09	98.2612	517.09	97.9927	517.09	98.1991	517.09	97.8042	517.09	98.0528	517.09	97.5585	517.09	97.8384	517.09	97.2024	517.09	97.5725	517.09	96.6567	517.09	97.2504	517.09	95.8423	517.09	96.8325	517.09	94.7168	517.09	96.2537	517.09	93.3365	517.09	95.4584	517.09	91.9556	517.09	94.4581	517.09	91.0311	517.09	93.4126	517.09	90.8688	517.09	92.6671	517.09	91.3478	517.09	92.5407	517.09	92.2159	517.09	92.9799	517.09	93.2518	517.09	93.6731	517.09	94.2055	517.09	94.3626	517.09	94.8515	517.09	94.8766	517.09	95.0727
536.133	98.3084	536.133	98.2629	536.133	98.2257	536.133	98.0844	536.133	98.0232	536.133	97.7761	536.133	97.7134	536.133	97.3583	536.133	97.3156	536.133	96.8671	536.133	96.8525	536.133	96.3263	536.133	96.3334	536.133	95.6958	536.133	95.7388	536.133	94.8437	536.133	95.0327	536.133	93.5942	536.133	94.197	536.133	91.8784	536.133	93.2567	536.133	90.0933	536.133	92.3023	536.133	89.4284	536.133	91.5584	536.133	90.3214	536.133	91.3832	536.133	91.619	536.133	91.8739	536.133	92.5867	536.133	92.6156	536.133	93.1356	536.133	93.1741	536.133	93.3852	536.133	93.4294	536.133	93.4704
555.176	99.0135	555.176	99.0804	555.176	98.8872	555.176	99.0409	555.176	98.7425	555.176	98.8784	555.176	98.5691	555.176	98.5907	555.176	98.3161	555.176	98.1538	555.176	97.9455	555.176	97.5248	555.176	97.4611	555.176	96.6821	555.176	96.8782	555.176	95.6396	555.176	96.1696	555.176	94.4	555.176	95.2523	555.176	92.8969	555.176	94.0477	555.176	91.0397	555.176	92.6086	555.176	89.025	555.176	91.2725	555.176	87.9946	555.176	90.6027	555.176	88.9887	555.176	90.8273	555.176	90.7865	555.176	91.595	555.176	92.2461	555.176	92.458	555.176	93.1035	555.176	93.1129	555.176	93.3682
574.219	99.3392	574.219	99.2864	574.219	99.2671	574.219	99.1449	574.219	99.0388	574.219	98.9404	574.219	98.6711	574.219	98.6961	574.219	98.2403	574.219	98.4167	574.219	97.8212	574.219	98.0566	574.219	97.409	574.219	97.5223	574.219	96.9138	574.219	96.7142	574.219	96.2264	574.219	95.56	574.219	95.2894	574.219	94.0173	574.219	94.1454	574.219	92.1085	574.219	92.971	574.219	90.199	574.219	92.0465	574.219	89.42	574.219	91.6039	574.219	90.3247	574.219	91.7126	574.219	91.7861	574.219	92.3067	574.219	93.0113	574.219	93.1404	574.219	93.8062	574.219	93.8345	574.219	94.0919
594.727	99.4476	594.727	99.3992	594.727	99.3646	594.727	99.215	594.727	99.1627	594.727	98.8912	594.727	98.8585	594.727	98.4367	594.727	98.4543	594.727	97.9039	594.727	97.9321	594.727	97.373	594.727	97.2779	594.727	96.8574	594.727	96.5106	594.727	96.236	594.727	95.6723	594.727	95.3301	594.727	94.7524	594.727	94.0526	594.727	93.6145	594.727	92.5434	594.727	92.0849	594.727	91.2447	594.727	90.3853	594.727	90.7336	594.727	89.8447	594.727	91.278	594.727	91.205	594.727	92.5262	594.727	92.9061	594.727	93.7716	594.727	94.0309	594.727	94.5405	594.727	94.5964	594.727	94.7719
615.234	99.897	615.234	99.8143	615.234	99.8615	615.234	99.6269	615.234	99.7146	615.234	99.3765	615.234	99.4446	615.234	99.0652	615.234	99.0223	615.234	98.6129	615.234	98.4273	615.234	97.9309	615.234	97.6497	615.234	97.0194	615.234	96.6765	615.234	95.9409	615.234	95.4929	615.234	94.67	615.234	94.1006	615.234	93.018	615.234	92.5378	615.234	90.79	615.234	90.9007	615.234	88.2454	615.234	89.4038	615.234	86.7438	615.234	88.4385	615.234	87.082	615.234	88.4274	615.234	88.1711	615.234	89.342	615.234	89.4323	615.234	90.5176	615.234	90.6015	615.234	91.278	615.234	91.3046
637.207	99.1921	637.207	99.1377	637.207	99.2267	637.207	99.0672	637.207	99.1892	637.207	98.9418	637.207	99.0343	637.207	98.7477	637.207	98.7595	637.207	98.5053	637.207	98.3951	637.207	98.186	637.207	97.9629	637.207	97.6726	637.207	97.4287	637.207	96.8446	637.207	96.696	637.207	95.6622	637.207	95.6544	637.207	94.1078	637.207	94.2351	637.207	92.0339	637.207	92.414	637.207	89.2121	637.207	90.2397	637.207	86.2744	637.207	88.2963	637.207	86.3282	637.207	88.1585	637.207	88.7398	637.207	89.6682	637.207	90.6752	637.207	91.0787	637.207	91.7026	637.207	91.8282	637.207	92.0225
659.18	98.4277	659.18	98.3544	659.18	98.3898	659.18	98.2177	659.18	98.2633	659.18	98.0817	659.18	98.1099	659.18	97.947	659.18	97.9717	659.18	97.74	659.18	97.8445	659.18	97.3649	659.18	97.6712	659.18	96.7555	659.18	97.338	659.18	95.8996	659.18	96.7097	659.18	94.8219	659.18	95.6971	659.18	93.5088	659.18	94.276	659.18	91.841	659.18	92.4429	659.18	89.782	659.18	90.2388	659.18	88.2135	659.18	88.0725	659.18	88.673	659.18	86.9967	659.18	90.04	659.18	87.3946	659.18	90.8541	659.18	88.4383	659.18	90.9108	659.18	89.5162	659.18	90.394
682.617	98.1805	682.617	98.2579	682.617	98.0925	682.617	98.3073	682.617	97.9843	682.617	98.2921	682.617	97.8321	682.617	98.1855	682.617	97.6351	682.617	98.0166	682.617	97.3889	682.617	97.8338	682.617	97.0472	682.617	97.5668	682.617	96.5585	682.617	96.9994	682.617	95.8705	682.617	95.8967	682.617	94.8657	682.617	94.1098	682.617	93.3755	682.617	91.6366	682.617	91.3987	682.617	88.7018	682.617	89.4592	682.617	85.942	682.617	88.3297	682.617	84.8979	682.617	87.9907	682.617	86.3962	682.617	88.3834	682.617	88.6285	682.617	89.5553	682.617	90.3068	682.617	90.6968	682.617	91.028
707.52	97.8477	707.52	97.6409	707.52	97.9454	707.52	97.4267	707.52	97.8861	707.52	97.3509	707.52	97.7182	707.52	97.5553	707.52	97.5251	707.52	97.9693	707.52	97.341	707.52	98.334	707.52	97.1936	707.52	98.5067	707.52	97.1047	707.52	98.4928	707.52	96.9352	707.52	98.1988	707.52	96.3913	707.52	97.3632	707.52	95.2337	707.52	95.7357	707.52	93.3694	707.52	93.2445	707.52	90.7471	707.52	90.1538	707.52	87.4612	707.52	87.2845	707.52	85.7197	707.52	86.2228	707.52	87.8092	707.52	87.5355	707.52	89.8646	707.52	89.2103	707.52	90.565	707.52	90.2429
732.422	98.3141	732.422	98.0179	732.422	98.3525	732.422	97.5291	732.422	98.1403	732.422	96.9387	732.422	97.7772	732.422	96.3339	732.422	97.4343	732.422	95.8432	732.422	97.2423	732.422	95.6385	732.422	97.1636	732.422	95.6915	732.422	97.0831	732.422	95.7217	732.422	96.9592	732.422	95.5191	732.422	96.7293	732.422	95.0518	732.422	96.1504	732.422	94.2594	732.422	94.8902	732.422	92.9418	732.422	92.7599	732.422	91.1543	732.422	90.1211	732.422	89.9943	732.422	88.5386	732.422	90.6095	732.422	88.9547	732.422	91.8766	732.422	90.1683	732.422	92.5629	732.422	91.4258	732.422	92.3535
757.324	98.6362	757.324	98.5114	757.324	98.4902	757.324	98.0667	757.324	98.1367	757.324	97.3742	757.324	97.6276	757.324	96.6817	757.324	97.0563	757.324	96.2713	757.324	96.5793	757.324	96.208	757.324	96.3386	757.324	96.3373	757.324	96.3158	757.324	96.4455	757.324	96.3034	757.324	96.2548	757.324	96.0498	757.324	95.4303	757.324	95.3472	757.324	93.7464	757.324	93.9968	757.324	91.3387	757.324	91.7802	757.324	89.1677	757.324	88.7083	757.324	88.9085	757.324	86.6061	757.324	90.4273	757.324	88.4125	757.324	92.1696	757.324	91.1492	757.324	93.3177	757.324	92.9129	757.324	93.602
785.156	98.5358	785.156	98.2576	785.156	98.5546	785.156	97.8013	785.156	98.3023	785.156	97.2339	785.156	97.8459	785.156	96.5445	785.156	97.2725	785.156	95.7784	785.156	96.6543	785.156	95.2467	785.156	96.1377	785.156	95.2121	785.156	95.9553	785.156	95.374	785.156	96.0566	785.156	95.326	785.156	95.9718	785.156	94.946	785.156	95.3209	785.156	94.0804	785.156	94.1047	785.156	92.374	785.156	92.4796	785.156	89.9783	785.156	90.261	785.156	88.8299	785.156	87.2043	785.156	89.5085	785.156	86.3594	785.156	90.1363	785.156	88.9469	785.156	90.6113	785.156	90.6337	785.156	90.9804
811.523	98.6893	811.523	98.5713	811.523	98.6253	811.523	98.2207	811.523	98.3536	811.523	97.5955	811.523	97.7962	811.523	96.748	811.523	96.9611	811.523	95.8455	811.523	96.0579	811.523	95.1586	811.523	95.3914	811.523	94.9391	811.523	95.0766	811.523	95.0449	811.523	95.0118	811.523	94.9294	811.523	95.0285	811.523	94.1902	811.523	94.837	811.523	92.8586	811.523	94.0411	811.523	91.2214	811.523	92.3316	811.523	89.4331	811.523	89.7404	811.523	88.2799	811.523	87.3839	811.523	89.5041	811.523	87.8069	811.523	91.6389	811.523	90.2433	811.523	92.9681	811.523	92.2787	811.523	93.1999
840.82	99.4328	840.82	99.2206	840.82	99.3145	840.82	98.671	840.82	98.9469	840.82	97.8506	840.82	98.3865	840.82	96.8749	840.82	97.6154	840.82	95.9388	840.82	96.6664	840.82	95.1837	840.82	95.7742	840.82	94.5084	840.82	95.2849	840.82	93.9914	840.82	95.2308	840.82	93.9582	840.82	95.2136	840.82	94.0532	840.82	94.87	840.82	93.3577	840.82	94.0667	840.82	91.2175	840.82	92.6253	840.82	87.9	840.82	90.1684	840.82	86.36	840.82	87.2494	840.82	88.0082	840.82	87.7115	840.82	90.2683	840.82	89.94	840.82	91.7478	840.82	91.3404	840.82	92.0132
870.117	99.888	870.117	99.81	870.117	99.8503	870.117	99.3664	870.117	99.6467	870.117	98.4918	870.117	99.0005	870.117	97.4933	870.117	97.8914	870.117	96.5805	870.117	96.6935	870.117	95.6793	870.117	95.795	870.117	95.0623	870.117	95.242	870.117	95.0494	870.117	94.9916	870.117	94.9758	870.117	94.985	870.117	94.2329	870.117	94.7925	870.117	92.9986	870.117	93.9498	870.117	91.3797	870.117	92.4711	870.117	88.8666	870.117	90.8745	870.117	86.7703	870.117	89.3886	870.117	88.5981	870.117	88.2743	870.117	91.0055	870.117	89.4927	870.117	92.4296	870.117	91.7234	870.117	92.7776
900.879	100.849	900.879	100.486	900.879	100.84	900.879	100.1	900.879	100.402	900.879	99.66	900.879	99.8087	900.879	98.7717	900.879	99.1354	900.879	97.4614	900.879	98.1754	900.879	96.2333	900.879	96.9557	900.879	95.1752	900.879	96.0016	900.879	94.3783	900.879	95.6059	900.879	94.4747	900.879	95.276	900.879	94.8805	900.879	94.7664	900.879	94.2769	900.879	94.16	900.879	92.0588	900.879	92.8813	900.879	88.4815	900.879	89.8277	900.879	86.0763	900.879	86.1498	900.879	88.1861	900.879	88.8302	900.879	90.9103	900.879	91.7361	900.879	92.3946	900.879	92.82	900.879	92.9242
933.105	100.7	933.105	100.591	933.105	100.644	933.105	100.175	933.105	100.39	933.105	99.4834	933.105	99.7507	933.105	98.6293	933.105	98.746	933.105	97.4956	933.105	97.6367	933.105	96.2831	933.105	96.5198	933.105	95.9582	933.105	95.4136	933.105	96.198	933.105	95.01	933.105	95.8449	933.105	95.5768	933.105	95.1395	933.105	95.9097	933.105	94.6203	933.105	95.2721	933.105	93.2631	933.105	93.8063	933.105	89.6243	933.105	91.5253	933.105	85.3277	933.105	87.7061	933.105	87.6557	933.105	85.7836	933.105	90.3999	933.105	89.4579	933.105	92.3199	933.105	92.186	933.105	93.0878
965.332	99.9988	965.332	99.8619	965.332	99.8888	965.332	99.4044	965.332	99.6302	965.332	98.5847	965.332	99.2071	965.332	97.3894	965.332	98.4771	965.332	96.0054	965.332	97.366	965.332	94.5801	965.332	95.9861	965.332	92.8772	965.332	94.7046	965.332	91.7634	965.332	93.8274	965.332	92.6105	965.332	93.6229	965.332	93.3703	965.332	94.058	965.332	92.7565	965.332	94.1936	965.332	90.9213	965.332	93.1897	965.332	87.995	965.332	90.7692	965.332	83.0106	965.332	87.4924	965.332	86.3906	965.332	86.7855	965.332	91.2879	965.332	89.6187	965.332	92.7964	965.332	91.6698	965.332	92.604
1,000.49	96.8469	1,000.49	96.5062	1,000.49	96.9663	1,000.49	95.9087	1,000.49	96.7964	1,000.49	95.1689	1,000.49	96.2374	1,000.49	94.3297	1,000.49	95.4884	1,000.49	93.1511	1,000.49	94.762	1,000.49	91.6924	1,000.49	93.7328	1,000.49	90.8413	1,000.49	92.109	1,000.49	90.9225	1,000.49	91.2356	1,000.49	90.9695	1,000.49	92.1147	1,000.49	91.3845	1,000.49	92.7777	1,000.49	92.2118	1,000.49	92.1827	1,000.49	91.8719	1,000.49	90.8344	1,000.49	89.2958	1,000.49	88.8999	1,000.49	84.0294	1,000.49	84.8916	1,000.49	76.0922	1,000.49	83.1044	1,000.49	84.4577	1,000.49	87.0637	1,000.49	89.1716	1,000.49	89.4517	1,000.49	90.3163
1,035.64	95.0262	1,035.64	95.2294	1,035.64	94.79	1,035.64	95.2886	1,035.64	94.4286	1,035.64	94.9105	1,035.64	93.9008	1,035.64	94.167	1,035.64	92.8711	1,035.64	93.3936	1,035.64	91.0293	1,035.64	92.3313	1,035.64	88.955	1,035.64	90.7136	1,035.64	87.7052	1,035.64	89.377	1,035.64	86.3935	1,035.64	89.0781	1,035.64	84.6992	1,035.64	89.3437	1,035.64	86.4213	1,035.64	90.156	1,035.64	88.3175	1,035.64	90.5676	1,035.64	87.2899	1,035.64	89.2692	1,035.64	83.1176	1,035.64	86.5633	1,035.64	80.0553	1,035.64	85.3293	1,035.64	83.0124	1,035.64	85.3833	1,035.64	86.7231	1,035.64	86.2346	1,035.64	88.7087	1,035.64	88.1144
1,072.27	92.6335	1,072.27	92.668	1,072.27	92.2682	1,072.27	92.3963	1,072.27	91.5912	1,072.27	92.1075	1,072.27	90.925	1,072.27	91.8394	1,072.27	90.7537	1,072.27	91.0086	1,072.27	90.5422	1,072.27	89.4026	1,072.27	89.5276	1,072.27	87.608	1,072.27	87.7284	1,072.27	86.2432	1,072.27	85.4397	1,072.27	85.5383	1,072.27	83.9536	1,072.27	86.5054	1,072.27	84.4853	1,072.27	87.4714	1,072.27	84.2287	1,072.27	86.5244	1,072.27	82.7385	1,072.27	83.4184	1,072.27	81.8917	1,072.27	79.5517	1,072.27	78.4884	1,072.27	80.8997	1,072.27	68.2377	1,072.27	84.9098	1,072.27	82.335	1,072.27	86.6312	1,072.27	85.3352	1,072.27	86.411
1,108.89	93.8497	1,108.89	93.8458	1,108.89	93.8067	1,108.89	93.3661	1,108.89	94.3373	1,108.89	92.981	1,108.89	94.5954	1,108.89	92.6301	1,108.89	93.9454	1,108.89	91.7651	1,108.89	93.0944	1,108.89	90.658	1,108.89	92.2844	1,108.89	89.5926	1,108.89	90.702	1,108.89	87.998	1,108.89	88.6699	1,108.89	86.0933	1,108.89	86.9301	1,108.89	84.6464	1,108.89	85.1541	1,108.89	82.7276	1,108.89	84.8181	1,108.89	79.3198	1,108.89	84.897	1,108.89	76.171	1,108.89	82.3755	1,108.89	73.7621	1,108.89	78.7825	1,108.89	76.5735	1,108.89	77.8581	1,108.89	80.8782	1,108.89	75.2023	1,108.89	81.7094	1,108.89	77.9765	1,108.89	81.0543
1,148.44	97.7766	1,148.44	97.5344	1,148.44	97.9874	1,148.44	97.4679	1,148.44	97.6137	1,148.44	97.193	1,148.44	96.8319	1,148.44	96.5495	1,148.44	96.259	1,148.44	95.525	1,148.44	95.6421	1,148.44	94.2516	1,148.44	94.2396	1,148.44	92.9976	1,148.44	92.3815	1,148.44	91.2015	1,148.44	91.3363	1,148.44	89.162	1,148.44	90.6768	1,148.44	89.4878	1,148.44	89.226	1,148.44	89.8411	1,148.44	87.6645	1,148.44	87.4371	1,148.44	86.3974	1,148.44	82.4308	1,148.44	84.1046	1,148.44	78.2994	1,148.44	78.1463	1,148.44	77.2715	1,148.44	74.265	1,148.44	81.725	1,148.44	80.3034	1,148.44	84.6035	1,148.44	82.5738	1,148.44	84.3146
1,189.45	98.9328	1,189.45	98.8052	1,189.45	98.699	1,189.45	98.3577	1,189.45	98.3549	1,189.45	97.837	1,189.45	97.9486	1,189.45	97.0827	1,189.45	97.2984	1,189.45	96.0272	1,189.45	96.4528	1,189.45	94.8027	1,189.45	95.5169	1,189.45	92.8789	1,189.45	94.0269	1,189.45	90.4603	1,189.45	91.7268	1,189.45	89.7598	1,189.45	89.7059	1,189.45	90.3012	1,189.45	89.2686	1,189.45	89.8488	1,189.45	89.8317	1,189.45	88.957	1,189.45	89.467	1,189.45	87.4076	1,189.45	86.9685	1,189.45	80.8683	1,189.45	82.9818	1,189.45	74.8823	1,189.45	74.2856	1,189.45	83.5831	1,189.45	78.9059	1,189.45	86.0518	1,189.45	86.4333	1,189.45	87.3416
1,230.47	101.084	1,230.47	100.802	1,230.47	100.908	1,230.47	100.198	1,230.47	100.538	1,230.47	99.4274	1,230.47	99.9263	1,230.47	98.389	1,230.47	99.098	1,230.47	97.3345	1,230.47	98.1324	1,230.47	96.0795	1,230.47	96.6856	1,230.47	94.229	1,230.47	94.9821	1,230.47	92.1788	1,230.47	93.432	1,230.47	90.9276	1,230.47	91.8459	1,230.47	90.41	1,230.47	90.9774	1,230.47	90.5334	1,230.47	91.062	1,230.47	90.6262	1,230.47	91.1891	1,230.47	88.7463	1,230.47	90.45	1,230.47	83.4956	1,230.47	87.4399	1,230.47	78.2829	1,230.47	80.5745	1,230.47	83.2224	1,230.47	77.6719	1,230.47	86.7486	1,230.47	83.4134	1,230.47	86.7868
1,274.41	100.804	1,274.41	100.356	1,274.41	100.675	1,274.41	99.6634	1,274.41	99.9976	1,274.41	98.7201	1,274.41	99.4237	1,274.41	97.8515	1,274.41	98.7337	1,274.41	96.8187	1,274.41	97.6468	1,274.41	95.0615	1,274.41	96.5614	1,274.41	93.2489	1,274.41	95.0301	1,274.41	91.748	1,274.41	92.6548	1,274.41	89.5715	1,274.41	91.1659	1,274.41	87.7433	1,274.41	90.6341	1,274.41	88.5653	1,274.41	90.0939	1,274.41	88.951	1,274.41	90.7197	1,274.41	86.9426	1,274.41	89.8515	1,274.41	83.3407	1,274.41	86.8777	1,274.41	78.9602	1,274.41	82.7014	1,274.41	85.5199	1,274.41	81.9485	1,274.41	88.4804	1,274.41	86.9893	1,274.41	88.0554
1,319.82	100.265	1,319.82	99.9662	1,319.82	100.25	1,319.82	99.109	1,319.82	100.204	1,319.82	98.1812	1,319.82	99.5922	1,319.82	97.2022	1,319.82	98.5553	1,319.82	95.8394	1,319.82	97.5878	1,319.82	94.1489	1,319.82	96.2593	1,319.82	92.3512	1,319.82	94.6451	1,319.82	90.3976	1,319.82	93.3684	1,319.82	87.2929	1,319.82	91.6805	1,319.82	86.0501	1,319.82	90.4351	1,319.82	88.6482	1,319.82	90.3828	1,319.82	88.2179	1,319.82	90.0288	1,319.82	85.1778	1,319.82	88.7292	1,319.82	77.8666	1,319.82	85.0902	1,319.82	76.1497	1,319.82	78.8952	1,319.82	83.9304	1,319.82	83.5844	1,319.82	86.901	1,319.82	88.3437	1,319.82	89.2829
1,366.7	100.645	1,366.7	100.29	1,366.7	100.559	1,366.7	99.748	1,366.7	99.7944	1,366.7	98.6861	1,366.7	98.7619	1,366.7	97.2821	1,366.7	98.1673	1,366.7	96.3696	1,366.7	97.067	1,366.7	95.0544	1,366.7	95.7743	1,366.7	93.7562	1,366.7	94.8667	1,366.7	92.0438	1,366.7	93.1178	1,366.7	89.6025	1,366.7	91.2935	1,366.7	89.3933	1,366.7	90.1631	1,366.7	88.8208	1,366.7	90.0403	1,366.7	89.4529	1,366.7	90.1615	1,366.7	88.5528	1,366.7	89.743	1,366.7	84.0291	1,366.7	87.1236	1,366.7	68.6698	1,366.7	73.1566	1,366.7	85.0348	1,366.7	83.6004	1,366.7	89.1621	1,366.7	87.8089	1,366.7	89.164
1,413.57	100.457	1,413.57	100.403	1,413.57	100.293	1,413.57	99.5803	1,413.57	99.937	1,413.57	98.7209	1,413.57	99.0888	1,413.57	97.2611	1,413.57	97.994	1,413.57	95.2664	1,413.57	96.5548	1,413.57	95.0124	1,413.57	95.1674	1,413.57	93.4591	1,413.57	93.4964	1,413.57	91.4035	1,413.57	92.1871	1,413.57	90.2236	1,413.57	90.8574	1,413.57	89.0292	1,413.57	87.162	1,413.57	88.2647	1,413.57	87.3663	1,413.57	87.4889	1,413.57	89.0944	1,413.57	87.4187	1,413.57	88.4716	1,413.57	83.8429	1,413.57	84.4081	1,413.57	75.9279	1,413.57	77.2029	1,413.57	84.6174	1,413.57	78.0584	1,413.57	90.1568	1,413.57	87.1429	1,413.57	89.5117
1,463.38	99.6116	1,463.38	99.4202	1,463.38	99.3994	1,463.38	98.8506	1,463.38	98.7689	1,463.38	98.148	1,463.38	97.7499	1,463.38	97.2775	1,463.38	96.9504	1,463.38	95.7966	1,463.38	95.887	1,463.38	94.3294	1,463.38	94.8984	1,463.38	92.75	1,463.38	93.7258	1,463.38	90.9444	1,463.38	91.2988	1,463.38	89.8428	1,463.38	90.0695	1,463.38	87.7877	1,463.38	88.5005	1,463.38	87.4556	1,463.38	88.2475	1,463.38	88.7961	1,463.38	88.6146	1,463.38	88.1294	1,463.38	88.9867	1,463.38	84.61	1,463.38	87.3812	1,463.38	73.5049	1,463.38	79.5352	1,463.38	81.716	1,463.38	74.8589	1,463.38	86.2983	1,463.38	82.5846	1,463.38	85.378
1,516.11	98.7498	1,516.11	98.3964	1,516.11	98.3094	1,516.11	97.7053	1,516.11	98.1378	1,516.11	96.8603	1,516.11	97.5001	1,516.11	95.5758	1,516.11	96.3253	1,516.11	94.1988	1,516.11	94.953	1,516.11	92.8545	1,516.11	92.7645	1,516.11	91.0743	1,516.11	92.1176	1,516.11	90.0175	1,516.11	90.7377	1,516.11	88.0194	1,516.11	88.7688	1,516.11	84.6755	1,516.11	87.1118	1,516.11	85.8926	1,516.11	86.4649	1,516.11	87.3925	1,516.11	85.7657	1,516.11	86.8652	1,516.11	86.7848	1,516.11	82.2094	1,516.11	83.8044	1,516.11	62.2533	1,516.11	62.7399	1,516.11	77.4181	1,516.11	75.0789	1,516.11	80.4837	1,516.11	84.8413	1,516.11	85.1867
1,568.85	98.4773	1,568.85	97.9809	1,568.85	98.502	1,568.85	96.6603	1,568.85	98.0132	1,568.85	95.8464	1,568.85	97.3647	1,568.85	94.8487	1,568.85	96.2941	1,568.85	92.422	1,568.85	94.6828	1,568.85	91.4911	1,568.85	92.7677	1,568.85	90.3747	1,568.85	91.0725	1,568.85	88.9266	1,568.85	91.3636	1,568.85	87.1872	1,568.85	89.9755	1,568.85	84.1639	1,568.85	86.3981	1,568.85	86.2204	1,568.85	85.3365	1,568.85	87.3027	1,568.85	86.4182	1,568.85	88.1002	1,568.85	87.0382	1,568.85	86.5588	1,568.85	84.7481	1,568.85	77.6778	1,568.85	79.4646	1,568.85	65.9395	1,568.85	70.0945	1,568.85	78.8364	1,568.85	76.4729	1,568.85	82.1707
1,624.51	98.9934	1,624.51	98.3581	1,624.51	99.0296	1,624.51	97.4011	1,624.51	98.7119	1,624.51	96.1267	1,624.51	97.9856	1,624.51	94.7661	1,624.51	96.653	1,624.51	93.1667	1,624.51	95.0901	1,624.51	90.7346	1,624.51	94.3006	1,624.51	88.9595	1,624.51	92.1557	1,624.51	87.3728	1,624.51	90.0604	1,624.51	86.1824	1,624.51	89.4765	1,624.51	82.8131	1,624.51	86.3473	1,624.51	84.1777	1,624.51	86.5733	1,624.51	85.2355	1,624.51	86.2098	1,624.51	85.4742	1,624.51	86.0762	1,624.51	85.2561	1,624.51	86.1027	1,624.51	83.122	1,624.51	81.0197	1,624.51	72.3344	1,624.51	73.459	1,624.51	78.024	1,624.51	78.4818	1,624.51	81.5021
1,681.64	98.5686	1,681.64	98.5716	1,681.64	99.1133	1,681.64	98.6886	1,681.64	98.5315	1,681.64	97.4639	1,681.64	97.4028	1,681.64	95.3953	1,681.64	97.3645	1,681.64	93.5714	1,681.64	95.4523	1,681.64	91.2862	1,681.64	93.8474	1,681.64	89.5783	1,681.64	92.3132	1,681.64	88.1715	1,681.64	90.5029	1,681.64	87.7102	1,681.64	89.795	1,681.64	85.9209	1,681.64	87.2039	1,681.64	82.6555	1,681.64	85.4563	1,681.64	83.075	1,681.64	84.0581	1,681.64	86.6112	1,681.64	87.1046	1,681.64	88.5239	1,681.64	85.2182	1,681.64	83.211	1,681.64	82.063	1,681.64	73.3881	1,681.64	76.0847	1,681.64	84.2576	1,681.64	77.9191	1,681.64	83.9445
1,741.7	99.1039	1,741.7	99.0567	1,741.7	98.8266	1,741.7	98.0292	1,741.7	98.0671	1,741.7	96.3325	1,741.7	97.822	1,741.7	95.3247	1,741.7	95.6655	1,741.7	93.8344	1,741.7	93.4998	1,741.7	91.5055	1,741.7	93.351	1,741.7	90.2468	1,741.7	91.545	1,741.7	87.574	1,741.7	90.4251	1,741.7	86.7877	1,741.7	87.399	1,741.7	85.0355	1,741.7	87.093	1,741.7	82.1056	1,741.7	85.4747	1,741.7	80.7514	1,741.7	85.0028	1,741.7	85.4787	1,741.7	86.1317	1,741.7	83.9365	1,741.7	86.0905	1,741.7	75.1598	1,741.7	84.1713	1,741.7	65.1416	1,741.7	72.3064	1,741.7	83.218	1,741.7	79.9362	1,741.7	83.8734
1,803.22	98.204	1,803.22	98.242	1,803.22	97.8672	1,803.22	97.5198	1,803.22	97.5238	1,803.22	96.3771	1,803.22	96.5061	1,803.22	94.7852	1,803.22	95.5171	1,803.22	92.953	1,803.22	94.2894	1,803.22	91.4689	1,803.22	92.0131	1,803.22	89.815	1,803.22	89.2793	1,803.22	89.1901	1,803.22	87.8351	1,803.22	87.9035	1,803.22	85.9156	1,803.22	85.4105	1,803.22	84.0085	1,803.22	84.4776	1,803.22	79.6537	1,803.22	83.6859	1,803.22	80.9994	1,803.22	85.9173	1,803.22	84.5134	1,803.22	85.8444	1,803.22	84.5359	1,803.22	83.1028	1,803.22	83.978	1,803.22	71.2816	1,803.22	74.5396	1,803.22	78.0529	1,803.22	80.1313	1,803.22	83.2701
1,866.21	97.5638	1,866.21	96.8495	1,866.21	97.2551	1,866.21	95.8713	1,866.21	96.1404	1,866.21	95.1068	1,866.21	94.5272	1,866.21	93.107	1,866.21	93.0178	1,866.21	91.714	1,866.21	92.6665	1,866.21	90.7562	1,866.21	91.0001	1,866.21	89.4456	1,866.21	89.8154	1,866.21	88.7969	1,866.21	88.9891	1,866.21	84.7852	1,866.21	88.817	1,866.21	84.3718	1,866.21	85.6012	1,866.21	85.44	1,866.21	81.8402	1,866.21	79.636	1,866.21	81.3427	1,866.21	84.7721	1,866.21	83.6921	1,866.21	85.8894	1,866.21	84.614	1,866.21	74.97	1,866.21	83.1869	1,866.21	79.769	1,866.21	73.5294	1,866.21	86.9582	1,866.21	82.4503	1,866.21	85.3271
1,932.13	96.859	1,932.13	96.407	1,932.13	96.2703	1,932.13	95.2905	1,932.13	95.3388	1,932.13	93.3431	1,932.13	94.6221	1,932.13	92.2944	1,932.13	94.0756	1,932.13	91.4081	1,932.13	92.8587	1,932.13	87.9863	1,932.13	91.2847	1,932.13	85.2352	1,932.13	88.741	1,932.13	89.1551	1,932.13	87.7709	1,932.13	89.1347	1,932.13	88.7973	1,932.13	87.3823	1,932.13	86.7714	1,932.13	82.9469	1,932.13	86.4836	1,932.13	83.1214	1,932.13	84.4253	1,932.13	87.703	1,932.13	78.4321	1,932.13	81.9763	1,932.13	84.3861	1,932.13	72.5296	1,932.13	84.5528	1,932.13	72.831	1,932.13	71.7853	1,932.13	82.5902	1,932.13	70.5	1,932.13	82.9839
1,999.51	97.2905	1,999.51	96.8554	1,999.51	97.9413	1,999.51	96.3535	1,999.51	96.8475	1,999.51	94.6498	1,999.51	95.8106	1,999.51	93.2903	1,999.51	95.1952	1,999.51	92.0878	1,999.51	93.9358	1,999.51	90.4503	1,999.51	92.63	1,999.51	89.2238	1,999.51	91.542	1,999.51	88.189	1,999.51	91.0483	1,999.51	87.1704	1,999.51	89.3867	1,999.51	86.8391	1,999.51	89.0846	1,999.51	85.1649	1,999.51	87.8513	1,999.51	81.4879	1,999.51	84.5338	1,999.51	84.5158	1,999.51	84.5491	1,999.51	85.5684	1,999.51	87.3181	1,999.51	81.8951	1,999.51	86.2291	1,999.51	69.7634	1,999.51	78.95	1,999.51	79.6275	1,999.51	69.5862	1,999.51	80.424
2,069.82	97.6207	2,069.82	97.3341	2,069.82	97.7879	2,069.82	96.6514	2,069.82	97.4777	2,069.82	95.7661	2,069.82	96.7617	2,069.82	94.8461	2,069.82	95.9449	2,069.82	93.8861	2,069.82	94.6466	2,069.82	92.0847	2,069.82	93.4653	2,069.82	90.289	2,069.82	92.3419	2,069.82	89.2865	2,069.82	91.5046	2,069.82	88.2047	2,069.82	90.4351	2,069.82	87.817	2,069.82	89.8103	2,069.82	86.831	2,069.82	88.6862	2,069.82	83.9676	2,069.82	86.9642	2,069.82	82.7055	2,069.82	86.2222	2,069.82	87.2068	2,069.82	88.3561	2,069.82	86.2779	2,069.82	86.9019	2,069.82	78.1916	2,069.82	80.0737	2,069.82	71.4978	2,069.82	71.8059	2,069.82	79.9519
2,143.07	98.1579	2,143.07	97.8946	2,143.07	98.0306	2,143.07	97.5627	2,143.07	97.5614	2,143.07	96.8714	2,143.07	97.0163	2,143.07	96.1043	2,143.07	96.0582	2,143.07	95.0409	2,143.07	94.993	2,143.07	93.6308	2,143.07	93.7465	2,143.07	91.8235	2,143.07	92.4668	2,143.07	91.389	2,143.07	91.319	2,143.07	89.6056	2,143.07	89.8148	2,143.07	87.6237	2,143.07	88.7351	2,143.07	87.2311	2,143.07	88.1824	2,143.07	85.9703	2,143.07	85.9998	2,143.07	86.1465	2,143.07	84.7006	2,143.07	88.0729	2,143.07	87.5139	2,143.07	87.3665	2,143.07	87.6775	2,143.07	82.1596	2,143.07	81.7893	2,143.07	71.6477	2,143.07	65.4573	2,143.07	78.7977
2,219.24	97.2737	2,219.24	97.0193	2,219.24	97.2496	2,219.24	96.1486	2,219.24	96.8431	2,219.24	95.7783	2,219.24	95.5893	2,219.24	95.2599	2,219.24	95.1379	2,219.24	95.2182	2,219.24	94.0938	2,219.24	93.7839	2,219.24	93.1462	2,219.24	91.3717	2,219.24	91.6241	2,219.24	89.9279	2,219.24	89.9098	2,219.24	90.0813	2,219.24	88.9126	2,219.24	88.6025	2,219.24	87.2265	2,219.24	87.2007	2,219.24	87.0092	2,219.24	85.6742	2,219.24	85.4734	2,219.24	83.3246	2,219.24	83.0237	2,219.24	87.2299	2,219.24	86.4217	2,219.24	87.6126	2,219.24	87.117	2,219.24	83.0701	2,219.24	83.9823	2,219.24	78.9572	2,219.24	76.4817	2,219.24	76.9637
2,296.88	97.5807	2,296.88	97.819	2,296.88	97.5745	2,296.88	97.711	2,296.88	96.8038	2,296.88	96.684	2,296.88	96.0725	2,296.88	95.6451	2,296.88	94.88	2,296.88	94.2786	2,296.88	93.9559	2,296.88	93.3995	2,296.88	92.9933	2,296.88	91.1101	2,296.88	91.4	2,296.88	89.2971	2,296.88	88.9622	2,296.88	88.0545	2,296.88	88.2871	2,296.88	87.1647	2,296.88	86.4576	2,296.88	86.2187	2,296.88	84.3354	2,296.88	85.2344	2,296.88	83.8004	2,296.88	83.8152	2,296.88	80.19	2,296.88	85.9427	2,296.88	82.9027	2,296.88	85.0516	2,296.88	85.9458	2,296.88	80.9394	2,296.88	82.5252	2,296.88	82.7634	2,296.88	77.129	2,296.88	80.9874
2,378.91	99.234	2,378.91	99.0162	2,378.91	99.1312	2,378.91	98.3417	2,378.91	98.7779	2,378.91	97.1538	2,378.91	97.7971	2,378.91	95.6301	2,378.91	96.9352	2,378.91	94.2555	2,378.91	95.6606	2,378.91	92.8345	2,378.91	94.3515	2,378.91	90.7276	2,378.91	92.7285	2,378.91	88.244	2,378.91	90.2282	2,378.91	86.0637	2,378.91	89.3694	2,378.91	83.2643	2,378.91	87.85	2,378.91	82.8723	2,378.91	86.3013	2,378.91	81.8738	2,378.91	86.3473	2,378.91	83.3513	2,378.91	84.0272	2,378.91	83.9786	2,378.91	83.7081	2,378.91	82.5068	2,378.91	85.8075	2,378.91	79.7976	2,378.91	83.8404	2,378.91	81.1268	2,378.91	81.1357	2,378.91	81.2388
2,462.4	99.8854	2,462.4	99.6574	2,462.4	100.303	2,462.4	99.5369	2,462.4	99.6931	2,462.4	98.1962	2,462.4	99.141	2,462.4	97.2314	2,462.4	98.3179	2,462.4	95.891	2,462.4	97.2503	2,462.4	95.0595	2,462.4	95.9559	2,462.4	93.5266	2,462.4	94.4225	2,462.4	90.8167	2,462.4	92.2205	2,462.4	88.8441	2,462.4	90.3904	2,462.4	86.7943	2,462.4	89.1881	2,462.4	85.8438	2,462.4	87.5438	2,462.4	85.5916	2,462.4	87.6887	2,462.4	83.0933	2,462.4	85.4106	2,462.4	84.5516	2,462.4	84.7229	2,462.4	84.8266	2,462.4	86.4113	2,462.4	80.4566	2,462.4	85.0168	2,462.4	80.5857	2,462.4	83.1175	2,462.4	83.3835
2,548.83	99.9305	2,548.83	100.057	2,548.83	99.8584	2,548.83	99.9025	2,548.83	99.4854	2,548.83	99.2373	2,548.83	99.055	2,548.83	98.2289	2,548.83	97.9763	2,548.83	96.2276	2,548.83	96.7034	2,548.83	95.364	2,548.83	95.2111	2,548.83	94.7081	2,548.83	93.6464	2,548.83	92.4142	2,548.83	91.4745	2,548.83	89.8806	2,548.83	89.0158	2,548.83	88.1325	2,548.83	88.2762	2,548.83	87.4846	2,548.83	86.0319	2,548.83	88.2961	2,548.83	86.7268	2,548.83	88.1057	2,548.83	85.3989	2,548.83	86.4302	2,548.83	83.6073	2,548.83	85.8981	2,548.83	86.9468	2,548.83	79.944	2,548.83	82.5518	2,548.83	82.4157	2,548.83	80.824	2,548.83	84.76
2,639.65	99.121	2,639.65	98.7317	2,639.65	98.5075	2,639.65	98.6868	2,639.65	98.3595	2,639.65	98.4481	2,639.65	97.9731	2,639.65	96.9415	2,639.65	96.966	2,639.65	95.3859	2,639.65	95.8366	2,639.65	93.6555	2,639.65	94.2298	2,639.65	92.5453	2,639.65	92.9029	2,639.65	91.2901	2,639.65	91.1861	2,639.65	89.6083	2,639.65	88.6633	2,639.65	87.2781	2,639.65	86.9292	2,639.65	86.4406	2,639.65	85.3657	2,639.65	85.5641	2,639.65	84.9772	2,639.65	84.327	2,639.65	86.5049	2,639.65	86.3113	2,639.65	84.2169	2,639.65	86.939	2,639.65	85.3975	2,639.65	82.7258	2,639.65	83.8815	2,639.65	76.2753	2,639.65	74.2129	2,639.65	77.3595
2,731.93	98.0835	2,731.93	97.7524	2,731.93	97.2378	2,731.93	97.0404	2,731.93	98.1271	2,731.93	97.8091	2,731.93	97.907	2,731.93	96.5515	2,731.93	97.333	2,731.93	94.808	2,731.93	96.2018	2,731.93	92.3199	2,731.93	94.7291	2,731.93	91.4771	2,731.93	93.2879	2,731.93	89.8797	2,731.93	91.1589	2,731.93	88.3524	2,731.93	88.9242	2,731.93	87.6091	2,731.93	88.0917	2,731.93	84.1664	2,731.93	86.3469	2,731.93	85.813	2,731.93	85.1628	2,731.93	84.1144	2,731.93	86.908	2,731.93	85.7332	2,731.93	86.5072	2,731.93	85.2863	2,731.93	86.267	2,731.93	80.0263	2,731.93	84.9895	2,731.93	81.6071	2,731.93	81.9756	2,731.93	82.412
2,828.61	98.1283	2,828.61	98.0516	2,828.61	98.6422	2,828.61	97.7792	2,828.61	98.7193	2,828.61	97.1298	2,828.61	98.3501	2,828.61	96.8703	2,828.61	98.0605	2,828.61	95.8896	2,828.61	97.169	2,828.61	94.1092	2,828.61	95.4645	2,828.61	92.3233	2,828.61	93.7422	2,828.61	90.6083	2,828.61	92.3291	2,828.61	88.7773	2,828.61	90.087	2,828.61	87.1309	2,828.61	88.8971	2,828.61	84.2327	2,828.61	87.0898	2,828.61	84.1183	2,828.61	85.4004	2,828.61	82.522	2,828.61	86.7338	2,828.61	84.0242	2,828.61	86.3741	2,828.61	86.3411	2,828.61	86.4212	2,828.61	82.6516	2,828.61	85.1623	2,828.61	78.1564	2,828.61	81.4421	2,828.61	81.4694
2,928.22	98.781	2,928.22	98.7387	2,928.22	99.6589	2,928.22	98.8406	2,928.22	99.2255	2,928.22	97.9066	2,928.22	99.0882	2,928.22	97.7662	2,928.22	98.6528	2,928.22	96.7361	2,928.22	97.8867	2,928.22	95.5482	2,928.22	96.1122	2,928.22	93.7615	2,928.22	94.2897	2,928.22	91.9252	2,928.22	92.7205	2,928.22	90.1781	2,928.22	90.3445	2,928.22	89.33	2,928.22	88.792	2,928.22	86.3459	2,928.22	87.2709	2,928.22	87.2694	2,928.22	85.6908	2,928.22	87.3437	2,928.22	87.3586	2,928.22	85.4257	2,928.22	85.8312	2,928.22	85.5459	2,928.22	86.4398	2,928.22	81.9856	2,928.22	85.2263	2,928.22	83.8143	2,928.22	80.9825	2,928.22	83.5033
3,030.76	99.5016	3,030.76	99.4064	3,030.76	99.9989	3,030.76	99.5988	3,030.76	99.6382	3,030.76	99.0377	3,030.76	99.3787	3,030.76	98.2365	3,030.76	98.9401	3,030.76	97.2279	3,030.76	97.9727	3,030.76	95.6457	3,030.76	96.4215	3,030.76	93.9441	3,030.76	94.2946	3,030.76	92.2965	3,030.76	92.6236	3,030.76	89.7633	3,030.76	90.3208	3,030.76	88.6333	3,030.76	88.3682	3,030.76	86.2528	3,030.76	87.6351	3,030.76	85.6959	3,030.76	85.2894	3,030.76	86.8087	3,030.76	86.7418	3,030.76	83.6739	3,030.76	85.8186	3,030.76	86.5338	3,030.76	85.3961	3,030.76	85.1187	3,030.76	84.0297	3,030.76	80.7964	3,030.76	81.2932	3,030.76	81.866
3,137.7	99.317	3,137.7	99.3868	3,137.7	98.8365	3,137.7	99.1167	3,137.7	99.2238	3,137.7	99.1227	3,137.7	99.1138	3,137.7	98.2033	3,137.7	98.5686	3,137.7	96.8387	3,137.7	97.5272	3,137.7	95.5295	3,137.7	96.3273	3,137.7	93.8518	3,137.7	94.3006	3,137.7	92.04	3,137.7	92.5057	3,137.7	89.9348	3,137.7	90.3503	3,137.7	87.3832	3,137.7	87.8855	3,137.7	85.9609	3,137.7	86.6076	3,137.7	84.4745	3,137.7	84.4007	3,137.7	87.6548	3,137.7	85.6285	3,137.7	85.1965	3,137.7	84.7437	3,137.7	86.7195	3,137.7	85.8805	3,137.7	85.16	3,137.7	85.9528	3,137.7	81.0182	3,137.7	81.1035	3,137.7	81.0814
3,249.02	98.0966	3,249.02	98.4294	3,249.02	97.7745	3,249.02	98.4827	3,249.02	98.3687	3,249.02	98.6401	3,249.02	98.7166	3,249.02	97.9638	3,249.02	98.2926	3,249.02	96.4794	3,249.02	97.3674	3,249.02	94.981	3,249.02	96.0801	3,249.02	93.0988	3,249.02	94.4294	3,249.02	91.7671	3,249.02	92.5443	3,249.02	90.0378	3,249.02	90.9379	3,249.02	87.6187	3,249.02	88.5039	3,249.02	86.2745	3,249.02	87.6101	3,249.02	84.7322	3,249.02	84.9047	3,249.02	85.8701	3,249.02	86.6809	3,249.02	84.3095	3,249.02	87.2633	3,249.02	86.6793	3,249.02	87.5567	3,249.02	85.9946	3,249.02	85.8516	3,249.02	79.862	3,249.02	82.3115	3,249.02	81.4329
3,363.28	97.9919	3,363.28	97.9414	3,363.28	97.7463	3,363.28	98.259	3,363.28	98.4541	3,363.28	98.2739	3,363.28	98.7624	3,363.28	97.3967	3,363.28	98.3224	3,363.28	96.2876	3,363.28	97.2438	3,363.28	94.5096	3,363.28	95.9493	3,363.28	92.8172	3,363.28	94.2049	3,363.28	90.6914	3,363.28	92.1063	3,363.28	89.1752	3,363.28	90.1852	3,363.28	86.5422	3,363.28	87.8122	3,363.28	86.1256	3,363.28	86.3839	3,363.28	81.8643	3,363.28	84.844	3,363.28	85.5681	3,363.28	85.3219	3,363.28	84.9277	3,363.28	86.8033	3,363.28	85.6614	3,363.28	85.2191	3,363.28	84.3511	3,363.28	85.8789	3,363.28	83.1137	3,363.28	82.5455	3,363.28	83.1635
3,481.93	97.8325	3,481.93	98.2943	3,481.93	98.3635	3,481.93	98.7293	3,481.93	98.4708	3,481.93	98.2524	3,481.93	98.5611	3,481.93	97.961	3,481.93	98.2176	3,481.93	96.7957	3,481.93	97.2686	3,481.93	94.9157	3,481.93	95.6576	3,481.93	92.7369	3,481.93	93.8759	3,481.93	90.482	3,481.93	91.5487	3,481.93	88.9746	3,481.93	90.1499	3,481.93	86.9086	3,481.93	87.6	3,481.93	85.5413	3,481.93	85.9755	3,481.93	83.9861	3,481.93	84.0785	3,481.93	86.71	3,481.93	82.465	3,481.93	85.4218	3,481.93	84.5993	3,481.93	86.0281	3,481.93	85.0414	3,481.93	84.1124	3,481.93	85.057	3,481.93	83.6885	3,481.93	81.8619	3,481.93	83.2656
3,604.98	98.0538	3,604.98	98.2645	3,604.98	98.7058	3,604.98	98.647	3,604.98	98.931	3,604.98	98.4979	3,604.98	99.1263	3,604.98	97.9583	3,604.98	98.8832	3,604.98	96.8516	3,604.98	98.0392	3,604.98	95.1375	3,604.98	96.4771	3,604.98	92.5904	3,604.98	94.971	3,604.98	90.5834	3,604.98	92.8577	3,604.98	88.8899	3,604.98	90.4287	3,604.98	86.7093	3,604.98	88.7257	3,604.98	85.0479	3,604.98	87.7753	3,604.98	83.28	3,604.98	86.5654	3,604.98	85.5078	3,604.98	85.2358	3,604.98	85.5459	3,604.98	86.4263	3,604.98	85.8732	3,604.98	86.1588	3,604.98	85.1799	3,604.98	86.0451	3,604.98	81.1043	3,604.98	81.0246	3,604.98	81.6666
3,732.42	98.5476	3,732.42	99.2061	3,732.42	98.8974	3,732.42	99.3898	3,732.42	99.0394	3,732.42	99.1859	3,732.42	99.4686	3,732.42	98.6429	3,732.42	99.3889	3,732.42	97.4736	3,732.42	98.2843	3,732.42	95.6931	3,732.42	96.6559	3,732.42	94.0569	3,732.42	94.4768	3,732.42	91.232	3,732.42	92.4409	3,732.42	88.9389	3,732.42	89.96	3,732.42	87.3177	3,732.42	88.3021	3,732.42	85.5282	3,732.42	86.5063	3,732.42	83.6564	3,732.42	85.461	3,732.42	84.09	3,732.42	84.2361	3,732.42	86.4163	3,732.42	86.4014	3,732.42	84.9773	3,732.42	85.7962	3,732.42	85.4734	3,732.42	86.2898	3,732.42	80.3227	3,732.42	81.5342	3,732.42	80.6344
3,864.26	97.6113	3,864.26	98.0859	3,864.26	96.7731	3,864.26	98.3274	3,864.26	97.6156	3,864.26	98.3492	3,864.26	97.8977	3,864.26	97.567	3,864.26	97.502	3,864.26	96.5389	3,864.26	96.8281	3,864.26	94.6111	3,864.26	95.0677	3,864.26	93.0742	3,864.26	92.8251	3,864.26	90.9068	3,864.26	91.6696	3,864.26	89.0274	3,864.26	88.8672	3,864.26	87.2787	3,864.26	86.7245	3,864.26	84.6054	3,864.26	83.8729	3,864.26	84.5358	3,864.26	84.1333	3,864.26	84.6011	3,864.26	82.0617	3,864.26	85.6113	3,864.26	86.1523	3,864.26	85.4869	3,864.26	84.2288	3,864.26	85.6953	3,864.26	85.1077	3,864.26	79.2524	3,864.26	79.5269	3,864.26	80.0813
4,000.49	97.4362	4,000.49	96.7198	4,000.49	97.4537	4,000.49	97.101	4,000.49	97.9461	4,000.49	97.5584	4,000.49	98.0424	4,000.49	96.8504	4,000.49	97.4124	4,000.49	95.4843	4,000.49	96.7537	4,000.49	93.8525	4,000.49	95.6399	4,000.49	91.2086	4,000.49	94.2054	4,000.49	89.7765	4,000.49	92.2005	4,000.49	87.6639	4,000.49	89.4952	4,000.49	84.8566	4,000.49	88.1267	4,000.49	83.7126	4,000.49	85.7172	4,000.49	82.4875	4,000.49	82.926	4,000.49	83.6839	4,000.49	81.6315	4,000.49	84.3771	4,000.49	84.4472	4,000.49	83.4388	4,000.49	84.2102	4,000.49	83.31	4,000.49	85.2579	4,000.49	77.2646	4,000.49	83.4438	4,000.49	81.1934
4,141.11	97.4199	4,141.11	97.767	4,141.11	98.4543	4,141.11	98.2495	4,141.11	98.2024	4,141.11	98.0703	4,141.11	98.2961	4,141.11	97.6618	4,141.11	97.6846	4,141.11	96.5565	4,141.11	97.1075	4,141.11	95.7082	4,141.11	95.6534	4,141.11	94.0258	4,141.11	93.4745	4,141.11	91.7187	4,141.11	91.9239	4,141.11	88.9145	4,141.11	89.3014	4,141.11	87.5758	4,141.11	87.6576	4,141.11	86.1367	4,141.11	85.8812	4,141.11	84.1434	4,141.11	85.2381	4,141.11	84.811	4,141.11	83.9576	4,141.11	86.2851	4,141.11	82.8806	4,141.11	83.8784	4,141.11	84.7805	4,141.11	81.6119	4,141.11	85.4825	4,141.11	80.2073	4,141.11	82.0071	4,141.11	80.7391
4,287.6	98.1925	4,287.6	98.4326	4,287.6	97.7677	4,287.6	97.7797	4,287.6	97.3584	4,287.6	97.4706	4,287.6	97.6292	4,287.6	96.9488	4,287.6	97.9697	4,287.6	96.3554	4,287.6	97.3687	4,287.6	95.5594	4,287.6	96.3804	4,287.6	94.0273	4,287.6	95.2016	4,287.6	91.8152	4,287.6	92.4808	4,287.6	88.8774	4,287.6	90.4053	4,287.6	88.363	4,287.6	88.3475	4,287.6	87.08	4,287.6	86.6942	4,287.6	83.8092	4,287.6	84.1954	4,287.6	81.2451	4,287.6	84.0955	4,287.6	85.6403	4,287.6	84.7888	4,287.6	84.6753	4,287.6	86.1685	4,287.6	85.254	4,287.6	84.6597	4,287.6	77.2322	4,287.6	76.3899	4,287.6	78.1499
4,438.48	99.3175	4,438.48	98.156	4,438.48	98.6634	4,438.48	97.4024	4,438.48	98.3778	4,438.48	97.5354	4,438.48	97.5609	4,438.48	97.6074	4,438.48	97.6387	4,438.48	97.088	4,438.48	97.139	4,438.48	95.3225	4,438.48	95.4123	4,438.48	93.4296	4,438.48	94.2597	4,438.48	91.801	4,438.48	93.1434	4,438.48	89.869	4,438.48	90.7403	4,438.48	86.8605	4,438.48	87.628	4,438.48	84.323	4,438.48	86.8983	4,438.48	82.6194	4,438.48	84.2668	4,438.48	77.7915	4,438.48	81.0246	4,438.48	82.8873	4,438.48	84.1113	4,438.48	82.0719	4,438.48	85.0878	4,438.48	85.8152	4,438.48	83.1719	4,438.48	77.1458	4,438.48	81.5811	4,438.48	77.5758
4,595.21	98.2962	4,595.21	97.5588	4,595.21	98.1989	4,595.21	97.9797	4,595.21	97.7056	4,595.21	98.4645	4,595.21	96.9296	4,595.21	97.3524	4,595.21	96.0694	4,595.21	96.3299	4,595.21	96.1265	4,595.21	95.9137	4,595.21	96.3677	4,595.21	93.2217	4,595.21	94.9683	4,595.21	91.5897	4,595.21	92.2994	4,595.21	90.1035	4,595.21	89.9317	4,595.21	87.6191	4,595.21	86.8745	4,595.21	85.2594	4,595.21	85.5791	4,595.21	83.9071	4,595.21	84.296	4,595.21	83.3473	4,595.21	82.37	4,595.21	82.5438	4,595.21	79.8731	4,595.21	83.8476	4,595.21	81.9336	4,595.21	85.2553	4,595.21	84.3879	4,595.21	77.4208	4,595.21	82.0123	4,595.21	75.5091
4,756.35	99.2606	4,756.35	98.711	4,756.35	98.6129	4,756.35	96.9258	4,756.35	97.8745	4,756.35	95.7641	4,756.35	97.7492	4,756.35	96.5671	4,756.35	98.3044	4,756.35	96.9487	4,756.35	98.3778	4,756.35	95.4085	4,756.35	97.2302	4,756.35	94.2447	4,756.35	95.2976	4,756.35	90.3007	4,756.35	92.9597	4,756.35	87.6621	4,756.35	90.1414	4,756.35	86.0944	4,756.35	87.8639	4,756.35	86.4681	4,756.35	84.9318	4,756.35	80.3055	4,756.35	83.5019	4,756.35	80.5427	4,756.35	83.8446	4,756.35	83.0644	4,756.35	82.3344	4,756.35	83.4101	4,756.35	84.5677	4,756.35	83.3605	4,756.35	83.9992	4,756.35	78.2743	4,756.35	81.9942	4,756.35	73.3947
4,924.8	98.9983	4,924.8	97.8356	4,924.8	98.657	4,924.8	97.4572	4,924.8	97.3209	4,924.8	98.2003	4,924.8	97.528	4,924.8	98.6133	4,924.8	97.9505	4,924.8	98.6906	4,924.8	97.3209	4,924.8	96.3164	4,924.8	95.8677	4,924.8	94.5275	4,924.8	93.9683	4,924.8	92.9195	4,924.8	92.5294	4,924.8	89.5527	4,924.8	89.219	4,924.8	86.0676	4,924.8	86.4271	4,924.8	84.1299	4,924.8	84.2929	4,924.8	84.9675	4,924.8	82.1864	4,924.8	78.976	4,924.8	80.1529	4,924.8	84.1774	4,924.8	81.2094	4,924.8	83.9332	4,924.8	83.5829	4,924.8	83.2366	4,924.8	82.2424	4,924.8	78.6175	4,924.8	79.8696	4,924.8	77.5766
5,097.66	97.9839	5,097.66	97.8636	5,097.66	98.4067	5,097.66	97.4451	5,097.66	97.6348	5,097.66	98.2926	5,097.66	97.3824	5,097.66	97.5368	5,097.66	97.1006	5,097.66	95.7069	5,097.66	96.6879	5,097.66	95.5352	5,097.66	96.1868	5,097.66	92.816	5,097.66	94.5603	5,097.66	91.1949	5,097.66	91.5507	5,097.66	88.2914	5,097.66	90.0325	5,097.66	84.5232	5,097.66	87.1821	5,097.66	82.1465	5,097.66	83.7585	5,097.66	84.5159	5,097.66	81.3099	5,097.66	81.9261	5,097.66	79.7421	5,097.66	83.9644	5,097.66	79.6704	5,097.66	84.9386	5,097.66	84.1247	5,097.66	84.9241	5,097.66	83.4051	5,097.66	76.7757	5,097.66	80.8273	5,097.66	66.6028
5,277.83	98.8848	5,277.83	97.968	5,277.83	98.3413	5,277.83	96.8679	5,277.83	97.6943	5,277.83	96.1924	5,277.83	97.2036	5,277.83	96.9739	5,277.83	97.4813	5,277.83	96.0798	5,277.83	97.2211	5,277.83	93.8233	5,277.83	95.3772	5,277.83	92.7746	5,277.83	93.4506	5,277.83	89.6554	5,277.83	90.555	5,277.83	86.1833	5,277.83	87.8194	5,277.83	82.7496	5,277.83	86.7672	5,277.83	82.0795	5,277.83	83.6897	5,277.83	75.8861	5,277.83	78.0986	5,277.83	82.0024	5,277.83	80.9165	5,277.83	80.7358	5,277.83	80.5895	5,277.83	81.3881	5,277.83	82.2717	5,277.83	81.8918	5,277.83	82.2122	5,277.83	78.3486	5,277.83	82.1638	5,277.83	74.6641
5,463.87	98.9144	5,463.87	98.025	5,463.87	98.5913	5,463.87	97.6777	5,463.87	97.9597	5,463.87	97.6582	5,463.87	97.4292	5,463.87	97.0453	5,463.87	97.3052	5,463.87	97.2095	5,463.87	96.674	5,463.87	94.5955	5,463.87	95.0744	5,463.87	92.6459	5,463.87	93.409	5,463.87	91.1081	5,463.87	90.862	5,463.87	86.7936	5,463.87	88.5132	5,463.87	85.4241	5,463.87	85.1687	5,463.87	83.3456	5,463.87	84.7843	5,463.87	83.2913	5,463.87	83.557	5,463.87	81.6191	5,463.87	78.2039	5,463.87	80.4045	5,463.87	81.3863	5,463.87	83.7687	5,463.87	82.9752	5,463.87	82.855	5,463.87	82.5717	5,463.87	76.0723	5,463.87	80.1213	5,463.87	75.0371
5,657.23	98.7136	5,657.23	98.6609	5,657.23	98.4495	5,657.23	97.8651	5,657.23	97.8985	5,657.23	97.7997	5,657.23	97.4695	5,657.23	96.6397	5,657.23	96.7552	5,657.23	94.8795	5,657.23	96.1799	5,657.23	94.3879	5,657.23	95.1393	5,657.23	91.6583	5,657.23	93.2099	5,657.23	88.0864	5,657.23	90.676	5,657.23	86.089	5,657.23	88.1224	5,657.23	81.9555	5,657.23	85.4883	5,657.23	78.9501	5,657.23	82.3392	5,657.23	80.2223	5,657.23	81.2207	5,657.23	80.5554	5,657.23	81.1795	5,657.23	81.5569	5,657.23	82.0067	5,657.23	81.961	5,657.23	83.8418	5,657.23	82.7031	5,657.23	80.1612	5,657.23	69.8839	5,657.23	80.9562	5,657.23	61.057
5,856.45	97.7264	5,856.45	97.3013	5,856.45	97.798	5,856.45	96.7535	5,856.45	97.5703	5,856.45	95.6754	5,856.45	96.6748	5,856.45	95.9172	5,856.45	96.4498	5,856.45	95.2281	5,856.45	96.1149	5,856.45	93.5123	5,856.45	94.9007	5,856.45	92.2991	5,856.45	92.9439	5,856.45	89.6826	5,856.45	90.2489	5,856.45	87.9497	5,856.45	87.585	5,856.45	86.4254	5,856.45	84.6861	5,856.45	84.2082	5,856.45	83.5406	5,856.45	79.5224	5,856.45	80.8778	5,856.45	81.8122	5,856.45	80.3438	5,856.45	80.8045	5,856.45	79.4036	5,856.45	81.3968	5,856.45	82.9758	5,856.45	82.6458	5,856.45	80.8104	5,856.45	74.1456	5,856.45	81.063	5,856.45	71.7387
6,062.99	99.0606	6,062.99	98.9034	6,062.99	98.6161	6,062.99	98.6978	6,062.99	98.229	6,062.99	98.1392	6,062.99	97.8073	6,062.99	97.029	6,062.99	96.8553	6,062.99	96.8175	6,062.99	96.0348	6,062.99	95.3897	6,062.99	94.6183	6,062.99	92.0247	6,062.99	92.5226	6,062.99	89.5573	6,062.99	91.6293	6,062.99	87.4223	6,062.99	88.5093	6,062.99	84.7231	6,062.99	85.2687	6,062.99	82.8722	6,062.99	81.4528	6,062.99	80.4432	6,062.99	81.7538	6,062.99	77.6364	6,062.99	76.8092	6,062.99	79.531	6,062.99	77.5006	6,062.99	82.0115	6,062.99	81.1397	6,062.99	80.9677	6,062.99	81.3714	6,062.99	75.2274	6,062.99	79.2357	6,062.99	67.9099
6,276.86	97.8299	6,276.86	98.1042	6,276.86	97.9177	6,276.86	97.3206	6,276.86	98.1757	6,276.86	96.9524	6,276.86	97.1578	6,276.86	95.8917	6,276.86	96.1232	6,276.86	95.2446	6,276.86	95.4389	6,276.86	94.3944	6,276.86	94.3172	6,276.86	92.4464	6,276.86	92.9648	6,276.86	90.4648	6,276.86	90.9112	6,276.86	88.3554	6,276.86	88.5929	6,276.86	85.5622	6,276.86	85.6618	6,276.86	83.077	6,276.86	80.8301	6,276.86	80.9039	6,276.86	80.0207	6,276.86	78.6842	6,276.86	80.5018	6,276.86	77.0783	6,276.86	76.3909	6,276.86	82.1875	6,276.86	83.5413	6,276.86	80.453	6,276.86	80.7734	6,276.86	74.599	6,276.86	80.9368	6,276.86	65.0203
6,498.05	98.5192	6,498.05	98.6192	6,498.05	98.6817	6,498.05	98.5087	6,498.05	98.4841	6,498.05	97.2771	6,498.05	97.6576	6,498.05	96.7354	6,498.05	96.3935	6,498.05	96.1239	6,498.05	95.6942	6,498.05	94.0641	6,498.05	94.9247	6,498.05	92.2584	6,498.05	93.0329	6,498.05	90.548	6,498.05	90.838	6,498.05	86.5887	6,498.05	88.6353	6,498.05	84.1315	6,498.05	85.7527	6,498.05	80.6283	6,498.05	83.1876	6,498.05	78.8627	6,498.05	80.1791	6,498.05	80.9358	6,498.05	77.7186	6,498.05	80.0665	6,498.05	77.0826	6,498.05	81.2089	6,498.05	79.1571	6,498.05	80.2475	6,498.05	81.2345	6,498.05	71.9986	6,498.05	79.5759	6,498.05	67.1988
6,726.56	98.849	6,726.56	99.1688	6,726.56	98.9045	6,726.56	98.686	6,726.56	99.0058	6,726.56	97.8658	6,726.56	97.8919	6,726.56	96.296	6,726.56	96.3869	6,726.56	95.7181	6,726.56	95.7182	6,726.56	94.996	6,726.56	94.8662	6,726.56	92.8027	6,726.56	93.013	6,726.56	90.3597	6,726.56	90.9363	6,726.56	87.8509	6,726.56	87.7963	6,726.56	83.8718	6,726.56	84.9455	6,726.56	81.4049	6,726.56	81.3933	6,726.56	79.6203	6,726.56	80.1391	6,726.56	78.9176	6,726.56	78.1869	6,726.56	80.5926	6,726.56	79.5862	6,726.56	82.0621	6,726.56	81.6998	6,726.56	79.9897	6,726.56	81.518	6,726.56	68.8578	6,726.56	79.463	6,726.56	67.2203
6,963.87	98.3065	6,963.87	98.5679	6,963.87	98.3781	6,963.87	98.0968	6,963.87	98.5668	6,963.87	96.9493	6,963.87	97.2474	6,963.87	95.8996	6,963.87	96.1427	6,963.87	95.0018	6,963.87	95.5787	6,963.87	93.6867	6,963.87	94.223	6,963.87	91.5857	6,963.87	92.7923	6,963.87	89.052	6,963.87	90.3098	6,963.87	85.9748	6,963.87	86.7705	6,963.87	82.7271	6,963.87	84.1706	6,963.87	80.2648	6,963.87	81.2563	6,963.87	79.0721	6,963.87	78.0906	6,963.87	77.7094	6,963.87	76.4821	6,963.87	77.9583	6,963.87	77.5463	6,963.87	80.4253	6,963.87	80.583	6,963.87	78.4809	6,963.87	80.0125	6,963.87	73.8088	6,963.87	78.9429	6,963.87	68.7543
7,209.96	99.0481	7,209.96	99.1981	7,209.96	98.9303	7,209.96	98.7093	7,209.96	99.0279	7,209.96	97.3746	7,209.96	98.0147	7,209.96	96.3234	7,209.96	96.3599	7,209.96	95.7096	7,209.96	95.095	7,209.96	94.377	7,209.96	94.6129	7,209.96	92.3105	7,209.96	93.1701	7,209.96	90.1068	7,209.96	89.9879	7,209.96	87.215	7,209.96	86.9672	7,209.96	84.8583	7,209.96	84.3185	7,209.96	82.0757	7,209.96	81.7548	7,209.96	79.0667	7,209.96	78.8762	7,209.96	76.8929	7,209.96	76.2675	7,209.96	77.5901	7,209.96	77.9275	7,209.96	81.1637	7,209.96	80.6317	7,209.96	80.7546	7,209.96	80.8448	7,209.96	73.1152	7,209.96	79.5419	7,209.96	69.5373
7,464.84	98.4834	7,464.84	98.8684	7,464.84	98.5479	7,464.84	98.4202	7,464.84	98.2947	7,464.84	97.3226	7,464.84	96.9068	7,464.84	96.3009	7,464.84	95.4275	7,464.84	95.4068	7,464.84	94.5264	7,464.84	94.0163	7,464.84	93.5396	7,464.84	92.3544	7,464.84	91.8891	7,464.84	89.7337	7,464.84	89.2255	7,464.84	86.83	7,464.84	86.2158	7,464.84	84.3291	7,464.84	83.8008	7,464.84	81.2588	7,464.84	80.1478	7,464.84	79.3235	7,464.84	78.8001	7,464.84	76.2857	7,464.84	76.6527	7,464.84	74.6478	7,464.84	76.2024	7,464.84	80.8987	7,464.84	79.5217	7,464.84	79.8698	7,464.84	78.9535	7,464.84	74.3525	7,464.84	78.2289	7,464.84	69.4679
7,727.05	99.4806	7,727.05	99.0633	7,727.05	99.3215	7,727.05	98.4561	7,727.05	98.7967	7,727.05	97.0228	7,727.05	97.5702	7,727.05	95.508	7,727.05	95.7685	7,727.05	94.8312	7,727.05	94.9018	7,727.05	93.5884	7,727.05	93.761	7,727.05	91.541	7,727.05	91.6882	7,727.05	89.432	7,727.05	89.2966	7,727.05	86.3652	7,727.05	87.1472	7,727.05	84.0335	7,727.05	83.8504	7,727.05	80.4668	7,727.05	81.4149	7,727.05	78.017	7,727.05	78.8304	7,727.05	75.8988	7,727.05	76.592	7,727.05	78.3419	7,727.05	73.8416	7,727.05	81.2195	7,727.05	77.476	7,727.05	79.1387	7,727.05	78.5625	7,727.05	72.1263	7,727.05	76.6094	7,727.05	68.8895
7,999.51	99.1324	7,999.51	98.6558	7,999.51	98.9819	7,999.51	98.1129	7,999.51	98.0447	7,999.51	97.2028	7,999.51	96.9372	7,999.51	95.877	7,999.51	95.7607	7,999.51	95.1536	7,999.51	94.5889	7,999.51	94.1233	7,999.51	93.4193	7,999.51	92.1214	7,999.51	92.187	7,999.51	89.6215	7,999.51	89.4413	7,999.51	86.2006	7,999.51	86.1596	7,999.51	83.9475	7,999.51	83.0999	7,999.51	81.192	7,999.51	79.1639	7,999.51	78.0182	7,999.51	77.3685	7,999.51	75.6083	7,999.51	74.6204	7,999.51	78.2279	7,999.51	73.8551	7,999.51	80.3848	7,999.51	77.8696	7,999.51	79.0832	7,999.51	77.429	7,999.51	71.0174	7,999.51	77.1249	7,999.51	70.9881
8,282.23	99.7444	8,282.23	98.7701	8,282.23	99.1762	8,282.23	98.1835	8,282.23	98.2576	8,282.23	97.5445	8,282.23	97.514	8,282.23	95.811	8,282.23	95.8128	8,282.23	95.2869	8,282.23	94.5496	8,282.23	93.6874	8,282.23	93.5218	8,282.23	91.825	8,282.23	91.5965	8,282.23	88.9907	8,282.23	89.3889	8,282.23	85.855	8,282.23	86.3695	8,282.23	82.4201	8,282.23	83.1079	8,282.23	80.6533	8,282.23	81.1356	8,282.23	77.9765	8,282.23	77.8836	8,282.23	75.4223	8,282.23	75.3423	8,282.23	77.9175	8,282.23	71.1431	8,282.23	78.9402	8,282.23	76.7931	8,282.23	78.3377	8,282.23	77.3124	8,282.23	68.47	8,282.23	75.1305	8,282.23	71.1218
8,573.73	100.122	8,573.73	99.169	8,573.73	99.3495	8,573.73	98.5881	8,573.73	98.2569	8,573.73	98.027	8,573.73	97.5577	8,573.73	96.1596	8,573.73	95.9572	8,573.73	95.0696	8,573.73	94.7001	8,573.73	93.7929	8,573.73	93.4985	8,573.73	91.824	8,573.73	91.8409	8,573.73	88.9252	8,573.73	89.0427	8,573.73	85.6217	8,573.73	85.9483	8,573.73	82.582	8,573.73	82.9593	8,573.73	80.401	8,573.73	80.5335	8,573.73	77.1035	8,573.73	77.1929	8,573.73	75.519	8,573.73	75.0553	8,573.73	78.9767	8,573.73	73.4615	8,573.73	78.435	8,573.73	75.3365	8,573.73	77.4818	8,573.73	76.6507	8,573.73	67.0733	8,573.73	73.8838	8,573.73	71.1461
8,876.95	100.177	8,876.95	99.0666	8,876.95	99.3983	8,876.95	98.4322	8,876.95	98.497	8,876.95	97.7115	8,876.95	97.9136	8,876.95	95.7756	8,876.95	96.1173	8,876.95	94.8357	8,876.95	94.5886	8,876.95	93.6266	8,876.95	93.2686	8,876.95	91.5627	8,876.95	91.4567	8,876.95	88.6391	8,876.95	88.585	8,876.95	85.4541	8,876.95	85.8608	8,876.95	82.2825	8,876.95	83.0118	8,876.95	80.4059	8,876.95	80.114	8,876.95	77.4576	8,876.95	77.5681	8,876.95	73.8927	8,876.95	74.8274	8,876.95	78.1012	8,876.95	73.2795	8,876.95	77.1866	8,876.95	75.0951	8,876.95	75.0152	8,876.95	75.8478	8,876.95	65.8634	8,876.95	72.8352	8,876.95	70.611
9,188.96	100.091	9,188.96	99.1001	9,188.96	99.4147	9,188.96	98.4588	9,188.96	98.3588	9,188.96	97.8376	9,188.96	97.3912	9,188.96	96.0447	9,188.96	95.6257	9,188.96	94.9247	9,188.96	94.3212	9,188.96	93.3618	9,188.96	92.81	9,188.96	91.4067	9,188.96	90.5446	9,188.96	88.8695	9,188.96	87.77	9,188.96	85.6195	9,188.96	85.0033	9,188.96	82.5035	9,188.96	82.0502	9,188.96	79.1189	9,188.96	78.4609	9,188.96	75.7392	9,188.96	75.4625	9,188.96	71.8118	9,188.96	74.7182	9,188.96	76.8819	9,188.96	72.544	9,188.96	77.1761	9,188.96	72.581	9,188.96	73.9866	9,188.96	75.6451	9,188.96	65.8439	9,188.96	70.1252	9,188.96	69.6175
9,514.16	100.329	9,514.16	99.5191	9,514.16	99.6958	9,514.16	98.6399	9,514.16	98.6666	9,514.16	97.8566	9,514.16	97.6049	9,514.16	96.1586	9,514.16	96.0443	9,514.16	94.7982	9,514.16	94.15	9,514.16	93.0079	9,514.16	92.1799	9,514.16	90.6063	9,514.16	90.36	9,514.16	87.7971	9,514.16	87.5576	9,514.16	84.5713	9,514.16	84.4319	9,514.16	81.4879	9,514.16	81.075	9,514.16	78.021	9,514.16	77.0148	9,514.16	73.1818	9,514.16	74.9159	9,514.16	69.4997	9,514.16	72.2074	9,514.16	75.901	9,514.16	72.1531	9,514.16	75.3878	9,514.16	72.9507	9,514.16	71.9694	9,514.16	75.5577	9,514.16	64.9195	9,514.16	65.3248	9,514.16	68.8547
9,849.61	100.409	9,849.61	99.8261	9,849.61	99.8263	9,849.61	98.8029	9,849.61	98.8599	9,849.61	97.9421	9,849.61	97.4419	9,849.61	96.1162	9,849.61	95.8925	9,849.61	94.4868	9,849.61	94.0332	9,849.61	92.4929	9,849.61	91.9471	9,849.61	90.1255	9,849.61	89.583	9,849.61	87.5017	9,849.61	86.5989	9,849.61	84.057	9,849.61	83.4991	9,849.61	80.9095	9,849.61	80.191	9,849.61	78.1428	9,849.61	76.7185	9,849.61	73.3269	9,849.61	73.4957	9,849.61	73.2793	9,849.61	71.1178	9,849.61	74.5285	9,849.61	70.1743	9,849.61	74.5605	9,849.61	72.4929	9,849.61	71.6647	9,849.61	74.0362	9,849.61	66.0289	9,849.61	66.5308	9,849.61	68.5107
10,196.8	100.681	10,196.8	100.296	10,196.8	100.263	10,196.8	99.1212	10,196.8	99.3879	10,196.8	98.1533	10,196.8	97.9243	10,196.8	96.4454	10,196.8	96.4177	10,196.8	94.4803	10,196.8	94.0507	10,196.8	92.4689	10,196.8	91.6832	10,196.8	89.87	10,196.8	89.3039	10,196.8	86.9372	10,196.8	86.6803	10,196.8	83.7708	10,196.8	83.0244	10,196.8	80.4138	10,196.8	79.8201	10,196.8	77.618	10,196.8	76.7012	10,196.8	74.0285	10,196.8	73.3434	10,196.8	72.1596	10,196.8	70.5469	10,196.8	75.203	10,196.8	68.8788	10,196.8	73.7113	10,196.8	71.8146	10,196.8	68.4806	10,196.8	73.8007	10,196.8	66.5356	10,196.8	64.5798	10,196.8	68.7324
10,555.7	100.722	10,555.7	100.481	10,555.7	100.469	10,555.7	99.2116	10,555.7	99.4291	10,555.7	98.3253	10,555.7	97.8281	10,555.7	96.3621	10,555.7	96.0709	10,555.7	94.105	10,555.7	93.4363	10,555.7	92.3168	10,555.7	91.3856	10,555.7	89.5428	10,555.7	89.1056	10,555.7	86.3872	10,555.7	85.9969	10,555.7	82.7289	10,555.7	82.4076	10,555.7	79.7246	10,555.7	78.8912	10,555.7	77.1571	10,555.7	75.5825	10,555.7	72.1643	10,555.7	72.918	10,555.7	71.7728	10,555.7	68.8898	10,555.7	73.6654	10,555.7	65.9013	10,555.7	73.1375	10,555.7	73.0141	10,555.7	66.5352	10,555.7	73.689	10,555.7	65.9892	10,555.7	66.6566	10,555.7	65.9427
10,927.7	100.765	10,927.7	100.549	10,927.7	100.593	10,927.7	99.2607	10,927.7	99.302	10,927.7	98.2866	10,927.7	97.5432	10,927.7	96.295	10,927.7	95.8422	10,927.7	94.023	10,927.7	93.2176	10,927.7	91.7955	10,927.7	90.9456	10,927.7	89.2691	10,927.7	88.0896	10,927.7	85.9866	10,927.7	84.1241	10,927.7	81.2785	10,927.7	81.1919	10,927.7	78.8622	10,927.7	78.7815	10,927.7	75.4092	10,927.7	74.5981	10,927.7	70.9285	10,927.7	73.3419	10,927.7	68.9461	10,927.7	62.7523	10,927.7	71.949	10,927.7	66.7243	10,927.7	73.5339	10,927.7	71.981	10,927.7	61.2395	10,927.7	72.0612	10,927.7	67.8039	10,927.7	64.77	10,927.7	67.3607
11,313	100.3	11,313	100.094	11,313	100.018	11,313	98.9121	11,313	98.8122	11,313	97.9046	11,313	97.4109	11,313	95.8801	11,313	95.3134	11,313	93.431	11,313	92.7296	11,313	90.8053	11,313	89.8698	11,313	88.3598	11,313	86.7551	11,313	85.2991	11,313	84.0329	11,313	80.0513	11,313	81.5738	11,313	78.3689	11,313	77.9349	11,313	74.3761	11,313	73.9115	11,313	71.8386	11,313	71.0001	11,313	68.5918	11,313	63.1547	11,313	69.8991	11,313	66.2921	11,313	71.6204	11,313	73.1459	11,313	64.9731	11,313	72.1142	11,313	63.33	11,313	65.5535	11,313	66.639
11,712.9	99.8998	11,712.9	99.6331	11,712.9	99.4257	11,712.9	98.4189	11,712.9	98.4587	11,712.9	96.8965	11,712.9	96.855	11,712.9	94.7968	11,712.9	94.2778	11,712.9	92.6392	11,712.9	92.087	11,712.9	89.5664	11,712.9	89.0922	11,712.9	86.0991	11,712.9	86.2098	11,712.9	82.727	11,712.9	84.4219	11,712.9	79.8976	11,712.9	80.9784	11,712.9	75.7619	11,712.9	76.7281	11,712.9	73.1946	11,712.9	73.7759	11,712.9	70.7784	11,712.9	70.7347	11,712.9	66.484	11,712.9	67.7689	11,712.9	66.461	11,712.9	49.7894	11,712.9	68.9029	11,712.9	73.8101	11,712.9	62.3461	11,712.9	73.6244	11,712.9	63.2976	11,712.9	66.3817	11,712.9	60.9602
12,126	99.7095	12,126	99.2352	12,126	99.3328	12,126	98.0716	12,126	98.3952	12,126	96.5718	12,126	96.6249	12,126	94.1443	12,126	94.1342	12,126	91.7112	12,126	92.0114	12,126	88.733	12,126	88.6198	12,126	84.4756	12,126	86.6132	12,126	81.3688	12,126	83.2971	12,126	78.19	12,126	79.3417	12,126	73.8864	12,126	75.5488	12,126	69.7012	12,126	73.1104	12,126	67.5304	12,126	70.0283	12,126	62.9711	12,126	65.8898	12,126	67.3764	12,126	63.811	12,126	69.7792	12,126	68.3416	12,126	54.1393	12,126	72.1195	12,126	56.6672	12,126	62.5777	12,126	64.9714
12,553.7	99.4358	12,553.7	98.9797	12,553.7	99.3849	12,553.7	97.8208	12,553.7	98.2631	12,553.7	96.4718	12,553.7	96.6233	12,553.7	94.0372	12,553.7	94.3452	12,553.7	90.6574	12,553.7	90.8845	12,553.7	87.5857	12,553.7	87.1102	12,553.7	83.6491	12,553.7	84.7959	12,553.7	79.9184	12,553.7	79.1742	12,553.7	75.1615	12,553.7	76.4716	12,553.7	72.5423	12,553.7	74.0626	12,553.7	68.9792	12,553.7	69.9777	12,553.7	67.5035	12,553.7	67.4322	12,553.7	57.9553	12,553.7	64.4495	12,553.7	64.4911	12,553.7	65.5775	12,553.7	64.2392	12,553.7	66.2886	12,553.7	59.6195	12,553.7	71.1348	12,553.7	43.3548	12,553.7	65.2186	12,553.7	64.3675
12,996.1	99.6608	12,996.1	99.0627	12,996.1	99.4656	12,996.1	97.8222	12,996.1	98.4103	12,996.1	96.098	12,996.1	96.1878	12,996.1	93.2043	12,996.1	93.5685	12,996.1	89.6422	12,996.1	89.2334	12,996.1	84.9879	12,996.1	84.9582	12,996.1	81.684	12,996.1	80.5813	12,996.1	77.2901	12,996.1	77.4814	12,996.1	73.2257	12,996.1	73.7289	12,996.1	70.0998	12,996.1	71.6504	12,996.1	68.2937	12,996.1	67.5491	12,996.1	64.5655	12,996.1	63.6972	12,996.1	66.8604	12,996.1	64.0604	12,996.1	61.3743	12,996.1	58.5686	12,996.1	63.1094	12,996.1	66.1959	12,996.1	57.0648	12,996.1	69.9553	12,996.1	54.1859	12,996.1	64.3493	12,996.1	64.1542
13,454.6	100.105	13,454.6	99.2952	13,454.6	99.6323	13,454.6	98.0097	13,454.6	98.5495	13,454.6	95.9481	13,454.6	96.0201	13,454.6	92.4479	13,454.6	92.771	13,454.6	88.1673	13,454.6	88.5596	13,454.6	82.7317	13,454.6	83.2496	13,454.6	77.2783	13,454.6	79.2283	13,454.6	73.9374	13,454.6	77.6512	13,454.6	71.2493	13,454.6	73.603	13,454.6	68.6449	13,454.6	71.2486	13,454.6	65.8475	13,454.6	67.2928	13,454.6	63.1402	13,454.6	65.1577	13,454.6	63.5101	13,454.6	62.7973	13,454.6	61.3222	13,454.6	56.835	13,454.6	65.7753	13,454.6	64.344	13,454.6	51.9791	13,454.6	68.9633	13,454.6	58.7201	13,454.6	65.6447	13,454.6	64.5903
13,929.2	100.305	13,929.2	99.6256	13,929.2	99.8345	13,929.2	98.1372	13,929.2	98.6553	13,929.2	95.5961	13,929.2	96.0403	13,929.2	91.3282	13,929.2	92.1497	13,929.2	86.0506	13,929.2	87.3716	13,929.2	81.8773	13,929.2	82.1267	13,929.2	77.7091	13,929.2	80.2015	13,929.2	74.2211	13,929.2	78.7326	13,929.2	71.037	13,929.2	75.6949	13,929.2	67.5861	13,929.2	73.3783	13,929.2	66.8392	13,929.2	68.4815	13,929.2	66.5019	13,929.2	67.3281	13,929.2	58.2045	13,929.2	64.3947	13,929.2	57.905	13,929.2	62.3704	13,929.2	64.2772	13,929.2	63.7094	13,929.2	58.2247	13,929.2	70.2076	13,929.2	63.9215	13,929.2	69.1825	13,929.2	67.6341
14,419.9	100.334	14,419.9	99.8806	14,419.9	100.052	14,419.9	98.0927	14,419.9	98.6912	14,419.9	95.0564	14,419.9	95.995	14,419.9	90.6006	14,419.9	91.609	14,419.9	85.5182	14,419.9	85.9854	14,419.9	80.4899	14,419.9	81.433	14,419.9	78.4734	14,419.9	80.9552	14,419.9	75.4307	14,419.9	80.563	14,419.9	73.2623	14,419.9	77.689	14,419.9	69.0931	14,419.9	74.453	14,419.9	67.2348	14,419.9	70.3029	14,419.9	66.4176	14,419.9	68.0132	14,419.9	54.7135	14,419.9	66.3513	14,419.9	52.2384	14,419.9	61.7594	14,419.9	61.8777	14,419.9	62.501	14,419.9	60.3461	14,419.9	70.3195	14,419.9	65.9924	14,419.9	68.712	14,419.9	67.396
14,928.2	100.215	14,928.2	99.7363	14,928.2	99.9511	14,928.2	97.8046	14,928.2	98.5796	14,928.2	94.5187	14,928.2	95.6319	14,928.2	89.9825	14,928.2	90.7807	14,928.2	85.4509	14,928.2	85.6851	14,928.2	79.6772	14,928.2	82.328	14,928.2	77.3895	14,928.2	81.7913	14,928.2	75.3415	14,928.2	81.2948	14,928.2	73.7936	14,928.2	77.7766	14,928.2	68.7454	14,928.2	74.804	14,928.2	67.7582	14,928.2	70.1049	14,928.2	64.6259	14,928.2	67.907	14,928.2	60.6451	14,928.2	65.2086	14,928.2	52.8474	14,928.2	62.0256	14,928.2	60.2471	14,928.2	63.6871	14,928.2	56.9536	14,928.2	68.8085	14,928.2	65.6328	14,928.2	68.332	14,928.2	66.503
15,455.6	100.121	15,455.6	99.5478	15,455.6	99.6704	15,455.6	97.5967	15,455.6	98.4563	15,455.6	94.2197	15,455.6	95.2109	15,455.6	89.2512	15,455.6	90.4208	15,455.6	84.3608	15,455.6	85.8317	15,455.6	78.4567	15,455.6	82.2768	15,455.6	76.5601	15,455.6	81.6649	15,455.6	75.656	15,455.6	80.2269	15,455.6	73.1173	15,455.6	77.3664	15,455.6	69.4409	15,455.6	74.2142	15,455.6	66.8815	15,455.6	69.1553	15,455.6	64.8417	15,455.6	67.6756	15,455.6	60.4163	15,455.6	64.3725	15,455.6	57.284	15,455.6	65.3718	15,455.6	60.441	15,455.6	58.8019	15,455.6	56.0332	15,455.6	68.2814	15,455.6	64.3802	15,455.6	68.4151	15,455.6	62.9203
16,000.5	99.9547	16,000.5	99.2867	16,000.5	99.3945	16,000.5	97.2731	16,000.5	97.989	16,000.5	93.8208	16,000.5	94.7757	16,000.5	88.7195	16,000.5	90.0902	16,000.5	82.4757	16,000.5	84.3511	16,000.5	74.7683	16,000.5	81.4922	16,000.5	76.6653	16,000.5	80.7522	16,000.5	76.6449	16,000.5	80.6043	16,000.5	73.9433	16,000.5	77.7738	16,000.5	69.4651	16,000.5	74.325	16,000.5	66.7737	16,000.5	69.686	16,000.5	62.9403	16,000.5	67.3734	16,000.5	58.48	16,000.5	62.9368	16,000.5	56.4705	16,000.5	64.544	16,000.5	60.5959	16,000.5	60.7117	16,000.5	49.0998	16,000.5	66.7109	16,000.5	64.8984	16,000.5	67.9294	16,000.5	61.4321
16,564.5	99.515	16,564.5	98.8201	16,564.5	98.9691	16,564.5	96.7694	16,564.5	97.3463	16,564.5	93.1024	16,564.5	93.857	16,564.5	87.3496	16,564.5	88.8913	16,564.5	79.7435	16,564.5	84.0603	16,564.5	73.9917	16,564.5	81.4987	16,564.5	78.777	16,564.5	81.4096	16,564.5	77.3936	16,564.5	81.6728	16,564.5	74.4035	16,564.5	78.8262	16,564.5	70.101	16,564.5	74.7613	16,564.5	67.3	16,564.5	70.9461	16,564.5	64.3825	16,564.5	68.1942	16,564.5	60.9003	16,564.5	61.2049	16,564.5	58.0866	16,564.5	63.177	16,564.5	60.5777	16,564.5	59.2107	16,564.5	49.1788	16,564.5	64.9574	16,564.5	63.8121	16,564.5	66.9028	16,564.5	56.867
17,148.9	99.1486	17,148.9	98.2811	17,148.9	98.6435	17,148.9	96.1166	17,148.9	96.9405	17,148.9	92.3178	17,148.9	93.2541	17,148.9	85.9732	17,148.9	88.3322	17,148.9	76.8043	17,148.9	83.7451	17,148.9	76.9084	17,148.9	81.9293	17,148.9	79.7512	17,148.9	82.9972	17,148.9	77.7592	17,148.9	82.2188	17,148.9	74.2233	17,148.9	79.0627	17,148.9	69.5348	17,148.9	74.7351	17,148.9	66.6738	17,148.9	70.8011	17,148.9	62.6012	17,148.9	68.1653	17,148.9	58.177	17,148.9	62.5334	17,148.9	55.856	17,148.9	63.1022	17,148.9	59.6021	17,148.9	58.7357	17,148.9	51.3446	17,148.9	63.8389	17,148.9	60.7701	17,148.9	66.7929	17,148.9	48.4544
17,752.4	99.0216	17,752.4	98.0115	17,752.4	98.3785	17,752.4	95.677	17,752.4	96.4317	17,752.4	91.6342	17,752.4	92.7626	17,752.4	84.634	17,752.4	87.7948	17,752.4	74.9245	17,752.4	82.8506	17,752.4	78.1052	17,752.4	82.9355	17,752.4	79.4862	17,752.4	83.4318	17,752.4	77.3997	17,752.4	81.9716	17,752.4	73.8667	17,752.4	78.9619	17,752.4	69.3666	17,752.4	74.2962	17,752.4	66.331	17,752.4	70.8712	17,752.4	62.3601	17,752.4	67.2458	17,752.4	54.6934	17,752.4	61.6125	17,752.4	50.5108	17,752.4	62.3382	17,752.4	57.7997	17,752.4	60.4965	17,752.4	54.5499	17,752.4	60.5921	17,752.4	58.381	17,752.4	65.1496	17,752.4	39.0467
18,379.4	98.9759	18,379.4	97.7599	18,379.4	98.3597	18,379.4	95.2389	18,379.4	96.2002	18,379.4	90.8038	18,379.4	92.4276	18,379.4	82.9198	18,379.4	87.035	18,379.4	75.2344	18,379.4	82.3388	18,379.4	78.7092	18,379.4	83.2387	18,379.4	79.5491	18,379.4	83.0127	18,379.4	77.4584	18,379.4	81.2555	18,379.4	73.4749	18,379.4	78.2528	18,379.4	69.4673	18,379.4	73.5773	18,379.4	65.9709	18,379.4	70.4234	18,379.4	61.1028	18,379.4	66.5359	18,379.4	55.0321	18,379.4	60.3839	18,379.4	47.3598	18,379.4	60.0115	18,379.4	55.2737	18,379.4	59.5717	18,379.4	55.3181	18,379.4	56.5477	18,379.4	55.6349	18,379.4	62.461	18,379.4	42.997
19,026.9	99.1016	19,026.9	97.8149	19,026.9	98.4271	19,026.9	95.0029	19,026.9	96.1851	19,026.9	90.1783	19,026.9	92.1604	19,026.9	80.9101	19,026.9	86.1933	19,026.9	76.0788	19,026.9	82.2426	19,026.9	79.5314	19,026.9	83.0552	19,026.9	79.8252	19,026.9	82.7267	19,026.9	77.4695	19,026.9	80.5846	19,026.9	73.2585	19,026.9	77.5605	19,026.9	69.5049	19,026.9	72.9006	19,026.9	65.5588	19,026.9	69.7606	19,026.9	59.6908	19,026.9	65.3497	19,026.9	56.3665	19,026.9	59.8005	19,026.9	48.6701	19,026.9	58.4743	19,026.9	53.4597	19,026.9	60.6229	19,026.9	55.5959	19,026.9	50.9373	19,026.9	54.9073	19,026.9	58.3849	19,026.9	43.8039
19,697.8	99.1151	19,697.8	97.6516	19,697.8	98.4463	19,697.8	94.6137	19,697.8	96.1098	19,697.8	89.2235	19,697.8	91.773	19,697.8	78.5014	19,697.8	85.3106	19,697.8	76.4609	19,697.8	81.7722	19,697.8	79.7741	19,697.8	82.6001	19,697.8	79.4115	19,697.8	82.082	19,697.8	77.0296	19,697.8	79.969	19,697.8	72.6839	19,697.8	77.0622	19,697.8	68.9805	19,697.8	72.5172	19,697.8	65.1306	19,697.8	69.1669	19,697.8	58.4748	19,697.8	64.5746	19,697.8	53.0927	19,697.8	59.9984	19,697.8	47.036	19,697.8	56.9006	19,697.8	52.2386	19,697.8	60.1763	19,697.8	56.1298	19,697.8	37.7718	19,697.8	55.9883	19,697.8	51.2747	19,697.8	46.6057
19,999.5	99.0774	19,999.5	97.5999	19,999.5	98.3408	19,999.5	94.3806	19,999.5	95.9223	19,999.5	88.7394	19,999.5	91.5865	19,999.5	77.918	19,999.5	85.1423	19,999.5	76.4663	19,999.5	81.6814	19,999.5	79.511	19,999.5	82.6247	19,999.5	78.2821	19,999.5	81.7893	19,999.5	75.9239	19,999.5	79.8288	19,999.5	70.3165	19,999.5	75.5288	19,999.5	68.0065	19,999.5	71.1323	19,999.5	60.8277	19,999.5	70.4959	19,999.5	62.3549	19,999.5	64.4459	19,999.5	54.5549	19,999.5	67.0729	19,999.5	65.115	19,999.5	65.098	19,999.5	64.3471	19,999.5	66.0148	19,999.5	66.6606	19,999.5	60.087	19,999.5	58.9212	19,999.5	50.0841	19,999.5	50.0341
