"SPL Vertical"
"On-Axis"		"10°"		"-10°"		"20°"		"-20°"		"30°"		"-30°"		"40°"		"-40°"		"50°"		"-50°"		"60°"		"-60°"		"70°"		"-70°"		"80°"		"-80°"		"90°"		"-90°"		"100°"		"-100°"		"110°"		"-110°"		"120°"		"-120°"		"130°"		"-130°"		"140°"		"-140°"		"150°"		"-150°"		"160°"		"-160°"		"170°"		"-170°"		"180°"
"Frequency [Hz]"	"Sound Pessure Level [dB]  / [2.83V 1m] "	"Frequency [Hz]"	"Sound Pessure Level [dB]  / [2.83V 1m] "	"Frequency [Hz]"	"Sound Pessure Level [dB]  / [2.83V 1m] "	"Frequency [Hz]"	"Sound Pessure Level [dB]  / [2.83V 1m] "	"Frequency [Hz]"	"Sound Pessure Level [dB]  / [2.83V 1m] "	"Frequency [Hz]"	"Sound Pessure Level [dB]  / [2.83V 1m] "	"Frequency [Hz]"	"Sound Pessure Level [dB]  / [2.83V 1m] "	"Frequency [Hz]"	"Sound Pessure Level [dB]  / [2.83V 1m] "	"Frequency [Hz]"	"Sound Pessure Level [dB]  / [2.83V 1m] "	"Frequency [Hz]"	"Sound Pessure Level [dB]  / [2.83V 1m] "	"Frequency [Hz]"	"Sound Pessure Level [dB]  / [2.83V 1m] "	"Frequency [Hz]"	"Sound Pessure Level [dB]  / [2.83V 1m] "	"Frequency [Hz]"	"Sound Pessure Level [dB]  / [2.83V 1m] "	"Frequency [Hz]"	"Sound Pessure Level [dB]  / [2.83V 1m] "	"Frequency [Hz]"	"Sound Pessure Level [dB]  / [2.83V 1m] "	"Frequency [Hz]"	"Sound Pessure Level [dB]  / [2.83V 1m] "	"Frequency [Hz]"	"Sound Pessure Level [dB]  / [2.83V 1m] "	"Frequency [Hz]"	"Sound Pessure Level [dB]  / [2.83V 1m] "	"Frequency [Hz]"	"Sound Pessure Level [dB]  / [2.83V 1m] "	"Frequency [Hz]"	"Sound Pessure Level [dB]  / [2.83V 1m] "	"Frequency [Hz]"	"Sound Pessure Level [dB]  / [2.83V 1m] "	"Frequency [Hz]"	"Sound Pessure Level [dB]  / [2.83V 1m] "	"Frequency [Hz]"	"Sound Pessure Level [dB]  / [2.83V 1m] "	"Frequency [Hz]"	"Sound Pessure Level [dB]  / [2.83V 1m] "	"Frequency [Hz]"	"Sound Pessure Level [dB]  / [2.83V 1m] "	"Frequency [Hz]"	"Sound Pessure Level [dB]  / [2.83V 1m] "	"Frequency [Hz]"	"Sound Pessure Level [dB]  / [2.83V 1m] "	"Frequency [Hz]"	"Sound Pessure Level [dB]  / [2.83V 1m] "	"Frequency [Hz]"	"Sound Pessure Level [dB]  / [2.83V 1m] "	"Frequency [Hz]"	"Sound Pessure Level [dB]  / [2.83V 1m] "	"Frequency [Hz]"	"Sound Pessure Level [dB]  / [2.83V 1m] "	"Frequency [Hz]"	"Sound Pessure Level [dB]  / [2.83V 1m] "	"Frequency [Hz]"	"Sound Pessure Level [dB]  / [2.83V 1m] "	"Frequency [Hz]"	"Sound Pessure Level [dB]  / [2.83V 1m] "	"Frequency [Hz]"	"Sound Pessure Level [dB]  / [2.83V 1m] "	"Frequency [Hz]"	"Sound Pessure Level [dB]  / [2.83V 1m] "
20.5078	57.9395	20.5078	57.8229	20.5078	58.0713	20.5078	57.7211	20.5078	58.218	20.5078	57.6343	20.5078	58.3787	20.5078	57.5631	20.5078	58.5507	20.5078	57.5086	20.5078	58.7289	20.5078	57.4725	20.5078	58.9057	20.5078	57.4565	20.5078	59.0717	20.5078	57.4626	20.5078	59.2165	20.5078	57.4921	20.5078	59.3311	20.5078	57.5461	20.5078	59.4081	20.5078	57.6248	20.5078	59.4435	20.5078	57.7277	20.5078	59.4359	20.5078	57.8533	20.5078	59.387	20.5078	57.9992	20.5078	59.3005	20.5078	58.1617	20.5078	59.1819	20.5078	58.336	20.5078	59.0374	20.5078	58.5169	20.5078	58.874	20.5078	58.6983
21.9727	53.306	21.9727	53.0605	21.9727	53.5401	21.9727	52.8022	21.9727	53.7642	21.9727	52.5314	21.9727	53.9791	21.9727	52.2501	21.9727	54.184	21.9727	51.9632	21.9727	54.376	21.9727	51.6782	21.9727	54.5502	21.9727	51.4049	21.9727	54.7	21.9727	51.1558	21.9727	54.8174	21.9727	50.9448	21.9727	54.8932	21.9727	50.7871	21.9727	54.9174	21.9727	50.6979	21.9727	54.8795	21.9727	50.6914	21.9727	54.7691	21.9727	50.7787	21.9727	54.5786	21.9727	50.9659	21.9727	54.3043	21.9727	51.2519	21.9727	53.9493	21.9727	51.6266	21.9727	53.5249	21.9727	52.0704	21.9727	53.0513	21.9727	52.5559
23.4375	46.2119	23.4375	46.4388	23.4375	45.9063	23.4375	46.587	23.4375	45.5279	23.4375	46.66	23.4375	45.092	23.4375	46.6632	23.4375	44.629	23.4375	46.6027	23.4375	44.1882	23.4375	46.4844	23.4375	43.8367	23.4375	46.3136	23.4375	43.6432	23.4375	46.0951	23.4375	43.6483	23.4375	45.8342	23.4375	43.8404	23.4375	45.5388	23.4375	44.159	23.4375	45.2224	23.4375	44.5223	23.4375	44.907	23.4375	44.8553	23.4375	44.6251	23.4375	45.1039	23.4375	44.4168	23.4375	45.2377	23.4375	44.3193	23.4375	45.2474	23.4375	44.3508	23.4375	45.1428	23.4375	44.4979	23.4375	44.9515	23.4375	44.7176
24.9023	55.5517	24.9023	55.3566	24.9023	55.7654	24.9023	55.1835	24.9023	55.9927	24.9023	55.0352	24.9023	56.2274	24.9023	54.9139	24.9023	56.4618	24.9023	54.8225	24.9023	56.688	24.9023	54.7643	24.9023	56.898	24.9023	54.7431	24.9023	57.0842	24.9023	54.7625	24.9023	57.2403	24.9023	54.8254	24.9023	57.3619	24.9023	54.9334	24.9023	57.4471	24.9023	55.0859	24.9023	57.4958	24.9023	55.28	24.9023	57.5093	24.9023	55.51	24.9023	57.4886	24.9023	55.7672	24.9023	57.4331	24.9023	56.0405	24.9023	57.3407	24.9023	56.3168	24.9023	57.2089	24.9023	56.5828	24.9023	57.0367	24.9023	56.826
26.3672	40.4984	26.3672	39.9962	26.3672	41.0153	26.3672	39.5081	26.3672	41.5396	26.3672	39.0287	26.3672	42.0538	26.3672	38.5493	26.3672	42.5291	26.3672	38.0592	26.3672	42.9272	26.3672	37.5456	26.3672	43.2038	26.3672	36.9936	26.3672	43.3128	26.3672	36.3862	26.3672	43.2088	26.3672	35.7044	26.3672	42.8483	26.3672	34.9275	26.3672	42.1891	26.3672	34.0347	26.3672	41.1878	26.3672	33.0071	26.3672	39.7974	26.3672	31.8314	26.3672	37.9642	26.3672	30.5034	26.3672	35.6277	26.3672	29.0244	26.3672	32.7359	26.3672	27.3992	26.3672	29.3459	26.3672	25.7275	26.3672	26.0844	26.3672	24.74
27.832	51.9525	27.832	51.9521	27.832	51.9694	27.832	51.9664	27.832	52.0037	27.832	51.9934	27.832	52.0556	27.832	52.0313	27.832	52.1246	27.832	52.0782	27.832	52.2094	27.832	52.1331	27.832	52.3079	27.832	52.1948	27.832	52.4169	27.832	52.2629	27.832	52.5315	27.832	52.3367	27.832	52.6463	27.832	52.4155	27.832	52.7552	27.832	52.4985	27.832	52.8528	27.832	52.5845	27.832	52.9352	27.832	52.6719	27.832	52.9998	27.832	52.7584	27.832	53.0451	27.832	52.8409	27.832	53.0707	27.832	52.916	27.832	53.0763	27.832	52.9801	27.832	53.0624	27.832	53.0298
29.2969	46.181	29.2969	45.8914	29.2969	46.5036	29.2969	45.6455	29.2969	46.8456	29.2969	45.4503	29.2969	47.1911	29.2969	45.3086	29.2969	47.5214	29.2969	45.2187	29.2969	47.8153	29.2969	45.174	29.2969	48.0506	29.2969	45.1648	29.2969	48.2053	29.2969	45.1786	29.2969	48.2602	29.2969	45.2022	29.2969	48.2014	29.2969	45.2225	29.2969	48.0231	29.2969	45.228	29.2969	47.729	29.2969	45.2103	29.2969	47.3349	29.2969	45.1655	29.2969	46.869	29.2969	45.097	29.2969	46.3718	29.2969	45.0177	29.2969	45.8928	29.2969	44.9518	29.2969	45.4819	29.2969	44.9329	29.2969	45.1783	29.2969	44.9985
30.7617	57.0694	30.7617	56.7647	30.7617	57.3905	30.7617	56.4835	30.7617	57.719	30.7617	56.231	30.7617	58.0442	30.7617	56.0108	30.7617	58.3538	30.7617	55.8258	30.7617	58.6349	30.7617	55.6781	30.7617	58.8749	30.7617	55.57	30.7617	59.0624	30.7617	55.5038	30.7617	59.1885	30.7617	55.4821	30.7617	59.2476	30.7617	55.5074	30.7617	59.2379	30.7617	55.5822	30.7617	59.1615	30.7617	55.7077	30.7617	59.0235	30.7617	55.8839	30.7617	58.8308	30.7617	56.1081	30.7617	58.5915	30.7617	56.375	30.7617	58.314	30.7617	56.6764	30.7617	58.0066	30.7617	57.002	30.7617	57.6786	30.7617	57.34
32.2266	60.9196	32.2266	60.6104	32.2266	61.235	32.2266	60.3167	32.2266	61.5464	32.2266	60.0458	32.2266	61.8429	32.2266	59.8037	32.2266	62.1134	32.2266	59.595	32.2266	62.3476	32.2266	59.423	32.2266	62.5361	32.2266	59.2908	32.2266	62.6717	32.2266	59.2011	32.2266	62.7488	32.2266	59.1563	32.2266	62.7649	32.2266	59.159	32.2266	62.7201	32.2266	59.211	32.2266	62.617	32.2266	59.3133	32.2266	62.4607	32.2266	59.4655	32.2266	62.2575	32.2266	59.6651	32.2266	62.0145	32.2266	59.907	32.2266	61.7393	32.2266	60.1838	32.2266	61.4399	32.2266	60.4861	32.2266	61.1247	32.2266	60.8034
33.6914	64.1743	33.6914	63.9297	33.6914	64.4373	33.6914	63.7105	33.6914	64.7096	33.6914	63.5214	33.6914	64.9805	33.6914	63.3651	33.6914	65.2379	33.6914	63.2431	33.6914	65.4699	33.6914	63.1553	33.6914	65.6653	33.6914	63.1015	33.6914	65.8149	33.6914	63.0809	33.6914	65.9121	33.6914	63.093	33.6914	65.9534	33.6914	63.1372	33.6914	65.939	33.6914	63.213	33.6914	65.8721	33.6914	63.3201	33.6914	65.7583	33.6914	63.4574	33.6914	65.6046	33.6914	63.6234	33.6914	65.4188	33.6914	63.8152	33.6914	65.2082	33.6914	64.0287	33.6914	64.98	33.6914	64.2585	33.6914	64.7411	33.6914	64.4983
35.1562	67.8636	35.1562	67.5996	35.1562	68.1396	35.1562	67.3557	35.1562	68.4178	35.1562	67.1379	35.1562	68.6871	35.1562	66.9503	35.1562	68.9359	35.1562	66.7952	35.1562	69.1533	35.1562	66.674	35.1562	69.3293	35.1562	66.5872	35.1562	69.4562	35.1562	66.5348	35.1562	69.5288	35.1562	66.5168	35.1562	69.5448	35.1562	66.5331	35.1562	69.5046	35.1562	66.5839	35.1562	69.4113	35.1562	66.6692	35.1562	69.2701	35.1562	66.7888	35.1562	69.0876	35.1562	66.9421	35.1562	68.8713	35.1562	67.1274	35.1562	68.6293	35.1562	67.3418	35.1562	68.3702	35.1562	67.5804	35.1562	68.103	35.1562	67.8368
36.6211	70.5196	36.6211	70.2681	36.6211	70.7764	36.6211	70.0295	36.6211	71.0296	36.6211	69.8096	36.6211	71.2691	36.6211	69.6126	36.6211	71.4844	36.6211	69.4415	36.6211	71.6647	36.6211	69.2982	36.6211	71.8007	36.6211	69.1838	36.6211	71.8845	36.6211	69.0989	36.6211	71.9109	36.6211	69.0442	36.6211	71.8782	36.6211	69.0201	36.6211	71.788	36.6211	69.0272	36.6211	71.6453	36.6211	69.066	36.6211	71.4581	36.6211	69.1373	36.6211	71.2361	36.6211	69.2413	36.6211	70.9901	36.6211	69.3781	36.6211	70.7306	36.6211	69.5464	36.6211	70.4678	36.6211	69.744	36.6211	70.2107	36.6211	69.9672
38.0859	73.7763	38.0859	73.5487	38.0859	74.011	38.0859	73.3351	38.0859	74.2449	38.0859	73.1402	38.0859	74.4684	38.0859	72.9675	38.0859	74.6715	38.0859	72.8192	38.0859	74.8442	38.0859	72.6964	38.0859	74.9772	38.0859	72.5995	38.0859	75.0627	38.0859	72.5288	38.0859	75.0955	38.0859	72.4841	38.0859	75.0733	38.0859	72.4656	38.0859	74.9968	38.0859	72.4734	38.0859	74.87	38.0859	72.5081	38.0859	74.6997	38.0859	72.5704	38.0859	74.4947	38.0859	72.661	38.0859	74.2651	38.0859	72.7807	38.0859	74.0218	38.0859	72.9297	38.0859	73.7752	38.0859	73.1071	38.0859	73.5353	38.0859	73.3104
39.5508	76.3093	39.5508	76.0614	39.5508	76.5617	39.5508	75.825	39.5508	76.8099	39.5508	75.606	39.5508	77.0444	39.5508	75.4087	39.5508	77.2548	39.5508	75.236	39.5508	77.4312	39.5508	75.09	39.5508	77.5642	39.5508	74.9721	39.5508	77.6464	39.5508	74.8831	39.5508	77.6726	39.5508	74.8238	39.5508	77.6406	39.5508	74.7947	39.5508	77.5516	39.5508	74.7964	39.5508	77.4098	39.5508	74.8296	39.5508	77.2223	39.5508	74.8949	39.5508	76.9984	39.5508	74.9931	39.5508	76.7485	39.5508	75.1244	39.5508	76.4838	39.5508	75.2885	39.5508	76.2154	39.5508	75.4839	39.5508	75.9535	39.5508	75.7073
41.0156	79.6616	41.0156	79.4631	41.0156	79.864	41.0156	79.2735	41.0156	80.0641	41.0156	79.0962	41.0156	80.2543	41.0156	78.9338	41.0156	80.4264	41.0156	78.7879	41.0156	80.5717	41.0156	78.6593	41.0156	80.6818	41.0156	78.5489	41.0156	80.7493	41.0156	78.4573	41.0156	80.7688	41.0156	78.3855	41.0156	80.7371	41.0156	78.3345	41.0156	80.6538	41.0156	78.3062	41.0156	80.5218	41.0156	78.3027	41.0156	80.3465	41.0156	78.3267	41.0156	80.1362	41.0156	78.3811	41.0156	79.9008	41.0156	78.4688	41.0156	79.652	41.0156	78.5917	41.0156	79.4017	41.0156	78.75	41.0156	79.1615	41.0156	78.9416
42.4805	81.4011	42.4805	81.2205	42.4805	81.5874	42.4805	81.0508	42.4805	81.7734	42.4805	80.8957	42.4805	81.9517	42.4805	80.7578	42.4805	82.1145	42.4805	80.639	42.4805	82.2535	42.4805	80.5403	42.4805	82.3611	42.4805	80.4623	42.4805	82.4309	42.4805	80.4054	42.4805	82.4583	42.4805	80.3699	42.4805	82.4414	42.4805	80.3558	42.4805	82.381	42.4805	80.3636	42.4805	82.2807	42.4805	80.3937	42.4805	82.1463	42.4805	80.4465	42.4805	81.9848	42.4805	80.5225	42.4805	81.8043	42.4805	80.6217	42.4805	81.6132	42.4805	80.7439	42.4805	81.4192	42.4805	80.8877	42.4805	81.2297	42.4805	81.0508
43.9453	83.4187	43.9453	83.2433	43.9453	83.5976	43.9453	83.0765	43.9453	83.7741	43.9453	82.9219	43.9453	83.9414	43.9453	82.7826	43.9453	84.0919	43.9453	82.6606	43.9453	84.2179	43.9453	82.5572	43.9453	84.3124	43.9453	82.4733	43.9453	84.3693	43.9453	82.4094	43.9453	84.3843	43.9453	82.3661	43.9453	84.356	43.9453	82.3435	43.9453	84.2855	43.9453	82.3422	43.9453	84.1766	43.9453	82.3625	43.9453	84.0353	43.9453	82.4049	43.9453	83.8694	43.9453	82.4699	43.9453	83.6872	43.9453	82.5579	43.9453	83.4972	43.9453	82.6686	43.9453	83.3072	43.9453	82.8013	43.9453	83.1243	43.9453	82.9542
45.4102	85.4195	45.4102	85.2399	45.4102	85.6014	45.4102	85.0675	45.4102	85.7797	45.4102	84.9063	45.4102	85.9475	45.4102	84.7593	45.4102	86.0974	45.4102	84.6289	45.4102	86.2218	45.4102	84.5166	45.4102	86.3136	45.4102	84.4238	45.4102	86.3668	45.4102	84.3512	45.4102	86.3774	45.4102	84.2996	45.4102	86.3436	45.4102	84.2697	45.4102	86.2668	45.4102	84.262	45.4102	86.1508	45.4102	84.2771	45.4102	86.0017	45.4102	84.3159	45.4102	85.8274	45.4102	84.3788	45.4102	85.6364	45.4102	84.4664	45.4102	85.4375	45.4102	84.5785	45.4102	85.2391	45.4102	84.7143	45.4102	85.0486	45.4102	84.8721
46.875	87.295	46.875	87.1208	46.875	87.4706	46.875	86.9531	46.875	87.6419	46.875	86.7958	46.875	87.8025	46.875	86.652	46.875	87.9451	46.875	86.5241	46.875	88.0626	46.875	86.414	46.875	88.1483	46.875	86.3229	46.875	88.1965	46.875	86.2518	46.875	88.2035	46.875	86.2015	46.875	88.1679	46.875	86.1724	46.875	88.0911	46.875	86.1651	46.875	87.9771	46.875	86.1799	46.875	87.8318	46.875	86.2174	46.875	87.6629	46.875	86.2779	46.875	87.4788	46.875	86.3617	46.875	87.2878	46.875	86.4686	46.875	87.0979	46.875	86.5979	46.875	86.9161	46.875	86.7481
48.3398	89.0185	48.3398	88.8486	48.3398	89.1894	48.3398	88.6844	48.3398	89.3557	48.3398	88.5301	48.3398	89.5108	48.3398	88.3887	48.3398	89.648	48.3398	88.2627	48.3398	89.7602	48.3398	88.1541	48.3398	89.8412	48.3398	88.0641	48.3398	89.8855	48.3398	87.9938	48.3398	89.8899	48.3398	87.9441	48.3398	89.8531	48.3398	87.9153	48.3398	89.7768	48.3398	87.9081	48.3398	89.6649	48.3398	87.9227	48.3398	89.5233	48.3398	87.9595	48.3398	89.3595	48.3398	88.0188	48.3398	89.1814	48.3398	88.1007	48.3398	88.997	48.3398	88.2048	48.3398	88.8138	48.3398	88.3304	48.3398	88.6383	48.3398	88.4758
51.2695	91.8951	51.2695	91.7327	51.2695	92.0572	51.2695	91.5746	51.2695	92.2134	51.2695	91.425	51.2695	92.3577	51.2695	91.2871	51.2695	92.4837	51.2695	91.1637	51.2695	92.585	51.2695	91.0566	51.2695	92.6559	51.2695	90.9677	51.2695	92.6918	51.2695	90.8979	51.2695	92.6898	51.2695	90.8481	51.2695	92.6494	51.2695	90.8189	51.2695	92.5724	51.2695	90.8106	51.2695	92.4628	51.2695	90.8234	51.2695	92.3264	51.2695	90.8575	51.2695	92.1702	51.2695	90.9128	51.2695	92.0016	51.2695	90.9894	51.2695	91.828	51.2695	91.0868	51.2695	91.6561	51.2695	91.2042	51.2695	91.4919	51.2695	91.34
52.7344	93.0515	52.7344	92.8948	52.7344	93.2073	52.7344	92.7418	52.7344	93.357	52.7344	92.5965	52.7344	93.4947	52.7344	92.4622	52.7344	93.6143	52.7344	92.3416	52.7344	93.7098	52.7344	92.2369	52.7344	93.7758	52.7344	92.1497	52.7344	93.8079	52.7344	92.0813	52.7344	93.8036	52.7344	92.0325	52.7344	93.7624	52.7344	92.0039	52.7344	93.6864	52.7344	91.9957	52.7344	93.5796	52.7344	92.0082	52.7344	93.4476	52.7344	92.0413	52.7344	93.2973	52.7344	92.0948	52.7344	93.1357	52.7344	92.1687	52.7344	92.9698	52.7344	92.2622	52.7344	92.8058	52.7344	92.3746	52.7344	92.6492	52.7344	92.5044
54.1992	94.0411	54.1992	93.888	54.1992	94.1927	54.1992	93.7382	54.1992	94.3377	54.1992	93.5955	54.1992	94.4703	54.1992	93.4635	54.1992	94.5846	54.1992	93.3448	54.1992	94.6748	54.1992	93.2416	54.1992	94.7357	54.1992	93.1558	54.1992	94.7634	54.1992	93.0885	54.1992	94.7556	54.1992	93.0406	54.1992	94.7123	54.1992	93.0126	54.1992	94.6357	54.1992	93.0048	54.1992	94.5298	54.1992	93.0171	54.1992	94.4006	54.1992	93.0494	54.1992	94.2545	54.1992	93.1014	54.1992	94.0985	54.1992	93.1727	54.1992	93.9391	54.1992	93.2627	54.1992	93.7822	54.1992	93.3703	54.1992	93.6326	54.1992	93.4943
55.6641	94.88	55.6641	94.7276	55.6641	95.0299	55.6641	94.5774	55.6641	95.172	55.6641	94.4336	55.6641	95.3006	55.6641	94.2997	55.6641	95.41	55.6641	94.1786	55.6641	95.4944	55.6641	94.0727	55.6641	95.549	55.6641	93.9838	55.6641	95.5701	55.6641	93.9134	55.6641	95.5559	55.6641	93.8625	55.6641	95.5065	55.6641	93.8315	55.6641	95.4244	55.6641	93.8207	55.6641	95.3141	55.6641	93.8302	55.6641	95.1816	55.6641	93.8595	55.6641	95.0337	55.6641	93.9084	55.6641	94.8773	55.6641	93.9761	55.6641	94.7192	55.6641	94.0621	55.6641	94.5648	55.6641	94.1655	55.6641	94.419	55.6641	94.285
58.5938	96.1515	58.5938	96.0017	58.5938	96.2968	58.5938	95.8521	58.5938	96.4323	58.5938	95.7069	58.5938	96.5527	58.5938	95.57	58.5938	96.6526	58.5938	95.4445	58.5938	96.7269	58.5938	95.3333	58.5938	96.7712	58.5938	95.2384	58.5938	96.7824	58.5938	95.1617	58.5938	96.7592	58.5938	95.1042	58.5938	96.7019	58.5938	95.0667	58.5938	96.6134	58.5938	95.0496	58.5938	96.498	58.5938	95.0527	58.5938	96.3619	58.5938	95.076	58.5938	96.2118	58.5938	95.1187	58.5938	96.0548	58.5938	95.1805	58.5938	95.8972	58.5938	95.2606	58.5938	95.7449	58.5938	95.3583	58.5938	95.6023	58.5938	95.4727
60.0586	96.6971	60.0586	96.5494	60.0586	96.84	60.0586	96.4016	60.0586	96.9729	60.0586	96.2581	60.0586	97.0906	60.0586	96.1225	60.0586	97.1878	60.0586	95.9983	60.0586	97.2596	60.0586	95.8881	60.0586	97.302	60.0586	95.7942	60.0586	97.312	60.0586	95.7182	60.0586	97.2885	60.0586	95.6613	60.0586	97.232	60.0586	95.6243	60.0586	97.1452	60.0586	95.6075	60.0586	97.0325	60.0586	95.6107	60.0586	96.8996	60.0586	95.6339	60.0586	96.753	60.0586	95.6763	60.0586	96.5994	60.0586	95.7376	60.0586	96.445	60.0586	95.817	60.0586	96.2953	60.0586	95.9137	60.0586	96.1548	60.0586	96.0269
62.9883	97.5567	62.9883	97.4153	62.9883	97.6919	62.9883	97.2724	62.9883	97.8159	62.9883	97.1322	62.9883	97.9237	62.9883	96.9987	62.9883	98.0104	62.9883	96.8752	62.9883	98.0716	62.9883	96.7646	62.9883	98.1037	62.9883	96.6691	62.9883	98.1043	62.9883	96.5907	62.9883	98.0728	62.9883	96.5304	62.9883	98.0102	62.9883	96.4892	62.9883	97.9194	62.9883	96.4674	62.9883	97.8049	62.9883	96.465	62.9883	97.6724	62.9883	96.4817	62.9883	97.5282	62.9883	96.5171	62.9883	97.3787	62.9883	96.5706	62.9883	97.2299	62.9883	96.6419	62.9883	97.0872	62.9883	96.7302	62.9883	96.9545	62.9883	96.8348
64.4531	97.8823	64.4531	97.7434	64.4531	98.0149	64.4531	97.6031	64.4531	98.1365	64.4531	97.4657	64.4531	98.242	64.4531	97.3352	64.4531	98.3267	64.4531	97.2149	64.4531	98.3864	64.4531	97.1077	64.4531	98.4177	64.4531	97.0161	64.4531	98.4184	64.4531	96.9416	64.4531	98.3881	64.4531	96.8855	64.4531	98.3279	64.4531	96.8483	64.4531	98.2406	64.4531	96.8304	64.4531	98.1309	64.4531	96.8314	64.4531	98.004	64.4531	96.8508	64.4531	97.8661	64.4531	96.8881	64.4531	97.7233	64.4531	96.9425	64.4531	97.5811	64.4531	97.0133	64.4531	97.4444	64.4531	97.0999	64.4531	97.317	64.4531	97.2015
67.3828	98.4294	67.3828	98.2914	67.3828	98.5607	67.3828	98.1516	67.3828	98.6806	67.3828	98.0145	67.3828	98.7841	67.3828	97.8841	67.3828	98.8668	67.3828	97.7641	67.3828	98.9247	67.3828	97.6575	67.3828	98.9548	67.3828	97.5667	67.3828	98.9553	67.3828	97.4937	67.3828	98.9261	67.3828	97.4395	67.3828	98.8683	67.3828	97.4047	67.3828	98.7849	67.3828	97.3895	67.3828	98.68	67.3828	97.3934	67.3828	98.5585	67.3828	97.4158	67.3828	98.4261	67.3828	97.4558	67.3828	98.2881	67.3828	97.5126	67.3828	98.1498	67.3828	97.5853	67.3828	98.0159	67.3828	97.6732	67.3828	97.8901	67.3828	97.7752
68.8477	98.6745	68.8477	98.5384	68.8477	98.8035	68.8477	98.3999	68.8477	98.9206	68.8477	98.2637	68.8477	99.021	68.8477	98.1339	68.8477	99.1005	68.8477	98.0144	68.8477	99.1555	68.8477	97.9083	68.8477	99.1833	68.8477	97.8181	68.8477	99.1823	68.8477	97.746	68.8477	99.1527	68.8477	97.693	68.8477	99.0959	68.8477	97.6598	68.8477	99.0148	68.8477	97.6465	68.8477	98.9135	68.8477	97.6525	68.8477	98.7967	68.8477	97.677	68.8477	98.6696	68.8477	97.7191	68.8477	98.5372	68.8477	97.7775	68.8477	98.4042	68.8477	97.8513	68.8477	98.2749	68.8477	97.9392	68.8477	98.1527	68.8477	98.0401
71.7773	99.1256	71.7773	98.9926	71.7773	99.2511	71.7773	98.857	71.7773	99.3644	71.7773	98.7236	71.7773	99.4607	71.7773	98.5967	71.7773	99.536	71.7773	98.4802	71.7773	99.5868	71.7773	98.3775	71.7773	99.611	71.7773	98.2912	71.7773	99.6074	71.7773	98.2232	71.7773	99.5764	71.7773	98.1746	71.7773	99.52	71.7773	98.1461	71.7773	99.4413	71.7773	98.1372	71.7773	99.3444	71.7773	98.1473	71.7773	99.234	71.7773	98.1751	71.7773	99.1151	71.7773	98.2193	71.7773	98.992	71.7773	98.2783	71.7773	98.8689	71.7773	98.3507	71.7773	98.7494	71.7773	98.4352	71.7773	98.6359	71.7773	98.5307
74.707	99.5036	74.707	99.3732	74.707	99.6256	74.707	99.2392	74.707	99.7342	74.707	99.1065	74.707	99.825	74.707	98.9797	74.707	99.8941	74.707	98.863	74.707	99.9385	74.707	98.7598	74.707	99.9563	74.707	98.673	74.707	99.9469	74.707	98.6046	74.707	99.9113	74.707	98.5559	74.707	99.8517	74.707	98.5273	74.707	99.7717	74.707	98.5184	74.707	99.6754	74.707	98.5284	74.707	99.5676	74.707	98.5558	74.707	99.4528	74.707	98.599	74.707	99.3352	74.707	98.6563	74.707	99.2183	74.707	98.7262	74.707	99.1051	74.707	98.8072	74.707	98.9978	74.707	98.8981
77.6367	99.8282	77.6367	99.6985	77.6367	99.948	77.6367	99.564	77.6367	100.053	77.6367	99.4294	77.6367	100.139	77.6367	99.2997	77.6367	100.202	77.6367	99.1792	77.6367	100.24	77.6367	99.0715	77.6367	100.251	77.6367	98.9798	77.6367	100.235	77.6367	98.9063	77.6367	100.192	77.6367	98.8524	77.6367	100.126	77.6367	98.8187	77.6367	100.041	77.6367	98.805	77.6367	99.9394	77.6367	98.8103	77.6367	99.8275	77.6367	98.8333	77.6367	99.7098	77.6367	98.8724	77.6367	99.5903	77.6367	98.9257	77.6367	99.4729	77.6367	98.9918	77.6367	99.3602	77.6367	99.0693	77.6367	99.2545	77.6367	99.1572
79.1016	99.9708	79.1016	99.8405	79.1016	100.09	79.1016	99.7047	79.1016	100.195	79.1016	99.5683	79.1016	100.279	79.1016	99.4364	79.1016	100.341	79.1016	99.3134	79.1016	100.376	79.1016	99.2032	79.1016	100.385	79.1016	99.109	79.1016	100.366	79.1016	99.0333	79.1016	100.321	79.1016	98.9775	79.1016	100.254	79.1016	98.9422	79.1016	100.166	79.1016	98.9273	79.1016	100.064	79.1016	98.9319	79.1016	99.9512	79.1016	98.9544	79.1016	99.8328	79.1016	98.9932	79.1016	99.7129	79.1016	99.0465	79.1016	99.595	79.1016	99.1127	79.1016	99.4821	79.1016	99.1904	79.1016	99.3761	79.1016	99.2785
82.0312	100.152	82.0312	100.022	82.0312	100.27	82.0312	99.8847	82.0312	100.373	82.0312	99.7461	82.0312	100.454	82.0312	99.611	82.0312	100.512	82.0312	99.484	82.0312	100.543	82.0312	99.3693	82.0312	100.548	82.0312	99.2703	82.0312	100.525	82.0312	99.1898	82.0312	100.476	82.0312	99.1297	82.0312	100.406	82.0312	99.0908	82.0312	100.316	82.0312	99.0732	82.0312	100.212	82.0312	99.076	82.0312	100.099	82.0312	99.098	82.0312	99.9806	82.0312	99.1373	82.0312	99.8613	82.0312	99.1917	82.0312	99.7442	82.0312	99.2595	82.0312	99.6318	82.0312	99.3387	82.0312	99.526	82.0312	99.4279
84.9609	100.269	84.9609	100.146	84.9609	100.381	84.9609	100.018	84.9609	100.478	84.9609	99.8879	84.9609	100.557	84.9609	99.7617	84.9609	100.613	84.9609	99.6433	84.9609	100.646	84.9609	99.5366	84.9609	100.655	84.9609	99.445	84.9609	100.638	84.9609	99.3709	84.9609	100.599	84.9609	99.3159	84.9609	100.539	84.9609	99.2811	84.9609	100.462	84.9609	99.2664	84.9609	100.371	84.9609	99.2712	84.9609	100.269	84.9609	99.2943	84.9609	100.161	84.9609	99.3343	84.9609	100.049	84.9609	99.3891	84.9609	99.9374	84.9609	99.4572	84.9609	99.8282	84.9609	99.5367	84.9609	99.7238	84.9609	99.6261
87.8906	100.409	87.8906	100.284	87.8906	100.524	87.8906	100.154	87.8906	100.626	87.8906	100.025	87.8906	100.71	87.8906	99.9022	87.8906	100.773	87.8906	99.7895	87.8906	100.813	87.8906	99.6914	87.8906	100.83	87.8906	99.6113	87.8906	100.823	87.8906	99.5513	87.8906	100.795	87.8906	99.5129	87.8906	100.748	87.8906	99.4963	87.8906	100.684	87.8906	99.5007	87.8906	100.609	87.8906	99.5246	87.8906	100.524	87.8906	99.5659	87.8906	100.433	87.8906	99.6221	87.8906	100.338	87.8906	99.6907	87.8906	100.24	87.8906	99.7692	87.8906	100.141	87.8906	99.8554	87.8906	100.043	87.8906	99.9473
90.8203	100.633	90.8203	100.503	90.8203	100.749	90.8203	100.363	90.8203	100.845	90.8203	100.218	90.8203	100.918	90.8203	100.074	90.8203	100.966	90.8203	99.936	90.8203	100.987	90.8203	99.8085	90.8203	100.98	90.8203	99.696	90.8203	100.947	90.8203	99.6021	90.8203	100.889	90.8203	99.5291	90.8203	100.81	90.8203	99.4785	90.8203	100.713	90.8203	99.4508	90.8203	100.604	90.8203	99.4455	90.8203	100.486	90.8203	99.4613	90.8203	100.363	90.8203	99.4965	90.8203	100.24	90.8203	99.549	90.8203	100.118	90.8203	99.6166	90.8203	100.002	90.8203	99.6974	90.8203	99.8914	90.8203	99.7895
95.2148	100.515	95.2148	100.382	95.2148	100.636	95.2148	100.243	95.2148	100.741	95.2148	100.105	95.2148	100.825	95.2148	99.9725	95.2148	100.886	95.2148	99.8524	95.2148	100.921	95.2148	99.7495	95.2148	100.932	95.2148	99.6678	95.2148	100.92	95.2148	99.6102	95.2148	100.888	95.2148	99.5782	95.2148	100.841	95.2148	99.5716	95.2148	100.783	95.2148	99.5891	95.2148	100.717	95.2148	99.6279	95.2148	100.645	95.2148	99.685	95.2148	100.569	95.2148	99.7566	95.2148	100.487	95.2148	99.8391	95.2148	100.401	95.2148	99.9293	95.2148	100.311	95.2148	100.024	95.2148	100.217	95.2148	100.121
98.1445	100.664	98.1445	100.529	98.1445	100.783	98.1445	100.385	98.1445	100.883	98.1445	100.237	98.1445	100.958	98.1445	100.092	98.1445	101.006	98.1445	99.9545	98.1445	101.027	98.1445	99.8311	98.1445	101.019	98.1445	99.7265	98.1445	100.987	98.1445	99.6443	98.1445	100.932	98.1445	99.5872	98.1445	100.86	98.1445	99.5562	98.1445	100.776	98.1445	99.5509	98.1445	100.685	98.1445	99.5696	98.1445	100.589	98.1445	99.6095	98.1445	100.492	98.1445	99.6673	98.1445	100.394	98.1445	99.7393	98.1445	100.297	98.1445	99.8217	98.1445	100.199	98.1445	99.9113	98.1445	100.102	98.1445	100.005
101.074	100.569	101.074	100.434	101.074	100.688	101.074	100.291	101.074	100.787	101.074	100.144	101.074	100.863	101.074	100.002	101.074	100.911	101.074	99.8688	101.074	100.932	101.074	99.7511	101.074	100.927	101.074	99.6537	101.074	100.897	101.074	99.58	101.074	100.848	101.074	99.5325	101.074	100.784	101.074	99.5117	101.074	100.71	101.074	99.5171	101.074	100.63	101.074	99.5464	101.074	100.548	101.074	99.5965	101.074	100.465	101.074	99.6635	101.074	100.38	101.074	99.7432	101.074	100.293	101.074	99.8314	101.074	100.204	101.074	99.9243	101.074	100.113	101.074	100.019
105.469	100.569	105.469	100.436	105.469	100.683	105.469	100.289	105.469	100.772	105.469	100.136	105.469	100.834	105.469	99.9823	105.469	100.866	105.469	99.8364	105.469	100.868	105.469	99.7048	105.469	100.843	105.469	99.593	105.469	100.795	105.469	99.5057	105.469	100.728	105.469	99.4457	105.469	100.648	105.469	99.4139	105.469	100.561	105.469	99.4099	105.469	100.471	105.469	99.4314	105.469	100.382	105.469	99.475	105.469	100.296	105.469	99.5363	105.469	100.211	105.469	99.6107	105.469	100.127	105.469	99.6936	105.469	100.043	105.469	99.781	105.469	99.9573	105.469	99.8697
108.398	100.543	108.398	100.412	108.398	100.655	108.398	100.267	108.398	100.743	108.398	100.114	108.398	100.804	108.398	99.9618	108.398	100.835	108.398	99.8158	108.398	100.837	108.398	99.6827	108.398	100.811	108.398	99.5685	108.398	100.762	108.398	99.4779	108.398	100.693	108.398	99.4139	108.398	100.611	108.398	99.3781	108.398	100.522	108.398	99.3702	108.398	100.43	108.398	99.3883	108.398	100.339	108.398	99.429	108.398	100.25	108.398	99.4882	108.398	100.164	108.398	99.5612	108.398	100.079	108.398	99.6433	108.398	99.9939	108.398	99.7303	108.398	99.9072	108.398	99.819
112.793	100.462	112.793	100.33	112.793	100.575	112.793	100.184	112.793	100.662	112.793	100.03	112.793	100.721	112.793	99.8771	112.793	100.75	112.793	99.732	112.793	100.749	112.793	99.6021	112.793	100.722	112.793	99.4937	112.793	100.673	112.793	99.4118	112.793	100.608	112.793	99.3593	112.793	100.534	112.793	99.3375	112.793	100.456	112.793	99.3451	112.793	100.379	112.793	99.3792	112.793	100.306	112.793	99.4354	112.793	100.236	112.793	99.5083	112.793	100.168	112.793	99.5923	112.793	100.098	112.793	99.6822	112.793	100.025	112.793	99.7733	112.793	99.9463	112.793	99.8621
117.188	100.487	117.188	100.352	117.188	100.597	117.188	100.198	117.188	100.676	117.188	100.031	117.188	100.722	117.188	99.8591	117.188	100.732	117.188	99.6893	117.188	100.707	117.188	99.5296	117.188	100.649	117.188	99.3874	117.188	100.565	117.188	99.2696	117.188	100.461	117.188	99.1817	117.188	100.346	117.188	99.1272	117.188	100.231	117.188	99.1074	117.188	100.122	117.188	99.1209	117.188	100.025	117.188	99.1637	117.188	99.9413	117.188	99.2299	117.188	99.8685	117.188	99.3121	117.188	99.8015	117.188	99.4027	117.188	99.7343	117.188	99.4945	117.188	99.662	117.188	99.582
120.117	100.495	120.117	100.365	120.117	100.599	120.117	100.213	120.117	100.67	120.117	100.046	120.117	100.707	120.117	99.8699	120.117	100.706	120.117	99.6929	120.117	100.669	120.117	99.5217	120.117	100.597	120.117	99.3635	120.117	100.495	120.117	99.2249	120.117	100.37	120.117	99.1115	120.117	100.232	120.117	99.0279	120.117	100.087	120.117	98.9763	120.117	99.9469	120.117	98.957	120.117	99.8171	120.117	98.9677	120.117	99.7019	120.117	99.004	120.117	99.6019	120.117	99.0599	120.117	99.5143	120.117	99.1287	120.117	99.4345	120.117	99.2041	120.117	99.3579	120.117	99.2813
124.512	100.291	124.512	100.161	124.512	100.395	124.512	100.011	124.512	100.469	124.512	99.8486	124.512	100.51	124.512	99.6796	124.512	100.517	124.512	99.5115	124.512	100.49	124.512	99.351	124.512	100.432	124.512	99.2045	124.512	100.347	124.512	99.0774	124.512	100.241	124.512	98.9741	124.512	100.12	124.512	98.8973	124.512	99.9903	124.512	98.8486	124.512	99.8584	124.512	98.8278	124.512	99.7296	124.512	98.8331	124.512	99.6075	124.512	98.8614	124.512	99.4944	124.512	98.9087	124.512	99.3905	124.512	98.9704	124.512	99.2947	124.512	99.0423	124.512	99.2053	124.512	99.1212
128.906	99.9515	128.906	99.8158	128.906	100.063	128.906	99.662	128.906	100.144	128.906	99.4979	128.906	100.193	128.906	99.3321	128.906	100.21	128.906	99.1735	128.906	100.195	128.906	99.0302	128.906	100.153	128.906	98.9093	128.906	100.088	128.906	98.8162	128.906	100.008	128.906	98.7542	128.906	99.9188	128.906	98.724	128.906	99.8266	128.906	98.7245	128.906	99.7364	128.906	98.7523	128.906	99.651	128.906	98.8028	128.906	99.5714	128.906	98.8704	128.906	99.4969	128.906	98.9491	128.906	99.4252	128.906	99.0334	128.906	99.3536	128.906	99.1185	128.906	99.2794	128.906	99.2011
133.301	99.8702	133.301	99.7313	133.301	99.9829	133.301	99.5725	133.301	100.065	133.301	99.4015	133.301	100.113	133.301	99.2268	133.301	100.128	133.301	99.0571	133.301	100.11	133.301	98.9011	133.301	100.063	133.301	98.7665	133.301	99.9918	133.301	98.6595	133.301	99.9035	133.301	98.5845	133.301	99.8046	133.301	98.5435	133.301	99.7014	133.301	98.5362	133.301	99.5995	133.301	98.5597	133.301	99.503	133.301	98.6093	133.301	99.4138	133.301	98.6788	133.301	99.3319	133.301	98.7614	133.301	99.2555	133.301	98.8501	133.301	99.1811	133.301	98.9392	133.301	99.1051	133.301	99.0248
139.16	99.6558	139.16	99.5173	139.16	99.7681	139.16	99.3588	139.16	99.8498	139.16	99.1881	139.16	99.8983	139.16	99.0138	139.16	99.9134	139.16	98.845	139.16	99.897	139.16	98.6905	139.16	99.8533	139.16	98.5582	139.16	99.788	139.16	98.4543	139.16	99.708	139.16	98.3829	139.16	99.62	139.16	98.3456	139.16	99.5298	139.16	98.3419	139.16	99.4412	139.16	98.3686	139.16	99.3563	139.16	98.4212	139.16	99.275	139.16	98.4938	139.16	99.1962	139.16	98.5801	139.16	99.1177	139.16	98.6739	139.16	99.0373	139.16	98.7698	139.16	98.9529	139.16	98.8635
143.555	99.5361	143.555	99.3904	143.555	99.655	143.555	99.2253	143.555	99.7414	143.555	99.0496	143.555	99.7921	143.555	98.8727	143.555	99.8065	143.555	98.7045	143.555	99.7868	143.555	98.5544	143.555	99.7383	143.555	98.4303	143.555	99.6686	143.555	98.3384	143.555	99.5864	143.555	98.282	143.555	99.5001	143.555	98.2617	143.555	99.4162	143.555	98.2753	143.555	99.3387	143.555	98.3181	143.555	99.2681	143.555	98.3842	143.555	99.2028	143.555	98.467	143.555	99.1396	143.555	98.5599	143.555	99.0748	143.555	98.6569	143.555	99.0052	143.555	98.7529	143.555	98.9286	143.555	98.8443
147.949	99.5277	147.949	99.3821	147.949	99.6387	147.949	99.2087	147.949	99.7102	147.949	99.016	147.949	99.7401	147.949	98.8139	147.949	99.7289	147.949	98.6132	147.949	99.6804	147.949	98.425	147.949	99.6012	147.949	98.2601	147.949	99.5004	147.949	98.1278	147.949	99.3884	147.949	98.0353	147.949	99.2752	147.949	97.9861	147.949	99.1693	147.949	97.98	147.949	99.0757	147.949	98.0131	147.949	98.9957	147.949	98.0782	147.949	98.9271	147.949	98.1666	147.949	98.8651	147.949	98.2687	147.949	98.804	147.949	98.3757	147.949	98.738	147.949	98.4803	147.949	98.6631	147.949	98.577
153.809	99.2814	153.809	99.1463	153.809	99.3794	153.809	98.9803	153.809	99.4363	153.809	98.7917	153.809	99.4507	153.809	98.5901	153.809	99.4243	153.809	98.3863	153.809	99.362	153.809	98.1913	153.809	99.2713	153.809	98.016	153.809	99.1623	153.809	97.8701	153.809	99.046	153.809	97.7616	153.809	98.933	153.809	97.6955	153.809	98.8315	153.809	97.6734	153.809	98.7459	153.809	97.6932	153.809	98.676	153.809	97.7493	153.809	98.6175	153.809	97.8338	153.809	98.5636	153.809	97.9372	153.809	98.5069	153.809	98.0496	153.809	98.4408	153.809	98.1623	153.809	98.3614	153.809	98.2679
159.668	99.158	159.668	99.0238	159.668	99.2563	159.668	98.8603	159.668	99.3148	159.668	98.6756	159.668	99.332	159.668	98.4796	159.668	99.3093	159.668	98.283	159.668	99.2511	159.668	98.0966	159.668	99.1645	159.668	97.9311	159.668	99.059	159.668	97.7958	159.668	98.9455	159.668	97.698	159.668	98.8352	159.668	97.6425	159.668	98.737	159.668	97.6305	159.668	98.6569	159.668	97.66	159.668	98.5957	159.668	97.7254	159.668	98.5497	159.668	97.8185	159.668	98.5113	159.668	97.9293	159.668	98.4711	159.668	98.0473	159.668	98.4202	159.668	98.1623	159.668	98.3525	159.668	98.2659
165.527	99.0845	165.527	98.9504	165.527	99.181	165.527	98.7856	165.527	99.2352	165.527	98.5994	165.527	99.2457	165.527	98.403	165.527	99.2145	165.527	98.2081	165.527	99.1466	165.527	98.0266	165.527	99.0504	165.527	97.8692	165.527	98.9366	165.527	97.7449	165.527	98.817	165.527	97.6598	165.527	98.7032	165.527	97.6168	165.527	98.6045	165.527	97.6152	165.527	98.5263	165.527	97.6515	165.527	98.4698	165.527	97.7194	165.527	98.431	165.527	97.8104	165.527	98.4027	165.527	97.9151	165.527	98.3751	165.527	98.0235	165.527	98.3389	165.527	98.1263	165.527	98.2868	165.527	98.2157
171.387	98.9712	171.387	98.8241	171.387	99.0774	171.387	98.6435	171.387	99.1377	171.387	98.439	171.387	99.1503	171.387	98.2219	171.387	99.1166	171.387	98.0046	171.387	99.0412	171.387	97.8002	171.387	98.9325	171.387	97.6209	171.387	98.8019	171.387	97.4774	171.387	98.6624	171.387	97.3778	171.387	98.5274	171.387	97.3265	171.387	98.4084	171.387	97.3237	171.387	98.3133	171.387	97.3652	171.387	98.2447	171.387	97.4435	171.387	98.1997	171.387	97.5479	171.387	98.1704	171.387	97.6665	171.387	98.1454	171.387	97.787	171.387	98.1131	171.387	97.8984	171.387	98.0638	171.387	97.9922
177.246	98.8573	177.246	98.7055	177.246	98.9648	177.246	98.5172	177.246	99.0224	177.246	98.3032	177.246	99.0284	177.246	98.076	177.246	98.9847	177.246	97.8493	177.246	98.8971	177.246	97.6375	177.246	98.7754	177.246	97.4541	177.246	98.6324	177.246	97.3103	177.246	98.4827	177.246	97.214	177.246	98.3403	177.246	97.1684	177.246	98.2166	177.246	97.1719	177.246	98.1186	177.246	97.2185	177.246	98.0481	177.246	97.2988	177.246	98.0018	177.246	97.4015	177.246	97.9718	177.246	97.5147	177.246	97.9478	177.246	97.6269	177.246	97.9188	177.246	97.7285	177.246	97.8755	177.246	97.8124
183.105	98.7086	183.105	98.5646	183.105	98.8055	183.105	98.3805	183.105	98.8509	183.105	98.1663	183.105	98.8443	183.105	97.9336	183.105	98.7891	183.105	97.696	183.105	98.6926	183.105	97.4678	183.105	98.5658	183.105	97.2635	183.105	98.4218	183.105	97.0963	183.105	98.2751	183.105	96.9769	183.105	98.1384	183.105	96.9115	183.105	98.0216	183.105	96.9011	183.105	97.9302	183.105	96.9413	183.105	97.8647	183.105	97.0227	183.105	97.8207	183.105	97.1328	183.105	97.79	183.105	97.2578	183.105	97.7621	183.105	97.3842	183.105	97.7261	183.105	97.5004	183.105	97.6731	183.105	97.5981
188.965	98.5648	188.965	98.4303	188.965	98.6476	188.965	98.2508	188.965	98.675	188.965	98.0358	188.965	98.6474	188.965	97.7971	188.965	98.5694	188.965	97.5488	188.965	98.4503	188.965	97.3061	188.965	98.3037	188.965	97.0856	188.965	98.1464	188.965	96.9034	188.965	97.9962	188.965	96.7729	188.965	97.8689	188.965	96.7031	188.965	97.7754	188.965	96.6964	188.965	97.7189	188.965	96.748	188.965	97.6949	188.965	96.8472	188.965	97.6921	188.965	96.979	188.965	97.696	188.965	97.1272	188.965	97.6915	188.965	97.2764	188.965	97.6662	188.965	97.4131	188.965	97.6123	188.965	97.5273
196.289	98.5805	196.289	98.4423	196.289	98.6647	196.289	98.2579	196.289	98.6905	196.289	98.0379	196.289	98.657	196.289	97.7947	196.289	98.568	196.289	97.5424	196.289	98.432	196.289	97.2962	196.289	98.2626	196.289	97.0713	196.289	98.0771	196.289	96.8825	196.289	97.8953	196.289	96.7421	196.289	97.7359	196.289	96.6591	196.289	97.6136	196.289	96.6367	196.289	97.5354	196.289	96.672	196.289	97.499	196.289	96.7562	196.289	97.4939	196.289	96.8756	196.289	97.5036	196.289	97.0138	196.289	97.5106	196.289	97.1543	196.289	97.4993	196.289	97.2824	196.289	97.4594	196.289	97.3865
203.613	98.5768	203.613	98.433	203.613	98.6566	203.613	98.233	203.613	98.668	203.613	97.9873	203.613	98.6102	203.613	97.7091	203.613	98.487	203.613	97.414	203.613	98.3073	203.613	97.1198	203.613	98.0853	203.613	96.8462	203.613	97.8408	203.613	96.6134	203.613	97.5984	203.613	96.4399	203.613	97.3849	203.613	96.3393	203.613	97.2249	203.613	96.3171	203.613	97.1347	203.613	96.3694	203.613	97.1158	203.613	96.4828	203.613	97.1531	203.613	96.6377	203.613	97.2192	203.613	96.8118	203.613	97.2828	203.613	96.983	203.613	97.3174	203.613	97.132	203.613	97.3061	203.613	97.2432
210.938	98.4467	210.938	98.3188	210.938	98.5152	210.938	98.1393	210.938	98.52	210.938	97.9182	210.938	98.4609	210.938	97.6677	210.938	98.3427	210.938	97.4011	210.938	98.1752	210.938	97.1329	210.938	97.9728	210.938	96.8785	210.938	97.7534	210.938	96.6538	210.938	97.5363	210.938	96.474	210.938	97.3402	210.938	96.3522	210.938	97.1806	210.938	96.2965	210.938	97.0685	210.938	96.3082	210.938	97.008	210.938	96.3798	210.938	96.9943	210.938	96.4963	210.938	97.0132	210.938	96.6375	210.938	97.0437	210.938	96.7813	210.938	97.0629	210.938	96.9075	210.938	97.052	210.938	97.0005
218.262	98.2444	218.262	98.1146	218.262	98.3154	218.262	97.9334	218.262	98.3233	218.262	97.7108	218.262	98.2676	218.262	97.4595	218.262	98.1522	218.262	97.1941	218.262	97.9857	218.262	96.9308	218.262	97.7823	218.262	96.6868	218.262	97.5614	218.262	96.4792	218.262	97.346	218.262	96.3234	218.262	97.1604	218.262	96.231	218.262	97.0255	218.262	96.2075	218.262	96.9539	218.262	96.2509	218.262	96.9453	218.262	96.3512	218.262	96.9854	218.262	96.4925	218.262	97.0499	218.262	96.6549	218.262	97.1104	218.262	96.8176	218.262	97.1426	218.262	96.961	218.262	97.1307	218.262	97.069
225.586	98.2813	225.586	98.145	225.586	98.3462	225.586	97.9471	225.586	98.3344	225.586	97.7003	225.586	98.2456	225.586	97.4199	225.586	98.0857	225.586	97.1232	225.586	97.8676	225.586	96.8289	225.586	97.611	225.586	96.5569	225.586	97.3416	225.586	96.327	225.586	97.0881	225.586	96.1576	225.586	96.8793	225.586	96.0627	225.586	96.739	225.586	96.0495	225.586	96.6811	225.586	96.1154	225.586	96.7046	225.586	96.2479	225.586	96.7923	225.586	96.4262	225.586	96.9131	225.586	96.6248	225.586	97.0304	225.586	96.817	225.586	97.1112	225.586	96.9781	225.586	97.1334	225.586	97.0879
232.91	98.3423	232.91	98.2036	232.91	98.4067	232.91	98.0006	232.91	98.3902	232.91	97.7466	232.91	98.2912	232.91	97.4571	232.91	98.1132	232.91	97.1488	232.91	97.8656	232.91	96.8395	232.91	97.5642	232.91	96.5465	232.91	97.2314	232.91	96.2872	232.91	96.8963	232.91	96.078	232.91	96.5922	232.91	95.9334	232.91	96.3531	232.91	95.8636	232.91	96.2063	232.91	95.8717	232.91	96.1637	232.91	95.951	232.91	96.2155	232.91	96.0845	232.91	96.3303	232.91	96.2468	232.91	96.4645	232.91	96.4085	232.91	96.5755	232.91	96.5409	232.91	96.6323	232.91	96.6204
241.699	98.0416	241.699	97.8816	241.699	98.1304	241.699	97.6605	241.699	98.1418	241.699	97.3923	241.699	98.074	241.699	97.0943	241.699	97.9301	241.699	96.7856	241.699	97.7183	241.699	96.4864	241.699	97.4514	241.699	96.2157	241.699	97.1468	241.699	95.9899	241.699	96.8258	241.699	95.8213	241.699	96.5139	241.699	95.7173	241.699	96.2398	241.699	95.6797	241.699	96.0337	241.699	95.7051	241.699	95.9204	241.699	95.7836	241.699	95.9077	241.699	95.8999	241.699	95.9787	241.699	96.0332	241.699	96.0945	241.699	96.1599	241.699	96.2091	241.699	96.256	241.699	96.2849	241.699	96.3014
250.488	98.2921	250.488	98.1013	250.488	98.3992	250.488	97.837	250.488	98.4163	250.488	97.5128	250.488	98.3421	250.488	97.146	250.488	98.1814	250.488	96.7573	250.488	97.9459	250.488	96.371	250.488	97.6549	250.488	96.0138	250.488	97.3336	250.488	95.7124	250.488	97.01	250.488	95.4901	250.488	96.7111	250.488	95.3622	250.488	96.4592	250.488	95.3329	250.488	96.2707	250.488	95.3941	250.488	96.1554	250.488	95.5264	250.488	96.1145	250.488	95.7028	250.488	96.1367	250.488	95.8933	250.488	96.1973	250.488	96.0685	250.488	96.2624	250.488	96.2037	250.488	96.2986	250.488	96.2821
259.277	98.4124	259.277	98.2448	259.277	98.4956	259.277	98.0024	259.277	98.4886	259.277	97.6992	259.277	98.3909	259.277	97.3529	259.277	98.2073	259.277	96.9848	259.277	97.9485	259.277	96.6193	259.277	97.631	259.277	96.2813	259.277	97.2771	259.277	95.9938	259.277	96.9143	259.277	95.7741	259.277	96.5738	259.277	95.632	259.277	96.288	259.277	95.5697	259.277	96.0851	259.277	95.5824	259.277	95.9814	259.277	95.6594	259.277	95.9741	259.277	95.784	259.277	96.0395	259.277	95.934	259.277	96.1393	259.277	96.0829	259.277	96.2318	259.277	96.204	259.277	96.2832	259.277	96.2748
268.066	98.3014	268.066	98.1075	268.066	98.4	268.066	97.8256	268.066	98.3998	268.066	97.4667	268.066	98.3017	268.066	97.0462	268.066	98.1126	268.066	96.5858	268.066	97.8471	268.066	96.1151	268.066	97.5281	268.066	95.6719	268.066	97.1866	268.066	95.2984	268.066	96.857	268.066	95.0331	268.066	96.5704	268.066	94.8995	268.066	96.3472	268.066	94.8988	268.066	96.1945	268.066	95.0106	268.066	96.109	268.066	95.2014	268.066	96.0817	268.066	95.434	268.066	96.0993	268.066	95.6728	268.066	96.1422	268.066	95.8873	268.066	96.1843	268.066	96.0537	268.066	96.1972	268.066	96.1576
276.855	98.4081	276.855	98.2471	276.855	98.4777	276.855	98.0015	276.855	98.4512	276.855	97.6804	276.855	98.3275	276.855	97.295	276.855	98.1085	276.855	96.8594	276.855	97.8012	276.855	96.3922	276.855	97.4185	276.855	95.9185	276.855	96.9825	276.855	95.4724	276.855	96.5282	276.855	95.0957	276.855	96.1064	276.855	94.8304	276.855	95.7779	276.855	94.7054	276.855	95.5943	276.855	94.7247	276.855	95.57	276.855	94.8655	276.855	95.6701	276.855	95.0881	276.855	95.8276	276.855	95.3484	276.855	95.9748	276.855	95.6061	276.855	96.0637	276.855	95.8282	276.855	96.07	276.855	95.9888
287.109	98.1884	287.109	98.078	287.109	98.2039	287.109	97.8759	287.109	98.1255	287.109	97.5892	287.109	97.9593	287.109	97.2287	287.109	97.7171	287.109	96.8101	287.109	97.4155	287.109	96.3546	287.109	97.0741	287.109	95.8908	287.109	96.7138	287.109	95.4546	287.109	96.3556	287.109	95.0869	287.109	96.0215	287.109	94.8274	287.109	95.7366	287.109	94.7028	287.109	95.5285	287.109	94.7159	287.109	95.4193	287.109	94.843	287.109	95.4128	287.109	95.042	287.109	95.486	287.109	95.2659	287.109	95.5956	287.109	95.4733	287.109	95.6943	287.109	95.6333	287.109	95.7449	287.109	95.7265
297.363	98.3784	297.363	98.2583	297.363	98.4072	297.363	98.0595	297.363	98.3345	297.363	97.795	297.363	98.1551	297.363	97.4765	297.363	97.8702	297.363	97.113	297.363	97.4896	297.363	96.7111	297.363	97.0332	297.363	96.2775	297.363	96.5322	297.363	95.8238	297.363	96.0299	297.363	95.3726	297.363	95.5816	297.363	94.9622	297.363	95.2488	297.363	94.6451	297.363	95.084	297.363	94.4738	297.363	95.1039	297.363	94.4776	297.363	95.2719	297.363	94.644	297.363	95.5088	297.363	94.9219	297.363	95.727	297.363	95.2422	297.363	95.8602	297.363	95.5392	297.363	95.8736	297.363	95.7611
307.617	98.227	307.617	98.0612	307.617	98.2992	307.617	97.8133	307.617	98.2703	307.617	97.498	307.617	98.1379	307.617	97.1323	307.617	97.9062	307.617	96.7358	307.617	97.5861	307.617	96.3289	307.617	97.1942	307.617	95.9324	307.617	96.7495	307.617	95.5656	307.617	96.2691	307.617	95.2458	307.617	95.7677	307.617	94.9885	307.617	95.2664	307.617	94.8067	307.617	94.8084	307.617	94.7091	307.617	94.4661	307.617	94.6962	307.617	94.3143	307.617	94.7564	307.617	94.3721	307.617	94.8643	307.617	94.5744	307.617	94.9826	307.617	94.8126	307.617	95.0686	307.617	94.9963	307.617	95.0821
319.336	98.2522	319.336	98.0838	319.336	98.3202	319.336	97.8245	319.336	98.2808	319.336	97.4859	319.336	98.1306	319.336	97.083	319.336	97.872	319.336	96.6354	319.336	97.5143	319.336	96.1684	319.336	97.0751	319.336	95.7123	319.336	96.5813	319.336	95.2994	319.336	96.0706	319.336	94.9596	319.336	95.591	319.336	94.7156	319.336	95.1949	319.336	94.5803	319.336	94.9273	319.336	94.5554	319.336	94.811	319.336	94.631	319.336	94.8381	319.336	94.7852	319.336	94.9707	319.336	94.984	319.336	95.1512	319.336	95.1854	319.336	95.3179	319.336	95.3462	319.336	95.4206	319.336	95.431
329.59	97.7192	329.59	97.5731	329.59	97.7755	329.59	97.3462	329.59	97.738	329.59	97.0495	329.59	97.6091	329.59	96.6945	329.59	97.397	329.59	96.2929	329.59	97.1136	329.59	95.8585	329.59	96.7715	329.59	95.4111	329.59	96.3829	329.59	94.9784	329.59	95.961	329.59	94.5943	329.59	95.5244	329.59	94.2935	329.59	95.1059	329.59	94.1024	329.59	94.7581	329.59	94.0341	329.59	94.5438	329.59	94.0869	329.59	94.5034	329.59	94.2443	329.59	94.6189	329.59	94.4733	329.59	94.8154	329.59	94.7253	329.59	94.9994	329.59	94.9444	329.59	95.099	329.59	95.0797
341.309	97.9095	341.309	97.7198	341.309	97.9902	341.309	97.4327	341.309	97.9572	341.309	97.066	341.309	97.8122	341.309	96.6421	341.309	97.5631	341.309	96.184	341.309	97.2244	341.309	95.7139	341.309	96.8182	341.309	95.2535	341.309	96.3734	341.309	94.8279	341.309	95.9227	341.309	94.4704	341.309	95.4982	341.309	94.2205	341.309	95.1314	341.309	94.1116	341.309	94.8558	341.309	94.1539	341.309	94.7079	341.309	94.3252	341.309	94.7119	341.309	94.5796	341.309	94.8539	341.309	94.8638	341.309	95.0728	341.309	95.1283	341.309	95.2843	341.309	95.3298	341.309	95.417	341.309	95.4332
353.027	98.0957	353.027	97.9085	353.027	98.1651	353.027	97.6162	353.027	98.1081	353.027	97.2338	353.027	97.923	353.027	96.7785	353.027	97.6182	353.027	96.2698	353.027	97.2131	353.027	95.7306	353.027	96.736	353.027	95.1875	353.027	96.2209	353.027	94.6716	353.027	95.7041	353.027	94.2188	353.027	95.2256	353.027	93.8691	353.027	94.8304	353.027	93.66	353.027	94.5648	353.027	93.6152	353.027	94.4574	353.027	93.7317	353.027	94.4983	353.027	93.9748	353.027	94.6385	353.027	94.2855	353.027	94.8124	353.027	94.5963	353.027	94.9591	353.027	94.8471	353.027	95.0311	353.027	94.9972
366.211	98.1307	366.211	97.9478	366.211	98.1923	366.211	97.6568	366.211	98.1247	366.211	97.2742	366.211	97.9276	366.211	96.8182	366.211	97.6097	366.211	96.3074	366.211	97.1906	366.211	95.7609	366.211	96.6999	366.211	95.1994	366.211	96.1757	366.211	94.6487	366.211	95.658	366.211	94.1441	366.211	95.1806	366.211	93.7301	366.211	94.769	366.211	93.4515	366.211	94.4482	366.211	93.3369	366.211	94.25	366.211	93.3853	366.211	94.1987	366.211	93.5651	366.211	94.2803	366.211	93.8262	366.211	94.4308	366.211	94.1116	366.211	94.564	366.211	94.3666	366.211	94.6118	366.211	94.5439
379.395	98.6064	379.395	98.426	379.395	98.6685	379.395	98.1413	379.395	98.6017	379.395	97.7673	379.395	98.4011	379.395	97.3186	379.395	98.0685	379.395	96.8084	379.395	97.6138	379.395	96.2511	379.395	97.0565	379.395	95.6654	379.395	96.427	379.395	95.0788	379.395	95.7652	379.395	94.5304	379.395	95.1185	379.395	94.0715	379.395	94.547	379.395	93.7578	379.395	94.1308	379.395	93.6335	379.395	93.9559	379.395	93.7106	379.395	94.0556	379.395	93.9577	379.395	94.3607	379.395	94.3073	379.395	94.731	379.395	94.6762	379.395	95.0342	379.395	94.9845	379.395	95.1895	379.395	95.1691
392.578	98.0953	392.578	97.901	392.578	98.1911	392.578	97.6188	392.578	98.1794	392.578	97.2618	392.578	98.053	392.578	96.8445	392.578	97.8071	392.578	96.3808	392.578	97.4435	392.578	95.8834	392.578	96.9752	392.578	95.3647	392.578	96.4289	392.578	94.8407	392.578	95.8397	392.578	94.3356	392.578	95.2424	392.578	93.8853	392.578	94.6688	392.578	93.5359	392.578	94.1637	392.578	93.3357	392.578	93.8067	392.578	93.3178	392.578	93.691	392.578	93.4814	392.578	93.8395	392.578	93.7801	392.578	94.1497	392.578	94.1316	392.578	94.4576	392.578	94.4413	392.578	94.635	392.578	94.6268
405.762	98.017	405.762	97.8343	405.762	98.0788	405.762	97.5495	405.762	98.0028	405.762	97.18	405.762	97.7793	405.762	96.7393	405.762	97.4116	405.762	96.2364	405.762	96.9221	405.762	95.6782	405.762	96.3529	405.762	95.0777	405.762	95.7614	405.762	94.4652	405.762	95.2074	405.762	93.8956	405.762	94.737	405.762	93.4421	405.762	94.3727	405.762	93.1696	405.762	94.1215	405.762	93.1065	405.762	93.9952	405.762	93.2369	405.762	94.0157	405.762	93.5158	405.762	94.1842	405.762	93.8837	405.762	94.4453	405.762	94.2706	405.762	94.6953	405.762	94.5999	405.762	94.8331	405.762	94.8019
420.41	98.4136	420.41	98.256	420.41	98.4447	420.41	97.9904	420.41	98.3393	420.41	97.6388	420.41	98.0992	420.41	97.2225	420.41	97.7379	420.41	96.7574	420.41	97.2763	420.41	96.2507	420.41	96.7347	420.41	95.7014	420.41	96.1267	420.41	95.1073	420.41	95.4591	420.41	94.48	420.41	94.7457	420.41	93.8631	420.41	94.0376	420.41	93.3424	420.41	93.4543	420.41	93.0275	420.41	93.1607	420.41	92.9951	420.41	93.2465	420.41	93.2332	420.41	93.6232	420.41	93.6435	420.41	94.093	420.41	94.0947	420.41	94.4822	420.41	94.4697	420.41	94.6916	420.41	94.6844
435.059	97.8852	435.059	97.6764	435.059	97.9655	435.059	97.3576	435.059	97.9069	435.059	96.9536	435.059	97.7072	435.059	96.4911	435.059	97.374	435.059	95.9948	435.059	96.9274	435.059	95.4832	435.059	96.4025	435.059	94.9713	435.059	95.846	435.059	94.4771	435.059	95.2998	435.059	94.0296	435.059	94.7835	435.059	93.6701	435.059	94.297	435.059	93.441	435.059	93.8574	435.059	93.3674	435.059	93.5389	435.059	93.4473	435.059	93.4523	435.059	93.6549	435.059	93.6409	435.059	93.9463	435.059	94.0058	435.059	94.2602	435.059	94.374	435.059	94.5216	435.059	94.6099	435.059	94.656
451.172	98.9277	451.172	98.6218	451.172	99.0795	451.172	98.1734	451.172	99.0626	451.172	97.5928	451.172	98.8614	451.172	96.8929	451.172	98.4666	451.172	96.0932	451.172	97.8846	451.172	95.2221	451.172	97.1444	451.172	94.3176	451.172	96.2981	451.172	93.4275	451.172	95.4102	451.172	92.6109	451.172	94.5361	451.172	91.9431	451.172	93.703	451.172	91.5168	451.172	92.9283	451.172	91.4194	451.172	92.2918	451.172	91.6768	451.172	91.9846	451.172	92.2115	451.172	92.1728	451.172	92.868	451.172	92.7538	451.172	93.4789	451.172	93.415	451.172	93.9079	451.172	93.8917	451.172	94.0615
465.82	98.7887	465.82	98.5564	465.82	98.8677	465.82	98.1845	465.82	98.7822	465.82	97.6863	465.82	98.5304	465.82	97.0771	465.82	98.126	465.82	96.3778	465.82	97.5958	465.82	95.6162	465.82	96.9691	465.82	94.8235	465.82	96.2695	465.82	94.0304	465.82	95.5221	465.82	93.2667	465.82	94.7712	465.82	92.5707	465.82	94.0888	465.82	92.0064	465.82	93.5551	465.82	91.669	465.82	93.2152	465.82	91.6491	465.82	93.0603	465.82	91.9545	465.82	93.0591	465.82	92.4691	465.82	93.1848	465.82	93.0103	465.82	93.3883	465.82	93.4178	465.82	93.5684	465.82	93.6043
483.398	98.5775	483.398	98.4444	483.398	98.5575	483.398	98.1625	483.398	98.3905	483.398	97.7457	483.398	98.0926	483.398	97.217	483.398	97.6876	483.398	96.6029	483.398	97.2028	483.398	95.9251	483.398	96.6644	483.398	95.1938	483.398	96.0919	483.398	94.41	483.398	95.4924	483.398	93.5843	483.398	94.8608	483.398	92.7637	483.398	94.2065	483.398	92.0486	483.398	93.6106	483.398	91.579	483.398	93.2535	483.398	91.4797	483.398	93.2948	483.398	91.7875	483.398	93.6723	483.398	92.4088	483.398	94.1369	483.398	93.1572	483.398	94.4636	483.398	93.8408	483.398	94.5373	483.398	94.324
499.512	98.6404	499.512	98.441	499.512	98.6964	499.512	98.1142	499.512	98.5962	499.512	97.6795	499.512	98.3332	499.512	97.1578	499.512	97.9104	499.512	96.5689	499.512	97.3421	499.512	95.926	499.512	96.6541	499.512	95.2331	499.512	95.8827	499.512	94.4883	499.512	95.0747	499.512	93.6992	499.512	94.2794	499.512	92.9069	499.512	93.5401	499.512	92.2055	499.512	92.9115	499.512	91.7322	499.512	92.5064	499.512	91.6071	499.512	92.4819	499.512	91.8564	499.512	92.8706	499.512	92.3919	499.512	93.4639	499.512	93.0534	499.512	93.969	499.512	93.6663	499.512	94.1944	499.512	94.081
517.09	98.2371	517.09	97.9652	517.09	98.3661	517.09	97.585	517.09	98.338	517.09	97.1431	517.09	98.1624	517.09	96.6859	517.09	97.8673	517.09	96.244	517.09	97.4806	517.09	95.8212	517.09	97.0124	517.09	95.3915	517.09	96.45	517.09	94.9066	517.09	95.7657	517.09	94.3123	517.09	94.9272	517.09	93.5746	517.09	93.9223	517.09	92.7205	517.09	92.8282	517.09	91.9025	517.09	91.9444	517.09	91.4498	517.09	91.7803	517.09	91.699	517.09	92.4951	517.09	92.5882	517.09	93.5962	517.09	93.6826	517.09	94.5414	517.09	94.583	517.09	95.0619	517.09	95.0727
536.133	98.3084	536.133	97.9871	536.133	98.3898	536.133	97.4547	536.133	98.2251	536.133	96.7675	536.133	97.8307	536.133	96.0144	536.133	97.2463	536.133	95.309	536.133	96.5388	536.133	94.7486	536.133	95.8092	536.133	94.3554	536.133	95.1797	536.133	94.0608	536.133	94.7265	536.133	93.7595	536.133	94.4006	536.133	93.3832	536.133	94.0462	536.133	92.9341	536.133	93.5148	536.133	92.4756	536.133	92.7906	536.133	92.1123	536.133	92.0976	536.133	91.9759	536.133	91.8568	536.133	92.1691	536.133	92.2418	536.133	92.6435	536.133	92.8999	536.133	93.1679	536.133	93.3822	536.133	93.4704
555.176	99.0135	555.176	98.7627	555.176	99.0293	555.176	98.2895	555.176	98.8163	555.176	97.6368	555.176	98.3882	555.176	96.8846	555.176	97.7583	555.176	96.1361	555.176	96.939	555.176	95.4748	555.176	95.9606	555.176	94.9106	555.176	94.9089	555.176	94.3703	555.176	93.9434	555.176	93.7569	555.176	93.2253	555.176	93.0316	555.176	92.773	555.176	92.2609	555.176	92.45	555.176	91.6028	555.176	92.1418	555.176	91.2388	555.176	91.9108	555.176	91.2871	555.176	91.9554	555.176	91.7325	555.176	92.3568	555.176	92.4007	555.176	92.9141	555.176	93.024	555.176	93.3188	555.176	93.3682
574.219	99.3392	574.219	99.0487	574.219	99.447	574.219	98.5928	574.219	99.3643	574.219	98.0023	574.219	99.0876	574.219	97.3196	574.219	98.6123	574.219	96.5929	574.219	97.9347	574.219	95.8653	574.219	97.064	574.219	95.1613	574.219	96.0385	574.219	94.4769	574.219	94.9313	574.219	93.7851	574.219	93.83	574.219	93.0613	574.219	92.8036	574.219	92.3138	574.219	91.9133	574.219	91.6203	574.219	91.309	574.219	91.1721	574.219	91.2644	574.219	91.2314	574.219	91.8763	574.219	91.8695	574.219	92.8146	574.219	92.7984	574.219	93.6414	574.219	93.6241	574.219	94.0988	574.219	94.0919
594.727	99.4476	594.727	99.1254	594.727	99.5398	594.727	98.6055	594.727	99.3973	594.727	97.9407	594.727	99.0406	594.727	97.1857	594.727	98.504	594.727	96.3765	594.727	97.8259	594.727	95.5226	594.727	97.045	594.727	94.6246	594.727	96.2	594.727	93.7119	594.727	95.322	594.727	92.8658	594.727	94.4128	594.727	92.1864	594.727	93.411	594.727	91.7125	594.727	92.1904	594.727	91.4044	594.727	90.7165	594.727	91.2646	594.727	89.612	594.727	91.4571	594.727	90.2452	594.727	92.1566	594.727	92.1546	594.727	93.2116	594.727	93.8117	594.727	94.205	594.727	94.6856	594.727	94.7719
615.234	99.897	615.234	99.5331	615.234	100.037	615.234	98.9648	615.234	99.9425	615.234	98.2317	615.234	99.6159	615.234	97.3979	615.234	99.0768	615.234	96.5456	615.234	98.3713	615.234	95.7537	615.234	97.5618	615.234	95.0618	615.234	96.715	615.234	94.439	615.234	95.8965	615.234	93.7911	615.234	95.1458	615.234	93.0136	615.234	94.432	615.234	92.0511	615.234	93.6413	615.234	90.9254	615.234	92.6012	615.234	89.7697	615.234	91.1402	615.234	88.95	615.234	89.3703	615.234	89.0188	615.234	88.427	615.234	89.9491	615.234	89.363	615.234	90.9434	615.234	90.7261	615.234	91.3046
637.207	99.1921	637.207	98.8087	637.207	99.3731	637.207	98.272	637.207	99.3457	637.207	97.6621	637.207	99.1474	637.207	97.0677	637.207	98.8284	637.207	96.5483	637.207	98.3961	637.207	96.0992	637.207	97.809	637.207	95.6519	637.207	97.0521	637.207	95.1163	637.207	96.2004	637.207	94.4319	637.207	95.3749	637.207	93.5925	637.207	94.6116	637.207	92.6362	637.207	93.7852	637.207	91.6182	637.207	92.7016	637.207	90.6306	637.207	91.3469	637.207	89.9172	637.207	90.2422	637.207	89.8852	637.207	90.2383	637.207	90.602	637.207	91.1075	637.207	91.5105	637.207	91.8712	637.207	92.0225
659.18	98.4277	659.18	98.0711	659.18	98.5795	659.18	97.5306	659.18	98.5366	659.18	96.8721	659.18	98.3136	659.18	96.2041	659.18	97.9102	659.18	95.6428	659.18	97.3298	659.18	95.2473	659.18	96.6309	659.18	94.9722	659.18	95.9503	659.18	94.6978	659.18	95.431	659.18	94.3152	659.18	95.0913	659.18	93.778	659.18	94.7831	659.18	93.0782	659.18	94.285	659.18	92.1906	659.18	93.4118	659.18	91.0766	659.18	92.0987	659.18	89.8384	659.18	90.5808	659.18	88.9815	659.18	89.6231	659.18	89.1081	659.18	89.7685	659.18	89.8635	659.18	90.3006	659.18	90.394
682.617	98.1805	682.617	97.6661	682.617	98.3911	682.617	96.9292	682.617	98.2524	682.617	96.0849	682.617	97.769	682.617	95.2877	682.617	97.0196	682.617	94.7136	682.617	96.1764	682.617	94.48	682.617	95.5047	682.617	94.5416	682.617	95.2625	682.617	94.7057	682.617	95.4417	682.617	94.7548	682.617	95.7108	682.617	94.5405	682.617	95.736	682.617	94.0135	682.617	95.3978	682.617	93.2099	682.617	94.7113	682.617	92.2173	682.617	93.6251	682.617	91.1974	682.617	92.0017	682.617	90.5074	682.617	90.1387	682.617	90.5213	682.617	89.4853	682.617	90.9514	682.617	90.3376	682.617	91.028
707.52	97.8477	707.52	97.3185	707.52	98.0651	707.52	96.4577	707.52	98.021	707.52	95.331	707.52	97.7379	707.52	94.1471	707.52	97.1652	707.52	93.2769	707.52	96.2155	707.52	93.0882	707.52	94.8975	707.52	93.5661	707.52	93.495	707.52	94.2555	707.52	92.6491	707.52	94.6974	707.52	92.8367	707.52	94.6931	707.52	93.6407	707.52	94.2631	707.52	94.3348	707.52	93.5173	707.52	94.5208	707.52	92.5462	707.52	94.0679	707.52	91.4215	707.52	93.0146	707.52	90.3663	707.52	91.6636	707.52	89.8415	707.52	90.6541	707.52	89.9743	707.52	90.3381	707.52	90.2429
732.422	98.3141	732.422	97.8467	732.422	98.4261	732.422	97.0392	732.422	98.2005	732.422	95.9582	732.422	97.6737	732.422	94.7187	732.422	96.8887	732.422	93.4593	732.422	95.8658	732.422	92.3658	732.422	94.5721	732.422	91.7273	732.422	92.9814	732.422	91.7265	732.422	91.3069	732.422	92.1144	732.422	90.3184	732.422	92.4849	732.422	90.8058	732.422	92.6548	732.422	92.17	732.422	92.6132	732.422	93.3038	732.422	92.372	732.422	93.7367	732.422	91.9784	732.422	93.5505	732.422	91.6207	732.422	93.1429	732.422	91.5809	732.422	92.8582	732.422	91.9142	732.422	92.6616	732.422	92.3535
757.324	98.6362	757.324	98.0362	757.324	98.9762	757.324	97.2165	757.324	99.0291	757.324	96.2186	757.324	98.7714	757.324	95.0596	757.324	98.163	757.324	93.7224	757.324	97.1605	757.324	92.2189	757.324	95.7859	757.324	90.7233	757.324	94.2195	757.324	89.626	757.324	92.8331	757.324	89.3478	757.324	91.9993	757.324	89.9139	757.324	91.824	757.324	90.8399	757.324	92.3033	757.324	91.5683	757.324	93.2408	757.324	91.8281	757.324	94.0299	757.324	91.7751	757.324	94.1874	757.324	91.9174	757.324	93.7793	757.324	92.5416	757.324	93.4092	757.324	93.2673	757.324	93.491	757.324	93.602
785.156	98.5358	785.156	97.9742	785.156	98.9155	785.156	97.2722	785.156	99.087	785.156	96.4731	785.156	99.024	785.156	95.589	785.156	98.6791	785.156	94.5886	785.156	97.9969	785.156	93.414	785.156	96.9576	785.156	92.0162	785.156	95.5972	785.156	90.4474	785.156	94.0095	785.156	89.0157	785.156	92.435	785.156	88.257	785.156	91.384	785.156	88.3848	785.156	91.2665	785.156	88.9224	785.156	91.7764	785.156	89.202	785.156	92.2912	785.156	88.84	785.156	92.4498	785.156	88.0986	785.156	92.2518	785.156	88.2464	785.156	91.9525	785.156	89.6583	785.156	91.6454	785.156	90.9804
811.523	98.6893	811.523	98.2779	811.523	98.9085	811.523	97.6936	811.523	98.9242	811.523	96.9422	811.523	98.7352	811.523	96.0013	811.523	98.3177	811.523	94.8475	811.523	97.5848	811.523	93.539	811.523	96.4317	811.523	92.2643	811.523	94.9091	811.523	91.1786	811.523	93.3754	811.523	90.2707	811.523	92.3813	811.523	89.5999	811.523	92.1432	811.523	89.4112	811.523	92.3012	811.523	89.8138	811.523	92.4079	811.523	90.4803	811.523	92.1734	811.523	90.9987	811.523	91.7054	811.523	91.3533	811.523	91.7691	811.523	91.8511	811.523	92.5897	811.523	92.5873	811.523	93.2451	811.523	93.1999
840.82	99.4328	840.82	99.065	840.82	99.5103	840.82	98.4418	840.82	99.3457	840.82	97.6649	840.82	98.9931	840.82	96.7618	840.82	98.4601	840.82	95.5834	840.82	97.7398	840.82	93.9572	840.82	96.8292	840.82	92.0442	840.82	95.6491	840.82	90.476	840.82	94.0588	840.82	89.7239	840.82	92.1873	840.82	89.5471	840.82	90.7247	840.82	89.5056	840.82	90.3233	840.82	89.4593	840.82	90.9147	840.82	89.3836	840.82	91.8952	840.82	89.2141	840.82	92.4088	840.82	89.2601	840.82	92.1416	840.82	90.0831	840.82	91.7726	840.82	91.3045	840.82	91.9532	840.82	92.0132
870.117	99.888	870.117	99.6065	870.117	99.809	870.117	98.9658	870.117	99.4365	870.117	98.0094	870.117	98.8521	870.117	96.7629	870.117	98.0817	870.117	95.2395	870.117	97.1254	870.117	93.5493	870.117	96.0365	870.117	91.9774	870.117	94.8577	870.117	90.8514	870.117	93.5851	870.117	90.2778	870.117	92.4658	870.117	90.0099	870.117	91.94	870.117	89.7222	870.117	91.8642	870.117	89.4194	870.117	91.6452	870.117	89.2403	870.117	91.0497	870.117	89.152	870.117	90.7581	870.117	89.3301	870.117	91.5979	870.117	90.2251	870.117	92.7311	870.117	91.6301	870.117	93.1925	870.117	92.7776
900.879	100.849	900.879	100.428	900.879	100.838	900.879	99.6041	900.879	100.466	900.879	98.4748	900.879	99.8484	900.879	97.0572	900.879	99.0706	900.879	95.2033	900.879	98.1551	900.879	92.8101	900.879	97.0487	900.879	90.2839	900.879	95.651	900.879	88.708	900.879	93.8904	900.879	88.6449	900.879	91.8628	900.879	89.4062	900.879	90.1579	900.879	90.2407	900.879	89.9692	900.879	90.8579	900.879	91.3624	900.879	91.0804	900.879	92.7912	900.879	90.7725	900.879	93.1013	900.879	90.3643	900.879	92.1084	900.879	90.98	900.879	91.3015	900.879	92.3277	900.879	92.2106	900.879	92.9242
933.105	100.7	933.105	100.101	933.105	100.885	933.105	99.1841	933.105	100.67	933.105	98.073	933.105	100.16	933.105	96.7928	933.105	99.4228	933.105	95.1895	933.105	98.4211	933.105	93.015	933.105	97.1743	933.105	90.2935	933.105	95.8446	933.105	87.8417	933.105	94.5574	933.105	86.9408	933.105	93.4055	933.105	87.5447	933.105	92.552	933.105	88.3135	933.105	92.019	933.105	88.7477	933.105	91.7552	933.105	88.9155	933.105	91.9352	933.105	88.7237	933.105	92.499	933.105	88.5751	933.105	92.9244	933.105	89.7545	933.105	93.1223	933.105	91.7982	933.105	93.3233	933.105	93.0878
965.332	99.9988	965.332	99.3293	965.332	100.363	965.332	98.3039	965.332	100.495	965.332	96.8795	965.332	100.401	965.332	94.9294	965.332	100.051	965.332	92.2835	965.332	99.4792	965.332	88.9524	965.332	98.7029	965.332	85.7812	965.332	97.6861	965.332	84.7171	965.332	96.4258	965.332	85.4572	965.332	94.9488	965.332	85.6352	965.332	93.4753	965.332	84.3299	965.332	92.7744	965.332	83.1757	965.332	93.1812	965.332	84.4413	965.332	93.756	965.332	85.9189	965.332	93.7509	965.332	86.0691	965.332	93.3646	965.332	86.9572	965.332	93.372	965.332	90.1276	965.332	93.4941	965.332	92.604
1,000.49	96.8469	1,000.49	95.6093	1,000.49	97.8211	1,000.49	94.3663	1,000.49	98.4343	1,000.49	93.2179	1,000.49	98.7603	1,000.49	91.7657	1,000.49	98.8684	1,000.49	89.6163	1,000.49	98.6237	1,000.49	87.4826	1,000.49	97.845	1,000.49	86.1729	1,000.49	96.6516	1,000.49	84.3521	1,000.49	95.4341	1,000.49	82.3893	1,000.49	94.4372	1,000.49	82.2657	1,000.49	93.5709	1,000.49	82.1824	1,000.49	92.663	1,000.49	81.6502	1,000.49	91.991	1,000.49	81.9572	1,000.49	92.0882	1,000.49	82.8601	1,000.49	92.4009	1,000.49	83.0681	1,000.49	92.0394	1,000.49	84.2494	1,000.49	91.3932	1,000.49	87.7445	1,000.49	91.1695	1,000.49	90.3163
1,035.64	95.0262	1,035.64	94.2885	1,035.64	95.9385	1,035.64	93.693	1,035.64	96.7798	1,035.64	92.8708	1,035.64	97.4046	1,035.64	91.7363	1,035.64	97.8189	1,035.64	91.061	1,035.64	97.9235	1,035.64	91.4612	1,035.64	97.4539	1,035.64	91.8703	1,035.64	96.304	1,035.64	90.9669	1,035.64	94.7098	1,035.64	88.5137	1,035.64	93.3988	1,035.64	86.0662	1,035.64	93.3585	1,035.64	85.2362	1,035.64	93.6968	1,035.64	84.4217	1,035.64	93.3996	1,035.64	82.2441	1,035.64	93.1169	1,035.64	80.168	1,035.64	93.2604	1,035.64	79.6521	1,035.64	92.8409	1,035.64	78.7189	1,035.64	91.7122	1,035.64	83.4229	1,035.64	90.4175	1,035.64	88.1144
1,072.27	92.6335	1,072.27	92.2191	1,072.27	93.4642	1,072.27	92.5357	1,072.27	94.1621	1,072.27	92.9728	1,072.27	94.7393	1,072.27	93.3039	1,072.27	95.2663	1,072.27	93.7778	1,072.27	95.6445	1,072.27	94.3547	1,072.27	95.7656	1,072.27	94.6436	1,072.27	95.4692	1,072.27	94.3205	1,072.27	94.4846	1,072.27	93.3347	1,072.27	92.9203	1,072.27	92.026	1,072.27	91.856	1,072.27	90.9688	1,072.27	91.5975	1,072.27	90.2495	1,072.27	91.068	1,072.27	89.3848	1,072.27	90.5826	1,072.27	88.0212	1,072.27	91.1548	1,072.27	85.7008	1,072.27	91.6159	1,072.27	80.3207	1,072.27	91.1049	1,072.27	78.3778	1,072.27	89.6975	1,072.27	86.411
1,108.89	93.8497	1,108.89	96.6303	1,108.89	90.5228	1,108.89	98.4197	1,108.89	88.0969	1,108.89	99.2371	1,108.89	88.6206	1,108.89	99.2602	1,108.89	90.8881	1,108.89	98.5836	1,108.89	92.4427	1,108.89	97.1554	1,108.89	92.5269	1,108.89	95.2947	1,108.89	91.5891	1,108.89	94.0665	1,108.89	90.5744	1,108.89	93.7389	1,108.89	89.862	1,108.89	93.7693	1,108.89	89.2442	1,108.89	93.8134	1,108.89	89.3571	1,108.89	93.6665	1,108.89	91.2132	1,108.89	93.4021	1,108.89	91.9131	1,108.89	93.1091	1,108.89	89.2569	1,108.89	92.4316	1,108.89	86.8513	1,108.89	90.4552	1,108.89	89.017	1,108.89	85.6327	1,108.89	87.4211	1,108.89	81.0543
1,148.44	97.7766	1,148.44	99.1075	1,148.44	95.9266	1,148.44	99.9403	1,148.44	93.656	1,148.44	100.36	1,148.44	91.0094	1,148.44	100.347	1,148.44	87.9281	1,148.44	99.707	1,148.44	84.2547	1,148.44	98.1865	1,148.44	80.7108	1,148.44	95.8092	1,148.44	82.0369	1,148.44	93.4194	1,148.44	82.875	1,148.44	92.2215	1,148.44	80.6708	1,148.44	92.2673	1,148.44	79.6792	1,148.44	92.8635	1,148.44	81.9613	1,148.44	93.1569	1,148.44	82.7229	1,148.44	92.7229	1,148.44	81.2965	1,148.44	92.1192	1,148.44	80.2324	1,148.44	91.9225	1,148.44	78.5038	1,148.44	91.2029	1,148.44	74.3246	1,148.44	88.8218	1,148.44	78.0123	1,148.44	84.3146
1,189.45	98.9328	1,189.45	99.6797	1,189.45	97.9453	1,189.45	100.351	1,189.45	96.3416	1,189.45	100.714	1,189.45	93.8872	1,189.45	100.453	1,189.45	90.8317	1,189.45	99.5468	1,189.45	87.5197	1,189.45	98.1249	1,189.45	83.7615	1,189.45	96.1599	1,189.45	79.4218	1,189.45	93.5756	1,189.45	72.6987	1,189.45	90.8154	1,189.45	75.6605	1,189.45	89.3039	1,189.45	79.8223	1,189.45	89.9855	1,189.45	77.4791	1,189.45	91.105	1,189.45	80.6701	1,189.45	91.289	1,189.45	85.0106	1,189.45	90.5835	1,189.45	84.9084	1,189.45	90.1962	1,189.45	80.703	1,189.45	90.4844	1,189.45	74.9615	1,189.45	89.8626	1,189.45	82.2927	1,189.45	87.3416
1,230.47	101.084	1,230.47	101.173	1,230.47	100.22	1,230.47	100.669	1,230.47	98.7696	1,230.47	99.9479	1,230.47	97.1685	1,230.47	99.1816	1,230.47	95.5505	1,230.47	98.2205	1,230.47	93.7244	1,230.47	96.9998	1,230.47	91.6957	1,230.47	95.3904	1,230.47	88.9767	1,230.47	93.1592	1,230.47	84.4206	1,230.47	90.8903	1,230.47	79.9358	1,230.47	89.6747	1,230.47	78.9873	1,230.47	89.5879	1,230.47	72.8887	1,230.47	89.9472	1,230.47	79.1321	1,230.47	90.0358	1,230.47	84.294	1,230.47	89.5576	1,230.47	83.7809	1,230.47	89.0074	1,230.47	81.9143	1,230.47	88.729	1,230.47	84.3314	1,230.47	87.9667	1,230.47	86.0016	1,230.47	86.7868
1,274.41	100.804	1,274.41	100.65	1,274.41	100.283	1,274.41	99.8087	1,274.41	99.1257	1,274.41	98.2739	1,274.41	97.3686	1,274.41	96.2823	1,274.41	95.2549	1,274.41	94.7589	1,274.41	93.3772	1,274.41	94.0797	1,274.41	92.1849	1,274.41	92.8019	1,274.41	91.4665	1,274.41	89.795	1,274.41	90.3988	1,274.41	86.4061	1,274.41	88.0664	1,274.41	84.6415	1,274.41	84.7938	1,274.41	85.2252	1,274.41	81.8214	1,274.41	87.9963	1,274.41	81.089	1,274.41	89.2664	1,274.41	80.7371	1,274.41	88.2014	1,274.41	81.6013	1,274.41	85.6713	1,274.41	85.6597	1,274.41	85.5206	1,274.41	86.0637	1,274.41	87.5825	1,274.41	86.6114	1,274.41	88.0554
1,319.82	100.265	1,319.82	99.8771	1,319.82	99.7578	1,319.82	98.3852	1,319.82	98.8954	1,319.82	96.2731	1,319.82	97.8608	1,319.82	94.5178	1,319.82	96.2492	1,319.82	93.2791	1,319.82	94.3053	1,319.82	90.9937	1,319.82	92.6594	1,319.82	88.1766	1,319.82	91.5685	1,319.82	85.8087	1,319.82	90.7021	1,319.82	83.4955	1,319.82	88.8107	1,319.82	83.3718	1,319.82	86.6544	1,319.82	83.5908	1,319.82	85.2705	1,319.82	85.109	1,319.82	81.335	1,319.82	87.4921	1,319.82	84.856	1,319.82	87.6643	1,319.82	88.3239	1,319.82	84.24	1,319.82	88.5158	1,319.82	81.6866	1,319.82	86.779	1,319.82	87.2279	1,319.82	87.6181	1,319.82	89.2829
1,366.7	100.645	1,366.7	100.747	1,366.7	100.188	1,366.7	99.7814	1,366.7	99.7516	1,366.7	97.8393	1,366.7	98.897	1,366.7	96.3557	1,366.7	97.4605	1,366.7	95.6146	1,366.7	95.9162	1,366.7	93.3596	1,366.7	94.3897	1,366.7	88.6299	1,366.7	92.9488	1,366.7	85.37	1,366.7	92.1962	1,366.7	85.9012	1,366.7	91.6348	1,366.7	86.2699	1,366.7	89.626	1,366.7	84.0502	1,366.7	85.4921	1,366.7	81.5266	1,366.7	84.0114	1,366.7	86.7314	1,366.7	87.5921	1,366.7	90.6223	1,366.7	89.0356	1,366.7	90.4902	1,366.7	88.9928	1,366.7	86.8802	1,366.7	88.2316	1,366.7	87.3352	1,366.7	87.8529	1,366.7	89.164
1,413.57	100.457	1,413.57	100.363	1,413.57	99.6932	1,413.57	99.2205	1,413.57	98.7683	1,413.57	98.1681	1,413.57	98.089	1,413.57	98.2641	1,413.57	97.006	1,413.57	97.6279	1,413.57	95.4014	1,413.57	94.547	1,413.57	94.3311	1,413.57	91.1895	1,413.57	93.5199	1,413.57	91.586	1,413.57	92.8839	1,413.57	91.8018	1,413.57	92.2884	1,413.57	89.1777	1,413.57	90.8207	1,413.57	85.7887	1,413.57	88.3205	1,413.57	85.3149	1,413.57	85.1494	1,413.57	83.87	1,413.57	85.6728	1,413.57	88.6138	1,413.57	86.7203	1,413.57	91.3556	1,413.57	87.2064	1,413.57	88.7978	1,413.57	87.5835	1,413.57	85.5617	1,413.57	89.8842	1,413.57	89.5117
1,463.38	99.6116	1,463.38	100.346	1,463.38	99.1223	1,463.38	99.9719	1,463.38	99.0679	1,463.38	98.6089	1,463.38	98.1684	1,463.38	96.9575	1,463.38	96.6674	1,463.38	95.6713	1,463.38	95.5462	1,463.38	93.9629	1,463.38	93.8329	1,463.38	92.9299	1,463.38	91.4632	1,463.38	90.8765	1,463.38	90.7932	1,463.38	89.7072	1,463.38	90.7557	1,463.38	89.3937	1,463.38	90.6172	1,463.38	89.0983	1,463.38	89.4018	1,463.38	88.8631	1,463.38	83.6541	1,463.38	86.573	1,463.38	84.3493	1,463.38	85.7508	1,463.38	86.6631	1,463.38	88.4891	1,463.38	87.0918	1,463.38	86.9224	1,463.38	87.4304	1,463.38	84.6547	1,463.38	85.5542	1,463.38	85.378
1,516.11	98.7498	1,516.11	98.7653	1,516.11	98.7932	1,516.11	99.2949	1,516.11	98.0845	1,516.11	99.4175	1,516.11	97.2093	1,516.11	97.879	1,516.11	96.2292	1,516.11	94.0761	1,516.11	95.2812	1,516.11	91.7419	1,516.11	94.0501	1,516.11	93.3764	1,516.11	91.301	1,516.11	91.6214	1,516.11	88.2052	1,516.11	86.6962	1,516.11	86.7619	1,516.11	88.4623	1,516.11	88.6782	1,516.11	90.5342	1,516.11	90.7059	1,516.11	90.6505	1,516.11	86.9646	1,516.11	89.5493	1,516.11	84.5374	1,516.11	86.7772	1,516.11	86.9608	1,516.11	86.6824	1,516.11	86.7324	1,516.11	86.4449	1,516.11	83.403	1,516.11	84.3989	1,516.11	82.7259	1,516.11	85.1867
1,568.85	98.4773	1,568.85	98.6557	1,568.85	98.0286	1,568.85	98.732	1,568.85	97.5331	1,568.85	98.5032	1,568.85	96.9062	1,568.85	97.1027	1,568.85	95.8139	1,568.85	94.4718	1,568.85	94.6165	1,568.85	92.3639	1,568.85	93.9497	1,568.85	92.1721	1,568.85	92.6066	1,568.85	90.263	1,568.85	88.5105	1,568.85	81.7138	1,568.85	86.9264	1,568.85	78.8624	1,568.85	87.0159	1,568.85	87.593	1,568.85	85.8267	1,568.85	89.933	1,568.85	86.6195	1,568.85	89.2135	1,568.85	82.9186	1,568.85	84.9529	1,568.85	85.0175	1,568.85	86.2572	1,568.85	86.5175	1,568.85	86.8014	1,568.85	84.6625	1,568.85	83.1378	1,568.85	82.5282	1,568.85	82.1707
1,624.51	98.9934	1,624.51	98.8089	1,624.51	97.5917	1,624.51	98.239	1,624.51	96.4427	1,624.51	98.1542	1,624.51	96.5128	1,624.51	96.277	1,624.51	95.766	1,624.51	92.904	1,624.51	94.2984	1,624.51	91.6294	1,624.51	92.7056	1,624.51	90.9483	1,624.51	90.7246	1,624.51	88.208	1,624.51	88.7202	1,624.51	86.6474	1,624.51	87.9649	1,624.51	86.5874	1,624.51	85.7909	1,624.51	81.6392	1,624.51	84.2624	1,624.51	84.9801	1,624.51	88.2357	1,624.51	88.112	1,624.51	82.6826	1,624.51	87.2353	1,624.51	83.1397	1,624.51	86.4027	1,624.51	85.1013	1,624.51	87.8755	1,624.51	87.1281	1,624.51	85.9712	1,624.51	83.9881	1,624.51	81.5021
1,681.64	98.5686	1,681.64	98.2139	1,681.64	98.0425	1,681.64	97.9597	1,681.64	97.0363	1,681.64	97.8226	1,681.64	95.8664	1,681.64	95.9533	1,681.64	94.2257	1,681.64	93.9547	1,681.64	92.6636	1,681.64	93.4903	1,681.64	91.3335	1,681.64	89.0826	1,681.64	89.7369	1,681.64	79.0902	1,681.64	86.6905	1,681.64	81.8174	1,681.64	84.6472	1,681.64	81.5441	1,681.64	86.0089	1,681.64	66.2331	1,681.64	85.3432	1,681.64	74.3952	1,681.64	85.1275	1,681.64	80.92	1,681.64	82.2208	1,681.64	84.4326	1,681.64	83.8255	1,681.64	86.0533	1,681.64	84.8099	1,681.64	86.3234	1,681.64	77.3185	1,681.64	84.2514	1,681.64	85.7262	1,681.64	83.9445
1,741.7	99.1039	1,741.7	99.3324	1,741.7	98.3491	1,741.7	98.3135	1,741.7	97.2641	1,741.7	95.7527	1,741.7	95.5436	1,741.7	93.4119	1,741.7	93.9121	1,741.7	92.78	1,741.7	92.513	1,741.7	91.7274	1,741.7	89.3089	1,741.7	88.2351	1,741.7	88.7357	1,741.7	86.1115	1,741.7	89.4564	1,741.7	85.6881	1,741.7	86.4535	1,741.7	84.34	1,741.7	86.0837	1,741.7	82.7873	1,741.7	86.8072	1,741.7	79.2731	1,741.7	82.1254	1,741.7	77.2162	1,741.7	82.6192	1,741.7	83.845	1,741.7	84.7377	1,741.7	84.7753	1,741.7	88.3463	1,741.7	83.8379	1,741.7	85.4133	1,741.7	82.2871	1,741.7	82.279	1,741.7	83.8734
1,803.22	98.204	1,803.22	98.6926	1,803.22	97.5636	1,803.22	97.9346	1,803.22	96.798	1,803.22	95.5221	1,803.22	95.3835	1,803.22	92.9709	1,803.22	93.6465	1,803.22	90.7673	1,803.22	92.4777	1,803.22	86.8156	1,803.22	90.0754	1,803.22	81.225	1,803.22	87.926	1,803.22	82.2084	1,803.22	87.8461	1,803.22	78.3071	1,803.22	87.096	1,803.22	81.8604	1,803.22	85.2729	1,803.22	86.7177	1,803.22	82.5859	1,803.22	83.8172	1,803.22	82.7337	1,803.22	76.3255	1,803.22	85.7915	1,803.22	83.1414	1,803.22	84.3313	1,803.22	81.1694	1,803.22	87.5613	1,803.22	83.2446	1,803.22	86.3006	1,803.22	82.8906	1,803.22	83.398	1,803.22	83.2701
1,866.21	97.5638	1,866.21	97.7558	1,866.21	97.2255	1,866.21	97.0723	1,866.21	96.8228	1,866.21	94.1923	1,866.21	95.6923	1,866.21	91.1213	1,866.21	94.2659	1,866.21	89.1079	1,866.21	93.5867	1,866.21	87.9699	1,866.21	92.6927	1,866.21	89.5068	1,866.21	90.707	1,866.21	89.0159	1,866.21	88.9905	1,866.21	85.8575	1,866.21	88.6734	1,866.21	77.9983	1,866.21	84.7178	1,866.21	85.763	1,866.21	83.7634	1,866.21	88.1404	1,866.21	87.7757	1,866.21	81.9259	1,866.21	86.5088	1,866.21	80.4902	1,866.21	84.5849	1,866.21	83.5777	1,866.21	84.8513	1,866.21	77.7817	1,866.21	87.564	1,866.21	81.0979	1,866.21	86.5141	1,866.21	85.3271
1,932.13	96.859	1,932.13	96.8086	1,932.13	96.5743	1,932.13	96.6333	1,932.13	95.6547	1,932.13	95.6507	1,932.13	94.9305	1,932.13	94.5814	1,932.13	94.4888	1,932.13	93.0128	1,932.13	92.8432	1,932.13	90.6601	1,932.13	93.3122	1,932.13	89.6222	1,932.13	92.8881	1,932.13	88.5915	1,932.13	88.6124	1,932.13	83.6227	1,932.13	86.7457	1,932.13	63.5722	1,932.13	85.6157	1,932.13	79.3314	1,932.13	81.6887	1,932.13	84.1166	1,932.13	83.9199	1,932.13	86.0975	1,932.13	88.0754	1,932.13	82.5883	1,932.13	83.3948	1,932.13	84.9467	1,932.13	87.3468	1,932.13	85.3083	1,932.13	86.7647	1,932.13	81.5305	1,932.13	81.1016	1,932.13	82.9839
1,999.51	97.2905	1,999.51	95.8801	1,999.51	96.6217	1,999.51	95.7322	1,999.51	94.9371	1,999.51	96.8011	1,999.51	94.1939	1,999.51	95.2366	1,999.51	93.6344	1,999.51	93.1905	1,999.51	93.285	1,999.51	90.8031	1,999.51	94.124	1,999.51	85.294	1,999.51	93.2786	1,999.51	84.5388	1,999.51	91.4809	1,999.51	87.1374	1,999.51	88.0561	1,999.51	83.8941	1,999.51	84.0077	1,999.51	65.3326	1,999.51	83.795	1,999.51	84.6053	1,999.51	85.0644	1,999.51	85.0728	1,999.51	86.5142	1,999.51	77.3758	1,999.51	83.5552	1,999.51	83.5884	1,999.51	86.3929	1,999.51	85.5566	1,999.51	86.3461	1,999.51	80.9223	1,999.51	85.0756	1,999.51	80.424
2,069.82	97.6207	2,069.82	96.894	2,069.82	96.7256	2,069.82	96.9688	2,069.82	94.2535	2,069.82	97.1125	2,069.82	92.0814	2,069.82	95.4366	2,069.82	91.8246	2,069.82	93.6708	2,069.82	93.2285	2,069.82	91.4398	2,069.82	94.1674	2,069.82	88.9933	2,069.82	94.2299	2,069.82	88.0441	2,069.82	92.836	2,069.82	85.5331	2,069.82	87.9898	2,069.82	84.6147	2,069.82	82.5168	2,069.82	80.353	2,069.82	86.4629	2,069.82	79.8016	2,069.82	83.2066	2,069.82	85.837	2,069.82	86.0648	2,069.82	81.9309	2,069.82	81.4938	2,069.82	81.8841	2,069.82	85.0743	2,069.82	85.5288	2,069.82	85.5858	2,069.82	82.5834	2,069.82	84.9825	2,069.82	79.9519
2,143.07	98.1579	2,143.07	98.6659	2,143.07	97.3277	2,143.07	98.1772	2,143.07	94.1219	2,143.07	95.7532	2,143.07	89.0228	2,143.07	94.4307	2,143.07	87.8183	2,143.07	93.8051	2,143.07	90.5564	2,143.07	91.0532	2,143.07	93.1729	2,143.07	85.3054	2,143.07	93.5588	2,143.07	80.8445	2,143.07	92.5237	2,143.07	79.1414	2,143.07	89.2122	2,143.07	80.33	2,143.07	79.951	2,143.07	79.6083	2,143.07	82.5806	2,143.07	76.0155	2,143.07	84.057	2,143.07	84.3295	2,143.07	82.8808	2,143.07	82.331	2,143.07	79.9725	2,143.07	77.7296	2,143.07	83.1482	2,143.07	84.5679	2,143.07	85.2506	2,143.07	83.8787	2,143.07	84.4438	2,143.07	78.7977
2,219.24	97.2737	2,219.24	98.6811	2,219.24	96.3664	2,219.24	98.6535	2,219.24	93.1321	2,219.24	95.9042	2,219.24	86.4335	2,219.24	94.8111	2,219.24	86.7308	2,219.24	93.5112	2,219.24	91.0767	2,219.24	88.6355	2,219.24	92.0617	2,219.24	86.348	2,219.24	91.9622	2,219.24	85.8415	2,219.24	93.5442	2,219.24	82.5883	2,219.24	91.3423	2,219.24	80.9072	2,219.24	87.1319	2,219.24	81.9868	2,219.24	78.5228	2,219.24	77.1338	2,219.24	85.0525	2,219.24	83.8263	2,219.24	83.1454	2,219.24	82.653	2,219.24	82.943	2,219.24	71.9014	2,219.24	77.5102	2,219.24	82.8013	2,219.24	83.3365	2,219.24	83.5919	2,219.24	82.9818	2,219.24	76.9637
2,296.88	97.5807	2,296.88	99.3785	2,296.88	94.7926	2,296.88	99.1088	2,296.88	90.7196	2,296.88	96.864	2,296.88	80.4088	2,296.88	92.6205	2,296.88	88.1613	2,296.88	88.2677	2,296.88	90.6414	2,296.88	81.8023	2,296.88	92.2607	2,296.88	81.7964	2,296.88	91.0486	2,296.88	82.0704	2,296.88	91.0402	2,296.88	77.3998	2,296.88	89.7189	2,296.88	79.538	2,296.88	87.345	2,296.88	82.2013	2,296.88	84.0224	2,296.88	75.7383	2,296.88	84.9656	2,296.88	81.6658	2,296.88	82.9707	2,296.88	81.4036	2,296.88	83.6002	2,296.88	68.9409	2,296.88	71.9683	2,296.88	75.3652	2,296.88	80.3111	2,296.88	81.8589	2,296.88	81.8661	2,296.88	80.9874
2,378.91	99.234	2,378.91	98.905	2,378.91	96.4196	2,378.91	97.0316	2,378.91	89.6193	2,378.91	94.903	2,378.91	85.3394	2,378.91	87.998	2,378.91	91.9944	2,378.91	72.1809	2,378.91	94.1208	2,378.91	65.3772	2,378.91	93.6563	2,378.91	64.8294	2,378.91	91.0499	2,378.91	75.2265	2,378.91	89.2883	2,378.91	82.223	2,378.91	88.0026	2,378.91	76.6569	2,378.91	83.5899	2,378.91	79.1804	2,378.91	81.8864	2,378.91	79.5491	2,378.91	85.6142	2,378.91	75.2133	2,378.91	84.3834	2,378.91	76.6864	2,378.91	81.8509	2,378.91	70.5713	2,378.91	72.303	2,378.91	75.3915	2,378.91	79.3875	2,378.91	81.201	2,378.91	80.6244	2,378.91	81.2388
2,462.4	99.8854	2,462.4	99.7161	2,462.4	97.5596	2,462.4	97.178	2,462.4	91.5273	2,462.4	93.3121	2,462.4	85.3572	2,462.4	86.2286	2,462.4	93.5205	2,462.4	77.0154	2,462.4	95.7205	2,462.4	70.8615	2,462.4	94.5022	2,462.4	83.0494	2,462.4	91.3458	2,462.4	80.7709	2,462.4	90.0691	2,462.4	75.7425	2,462.4	89.0453	2,462.4	80.3278	2,462.4	87.7109	2,462.4	79.3866	2,462.4	82.6222	2,462.4	78.4214	2,462.4	85.0952	2,462.4	76.1267	2,462.4	86.2552	2,462.4	77.9888	2,462.4	82.173	2,462.4	68.4447	2,462.4	77.2006	2,462.4	59.3178	2,462.4	81.037	2,462.4	80.4781	2,462.4	84.0539	2,462.4	83.3835
2,548.83	99.9305	2,548.83	100.005	2,548.83	97.732	2,548.83	97.5311	2,548.83	91.231	2,548.83	90.3305	2,548.83	82.452	2,548.83	81.548	2,548.83	93.6178	2,548.83	76.093	2,548.83	95.8961	2,548.83	79.8292	2,548.83	95.1469	2,548.83	83.247	2,548.83	94.0322	2,548.83	83.5552	2,548.83	89.1888	2,548.83	83.5391	2,548.83	84.7484	2,548.83	81.6172	2,548.83	88.9546	2,548.83	77.5167	2,548.83	89.1836	2,548.83	82.7761	2,548.83	80.3282	2,548.83	80.5641	2,548.83	87.4048	2,548.83	79.2202	2,548.83	82.589	2,548.83	77.6501	2,548.83	79.7823	2,548.83	70.0377	2,548.83	78.8664	2,548.83	80.561	2,548.83	85.0766	2,548.83	84.76
2,639.65	99.121	2,639.65	99.0734	2,639.65	97.5877	2,639.65	96.5652	2,639.65	91.2274	2,639.65	91.6253	2,639.65	83.9677	2,639.65	84.0253	2,639.65	93.878	2,639.65	76.6429	2,639.65	96.126	2,639.65	85.5559	2,639.65	96.41	2,639.65	86.1408	2,639.65	93.92	2,639.65	84.1675	2,639.65	87.1064	2,639.65	78.5075	2,639.65	85.1306	2,639.65	81.639	2,639.65	86.3195	2,639.65	83.5877	2,639.65	89.4519	2,639.65	79.1843	2,639.65	82.444	2,639.65	83.6714	2,639.65	86.4534	2,639.65	82.4253	2,639.65	79.9202	2,639.65	78.886	2,639.65	78.3081	2,639.65	71.1892	2,639.65	85.5381	2,639.65	78.8362	2,639.65	86.2473	2,639.65	77.3595
2,731.93	98.0835	2,731.93	96.8935	2,731.93	97.2238	2,731.93	94.9603	2,731.93	90.0559	2,731.93	91.2959	2,731.93	88.1572	2,731.93	79.0791	2,731.93	95.0981	2,731.93	85.8221	2,731.93	96.0599	2,731.93	88.4222	2,731.93	96.1627	2,731.93	87.2672	2,731.93	95.5002	2,731.93	87.6132	2,731.93	89.9039	2,731.93	87.6553	2,731.93	87.6641	2,731.93	86.2664	2,731.93	89.5757	2,731.93	84.1165	2,731.93	88.3719	2,731.93	84.6477	2,731.93	82.5779	2,731.93	83.0827	2,731.93	84.9502	2,731.93	83.6251	2,731.93	83.2724	2,731.93	78.9013	2,731.93	70.8773	2,731.93	73.4745	2,731.93	83.6209	2,731.93	80.1693	2,731.93	84.9854	2,731.93	82.412
2,828.61	98.1283	2,828.61	97.9862	2,828.61	96.0084	2,828.61	94.9581	2,828.61	89.9466	2,828.61	89.3347	2,828.61	88.3033	2,828.61	86.5647	2,828.61	95.696	2,828.61	89.8223	2,828.61	96.5147	2,828.61	89.3126	2,828.61	95.8742	2,828.61	88.5995	2,828.61	94.8363	2,828.61	88.025	2,828.61	88.647	2,828.61	88.3924	2,828.61	91.8748	2,828.61	85.4297	2,828.61	87.9913	2,828.61	84.6722	2,828.61	88.4432	2,828.61	82.6319	2,828.61	82.7976	2,828.61	83.2053	2,828.61	87.162	2,828.61	84.4674	2,828.61	82.9111	2,828.61	79.9631	2,828.61	78.0943	2,828.61	76.2019	2,828.61	82.7239	2,828.61	73.1916	2,828.61	80.7631	2,828.61	81.4694
2,928.22	98.781	2,928.22	99.3193	2,928.22	95.8133	2,928.22	96.0132	2,928.22	91.5058	2,928.22	90.2882	2,928.22	88.2587	2,928.22	89.9269	2,928.22	96.2217	2,928.22	91.0784	2,928.22	96.9144	2,928.22	89.6862	2,928.22	95.4696	2,928.22	89.9811	2,928.22	93.368	2,928.22	88.7574	2,928.22	90.8769	2,928.22	84.4822	2,928.22	93.9109	2,928.22	83.0877	2,928.22	86.6836	2,928.22	82.5811	2,928.22	84.3924	2,928.22	82.3461	2,928.22	85.0277	2,928.22	83.8092	2,928.22	88.9972	2,928.22	85.227	2,928.22	81.7336	2,928.22	83.2134	2,928.22	77.854	2,928.22	77.2275	2,928.22	85.9195	2,928.22	75.3117	2,928.22	86.1268	2,928.22	83.5033
3,030.76	99.5016	3,030.76	99.2648	3,030.76	95.8829	3,030.76	96.397	3,030.76	92.1107	3,030.76	91.9162	3,030.76	89.9328	3,030.76	90.9796	3,030.76	95.7472	3,030.76	90.3968	3,030.76	97.0701	3,030.76	90.5915	3,030.76	96.8179	3,030.76	89.1687	3,030.76	93.9958	3,030.76	84.7735	3,030.76	92.376	3,030.76	86.59	3,030.76	92.8092	3,030.76	85.9095	3,030.76	84.6027	3,030.76	84.8657	3,030.76	81.8933	3,030.76	84.285	3,030.76	85.5648	3,030.76	83.7195	3,030.76	88.8102	3,030.76	84.6199	3,030.76	83.6876	3,030.76	82.5057	3,030.76	75.0084	3,030.76	78.5124	3,030.76	81.8885	3,030.76	75.0319	3,030.76	83.4588	3,030.76	81.866
3,137.7	99.317	3,137.7	98.1769	3,137.7	97.3212	3,137.7	95.9737	3,137.7	92.2843	3,137.7	92.7453	3,137.7	92.0364	3,137.7	93.2162	3,137.7	95.3992	3,137.7	91.3794	3,137.7	97.7357	3,137.7	89.8282	3,137.7	97.3833	3,137.7	86.8695	3,137.7	94.0361	3,137.7	90.5201	3,137.7	93.1896	3,137.7	89.2267	3,137.7	91.3527	3,137.7	86.0016	3,137.7	87.688	3,137.7	84.7039	3,137.7	86.3702	3,137.7	83.4196	3,137.7	88.7743	3,137.7	82.3708	3,137.7	87.1561	3,137.7	85.5114	3,137.7	80.1947	3,137.7	82.9748	3,137.7	76.3217	3,137.7	79.8783	3,137.7	83.2464	3,137.7	76.2339	3,137.7	83.5131	3,137.7	81.0814
3,249.02	98.0966	3,249.02	97.7181	3,249.02	97.5668	3,249.02	95.5705	3,249.02	93.5481	3,249.02	94.872	3,249.02	93.6491	3,249.02	93.4979	3,249.02	96.0631	3,249.02	91.6172	3,249.02	97.9762	3,249.02	91.8765	3,249.02	97.8877	3,249.02	92.9499	3,249.02	93.0908	3,249.02	91.7147	3,249.02	91.5593	3,249.02	85.5686	3,249.02	87.7799	3,249.02	85.7479	3,249.02	86.1566	3,249.02	85.7206	3,249.02	86.7425	3,249.02	85.3883	3,249.02	89.8432	3,249.02	84.0758	3,249.02	84.7957	3,249.02	85.1488	3,249.02	80.9478	3,249.02	84.4604	3,249.02	73.9085	3,249.02	80.6224	3,249.02	85.1978	3,249.02	74.7442	3,249.02	83.2631	3,249.02	81.4329
3,363.28	97.9919	3,363.28	97.8223	3,363.28	97.0626	3,363.28	95.4872	3,363.28	93.7781	3,363.28	94.9006	3,363.28	93.1964	3,363.28	92.7964	3,363.28	96.2128	3,363.28	93.2099	3,363.28	97.9023	3,363.28	93.3772	3,363.28	97.613	3,363.28	92.6085	3,363.28	92.1156	3,363.28	88.6436	3,363.28	88.7735	3,363.28	89.6036	3,363.28	79.3017	3,363.28	86.7531	3,363.28	76.8183	3,363.28	85.8696	3,363.28	83.5806	3,363.28	85.1824	3,363.28	89.4299	3,363.28	83.6949	3,363.28	82.6268	3,363.28	85.0824	3,363.28	81.9534	3,363.28	83.8307	3,363.28	71.8346	3,363.28	80.7763	3,363.28	84.6131	3,363.28	71.9775	3,363.28	83.6072	3,363.28	83.1635
3,481.93	97.8325	3,481.93	98.0665	3,481.93	96.3367	3,481.93	97.4179	3,481.93	95.3458	3,481.93	95.474	3,481.93	93.5119	3,481.93	93.48	3,481.93	96.1702	3,481.93	94.5644	3,481.93	98.0177	3,481.93	93.7032	3,481.93	95.9651	3,481.93	91.4451	3,481.93	93.0209	3,481.93	90.4554	3,481.93	85.4197	3,481.93	88.9056	3,481.93	76.9616	3,481.93	82.5818	3,481.93	77.1622	3,481.93	85.446	3,481.93	76.6255	3,481.93	84.2779	3,481.93	86.8099	3,481.93	83.9609	3,481.93	83.4686	3,481.93	85.202	3,481.93	79.2075	3,481.93	84.0765	3,481.93	71.2305	3,481.93	79.6069	3,481.93	84.0805	3,481.93	68.7179	3,481.93	79.984	3,481.93	83.2656
3,604.98	98.0538	3,604.98	98.0803	3,604.98	95.5961	3,604.98	98.1534	3,604.98	94.7842	3,604.98	95.7886	3,604.98	94.5574	3,604.98	93.4958	3,604.98	95.5535	3,604.98	95.174	3,604.98	97.8265	3,604.98	93.3878	3,604.98	93.8835	3,604.98	92.5924	3,604.98	92.0119	3,604.98	88.4682	3,604.98	85.6348	3,604.98	85.4179	3,604.98	87.2387	3,604.98	86.5635	3,604.98	83.371	3,604.98	83.5377	3,604.98	73.6062	3,604.98	85.6973	3,604.98	82.8529	3,604.98	84.9723	3,604.98	84.3621	3,604.98	85.3526	3,604.98	77.8181	3,604.98	84.9322	3,604.98	74.1987	3,604.98	80.4558	3,604.98	81.9434	3,604.98	75.1463	3,604.98	80.8616	3,604.98	81.6666
3,732.42	98.5476	3,732.42	98.5058	3,732.42	97.0254	3,732.42	97.7962	3,732.42	94.7167	3,732.42	93.7327	3,732.42	93.5497	3,732.42	96.5137	3,732.42	94.5649	3,732.42	95.3365	3,732.42	96.4872	3,732.42	93.5351	3,732.42	93.9531	3,732.42	91.1109	3,732.42	92.963	3,732.42	89.2928	3,732.42	90.8082	3,732.42	89.206	3,732.42	90.475	3,732.42	85.6639	3,732.42	85.54	3,732.42	84.9039	3,732.42	73.3328	3,732.42	84.734	3,732.42	83.7155	3,732.42	84.4631	3,732.42	80.9593	3,732.42	85.2099	3,732.42	81.1933	3,732.42	85.4827	3,732.42	74.2061	3,732.42	80.4447	3,732.42	84.2847	3,732.42	76.4077	3,732.42	83.4753	3,732.42	80.6344
3,864.26	97.6113	3,864.26	98.3197	3,864.26	97.2932	3,864.26	97.3829	3,864.26	96.0891	3,864.26	94.9979	3,864.26	94.0672	3,864.26	97.1734	3,864.26	93.689	3,864.26	95.4973	3,864.26	96.3304	3,864.26	94.5509	3,864.26	95.2768	3,864.26	92.9087	3,864.26	94.1029	3,864.26	92.6937	3,864.26	90.4582	3,864.26	89.9696	3,864.26	86.2167	3,864.26	87.3994	3,864.26	84.2634	3,864.26	84.9207	3,864.26	76.8732	3,864.26	85.2093	3,864.26	84.6792	3,864.26	83.9514	3,864.26	81.6897	3,864.26	84.881	3,864.26	81.1755	3,864.26	85.8304	3,864.26	74.9604	3,864.26	81.0128	3,864.26	86.2047	3,864.26	77.785	3,864.26	84.0403	3,864.26	80.0813
4,000.49	97.4362	4,000.49	98.6826	4,000.49	95.6312	4,000.49	96.606	4,000.49	95.7964	4,000.49	96.9367	4,000.49	95.1338	4,000.49	96.6133	4,000.49	91.8359	4,000.49	95.3549	4,000.49	95.6754	4,000.49	94.9154	4,000.49	96.3482	4,000.49	93.6183	4,000.49	94.5521	4,000.49	90.4026	4,000.49	92.3575	4,000.49	85.8235	4,000.49	90.5727	4,000.49	85.4649	4,000.49	80.3078	4,000.49	83.1169	4,000.49	80.8211	4,000.49	83.9352	4,000.49	83.6083	4,000.49	83.5336	4,000.49	79.6204	4,000.49	84.385	4,000.49	81.7692	4,000.49	84.9018	4,000.49	74.8832	4,000.49	81.1971	4,000.49	84.0073	4,000.49	75.1814	4,000.49	82.6732	4,000.49	81.1934
4,141.11	97.4199	4,141.11	98.7645	4,141.11	97.0249	4,141.11	96.6917	4,141.11	96.7429	4,141.11	97.1284	4,141.11	95.7018	4,141.11	96.6356	4,141.11	92.5043	4,141.11	96.5155	4,141.11	93.9391	4,141.11	96.0226	4,141.11	95.4017	4,141.11	91.794	4,141.11	95.3716	4,141.11	91.1175	4,141.11	95.2909	4,141.11	89.1227	4,141.11	90.8866	4,141.11	83.7679	4,141.11	84.0269	4,141.11	82.1594	4,141.11	70.3514	4,141.11	82.4181	4,141.11	81.0948	4,141.11	82.0467	4,141.11	83.0772	4,141.11	83.5209	4,141.11	72.0674	4,141.11	83.3516	4,141.11	78.9311	4,141.11	78.9672	4,141.11	83.8884	4,141.11	70.3566	4,141.11	80.8497	4,141.11	80.7391
4,287.6	98.1925	4,287.6	98.8497	4,287.6	96.787	4,287.6	97.0762	4,287.6	97.0635	4,287.6	97.7347	4,287.6	96.302	4,287.6	96.6577	4,287.6	93.5991	4,287.6	97.1858	4,287.6	92.0297	4,287.6	93.4402	4,287.6	95.4282	4,287.6	91.3876	4,287.6	97.0249	4,287.6	86.7202	4,287.6	96.4859	4,287.6	85.0837	4,287.6	86.533	4,287.6	83.9032	4,287.6	80.983	4,287.6	81.2165	4,287.6	69.2337	4,287.6	82.5168	4,287.6	81.5703	4,287.6	80.7467	4,287.6	82.3207	4,287.6	82.0888	4,287.6	76.2229	4,287.6	81.8714	4,287.6	76.0195	4,287.6	77.9635	4,287.6	83.6418	4,287.6	74.858	4,287.6	80.7215	4,287.6	78.1499
4,438.48	99.3175	4,438.48	99.2589	4,438.48	96.7753	4,438.48	98.0815	4,438.48	97.2761	4,438.48	98.0012	4,438.48	96.8764	4,438.48	97.4846	4,438.48	93.7388	4,438.48	96.117	4,438.48	90.2637	4,438.48	93.5759	4,438.48	97.0325	4,438.48	89.2978	4,438.48	97.3618	4,438.48	89.2632	4,438.48	95.4463	4,438.48	88.3159	4,438.48	86.6416	4,438.48	80.7868	4,438.48	76.7942	4,438.48	83.0175	4,438.48	80.2384	4,438.48	82.4587	4,438.48	77.5136	4,438.48	80.1659	4,438.48	80.1718	4,438.48	81.4721	4,438.48	76.0844	4,438.48	83.0028	4,438.48	78.5597	4,438.48	78.7929	4,438.48	81.2287	4,438.48	71.0968	4,438.48	83.7261	4,438.48	77.5758
4,595.21	98.2962	4,595.21	98.0695	4,595.21	95.8287	4,595.21	97.9685	4,595.21	97.1836	4,595.21	97.3175	4,595.21	98.5255	4,595.21	97.2476	4,595.21	92.4703	4,595.21	95.396	4,595.21	93.577	4,595.21	91.3998	4,595.21	98.8268	4,595.21	91.3791	4,595.21	97.3797	4,595.21	89.0478	4,595.21	93.0746	4,595.21	85.7309	4,595.21	85.7993	4,595.21	85.4461	4,595.21	72.4816	4,595.21	79.7783	4,595.21	83.1615	4,595.21	80.4479	4,595.21	78.2284	4,595.21	83.3659	4,595.21	80.8288	4,595.21	82.3317	4,595.21	82.2994	4,595.21	81.4327	4,595.21	80.8701	4,595.21	81.1706	4,595.21	78.1877	4,595.21	72.0014	4,595.21	81.6691	4,595.21	75.5091
4,756.35	99.2606	4,756.35	98.4025	4,756.35	96.5481	4,756.35	98.9482	4,756.35	97.3639	4,756.35	98.0873	4,756.35	99.0905	4,756.35	97.6669	4,756.35	94.2425	4,756.35	94.2294	4,756.35	93.5484	4,756.35	93.6335	4,756.35	99.104	4,756.35	91.0294	4,756.35	95.9156	4,756.35	89.2082	4,756.35	91.768	4,756.35	88.2329	4,756.35	85.2059	4,756.35	81.7128	4,756.35	81.8628	4,756.35	84.2324	4,756.35	82.4297	4,756.35	81.9198	4,756.35	79.5771	4,756.35	84.2927	4,756.35	78.2593	4,756.35	81.0405	4,756.35	83.117	4,756.35	82.8758	4,756.35	76.0629	4,756.35	78.2537	4,756.35	82.1433	4,756.35	67.5294	4,756.35	82.3799	4,756.35	73.3947
4,924.8	98.9983	4,924.8	99.8475	4,924.8	98.7725	4,924.8	98.4273	4,924.8	95.261	4,924.8	98.3013	4,924.8	98.316	4,924.8	97.3642	4,924.8	95.7108	4,924.8	95.033	4,924.8	94.3946	4,924.8	93.8112	4,924.8	98.6325	4,924.8	92.4095	4,924.8	94.8321	4,924.8	90.0742	4,924.8	88.9874	4,924.8	86.1195	4,924.8	87.1691	4,924.8	83.9933	4,924.8	82.5847	4,924.8	81.1477	4,924.8	80.5136	4,924.8	80.7066	4,924.8	80.1996	4,924.8	81.799	4,924.8	74.8669	4,924.8	79.6208	4,924.8	80.6983	4,924.8	82.8526	4,924.8	75.7364	4,924.8	77.1126	4,924.8	83.388	4,924.8	70.0461	4,924.8	78.9614	4,924.8	77.5766
5,097.66	97.9839	5,097.66	98.382	5,097.66	97.5072	5,097.66	98.2108	5,097.66	96.7361	5,097.66	98.8979	5,097.66	98.5059	5,097.66	96.7662	5,097.66	96.5491	5,097.66	95.053	5,097.66	94.1045	5,097.66	94.559	5,097.66	97.8957	5,097.66	90.9075	5,097.66	92.6103	5,097.66	87.4174	5,097.66	84.7496	5,097.66	86.6956	5,097.66	82.279	5,097.66	80.8253	5,097.66	78.0647	5,097.66	77.9782	5,097.66	78.707	5,097.66	78.5019	5,097.66	81.2269	5,097.66	81.1888	5,097.66	77.7473	5,097.66	79.7351	5,097.66	77.0989	5,097.66	81.7217	5,097.66	77.6769	5,097.66	79.4428	5,097.66	80.9327	5,097.66	60.4627	5,097.66	81.5801	5,097.66	66.6028
5,277.83	98.8848	5,277.83	99.5416	5,277.83	97.8623	5,277.83	98.9071	5,277.83	97.9859	5,277.83	98.8526	5,277.83	98.7327	5,277.83	96.6054	5,277.83	95.7176	5,277.83	96.2299	5,277.83	92.0003	5,277.83	92.7787	5,277.83	95.5497	5,277.83	91.1692	5,277.83	93.0313	5,277.83	87.699	5,277.83	89.1502	5,277.83	83.0146	5,277.83	86.4527	5,277.83	81.2705	5,277.83	64.8206	5,277.83	79.7232	5,277.83	75.3146	5,277.83	79.1208	5,277.83	78.3051	5,277.83	81.4644	5,277.83	78.6535	5,277.83	77.1993	5,277.83	77.6153	5,277.83	81.0904	5,277.83	68.9914	5,277.83	78.607	5,277.83	78.3872	5,277.83	67.1249	5,277.83	77.656	5,277.83	74.6641
5,463.87	98.9144	5,463.87	99.009	5,463.87	98.5928	5,463.87	99.3917	5,463.87	97.5175	5,463.87	98.1683	5,463.87	98.4307	5,463.87	97.1253	5,463.87	96.8243	5,463.87	95.532	5,463.87	92.0278	5,463.87	93.0778	5,463.87	92.1302	5,463.87	88.7203	5,463.87	93.7145	5,463.87	87.9347	5,463.87	90.6347	5,463.87	84.6005	5,463.87	88.499	5,463.87	82.0009	5,463.87	74.9991	5,463.87	79.0312	5,463.87	77.574	5,463.87	78.3191	5,463.87	76.8399	5,463.87	80.3473	5,463.87	81.7732	5,463.87	78.3157	5,463.87	72.8058	5,463.87	79.5733	5,463.87	73.1679	5,463.87	76.4762	5,463.87	81.0288	5,463.87	69.2784	5,463.87	79.532	5,463.87	75.0371
5,657.23	98.7136	5,657.23	98.5417	5,657.23	97.7669	5,657.23	98.817	5,657.23	97.2532	5,657.23	98.2734	5,657.23	97.6861	5,657.23	97.1386	5,657.23	97.6856	5,657.23	95.0738	5,657.23	89.024	5,657.23	91.9624	5,657.23	91.3009	5,657.23	89.5718	5,657.23	93.342	5,657.23	85.4355	5,657.23	91.8751	5,657.23	82.8116	5,657.23	87.4934	5,657.23	80.8608	5,657.23	80.7582	5,657.23	78.6542	5,657.23	81.0758	5,657.23	77.6483	5,657.23	77.6489	5,657.23	79.3993	5,657.23	81.0748	5,657.23	79.5843	5,657.23	65.2802	5,657.23	78.9723	5,657.23	70.9336	5,657.23	79.3948	5,657.23	79.5637	5,657.23	67.2814	5,657.23	78.7478	5,657.23	61.057
5,856.45	97.7264	5,856.45	99.1136	5,856.45	97.5162	5,856.45	99.0132	5,856.45	97.3464	5,856.45	97.2865	5,856.45	97.8462	5,856.45	97.3383	5,856.45	96.8403	5,856.45	94.3124	5,856.45	90.1221	5,856.45	91.8165	5,856.45	90.5742	5,856.45	88.4991	5,856.45	92.9943	5,856.45	87.9464	5,856.45	91.7026	5,856.45	83.1117	5,856.45	88.7035	5,856.45	78.2015	5,856.45	82.0899	5,856.45	77.489	5,856.45	76.0738	5,856.45	76.583	5,856.45	79.4337	5,856.45	79.5632	5,856.45	79.8185	5,856.45	78.5408	5,856.45	74.395	5,856.45	77.7228	5,856.45	75.8348	5,856.45	78.135	5,856.45	77.3465	5,856.45	73.2522	5,856.45	76.7973	5,856.45	71.7387
6,062.99	99.0606	6,062.99	98.4771	6,062.99	98.1851	6,062.99	98.1764	6,062.99	97.5412	6,062.99	97.9656	6,062.99	98.9497	6,062.99	96.5872	6,062.99	96.1108	6,062.99	93.7092	6,062.99	90.0846	6,062.99	91.282	6,062.99	91.2064	6,062.99	88.1895	6,062.99	92.0566	6,062.99	84.4441	6,062.99	90.4408	6,062.99	82.8973	6,062.99	87.6559	6,062.99	79.234	6,062.99	78.6325	6,062.99	74.2044	6,062.99	76.8928	6,062.99	76.216	6,062.99	71.1953	6,062.99	76.1928	6,062.99	67.3573	6,062.99	75.3172	6,062.99	73.2318	6,062.99	78.9192	6,062.99	69.491	6,062.99	75.6878	6,062.99	70.3917	6,062.99	74.2079	6,062.99	75.5672	6,062.99	67.9099
6,276.86	97.8299	6,276.86	98.7018	6,276.86	97.7167	6,276.86	97.8317	6,276.86	97.7034	6,276.86	98.2569	6,276.86	98.1748	6,276.86	96.1558	6,276.86	96.5817	6,276.86	93.945	6,276.86	90.7227	6,276.86	90.9089	6,276.86	90.4189	6,276.86	87.5405	6,276.86	91.6881	6,276.86	84.1036	6,276.86	89.7952	6,276.86	81.4906	6,276.86	85.2803	6,276.86	78.5166	6,276.86	82.4365	6,276.86	76.8347	6,276.86	79.6233	6,276.86	72.8761	6,276.86	75.0486	6,276.86	78.3341	6,276.86	77.6707	6,276.86	78.3631	6,276.86	77.1788	6,276.86	77.1276	6,276.86	70.7814	6,276.86	77.8253	6,276.86	76.8276	6,276.86	74.021	6,276.86	76.0919	6,276.86	65.0203
6,498.05	98.5192	6,498.05	98.298	6,498.05	97.645	6,498.05	97.6736	6,498.05	97.2229	6,498.05	97.6097	6,498.05	97.2227	6,498.05	95.9288	6,498.05	96.5483	6,498.05	93.4035	6,498.05	90.8186	6,498.05	89.8976	6,498.05	89.3773	6,498.05	87.5741	6,498.05	91.8818	6,498.05	85.8239	6,498.05	87.7729	6,498.05	81.6292	6,498.05	84.003	6,498.05	77.6413	6,498.05	82.0091	6,498.05	75.3129	6,498.05	73.3446	6,498.05	76.5543	6,498.05	71.3195	6,498.05	78.139	6,498.05	70.4521	6,498.05	75.6649	6,498.05	71.7401	6,498.05	78.704	6,498.05	74.0822	6,498.05	77.9871	6,498.05	76.8844	6,498.05	75.9083	6,498.05	76.0508	6,498.05	67.1988
6,726.56	98.849	6,726.56	97.901	6,726.56	98.1288	6,726.56	97.741	6,726.56	97.0179	6,726.56	97.5882	6,726.56	97.0244	6,726.56	95.5071	6,726.56	96.397	6,726.56	92.9451	6,726.56	89.3154	6,726.56	90.4816	6,726.56	87.8652	6,726.56	87.7039	6,726.56	92.714	6,726.56	85.2306	6,726.56	82.3458	6,726.56	81.4123	6,726.56	78.5914	6,726.56	79.3487	6,726.56	77.7212	6,726.56	74.9049	6,726.56	74.5317	6,726.56	76.2223	6,726.56	69.8427	6,726.56	76.3986	6,726.56	71.6445	6,726.56	75.7802	6,726.56	56.8767	6,726.56	78.3374	6,726.56	76.405	6,726.56	78.1125	6,726.56	73.397	6,726.56	74.0984	6,726.56	74.1878	6,726.56	67.2203
6,963.87	98.3065	6,963.87	97.6094	6,963.87	98.6444	6,963.87	97.5711	6,963.87	97.8133	6,963.87	96.8052	6,963.87	96.2998	6,963.87	95.0728	6,963.87	95.3033	6,963.87	92.5002	6,963.87	89.5307	6,963.87	91.1574	6,963.87	87.2073	6,963.87	87.7518	6,963.87	89.9276	6,963.87	85.5756	6,963.87	80.5266	6,963.87	80.1327	6,963.87	81.5105	6,963.87	79.8054	6,963.87	79.2645	6,963.87	73.2961	6,963.87	74.6282	6,963.87	74.4181	6,963.87	61.491	6,963.87	76.5489	6,963.87	71.9698	6,963.87	75.7047	6,963.87	61.1657	6,963.87	77.4911	6,963.87	74.6786	6,963.87	78.7991	6,963.87	73.135	6,963.87	74.9925	6,963.87	73.868	6,963.87	68.7543
7,209.96	99.0481	7,209.96	97.9237	7,209.96	98.4695	7,209.96	98.1572	7,209.96	97.438	7,209.96	96.2967	7,209.96	97.0213	7,209.96	94.762	7,209.96	94.1253	7,209.96	92.7983	7,209.96	89.3642	7,209.96	90.636	7,209.96	86.4999	7,209.96	87.4964	7,209.96	87.3507	7,209.96	84.7515	7,209.96	79.9681	7,209.96	79.6126	7,209.96	78.691	7,209.96	76.6358	7,209.96	80.5688	7,209.96	72.2362	7,209.96	75.8051	7,209.96	75.4858	7,209.96	67.3851	7,209.96	75.4828	7,209.96	69.5024	7,209.96	71.7544	7,209.96	68.6295	7,209.96	77.6999	7,209.96	77.0218	7,209.96	76.9798	7,209.96	72.8618	7,209.96	75.9879	7,209.96	75.8446	7,209.96	69.5373
7,464.84	98.4834	7,464.84	97.9376	7,464.84	98.9325	7,464.84	97.43	7,464.84	97.2332	7,464.84	95.7238	7,464.84	96.0773	7,464.84	94.7462	7,464.84	93.1995	7,464.84	92.2423	7,464.84	90.326	7,464.84	90.3625	7,464.84	84.8609	7,464.84	86.7891	7,464.84	80.0118	7,464.84	83.0523	7,464.84	84.6549	7,464.84	79.9995	7,464.84	62.9964	7,464.84	77.2476	7,464.84	70.8943	7,464.84	70.4769	7,464.84	74.117	7,464.84	72.8912	7,464.84	56.8013	7,464.84	72.9596	7,464.84	63.1011	7,464.84	71.8878	7,464.84	70.4708	7,464.84	73.869	7,464.84	75.7	7,464.84	75.9857	7,464.84	69.0194	7,464.84	74.2709	7,464.84	74.4405	7,464.84	69.4679
7,727.05	99.4806	7,727.05	98.9118	7,727.05	98.9458	7,727.05	97.7884	7,727.05	97.3277	7,727.05	95.5245	7,727.05	95.0434	7,727.05	93.954	7,727.05	92.6717	7,727.05	92.1138	7,727.05	91.2248	7,727.05	89.4685	7,727.05	81.7027	7,727.05	86.0848	7,727.05	79.4939	7,727.05	81.4439	7,727.05	86.5935	7,727.05	77.753	7,727.05	73.9803	7,727.05	72.0278	7,727.05	70.8288	7,727.05	71.2629	7,727.05	72.0254	7,727.05	73.1671	7,727.05	64.717	7,727.05	72.6214	7,727.05	57.7828	7,727.05	70.7919	7,727.05	64.1706	7,727.05	73.3719	7,727.05	73.3954	7,727.05	75.4416	7,727.05	66.715	7,727.05	72.8521	7,727.05	68.6152	7,727.05	68.8895
7,999.51	99.1324	7,999.51	98.8058	7,999.51	98.8341	7,999.51	97.1104	7,999.51	97.3281	7,999.51	95.5652	7,999.51	95.1344	7,999.51	94.0038	7,999.51	93.2964	7,999.51	91.6726	7,999.51	90.9862	7,999.51	88.6326	7,999.51	80.9781	7,999.51	85.1624	7,999.51	85.5356	7,999.51	79.9735	7,999.51	83.4412	7,999.51	76.467	7,999.51	76.6656	7,999.51	73.9723	7,999.51	70.5827	7,999.51	67.8142	7,999.51	67.4556	7,999.51	66.8296	7,999.51	65.3182	7,999.51	70.1749	7,999.51	59.1919	7,999.51	71.4963	7,999.51	66.6103	7,999.51	67.3743	7,999.51	67.7342	7,999.51	72.9286	7,999.51	68.5593	7,999.51	72.8731	7,999.51	73.253	7,999.51	70.9881
8,282.23	99.7444	8,282.23	99.5453	8,282.23	98.958	8,282.23	97.6279	8,282.23	97.3593	8,282.23	95.5621	8,282.23	95.3846	8,282.23	93.457	8,282.23	94.3906	8,282.23	91.2066	8,282.23	90.3558	8,282.23	87.1651	8,282.23	81.4258	8,282.23	82.6245	8,282.23	85.6759	8,282.23	78.7052	8,282.23	81.0834	8,282.23	72.2211	8,282.23	77.0424	8,282.23	68.6499	8,282.23	74.631	8,282.23	65.9076	8,282.23	76.2535	8,282.23	70.2042	8,282.23	65.3151	8,282.23	62.9117	8,282.23	62.6555	8,282.23	66.93	8,282.23	58.5565	8,282.23	68.2391	8,282.23	67.8121	8,282.23	70.85	8,282.23	67.6958	8,282.23	71.7636	8,282.23	67.4623	8,282.23	71.1218
8,573.73	100.122	8,573.73	99.398	8,573.73	99.4874	8,573.73	97.4704	8,573.73	97.7463	8,573.73	95.4975	8,573.73	95.7404	8,573.73	93.2873	8,573.73	94.1021	8,573.73	90.0098	8,573.73	87.7083	8,573.73	85.591	8,573.73	85.7099	8,573.73	81.4534	8,573.73	84.2774	8,573.73	75.1846	8,573.73	79.6605	8,573.73	73.4138	8,573.73	72.2224	8,573.73	68.1893	8,573.73	73.7643	8,573.73	51.5058	8,573.73	75.7618	8,573.73	59.8327	8,573.73	63.9245	8,573.73	68.5207	8,573.73	65.3268	8,573.73	66.7847	8,573.73	61.5752	8,573.73	65.6769	8,573.73	67.6094	8,573.73	70.6519	8,573.73	66.5484	8,573.73	71.1598	8,573.73	67.6685	8,573.73	71.1461
8,876.95	100.177	8,876.95	99.6339	8,876.95	99.2057	8,876.95	97.737	8,876.95	97.7131	8,876.95	95.7163	8,876.95	95.5004	8,876.95	92.9673	8,876.95	93.3697	8,876.95	88.7318	8,876.95	86.9786	8,876.95	84.403	8,876.95	84.1677	8,876.95	77.3631	8,876.95	76.9022	8,876.95	71.3028	8,876.95	75.4076	8,876.95	68.2717	8,876.95	52.0464	8,876.95	69.4227	8,876.95	76.2493	8,876.95	56.7855	8,876.95	73.753	8,876.95	58.9884	8,876.95	66.5177	8,876.95	66.1265	8,876.95	65.8088	8,876.95	62.7982	8,876.95	52.5825	8,876.95	65.3828	8,876.95	59.2894	8,876.95	69.4388	8,876.95	66.4058	8,876.95	69.0506	8,876.95	68.3738	8,876.95	70.611
9,188.96	100.091	9,188.96	99.5252	9,188.96	99.6175	9,188.96	97.5509	9,188.96	97.6547	9,188.96	95.7149	9,188.96	95.0686	9,188.96	92.344	9,188.96	92.4745	9,188.96	88.2003	9,188.96	86.2106	9,188.96	82.1834	9,188.96	80.2475	9,188.96	75.697	9,188.96	72.7748	9,188.96	69.456	9,188.96	76.1016	9,188.96	59.2434	9,188.96	51.097	9,188.96	37.9977	9,188.96	74.1185	9,188.96	62.9731	9,188.96	73.8392	9,188.96	60.9013	9,188.96	66.0892	9,188.96	62.4733	9,188.96	52.8678	9,188.96	64.3036	9,188.96	56.4797	9,188.96	61.3364	9,188.96	63.4705	9,188.96	66.8356	9,188.96	64.181	9,188.96	67.3905	9,188.96	65.082	9,188.96	69.6175
9,514.16	100.329	9,514.16	99.6658	9,514.16	99.3774	9,514.16	97.8929	9,514.16	97.699	9,514.16	95.6205	9,514.16	94.4837	9,514.16	91.9213	9,514.16	90.3839	9,514.16	87.2487	9,514.16	84.3463	9,514.16	79.5382	9,514.16	76.8445	9,514.16	71.4534	9,514.16	69.597	9,514.16	56.7665	9,514.16	72.7908	9,514.16	60.3061	9,514.16	67.553	9,514.16	63.991	9,514.16	72.5025	9,514.16	64.0889	9,514.16	69.6966	9,514.16	63.3614	9,514.16	67.5425	9,514.16	60.2761	9,514.16	56.605	9,514.16	64.1409	9,514.16	63.5122	9,514.16	67.125	9,514.16	57.7748	9,514.16	66.1254	9,514.16	66.2081	9,514.16	64.2746	9,514.16	65.4864	9,514.16	68.8547
9,849.61	100.409	9,849.61	99.6354	9,849.61	99.7419	9,849.61	97.9199	9,849.61	97.2677	9,849.61	95.504	9,849.61	94.3219	9,849.61	91.7809	9,849.61	90.1398	9,849.61	85.3596	9,849.61	81.8836	9,849.61	75.1964	9,849.61	65.5997	9,849.61	64.1631	9,849.61	63.3563	9,849.61	71.9984	9,849.61	74.6548	9,849.61	70.776	9,849.61	67.4122	9,849.61	64.0935	9,849.61	73.615	9,849.61	64.8276	9,849.61	73.1824	9,849.61	65.9517	9,849.61	61.7572	9,849.61	66.0028	9,849.61	61.5864	9,849.61	67.2999	9,849.61	62.5449	9,849.61	67.9048	9,849.61	58.5538	9,849.61	65.2637	9,849.61	62.148	9,849.61	65.8209	9,849.61	66.2326	9,849.61	68.5107
10,196.8	100.681	10,196.8	99.9464	10,196.8	99.733	10,196.8	97.8535	10,196.8	97.0491	10,196.8	95.3439	10,196.8	93.9855	10,196.8	91.1697	10,196.8	87.7218	10,196.8	81.9529	10,196.8	81.0519	10,196.8	57.3014	10,196.8	59.2508	10,196.8	77.1625	10,196.8	66.528	10,196.8	75.0195	10,196.8	79.966	10,196.8	73.9112	10,196.8	77.3227	10,196.8	65.1302	10,196.8	70.9423	10,196.8	66.1633	10,196.8	73.5961	10,196.8	68.1781	10,196.8	67.8551	10,196.8	68.4287	10,196.8	64.5372	10,196.8	70.0362	10,196.8	65.2469	10,196.8	69.8458	10,196.8	44.6054	10,196.8	67.381	10,196.8	58.4812	10,196.8	65.9179	10,196.8	65.949	10,196.8	68.7324
10,555.7	100.722	10,555.7	99.6295	10,555.7	99.3695	10,555.7	97.3686	10,555.7	96.5035	10,555.7	95.4207	10,555.7	93.4903	10,555.7	89.6441	10,555.7	87.548	10,555.7	77.4087	10,555.7	77.0577	10,555.7	78.1114	10,555.7	77.7439	10,555.7	80.7529	10,555.7	77.2725	10,555.7	78.4243	10,555.7	84.2813	10,555.7	77.2184	10,555.7	79.7941	10,555.7	73.9561	10,555.7	65.2523	10,555.7	69.5704	10,555.7	73.0866	10,555.7	69.248	10,555.7	67.166	10,555.7	71.3607	10,555.7	64.1786	10,555.7	71.699	10,555.7	54.8387	10,555.7	72.1269	10,555.7	53.0013	10,555.7	70.2883	10,555.7	56.2103	10,555.7	66.3028	10,555.7	65.397	10,555.7	65.9427
10,927.7	100.765	10,927.7	99.0538	10,927.7	99.2584	10,927.7	97.5296	10,927.7	96.0227	10,927.7	94.4474	10,927.7	92.609	10,927.7	88.5643	10,927.7	87.1754	10,927.7	74.7906	10,927.7	75.1348	10,927.7	83.5753	10,927.7	83.8878	10,927.7	82.9598	10,927.7	78.6213	10,927.7	80.2037	10,927.7	81.7602	10,927.7	77.7471	10,927.7	78.1329	10,927.7	72.8209	10,927.7	72.0143	10,927.7	67.9714	10,927.7	77.9629	10,927.7	70.0594	10,927.7	64.6042	10,927.7	73.1361	10,927.7	62.3845	10,927.7	73.9244	10,927.7	58.9822	10,927.7	72.1761	10,927.7	58.6587	10,927.7	71.617	10,927.7	55.401	10,927.7	68.0002	10,927.7	65.0015	10,927.7	67.3607
11,313	100.3	11,313	99.0063	11,313	99.2834	11,313	96.9566	11,313	95.4574	11,313	93.7185	11,313	91.7287	11,313	86.5378	11,313	86.2294	11,313	84.198	11,313	82.8219	11,313	85.2166	11,313	86.6009	11,313	83.9803	11,313	76.8243	11,313	81.7655	11,313	82.0561	11,313	78.1917	11,313	77.7293	11,313	72.2107	11,313	77.7155	11,313	69.6894	11,313	81.8631	11,313	70.8603	11,313	69.2067	11,313	72.8198	11,313	56.5423	11,313	73.9541	11,313	66.1323	11,313	73.6017	11,313	62.6444	11,313	72.9075	11,313	65.0841	11,313	69.4099	11,313	56.1173	11,313	66.639
11,712.9	99.8998	11,712.9	98.8467	11,712.9	99.47	11,712.9	96.2883	11,712.9	96.1715	11,712.9	93.6567	11,712.9	90.4039	11,712.9	83.8955	11,712.9	85.0549	11,712.9	86.8111	11,712.9	86.3913	11,712.9	85.8084	11,712.9	84.8173	11,712.9	83.7407	11,712.9	82.4012	11,712.9	80.7013	11,712.9	84.4638	11,712.9	77.9727	11,712.9	78.1094	11,712.9	74.4433	11,712.9	75.8661	11,712.9	69.4225	11,712.9	79.9101	11,712.9	69.3359	11,712.9	66.211	11,712.9	72.4284	11,712.9	54.4064	11,712.9	73.506	11,712.9	60.0728	11,712.9	75.0305	11,712.9	57.9239	11,712.9	72.2308	11,712.9	60.9343	11,712.9	69.9587	11,712.9	58.4276	11,712.9	60.9602
12,126	99.7095	12,126	98.9942	12,126	99.3634	12,126	96.9466	12,126	96.2083	12,126	92.0935	12,126	90.8321	12,126	87.537	12,126	86.0624	12,126	87.0114	12,126	86.5855	12,126	86.0987	12,126	83.4124	12,126	83.3466	12,126	82.1088	12,126	81.766	12,126	82.6101	12,126	78.5944	12,126	75.6375	12,126	73.1081	12,126	72.8679	12,126	68.1305	12,126	76.543	12,126	70.1525	12,126	49.1401	12,126	73.2184	12,126	47.7361	12,126	73.7905	12,126	53.8054	12,126	74.8177	12,126	53.065	12,126	72.4915	12,126	36.951	12,126	71.304	12,126	53.3133	12,126	64.9714
12,553.7	99.4358	12,553.7	99.4065	12,553.7	98.8932	12,553.7	96.6983	12,553.7	96.6129	12,553.7	91.4357	12,553.7	92.1725	12,553.7	88.6154	12,553.7	86.5949	12,553.7	87.7735	12,553.7	85.2953	12,553.7	84.778	12,553.7	84.697	12,553.7	84.2302	12,553.7	81.4409	12,553.7	79.6351	12,553.7	79.1882	12,553.7	77.5998	12,553.7	74.3306	12,553.7	72.5184	12,553.7	69.5714	12,553.7	67.2707	12,553.7	73.5706	12,553.7	68.326	12,553.7	59.6467	12,553.7	72.6795	12,553.7	59.629	12,553.7	72.7839	12,553.7	54.5971	12,553.7	74.0137	12,553.7	44.1273	12,553.7	72.2027	12,553.7	61.3617	12,553.7	71.3393	12,553.7	56.4464	12,553.7	64.3675
12,996.1	99.6608	12,996.1	99.9898	12,996.1	98.8133	12,996.1	96.5542	12,996.1	97.138	12,996.1	91.5237	12,996.1	93.074	12,996.1	89.3927	12,996.1	87.0407	12,996.1	87.041	12,996.1	86.162	12,996.1	85.1874	12,996.1	84.9118	12,996.1	83.7324	12,996.1	79.3117	12,996.1	81.2881	12,996.1	76.7024	12,996.1	77.4057	12,996.1	75.3047	12,996.1	73.1949	12,996.1	75.5902	12,996.1	67.7155	12,996.1	77.2097	12,996.1	66.802	12,996.1	61.8186	12,996.1	72.731	12,996.1	59.2756	12,996.1	72.7061	12,996.1	51.8959	12,996.1	73.9006	12,996.1	41.1531	12,996.1	72.2126	12,996.1	56.7022	12,996.1	71.3059	12,996.1	49.5427	12,996.1	64.1542
13,454.6	100.105	13,454.6	100.338	13,454.6	99.2155	13,454.6	96.6772	13,454.6	97.2201	13,454.6	92.1414	13,454.6	92.6829	13,454.6	89.3601	13,454.6	87.4597	13,454.6	86.4929	13,454.6	85.3814	13,454.6	85.5018	13,454.6	85.3423	13,454.6	84.4036	13,454.6	79.5517	13,454.6	81.1364	13,454.6	75.1791	13,454.6	77.1754	13,454.6	74.8764	13,454.6	72.2992	13,454.6	78.4882	13,454.6	66.0466	13,454.6	79.479	13,454.6	67.4861	13,454.6	55.4886	13,454.6	72.1112	13,454.6	53.3532	13,454.6	72.2849	13,454.6	51.0915	13,454.6	72.095	13,454.6	46.939	13,454.6	70.6707	13,454.6	55.5541	13,454.6	70.9933	13,454.6	38.5861	13,454.6	64.5903
13,929.2	100.305	13,929.2	100.476	13,929.2	99.4091	13,929.2	96.6945	13,929.2	97.0422	13,929.2	92.8536	13,929.2	91.7268	13,929.2	88.5433	13,929.2	86.7225	13,929.2	86.0735	13,929.2	85.0132	13,929.2	86.2168	13,929.2	84.6094	13,929.2	85.0879	13,929.2	77.8321	13,929.2	81.8079	13,929.2	71.8845	13,929.2	77.4127	13,929.2	74.6857	13,929.2	71.1203	13,929.2	79.2773	13,929.2	64.5969	13,929.2	79.3284	13,929.2	67.9597	13,929.2	62.9523	13,929.2	71.3573	13,929.2	56.3542	13,929.2	71.5237	13,929.2	53.5571	13,929.2	70.6545	13,929.2	51.8361	13,929.2	70.6592	13,929.2	50.9359	13,929.2	72.6761	13,929.2	60.7648	13,929.2	67.6341
14,419.9	100.334	14,419.9	100.155	14,419.9	99.2051	14,419.9	96.6183	14,419.9	96.1692	14,419.9	92.8631	14,419.9	90.8859	14,419.9	87.6817	14,419.9	86.3621	14,419.9	86.0707	14,419.9	86.4308	14,419.9	87.0527	14,419.9	83.3222	14,419.9	84.6215	14,419.9	78	14,419.9	80.381	14,419.9	73.9318	14,419.9	76.209	14,419.9	72.5854	14,419.9	69.0375	14,419.9	80.3123	14,419.9	65.1473	14,419.9	79.5741	14,419.9	65.966	14,419.9	62.8858	14,419.9	69.2396	14,419.9	61.6937	14,419.9	69.009	14,419.9	56.0124	14,419.9	69.5714	14,419.9	54.7498	14,419.9	69.4838	14,419.9	42.4102	14,419.9	72.3	14,419.9	63.276	14,419.9	67.396
14,928.2	100.215	14,928.2	99.7994	14,928.2	98.78	14,928.2	96.4175	14,928.2	95.3351	14,928.2	92.6791	14,928.2	90.0632	14,928.2	86.6895	14,928.2	86.5517	14,928.2	86.6003	14,928.2	84.9666	14,928.2	86.2703	14,928.2	83.637	14,928.2	83.5279	14,928.2	78.546	14,928.2	78.2526	14,928.2	69.495	14,928.2	73.6494	14,928.2	74.2656	14,928.2	66.7088	14,928.2	80.3149	14,928.2	63.2862	14,928.2	79.5837	14,928.2	62.0066	14,928.2	62.1035	14,928.2	65.5152	14,928.2	52.6991	14,928.2	66.0481	14,928.2	58.8867	14,928.2	67.8427	14,928.2	49.8399	14,928.2	67.204	14,928.2	23.2179	14,928.2	70.467	14,928.2	64.3329	14,928.2	66.503
15,455.6	100.121	15,455.6	99.6205	15,455.6	98.5003	15,455.6	96.4801	15,455.6	94.6722	15,455.6	92.2018	15,455.6	89.6149	15,455.6	86.3277	15,455.6	84.6674	15,455.6	86.7152	15,455.6	85.5789	15,455.6	84.9617	15,455.6	81.339	15,455.6	80.2784	15,455.6	78.1706	15,455.6	74.4697	15,455.6	66.2741	15,455.6	71.1066	15,455.6	71.822	15,455.6	64.1632	15,455.6	80.2794	15,455.6	61.1851	15,455.6	78.1798	15,455.6	59.6176	15,455.6	64.4542	15,455.6	62.6034	15,455.6	57.712	15,455.6	63.4033	15,455.6	59.7839	15,455.6	65	15,455.6	55.7617	15,455.6	65.0521	15,455.6	48.0708	15,455.6	67.7134	15,455.6	62.5643	15,455.6	62.9203
16,000.5	99.9547	16,000.5	99.15	16,000.5	98.3971	16,000.5	96.2052	16,000.5	94.4312	16,000.5	91.8568	16,000.5	89.9244	16,000.5	85.9609	16,000.5	85.6437	16,000.5	86.2532	16,000.5	83.9918	16,000.5	82.1216	16,000.5	82.6825	16,000.5	77.7484	16,000.5	73.184	16,000.5	71.8301	16,000.5	67.7718	16,000.5	68.3557	16,000.5	70.379	16,000.5	61.5206	16,000.5	80.141	16,000.5	58.0796	16,000.5	78.9257	16,000.5	56.8068	16,000.5	61.7201	16,000.5	56.5556	16,000.5	61.0758	16,000.5	59.2182	16,000.5	61.1369	16,000.5	64.5279	16,000.5	55.1172	16,000.5	64.0671	16,000.5	48.9979	16,000.5	66.494	16,000.5	62.8947	16,000.5	61.4321
16,564.5	99.515	16,564.5	98.7132	16,564.5	97.895	16,564.5	96.0127	16,564.5	94.1024	16,564.5	91.2934	16,564.5	89.0407	16,564.5	85.6625	16,564.5	85.1471	16,564.5	84.2464	16,564.5	81.7561	16,564.5	79.0156	16,564.5	79.5433	16,564.5	74.8852	16,564.5	75.1225	16,564.5	70.4526	16,564.5	57.4049	16,564.5	64.9878	16,564.5	68.876	16,564.5	59.1535	16,564.5	80.3394	16,564.5	54.9055	16,564.5	78.2793	16,564.5	53.5419	16,564.5	59.0143	16,564.5	56.263	16,564.5	49.7946	16,564.5	57.6579	16,564.5	54.1304	16,564.5	62.3279	16,564.5	48.8881	16,564.5	61.9213	16,564.5	48.7245	16,564.5	63.0668	16,564.5	60.854	16,564.5	56.867
17,148.9	99.1486	17,148.9	98.4022	17,148.9	97.3071	17,148.9	95.7036	17,148.9	93.7079	17,148.9	90.7674	17,148.9	88.4866	17,148.9	84.9804	17,148.9	83.8332	17,148.9	81.1398	17,148.9	79.14	17,148.9	75.0335	17,148.9	73.2785	17,148.9	72.0254	17,148.9	70.7711	17,148.9	65.9208	17,148.9	59.8323	17,148.9	60.9237	17,148.9	67.2108	17,148.9	53.8142	17,148.9	78.7274	17,148.9	52.4539	17,148.9	76.7054	17,148.9	49.5346	17,148.9	58.981	17,148.9	46.0631	17,148.9	51.0038	17,148.9	48.7439	17,148.9	55.7644	17,148.9	58.9288	17,148.9	52.9573	17,148.9	57.8049	17,148.9	51.1095	17,148.9	58.7756	17,148.9	60.0551	17,148.9	48.4544
17,752.4	99.0216	17,752.4	98.3457	17,752.4	97.0485	17,752.4	95.3943	17,752.4	93.188	17,752.4	90.392	17,752.4	87.4031	17,752.4	83.3622	17,752.4	80.338	17,752.4	77.7049	17,752.4	74.5832	17,752.4	70.3184	17,752.4	70.3682	17,752.4	65.4206	17,752.4	61.7987	17,752.4	61.021	17,752.4	55.4083	17,752.4	53.1731	17,752.4	63.2408	17,752.4	46.9749	17,752.4	76.7739	17,752.4	45.4829	17,752.4	75.0087	17,752.4	40.3222	17,752.4	55.7171	17,752.4	33.337	17,752.4	42.2968	17,752.4	28.0408	17,752.4	50.9707	17,752.4	55.0463	17,752.4	47.9622	17,752.4	52.6223	17,752.4	54.2155	17,752.4	52.7952	17,752.4	57.6034	17,752.4	39.0467
18,379.4	98.9759	18,379.4	98.2384	18,379.4	97.0633	18,379.4	95.0663	18,379.4	92.8668	18,379.4	89.5567	18,379.4	85.6293	18,379.4	81.312	18,379.4	74.9229	18,379.4	71.8311	18,379.4	67.3565	18,379.4	54.4491	18,379.4	64.0958	18,379.4	50.875	18,379.4	55.5762	18,379.4	48.0973	18,379.4	47.768	18,379.4	41.1449	18,379.4	61.0031	18,379.4	38.3021	18,379.4	74.8661	18,379.4	42.6451	18,379.4	72.4921	18,379.4	31.2416	18,379.4	53.6682	18,379.4	44.2816	18,379.4	46.7266	18,379.4	41.6863	18,379.4	43.1249	18,379.4	50.971	18,379.4	45.9912	18,379.4	41.2574	18,379.4	54.2516	18,379.4	46.5562	18,379.4	54.928	18,379.4	42.997
19,026.9	99.1016	19,026.9	98.2032	19,026.9	97.0565	19,026.9	94.5679	19,026.9	92.3665	19,026.9	88.0913	19,026.9	83.4645	19,026.9	78.7156	19,026.9	59.6528	19,026.9	68.4774	19,026.9	71.0432	19,026.9	63.346	19,026.9	65.6537	19,026.9	56.9292	19,026.9	65.1582	19,026.9	51.8237	19,026.9	56.9238	19,026.9	48.6838	19,026.9	62.09	19,026.9	38.7054	19,026.9	73.9573	19,026.9	44.6598	19,026.9	70.7393	19,026.9	41.7076	19,026.9	48.2198	19,026.9	46.0727	19,026.9	42.396	19,026.9	43.9217	19,026.9	39.6112	19,026.9	42.0354	19,026.9	44.3155	19,026.9	47.5774	19,026.9	50.9405	19,026.9	39.6125	19,026.9	53.1806	19,026.9	43.8039
19,697.8	99.1151	19,697.8	97.9899	19,697.8	96.94	19,697.8	93.9964	19,697.8	91.352	19,697.8	86.1479	19,697.8	79.4079	19,697.8	77.2361	19,697.8	71.439	19,697.8	73.6861	19,697.8	75.9601	19,697.8	67.8012	19,697.8	72.7698	19,697.8	62.0499	19,697.8	63.5512	19,697.8	60.5104	19,697.8	59.5542	19,697.8	53.7635	19,697.8	61.5145	19,697.8	49.1087	19,697.8	75.1864	19,697.8	45.5898	19,697.8	71.9311	19,697.8	41.2211	19,697.8	51.98	19,697.8	54.4677	19,697.8	43.2188	19,697.8	48.1081	19,697.8	50.8701	19,697.8	52.2296	19,697.8	47.5632	19,697.8	55.2741	19,697.8	50.0864	19,697.8	43.6518	19,697.8	54.6795	19,697.8	46.6057
19,999.5	99.0774	19,999.5	97.8802	19,999.5	96.6293	19,999.5	93.7373	19,999.5	90.5596	19,999.5	84.8633	19,999.5	76.7071	19,999.5	76.8174	19,999.5	75.7102	19,999.5	74.844	19,999.5	76.0179	19,999.5	68.3128	19,999.5	74.672	19,999.5	63.9027	19,999.5	66.778	19,999.5	60.0775	19,999.5	60.714	19,999.5	57.1776	19,999.5	51.1848	19,999.5	48.1365	19,999.5	74.9182	19,999.5	36.3608	19,999.5	71.9515	19,999.5	52.8868	19,999.5	52.6217	19,999.5	60.9165	19,999.5	44.8631	19,999.5	56.4389	19,999.5	66.8085	19,999.5	57.3025	19,999.5	55.7158	19,999.5	61.0405	19,999.5	62.3749	19,999.5	53.7839	19,999.5	53.4827	19,999.5	50.0341
