"SPL Vertical"
"On-Axis"		"10°"		"-10°"		"20°"		"-20°"		"30°"		"-30°"		"40°"		"-40°"		"50°"		"-50°"		"60°"		"-60°"		"70°"		"-70°"		"80°"		"-80°"		"90°"		"-90°"		"100°"		"-100°"		"110°"		"-110°"		"120°"		"-120°"		"130°"		"-130°"		"140°"		"-140°"		"150°"		"-150°"		"160°"		"-160°"		"170°"		"-170°"		"180°"
"Frequency [Hz]"	"Sound Pessure Level [dB]   [2.83V at 1m]"	"Frequency [Hz]"	"Sound Pessure Level [dB]   [2.83V at 1m]"	"Frequency [Hz]"	"Sound Pessure Level [dB]   [2.83V at 1m]"	"Frequency [Hz]"	"Sound Pessure Level [dB]   [2.83V at 1m]"	"Frequency [Hz]"	"Sound Pessure Level [dB]   [2.83V at 1m]"	"Frequency [Hz]"	"Sound Pessure Level [dB]   [2.83V at 1m]"	"Frequency [Hz]"	"Sound Pessure Level [dB]   [2.83V at 1m]"	"Frequency [Hz]"	"Sound Pessure Level [dB]   [2.83V at 1m]"	"Frequency [Hz]"	"Sound Pessure Level [dB]   [2.83V at 1m]"	"Frequency [Hz]"	"Sound Pessure Level [dB]   [2.83V at 1m]"	"Frequency [Hz]"	"Sound Pessure Level [dB]   [2.83V at 1m]"	"Frequency [Hz]"	"Sound Pessure Level [dB]   [2.83V at 1m]"	"Frequency [Hz]"	"Sound Pessure Level [dB]   [2.83V at 1m]"	"Frequency [Hz]"	"Sound Pessure Level [dB]   [2.83V at 1m]"	"Frequency [Hz]"	"Sound Pessure Level [dB]   [2.83V at 1m]"	"Frequency [Hz]"	"Sound Pessure Level [dB]   [2.83V at 1m]"	"Frequency [Hz]"	"Sound Pessure Level [dB]   [2.83V at 1m]"	"Frequency [Hz]"	"Sound Pessure Level [dB]   [2.83V at 1m]"	"Frequency [Hz]"	"Sound Pessure Level [dB]   [2.83V at 1m]"	"Frequency [Hz]"	"Sound Pessure Level [dB]   [2.83V at 1m]"	"Frequency [Hz]"	"Sound Pessure Level [dB]   [2.83V at 1m]"	"Frequency [Hz]"	"Sound Pessure Level [dB]   [2.83V at 1m]"	"Frequency [Hz]"	"Sound Pessure Level [dB]   [2.83V at 1m]"	"Frequency [Hz]"	"Sound Pessure Level [dB]   [2.83V at 1m]"	"Frequency [Hz]"	"Sound Pessure Level [dB]   [2.83V at 1m]"	"Frequency [Hz]"	"Sound Pessure Level [dB]   [2.83V at 1m]"	"Frequency [Hz]"	"Sound Pessure Level [dB]   [2.83V at 1m]"	"Frequency [Hz]"	"Sound Pessure Level [dB]   [2.83V at 1m]"	"Frequency [Hz]"	"Sound Pessure Level [dB]   [2.83V at 1m]"	"Frequency [Hz]"	"Sound Pessure Level [dB]   [2.83V at 1m]"	"Frequency [Hz]"	"Sound Pessure Level [dB]   [2.83V at 1m]"	"Frequency [Hz]"	"Sound Pessure Level [dB]   [2.83V at 1m]"	"Frequency [Hz]"	"Sound Pessure Level [dB]   [2.83V at 1m]"	"Frequency [Hz]"	"Sound Pessure Level [dB]   [2.83V at 1m]"	"Frequency [Hz]"	"Sound Pessure Level [dB]   [2.83V at 1m]"	"Frequency [Hz]"	"Sound Pessure Level [dB]   [2.83V at 1m]"
20.5078	37.556	20.5078	40.5439	20.5078	35.2477	20.5078	43.5124	20.5078	34.502	20.5078	46.1812	20.5078	35.4107	20.5078	48.4737	20.5078	37.297	20.5078	50.3797	20.5078	39.4925	20.5078	51.905	20.5078	41.5867	20.5078	53.0595	20.5078	43.392	20.5078	53.8562	20.5078	44.8536	20.5078	54.3148	20.5078	45.9825	20.5078	54.4637	20.5078	46.8202	20.5078	54.341	20.5078	47.4232	20.5078	53.9928	20.5078	47.855	20.5078	53.4712	20.5078	48.1813	20.5078	52.8309	20.5078	48.4654	20.5078	52.1259	20.5078	48.7632	20.5078	51.4069	20.5078	49.1183	20.5078	50.7181	20.5078	49.5588	20.5078	50.0945
21.9727	45.9976	21.9727	46.9508	21.9727	45.4085	21.9727	48.2683	21.9727	45.1026	21.9727	49.8204	21.9727	45.0357	21.9727	51.4206	21.9727	45.2443	21.9727	52.9118	21.9727	45.7771	21.9727	54.1928	21.9727	46.5961	21.9727	55.2086	21.9727	47.567	21.9727	55.9363	21.9727	48.5402	21.9727	56.3765	21.9727	49.4147	21.9727	56.5485	21.9727	50.1479	21.9727	56.4864	21.9727	50.7396	21.9727	56.2352	21.9727	51.2133	21.9727	55.8454	21.9727	51.6025	21.9727	55.3676	21.9727	51.9422	21.9727	54.8478	21.9727	52.2647	21.9727	54.324	21.9727	52.597	21.9727	53.8249	21.9727	52.9602	21.9727	53.3681
23.4375	58.3985	23.4375	58.7129	23.4375	58.185	23.4375	59.1175	23.4375	58.0727	23.4375	59.5894	23.4375	58.0532	23.4375	60.0936	23.4375	58.1108	23.4375	60.5855	23.4375	58.223	23.4375	61.0171	23.4375	58.3623	23.4375	61.3439	23.4375	58.4999	23.4375	61.5324	23.4375	58.6105	23.4375	61.5649	23.4375	58.6768	23.4375	61.442	23.4375	58.6926	23.4375	61.1825	23.4375	58.6632	23.4375	60.8197	23.4375	58.6032	23.4375	60.396	23.4375	58.5323	23.4375	59.9557	23.4375	58.4713	23.4375	59.5385	23.4375	58.4393	23.4375	59.174	23.4375	58.4524	23.4375	58.8802	23.4375	58.5238	23.4375	58.664
24.9023	58.352	24.9023	58.4355	24.9023	58.3045	24.9023	58.5895	24.9023	58.2735	24.9023	58.8498	24.9023	58.2584	24.9023	59.2309	24.9023	58.2724	24.9023	59.7079	24.9023	58.3315	24.9023	60.2185	24.9023	58.4409	24.9023	60.6832	24.9023	58.5867	24.9023	61.0305	24.9023	58.7389	24.9023	61.2139	24.9023	58.8636	24.9023	61.2172	24.9023	58.9363	24.9023	61.0532	24.9023	58.9492	24.9023	60.758	24.9023	58.9112	24.9023	60.3818	24.9023	58.8429	24.9023	59.9789	24.9023	58.7699	24.9023	59.5975	24.9023	58.7165	24.9023	59.2717	24.9023	58.702	24.9023	59.0191	24.9023	58.7408	24.9023	58.8436
26.3672	61.5424	26.3672	61.6966	26.3672	61.4453	26.3672	61.9188	26.3672	61.3967	26.3672	62.2149	26.3672	61.3928	26.3672	62.5773	26.3672	61.4331	26.3672	62.9794	26.3672	61.5145	26.3672	63.3776	26.3672	61.6272	26.3672	63.7209	26.3672	61.7526	26.3672	63.9634	26.3672	61.8674	26.3672	64.0751	26.3672	61.9506	26.3672	64.0472	26.3672	61.9901	26.3672	63.8928	26.3672	61.9859	26.3672	63.6413	26.3672	61.9489	26.3672	63.331	26.3672	61.8966	26.3672	63.0006	26.3672	61.8486	26.3672	62.6828	26.3672	61.8225	26.3672	62.4015	26.3672	61.8324	26.3672	62.1719	26.3672	61.8893	26.3672	62.001
27.832	63.7971	27.832	63.9594	27.832	63.6845	27.832	64.177	27.832	63.6172	27.832	64.4509	27.832	63.593	27.832	64.7725	27.832	63.6109	27.832	65.1191	27.832	63.6677	27.832	65.4555	27.832	63.7538	27.832	65.7403	27.832	63.8532	27.832	65.9357	27.832	63.9467	27.832	66.0168	27.832	64.0177	27.832	65.9773	27.832	64.0579	27.832	65.8302	27.832	64.0686	27.832	65.604	27.832	64.0598	27.832	65.3345	27.832	64.0451	27.832	65.0568	27.832	64.0381	27.832	64.7981	27.832	64.0493	27.832	64.5748	27.832	64.0857	27.832	64.3933	27.832	64.1525	27.832	64.2536
29.2969	65.0375	29.2969	65.1958	29.2969	64.9273	29.2969	65.4077	29.2969	64.8609	29.2969	65.6753	29.2969	64.8367	29.2969	65.9909	29.2969	64.8544	29.2969	66.3332	29.2969	64.9112	29.2969	66.6678	29.2969	64.9982	29.2969	66.9544	29.2969	65.0999	29.2969	67.156	29.2969	65.1974	29.2969	67.2482	29.2969	65.2748	29.2969	67.2254	29.2969	65.3243	29.2969	67.1006	29.2969	65.3479	29.2969	66.9014	29.2969	65.3556	29.2969	66.6619	29.2969	65.3611	29.2969	66.4141	29.2969	65.377	29.2969	66.1815	29.2969	65.4119	29.2969	65.9773	29.2969	65.4704	29.2969	65.8056	29.2969	65.5545	29.2969	65.6655
30.7617	68.0035	30.7617	68.1302	30.7617	67.9071	30.7617	68.2886	30.7617	67.8395	30.7617	68.4772	30.7617	67.7993	30.7617	68.6885	30.7617	67.7844	30.7617	68.9069	30.7617	67.7901	30.7617	69.1082	30.7617	67.8078	30.7617	69.2633	30.7617	67.8255	30.7617	69.3449	30.7617	67.8303	30.7617	69.3349	30.7617	67.8129	30.7617	69.2302	30.7617	67.7711	30.7617	69.0443	30.7617	67.7106	30.7617	68.8038	30.7617	67.6432	30.7617	68.5415	30.7617	67.5826	30.7617	68.2878	30.7617	67.5402	30.7617	68.0647	30.7617	67.523	30.7617	67.8827	30.7617	67.5336	30.7617	67.7429	30.7617	67.5726	30.7617	67.6413
32.2266	69.7705	32.2266	69.8628	32.2266	69.6907	32.2266	69.9715	32.2266	69.6213	32.2266	70.0992	32.2266	69.5617	32.2266	70.2447	32.2266	69.5127	32.2266	70.399	32.2266	69.4742	32.2266	70.5446	32.2266	69.4434	32.2266	70.6575	32.2266	69.4139	32.2266	70.7131	32.2266	69.3778	32.2266	70.6938	32.2266	69.3285	32.2266	70.5947	32.2266	69.2639	32.2266	70.4257	32.2266	69.1881	32.2266	70.2081	32.2266	69.1105	32.2266	69.9689	32.2266	69.0423	32.2266	69.7333	32.2266	68.9937	32.2266	69.5203	32.2266	68.9716	32.2266	69.3406	32.2266	68.9796	32.2266	69.1977	32.2266	69.0191	32.2266	69.0912
33.6914	71.331	33.6914	71.4113	33.6914	71.2591	33.6914	71.5032	33.6914	71.1939	33.6914	71.6094	33.6914	71.1356	33.6914	71.7291	33.6914	71.0853	33.6914	71.8555	33.6914	71.0434	33.6914	71.9737	33.6914	71.0083	33.6914	72.0633	33.6914	70.975	33.6914	72.1031	33.6914	70.9375	33.6914	72.0781	33.6914	70.8908	33.6914	71.9849	33.6914	70.8341	33.6914	71.8336	33.6914	70.7717	33.6914	71.6446	33.6914	70.7118	33.6914	71.4422	33.6914	70.6633	33.6914	71.2484	33.6914	70.6334	33.6914	71.0776	33.6914	70.6259	33.6914	70.9362	33.6914	70.6414	33.6914	70.8246	33.6914	70.6795	33.6914	70.74
35.1562	72.8964	35.1562	72.9717	35.1562	72.825	35.1562	73.0532	35.1562	72.756	35.1562	73.1435	35.1562	72.69	35.1562	73.2422	35.1562	72.6282	35.1562	73.3435	35.1562	72.5718	35.1562	73.4353	35.1562	72.5199	35.1562	73.5002	35.1562	72.4694	35.1562	73.5202	35.1562	72.4163	35.1562	73.4831	35.1562	72.358	35.1562	73.3869	35.1562	72.2952	35.1562	73.2418	35.1562	72.233	35.1562	73.0667	35.1562	72.179	35.1562	72.8839	35.1562	72.1409	35.1562	72.7118	35.1562	72.1236	35.1562	72.5618	35.1562	72.1284	35.1562	72.4378	35.1562	72.1541	35.1562	72.3382	35.1562	72.1982	35.1562	72.2593
36.6211	74.3818	36.6211	74.4464	36.6211	74.3144	36.6211	74.5107	36.6211	74.2433	36.6211	74.5773	36.6211	74.169	36.6211	74.6465	36.6211	74.0934	36.6211	74.7141	36.6211	74.0182	36.6211	74.7705	36.6211	73.944	36.6211	74.8012	36.6211	73.8696	36.6211	74.7913	36.6211	73.7929	36.6211	74.7304	36.6211	73.7128	36.6211	74.6177	36.6211	73.6311	36.6211	74.4632	36.6211	73.5531	36.6211	74.2846	36.6211	73.486	36.6211	74.1025	36.6211	73.4369	36.6211	73.934	36.6211	73.4098	36.6211	73.7895	36.6211	73.4056	36.6211	73.6721	36.6211	73.4223	36.6211	73.5801	36.6211	73.4574	36.6211	73.5096
38.0859	75.7126	38.0859	75.7739	38.0859	75.6484	38.0859	75.834	38.0859	75.5809	38.0859	75.8946	38.0859	75.511	38.0859	75.9557	38.0859	75.4406	38.0859	76.0134	38.0859	75.3712	38.0859	76.0593	38.0859	75.3031	38.0859	76.0807	38.0859	75.2347	38.0859	76.0647	38.0859	75.1638	38.0859	76.0028	38.0859	75.0891	38.0859	75.8948	38.0859	75.0121	38.0859	75.7503	38.0859	74.9379	38.0859	75.5857	38.0859	74.8732	38.0859	75.4194	38.0859	74.8246	38.0859	75.2663	38.0859	74.7964	38.0859	75.1351	38.0859	74.7895	38.0859	75.0285	38.0859	74.8024	38.0859	74.9445	38.0859	74.8331	38.0859	74.8803
39.5508	77.3944	39.5508	77.426	39.5508	77.3546	39.5508	77.4506	39.5508	77.3068	39.5508	77.4696	39.5508	77.2527	39.5508	77.4837	39.5508	77.1941	39.5508	77.4914	39.5508	77.1325	39.5508	77.4876	39.5508	77.0676	39.5508	77.465	39.5508	76.9975	39.5508	77.416	39.5508	76.9198	39.5508	77.3364	39.5508	76.8338	39.5508	77.2284	39.5508	76.7424	39.5508	77.1009	39.5508	76.6518	39.5508	76.9669	39.5508	76.5707	39.5508	76.8395	39.5508	76.5065	39.5508	76.7283	39.5508	76.4633	39.5508	76.6377	39.5508	76.4415	39.5508	76.5674	39.5508	76.4385	39.5508	76.5148	39.5508	76.451	39.5508	76.4765
41.0156	78.6335	41.0156	78.6616	41.0156	78.5928	41.0156	78.678	41.0156	78.5398	41.0156	78.6846	41.0156	78.4763	41.0156	78.6823	41.0156	78.4045	41.0156	78.6707	41.0156	78.3267	41.0156	78.6462	41.0156	78.2437	41.0156	78.6031	41.0156	78.1549	41.0156	78.5358	41.0156	78.0595	41.0156	78.4418	41.0156	77.9582	41.0156	78.3243	41.0156	77.8551	41.0156	78.1925	41.0156	77.7571	41.0156	78.0587	41.0156	77.6727	41.0156	77.9351	41.0156	77.6089	41.0156	77.8296	41.0156	77.5688	41.0156	77.7452	41.0156	77.5513	41.0156	77.6803	41.0156	77.5525	41.0156	77.6313	41.0156	77.568	41.0156	77.5945
42.4805	79.8148	42.4805	79.8427	42.4805	79.7708	42.4805	79.8552	42.4805	79.711	42.4805	79.8541	42.4805	79.6376	42.4805	79.8406	42.4805	79.5531	42.4805	79.8148	42.4805	79.4602	42.4805	79.7741	42.4805	79.3603	42.4805	79.7145	42.4805	79.2539	42.4805	79.6319	42.4805	79.1413	42.4805	79.525	42.4805	79.0244	42.4805	79.3979	42.4805	78.908	42.4805	79.2598	42.4805	78.8	42.4805	79.1224	42.4805	78.709	42.4805	78.9967	42.4805	78.6419	42.4805	78.8897	42.4805	78.6014	42.4805	78.8033	42.4805	78.5857	42.4805	78.7356	42.4805	78.5905	42.4805	78.6828	42.4805	78.6104	42.4805	78.6416
43.9453	80.9481	43.9453	80.9682	43.9453	80.9084	43.9453	80.9693	43.9453	80.8495	43.9453	80.9533	43.9453	80.7734	43.9453	80.9218	43.9453	80.6827	43.9453	80.8753	43.9453	80.5803	43.9453	80.8127	43.9453	80.468	43.9453	80.7315	43.9453	80.3471	43.9453	80.629	43.9453	80.2186	43.9453	80.5056	43.9453	80.0855	43.9453	80.3659	43.9453	79.9533	43.9453	80.219	43.9453	79.8302	43.9453	80.0763	43.9453	79.7251	43.9453	79.9477	43.9453	79.6449	43.9453	79.8397	43.9453	79.5926	43.9453	79.7536	43.9453	79.5665	43.9453	79.6875	43.9453	79.5623	43.9453	79.6375	43.9453	79.5749	43.9453	79.6004
45.4102	81.8973	45.4102	81.9158	45.4102	81.8545	45.4102	81.9108	45.4102	81.7879	45.4102	81.8845	45.4102	81.6999	45.4102	81.8394	45.4102	81.594	45.4102	81.777	45.4102	81.4742	45.4102	81.6975	45.4102	81.3438	45.4102	81.5999	45.4102	81.2057	45.4102	81.4828	45.4102	81.0624	45.4102	81.3472	45.4102	80.9175	45.4102	81.1977	45.4102	80.7766	45.4102	81.0429	45.4102	80.6471	45.4102	80.8931	45.4102	80.537	45.4102	80.7577	45.4102	80.4521	45.4102	80.6428	45.4102	80.3946	45.4102	80.5503	45.4102	80.3633	45.4102	80.479	45.4102	80.3544	45.4102	80.4257	45.4102	80.3635	45.4102	80.3876
46.875	82.5949	46.875	82.6139	46.875	82.5506	46.875	82.6087	46.875	82.482	46.875	82.5814	46.875	82.392	46.875	82.5352	46.875	82.2849	46.875	82.4726	46.875	82.1654	46.875	82.3951	46.875	82.0379	46.875	82.3032	46.875	81.9065	46.875	82.197	46.875	81.7744	46.875	82.0784	46.875	81.6459	46.875	81.9522	46.875	81.5266	46.875	81.8258	46.875	81.4234	46.875	81.7076	46.875	81.3425	46.875	81.6042	46.875	81.2878	46.875	81.5187	46.875	81.2593	46.875	81.4506	46.875	81.2534	46.875	81.3968	46.875	81.2645	46.875	81.3534	46.875	81.2871	46.875	81.3172
48.3398	83.2905	48.3398	83.3041	48.3398	83.251	48.3398	83.2926	48.3398	83.1867	48.3398	83.2586	48.3398	83.1005	48.3398	83.2054	48.3398	82.9969	48.3398	83.1362	48.3398	82.8809	48.3398	83.0535	48.3398	82.7573	48.3398	82.959	48.3398	82.6305	48.3398	82.8543	48.3398	82.5046	48.3398	82.7424	48.3398	82.3842	48.3398	82.6288	48.3398	82.2754	48.3398	82.5204	48.3398	82.1848	48.3398	82.4243	48.3398	82.1181	48.3398	82.3449	48.3398	82.0779	48.3398	82.2831	48.3398	82.0627	48.3398	82.2363	48.3398	82.0678	48.3398	82.1998	48.3398	82.0863	48.3398	82.1689	48.3398	82.1119	48.3398	82.14
51.2695	84.6361	51.2695	84.6431	51.2695	84.599	51.2695	84.6209	51.2695	84.5328	51.2695	84.5721	51.2695	84.4409	51.2695	84.5006	51.2695	84.3282	51.2695	84.4109	51.2695	84.2005	51.2695	84.3071	51.2695	84.064	51.2695	84.1929	51.2695	83.9245	51.2695	84.0725	51.2695	83.788	51.2695	83.9513	51.2695	83.661	51.2695	83.8361	51.2695	83.5506	51.2695	83.7345	51.2695	83.4641	51.2695	83.6525	51.2695	83.4064	51.2695	83.5927	51.2695	83.3785	51.2695	83.5532	51.2695	83.3767	51.2695	83.5284	51.2695	83.3937	51.2695	83.5113	51.2695	83.4207	51.2695	83.4951	51.2695	83.4496	51.2695	83.4751
52.7344	85.2425	52.7344	85.2462	52.7344	85.2065	52.7344	85.2185	52.7344	85.1392	52.7344	85.1622	52.7344	85.0441	52.7344	85.0816	52.7344	84.9265	52.7344	84.9816	52.7344	84.7924	52.7344	84.8674	52.7344	84.6488	52.7344	84.7439	52.7344	84.5022	52.7344	84.6165	52.7344	84.3594	52.7344	84.4915	52.7344	84.2278	52.7344	84.3766	52.7344	84.1153	52.7344	84.2792	52.7344	84.0293	52.7344	84.2045	52.7344	83.9745	52.7344	84.1538	52.7344	83.9514	52.7344	84.1238	52.7344	83.9553	52.7344	84.1077	52.7344	83.9779	52.7344	84.0975	52.7344	84.0094	52.7344	84.0857	52.7344	84.0413	52.7344	84.0675
54.1992	85.7555	54.1992	85.7567	54.1992	85.7197	54.1992	85.724	54.1992	85.6504	54.1992	85.6607	54.1992	85.5512	54.1992	85.5715	54.1992	85.4277	54.1992	85.4618	54.1992	85.2866	54.1992	85.3378	54.1992	85.1354	54.1992	85.2056	54.1992	84.9815	54.1992	85.0719	54.1992	84.8329	54.1992	84.9441	54.1992	84.6979	54.1992	84.8305	54.1992	84.5851	54.1992	84.7384	54.1992	84.5022	54.1992	84.6724	54.1992	84.4534	54.1992	84.6324	54.1992	84.4383	54.1992	84.6135	54.1992	84.4509	54.1992	84.6076	54.1992	84.4817	54.1992	84.6055	54.1992	84.5197	54.1992	84.599	54.1992	84.5556	54.1992	84.5829
55.6641	86.2097	55.6641	86.2081	55.6641	86.1736	55.6641	86.17	55.6641	86.1012	55.6641	86.0985	55.6641	85.9965	55.6641	85.9988	55.6641	85.8652	55.6641	85.877	55.6641	85.7147	55.6641	85.7402	55.6641	85.5531	55.6641	85.5956	55.6641	85.3889	55.6641	85.4512	55.6641	85.2309	55.6641	85.3158	55.6641	85.0885	55.6641	85.1981	55.6641	84.9709	55.6641	85.106	55.6641	84.8862	55.6641	85.0435	55.6641	84.8387	55.6641	85.0097	55.6641	84.8271	55.6641	84.9984	55.6641	84.8446	55.6641	85.0001	55.6641	84.8804	55.6641	85.0045	55.6641	84.9227	55.6641	85.0026	55.6641	84.9612	55.6641	84.9887
58.5938	87.1443	58.5938	87.1338	58.5938	87.1119	58.5938	87.0817	58.5938	87.0381	58.5938	86.9916	58.5938	86.9272	58.5938	86.8694	58.5938	86.7855	58.5938	86.7228	58.5938	86.6215	58.5938	86.5606	58.5938	86.4444	58.5938	86.3927	58.5938	86.2642	58.5938	86.2296	58.5938	86.0912	58.5938	86.0826	58.5938	85.9364	58.5938	85.9623	58.5938	85.8106	58.5938	85.8765	58.5938	85.7227	58.5938	85.8277	58.5938	85.6771	58.5938	85.8121	58.5938	85.6716	58.5938	85.8202	58.5938	85.6973	58.5938	85.8399	58.5938	85.7415	58.5938	85.8589	58.5938	85.7904	58.5938	85.8672	58.5938	85.8321	58.5938	85.8588
60.0586	87.4853	60.0586	87.47	60.0586	87.4553	60.0586	87.4108	60.0586	87.3817	60.0586	87.3115	60.0586	87.2687	60.0586	87.1783	60.0586	87.1233	60.0586	87.0195	60.0586	86.9539	60.0586	86.8448	60.0586	86.7705	60.0586	86.6652	60.0586	86.5837	60.0586	86.4927	60.0586	86.4047	60.0586	86.3397	60.0586	86.2451	60.0586	86.2177	60.0586	86.1164	60.0586	86.1346	60.0586	86.0278	60.0586	86.0925	60.0586	85.9836	60.0586	86.0863	60.0586	85.9811	60.0586	86.1051	60.0586	86.0105	60.0586	86.1354	60.0586	86.0581	60.0586	86.1636	60.0586	86.1091	60.0586	86.1792	60.0586	86.151	60.0586	86.1755
62.9883	88.1442	62.9883	88.1149	62.9883	88.1223	62.9883	88.036	62.9883	88.0509	62.9883	87.9117	62.9883	87.9345	62.9883	87.749	62.9883	87.7801	62.9883	87.5573	62.9883	87.597	62.9883	87.348	62.9883	87.3959	62.9883	87.1344	62.9883	87.1888	62.9883	86.9311	62.9883	86.9884	62.9883	86.7533	62.9883	86.8083	62.9883	86.6146	62.9883	86.6617	62.9883	86.5246	62.9883	86.5592	62.9883	86.4851	62.9883	86.5053	62.9883	86.4896	62.9883	86.497	62.9883	86.5247	62.9883	86.523	62.9883	86.5739	62.9883	86.5678	62.9883	86.6212	62.9883	86.6147	62.9883	86.6539	62.9883	86.6499	62.9883	86.6642
64.4531	88.4373	64.4531	88.4031	64.4531	88.417	64.4531	88.316	64.4531	88.344	64.4531	88.1804	64.4531	88.2227	64.4531	88.0035	64.4531	88.0603	64.4531	87.7951	64.4531	87.8664	64.4531	87.5669	64.4531	87.652	64.4531	87.3329	64.4531	87.4295	64.4531	87.1083	64.4531	87.2124	64.4531	86.9094	64.4531	87.0147	64.4531	86.751	64.4531	86.8506	64.4531	86.6437	64.4531	86.7313	64.4531	86.5908	64.4531	86.6622	64.4531	86.5861	64.4531	86.6405	64.4531	86.6164	64.4531	86.6554	64.4531	86.6646	64.4531	86.6907	64.4531	86.7139	64.4531	86.7297	64.4531	86.7505	64.4531	86.758	64.4531	86.7661
67.3828	88.9379	67.3828	88.9132	67.3828	88.9069	67.3828	88.8342	67.3828	88.8219	67.3828	88.706	67.3828	88.688	67.3828	88.5364	67.3828	88.5132	67.3828	88.3356	67.3828	88.3082	67.3828	88.1159	67.3828	88.0854	67.3828	87.8909	67.3828	87.8577	67.3828	87.6749	67.3828	87.6386	67.3828	87.4816	67.3828	87.4411	67.3828	87.3232	67.3828	87.2773	67.3828	87.2078	67.3828	87.1562	67.3828	87.1373	67.3828	87.0817	67.3828	87.1071	67.3828	87.051	67.3828	87.107	67.3828	87.055	67.3828	87.1238	67.3828	87.0806	67.3828	87.1445	67.3828	87.1136	67.3828	87.1581	67.3828	87.1421	67.3828	87.158
68.8477	89.139	68.8477	89.1108	68.8477	89.1115	68.8477	89.0287	68.8477	89.0302	68.8477	88.8982	68.8477	88.9004	68.8477	88.7277	68.8477	88.7307	68.8477	88.5289	68.8477	88.5325	68.8477	88.3154	68.8477	88.319	68.8477	88.1023	68.8477	88.1043	68.8477	87.9051	68.8477	87.9028	68.8477	87.7383	68.8477	87.7278	68.8477	87.6128	68.8477	87.5912	68.8477	87.5343	68.8477	87.5006	68.8477	87.5015	68.8477	87.4576	68.8477	87.5062	68.8477	87.4568	68.8477	87.5356	68.8477	87.4869	68.8477	87.5753	68.8477	87.5332	68.8477	87.6119	68.8477	87.5811	68.8477	87.6347	68.8477	87.6186	68.8477	87.6375
71.7773	89.5823	71.7773	89.5434	71.7773	89.5609	71.7773	89.4461	71.7773	89.4808	71.7773	89.2965	71.7773	89.3479	71.7773	89.1043	71.7773	89.1716	71.7773	88.8829	71.7773	88.9644	71.7773	88.6485	71.7773	88.7412	71.7773	88.4194	71.7773	88.5185	71.7773	88.2145	71.7773	88.3132	71.7773	88.0512	71.7773	88.1415	71.7773	87.9423	71.7773	88.0169	71.7773	87.8926	71.7773	87.9471	71.7773	87.8981	71.7773	87.932	71.7773	87.9459	71.7773	87.9626	71.7773	88.0185	71.7773	88.0235	71.7773	88.0972	71.7773	88.096	71.7773	88.1655	71.7773	88.1624	71.7773	88.211	71.7773	88.2088	71.7773	88.2261
74.707	89.9709	74.707	89.9256	74.707	89.9503	74.707	89.8169	74.707	89.866	74.707	89.6513	74.707	89.7239	74.707	89.4396	74.707	89.5343	74.707	89.1967	74.707	89.3111	74.707	88.9408	74.707	89.0708	74.707	88.6927	74.707	88.832	74.707	88.4743	74.707	88.6141	74.707	88.3053	74.707	88.4352	74.707	88.1999	74.707	88.3104	74.707	88.1631	74.707	88.2476	74.707	88.1884	74.707	88.2456	74.707	88.26	74.707	88.2933	74.707	88.3568	74.707	88.3725	74.707	88.4569	74.707	88.462	74.707	88.5419	74.707	88.542	74.707	88.5979	74.707	88.597	74.707	88.6169
77.6367	90.3139	77.6367	90.2651	77.6367	90.292	77.6367	90.1481	77.6367	90.2014	77.6367	89.97	77.6367	90.0489	77.6367	89.7423	77.6367	89.8454	77.6367	89.4811	77.6367	89.606	77.6367	89.2062	77.6367	89.3489	77.6367	88.9403	77.6367	89.0948	77.6367	88.7076	77.6367	88.8652	77.6367	88.5299	77.6367	88.6804	77.6367	88.4228	77.6367	88.5563	77.6367	88.3915	77.6367	88.5011	77.6367	88.4287	77.6367	88.5119	77.6367	88.5165	77.6367	88.5751	77.6367	88.6312	77.6367	88.6698	77.6367	88.7488	77.6367	88.7725	77.6367	88.8486	77.6367	88.8619	77.6367	88.9154	77.6367	88.9213	77.6367	88.9405
79.1016	90.4862	79.1016	90.4359	79.1016	90.4631	79.1016	90.3149	79.1016	90.3688	79.1016	90.1306	79.1016	90.21	79.1016	89.8951	79.1016	89.9981	79.1016	89.6248	79.1016	89.7486	79.1016	89.3404	79.1016	89.4806	79.1016	89.0659	79.1016	89.2156	79.1016	88.826	79.1016	88.9764	79.1016	88.6434	79.1016	88.7844	79.1016	88.5342	79.1016	88.6566	79.1016	88.5032	79.1016	88.6014	79.1016	88.5426	79.1016	88.6156	79.1016	88.6337	79.1016	88.6845	79.1016	88.7521	79.1016	88.7856	79.1016	88.8733	79.1016	88.8943	79.1016	88.9761	79.1016	88.9883	79.1016	89.045	79.1016	89.0506	79.1016	89.0708
82.0312	90.8471	82.0312	90.7859	82.0312	90.8293	82.0312	90.6487	82.0312	90.7349	82.0312	90.4433	82.0312	90.5708	82.0312	90.183	82.0312	90.3491	82.0312	89.8858	82.0312	90.0859	82.0312	89.575	82.0312	89.8017	82.0312	89.2771	82.0312	89.5193	82.0312	89.0204	82.0312	89.2631	82.0312	88.8299	82.0312	89.0563	82.0312	88.7225	82.0312	88.9173	82.0312	88.7018	82.0312	88.8552	82.0312	88.7566	82.0312	88.8667	82.0312	88.8644	82.0312	88.9363	82.0312	88.9979	82.0312	89.0405	82.0312	89.1306	82.0312	89.1533	82.0312	89.2408	82.0312	89.2515	82.0312	89.3133	82.0312	89.3174	82.0312	89.3395
84.9609	91.1016	84.9609	91.0317	84.9609	91.0862	84.9609	90.8791	84.9609	90.9877	84.9609	90.6524	84.9609	90.8141	84.9609	90.3654	84.9609	90.5785	84.9609	90.0381	84.9609	90.2991	84.9609	89.6959	84.9609	89.999	84.9609	89.3689	84.9609	89.7042	84.9609	89.0896	84.9609	89.4424	84.9609	88.8872	84.9609	89.2392	84.9609	88.7815	84.9609	89.1135	84.9609	88.7763	84.9609	89.0727	84.9609	88.8576	84.9609	89.1092	84.9609	88.9986	84.9609	89.2027	84.9609	89.1674	84.9609	89.3253	84.9609	89.3338	84.9609	89.4488	84.9609	89.474	84.9609	89.549	84.9609	89.5717	84.9609	89.6087	84.9609	89.6175
87.8906	91.5183	87.8906	91.4545	87.8906	91.4898	87.8906	91.3014	87.8906	91.3721	87.8906	91.0672	87.8906	91.1733	87.8906	90.7662	87.8906	90.9075	87.8906	90.4188	87.8906	90.5947	87.8906	90.0518	87.8906	90.2601	87.8906	89.6979	87.8906	89.9339	87.8906	89.3934	87.8906	89.6486	87.8906	89.1728	87.8906	89.4356	87.8906	89.0616	87.8906	89.3183	87.8906	89.0669	87.8906	89.3055	87.8906	89.1752	87.8906	89.3869	87.8906	89.3553	87.8906	89.5352	87.8906	89.5686	87.8906	89.7143	87.8906	89.778	87.8906	89.8883	87.8906	89.9535	87.8906	90.0276	87.8906	90.0742	87.8906	90.1114	87.8906	90.1282
90.8203	92.276	90.8203	92.2153	90.8203	92.2394	90.8203	92.0605	90.8203	92.108	90.8203	91.8206	90.8203	91.8902	90.8203	91.5106	90.8203	91.6002	90.8203	91.152	90.8203	91.2583	90.8203	90.7726	90.8203	90.8907	90.8203	90.406	90.8203	90.5287	90.8203	90.0892	90.8203	90.2073	90.8203	89.8581	90.8203	89.9615	90.8203	89.7389	90.8203	89.8201	90.8203	89.7407	90.8203	89.7973	90.8203	89.8508	90.8203	89.8861	90.8203	90.0381	90.8203	90.059	90.8203	90.2623	90.8203	90.2752	90.8203	90.4828	90.8203	90.4919	90.8203	90.6656	90.8203	90.6722	90.8203	90.7861	90.8203	90.7897	90.8203	90.8292
95.2148	92.8431	95.2148	92.7681	95.2148	92.8134	95.2148	92.5919	95.2148	92.6816	95.2148	92.3241	95.2148	92.4568	95.2148	91.9814	95.2148	92.154	95.2148	91.5872	95.2148	91.7948	95.2148	91.1724	95.2148	91.4067	95.2148	90.7737	95.2148	91.0224	95.2148	90.4317	95.2148	90.6777	95.2148	90.1845	95.2148	90.4081	95.2148	90.0588	95.2148	90.2427	95.2148	90.0621	95.2148	90.196	95.2148	90.1785	95.2148	90.2625	95.2148	90.3737	95.2148	90.4164	95.2148	90.6046	95.2148	90.6188	95.2148	90.8291	95.2148	90.8278	95.2148	91.0126	95.2148	91.0061	95.2148	91.1308	95.2148	91.1259	95.2148	91.1698
98.1445	93.0838	98.1445	93.0026	98.1445	93.0547	98.1445	92.8149	98.1445	92.9182	98.1445	92.531	98.1445	92.684	98.1445	92.1688	98.1445	92.3684	98.1445	91.7538	98.1445	91.9948	98.1445	91.3192	98.1445	91.593	98.1445	90.9052	98.1445	91.1983	98.1445	90.5553	98.1445	90.8492	98.1445	90.3101	98.1445	90.5833	98.1445	90.1972	98.1445	90.43	98.1445	90.2221	98.1445	90.4023	98.1445	90.3652	98.1445	90.491	98.1445	90.5879	98.1445	90.6665	98.1445	90.8438	98.1445	90.8871	98.1445	91.089	98.1445	91.1094	98.1445	91.2883	98.1445	91.296	98.1445	91.4171	98.1445	91.4192	98.1445	91.4619
101.074	93.3739	101.074	93.2907	101.074	93.3395	101.074	93.0935	101.074	93.1905	101.074	92.7933	101.074	92.937	101.074	92.4085	101.074	92.596	101.074	91.9656	101.074	92.1922	101.074	91.5002	101.074	91.7574	101.074	91.0555	101.074	91.3299	101.074	90.6795	101.074	90.9524	101.074	90.4177	101.074	90.667	101.074	90.3012	101.074	90.5072	101.074	90.3359	101.074	90.4873	101.074	90.4989	101.074	90.596	101.074	90.7466	101.074	90.7987	101.074	91.0273	101.074	91.048	101.074	91.2933	101.074	91.2963	101.074	91.5075	101.074	91.5034	101.074	91.6443	101.074	91.6405	101.074	91.6897
105.469	93.8014	105.469	93.706	105.469	93.7665	105.469	93.4839	105.469	93.6048	105.469	93.1456	105.469	93.3262	105.469	92.7092	105.469	92.9482	105.469	92.2015	105.469	92.4956	105.469	91.6586	105.469	92.0006	105.469	91.1262	105.469	91.5032	105.469	90.6574	105.469	91.0487	105.469	90.3062	105.469	90.6847	105.469	90.1145	105.469	90.4522	105.469	90.0976	105.469	90.3736	105.469	90.2363	105.469	90.4428	105.469	90.483	105.469	90.6247	105.469	90.778	105.469	90.8676	105.469	91.0652	105.469	91.1171	105.469	91.3005	105.469	91.3274	105.469	91.4542	105.469	91.4653	105.469	91.5103
108.398	94.132	108.398	94.042	108.398	94.0888	108.398	93.8224	108.398	93.9162	108.398	93.4842	108.398	93.6251	108.398	93.0464	108.398	93.2342	108.398	92.5363	108.398	92.77	108.398	91.9909	108.398	92.267	108.398	91.4556	108.398	91.7665	108.398	90.9821	108.398	91.3147	108.398	90.6223	108.398	90.9581	108.398	90.4166	108.398	90.7353	108.398	90.3815	108.398	90.666	108.398	90.5016	108.398	90.742	108.398	90.7342	108.398	90.9281	108.398	91.023	108.398	91.1723	108.398	91.3122	108.398	91.4205	108.398	91.556	108.398	91.6264	108.398	91.7216	108.398	91.7563	108.398	91.7904
112.793	94.3063	112.793	94.2138	112.793	94.2561	112.793	93.983	112.793	94.0671	112.793	93.6264	112.793	93.7516	112.793	93.1661	112.793	93.3305	112.793	92.6342	112.793	92.8339	112.793	92.0733	112.793	92.3013	112.793	91.5362	112.793	91.7802	112.793	91.0819	112.793	91.324	112.793	90.7663	112.793	90.9859	112.793	90.6287	112.793	90.8081	112.793	90.677	112.793	90.808	112.793	90.8832	112.793	90.9687	112.793	91.1933	112.793	91.2434	112.793	91.5439	112.793	91.5705	112.793	91.8767	112.793	91.8895	112.793	92.1458	112.793	92.1514	112.793	92.3196	112.793	92.3216	112.793	92.3801
117.188	94.3206	117.188	94.2108	117.188	94.2721	117.188	93.9471	117.188	94.0692	117.188	93.5416	117.188	93.7237	117.188	93.0162	117.188	93.2556	117.188	92.4027	117.188	92.6943	117.188	91.7449	117.188	92.0785	117.188	91.099	117.188	91.4569	117.188	90.5317	117.188	90.888	117.188	90.1125	117.188	90.4366	117.188	89.8972	117.188	90.1619	117.188	89.9059	117.188	90.0979	117.188	90.1116	117.188	90.2345	117.188	90.4495	117.188	90.5185	117.188	90.8413	117.188	90.8743	117.188	91.2154	117.188	91.2277	117.188	91.5175	117.188	91.5199	117.188	91.7115	117.188	91.711	117.188	91.7777
120.117	95.0542	120.117	94.9413	120.117	95.01	120.117	94.6757	120.117	94.8127	120.117	94.27	120.117	94.4738	120.117	93.7457	120.117	94.0133	120.117	93.1343	120.117	93.4592	120.117	92.4775	120.117	92.8479	120.117	91.827	120.117	92.2232	120.117	91.2424	120.117	91.6356	120.117	90.7846	120.117	91.1407	120.117	90.5036	120.117	90.7915	120.117	90.4217	120.117	90.6248	120.117	90.5227	120.117	90.6449	120.117	90.7569	120.117	90.8168	120.117	91.0576	120.117	91.0785	120.117	91.3599	120.117	91.3613	120.117	91.6111	120.117	91.6062	120.117	91.7747	120.117	91.7707	120.117	91.8299
124.512	95.6206	124.512	95.507	124.512	95.5725	124.512	95.2359	124.512	95.3676	124.512	94.8207	124.512	95.0196	124.512	94.285	124.512	94.5518	124.512	93.6641	124.512	93.9972	124.512	93.0058	124.512	93.3992	124.512	92.3707	124.512	92.81	124.512	91.8293	124.512	92.289	124.512	91.4515	124.512	91.8968	124.512	91.2881	124.512	91.6832	124.512	91.3497	124.512	91.6698	124.512	91.5996	124.512	91.8386	124.512	91.9684	124.512	92.1357	124.512	92.3786	124.512	92.4903	124.512	92.7629	124.512	92.8341	124.512	93.0716	124.512	93.1135	124.512	93.2722	124.512	93.2916	124.512	93.3471
128.906	95.9686	128.906	95.8575	128.906	95.9066	128.906	95.5777	128.906	95.6762	128.906	95.1419	128.906	95.2903	128.906	94.5732	128.906	94.7716	128.906	93.906	128.906	94.1528	128.906	93.1886	128.906	93.4785	128.906	92.4848	128.906	92.8056	128.906	91.8738	128.906	92.2035	128.906	91.442	128.906	91.7501	128.906	91.26	128.906	91.5164	128.906	91.3516	128.906	91.5389	128.906	91.6764	128.906	91.7968	128.906	92.1468	128.906	92.2163	128.906	92.6634	128.906	92.7008	128.906	93.1419	128.906	93.1616	128.906	93.5219	128.906	93.5321	128.906	93.7646	128.906	93.7692	128.906	93.8492
133.301	96.1891	133.301	96.076	133.301	96.1217	133.301	95.7864	133.301	95.8776	133.301	95.3324	133.301	95.4688	133.301	94.7348	133.301	94.9157	133.301	94.0245	133.301	94.2475	133.301	93.2436	133.301	93.5029	133.301	92.448	133.301	92.731	133.301	91.7103	133.301	91.9935	133.301	91.1195	133.301	91.3682	133.301	90.7683	133.301	90.944	133.301	90.7186	133.301	90.7967	133.301	90.9619	133.301	90.9466	133.301	91.4146	133.301	91.3356	133.301	91.9566	133.301	91.8516	133.301	92.4764	133.301	92.3762	133.301	92.8916	133.301	92.8162	133.301	93.1506	133.301	93.1107	133.301	93.2261
139.16	96.0425	139.16	95.932	139.16	95.9728	139.16	95.6469	139.16	95.7274	139.16	95.2024	139.16	95.3204	139.16	94.6249	139.16	94.7765	139.16	93.9512	139.16	94.1304	139.16	93.2289	139.16	93.4263	139.16	92.5142	139.16	92.7157	139.16	91.8684	139.16	92.0541	139.16	91.3527	139.16	91.4973	139.16	91.0197	139.16	91.0966	139.16	90.9005	139.16	90.8909	139.16	90.9909	139.16	90.8928	139.16	91.2463	139.16	91.0786	139.16	91.5919	139.16	91.3899	139.16	91.945	139.16	91.7495	139.16	92.2338	139.16	92.0814	139.16	92.4077	139.16	92.3247	139.16	92.4394
143.555	95.7399	143.555	95.5935	143.555	95.6814	143.555	95.2482	143.555	95.4225	143.555	94.7211	143.555	94.9781	143.555	94.042	143.555	94.3749	143.555	93.255	143.555	93.6523	143.555	92.4196	143.555	92.8629	143.555	91.6105	143.555	92.0718	143.555	90.9121	143.555	91.3534	143.555	90.4067	143.555	90.784	143.555	90.1534	143.555	90.4278	143.555	90.1659	143.555	90.3171	143.555	90.405	143.555	90.4373	143.555	90.7918	143.555	90.7312	143.555	91.2346	143.555	91.119	143.555	91.6508	143.555	91.5206	143.555	91.9775	143.555	91.8685	143.555	92.1738	143.555	92.1123	143.555	92.2193
147.949	96.6129	147.949	96.4649	147.949	96.5454	147.949	96.106	147.949	96.2674	147.949	95.5513	147.949	95.7937	147.949	94.8267	147.949	95.1499	147.949	93.9715	147.949	94.3734	147.949	93.0393	147.949	93.5139	147.949	92.0995	147.949	92.6331	147.949	91.2359	147.949	91.8043	147.949	90.5412	147.949	91.1099	147.949	90.1	147.949	90.6312	147.949	89.9587	147.949	90.4235	147.949	90.0998	147.949	90.4857	147.949	90.4447	147.949	90.7529	147.949	90.8876	147.949	91.1245	147.949	91.33	147.949	91.5021	147.949	91.6989	147.949	91.8108	147.949	91.9475	147.949	92.0025	147.949	92.0511
153.809	96.8544	153.809	96.7074	153.809	96.7868	153.809	96.3517	153.809	96.5094	153.809	95.8042	153.809	96.0382	153.809	95.0948	153.809	95.4008	153.809	94.2675	153.809	94.638	153.809	93.3819	153.809	93.8036	153.809	92.5141	153.809	92.9634	153.809	91.7533	153.809	92.1941	153.809	91.1945	153.809	91.5795	153.809	90.9182	153.809	91.2017	153.809	90.9606	153.809	91.1187	153.809	91.2898	153.809	91.3332	153.809	91.8131	153.809	91.7782	153.809	92.4125	153.809	92.3414	153.809	92.9795	153.809	92.905	153.809	93.4322	153.809	93.3744	153.809	93.7168	153.809	93.686	153.809	93.8041
159.668	96.058	159.668	95.9056	159.668	95.9826	159.668	95.5314	159.668	95.6851	159.668	94.9542	159.668	95.1831	159.668	94.2064	159.668	94.5071	159.668	93.3361	159.668	93.7011	159.668	92.4075	159.668	92.8224	159.668	91.4983	159.668	91.9388	159.668	90.6933	159.668	91.123	159.668	90.0738	159.668	90.4466	159.668	89.7049	159.668	89.9728	159.668	89.6191	159.668	89.7477	159.668	89.8033	159.668	89.7872	159.668	90.1954	159.668	90.0627	159.668	90.6978	159.668	90.5009	159.668	91.2032	159.668	90.9997	159.668	91.6177	159.668	91.4557	159.668	91.8731	159.668	91.7845	159.668	91.9313
165.527	95.6483	165.527	95.4674	165.527	95.5798	165.527	95.0422	165.527	95.269	165.527	94.3914	165.527	94.7355	165.527	93.5509	165.527	94.013	165.527	92.5785	165.527	93.1527	165.527	91.5593	165.527	92.2248	165.527	90.6067	165.527	91.3192	165.527	89.8515	165.527	90.5388	165.527	89.4087	165.527	89.9839	165.527	89.33	165.527	89.723	165.527	89.5764	165.527	89.7637	165.527	90.042	165.527	90.0489	165.527	90.6055	165.527	90.4853	165.527	91.1656	165.527	90.9794	165.527	91.6506	165.527	91.4553	165.527	92.0124	165.527	91.8548	165.527	92.2209	165.527	92.1338	165.527	92.2613
171.387	96.2548	171.387	96.0979	171.387	96.1386	171.387	95.6702	171.387	95.7573	171.387	94.9854	171.387	95.1303	171.387	94.0702	171.387	94.2898	171.387	92.9676	171.387	93.2832	171.387	91.7411	171.387	92.1745	171.387	90.4811	171.387	91.0451	171.387	89.3148	171.387	89.9949	171.387	88.4114	171.387	89.1453	171.387	87.9545	171.387	88.6304	171.387	88.042	171.387	88.5475	171.387	88.5911	171.387	88.8798	171.387	89.3858	171.387	89.4865	171.387	90.2108	171.387	90.187	171.387	90.922	171.387	90.8387	171.387	91.4446	171.387	91.3561	171.387	91.749	171.387	91.6944	171.387	91.83
177.246	96.1213	177.246	95.9455	177.246	96.0292	177.246	95.5064	177.246	95.6767	177.246	94.8214	177.246	95.0841	177.246	93.9226	177.246	94.2864	177.246	92.8595	177.246	93.3353	177.246	91.701	177.246	92.3002	177.246	90.5377	177.246	91.2671	177.246	89.4821	177.246	90.3347	177.246	88.6689	177.246	89.6085	177.246	88.2401	177.246	89.1888	177.246	88.2898	177.246	89.1394	177.246	88.7878	177.246	89.4468	177.246	89.5744	177.246	90.012	177.246	90.4471	177.246	90.692	177.246	91.2419	177.246	91.3522	177.246	91.8562	177.246	91.8915	177.246	92.237	177.246	92.2426	177.246	92.3648
183.105	95.5648	183.105	95.3999	183.105	95.4547	183.105	94.9686	183.105	95.0747	183.105	94.2937	183.105	94.4446	183.105	93.4138	183.105	93.6011	183.105	92.3854	183.105	92.5997	183.105	91.284	183.105	91.5161	183.105	90.2021	183.105	90.444	183.105	89.2452	183.105	89.491	183.105	88.5258	183.105	88.7731	183.105	88.1505	183.105	88.4003	183.105	88.1863	183.105	88.4373	183.105	88.614	183.105	88.8545	183.105	89.3162	183.105	89.526	183.105	90.1267	183.105	90.2892	183.105	90.8926	183.105	91.0034	183.105	91.5049	183.105	91.5699	183.105	91.8983	183.105	91.9274	183.105	92.0414
188.965	95.2008	188.965	95.0059	188.965	95.0963	188.965	94.5172	188.965	94.7001	188.965	93.7547	188.965	94.0339	188.965	92.7565	188.965	93.1359	188.965	91.5827	188.965	92.0628	188.965	90.3215	188.965	90.893	188.965	89.0933	188.965	89.7276	188.965	88.0515	188.965	88.692	188.965	87.3671	188.965	87.9362	188.965	87.1822	188.965	87.614	188.965	87.5326	188.965	87.8125	188.965	88.3092	188.965	88.4699	188.965	89.3132	188.965	89.3964	188.965	90.3464	188.965	90.3813	188.965	91.2603	188.965	91.2662	188.965	91.9606	188.965	91.9533	188.965	92.3945	188.965	92.387	188.965	92.5381
196.289	95.4042	196.289	95.2205	196.289	95.2831	196.289	94.7373	196.289	94.8638	196.289	93.9725	196.289	94.1654	196.289	92.9597	196.289	93.221	196.289	91.7514	196.289	92.0804	196.289	90.4228	196.289	90.8119	196.289	89.0737	196.289	89.5021	196.289	87.8319	196.289	88.2565	196.289	86.8578	196.289	87.2089	196.289	86.3404	196.289	86.5378	196.289	86.4306	196.289	86.4343	196.289	87.1124	196.289	86.9611	196.289	88.1712	196.289	87.9469	196.289	89.3303	196.289	89.1007	196.289	90.3745	196.289	90.1786	196.289	91.1733	196.289	91.0324	196.289	91.6578	196.289	91.5843	196.289	91.797
203.613	94.7449	203.613	94.5076	203.613	94.6502	203.613	93.9459	203.613	94.23	203.613	93.0824	203.613	93.5054	203.613	91.9583	203.613	92.5152	203.613	90.6381	203.613	91.3195	203.613	89.2132	203.613	90.0017	203.613	87.8033	203.613	88.6661	203.613	86.5532	203.613	87.4321	203.613	85.6321	203.613	86.4352	203.613	85.2235	203.613	85.8384	203.613	85.4571	203.613	85.8047	203.613	86.2851	203.613	86.3778	203.613	87.4677	203.613	87.3906	203.613	88.7182	203.613	88.5644	203.613	89.8234	203.613	89.6609	203.613	90.6592	203.613	90.5307	203.613	91.1632	203.613	91.0933	203.613	91.3091
210.938	95.0915	210.938	94.8837	210.938	94.946	210.938	94.3278	210.938	94.4561	210.938	93.4439	210.938	93.645	210.938	92.2706	210.938	92.5529	210.938	90.8703	210.938	91.2404	210.938	89.3341	210.938	89.79	210.938	87.7844	210.938	88.3027	210.938	86.375	210.938	86.8923	210.938	85.2856	210.938	85.691	210.938	84.7057	210.938	84.8765	210.938	84.7742	210.938	84.6665	210.938	85.4717	210.938	85.171	210.938	86.5874	210.938	86.2261	210.938	87.8328	210.938	87.4977	210.938	88.9681	210.938	88.6973	210.938	89.8408	210.938	89.6514	210.938	90.3686	210.938	90.271	210.938	90.5148
218.262	94.6601	218.262	94.454	218.262	94.5055	218.262	93.8902	218.262	94.0029	218.262	92.9887	218.262	93.1813	218.262	91.7904	218.262	92.0886	218.262	90.362	218.262	90.7961	218.262	88.8013	218.262	89.3999	218.262	87.2375	218.262	88.0155	218.262	85.8215	218.262	86.7585	218.262	84.7079	218.262	85.7222	218.262	84.0396	218.262	84.974	218.262	83.9269	218.262	84.5794	218.262	84.3894	218.262	84.6143	218.262	85.2947	218.262	85.1112	218.262	86.3977	218.262	85.9731	218.262	87.4521	218.262	86.9822	218.262	88.2778	218.262	87.9035	218.262	88.7661	218.262	88.5636	218.262	88.8641
225.586	93.8802	225.586	93.6442	225.586	93.7283	225.586	93.0237	225.586	93.2005	225.586	92.038	225.586	92.3251	225.586	90.7286	225.586	91.1513	225.586	89.167	225.586	89.7558	225.586	87.468	225.586	88.2485	225.586	85.803	225.586	86.772	225.586	84.4043	225.586	85.493	225.586	83.5404	225.586	84.5939	225.586	83.4232	225.586	84.2646	225.586	84.0669	225.586	84.6286	225.586	85.2559	225.586	85.6051	225.586	86.6842	225.586	86.9142	225.586	88.0933	225.586	88.2544	225.586	89.3111	225.586	89.4206	225.586	90.2354	225.586	90.3014	225.586	90.8115	225.586	90.8418	225.586	91.0151
232.91	93.4326	232.91	93.1614	232.91	93.2869	232.91	92.4758	232.91	92.7334	232.91	91.3892	232.91	91.7942	232.91	89.9287	232.91	90.5097	232.91	88.1393	232.91	88.9453	232.91	86.0913	232.91	87.1982	232.91	83.8951	232.91	85.3987	232.91	81.7466	232.91	83.7082	232.91	80.0724	232.91	82.3409	232.91	79.6518	232.91	81.6348	232.91	80.8988	232.91	81.9902	232.91	83.1095	232.91	83.419	232.91	85.4483	232.91	85.3962	232.91	87.5223	232.91	87.377	232.91	89.1903	232.91	89.0591	232.91	90.3992	232.91	90.3115	232.91	91.1249	232.91	91.0826	232.91	91.3546
241.699	95.135	241.699	94.8536	241.699	95.0116	241.699	94.1728	241.699	94.4897	241.699	93.1096	241.699	93.5888	241.699	91.6962	241.699	92.3457	241.699	89.9842	241.699	90.8207	241.699	88.0504	241.699	89.0993	241.699	85.9962	241.699	87.2825	241.699	83.9342	241.699	85.4528	241.699	81.9665	241.699	83.6319	241.699	80.2318	241.699	81.8048	241.699	79.1771	241.699	80.1647	241.699	79.6781	241.699	79.6207	241.699	81.7296	241.699	81.0332	241.699	84.1849	241.699	83.4257	241.699	86.2835	241.699	85.6558	241.699	87.7848	241.699	87.3427	241.699	88.6385	241.699	88.4097	241.699	88.844
250.488	93.9804	250.488	93.7041	250.488	93.8125	250.488	92.9831	250.488	93.2143	250.488	91.83	250.488	92.2161	250.488	90.2761	250.488	90.8731	250.488	88.3833	250.488	89.2758	250.488	86.2624	250.488	87.5603	250.488	84.0876	250.488	85.9028	250.488	82.0777	250.488	84.4771	250.488	80.4136	250.488	83.3743	250.488	79.1434	250.488	82.5405	250.488	78.2298	250.488	81.8115	250.488	77.8085	250.488	81.0742	250.488	78.3339	250.488	80.5297	250.488	79.9207	250.488	80.7701	250.488	81.8852	250.488	81.9711	250.488	83.5446	250.488	83.4344	250.488	84.5871	250.488	84.5041	250.488	84.9113
259.277	94.2147	259.277	93.8838	259.277	94.0781	259.277	93.0861	259.277	93.4857	259.277	91.8384	259.277	92.4606	259.277	90.1813	259.277	91.0407	259.277	88.1915	259.277	89.2846	259.277	86.0006	259.277	87.2806	259.277	83.8156	259.277	85.1544	259.277	81.9265	259.277	83.0749	259.277	80.6683	259.277	81.2907	259.277	80.2886	259.277	80.2202	259.277	80.7707	259.277	80.2893	259.277	81.8482	259.277	81.3533	259.277	83.2081	259.277	82.8276	259.277	84.6078	259.277	84.3013	259.277	85.8677	259.277	85.602	259.277	86.848	259.277	86.6387	259.277	87.4479	259.277	87.3307	259.277	87.6118
268.066	95.2465	268.066	95.0087	268.066	95.0466	268.066	94.3361	268.066	94.4191	268.066	93.2444	268.066	93.3899	268.066	91.7618	268.066	92.0044	268.066	89.9316	268.066	90.3344	268.066	87.8191	268.066	88.4862	268.066	85.5235	268.066	86.6003	268.066	83.1895	268.066	84.8236	268.066	81.0078	268.066	83.2531	268.066	79.228	268.066	81.922	268.066	78.2141	268.066	80.904	268.066	78.3403	268.066	80.4269	268.066	79.5318	268.066	80.7087	268.066	81.217	268.066	81.6291	268.066	82.8457	268.066	82.812	268.066	84.1052	268.066	83.9157	268.066	84.8543	268.066	84.7097	268.066	85.0489
276.855	93.4167	276.855	93.1634	276.855	93.1686	276.855	92.4112	276.855	92.4334	276.855	91.1796	276.855	91.2461	276.855	89.5085	276.855	89.6733	276.855	87.4647	276.855	87.8293	276.855	85.1533	276.855	85.8953	276.855	82.7426	276.855	84.1207	276.855	80.5066	276.855	82.7645	276.855	78.8474	276.855	81.9759	276.855	78.1948	276.855	81.7309	276.855	78.7546	276.855	81.9258	276.855	80.2975	276.855	82.503	276.855	82.2982	276.855	83.4407	276.855	84.2834	276.855	84.6434	276.855	85.9669	276.855	85.9102	276.855	87.2019	276.855	87.0166	276.855	87.9216	276.855	87.7871	276.855	88.1094
287.109	92.7251	287.109	92.4133	287.109	92.4685	287.109	91.54	287.109	91.6467	287.109	90.1255	287.109	90.2729	287.109	88.2122	287.109	88.3781	287.109	85.8775	287.109	86.0315	287.109	83.2537	287.109	83.3834	287.109	80.5556	287.109	80.7242	287.109	78.1061	287.109	78.4997	287.109	76.3458	287.109	77.1788	287.109	75.7955	287.109	77.0031	287.109	76.7381	287.109	77.8627	287.109	78.738	287.109	79.4343	287.109	81.0411	287.109	81.3487	287.109	83.1724	287.109	83.2694	287.109	84.9312	287.109	84.948	287.109	86.2338	287.109	86.2309	287.109	87.034	287.109	87.031	287.109	87.3033
297.363	94.1849	297.363	93.7841	297.363	94.0353	297.363	92.8434	297.363	93.3388	297.363	91.389	297.363	92.1134	297.363	89.4699	297.363	90.3959	297.363	87.1666	297.363	88.25	297.363	84.598	297.363	85.7767	297.363	81.9144	297.363	83.1136	297.363	79.2683	297.363	80.3828	297.363	76.7684	297.363	77.5842	297.363	74.4636	297.363	74.748	297.363	72.8135	297.363	73.3559	297.363	73.7575	297.363	75.6049	297.363	77.2061	297.363	78.9781	297.363	80.6877	297.363	81.7931	297.363	83.3852	297.363	83.9295	297.363	85.2489	297.363	85.4569	297.363	86.3352	297.363	86.3906	297.363	86.6992
307.617	93.8692	307.617	93.4679	307.617	93.6776	307.617	92.4619	307.617	92.9109	307.617	90.8459	307.617	91.5973	307.617	88.6256	307.617	89.7837	307.617	85.8349	307.617	87.5564	307.617	82.5815	307.617	85.0778	307.617	79.1428	307.617	82.6341	307.617	76.0679	307.617	80.611	307.617	74.0568	307.617	79.2612	307.617	73.5275	307.617	78.457	307.617	74.2782	307.617	77.9031	307.617	75.7493	307.617	77.6575	307.617	77.5883	307.617	78.314	307.617	79.6095	307.617	80.0184	307.617	81.549	307.617	81.9634	307.617	83.1282	307.617	83.4887	307.617	84.1712	307.617	84.3768	307.617	84.5988
319.336	93.3726	319.336	92.9675	319.336	93.1439	319.336	91.9367	319.336	92.2831	319.336	90.2959	319.336	90.8041	319.336	88.0632	319.336	88.7388	319.336	85.2474	319.336	86.1533	319.336	81.8289	319.336	83.1874	319.336	77.7512	319.336	80.1353	319.336	72.9857	319.336	77.5138	319.336	67.8786	319.336	75.8312	319.336	64.8027	319.336	75.1166	319.336	68.4232	319.336	75.3148	319.336	74.1965	319.336	76.9434	319.336	79.0481	319.336	79.901	319.336	82.8235	319.336	83.0638	319.336	85.6465	319.336	85.7071	319.336	87.6095	319.336	87.6194	319.336	88.767	319.336	88.7659	319.336	89.1485
329.59	94.0744	329.59	93.6567	329.59	93.7554	329.59	92.4874	329.59	92.7163	329.59	90.5564	329.59	90.9784	329.59	87.8725	329.59	88.5775	329.59	84.5024	329.59	85.5874	329.59	80.6479	329.59	82.1746	329.59	76.6966	329.59	78.7191	329.59	73.0213	329.59	75.9411	329.59	69.8883	329.59	74.5489	329.59	68.3734	329.59	74.4839	329.59	69.5622	329.59	75.271	329.59	72.6769	329.59	76.723	329.59	76.747	329.59	78.922	329.59	80.7595	329.59	81.6736	329.59	84.0627	329.59	84.3726	329.59	86.4379	329.59	86.5118	329.59	87.8493	329.59	87.8543	329.59	88.3126
341.309	93.6682	341.309	93.1317	341.309	93.3857	341.309	91.7733	341.309	92.2725	341.309	89.5705	341.309	90.3065	341.309	86.4802	341.309	87.4638	341.309	82.4914	341.309	83.751	341.309	77.9572	341.309	79.3249	341.309	74.3784	341.309	74.8794	341.309	72.6563	341.309	72.3032	341.309	71.183	341.309	72.5433	341.309	69.9681	341.309	73.1939	341.309	71.3229	341.309	72.4328	341.309	74.8779	341.309	71.5369	341.309	78.8449	341.309	76.2526	341.309	82.471	341.309	81.5693	341.309	85.4141	341.309	85.2505	341.309	87.5484	341.309	87.6128	341.309	88.8496	341.309	88.9224	341.309	89.3143
353.027	94.7428	353.027	94.2126	353.027	94.3807	353.027	92.7555	353.027	93.1283	353.027	90.2885	353.027	90.9521	353.027	86.6271	353.027	87.7704	353.027	81.2963	353.027	83.4419	353.027	72.5605	353.027	77.8806	353.027	57.0517	353.027	72.0411	353.027	69.6727	353.027	68.5117	353.027	71.7603	353.027	65.493	353.027	71.4053	353.027	64.9025	353.027	71.1727	353.027	69.6964	353.027	74.6823	353.027	74.135	353.027	79.8436	353.027	78.6555	353.027	84.2614	353.027	83.1245	353.027	87.6254	353.027	86.8281	353.027	89.9666	353.027	89.4953	353.027	91.3232	353.027	91.1096	353.027	91.7082
366.211	95.0675	366.211	94.5201	366.211	94.7428	366.211	93.0609	366.211	93.5527	366.211	90.5971	366.211	91.4765	366.211	86.9271	366.211	88.473	366.211	81.5615	366.211	84.5515	366.211	72.9192	366.211	80.2016	366.211	62.3406	366.211	77.349	366.211	70.0371	366.211	76.9051	366.211	71.9822	366.211	77.0583	366.211	72.0622	366.211	76.9756	366.211	71.4218	366.211	76.1755	366.211	70.488	366.211	73.3664	366.211	71.1935	366.211	64.3347	366.211	75.9592	366.211	73.7343	366.211	80.9685	366.211	81.0768	366.211	84.5371	366.211	84.933	366.211	86.658	366.211	86.9069	366.211	87.4407
379.395	94.9729	379.395	94.4217	379.395	94.666	379.395	93.0001	379.395	93.4976	379.395	90.6631	379.395	91.4486	379.395	87.2701	379.395	88.4812	379.395	82.3914	379.395	84.5728	379.395	74.5371	379.395	80.0045	379.395	65.1025	379.395	76.3594	379.395	72.7041	379.395	75.3222	379.395	74.7973	379.395	75.4388	379.395	74.3014	379.395	75.7766	379.395	71.8703	379.395	76.0065	379.395	66.4687	379.395	75.3835	379.395	70.193	379.395	74.0628	379.395	78.6025	379.395	77.0387	379.395	83.7687	379.395	82.4262	379.395	87.018	379.395	86.2628	379.395	88.811	379.395	88.4805	379.395	89.2962
392.578	96.618	392.578	96.1054	392.578	96.212	392.578	94.626	392.578	94.8977	392.578	92.0694	392.578	92.6609	392.578	88.1889	392.578	89.5045	392.578	82.3104	392.578	85.6257	392.578	71.4545	392.578	81.9424	392.578	67.8496	392.578	79.9327	392.578	74.1132	392.578	79.3421	392.578	74.4196	392.578	79.1568	392.578	71.8706	392.578	78.9086	392.578	69.1585	392.578	78.0596	392.578	69.4501	392.578	76.0876	392.578	64.7238	392.578	73.6849	392.578	68.5079	392.578	75.7361	392.578	79.6624	392.578	80.6628	392.578	84.8153	392.578	84.6022	392.578	87.3524	392.578	87.0742	392.578	88.0212
405.762	95.9337	405.762	95.4274	405.762	95.5493	405.762	94.0255	405.762	94.2748	405.762	91.7143	405.762	92.1008	405.762	88.4501	405.762	88.9974	405.762	84.0821	405.762	84.9193	405.762	78.0843	405.762	79.9888	405.762	68.732	405.762	75.4475	405.762	67.1229	405.762	73.2352	405.762	71.3767	405.762	71.6349	405.762	71.0173	405.762	70.2579	405.762	66.0492	405.762	72.1036	405.762	69.1456	405.762	74.5211	405.762	75.6276	405.762	75.4848	405.762	78.6865	405.762	76.106	405.762	80.3061	405.762	78.3949	405.762	81.739	405.762	81.2321	405.762	83.0612	405.762	83.0744	405.762	83.6416
420.41	96.2291	420.41	95.6324	420.41	95.7811	420.41	93.9444	420.41	94.2785	420.41	91.0513	420.41	91.6456	420.41	86.7635	420.41	87.7276	420.41	81.094	420.41	82.4537	420.41	76.5601	420.41	77.6119	420.41	75.8469	420.41	76.9023	420.41	74.7398	420.41	76.7848	420.41	72.0066	420.41	75.3663	420.41	68.4671	420.41	73.171	420.41	65.87	420.41	71.541	420.41	67.231	420.41	71.2616	420.41	73.1025	420.41	72.3801	420.41	78.7191	420.41	75.8216	420.41	82.9761	420.41	80.3731	420.41	85.872	420.41	84.1522	420.41	87.4439	420.41	86.6103	420.41	87.6972
435.059	95.9234	435.059	95.2475	435.059	95.5007	435.059	93.4314	435.059	93.9802	435.059	90.3687	435.059	91.331	435.059	85.8528	435.059	87.5052	435.059	79.8204	435.059	82.5589	435.059	75.7953	435.059	77.4871	435.059	77.1836	435.059	75.333	435.059	78.3662	435.059	75.7283	435.059	78.6029	435.059	76.3546	435.059	78.2159	435.059	76.3829	435.059	77.3722	435.059	74.9477	435.059	76.5376	435.059	69.7667	435.059	77.175	435.059	61.2757	435.059	79.7054	435.059	76.3914	435.059	82.5404	435.059	81.9944	435.059	84.8217	435.059	85.055	435.059	86.3329	435.059	86.596	435.059	86.9643
451.172	95.6436	451.172	94.8504	451.172	95.3192	451.172	92.9004	451.172	93.8728	451.172	89.7028	451.172	91.2484	451.172	85.1802	451.172	87.3147	451.172	80.1403	451.172	81.9651	451.172	78.1952	451.172	76.7768	451.172	78.5916	451.172	76.2301	451.172	78.6457	451.172	77.0616	451.172	78.5584	451.172	77.2346	451.172	78.5811	451.172	76.7733	451.172	78.2903	451.172	75.0301	451.172	77.3901	451.172	70.1431	451.172	76.6228	451.172	67.4675	451.172	78.1712	451.172	76.6675	451.172	81.7133	451.172	81.9502	451.172	84.9571	451.172	85.3079	451.172	87.0539	451.172	87.2483	451.172	87.8291
465.82	98.3729	465.82	97.5949	465.82	98.0303	465.82	95.614	465.82	96.5771	465.82	92.2234	465.82	93.9369	465.82	86.9156	465.82	89.8663	465.82	79.1729	465.82	83.7555	465.82	79.0008	465.82	75.4516	465.82	82.3352	465.82	75.2049	465.82	83.3874	465.82	76.0348	465.82	83.0993	465.82	72.9345	465.82	82.1551	465.82	67.503	465.82	81.175	465.82	72.5184	465.82	80.5691	465.82	74.7892	465.82	80.617	465.82	71.4223	465.82	81.8954	465.82	71.7551	465.82	84.4058	465.82	81.7601	465.82	87.087	465.82	86.6935	465.82	89.0284	465.82	89.1182	465.82	89.7904
483.398	98.6137	483.398	97.771	483.398	98.264	483.398	95.6819	483.398	96.6599	483.398	92.1492	483.398	93.576	483.398	86.7013	483.398	88.4835	483.398	79.1424	483.398	81.1368	483.398	78.9571	483.398	80.9166	483.398	82.3485	483.398	83.5801	483.398	84.1603	483.398	84.0487	483.398	84.9988	483.398	83.0935	483.398	85.0017	483.398	81.1437	483.398	84.1196	483.398	78.4032	483.398	82.3564	483.398	74.7668	483.398	80.0813	483.398	70.1651	483.398	78.8562	483.398	74.431	483.398	81.218	483.398	81.4312	483.398	85.2416	483.398	86.0157	483.398	88.1445	483.398	88.5807	483.398	89.28
499.512	97.4935	499.512	96.7191	499.512	96.9181	499.512	94.5729	499.512	94.9337	499.512	90.981	499.512	91.3828	499.512	86.0997	499.512	86.0289	499.512	81.9139	499.512	79.9685	499.512	81.1222	499.512	79.5913	499.512	81.0852	499.512	81.1218	499.512	80.4336	499.512	81.4323	499.512	79.5354	499.512	81.2116	499.512	79.3791	499.512	81.4095	499.512	80.2387	499.512	81.7818	499.512	80.832	499.512	81.1514	499.512	79.9868	499.512	78.3905	499.512	77.0769	499.512	71.3127	499.512	74.948	499.512	67.9246	499.512	78.8105	499.512	76.6664	499.512	81.6005	499.512	80.5134	499.512	82.0858
517.09	99.1482	517.09	98.3209	517.09	98.6038	517.09	96.0343	517.09	96.6585	517.09	91.9748	517.09	93.1433	517.09	85.2357	517.09	87.6657	517.09	79.3528	517.09	81.0184	517.09	84.0127	517.09	81.2619	517.09	86.035	517.09	82.9126	517.09	85.9946	517.09	82.7275	517.09	84.7004	517.09	81.2604	517.09	82.5636	517.09	78.9401	517.09	79.8982	517.09	76.8385	517.09	77.2431	517.09	76.9135	517.09	75.5028	517.09	76.9142	517.09	76.4702	517.09	72.698	517.09	81.0318	517.09	77.546	517.09	85.6557	517.09	85.3174	517.09	88.6832	517.09	88.8839	517.09	89.8289
536.133	98.2924	536.133	97.5336	536.133	97.6713	536.133	95.376	536.133	95.6055	536.133	91.6926	536.133	91.8996	536.133	86.2373	536.133	86.2436	536.133	80.6541	536.133	81.1366	536.133	81.6873	536.133	82.8098	536.133	83.762	536.133	84.4761	536.133	84.7652	536.133	84.9947	536.133	85.2738	536.133	85.025	536.133	85.448	536.133	84.6138	536.133	84.9508	536.133	83.1502	536.133	83.3364	536.133	79.8866	536.133	80.5698	536.133	75.413	536.133	77.9137	536.133	72.2269	536.133	78.3708	536.133	70.2203	536.133	82.5662	536.133	80.3218	536.133	86.0006	536.133	85.4336	536.133	87.0611
555.176	97.978	555.176	97.0311	555.176	97.5161	555.176	94.6916	555.176	95.5377	555.176	90.9183	555.176	91.789	555.176	85.9333	555.176	85.9989	555.176	82.3569	555.176	81.785	555.176	82.7213	555.176	83.3753	555.176	83.2011	555.176	84.0327	555.176	82.5713	555.176	83.4313	555.176	81.5614	555.176	82.6702	555.176	81.6366	555.176	82.3718	555.176	82.5835	555.176	81.9106	555.176	83.0191	555.176	79.9822	555.176	82.3912	555.176	74.6824	555.176	80.9383	555.176	60.8429	555.176	79.9796	555.176	73.4438	555.176	81.1422	555.176	79.5667	555.176	83.2573	555.176	83.0878	555.176	84.2215
574.219	98.5439	574.219	97.4837	574.219	97.9978	574.219	94.7716	574.219	95.7591	574.219	90.1792	574.219	91.6006	574.219	83.5948	574.219	85.7928	574.219	81.482	574.219	83.7546	574.219	84.5474	574.219	85.325	574.219	85.9758	574.219	85.7119	574.219	85.9273	574.219	84.9659	574.219	85.029	574.219	83.3706	574.219	84.1275	574.219	81.1181	574.219	83.445	574.219	79.1673	574.219	82.0022	574.219	78.6856	574.219	78.7091	574.219	77.8329	574.219	73.9466	574.219	73.9419	574.219	75.9016	574.219	76.0011	574.219	81.9048	574.219	83.6377	574.219	86.1896	574.219	87.3123	574.219	88.0431
594.727	97.9563	594.727	96.9901	594.727	97.3498	594.727	94.482	594.727	95.0649	594.727	90.5109	594.727	90.9398	594.727	85.8668	594.727	85.6166	594.727	83.0537	594.727	83.8309	594.727	82.7073	594.727	84.7276	594.727	83.4414	594.727	84.6298	594.727	84.2324	594.727	83.6826	594.727	84.122	594.727	82.5448	594.727	82.9984	594.727	81.5606	594.727	82.1535	594.727	80.6432	594.727	82.2823	594.727	79.8311	594.727	81.7218	594.727	79.3644	594.727	79.5062	594.727	78.5244	594.727	75.9282	594.727	75.4534	594.727	76.3423	594.727	74.046	594.727	80.3138	594.727	79.6232	594.727	81.6994
615.234	98.2249	615.234	96.9731	615.234	97.7799	615.234	94.059	615.234	95.6032	615.234	89.7912	615.234	91.6741	615.234	85.8517	615.234	87.0427	615.234	84.6253	615.234	85.778	615.234	84.3783	615.234	86.1575	615.234	83.7178	615.234	85.3281	615.234	83.1624	615.234	83.6839	615.234	83.2087	615.234	82.6042	615.234	83.4765	615.234	82.37	615.234	83.779	615.234	81.5484	615.234	83.9071	615.234	78.4757	615.234	83.0321	615.234	71.1777	615.234	80.5279	615.234	72.9965	615.234	77.2361	615.234	77.4933	615.234	76.2381	615.234	80.8288	615.234	79.8132	615.234	83.2384	615.234	82.9957
637.207	98.3105	637.207	97.105	637.207	97.7173	637.207	94.1292	637.207	95.1702	637.207	89.6916	637.207	90.3395	637.207	86.219	637.207	84.2743	637.207	85.8638	637.207	83.5493	637.207	85.8346	637.207	83.8306	637.207	85.2751	637.207	82.8446	637.207	84.1841	637.207	82.1562	637.207	82.4591	637.207	82.2753	637.207	80.8027	637.207	82.2456	637.207	80.5608	637.207	81.4533	637.207	81.0367	637.207	80.5477	637.207	80.3402	637.207	80.1514	637.207	77.385	637.207	77.504	637.207	76.3416	637.207	61.5643	637.207	81.4131	637.207	79.646	637.207	85.3711	637.207	85.2494	637.207	86.7634
659.18	97.52	659.18	96.2115	659.18	96.999	659.18	93.1028	659.18	94.5834	659.18	88.663	659.18	90.3951	659.18	86.0923	659.18	86.565	659.18	86.5386	659.18	86.4099	659.18	86.5535	659.18	86.6409	659.18	85.7748	659.18	85.5203	659.18	85.0908	659.18	83.0933	659.18	84.7793	659.18	80.0888	659.18	83.9153	659.18	77.7291	659.18	82.0535	659.18	76.8988	659.18	80.8411	659.18	78.1201	659.18	80.8116	659.18	79.5166	659.18	78.911	659.18	79.4123	659.18	72.1395	659.18	77.6771	659.18	70.1732	659.18	77.2158	659.18	77.1234	659.18	79.1755	659.18	79.5026
682.617	97.6785	682.617	96.2922	682.617	97.245	682.617	93.3513	682.617	94.9065	682.617	89.8068	682.617	90.9134	682.617	87.5889	682.617	87.308	682.617	86.9482	682.617	86.76	682.617	86.8468	682.617	86.8635	682.617	86.8722	682.617	86.1993	682.617	86.6757	682.617	84.8731	682.617	86.1464	682.617	83.3943	682.617	85.2094	682.617	82.0578	682.617	83.4557	682.617	80.1029	682.617	81.6438	682.617	77.3691	682.617	82.1264	682.617	76.093	682.617	82.0104	682.617	74.5416	682.617	79.1527	682.617	75.9188	682.617	76.0869	682.617	79.7672	682.617	78.3494	682.617	81.8085	682.617	81.3964
707.52	97.2289	707.52	95.7726	707.52	96.7296	707.52	92.416	707.52	94.249	707.52	88.4848	707.52	89.9757	707.52	88.0932	707.52	87.0424	707.52	89.1798	707.52	87.5257	707.52	88.9766	707.52	86.8019	707.52	87.4288	707.52	84.1245	707.52	85.5369	707.52	81.1618	707.52	85.0214	707.52	80.4806	707.52	85.4078	707.52	80.9808	707.52	85.1511	707.52	80.7263	707.52	84.01	707.52	78.7182	707.52	82.4888	707.52	76.1255	707.52	80.1889	707.52	76.5976	707.52	75.7347	707.52	71.5563	707.52	72.4367	707.52	75.8109	707.52	79.377	707.52	82.9066	707.52	83.4061
732.422	96.8129	732.422	95.3527	732.422	96.402	732.422	92.3153	732.422	94.1271	732.422	89.459	732.422	90.6076	732.422	89.1557	732.422	88.3631	732.422	89.3757	732.422	88.0046	732.422	88.6893	732.422	87.1996	732.422	87.3482	732.422	85.2805	732.422	86.1904	732.422	82.326	732.422	85.6461	732.422	80.0202	732.422	85.1868	732.422	80.0321	732.422	84.5403	732.422	80.1166	732.422	83.9315	732.422	79.1789	732.422	83.3827	732.422	76.7677	732.422	81.7407	732.422	75.9287	732.422	77.2368	732.422	77.364	732.422	73.1151	732.422	76.678	732.422	78.6921	732.422	79.8278	732.422	81.4648
757.324	96.1636	757.324	94.8181	757.324	95.6628	757.324	91.9047	757.324	93.2972	757.324	89.1514	757.324	89.7958	757.324	89.472	757.324	87.9075	757.324	90.4952	757.324	87.9026	757.324	90.4547	757.324	87.6375	757.324	89.4358	757.324	86.7503	757.324	87.6644	757.324	85.1683	757.324	85.5047	757.324	83.0141	757.324	84.0309	757.324	81.0492	757.324	83.1741	757.324	79.2343	757.324	81.4848	757.324	76.7442	757.324	81.4717	757.324	76.7993	757.324	82.6067	757.324	77.1478	757.324	79.3598	757.324	71.7961	757.324	68.3228	757.324	71.2299	757.324	77.0688	757.324	76.1673	757.324	77.9737
785.156	95.7768	785.156	94.1656	785.156	95.1908	785.156	90.9488	785.156	92.4203	785.156	89.2738	785.156	88.3638	785.156	90.3601	785.156	86.7199	785.156	91.2564	785.156	87.4875	785.156	91.1561	785.156	87.4688	785.156	89.7143	785.156	85.6684	785.156	87.191	785.156	82.4142	785.156	85.5487	785.156	82.0006	785.156	85.4784	785.156	83.774	785.156	85.4016	785.156	84.119	785.156	84.9606	785.156	83.0338	785.156	83.8427	785.156	81.1265	785.156	81.4699	785.156	80.9202	785.156	77.0725	785.156	79.0036	785.156	68.234	785.156	73.6655	785.156	72.0381	785.156	78.4436	785.156	78.161
811.523	95.58	811.523	93.8807	811.523	95.0136	811.523	90.2967	811.523	92.3794	811.523	88.8779	811.523	89.1518	811.523	90.6963	811.523	88.6698	811.523	91.9275	811.523	89.1641	811.523	91.8165	811.523	88.8384	811.523	90.1334	811.523	87.3905	811.523	87.7524	811.523	84.5622	811.523	86.9062	811.523	81.6236	811.523	86.532	811.523	80.8656	811.523	85.4299	811.523	81.0089	811.523	84.1362	811.523	81.4381	811.523	82.6169	811.523	79.8943	811.523	82.5712	811.523	75.7575	811.523	80.6959	811.523	71.9113	811.523	69.6016	811.523	72.8824	811.523	72.2864	811.523	76.8902	811.523	76.0764
840.82	95.5212	840.82	93.8698	840.82	94.7009	840.82	90.091	840.82	91.9897	840.82	88.5123	840.82	89.3315	840.82	90.1554	840.82	89.0324	840.82	91.115	840.82	89.376	840.82	91.1246	840.82	88.9794	840.82	90.0676	840.82	88.0602	840.82	87.924	840.82	87.1003	840.82	85.4599	840.82	85.7534	840.82	84.1481	840.82	83.0883	840.82	84.6279	840.82	81.5416	840.82	84.8225	840.82	82.0227	840.82	82.6462	840.82	78.8994	840.82	80.9169	840.82	76.2504	840.82	79.6554	840.82	74.1302	840.82	66.6997	840.82	59.5791	840.82	73.5347	840.82	72.0391	840.82	72.9439
870.117	95.9408	870.117	94.3127	870.117	94.7889	870.117	89.4249	870.117	92.0115	870.117	88.2262	870.117	90.22	870.117	91.1356	870.117	90.5386	870.117	91.7172	870.117	90.8994	870.117	91.1556	870.117	90.3099	870.117	90.3179	870.117	88.6391	870.117	88.9261	870.117	86.5835	870.117	86.5141	870.117	85.7811	870.117	83.1696	870.117	85.6824	870.117	81.9619	870.117	85.2526	870.117	83.4016	870.117	85.2222	870.117	82.4966	870.117	83.9746	870.117	79.2394	870.117	81.1315	870.117	77.6445	870.117	78.7952	870.117	70.1768	870.117	71.8804	870.117	79.6363	870.117	72.1762	870.117	79.4495
900.879	95.9659	900.879	94.9277	900.879	94.5883	900.879	90.7232	900.879	92.0463	900.879	88.4217	900.879	90.9467	900.879	91.4713	900.879	91.497	900.879	91.978	900.879	91.5877	900.879	90.7754	900.879	91.2116	900.879	89.4415	900.879	90.4862	900.879	88.2647	900.879	88.8211	900.879	87.0939	900.879	85.2958	900.879	86.6031	900.879	82.2556	900.879	86.2452	900.879	84.028	900.879	85.2886	900.879	84.5511	900.879	83.0204	900.879	84.2673	900.879	79.1403	900.879	82.3043	900.879	75.8196	900.879	78.202	900.879	66.2722	900.879	50.1199	900.879	79.6065	900.879	67.8484	900.879	74.594
933.105	95.8395	933.105	94.6434	933.105	94.5366	933.105	89.9028	933.105	92.51	933.105	87.6741	933.105	91.9748	933.105	91.4375	933.105	92.5174	933.105	92.6864	933.105	92.8058	933.105	92.0881	933.105	92.237	933.105	90.1718	933.105	90.9097	933.105	87.7719	933.105	89.6223	933.105	84.5573	933.105	88.6681	933.105	81.7924	933.105	87.1959	933.105	84.3171	933.105	84.1393	933.105	85.7912	933.105	83.1278	933.105	84.8623	933.105	84.433	933.105	80.3119	933.105	80.413	933.105	72.3567	933.105	74.4103	933.105	70.0026	933.105	67.9323	933.105	79.1248	933.105	70.3149	933.105	76.8592
965.332	95.7181	965.332	94.7328	965.332	94.4793	965.332	90.7466	965.332	92.5607	965.332	87.5908	965.332	91.6865	965.332	91.0474	965.332	92.0385	965.332	92.1165	965.332	92.4555	965.332	90.8611	965.332	92.3405	965.332	89.3279	965.332	91.0741	965.332	88.0616	965.332	87.9439	965.332	86.6234	965.332	85.4329	965.332	84.6685	965.332	86.8712	965.332	81.1454	965.332	87.5125	965.332	79.4662	965.332	86.2073	965.332	82.9882	965.332	84.5409	965.332	78.6015	965.332	82.4654	965.332	72.6834	965.332	78.6043	965.332	64.0495	965.332	66.2175	965.332	80.2066	965.332	52.8426	965.332	77.8895
1000.49	95.6264	1000.49	93.9123	1000.49	94.6962	1000.49	89.3378	1000.49	92.4328	1000.49	86.8512	1000.49	91.2369	1000.49	89.4456	1000.49	91.8111	1000.49	90.5478	1000.49	92.5223	1000.49	89.8561	1000.49	92.6067	1000.49	87.6474	1000.49	92.0107	1000.49	84.0211	1000.49	90.6073	1000.49	82.0676	1000.49	88.3012	1000.49	82.6793	1000.49	84.7023	1000.49	83.0519	1000.49	81.7945	1000.49	81.7615	1000.49	84.2835	1000.49	81.4284	1000.49	84.9781	1000.49	80.768	1000.49	79.8968	1000.49	68.1243	1000.49	70.0696	1000.49	63.3502	1000.49	71.4402	1000.49	74.3305	1000.49	74.1749	1000.49	71.9251
1035.64	96.0513	1035.64	94.6428	1035.64	95.3197	1035.64	90.2827	1035.64	93.4529	1035.64	85.9382	1035.64	92.0494	1035.64	88.2497	1035.64	92.3908	1035.64	90.115	1035.64	92.9889	1035.64	89.4355	1035.64	92.5725	1035.64	87.1426	1035.64	91.0355	1035.64	85.0876	1035.64	89.0225	1035.64	83.3998	1035.64	88.1277	1035.64	81.7237	1035.64	87.5122	1035.64	77.7075	1035.64	85.5268	1035.64	73.2898	1035.64	83.8861	1035.64	79.3573	1035.64	83.8022	1035.64	77.6713	1035.64	81.3775	1035.64	68.8413	1035.64	74.9499	1035.64	68.3091	1035.64	35.5984	1035.64	75.4322	1035.64	74.0331	1035.64	76.7145
1072.27	96.3778	1072.27	94.7049	1072.27	95.5632	1072.27	90.6568	1072.27	93.1853	1072.27	87.7064	1072.27	91.5404	1072.27	88.895	1072.27	91.9124	1072.27	89.0643	1072.27	92.3588	1072.27	87.0191	1072.27	92.197	1072.27	83.5465	1072.27	91.3785	1072.27	80.3705	1072.27	89.5084	1072.27	76.9123	1072.27	87.2071	1072.27	77.7618	1072.27	85.1266	1072.27	78.9611	1072.27	83.47	1072.27	75.3709	1072.27	84.3292	1072.27	68.0238	1072.27	84.6624	1072.27	75.8275	1072.27	80.8488	1072.27	62.2005	1072.27	63.6136	1072.27	68.8075	1072.27	72.2818	1072.27	73.5599	1072.27	74.6329	1072.27	75.7828
1108.89	96.3901	1108.89	94.8246	1108.89	95.9339	1108.89	91.6877	1108.89	93.7315	1108.89	88.9824	1108.89	91.4783	1108.89	89.0108	1108.89	91.2925	1108.89	88.1698	1108.89	91.7828	1108.89	85.3613	1108.89	91.3158	1108.89	83.0062	1108.89	90.0028	1108.89	80.2783	1108.89	88.6482	1108.89	76.8493	1108.89	86.778	1108.89	72.3901	1108.89	84.3512	1108.89	72.6331	1108.89	82.9069	1108.89	72.2395	1108.89	82.2158	1108.89	70.9313	1108.89	82.317	1108.89	72.7008	1108.89	81.3766	1108.89	69.7087	1108.89	76.088	1108.89	66.1548	1108.89	65.1503	1108.89	57.9924	1108.89	76.7107	1108.89	73.8276
1148.44	97.0823	1148.44	95.4701	1148.44	96.305	1148.44	91.7099	1148.44	93.5536	1148.44	89.1099	1148.44	90.526	1148.44	88.739	1148.44	90.1045	1148.44	87.2004	1148.44	90.8142	1148.44	84.323	1148.44	90.6007	1148.44	78.9072	1148.44	89.2132	1148.44	68.0471	1148.44	87.4871	1148.44	64.7713	1148.44	86.084	1148.44	72.3488	1148.44	84.7293	1148.44	75.5045	1148.44	83.1552	1148.44	74.6161	1148.44	82.2015	1148.44	69.24	1148.44	82.4803	1148.44	59.7956	1148.44	79.1825	1148.44	58.8265	1148.44	65.4796	1148.44	68.716	1148.44	74.6709	1148.44	67.1518	1148.44	75.2023	1148.44	74.9639
1189.45	96.7725	1189.45	95.5476	1189.45	95.8087	1189.45	92.2831	1189.45	92.9401	1189.45	89.7564	1189.45	89.446	1189.45	88.7365	1189.45	88.3269	1189.45	86.6772	1189.45	88.9543	1189.45	83.3188	1189.45	88.9845	1189.45	78.6613	1189.45	87.9608	1189.45	74.6692	1189.45	86.5285	1189.45	72.3224	1189.45	84.9551	1189.45	68.922	1189.45	82.8308	1189.45	59.4504	1189.45	81.4007	1189.45	69.3776	1189.45	81.0256	1189.45	73.5872	1189.45	80.831	1189.45	61.3728	1189.45	79.2477	1189.45	67.2694	1189.45	77.0571	1189.45	70.4158	1189.45	69.8826	1189.45	71.5615	1189.45	74.2934	1189.45	76.1346
1230.47	96.6984	1230.47	95.6924	1230.47	95.6303	1230.47	92.4982	1230.47	92.6627	1230.47	89.5141	1230.47	88.937	1230.47	88.1104	1230.47	86.8976	1230.47	86.1714	1230.47	87.2332	1230.47	82.2377	1230.47	87.3888	1230.47	77.1481	1230.47	85.9193	1230.47	71.6046	1230.47	84.2228	1230.47	64.0743	1230.47	83.7058	1230.47	64.3416	1230.47	82.1958	1230.47	69.8878	1230.47	79.341	1230.47	69.3124	1230.47	76.9408	1230.47	72.199	1230.47	78.6295	1230.47	71.7529	1230.47	77.001	1230.47	70.6017	1230.47	66.1298	1230.47	73.5446	1230.47	71.5141	1230.47	70.0512	1230.47	73.6315	1230.47	72.3814
1274.41	96.0911	1274.41	94.9809	1274.41	94.7965	1274.41	92.4145	1274.41	91.4114	1274.41	89.4795	1274.41	87.7991	1274.41	87.4683	1274.41	86.1441	1274.41	85.7432	1274.41	86.2562	1274.41	82.574	1274.41	86.1892	1274.41	78.5659	1274.41	84.7452	1274.41	73.9834	1274.41	81.9644	1274.41	71.171	1274.41	79.6794	1274.41	67.9629	1274.41	80.5938	1274.41	65.294	1274.41	80.1606	1274.41	67.0635	1274.41	78.5337	1274.41	74.0841	1274.41	75.1935	1274.41	73.1365	1274.41	73.8853	1274.41	66.8769	1274.41	74.7671	1274.41	69.546	1274.41	73.5356	1274.41	72.4375	1274.41	64.2909	1274.41	73.4698
1319.82	96.2944	1319.82	95.1074	1319.82	94.7832	1319.82	92.4717	1319.82	90.9867	1319.82	89.8113	1319.82	87.2934	1319.82	88.5264	1319.82	85.2992	1319.82	86.7051	1319.82	84.8419	1319.82	83.4359	1319.82	84.1183	1319.82	77.7271	1319.82	82.715	1319.82	70.2333	1319.82	81.4248	1319.82	55.7562	1319.82	79.9505	1319.82	65.1059	1319.82	78.2224	1319.82	69.0842	1319.82	74.1396	1319.82	71.9045	1319.82	75.4286	1319.82	72.7951	1319.82	73.3581	1319.82	71.775	1319.82	75.6152	1319.82	69.2219	1319.82	69.9798	1319.82	72.2573	1319.82	62.879	1319.82	70.8888	1319.82	70.2982	1319.82	67.1025
1366.7	96.6106	1366.7	95.299	1366.7	94.6049	1366.7	92.6931	1366.7	89.3156	1366.7	91.2316	1366.7	85.3329	1366.7	89.7888	1366.7	83.7596	1366.7	86.8385	1366.7	82.8465	1366.7	82.4307	1366.7	82.6571	1366.7	74.8327	1366.7	82.6403	1366.7	71.0537	1366.7	80.5637	1366.7	68.5135	1366.7	78.7811	1366.7	64.7665	1366.7	79.0703	1366.7	60.2451	1366.7	78.3999	1366.7	57.1124	1366.7	72.5757	1366.7	69.6506	1366.7	68.5845	1366.7	72.0541	1366.7	52.1891	1366.7	68.4826	1366.7	71.1655	1366.7	69.8805	1366.7	73.1471	1366.7	70.6741	1366.7	62.1227	1366.7	70.6467
1413.57	96.573	1413.57	95.1935	1413.57	94.0843	1413.57	92.8898	1413.57	87.6026	1413.57	92.2897	1413.57	84.097	1413.57	90.8562	1413.57	81.0927	1413.57	87.3191	1413.57	81.3674	1413.57	82.0445	1413.57	83.4515	1413.57	68.8252	1413.57	84.0969	1413.57	56.2797	1413.57	83.5405	1413.57	64.8924	1413.57	81.0321	1413.57	69.3891	1413.57	77.3968	1413.57	67.8645	1413.57	76.8757	1413.57	68.474	1413.57	76.4	1413.57	72.5325	1413.57	68.6416	1413.57	74.9618	1413.57	69.1258	1413.57	71.1421	1413.57	75.1396	1413.57	63.7896	1413.57	75.8484	1413.57	65.6511	1413.57	68.5596	1413.57	69.4702
1463.38	96.1206	1463.38	95.2732	1463.38	93.4328	1463.38	93.5429	1463.38	85.7602	1463.38	93.0686	1463.38	82.0862	1463.38	91.4939	1463.38	75.9527	1463.38	87.1713	1463.38	82.478	1463.38	79.8456	1463.38	85.1431	1463.38	68.4166	1463.38	85.5771	1463.38	67.4103	1463.38	83.8275	1463.38	70.9482	1463.38	82.2055	1463.38	65.5898	1463.38	81.2621	1463.38	67.7686	1463.38	78.8537	1463.38	66.7644	1463.38	77.5879	1463.38	66.7711	1463.38	73.2914	1463.38	73.2371	1463.38	73.8075	1463.38	66.0682	1463.38	71.6196	1463.38	71.9915	1463.38	56.4751	1463.38	65.7855	1463.38	69.1255	1463.38	58.4959
1516.11	95.4891	1516.11	94.4593	1516.11	92.7247	1516.11	93.0102	1516.11	83.0938	1516.11	92.4445	1516.11	78.8148	1516.11	90.6199	1516.11	48.3761	1516.11	85.2088	1516.11	83.1474	1516.11	76.5992	1516.11	86.7223	1516.11	67.4886	1516.11	86.3167	1516.11	66.1703	1516.11	85.1579	1516.11	65.0587	1516.11	82.5375	1516.11	70.8889	1516.11	78.7108	1516.11	63.364	1516.11	77.8777	1516.11	68.2001	1516.11	77.551	1516.11	68.8864	1516.11	74.172	1516.11	74.4057	1516.11	66.5041	1516.11	67.7931	1516.11	71.0251	1516.11	57.5304	1516.11	74.5152	1516.11	69.3351	1516.11	66.3171	1516.11	64.8721
1568.85	94.992	1568.85	94.0256	1568.85	92.4447	1568.85	92.7842	1568.85	82.5321	1568.85	91.5305	1568.85	80.4412	1568.85	89.0442	1568.85	73.7984	1568.85	83.836	1568.85	84.6212	1568.85	77.1774	1568.85	87.7943	1568.85	65.029	1568.85	86.9727	1568.85	73.8157	1568.85	84.5221	1568.85	71.9903	1568.85	81.4654	1568.85	71.128	1568.85	82.2226	1568.85	68.0492	1568.85	78.3915	1568.85	71.6081	1568.85	77.327	1568.85	70.7725	1568.85	74.3423	1568.85	72.8006	1568.85	55.3638	1568.85	67.6709	1568.85	75.6936	1568.85	66.9555	1568.85	78.6226	1568.85	68.1989	1568.85	69.0647	1568.85	67.4129
1624.51	95.0868	1624.51	94.4605	1624.51	92.5491	1624.51	93.2463	1624.51	82.6282	1624.51	91.323	1624.51	82.3413	1624.51	88.8115	1624.51	80.0697	1624.51	85.6191	1624.51	86.9066	1624.51	79.603	1624.51	88.9521	1624.51	73.3548	1624.51	88.3429	1624.51	65.8381	1624.51	86.0765	1624.51	68.2296	1624.51	83.8263	1624.51	65.6397	1624.51	80.3671	1624.51	70.7618	1624.51	80.6009	1624.51	71.3951	1624.51	80.2082	1624.51	70.4758	1624.51	77.7534	1624.51	72.2459	1624.51	62.11	1624.51	67.034	1624.51	73.7321	1624.51	65.674	1624.51	68.0856	1624.51	66.4019	1624.51	68.4589	1624.51	38.2519
1681.64	94.8444	1681.64	95.0914	1681.64	92.0213	1681.64	93.8341	1681.64	81.7807	1681.64	91.8158	1681.64	82.1991	1681.64	89.4651	1681.64	82.9797	1681.64	87.2752	1681.64	88.8076	1681.64	82.4418	1681.64	90.6815	1681.64	75.7691	1681.64	89.4887	1681.64	73.4295	1681.64	86.6002	1681.64	71.1385	1681.64	83.2883	1681.64	72.2255	1681.64	81.6811	1681.64	64.3978	1681.64	79.9186	1681.64	69.0637	1681.64	80.8853	1681.64	73.2501	1681.64	78.8564	1681.64	73.7185	1681.64	72.6617	1681.64	68.4712	1681.64	69.117	1681.64	57.3485	1681.64	70.4133	1681.64	67.1319	1681.64	65.5634	1681.64	71.1694
1741.7	94.4213	1741.7	95.1235	1741.7	91.0151	1741.7	93.7059	1741.7	79.369	1741.7	91.6347	1741.7	83.8	1741.7	89.2437	1741.7	83.3382	1741.7	86.7558	1741.7	88.8737	1741.7	82.0016	1741.7	90.7889	1741.7	74.2983	1741.7	89.7758	1741.7	77.694	1741.7	86.5578	1741.7	77.5549	1741.7	84.1487	1741.7	74.4074	1741.7	81.2973	1741.7	65.7525	1741.7	77.8505	1741.7	72.1566	1741.7	77.9225	1741.7	76.655	1741.7	75.9713	1741.7	73.3248	1741.7	65.0719	1741.7	70.9076	1741.7	71.3566	1741.7	64.2435	1741.7	75.3959	1741.7	66.5243	1741.7	64.562	1741.7	65.0097
1803.22	93.793	1803.22	94.5191	1803.22	90.6708	1803.22	93.2745	1803.22	80.1938	1803.22	90.8101	1803.22	85.5384	1803.22	88.4814	1803.22	84.8933	1803.22	86.5145	1803.22	89.2223	1803.22	81.8683	1803.22	91.0348	1803.22	76.0227	1803.22	89.9112	1803.22	73.0562	1803.22	87.1246	1803.22	75.5222	1803.22	82.6002	1803.22	69.6681	1803.22	79.8839	1803.22	71.5825	1803.22	80.7672	1803.22	69.549	1803.22	77.717	1803.22	75.6963	1803.22	75.0051	1803.22	73.5788	1803.22	56.5643	1803.22	65.2194	1803.22	74.9912	1803.22	64.8098	1803.22	74.9508	1803.22	60.9509	1803.22	67.5855	1803.22	60.2753
1866.21	93.9147	1866.21	94.3083	1866.21	90.9143	1866.21	93.3838	1866.21	83.5877	1866.21	90.7774	1866.21	87.7387	1866.21	89.1601	1866.21	87.6215	1866.21	87.2201	1866.21	90.6257	1866.21	83.6491	1866.21	92.2936	1866.21	78.4614	1866.21	91.152	1866.21	71.8306	1866.21	88.3575	1866.21	65.0383	1866.21	84.8859	1866.21	75.1343	1866.21	84.1869	1866.21	72.2035	1866.21	79.833	1866.21	71.6	1866.21	79.7811	1866.21	76.0965	1866.21	76.9472	1866.21	72.3887	1866.21	60.1424	1866.21	64.3998	1866.21	76.8544	1866.21	69.6368	1866.21	72.1659	1866.21	66.5718	1866.21	69.1704	1866.21	62.1585
1932.13	94.7422	1932.13	94.8383	1932.13	90.575	1932.13	93.9459	1932.13	86.2121	1932.13	92.2121	1932.13	88.5675	1932.13	90.2528	1932.13	89.4282	1932.13	88.1205	1932.13	90.6389	1932.13	84.6684	1932.13	93.0747	1932.13	82.266	1932.13	91.584	1932.13	80.7713	1932.13	88.7252	1932.13	71.8852	1932.13	85.4577	1932.13	74.926	1932.13	80.4658	1932.13	67.1359	1932.13	82.0207	1932.13	73.7765	1932.13	79.4851	1932.13	76.3558	1932.13	76.9891	1932.13	74.0343	1932.13	73.2762	1932.13	67.6855	1932.13	72.7995	1932.13	72.633	1932.13	67.8305	1932.13	67.7364	1932.13	64.707	1932.13	59.9339
1999.51	94.1823	1999.51	94.941	1999.51	89.9472	1999.51	93.738	1999.51	86.8838	1999.51	92.4109	1999.51	88.1157	1999.51	90.1604	1999.51	89.4367	1999.51	88.4988	1999.51	90.0324	1999.51	84.6285	1999.51	92.5692	1999.51	83.3429	1999.51	90.943	1999.51	82.744	1999.51	87.7559	1999.51	79.916	1999.51	82.6091	1999.51	77.2943	1999.51	77.5117	1999.51	70.12	1999.51	81.912	1999.51	73.971	1999.51	78.3868	1999.51	77.3991	1999.51	76.445	1999.51	73.6644	1999.51	65.8374	1999.51	62.3418	1999.51	66.3665	1999.51	67.5748	1999.51	68.57	1999.51	68.9081	1999.51	60.168	1999.51	64.8
2069.82	94.7732	2069.82	94.6938	2069.82	91.5479	2069.82	93.2934	2069.82	89.3989	2069.82	91.9502	2069.82	89.1064	2069.82	89.4143	2069.82	90.7241	2069.82	88.3595	2069.82	91.1701	2069.82	85.6946	2069.82	92.9464	2069.82	83.4232	2069.82	91.9797	2069.82	82.9943	2069.82	88.1251	2069.82	81.2523	2069.82	83.7717	2069.82	81.1732	2069.82	79.0317	2069.82	73.0256	2069.82	79.2457	2069.82	76.7756	2069.82	77.2748	2069.82	78.3596	2069.82	72.8896	2069.82	76.4725	2069.82	52.4546	2069.82	65.6087	2069.82	62.0925	2069.82	70.9655	2069.82	63.3094	2069.82	69.1195	2069.82	71.8599	2069.82	55.0422
2143.07	95.5307	2143.07	95.7901	2143.07	93.1441	2143.07	94.8325	2143.07	92.1827	2143.07	94.2194	2143.07	91.0984	2143.07	90.8443	2143.07	92.7448	2143.07	89.0434	2143.07	92.6471	2143.07	89.3173	2143.07	93.7447	2143.07	87.1908	2143.07	92.5935	2143.07	85.5236	2143.07	88.5539	2143.07	82.9011	2143.07	83.413	2143.07	81.0564	2143.07	81.7617	2143.07	76.352	2143.07	79.6787	2143.07	76.9183	2143.07	81.2231	2143.07	77.2378	2143.07	70.7742	2143.07	76.9636	2143.07	55.2455	2143.07	66.761	2143.07	70.1137	2143.07	62.1782	2143.07	57.1867	2143.07	62.6653	2143.07	70.2664	2143.07	63.7655
2219.24	94.6643	2219.24	95.3004	2219.24	92.7649	2219.24	95.0646	2219.24	91.8662	2219.24	94.3213	2219.24	91.6597	2219.24	90.5685	2219.24	93.2974	2219.24	89.6046	2219.24	92.0724	2219.24	90.4018	2219.24	92.1305	2219.24	89.2992	2219.24	91.3598	2219.24	85.9956	2219.24	86.6428	2219.24	81.5742	2219.24	80.8793	2219.24	79.41	2219.24	78.8885	2219.24	77.5072	2219.24	79.7906	2219.24	78.2104	2219.24	79.718	2219.24	79.0294	2219.24	76.9618	2219.24	76.977	2219.24	66.7136	2219.24	63.2784	2219.24	73.5179	2219.24	71.9615	2219.24	64.591	2219.24	57.1275	2219.24	69.7382	2219.24	66.9605
2296.88	93.4841	2296.88	94.1734	2296.88	92.5413	2296.88	94.1778	2296.88	91.824	2296.88	93.6002	2296.88	91.9877	2296.88	89.7015	2296.88	93.1816	2296.88	89.7352	2296.88	91.0259	2296.88	89.8448	2296.88	90.5627	2296.88	88.3919	2296.88	89.8892	2296.88	85.7727	2296.88	86.4074	2296.88	81.4021	2296.88	82.2022	2296.88	80.2991	2296.88	78.0297	2296.88	77.3531	2296.88	79.0827	2296.88	77.6117	2296.88	76.6533	2296.88	78.9624	2296.88	72.518	2296.88	74.123	2296.88	58.0189	2296.88	65.6935	2296.88	68.0889	2296.88	71.595	2296.88	58.4804	2296.88	56.0786	2296.88	64.7659	2296.88	66.3213
2378.91	94.2608	2378.91	95.0058	2378.91	93.7844	2378.91	95.2877	2378.91	93.6385	2378.91	94.1664	2378.91	93.6111	2378.91	90.9848	2378.91	93.7462	2378.91	89.5751	2378.91	91.3124	2378.91	89.925	2378.91	90.9388	2378.91	88.6313	2378.91	90.4785	2378.91	85.1751	2378.91	86.8379	2378.91	81.6093	2378.91	82.3321	2378.91	78.7664	2378.91	78.8734	2378.91	77.6246	2378.91	79.0881	2378.91	78.7069	2378.91	76.6503	2378.91	77.2789	2378.91	72.2245	2378.91	73.4783	2378.91	70.1855	2378.91	66.9293	2378.91	70.3821	2378.91	63.8073	2378.91	50.4369	2378.91	52.9309	2378.91	65.9444	2378.91	62.7144
2462.4	94.0296	2462.4	95.0771	2462.4	94.324	2462.4	95.702	2462.4	94.444	2462.4	94.6914	2462.4	93.9685	2462.4	92.587	2462.4	92.856	2462.4	89.9856	2462.4	90.4486	2462.4	90.8147	2462.4	90.0351	2462.4	89.0232	2462.4	89.4997	2462.4	86.0212	2462.4	85.0636	2462.4	81.3788	2462.4	80.7116	2462.4	76.7778	2462.4	75.9381	2462.4	77.3383	2462.4	78.7737	2462.4	77.8191	2462.4	76.8259	2462.4	78.1303	2462.4	69.2271	2462.4	70.2487	2462.4	60.7927	2462.4	68.3223	2462.4	69.9598	2462.4	71.6144	2462.4	52.2065	2462.4	62.8794	2462.4	64.5088	2462.4	61.5848
2548.83	92.4823	2548.83	94.1547	2548.83	93.4281	2548.83	94.3258	2548.83	94.2687	2548.83	93.8839	2548.83	92.6266	2548.83	91.1709	2548.83	91.6217	2548.83	89.3536	2548.83	89.0169	2548.83	89.6268	2548.83	88.4167	2548.83	87.835	2548.83	87.5548	2548.83	83.7769	2548.83	84.1367	2548.83	80.433	2548.83	79.4651	2548.83	76.9454	2548.83	74.5676	2548.83	75.7131	2548.83	76.746	2548.83	78.1287	2548.83	75.4431	2548.83	76.3211	2548.83	67.5785	2548.83	68.499	2548.83	68.7042	2548.83	63.9794	2548.83	61.4038	2548.83	57.6172	2548.83	63.331	2548.83	44.7227	2548.83	63.117	2548.83	60.8977
2639.65	93.1067	2639.65	94.3644	2639.65	94.2851	2639.65	94.2028	2639.65	94.9642	2639.65	94.3108	2639.65	92.6583	2639.65	90.2908	2639.65	91.5316	2639.65	88.9666	2639.65	88.4868	2639.65	88.3804	2639.65	87.064	2639.65	86.5952	2639.65	87.1599	2639.65	82.6824	2639.65	83.965	2639.65	80.1839	2639.65	78.2779	2639.65	74.8734	2639.65	75.3505	2639.65	74.4473	2639.65	76.4516	2639.65	76.5801	2639.65	75.6427	2639.65	76.9547	2639.65	61.3093	2639.65	63.9111	2639.65	63.2352	2639.65	67.8722	2639.65	65.3683	2639.65	68.9827	2639.65	60.1647	2639.65	68.0041	2639.65	59.2837	2639.65	56.1516
2731.93	93.0134	2731.93	94.5777	2731.93	94.9738	2731.93	94.1518	2731.93	94.4542	2731.93	94.5186	2731.93	92.3488	2731.93	91.2016	2731.93	90.8266	2731.93	88.6201	2731.93	87.2666	2731.93	88.5208	2731.93	85.5427	2731.93	87.051	2731.93	87.0765	2731.93	84.9604	2731.93	83.7145	2731.93	79.2687	2731.93	81.5403	2731.93	75.936	2731.93	75.557	2731.93	75.9414	2731.93	75.5238	2731.93	77.1202	2731.93	74.7256	2731.93	74.7678	2731.93	63.1105	2731.93	64.6082	2731.93	65.7267	2731.93	66.7004	2731.93	62.0917	2731.93	53.1629	2731.93	63.3002	2731.93	61.9224	2731.93	64.2653	2731.93	50.4474
2828.61	93.1546	2828.61	94.2799	2828.61	94.7425	2828.61	93.879	2828.61	94.2659	2828.61	93.8056	2828.61	92.2964	2828.61	90.7468	2828.61	88.9811	2828.61	86.4726	2828.61	86.0053	2828.61	88.3071	2828.61	86.125	2828.61	86.5112	2828.61	88.4937	2828.61	82.5059	2828.61	84.3222	2828.61	77.8518	2828.61	79.3242	2828.61	73.8261	2828.61	75.2369	2828.61	71.7745	2828.61	75.0836	2828.61	75.717	2828.61	74.8527	2828.61	74.7393	2828.61	62.7639	2828.61	47.852	2828.61	65.0009	2828.61	66.5268	2828.61	60.3501	2828.61	71.3255	2828.61	62.2698	2828.61	68.1326	2828.61	61.3986	2828.61	63.2884
2928.22	93.0668	2928.22	94.018	2928.22	94.856	2928.22	93.8694	2928.22	94.2944	2928.22	93.1177	2928.22	91.9937	2928.22	90.1141	2928.22	87.7816	2928.22	85.7953	2928.22	86.3873	2928.22	87.5508	2928.22	85.7196	2928.22	85.4895	2928.22	86.7967	2928.22	82.1958	2928.22	82.5847	2928.22	79.6021	2928.22	78.1086	2928.22	72.1778	2928.22	73.5476	2928.22	72.8752	2928.22	75.4156	2928.22	75.073	2928.22	74.206	2928.22	74.8557	2928.22	64.2103	2928.22	62.6544	2928.22	65.6455	2928.22	67.637	2928.22	51.1809	2928.22	62.3225	2928.22	60.7993	2928.22	54.1833	2928.22	56.5564	2928.22	50.4421
3030.76	93.9644	3030.76	94.0353	3030.76	95.006	3030.76	94.2628	3030.76	94.6496	3030.76	93.1001	3030.76	91.5421	3030.76	90.5237	3030.76	87.8822	3030.76	85.2411	3030.76	86.9651	3030.76	87.0432	3030.76	84.827	3030.76	86.3465	3030.76	86.2009	3030.76	83.2173	3030.76	82.8945	3030.76	77.7607	3030.76	78.1994	3030.76	71.1705	3030.76	73.7246	3030.76	73.2544	3030.76	72.2167	3030.76	73.9484	3030.76	73.5095	3030.76	70.5739	3030.76	63.4187	3030.76	48.178	3030.76	60.2611	3030.76	62.9055	3030.76	65.619	3030.76	66.5279	3030.76	58.4286	3030.76	65.248	3030.76	61.3996	3030.76	62.009
3137.7	94.1289	3137.7	93.6453	3137.7	95.0552	3137.7	94.0963	3137.7	94.5234	3137.7	92.4336	3137.7	91.4466	3137.7	90.1543	3137.7	87.5961	3137.7	84.45	3137.7	86.8235	3137.7	86.8318	3137.7	83.6411	3137.7	85.9723	3137.7	87.2326	3137.7	82.1649	3137.7	84.8943	3137.7	76.8137	3137.7	77.9996	3137.7	72.0356	3137.7	73.8361	3137.7	68.3258	3137.7	73.4645	3137.7	73.5725	3137.7	70.2159	3137.7	70.385	3137.7	63.3306	3137.7	57.8883	3137.7	59.7162	3137.7	62.6324	3137.7	43.9563	3137.7	55.1578	3137.7	63.0452	3137.7	59.4221	3137.7	56.9269	3137.7	56.7732
3249.02	94.6232	3249.02	94.2688	3249.02	95.4723	3249.02	94.6555	3249.02	94.1639	3249.02	92.2077	3249.02	91.571	3249.02	90.4757	3249.02	87.5374	3249.02	84.0715	3249.02	86.2305	3249.02	85.5563	3249.02	83.5554	3249.02	84.8482	3249.02	86.1578	3249.02	79.2844	3249.02	84.2164	3249.02	74.9848	3249.02	78.4283	3249.02	70.4899	3249.02	74.7575	3249.02	68.9198	3249.02	72.657	3249.02	73.4117	3249.02	72.2705	3249.02	71.6658	3249.02	64.734	3249.02	53.016	3249.02	57.434	3249.02	63.9581	3249.02	60.3616	3249.02	61.7557	3249.02	57.5368	3249.02	55.6827	3249.02	58.2831	3249.02	53.536
3363.28	94.6457	3363.28	94.306	3363.28	95.0366	3363.28	94.2904	3363.28	93.3726	3363.28	92.4356	3363.28	90.9306	3363.28	90.7519	3363.28	87.1759	3363.28	85.1886	3363.28	85.1592	3363.28	84.2847	3363.28	83.4288	3363.28	85.0328	3363.28	84.4077	3363.28	82.0905	3363.28	82.0034	3363.28	77.2942	3363.28	75.5651	3363.28	69.1822	3363.28	71.2028	3363.28	67.6362	3363.28	71.9277	3363.28	73.8553	3363.28	68.2983	3363.28	70.9263	3363.28	62.8187	3363.28	54.9733	3363.28	62.2854	3363.28	58.6163	3363.28	59.228	3363.28	59.0124	3363.28	62.3925	3363.28	63.1626	3363.28	55.5959	3363.28	62.6622
3481.93	95.3799	3481.93	94.896	3481.93	95.5031	3481.93	94.139	3481.93	93.7608	3481.93	92.5788	3481.93	91.6991	3481.93	90.5753	3481.93	88.026	3481.93	83.9862	3481.93	86.0247	3481.93	82.0783	3481.93	83.4865	3481.93	83.6857	3481.93	83.5127	3481.93	80.9172	3481.93	81.0834	3481.93	77.101	3481.93	75.6739	3481.93	71.4996	3481.93	68.0118	3481.93	68.9709	3481.93	71.2295	3481.93	71.9006	3481.93	66.2456	3481.93	67.4408	3481.93	65.5723	3481.93	53.4997	3481.93	53.9122	3481.93	61.5262	3481.93	52.826	3481.93	58.1937	3481.93	57.378	3481.93	53.7791	3481.93	53.9291	3481.93	48.2276
3604.98	94.8162	3604.98	94.2413	3604.98	94.5256	3604.98	93.5402	3604.98	92.908	3604.98	92.2864	3604.98	90.6783	3604.98	89.8199	3604.98	87.0384	3604.98	83.7123	3604.98	84.9006	3604.98	81.8987	3604.98	78.9948	3604.98	82.1483	3604.98	80.3131	3604.98	80.8967	3604.98	79.3852	3604.98	76.6033	3604.98	71.948	3604.98	71.1359	3604.98	70.7028	3604.98	71.209	3604.98	67.341	3604.98	69.9468	3604.98	64.2189	3604.98	66.7536	3604.98	65.4498	3604.98	53.5489	3604.98	55.0114	3604.98	64.1239	3604.98	61.156	3604.98	63.1809	3604.98	57.6527	3604.98	62.0752	3604.98	58.865	3604.98	60.6618
3732.42	95.4689	3732.42	94.8004	3732.42	94.6892	3732.42	93.7509	3732.42	93.5324	3732.42	92.3853	3732.42	91.6644	3732.42	89.7508	3732.42	88.5114	3732.42	83.1083	3732.42	85.2907	3732.42	79.7865	3732.42	78.01	3732.42	81.7308	3732.42	80.4905	3732.42	80.2363	3732.42	80.5741	3732.42	76.5818	3732.42	75.2592	3732.42	73.4539	3732.42	70.1538	3732.42	69.9328	3732.42	65.3147	3732.42	68.5962	3732.42	66.8543	3732.42	66.1315	3732.42	65.1281	3732.42	59.1519	3732.42	57.8874	3732.42	58.3775	3732.42	62.0326	3732.42	43.9505	3732.42	56.9615	3732.42	58.1711	3732.42	55.957	3732.42	53.9774
3864.26	96.2651	3864.26	95.8097	3864.26	95.2302	3864.26	94.8853	3864.26	93.9733	3864.26	93.0993	3864.26	92.7337	3864.26	90.3752	3864.26	89.6696	3864.26	84.0902	3864.26	85.2921	3864.26	80.7692	3864.26	80.7162	3864.26	83.9388	3864.26	80.3523	3864.26	81.8158	3864.26	80.439	3864.26	76.4094	3864.26	74.408	3864.26	71.1835	3864.26	68.1526	3864.26	70.4617	3864.26	67.1827	3864.26	69.7196	3864.26	66.1591	3864.26	69.7461	3864.26	67.1378	3864.26	56.6613	3864.26	57.5437	3864.26	58.3708	3864.26	51.5122	3864.26	53.4276	3864.26	64.5632	3864.26	59.9434	3864.26	53.5775	3864.26	57.2893
4000.49	97.3681	4000.49	96.812	4000.49	96.076	4000.49	95.464	4000.49	94.7396	4000.49	93.3398	4000.49	93.5422	4000.49	90.8891	4000.49	90.2951	4000.49	84.4403	4000.49	85.7828	4000.49	80.5628	4000.49	82.4963	4000.49	82.9105	4000.49	79.8993	4000.49	81.1909	4000.49	80.6679	4000.49	77.4042	4000.49	75.1245	4000.49	73.0257	4000.49	69.1252	4000.49	67.477	4000.49	64.2854	4000.49	68.2838	4000.49	60.0813	4000.49	71.2641	4000.49	65.0261	4000.49	60.4994	4000.49	59.009	4000.49	66.4483	4000.49	62.6402	4000.49	62.8696	4000.49	57.4267	4000.49	61.2554	4000.49	45.6304	4000.49	54.5029
4141.11	97.6952	4141.11	97.1933	4141.11	96.4415	4141.11	95.7462	4141.11	94.7457	4141.11	93.3113	4141.11	93.8533	4141.11	90.4801	4141.11	89.402	4141.11	85.4563	4141.11	86.3226	4141.11	80.3419	4141.11	80.7129	4141.11	84.2569	4141.11	79.6805	4141.11	81.4446	4141.11	81.4399	4141.11	77.677	4141.11	76.3051	4141.11	73.3681	4141.11	71.8328	4141.11	69.189	4141.11	65.5746	4141.11	69.579	4141.11	66.1365	4141.11	68.6657	4141.11	57.9722	4141.11	56.8706	4141.11	52.7733	4141.11	58.7076	4141.11	60.2238	4141.11	51.2377	4141.11	62.1056	4141.11	61.1287	4141.11	57.9885	4141.11	63.1882
4287.6	98.1975	4287.6	97.9164	4287.6	96.8458	4287.6	96.3049	4287.6	95.1843	4287.6	93.6289	4287.6	93.4687	4287.6	90.2865	4287.6	88.6708	4287.6	86.6417	4287.6	85.2483	4287.6	79.607	4287.6	81.6064	4287.6	83.9499	4287.6	81.6553	4287.6	79.332	4287.6	81.9468	4287.6	77.9732	4287.6	75.8226	4287.6	72.0038	4287.6	71.6808	4287.6	67.521	4287.6	69.3347	4287.6	70.9406	4287.6	66.856	4287.6	63.6294	4287.6	60.598	4287.6	56.2343	4287.6	54.8495	4287.6	60.249	4287.6	59.2018	4287.6	33.2433	4287.6	55.1466	4287.6	60.7488	4287.6	58.1534	4287.6	49.4677
4438.48	98.6562	4438.48	98.0931	4438.48	97.5149	4438.48	96.3762	4438.48	96.189	4438.48	93.6622	4438.48	93.838	4438.48	89.4208	4438.48	89.6365	4438.48	87.4411	4438.48	84.6023	4438.48	77.7357	4438.48	82.2647	4438.48	83.2296	4438.48	80.1935	4438.48	81.5921	4438.48	81.0889	4438.48	77.6791	4438.48	76.6623	4438.48	71.4909	4438.48	71.4236	4438.48	67.5262	4438.48	68.4728	4438.48	68.3385	4438.48	68.1188	4438.48	64.1861	4438.48	47.7855	4438.48	54.7072	4438.48	58.327	4438.48	53.3292	4438.48	53.7532	4438.48	41.1703	4438.48	57.8171	4438.48	65.0065	4438.48	55.5942	4438.48	61.7595
4595.21	98.4899	4595.21	98.0265	4595.21	97.2889	4595.21	95.849	4595.21	96.3993	4595.21	93.173	4595.21	93.7983	4595.21	89.0931	4595.21	89.5643	4595.21	87.4399	4595.21	84.5781	4595.21	78.1461	4595.21	80.8964	4595.21	83.9711	4595.21	80.8766	4595.21	81.2422	4595.21	83.2611	4595.21	78.0666	4595.21	78.8921	4595.21	73.1478	4595.21	73.6058	4595.21	61.3601	4595.21	65.4082	4595.21	68.3718	4595.21	66.5728	4595.21	62.0925	4595.21	52.4168	4595.21	50.5617	4595.21	58.8407	4595.21	61.8546	4595.21	57.3222	4595.21	61.6298	4595.21	54.6907	4595.21	61.1101	4595.21	57.113	4595.21	44.3264
4756.35	98.6358	4756.35	98.3351	4756.35	97.6518	4756.35	95.5054	4756.35	96.0772	4756.35	93.365	4756.35	93.8382	4756.35	90.4716	4756.35	89.748	4756.35	88.1514	4756.35	84.6893	4756.35	81.269	4756.35	82.6521	4756.35	83.9971	4756.35	82.4449	4756.35	84.1662	4756.35	82.8957	4756.35	79.1506	4756.35	78.6587	4756.35	73.6822	4756.35	72.2793	4756.35	63.572	4756.35	58.1306	4756.35	68.2773	4756.35	65.0151	4756.35	65.4488	4756.35	46.7982	4756.35	57.568	4756.35	62.4045	4756.35	59.4593	4756.35	54.8515	4756.35	46.7608	4756.35	59.4893	4756.35	60.5145	4756.35	57.2758	4756.35	59.3372
4924.8	98.3436	4924.8	98.6752	4924.8	97.4098	4924.8	95.6274	4924.8	94.976	4924.8	92.646	4924.8	92.9794	4924.8	90.6909	4924.8	89.4056	4924.8	87.7174	4924.8	84.7054	4924.8	82.8878	4924.8	84.7246	4924.8	85.7072	4924.8	81.1494	4924.8	84.3576	4924.8	82.2893	4924.8	78.9923	4924.8	77.9297	4924.8	74.8789	4924.8	68.3974	4924.8	64.013	4924.8	63.7542	4924.8	65.9971	4924.8	68.2788	4924.8	61.5023	4924.8	62.0106	4924.8	60.2469	4924.8	62.7295	4924.8	61.5623	4924.8	48.5495	4924.8	62.3113	4924.8	58.4964	4924.8	51.1448	4924.8	48.9913	4924.8	61.6592
5097.66	98.5843	5097.66	98.9133	5097.66	97.6879	5097.66	96.385	5097.66	94.6144	5097.66	92.5956	5097.66	92.4481	5097.66	90.0632	5097.66	88.9775	5097.66	86.8326	5097.66	86.2679	5097.66	85.5978	5097.66	85.2369	5097.66	85.0507	5097.66	82.0067	5097.66	86.068	5097.66	83.5751	5097.66	79.8756	5097.66	78.3815	5097.66	73.8082	5097.66	71.8948	5097.66	65.5473	5097.66	62.8908	5097.66	65.5224	5097.66	67.1727	5097.66	63.4278	5097.66	58.1598	5097.66	53.8078	5097.66	59.5658	5097.66	63.8189	5097.66	52.3205	5097.66	63.5942	5097.66	45.5978	5097.66	44.0641	5097.66	58.408	5097.66	60.1503
5277.83	98.1869	5277.83	97.7774	5277.83	97.7699	5277.83	95.6453	5277.83	94.1554	5277.83	92.2024	5277.83	91.4735	5277.83	87.3105	5277.83	88.1538	5277.83	87.5448	5277.83	86.7156	5277.83	85.954	5277.83	86.162	5277.83	83.6502	5277.83	82.4354	5277.83	84.3603	5277.83	83.347	5277.83	77.4203	5277.83	78.2281	5277.83	71.7845	5277.83	72.8207	5277.83	68.0227	5277.83	62.8977	5277.83	67.2238	5277.83	67.8299	5277.83	64.3506	5277.83	62.4909	5277.83	50.5605	5277.83	53.6677	5277.83	63.2323	5277.83	54.9434	5277.83	61.1001	5277.83	52.4247	5277.83	57.5503	5277.83	60.403	5277.83	61.1888
5463.87	98.1908	5463.87	96.8501	5463.87	97.5303	5463.87	94.2017	5463.87	93.933	5463.87	90.9852	5463.87	89.9899	5463.87	86.2002	5463.87	88.2797	5463.87	88.3099	5463.87	87.1523	5463.87	85.0912	5463.87	86.562	5463.87	81.2982	5463.87	81.4412	5463.87	83.1168	5463.87	80.3592	5463.87	77.8327	5463.87	77.2314	5463.87	73.9034	5463.87	69.9139	5463.87	65.9957	5463.87	64.8089	5463.87	65.0589	5463.87	66.1734	5463.87	64.0155	5463.87	62.2203	5463.87	46.8636	5463.87	56.2804	5463.87	60.8303	5463.87	52.8942	5463.87	64.1802	5463.87	53.4218	5463.87	55.5166	5463.87	59.0627	5463.87	62.2108
5657.23	97.756	5657.23	96.5981	5657.23	96.2334	5657.23	93.6989	5657.23	92.9313	5657.23	88.7911	5657.23	88.478	5657.23	86.8631	5657.23	87.351	5657.23	86.9082	5657.23	87.2377	5657.23	82.7115	5657.23	84.3954	5657.23	81.4173	5657.23	80.1585	5657.23	82.3627	5657.23	80.1584	5657.23	77.0437	5657.23	75.7093	5657.23	70.7484	5657.23	69.7207	5657.23	59.7996	5657.23	54.7286	5657.23	66.4169	5657.23	65.2505	5657.23	63.8487	5657.23	63.409	5657.23	51.9725	5657.23	52.7132	5657.23	60.3708	5657.23	55.8635	5657.23	61.193	5657.23	51.855	5657.23	60.9895	5657.23	58.2556	5657.23	58.2424
5856.45	97.9234	5856.45	97.1759	5856.45	95.8439	5856.45	94.7704	5856.45	92.9905	5856.45	89.0804	5856.45	88.0472	5856.45	87.2406	5856.45	86.8619	5856.45	85.6849	5856.45	86.6926	5856.45	83.5061	5856.45	84.6675	5856.45	80.0273	5856.45	80.3785	5856.45	83.0365	5856.45	78.9709	5856.45	76.1535	5856.45	73.0331	5856.45	70.1611	5856.45	68.5552	5856.45	62.5452	5856.45	60.6488	5856.45	62.4958	5856.45	65.2028	5856.45	63.7014	5856.45	64.0841	5856.45	54.0105	5856.45	57.2292	5856.45	52.0962	5856.45	55.3758	5856.45	60.6486	5856.45	47.8434	5856.45	60.4751	5856.45	52.3848	5856.45	57.0341
6062.99	97.3153	6062.99	96.4793	6062.99	95.9177	6062.99	94.0996	6062.99	92.158	6062.99	88.9929	6062.99	87.0886	6062.99	86.5566	6062.99	86.6178	6062.99	84.8961	6062.99	86.4303	6062.99	84.473	6062.99	83.8803	6062.99	80.906	6062.99	76.575	6062.99	81.9592	6062.99	78.7143	6062.99	76.6303	6062.99	73.0304	6062.99	70.4291	6062.99	68.3378	6062.99	65.2277	6062.99	64.555	6062.99	59.8412	6062.99	64.2325	6062.99	64.054	6062.99	63.3602	6062.99	57.4173	6062.99	60.1392	6062.99	40.3667	6062.99	60.1699	6062.99	60.4861	6062.99	49.4735	6062.99	53.8969	6062.99	49.6605	6062.99	61.5285
6276.86	97.592	6276.86	96.4733	6276.86	96.6783	6276.86	93.4899	6276.86	92.248	6276.86	89.0376	6276.86	87.3682	6276.86	86.4802	6276.86	87.9121	6276.86	85.244	6276.86	87.3796	6276.86	84.5962	6276.86	83.2003	6276.86	80.8108	6276.86	78.1626	6276.86	82.5453	6276.86	77.4265	6276.86	77.4386	6276.86	74.1228	6276.86	72.2217	6276.86	68.4787	6276.86	65.8682	6276.86	61.5089	6276.86	61.9256	6276.86	62.3419	6276.86	61.4915	6276.86	63.0354	6276.86	45.6724	6276.86	54.5633	6276.86	56.9593	6276.86	63.1802	6276.86	53.8398	6276.86	58.3083	6276.86	54.0254	6276.86	56.5863	6276.86	57.8258
6498.05	98.2784	6498.05	97.2183	6498.05	96.9369	6498.05	93.6003	6498.05	93.0176	6498.05	89.7686	6498.05	88.381	6498.05	86.4659	6498.05	88.4712	6498.05	85.3784	6498.05	86.3975	6498.05	83.3267	6498.05	83.4384	6498.05	80.6486	6498.05	77.537	6498.05	81.2147	6498.05	73.8555	6498.05	77.2596	6498.05	74.1531	6498.05	69.5237	6498.05	67.0519	6498.05	65.0635	6498.05	55.6843	6498.05	60.2458	6498.05	53.9835	6498.05	61.4104	6498.05	65.2199	6498.05	56.2277	6498.05	57.9701	6498.05	57.0208	6498.05	61.6245	6498.05	44.5481	6498.05	51.9165	6498.05	55.1221	6498.05	56.833	6498.05	49.03
6726.56	98.3743	6726.56	97.5031	6726.56	96.8109	6726.56	93.868	6726.56	92.6648	6726.56	90.2756	6726.56	88.9622	6726.56	85.6384	6726.56	87.2049	6726.56	85.6734	6726.56	85.834	6726.56	81.5804	6726.56	82.338	6726.56	78.952	6726.56	80.0422	6726.56	80.2071	6726.56	76.6784	6726.56	75.8711	6726.56	74.1153	6726.56	69.2832	6726.56	67.7224	6726.56	62.3833	6726.56	58.8992	6726.56	58.2654	6726.56	63.8114	6726.56	64.66	6726.56	54.2384	6726.56	54.7679	6726.56	53.7672	6726.56	55.5366	6726.56	60.6541	6726.56	62.7255	6726.56	47.0679	6726.56	44.5276	6726.56	58.0896	6726.56	52.2652
6963.87	98.5199	6963.87	97.5745	6963.87	97.2194	6963.87	93.7651	6963.87	92.2812	6963.87	89.8704	6963.87	88.5346	6963.87	85.9395	6963.87	87.6181	6963.87	85.2369	6963.87	85.2357	6963.87	83.3775	6963.87	84.0591	6963.87	78.7679	6963.87	80.3294	6963.87	80.2108	6963.87	75.3209	6963.87	74.7978	6963.87	71.9547	6963.87	69.6259	6963.87	63.4986	6963.87	64.798	6963.87	63.8789	6963.87	59.7716	6963.87	64.943	6963.87	64.6651	6963.87	62.111	6963.87	58.1156	6963.87	59.113	6963.87	52.4949	6963.87	54.6061	6963.87	63.8239	6963.87	55.3377	6963.87	53.3714	6963.87	59.558	6963.87	58.6937
7209.96	99.4261	7209.96	98.1268	7209.96	97.848	7209.96	94.7357	7209.96	92.5111	7209.96	89.8419	7209.96	89.4988	7209.96	87.202	7209.96	87.51	7209.96	83.8821	7209.96	85.6199	7209.96	84.1015	7209.96	85.0267	7209.96	79.0607	7209.96	82.6225	7209.96	78.763	7209.96	77.3734	7209.96	75.8873	7209.96	75.04	7209.96	70.54	7209.96	68.1145	7209.96	65.9565	7209.96	63.508	7209.96	62.1241	7209.96	67.9889	7209.96	61.3245	7209.96	58.0599	7209.96	55.2916	7209.96	55.8437	7209.96	48.2786	7209.96	59.8113	7209.96	58.1557	7209.96	56.0757	7209.96	63.8815	7209.96	60.9318	7209.96	52.3067
7464.84	99.5857	7464.84	98.1846	7464.84	97.6529	7464.84	94.1106	7464.84	92.4987	7464.84	89.7456	7464.84	90.1451	7464.84	87.2039	7464.84	87.3067	7464.84	85.3848	7464.84	85.8594	7464.84	82.6426	7464.84	85.9238	7464.84	79.0615	7464.84	82.7876	7464.84	77.1963	7464.84	74.3034	7464.84	75.7305	7464.84	72.8651	7464.84	65.8835	7464.84	60.4091	7464.84	63.3657	7464.84	62.7786	7464.84	63.3672	7464.84	65.6366	7464.84	65.2242	7464.84	58.266	7464.84	51.8018	7464.84	58.2783	7464.84	57.616	7464.84	58.7812	7464.84	64.9117	7464.84	56.7074	7464.84	65.5494	7464.84	64.1649	7464.84	61.8786
7727.05	98.6288	7727.05	96.9141	7727.05	95.9469	7727.05	92.6559	7727.05	91.7873	7727.05	89.1197	7727.05	89.1485	7727.05	86.6442	7727.05	86.8313	7727.05	84.8306	7727.05	86.3028	7727.05	81.9113	7727.05	85.6991	7727.05	76.728	7727.05	80.7647	7727.05	76.6188	7727.05	74.2749	7727.05	74.6932	7727.05	70.0828	7727.05	60.8109	7727.05	65.5775	7727.05	59.6212	7727.05	59.6529	7727.05	58.9855	7727.05	62.9314	7727.05	61.0833	7727.05	59.5497	7727.05	54.4371	7727.05	56.2769	7727.05	58.8691	7727.05	20.6026	7727.05	61.3839	7727.05	54.3475	7727.05	59.0432	7727.05	61.9536	7727.05	58.334
7999.51	98.8064	7999.51	96.813	7999.51	96.0163	7999.51	92.8403	7999.51	92.0569	7999.51	89.5439	7999.51	89.5583	7999.51	87.9896	7999.51	86.5138	7999.51	84.8234	7999.51	87.1532	7999.51	81.8144	7999.51	84.6282	7999.51	74.0636	7999.51	79.579	7999.51	74.0612	7999.51	68.2611	7999.51	73.0169	7999.51	70.4931	7999.51	61.772	7999.51	63.6985	7999.51	55.3425	7999.51	58.4865	7999.51	55.0128	7999.51	61.3518	7999.51	61.1544	7999.51	59.4016	7999.51	52.357	7999.51	56.4239	7999.51	55.1615	7999.51	53.7752	7999.51	62.8467	7999.51	43.2853	7999.51	63.5442	7999.51	57.1741	7999.51	60.4719
8282.23	98.9106	8282.23	96.9917	8282.23	96.3071	8282.23	92.7107	8282.23	92.6181	8282.23	90.0465	8282.23	90.632	8282.23	88.4523	8282.23	87.325	8282.23	84.4221	8282.23	86.8176	8282.23	80.1538	8282.23	83.9834	8282.23	75.0168	8282.23	79.2352	8282.23	73.3177	8282.23	73.9137	8282.23	71.5014	8282.23	68.2425	8282.23	63.0595	8282.23	60.1051	8282.23	57.879	8282.23	61.2792	8282.23	53.9448	8282.23	57.6415	8282.23	55.5941	8282.23	55.3756	8282.23	48.907	8282.23	59.7657	8282.23	61.818	8282.23	54.0835	8282.23	62.6266	8282.23	56.5769	8282.23	56.5596	8282.23	54.1171	8282.23	58.7051
8573.73	98.3487	8573.73	96.0696	8573.73	96.4473	8573.73	90.9363	8573.73	92.9573	8573.73	89.6211	8573.73	90.6745	8573.73	87.0748	8573.73	88.5726	8573.73	82.9318	8573.73	86.6968	8573.73	76.8728	8573.73	83.836	8573.73	75.3377	8573.73	79.9241	8573.73	70.4224	8573.73	75.4034	8573.73	69.177	8573.73	70.0408	8573.73	60.4727	8573.73	61.8057	8573.73	59.7932	8573.73	64.0114	8573.73	59.042	8573.73	57.1309	8573.73	56.15	8573.73	51.717	8573.73	59.2551	8573.73	60.8219	8573.73	64.4977	8573.73	58.9503	8573.73	58.6816	8573.73	57.3393	8573.73	54.9189	8573.73	54.4434	8573.73	54.4866
8876.95	97.9797	8876.95	95.5643	8876.95	95.9492	8876.95	91.5828	8876.95	93.0274	8876.95	89.5416	8876.95	88.7386	8876.95	87.3037	8876.95	88.0352	8876.95	82.017	8876.95	85.7694	8876.95	79.0991	8876.95	79.215	8876.95	74.8063	8876.95	82.011	8876.95	70.7368	8876.95	77.6028	8876.95	67.8195	8876.95	71.648	8876.95	62.7603	8876.95	64.5684	8876.95	62.2203	8876.95	63.1761	8876.95	64.1163	8876.95	60.8779	8876.95	60.7278	8876.95	54.8178	8876.95	52.6617	8876.95	58.7608	8876.95	61.5311	8876.95	58.8505	8876.95	59.0341	8876.95	60.7794	8876.95	60.9635	8876.95	59.937	8876.95	49.9686
9188.96	97.9454	9188.96	95.1808	9188.96	95.4592	9188.96	91.8298	9188.96	92.983	9188.96	90.0744	9188.96	88.923	9188.96	87.3711	9188.96	88.4013	9188.96	81.2916	9188.96	83.5902	9188.96	79.1528	9188.96	81.6243	9188.96	76.5882	9188.96	83.3448	9188.96	68.9123	9188.96	79.0839	9188.96	65.1525	9188.96	70.6438	9188.96	61.5351	9188.96	61.3761	9188.96	59.7914	9188.96	61.2136	9188.96	60.9573	9188.96	57.2346	9188.96	53.8509	9188.96	59.2497	9188.96	48.6121	9188.96	49.9405	9188.96	58.2331	9188.96	58.4169	9188.96	59.5898	9188.96	61.6075	9188.96	58.7323	9188.96	54.7706	9188.96	48.3421
9514.16	97.6322	9514.16	95.7271	9514.16	95.4019	9514.16	91.9711	9514.16	92.802	9514.16	90.4887	9514.16	89.121	9514.16	87.5442	9514.16	87.7117	9514.16	79.8619	9514.16	81.3403	9514.16	80.08	9514.16	83.9771	9514.16	73.8843	9514.16	82.9733	9514.16	67.8579	9514.16	77.3313	9514.16	63.8224	9514.16	66.9304	9514.16	50.2606	9514.16	61.493	9514.16	57.2136	9514.16	62.5462	9514.16	56.5394	9514.16	59.5992	9514.16	58.4699	9514.16	56.4306	9514.16	46.4341	9514.16	54.3699	9514.16	58.2451	9514.16	58.8858	9514.16	61.5801	9514.16	54.037	9514.16	59.4007	9514.16	60.4017	9514.16	59.1994
9849.61	97.5044	9849.61	95.7954	9849.61	95.8382	9849.61	92.6166	9849.61	92.2079	9849.61	90.6508	9849.61	89.9415	9849.61	86.5839	9849.61	86.2672	9849.61	82.8944	9849.61	80.1817	9849.61	78.7854	9849.61	83.9764	9849.61	75.175	9849.61	80.7766	9849.61	71.5745	9849.61	73.8249	9849.61	65.2305	9849.61	62.1379	9849.61	44.3831	9849.61	62.2823	9849.61	55.3006	9849.61	56.915	9849.61	42.9317	9849.61	61.0157	9849.61	53.5738	9849.61	59.4738	9849.61	51.4778	9849.61	55.0098	9849.61	56.669	9849.61	50.9352	9849.61	60.975	9849.61	54.5302	9849.61	59.6799	9849.61	58.4505	9849.61	64.2284
10196.8	97.5491	10196.8	95.947	10196.8	96.0135	10196.8	93.0897	10196.8	91.2714	10196.8	91.9288	10196.8	90.4964	10196.8	87.6876	10196.8	83.742	10196.8	82.5124	10196.8	81.0035	10196.8	82.2792	10196.8	82.7448	10196.8	77.5766	10196.8	77.4732	10196.8	71.3564	10196.8	73.6727	10196.8	58.628	10196.8	63.9355	10196.8	53.4976	10196.8	57.5969	10196.8	53.4451	10196.8	56.3082	10196.8	47.6395	10196.8	62.8009	10196.8	50.1058	10196.8	59.4082	10196.8	52.3434	10196.8	55.6944	10196.8	55.6034	10196.8	52.2064	10196.8	54.7816	10196.8	50.5696	10196.8	62.427	10196.8	59.8726	10196.8	64.8945
10555.7	96.9954	10555.7	96.4437	10555.7	95.3719	10555.7	93.404	10555.7	91.1258	10555.7	92.001	10555.7	89.9995	10555.7	88.1486	10555.7	81.7201	10555.7	84.5792	10555.7	82.5944	10555.7	81.9846	10555.7	79.612	10555.7	76.8589	10555.7	77.7653	10555.7	69.9148	10555.7	75.0034	10555.7	60.4359	10555.7	64.7567	10555.7	54.3677	10555.7	61.0725	10555.7	56.8613	10555.7	42.5172	10555.7	55.5044	10555.7	62.2041	10555.7	54.3441	10555.7	51.2702	10555.7	53.3352	10555.7	57.441	10555.7	52.7945	10555.7	59.1075	10555.7	50.9717	10555.7	51.3761	10555.7	59.1086	10555.7	54.8049	10555.7	62.1937
10927.7	96.8464	10927.7	95.5882	10927.7	95.1653	10927.7	92.2784	10927.7	91.3734	10927.7	90.9589	10927.7	89.8715	10927.7	87.1696	10927.7	84.3122	10927.7	84.0294	10927.7	82.0851	10927.7	80.8953	10927.7	77.7674	10927.7	73.3116	10927.7	78.9465	10927.7	68.2565	10927.7	74.9627	10927.7	52.905	10927.7	63.5933	10927.7	46.5727	10927.7	55.3546	10927.7	52.4743	10927.7	44.4619	10927.7	55.9978	10927.7	59.6533	10927.7	53.5291	10927.7	52.2011	10927.7	48.188	10927.7	53.5772	10927.7	51.934	10927.7	61.0355	10927.7	52.0461	10927.7	50.2376	10927.7	55.7364	10927.7	41.5106	10927.7	58.3775
11313	96.3966	11313	95.5224	11313	94.1744	11313	92.4253	11313	91.0554	11313	90.5906	11313	88.4197	11313	86.8593	11313	84.1844	11313	83.7747	11313	80.4401	11313	78.8486	11313	77.844	11313	74.6521	11313	77.6515	11313	69.9336	11313	71.0463	11313	60.0745	11313	62.2645	11313	49.8284	11313	59.3775	11313	46.2782	11313	54.8292	11313	51.2585	11313	54.8172	11313	51.9758	11313	38.4529	11313	50.304	11313	55.4519	11313	35.4888	11313	61.36	11313	48.3839	11313	55.3001	11313	55.0244	11313	44.7507	11313	42.6865
11712.9	96.3386	11712.9	95.7918	11712.9	93.2506	11712.9	93.3439	11712.9	91.3159	11712.9	91.2646	11712.9	86.948	11712.9	87.4693	11712.9	83.6053	11712.9	84.6067	11712.9	79.3104	11712.9	78.6898	11712.9	77.3677	11712.9	77.079	11712.9	75.5035	11712.9	73.5675	11712.9	72.9326	11712.9	65.1059	11712.9	63.9037	11712.9	45.7289	11712.9	55.4449	11712.9	44.239	11712.9	56.3855	11712.9	48.5714	11712.9	51.0729	11712.9	53.5533	11712.9	52.4378	11712.9	39.1004	11712.9	45.9766	11712.9	52.7805	11712.9	59.4876	11712.9	48.8298	11712.9	41.2276	11712.9	51.6491	11712.9	45.056	11712.9	57.5242
12126	96.8017	12126	95.4916	12126	94.5	12126	92.8165	12126	93.2549	12126	89.5566	12126	88.837	12126	85.4686	12126	84.9697	12126	83.484	12126	82.6076	12126	78.5912	12126	80.2705	12126	78.1761	12126	77.7948	12126	72.7378	12126	75.0626	12126	63.6791	12126	65.4868	12126	52.0169	12126	48.0048	12126	45.1393	12126	55.8202	12126	46.0338	12126	45.2516	12126	52.2569	12126	42.7522	12126	44.7421	12126	52.7255	12126	53.3357	12126	50.7083	12126	48.4453	12126	56.0181	12126	56.2769	12126	52.8427	12126	56.4132
12553.7	96.1938	12553.7	94.6696	12553.7	94.1684	12553.7	92.8407	12553.7	92.4059	12553.7	89.0531	12553.7	87.9987	12553.7	86.4987	12553.7	84.382	12553.7	82.8583	12553.7	82.4052	12553.7	78.8922	12553.7	79.3681	12553.7	77.0719	12553.7	76.942	12553.7	70.4722	12553.7	73.9377	12553.7	63.6037	12553.7	63.3656	12553.7	56.0774	12553.7	45.8509	12553.7	46.1325	12553.7	51.5909	12553.7	40.7609	12553.7	46.7224	12553.7	41.522	12553.7	47.3935	12553.7	45.9038	12553.7	47.794	12553.7	50.2565	12553.7	46.2594	12553.7	46.9234	12553.7	50.1745	12553.7	55.4101	12553.7	53.4797	12553.7	54.0515
12996.1	97.0014	12996.1	96.2427	12996.1	93.8548	12996.1	94.536	12996.1	92.3156	12996.1	90.4233	12996.1	87.5797	12996.1	88.3073	12996.1	84.4706	12996.1	84.0608	12996.1	80.5331	12996.1	80.81	12996.1	76.9343	12996.1	76.228	12996.1	75.7785	12996.1	69.5208	12996.1	71.6489	12996.1	62.0409	12996.1	61.2765	12996.1	57.1903	12996.1	35.8399	12996.1	50.8338	12996.1	47.2332	12996.1	44.2929	12996.1	47.9452	12996.1	54.2346	12996.1	40.7582	12996.1	54.2926	12996.1	44.6654	12996.1	51.6263	12996.1	50.8921	12996.1	53.7141	12996.1	55.9119	12996.1	58.3891	12996.1	51.9391	12996.1	43.4414
13454.6	97.1916	13454.6	96.3653	13454.6	94.1161	13454.6	94.5063	13454.6	92.2995	13454.6	90.4348	13454.6	87.8743	13454.6	87.9415	13454.6	84.555	13454.6	83.7507	13454.6	79.331	13454.6	80.8025	13454.6	76.0369	13454.6	75.1391	13454.6	76.126	13454.6	72.9925	13454.6	74.0691	13454.6	63.5323	13454.6	60.7954	13454.6	55.2551	13454.6	47.2824	13454.6	52.9654	13454.6	40.0523	13454.6	52.5308	13454.6	47.4181	13454.6	54.209	13454.6	41.9403	13454.6	55.178	13454.6	36.2774	13454.6	54.738	13454.6	52.498	13454.6	51.8563	13454.6	55.091	13454.6	59.0259	13454.6	57.1393	13454.6	51.4104
13929.2	96.73	13929.2	94.6859	13929.2	94.5393	13929.2	92.8059	13929.2	92.6764	13929.2	88.3311	13929.2	89.0529	13929.2	85.0511	13929.2	84.9913	13929.2	82.0344	13929.2	81.0264	13929.2	78.7834	13929.2	77.768	13929.2	75.2189	13929.2	77.361	13929.2	72.4039	13929.2	74.6706	13929.2	63.6452	13929.2	59.8535	13929.2	46.806	13929.2	52.9818	13929.2	52.5268	13929.2	41.4431	13929.2	50.5935	13929.2	43.9707	13929.2	52.0993	13929.2	44.1588	13929.2	47.8956	13929.2	46.6939	13929.2	50.9039	13929.2	53.3275	13929.2	51.1822	13929.2	54.288	13929.2	56.8924	13929.2	55.5452	13929.2	31.5209
14419.9	96.4395	14419.9	95.0152	14419.9	94.0817	14419.9	93.6552	14419.9	92.3089	14419.9	89.2369	14419.9	88.2315	14419.9	85.597	14419.9	84.2891	14419.9	82.884	14419.9	80.1819	14419.9	79.1372	14419.9	77.0213	14419.9	76.2644	14419.9	76.3984	14419.9	70.8865	14419.9	72.6034	14419.9	61.1008	14419.9	58.8368	14419.9	49.9339	14419.9	49.07	14419.9	43.8241	14419.9	40.3637	14419.9	45.2963	14419.9	45.3483	14419.9	53.4703	14419.9	48.8345	14419.9	49.8384	14419.9	48.8142	14419.9	48.6326	14419.9	52.9307	14419.9	46.28	14419.9	54.1062	14419.9	55.2095	14419.9	55.0279	14419.9	48.4137
14928.2	95.8033	14928.2	95.5525	14928.2	93.1135	14928.2	94.5954	14928.2	91.1471	14928.2	90.4721	14928.2	86.8722	14928.2	86.7412	14928.2	83.1417	14928.2	82.8475	14928.2	77.7592	14928.2	80.0262	14928.2	76.5258	14928.2	75.921	14928.2	74.3104	14928.2	71.3455	14928.2	69.2154	14928.2	60.4954	14928.2	59.6235	14928.2	50.1863	14928.2	46.0822	14928.2	47.1775	14928.2	42.7387	14928.2	49.6824	14928.2	46.1185	14928.2	54.5704	14928.2	46.6483	14928.2	52.3004	14928.2	49.7222	14928.2	51.8226	14928.2	51.5303	14928.2	49.4617	14928.2	46.4677	14928.2	53.7675	14928.2	52.5933	14928.2	55.6472
15455.6	95.2056	15455.6	94.0969	15455.6	94.2926	15455.6	93.3807	15455.6	92.2235	15455.6	88.7094	15455.6	87.8929	15455.6	84.963	15455.6	84.09	15455.6	78.9554	15455.6	79.6804	15455.6	78.7814	15455.6	77.2454	15455.6	71.74	15455.6	75.4519	15455.6	69.639	15455.6	71.4862	15455.6	58.5865	15455.6	61.6366	15455.6	33.4746	15455.6	42.7629	15455.6	49.5108	15455.6	43.7481	15455.6	50.7318	15455.6	42.1232	15455.6	51.6589	15455.6	40.4255	15455.6	46.5361	15455.6	45.2345	15455.6	48.1603	15455.6	42.7418	15455.6	49.7177	15455.6	51.2424	15455.6	53.3613	15455.6	45.0423	15455.6	61.2527
16000.5	95.4186	16000.5	94.3817	16000.5	95.3075	16000.5	93.4786	16000.5	92.5117	16000.5	88.4554	16000.5	88.1802	16000.5	84.5666	16000.5	84.0601	16000.5	78.6047	16000.5	80.8387	16000.5	76.4575	16000.5	77.2197	16000.5	71.0735	16000.5	76.0239	16000.5	69.4844	16000.5	72.5402	16000.5	57.7095	16000.5	61.2492	16000.5	45.6363	16000.5	41.9737	16000.5	47.6053	16000.5	44.345	16000.5	50.1007	16000.5	44.4653	16000.5	52.056	16000.5	48.8252	16000.5	45.7646	16000.5	41.9202	16000.5	48.3889	16000.5	45.7067	16000.5	49.3709	16000.5	55.8648	16000.5	49.7919	16000.5	45.9641	16000.5	63.6713
16564.5	95.3258	16564.5	93.3161	16564.5	95.5038	16564.5	91.6805	16564.5	92.7199	16564.5	85.599	16564.5	88.6232	16564.5	79.7877	16564.5	83.8729	16564.5	77.3901	16564.5	81.2236	16564.5	73.3319	16564.5	76.678	16564.5	69.2647	16564.5	75.633	16564.5	66.5183	16564.5	72.4379	16564.5	57.1342	16564.5	62.4339	16564.5	49.8205	16564.5	45.069	16564.5	47.287	16564.5	48.5238	16564.5	48.746	16564.5	42.0503	16564.5	50.2843	16564.5	43.4712	16564.5	41.1954	16564.5	47.3035	16564.5	48.8912	16564.5	48.6839	16564.5	51.3427	16564.5	54.4769	16564.5	53.2899	16564.5	53.5315	16564.5	63.1034
17148.9	96.0029	17148.9	94.8297	17148.9	95.983	17148.9	92.6501	17148.9	93.1074	17148.9	87.5391	17148.9	88.6146	17148.9	81.2471	17148.9	83.3609	17148.9	80.1862	17148.9	81.2121	17148.9	75.6456	17148.9	76.3644	17148.9	72.9524	17148.9	75.3804	17148.9	69.6038	17148.9	72.1518	17148.9	59.6805	17148.9	61.4196	17148.9	50.5026	17148.9	44.3505	17148.9	42.88	17148.9	37.132	17148.9	42.3659	17148.9	38.4649	17148.9	41.719	17148.9	35.8776	17148.9	36.0252	17148.9	41.704	17148.9	44.4868	17148.9	45.7211	17148.9	49.7854	17148.9	52.6064	17148.9	48.4594	17148.9	58.0194	17148.9	64.3536
17752.4	96.0042	17752.4	95.6943	17752.4	96.4459	17752.4	93.4704	17752.4	93.3398	17752.4	88.2605	17752.4	88.8466	17752.4	82.5096	17752.4	83.3194	17752.4	80.3883	17752.4	80.6434	17752.4	76.8638	17752.4	76.3428	17752.4	74.1396	17752.4	75.7148	17752.4	70.0097	17752.4	72.9025	17752.4	61.5427	17752.4	62.0483	17752.4	54.6275	17752.4	41.3953	17752.4	47.1654	17752.4	43.6979	17752.4	43.399	17752.4	46.2086	17752.4	41.6958	17752.4	41.4202	17752.4	35.5219	17752.4	38.469	17752.4	46.631	17752.4	41.2937	17752.4	43.5068	17752.4	53.9887	17752.4	55.9262	17752.4	57.8815	17752.4	62.9838
18379.4	98.0484	18379.4	97.5547	18379.4	97.6982	18379.4	94.5348	18379.4	93.7581	18379.4	88.9425	18379.4	88.7945	18379.4	82.6288	18379.4	83.6474	18379.4	80.5779	18379.4	80.1654	18379.4	78.5126	18379.4	77.1054	18379.4	75.5058	18379.4	76.7824	18379.4	69.4981	18379.4	73.1606	18379.4	62.5271	18379.4	61.7314	18379.4	52.9192	18379.4	30.5921	18379.4	40.3738	18379.4	46.2664	18379.4	44.675	18379.4	49.0537	18379.4	44.3229	18379.4	44.2567	18379.4	34.8892	18379.4	32.8194	18379.4	42.0959	18379.4	44.894	18379.4	43.0723	18379.4	55.722	18379.4	60.1436	18379.4	55.9364	18379.4	65.2658
19026.9	94.0527	19026.9	94.0638	19026.9	93.5719	19026.9	91.3323	19026.9	89.1963	19026.9	85.9678	19026.9	84.1438	19026.9	79.8297	19026.9	79.8576	19026.9	76.6329	19026.9	76.365	19026.9	75.4484	19026.9	74.3323	19026.9	71.2953	19026.9	72.009	19026.9	66.8754	19026.9	67.8553	19026.9	60.5295	19026.9	55.5016	19026.9	50.2129	19026.9	36.0115	19026.9	44.2042	19026.9	46.5641	19026.9	34.5728	19026.9	48.6177	19026.9	39.2959	19026.9	45.155	19026.9	39.986	19026.9	39.3244	19026.9	46.1877	19026.9	47.7894	19026.9	50.1341	19026.9	53.4983	19026.9	60.6662	19026.9	55.816	19026.9	64.4193
19697.8	90.5731	19697.8	89.4118	19697.8	90.0083	19697.8	86.5863	19697.8	85.9883	19697.8	80.6362	19697.8	81.0894	19697.8	73.5364	19697.8	77.9321	19697.8	70.0025	19697.8	74.0514	19697.8	69.4776	19697.8	72.0044	19697.8	63.9869	19697.8	68.295	19697.8	62.5735	19697.8	67.2674	19697.8	55.1806	19697.8	51.7426	19697.8	49.5205	19697.8	39.9548	19697.8	44.7899	19697.8	44.6807	19697.8	17.108	19697.8	43.8323	19697.8	38.0393	19697.8	36.3251	19697.8	38.2799	19697.8	40.0428	19697.8	48.3862	19697.8	48.0192	19697.8	53.0553	19697.8	52.4176	19697.8	59.2817	19697.8	51.0747	19697.8	64.8663
19999.5	87.7412	19999.5	85.47	19999.5	87.942	19999.5	82.4513	19999.5	84.7248	19999.5	76.4549	19999.5	80.3923	19999.5	69.0524	19999.5	76.9285	19999.5	67.0045	19999.5	73.1061	19999.5	65.5947	19999.5	70.176	19999.5	58.7159	19999.5	66.8404	19999.5	56.6657	19999.5	65.7026	19999.5	52.1321	19999.5	53.9471	19999.5	53.8099	19999.5	49.5948	19999.5	43.5928	19999.5	17.9941	19999.5	30.2519	19999.5	44.4036	19999.5	39.6608	19999.5	35.1344	19999.5	31.5112	19999.5	39.9063	19999.5	47.7571	19999.5	47.1608	19999.5	52.8595	19999.5	49.6275	19999.5	55.8694	19999.5	54.0197	19999.5	63.8493
