"SPL Horizontal"
"On-Axis"		"10°"		"-10°"		"20°"		"-20°"		"30°"		"-30°"		"40°"		"-40°"		"50°"		"-50°"		"60°"		"-60°"		"70°"		"-70°"		"80°"		"-80°"		"90°"		"-90°"		"100°"		"-100°"		"110°"		"-110°"		"120°"		"-120°"		"130°"		"-130°"		"140°"		"-140°"		"150°"		"-150°"		"160°"		"-160°"		"170°"		"-170°"		"180°"
"Frequency [Hz]"	"Sound Pessure Level [dB]   [2.83V at 1m]"	"Frequency [Hz]"	"Sound Pessure Level [dB]   [2.83V at 1m]"	"Frequency [Hz]"	"Sound Pessure Level [dB]   [2.83V at 1m]"	"Frequency [Hz]"	"Sound Pessure Level [dB]   [2.83V at 1m]"	"Frequency [Hz]"	"Sound Pessure Level [dB]   [2.83V at 1m]"	"Frequency [Hz]"	"Sound Pessure Level [dB]   [2.83V at 1m]"	"Frequency [Hz]"	"Sound Pessure Level [dB]   [2.83V at 1m]"	"Frequency [Hz]"	"Sound Pessure Level [dB]   [2.83V at 1m]"	"Frequency [Hz]"	"Sound Pessure Level [dB]   [2.83V at 1m]"	"Frequency [Hz]"	"Sound Pessure Level [dB]   [2.83V at 1m]"	"Frequency [Hz]"	"Sound Pessure Level [dB]   [2.83V at 1m]"	"Frequency [Hz]"	"Sound Pessure Level [dB]   [2.83V at 1m]"	"Frequency [Hz]"	"Sound Pessure Level [dB]   [2.83V at 1m]"	"Frequency [Hz]"	"Sound Pessure Level [dB]   [2.83V at 1m]"	"Frequency [Hz]"	"Sound Pessure Level [dB]   [2.83V at 1m]"	"Frequency [Hz]"	"Sound Pessure Level [dB]   [2.83V at 1m]"	"Frequency [Hz]"	"Sound Pessure Level [dB]   [2.83V at 1m]"	"Frequency [Hz]"	"Sound Pessure Level [dB]   [2.83V at 1m]"	"Frequency [Hz]"	"Sound Pessure Level [dB]   [2.83V at 1m]"	"Frequency [Hz]"	"Sound Pessure Level [dB]   [2.83V at 1m]"	"Frequency [Hz]"	"Sound Pessure Level [dB]   [2.83V at 1m]"	"Frequency [Hz]"	"Sound Pessure Level [dB]   [2.83V at 1m]"	"Frequency [Hz]"	"Sound Pessure Level [dB]   [2.83V at 1m]"	"Frequency [Hz]"	"Sound Pessure Level [dB]   [2.83V at 1m]"	"Frequency [Hz]"	"Sound Pessure Level [dB]   [2.83V at 1m]"	"Frequency [Hz]"	"Sound Pessure Level [dB]   [2.83V at 1m]"	"Frequency [Hz]"	"Sound Pessure Level [dB]   [2.83V at 1m]"	"Frequency [Hz]"	"Sound Pessure Level [dB]   [2.83V at 1m]"	"Frequency [Hz]"	"Sound Pessure Level [dB]   [2.83V at 1m]"	"Frequency [Hz]"	"Sound Pessure Level [dB]   [2.83V at 1m]"	"Frequency [Hz]"	"Sound Pessure Level [dB]   [2.83V at 1m]"	"Frequency [Hz]"	"Sound Pessure Level [dB]   [2.83V at 1m]"	"Frequency [Hz]"	"Sound Pessure Level [dB]   [2.83V at 1m]"	"Frequency [Hz]"	"Sound Pessure Level [dB]   [2.83V at 1m]"	"Frequency [Hz]"	"Sound Pessure Level [dB]   [2.83V at 1m]"	"Frequency [Hz]"	"Sound Pessure Level [dB]   [2.83V at 1m]"
20.5078	37.556	20.5078	38.0369	20.5078	37.4495	20.5078	38.8219	20.5078	37.7369	20.5078	39.8188	20.5078	38.3762	20.5078	40.9385	20.5078	39.2806	20.5078	42.1073	20.5078	40.3507	20.5078	43.2703	20.5078	41.499	20.5078	44.3887	20.5078	42.6598	20.5078	45.4364	20.5078	43.7882	20.5078	46.3961	20.5078	44.8551	20.5078	47.2563	20.5078	45.8423	20.5078	48.0097	20.5078	46.7382	20.5078	48.6516	20.5078	47.5359	20.5078	49.1793	20.5078	48.2309	20.5078	49.5914	20.5078	48.8204	20.5078	49.8879	20.5078	49.3025	20.5078	50.0696	20.5078	49.676	20.5078	50.138	20.5078	49.9402	20.5078	50.0945
21.9727	45.9976	21.9727	46.056	21.9727	46.0618	21.9727	46.2483	21.9727	46.2356	21.9727	46.5787	21.9727	46.5083	21.9727	47.0389	21.9727	46.8711	21.9727	47.6071	21.9727	47.3148	21.9727	48.252	21.9727	47.8282	21.9727	48.9395	21.9727	48.3962	21.9727	49.6377	21.9727	49.0011	21.9727	50.3196	21.9727	49.6236	21.9727	50.9635	21.9727	50.2442	21.9727	51.5526	21.9727	50.8448	21.9727	52.0737	21.9727	51.4089	21.9727	52.5169	21.9727	51.9221	21.9727	52.8744	21.9727	52.3723	21.9727	53.141	21.9727	52.7491	21.9727	53.313	21.9727	53.0446	21.9727	53.3888	21.9727	53.2524	21.9727	53.3681
23.4375	58.3985	23.4375	58.4419	23.4375	58.3563	23.4375	58.4851	23.4375	58.3172	23.4375	58.5279	23.4375	58.2836	23.4375	58.5701	23.4375	58.258	23.4375	58.6119	23.4375	58.2422	23.4375	58.6529	23.4375	58.2372	23.4375	58.6922	23.4375	58.2431	23.4375	58.7284	23.4375	58.2592	23.4375	58.7597	23.4375	58.2844	23.4375	58.7843	23.4375	58.3171	23.4375	58.8003	23.4375	58.3556	23.4375	58.8067	23.4375	58.3982	23.4375	58.8028	23.4375	58.4433	23.4375	58.7891	23.4375	58.4892	23.4375	58.7667	23.4375	58.535	23.4375	58.7373	23.4375	58.5797	23.4375	58.7025	23.4375	58.6228	23.4375	58.664
24.9023	58.352	24.9023	58.302	24.9023	58.401	24.9023	58.2536	24.9023	58.4476	24.9023	58.21	24.9023	58.4914	24.9023	58.1751	24.9023	58.5329	24.9023	58.1523	24.9023	58.5738	24.9023	58.1446	24.9023	58.6158	24.9023	58.1536	24.9023	58.6604	24.9023	58.1796	24.9023	58.7084	24.9023	58.2214	24.9023	58.7593	24.9023	58.2766	24.9023	58.811	24.9023	58.3421	24.9023	58.8601	24.9023	58.4145	24.9023	58.9025	24.9023	58.4904	24.9023	58.9337	24.9023	58.5673	24.9023	58.9499	24.9023	58.6429	24.9023	58.9486	24.9023	58.7156	24.9023	58.9293	24.9023	58.7833	24.9023	58.8934	24.9023	58.8436
26.3672	61.5424	26.3672	61.5654	26.3672	61.528	26.3672	61.5956	26.3672	61.5232	26.3672	61.6316	26.3672	61.5285	26.3672	61.6718	26.3672	61.5439	26.3672	61.7144	26.3672	61.5686	26.3672	61.758	26.3672	61.6016	26.3672	61.8009	26.3672	61.6413	26.3672	61.8416	26.3672	61.6858	26.3672	61.8787	26.3672	61.7333	26.3672	61.9112	26.3672	61.7819	26.3672	61.9383	26.3672	61.8293	26.3672	61.9595	26.3672	61.8738	26.3672	61.9752	26.3672	61.9132	26.3672	61.9861	26.3672	61.9458	26.3672	61.9934	26.3672	61.9707	26.3672	61.9982	26.3672	61.9876	26.3672	62.0009	26.3672	61.9972	26.3672	62.001
27.832	63.7971	27.832	63.7911	27.832	63.8068	27.832	63.7893	27.832	63.8201	27.832	63.7922	27.832	63.837	27.832	63.8003	27.832	63.8575	27.832	63.8143	27.832	63.8816	27.832	63.8348	27.832	63.9095	27.832	63.8618	27.832	63.9408	27.832	63.8952	27.832	63.9753	27.832	63.9342	27.832	64.0124	27.832	63.9778	27.832	64.0515	27.832	64.0241	27.832	64.0913	27.832	64.0713	27.832	64.1305	27.832	64.1169	27.832	64.1674	27.832	64.1588	27.832	64.1999	27.832	64.1949	27.832	64.2263	27.832	64.2234	27.832	64.2447	27.832	64.2433	27.832	64.2541	27.832	64.2536
29.2969	65.0375	29.2969	65.0447	29.2969	65.0409	29.2969	65.0628	29.2969	65.054	29.2969	65.0915	29.2969	65.0756	29.2969	65.13	29.2969	65.1044	29.2969	65.1766	29.2969	65.139	29.2969	65.2296	29.2969	65.1782	29.2969	65.287	29.2969	65.221	29.2969	65.3467	29.2969	65.2666	29.2969	65.4065	29.2969	65.314	29.2969	65.4645	29.2969	65.3625	29.2969	65.5185	29.2969	65.4113	29.2969	65.5667	29.2969	65.4594	29.2969	65.6074	29.2969	65.5058	29.2969	65.6393	29.2969	65.5491	29.2969	65.6613	29.2969	65.5881	29.2969	65.673	29.2969	65.6213	29.2969	65.6742	29.2969	65.6475	29.2969	65.6655
30.7617	68.0035	30.7617	68.0013	30.7617	68.0016	30.7617	67.9954	30.7617	67.9954	30.7617	67.9858	30.7617	67.9847	30.7617	67.9726	30.7617	67.9695	30.7617	67.9559	30.7617	67.9499	30.7617	67.9357	30.7617	67.9261	30.7617	67.9122	30.7617	67.8985	30.7617	67.8857	30.7617	67.8678	30.7617	67.8569	30.7617	67.8347	30.7617	67.8266	30.7617	67.8002	30.7617	67.7956	30.7617	67.7656	30.7617	67.7651	30.7617	67.7324	30.7617	67.7359	30.7617	67.7022	30.7617	67.709	30.7617	67.6766	30.7617	67.6851	30.7617	67.6569	30.7617	67.6652	30.7617	67.6443	30.7617	67.6503	30.7617	67.6391	30.7617	67.6413
32.2266	69.7705	32.2266	69.7635	32.2266	69.769	32.2266	69.7483	32.2266	69.7591	32.2266	69.7251	32.2266	69.741	32.2266	69.6944	32.2266	69.7152	32.2266	69.6571	32.2266	69.682	32.2266	69.6138	32.2266	69.6423	32.2266	69.5656	32.2266	69.5966	32.2266	69.5134	32.2266	69.5459	32.2266	69.4584	32.2266	69.4913	32.2266	69.4016	32.2266	69.4338	32.2266	69.3443	32.2266	69.3749	32.2266	69.2881	32.2266	69.3162	32.2266	69.2347	32.2266	69.2594	32.2266	69.1863	32.2266	69.207	32.2266	69.1453	32.2266	69.1614	32.2266	69.1143	32.2266	69.1253	32.2266	69.0957	32.2266	69.1013	32.2266	69.0912
33.6914	71.331	33.6914	71.3233	33.6914	71.3311	33.6914	71.3081	33.6914	71.3238	33.6914	71.2855	33.6914	71.3091	33.6914	71.256	33.6914	71.2872	33.6914	71.2201	33.6914	71.2584	33.6914	71.1785	33.6914	71.2233	33.6914	71.1323	33.6914	71.1825	33.6914	71.0827	33.6914	71.1369	33.6914	71.0312	33.6914	71.0876	33.6914	70.9793	33.6914	71.0362	33.6914	70.9286	33.6914	70.984	33.6914	70.8808	33.6914	70.9329	33.6914	70.8376	33.6914	70.8843	33.6914	70.8005	33.6914	70.8402	33.6914	70.771	33.6914	70.8022	33.6914	70.7504	33.6914	70.772	33.6914	70.7399	33.6914	70.7509	33.6914	70.74
35.1562	72.8964	35.1562	72.8824	35.1562	72.9021	35.1562	72.8603	35.1562	72.8993	35.1562	72.8303	35.1562	72.8879	35.1562	72.7929	35.1562	72.868	35.1562	72.7489	35.1562	72.8398	35.1562	72.6992	35.1562	72.8036	35.1562	72.645	35.1562	72.7604	35.1562	72.5878	35.1562	72.7113	35.1562	72.5294	35.1562	72.6578	35.1562	72.4719	35.1562	72.6016	35.1562	72.4171	35.1562	72.5446	35.1562	72.3674	35.1562	72.4885	35.1562	72.3246	35.1562	72.4352	35.1562	72.2905	35.1562	72.3861	35.1562	72.2663	35.1562	72.3427	35.1562	72.253	35.1562	72.3064	35.1562	72.2507	35.1562	72.2782	35.1562	72.2593
36.6211	74.3818	36.6211	74.3678	36.6211	74.3845	36.6211	74.3432	36.6211	74.3759	36.6211	74.3082	36.6211	74.3555	36.6211	74.2636	36.6211	74.3234	36.6211	74.21	36.6211	74.28	36.6211	74.1484	36.6211	74.2263	36.6211	74.0803	36.6211	74.1636	36.6211	74.0073	36.6211	74.0937	36.6211	73.9314	36.6211	74.0187	36.6211	73.8549	36.6211	73.9412	36.6211	73.7803	36.6211	73.8634	36.6211	73.71	36.6211	73.788	36.6211	73.6468	36.6211	73.7174	36.6211	73.593	36.6211	73.6539	36.6211	73.5509	36.6211	73.5995	36.6211	73.5223	36.6211	73.5563	36.6211	73.5084	36.6211	73.5259	36.6211	73.5096
38.0859	75.7126	38.0859	75.7054	38.0859	75.7098	38.0859	75.6884	38.0859	75.6968	38.0859	75.6619	38.0859	75.6736	38.0859	75.6259	38.0859	75.6403	38.0859	75.5811	38.0859	75.5973	38.0859	75.528	38.0859	75.5452	38.0859	75.4677	38.0859	75.4852	38.0859	75.4015	38.0859	75.4186	38.0859	75.3312	38.0859	75.3471	38.0859	75.2589	38.0859	75.2728	38.0859	75.1869	38.0859	75.1981	38.0859	75.1173	38.0859	75.1256	38.0859	75.0526	38.0859	75.0579	38.0859	74.9952	38.0859	74.9978	38.0859	74.9473	38.0859	74.948	38.0859	74.911	38.0859	74.9108	38.0859	74.8882	38.0859	74.8878	38.0859	74.8803
39.5508	77.3944	39.5508	77.3928	39.5508	77.3835	39.5508	77.3786	39.5508	77.3606	39.5508	77.3517	39.5508	77.3264	39.5508	77.3126	39.5508	77.2818	39.5508	77.262	39.5508	77.2277	39.5508	77.2012	39.5508	77.1652	39.5508	77.1318	39.5508	77.0959	39.5508	77.0558	39.5508	77.0215	39.5508	76.9754	39.5508	76.9438	39.5508	76.8934	39.5508	76.8651	39.5508	76.8123	39.5508	76.7877	39.5508	76.7348	39.5508	76.7141	39.5508	76.6636	39.5508	76.6467	39.5508	76.6011	39.5508	76.5879	39.5508	76.5494	39.5508	76.5397	39.5508	76.5105	39.5508	76.5041	39.5508	76.4859	39.5508	76.4827	39.5508	76.4765
41.0156	78.6335	41.0156	78.6282	41.0156	78.6246	41.0156	78.6085	41.0156	78.6017	41.0156	78.5746	41.0156	78.5655	41.0156	78.5271	41.0156	78.5167	41.0156	78.467	41.0156	78.4566	41.0156	78.3957	41.0156	78.3865	41.0156	78.3151	41.0156	78.308	41.0156	78.2276	41.0156	78.2234	41.0156	78.1359	41.0156	78.135	41.0156	78.0429	41.0156	78.0453	41.0156	77.9518	41.0156	77.9571	41.0156	77.8657	41.0156	77.8732	41.0156	77.7875	41.0156	77.7963	41.0156	77.7199	41.0156	77.7288	41.0156	77.6652	41.0156	77.6731	41.0156	77.6252	41.0156	77.6312	41.0156	77.6014	41.0156	77.6046	41.0156	77.5945
42.4805	79.8148	42.4805	79.808	42.4805	79.8057	42.4805	79.7852	42.4805	79.7809	42.4805	79.7467	42.4805	79.7411	42.4805	79.6934	42.4805	79.6871	42.4805	79.6262	42.4805	79.62	42.4805	79.5466	42.4805	79.5415	42.4805	79.4568	42.4805	79.4535	42.4805	79.3591	42.4805	79.3582	42.4805	79.2565	42.4805	79.2583	42.4805	79.1521	42.4805	79.1567	42.4805	79.0494	42.4805	79.0566	42.4805	78.952	42.4805	78.961	42.4805	78.8631	42.4805	78.8731	42.4805	78.7859	42.4805	78.7959	42.4805	78.7232	42.4805	78.7319	42.4805	78.6772	42.4805	78.6837	42.4805	78.6497	42.4805	78.6531	42.4805	78.6416
43.9453	80.9481	43.9453	80.9418	43.9453	80.937	43.9453	80.9181	43.9453	80.909	43.9453	80.877	43.9453	80.8645	43.9453	80.8191	43.9453	80.8043	43.9453	80.7453	43.9453	80.7296	43.9453	80.6569	43.9453	80.6418	43.9453	80.5561	43.9453	80.5429	43.9453	80.4454	43.9453	80.4352	43.9453	80.3279	43.9453	80.3216	43.9453	80.2074	43.9453	80.2052	43.9453	80.0876	43.9453	80.0897	43.9453	79.973	43.9453	79.9785	43.9453	79.8674	43.9453	79.8756	43.9453	79.7751	43.9453	79.7844	43.9453	79.6996	43.9453	79.7084	43.9453	79.6439	43.9453	79.6508	43.9453	79.6104	43.9453	79.6142	43.9453	79.6004
45.4102	81.8973	45.4102	81.8866	45.4102	81.8888	45.4102	81.8569	45.4102	81.8613	45.4102	81.8086	45.4102	81.8151	45.4102	81.7425	45.4102	81.7511	45.4102	81.6598	45.4102	81.6704	45.4102	81.5621	45.4102	81.5747	45.4102	81.4513	45.4102	81.4659	45.4102	81.3299	45.4102	81.3466	45.4102	81.2012	45.4102	81.2198	45.4102	81.0686	45.4102	81.0889	45.4102	80.9362	45.4102	80.9577	45.4102	80.8085	45.4102	80.8305	45.4102	80.6901	45.4102	80.7115	45.4102	80.5858	45.4102	80.6053	45.4102	80.4999	45.4102	80.5162	45.4102	80.4365	45.4102	80.4481	45.4102	80.3984	45.4102	80.4045	45.4102	80.3876
46.875	82.5949	46.875	82.5855	46.875	82.5862	46.875	82.5583	46.875	82.5598	46.875	82.514	46.875	82.5163	46.875	82.4537	46.875	82.4569	46.875	82.3788	46.875	82.3831	46.875	82.2913	46.875	82.2969	46.875	82.1933	46.875	82.2004	46.875	82.0876	46.875	82.0963	46.875	81.9772	46.875	81.9874	46.875	81.8652	46.875	81.8768	46.875	81.7553	46.875	81.7678	46.875	81.651	46.875	81.6637	46.875	81.5558	46.875	81.5681	46.875	81.473	46.875	81.484	46.875	81.4056	46.875	81.4146	46.875	81.356	46.875	81.3624	46.875	81.3262	46.875	81.3295	46.875	81.3172
48.3398	83.2905	48.3398	83.2809	48.3398	83.2833	48.3398	83.2548	48.3398	83.2596	48.3398	83.2128	48.3398	83.2199	48.3398	83.1558	48.3398	83.1654	48.3398	83.0854	48.3398	83.0975	48.3398	83.0035	48.3398	83.018	48.3398	82.9124	48.3398	82.9292	48.3398	82.8147	48.3398	82.8336	48.3398	82.7136	48.3398	82.7342	48.3398	82.6122	48.3398	82.6339	48.3398	82.514	48.3398	82.5359	48.3398	82.4221	48.3398	82.4432	48.3398	82.3394	48.3398	82.3588	48.3398	82.2686	48.3398	82.2853	48.3398	82.2118	48.3398	82.225	48.3398	82.1707	48.3398	82.1799	48.3398	82.1465	48.3398	82.1512	48.3398	82.14
51.2695	84.6361	51.2695	84.6286	51.2695	84.6257	51.2695	84.6031	51.2695	84.5976	51.2695	84.5603	51.2695	84.5528	51.2695	84.5014	51.2695	84.4925	51.2695	84.4279	51.2695	84.4186	51.2695	84.3422	51.2695	84.3331	51.2695	84.2469	51.2695	84.2389	51.2695	84.1454	51.2695	84.139	51.2695	84.0411	51.2695	84.0365	51.2695	83.9378	51.2695	83.935	51.2695	83.8391	51.2695	83.8378	51.2695	83.7482	51.2695	83.7478	51.2695	83.6677	51.2695	83.6679	51.2695	83.5997	51.2695	83.6001	51.2695	83.5457	51.2695	83.5461	51.2695	83.5066	51.2695	83.5068	51.2695	83.483	51.2695	83.4831	51.2695	83.4751
52.7344	85.2425	52.7344	85.2353	52.7344	85.231	52.7344	85.2092	52.7344	85.201	52.7344	85.1651	52.7344	85.1536	52.7344	85.1042	52.7344	85.0903	52.7344	85.0283	52.7344	85.013	52.7344	84.94	52.7344	84.9241	52.7344	84.8422	52.7344	84.8266	52.7344	84.7385	52.7344	84.7237	52.7344	84.6325	52.7344	84.6189	52.7344	84.5281	52.7344	84.5158	52.7344	84.4291	52.7344	84.4178	52.7344	84.3384	52.7344	84.3281	52.7344	84.2587	52.7344	84.2494	52.7344	84.1917	52.7344	84.1836	52.7344	84.1387	52.7344	84.1319	52.7344	84.1001	52.7344	84.0952	52.7344	84.0763	52.7344	84.0738	52.7344	84.0675
54.1992	85.7555	54.1992	85.7465	54.1992	85.7449	54.1992	85.718	54.1992	85.7149	54.1992	85.6708	54.1992	85.6667	54.1992	85.6065	54.1992	85.6019	54.1992	85.5271	54.1992	85.5226	54.1992	85.4354	54.1992	85.4314	54.1992	85.3349	54.1992	85.3316	54.1992	85.2294	54.1992	85.2266	54.1992	85.1228	54.1992	85.1202	54.1992	85.0192	54.1992	85.0164	54.1992	84.9223	54.1992	84.9186	54.1992	84.8349	54.1992	84.8302	54.1992	84.7594	54.1992	84.7535	54.1992	84.6969	54.1992	84.6904	54.1992	84.648	54.1992	84.6418	54.1992	84.6128	54.1992	84.6078	54.1992	84.5911	54.1992	84.5883	54.1992	84.5829
55.6641	86.2097	55.6641	86.1978	55.6641	86.2004	55.6641	86.165	55.6641	86.1706	55.6641	86.1124	55.6641	86.1211	55.6641	86.0416	55.6641	86.0538	55.6641	85.9552	55.6641	85.9709	55.6641	85.8561	55.6641	85.8755	55.6641	85.7483	55.6641	85.7709	55.6641	85.636	55.6641	85.6609	55.6641	85.5237	55.6641	85.5497	55.6641	85.4156	55.6641	85.4413	55.6641	85.3159	55.6641	85.3396	55.6641	85.2274	55.6641	85.2478	55.6641	85.1523	55.6641	85.1686	55.6641	85.0915	55.6641	85.1034	55.6641	85.0453	55.6641	85.0531	55.6641	85.013	55.6641	85.0176	55.6641	84.9943	55.6641	84.9963	55.6641	84.9887
58.5938	87.1443	58.5938	87.1296	58.5938	87.1359	58.5938	87.0923	58.5938	87.1051	58.5938	87.0334	58.5938	87.0531	58.5938	86.9547	58.5938	86.9819	58.5938	86.859	58.5938	86.8942	58.5938	86.7499	58.5938	86.7933	58.5938	86.6316	58.5938	86.683	58.5938	86.5091	58.5938	86.5674	58.5938	86.3875	58.5938	86.4511	58.5938	86.2717	58.5938	86.3382	58.5938	86.1662	58.5938	86.2328	58.5938	86.0746	58.5938	86.1381	58.5938	85.9991	58.5938	86.0564	58.5938	85.9404	58.5938	85.9889	58.5938	85.8981	58.5938	85.936	58.5938	85.8713	58.5938	85.8971	58.5938	85.8585	58.5938	85.8716	58.5938	85.8588
60.0586	87.4853	60.0586	87.475	60.0586	87.4718	60.0586	87.441	60.0586	87.435	60.0586	87.3845	60.0586	87.3762	60.0586	87.3073	60.0586	87.2978	60.0586	87.2122	60.0586	87.2026	60.0586	87.1028	60.0586	87.0941	60.0586	86.9834	60.0586	86.9767	60.0586	86.8591	60.0586	86.855	60.0586	86.7351	60.0586	86.7339	60.0586	86.6166	60.0586	86.6181	60.0586	86.5083	60.0586	86.512	60.0586	86.4138	60.0586	86.4188	60.0586	86.3354	60.0586	86.3408	60.0586	86.2737	60.0586	86.2787	60.0586	86.2283	60.0586	86.2324	60.0586	86.1979	60.0586	86.2006	60.0586	86.1807	60.0586	86.182	60.0586	86.1755
62.9883	88.1442	62.9883	88.1446	62.9883	88.1167	62.9883	88.1185	62.9883	88.0628	62.9883	88.0671	62.9883	87.9835	62.9883	87.9926	62.9883	87.8814	62.9883	87.898	62.9883	87.7595	62.9883	87.7871	62.9883	87.6221	62.9883	87.6646	62.9883	87.4744	62.9883	87.5355	62.9883	87.3223	62.9883	87.4051	62.9883	87.1724	62.9883	87.2785	62.9883	87.0315	62.9883	87.1601	62.9883	86.906	62.9883	87.0529	62.9883	86.8012	62.9883	86.9586	62.9883	86.7205	62.9883	86.8773	62.9883	86.6656	62.9883	86.8082	62.9883	86.6354	62.9883	86.75	62.9883	86.6276	62.9883	86.702	62.9883	86.6384	62.9883	86.6642
64.4531	88.4373	64.4531	88.4261	64.4531	88.4199	64.4531	88.3869	64.4531	88.374	64.4531	88.3214	64.4531	88.3005	64.4531	88.2318	64.4531	88.2013	64.4531	88.1213	64.4531	88.079	64.4531	87.9941	64.4531	87.9375	64.4531	87.855	64.4531	87.7813	64.4531	87.7097	64.4531	87.6163	64.4531	87.564	64.4531	87.449	64.4531	87.4235	64.4531	87.2867	64.4531	87.2928	64.4531	87.1368	64.4531	87.1754	64.4531	87.0059	64.4531	87.0727	64.4531	86.8995	64.4531	86.9849	64.4531	86.8206	64.4531	86.9111	64.4531	86.7702	64.4531	86.8501	64.4531	86.7466	64.4531	86.8014	64.4531	86.7466	64.4531	86.7661
67.3828	88.9379	67.3828	88.9013	67.3828	88.9474	67.3828	88.8379	67.3828	88.9299	67.3828	88.749	67.3828	88.8865	67.3828	88.6365	67.3828	88.8186	67.3828	88.5033	67.3828	88.7283	67.3828	88.3532	67.3828	88.6182	67.3828	88.1911	67.3828	88.4913	67.3828	88.0224	67.3828	88.3512	67.3828	87.8536	67.3828	88.2019	67.3828	87.6913	67.3828	88.0478	67.3828	87.5417	67.3828	87.8936	67.3828	87.4108	67.3828	87.744	67.3828	87.3028	67.3828	87.6035	67.3828	87.2206	67.3828	87.4763	67.3828	87.1653	67.3828	87.3658	67.3828	87.1371	67.3828	87.2747	67.3828	87.135	67.3828	87.205	67.3828	87.158
68.8477	89.139	68.8477	89.1192	68.8477	89.1341	68.8477	89.0748	68.8477	89.105	68.8477	89.0069	68.8477	89.053	68.8477	88.9171	68.8477	88.98	68.8477	88.8082	68.8477	88.8887	68.8477	88.6838	68.8477	88.782	68.8477	88.5481	68.8477	88.6636	68.8477	88.4062	68.8477	88.5374	68.8477	88.2638	68.8477	88.4076	68.8477	88.1264	68.8477	88.2785	68.8477	87.9994	68.8477	88.1542	68.8477	87.8876	68.8477	88.0383	68.8477	87.7942	68.8477	87.9337	68.8477	87.7215	68.8477	87.8427	68.8477	87.67	68.8477	87.7668	68.8477	87.6396	68.8477	87.707	68.8477	87.6291	68.8477	87.6637	68.8477	87.6375
71.7773	89.5823	71.7773	89.566	71.7773	89.5727	71.7773	89.5241	71.7773	89.5374	71.7773	89.4581	71.7773	89.4779	71.7773	89.3705	71.7773	89.3963	71.7773	89.2648	71.7773	89.2959	71.7773	89.1454	71.7773	89.1807	71.7773	89.0174	71.7773	89.0552	71.7773	88.8868	71.7773	88.9249	71.7773	88.7593	71.7773	88.7952	71.7773	88.6405	71.7773	88.6716	71.7773	88.5349	71.7773	88.5589	71.7773	88.4453	71.7773	88.4611	71.7773	88.373	71.7773	88.3805	71.7773	88.3174	71.7773	88.3181	71.7773	88.2769	71.7773	88.2734	71.7773	88.2493	71.7773	88.2447	71.7773	88.2327	71.7773	88.2296	71.7773	88.2261
74.707	89.9709	74.707	89.9473	74.707	89.9658	74.707	89.8957	74.707	89.9325	74.707	89.818	74.707	89.8726	74.707	89.7172	74.707	89.7888	74.707	89.5976	74.707	89.6848	74.707	89.4647	74.707	89.5654	74.707	89.3248	74.707	89.4358	74.707	89.1849	74.707	89.3023	74.707	89.052	74.707	89.1709	74.707	88.9325	74.707	89.0474	74.707	88.8313	74.707	88.9369	74.707	88.751	74.707	88.843	74.707	88.6921	74.707	88.7675	74.707	88.6525	74.707	88.7104	74.707	88.6288	74.707	88.6698	74.707	88.6171	74.707	88.6428	74.707	88.6138	74.707	88.6261	74.707	88.6169
77.6367	90.3139	77.6367	90.2911	77.6367	90.3056	77.6367	90.238	77.6367	90.2669	77.6367	90.1564	77.6367	90.1998	77.6367	90.0498	77.6367	90.1073	77.6367	89.9229	77.6367	89.9938	77.6367	89.7819	77.6367	89.8646	77.6367	89.6338	77.6367	89.726	77.6367	89.4866	77.6367	89.5847	77.6367	89.3483	77.6367	89.4479	77.6367	89.2258	77.6367	89.3219	77.6367	89.1245	77.6367	89.2123	77.6367	89.0472	77.6367	89.1227	77.6367	88.9935	77.6367	89.0543	77.6367	88.9606	77.6367	89.0061	77.6367	88.9437	77.6367	88.9749	77.6367	88.9375	77.6367	88.9565	77.6367	88.9374	77.6367	88.9462	77.6367	88.9405
79.1016	90.4862	79.1016	90.4633	79.1016	90.4767	79.1016	90.4087	79.1016	90.4356	79.1016	90.3244	79.1016	90.3649	79.1016	90.2139	79.1016	90.2681	79.1016	90.082	79.1016	90.1495	79.1016	89.9352	79.1016	90.0147	79.1016	89.7808	79.1016	89.8703	79.1016	89.6274	79.1016	89.7235	79.1016	89.4832	79.1016	89.5816	79.1016	89.3559	79.1016	89.4515	79.1016	89.2511	79.1016	89.339	79.1016	89.1719	79.1016	89.2478	79.1016	89.1178	79.1016	89.1792	79.1016	89.0858	79.1016	89.1318	79.1016	89.0705	79.1016	89.1021	79.1016	89.066	79.1016	89.0852	79.1016	89.0672	79.1016	89.0761	79.1016	89.0708
82.0312	90.8471	82.0312	90.8283	82.0312	90.8314	82.0312	90.7758	82.0312	90.7821	82.0312	90.6917	82.0312	90.7014	82.0312	90.5795	82.0312	90.5927	82.0312	90.4443	82.0312	90.461	82.0312	90.2927	82.0312	90.3124	82.0312	90.1323	82.0312	90.1539	82.0312	89.972	82.0312	89.9937	82.0312	89.8203	82.0312	89.8398	82.0312	89.6852	82.0312	89.7001	82.0312	89.5727	82.0312	89.5808	82.0312	89.4859	82.0312	89.4862	82.0312	89.4244	82.0312	89.4174	82.0312	89.385	82.0312	89.3728	82.0312	89.3624	82.0312	89.3483	82.0312	89.3504	82.0312	89.3382	82.0312	89.3439	82.0312	89.3368	82.0312	89.3395
84.9609	91.1016	84.9609	91.08	84.9609	91.0873	84.9609	91.0234	84.9609	91.0376	84.9609	90.9341	84.9609	90.9548	84.9609	90.8162	84.9609	90.8426	84.9609	90.6755	84.9609	90.7061	84.9609	90.5191	84.9609	90.5519	84.9609	90.3556	84.9609	90.3881	84.9609	90.1941	84.9609	90.2234	84.9609	90.0439	84.9609	90.0669	84.9609	89.9131	84.9609	89.9271	84.9609	89.8073	84.9609	89.8107	84.9609	89.7289	84.9609	89.7217	84.9609	89.6767	84.9609	89.6609	84.9609	89.6464	84.9609	89.6255	84.9609	89.6315	84.9609	89.6101	84.9609	89.6252	84.9609	89.6079	84.9609	89.6217	84.9609	89.612	84.9609	89.6175
87.8906	91.5183	87.8906	91.4869	87.8906	91.5121	87.8906	91.4191	87.8906	91.4687	87.8906	91.3177	87.8906	91.3898	87.8906	91.1873	87.8906	91.2791	87.8906	91.0344	87.8906	91.1414	87.8906	90.8675	87.8906	90.9836	87.8906	90.6967	87.8906	90.8143	87.8906	90.5334	87.8906	90.6431	87.8906	90.3883	87.8906	90.4808	87.8906	90.2704	87.8906	90.3375	87.8906	90.1852	87.8906	90.2217	87.8906	90.1334	87.8906	90.1388	87.8906	90.1108	87.8906	90.0898	87.8906	90.1092	87.8906	90.071	87.8906	90.1187	87.8906	90.0751	87.8906	90.1295	87.8906	90.0923	87.8906	90.1339	87.8906	90.1127	87.8906	90.1282
90.8203	92.276	90.8203	92.2394	90.8203	92.271	90.8203	92.162	90.8203	92.2252	90.8203	92.0465	90.8203	92.1414	90.8203	91.8975	90.8203	92.0236	90.8203	91.7221	90.8203	91.8779	90.8203	91.5295	90.8203	91.7119	90.8203	91.3313	90.8203	91.5348	90.8203	91.141	90.8203	91.3571	90.8203	90.9722	90.8203	91.1898	90.8203	90.8371	90.8203	91.0438	90.8203	90.7441	90.8203	90.9276	90.8203	90.6956	90.8203	90.8466	90.8203	90.6871	90.8203	90.8013	90.8203	90.7085	90.8203	90.7869	90.8203	90.746	90.8203	90.7941	90.8203	90.7855	90.8203	90.8112	90.8203	90.8154	90.8203	90.8261	90.8203	90.8292
95.2148	92.8431	95.2148	92.8116	95.2148	92.83	95.2148	92.7363	95.2148	92.7732	95.2148	92.6196	95.2148	92.6755	95.2148	92.4664	95.2148	92.5415	95.2148	92.2833	95.2148	92.3774	95.2148	92.0797	95.2148	92.1915	95.2148	91.867	95.2148	91.9938	95.2148	91.6587	95.2148	91.7957	95.2148	91.4689	95.2148	91.6093	95.2148	91.3104	95.2148	91.4461	95.2148	91.1925	95.2148	91.3153	95.2148	91.1192	95.2148	91.2222	95.2148	91.0874	95.2148	91.1668	95.2148	91.0883	95.2148	91.1441	95.2148	91.1092	95.2148	91.1444	95.2148	91.1365	95.2148	91.156	95.2148	91.159	95.2148	91.1674	95.2148	91.1698
98.1445	93.0838	98.1445	93.0547	98.1445	93.0667	98.1445	92.9804	98.1445	93.0043	98.1445	92.8636	98.1445	92.8993	98.1445	92.7095	98.1445	92.7566	98.1445	92.5254	98.1445	92.5829	98.1445	92.3212	98.1445	92.3871	98.1445	92.109	98.1445	92.1802	98.1445	91.903	98.1445	91.9752	98.1445	91.7175	98.1445	91.7854	98.1445	91.5655	98.1445	91.6237	98.1445	91.4562	98.1445	91.5	98.1445	91.3923	98.1445	91.4194	98.1445	91.3699	98.1445	91.3808	98.1445	91.3788	98.1445	91.377	98.1445	91.4053	98.1445	91.3962	98.1445	91.4352	98.1445	91.4248	98.1445	91.4565	98.1445	91.4499	98.1445	91.4619
101.074	93.3739	101.074	93.3408	101.074	93.3565	101.074	93.2586	101.074	93.2893	101.074	93.1307	101.074	93.1748	101.074	92.9628	101.074	93.0177	101.074	92.7632	101.074	92.8249	101.074	92.5431	101.074	92.6061	101.074	92.3164	101.074	92.3736	101.074	92.099	101.074	92.1422	101.074	91.9074	101.074	91.9283	101.074	91.7558	101.074	91.7478	101.074	91.6531	101.074	91.6133	101.074	91.6008	101.074	91.5318	101.074	91.592	101.074	91.5023	101.074	91.6135	101.074	91.516	101.074	91.6484	101.074	91.558	101.074	91.6805	101.074	91.6111	101.074	91.6967	101.074	91.6591	101.074	91.6897
105.469	93.8014	105.469	93.7431	105.469	93.802	105.469	93.628	105.469	93.7459	105.469	93.4588	105.469	93.6352	105.469	93.2405	105.469	93.4739	105.469	92.9809	105.469	93.2681	105.469	92.6915	105.469	93.0257	105.469	92.3882	105.469	92.7578	105.469	92.0909	105.469	92.478	105.469	91.822	105.469	92.203	105.469	91.6031	105.469	91.9509	105.469	91.45	105.469	91.7393	105.469	91.3677	105.469	91.5815	105.469	91.3487	105.469	91.4835	105.469	91.3749	105.469	91.4412	105.469	91.4232	105.469	91.4417	105.469	91.4714	105.469	91.4661	105.469	91.503	105.469	91.4946	105.469	91.5103
108.398	94.132	108.398	94.0803	108.398	94.1307	108.398	93.9754	108.398	94.0779	108.398	93.8186	108.398	93.9767	108.398	93.6129	108.398	93.8313	108.398	93.364	108.398	93.6478	108.398	93.0805	108.398	93.4338	108.398	92.775	108.398	93.1989	108.398	92.4647	108.398	92.9545	108.398	92.1706	108.398	92.7136	108.398	91.9153	108.398	92.4895	108.398	91.719	108.398	92.2943	108.398	91.5941	108.398	92.1371	108.398	91.5415	108.398	92.0213	108.398	91.5497	108.398	91.9438	108.398	91.5989	108.398	91.8954	108.398	91.6669	108.398	91.8626	108.398	91.7346	108.398	91.8313	108.398	91.7904
112.793	94.3063	112.793	94.2829	112.793	94.2729	112.793	94.2029	112.793	94.1846	112.793	94.0687	112.793	94.0453	112.793	93.8848	112.793	93.8615	112.793	93.6584	112.793	93.6423	112.793	93.4001	112.793	93.3996	112.793	93.1239	112.793	93.1481	112.793	92.8475	112.793	92.9048	112.793	92.5912	112.793	92.6871	112.793	92.376	112.793	92.5107	112.793	92.2191	112.793	92.3863	112.793	92.1298	112.793	92.3168	112.793	92.1066	112.793	92.2964	112.793	92.1368	112.793	92.3117	112.793	92.2003	112.793	92.3447	112.793	92.2744	112.793	92.3767	112.793	92.3389	112.793	92.3918	112.793	92.3801
117.188	94.3206	117.188	94.3157	117.188	94.2551	117.188	94.2416	117.188	94.1197	117.188	94.1015	117.188	93.917	117.188	93.9008	117.188	93.6522	117.188	93.6476	117.188	93.3337	117.188	93.3535	117.188	92.9745	117.188	93.034	117.188	92.5932	117.188	92.7089	117.188	92.215	117.188	92.4013	117.188	91.8699	117.188	92.1348	117.188	91.5895	117.188	91.9291	117.188	91.3994	117.188	91.7951	117.188	91.3109	117.188	91.7311	117.188	91.3167	117.188	91.7231	117.188	91.3928	117.188	91.7481	117.188	91.506	117.188	91.7801	117.188	91.6234	117.188	91.7956	117.188	91.7191	117.188	91.7777
120.117	95.0542	120.117	95.0073	120.117	95.0325	120.117	94.8937	120.117	94.9418	120.117	94.7165	120.117	94.7831	120.117	94.4808	120.117	94.5591	120.117	94.194	120.117	94.2746	120.117	93.8669	120.117	93.9373	120.117	93.514	120.117	93.5593	120.117	93.1541	120.117	93.1577	120.117	92.8098	120.117	92.7555	120.117	92.5041	120.117	92.3805	120.117	92.257	120.117	92.0625	120.117	92.0796	120.117	91.826	120.117	91.9706	120.117	91.6832	120.117	91.9168	120.117	91.6297	120.117	91.8967	120.117	91.6455	120.117	91.8871	120.117	91.702	120.117	91.8685	120.117	91.7706	120.117	91.8299
124.512	95.6206	124.512	95.5811	124.512	95.5972	124.512	95.4802	124.512	95.511	124.512	95.3212	124.512	95.3644	124.512	95.1097	124.512	95.1617	124.512	94.8543	124.512	94.9099	124.512	94.5668	124.512	94.6195	124.512	94.2634	124.512	94.3048	124.512	93.9641	124.512	93.9848	124.512	93.692	124.512	93.6824	124.512	93.4691	124.512	93.4221	124.512	93.3121	124.512	93.2256	124.512	93.2271	124.512	93.1061	124.512	93.2072	124.512	93.0644	124.512	93.2342	124.512	93.0875	124.512	93.2836	124.512	93.1525	124.512	93.3306	124.512	93.2325	124.512	93.3557	124.512	93.3033	124.512	93.3471
128.906	95.9686	128.906	95.9301	128.906	95.9346	128.906	95.8204	128.906	95.8289	128.906	95.6425	128.906	95.654	128.906	95.4022	128.906	95.4147	128.906	95.1092	128.906	95.1188	128.906	94.7781	128.906	94.7789	128.906	94.4301	128.906	94.413	128.906	94.0926	128.906	94.0464	128.906	93.7979	128.906	93.7106	128.906	93.5769	128.906	93.4398	128.906	93.4507	128.906	93.2635	128.906	93.4232	128.906	93.1964	128.906	93.478	128.906	93.2325	128.906	93.584	128.906	93.3461	128.906	93.7038	128.906	93.4999	128.906	93.8033	128.906	93.6549	128.906	93.8566	128.906	93.7787	128.906	93.8492
133.301	96.1891	133.301	96.1456	133.301	96.1532	133.301	96.0229	133.301	96.0384	133.301	95.8221	133.301	95.8458	133.301	95.546	133.301	95.5777	133.301	95.2003	133.301	95.2382	133.301	94.7959	133.301	94.8349	133.301	94.351	133.301	94.3814	133.301	93.8945	133.301	93.9001	133.301	93.4663	133.301	93.425	133.301	93.1131	133.301	93.0015	133.301	92.8769	133.301	92.68	133.301	92.7781	133.301	92.5004	133.301	92.8049	133.301	92.4743	133.301	92.9167	133.301	92.5775	133.301	93.0592	133.301	92.7586	133.301	93.1809	133.301	92.9584	133.301	93.2435	133.301	93.1257	133.301	93.2261
139.16	96.0425	139.16	96.0043	139.16	96.0142	139.16	95.8997	139.16	95.9201	139.16	95.7289	139.16	95.7611	139.16	95.4929	139.16	95.5392	139.16	95.1942	139.16	95.2576	139.16	94.8376	139.16	94.9218	139.16	94.4321	139.16	94.5403	139.16	93.9933	139.16	94.127	139.16	93.5449	139.16	93.7021	139.16	93.1196	139.16	93.2931	139.16	92.7553	139.16	92.932	139.16	92.486	139.16	92.6494	139.16	92.3294	139.16	92.4645	139.16	92.2784	139.16	92.3769	139.16	92.3025	139.16	92.3654	139.16	92.3606	139.16	92.3949	139.16	92.4145	139.16	92.4289	139.16	92.4394
143.555	95.7399	143.555	95.728	143.555	95.6715	143.555	95.6369	143.555	95.5227	143.555	95.4688	143.555	95.295	143.555	95.2276	143.555	94.9917	143.555	94.9189	143.555	94.6187	143.555	94.5514	143.555	94.1866	143.555	94.1383	143.555	93.712	143.555	93.6985	143.555	93.2205	143.555	93.2582	143.555	92.7472	143.555	92.8501	143.555	92.3344	143.555	92.5091	143.555	92.0238	143.555	92.2638	143.555	91.8427	143.555	92.1265	143.555	91.7919	143.555	92.0869	143.555	91.8443	143.555	92.1148	143.555	91.955	143.555	92.17	143.555	92.0768	143.555	92.2142	143.555	92.1721	143.555	92.2193
147.949	96.6129	147.949	96.5749	147.949	96.5696	147.949	96.4576	147.949	96.4435	147.949	96.2639	147.949	96.2331	147.949	95.9975	147.949	95.938	147.949	95.6642	147.949	95.5583	147.949	95.273	147.949	95.0969	147.949	94.8371	147.949	94.5612	147.949	94.3755	147.949	93.9666	147.949	93.9132	147.949	93.341	147.949	93.4796	147.949	92.7281	147.949	93.1032	147.949	92.1867	147.949	92.8046	147.949	91.7783	147.949	92.5893	147.949	91.5447	147.949	92.4457	147.949	91.4871	147.949	92.3486	147.949	91.5657	147.949	92.2674	147.949	91.7201	147.949	92.1743	147.949	91.8944	147.949	92.0511
153.809	96.8544	153.809	96.8019	153.809	96.8328	153.809	96.677	153.809	96.7358	153.809	96.4818	153.809	96.5625	153.809	96.2201	153.809	96.313	153.809	95.8982	153.809	95.9884	153.809	95.5265	153.809	95.5931	153.809	95.1222	153.809	95.1367	153.809	94.7112	153.809	94.6376	153.809	94.3276	153.809	94.1271	153.809	94.01	153.809	93.651	153.809	93.7911	153.809	93.2656	153.809	93.6853	153.809	93.0233	153.809	93.6808	153.809	92.9503	153.809	93.7424	153.809	93.0318	153.809	93.824	153.809	93.2176	153.809	93.8811	153.809	93.4434	153.809	93.8804	153.809	93.6521	153.809	93.8041
159.668	96.058	159.668	96.0003	159.668	96.047	159.668	95.8752	159.668	95.9659	159.668	95.6832	159.668	95.8126	159.668	95.4247	159.668	95.5844	159.668	95.1009	159.668	95.279	159.668	94.7153	159.668	94.8944	159.668	94.2756	159.668	94.4315	159.668	93.798	159.668	93.8975	159.668	93.3089	159.668	93.3103	159.668	92.8471	159.668	92.7056	159.668	92.4575	159.668	92.1401	159.668	92.1791	159.668	91.6858	159.668	92.027	159.668	91.4067	159.668	91.983	159.668	91.3263	159.668	92.0014	159.668	91.4112	159.668	92.027	159.668	91.5885	159.668	92.0128	159.668	91.7808	159.668	91.9313
165.527	95.6483	165.527	95.5919	165.527	95.6295	165.527	95.4618	165.527	95.5351	165.527	95.2614	165.527	95.3655	165.527	94.9961	165.527	95.1219	165.527	94.6738	165.527	94.8059	165.527	94.3065	165.527	94.4205	165.527	93.911	165.527	93.9722	165.527	93.5103	165.527	93.4739	165.527	93.1334	165.527	92.95	165.527	92.8118	165.527	92.4399	165.527	92.5721	165.527	91.9979	165.527	92.4272	165.527	91.6818	165.527	92.3693	165.527	91.5314	165.527	92.3712	165.527	91.5474	165.527	92.3951	165.527	91.6885	165.527	92.4025	165.527	91.8919	165.527	92.3634	165.527	92.0971	165.527	92.2613
171.387	96.2548	171.387	96.1244	171.387	96.3109	171.387	95.9223	171.387	96.2892	171.387	95.6509	171.387	96.1854	171.387	95.3136	171.387	95.9937	171.387	94.9162	171.387	95.7078	171.387	94.4695	171.387	95.3213	171.387	93.9925	171.387	94.83	171.387	93.5144	171.387	94.2351	171.387	93.074	171.387	93.5488	171.387	92.7129	171.387	92.8034	171.387	92.462	171.387	92.0607	171.387	92.3265	171.387	91.4161	171.387	92.2817	171.387	90.978	171.387	92.2807	171.387	90.8167	171.387	92.2713	171.387	90.917	171.387	92.2088	171.387	91.1887	171.387	92.0646	171.387	91.5217	171.387	91.83
177.246	96.1213	177.246	96.006	177.246	96.1594	177.246	95.8073	177.246	96.1259	177.246	95.519	177.246	96.0253	177.246	95.1359	177.246	95.8605	177.246	94.6559	177.246	95.633	177.246	94.0829	177.246	95.343	177.246	93.4336	177.246	94.9906	177.246	92.746	177.246	94.5789	177.246	92.0888	177.246	94.1172	177.246	91.5599	177.246	93.6258	177.246	91.2564	177.246	93.1397	177.246	91.2195	177.246	92.7076	177.246	91.4021	177.246	92.3819	177.246	91.6973	177.246	92.1979	177.246	91.9966	177.246	92.1545	177.246	92.2251	177.246	92.2107	177.246	92.3481	177.246	92.3024	177.246	92.3648
183.105	95.5648	183.105	95.4985	183.105	95.5695	183.105	95.3705	183.105	95.5128	183.105	95.1805	183.105	95.3947	183.105	94.9289	183.105	95.2146	183.105	94.6164	183.105	94.9711	183.105	94.2459	183.105	94.6629	183.105	93.8242	183.105	94.2899	183.105	93.366	183.105	93.8564	183.105	92.898	183.105	93.3758	183.105	92.4609	183.105	92.8751	183.105	92.1055	183.105	92.3987	183.105	91.8766	183.105	92.0036	183.105	91.791	183.105	91.7434	183.105	91.8249	183.105	91.643	183.105	91.9224	183.105	91.6823	183.105	92.0201	183.105	91.805	183.105	92.0681	183.105	91.9432	183.105	92.0414
188.965	95.2008	188.965	95.0925	188.965	95.2245	188.965	94.8958	188.965	95.1678	188.965	94.6088	188.965	95.0359	188.965	94.232	188.965	94.8332	188.965	93.7708	188.965	94.5642	188.965	93.2389	188.965	94.2335	188.965	92.6645	188.965	93.8473	188.965	92.0963	188.965	93.4172	188.965	91.6068	188.965	92.9641	188.965	91.2788	188.965	92.5232	188.965	91.1724	188.965	92.1445	188.965	91.288	188.965	91.8831	188.965	91.5615	188.965	91.7783	188.965	91.8981	188.965	91.8315	188.965	92.2107	188.965	92.0007	188.965	92.4388	188.965	92.2186	188.965	92.5504	188.965	92.416	188.965	92.5381
196.289	95.4042	196.289	95.3636	196.289	95.3639	196.289	95.2348	196.289	95.2485	196.289	95.0096	196.289	95.0624	196.289	94.6783	196.289	94.8086	196.289	94.2314	196.289	94.488	196.289	93.6614	196.289	94.1007	196.289	92.969	196.289	93.6477	196.289	92.1745	196.289	93.1349	196.289	91.3368	196.289	92.5795	196.289	90.5738	196.289	92.0185	196.289	90.0547	196.289	91.5141	196.289	89.917	196.289	91.1456	196.289	90.1526	196.289	90.9788	196.289	90.6079	196.289	91.025	196.289	91.099	196.289	91.2261	196.289	91.4964	196.289	91.4832	196.289	91.735	196.289	91.6982	196.289	91.797
203.613	94.7449	203.613	94.6865	203.613	94.7151	203.613	94.5375	203.613	94.599	203.613	94.2946	203.613	94.3971	203.613	93.9544	203.613	94.109	203.613	93.5139	203.613	93.7328	203.613	92.973	203.613	93.267	203.613	92.3391	203.613	92.7124	203.613	91.6359	203.613	92.0787	203.613	90.9171	203.613	91.3942	203.613	90.2789	203.613	90.7193	203.613	89.8491	203.613	90.1544	203.613	89.73	203.613	89.8182	203.613	89.9196	203.613	89.7853	203.613	90.3049	203.613	90.0257	203.613	90.7345	203.613	90.4197	203.613	91.0869	203.613	90.8286	203.613	91.2891	203.613	91.1462	203.613	91.3091
210.938	95.0915	210.938	95.0416	210.938	95.0536	210.938	94.8969	210.938	94.934	210.938	94.6489	210.938	94.7367	210.938	94.2884	210.938	94.4633	210.938	93.8053	210.938	94.1119	210.938	93.1905	210.938	93.677	210.938	92.4405	210.938	93.1502	210.938	91.5674	210.938	92.5242	210.938	90.6186	210.938	91.801	210.938	89.7044	210.938	91.0064	210.938	89.0104	210.938	90.2117	210.938	88.7266	210.938	89.5482	210.938	88.8935	210.938	89.176	210.938	89.3517	210.938	89.1803	210.938	89.8747	210.938	89.4871	210.938	90.2932	210.938	89.9166	210.938	90.5172	210.938	90.2964	210.938	90.5148
218.262	94.6601	218.262	94.6405	218.262	94.6185	218.262	94.5505	218.262	94.5238	218.262	94.38	218.262	94.3829	218.262	94.1167	218.262	94.1996	218.262	93.7453	218.262	93.9732	218.262	93.2472	218.262	93.6962	218.262	92.6016	218.262	93.355	218.262	91.7907	218.262	92.9309	218.262	90.8112	218.262	92.4053	218.262	89.6999	218.262	91.7675	218.262	88.5779	218.262	91.0281	218.262	87.6866	218.262	90.2366	218.262	87.2983	218.262	89.4962	218.262	87.4629	218.262	88.9467	218.262	87.9372	218.262	88.6877	218.262	88.4253	218.262	88.6895	218.262	88.7514	218.262	88.8046	218.262	88.8641
225.586	93.8802	225.586	93.9138	225.586	93.7645	225.586	93.8593	225.586	93.5762	225.586	93.713	225.586	93.3291	225.586	93.4713	225.586	93.0405	225.586	93.13	225.586	92.7297	225.586	92.6841	225.586	92.415	225.586	92.1307	225.586	92.1107	225.586	91.4763	225.586	91.8265	225.586	90.7501	225.586	91.569	225.586	90.0234	225.586	91.3456	225.586	89.4221	225.586	91.1677	225.586	89.0966	225.586	91.0494	225.586	89.13	225.586	91.0005	225.586	89.4632	225.586	91.0161	225.586	89.9401	225.586	91.0711	225.586	90.4101	225.586	91.1222	225.586	90.7804	225.586	91.1189	225.586	91.0151
232.91	93.4326	232.91	93.5107	232.91	93.2351	232.91	93.4702	232.91	92.9182	232.91	93.3111	232.91	92.4831	232.91	93.0312	232.91	91.9334	232.91	92.6245	232.91	91.2764	232.91	92.081	232.91	90.527	232.91	91.3892	232.91	89.7162	232.91	90.5452	232.91	88.9079	232.91	89.5756	232.91	88.2198	232.91	88.5854	232.91	87.8203	232.91	87.8138	232.91	87.8529	232.91	87.5814	232.91	88.3153	232.91	88.0093	232.91	89.046	232.91	88.8584	232.91	89.8397	232.91	89.7841	232.91	90.5408	232.91	90.5627	232.91	91.0566	232.91	91.0963	232.91	91.3368	232.91	91.3546
241.699	95.135	241.699	95.1567	241.699	95.0146	241.699	95.0716	241.699	94.8004	241.699	94.8685	241.699	94.494	241.699	94.5321	241.699	94.0926	241.699	94.042	241.699	93.5875	241.699	93.3712	241.699	92.9625	241.699	92.4855	241.699	92.1931	241.699	91.345	241.699	91.2467	241.699	89.9146	241.699	90.0889	241.699	88.2051	241.699	88.7038	241.699	86.4054	241.699	87.1574	241.699	85.1218	241.699	85.7444	241.699	85.1079	241.699	85.073	241.699	86.1318	241.699	85.51	241.699	87.3449	241.699	86.5921	241.699	88.2743	241.699	87.6831	241.699	88.7817	241.699	88.4681	241.699	88.844
250.488	93.9804	250.488	94.0112	250.488	93.8536	250.488	93.9539	250.488	93.6243	250.488	93.816	250.488	93.287	250.488	93.6024	250.488	92.8375	250.488	93.3129	250.488	92.2706	250.488	92.9386	250.488	91.5786	250.488	92.4589	250.488	90.7483	250.488	91.8393	250.488	89.7594	250.488	91.0314	250.488	88.587	250.488	89.9756	250.488	87.218	250.488	88.6104	250.488	85.6987	250.488	86.9065	250.488	84.2434	250.488	84.9768	250.488	83.3175	250.488	83.3281	250.488	83.3006	250.488	82.8102	250.488	83.929	250.488	83.4414	250.488	84.621	250.488	84.3365	250.488	84.9998	250.488	84.9113
259.277	94.2147	259.277	94.1727	259.277	94.1667	259.277	94.0387	259.277	94.0274	259.277	93.8079	259.277	93.7918	259.277	93.4729	259.277	93.4507	259.277	93.0237	259.277	92.9904	259.277	92.4493	259.277	92.3931	259.277	91.7415	259.277	91.6388	259.277	90.9019	259.277	90.7093	259.277	89.9554	259.277	89.5989	259.277	88.97	259.277	88.3373	259.277	88.071	259.277	87.0363	259.277	87.4197	259.277	85.9456	259.277	87.1271	259.277	85.3989	259.277	87.1628	259.277	85.5275	259.277	87.3767	259.277	86.0951	259.277	87.5989	259.277	86.757	259.277	87.7027	259.277	87.2924	259.277	87.6118
268.066	95.2465	268.066	95.2056	268.066	95.2484	268.066	95.1278	268.066	95.2055	268.066	95.0105	268.066	95.1096	268.066	94.8434	268.066	94.9481	268.066	94.6069	268.066	94.702	268.066	94.2728	268.066	94.3442	268.066	93.8055	268.066	93.8381	268.066	93.1664	268.066	93.138	268.066	92.3183	268.066	92.1902	268.066	91.2341	268.066	90.9341	268.066	89.9148	268.066	89.3086	268.066	88.4284	268.066	87.2821	268.066	86.9738	268.066	84.9759	268.066	85.887	268.066	83.0086	268.066	85.4022	268.066	82.473	268.066	85.3528	268.066	83.2899	268.066	85.3391	268.066	84.3401	268.066	85.0489
276.855	93.4167	276.855	93.3559	276.855	93.4274	276.855	93.2485	276.855	93.3873	276.855	93.0994	276.855	93.2988	276.855	92.911	276.855	93.1637	276.855	92.6795	276.855	92.979	276.855	92.393	276.855	92.7325	276.855	92.0328	276.855	92.4013	276.855	91.5783	276.855	91.9534	276.855	91.016	276.855	91.3536	276.855	90.3532	276.855	90.5745	276.855	89.6355	276.855	89.6165	276.855	88.9604	276.855	88.546	276.855	88.4592	276.855	87.5483	276.855	88.2214	276.855	86.9182	276.855	88.213	276.855	86.8534	276.855	88.2899	276.855	87.2264	276.855	88.2908	276.855	87.724	276.855	88.1094
287.109	92.7251	287.109	92.523	287.109	92.8453	287.109	92.2555	287.109	92.8731	287.109	91.9448	287.109	92.8011	287.109	91.6147	287.109	92.6222	287.109	91.2819	287.109	92.327	287.109	90.947	287.109	91.9029	287.109	90.5912	287.109	91.3328	287.109	90.1844	287.109	90.5956	287.109	89.7004	287.109	89.6672	287.109	89.1386	287.109	88.5286	287.109	88.5432	287.109	87.1935	287.109	88.0102	287.109	85.7828	287.109	87.6563	287.109	84.6459	287.109	87.5393	287.109	84.2942	287.109	87.5966	287.109	84.8357	287.109	87.6756	287.109	85.79	287.109	87.6164	287.109	86.6824	287.109	87.3033
297.363	94.1849	297.363	94.154	297.363	94.1511	297.363	94.0379	297.363	94.0723	297.363	93.8171	297.363	93.963	297.363	93.4714	297.363	93.8255	297.363	92.9789	297.363	93.6441	297.363	92.3128	297.363	93.3822	297.363	91.4395	297.363	92.9851	297.363	90.3207	297.363	92.3856	297.363	88.9245	297.363	91.5103	297.363	87.2715	297.363	90.2825	297.363	85.5654	297.363	88.6301	297.363	84.3855	297.363	86.5296	297.363	84.3565	297.363	84.2113	297.363	85.2073	297.363	82.6689	297.363	86.1771	297.363	83.0449	297.363	86.8305	297.363	84.5029	297.363	87.0204	297.363	85.8457	297.363	86.6992
307.617	93.8692	307.617	93.8499	307.617	93.8509	307.617	93.7878	307.617	93.8034	307.617	93.6772	307.617	93.7397	307.617	93.5072	307.617	93.6743	307.617	93.2589	307.617	93.6144	307.617	92.9047	307.617	93.5505	307.617	92.4102	307.617	93.4507	307.617	91.7373	307.617	93.2637	307.617	90.8489	307.617	92.9268	307.617	89.7192	307.617	92.374	307.617	88.3578	307.617	91.5447	307.617	86.8635	307.617	90.3943	307.617	85.5013	307.617	88.9204	307.617	84.6541	307.617	87.2268	307.617	84.4595	307.617	85.6332	307.617	84.6073	307.617	84.6394	307.617	84.7069	307.617	84.4277	307.617	84.5988
319.336	93.3726	319.336	93.4334	319.336	93.2876	319.336	93.4685	319.336	93.1838	319.336	93.4728	319.336	93.0738	319.336	93.4282	319.336	92.9719	319.336	93.2993	319.336	92.8824	319.336	93.0335	319.336	92.7871	319.336	92.5675	319.336	92.6419	319.336	91.8335	319.336	92.3836	319.336	90.7706	319.336	91.9456	319.336	89.355	319.336	91.2747	319.336	87.6995	319.336	90.3554	319.336	86.2822	319.336	89.2556	319.336	85.9194	319.336	88.2009	319.336	86.7034	319.336	87.578	319.336	87.823	319.336	87.6391	319.336	88.6951	319.336	88.1792	319.336	89.1401	319.336	88.7804	319.336	89.1485
329.59	94.0744	329.59	94.0481	329.59	94.0118	329.59	93.9454	329.59	93.87	329.59	93.7954	329.59	93.6793	329.59	93.6328	329.59	93.4828	329.59	93.478	329.59	93.3182	329.59	93.3185	329.59	93.1936	329.59	93.1008	329.59	93.0718	329.59	92.7384	329.59	92.8768	329.59	92.1292	329.59	92.5149	329.59	91.1754	329.59	91.8962	329.59	89.8153	329.59	90.952	329.59	88.117	329.59	89.6673	329.59	86.5243	329.59	88.1745	329.59	85.9393	329.59	86.9268	329.59	86.584	329.59	86.5773	329.59	87.5686	329.59	87.1271	329.59	88.2137	329.59	87.8824	329.59	88.3126
341.309	93.6682	341.309	93.7348	341.309	93.5005	341.309	93.7148	341.309	93.2469	341.309	93.6435	341.309	92.9584	341.309	93.5629	341.309	92.7189	341.309	93.5001	341.309	92.6159	341.309	93.4452	341.309	92.6848	341.309	93.3439	341.309	92.8734	341.309	93.1105	341.309	93.0653	341.309	92.6517	341.309	93.1353	341.309	91.89	341.309	92.9836	341.309	90.7923	341.309	92.5468	341.309	89.4401	341.309	91.8088	341.309	88.1721	341.309	90.8351	341.309	87.5871	341.309	89.8333	341.309	87.9062	341.309	89.1456	341.309	88.6083	341.309	88.988	341.309	89.1458	341.309	89.1728	341.309	89.3143
353.027	94.7428	353.027	94.7638	353.027	94.5174	353.027	94.5963	353.027	94.0787	353.027	94.2617	353.027	93.4297	353.027	93.7903	353.027	92.5982	353.027	93.2234	353.027	91.6524	353.027	92.6088	353.027	90.7131	353.027	91.9837	353.027	89.9326	353.027	91.3513	353.027	89.4186	353.027	90.6744	353.027	89.153	353.027	89.9092	353.027	89.0164	353.027	89.0892	353.027	88.9061	353.027	88.4393	353.027	88.8384	353.027	88.3541	353.027	88.9582	353.027	88.9898	353.027	89.4066	353.027	89.998	353.027	90.1317	353.027	90.9275	353.027	90.9011	353.027	91.5262	353.027	91.4768	353.027	91.7082
366.211	95.0675	366.211	94.9113	366.211	95.0556	366.211	94.6001	366.211	94.8701	366.211	94.1563	366.211	94.5151	366.211	93.6155	366.211	94.0081	366.211	93.0247	366.211	93.383	366.211	92.4294	366.211	92.6864	366.211	91.8454	366.211	91.9585	366.211	91.2306	366.211	91.2001	366.211	90.4784	366.211	90.3432	366.211	89.4384	366.211	89.2481	366.211	87.9514	366.211	87.732	366.211	85.9325	366.211	85.6337	366.211	83.7435	366.211	83.1229	366.211	82.9543	366.211	81.789	366.211	84.3309	366.211	83.2187	366.211	86.084	366.211	85.3658	366.211	87.1819	366.211	86.8388	366.211	87.4407
379.395	94.9729	379.395	94.8688	379.395	94.9591	379.395	94.6605	379.395	94.8248	379.395	94.3707	379.395	94.5785	379.395	94.0239	379.395	94.2387	379.395	93.6329	379.395	93.8296	379.395	93.1851	379.395	93.3691	379.395	92.6337	379.395	92.8499	379.395	91.9008	379.395	92.2229	379.395	90.8902	379.395	91.3952	379.395	89.5131	379.395	90.2452	379.395	87.7659	379.395	88.6555	379.395	85.9829	379.395	86.6231	379.395	85.1758	379.395	84.6812	379.395	85.975	379.395	84.3263	379.395	87.4197	379.395	85.7916	379.395	88.6054	379.395	87.5132	379.395	89.2497	379.395	88.7222	379.395	89.2962
392.578	96.618	392.578	96.4895	392.578	96.5608	392.578	96.188	392.578	96.3142	392.578	95.7374	392.578	95.8849	392.578	95.1779	392.578	95.2979	392.578	94.5657	392.578	94.6075	392.578	93.9585	392.578	93.9038	392.578	93.3825	392.578	93.2866	392.578	92.7929	392.578	92.7979	392.578	92.0617	392.578	92.3592	392.578	90.9954	392.578	91.7816	392.578	89.3524	392.578	90.8166	392.578	86.8564	392.578	89.1694	392.578	83.5243	392.578	86.4492	392.578	81.9482	392.578	82.3193	392.578	84.4084	392.578	80.0937	392.578	86.8673	392.578	83.6968	392.578	88.0723	392.578	86.6478	392.578	88.0212
405.762	95.9337	405.762	95.8117	405.762	95.9281	405.762	95.566	405.762	95.8	405.762	95.2092	405.762	95.5617	405.762	94.7618	405.762	95.2301	405.762	94.2535	405.762	94.8224	405.762	93.7231	405.762	94.3515	405.762	93.2098	405.762	93.8197	405.762	92.7258	405.762	93.2102	405.762	92.2206	405.762	92.4797	405.762	91.57	405.762	91.5557	405.762	90.6009	405.762	90.3356	405.762	89.1286	405.762	88.6904	405.762	87.0083	405.762	86.4927	405.762	84.3569	405.762	83.8002	405.762	82.3104	405.762	81.6053	405.762	82.4075	405.762	81.6767	405.762	83.3582	405.762	82.9385	405.762	83.6416
420.41	96.2291	420.41	96.1169	420.41	96.1348	420.41	95.8155	420.41	95.8228	420.41	95.3487	420.41	95.2943	420.41	94.753	420.41	94.5788	420.41	94.0817	420.41	93.7586	420.41	93.3988	420.41	92.9833	420.41	92.742	420.41	92.4216	420.41	92.0647	420.41	92.1287	420.41	91.211	420.41	91.9655	420.41	89.9484	420.41	91.6825	420.41	88.0175	420.41	91.0336	420.41	85.2601	420.41	89.7991	420.41	82.5985	420.41	87.7635	420.41	83.2132	420.41	84.8577	420.41	85.7185	420.41	82.4578	420.41	87.481	420.41	83.6763	420.41	88.1339	420.41	86.1459	420.41	87.6972
435.059	95.9234	435.059	95.8398	435.059	95.8258	435.059	95.5985	435.059	95.5353	435.059	95.2335	435.059	95.0566	435.059	94.7891	435.059	94.4233	435.059	94.3136	435.059	93.7102	435.059	93.8448	435.059	93.0256	435.059	93.3883	435.059	92.4613	435.059	92.9019	435.059	92.0213	435.059	92.2986	435.059	91.6053	435.059	91.4694	435.059	91.0599	435.059	90.3153	435.059	90.2354	435.059	88.7961	435.059	89.0273	435.059	87.0609	435.059	87.4576	435.059	85.7011	435.059	85.8943	435.059	85.4913	435.059	85.1827	435.059	86.1712	435.059	85.6563	435.059	86.8272	435.059	86.4952	435.059	86.9643
451.172	95.6436	451.172	95.5674	451.172	95.5016	451.172	95.325	451.172	95.1114	451.172	94.9839	451.172	94.477	451.172	94.6173	451.172	93.661	451.172	94.2819	451.172	92.8193	451.172	93.9925	451.172	92.191	451.172	93.7086	451.172	91.9558	451.172	93.3449	451.172	92.0487	451.172	92.789	451.172	92.2073	451.172	91.9119	451.172	92.1706	451.172	90.5751	451.172	91.7684	451.172	88.6741	451.172	90.9148	451.172	86.3786	451.172	89.6148	451.172	84.8365	451.172	88.0731	451.172	85.3817	451.172	86.8973	451.172	86.7774	451.172	86.7606	451.172	87.6857	451.172	87.3549	451.172	87.8291
465.82	98.3729	465.82	98.1868	465.82	98.2849	465.82	97.7349	465.82	97.9037	465.82	97.0228	465.82	97.1969	465.82	96.0718	465.82	96.1266	465.82	94.963	465.82	94.6816	465.82	93.9041	465.82	92.9652	465.82	93.1988	465.82	91.3523	465.82	92.9439	465.82	90.4643	465.82	92.8166	465.82	90.474	465.82	92.3418	465.82	90.7711	465.82	91.1167	465.82	90.6726	465.82	88.7179	465.82	89.7247	465.82	84.4895	465.82	87.5806	465.82	79.9371	465.82	84.3114	465.82	83.9023	465.82	83.3197	465.82	87.6891	465.82	86.3291	465.82	89.48	465.82	88.763	465.82	89.7904
483.398	98.6137	483.398	98.4589	483.398	98.615	483.398	98.1708	483.398	98.4287	483.398	97.7488	483.398	98.0162	483.398	97.1752	483.398	97.3481	483.398	96.4304	483.398	96.4215	483.398	95.5227	483.398	95.2888	483.398	94.5183	483.398	94.0925	483.398	93.5367	483.398	93.0565	483.398	92.6547	483.398	92.3313	483.398	91.7649	483.398	91.7747	483.398	90.5479	483.398	90.9809	483.398	88.5443	483.398	89.4577	483.398	85.2093	483.398	86.6137	483.398	81.2905	483.398	81.8041	483.398	83.2523	483.398	80.4146	483.398	86.9235	483.398	85.2487	483.398	88.8798	483.398	88.178	483.398	89.28
499.512	97.4935	499.512	97.1426	499.512	97.5849	499.512	96.584	499.512	97.378	499.512	95.8866	499.512	96.8479	499.512	95.1419	499.512	95.9958	499.512	94.4649	499.512	94.8786	499.512	93.9798	499.512	93.6647	499.512	93.7738	499.512	92.6821	499.512	93.8288	499.512	92.2876	499.512	93.9912	499.512	92.4907	499.512	94.0226	499.512	92.8918	499.512	93.6754	499.512	93.0475	499.512	92.7191	499.512	92.649	499.512	90.9156	499.512	91.4601	499.512	87.9864	499.512	89.2172	499.512	83.8704	499.512	85.6113	499.512	80.9374	499.512	81.252	499.512	81.7655	499.512	80.6829	499.512	82.0858
517.09	99.1482	517.09	98.8864	517.09	99.1323	517.09	98.3474	517.09	98.8125	517.09	97.5098	517.09	98.1365	517.09	96.3392	517.09	97.0318	517.09	94.8142	517.09	95.4157	517.09	93.0332	517.09	93.2276	517.09	91.504	517.09	90.6147	517.09	91.1164	517.09	88.6907	517.09	91.787	517.09	89.1779	517.09	92.4644	517.09	90.8041	517.09	92.489	517.09	91.847	517.09	91.6225	517.09	91.8575	517.09	89.8313	517.09	90.7831	517.09	87.6722	517.09	88.7887	517.09	87.117	517.09	86.9557	517.09	88.4935	517.09	87.3082	517.09	89.6808	517.09	88.8794	517.09	89.8289
536.133	98.2924	536.133	98.2311	536.133	98.2543	536.133	98.0471	536.133	98.11	536.133	97.6925	536.133	97.8228	536.133	97.1039	536.133	97.3316	536.133	96.207	536.133	96.5569	536.133	94.9146	536.133	95.4048	536.133	93.1531	536.133	93.7678	536.133	91.0421	536.133	91.556	536.133	89.321	536.133	88.9041	536.133	88.903	536.133	86.8112	536.133	89.1017	536.133	86.5821	536.133	88.6701	536.133	87.0577	536.133	86.9412	536.133	86.5819	536.133	83.75	536.133	84.3485	536.133	81.9819	536.133	80.5649	536.133	84.6785	536.133	81.5955	536.133	86.8044	536.133	85.3349	536.133	87.0611
555.176	97.978	555.176	97.6884	555.176	98.1474	555.176	97.3285	555.176	98.1455	555.176	96.9296	555.176	97.9214	555.176	96.4703	555.176	97.4276	555.176	95.8502	555.176	96.6233	555.176	94.9041	555.176	95.4631	555.176	93.4783	555.176	93.8736	555.176	91.6215	555.176	91.8107	555.176	89.9418	555.176	89.6047	555.176	89.3679	555.176	88.3034	555.176	89.5482	555.176	88.156	555.176	89.2737	555.176	87.8746	555.176	87.7094	555.176	86.4754	555.176	84.0681	555.176	83.196	555.176	77.8012	555.176	76.5531	555.176	79.5816	555.176	76.5303	555.176	83.445	555.176	82.2408	555.176	84.2215
574.219	98.5439	574.219	98.3137	574.219	98.5682	574.219	97.9105	574.219	98.3756	574.219	97.3838	574.219	97.969	574.219	96.7693	574.219	97.3559	574.219	96.0393	574.219	96.5386	574.219	95.0838	574.219	95.503	574.219	93.7657	574.219	94.2165	574.219	92.0788	574.219	92.6582	574.219	90.3965	574.219	90.909	574.219	89.4162	574.219	89.2944	574.219	89.156	574.219	88.2789	574.219	88.7561	574.219	87.7592	574.219	87.5638	574.219	86.9612	574.219	85.79	574.219	85.2984	574.219	85.3123	574.219	83.4698	574.219	86.8055	574.219	84.2754	574.219	88.0525	574.219	86.6338	574.219	88.0431
594.727	97.9563	594.727	97.7079	594.727	97.95	594.727	97.2442	594.727	97.6914	594.727	96.6354	594.727	97.2246	594.727	95.9502	594.727	96.6239	594.727	95.2015	594.727	95.9667	594.727	94.3064	594.727	95.2852	594.727	93.1044	594.727	94.5115	594.727	91.4384	594.727	93.4756	594.727	89.3342	594.727	92.0294	594.727	87.392	594.727	90.2661	594.727	86.6837	594.727	88.6568	594.727	86.8664	594.727	87.6093	594.727	86.5488	594.727	86.7076	594.727	84.9937	594.727	85.0445	594.727	82.435	594.727	81.8134	594.727	81.1993	594.727	77.8277	594.727	81.9565	594.727	79.2892	594.727	81.6994
615.234	98.2249	615.234	98.0254	615.234	98.1378	615.234	97.5901	615.234	97.7492	615.234	96.9887	615.234	97.0962	615.234	96.2857	615.234	96.2749	615.234	95.5019	615.234	95.4102	615.234	94.583	615.234	94.5788	615.234	93.4098	615.234	93.7476	615.234	91.8742	615.234	92.8315	615.234	90.0495	615.234	91.8412	615.234	88.3947	615.234	90.9191	615.234	87.4151	615.234	90.1162	615.234	86.6725	615.234	89.164	615.234	85.084	615.234	87.5508	615.234	81.7141	615.234	84.5507	615.234	77.8638	615.234	78.5312	615.234	80.4606	615.234	71.1094	615.234	83.0393	615.234	79.8234	615.234	82.9957
637.207	98.3105	637.207	98.0757	637.207	98.1974	637.207	97.5502	637.207	97.7102	637.207	96.8412	637.207	96.8588	637.207	96.1009	637.207	95.7191	637.207	95.4367	637.207	94.4619	637.207	94.7937	637.207	93.3342	637.207	93.9673	637.207	92.5318	637.207	92.7944	637.207	92.0417	637.207	91.3614	637.207	91.7257	637.207	89.9776	637.207	91.5045	637.207	88.7322	637.207	91.2744	637.207	87.0885	637.207	90.7201	637.207	84.0606	637.207	89.2964	637.207	79.2495	637.207	86.1735	637.207	80.8336	637.207	79.5475	637.207	85.1429	637.207	77.2083	637.207	87.0188	637.207	84.0791	637.207	86.7634
659.18	97.52	659.18	97.262	659.18	97.4409	659.18	96.6738	659.18	97.0546	659.18	95.8427	659.18	96.4086	659.18	94.9475	659.18	95.5706	659.18	94.1508	659.18	94.5951	659.18	93.4154	659.18	93.412	659.18	92.4758	659.18	91.7352	659.18	91.0543	659.18	89.1783	659.18	89.1569	659.18	85.9071	659.18	87.4269	659.18	84.6565	659.18	86.9088	659.18	86.5282	659.18	87.2159	659.18	88.227	659.18	86.9897	659.18	88.7605	659.18	85.4887	659.18	87.9732	659.18	82.6341	659.18	85.7057	659.18	79.926	659.18	82.0278	659.18	79.6412	659.18	79.176	659.18	79.5026
682.617	97.6785	682.617	97.2341	682.617	97.6692	682.617	96.3603	682.617	97.262	682.617	95.2618	682.617	96.5558	682.617	94.3598	682.617	95.6861	682.617	93.9694	682.617	94.7714	682.617	93.8524	682.617	93.8007	682.617	93.4383	682.617	92.5754	682.617	92.3598	682.617	90.7957	682.617	90.6733	682.617	88.2373	682.617	88.9014	682.617	85.2562	682.617	87.7716	682.617	84.1487	682.617	87.1279	682.617	85.5326	682.617	85.7997	682.617	86.361	682.617	82.4947	682.617	85.2579	682.617	75.5181	682.617	81.1611	682.617	76.2958	682.617	70.8128	682.617	80.9726	682.617	77.3782	682.617	81.3964
707.52	97.2289	707.52	96.8972	707.52	97.1745	707.52	96.1631	707.52	96.7666	707.52	95.0717	707.52	96.0462	707.52	93.7681	707.52	95.0752	707.52	92.4516	707.52	93.9392	707.52	91.2287	707.52	92.722	707.52	90.018	707.52	91.4645	707.52	88.6919	707.52	90.1002	707.52	87.3569	707.52	88.3971	707.52	86.4373	707.52	86.1371	707.52	86.1701	707.52	83.8442	707.52	85.9324	707.52	82.8556	707.52	84.6759	707.52	82.339	707.52	81.3472	707.52	80.2766	707.52	75.7039	707.52	76.0537	707.52	78.5976	707.52	77.4077	707.52	82.5001	707.52	81.7399	707.52	83.4061
732.422	96.8129	732.422	96.5497	732.422	96.6175	732.422	95.8695	732.422	95.9539	732.422	94.8766	732.422	94.8563	732.422	93.7464	732.422	93.4898	732.422	92.6417	732.422	92.2541	732.422	91.5624	732.422	91.6167	732.422	90.2956	732.422	91.5561	732.422	88.6047	732.422	91.46	732.422	86.605	732.422	90.7364	732.422	85.2045	732.422	89.2342	732.422	85.0858	732.422	87.3137	732.422	84.9839	732.422	85.7089	732.422	83.5265	732.422	84.7101	732.422	80.0093	732.422	83.2941	732.422	76.9625	732.422	79.62	732.422	80.1302	732.422	70.2195	732.422	82.2346	732.422	76.6378	732.422	81.4648
757.324	96.1636	757.324	95.8756	757.324	96.0508	757.324	95.1773	757.324	95.5372	757.324	94.1516	757.324	94.6206	757.324	93.0597	757.324	93.396	757.324	92.1776	757.324	92.07	757.324	91.4189	757.324	90.7508	757.324	90.3313	757.324	89.3979	757.324	88.5611	757.324	88.0832	757.324	86.1216	757.324	86.9626	757.324	83.394	757.324	86.2037	757.324	81.7052	757.324	85.9756	757.324	81.9906	757.324	86.0369	757.324	82.5631	757.324	85.8562	757.324	82.2553	757.324	84.804	757.324	80.9653	757.324	82.1089	757.324	79.5594	757.324	77.1	757.324	79.0546	757.324	74.9674	757.324	77.9737
785.156	95.7768	785.156	95.398	785.156	95.653	785.156	94.4791	785.156	95.0817	785.156	93.0895	785.156	94.1341	785.156	91.5454	785.156	92.8759	785.156	90.3968	785.156	91.243	785.156	89.9417	785.156	88.9937	785.156	89.6479	785.156	85.9409	785.156	88.8211	785.156	82.3297	785.156	87.1439	785.156	79.0227	785.156	84.293	785.156	77.7831	785.156	81.4346	785.156	80.763	785.156	81.8593	785.156	83.967	785.156	82.1681	785.156	85.2004	785.156	79.6102	785.156	84.3508	785.156	72.1129	785.156	81.031	785.156	73.9934	785.156	72.8868	785.156	78.5675	785.156	72.0387	785.156	78.161
811.523	95.58	811.523	95.0095	811.523	95.6233	811.523	93.9174	811.523	95.1316	811.523	92.3509	811.523	94.1227	811.523	90.5628	811.523	92.653	811.523	89.2188	811.523	90.7841	811.523	89.0219	811.523	88.5792	811.523	89.423	811.523	86.2064	811.523	89.371	811.523	84.0005	811.523	88.4821	811.523	81.7654	811.523	86.5172	811.523	78.4241	811.523	83.281	811.523	78.0647	811.523	80.8721	811.523	81.743	811.523	81.4887	811.523	83.2753	811.523	80.926	811.523	82.4679	811.523	76.8591	811.523	79.1628	811.523	71.8675	811.523	70.9084	811.523	75.9043	811.523	69.7379	811.523	76.0764
840.82	95.5212	840.82	95.2536	840.82	95.223	840.82	94.4417	840.82	94.3648	840.82	93.1505	840.82	93.0006	840.82	91.4319	840.82	91.2641	840.82	89.1462	840.82	89.4094	840.82	86.3872	840.82	87.8253	840.82	84.8094	840.82	86.6921	840.82	85.0774	840.82	85.4748	840.82	85.4385	840.82	83.3865	840.82	84.863	840.82	80.116	840.82	83.2062	840.82	75.808	840.82	81.4081	840.82	72.9079	840.82	79.9153	840.82	75.8294	840.82	76.9777	840.82	77.9793	840.82	68.7901	840.82	77.0688	840.82	69.2229	840.82	71.9257	840.82	74.2886	840.82	64.8514	840.82	72.9439
870.117	95.9408	870.117	95.3475	870.117	95.8619	870.117	94.1387	870.117	95.125	870.117	92.5305	870.117	93.7918	870.117	90.7888	870.117	92.0442	870.117	88.8553	870.117	90.1411	870.117	86.278	870.117	88.2742	870.117	82.8159	870.117	86.727	870.117	79.842	870.117	85.6236	870.117	79.9838	870.117	84.632	870.117	81.3785	870.117	83.4429	870.117	81.8045	870.117	81.7638	870.117	80.8262	870.117	79.5882	870.117	78.263	870.117	77.8352	870.117	73.5255	870.117	76.4943	870.117	70.907	870.117	73.4714	870.117	76.1503	870.117	72.5201	870.117	79.0963	870.117	77.1803	870.117	79.4495
900.879	95.9659	900.879	95.5179	900.879	95.8513	900.879	94.5668	900.879	95.1388	900.879	93.1648	900.879	93.9149	900.879	91.3796	900.879	92.4576	900.879	89.3009	900.879	91.046	900.879	87.0138	900.879	89.6304	900.879	84.7049	900.879	87.9514	900.879	82.6257	900.879	86.0356	900.879	80.4402	900.879	84.0638	900.879	77.0968	900.879	81.7714	900.879	75.4438	900.879	78.5184	900.879	79.0277	900.879	76.6635	900.879	81.0468	900.879	79.8208	900.879	80.3426	900.879	81.5761	900.879	75.6744	900.879	80.2433	900.879	50.9225	900.879	74.9623	900.879	72.8701	900.879	70.4973	900.879	74.594
933.105	95.8395	933.105	95.4348	933.105	95.63	933.105	94.3596	933.105	94.9176	933.105	92.7041	933.105	93.8473	933.105	90.677	933.105	92.5183	933.105	88.4849	933.105	90.7721	933.105	86.464	933.105	88.3816	933.105	84.8602	933.105	85.7403	933.105	83.6486	933.105	83.8508	933.105	82.7336	933.105	82.8377	933.105	81.4794	933.105	81.8246	933.105	79.0474	933.105	80.1633	933.105	77.3107	933.105	78.2714	933.105	78.8162	933.105	78.2856	933.105	79.1555	933.105	78.9702	933.105	76.2678	933.105	76.8739	933.105	72.0129	933.105	68.8577	933.105	75.6046	933.105	72.8804	933.105	76.8592
965.332	95.7181	965.332	95.4233	965.332	95.5335	965.332	94.6365	965.332	94.9031	965.332	93.4144	965.332	93.8794	965.332	91.8095	965.332	92.4491	965.332	89.6303	965.332	90.4822	965.332	86.8236	965.332	88.1983	965.332	84.4146	965.332	86.4612	965.332	83.5732	965.332	85.4721	965.332	83.506	965.332	84.2962	965.332	82.7761	965.332	82.6988	965.332	80.47	965.332	80.5697	965.332	77.0957	965.332	76.3156	965.332	77.3109	965.332	74.2314	965.332	77.5779	965.332	78.5106	965.332	73.1485	965.332	78.3836	965.332	72.8464	965.332	71.3075	965.332	78.076	965.332	70.661	965.332	77.8895
1000.49	95.6264	1000.49	95.0221	1000.49	95.6183	1000.49	93.9017	1000.49	95.0246	1000.49	92.5258	1000.49	93.9185	1000.49	91.0153	1000.49	92.3453	1000.49	89.0389	1000.49	90.2962	1000.49	86.7121	1000.49	87.7307	1000.49	85.0308	1000.49	84.7195	1000.49	84.1182	1000.49	82.2112	1000.49	83.0698	1000.49	81.3059	1000.49	81.7298	1000.49	80.8227	1000.49	79.9107	1000.49	80.1763	1000.49	77.1544	1000.49	80.226	1000.49	77.7472	1000.49	79.69	1000.49	79.9753	1000.49	78.0624	1000.49	78.4464	1000.49	76.4749	1000.49	73.3965	1000.49	72.9462	1000.49	73.5431	1000.49	64.5897	1000.49	71.9251
1035.64	96.0513	1035.64	95.4323	1035.64	95.9351	1035.64	94.2134	1035.64	95.1724	1035.64	92.7711	1035.64	93.8447	1035.64	91.2218	1035.64	91.9628	1035.64	89.2286	1035.64	89.8112	1035.64	86.6356	1035.64	88.0872	1035.64	83.9456	1035.64	86.7634	1035.64	82.9024	1035.64	84.8639	1035.64	83.3972	1035.64	82.3109	1035.64	82.5967	1035.64	81.0003	1035.64	79.6026	1035.64	79.3133	1035.64	77.4372	1035.64	75.1979	1035.64	78.185	1035.64	75.0832	1035.64	76.4549	1035.64	77.191	1035.64	64.9323	1035.64	76.2345	1035.64	72.2653	1035.64	73.9472	1035.64	77.3517	1035.64	73.9269	1035.64	76.7145
1072.27	96.3778	1072.27	95.8654	1072.27	96.0666	1072.27	94.6482	1072.27	95.0339	1072.27	93.0703	1072.27	93.5249	1072.27	91.3002	1072.27	91.7311	1072.27	89.1085	1072.27	89.6081	1072.27	86.449	1072.27	87.4885	1072.27	83.7386	1072.27	86.1706	1072.27	81.8689	1072.27	85.0123	1072.27	81.8386	1072.27	83.0061	1072.27	82.1193	1072.27	81.4132	1072.27	80.7789	1072.27	81.3266	1072.27	77.7392	1072.27	79.6193	1072.27	77.9045	1072.27	74.546	1072.27	79.429	1072.27	76.4581	1072.27	76.2562	1072.27	76.8643	1072.27	66.0123	1072.27	70.3104	1072.27	75.1075	1072.27	67.0206	1072.27	75.7828
1108.89	96.3901	1108.89	95.6594	1108.89	96.3198	1108.89	94.4904	1108.89	95.4073	1108.89	93.1592	1108.89	93.8962	1108.89	91.5158	1108.89	92.0606	1108.89	89.472	1108.89	90.0527	1108.89	87.0165	1108.89	87.9417	1108.89	83.9219	1108.89	85.7673	1108.89	80.6241	1108.89	83.8282	1108.89	78.2596	1108.89	81.1689	1108.89	78.8425	1108.89	79.5879	1108.89	79.5522	1108.89	81.4241	1108.89	78.5838	1108.89	82.09	1108.89	79.6894	1108.89	78.508	1108.89	81.2381	1108.89	76.9883	1108.89	79.503	1108.89	79.0555	1108.89	74.7044	1108.89	77.2534	1108.89	74.5898	1108.89	71.8501	1108.89	73.8276
1148.44	97.0823	1148.44	96.4895	1148.44	96.8031	1148.44	95.2426	1148.44	95.6787	1148.44	93.7369	1148.44	93.9717	1148.44	92.024	1148.44	92.0938	1148.44	89.5779	1148.44	90.2357	1148.44	86.6619	1148.44	87.7562	1148.44	85.2275	1148.44	83.6824	1148.44	85.1912	1148.44	79.5762	1148.44	84.1138	1148.44	79.2143	1148.44	81.0993	1148.44	80.2992	1148.44	77.3338	1148.44	80.6403	1148.44	76.6983	1148.44	79.9681	1148.44	77.8134	1148.44	77.6725	1148.44	79.7017	1148.44	75.7725	1148.44	78.5923	1148.44	75.8882	1148.44	71.8096	1148.44	72.9052	1148.44	74.5164	1148.44	66.0262	1148.44	74.9639
1189.45	96.7725	1189.45	96.2734	1189.45	96.4829	1189.45	95.0221	1189.45	95.5392	1189.45	93.2089	1189.45	94.0298	1189.45	90.9569	1189.45	92.0284	1189.45	88.6765	1189.45	89.7681	1189.45	86.5612	1189.45	87.5151	1189.45	84.1727	1189.45	85.4588	1189.45	82.7246	1189.45	83.797	1189.45	83.1252	1189.45	81.3907	1189.45	82.9549	1189.45	75.738	1189.45	79.9722	1189.45	75.4377	1189.45	72.5198	1189.45	79.4683	1189.45	77.3299	1189.45	78.9751	1189.45	79.6758	1189.45	75.0066	1189.45	75.9072	1189.45	73.4147	1189.45	68.988	1189.45	70.7357	1189.45	76.2573	1189.45	70.2414	1189.45	76.1346
1230.47	96.6984	1230.47	96.1283	1230.47	96.459	1230.47	94.8707	1230.47	95.5014	1230.47	93.132	1230.47	93.8965	1230.47	90.9729	1230.47	91.7074	1230.47	88.6438	1230.47	89.3859	1230.47	86.054	1230.47	87.273	1230.47	82.6399	1230.47	85.0406	1230.47	80.352	1230.47	83.5231	1230.47	81.6726	1230.47	83.0891	1230.47	82.4975	1230.47	80.495	1230.47	80.6916	1230.47	71.0003	1230.47	74.941	1230.47	71.9156	1230.47	64.3628	1230.47	76.6903	1230.47	73.2132	1230.47	78.5065	1230.47	70.939	1230.47	78.7671	1230.47	72.3851	1230.47	75.5406	1230.47	75.7966	1230.47	59.0304	1230.47	72.3814
1274.41	96.0911	1274.41	95.4145	1274.41	96.0148	1274.41	94.4109	1274.41	94.9501	1274.41	93.1868	1274.41	93.1629	1274.41	91.1838	1274.41	91.4581	1274.41	88.0339	1274.41	89.7137	1274.41	84.5247	1274.41	86.8549	1274.41	82.7195	1274.41	83.5244	1274.41	81.9084	1274.41	81.2872	1274.41	79.7193	1274.41	81.8906	1274.41	77.4641	1274.41	82.228	1274.41	77.5383	1274.41	80.8121	1274.41	75.6849	1274.41	76.0424	1274.41	66.6561	1274.41	71.8943	1274.41	72.9571	1274.41	72.8786	1274.41	72.8525	1274.41	72.3587	1274.41	64.0157	1274.41	68.3394	1274.41	73.5946	1274.41	65.1131	1274.41	73.4698
1319.82	96.2944	1319.82	95.5434	1319.82	96.2901	1319.82	94.4199	1319.82	95.2698	1319.82	92.898	1319.82	93.4779	1319.82	90.7843	1319.82	91.3873	1319.82	88.3111	1319.82	88.891	1319.82	85.0633	1319.82	86.4978	1319.82	80.0936	1319.82	84.4767	1319.82	76.056	1319.82	80.8356	1319.82	77.7259	1319.82	76.1942	1319.82	78.2601	1319.82	74.5743	1319.82	76.5212	1319.82	76.0813	1319.82	73.4322	1319.82	78.9749	1319.82	73.2491	1319.82	77.5109	1319.82	74.5686	1319.82	71.5545	1319.82	69.1804	1319.82	72.9424	1319.82	63.3164	1319.82	71.762	1319.82	70.8455	1319.82	59.1541	1319.82	67.1025
1366.7	96.6106	1366.7	95.9539	1366.7	96.3181	1366.7	94.6199	1366.7	95.0938	1366.7	92.5817	1366.7	93.4768	1366.7	89.8144	1366.7	91.536	1366.7	86.9804	1366.7	88.7602	1366.7	84.3246	1366.7	85.8478	1366.7	81.0549	1366.7	83.7772	1366.7	76.9196	1366.7	81.981	1366.7	75.2446	1366.7	80.2059	1366.7	76.9382	1366.7	78.1062	1366.7	77.8582	1366.7	72.3507	1366.7	76.4302	1366.7	62.8023	1366.7	67.6643	1366.7	73.1198	1366.7	65.6445	1366.7	71.9686	1366.7	67.7982	1366.7	72.3706	1366.7	59.91	1366.7	70.1766	1366.7	70.1713	1366.7	61.2456	1366.7	70.6467
1413.57	96.573	1413.57	95.908	1413.57	96.2958	1413.57	94.6237	1413.57	95.1404	1413.57	92.766	1413.57	93.5359	1413.57	90.0188	1413.57	91.4038	1413.57	86.5039	1413.57	88.4451	1413.57	82.9043	1413.57	85.955	1413.57	80.0763	1413.57	83.817	1413.57	77.422	1413.57	79.702	1413.57	74.8004	1413.57	76.6603	1413.57	73.6273	1413.57	78.4153	1413.57	73.3477	1413.57	77.1872	1413.57	73.9669	1413.57	71.0083	1413.57	66.4391	1413.57	62.6661	1413.57	64.2545	1413.57	61.3786	1413.57	65.3808	1413.57	66.855	1413.57	41.3207	1413.57	67.7597	1413.57	67.5042	1413.57	60.9065	1413.57	69.4702
1463.38	96.1206	1463.38	95.4576	1463.38	95.9307	1463.38	94.1989	1463.38	94.9187	1463.38	92.3403	1463.38	93.3018	1463.38	89.8938	1463.38	90.9439	1463.38	86.848	1463.38	87.9385	1463.38	82.7234	1463.38	85.293	1463.38	79.1079	1463.38	82.1049	1463.38	75.3152	1463.38	76.4654	1463.38	68.1541	1463.38	71.7424	1463.38	71.1967	1463.38	71.183	1463.38	72.5828	1463.38	74.4915	1463.38	69.6086	1463.38	74.977	1463.38	65.337	1463.38	73.2037	1463.38	61.7953	1463.38	70.0992	1463.38	51.3008	1463.38	65.1447	1463.38	50.4623	1463.38	67.0031	1463.38	57.5623	1463.38	65.7046	1463.38	58.4959
1516.11	95.4891	1516.11	94.8505	1516.11	95.4236	1516.11	93.7211	1516.11	94.3913	1516.11	91.833	1516.11	92.6796	1516.11	89.4381	1516.11	90.3425	1516.11	86.3339	1516.11	87.5833	1516.11	81.4083	1516.11	84.9392	1516.11	78.1941	1516.11	80.2742	1516.11	77.1383	1516.11	76.2203	1516.11	71.7498	1516.11	75.0732	1516.11	60.1012	1516.11	68.3152	1516.11	65.8817	1516.11	64.3665	1516.11	70.0271	1516.11	62.2143	1516.11	69.9779	1516.11	71.0765	1516.11	65.5933	1516.11	71.2808	1516.11	68.2943	1516.11	69.971	1516.11	63.4957	1516.11	70.059	1516.11	66.3934	1516.11	66.8188	1516.11	64.8721
1568.85	94.992	1568.85	94.2363	1568.85	94.9065	1568.85	93.1082	1568.85	93.9003	1568.85	91.361	1568.85	92.5126	1568.85	88.809	1568.85	90.0289	1568.85	85.3522	1568.85	87.0143	1568.85	81.1353	1568.85	84.5928	1568.85	77.2834	1568.85	79.6897	1568.85	73.648	1568.85	75.1676	1568.85	70.8832	1568.85	71.6743	1568.85	69.06	1568.85	65.7848	1568.85	64.4755	1568.85	68.5474	1568.85	62.6491	1568.85	67.0613	1568.85	59.3027	1568.85	66.525	1568.85	64.2464	1568.85	69.2259	1568.85	64.1259	1568.85	62.9075	1568.85	58.5649	1568.85	48.8303	1568.85	65.575	1568.85	60.5339	1568.85	67.4129
1624.51	95.0868	1624.51	94.3657	1624.51	94.7917	1624.51	92.8632	1624.51	93.7964	1624.51	90.7939	1624.51	92.0982	1624.51	88.5767	1624.51	89.3724	1624.51	85.416	1624.51	87.1178	1624.51	80.7054	1624.51	83.0826	1624.51	75.8899	1624.51	76.604	1624.51	71.1934	1624.51	75.1087	1624.51	66.7745	1624.51	66.6576	1624.51	61.8916	1624.51	61.5557	1624.51	63.2336	1624.51	66.2531	1624.51	64.7466	1624.51	67.6345	1624.51	63.0799	1624.51	59.9133	1624.51	50.9942	1624.51	68.4669	1624.51	57.9015	1624.51	62.1611	1624.51	51.5909	1624.51	59.0543	1624.51	53.0976	1624.51	51.4284	1624.51	38.2519
1681.64	94.8444	1681.64	94.3834	1681.64	94.5923	1681.64	93.0101	1681.64	93.7256	1681.64	90.8491	1681.64	91.8494	1681.64	88.4136	1681.64	89.48	1681.64	85.4205	1681.64	86.8077	1681.64	81.6878	1681.64	82.111	1681.64	77.2461	1681.64	77.3644	1681.64	67.8792	1681.64	73.2951	1681.64	70.1841	1681.64	71.0406	1681.64	70.05	1681.64	71.6651	1681.64	62.8494	1681.64	63.578	1681.64	66.1673	1681.64	57.9981	1681.64	60.4498	1681.64	65.0014	1681.64	63.149	1681.64	59.0535	1681.64	60.0327	1681.64	57.7101	1681.64	61.9075	1681.64	55.9562	1681.64	70.2413	1681.64	65.7801	1681.64	71.1694
1741.7	94.4213	1741.7	93.763	1741.7	94.3635	1741.7	92.5778	1741.7	93.4429	1741.7	90.6826	1741.7	91.6026	1741.7	87.6669	1741.7	88.8876	1741.7	83.4217	1741.7	85.9038	1741.7	80.1116	1741.7	81.1153	1741.7	77.9097	1741.7	79.0305	1741.7	73.074	1741.7	76.7314	1741.7	68.0375	1741.7	67.6787	1741.7	60.0645	1741.7	69.747	1741.7	60.4595	1741.7	66.6486	1741.7	68.9232	1741.7	66.1787	1741.7	65.9368	1741.7	70.6026	1741.7	45.7444	1741.7	62.8005	1741.7	62.0396	1741.7	52.9078	1741.7	63.8402	1741.7	54.4565	1741.7	61.5155	1741.7	64.045	1741.7	65.0097
1803.22	93.793	1803.22	93.0145	1803.22	93.8524	1803.22	91.7994	1803.22	93.1758	1803.22	89.9869	1803.22	91.3445	1803.22	87.1739	1803.22	88.9775	1803.22	83.6912	1803.22	85.9153	1803.22	81.3169	1803.22	81.4026	1803.22	77.6674	1803.22	80.3741	1803.22	72.9635	1803.22	74.0881	1803.22	71.8095	1803.22	62.3458	1803.22	70.1888	1803.22	63.1743	1803.22	58.9485	1803.22	67.4081	1803.22	65.0408	1803.22	69.0033	1803.22	67.0007	1803.22	66.2534	1803.22	63.7347	1803.22	53.0719	1803.22	64.5367	1803.22	64.0272	1803.22	61.7882	1803.22	61.8654	1803.22	51.1554	1803.22	56.408	1803.22	60.2753
1866.21	93.9147	1866.21	93.2214	1866.21	93.9519	1866.21	91.5345	1866.21	93.0514	1866.21	89.6082	1866.21	91.253	1866.21	87.3464	1866.21	89.0236	1866.21	84.0262	1866.21	84.7629	1866.21	81.0024	1866.21	83.4085	1866.21	75.8557	1866.21	79.8862	1866.21	70.9808	1866.21	65.91	1866.21	65.4086	1866.21	72.5822	1866.21	60.539	1866.21	68.8554	1866.21	66.6285	1866.21	61.054	1866.21	65.3535	1866.21	65.3746	1866.21	60.7213	1866.21	65.143	1866.21	61.2223	1866.21	68.724	1866.21	59.914	1866.21	63.9923	1866.21	56.1333	1866.21	61.6887	1866.21	59.8796	1866.21	52.2785	1866.21	62.1585
1932.13	94.7422	1932.13	94.1056	1932.13	94.3035	1932.13	92.4288	1932.13	93.0263	1932.13	90.2178	1932.13	91.334	1932.13	87.494	1932.13	89.2559	1932.13	84.177	1932.13	86.5088	1932.13	81.305	1932.13	84.1442	1932.13	77.3657	1932.13	77.9395	1932.13	68.0439	1932.13	75.2361	1932.13	69.8716	1932.13	75.5147	1932.13	71.6439	1932.13	72.2112	1932.13	69.5421	1932.13	72.5954	1932.13	66.4006	1932.13	62.2895	1932.13	69.9713	1932.13	66.5318	1932.13	59.8913	1932.13	67.8512	1932.13	59.7233	1932.13	70.8431	1932.13	45.8442	1932.13	65.8877	1932.13	57.2344	1932.13	55.4749	1932.13	59.9339
1999.51	94.1823	1999.51	93.8497	1999.51	94.3274	1999.51	92.8574	1999.51	93.4793	1999.51	90.9778	1999.51	91.5983	1999.51	88.4502	1999.51	89.304	1999.51	85.7396	1999.51	86.3096	1999.51	83.0462	1999.51	83.7577	1999.51	79.3389	1999.51	77.2935	1999.51	76.5384	1999.51	76.8509	1999.51	68.9262	1999.51	73.6412	1999.51	62.4867	1999.51	66.2766	1999.51	68.2378	1999.51	73.7716	1999.51	72.4677	1999.51	73.5512	1999.51	71.4696	1999.51	63.08	1999.51	69.5381	1999.51	61.572	1999.51	61.1265	1999.51	61.0538	1999.51	61.6282	1999.51	64.1685	1999.51	65.4155	1999.51	61.6142	1999.51	64.8
2069.82	94.7732	2069.82	93.8059	2069.82	94.6634	2069.82	92.5184	2069.82	93.6227	2069.82	90.9209	2069.82	92.8272	2069.82	88.9788	2069.82	89.9824	2069.82	86.6864	2069.82	87.8082	2069.82	83.4588	2069.82	85.162	2069.82	79.4079	2069.82	78.5016	2069.82	76.6171	2069.82	80.9578	2069.82	66.6177	2069.82	76.2079	2069.82	73.9849	2069.82	77.5268	2069.82	70.9031	2069.82	73.6795	2069.82	61.9042	2069.82	67.3706	2069.82	67.675	2069.82	71.1142	2069.82	70.3809	2069.82	74.0556	2069.82	67.9049	2069.82	70.464	2069.82	66.353	2069.82	66.9904	2069.82	60.227	2069.82	67.713	2069.82	55.0422
2143.07	95.5307	2143.07	95.0989	2143.07	94.6852	2143.07	93.1855	2143.07	94.313	2143.07	91.7696	2143.07	93.3973	2143.07	89.9713	2143.07	91.189	2143.07	88.2554	2143.07	89.2018	2143.07	84.9912	2143.07	84.5462	2143.07	80.7125	2143.07	84.386	2143.07	79.7856	2143.07	81.0631	2143.07	78.0818	2143.07	75.6825	2143.07	73.7966	2143.07	71.8454	2143.07	64.2363	2143.07	77.1607	2143.07	75.2524	2143.07	76.8687	2143.07	71.6986	2143.07	67.8832	2143.07	67.4168	2143.07	76.8123	2143.07	65.2906	2143.07	75.7579	2143.07	67.3606	2143.07	73.2856	2143.07	60.213	2143.07	70.2664	2143.07	63.7655
2219.24	94.6643	2219.24	95.1169	2219.24	94.8317	2219.24	94.313	2219.24	94.4929	2219.24	92.6708	2219.24	92.7589	2219.24	90.3792	2219.24	91.7105	2219.24	88.8782	2219.24	89.686	2219.24	86.1124	2219.24	86.3873	2219.24	83.3963	2219.24	83.8661	2219.24	81.9214	2219.24	80.4856	2219.24	75.9143	2219.24	79.3373	2219.24	76.9114	2219.24	79.6221	2219.24	75.7749	2219.24	75.4872	2219.24	75.6186	2219.24	70.2177	2219.24	74.0185	2219.24	72.4164	2219.24	74.4828	2219.24	67.9433	2219.24	74.6626	2219.24	72.9157	2219.24	72.0964	2219.24	70.9191	2219.24	62.9603	2219.24	70.6524	2219.24	66.9605
2296.88	93.4841	2296.88	93.775	2296.88	93.7706	2296.88	93.7851	2296.88	93.987	2296.88	92.8357	2296.88	93.1103	2296.88	90.773	2296.88	91.6086	2296.88	88.495	2296.88	89.3157	2296.88	85.8943	2296.88	87.4576	2296.88	84.1972	2296.88	82.9081	2296.88	83.2563	2296.88	82.0696	2296.88	79.1406	2296.88	80.0375	2296.88	76.5963	2296.88	72.8595	2296.88	73.0488	2296.88	77.2393	2296.88	76.1931	2296.88	76.7623	2296.88	72.5475	2296.88	72.5666	2296.88	73.5882	2296.88	71.9949	2296.88	71.003	2296.88	73.1473	2296.88	69.2514	2296.88	71.3325	2296.88	66.869	2296.88	68.3877	2296.88	66.3213
2378.91	94.2608	2378.91	94.3276	2378.91	94.156	2378.91	93.2139	2378.91	93.7142	2378.91	92.2791	2378.91	93.0721	2378.91	90.5994	2378.91	91.489	2378.91	88.1557	2378.91	89.018	2378.91	86.4137	2378.91	86.4463	2378.91	84.348	2378.91	84.0621	2378.91	82.9493	2378.91	83.7971	2378.91	79.9026	2378.91	79.421	2378.91	78.0301	2378.91	80.8159	2378.91	71.6739	2378.91	77.7184	2378.91	74.8111	2378.91	72.5651	2378.91	75.0392	2378.91	72.8453	2378.91	70.5469	2378.91	70.7606	2378.91	70.4815	2378.91	72.7748	2378.91	70.5266	2378.91	69.9417	2378.91	67.7856	2378.91	70.6025	2378.91	62.7144
2462.4	94.0296	2462.4	94.279	2462.4	93.9493	2462.4	93.5713	2462.4	93.5041	2462.4	91.3007	2462.4	92.7147	2462.4	89.9586	2462.4	91.1116	2462.4	88.7116	2462.4	89.1034	2462.4	86.8871	2462.4	87.449	2462.4	85.5533	2462.4	85.6839	2462.4	81.9476	2462.4	81.6308	2462.4	76.0966	2462.4	81.453	2462.4	73.6904	2462.4	76.1039	2462.4	77.1948	2462.4	71.5466	2462.4	65.8895	2462.4	76.941	2462.4	76.0344	2462.4	72.6966	2462.4	73.2399	2462.4	72.3617	2462.4	70.5128	2462.4	73.8609	2462.4	69.0185	2462.4	70.1998	2462.4	67.3069	2462.4	70.5284	2462.4	61.5848
2548.83	92.4823	2548.83	92.7519	2548.83	92.8721	2548.83	93.1222	2548.83	93.1718	2548.83	92.141	2548.83	91.9843	2548.83	89.8293	2548.83	90.4238	2548.83	88.6418	2548.83	89.5696	2548.83	86.7946	2548.83	87.1058	2548.83	85.1644	2548.83	84.9054	2548.83	83.4701	2548.83	83.2732	2548.83	79.187	2548.83	77.4324	2548.83	65.3967	2548.83	79.6546	2548.83	74.2358	2548.83	78.9783	2548.83	74.3491	2548.83	75.1125	2548.83	72.6552	2548.83	73.8927	2548.83	69.6406	2548.83	72.4771	2548.83	68.7685	2548.83	72.8329	2548.83	70.2736	2548.83	70.9774	2548.83	63.0666	2548.83	71.7233	2548.83	60.8977
2639.65	93.1067	2639.65	93.3081	2639.65	93.3145	2639.65	92.5377	2639.65	92.8805	2639.65	91.9244	2639.65	92.275	2639.65	90.1426	2639.65	90.885	2639.65	88.5124	2639.65	89.8197	2639.65	86.2871	2639.65	87.2191	2639.65	85.4191	2639.65	85.4381	2639.65	81.1377	2639.65	80.4236	2639.65	75.4856	2639.65	82.5154	2639.65	66.2846	2639.65	77.6334	2639.65	68.4116	2639.65	74.976	2639.65	69.1349	2639.65	73.221	2639.65	75.3333	2639.65	73.1363	2639.65	68.0373	2639.65	71.7294	2639.65	67.4095	2639.65	71.6474	2639.65	69.5015	2639.65	70.2309	2639.65	67.1779	2639.65	70.0165	2639.65	56.1516
2731.93	93.0134	2731.93	93.1765	2731.93	93.1766	2731.93	92.7315	2731.93	92.6556	2731.93	90.9787	2731.93	91.6889	2731.93	89.9304	2731.93	90.5285	2731.93	87.7312	2731.93	88.7442	2731.93	85.3368	2731.93	86.8437	2731.93	84.5672	2731.93	83.9587	2731.93	81.6376	2731.93	82.8641	2731.93	77.693	2731.93	76.6609	2731.93	77.1078	2731.93	75.5164	2731.93	70.2937	2731.93	75.1236	2731.93	70.7908	2731.93	72.4663	2731.93	70.79	2731.93	73.6237	2731.93	66.6662	2731.93	68.6365	2731.93	65.2455	2731.93	71.5553	2731.93	69.5408	2731.93	70.3895	2731.93	65.5033	2731.93	70.7718	2731.93	50.4474
2828.61	93.1546	2828.61	92.3354	2828.61	93.0028	2828.61	91.9906	2828.61	93.1207	2828.61	91.0462	2828.61	91.3493	2828.61	90.1079	2828.61	89.8949	2828.61	87.8019	2828.61	88.304	2828.61	85.3121	2828.61	87.2859	2828.61	82.7929	2828.61	83.3386	2828.61	82.0891	2828.61	83.0021	2828.61	79.076	2828.61	79.8458	2828.61	78.3541	2828.61	76.8881	2828.61	62.5298	2828.61	74.819	2828.61	73.131	2828.61	74.0204	2828.61	72.1429	2828.61	71.1712	2828.61	69.4772	2828.61	72.5804	2828.61	70.4074	2828.61	71.8934	2828.61	70.443	2828.61	70.4718	2828.61	64.7357	2828.61	70.3414	2828.61	63.2884
2928.22	93.0668	2928.22	92.848	2928.22	92.6746	2928.22	92.1487	2928.22	92.4054	2928.22	91.049	2928.22	91.6195	2928.22	90.4175	2928.22	90.2352	2928.22	88.1715	2928.22	89.5684	2928.22	85.63	2928.22	86.3907	2928.22	83.3438	2928.22	85.5767	2928.22	79.761	2928.22	78.6287	2928.22	78.301	2928.22	77.4877	2928.22	77.7893	2928.22	76.6064	2928.22	75.4051	2928.22	76.4604	2928.22	67.497	2928.22	70.7459	2928.22	64.9107	2928.22	73.6987	2928.22	62.6699	2928.22	69.8332	2928.22	63.1847	2928.22	69.7913	2928.22	64.3474	2928.22	70.8878	2928.22	64.7505	2928.22	67.4889	2928.22	50.4421
3030.76	93.9644	3030.76	92.7183	3030.76	93.9291	3030.76	91.2354	3030.76	92.397	3030.76	91.075	3030.76	90.7477	3030.76	90.9092	3030.76	90.4777	3030.76	88.2364	3030.76	88.9581	3030.76	86.7543	3030.76	87.6419	3030.76	81.9026	3030.76	83.5184	3030.76	76.5538	3030.76	82.6611	3030.76	81.4001	3030.76	80.0804	3030.76	79.5176	3030.76	78.5281	3030.76	71.5811	3030.76	73.4784	3030.76	72.2727	3030.76	73.5161	3030.76	67.2023	3030.76	70.8348	3030.76	67.1555	3030.76	70.9388	3030.76	64.3122	3030.76	69.8627	3030.76	64.4177	3030.76	70.7195	3030.76	59.6343	3030.76	67.5265	3030.76	62.009
3137.7	94.1289	3137.7	93.6215	3137.7	94.0341	3137.7	91.8844	3137.7	93.3893	3137.7	91.1995	3137.7	91.7989	3137.7	91.2577	3137.7	90.4682	3137.7	88.9672	3137.7	89.97	3137.7	86.8569	3137.7	86.6298	3137.7	82.4788	3137.7	83.8809	3137.7	80.0936	3137.7	80.5595	3137.7	81.5914	3137.7	79.6804	3137.7	80.4098	3137.7	74.5651	3137.7	70.4349	3137.7	73.6502	3137.7	68.8083	3137.7	72.9167	3137.7	65.0171	3137.7	73.2736	3137.7	64.1389	3137.7	68.9229	3137.7	58.1426	3137.7	71.7729	3137.7	56.3816	3137.7	71.8772	3137.7	46.8739	3137.7	68.1231	3137.7	56.7732
3249.02	94.6232	3249.02	93.4605	3249.02	93.9675	3249.02	91.6715	3249.02	92.5941	3249.02	91.8555	3249.02	92.0417	3249.02	90.8733	3249.02	91.4049	3249.02	89.4397	3249.02	89.3309	3249.02	86.0383	3249.02	86.7871	3249.02	79.6587	3249.02	84.2712	3249.02	74.7851	3249.02	80.9103	3249.02	79.7141	3249.02	76.0966	3249.02	76.7915	3249.02	74.3262	3249.02	69.4488	3249.02	75.7135	3249.02	70.5963	3249.02	71.1119	3249.02	67.7423	3249.02	71.473	3249.02	67.426	3249.02	70.0098	3249.02	66.8323	3249.02	70.3194	3249.02	66.1842	3249.02	70.2399	3249.02	61.0238	3249.02	65.3086	3249.02	53.536
3363.28	94.6457	3363.28	93.404	3363.28	94.4604	3363.28	92.1197	3363.28	93.2427	3363.28	91.8889	3363.28	91.4977	3363.28	90.5342	3363.28	90.5916	3363.28	89.3581	3363.28	89.203	3363.28	84.5948	3363.28	86.2839	3363.28	73.5668	3363.28	83.1042	3363.28	76.6504	3363.28	80.1954	3363.28	78.679	3363.28	77.7626	3363.28	75.2199	3363.28	77.6058	3363.28	65.6795	3363.28	74.2472	3363.28	69.0094	3363.28	72.52	3363.28	67.4405	3363.28	69.372	3363.28	69.5492	3363.28	68.8023	3363.28	63.6372	3363.28	69.543	3363.28	58.8411	3363.28	70.5211	3363.28	57.419	3363.28	68.0138	3363.28	62.6622
3481.93	95.3799	3481.93	94.1905	3481.93	94.385	3481.93	92.1176	3481.93	93.1457	3481.93	91.6441	3481.93	92.4695	3481.93	90.4914	3481.93	90.6248	3481.93	89.0705	3481.93	89.1044	3481.93	82.9414	3481.93	85.923	3481.93	80.1131	3481.93	81.993	3481.93	79.8521	3481.93	80.2812	3481.93	74.7376	3481.93	78.394	3481.93	65.8001	3481.93	76.4837	3481.93	68.7926	3481.93	71.6927	3481.93	54.612	3481.93	72.0842	3481.93	67.5132	3481.93	70.6112	3481.93	65.2061	3481.93	67.9205	3481.93	66.0931	3481.93	70.4449	3481.93	64.2329	3481.93	70.5297	3481.93	55.5376	3481.93	63.5768	3481.93	48.2276
3604.98	94.8162	3604.98	93.7662	3604.98	94.5922	3604.98	92.7517	3604.98	93.5816	3604.98	91.2874	3604.98	91.4517	3604.98	89.8906	3604.98	90.2967	3604.98	88.8275	3604.98	88.1092	3604.98	79.8431	3604.98	84.7745	3604.98	82.2441	3604.98	82.5766	3604.98	80.44	3604.98	78.1798	3604.98	75.9437	3604.98	76.6607	3604.98	74.0501	3604.98	72.4939	3604.98	66.3261	3604.98	72	3604.98	64.7397	3604.98	68.2826	3604.98	60.4098	3604.98	69.1349	3604.98	66.9618	3604.98	67.9303	3604.98	58.6009	3604.98	68.485	3604.98	63.5183	3604.98	68.0531	3604.98	59.9361	3604.98	64.5659	3604.98	60.6618
3732.42	95.4689	3732.42	94.3046	3732.42	94.762	3732.42	92.2219	3732.42	93.5125	3732.42	91.0657	3732.42	92.0096	3732.42	89.7098	3732.42	89.8063	3732.42	87.807	3732.42	87.8164	3732.42	80.0614	3732.42	84.6702	3732.42	83.9959	3732.42	81.6447	3732.42	80.6022	3732.42	79.1286	3732.42	74.4731	3732.42	75.6665	3732.42	72.706	3732.42	74.2603	3732.42	70.644	3732.42	70.847	3732.42	67.9817	3732.42	71.4029	3732.42	62.1039	3732.42	68.116	3732.42	60.4174	3732.42	66.5211	3732.42	60.4076	3732.42	68.6103	3732.42	62.848	3732.42	70.608	3732.42	50.7668	3732.42	66.6688	3732.42	53.9774
3864.26	96.2651	3864.26	95.7128	3864.26	96.5077	3864.26	94.1459	3864.26	94.6027	3864.26	91.8338	3864.26	92.663	3864.26	91.8172	3864.26	91.0347	3864.26	87.6115	3864.26	88.3702	3864.26	85.2418	3864.26	85.8187	3864.26	85.8391	3864.26	82.9645	3864.26	82.0063	3864.26	80.7568	3864.26	76.3148	3864.26	76.8559	3864.26	75.5926	3864.26	75.1214	3864.26	67.7867	3864.26	73.5481	3864.26	62.0233	3864.26	68.8153	3864.26	69.8376	3864.26	68.6985	3864.26	65.6711	3864.26	69.5953	3864.26	63.8737	3864.26	69.9477	3864.26	65.9224	3864.26	66.4751	3864.26	40.6357	3864.26	60.3827	3864.26	57.2893
4000.49	97.3681	4000.49	96.35	4000.49	96.9519	4000.49	94.446	4000.49	95.4482	4000.49	92.8268	4000.49	93.9585	4000.49	92.509	4000.49	91.0755	4000.49	86.2084	4000.49	88.8796	4000.49	87.9482	4000.49	86.7257	4000.49	84.6535	4000.49	83.8764	4000.49	80.4821	4000.49	81.1205	4000.49	75.6936	4000.49	76.7239	4000.49	75.9741	4000.49	76.2308	4000.49	75.0802	4000.49	70.8226	4000.49	70.4465	4000.49	72.8659	4000.49	68.4671	4000.49	70.6644	4000.49	58.7889	4000.49	68.438	4000.49	66.2674	4000.49	67.987	4000.49	65.3041	4000.49	68.1761	4000.49	53.8935	4000.49	65.7553	4000.49	54.5029
4141.11	97.6952	4141.11	96.4001	4141.11	97.7084	4141.11	94.8933	4141.11	95.8283	4141.11	92.8539	4141.11	93.3975	4141.11	92.6827	4141.11	91.0468	4141.11	85.0739	4141.11	88.952	4141.11	87.4482	4141.11	86.6512	4141.11	82.4225	4141.11	83.2166	4141.11	78.6355	4141.11	80.1122	4141.11	74.0823	4141.11	77.5185	4141.11	79.0767	4141.11	73.9095	4141.11	77.2355	4141.11	72.7844	4141.11	62.3832	4141.11	68.8993	4141.11	61.261	4141.11	68.7897	4141.11	62.2664	4141.11	70.7321	4141.11	65.684	4141.11	68.2303	4141.11	66.2196	4141.11	67.1073	4141.11	56.324	4141.11	66.9122	4141.11	63.1882
4287.6	98.1975	4287.6	96.8025	4287.6	97.4479	4287.6	95.4019	4287.6	96.2056	4287.6	93.7215	4287.6	94.2307	4287.6	92.4117	4287.6	91.1062	4287.6	84.8436	4287.6	89.7934	4287.6	86.627	4287.6	86.8649	4287.6	81.9153	4287.6	83.4361	4287.6	75.8925	4287.6	78.9549	4287.6	76.1908	4287.6	78.036	4287.6	79.5604	4287.6	73.2281	4287.6	73.4196	4287.6	71.0226	4287.6	67.2438	4287.6	71.8203	4287.6	47.3446	4287.6	67.2534	4287.6	68.6099	4287.6	66.1377	4287.6	66.6472	4287.6	69.4411	4287.6	56.1963	4287.6	70.9487	4287.6	54.1056	4287.6	62.811	4287.6	49.4677
4438.48	98.6562	4438.48	96.8607	4438.48	98.0815	4438.48	95.4031	4438.48	97.1406	4438.48	94.5449	4438.48	93.4596	4438.48	91.2142	4438.48	91.6604	4438.48	87.3031	4438.48	90.0294	4438.48	86.2542	4438.48	86.9479	4438.48	79.995	4438.48	83.7494	4438.48	68.295	4438.48	80.0673	4438.48	77.8998	4438.48	77.3567	4438.48	78.4586	4438.48	74.9813	4438.48	56.8211	4438.48	73.0753	4438.48	65.4622	4438.48	70.2125	4438.48	65.903	4438.48	69.5308	4438.48	68.6206	4438.48	70.9467	4438.48	63.6486	4438.48	68.9327	4438.48	53.8727	4438.48	66.8288	4438.48	52.6793	4438.48	63.5403	4438.48	61.7595
4595.21	98.4899	4595.21	97.6813	4595.21	98.195	4595.21	95.5547	4595.21	96.5411	4595.21	94.1873	4595.21	94.0849	4595.21	90.0343	4595.21	91.825	4595.21	88.5017	4595.21	90.4814	4595.21	86.2191	4595.21	86.4149	4595.21	77.2869	4595.21	83.5856	4595.21	78.7156	4595.21	80.1582	4595.21	79.0948	4595.21	78.3569	4595.21	68.1548	4595.21	74.5804	4595.21	71.4969	4595.21	73.1492	4595.21	69.3256	4595.21	70.5543	4595.21	60.422	4595.21	68.2533	4595.21	67.4907	4595.21	66.9352	4595.21	56.0647	4595.21	70.8756	4595.21	59.8824	4595.21	71.8751	4595.21	56.5275	4595.21	62.0165	4595.21	44.3264
4756.35	98.6358	4756.35	97.8924	4756.35	98.2513	4756.35	95.4935	4756.35	97.1911	4756.35	94.1654	4756.35	94.5472	4756.35	88.5535	4756.35	91.8517	4756.35	89.396	4756.35	90.3617	4756.35	85.0204	4756.35	87.0296	4756.35	81.0846	4756.35	83.8701	4756.35	80.598	4756.35	81.6268	4756.35	75.5236	4756.35	77.6694	4756.35	71.5998	4756.35	76.302	4756.35	77.8991	4756.35	73.6926	4756.35	73.0967	4756.35	71.8503	4756.35	61.549	4756.35	69.563	4756.35	66.5774	4756.35	70.178	4756.35	55.022	4756.35	70.5444	4756.35	50.2179	4756.35	70.9749	4756.35	59.8129	4756.35	67.7092	4756.35	59.3372
4924.8	98.3436	4924.8	98.148	4924.8	98.5511	4924.8	95.3733	4924.8	97.1386	4924.8	92.7168	4924.8	94.1912	4924.8	89.374	4924.8	92.4904	4924.8	89.4683	4924.8	90.3627	4924.8	86.2464	4924.8	87.1801	4924.8	83.697	4924.8	84.4054	4924.8	82.2669	4924.8	81.3916	4924.8	73.0894	4924.8	78.231	4924.8	77.2331	4924.8	75.0602	4924.8	76.5055	4924.8	73.2715	4924.8	70.4386	4924.8	71.1374	4924.8	57.8503	4924.8	69.6145	4924.8	62.9597	4924.8	70.1774	4924.8	57.9773	4924.8	68.2327	4924.8	57.0799	4924.8	73.6523	4924.8	48.9649	4924.8	65.617	4924.8	61.6592
5097.66	98.5843	5097.66	97.9883	5097.66	98.1684	5097.66	95.2818	5097.66	97.2703	5097.66	92.733	5097.66	94.4764	5097.66	90.3613	5097.66	92.2027	5097.66	90.63	5097.66	90.4038	5097.66	86.2926	5097.66	87.7103	5097.66	84.1728	5097.66	85.4115	5097.66	82.3082	5097.66	81.7119	5097.66	74.5731	5097.66	77.3479	5097.66	73.5987	5097.66	75.0327	5097.66	71.2095	5097.66	72.5121	5097.66	68.5015	5097.66	71.2368	5097.66	61.0261	5097.66	69.2045	5097.66	59.8042	5097.66	68.6247	5097.66	59.3616	5097.66	68.6706	5097.66	61.0658	5097.66	71.3029	5097.66	54.9166	5097.66	56.4066	5097.66	60.1503
5277.83	98.1869	5277.83	98.0947	5277.83	98.2689	5277.83	95.5926	5277.83	97.4501	5277.83	93.0211	5277.83	94.5753	5277.83	91.2983	5277.83	92.8324	5277.83	91.1423	5277.83	90.1	5277.83	85.5369	5277.83	87.9199	5277.83	84.4381	5277.83	84.5323	5277.83	79.7667	5277.83	80.5971	5277.83	75.9079	5277.83	76.9711	5277.83	73.355	5277.83	73.3378	5277.83	44.4473	5277.83	70.4218	5277.83	67.3682	5277.83	68.4294	5277.83	57.0508	5277.83	69.3116	5277.83	58.3056	5277.83	69.6884	5277.83	48.1572	5277.83	69.1546	5277.83	59.8362	5277.83	69.0152	5277.83	45.7255	5277.83	62.529	5277.83	61.1888
5463.87	98.1908	5463.87	97.4337	5463.87	98.3357	5463.87	95.4875	5463.87	96.9972	5463.87	92.8659	5463.87	94.7525	5463.87	91.8217	5463.87	92.1938	5463.87	91.0646	5463.87	90.222	5463.87	84.2899	5463.87	87.2768	5463.87	81.9587	5463.87	83.234	5463.87	78.6129	5463.87	79.0446	5463.87	76.5991	5463.87	76.2387	5463.87	73.9546	5463.87	73.7244	5463.87	68.315	5463.87	71.1015	5463.87	58.3811	5463.87	69.7883	5463.87	60.7779	5463.87	64.1944	5463.87	61.6571	5463.87	66.8339	5463.87	57.3696	5463.87	68.5228	5463.87	62.9864	5463.87	69.1339	5463.87	49.2351	5463.87	62.9687	5463.87	62.2108
5657.23	97.756	5657.23	97.3253	5657.23	97.3584	5657.23	95.1816	5657.23	96.4138	5657.23	92.1417	5657.23	94.0749	5657.23	92.1062	5657.23	91.6794	5657.23	89.6411	5657.23	89.354	5657.23	85.0407	5657.23	86.0311	5657.23	79.5078	5657.23	82.5942	5657.23	75.5056	5657.23	78.4504	5657.23	71.4779	5657.23	75.139	5657.23	76.6097	5657.23	72.258	5657.23	67.5024	5657.23	68.3663	5657.23	62.6394	5657.23	68.6459	5657.23	52.4804	5657.23	69.199	5657.23	38.7766	5657.23	67.3735	5657.23	59.0685	5657.23	64.5682	5657.23	62.4429	5657.23	65.0171	5657.23	51.7593	5657.23	62.283	5657.23	58.2424
5856.45	97.9234	5856.45	97.3491	5856.45	97.0634	5856.45	94.8114	5856.45	96.3026	5856.45	92.3121	5856.45	93.9492	5856.45	92.4347	5856.45	91.1984	5856.45	88.1091	5856.45	88.9729	5856.45	84.149	5856.45	85.5337	5856.45	80.769	5856.45	81.9072	5856.45	76.7408	5856.45	77.6585	5856.45	71.0872	5856.45	75.59	5856.45	73.7273	5856.45	71.9575	5856.45	68.9524	5856.45	70.4228	5856.45	59.2191	5856.45	62.8671	5856.45	55.4714	5856.45	66.8857	5856.45	49.5448	5856.45	67.3371	5856.45	55.2429	5856.45	64.9224	5856.45	60.2331	5856.45	67.8472	5856.45	36.3319	5856.45	52.3172	5856.45	57.0341
6062.99	97.3153	6062.99	96.6981	6062.99	97.1381	6062.99	94.9183	6062.99	96.2933	6062.99	92.4821	6062.99	94.1585	6062.99	92.531	6062.99	91.0052	6062.99	86.3728	6062.99	89.2604	6062.99	84.0079	6062.99	85.4274	6062.99	80.7446	6062.99	81.3333	6062.99	73.7696	6062.99	78.4467	6062.99	73.7487	6062.99	74.823	6062.99	75.1691	6062.99	72.4999	6062.99	71.4439	6062.99	67.6299	6062.99	63.1475	6062.99	68.8717	6062.99	51.0992	6062.99	67.8717	6062.99	56.1576	6062.99	67.6407	6062.99	56.5898	6062.99	63.8579	6062.99	63.8624	6062.99	69.9937	6062.99	56.5433	6062.99	49.8127	6062.99	61.5285
6276.86	97.592	6276.86	96.797	6276.86	97.6619	6276.86	95.1254	6276.86	96.3837	6276.86	93.3275	6276.86	94.4031	6276.86	92.2944	6276.86	91.4952	6276.86	84.9514	6276.86	88.6408	6276.86	83.8008	6276.86	85.0814	6276.86	80.756	6276.86	82.5767	6276.86	74.2385	6276.86	77.8472	6276.86	72.4071	6276.86	76.3895	6276.86	73.4622	6276.86	70.5354	6276.86	70.9612	6276.86	68.9295	6276.86	61.654	6276.86	67.419	6276.86	54.4765	6276.86	67.373	6276.86	55.4182	6276.86	67.4823	6276.86	52.996	6276.86	61.4819	6276.86	62.4323	6276.86	68.3614	6276.86	55.0735	6276.86	51.6127	6276.86	57.8258
6498.05	98.2784	6498.05	96.9041	6498.05	97.5766	6498.05	95.8445	6498.05	96.6423	6498.05	93.9361	6498.05	94.4079	6498.05	91.7207	6498.05	91.3162	6498.05	86.2037	6498.05	88.4753	6498.05	82.8878	6498.05	85.0133	6498.05	79.4315	6498.05	82.1371	6498.05	77.6312	6498.05	77.9132	6498.05	73.0081	6498.05	73.2319	6498.05	75.2643	6498.05	70.7363	6498.05	69.3858	6498.05	68.9097	6498.05	63.0383	6498.05	66.2645	6498.05	58.4087	6498.05	65.4642	6498.05	61.5152	6498.05	65.1127	6498.05	60.8507	6498.05	60.5191	6498.05	60.5848	6498.05	63.4384	6498.05	49.2752	6498.05	59.3526	6498.05	49.03
6726.56	98.3743	6726.56	97.2978	6726.56	97.4781	6726.56	96.695	6726.56	97.1229	6726.56	94.2142	6726.56	94.4023	6726.56	90.4236	6726.56	91.435	6726.56	87.4559	6726.56	88.6024	6726.56	84.0577	6726.56	85.2851	6726.56	78.8281	6726.56	81.6333	6726.56	78.4009	6726.56	77.2125	6726.56	70.9911	6726.56	73.6267	6726.56	77.3758	6726.56	69.4777	6726.56	72.3409	6726.56	67.7367	6726.56	66.1886	6726.56	67.8068	6726.56	61.2784	6726.56	65.7171	6726.56	63.3773	6726.56	65.007	6726.56	64.9663	6726.56	61.7092	6726.56	63.7415	6726.56	61.0901	6726.56	57.6502	6726.56	52.5976	6726.56	52.2652
6963.87	98.5199	6963.87	97.8276	6963.87	98.0153	6963.87	96.8478	6963.87	97.352	6963.87	94.4503	6963.87	94.8567	6963.87	90.5809	6963.87	91.5683	6963.87	87.909	6963.87	88.9416	6963.87	85.3424	6963.87	85.9625	6963.87	80.7411	6963.87	82.2145	6963.87	78.5975	6963.87	77.6673	6963.87	68.1929	6963.87	74.8031	6963.87	77.3071	6963.87	70.7196	6963.87	74.9174	6963.87	66.6715	6963.87	67.9607	6963.87	63.8321	6963.87	54.5962	6963.87	64.7068	6963.87	62.127	6963.87	64.8123	6963.87	62.7395	6963.87	62.0469	6963.87	57.7369	6963.87	66.0655	6963.87	48.6834	6963.87	57.4852	6963.87	58.6937
7209.96	99.4261	7209.96	98.143	7209.96	98.7335	7209.96	96.4533	7209.96	97.9561	7209.96	94.8062	7209.96	95.3212	7209.96	90.963	7209.96	92.3249	7209.96	88.2556	7209.96	89.4501	7209.96	86.2661	7209.96	86.6879	7209.96	81.7291	7209.96	82.882	7209.96	76.2505	7209.96	78.7619	7209.96	67.278	7209.96	75.1517	7209.96	76.6143	7209.96	71.4123	7209.96	77.5882	7209.96	69.2686	7209.96	67.7438	7209.96	67.9746	7209.96	45.821	7209.96	66.8503	7209.96	59.6757	7209.96	64.8337	7209.96	58.888	7209.96	61.884	7209.96	62.4166	7209.96	68.023	7209.96	49.0936	7209.96	60.258	7209.96	52.3067
7464.84	99.5857	7464.84	98.174	7464.84	98.7975	7464.84	96.1584	7464.84	97.9281	7464.84	95.1039	7464.84	95.4668	7464.84	91.5964	7464.84	92.5562	7464.84	88.9276	7464.84	90.0307	7464.84	85.6962	7464.84	86.4363	7464.84	81.1391	7464.84	82.8524	7464.84	73.8823	7464.84	78.7192	7464.84	69.9847	7464.84	73.5809	7464.84	77.2718	7464.84	70.461	7464.84	79.336	7464.84	69.8641	7464.84	64.8556	7464.84	67.0768	7464.84	45.788	7464.84	65.2005	7464.84	58.9682	7464.84	65.2953	7464.84	52.204	7464.84	62.6809	7464.84	62.6253	7464.84	68.7232	7464.84	61.1966	7464.84	62.0645	7464.84	61.8786
7727.05	98.6288	7727.05	97.5881	7727.05	98.123	7727.05	95.8954	7727.05	97.0153	7727.05	94.4158	7727.05	95.1399	7727.05	90.5514	7727.05	91.974	7727.05	89.136	7727.05	88.7607	7727.05	82.5791	7727.05	85.2228	7727.05	79.2392	7727.05	81.1279	7727.05	74.1411	7727.05	76.1018	7727.05	66.0278	7727.05	73.7966	7727.05	76.787	7727.05	70.3709	7727.05	77.4585	7727.05	67.4465	7727.05	65.103	7727.05	65.7528	7727.05	48.2814	7727.05	64.3122	7727.05	58.7761	7727.05	63.3934	7727.05	52.1318	7727.05	59.4415	7727.05	59.9142	7727.05	66.14	7727.05	59.5941	7727.05	61.4919	7727.05	58.334
7999.51	98.8064	7999.51	98.2243	7999.51	98.4216	7999.51	96.4787	7999.51	97.1695	7999.51	94.4191	7999.51	95.4535	7999.51	90.4168	7999.51	92.4725	7999.51	89.9506	7999.51	88.6704	7999.51	80.1728	7999.51	84.8901	7999.51	78.1883	7999.51	80.3972	7999.51	76.5534	7999.51	76.4912	7999.51	65.2466	7999.51	72.4324	7999.51	76.5535	7999.51	69.503	7999.51	78.5192	7999.51	67.0708	7999.51	65.9436	7999.51	64.6265	7999.51	55.405	7999.51	63.429	7999.51	54.3376	7999.51	64.3256	7999.51	59.6163	7999.51	59.0546	7999.51	57.9655	7999.51	62.7923	7999.51	57.2303	7999.51	56.3701	7999.51	60.4719
8282.23	98.9106	8282.23	98.5307	8282.23	98.7325	8282.23	96.9725	8282.23	97.4559	8282.23	94.62	8282.23	95.7714	8282.23	90.9077	8282.23	92.7267	8282.23	89.8037	8282.23	88.2542	8282.23	81.0136	8282.23	84.8162	8282.23	76.7226	8282.23	80.1164	8282.23	77.6009	8282.23	76.1057	8282.23	65.6445	8282.23	71.8958	8282.23	77.2432	8282.23	69.4277	8282.23	80.1184	8282.23	65.4338	8282.23	67.7974	8282.23	63.2471	8282.23	58.427	8282.23	59.5487	8282.23	59.9052	8282.23	60.1001	8282.23	62.5169	8282.23	48.4629	8282.23	58.1812	8282.23	55.1703	8282.23	58.0422	8282.23	57.6765	8282.23	58.7051
8573.73	98.3487	8573.73	97.708	8573.73	98.2684	8573.73	96.473	8573.73	97.1194	8573.73	94.3039	8573.73	95.2627	8573.73	91.729	8573.73	92.3416	8573.73	87.0261	8573.73	87.6298	8573.73	84.5402	8573.73	84.3211	8573.73	77.8314	8573.73	80.1712	8573.73	76.7391	8573.73	75.123	8573.73	70.4552	8573.73	71.4944	8573.73	75.852	8573.73	68.7693	8573.73	81.1894	8573.73	63.4051	8573.73	68.9071	8573.73	61.8772	8573.73	58.3186	8573.73	59.7673	8573.73	56.1828	8573.73	57.3096	8573.73	61.2842	8573.73	46.8135	8573.73	57.5568	8573.73	56.6359	8573.73	52.3812	8573.73	55.1713	8573.73	54.4866
8876.95	97.9797	8876.95	97.7528	8876.95	97.6281	8876.95	96.2796	8876.95	97.1089	8876.95	94.0089	8876.95	95.0376	8876.95	92.3599	8876.95	92.4254	8876.95	84.1665	8876.95	87.9325	8876.95	85.7784	8876.95	84.0682	8876.95	80.3731	8876.95	80.3015	8876.95	72.0756	8876.95	75.7266	8876.95	71.7156	8876.95	72.6418	8876.95	76.0249	8876.95	69.2875	8876.95	82.1707	8876.95	63.0156	8876.95	70.9792	8876.95	63.7171	8876.95	56.5269	8876.95	63.0975	8876.95	52.2706	8876.95	58.6489	8876.95	59.5532	8876.95	47.8081	8876.95	59.7155	8876.95	59.3213	8876.95	43.8461	8876.95	52.1849	8876.95	49.9686
9188.96	97.9454	9188.96	97.6177	9188.96	97.6083	9188.96	96.22	9188.96	97.4113	9188.96	93.7591	9188.96	95.1203	9188.96	92.7655	9188.96	92.6835	9188.96	85.6954	9188.96	88.3672	9188.96	84.4067	9188.96	84.5232	9188.96	79.9966	9188.96	79.9196	9188.96	70.895	9188.96	76.0099	9188.96	68.761	9188.96	70.6029	9188.96	75.1506	9188.96	66.463	9188.96	82.1236	9188.96	63.0629	9188.96	70.9204	9188.96	65.3204	9188.96	48.0901	9188.96	63.1327	9188.96	54.2659	9188.96	62.2163	9188.96	51.8699	9188.96	53.2544	9188.96	49.4053	9188.96	59.6869	9188.96	46.3914	9188.96	58.6668	9188.96	48.3421
9514.16	97.6322	9514.16	97.2074	9514.16	97.3537	9514.16	96.1313	9514.16	97.2247	9514.16	94.4869	9514.16	94.9852	9514.16	92.5843	9514.16	92.4838	9514.16	87.8214	9514.16	88.5706	9514.16	80.9583	9514.16	83.353	9514.16	78.3782	9514.16	78.6605	9514.16	72.5197	9514.16	72.6828	9514.16	67.2364	9514.16	67.677	9514.16	74.3349	9514.16	65.7867	9514.16	82.1472	9514.16	64.5262	9514.16	67.1629	9514.16	63.0922	9514.16	55.0837	9514.16	60.8364	9514.16	54.207	9514.16	61.1656	9514.16	44.3794	9514.16	54.6335	9514.16	55.4437	9514.16	61.0918	9514.16	56.7935	9514.16	61.7269	9514.16	59.1994
9849.61	97.5044	9849.61	97.4193	9849.61	97.0686	9849.61	96.3893	9849.61	97.0253	9849.61	95.1238	9849.61	94.9002	9849.61	91.0198	9849.61	92.3707	9849.61	88.6788	9849.61	88.216	9849.61	80.2727	9849.61	83.2633	9849.61	76.0948	9849.61	77.5074	9849.61	75.0393	9849.61	73.4149	9849.61	71.2973	9849.61	69.434	9849.61	74.7551	9849.61	67.0275	9849.61	81.8601	9849.61	65.3913	9849.61	67.7907	9849.61	62.0456	9849.61	60.2618	9849.61	59.8085	9849.61	50.0582	9849.61	60.9788	9849.61	55.7787	9849.61	57.8197	9849.61	61.2003	9849.61	60.897	9849.61	61.3972	9849.61	64.4205	9849.61	64.2284
10196.8	97.5491	10196.8	97.6419	10196.8	97.1977	10196.8	96.8449	10196.8	96.8666	10196.8	95.4642	10196.8	94.8354	10196.8	89.2662	10196.8	92.1564	10196.8	88.581	10196.8	87.5651	10196.8	81.5902	10196.8	83.7478	10196.8	76.0959	10196.8	77.3582	10196.8	76.7383	10196.8	75.3877	10196.8	72.1331	10196.8	71.1243	10196.8	74.9844	10196.8	67.4723	10196.8	81.6625	10196.8	64.6674	10196.8	68.3862	10196.8	60.8538	10196.8	59.6408	10196.8	56.6592	10196.8	54.135	10196.8	61.7673	10196.8	59.4012	10196.8	60.7599	10196.8	62.635	10196.8	63.7523	10196.8	61.7509	10196.8	62.6045	10196.8	64.8945
10555.7	96.9954	10555.7	97.7198	10555.7	97.0971	10555.7	97.0457	10555.7	96.754	10555.7	95.481	10555.7	94.6203	10555.7	89.5218	10555.7	92.0431	10555.7	87.6173	10555.7	87.2102	10555.7	82.5945	10555.7	82.7037	10555.7	78.7665	10555.7	78.5242	10555.7	72.1945	10555.7	73.7016	10555.7	71.6642	10555.7	67.4426	10555.7	74.7674	10555.7	63.1769	10555.7	82.2954	10555.7	57.5415	10555.7	68.4531	10555.7	53.3334	10555.7	57.9725	10555.7	44.3087	10555.7	51.5605	10555.7	57.4914	10555.7	56.7845	10555.7	57.5043	10555.7	61.5237	10555.7	59.9765	10555.7	59.7046	10555.7	59.9096	10555.7	62.1937
10927.7	96.8464	10927.7	97.0562	10927.7	96.6146	10927.7	96.4988	10927.7	96.2528	10927.7	94.6096	10927.7	94.0103	10927.7	90.3735	10927.7	91.5084	10927.7	84.914	10927.7	86.7634	10927.7	82.6577	10927.7	81.2935	10927.7	77.7017	10927.7	77.7819	10927.7	64.1101	10927.7	69.7506	10927.7	72.6758	10927.7	66.174	10927.7	72.9197	10927.7	59.6333	10927.7	81.6026	10927.7	53.9014	10927.7	68.3118	10927.7	52.8905	10927.7	52.2552	10927.7	53.5023	10927.7	52.0974	10927.7	51.3582	10927.7	52.2389	10927.7	49.3382	10927.7	59.3464	10927.7	54.819	10927.7	54.2863	10927.7	55.7818	10927.7	58.3775
11313	96.3966	11313	96.3655	11313	96.1659	11313	95.1339	11313	96.108	11313	93.0938	11313	93.8144	11313	90.6621	11313	91.1088	11313	83.6047	11313	86.8503	11313	81.8762	11313	83.0502	11313	75.1178	11313	75.4406	11313	70.5747	11313	72.3722	11313	68.3305	11313	68.2154	11313	71.5282	11313	61.6514	11313	80.4724	11313	58.6346	11313	65.6437	11313	58.1579	11313	59.4061	11313	54.7455	11313	53.39	11313	51.1115	11313	45.2808	11313	54.0769	11313	45.9176	11313	55.2972	11313	42.9914	11313	53.4634	11313	42.6865
11712.9	96.3386	11712.9	96.1047	11712.9	96.4774	11712.9	94.3038	11712.9	96.7706	11712.9	91.9532	11712.9	94.71	11712.9	90.1771	11712.9	91.8848	11712.9	84.4605	11712.9	87.1216	11712.9	78.0054	11712.9	83.5451	11712.9	72.9652	11712.9	76.911	11712.9	69.9187	11712.9	71.9079	11712.9	65.9285	11712.9	65.355	11712.9	70.9152	11712.9	58.439	11712.9	79.1003	11712.9	58.3189	11712.9	49.9438	11712.9	56.3454	11712.9	62.5751	11712.9	52.5113	11712.9	52.2611	11712.9	55.344	11712.9	49.9774	11712.9	58.4193	11712.9	53.8361	11712.9	57.2692	11712.9	54.076	11712.9	60.0359	11712.9	57.5242
12126	96.8017	12126	96.8324	12126	96.9691	12126	95.4822	12126	96.7464	12126	92.903	12126	94.5071	12126	90.0936	12126	91.9887	12126	85.3678	12126	86.8746	12126	76.3093	12126	81.6988	12126	73.5903	12126	76.3356	12126	68.1683	12126	68.3058	12126	66.992	12126	66.3527	12126	71.3685	12126	58.9609	12126	78.462	12126	59.7649	12126	59.6394	12126	53.5611	12126	61.986	12126	47.4386	12126	36.653	12126	53.8827	12126	48.2535	12126	57.6604	12126	51.5601	12126	57.3851	12126	50.9876	12126	57.0889	12126	56.4132
12553.7	96.1938	12553.7	95.8685	12553.7	96.8708	12553.7	94.0908	12553.7	97.0784	12553.7	92.242	12553.7	94.6964	12553.7	87.1706	12553.7	92.0914	12553.7	82.9426	12553.7	86.8975	12553.7	77.0705	12553.7	82.2146	12553.7	71.7187	12553.7	76.1399	12553.7	68.0029	12553.7	72.4843	12553.7	63.7705	12553.7	67.1509	12553.7	69.5568	12553.7	60.8034	12553.7	75.3651	12553.7	59.7308	12553.7	61.8124	12553.7	49.9534	12553.7	61.3078	12553.7	49.1966	12553.7	42.121	12553.7	52.1531	12553.7	48.1429	12553.7	51.1307	12553.7	47.178	12553.7	55.7409	12553.7	51.0945	12553.7	53.2495	12553.7	54.0515
12996.1	97.0014	12996.1	96.7276	12996.1	97.4807	12996.1	94.8128	12996.1	97.6826	12996.1	92.9728	12996.1	95.3468	12996.1	87.3256	12996.1	92.2342	12996.1	84.3999	12996.1	86.7256	12996.1	77.4103	12996.1	82.7178	12996.1	73.5725	12996.1	76.1911	12996.1	64.2001	12996.1	71.391	12996.1	64.2876	12996.1	66.3512	12996.1	70.14	12996.1	57.9902	12996.1	74.513	12996.1	56.193	12996.1	64.7805	12996.1	39.4162	12996.1	62.6615	12996.1	48.3686	12996.1	51.0457	12996.1	52.3262	12996.1	53.5903	12996.1	50.3369	12996.1	44.1697	12996.1	58.587	12996.1	55.1898	12996.1	55.1893	12996.1	43.4414
13454.6	97.1916	13454.6	96.2526	13454.6	97.3996	13454.6	94.5852	13454.6	97.5662	13454.6	91.3066	13454.6	95.2081	13454.6	86.2404	13454.6	92.0409	13454.6	81.9311	13454.6	86.329	13454.6	76.1168	13454.6	82.0088	13454.6	67.8754	13454.6	75.8253	13454.6	65.1717	13454.6	69.4928	13454.6	57.4398	13454.6	65.8186	13454.6	69.668	13454.6	58.634	13454.6	72.1372	13454.6	56.6133	13454.6	65.3613	13454.6	50.3562	13454.6	61.5592	13454.6	48.3172	13454.6	45.8161	13454.6	51.7028	13454.6	50.8133	13454.6	53.5244	13454.6	47.924	13454.6	58.1144	13454.6	55.3441	13454.6	53.129	13454.6	51.4104
13929.2	96.73	13929.2	95.9729	13929.2	96.5132	13929.2	93.7582	13929.2	96.2402	13929.2	90.5955	13929.2	93.4651	13929.2	85.3876	13929.2	90.3367	13929.2	78.6998	13929.2	84.176	13929.2	74.1049	13929.2	78.9261	13929.2	69.1617	13929.2	72.3417	13929.2	63.6133	13929.2	67.1009	13929.2	45.726	13929.2	63.7504	13929.2	67.5306	13929.2	56.379	13929.2	69.2654	13929.2	55.7839	13929.2	64.344	13929.2	51.4	13929.2	56.6652	13929.2	46.7837	13929.2	49.8704	13929.2	47.4386	13929.2	46.3253	13929.2	53.4375	13929.2	47.6247	13929.2	54.363	13929.2	51.8549	13929.2	52.8899	13929.2	31.5209
14419.9	96.4395	14419.9	95.7175	14419.9	96.1311	14419.9	93.2128	14419.9	95.6509	14419.9	90.7802	14419.9	92.7539	14419.9	85.0954	14419.9	89.5353	14419.9	78.9875	14419.9	83.2606	14419.9	71.8003	14419.9	77.8261	14419.9	69.8569	14419.9	71.5877	14419.9	64.259	14419.9	67.5986	14419.9	57.5879	14419.9	61.5971	14419.9	65.275	14419.9	56.4584	14419.9	68.6165	14419.9	55.8307	14419.9	63.1503	14419.9	52.1275	14419.9	56.1834	14419.9	46.9704	14419.9	50.5863	14419.9	46.0113	14419.9	38.8938	14419.9	46.9223	14419.9	47.3173	14419.9	52.1058	14419.9	45.634	14419.9	38.9966	14419.9	48.4137
14928.2	95.8033	14928.2	94.4933	14928.2	95.7655	14928.2	91.6263	14928.2	95.5302	14928.2	88.7761	14928.2	92.543	14928.2	82.6349	14928.2	89.2016	14928.2	77.4345	14928.2	82.9197	14928.2	72.1903	14928.2	78.1282	14928.2	62.9014	14928.2	71.9953	14928.2	61.2825	14928.2	65.8872	14928.2	52.6073	14928.2	58.9987	14928.2	62.1428	14928.2	57.1491	14928.2	69.1813	14928.2	52.9163	14928.2	61.2763	14928.2	49.8698	14928.2	57.0975	14928.2	44.2225	14928.2	50.0267	14928.2	42.6365	14928.2	46.9017	14928.2	45.2307	14928.2	55.2849	14928.2	47.5064	14928.2	50.0281	14928.2	43.4671	14928.2	55.6472
15455.6	95.2056	15455.6	94.5761	15455.6	94.5978	15455.6	91.9623	15455.6	94.4121	15455.6	88.594	15455.6	91.5501	15455.6	83.5797	15455.6	87.9647	15455.6	80.0574	15455.6	81.4341	15455.6	73.432	15455.6	77.1227	15455.6	67.4297	15455.6	69.5831	15455.6	59.4966	15455.6	64.1958	15455.6	57.6774	15455.6	56.7033	15455.6	61.2939	15455.6	55.1984	15455.6	69.048	15455.6	51.2882	15455.6	52.8995	15455.6	43.5933	15455.6	54.6512	15455.6	44.4649	15455.6	50.6407	15455.6	43.5124	15455.6	52.6103	15455.6	44.2296	15455.6	62.3069	15455.6	49.2639	15455.6	57.2062	15455.6	54.7078	15455.6	61.2527
16000.5	95.4186	16000.5	96.1194	16000.5	93.9516	16000.5	94.1038	16000.5	92.8062	16000.5	91.5252	16000.5	89.4688	16000.5	86.3641	16000.5	85.3464	16000.5	82.0318	16000.5	78.2657	16000.5	77.6691	16000.5	73.8973	16000.5	71.5401	16000.5	66.456	16000.5	62.9927	16000.5	61.9807	16000.5	61.3114	16000.5	56.132	16000.5	57.4803	16000.5	46.3642	16000.5	70.6034	16000.5	46.3451	16000.5	54.2951	16000.5	40.747	16000.5	53.4883	16000.5	49.0405	16000.5	51.9566	16000.5	39.7056	16000.5	54.2364	16000.5	51.1417	16000.5	64.8437	16000.5	54.5317	16000.5	60.8702	16000.5	61.5679	16000.5	63.6713
16564.5	95.3258	16564.5	95.7175	16564.5	93.8725	16564.5	93.5051	16564.5	91.8453	16564.5	91.3457	16564.5	87.2161	16564.5	84.9115	16564.5	82.1296	16564.5	79.4901	16564.5	73.5092	16564.5	74.8983	16564.5	68.1284	16564.5	69.4543	16564.5	61.0239	16564.5	60.145	16564.5	56.4882	16564.5	61.1249	16564.5	53.2367	16564.5	60.5688	16564.5	42.7378	16564.5	70.8641	16564.5	46.496	16564.5	60.4462	16564.5	46.6287	16564.5	48.5057	16564.5	51.9185	16564.5	46.5668	16564.5	48.9436	16564.5	50.3514	16564.5	48.1584	16564.5	62.3543	16564.5	55.8215	16564.5	59.9324	16564.5	60.9469	16564.5	63.1034
17148.9	96.0029	17148.9	95.9517	17148.9	94.7063	17148.9	93.288	17148.9	92.1355	17148.9	90.7492	17148.9	86.9812	17148.9	84.511	17148.9	81.3941	17148.9	78.8683	17148.9	72.6252	17148.9	72.4628	17148.9	67.5659	17148.9	67.4166	17148.9	59.6393	17148.9	57.5746	17148.9	55.9421	17148.9	61.1916	17148.9	52.3659	17148.9	59.7105	17148.9	43.88	17148.9	72.1761	17148.9	44.9175	17148.9	61.2003	17148.9	46.5778	17148.9	52.7667	17148.9	52.9559	17148.9	51.4936	17148.9	48.8109	17148.9	53.4471	17148.9	51.6413	17148.9	63.077	17148.9	56.2786	17148.9	60.9968	17148.9	62.6537	17148.9	64.3536
17752.4	96.0042	17752.4	95.5046	17752.4	95.3893	17752.4	91.9926	17752.4	93.2416	17752.4	88.5302	17752.4	88.2563	17752.4	82.2008	17752.4	83.1017	17752.4	76.5007	17752.4	75.8611	17752.4	71.5499	17752.4	71.8285	17752.4	68.0006	17752.4	63.655	17752.4	53.2517	17752.4	50.0282	17752.4	58.2281	17752.4	58.5087	17752.4	60.371	17752.4	39.4193	17752.4	72.5186	17752.4	35.5411	17752.4	60.2271	17752.4	47.5186	17752.4	55.574	17752.4	54.6488	17752.4	51.4775	17752.4	52.212	17752.4	55.1056	17752.4	54.0994	17752.4	65.0264	17752.4	48.1375	17752.4	60.6454	17752.4	60.4679	17752.4	62.9838
18379.4	98.0484	18379.4	96.9344	18379.4	97.2445	18379.4	92.7995	18379.4	95.5079	18379.4	88.6494	18379.4	90.7111	18379.4	81.9507	18379.4	85.5377	18379.4	76.8197	18379.4	77.3782	18379.4	71.8796	18379.4	72.7222	18379.4	68.3237	18379.4	64.6736	18379.4	50.0607	18379.4	54.8273	18379.4	58.0221	18379.4	59.8815	18379.4	60.9591	18379.4	49.4022	18379.4	73.0014	18379.4	39.5649	18379.4	62.9023	18379.4	49.421	18379.4	57.0431	18379.4	56.4509	18379.4	54.21	18379.4	56.4628	18379.4	57.6414	18379.4	60.2096	18379.4	67.5554	18379.4	51.0609	18379.4	64.5704	18379.4	62.3791	18379.4	65.2658
19026.9	94.0527	19026.9	92.4485	19026.9	92.8364	19026.9	87.3586	19026.9	91.2058	19026.9	83.0016	19026.9	86.117	19026.9	76.0677	19026.9	80.5466	19026.9	70.2259	19026.9	72.5033	19026.9	67.3458	19026.9	67.9143	19026.9	67.0588	19026.9	61.7321	19026.9	54.5892	19026.9	47.0925	19026.9	56.1967	19026.9	54.9779	19026.9	57.5014	19026.9	52.9647	19026.9	67.7794	19026.9	46.1675	19026.9	61.9273	19026.9	41.3511	19026.9	57.0295	19026.9	54.6854	19026.9	54.3533	19026.9	55.8458	19026.9	56.8905	19026.9	60.7328	19026.9	67.0873	19026.9	57.1751	19026.9	64.2667	19026.9	61.7424	19026.9	64.4193
19697.8	90.5731	19697.8	89.039	19697.8	88.2112	19697.8	83.237	19697.8	86.5558	19697.8	78.5446	19697.8	81.2633	19697.8	72.5055	19697.8	75.3701	19697.8	67.3969	19697.8	66.1928	19697.8	63.072	19697.8	60.8726	19697.8	63.171	19697.8	51.7036	19697.8	52.9843	19697.8	42.0723	19697.8	54.1181	19697.8	51.7238	19697.8	55.0186	19697.8	49.506	19697.8	62.3373	19697.8	45.4565	19697.8	58.0824	19697.8	43.0968	19697.8	55.338	19697.8	51.4678	19697.8	53.687	19697.8	53.2963	19697.8	56.3696	19697.8	58.6327	19697.8	67.1456	19697.8	58.3216	19697.8	64.9746	19697.8	61.7087	19697.8	64.8663
19999.5	87.7412	19999.5	86.5003	19999.5	84.779	19999.5	81.2483	19999.5	82.6267	19999.5	77.2812	19999.5	77.1758	19999.5	71.6053	19999.5	68.6727	19999.5	65.9736	19999.5	57.8541	19999.5	60.9367	19999.5	54.1676	19999.5	61.1191	19999.5	48.9944	19999.5	49.3051	19999.5	44.8123	19999.5	57.1446	19999.5	49.0999	19999.5	55.5775	19999.5	46.6131	19999.5	60.0617	19999.5	46.1568	19999.5	57.582	19999.5	48.0822	19999.5	54.9667	19999.5	52.4105	19999.5	55.328	19999.5	52.5045	19999.5	55.7092	19999.5	57.6084	19999.5	66.2156	19999.5	57.061	19999.5	63.8461	19999.5	60.2313	19999.5	63.8493
