"SPL Horizontal"
"On-Axis"		"10°"		"-10°"		"20°"		"-20°"		"30°"		"-30°"		"40°"		"-40°"		"50°"		"-50°"		"60°"		"-60°"		"70°"		"-70°"		"80°"		"-80°"		"90°"		"-90°"		"100°"		"-100°"		"110°"		"-110°"		"120°"		"-120°"		"130°"		"-130°"		"140°"		"-140°"		"150°"		"-150°"		"160°"		"-160°"		"170°"		"-170°"		"180°"
"Frequency / Hz"	"Sound Pressure Level / dB (re 20 µPa/V)  [0.3V at 1m]"	"Frequency / Hz"	"Sound Pressure Level / dB (re 20 µPa/V)  [0.3V at 1m]"	"Frequency / Hz"	"Sound Pressure Level / dB (re 20 µPa/V)  [0.3V at 1m]"	"Frequency / Hz"	"Sound Pressure Level / dB (re 20 µPa/V)  [0.3V at 1m]"	"Frequency / Hz"	"Sound Pressure Level / dB (re 20 µPa/V)  [0.3V at 1m]"	"Frequency / Hz"	"Sound Pressure Level / dB (re 20 µPa/V)  [0.3V at 1m]"	"Frequency / Hz"	"Sound Pressure Level / dB (re 20 µPa/V)  [0.3V at 1m]"	"Frequency / Hz"	"Sound Pressure Level / dB (re 20 µPa/V)  [0.3V at 1m]"	"Frequency / Hz"	"Sound Pressure Level / dB (re 20 µPa/V)  [0.3V at 1m]"	"Frequency / Hz"	"Sound Pressure Level / dB (re 20 µPa/V)  [0.3V at 1m]"	"Frequency / Hz"	"Sound Pressure Level / dB (re 20 µPa/V)  [0.3V at 1m]"	"Frequency / Hz"	"Sound Pressure Level / dB (re 20 µPa/V)  [0.3V at 1m]"	"Frequency / Hz"	"Sound Pressure Level / dB (re 20 µPa/V)  [0.3V at 1m]"	"Frequency / Hz"	"Sound Pressure Level / dB (re 20 µPa/V)  [0.3V at 1m]"	"Frequency / Hz"	"Sound Pressure Level / dB (re 20 µPa/V)  [0.3V at 1m]"	"Frequency / Hz"	"Sound Pressure Level / dB (re 20 µPa/V)  [0.3V at 1m]"	"Frequency / Hz"	"Sound Pressure Level / dB (re 20 µPa/V)  [0.3V at 1m]"	"Frequency / Hz"	"Sound Pressure Level / dB (re 20 µPa/V)  [0.3V at 1m]"	"Frequency / Hz"	"Sound Pressure Level / dB (re 20 µPa/V)  [0.3V at 1m]"	"Frequency / Hz"	"Sound Pressure Level / dB (re 20 µPa/V)  [0.3V at 1m]"	"Frequency / Hz"	"Sound Pressure Level / dB (re 20 µPa/V)  [0.3V at 1m]"	"Frequency / Hz"	"Sound Pressure Level / dB (re 20 µPa/V)  [0.3V at 1m]"	"Frequency / Hz"	"Sound Pressure Level / dB (re 20 µPa/V)  [0.3V at 1m]"	"Frequency / Hz"	"Sound Pressure Level / dB (re 20 µPa/V)  [0.3V at 1m]"	"Frequency / Hz"	"Sound Pressure Level / dB (re 20 µPa/V)  [0.3V at 1m]"	"Frequency / Hz"	"Sound Pressure Level / dB (re 20 µPa/V)  [0.3V at 1m]"	"Frequency / Hz"	"Sound Pressure Level / dB (re 20 µPa/V)  [0.3V at 1m]"	"Frequency / Hz"	"Sound Pressure Level / dB (re 20 µPa/V)  [0.3V at 1m]"	"Frequency / Hz"	"Sound Pressure Level / dB (re 20 µPa/V)  [0.3V at 1m]"	"Frequency / Hz"	"Sound Pressure Level / dB (re 20 µPa/V)  [0.3V at 1m]"	"Frequency / Hz"	"Sound Pressure Level / dB (re 20 µPa/V)  [0.3V at 1m]"	"Frequency / Hz"	"Sound Pressure Level / dB (re 20 µPa/V)  [0.3V at 1m]"	"Frequency / Hz"	"Sound Pressure Level / dB (re 20 µPa/V)  [0.3V at 1m]"	"Frequency / Hz"	"Sound Pressure Level / dB (re 20 µPa/V)  [0.3V at 1m]"	"Frequency / Hz"	"Sound Pressure Level / dB (re 20 µPa/V)  [0.3V at 1m]"	"Frequency / Hz"	"Sound Pressure Level / dB (re 20 µPa/V)  [0.3V at 1m]"
20.5078	51.6344	20.5078	51.7286	20.5078	51.5555	20.5078	51.836	20.5078	51.4934	20.5078	51.9543	20.5078	51.4495	20.5078	52.0804	20.5078	51.4247	20.5078	52.2109	20.5078	51.4195	20.5078	52.342	20.5078	51.4347	20.5078	52.4696	20.5078	51.4703	20.5078	52.5897	20.5078	51.5264	20.5078	52.6981	20.5078	51.6023	20.5078	52.7909	20.5078	51.697	20.5078	52.8649	20.5078	51.8083	20.5078	52.9173	20.5078	51.9334	20.5078	52.946	20.5078	52.0685	20.5078	52.9499	20.5078	52.2088	20.5078	52.9284	20.5078	52.3493	20.5078	52.882	20.5078	52.4846	20.5078	52.8119	20.5078	52.6098	20.5078	52.7202
21.9727	49.8452	21.9727	49.899	21.9727	49.8128	21.9727	49.9733	21.9727	49.8022	21.9727	50.0665	21.9727	49.8133	21.9727	50.1762	21.9727	49.8453	21.9727	50.2993	21.9727	49.8972	21.9727	50.432	21.9727	49.9675	21.9727	50.5702	21.9727	50.0547	21.9727	50.7089	21.9727	50.1564	21.9727	50.8432	21.9727	50.2702	21.9727	50.9683	21.9727	50.3931	21.9727	51.0797	21.9727	50.5218	21.9727	51.1735	21.9727	50.6525	21.9727	51.2466	21.9727	50.7811	21.9727	51.2972	21.9727	50.9038	21.9727	51.324	21.9727	51.0165	21.9727	51.3269	21.9727	51.1159	21.9727	51.3062	21.9727	51.1989	21.9727	51.263
23.4375	53.8104	23.4375	53.8441	23.4375	53.7866	23.4375	53.8866	23.4375	53.7731	23.4375	53.9367	23.4375	53.7702	23.4375	53.9925	23.4375	53.7776	23.4375	54.0523	23.4375	53.795	23.4375	54.1137	23.4375	53.8216	23.4375	54.1745	23.4375	53.8566	23.4375	54.2326	23.4375	53.8989	23.4375	54.2859	23.4375	53.9472	23.4375	54.3327	23.4375	54.0002	23.4375	54.3718	23.4375	54.0562	23.4375	54.4023	23.4375	54.1137	23.4375	54.4236	23.4375	54.1709	23.4375	54.4357	23.4375	54.2259	23.4375	54.4387	23.4375	54.2771	23.4375	54.4325	23.4375	54.323	23.4375	54.4175	23.4375	54.3622	23.4375	54.394
24.9023	54.3705	24.9023	54.4104	24.9023	54.3504	24.9023	54.4692	24.9023	54.3499	24.9023	54.5455	24.9023	54.3684	24.9023	54.6369	24.9023	54.4048	24.9023	54.7406	24.9023	54.4573	24.9023	54.853	24.9023	54.5239	24.9023	54.9702	24.9023	54.6025	24.9023	55.088	24.9023	54.6908	24.9023	55.2022	24.9023	54.7865	24.9023	55.3087	24.9023	54.8872	24.9023	55.4039	24.9023	54.9906	24.9023	55.4846	24.9023	55.0941	24.9023	55.5483	24.9023	55.1953	24.9023	55.5932	24.9023	55.2917	24.9023	55.6183	24.9023	55.3804	24.9023	55.6233	24.9023	55.4589	24.9023	55.6086	24.9023	55.5246	24.9023	55.5751
26.3672	58.4942	26.3672	58.5049	26.3672	58.4901	26.3672	58.5217	26.3672	58.4926	26.3672	58.544	26.3672	58.5017	26.3672	58.5708	26.3672	58.5169	26.3672	58.6012	26.3672	58.5375	26.3672	58.6339	26.3672	58.5626	26.3672	58.6678	26.3672	58.5912	26.3672	58.7017	26.3672	58.6221	26.3672	58.7344	26.3672	58.6543	26.3672	58.7649	26.3672	58.6865	26.3672	58.7923	26.3672	58.718	26.3672	58.816	26.3672	58.7478	26.3672	58.8354	26.3672	58.7753	26.3672	58.8502	26.3672	58.7999	26.3672	58.8602	26.3672	58.8212	26.3672	58.8654	26.3672	58.8387	26.3672	58.8657	26.3672	58.8521	26.3672	58.8612
27.832	61.5883	27.832	61.5933	27.832	61.5863	27.832	61.601	27.832	61.5872	27.832	61.6112	27.832	61.591	27.832	61.6232	27.832	61.5972	27.832	61.6364	27.832	61.6055	27.832	61.6502	27.832	61.6152	27.832	61.6637	27.832	61.6258	27.832	61.6764	27.832	61.6367	27.832	61.6876	27.832	61.6474	27.832	61.6969	27.832	61.6574	27.832	61.7041	27.832	61.6666	27.832	61.7091	27.832	61.6748	27.832	61.7121	27.832	61.6821	27.832	61.7134	27.832	61.6884	27.832	61.7132	27.832	61.6939	27.832	61.7118	27.832	61.6987	27.832	61.7096	27.832	61.7029	27.832	61.7066
29.2969	64.7137	29.2969	64.7197	29.2969	64.7084	29.2969	64.7263	29.2969	64.7039	29.2969	64.7332	29.2969	64.7001	29.2969	64.74	29.2969	64.697	29.2969	64.7463	29.2969	64.6943	29.2969	64.7516	29.2969	64.6919	29.2969	64.7556	29.2969	64.6895	29.2969	64.7577	29.2969	64.6869	29.2969	64.7578	29.2969	64.6843	29.2969	64.7557	29.2969	64.6816	29.2969	64.7513	29.2969	64.679	29.2969	64.745	29.2969	64.6769	29.2969	64.7371	29.2969	64.6757	29.2969	64.7281	29.2969	64.6756	29.2969	64.7185	29.2969	64.6771	29.2969	64.7089	29.2969	64.6803	29.2969	64.6998	29.2969	64.6852	29.2969	64.6918
30.7617	67.7764	30.7617	67.7745	30.7617	67.7768	30.7617	67.771	30.7617	67.7755	30.7617	67.7659	30.7617	67.7726	30.7617	67.7588	30.7617	67.768	30.7617	67.7498	30.7617	67.7614	30.7617	67.7388	30.7617	67.7527	30.7617	67.7256	30.7617	67.7419	30.7617	67.7105	30.7617	67.7289	30.7617	67.6937	30.7617	67.7137	30.7617	67.6756	30.7617	67.6968	30.7617	67.6569	30.7617	67.6786	30.7617	67.6384	30.7617	67.6597	30.7617	67.621	30.7617	67.641	30.7617	67.6057	30.7617	67.6233	30.7617	67.5933	30.7617	67.6076	30.7617	67.5848	30.7617	67.5949	30.7617	67.5805	30.7617	67.5857	30.7617	67.5809
32.2266	70.5649	32.2266	70.559	32.2266	70.5687	32.2266	70.5508	32.2266	70.5702	32.2266	70.5405	32.2266	70.5692	32.2266	70.5281	32.2266	70.5657	32.2266	70.5136	32.2266	70.5594	32.2266	70.4972	32.2266	70.5503	32.2266	70.4791	32.2266	70.5383	32.2266	70.4595	32.2266	70.5235	32.2266	70.4389	32.2266	70.506	32.2266	70.418	32.2266	70.4861	32.2266	70.3975	32.2266	70.4645	32.2266	70.3782	32.2266	70.4418	32.2266	70.3611	32.2266	70.4188	32.2266	70.3471	32.2266	70.3966	32.2266	70.337	32.2266	70.3763	32.2266	70.3315	32.2266	70.3587	32.2266	70.331	32.2266	70.3449	32.2266	70.3355
33.6914	73.0897	33.6914	73.0764	33.6914	73.1009	33.6914	73.0613	33.6914	73.1098	33.6914	73.0445	33.6914	73.1163	33.6914	73.0262	33.6914	73.1202	33.6914	73.0067	33.6914	73.1212	33.6914	72.9863	33.6914	73.1192	33.6914	72.9655	33.6914	73.1139	33.6914	72.9449	33.6914	73.1052	33.6914	72.925	33.6914	73.093	33.6914	72.9068	33.6914	73.0776	33.6914	72.891	33.6914	73.0591	33.6914	72.8784	33.6914	73.038	33.6914	72.8698	33.6914	73.0148	33.6914	72.8659	33.6914	72.9904	33.6914	72.867	33.6914	72.9656	33.6914	72.8732	33.6914	72.9416	33.6914	72.8843	33.6914	72.9194	33.6914	72.9
35.1562	75.6607	35.1562	75.6539	35.1562	75.6631	35.1562	75.6427	35.1562	75.661	35.1562	75.6271	35.1562	75.6546	35.1562	75.6075	35.1562	75.644	35.1562	75.584	35.1562	75.6292	35.1562	75.5571	35.1562	75.6107	35.1562	75.5275	35.1562	75.5886	35.1562	75.4958	35.1562	75.5634	35.1562	75.4631	35.1562	75.5356	35.1562	75.4305	35.1562	75.5059	35.1562	75.3991	35.1562	75.4751	35.1562	75.3704	35.1562	75.444	35.1562	75.3455	35.1562	75.4136	35.1562	75.3255	35.1562	75.385	35.1562	75.3114	35.1562	75.3591	35.1562	75.3036	35.1562	75.3371	35.1562	75.3025	35.1562	75.3198	35.1562	75.3081
36.6211	77.745	36.6211	77.7444	36.6211	77.7398	36.6211	77.738	36.6211	77.729	36.6211	77.7259	36.6211	77.7127	36.6211	77.7082	36.6211	77.6911	36.6211	77.6853	36.6211	77.6647	36.6211	77.6576	36.6211	77.6339	36.6211	77.6256	36.6211	77.5995	36.6211	77.59	36.6211	77.5623	36.6211	77.5518	36.6211	77.5233	36.6211	77.5121	36.6211	77.4836	36.6211	77.472	36.6211	77.4446	36.6211	77.4331	36.6211	77.4075	36.6211	77.3966	36.6211	77.3737	36.6211	77.3639	36.6211	77.3446	36.6211	77.3363	36.6211	77.3212	36.6211	77.315	36.6211	77.3046	36.6211	77.3008	36.6211	77.2955	36.6211	77.2942
38.0859	79.3369	38.0859	79.3322	38.0859	79.3322	38.0859	79.3182	38.0859	79.3183	38.0859	79.2953	38.0859	79.2953	38.0859	79.2638	38.0859	79.2637	38.0859	79.2246	38.0859	79.2241	38.0859	79.1785	38.0859	79.1776	38.0859	79.1266	38.0859	79.1251	38.0859	79.0704	38.0859	79.0682	38.0859	79.0114	38.0859	79.0085	38.0859	78.9514	38.0859	78.9479	38.0859	78.8924	38.0859	78.8884	38.0859	78.8363	38.0859	78.8321	38.0859	78.785	38.0859	78.7808	38.0859	78.7403	38.0859	78.7364	38.0859	78.7037	38.0859	78.7005	38.0859	78.6765	38.0859	78.6742	38.0859	78.6596	38.0859	78.6583	38.0859	78.6534
39.5508	80.7416	39.5508	80.7332	39.5508	80.7401	39.5508	80.7151	39.5508	80.7288	39.5508	80.6877	39.5508	80.7079	39.5508	80.6517	39.5508	80.6779	39.5508	80.6078	39.5508	80.6395	39.5508	80.5571	39.5508	80.5936	39.5508	80.5012	39.5508	80.5416	39.5508	80.4416	39.5508	80.4848	39.5508	80.3801	39.5508	80.425	39.5508	80.3188	39.5508	80.3641	39.5508	80.2598	39.5508	80.304	39.5508	80.205	39.5508	80.2466	39.5508	80.1564	39.5508	80.194	39.5508	80.1156	39.5508	80.1477	39.5508	80.0838	39.5508	80.1091	39.5508	80.062	39.5508	80.0794	39.5508	80.0505	39.5508	80.0594	39.5508	80.0497
41.0156	81.8305	41.0156	81.8234	41.0156	81.8273	41.0156	81.806	41.0156	81.8136	41.0156	81.7787	41.0156	81.79	41.0156	81.7422	41.0156	81.7569	41.0156	81.6975	41.0156	81.7151	41.0156	81.6457	41.0156	81.6659	41.0156	81.5884	41.0156	81.6106	41.0156	81.5272	41.0156	81.5508	41.0156	81.464	41.0156	81.4884	41.0156	81.401	41.0156	81.4254	41.0156	81.3403	41.0156	81.364	41.0156	81.2839	41.0156	81.3061	41.0156	81.2337	41.0156	81.2537	41.0156	81.1913	41.0156	81.2082	41.0156	81.1577	41.0156	81.1711	41.0156	81.134	41.0156	81.1432	41.0156	81.1206	41.0156	81.1253	41.0156	81.1177
42.4805	82.6329	42.4805	82.6262	42.4805	82.6285	42.4805	82.6084	42.4805	82.6129	42.4805	82.58	42.4805	82.5866	42.4805	82.5417	42.4805	82.5502	42.4805	82.4946	42.4805	82.5047	42.4805	82.44	42.4805	82.4513	42.4805	82.3794	42.4805	82.3917	42.4805	82.3148	42.4805	82.3276	42.4805	82.2482	42.4805	82.2612	42.4805	82.1819	42.4805	82.1946	42.4805	82.1181	42.4805	82.1301	42.4805	82.0588	42.4805	82.0698	42.4805	82.006	42.4805	82.0156	42.4805	81.9613	42.4805	81.9693	42.4805	81.9257	42.4805	81.9319	42.4805	81.9002	42.4805	81.9044	42.4805	81.8851	42.4805	81.8873	42.4805	81.8808
43.9453	83.1615	43.9453	83.1529	43.9453	83.1578	43.9453	83.1322	43.9453	83.1419	43.9453	83.0999	43.9453	83.1142	43.9453	83.0568	43.9453	83.0754	43.9453	83.004	43.9453	83.0266	43.9453	82.943	43.9453	82.969	43.9453	82.8756	43.9453	82.9043	43.9453	82.8038	43.9453	82.8345	43.9453	82.7299	43.9453	82.7618	43.9453	82.6564	43.9453	82.6886	43.9453	82.5858	43.9453	82.6172	43.9453	82.5204	43.9453	82.55	43.9453	82.4624	43.9453	82.4892	43.9453	82.4136	43.9453	82.4364	43.9453	82.3753	43.9453	82.3933	43.9453	82.3484	43.9453	82.3608	43.9453	82.3333	43.9453	82.3397	43.9453	82.3305
45.4102	83.5785	45.4102	83.5729	45.4102	83.5717	45.4102	83.5553	45.4102	83.5528	45.4102	83.526	45.4102	83.5221	45.4102	83.4859	45.4102	83.4805	45.4102	83.4362	45.4102	83.429	45.4102	83.3782	45.4102	83.3691	45.4102	83.3136	45.4102	83.3026	45.4102	83.2446	45.4102	83.2316	45.4102	83.1732	45.4102	83.1585	45.4102	83.1017	45.4102	83.0857	45.4102	83.0326	45.4102	83.0157	45.4102	82.9679	45.4102	82.951	45.4102	82.9097	45.4102	82.8936	45.4102	82.8596	45.4102	82.8452	45.4102	82.8189	45.4102	82.8071	45.4102	82.7885	45.4102	82.7802	45.4102	82.7691	45.4102	82.7648	45.4102	82.7611
46.875	83.7843	46.875	83.7794	46.875	83.7765	46.875	83.7621	46.875	83.7562	46.875	83.7329	46.875	83.7237	46.875	83.6928	46.875	83.6798	46.875	83.6431	46.875	83.6259	46.875	83.5853	46.875	83.5635	46.875	83.5212	46.875	83.4945	46.875	83.4529	46.875	83.4213	46.875	83.3825	46.875	83.3465	46.875	83.3124	46.875	83.2728	46.875	83.2448	46.875	83.2029	46.875	83.1815	46.875	83.1393	46.875	83.1245	46.875	83.084	46.875	83.075	46.875	83.0386	46.875	83.0341	46.875	83.0043	46.875	83.0026	46.875	82.9814	46.875	82.9811	46.875	82.9701	46.875	82.9701
48.3398	84.0047	48.3398	83.9938	48.3398	84.002	48.3398	83.9698	48.3398	83.9858	48.3398	83.9333	48.3398	83.9565	48.3398	83.8853	48.3398	83.9149	48.3398	83.8272	48.3398	83.862	48.3398	83.7608	48.3398	83.7993	48.3398	83.6881	48.3398	83.7288	48.3398	83.6114	48.3398	83.6526	48.3398	83.5332	48.3398	83.5734	48.3398	83.4562	48.3398	83.4939	48.3398	83.3828	48.3398	83.4168	48.3398	83.3153	48.3398	83.3447	48.3398	83.2558	48.3398	83.2801	48.3398	83.2058	48.3398	83.2248	48.3398	83.1664	48.3398	83.1803	48.3398	83.1385	48.3398	83.1474	48.3398	83.1223	48.3398	83.1267	48.3398	83.1184
51.2695	83.9882	51.2695	83.9758	51.2695	83.9881	51.2695	83.9514	51.2695	83.9756	51.2695	83.9156	51.2695	83.9512	51.2695	83.8697	51.2695	83.9158	51.2695	83.8153	51.2695	83.8707	51.2695	83.7544	51.2695	83.8176	51.2695	83.6894	51.2695	83.7586	51.2695	83.6227	51.2695	83.6958	51.2695	83.5569	51.2695	83.6317	51.2695	83.4945	51.2695	83.5687	51.2695	83.4378	51.2695	83.5089	51.2695	83.3885	51.2695	83.4541	51.2695	83.3477	51.2695	83.4057	51.2695	83.316	51.2695	83.3647	51.2695	83.2936	51.2695	83.3314	51.2695	83.2801	51.2695	83.3059	51.2695	83.2749	51.2695	83.288	51.2695	83.2776
52.7344	83.9663	52.7344	83.956	52.7344	83.9632	52.7344	83.9324	52.7344	83.9467	52.7344	83.8964	52.7344	83.9176	52.7344	83.8493	52.7344	83.8771	52.7344	83.7928	52.7344	83.8266	52.7344	83.7291	52.7344	83.7683	52.7344	83.6608	52.7344	83.7045	52.7344	83.5906	52.7344	83.6377	52.7344	83.5214	52.7344	83.5707	52.7344	83.4559	52.7344	83.5059	52.7344	83.3966	52.7344	83.4456	52.7344	83.3454	52.7344	83.3917	52.7344	83.3034	52.7344	83.3452	52.7344	83.271	52.7344	83.3068	52.7344	83.2481	52.7344	83.2764	52.7344	83.2342	52.7344	83.2537	52.7344	83.2283	52.7344	83.2382	52.7344	83.2298
54.1992	84.0116	54.1992	84.0046	54.1992	84.0029	54.1992	83.9823	54.1992	83.9789	54.1992	83.9454	54.1992	83.9403	54.1992	83.8954	54.1992	83.8884	54.1992	83.8338	54.1992	83.8251	54.1992	83.7632	54.1992	83.7528	54.1992	83.6862	54.1992	83.6741	54.1992	83.6057	54.1992	83.5923	54.1992	83.5251	54.1992	83.5106	54.1992	83.4472	54.1992	83.4322	54.1992	83.3751	54.1992	83.3601	54.1992	83.3108	54.1992	83.2965	54.1992	83.2561	54.1992	83.243	54.1992	83.2116	54.1992	83.2004	54.1992	83.1775	54.1992	83.1686	54.1992	83.1533	54.1992	83.1472	54.1992	83.1385	54.1992	83.1354	54.1992	83.1326
55.6641	84.0289	55.6641	84.0197	55.6641	84.022	55.6641	83.9948	55.6641	83.9992	55.6641	83.9551	55.6641	83.9612	55.6641	83.9019	55.6641	83.9091	55.6641	83.8372	55.6641	83.8446	55.6641	83.7631	55.6641	83.77	55.6641	83.6825	55.6641	83.688	55.6641	83.5983	55.6641	83.6016	55.6641	83.5137	55.6641	83.5142	55.6641	83.4316	55.6641	83.4291	55.6641	83.3549	55.6641	83.3496	55.6641	83.2859	55.6641	83.2782	55.6641	83.2263	55.6641	83.217	55.6641	83.177	55.6641	83.1673	55.6641	83.1384	55.6641	83.1296	55.6641	83.1105	55.6641	83.1038	55.6641	83.0931	55.6641	83.0895	55.6641	83.086
58.5938	83.8985	58.5938	83.8876	58.5938	83.8927	58.5938	83.8606	58.5938	83.8705	58.5938	83.8185	58.5938	83.8326	58.5938	83.7627	58.5938	83.7805	58.5938	83.6956	58.5938	83.7159	58.5938	83.6197	58.5938	83.6415	58.5938	83.5381	58.5938	83.5602	58.5938	83.4541	58.5938	83.4753	58.5938	83.3712	58.5938	83.3905	58.5938	83.2925	58.5938	83.309	58.5938	83.221	58.5938	83.2341	58.5938	83.1585	58.5938	83.1682	58.5938	83.1064	58.5938	83.1128	58.5938	83.0651	58.5938	83.0688	58.5938	83.0342	58.5938	83.0359	58.5938	83.0129	58.5938	83.0136	58.5938	83.0006	58.5938	83.0007	58.5938	82.9965
60.0586	83.8638	60.0586	83.8519	60.0586	83.8585	60.0586	83.8233	60.0586	83.8361	60.0586	83.779	60.0586	83.7974	60.0586	83.7208	60.0586	83.7439	60.0586	83.6509	60.0586	83.6776	60.0586	83.5721	60.0586	83.6011	60.0586	83.4878	60.0586	83.5175	60.0586	83.4014	60.0586	83.4304	60.0586	83.3165	60.0586	83.3434	60.0586	83.2365	60.0586	83.2602	60.0586	83.1642	60.0586	83.1839	60.0586	83.1018	60.0586	83.1172	60.0586	83.0504	60.0586	83.0615	60.0586	83.0101	60.0586	83.0174	60.0586	82.9804	60.0586	82.9848	60.0586	82.9604	60.0586	82.9627	60.0586	82.949	60.0586	82.95	60.0586	82.9456
62.9883	83.8042	62.9883	83.7884	62.9883	83.8016	62.9883	83.7546	62.9883	83.7807	62.9883	83.704	62.9883	83.7424	62.9883	83.6386	62.9883	83.6883	62.9883	83.5609	62.9883	83.6204	62.9883	83.4739	62.9883	83.5416	62.9883	83.3814	62.9883	83.4552	62.9883	83.2874	62.9883	83.365	62.9883	83.196	62.9883	83.2748	62.9883	83.111	62.9883	83.1884	62.9883	83.0356	62.9883	83.1091	62.9883	82.9722	62.9883	83.0393	62.9883	82.9218	62.9883	82.9806	62.9883	82.8846	62.9883	82.9333	62.9883	82.8596	62.9883	82.897	62.9883	82.8453	62.9883	82.8706	62.9883	82.8401	62.9883	82.8529	62.9883	82.8428
64.4531	83.7512	64.4531	83.7347	64.4531	83.7485	64.4531	83.6993	64.4531	83.7266	64.4531	83.6462	64.4531	83.6866	64.4531	83.5772	64.4531	83.63	64.4531	83.4949	64.4531	83.5592	64.4531	83.4025	64.4531	83.477	64.4531	83.3037	64.4531	83.3869	64.4531	83.2029	64.4531	83.2927	64.4531	83.1043	64.4531	83.1983	64.4531	83.0122	64.4531	83.1076	64.4531	82.9302	64.4531	83.0238	64.4531	82.8609	64.4531	82.9496	64.4531	82.806	64.4531	82.8864	64.4531	82.7657	64.4531	82.8346	64.4531	82.7392	64.4531	82.7937	64.4531	82.7251	64.4531	82.7628	64.4531	82.7215	64.4531	82.7408	64.4531	82.727
67.3828	83.7487	67.3828	83.7361	67.3828	83.742	67.3828	83.7047	67.3828	83.7162	67.3828	83.6556	67.3828	83.6723	67.3828	83.5908	67.3828	83.6119	67.3828	83.5128	67.3828	83.5375	67.3828	83.4248	67.3828	83.452	67.3828	83.3305	67.3828	83.3592	67.3828	83.234	67.3828	83.2629	67.3828	83.1394	67.3828	83.1673	67.3828	83.0506	67.3828	83.0766	67.3828	82.9708	67.3828	82.994	67.3828	82.9025	67.3828	82.9223	67.3828	82.8468	67.3828	82.863	67.3828	82.8039	67.3828	82.8165	67.3828	82.7731	67.3828	82.7822	67.3828	82.753	67.3828	82.7588	67.3828	82.7421	67.3828	82.745	67.3828	82.7396
68.8477	83.7619	68.8477	83.7489	68.8477	83.7546	68.8477	83.7159	68.8477	83.727	68.8477	83.6642	68.8477	83.6804	68.8477	83.5961	68.8477	83.6164	68.8477	83.5141	68.8477	83.5378	68.8477	83.422	68.8477	83.4479	68.8477	83.3238	68.8477	83.3506	68.8477	83.2238	68.8477	83.2504	68.8477	83.1266	68.8477	83.1517	68.8477	83.0363	68.8477	83.059	68.8477	82.9565	68.8477	82.9759	68.8477	82.8893	68.8477	82.905	68.8477	82.8358	68.8477	82.8479	68.8477	82.7958	68.8477	82.8044	68.8477	82.7679	68.8477	82.7736	68.8477	82.7502	68.8477	82.7535	68.8477	82.7407	68.8477	82.7422	68.8477	82.7382
71.7773	83.7375	71.7773	83.7237	71.7773	83.7301	71.7773	83.6893	71.7773	83.7019	71.7773	83.6359	71.7773	83.654	71.7773	83.5655	71.7773	83.5884	71.7773	83.4815	71.7773	83.508	71.7773	83.3875	71.7773	83.4166	71.7773	83.2882	71.7773	83.3183	71.7773	83.1883	71.7773	83.2181	71.7773	83.0925	71.7773	83.1206	71.7773	83.0052	71.7773	83.0304	71.7773	82.9297	71.7773	82.9513	71.7773	82.8683	71.7773	82.8857	71.7773	82.8213	71.7773	82.8345	71.7773	82.7879	71.7773	82.7973	71.7773	82.7661	71.7773	82.7722	71.7773	82.7533	71.7773	82.7569	71.7773	82.747	71.7773	82.7486	71.7773	82.7456
74.707	83.6985	74.707	83.6846	74.707	83.6904	74.707	83.6492	74.707	83.6605	74.707	83.594	74.707	83.61	74.707	83.5216	74.707	83.5413	74.707	83.4352	74.707	83.4574	74.707	83.3391	74.707	83.3623	74.707	83.2382	74.707	83.2608	74.707	83.1375	74.707	83.158	74.707	83.042	74.707	83.0592	74.707	82.9562	74.707	82.9692	74.707	82.8835	74.707	82.8918	74.707	82.8256	74.707	82.8295	74.707	82.7828	74.707	82.783	74.707	82.7535	74.707	82.7512	74.707	82.7352	74.707	82.7318	74.707	82.7248	74.707	82.7216	74.707	82.7193	74.707	82.7175	74.707	82.7171
77.6367	83.7037	77.6367	83.6875	77.6367	83.6966	77.6367	83.6488	77.6367	83.6666	77.6367	83.5893	77.6367	83.615	77.6367	83.512	77.6367	83.5441	77.6367	83.4206	77.6367	83.4573	77.6367	83.3196	77.6367	83.3589	77.6367	83.2145	77.6367	83.2541	77.6367	83.1107	77.6367	83.1483	77.6367	83.0138	77.6367	83.0473	77.6367	82.9284	77.6367	82.9561	77.6367	82.8579	77.6367	82.8789	77.6367	82.8039	77.6367	82.818	77.6367	82.766	77.6367	82.774	77.6367	82.7422	77.6367	82.7454	77.6367	82.7291	77.6367	82.7293	77.6367	82.723	77.6367	82.7219	77.6367	82.7206	77.6367	82.7196	77.6367	82.7196
79.1016	83.7134	79.1016	83.6958	79.1016	83.7071	79.1016	83.6552	79.1016	83.6771	79.1016	83.5932	79.1016	83.6249	79.1016	83.5128	79.1016	83.5528	79.1016	83.418	79.1016	83.4645	79.1016	83.3136	79.1016	83.3642	79.1016	83.205	79.1016	83.2573	79.1016	83.0982	79.1016	83.1494	79.1016	82.9988	79.1016	83.0463	79.1016	82.9117	79.1016	82.9534	79.1016	82.8403	79.1016	82.8747	79.1016	82.7863	79.1016	82.8127	79.1016	82.7492	79.1016	82.7679	79.1016	82.7268	79.1016	82.7387	79.1016	82.7154	79.1016	82.7221	79.1016	82.711	79.1016	82.7143	79.1016	82.71	79.1016	82.7113	79.1016	82.7103
82.0312	83.7057	82.0312	83.687	82.0312	83.6997	82.0312	83.6441	82.0312	83.6693	82.0312	83.5792	82.0312	83.6158	82.0312	83.4952	82.0312	83.542	82.0312	83.3963	82.0312	83.4514	82.0312	83.2877	82.0312	83.3489	82.0312	83.175	82.0312	83.2399	82.0312	83.0646	82.0312	83.1304	82.0312	82.9624	82.0312	83.0263	82.0312	82.8736	82.0312	82.9331	82.0312	82.8019	82.0312	82.8547	82.0312	82.7487	82.0312	82.7935	82.0312	82.7136	82.0312	82.7496	82.0312	82.694	82.0312	82.7213	82.0312	82.6858	82.0312	82.7051	82.0312	82.6848	82.0312	82.6969	82.0312	82.687	82.0312	82.6928	82.0312	82.6899
84.9609	83.6981	84.9609	83.6785	84.9609	83.6924	84.9609	83.6343	84.9609	83.6619	84.9609	83.5678	84.9609	83.6081	84.9609	83.4823	84.9609	83.534	84.9609	83.3823	84.9609	83.4439	84.9609	83.2736	84.9609	83.3428	84.9609	83.1623	84.9609	83.2367	84.9609	83.0553	84.9609	83.1321	84.9609	82.9588	84.9609	83.0351	84.9609	82.8781	84.9609	82.9511	84.9609	82.8165	84.9609	82.8837	84.9609	82.7751	84.9609	82.8344	84.9609	82.7525	84.9609	82.8026	84.9609	82.7452	84.9609	82.7853	84.9609	82.7483	84.9609	82.7782	84.9609	82.7567	84.9609	82.7763	84.9609	82.7656	84.9609	82.7754	84.9609	82.7722
87.8906	83.7946	87.8906	83.7759	87.8906	83.7855	87.8906	83.7303	87.8906	83.7493	87.8906	83.66	87.8906	83.6878	87.8906	83.5687	87.8906	83.6045	87.8906	83.4614	87.8906	83.5041	87.8906	83.3443	87.8906	83.3927	87.8906	83.2247	87.8906	83.2774	87.8906	83.1103	87.8906	83.1656	87.8906	83.0084	87.8906	83.0647	87.8906	82.925	87.8906	82.9807	87.8906	82.8642	87.8906	82.9176	87.8906	82.827	87.8906	82.8767	87.8906	82.8117	87.8906	82.856	87.8906	82.8136	87.8906	82.8511	87.8906	82.8263	87.8906	82.8559	87.8906	82.8433	87.8906	82.8637	87.8906	82.8584	87.8906	82.8688	87.8906	82.8674
90.8203	83.9149	90.8203	83.8967	90.8203	83.9036	90.8203	83.8498	90.8203	83.8631	90.8203	83.7766	90.8203	83.7954	90.8203	83.6809	90.8203	83.7037	90.8203	83.5678	90.8203	83.5929	90.8203	83.4437	90.8203	83.4692	90.8203	83.3163	90.8203	83.34	90.8203	83.1933	90.8203	83.2134	90.8203	83.0826	90.8203	83.0975	90.8203	82.9907	90.8203	82.9994	90.8203	82.9218	90.8203	82.9244	90.8203	82.8772	90.8203	82.8745	90.8203	82.8551	90.8203	82.8485	90.8203	82.8505	90.8203	82.8419	90.8203	82.8569	90.8203	82.8484	90.8203	82.8673	90.8203	82.8606	90.8203	82.8755	90.8203	82.8718	90.8203	82.8774
95.2148	83.9119	95.2148	83.8923	95.2148	83.9005	95.2148	83.8424	95.2148	83.8584	95.2148	83.765	95.2148	83.7875	95.2148	83.6639	95.2148	83.6913	95.2148	83.5448	95.2148	83.5749	95.2148	83.4145	95.2148	83.4447	95.2148	83.2811	95.2148	83.3087	95.2148	83.153	95.2148	83.1754	95.2148	83.0385	95.2148	83.0535	95.2148	82.9445	95.2148	82.9507	95.2148	82.8754	95.2148	82.8726	95.2148	82.8323	95.2148	82.8215	95.2148	82.8127	95.2148	82.7962	95.2148	82.8111	95.2148	82.792	95.2148	82.8201	95.2148	82.8019	95.2148	82.8321	95.2148	82.818	95.2148	82.8405	95.2148	82.8328	95.2148	82.8411
98.1445	83.9171	98.1445	83.8946	98.1445	83.9064	98.1445	83.84	98.1445	83.863	98.1445	83.7561	98.1445	83.7889	98.1445	83.6471	98.1445	83.6877	98.1445	83.5189	98.1445	83.5647	98.1445	83.3789	98.1445	83.4267	98.1445	83.2358	98.1445	83.282	98.1445	83.0988	98.1445	83.1399	98.1445	82.977	98.1445	83.0097	98.1445	82.8779	98.1445	82.8998	98.1445	82.8062	98.1445	82.8163	98.1445	82.7628	98.1445	82.7618	98.1445	82.745	98.1445	82.7351	98.1445	82.7464	98.1445	82.7313	98.1445	82.7588	98.1445	82.7425	98.1445	82.7738	98.1445	82.7603	98.1445	82.7841	98.1445	82.7765	98.1445	82.7854
101.074	83.9016	101.074	83.8755	101.074	83.8929	101.074	83.8156	101.074	83.8497	101.074	83.7246	101.074	83.7741	101.074	83.6067	101.074	83.6697	101.074	83.468	101.074	83.5417	101.074	83.3159	101.074	83.3969	101.074	83.1595	101.074	83.2438	101.074	83.0085	101.074	83.0915	101.074	82.8725	101.074	82.9499	101.074	82.7598	101.074	82.8275	101.074	82.6758	101.074	82.731	101.074	82.6222	101.074	82.6636	101.074	82.5966	101.074	82.6246	101.074	82.5929	101.074	82.6096	101.074	82.6027	101.074	82.611	101.074	82.6173	101.074	82.6205	101.074	82.6292	101.074	82.6301	101.074	82.6339
105.469	83.7243	105.469	83.6971	105.469	83.7153	105.469	83.6346	105.469	83.6709	105.469	83.5391	105.469	83.5935	105.469	83.415	105.469	83.4871	105.469	83.2681	105.469	83.3574	105.469	83.1064	105.469	83.2117	105.469	82.9392	105.469	83.0585	105.469	82.7767	105.469	82.9072	105.469	82.6294	105.469	82.7672	105.469	82.5063	105.469	82.6466	105.469	82.4138	105.469	82.551	105.469	82.3543	105.469	82.4829	105.469	82.326	105.469	82.4407	105.469	82.3231	105.469	82.4195	105.469	82.3372	105.469	82.412	105.469	82.3593	105.469	82.4102	105.469	82.3814	105.469	82.4072	105.469	82.3981
108.398	83.6517	108.398	83.6355	108.398	83.6321	108.398	83.5844	108.398	83.5776	108.398	83.5009	108.398	83.4908	108.398	83.3892	108.398	83.3759	108.398	83.2552	108.398	83.2391	108.398	83.1066	108.398	83.0883	108.398	82.9524	108.398	82.9327	108.398	82.8026	108.398	82.7825	108.398	82.6668	108.398	82.6477	108.398	82.5537	108.398	82.5367	108.398	82.4689	108.398	82.4548	108.398	82.4144	108.398	82.4036	108.398	82.388	108.398	82.3805	108.398	82.3838	108.398	82.3791	108.398	82.3936	108.398	82.391	108.398	82.4087	108.398	82.4074	108.398	82.4211	108.398	82.4207	108.398	82.4258
112.793	83.583	112.793	83.5684	112.793	83.5622	112.793	83.5197	112.793	83.5064	112.793	83.4397	112.793	83.4179	112.793	83.3328	112.793	83.3004	112.793	83.2051	112.793	83.1599	112.793	83.0643	112.793	83.0042	112.793	82.9195	112.793	82.8429	112.793	82.7804	112.793	82.6869	112.793	82.6563	112.793	82.5469	112.793	82.5549	112.793	82.4327	112.793	82.4808	112.793	82.3506	112.793	82.4346	112.793	82.3029	112.793	82.4129	112.793	82.2872	112.793	82.4089	112.793	82.2968	112.793	82.4139	112.793	82.3228	112.793	82.4196	112.793	82.3552	112.793	82.4189	112.793	82.3856	112.793	82.4078
117.188	83.1242	117.188	83.1008	117.188	83.1156	117.188	83.0473	117.188	83.0746	117.188	82.9673	117.188	83.0024	117.188	82.8657	117.188	82.9021	117.188	82.7487	117.188	82.7788	117.188	82.6234	117.188	82.6396	117.188	82.498	117.188	82.4932	117.188	82.3806	117.188	82.3501	117.188	82.2788	117.188	82.2208	117.188	82.1985	117.188	82.1148	117.188	82.143	117.188	82.0391	117.188	82.1124	117.188	81.9965	117.188	82.1029	117.188	81.985	117.188	82.1081	117.188	81.9987	117.188	82.1199	117.188	82.0284	117.188	82.1299	117.188	82.0643	117.188	82.1316	117.188	82.0974	117.188	82.1209
120.117	82.8829	120.117	82.8392	120.117	82.8908	120.117	82.7623	120.117	82.8629	120.117	82.6572	120.117	82.8014	120.117	82.5317	120.117	82.7109	120.117	82.3954	120.117	82.5982	120.117	82.2597	120.117	82.4719	120.117	82.1364	120.117	82.3423	120.117	82.0363	120.117	82.2203	120.117	81.9674	120.117	82.1165	120.117	81.9334	120.117	82.0396	120.117	81.9333	120.117	81.9947	120.117	81.9614	120.117	81.9826	120.117	82.0085	120.117	81.999	120.117	82.064	120.117	82.036	120.117	82.1171	120.117	82.0832	120.117	82.1588	120.117	82.1297	120.117	82.1825	120.117	82.1659	120.117	82.1848
124.512	82.3101	124.512	82.2667	124.512	82.3055	124.512	82.1766	124.512	82.2545	124.512	82.0438	124.512	82.1611	124.512	81.8756	124.512	82.0321	124.512	81.6828	124.512	81.8769	124.512	81.4801	124.512	81.7079	124.512	81.2854	124.512	81.54	124.512	81.1181	124.512	81.389	124.512	80.9964	124.512	81.2702	124.512	80.9336	124.512	81.1952	124.512	80.9337	124.512	81.1697	124.512	80.9911	124.512	81.1914	124.512	81.0907	124.512	81.2506	124.512	81.2123	124.512	81.3319	124.512	81.3346	124.512	81.4176	124.512	81.4388	124.512	81.4903	124.512	81.5113	124.512	81.5358	124.512	81.5442
128.906	82.2875	128.906	82.2459	128.906	82.2795	128.906	82.1555	128.906	82.2238	128.906	82.019	128.906	82.1242	128.906	81.8421	128.906	81.9867	128.906	81.6337	128.906	81.8201	128.906	81.4065	128.906	81.6355	128.906	81.1768	128.906	81.4466	128.906	80.9641	128.906	81.2687	128.906	80.7886	128.906	81.1172	128.906	80.6682	128.906	81.0051	128.906	80.6131	128.906	80.9404	128.906	80.6237	128.906	80.9236	128.906	80.689	128.906	80.9476	128.906	80.7899	128.906	80.9984	128.906	80.9036	128.906	81.0586	128.906	81.0086	128.906	81.1104	128.906	81.0883	128.906	81.1385	128.906	81.1325
133.301	82.4074	133.301	82.3811	133.301	82.3834	133.301	82.3048	133.301	82.311	133.301	82.1808	133.301	82.1943	133.301	82.0137	133.301	82.0395	133.301	81.8112	133.301	81.8556	133.301	81.5839	133.301	81.6539	133.301	81.3456	133.301	81.4483	133.301	81.1137	133.301	81.2542	133.301	80.907	133.301	81.0871	133.301	80.7439	133.301	80.9602	133.301	80.6383	133.301	80.8811	133.301	80.5962	133.301	80.8505	133.301	80.6133	133.301	80.8609	133.301	80.6757	133.301	80.8981	133.301	80.7635	133.301	80.9446	133.301	80.8553	133.301	80.9827	133.301	80.9324	133.301	80.998	133.301	80.9819
139.16	82.5898	139.16	82.5775	139.16	82.5504	139.16	82.5145	139.16	82.4608	139.16	82.4042	139.16	82.3252	139.16	82.2526	139.16	82.1504	139.16	82.0683	139.16	81.9466	139.16	81.863	139.16	81.7268	139.16	81.6509	139.16	81.507	139.16	81.4481	139.16	81.3048	139.16	81.2713	139.16	81.1372	139.16	81.1349	139.16	81.018	139.16	81.0486	139.16	80.9547	139.16	81.0148	139.16	80.9462	139.16	81.0277	139.16	80.983	139.16	81.0745	139.16	81.0493	139.16	81.1377	139.16	81.1262	139.16	81.1994	139.16	81.1957	139.16	81.2437	139.16	81.2432	139.16	81.2599
143.555	82.83	143.555	82.8133	143.555	82.7943	143.555	82.7455	143.555	82.7074	143.555	82.6304	143.555	82.5735	143.555	82.4746	143.555	82.4	143.555	82.2877	143.555	82.1974	143.555	82.0815	143.555	81.9796	143.555	81.8708	143.555	81.7633	143.555	81.6716	143.555	81.5665	143.555	81.4998	143.555	81.4058	143.555	81.3688	143.555	81.2941	143.555	81.2868	143.555	81.2366	143.555	81.2553	143.555	81.2306	143.555	81.268	143.555	81.2653	143.555	81.3125	143.555	81.325	143.555	81.3729	143.555	81.3921	143.555	81.4326	143.555	81.4506	143.555	81.4775	143.555	81.4881	143.555	81.4975
147.949	82.9197	147.949	82.9115	147.949	82.8726	147.949	82.8507	147.949	82.771	147.949	82.7426	147.949	82.6192	147.949	82.5958	147.949	82.4252	147.949	82.4217	147.949	82.2017	147.949	82.2346	147.949	81.9659	147.949	82.0505	147.949	81.7389	147.949	81.886	147.949	81.5437	147.949	81.7559	147.949	81.4013	147.949	81.6706	147.949	81.3259	147.949	81.634	147.949	81.3206	147.949	81.6431	147.949	81.3771	147.949	81.6878	147.949	81.4774	147.949	81.7539	147.949	81.5992	147.949	81.8253	147.949	81.7204	147.949	81.8862	147.949	81.8228	147.949	81.9235	147.949	81.894	147.949	81.9277
153.809	82.6847	153.809	82.6306	153.809	82.6755	153.809	82.5179	153.809	82.6023	153.809	82.3558	153.809	82.4689	153.809	82.1579	153.809	82.2837	153.809	81.9429	153.809	82.0606	153.809	81.7335	153.809	81.82	153.809	81.5546	153.809	81.5874	153.809	81.4286	153.809	81.3914	153.809	81.371	153.809	81.2587	153.809	81.3854	153.809	81.2066	153.809	81.4629	153.809	81.2382	153.809	81.585	153.809	81.341	153.809	81.7283	153.809	81.4914	153.809	81.8703	153.809	81.6618	153.809	81.9919	153.809	81.8265	153.809	82.0792	153.809	81.9656	153.809	82.1233	153.809	82.0656	153.809	82.1191
159.668	82.8596	159.668	82.8005	159.668	82.8382	159.668	82.664	159.668	82.7362	159.668	82.4567	159.668	82.5562	159.668	82.19	159.668	82.3049	159.668	81.882	159.668	81.9942	159.668	81.5593	159.668	81.6439	159.668	81.2571	159.668	81.2837	159.668	81.0157	159.668	80.9536	159.668	80.8727	159.668	80.6996	159.668	80.8501	159.668	80.5631	159.668	80.9453	159.668	80.5659	159.668	81.1314	159.668	80.7001	159.668	81.3666	159.668	80.9314	159.668	81.6068	159.668	81.2113	159.668	81.8145	159.668	81.4924	159.668	81.9623	159.668	81.7364	159.668	82.0329	159.668	81.9168	159.668	82.018
165.527	82.9719	165.527	82.8792	165.527	82.9773	165.527	82.7004	165.527	82.896	165.527	82.4395	165.527	82.7308	165.527	82.1047	165.527	82.4874	165.527	81.7109	165.527	82.1759	165.527	81.2829	165.527	81.8127	165.527	80.8584	165.527	81.4237	165.527	80.4873	165.527	81.0446	165.527	80.2239	165.527	80.7199	165.527	80.1106	165.527	80.4937	165.527	80.1584	165.527	80.3968	165.527	80.34	165.527	80.4338	165.527	80.6022	165.527	80.5803	165.527	80.8853	165.527	80.7928	165.527	81.1391	165.527	81.023	165.527	81.3291	165.527	81.2288	165.527	81.4356	165.527	81.3785	165.527	81.4513
171.387	83.2634	171.387	83.1827	171.387	83.2642	171.387	83.0214	171.387	83.187	171.387	82.7803	171.387	83.0347	171.387	82.463	171.387	82.8121	171.387	82.0778	171.387	82.5269	171.387	81.6409	171.387	82.1917	171.387	81.1793	171.387	81.8261	171.387	80.734	171.387	81.459	171.387	80.3582	171.387	81.1276	171.387	80.1065	171.387	80.8727	171.387	80.0165	171.387	80.7273	171.387	80.0898	171.387	80.7032	171.387	80.2905	171.387	80.7849	171.387	80.5603	171.387	80.9339	171.387	80.8394	171.387	81.1025	171.387	81.0802	171.387	81.2462	171.387	81.251	171.387	81.3311	171.387	81.3357
177.246	83.247	177.246	83.1991	177.246	83.2095	177.246	83.0649	177.246	83.0885	177.246	82.8446	177.246	82.8875	177.246	82.541	177.246	82.6122	177.246	82.1613	177.246	82.2725	177.246	81.7204	177.246	81.8851	177.246	81.2451	177.246	81.4762	177.246	80.7781	177.246	81.0835	177.246	80.3778	177.246	80.754	177.246	80.1074	177.246	80.5346	177.246	80.0127	177.246	80.4564	177.246	80.0986	177.246	80.5194	177.246	80.325	177.246	80.6915	177.246	80.6256	177.246	80.9203	177.246	80.9332	177.246	81.1508	177.246	81.1954	177.246	81.3374	177.246	81.3783	177.246	81.4481	177.246	81.464
183.105	83.2461	183.105	83.2046	183.105	83.2027	183.105	83.0776	183.105	83.0753	183.105	82.8656	183.105	82.8656	183.105	82.5706	183.105	82.5774	183.105	82.1986	183.105	82.2179	183.105	81.7626	183.105	81.8014	183.105	81.287	183.105	81.3528	183.105	80.8122	183.105	80.9113	183.105	80.3962	183.105	80.5307	183.105	80.1049	183.105	80.2698	183.105	79.9904	183.105	80.1729	183.105	80.0645	183.105	80.247	183.105	80.2898	183.105	80.4561	183.105	80.5977	183.105	80.7367	183.105	80.9154	183.105	81.0215	183.105	81.1849	183.105	81.256	183.105	81.3676	183.105	81.4031	183.105	81.4425
188.965	83.3116	188.965	83.2715	188.965	83.2629	188.965	83.1419	188.965	83.1258	188.965	82.9216	188.965	82.9002	188.965	82.6101	188.965	82.5867	188.965	82.2094	188.965	82.1886	188.965	81.7276	188.965	81.7153	188.965	81.1845	188.965	81.1876	188.965	80.6189	188.965	80.6447	188.965	80.0947	188.965	80.1488	188.965	79.6967	188.965	79.7798	188.965	79.505	188.965	79.6103	188.965	79.5529	188.965	79.6674	188.965	79.803	188.965	79.9124	188.965	80.1671	188.965	80.2608	188.965	80.5487	188.965	80.621	188.965	80.8717	188.965	80.9203	188.965	81.0873	188.965	81.1116	188.965	81.1699
196.289	83.3405	196.289	83.315	196.289	83.2889	196.289	83.2118	196.289	83.1587	196.289	83.0282	196.289	82.9467	196.289	82.7603	196.289	82.6485	196.289	82.4037	196.289	82.2594	196.289	81.9559	196.289	81.777	196.289	81.4209	196.289	81.2057	196.289	80.816	196.289	80.5639	196.289	80.1818	196.289	79.8958	196.289	79.5913	196.289	79.2807	196.289	79.1441	196.289	78.8283	196.289	78.9322	196.289	78.6377	196.289	78.9831	196.289	78.7341	196.289	79.2354	196.289	79.0437	196.289	79.5748	196.289	79.4398	196.289	79.8896	196.289	79.8051	196.289	80.1002	196.289	80.0597	196.289	80.1619
203.613	83.0237	203.613	82.9536	203.613	83.0258	203.613	82.8168	203.613	82.9596	203.613	82.6151	203.613	82.825	203.613	82.3512	203.613	82.6224	203.613	82.0292	203.613	82.3521	203.613	81.6548	203.613	82.0155	203.613	81.2381	203.613	81.6161	203.613	80.7962	203.613	81.1635	203.613	80.3573	203.613	80.6773	203.613	79.962	203.613	80.1933	203.613	79.6591	203.613	79.7644	203.613	79.4894	203.613	79.4526	203.613	79.4658	203.613	79.3051	203.613	79.561	203.613	79.3273	203.613	79.7169	203.613	79.4747	203.613	79.8668	203.613	79.6733	203.613	79.9559	203.613	79.8497	203.613	79.9519
210.938	83.2455	210.938	83.2146	210.938	83.1972	210.938	83.1035	210.938	83.0709	210.938	82.911	210.938	82.8677	210.938	82.6362	210.938	82.5894	210.938	82.2787	210.938	82.2389	210.938	81.8402	210.938	81.8219	210.938	81.3278	210.938	81.349	210.938	80.7582	210.938	80.8397	210.938	80.1643	210.938	80.3263	210.938	79.6009	210.938	79.8559	210.938	79.1415	210.938	79.4849	210.938	78.8587	210.938	79.2617	210.938	78.7885	210.938	79.2032	210.938	78.9052	210.938	79.2814	210.938	79.133	210.938	79.434	210.938	79.3828	210.938	79.5891	210.938	79.5825	210.938	79.6866	210.938	79.6885
218.262	82.3099	218.262	82.265	218.262	82.2826	218.262	82.1495	218.262	82.1826	218.262	81.9669	218.262	82.011	218.262	81.7215	218.262	81.7705	218.262	81.4194	218.262	81.4659	218.262	81.069	218.262	81.1049	218.262	80.6821	218.262	80.7001	218.262	80.2763	218.262	80.2709	218.262	79.8773	218.262	79.8457	218.262	79.5185	218.262	79.462	218.262	79.2371	218.262	79.161	218.262	79.0632	218.262	78.9758	218.262	79.0065	218.262	78.9172	218.262	79.0491	218.262	78.9669	218.262	79.1508	218.262	79.0828	218.262	79.2631	218.262	79.2147	218.262	79.3436	218.262	79.3185	218.262	79.365
225.586	81.9003	225.586	81.8468	225.586	81.8664	225.586	81.7075	225.586	81.745	225.586	81.4859	225.586	81.5376	225.586	81.188	225.586	81.248	225.586	80.824	225.586	80.8831	225.586	80.4101	225.586	80.4559	225.586	79.9717	225.586	79.9887	225.586	79.546	225.586	79.5176	225.586	79.1814	225.586	79.0951	225.586	78.9298	225.586	78.7843	225.586	78.8305	225.586	78.6404	225.586	78.8913	225.586	78.6843	225.586	79.0823	225.586	78.888	225.586	79.3468	225.586	79.1861	225.586	79.6216	225.586	79.5033	225.586	79.852	225.586	79.7764	225.586	79.9989	225.586	79.9624	225.586	80.0386
232.91	81.9254	232.91	81.8677	232.91	81.8878	232.91	81.7137	232.91	81.7567	232.91	81.4629	232.91	81.5342	232.91	81.1154	232.91	81.2239	232.91	80.6738	232.91	80.8318	232.91	80.1454	232.91	80.368	232.91	79.5479	232.91	79.8504	232.91	78.9169	232.91	79.3099	232.91	78.3151	232.91	78.7949	232.91	77.8329	232.91	78.3717	232.91	77.5659	232.91	78.1098	232.91	77.5663	232.91	78.0525	232.91	77.8045	232.91	78.1892	232.91	78.184	232.91	78.4569	232.91	78.593	232.91	78.7683	232.91	78.9429	232.91	79.0433	232.91	79.1785	232.91	79.2235	232.91	79.2735
241.699	81.8368	241.699	81.7884	241.699	81.7889	241.699	81.646	241.699	81.6415	241.699	81.4105	241.699	81.3902	241.699	81.0821	241.699	81.0298	241.699	80.6606	241.699	80.5547	241.699	80.1476	241.699	79.9615	241.699	79.5511	241.699	79.2542	241.699	78.8939	241.699	78.4552	241.699	78.2255	241.699	77.6248	241.699	77.6324	241.699	76.8823	241.699	77.2294	241.699	76.3994	241.699	77.1107	241.699	76.3179	241.699	77.2839	241.699	76.6312	241.699	77.6558	241.699	77.1817	241.699	78.0895	241.699	77.7783	241.699	78.4659	241.699	78.2832	241.699	78.7054	241.699	78.622	241.699	78.7638
250.488	81.8462	250.488	81.7401	250.488	81.8523	250.488	81.5353	250.488	81.7572	250.488	81.234	250.488	81.5598	250.488	80.8394	250.488	81.2591	250.488	80.3569	250.488	80.8541	250.488	79.7962	250.488	80.3456	250.488	79.1751	250.488	79.7386	250.488	78.5259	250.488	79.0478	250.488	77.9017	250.488	78.3068	250.488	77.3774	250.488	77.5788	250.488	77.0331	250.488	76.962	250.488	76.9176	250.488	76.5694	250.488	77.0152	250.488	76.4712	250.488	77.2496	250.488	76.6428	250.488	77.5211	250.488	76.9763	250.488	77.7423	250.488	77.3437	250.488	77.8535	250.488	77.6453	250.488	77.8229
259.277	82.2863	259.277	82.2096	259.277	82.2763	259.277	82.0443	259.277	82.1799	259.277	81.7876	259.277	81.9961	259.277	81.4353	259.277	81.7216	259.277	80.983	259.277	81.3518	259.277	80.4271	259.277	80.8811	259.277	79.7695	259.277	80.3067	259.277	79.0246	259.277	79.6341	259.277	78.2329	259.277	78.8871	259.277	77.4759	259.277	78.1219	259.277	76.8773	259.277	77.4368	259.277	76.5624	259.277	76.9566	259.277	76.5757	259.277	76.7729	259.277	76.8395	259.277	76.8757	259.277	77.2074	259.277	77.1554	259.277	77.5445	259.277	77.4726	259.277	77.7636	259.277	77.717	259.277	77.823
268.066	82.256	268.066	82.1983	268.066	82.2278	268.066	82.0536	268.066	82.1149	268.066	81.8221	268.066	81.9192	268.066	81.5048	268.066	81.6426	268.066	81.1043	268.066	81.2875	268.066	80.6268	268.066	80.8582	268.066	80.0853	268.066	80.3643	268.066	79.5062	268.066	79.8269	268.066	78.9364	268.066	79.2866	268.066	78.4474	268.066	78.8077	268.066	78.124	268.066	78.4693	268.066	78.0291	268.066	78.3341	268.066	78.1628	268.066	78.4103	268.066	78.4562	268.066	78.6411	268.066	78.8075	268.066	78.9345	268.066	79.1245	268.066	79.2021	268.066	79.3438	268.066	79.3803	268.066	79.4319
276.855	82.4463	276.855	82.3704	276.855	82.4249	276.855	82.195	276.855	82.3065	276.855	81.9165	276.855	82.0898	276.855	81.5297	276.855	81.7717	276.855	81.0281	276.855	81.347	276.855	80.4069	276.855	80.8098	276.855	79.6687	276.855	80.1575	276.855	78.8361	276.855	79.3998	276.855	77.9739	276.855	78.5755	276.855	77.2129	276.855	77.7772	276.855	76.7396	276.855	77.1632	276.855	76.6972	276.855	76.9069	276.855	77.0576	276.855	77.0701	276.855	77.6383	276.855	77.5371	276.855	78.2392	276.855	78.1076	276.855	78.7243	276.855	78.6158	276.855	79.0228	276.855	78.9634	276.855	79.1043
287.109	82.6079	287.109	82.5867	287.109	82.5312	287.109	82.4603	287.109	82.3645	287.109	82.2209	287.109	82.1165	287.109	81.8603	287.109	81.7958	287.109	81.3688	287.109	81.4097	287.109	80.7372	287.109	80.9633	287.109	79.9611	287.109	80.4595	287.109	79.0515	287.109	79.9026	287.109	78.0569	287.109	79.3063	287.109	77.0968	287.109	78.7052	287.109	76.3796	287.109	78.1665	287.109	76.123	287.109	77.7836	287.109	76.3704	287.109	77.6367	287.109	76.9361	287.109	77.7347	287.109	77.5721	287.109	77.9968	287.109	78.1056	287.109	78.297	287.109	78.4522	287.109	78.5201	287.109	78.5865
297.363	82.7665	297.363	82.7409	297.363	82.7026	297.363	82.6294	297.363	82.542	297.363	82.4314	297.363	82.2751	297.363	82.1398	297.363	81.8903	297.363	81.7408	297.363	81.3755	297.363	81.2147	297.363	80.7203	297.363	80.5401	297.363	79.9237	297.363	79.7037	297.363	79.0076	297.363	78.7204	297.363	78.0425	297.363	77.67	297.363	77.1753	297.363	76.7431	297.363	76.6167	297.363	76.2194	297.363	76.5227	297.363	76.2708	297.363	76.8503	297.363	76.7725	297.363	77.3951	297.363	77.4361	297.363	77.95	297.363	78.035	297.363	78.383	297.363	78.4553	297.363	78.628	297.363	78.6555
307.617	82.3094	307.617	82.2685	307.617	82.2738	307.617	82.1546	307.617	82.1591	307.617	81.9703	307.617	81.9622	307.617	81.7162	307.617	81.6791	307.617	81.3889	307.617	81.3031	307.617	80.9805	307.617	80.8247	307.617	80.4807	307.617	80.2342	307.617	79.8838	307.617	79.5312	307.617	79.2009	307.617	78.7418	307.617	78.4813	307.617	77.9476	307.617	77.8331	307.617	77.3066	307.617	77.415	307.617	77.0131	307.617	77.3555	307.617	77.1569	307.617	77.6412	307.617	77.6265	307.617	78.1171	307.617	78.2025	307.617	78.5982	307.617	78.7001	307.617	78.95	307.617	79.0136	307.617	79.0984
319.336	82.0204	319.336	81.9421	319.336	82.0158	319.336	81.7847	319.336	81.9258	319.336	81.5523	319.336	81.7484	319.336	81.2476	319.336	81.4794	319.336	80.8676	319.336	81.1096	319.336	80.4026	319.336	80.6233	319.336	79.8382	319.336	79.9998	319.336	79.1647	319.336	79.2218	319.336	78.3975	319.336	78.2947	319.336	77.61	319.336	77.2878	319.336	76.9648	319.336	76.3955	319.336	76.6806	319.336	75.9364	319.336	76.8733	319.336	76.1272	319.336	77.4256	319.336	76.8211	319.336	78.0902	319.336	77.6682	319.336	78.6595	319.336	78.4017	319.336	79.0145	319.336	78.8936	319.336	79.0995
329.59	82.2442	329.59	82.1049	329.59	82.2781	329.59	81.8629	329.59	82.209	329.59	81.5257	329.59	82.0424	329.59	81.1045	329.59	81.7834	329.59	80.6097	329.59	81.4325	329.59	80.0486	329.59	80.9813	329.59	79.4236	329.59	80.4123	329.59	78.7399	329.59	79.7038	329.59	78.024	329.59	78.8462	329.59	77.3534	329.59	77.8767	329.59	76.8777	329.59	76.9373	329.59	76.7694	329.59	76.3147	329.59	77.0854	329.59	76.2973	329.59	77.6897	329.59	76.8635	329.59	78.3581	329.59	77.6898	329.59	78.9074	329.59	78.4621	329.59	79.2292	329.59	79.0105	329.59	79.2701
341.309	82.7505	341.309	82.6465	341.309	82.7268	341.309	82.4122	341.309	82.5785	341.309	82.0455	341.309	82.3095	341.309	81.5445	341.309	81.9238	341.309	80.9073	341.309	81.4245	341.309	80.1323	341.309	80.8142	341.309	79.2225	341.309	80.0962	341.309	78.1986	341.309	79.2794	341.309	77.128	341.309	78.3916	341.309	76.1731	341.309	77.5032	341.309	75.6038	341.309	76.7551	341.309	75.6446	341.309	76.3457	341.309	76.2317	341.309	76.4118	341.309	77.0642	341.309	76.8892	341.309	77.8618	341.309	77.5558	341.309	78.4659	341.309	78.1909	341.309	78.8086	341.309	78.6528	341.309	78.869
353.027	83.4021	353.027	83.3339	353.027	83.3576	353.027	83.1478	353.027	83.2044	353.027	82.8372	353.027	82.9456	353.027	82.391	353.027	82.5809	353.027	81.7899	353.027	82.1033	353.027	81.0031	353.027	81.4967	353.027	79.9848	353.027	80.7348	353.027	78.6747	353.027	79.7854	353.027	77.0111	353.027	78.6255	353.027	75.0052	353.027	77.283	353.027	73.0347	353.027	75.9325	353.027	72.2855	353.027	75.0109	353.027	73.4189	353.027	75.004	353.027	75.2389	353.027	75.8201	353.027	76.8086	353.027	76.9035	353.027	77.9024	353.027	77.8405	353.027	78.5193	353.027	78.4577	353.027	78.694
366.211	82.6094	366.211	82.645	366.211	82.4833	366.211	82.5896	366.211	82.2698	366.211	82.4434	366.211	81.9747	366.211	82.2031	366.211	81.6043	366.211	81.8591	366.211	81.1612	366.211	81.3929	366.211	80.6398	366.211	80.7766	366.211	80.0257	366.211	79.9759	366.211	79.3015	366.211	78.9585	366.211	78.4647	366.211	77.7158	366.211	77.5607	366.211	76.3203	366.211	76.7258	366.211	75.0382	366.211	76.1884	366.211	74.3721	366.211	76.1314	366.211	74.6386	366.211	76.4968	366.211	75.5115	366.211	77.0284	366.211	76.463	366.211	77.4784	366.211	77.1968	366.211	77.6974	366.211	77.6127
379.395	82.5917	379.395	82.4849	379.395	82.6017	379.395	82.2914	379.395	82.5087	379.395	82.0223	379.395	82.3087	379.395	81.6847	379.395	81.9964	379.395	81.2738	379.395	81.5591	379.395	80.7674	379.395	80.9718	379.395	80.1255	379.395	80.1922	379.395	79.2965	379.395	79.1605	379.395	78.2334	379.395	77.8045	379.395	76.9305	379.395	76.0699	379.395	75.5168	379.395	74.0523	379.395	74.4134	379.395	72.4067	379.395	74.2279	379.395	72.391	379.395	75.0033	379.395	73.8671	379.395	76.1257	379.395	75.5422	379.395	77.0918	379.395	76.817	379.395	77.6956	379.395	77.5877	379.395	77.8709
392.578	82.4326	392.578	82.3343	392.578	82.4336	392.578	82.1453	392.578	82.3372	392.578	81.8767	392.578	82.1472	392.578	81.5403	392.578	81.8674	392.578	81.14	392.578	81.4957	392.578	80.6643	392.578	81.0193	392.578	80.0814	392.578	80.4123	392.578	79.343	392.578	79.6375	392.578	78.3963	392.578	78.6559	392.578	77.2136	392.578	77.4514	392.578	75.8606	392.578	76.0902	392.578	74.6294	392.578	74.8386	392.578	74.0737	392.578	74.2036	392.578	74.4787	392.578	74.4917	392.578	75.4133	392.578	75.3518	392.578	76.316	392.578	76.2421	392.578	76.9046	392.578	76.8587	392.578	77.0898
405.762	82.6209	405.762	82.5072	405.762	82.6192	405.762	82.2793	405.762	82.5113	405.762	81.9486	405.762	82.314	405.762	81.5317	405.762	82.0449	405.762	81.0412	405.762	81.7113	405.762	80.4746	405.762	81.3002	405.762	79.8065	405.762	80.7732	405.762	78.991	405.762	80.0706	405.762	77.9816	405.762	79.1253	405.762	76.7816	405.762	77.8928	405.762	75.5515	405.762	76.4309	405.762	74.7431	405.762	75.0852	405.762	74.8691	405.762	74.5826	405.762	75.8102	405.762	75.2627	405.762	76.9663	405.762	76.493	405.762	77.9151	405.762	77.6094	405.762	78.4902	405.762	78.3455	405.762	78.6395
420.41	82.958	420.41	82.9186	420.41	82.8767	420.41	82.7584	420.41	82.6833	420.41	82.4843	420.41	82.3925	420.41	82.1076	420.41	82.0205	420.41	81.6367	420.41	81.5774	420.41	81.0679	420.41	81.0589	420.41	80.3762	420.41	80.4401	420.41	79.5111	420.41	79.6771	420.41	78.403	420.41	78.7169	420.41	76.9894	420.41	77.522	420.41	75.2992	420.41	76.1261	420.41	73.69	420.41	74.7618	420.41	73.0549	420.41	73.9718	420.41	73.8326	420.41	74.2063	420.41	75.1834	420.41	75.1507	420.41	76.3291	420.41	76.1702	420.41	77.0123	420.41	76.8976	420.41	77.1952
435.059	82.5322	435.059	82.4761	435.059	82.4667	435.059	82.303	435.059	82.2826	435.059	82.0222	435.059	81.9922	435.059	81.6411	435.059	81.6136	435.059	81.1594	435.059	81.164	435.059	80.5616	435.059	80.6475	435.059	79.8142	435.059	80.0442	435.059	78.8658	435.059	79.3072	435.059	77.655	435.059	78.3727	435.059	76.1392	435.059	77.1915	435.059	74.3939	435.059	75.8045	435.059	72.89	435.059	74.5096	435.059	72.5991	435.059	73.9612	435.059	73.7157	435.059	74.5293	435.059	75.2558	435.059	75.6764	435.059	76.5273	435.059	76.7396	435.059	77.3263	435.059	77.4176	435.059	77.6211
451.172	81.718	451.172	81.6786	451.172	81.6273	451.172	81.52	451.172	81.4133	451.172	81.2653	451.172	81.0995	451.172	80.9378	451.172	80.7176	451.172	80.5442	451.172	80.2897	451.172	80.0593	451.172	79.8078	451.172	79.4189	451.172	79.2204	451.172	78.5237	451.172	78.4349	451.172	77.2428	451.172	77.3314	451.172	75.4191	451.172	75.7891	451.172	72.9366	451.172	73.7816	451.172	70.2781	451.172	71.7979	451.172	69.9281	451.172	71.4329	451.172	72.3164	451.172	73.096	451.172	74.7379	451.172	75.0913	451.172	76.4167	451.172	76.5804	451.172	77.3797	451.172	77.4462	451.172	77.7101
465.82	82.5146	465.82	82.4013	465.82	82.5018	465.82	82.1799	465.82	82.366	465.82	81.889	465.82	82.1279	465.82	81.578	465.82	81.8174	465.82	81.2852	465.82	81.4599	465.82	81.0098	465.82	81.0591	465.82	80.6975	465.82	80.5831	465.82	80.2497	465.82	79.9606	465.82	79.5464	465.82	79.0884	465.82	78.4647	465.82	77.8428	465.82	76.9023	465.82	76.1067	465.82	74.8786	465.82	73.8981	465.82	72.9434	465.82	71.9268	465.82	72.5494	465.82	71.9389	465.82	73.8957	465.82	73.6887	465.82	75.4689	465.82	75.4149	465.82	76.503	465.82	76.4919	465.82	76.8503
483.398	83.9791	483.398	83.8562	483.398	83.9284	483.398	83.5663	483.398	83.7179	483.398	83.1393	483.398	83.3806	483.398	82.6281	483.398	82.9639	483.398	82.0982	483.398	82.5164	483.398	81.5989	483.398	82.0635	483.398	81.1243	483.398	81.5823	483.398	80.5943	483.398	80.9958	483.398	79.8741	483.398	80.1885	483.398	78.8105	483.398	79.0314	483.398	77.2775	483.398	77.4187	483.398	75.3109	483.398	75.3949	483.398	73.5926	483.398	73.6159	483.398	73.6227	483.398	73.5478	483.398	75.204	483.398	75.0749	483.398	76.8057	483.398	76.6906	483.398	77.8088	483.398	77.7439	483.398	78.1205
499.512	83.3373	499.512	83.2647	499.512	83.2383	499.512	83.0319	499.512	82.98	499.512	82.6721	499.512	82.5999	499.512	82.2336	499.512	82.1564	499.512	81.7638	499.512	81.7112	499.512	81.2822	499.512	81.2942	499.512	80.7547	499.512	80.8731	499.512	80.0906	499.512	80.3523	499.512	79.164	499.512	79.6044	499.512	77.848	499.512	78.5104	499.512	76.0915	499.512	77.0285	499.512	74.2064	499.512	75.3974	499.512	73.4135	499.512	74.5021	499.512	74.5732	499.512	75.1797	499.512	76.4291	499.512	76.6981	499.512	77.9391	499.512	78.059	499.512	78.8582	499.512	78.9066	499.512	79.1761
517.09	84.1391	517.09	83.9835	517.09	84.0749	517.09	83.6201	517.09	83.7979	517.09	83.0831	517.09	83.3341	517.09	82.433	517.09	82.7316	517.09	81.7498	517.09	82.0593	517.09	81.1004	517.09	81.3865	517.09	80.4857	517.09	80.7391	517.09	79.807	517.09	80.0554	517.09	78.8822	517.09	79.1795	517.09	77.48	517.09	77.8864	517.09	75.3495	517.09	75.8984	517.09	72.4503	517.09	72.9601	517.09	70.5837	517.09	69.9473	517.09	72.6185	517.09	71.0738	517.09	75.4973	517.09	74.3938	517.09	77.4813	517.09	76.8298	517.09	78.5404	517.09	78.2379	517.09	78.7834
536.133	84.0908	536.133	83.9625	536.133	83.9911	536.133	83.6157	536.133	83.6742	536.133	83.0852	536.133	83.1757	536.133	82.4422	536.133	82.5657	536.133	81.7986	536.133	81.9499	536.133	81.272	536.133	81.4353	536.133	80.9023	536.133	81.0547	536.133	80.5876	536.133	80.7134	536.133	80.1151	536.133	80.218	536.133	79.2336	536.133	79.3398	536.133	77.6754	536.133	77.8386	536.133	75.135	536.133	75.4664	536.133	71.5517	536.133	72.2775	536.133	69.8814	536.133	70.7225	536.133	72.834	536.133	73.1101	536.133	75.6384	536.133	75.7026	536.133	77.2102	536.133	77.2225	536.133	77.7088
555.176	83.2167	555.176	83.0899	555.176	83.0686	555.176	82.6934	555.176	82.6569	555.176	82.0557	555.176	82.0155	555.176	81.2476	555.176	81.217	555.176	80.4013	555.176	80.3886	555.176	79.6855	555.176	79.6914	555.176	79.1952	555.176	79.221	555.176	78.8382	555.176	78.9004	555.176	78.3738	555.176	78.5039	555.176	77.5349	555.176	77.7734	555.176	76.091	555.176	76.4972	555.176	73.922	555.176	74.6077	555.176	71.5975	555.176	72.6648	555.176	71.5166	555.176	72.5065	555.176	73.788	555.176	74.3167	555.176	75.9244	555.176	76.175	555.176	77.2197	555.176	77.3223	555.176	77.6719
574.219	84.2647	574.219	84.0652	574.219	84.2083	574.219	83.6145	574.219	83.8886	574.219	82.9231	574.219	83.3012	574.219	82.0288	574.219	82.4641	574.219	81.0316	574.219	81.456	574.219	80.1132	574.219	80.4561	574.219	79.4619	574.219	79.7036	574.219	79.0814	574.219	79.2869	574.219	78.7155	574.219	78.9807	574.219	77.9887	574.219	78.3822	574.219	76.5071	574.219	77.0723	574.219	73.7858	574.219	74.5555	574.219	69.3797	574.219	70.1242	574.219	68.147	574.219	66.9867	574.219	72.8354	574.219	71.9664	574.219	76.103	574.219	75.698	574.219	77.7963	574.219	77.6328	574.219	78.2771
594.727	81.878	594.727	81.725	594.727	81.8068	594.727	81.3379	594.727	81.5153	594.727	80.708	594.727	81.0042	594.727	79.8495	594.727	80.2875	594.727	78.8405	594.727	79.4227	594.727	77.8732	594.727	78.5465	594.727	77.2164	594.727	77.8527	594.727	76.9721	594.727	77.4356	594.727	76.8791	594.727	77.1276	594.727	76.4847	594.727	76.5645	594.727	75.3328	594.727	75.3272	594.727	72.8591	594.727	72.8982	594.727	67.896	594.727	68.4178	594.727	61.8886	594.727	64.0419	594.727	69.1378	594.727	69.42	594.727	73.5011	594.727	73.4863	594.727	75.5641	594.727	75.5294	594.727	76.1703
615.234	84.0716	615.234	83.9791	615.234	83.9486	615.234	83.6539	615.234	83.6044	615.234	83.0562	615.234	83.0128	615.234	82.1319	615.234	82.1353	615.234	80.8428	615.234	80.9468	615.234	79.2631	615.234	79.5119	615.234	77.8008	615.234	78.147	615.234	77.2147	615.234	77.4582	615.234	77.6153	615.234	77.6504	615.234	78.1413	615.234	78.0731	615.234	78.0491	615.234	77.9982	615.234	76.9236	615.234	76.9754	615.234	74.4331	615.234	74.6887	615.234	70.9869	615.234	71.5095	615.234	71.458	615.234	71.5842	615.234	74.9101	615.234	74.7878	615.234	77.0757	615.234	76.987	615.234	77.7313
637.207	85.0353	637.207	84.9974	637.207	84.966	637.207	84.8385	637.207	84.7854	637.207	84.5251	637.207	84.4704	637.207	84.005	637.207	83.9775	637.207	83.2152	637.207	83.2485	637.207	82.1032	637.207	82.232	637.207	80.6742	637.207	80.9317	637.207	79.0842	637.207	79.4837	637.207	77.7067	637.207	78.1871	637.207	76.8227	637.207	77.2445	637.207	76.0701	637.207	76.3541	637.207	74.6262	637.207	74.8282	637.207	71.5978	637.207	71.9565	637.207	67.3845	637.207	68.6031	637.207	70.4071	637.207	71.158	637.207	74.8437	637.207	75.0832	637.207	77.1983	637.207	77.275	637.207	77.9425
659.18	84.3216	659.18	84.2321	659.18	84.2345	659.18	83.9768	659.18	83.9819	659.18	83.5784	659.18	83.591	659.18	83.0537	659.18	83.0894	659.18	82.4049	659.18	82.4897	659.18	81.636	659.18	81.794	659.18	80.7932	659.18	81.0235	659.18	79.9882	659.18	80.2447	659.18	79.3282	659.18	79.5403	659.18	78.7514	659.18	78.8942	659.18	77.963	659.18	78.0886	659.18	76.5303	659.18	76.7242	659.18	73.9545	659.18	74.2741	659.18	70.1532	659.18	70.3878	659.18	69.7163	659.18	69.0853	659.18	73.4243	659.18	72.9557	659.18	75.8409	659.18	75.6469	659.18	76.5528
682.617	85.1532	682.617	84.9602	682.617	85.0061	682.617	84.4382	682.617	84.5291	682.617	83.628	682.617	83.7529	682.617	82.6127	682.617	82.7335	682.617	81.5227	682.617	81.5663	682.617	80.5074	682.617	80.4045	682.617	79.6686	682.617	79.4487	682.617	79.0131	682.617	78.8324	682.617	78.4614	682.617	78.4572	682.617	77.8553	682.617	78.0032	682.617	76.9318	682.617	77.0911	682.617	75.3125	682.617	75.3575	682.617	72.5602	682.617	72.5034	682.617	69.2302	682.617	69.5168	682.617	70.3417	682.617	70.9411	682.617	73.8549	682.617	74.1666	682.617	76.0248	682.617	76.1456	682.617	76.7489
707.52	83.6312	707.52	83.5192	707.52	83.5027	707.52	83.1651	707.52	83.1326	707.52	82.5609	707.52	82.517	707.52	81.6905	707.52	81.6485	707.52	80.5406	707.52	80.5201	707.52	79.1377	707.52	79.1448	707.52	77.6188	707.52	77.611	707.52	76.2755	707.52	76.1699	707.52	75.3616	707.52	75.1742	707.52	74.7082	707.52	74.6285	707.52	73.7481	707.52	73.953	707.52	71.7824	707.52	72.3494	707.52	67.8773	707.52	68.8594	707.52	63.2553	707.52	63.4662	707.52	68.3481	707.52	67.5255	707.52	72.7136	707.52	72.3101	707.52	74.8727	707.52	74.7035	707.52	75.4799
732.422	81.9879	732.422	81.8149	732.422	81.8825	732.422	81.3754	732.422	81.4937	732.422	80.6848	732.422	80.83	732.422	79.7676	732.422	79.9223	732.422	78.6721	732.422	78.8331	732.422	77.4888	732.422	77.664	732.422	76.3583	732.422	76.5551	732.422	75.4376	732.422	75.6497	732.422	74.7979	732.422	74.9961	732.422	74.3017	732.422	74.4467	732.422	73.5922	732.422	73.6673	732.422	72.1772	732.422	72.1998	732.422	69.4139	732.422	69.3806	732.422	64.4918	732.422	63.9421	732.422	62.6473	732.422	60.455	732.422	67.6243	732.422	66.8957	732.422	70.448	732.422	70.206	732.422	71.2334
757.324	81.5259	757.324	81.3546	757.324	81.4272	757.324	80.8974	757.324	81.0627	757.324	80.1346	757.324	80.4142	757.324	79.0479	757.324	79.4366	757.324	77.6391	757.324	78.0752	757.324	76.0101	757.324	76.3415	757.324	74.5484	757.324	74.5373	757.324	73.9101	757.324	73.5019	757.324	74.172	757.324	73.7324	757.324	74.5643	757.324	74.361	757.324	74.366	757.324	74.4043	757.324	73.073	757.324	73.2906	757.324	69.9547	757.324	70.3646	757.324	62.8788	757.324	63.9443	757.324	61.8025	757.324	61.4904	757.324	69.2727	757.324	68.8385	757.324	72.2936	757.324	72.0655	757.324	73.0736
785.156	79.5519	785.156	79.4537	785.156	79.4973	785.156	79.215	785.156	79.287	785.156	78.8315	785.156	78.9259	785.156	78.2524	785.156	78.3977	785.156	77.3697	785.156	77.6316	785.156	76.0347	785.156	76.4942	785.156	74.0899	785.156	74.8178	785.156	71.4862	785.156	72.4902	785.156	68.8021	785.156	69.7817	785.156	67.7041	785.156	67.9521	785.156	67.9327	785.156	67.6632	785.156	67.2935	785.156	67.1445	785.156	64.169	785.156	64.5933	785.156	55.871	785.156	57.1337	785.156	62.1931	785.156	59.7659	785.156	68.1776	785.156	67.111	785.156	70.7578	785.156	70.3055	785.156	71.3802
811.523	80.5644	811.523	80.4103	811.523	80.4895	811.523	80.0393	811.523	80.2007	811.523	79.4862	811.523	79.7244	811.523	78.7819	811.523	79.0741	811.523	77.918	811.523	78.2276	811.523	76.8265	811.523	77.1265	811.523	75.3973	811.523	75.7112	811.523	73.5535	811.523	74.0118	811.523	71.4549	811.523	72.3088	811.523	69.7781	811.523	71.0996	811.523	69.0175	811.523	70.3877	811.523	68.2176	811.523	69.3431	811.523	65.8223	811.523	66.8474	811.523	59.0049	811.523	60.7153	811.523	53.8017	811.523	51.0777	811.523	64.7702	811.523	64.0094	811.523	68.3351	811.523	68.0346	811.523	69.2327
840.82	81.9169	840.82	81.7044	840.82	81.8609	840.82	81.2381	840.82	81.5376	840.82	80.545	840.82	80.9528	840.82	79.6449	840.82	80.0991	840.82	78.5299	840.82	78.9475	840.82	77.1753	840.82	77.464	840.82	75.6042	840.82	75.6858	840.82	74.0176	840.82	73.9166	840.82	72.8932	840.82	72.8646	840.82	72.5828	840.82	72.8553	840.82	72.6381	840.82	73.1093	840.82	72.1923	840.82	72.7049	840.82	70.4473	840.82	70.9542	840.82	66.2253	840.82	66.739	840.82	55.319	840.82	53.9436	840.82	62.1096	840.82	61.2477	840.82	67.4588	840.82	67.3188	840.82	68.7986
870.117	85.5104	870.117	85.3291	870.117	85.3768	870.117	84.8511	870.117	84.947	870.117	84.1261	870.117	84.2738	870.117	83.213	870.117	83.431	870.117	82.1382	870.117	82.4819	870.117	80.865	870.117	81.4363	870.117	79.3226	870.117	80.2279	870.117	77.5279	870.117	78.7628	870.117	75.8031	870.117	77.0867	870.117	74.7969	870.117	75.6434	870.117	74.6086	870.117	74.9945	870.117	74.3644	870.117	74.6997	870.117	73.0991	870.117	73.6115	870.117	69.7659	870.117	70.5455	870.117	60.9211	870.117	62.4822	870.117	59.4015	870.117	58.0717	870.117	67.7682	870.117	67.5899	870.117	69.534
900.879	85.111	900.879	84.9238	900.879	84.9734	900.879	84.4319	900.879	84.5134	900.879	83.6736	900.879	83.7585	900.879	82.7034	900.879	82.7541	900.879	81.5861	900.879	81.5484	900.879	80.3766	900.879	80.1871	900.879	79.0982	900.879	78.7341	900.879	77.7691	900.879	77.3124	900.879	76.5065	900.879	76.1496	900.879	75.5762	900.879	75.5252	900.879	75.0885	900.879	75.4109	900.879	74.6076	900.879	75.2211	900.879	73.3447	900.879	74.1387	900.879	70.2965	900.879	71.2355	900.879	63.2458	900.879	64.8061	900.879	61.0115	900.879	62.3079	900.879	68.014	900.879	68.2908	900.879	69.8633
933.105	83.9431	933.105	83.7816	933.105	83.7646	933.105	83.2923	933.105	83.2755	933.105	82.5254	933.105	82.5372	933.105	81.5397	933.105	81.6199	933.105	80.3482	933.105	80.5567	933.105	78.8892	933.105	79.2885	933.105	77.076	933.105	77.659	933.105	74.9414	933.105	75.5441	933.105	73.013	933.105	73.3375	933.105	72.505	933.105	72.5381	933.105	73.3457	933.105	73.3274	933.105	73.9056	933.105	73.8022	933.105	73.0626	933.105	72.8178	933.105	69.8596	933.105	69.4436	933.105	62.2645	933.105	61.0798	933.105	64.3725	933.105	63.811	933.105	69.7445	933.105	69.5909	933.105	71.1275
965.332	83.4181	965.332	83.1964	965.332	83.2628	965.332	82.637	965.332	82.7415	965.332	81.8249	965.332	81.9224	965.332	80.8752	965.332	80.9219	965.332	79.8691	965.332	79.8461	965.332	78.7631	965.332	78.705	965.332	77.385	965.332	77.3868	965.332	75.5663	965.332	75.7262	965.332	73.4275	965.332	73.6941	965.332	71.9035	965.332	71.943	965.332	71.9908	965.332	71.7506	965.332	72.55	965.332	72.3787	965.332	72.0266	965.332	72.0142	965.332	69.3391	965.332	69.4916	965.332	62.2749	965.332	62.5418	965.332	59.5858	965.332	55.962	965.332	66.5843	965.332	65.8244	965.332	68.0756
1000.49	83.2513	1000.49	82.9998	1000.49	83.0597	1000.49	82.3116	1000.49	82.4536	1000.49	81.2435	1000.49	81.4885	1000.49	79.9129	1000.49	80.2552	1000.49	78.4763	1000.49	78.8895	1000.49	77.0492	1000.49	77.5073	1000.49	75.6136	1000.49	76.0469	1000.49	74.0691	1000.49	74.2613	1000.49	72.5813	1000.49	72.1597	1000.49	71.9925	1000.49	70.8977	1000.49	72.648	1000.49	71.48	1000.49	73.2767	1000.49	72.2523	1000.49	72.666	1000.49	71.7702	1000.49	69.8237	1000.49	69.1516	1000.49	61.9525	1000.49	61.9247	1000.49	60.6851	1000.49	59.4731	1000.49	68.2191	1000.49	67.7307	1000.49	69.8193
1035.64	83.3214	1035.64	82.9869	1035.64	83.1773	1035.64	82.1892	1035.64	82.5628	1035.64	80.993	1035.64	81.5258	1035.64	79.5576	1035.64	80.1988	1035.64	78.1147	1035.64	78.7983	1035.64	76.7789	1035.64	77.4626	1035.64	75.3544	1035.64	76.0374	1035.64	73.42	1035.64	74.1418	1035.64	70.6269	1035.64	71.4753	1035.64	68.1002	1035.64	68.7775	1035.64	69.3365	1035.64	69.2048	1035.64	71.5097	1035.64	71.4908	1035.64	71.8994	1035.64	72.5158	1035.64	69.755	1035.64	71.2774	1035.64	63.1342	1035.64	66.2129	1035.64	60.8114	1035.64	57.894	1035.64	68.1404	1035.64	67.3616	1035.64	69.8225
1072.27	83.853	1072.27	83.6249	1072.27	83.6966	1072.27	83.0254	1072.27	83.156	1072.27	82.0658	1072.27	82.2517	1072.27	80.7523	1072.27	81.027	1072.27	79.1343	1072.27	79.5591	1072.27	77.3857	1072.27	77.9764	1072.27	75.7508	1072.27	76.4143	1072.27	74.241	1072.27	74.8379	1072.27	72.5506	1072.27	72.9479	1072.27	70.537	1072.27	70.6884	1072.27	69.0108	1072.27	69.6713	1072.27	69.0626	1072.27	70.8057	1072.27	69.2093	1072.27	71.2924	1072.27	67.1713	1072.27	69.2183	1072.27	59.5563	1072.27	61.8354	1072.27	62.6556	1072.27	62.4705	1072.27	69.2749	1072.27	69.3472	1072.27	71.0053
1108.89	84.6682	1108.89	84.447	1108.89	84.4993	1108.89	83.8177	1108.89	83.9383	1108.89	82.767	1108.89	82.9775	1108.89	81.3469	1108.89	81.6554	1108.89	79.7349	1108.89	80.1293	1108.89	78.1787	1108.89	78.6684	1108.89	76.7349	1108.89	77.3996	1108.89	75.0853	1108.89	76.0513	1108.89	72.6603	1108.89	74.1695	1108.89	69.0772	1108.89	71.6674	1108.89	67.5822	1108.89	70.0569	1108.89	70.5198	1108.89	70.9811	1108.89	71.9379	1108.89	71.7681	1108.89	70.2136	1108.89	70.1644	1108.89	62.7721	1108.89	63.438	1108.89	63.1139	1108.89	60.5508	1108.89	70.0858	1108.89	69.3403	1108.89	71.5331
1148.44	84.41	1148.44	84.1555	1148.44	84.3091	1148.44	83.5876	1148.44	83.8145	1148.44	82.7041	1148.44	82.9317	1148.44	81.462	1148.44	81.7187	1148.44	79.8733	1148.44	80.2609	1148.44	78.1147	1148.44	78.6402	1148.44	76.4728	1148.44	76.9675	1148.44	75.075	1148.44	75.3959	1148.44	73.7808	1148.44	73.8368	1148.44	72.4202	1148.44	71.9162	1148.44	71.3569	1148.44	70.3215	1148.44	71.4717	1148.44	70.8892	1148.44	71.8367	1148.44	71.7595	1148.44	70.3535	1148.44	70.6145	1148.44	64.1568	1148.44	65.5109	1148.44	55.792	1148.44	48.5419	1148.44	67.5791	1148.44	66.3533	1148.44	69.3906
1189.45	84.2601	1189.45	84.092	1189.45	84.0606	1189.45	83.54	1189.45	83.5531	1189.45	82.6555	1189.45	82.7856	1189.45	81.5332	1189.45	81.7533	1189.45	80.2392	1189.45	80.4339	1189.45	78.7563	1189.45	78.8735	1189.45	77.0402	1189.45	77.1897	1189.45	75.1009	1189.45	75.3925	1189.45	72.8388	1189.45	73.2322	1189.45	69.751	1189.45	70.4272	1189.45	66.307	1189.45	67.8925	1189.45	67.4346	1189.45	68.4537	1189.45	69.4675	1189.45	69.8504	1189.45	68.4539	1189.45	68.9006	1189.45	61.4925	1189.45	62.5163	1189.45	59.6907	1189.45	58.3012	1189.45	68.8894	1189.45	68.7433	1189.45	70.8944
1230.47	83.7358	1230.47	83.4692	1230.47	83.6013	1230.47	82.8341	1230.47	83.056	1230.47	81.8895	1230.47	82.1197	1230.47	80.7032	1230.47	80.8667	1230.47	79.3388	1230.47	79.4363	1230.47	77.8762	1230.47	77.9697	1230.47	76.3849	1230.47	76.4815	1230.47	74.8357	1230.47	74.8263	1230.47	73.1227	1230.47	72.7978	1230.47	71.0334	1230.47	70.1149	1230.47	68.3595	1230.47	67.0783	1230.47	67.0146	1230.47	67.4345	1230.47	68.4435	1230.47	69.8002	1230.47	68.2645	1230.47	69.8801	1230.47	63.0515	1230.47	65.778	1230.47	53.4699	1230.47	36.7793	1230.47	66.6206	1230.47	65.6709	1230.47	68.7556
1274.41	82.4348	1274.41	82.2887	1274.41	82.2713	1274.41	81.7866	1274.41	81.8045	1274.41	80.89	1274.41	81.0073	1274.41	79.6356	1274.41	79.871	1274.41	78.2066	1274.41	78.4564	1274.41	76.9159	1274.41	76.9267	1274.41	75.8958	1274.41	75.4931	1274.41	74.8661	1274.41	74.1873	1274.41	73.4091	1274.41	72.754	1274.41	71.089	1274.41	70.7875	1274.41	67.7223	1274.41	67.9801	1274.41	66.4194	1274.41	66.6484	1274.41	68.2179	1274.41	68.7441	1274.41	67.8709	1274.41	69.1289	1274.41	62.571	1274.41	65.0472	1274.41	57.4435	1274.41	53.4315	1274.41	66.8809	1274.41	66.1018	1274.41	68.8545
1319.82	81.5983	1319.82	81.4083	1319.82	81.555	1319.82	80.9841	1319.82	81.2583	1319.82	80.2744	1319.82	80.6351	1319.82	79.132	1319.82	79.5613	1319.82	77.4007	1319.82	78.0237	1319.82	75.2423	1319.82	76.3849	1319.82	73.3596	1319.82	75.1951	1319.82	72.036	1319.82	74.3492	1319.82	70.8414	1319.82	73.2758	1319.82	69.9147	1319.82	71.4538	1319.82	68.9152	1319.82	68.2219	1319.82	67.7313	1319.82	65.0464	1319.82	68.3531	1319.82	66.728	1319.82	68.7811	1319.82	67.6755	1319.82	66.118	1319.82	65.4635	1319.82	59.9072	1319.82	59.5097	1319.82	61.5762	1319.82	59.4779	1319.82	62.9321
1366.7	84.4319	1366.7	84.1411	1366.7	84.3006	1366.7	83.4917	1366.7	83.7523	1366.7	82.5251	1366.7	82.862	1366.7	81.1968	1366.7	81.7084	1366.7	79.4649	1366.7	80.298	1366.7	77.4228	1366.7	78.5446	1366.7	75.3174	1366.7	76.4329	1366.7	73.5034	1366.7	74.3089	1366.7	72.177	1366.7	72.6614	1366.7	70.7881	1366.7	71.2826	1366.7	68.4628	1366.7	69.3151	1366.7	66.3017	1366.7	66.6535	1366.7	67.7607	1366.7	67.4274	1366.7	69.1562	1366.7	69.6775	1366.7	67.7093	1366.7	68.9093	1366.7	61.2627	1366.7	63.1095	1366.7	48.4164	1366.7	52.6767	1366.7	59.1435
1413.57	84.7718	1413.57	84.4878	1413.57	84.6691	1413.57	83.814	1413.57	84.1938	1413.57	82.7945	1413.57	83.3564	1413.57	81.5102	1413.57	82.1518	1413.57	79.9901	1413.57	80.545	1413.57	78.2151	1413.57	78.5752	1413.57	76.2711	1413.57	76.5213	1413.57	74.1945	1413.57	74.6096	1413.57	71.6791	1413.57	72.7616	1413.57	68.8607	1413.57	71.1603	1413.57	66.7251	1413.57	69.5875	1413.57	65.4556	1413.57	67.7716	1413.57	66.7987	1413.57	68.565	1413.57	68.5012	1413.57	70.1296	1413.57	67.0357	1413.57	68.6333	1413.57	59.5005	1413.57	62.1256	1413.57	62.2547	1413.57	63.7083	1413.57	66.4297
1463.38	84.593	1463.38	84.2467	1463.38	84.4543	1463.38	83.4997	1463.38	83.8233	1463.38	82.4454	1463.38	82.7884	1463.38	81.1343	1463.38	81.4724	1463.38	79.5673	1463.38	79.929	1463.38	77.7278	1463.38	78.152	1463.38	75.674	1463.38	76.1781	1463.38	73.5691	1463.38	74.0791	1463.38	71.7416	1463.38	72.008	1463.38	70.6065	1463.38	70.2353	1463.38	69.2967	1463.38	68.5726	1463.38	66.8816	1463.38	67.011	1463.38	67.1494	1463.38	67.4051	1463.38	68.7723	1463.38	68.366	1463.38	66.8527	1463.38	66.3835	1463.38	58.1796	1463.38	56.7548	1463.38	61.1738	1463.38	60.4504	1463.38	64.6649
1516.11	84.2738	1516.11	83.9776	1516.11	84.0976	1516.11	83.2071	1516.11	83.4956	1516.11	82.0275	1516.11	82.5242	1516.11	80.5294	1516.11	81.2419	1516.11	78.7809	1516.11	79.6673	1516.11	76.8635	1516.11	77.7839	1516.11	75.0618	1516.11	75.81	1516.11	73.7424	1516.11	74.1504	1516.11	72.4217	1516.11	72.4871	1516.11	70.2919	1516.11	70.4703	1516.11	67.74	1516.11	68.5602	1516.11	65.3205	1516.11	65.9105	1516.11	64.6785	1516.11	63.9777	1516.11	66.7111	1516.11	66.0959	1516.11	65.6393	1516.11	65.5966	1516.11	56.3209	1516.11	59.0666	1516.11	57.7051	1516.11	55.5253	1516.11	61.7686
1568.85	83.9933	1568.85	83.6599	1568.85	83.915	1568.85	82.9299	1568.85	83.4319	1568.85	81.8191	1568.85	82.5693	1568.85	80.3359	1568.85	81.3598	1568.85	78.5099	1568.85	79.8153	1568.85	76.4123	1568.85	77.9384	1568.85	74.3069	1568.85	75.9356	1568.85	72.5158	1568.85	74.0825	1568.85	70.1136	1568.85	71.9735	1568.85	65.8989	1568.85	69.566	1568.85	64.6121	1568.85	68.423	1568.85	65.7629	1568.85	67.3886	1568.85	65.4977	1568.85	65.3728	1568.85	66.161	1568.85	66.4718	1568.85	65.4953	1568.85	66.5834	1568.85	60.486	1568.85	61.7333	1568.85	57.6431	1568.85	58.6462	1568.85	61.697
1624.51	84.4094	1624.51	84.0868	1624.51	84.2846	1624.51	83.3282	1624.51	83.7035	1624.51	82.2003	1624.51	82.6851	1624.51	80.8238	1624.51	81.3031	1624.51	79.1777	1624.51	79.6405	1624.51	77.0527	1624.51	77.7438	1624.51	74.3492	1624.51	75.6845	1624.51	71.5592	1624.51	73.8776	1624.51	70.0926	1624.51	72.5458	1624.51	69.4477	1624.51	70.8316	1624.51	68.0603	1624.51	68.9312	1624.51	66.1235	1624.51	67.2379	1624.51	65.6196	1624.51	65.0967	1624.51	67.5298	1624.51	65.9131	1624.51	67.2585	1624.51	65.847	1624.51	62.3961	1624.51	60.0589	1624.51	58.0664	1624.51	55.3307	1624.51	60.9838
1681.64	84.7241	1681.64	84.5693	1681.64	84.3768	1681.64	83.8918	1681.64	83.5608	1681.64	82.7665	1681.64	82.3243	1681.64	81.3744	1681.64	80.7548	1681.64	79.7736	1681.64	78.8461	1681.64	77.7453	1681.64	76.4577	1681.64	75.3271	1681.64	73.8008	1681.64	73.4082	1681.64	72.1503	1681.64	72.3577	1681.64	71.4484	1681.64	70.7028	1681.64	69.5908	1681.64	67.73	1681.64	66.6907	1681.64	65.0194	1681.64	64.2047	1681.64	62.158	1681.64	63.4622	1681.64	64.0723	1681.64	66.3438	1681.64	65.0129	1681.64	65.9615	1681.64	59.2485	1681.64	59.0166	1681.64	60.1334	1681.64	58.9059	1681.64	63.5867
1741.7	84.0381	1741.7	83.8677	1741.7	83.6783	1741.7	83.2284	1741.7	82.7528	1741.7	82.1669	1741.7	81.3912	1741.7	80.8193	1741.7	79.8805	1741.7	79.3714	1741.7	78.3108	1741.7	77.7487	1741.7	76.3812	1741.7	75.8284	1741.7	73.8987	1741.7	74.0148	1741.7	71.4301	1741.7	72.3109	1741.7	69.783	1741.7	69.7705	1741.7	68.1401	1741.7	67.8134	1741.7	66.7669	1741.7	67.618	1741.7	66.6389	1741.7	65.6616	1741.7	64.7366	1741.7	64.8019	1741.7	65.4631	1741.7	65.5255	1741.7	66.5524	1741.7	61.4013	1741.7	60.906	1741.7	60.2224	1741.7	59.9438	1741.7	64.2174
1803.22	83.3379	1803.22	83.0814	1803.22	83.1743	1803.22	82.4618	1803.22	82.5461	1803.22	81.4799	1803.22	81.4519	1803.22	80.1185	1803.22	79.969	1803.22	78.6029	1803.22	78.3117	1803.22	77.1058	1803.22	76.662	1803.22	75.1291	1803.22	74.6653	1803.22	72.3691	1803.22	71.9083	1803.22	69.9226	1803.22	70.1247	1803.22	69.4377	1803.22	69.9643	1803.22	69.8114	1803.22	68.7731	1803.22	69.8719	1803.22	67.8363	1803.22	68.6479	1803.22	66.6739	1803.22	68.2078	1803.22	65.0177	1803.22	68.7807	1803.22	65.9494	1803.22	64.58	1803.22	63.2092	1803.22	58.0495	1803.22	50.0788	1803.22	59.8069
1866.21	83.1045	1866.21	83.0523	1866.21	82.7787	1866.21	82.6142	1866.21	82.1581	1866.21	81.7798	1866.21	81.2115	1866.21	80.4031	1866.21	79.7452	1866.21	78.5649	1866.21	77.9191	1866.21	76.7823	1866.21	76.3077	1866.21	74.7673	1866.21	74.5665	1866.21	72.038	1866.21	72.103	1866.21	70.6804	1866.21	69.9451	1866.21	70.3612	1866.21	68.4614	1866.21	68.5468	1866.21	66.7982	1866.21	67.4225	1866.21	66.9804	1866.21	66.6058	1866.21	65.8583	1866.21	65.5991	1866.21	64.1996	1866.21	66.4596	1866.21	66.2409	1866.21	63.0675	1866.21	63.9504	1866.21	61.806	1866.21	61.8322	1866.21	64.422
1932.13	83.112	1932.13	82.9679	1932.13	82.869	1932.13	82.523	1932.13	82.2885	1932.13	81.7344	1932.13	81.4682	1932.13	80.4253	1932.13	80.2381	1932.13	78.6381	1932.13	78.5356	1932.13	76.7414	1932.13	76.7702	1932.13	74.8115	1932.13	74.8915	1932.13	72.3397	1932.13	72.8016	1932.13	70.1293	1932.13	71.3902	1932.13	69.0603	1932.13	70.2832	1932.13	67.7461	1932.13	68.2908	1932.13	67.9528	1932.13	68.0196	1932.13	67.6747	1932.13	67.8988	1932.13	66.5006	1932.13	64.5932	1932.13	66.0492	1932.13	63.6492	1932.13	60.9714	1932.13	59.2266	1932.13	55.6426	1932.13	55.2224	1932.13	61.5044
1999.51	83.1911	1999.51	83.2641	1999.51	82.7715	1999.51	83.021	1999.51	82.0187	1999.51	82.3925	1999.51	80.9643	1999.51	81.1946	1999.51	79.5238	1999.51	79.3933	1999.51	77.4988	1999.51	77.1589	1999.51	75.0913	1999.51	75.0893	1999.51	73.0364	1999.51	73.1023	1999.51	71.0448	1999.51	70.4107	1999.51	68.0998	1999.51	66.6903	1999.51	65.4719	1999.51	64.032	1999.51	64.3333	1999.51	67.783	1999.51	65.5369	1999.51	69.0305	1999.51	67.774	1999.51	68.132	1999.51	67.9479	1999.51	67.6038	1999.51	68.0965	1999.51	64.8354	1999.51	66.2039	1999.51	51.1423	1999.51	57.0311	1999.51	47.1257
2069.82	83.7772	2069.82	83.8139	2069.82	83.4078	2069.82	83.4294	2069.82	82.7817	2069.82	82.6331	2069.82	81.8648	2069.82	81.4106	2069.82	80.5145	2069.82	79.5439	2069.82	78.621	2069.82	77.3821	2069.82	76.1454	2069.82	75.3194	2069.82	73.4143	2069.82	73.0954	2069.82	70.9503	2069.82	70.8922	2069.82	68.2627	2069.82	68.7064	2069.82	67.2048	2069.82	66.8419	2069.82	66.5357	2069.82	66.2406	2069.82	62.9538	2069.82	67.915	2069.82	64.7005	2069.82	68.0156	2069.82	65.3084	2069.82	68.0831	2069.82	67.1097	2069.82	66.0803	2069.82	65.7974	2069.82	56.8802	2069.82	56.1567	2069.82	50.8708
2143.07	85.0701	2143.07	84.74	2143.07	85.0063	2143.07	84.0485	2143.07	84.4451	2143.07	82.9406	2143.07	83.4686	2143.07	81.57	2143.07	82.1972	2143.07	79.7539	2143.07	80.5867	2143.07	77.3673	2143.07	78.4665	2143.07	75.1948	2143.07	76.1838	2143.07	72.989	2143.07	74.0259	2143.07	70.7138	2143.07	71.2699	2143.07	68.625	2143.07	69.7146	2143.07	65.8879	2143.07	68.2283	2143.07	65.4924	2143.07	64.9393	2143.07	67.7306	2143.07	65.3122	2143.07	65.2813	2143.07	64.7219	2143.07	66.0729	2143.07	66.1223	2143.07	63.9736	2143.07	66.0603	2143.07	60.5247	2143.07	60.0382	2143.07	62.7859
2219.24	83.6959	2219.24	83.5168	2219.24	83.5606	2219.24	82.9923	2219.24	83.0609	2219.24	82.1241	2219.24	82.1152	2219.24	80.9189	2219.24	80.7098	2219.24	79.2245	2219.24	78.8353	2219.24	77.022	2219.24	76.6399	2219.24	74.8333	2219.24	74.4373	2219.24	72.7486	2219.24	72.0162	2219.24	70.2911	2219.24	69.7962	2219.24	68.4658	2219.24	69.6892	2219.24	67.5779	2219.24	68.8223	2219.24	67.9503	2219.24	66.0159	2219.24	70.5863	2219.24	68.155	2219.24	69.1803	2219.24	66.676	2219.24	66.0968	2219.24	66.1497	2219.24	63.5133	2219.24	66.2326	2219.24	51.6511	2219.24	54.1518	2219.24	60.8534
2296.88	83.5476	2296.88	83.5547	2296.88	83.3913	2296.88	83.3208	2296.88	82.9586	2296.88	82.5946	2296.88	82.1989	2296.88	81.4329	2296.88	81.078	2296.88	79.928	2296.88	79.7038	2296.88	78.0232	2296.88	77.5174	2296.88	76.0392	2296.88	74.7886	2296.88	74.1903	2296.88	72.7218	2296.88	70.6526	2296.88	70.0095	2296.88	67.3026	2296.88	67.9808	2296.88	65.5809	2296.88	66.6958	2296.88	66.057	2296.88	61.9786	2296.88	71.0575	2296.88	68.2911	2296.88	71.467	2296.88	69.8524	2296.88	69.5961	2296.88	70.7947	2296.88	67.0752	2296.88	70.3705	2296.88	57.3973	2296.88	63.8912	2296.88	47.3032
2378.91	82.9621	2378.91	82.7813	2378.91	83.1674	2378.91	82.4693	2378.91	83.076	2378.91	81.624	2378.91	82.5319	2378.91	80.208	2378.91	81.6044	2378.91	78.5471	2378.91	80.3751	2378.91	76.8318	2378.91	78.8832	2378.91	74.4727	2378.91	76.7225	2378.91	73.109	2378.91	74.089	2378.91	70.6026	2378.91	71.8016	2378.91	65.4681	2378.91	70.1263	2378.91	63.0852	2378.91	70.2215	2378.91	61.965	2378.91	68.6936	2378.91	67.8654	2378.91	66.2372	2378.91	70.1073	2378.91	66.5168	2378.91	69.6982	2378.91	65.8435	2378.91	67.8853	2378.91	66.9928	2378.91	55.8113	2378.91	58.0028	2378.91	51.79
2462.4	83.0902	2462.4	82.9601	2462.4	83.0776	2462.4	82.7174	2462.4	82.911	2462.4	82.1646	2462.4	82.4114	2462.4	80.9413	2462.4	81.2694	2462.4	79.2898	2462.4	79.5516	2462.4	77.4623	2462.4	77.7061	2462.4	75.2705	2462.4	75.5125	2462.4	72.9927	2462.4	73.2208	2462.4	70.887	2462.4	71.1078	2462.4	68.7045	2462.4	68.8499	2462.4	67.6601	2462.4	66.9665	2462.4	63.8711	2462.4	64.3623	2462.4	63.6516	2462.4	61.8804	2462.4	65.891	2462.4	65.7791	2462.4	65.9112	2462.4	64.2745	2462.4	66.1455	2462.4	66.7403	2462.4	61.6002	2462.4	62.9662	2462.4	64.1823
2548.83	82.6568	2548.83	82.6654	2548.83	82.674	2548.83	82.5081	2548.83	82.6149	2548.83	81.8977	2548.83	82.0347	2548.83	80.8336	2548.83	80.8697	2548.83	79.191	2548.83	79.2269	2548.83	77.2178	2548.83	77.275	2548.83	75.0833	2548.83	75.1343	2548.83	72.7788	2548.83	72.9127	2548.83	70.5968	2548.83	70.6156	2548.83	68.3895	2548.83	68.27	2548.83	67.4157	2548.83	67.8049	2548.83	64.8699	2548.83	66.5081	2548.83	63.6131	2548.83	62.6606	2548.83	66.1168	2548.83	65.8529	2548.83	64.8689	2548.83	65.0548	2548.83	66.7574	2548.83	66.3188	2548.83	61.8912	2548.83	61.0085	2548.83	63.6529
2639.65	82.2733	2639.65	82.4034	2639.65	82.3493	2639.65	82.469	2639.65	82.4678	2639.65	81.9879	2639.65	82.1344	2639.65	80.7064	2639.65	81.0661	2639.65	78.8266	2639.65	79.2222	2639.65	76.8214	2639.65	77.0622	2639.65	74.4722	2639.65	74.7291	2639.65	72.1756	2639.65	72.3641	2639.65	70.2522	2639.65	70.8023	2639.65	67.8197	2639.65	68.5459	2639.65	66.4601	2639.65	66.0112	2639.65	64.9513	2639.65	65.9734	2639.65	60.5814	2639.65	61.9867	2639.65	64.674	2639.65	65.3499	2639.65	64.1482	2639.65	64.0627	2639.65	65.346	2639.65	66.1196	2639.65	61.0177	2639.65	62.5013	2639.65	62.7649
2731.93	82.117	2731.93	82.2327	2731.93	82.2014	2731.93	82.2786	2731.93	82.3241	2731.93	81.8605	2731.93	82.0746	2731.93	80.6946	2731.93	81.0767	2731.93	78.9234	2731.93	79.4277	2731.93	76.8619	2731.93	77.3106	2731.93	74.7114	2731.93	74.9777	2731.93	72.1877	2731.93	72.3881	2731.93	70.004	2731.93	70.0707	2731.93	67.6007	2731.93	68.3488	2731.93	66.0275	2731.93	65.49	2731.93	64.9585	2731.93	65.3026	2731.93	61.9736	2731.93	61.9869	2731.93	65.578	2731.93	65.6992	2731.93	63.8284	2731.93	64.4168	2731.93	65.2834	2731.93	65.8418	2731.93	61.5839	2731.93	60.2934	2731.93	62.8056
2828.61	82.6575	2828.61	82.6212	2828.61	82.6	2828.61	82.4378	2828.61	82.3317	2828.61	81.7951	2828.61	81.6423	2828.61	80.6411	2828.61	80.4323	2828.61	78.7667	2828.61	78.5036	2828.61	76.4843	2828.61	76.2911	2828.61	74.5837	2828.61	74.2104	2828.61	72.1378	2828.61	71.6277	2828.61	69.7275	2828.61	69.1814	2828.61	66.9762	2828.61	66.9047	2828.61	64.08	2828.61	65.7772	2828.61	64.2577	2828.61	64.2121	2828.61	58.5312	2828.61	61.0543	2828.61	64.1541	2828.61	64.2524	2828.61	63.4414	2828.61	63.2195	2828.61	64.9376	2828.61	64.5452	2828.61	60.578	2828.61	61.0223	2828.61	61.9482
2928.22	82.2875	2928.22	82.2117	2928.22	82.2293	2928.22	81.8512	2928.22	82.0247	2928.22	80.8944	2928.22	81.1641	2928.22	79.3722	2928.22	79.5372	2928.22	77.3552	2928.22	77.5959	2928.22	74.9835	2928.22	75.396	2928.22	73.043	2928.22	73.1539	2928.22	70.9176	2928.22	70.6243	2928.22	69.4262	2928.22	68.3742	2928.22	67.122	2928.22	65.9783	2928.22	65.4619	2928.22	64.4068	2928.22	63.5298	2928.22	62.5256	2928.22	61.3241	2928.22	60.7995	2928.22	62.2854	2928.22	62.438	2928.22	62.0897	2928.22	62.4968	2928.22	63.6944	2928.22	63.9302	2928.22	59.703	2928.22	59.9957	2928.22	61.5134
3030.76	82.9413	3030.76	82.8615	3030.76	82.8212	3030.76	82.3467	3030.76	82.3381	3030.76	81.2616	3030.76	81.3887	3030.76	79.5875	3030.76	79.9451	3030.76	77.6401	3030.76	78.0007	3030.76	75.4902	3030.76	75.6323	3030.76	73.0016	3030.76	73.4221	3030.76	70.386	3030.76	71.4091	3030.76	68.0505	3030.76	68.997	3030.76	66.206	3030.76	66.7403	3030.76	64.8087	3030.76	64.682	3030.76	63.1519	3030.76	63.051	3030.76	61.5017	3030.76	60.7859	3030.76	63.3669	3030.76	61.5133	3030.76	62.1648	3030.76	62.8698	3030.76	63.3289	3030.76	63.2853	3030.76	56.767	3030.76	58.4566	3030.76	60.3174
3137.7	82.7246	3137.7	82.6493	3137.7	82.5519	3137.7	82.267	3137.7	82.0382	3137.7	81.3841	3137.7	81.019	3137.7	79.8681	3137.7	79.3447	3137.7	78.0541	3137.7	77.4332	3137.7	76.1046	3137.7	75.5168	3137.7	74.1402	3137.7	73.1925	3137.7	72.0211	3137.7	71.2097	3137.7	69.4104	3137.7	68.6372	3137.7	67.2943	3137.7	66.933	3137.7	64.3582	3137.7	64.5523	3137.7	63.3491	3137.7	62.835	3137.7	61.4947	3137.7	62.0888	3137.7	61.7505	3137.7	60.9928	3137.7	62.2956	3137.7	62.2172	3137.7	63.7425	3137.7	63.154	3137.7	58.6675	3137.7	59.1287	3137.7	59.9408
3249.02	83.4803	3249.02	83.0247	3249.02	83.1945	3249.02	81.96	3249.02	82.3146	3249.02	80.4792	3249.02	81.0113	3249.02	78.7748	3249.02	79.2976	3249.02	76.8707	3249.02	77.3322	3249.02	75.0666	3249.02	75.5272	3249.02	72.7187	3249.02	73.1402	3249.02	70.5586	3249.02	70.9775	3249.02	68.2471	3249.02	68.0427	3249.02	67.1509	3249.02	66.5905	3249.02	64.7626	3249.02	64.5286	3249.02	63.2999	3249.02	62.9729	3249.02	62.2072	3249.02	62.4488	3249.02	61.5162	3249.02	59.9354	3249.02	62.9175	3249.02	62.6854	3249.02	63.4881	3249.02	63.1775	3249.02	58.3599	3249.02	58.2455	3249.02	59.5689
3363.28	83.3331	3363.28	83.113	3363.28	82.9241	3363.28	82.439	3363.28	82.0773	3363.28	81.3274	3363.28	80.7096	3363.28	79.8409	3363.28	79.1082	3363.28	78.0581	3363.28	77.2838	3363.28	76.2689	3363.28	75.3995	3363.28	73.8486	3363.28	73.2947	3363.28	71.4997	3363.28	70.8754	3363.28	68.4019	3363.28	68.2506	3363.28	66.1297	3363.28	66.1581	3363.28	63.0651	3363.28	63.0382	3363.28	62.6542	3363.28	62.4863	3363.28	61.6098	3363.28	61.3374	3363.28	60.4297	3363.28	60.5751	3363.28	63.0143	3363.28	62.1925	3363.28	61.84	3363.28	61.4551	3363.28	56.5784	3363.28	59.495	3363.28	55.0986
3481.93	83.5939	3481.93	83.0238	3481.93	83.1474	3481.93	81.7512	3481.93	82.079	3481.93	80.1764	3481.93	80.6092	3481.93	78.6916	3481.93	79.0215	3481.93	77.1204	3481.93	77.5323	3481.93	75.2512	3481.93	75.7328	3481.93	73.4626	3481.93	73.7342	3481.93	71.1813	3481.93	70.9844	3481.93	69.31	3481.93	68.8193	3481.93	67.5708	3481.93	66.3531	3481.93	64.6257	3481.93	63.3784	3481.93	63.2865	3481.93	62.9913	3481.93	61.3513	3481.93	60.4716	3481.93	61.1672	3481.93	60.8201	3481.93	62.8272	3481.93	62.9987	3481.93	62.7322	3481.93	61.5285	3481.93	58.016	3481.93	59.1189	3481.93	55.4302
3604.98	83.2251	3604.98	82.7563	3604.98	82.6905	3604.98	81.6799	3604.98	81.4643	3604.98	80.5202	3604.98	80.0823	3604.98	79.3168	3604.98	78.6801	3604.98	78.0586	3604.98	77.3767	3604.98	76.1433	3604.98	75.4613	3604.98	73.9368	3604.98	73.2877	3604.98	70.8543	3604.98	70.5049	3604.98	67.7542	3604.98	68.3636	3604.98	65.4263	3604.98	65.2163	3604.98	63.1868	3604.98	63.6131	3604.98	63.4131	3604.98	62.5181	3604.98	59.1222	3604.98	59.5309	3604.98	60.8229	3604.98	59.8966	3604.98	62.8053	3604.98	63.5938	3604.98	61.8035	3604.98	61.8803	3604.98	58.1224	3604.98	58.8704	3604.98	56.5627
3732.42	83.0492	3732.42	82.2432	3732.42	82.5246	3732.42	80.8453	3732.42	81.208	3732.42	79.815	3732.42	80.0346	3732.42	78.8695	3732.42	79.1888	3732.42	77.6672	3732.42	78.189	3732.42	75.9537	3732.42	76.517	3732.42	73.7298	3732.42	74.032	3732.42	71.6964	3732.42	71.491	3732.42	69.6256	3732.42	68.8014	3732.42	66.2516	3732.42	65.8723	3732.42	64.6317	3732.42	64.6439	3732.42	64.0858	3732.42	62.0159	3732.42	60.6204	3732.42	60.7945	3732.42	60.5934	3732.42	61.2105	3732.42	63.8781	3732.42	63.874	3732.42	62.23	3732.42	61.9828	3732.42	58.7369	3732.42	59.8957	3732.42	55.793
3864.26	83.2875	3864.26	82.677	3864.26	82.4174	3864.26	81.2404	3864.26	80.8421	3864.26	80.3728	3864.26	79.7539	3864.26	79.7596	3864.26	78.9888	3864.26	78.7268	3864.26	77.9328	3864.26	76.8179	3864.26	76.138	3864.26	74.0336	3864.26	73.643	3864.26	71.2404	3864.26	71.1898	3864.26	68.2783	3864.26	68.562	3864.26	65.5867	3864.26	66.033	3864.26	64.4078	3864.26	64.0599	3864.26	61.9287	3864.26	61.3653	3864.26	59.6478	3864.26	61.038	3864.26	61.2617	3864.26	60.9556	3864.26	65.0463	3864.26	63.0312	3864.26	61.8461	3864.26	61.2154	3864.26	58.6543	3864.26	60.9426	3864.26	50.7526
4000.49	83.3558	4000.49	82.3853	4000.49	82.7488	4000.49	80.8874	4000.49	81.1511	4000.49	79.8844	4000.49	80.1873	4000.49	79.362	4000.49	79.5946	4000.49	78.0283	4000.49	78.3799	4000.49	76.1302	4000.49	76.4137	4000.49	73.7104	4000.49	73.7051	4000.49	71.3693	4000.49	70.8655	4000.49	69.2004	4000.49	68.6557	4000.49	66.8403	4000.49	66.0345	4000.49	63.9055	4000.49	63.7865	4000.49	61.3979	4000.49	60.8627	4000.49	61.0991	4000.49	60.2514	4000.49	60.5233	4000.49	60.788	4000.49	63.0272	4000.49	63.0677	4000.49	61.302	4000.49	60.6012	4000.49	59.1824	4000.49	59.7124	4000.49	54.6645
4141.11	83.7041	4141.11	83.0137	4141.11	82.9723	4141.11	81.7845	4141.11	81.4594	4141.11	81.039	4141.11	80.4664	4141.11	80.2708	4141.11	79.7756	4141.11	78.8808	4141.11	78.2972	4141.11	76.5995	4141.11	76.1517	4141.11	74.0266	4141.11	73.4287	4141.11	71.1786	4141.11	70.6877	4141.11	67.7096	4141.11	67.9306	4141.11	65.2613	4141.11	65.4474	4141.11	63.422	4141.11	63.5272	4141.11	60.541	4141.11	60.3909	4141.11	61.291	4141.11	61.025	4141.11	61.2391	4141.11	59.7562	4141.11	62.594	4141.11	62.578	4141.11	60.3317	4141.11	60.4633	4141.11	59.5086	4141.11	60.1506	4141.11	51.5159
4287.6	83.9202	4287.6	83.1022	4287.6	83.2303	4287.6	81.4867	4287.6	81.9256	4287.6	80.5094	4287.6	80.9666	4287.6	79.4196	4287.6	79.8948	4287.6	77.823	4287.6	78.4872	4287.6	75.7776	4287.6	76.2829	4287.6	73.2837	4287.6	73.9126	4287.6	71.0934	4287.6	71.2302	4287.6	68.9966	4287.6	68.86	4287.6	66.5827	4287.6	65.9167	4287.6	64.5214	4287.6	62.6938	4287.6	60.5281	4287.6	61.3287	4287.6	60.6429	4287.6	60.1106	4287.6	60.5653	4287.6	60.3517	4287.6	62.8638	4287.6	63.3298	4287.6	60.5944	4287.6	61.2482	4287.6	59.4252	4287.6	59.7236	4287.6	53.6396
4438.48	83.9349	4438.48	83.2934	4438.48	83.2298	4438.48	82.0385	4438.48	81.7606	4438.48	81.1617	4438.48	80.6112	4438.48	80.1923	4438.48	79.5588	4438.48	78.615	4438.48	77.9477	4438.48	76.66	4438.48	76.0449	4438.48	74.1728	4438.48	73.3998	4438.48	71.221	4438.48	70.6795	4438.48	67.677	4438.48	67.7619	4438.48	64.7241	4438.48	65.1255	4438.48	62.5002	4438.48	63.6178	4438.48	59.6989	4438.48	60.1721	4438.48	59.8256	4438.48	60.0452	4438.48	58.8286	4438.48	56.48	4438.48	61.8605	4438.48	61.0945	4438.48	60.6204	4438.48	60.1792	4438.48	59.3613	4438.48	59.3756	4438.48	52.088
4595.21	83.8245	4595.21	83.2539	4595.21	83.2205	4595.21	82.2021	4595.21	82.0191	4595.21	80.92	4595.21	80.7162	4595.21	79.4944	4595.21	79.4444	4595.21	77.8217	4595.21	77.7973	4595.21	75.5175	4595.21	75.661	4595.21	73.2716	4595.21	73.5502	4595.21	70.9636	4595.21	70.8078	4595.21	68.6312	4595.21	68.1943	4595.21	66.2111	4595.21	65.3263	4595.21	64.5653	4595.21	63.3124	4595.21	61.4978	4595.21	60.8023	4595.21	60.1525	4595.21	58.0394	4595.21	56.6061	4595.21	56.3076	4595.21	60.7194	4595.21	61.1983	4595.21	59.9801	4595.21	61.1107	4595.21	58.8307	4595.21	60.7225	4595.21	51.9965
4756.35	83.5415	4756.35	83.0973	4756.35	83.0575	4756.35	81.9593	4756.35	81.8449	4756.35	80.6678	4756.35	80.442	4756.35	79.5184	4756.35	79.0714	4756.35	78.3523	4756.35	77.5519	4756.35	76.743	4756.35	75.9499	4756.35	74.4305	4756.35	73.5483	4756.35	71.551	4756.35	70.8343	4756.35	68.2997	4756.35	67.648	4756.35	65.588	4756.35	65.5757	4756.35	62.3916	4756.35	62.4178	4756.35	59.0457	4756.35	60.3951	4756.35	59.3742	4756.35	60.0484	4756.35	56.4607	4756.35	56.3823	4756.35	60.5187	4756.35	59.9842	4756.35	60.2535	4756.35	60.92	4756.35	58.4827	4756.35	59.4899	4756.35	53.4374
4924.8	83.6735	4924.8	83.3561	4924.8	83.1606	4924.8	82.1699	4924.8	81.846	4924.8	80.4673	4924.8	80.0021	4924.8	78.8742	4924.8	78.5076	4924.8	77.7871	4924.8	77.2866	4924.8	75.7986	4924.8	75.588	4924.8	73.0971	4924.8	73.2388	4924.8	69.7864	4924.8	69.8084	4924.8	67.0714	4924.8	67.3939	4924.8	65.0085	4924.8	64.63	4924.8	63.2901	4924.8	62.5013	4924.8	60.2483	4924.8	59.3888	4924.8	58.8342	4924.8	56.4861	4924.8	57.3413	4924.8	57.4676	4924.8	60.9277	4924.8	60.1085	4924.8	60.2248	4924.8	61.3933	4924.8	58.1086	4924.8	58.5413	4924.8	53.7942
5097.66	83.4191	5097.66	83.1831	5097.66	83.0642	5097.66	81.9986	5097.66	81.9696	5097.66	80.021	5097.66	80.1288	5097.66	78.5941	5097.66	78.6423	5097.66	77.6819	5097.66	77.5903	5097.66	75.7291	5097.66	75.7536	5097.66	73.1488	5097.66	72.7401	5097.66	70.3955	5097.66	69.9472	5097.66	67.9165	5097.66	66.718	5097.66	65.1382	5097.66	63.7447	5097.66	61.8556	5097.66	60.4009	5097.66	59.5452	5097.66	59.9513	5097.66	58.8462	5097.66	58.1956	5097.66	54.5286	5097.66	55.9549	5097.66	59.0106	5097.66	58.716	5097.66	60.333	5097.66	60.4441	5097.66	57.9368	5097.66	57.8057	5097.66	51.1066
5277.83	82.6768	5277.83	82.6683	5277.83	82.5164	5277.83	81.8373	5277.83	81.5317	5277.83	80.1862	5277.83	79.7319	5277.83	79.163	5277.83	78.3632	5277.83	78.0897	5277.83	77.0882	5277.83	76.056	5277.83	75.056	5277.83	73.0842	5277.83	72.2033	5277.83	69.7496	5277.83	68.8097	5277.83	66.1821	5277.83	66.0077	5277.83	62.8592	5277.83	63.0843	5277.83	60.8415	5277.83	60.9049	5277.83	60.0205	5277.83	59.1405	5277.83	57.7301	5277.83	56.0112	5277.83	55.3985	5277.83	55.9122	5277.83	59.4812	5277.83	57.7485	5277.83	60.1006	5277.83	59.8985	5277.83	56.6421	5277.83	57.79	5277.83	52.3166
5463.87	82.8138	5463.87	83.1315	5463.87	82.8062	5463.87	82.4473	5463.87	81.8903	5463.87	80.8585	5463.87	80.2121	5463.87	79.6675	5463.87	78.8308	5463.87	78.2048	5463.87	77.3444	5463.87	75.5051	5463.87	74.8384	5463.87	72.2464	5463.87	72.0812	5463.87	69.0811	5463.87	68.9774	5463.87	66.5145	5463.87	65.996	5463.87	64.1511	5463.87	63.0077	5463.87	61.7117	5463.87	60.9008	5463.87	60.0634	5463.87	58.4574	5463.87	57.7892	5463.87	56.1103	5463.87	56.4674	5463.87	55.6494	5463.87	59.1055	5463.87	57.9375	5463.87	60.3277	5463.87	59.816	5463.87	56.7133	5463.87	57.6671	5463.87	52.0423
5657.23	82.8954	5657.23	83.0648	5657.23	82.954	5657.23	82.3594	5657.23	82.0814	5657.23	80.6726	5657.23	80.4127	5657.23	79.1033	5657.23	79.1218	5657.23	77.3887	5657.23	77.1252	5657.23	74.6709	5657.23	74.6273	5657.23	72.1982	5657.23	71.755	5657.23	69.6614	5657.23	69.4391	5657.23	66.9666	5657.23	66.7264	5657.23	64.5223	5657.23	63.7041	5657.23	61.7957	5657.23	61.4238	5657.23	59.8872	5657.23	59.0443	5657.23	54.503	5657.23	55.6338	5657.23	54.0735	5657.23	55.9323	5657.23	57.4385	5657.23	57.6342	5657.23	59.5334	5657.23	59.9585	5657.23	55.1998	5657.23	56.3274	5657.23	52.2341
5856.45	82.9595	5856.45	83.0845	5856.45	83.111	5856.45	82.2735	5856.45	82.4278	5856.45	80.7626	5856.45	80.8418	5856.45	79.2754	5856.45	79.1589	5856.45	77.3658	5856.45	77.3039	5856.45	75.3568	5856.45	75.1432	5856.45	73.118	5856.45	72.7055	5856.45	70.4084	5856.45	70.331	5856.45	67.2613	5856.45	67.3314	5856.45	63.9467	5856.45	64.1591	5856.45	62.1284	5856.45	62.1426	5856.45	59.6177	5856.45	58.5768	5856.45	56.4864	5856.45	54.9002	5856.45	56.0621	5856.45	57.2816	5856.45	57.1266	5856.45	58.1069	5856.45	59.6697	5856.45	60.7236	5856.45	56.3412	5856.45	57.1271	5856.45	54.0158
6062.99	83.2042	6062.99	83.3075	6062.99	83.2749	6062.99	82.5973	6062.99	82.6291	6062.99	81.2103	6062.99	81.1191	6062.99	79.3642	6062.99	79.0801	6062.99	77.3487	6062.99	77.1831	6062.99	75.4359	6062.99	75.3032	6062.99	72.9882	6062.99	72.8399	6062.99	69.6064	6062.99	69.9066	6062.99	66.2605	6062.99	66.3513	6062.99	63.5447	6062.99	63.7759	6062.99	61.2793	6062.99	62.1326	6062.99	58.4267	6062.99	58.8599	6062.99	55.2355	6062.99	55.1453	6062.99	56.5553	6062.99	55.0697	6062.99	58.2328	6062.99	56.911	6062.99	59.7736	6062.99	59.3763	6062.99	53.9888	6062.99	54.4849	6062.99	53.3819
6276.86	83.1866	6276.86	83.2068	6276.86	83.1171	6276.86	82.5965	6276.86	82.4898	6276.86	81.1024	6276.86	80.9604	6276.86	78.9874	6276.86	78.6988	6276.86	77.009	6276.86	76.7082	6276.86	75.2384	6276.86	75.1262	6276.86	72.7131	6276.86	72.6493	6276.86	69.5319	6276.86	69.7589	6276.86	66.59	6276.86	66.3069	6276.86	64.0333	6276.86	63.656	6276.86	61.0651	6276.86	60.9302	6276.86	58.6575	6276.86	57.9436	6276.86	55.1969	6276.86	55.6203	6276.86	55.2978	6276.86	54.7	6276.86	56.8853	6276.86	56.7947	6276.86	58.49	6276.86	59.7795	6276.86	53.368	6276.86	55.459	6276.86	53.2883
6498.05	83.3281	6498.05	83.2115	6498.05	83.1739	6498.05	82.6733	6498.05	82.6085	6498.05	81.2723	6498.05	81.2107	6498.05	78.8523	6498.05	78.6951	6498.05	77.029	6498.05	77.076	6498.05	75.3907	6498.05	75.3364	6498.05	72.6112	6498.05	72.6051	6498.05	69.2595	6498.05	69.4502	6498.05	66.5547	6498.05	66.2486	6498.05	63.1508	6498.05	62.8532	6498.05	60.4513	6498.05	60.4751	6498.05	58.0397	6498.05	56.4193	6498.05	54.4983	6498.05	54.9796	6498.05	53.6382	6498.05	54.6863	6498.05	56.7742	6498.05	56.6145	6498.05	59.0212	6498.05	59.5388	6498.05	53.7486	6498.05	53.1863	6498.05	53.4952
6726.56	83.4128	6726.56	83.1264	6726.56	83.1035	6726.56	82.8625	6726.56	82.7811	6726.56	81.241	6726.56	81.3623	6726.56	78.7974	6726.56	78.8626	6726.56	77.0941	6726.56	77.099	6726.56	75.1032	6726.56	75.1711	6726.56	71.9128	6726.56	72.04	6726.56	68.6709	6726.56	68.6132	6726.56	65.2019	6726.56	65.3233	6726.56	62.646	6726.56	61.9473	6726.56	59.3801	6726.56	59.4007	6726.56	56.4559	6726.56	55.8784	6726.56	52.392	6726.56	55.1478	6726.56	54.3947	6726.56	52.4328	6726.56	55.9309	6726.56	55.418	6726.56	58.258	6726.56	58.1449	6726.56	50.9466	6726.56	51.8513	6726.56	52.5392
6963.87	83.3492	6963.87	83.097	6963.87	83.1355	6963.87	82.7874	6963.87	82.8009	6963.87	81.1919	6963.87	81.3549	6963.87	78.8259	6963.87	78.9675	6963.87	77.0449	6963.87	77.1122	6963.87	74.8783	6963.87	74.8807	6963.87	71.7263	6963.87	71.8322	6963.87	68.1686	6963.87	68.1317	6963.87	64.9132	6963.87	65.1245	6963.87	61.7326	6963.87	61.839	6963.87	59.4774	6963.87	59.454	6963.87	56.2401	6963.87	56.1229	6963.87	53.8081	6963.87	55.6699	6963.87	53.7217	6963.87	54.2233	6963.87	54.2282	6963.87	54.5801	6963.87	57.0951	6963.87	57.481	6963.87	48.2071	6963.87	49.8562	6963.87	51.8602
7209.96	83.2872	7209.96	83.1217	7209.96	83.195	7209.96	82.9713	7209.96	83.001	7209.96	81.304	7209.96	81.585	7209.96	79.0425	7209.96	79.2745	7209.96	77.0385	7209.96	77.2466	7209.96	74.6301	7209.96	74.7441	7209.96	71.4457	7209.96	71.7079	7209.96	68.2447	7209.96	68.511	7209.96	64.6002	7209.96	64.966	7209.96	61.4403	7209.96	61.4244	7209.96	58.8978	7209.96	59.7036	7209.96	56.6485	7209.96	56.4236	7209.96	53.6438	7209.96	53.812	7209.96	50.9601	7209.96	50.3616	7209.96	52.9317	7209.96	53.8858	7209.96	56.2251	7209.96	56.3213	7209.96	47.6385	7209.96	48.4663	7209.96	49.6287
7464.84	83.6898	7464.84	83.2861	7464.84	83.316	7464.84	83.2252	7464.84	83.2595	7464.84	81.4783	7464.84	81.7478	7464.84	79.2908	7464.84	79.5233	7464.84	76.9245	7464.84	77.1635	7464.84	74.3949	7464.84	74.6447	7464.84	71.3242	7464.84	71.7287	7464.84	68.217	7464.84	68.44	7464.84	64.5638	7464.84	64.8468	7464.84	61.5524	7464.84	61.4638	7464.84	58.8661	7464.84	59.5058	7464.84	56.041	7464.84	56.2901	7464.84	54.4388	7464.84	55.3022	7464.84	48.2305	7464.84	48.4046	7464.84	50.0394	7464.84	52.5138	7464.84	55.3789	7464.84	55.6969	7464.84	45.5153	7464.84	48.4894	7464.84	50.3448
7727.05	83.4654	7727.05	83.4431	7727.05	83.4646	7727.05	83.1996	7727.05	83.2513	7727.05	81.6367	7727.05	81.7236	7727.05	79.3004	7727.05	79.4991	7727.05	76.4983	7727.05	76.6852	7727.05	73.9804	7727.05	74.1346	7727.05	71.2892	7727.05	71.5255	7727.05	67.9718	7727.05	68.1511	7727.05	64.2645	7727.05	64.4437	7727.05	61.466	7727.05	61.593	7727.05	59.1011	7727.05	58.7101	7727.05	55.698	7727.05	56.1023	7727.05	55.3811	7727.05	54.1341	7727.05	50.5334	7727.05	50.361	7727.05	50.613	7727.05	53.1879	7727.05	54.822	7727.05	55.7827	7727.05	46.4855	7727.05	46.5172	7727.05	49.0421
7999.51	83.3613	7999.51	83.3979	7999.51	83.46	7999.51	83.0986	7999.51	83.0725	7999.51	81.6452	7999.51	81.732	7999.51	79.1423	7999.51	79.3281	7999.51	76.2607	7999.51	76.3944	7999.51	73.6692	7999.51	73.7345	7999.51	70.2039	7999.51	70.5889	7999.51	66.7978	7999.51	67.1465	7999.51	63.0939	7999.51	63.2891	7999.51	60.6924	7999.51	60.8504	7999.51	58.1552	7999.51	57.7081	7999.51	54.7841	7999.51	55.1707	7999.51	53.5441	7999.51	51.1086	7999.51	50.7774	7999.51	51.2361	7999.51	51.1268	7999.51	52.5137	7999.51	55.2255	7999.51	54.7053	7999.51	44.5493	7999.51	47.3449	7999.51	49.6527
8282.23	83.385	8282.23	83.3931	8282.23	83.3319	8282.23	82.9633	8282.23	82.7758	8282.23	81.7634	8282.23	81.4364	8282.23	78.9605	8282.23	79.0056	8282.23	76.293	8282.23	76.0684	8282.23	73.346	8282.23	73.1978	8282.23	69.9599	8282.23	69.8257	8282.23	66.4574	8282.23	66.1156	8282.23	62.4984	8282.23	62.9129	8282.23	60.3814	8282.23	60.0599	8282.23	57.9202	8282.23	57.2138	8282.23	55.6367	8282.23	53.4591	8282.23	53.3637	8282.23	52.422	8282.23	47.5037	8282.23	48.0345	8282.23	49.3591	8282.23	51.5611	8282.23	53.5612	8282.23	54.0691	8282.23	44.4685	8282.23	44.3517	8282.23	47.5215
8573.73	83.2414	8573.73	83.4807	8573.73	83.3916	8573.73	82.9075	8573.73	82.6243	8573.73	81.6712	8573.73	81.2564	8573.73	79.016	8573.73	78.6299	8573.73	76.2322	8573.73	75.8851	8573.73	73.5379	8573.73	72.682	8573.73	70.3742	8573.73	69.7282	8573.73	66.6267	8573.73	66.2092	8573.73	63.2926	8573.73	62.552	8573.73	60.0101	8573.73	59.7624	8573.73	57.3967	8573.73	56.3965	8573.73	55.2506	8573.73	54.253	8573.73	53.2329	8573.73	52.2912	8573.73	49.96	8573.73	47.076	8573.73	48.9508	8573.73	49.5731	8573.73	52.8413	8573.73	53.5783	8573.73	43.1603	8573.73	41.6783	8573.73	47.9996
8876.95	83.1857	8876.95	83.3734	8876.95	83.2634	8876.95	82.7777	8876.95	82.4274	8876.95	81.5823	8876.95	80.9671	8876.95	78.8871	8876.95	78.4094	8876.95	75.9426	8876.95	75.3981	8876.95	73.0155	8876.95	72.1299	8876.95	69.9016	8876.95	69.2967	8876.95	66.44	8876.95	65.8666	8876.95	62.9419	8876.95	62.205	8876.95	59.6049	8876.95	58.4979	8876.95	56.5038	8876.95	55.6159	8876.95	55.2186	8876.95	54.0431	8876.95	52.9518	8876.95	50.2178	8876.95	49.1882	8876.95	46.1212	8876.95	49.7856	8876.95	48.1642	8876.95	53.4084	8876.95	53.2853	8876.95	38.1053	8876.95	39.4234	8876.95	48.5706
9188.96	83.1926	9188.96	83.3189	9188.96	83.1579	9188.96	82.6559	9188.96	82.3179	9188.96	81.5023	9188.96	80.7654	9188.96	78.741	9188.96	78.2757	9188.96	75.5756	9188.96	74.8335	9188.96	72.5472	9188.96	71.902	9188.96	69.7677	9188.96	68.9891	9188.96	65.8789	9188.96	65.3153	9188.96	61.8714	9188.96	61.3976	9188.96	58.9847	9188.96	57.2406	9188.96	56.8926	9188.96	55.6755	9188.96	54.8219	9188.96	52.7114	9188.96	51.0211	9188.96	48.0632	9188.96	50.1174	9188.96	45.4197	9188.96	50.8663	9188.96	50.1929	9188.96	53.2153	9188.96	53.0427	9188.96	38.9046	9188.96	41.7897	9188.96	48.002
9514.16	83.5342	9514.16	83.3356	9514.16	83.3644	9514.16	82.8667	9514.16	82.5163	9514.16	81.3948	9514.16	80.8239	9514.16	78.5528	9514.16	78.121	9514.16	75.191	9514.16	74.3034	9514.16	72.4468	9514.16	71.5721	9514.16	68.7633	9514.16	67.9617	9514.16	64.6539	9514.16	64.3729	9514.16	61.0675	9514.16	59.9213	9514.16	58.157	9514.16	57.3629	9514.16	55.7986	9514.16	53.9345	9514.16	52.9166	9514.16	50.7283	9514.16	50.3736	9514.16	45.262	9514.16	48.9067	9514.16	41.2174	9514.16	49.0273	9514.16	48.5152	9514.16	51.2485	9514.16	51.93	9514.16	39.2359	9514.16	41.6984	9514.16	45.7191
9849.61	83.8811	9849.61	83.6524	9849.61	83.6389	9849.61	82.9196	9849.61	82.7417	9849.61	81.3299	9849.61	80.7525	9849.61	78.2955	9849.61	77.7941	9849.61	74.9578	9849.61	74.0373	9849.61	71.6322	9849.61	70.6996	9849.61	67.8375	9849.61	66.8454	9849.61	63.8061	9849.61	63.0907	9849.61	59.8437	9849.61	58.5659	9849.61	56.6624	9849.61	56.1369	9849.61	53.0364	9849.61	53.2348	9849.61	49.7072	9849.61	50.0942	9849.61	49.8227	9849.61	44.6723	9849.61	45.0662	9849.61	35.2219	9849.61	49.422	9849.61	46.8929	9849.61	49.5311	9849.61	51.6465	9849.61	43.1142	9849.61	39.9513	9849.61	45.4039
10196.8	83.9977	10196.8	83.5017	10196.8	83.3856	10196.8	82.9438	10196.8	82.6332	10196.8	81.1928	10196.8	80.5743	10196.8	77.9458	10196.8	77.4955	10196.8	74.7281	10196.8	74.1853	10196.8	71.0099	10196.8	70.1736	10196.8	67.6585	10196.8	66.0597	10196.8	63.7896	10196.8	63.1049	10196.8	59.7811	10196.8	58.6961	10196.8	56.9291	10196.8	55.4782	10196.8	53.6301	10196.8	54.2	10196.8	49.9395	10196.8	48.8924	10196.8	50.5293	10196.8	48.3479	10196.8	45.4632	10196.8	35.6431	10196.8	48.9113	10196.8	45.6646	10196.8	49.605	10196.8	51.9581	10196.8	42.8892	10196.8	36.2388	10196.8	40.8941
10555.7	83.3942	10555.7	83.1868	10555.7	83.0271	10555.7	82.4503	10555.7	82.1664	10555.7	81.0204	10555.7	80.0928	10555.7	78.3126	10555.7	77.1842	10555.7	74.7691	10555.7	73.4816	10555.7	70.9641	10555.7	70.1403	10555.7	67.8525	10555.7	67.0832	10555.7	63.9195	10555.7	63.098	10555.7	60.8648	10555.7	58.7794	10555.7	57.1295	10555.7	56.388	10555.7	53.2069	10555.7	53.5678	10555.7	49.243	10555.7	50.737	10555.7	50.5486	10555.7	48.7573	10555.7	43.4602	10555.7	38.5561	10555.7	48.0131	10555.7	43.7936	10555.7	48.4547	10555.7	52.0361	10555.7	43.8602	10555.7	37.5938	10555.7	43.5718
10927.7	82.9685	10927.7	82.3377	10927.7	82.1259	10927.7	82.0605	10927.7	81.3928	10927.7	80.4898	10927.7	79.5531	10927.7	78.1361	10927.7	76.6906	10927.7	74.9433	10927.7	73.7027	10927.7	71.9598	10927.7	70.2502	10927.7	68.776	10927.7	67.4788	10927.7	64.6384	10927.7	63.5062	10927.7	59.6383	10927.7	60.3028	10927.7	56.5091	10927.7	55.3343	10927.7	54.636	10927.7	53.9186	10927.7	50.5246	10927.7	50.989	10927.7	49.5962	10927.7	50.7227	10927.7	45.3744	10927.7	41.3244	10927.7	47.2808	10927.7	37.3591	10927.7	45.4953	10927.7	51.9116	10927.7	41.6899	10927.7	38.2992	10927.7	44.7313
11313	81.5086	11313	81.3706	11313	80.6942	11313	81.689	11313	80.3026	11313	80.7309	11313	78.7676	11313	78.4565	11313	76.8952	11313	75.005	11313	73.3008	11313	72.0165	11313	71.0521	11313	68.9125	11313	67.8896	11313	64.6193	11313	63.6066	11313	61.5127	11313	59.8835	11313	57.0996	11313	57.2386	11313	54.1452	11313	52.6855	11313	50.3544	11313	52.5828	11313	49.8993	11313	50.8915	11313	47.6924	11313	41.7502	11313	47.5802	11313	39.9665	11313	46.069	11313	51.2288	11313	42.3815	11313	35.6031	11313	46.6105
11712.9	80.091	11712.9	80.0676	11712.9	79.0612	11712.9	80.9156	11712.9	79.2742	11712.9	80.1612	11712.9	78.6885	11712.9	78.5799	11712.9	76.952	11712.9	75.2101	11712.9	74.0285	11712.9	71.9602	11712.9	71.1385	11712.9	68.3035	11712.9	67.6245	11712.9	64.5009	11712.9	63.709	11712.9	60.3107	11712.9	60.5915	11712.9	57.1877	11712.9	55.3352	11712.9	54.2583	11712.9	53.3157	11712.9	51.454	11712.9	53.1231	11712.9	50.1501	11712.9	50.2162	11712.9	44.5953	11712.9	43.8391	11712.9	47.4067	11712.9	40.2329	11712.9	45.4601	11712.9	50.7381	11712.9	43.4742	11712.9	35.3384	11712.9	47.5401
12126	78.1584	12126	78.8761	12126	77.4906	12126	80.3369	12126	78.5234	12126	79.988	12126	78.3236	12126	78.1148	12126	77.0302	12126	74.4829	12126	73.4752	12126	71.0942	12126	71.1478	12126	67.6306	12126	67.2234	12126	63.0015	12126	62.7095	12126	57.9873	12126	58.8453	12126	54.3248	12126	55.4378	12126	52.4745	12126	51.6082	12126	49.8717	12126	49.8423	12126	45.8403	12126	50.5118	12126	46.7823	12126	44.7176	12126	46.621	12126	41.9833	12126	42.2823	12126	49.8727	12126	42.3239	12126	39.4013	12126	47.7813
12553.7	77.5832	12553.7	78.5257	12553.7	77.6813	12553.7	79.7731	12553.7	78.1269	12553.7	79.811	12553.7	78.6784	12553.7	77.5639	12553.7	76.7053	12553.7	73.5183	12553.7	73.2607	12553.7	69.7259	12553.7	69.7722	12553.7	65.9453	12553.7	66.4113	12553.7	61.4901	12553.7	61.7491	12553.7	57.3669	12553.7	57.236	12553.7	54.4707	12553.7	54.482	12553.7	52.2813	12553.7	51.1306	12553.7	50.1284	12553.7	50.5718	12553.7	45.5069	12553.7	46.331	12553.7	37.1143	12553.7	41.9024	12553.7	42.5032	12553.7	43.4802	12553.7	43.677	12553.7	46.5496	12553.7	39.9634	12553.7	27.4605	12553.7	48.4389
12996.1	79.3373	12996.1	79.7437	12996.1	79.4483	12996.1	80.3236	12996.1	79.3372	12996.1	80.2211	12996.1	79.4643	12996.1	77.939	12996.1	77.4875	12996.1	73.5876	12996.1	73.4676	12996.1	69.8883	12996.1	69.7719	12996.1	66.1463	12996.1	66.4593	12996.1	62.1798	12996.1	61.9114	12996.1	57.7933	12996.1	57.4335	12996.1	53.6098	12996.1	53.5944	12996.1	51.1621	12996.1	49.9709	12996.1	51.657	12996.1	46.8663	12996.1	42.4343	12996.1	46.355	12996.1	40.0627	12996.1	43.5324	12996.1	40.4108	12996.1	42.0187	12996.1	44.779	12996.1	44.5526	12996.1	40.4657	12996.1	33.3896	12996.1	48.4311
13454.6	80.7819	13454.6	81.2384	13454.6	81.2594	13454.6	80.9286	13454.6	80.4836	13454.6	80.7198	13454.6	80.0371	13454.6	78.6777	13454.6	77.835	13454.6	73.8438	13454.6	73.4591	13454.6	70.3085	13454.6	69.4986	13454.6	66.9374	13454.6	66.5498	13454.6	62.746	13454.6	61.8777	13454.6	59.516	13454.6	57.4401	13454.6	55.076	13454.6	53.4436	13454.6	52.8283	13454.6	48.9651	13454.6	52.6699	13454.6	47.8294	13454.6	45.236	13454.6	44.7335	13454.6	38.7291	13454.6	42.8445	13454.6	31.4577	13454.6	42.889	13454.6	46.321	13454.6	41.3115	13454.6	34.692	13454.6	33.881	13454.6	45.5941
13929.2	82.2427	13929.2	82.586	13929.2	82.6535	13929.2	81.7519	13929.2	81.6338	13929.2	81.1632	13929.2	80.6238	13929.2	78.9584	13929.2	78.4036	13929.2	74.6959	13929.2	73.9084	13929.2	70.7682	13929.2	69.7161	13929.2	67.2731	13929.2	66.601	13929.2	63.3539	13929.2	61.4885	13929.2	59.8343	13929.2	58.2768	13929.2	55.3115	13929.2	53.5825	13929.2	52.5318	13929.2	50.0605	13929.2	51.7534	13929.2	45.3547	13929.2	46.3429	13929.2	44.4931	13929.2	33.6633	13929.2	40.0622	13929.2	34.7867	13929.2	38.8679	13929.2	45.8822	13929.2	38.777	13929.2	37.8008	13929.2	33.1153	13929.2	44.752
14419.9	83.3958	14419.9	83.2665	14419.9	83.524	14419.9	82.3777	14419.9	82.4673	14419.9	81.5703	14419.9	81.0201	14419.9	79.4448	14419.9	78.6168	14419.9	74.9187	14419.9	73.8223	14419.9	71.0462	14419.9	69.4615	14419.9	67.5396	14419.9	65.8949	14419.9	63.451	14419.9	61.9647	14419.9	59.7999	14419.9	57.6587	14419.9	55.9952	14419.9	54.2066	14419.9	53.1951	14419.9	49.0684	14419.9	52.4798	14419.9	47.3745	14419.9	47.4966	14419.9	45.1558	14419.9	35.1532	14419.9	40.2993	14419.9	34.8261	14419.9	37.2104	14419.9	46.1562	14419.9	34.7469	14419.9	36.6753	14419.9	27.5245	14419.9	41.2391
14928.2	84.0782	14928.2	83.9833	14928.2	84.1652	14928.2	82.7867	14928.2	82.9835	14928.2	81.6941	14928.2	81.1512	14928.2	79.4814	14928.2	78.325	14928.2	75.2337	14928.2	73.6271	14928.2	70.8999	14928.2	68.2506	14928.2	67.3565	14928.2	65.6725	14928.2	63.5217	14928.2	61.3395	14928.2	60.197	14928.2	57.5546	14928.2	55.3523	14928.2	53.9926	14928.2	51.6984	14928.2	49.5586	14928.2	51.5934	14928.2	46.1818	14928.2	45.3989	14928.2	43.6861	14928.2	32.7284	14928.2	39.1559	14928.2	33.3585	14928.2	34.1616	14928.2	45.5441	14928.2	36.3896	14928.2	32.7054	14928.2	30.1379	14928.2	39.2507
15455.6	84.4319	15455.6	84.0506	15455.6	84.2806	15455.6	83.0491	15455.6	83.1421	15455.6	81.7896	15455.6	81.1445	15455.6	79.6227	15455.6	78.301	15455.6	75.2054	15455.6	73.6689	15455.6	70.6441	15455.6	68.6155	15455.6	66.6125	15455.6	65.175	15455.6	62.5768	15455.6	60.1903	15455.6	59.0429	15455.6	56.1763	15455.6	53.9612	15455.6	51.7856	15455.6	49.6994	15455.6	47.7055	15455.6	49.6845	15455.6	41.2365	15455.6	43.4866	15455.6	41.1765	15455.6	32.9615	15455.6	35.9409	15455.6	36.5744	15455.6	36.0113	15455.6	43.6107	15455.6	38.7809	15455.6	33.6854	15455.6	34.7035	15455.6	34.2125
16000.5	84.7037	16000.5	84.3354	16000.5	84.4637	16000.5	83.1657	16000.5	83.1817	16000.5	81.5526	16000.5	80.9768	16000.5	78.8749	16000.5	77.6395	16000.5	74.0265	16000.5	71.9419	16000.5	68.6934	16000.5	65.9222	16000.5	65.1381	16000.5	61.7458	16000.5	60.9319	16000.5	56.3317	16000.5	55.8862	16000.5	52.9138	16000.5	52.3961	16000.5	49.1401	16000.5	47.455	16000.5	46.3234	16000.5	45.477	16000.5	42.2133	16000.5	29.6014	16000.5	38.9257	16000.5	31.1323	16000.5	25.9534	16000.5	35.3908	16000.5	30.5794	16000.5	38.5285	16000.5	35.3182	16000.5	34.3728	16000.5	37.6152	16000.5	30.2348
16564.5	85.1655	16564.5	85.0174	16564.5	84.6968	16564.5	83.6172	16564.5	83.0506	16564.5	81.3472	16564.5	80.3649	16564.5	77.9042	16564.5	76.4372	16564.5	72.2343	16564.5	69.6032	16564.5	65.9388	16564.5	62.6339	16564.5	61.7747	16564.5	59.474	16564.5	57.3018	16564.5	54.2491	16564.5	52.1988	16564.5	50.7404	16564.5	49.5927	16564.5	47.1333	16564.5	41.6926	16564.5	44.0026	16564.5	42.9222	16564.5	38.6875	16564.5	38.98	16564.5	31.9059	16564.5	31.6793	16564.5	29.4599	16564.5	34.2756	16564.5	31.7608	16564.5	28.9589	16564.5	40.9919	16564.5	25.3987	16564.5	33.0326	16564.5	32.6064
17148.9	85.6098	17148.9	85.7675	17148.9	84.972	17148.9	84.4077	17148.9	83.1032	17148.9	81.6489	17148.9	80.1769	17148.9	77.3947	17148.9	75.8384	17148.9	70.6128	17148.9	68.7443	17148.9	63.4766	17148.9	61.2077	17148.9	58.6833	17148.9	56.9333	17148.9	54.5459	17148.9	50.4079	17148.9	48.8302	17148.9	48.2344	17148.9	45.4899	17148.9	44.8008	17148.9	42.3653	17148.9	41.2201	17148.9	32.7829	17148.9	41.2224	17148.9	38.3135	17148.9	33.5892	17148.9	30.7814	17148.9	30.2849	17148.9	34.9095	17148.9	26.7905	17148.9	29.6079	17148.9	40.4164	17148.9	31.1591	17148.9	32.6617	17148.9	28.2484
17752.4	85.9711	17752.4	86.1746	17752.4	85.2809	17752.4	84.7944	17752.4	83.2657	17752.4	81.7782	17752.4	80.0083	17752.4	76.6732	17752.4	74.8587	17752.4	68.2879	17752.4	66.3594	17752.4	58.8024	17752.4	56.4281	17752.4	52.8563	17752.4	48.1298	17752.4	48.6428	17752.4	35.0954	17752.4	40.7368	17752.4	39.2434	17752.4	41.4426	17752.4	33.2958	17752.4	37.9682	17752.4	35.6973	17752.4	33.39	17752.4	37.4799	17752.4	36.9391	17752.4	28.7561	17752.4	25.9681	17752.4	32.7683	17752.4	27.1508	17752.4	28.5796	17752.4	38.4468	17752.4	29.9217	17752.4	35.802	17752.4	26.9021	17752.4	27.7974
18379.4	86.1952	18379.4	86.3538	18379.4	85.4633	18379.4	84.7484	18379.4	83.2882	18379.4	81.1927	18379.4	79.5116	18379.4	74.872	18379.4	72.8266	18379.4	64.3701	18379.4	60.9639	18379.4	49.6843	18379.4	50.4692	18379.4	42.4029	18379.4	49.2258	18379.4	47.2708	18379.4	46.2046	18379.4	41.0124	18379.4	41.1306	18379.4	38.4726	18379.4	36.9114	18379.4	21.1235	18379.4	30.1595	18379.4	35.4024	18379.4	29.1718	18379.4	38.2019	18379.4	23.7546	18379.4	30.365	18379.4	30.9642	18379.4	21.9793	18379.4	35.7871	18379.4	40.4526	18379.4	37.5697	18379.4	35.2746	18379.4	34.6638	18379.4	34.5893
19026.9	86.5944	19026.9	86.5983	19026.9	85.6935	19026.9	84.6109	19026.9	83.2332	19026.9	80.1864	19026.9	78.8703	19026.9	71.241	19026.9	70.75	19026.9	57.9554	19026.9	57.0642	19026.9	60.0441	19026.9	57.9536	19026.9	57.5302	19026.9	56.2167	19026.9	55.2902	19026.9	52.6061	19026.9	50.8675	19026.9	47.1843	19026.9	43.9474	19026.9	42.3608	19026.9	38.6147	19026.9	37.9924	19026.9	24.6151	19026.9	38.4086	19026.9	31.2457	19026.9	26.7647	19026.9	31.2501	19026.9	32.9987	19026.9	36.2116	19026.9	35.0259	19026.9	37.2643	19026.9	36.1668	19026.9	37.8752	19026.9	35.0517	19026.9	36.3818
19697.8	86.6397	19697.8	86.384	19697.8	85.5752	19697.8	83.9125	19697.8	82.6319	19697.8	78.4878	19697.8	77.7675	19697.8	64.2577	19697.8	66.8826	19697.8	64.389	19697.8	63.3919	19697.8	65.0451	19697.8	63.8863	19697.8	61.4172	19697.8	59.8829	19697.8	58.9056	19697.8	55.5464	19697.8	53.3661	19697.8	51.1743	19697.8	48.4261	19697.8	47.4406	19697.8	41.0421	19697.8	41.038	19697.8	26.1547	19697.8	43.0604	19697.8	32.2139	19697.8	30.041	19697.8	28.7702	19697.8	36.1576	19697.8	39.119	19697.8	33.5582	19697.8	40.0273	19697.8	33.8623	19697.8	39.8476	19697.8	32.1141	19697.8	33.3485
19999.5	86.5139	19999.5	85.9877	19999.5	85.1547	19999.5	83.228	19999.5	82.2905	19999.5	77.6849	19999.5	76.6119	19999.5	61.9679	19999.5	65.3456	19999.5	67.2083	19999.5	65.1004	19999.5	65.7431	19999.5	65.3065	19999.5	62.5355	19999.5	61.161	19999.5	58.7353	19999.5	55.4341	19999.5	53.6533	19999.5	53.7564	19999.5	45.9699	19999.5	48.2606	19999.5	46.2426	19999.5	45.3428	19999.5	41.5482	19999.5	35.5602	19999.5	41.6253	19999.5	48.2855	19999.5	45.8968	19999.5	44.8454	19999.5	30.4981	19999.5	41.1191	19999.5	40.3619	19999.5	36.6197	19999.5	41.005	19999.5	41.4318	19999.5	45.8382
