"SPL Vertical"
"On-Axis"		"10°"		"-10°"		"20°"		"-20°"		"30°"		"-30°"		"40°"		"-40°"		"50°"		"-50°"		"60°"		"-60°"		"70°"		"-70°"		"80°"		"-80°"		"90°"		"-90°"		"100°"		"-100°"		"110°"		"-110°"		"120°"		"-120°"		"130°"		"-130°"		"140°"		"-140°"		"150°"		"-150°"		"160°"		"-160°"		"170°"		"-170°"		"180°"
"Frequency / Hz"	"Sound Pressure Level / dB (re 20 µPa/V)   /[0.3V at 1m]"	"Frequency / Hz"	"Sound Pressure Level / dB (re 20 µPa/V)   /[0.3V at 1m]"	"Frequency / Hz"	"Sound Pressure Level / dB (re 20 µPa/V)   /[0.3V at 1m]"	"Frequency / Hz"	"Sound Pressure Level / dB (re 20 µPa/V)   /[0.3V at 1m]"	"Frequency / Hz"	"Sound Pressure Level / dB (re 20 µPa/V)   /[0.3V at 1m]"	"Frequency / Hz"	"Sound Pressure Level / dB (re 20 µPa/V)   /[0.3V at 1m]"	"Frequency / Hz"	"Sound Pressure Level / dB (re 20 µPa/V)   /[0.3V at 1m]"	"Frequency / Hz"	"Sound Pressure Level / dB (re 20 µPa/V)   /[0.3V at 1m]"	"Frequency / Hz"	"Sound Pressure Level / dB (re 20 µPa/V)   /[0.3V at 1m]"	"Frequency / Hz"	"Sound Pressure Level / dB (re 20 µPa/V)   /[0.3V at 1m]"	"Frequency / Hz"	"Sound Pressure Level / dB (re 20 µPa/V)   /[0.3V at 1m]"	"Frequency / Hz"	"Sound Pressure Level / dB (re 20 µPa/V)   /[0.3V at 1m]"	"Frequency / Hz"	"Sound Pressure Level / dB (re 20 µPa/V)   /[0.3V at 1m]"	"Frequency / Hz"	"Sound Pressure Level / dB (re 20 µPa/V)   /[0.3V at 1m]"	"Frequency / Hz"	"Sound Pressure Level / dB (re 20 µPa/V)   /[0.3V at 1m]"	"Frequency / Hz"	"Sound Pressure Level / dB (re 20 µPa/V)   /[0.3V at 1m]"	"Frequency / Hz"	"Sound Pressure Level / dB (re 20 µPa/V)   /[0.3V at 1m]"	"Frequency / Hz"	"Sound Pressure Level / dB (re 20 µPa/V)   /[0.3V at 1m]"	"Frequency / Hz"	"Sound Pressure Level / dB (re 20 µPa/V)   /[0.3V at 1m]"	"Frequency / Hz"	"Sound Pressure Level / dB (re 20 µPa/V)   /[0.3V at 1m]"	"Frequency / Hz"	"Sound Pressure Level / dB (re 20 µPa/V)   /[0.3V at 1m]"	"Frequency / Hz"	"Sound Pressure Level / dB (re 20 µPa/V)   /[0.3V at 1m]"	"Frequency / Hz"	"Sound Pressure Level / dB (re 20 µPa/V)   /[0.3V at 1m]"	"Frequency / Hz"	"Sound Pressure Level / dB (re 20 µPa/V)   /[0.3V at 1m]"	"Frequency / Hz"	"Sound Pressure Level / dB (re 20 µPa/V)   /[0.3V at 1m]"	"Frequency / Hz"	"Sound Pressure Level / dB (re 20 µPa/V)   /[0.3V at 1m]"	"Frequency / Hz"	"Sound Pressure Level / dB (re 20 µPa/V)   /[0.3V at 1m]"	"Frequency / Hz"	"Sound Pressure Level / dB (re 20 µPa/V)   /[0.3V at 1m]"	"Frequency / Hz"	"Sound Pressure Level / dB (re 20 µPa/V)   /[0.3V at 1m]"	"Frequency / Hz"	"Sound Pressure Level / dB (re 20 µPa/V)   /[0.3V at 1m]"	"Frequency / Hz"	"Sound Pressure Level / dB (re 20 µPa/V)   /[0.3V at 1m]"	"Frequency / Hz"	"Sound Pressure Level / dB (re 20 µPa/V)   /[0.3V at 1m]"	"Frequency / Hz"	"Sound Pressure Level / dB (re 20 µPa/V)   /[0.3V at 1m]"	"Frequency / Hz"	"Sound Pressure Level / dB (re 20 µPa/V)   /[0.3V at 1m]"	"Frequency / Hz"	"Sound Pressure Level / dB (re 20 µPa/V)   /[0.3V at 1m]"	"Frequency / Hz"	"Sound Pressure Level / dB (re 20 µPa/V)   /[0.3V at 1m]"
20.5078	51.6344	20.5078	51.2919	20.5078	52.0018	20.5078	50.9824	20.5078	52.3845	20.5078	50.7125	20.5078	52.7716	20.5078	50.4876	20.5078	53.151	20.5078	50.3117	20.5078	53.5096	20.5078	50.188	20.5078	53.8346	20.5078	50.1187	20.5078	54.1134	20.5078	50.1053	20.5078	54.3345	20.5078	50.1488	20.5078	54.4884	20.5078	50.2493	20.5078	54.5681	20.5078	50.4062	20.5078	54.5695	20.5078	50.6176	20.5078	54.4919	20.5078	50.8805	20.5078	54.3379	20.5078	51.1898	20.5078	54.1132	20.5078	51.5385	20.5078	53.8269	20.5078	51.9176	20.5078	53.4902	20.5078	52.3158	20.5078	53.1165	20.5078	52.7202
21.9727	49.8452	21.9727	49.4489	21.9727	50.2793	21.9727	49.0998	21.9727	50.7392	21.9727	48.8047	21.9727	51.2102	21.9727	48.5676	21.9727	51.6759	21.9727	48.3908	21.9727	52.119	21.9727	48.2749	21.9727	52.5224	21.9727	48.22	21.9727	52.8695	21.9727	48.2257	21.9727	53.1461	21.9727	48.2916	21.9727	53.3401	21.9727	48.4172	21.9727	53.4432	21.9727	48.6021	21.9727	53.4505	21.9727	48.8452	21.9727	53.3613	21.9727	49.1444	21.9727	53.1794	21.9727	49.4961	21.9727	52.9122	21.9727	49.8941	21.9727	52.5713	21.9727	50.3297	21.9727	52.1713	21.9727	50.7909	21.9727	51.7292	21.9727	51.263
23.4375	53.8104	23.4375	53.4268	23.4375	54.2164	23.4375	53.0747	23.4375	54.6337	23.4375	52.7612	23.4375	55.0498	23.4375	52.4919	23.4375	55.451	23.4375	52.2712	23.4375	55.8227	23.4375	52.102	23.4375	56.1505	23.4375	51.9866	23.4375	56.4205	23.4375	51.9268	23.4375	56.6209	23.4375	51.9241	23.4375	56.7418	23.4375	51.9798	23.4375	56.7766	23.4375	52.0948	23.4375	56.7223	23.4375	52.2695	23.4375	56.5799	23.4375	52.5034	23.4375	56.3541	23.4375	52.7943	23.4375	56.054	23.4375	53.1375	23.4375	55.6919	23.4375	53.526	23.4375	55.2829	23.4375	53.9492	23.4375	54.8443	23.4375	54.394
24.9023	54.3705	24.9023	53.9719	24.9023	54.805	24.9023	53.6192	24.9023	55.2621	24.9023	53.32	24.9023	55.7267	24.9023	53.0789	24.9023	56.1818	24.9023	52.8984	24.9023	56.61	24.9023	52.7791	24.9023	56.994	24.9023	52.7206	24.9023	57.3181	24.9023	52.7221	24.9023	57.5685	24.9023	52.7824	24.9023	57.7345	24.9023	52.9002	24.9023	57.8092	24.9023	53.0742	24.9023	57.7893	24.9023	53.3026	24.9023	57.6761	24.9023	53.5831	24.9023	57.4749	24.9023	53.9121	24.9023	57.1952	24.9023	54.2844	24.9023	56.8495	24.9023	54.6926	24.9023	56.453	24.9023	55.1269	24.9023	56.0226	24.9023	55.5751
26.3672	58.4942	26.3672	58.1381	26.3672	58.8737	26.3672	57.8145	26.3672	59.265	26.3672	57.5306	26.3672	59.6551	26.3672	57.2914	26.3672	60.0296	26.3672	57.1	26.3672	60.3734	26.3672	56.9578	26.3672	60.6717	26.3672	56.8653	26.3672	60.911	26.3672	56.8219	26.3672	61.0796	26.3672	56.8268	26.3672	61.1685	26.3672	56.879	26.3672	61.1726	26.3672	56.9776	26.3672	61.0906	26.3672	57.1218	26.3672	60.926	26.3672	57.3107	26.3672	60.6864	26.3672	57.5437	26.3672	60.3836	26.3672	57.8191	26.3672	60.0327	26.3672	58.1342	26.3672	59.6506	26.3672	58.4841	26.3672	59.2547	26.3672	58.8612
27.832	61.5883	27.832	61.2482	27.832	61.9482	27.832	60.9363	27.832	62.3176	27.832	60.6592	27.832	62.6844	27.832	60.4212	27.832	63.0349	27.832	60.2255	27.832	63.355	27.832	60.0735	27.832	63.6305	27.832	59.9662	27.832	63.8481	27.832	59.9036	27.832	63.9965	27.832	59.8857	27.832	64.067	27.832	59.9123	27.832	64.0545	27.832	59.9834	27.832	63.9578	27.832	60.0993	27.832	63.7806	27.832	60.2602	27.832	63.5309	27.832	60.4663	27.832	63.2207	27.832	60.717	27.832	62.8657	27.832	61.0105	27.832	62.4833	27.832	61.3428	27.832	62.0914	27.832	61.7066
29.2969	64.7137	29.2969	64.399	29.2969	65.0461	29.2969	64.1096	29.2969	65.3864	29.2969	63.8515	29.2969	65.7235	29.2969	63.6287	29.2969	66.0446	29.2969	63.4442	29.2969	66.3363	29.2969	63.2992	29.2969	66.5853	29.2969	63.1947	29.2969	66.7788	29.2969	63.1306	29.2969	66.9062	29.2969	63.1069	29.2969	66.9593	29.2969	63.1233	29.2969	66.9337	29.2969	63.1797	29.2969	66.8289	29.2969	63.2763	29.2969	66.649	29.2969	63.4133	29.2969	66.4028	29.2969	63.591	29.2969	66.1028	29.2969	63.8096	29.2969	65.7648	29.2969	64.0681	29.2969	65.4059	29.2969	64.3639	29.2969	65.0432	29.2969	64.6918
30.7617	67.7764	30.7617	67.4768	30.7617	68.0905	30.7617	67.1988	30.7617	68.41	30.7617	66.9482	30.7617	68.7244	30.7617	66.729	30.7617	69.0219	30.7617	66.544	30.7617	69.29	30.7617	66.3951	30.7617	69.5161	30.7617	66.2832	30.7617	69.6882	30.7617	66.2088	30.7617	69.7963	30.7617	66.1722	30.7617	69.8329	30.7617	66.1734	30.7617	69.7937	30.7617	66.2126	30.7617	69.6788	30.7617	66.2902	30.7617	69.4926	30.7617	66.407	30.7617	69.244	30.7617	66.5635	30.7617	68.9457	30.7617	66.7603	30.7617	68.6136	30.7617	66.9972	30.7617	68.2646	30.7617	67.2722	30.7617	67.9155	30.7617	67.5809
32.2266	70.5649	32.2266	70.2747	32.2266	70.8682	32.2266	70.0045	32.2266	71.1758	32.2266	69.76	32.2266	71.4775	32.2266	69.5454	32.2266	71.7621	32.2266	69.3637	32.2266	72.0175	32.2266	69.2166	32.2266	72.2316	32.2266	69.1055	32.2266	72.3933	32.2266	69.0308	32.2266	72.4929	32.2266	68.9929	32.2266	72.5232	32.2266	68.9919	32.2266	72.4806	32.2266	69.028	32.2266	72.3652	32.2266	69.1013	32.2266	72.1817	32.2266	69.2124	32.2266	71.9389	32.2266	69.3619	32.2266	71.6492	32.2266	69.5501	32.2266	71.3281	32.2266	69.7767	32.2266	70.9918	32.2266	70.0398	32.2266	70.6564	32.2266	70.3355
33.6914	73.0897	33.6914	72.8145	33.6914	73.3775	33.6914	72.5589	33.6914	73.6695	33.6914	72.3284	33.6914	73.9558	33.6914	72.127	33.6914	74.2257	33.6914	71.9576	33.6914	74.4676	33.6914	71.822	33.6914	74.67	33.6914	71.7213	33.6914	74.8222	33.6914	71.6558	33.6914	74.9151	33.6914	71.6256	33.6914	74.9421	33.6914	71.6305	33.6914	74.9001	33.6914	71.67	33.6914	74.7897	33.6914	71.744	33.6914	74.6157	33.6914	71.8524	33.6914	74.387	33.6914	71.9952	33.6914	74.116	33.6914	72.1725	33.6914	73.817	33.6914	72.3836	33.6914	73.5055	33.6914	72.6273	33.6914	73.1958	33.6914	72.9
35.1562	75.6607	35.1562	75.3852	35.1562	75.9449	35.1562	75.1257	35.1562	76.2292	35.1562	74.8882	35.1562	76.5042	35.1562	74.6775	35.1562	76.7593	35.1562	74.4972	35.1562	76.9838	35.1562	74.3498	35.1562	77.167	35.1562	74.2372	35.1562	77.299	35.1562	74.1601	35.1562	77.3719	35.1562	74.1189	35.1562	77.3801	35.1562	74.1135	35.1562	77.3211	35.1562	74.1436	35.1562	77.1965	35.1562	74.2086	35.1562	77.0117	35.1562	74.3083	35.1562	76.7761	35.1562	74.4422	35.1562	76.5022	35.1562	74.6102	35.1562	76.2043	35.1562	74.8116	35.1562	75.8973	35.1562	75.0452	35.1562	75.5948	35.1562	75.3081
36.6211	77.745	36.6211	77.489	36.6211	78.0081	36.6211	77.2466	36.6211	78.2703	36.6211	77.0235	36.6211	78.523	36.6211	76.8238	36.6211	78.7563	36.6211	76.6511	36.6211	78.9602	36.6211	76.5076	36.6211	79.1245	36.6211	76.3952	36.6211	79.2401	36.6211	76.3148	36.6211	79.2994	36.6211	76.2668	36.6211	79.2971	36.6211	76.2514	36.6211	79.2311	36.6211	76.2685	36.6211	79.1032	36.6211	76.318	36.6211	78.9191	36.6211	76.3999	36.6211	78.6881	36.6211	76.5143	36.6211	78.4226	36.6211	76.6613	36.6211	78.1368	36.6211	76.841	36.6211	77.8452	36.6211	77.0527	36.6211	77.5608	36.6211	77.2942
38.0859	79.3369	38.0859	79.0745	38.0859	79.6033	38.0859	78.8233	38.0859	79.8656	38.0859	78.5893	38.0859	80.1143	38.0859	78.3773	38.0859	80.3394	38.0859	78.1911	38.0859	80.5304	38.0859	78.0337	38.0859	80.6772	38.0859	77.9072	38.0859	80.7706	38.0859	77.8129	38.0859	80.8034	38.0859	77.7514	38.0859	80.7714	38.0859	77.723	38.0859	80.674	38.0859	77.7275	38.0859	80.515	38.0859	77.7646	38.0859	80.3025	38.0859	77.8338	38.0859	80.0485	38.0859	77.9348	38.0859	79.7673	38.0859	78.0674	38.0859	79.4743	38.0859	78.2317	38.0859	79.1837	38.0859	78.4273	38.0859	78.9073	38.0859	78.6534
39.5508	80.7416	39.5508	80.4845	39.5508	81.0015	39.5508	80.2374	39.5508	81.256	39.5508	80.0064	39.5508	81.4961	39.5508	79.7966	39.5508	81.7118	39.5508	79.612	39.5508	81.8933	39.5508	79.4558	39.5508	82.0308	39.5508	79.3301	39.5508	82.1157	39.5508	79.2365	39.5508	82.1415	39.5508	79.1758	39.5508	82.1044	39.5508	79.148	39.5508	82.0046	39.5508	79.1528	39.5508	81.846	39.5508	79.1897	39.5508	81.6372	39.5508	79.2579	39.5508	81.3897	39.5508	79.3568	39.5508	81.1177	39.5508	79.4858	39.5508	80.8357	39.5508	79.6447	39.5508	80.5571	39.5508	79.833	39.5508	80.2926	39.5508	80.0497
41.0156	81.8305	41.0156	81.5808	41.0156	82.0819	41.0156	81.3399	41.0156	82.327	41.0156	81.1139	41.0156	82.5568	41.0156	80.9079	41.0156	82.762	41.0156	80.7261	41.0156	82.9329	41.0156	80.5716	41.0156	83.0604	41.0156	80.447	41.0156	83.1363	41.0156	80.3537	41.0156	83.1546	41.0156	80.2925	41.0156	83.1121	41.0156	80.2636	41.0156	83.0092	41.0156	80.2666	41.0156	82.8505	41.0156	80.3007	41.0156	82.6444	41.0156	80.3652	41.0156	82.4027	41.0156	80.4592	41.0156	82.1392	41.0156	80.5819	41.0156	81.8678	41.0156	80.7329	41.0156	81.601	41.0156	80.9118	41.0156	81.3487	41.0156	81.1177
42.4805	82.6329	42.4805	82.3881	42.4805	82.8782	42.4805	82.1506	42.4805	83.1158	42.4805	81.9268	42.4805	83.3372	42.4805	81.7217	42.4805	83.5332	42.4805	81.5399	42.4805	83.6946	42.4805	81.3846	42.4805	83.8126	42.4805	81.2585	42.4805	83.8795	42.4805	81.1632	42.4805	83.8897	42.4805	81.0998	42.4805	83.8407	42.4805	81.0683	42.4805	83.7332	42.4805	81.0684	42.4805	83.5722	42.4805	81.0993	42.4805	83.3664	42.4805	81.1601	42.4805	83.1275	42.4805	81.2496	42.4805	82.8691	42.4805	81.367	42.4805	82.6047	42.4805	81.5117	42.4805	82.3463	42.4805	81.6832	42.4805	82.103	42.4805	81.8808
43.9453	83.1615	43.9453	82.9219	43.9453	83.4	43.9453	82.6881	43.9453	83.6296	43.9453	82.4662	43.9453	83.8419	43.9453	82.2615	43.9453	84.0281	43.9453	82.0784	43.9453	84.1791	43.9453	81.9204	43.9453	84.2867	43.9453	81.7903	43.9453	84.3435	43.9453	81.6899	43.9453	84.3445	43.9453	81.6203	43.9453	84.2871	43.9453	81.582	43.9453	84.1727	43.9453	81.5746	43.9453	84.0065	43.9453	81.5977	43.9453	83.7972	43.9453	81.6503	43.9453	83.557	43.9453	81.7315	43.9453	83.2993	43.9453	81.8405	43.9453	83.0376	43.9453	81.9769	43.9453	82.7835	43.9453	82.1404	43.9453	82.5459	43.9453	82.3305
45.4102	83.5785	45.4102	83.3435	45.4102	83.8119	45.4102	83.1138	45.4102	84.0361	45.4102	82.8957	45.4102	84.2428	45.4102	82.6942	45.4102	84.4233	45.4102	82.514	45.4102	84.569	45.4102	82.3586	45.4102	84.6718	45.4102	82.2306	45.4102	84.7247	45.4102	82.1321	45.4102	84.723	45.4102	82.0641	45.4102	84.6647	45.4102	82.0269	45.4102	84.5511	45.4102	82.0204	45.4102	84.3877	45.4102	82.0438	45.4102	84.1832	45.4102	82.0961	45.4102	83.9494	45.4102	82.1763	45.4102	83.6994	45.4102	82.2834	45.4102	83.4459	45.4102	82.4169	45.4102	83.2	45.4102	82.5764	45.4102	82.97	45.4102	82.7611
46.875	83.7843	46.875	83.5526	46.875	84.0137	46.875	83.3256	46.875	84.2332	46.875	83.1096	46.875	84.4345	46.875	82.9098	46.875	84.6093	46.875	82.7309	46.875	84.7491	46.875	82.5767	46.875	84.846	46.875	82.4499	46.875	84.8937	46.875	82.3526	46.875	84.8877	46.875	82.2859	46.875	84.8264	46.875	82.25	46.875	84.7116	46.875	82.2445	46.875	84.5491	46.875	82.2687	46.875	84.3477	46.875	82.3212	46.875	84.1191	46.875	82.4007	46.875	83.876	46.875	82.5062	46.875	83.6306	46.875	82.6366	46.875	83.3933	46.875	82.7914	46.875	83.1716	46.875	82.9701
48.3398	84.0047	48.3398	83.7777	48.3398	84.228	48.3398	83.554	48.3398	84.4401	48.3398	83.3396	48.3398	84.633	48.3398	83.1402	48.3398	84.7986	48.3398	82.9602	48.3398	84.9288	48.3398	82.8036	48.3398	85.016	48.3398	82.6733	48.3398	85.0541	48.3398	82.5715	48.3398	85.0391	48.3398	82.4994	48.3398	84.9699	48.3398	82.4574	48.3398	84.8485	48.3398	82.4454	48.3398	84.6809	48.3398	82.4625	48.3398	84.4764	48.3398	82.5077	48.3398	84.2467	48.3398	82.5796	48.3398	84.0044	48.3398	82.6773	48.3398	83.7619	48.3398	82.7999	48.3398	83.529	48.3398	82.9471	48.3398	83.3131	48.3398	83.1184
51.2695	83.9882	51.2695	83.7687	51.2695	84.2047	51.2695	83.5532	51.2695	84.4108	51.2695	83.3479	51.2695	84.5985	51.2695	83.1586	51.2695	84.76	51.2695	82.9901	51.2695	84.8875	51.2695	82.8461	51.2695	84.9742	51.2695	82.7298	51.2695	85.0144	51.2695	82.643	51.2695	85.0049	51.2695	82.5868	51.2695	84.945	51.2695	82.5611	51.2695	84.8373	51.2695	82.5652	51.2695	84.6877	51.2695	82.5974	51.2695	84.5049	51.2695	82.6559	51.2695	84.2998	51.2695	82.7386	51.2695	84.0835	51.2695	82.8436	51.2695	83.8662	51.2695	82.9691	51.2695	83.6562	51.2695	83.1141	51.2695	83.4589	51.2695	83.2776
52.7344	83.9663	52.7344	83.7474	52.7344	84.1809	52.7344	83.5313	52.7344	84.3836	52.7344	83.3245	52.7344	84.5665	52.7344	83.133	52.7344	84.722	52.7344	82.9619	52.7344	84.8425	52.7344	82.8153	52.7344	84.9215	52.7344	82.6966	52.7344	84.954	52.7344	82.608	52.7344	84.9373	52.7344	82.5504	52.7344	84.8711	52.7344	82.524	52.7344	84.7588	52.7344	82.5278	52.7344	84.6068	52.7344	82.5601	52.7344	84.4241	52.7344	82.6188	52.7344	84.2216	52.7344	82.7013	52.7344	84.0099	52.7344	82.8054	52.7344	83.7989	52.7344	82.929	52.7344	83.5957	52.7344	83.0708	52.7344	83.4051	52.7344	83.2298
54.1992	84.0116	54.1992	83.7911	54.1992	84.2253	54.1992	83.5712	54.1992	84.4246	54.1992	83.3584	54.1992	84.6018	54.1992	83.1591	54.1992	84.7492	54.1992	82.9788	54.1992	84.8594	54.1992	82.8219	54.1992	84.9263	54.1992	82.6923	54.1992	84.945	54.1992	82.5925	54.1992	84.9132	54.1992	82.524	54.1992	84.8315	54.1992	82.4871	54.1992	84.7037	54.1992	82.481	54.1992	84.5371	54.1992	82.5043	54.1992	84.3417	54.1992	82.5546	54.1992	84.1291	54.1992	82.6294	54.1992	83.9105	54.1992	82.7263	54.1992	83.6959	54.1992	82.8433	54.1992	83.4923	54.1992	82.979	54.1992	83.3039	54.1992	83.1326
55.6641	84.0289	55.6641	83.8129	55.6641	84.2374	55.6641	83.5964	55.6641	84.431	55.6641	83.3862	55.6641	84.602	55.6641	83.1883	55.6641	84.7429	55.6641	83.008	55.6641	84.8466	55.6641	82.8499	55.6641	84.9071	55.6641	82.7177	55.6641	84.9197	55.6641	82.614	55.6641	84.8822	55.6641	82.5403	55.6641	84.7952	55.6641	82.4972	55.6641	84.6628	55.6641	82.4842	55.6641	84.4923	55.6641	82.4997	55.6641	84.2936	55.6641	82.542	55.6641	84.0784	55.6641	82.6088	55.6641	83.8583	55.6641	82.6979	55.6641	83.6431	55.6641	82.8078	55.6641	83.4402	55.6641	82.9373	55.6641	83.2539	55.6641	83.086
58.5938	83.8985	58.5938	83.6861	58.5938	84.1025	58.5938	83.4726	58.5938	84.2909	58.5938	83.2649	58.5938	84.456	58.5938	83.0692	58.5938	84.5905	58.5938	82.8913	58.5938	84.6878	58.5938	82.7359	58.5938	84.7421	58.5938	82.6069	58.5938	84.7496	58.5938	82.507	58.5938	84.7087	58.5938	82.4379	58.5938	84.6205	58.5938	82.3998	58.5938	84.4897	58.5938	82.3919	58.5938	84.3238	58.5938	82.4125	58.5938	84.1331	58.5938	82.4591	58.5938	83.9286	58.5938	82.529	58.5938	83.7212	58.5938	82.6195	58.5938	83.5195	58.5938	82.7284	58.5938	83.3298	58.5938	82.8543	58.5938	83.1551	58.5938	82.9965
60.0586	83.8638	60.0586	83.6513	60.0586	84.0672	60.0586	83.4369	60.0586	84.254	60.0586	83.2276	60.0586	84.4167	60.0586	83.0299	60.0586	84.5483	60.0586	82.8496	60.0586	84.6422	60.0586	82.6917	60.0586	84.6928	60.0586	82.5604	60.0586	84.6966	60.0586	82.4585	60.0586	84.6523	60.0586	82.3879	60.0586	84.5612	60.0586	82.3488	60.0586	84.4284	60.0586	82.3405	60.0586	84.2616	60.0586	82.3611	60.0586	84.0709	60.0586	82.4081	60.0586	83.8675	60.0586	82.4786	60.0586	83.662	60.0586	82.5696	60.0586	83.4626	60.0586	82.6787	60.0586	83.2752	60.0586	82.8043	60.0586	83.1026	60.0586	82.9456
62.9883	83.8042	62.9883	83.5965	62.9883	84.0008	62.9883	83.385	62.9883	84.1789	62.9883	83.1766	62.9883	84.3316	62.9883	82.9779	62.9883	84.4519	62.9883	82.7952	62.9883	84.5337	62.9883	82.6338	62.9883	84.5724	62.9883	82.4982	62.9883	84.5647	62.9883	82.3918	62.9883	84.5103	62.9883	82.3167	62.9883	84.4113	62.9883	82.2737	62.9883	84.2734	62.9883	82.262	62.9883	84.105	62.9883	82.28	62.9883	83.9164	62.9883	82.3247	62.9883	83.7185	62.9883	82.393	62.9883	83.5212	62.9883	82.4814	62.9883	83.3317	62.9883	82.5871	62.9883	83.1546	62.9883	82.7079	62.9883	82.9915	62.9883	82.8428
64.4531	83.7512	64.4531	83.5477	64.4531	83.9427	64.4531	83.3392	64.4531	84.1149	64.4531	83.1328	64.4531	84.2607	64.4531	82.9349	64.4531	84.3735	64.4531	82.7517	64.4531	84.4474	64.4531	82.5887	64.4531	84.4775	64.4531	82.4503	64.4531	84.4613	64.4531	82.3402	64.4531	84.3983	64.4531	82.2604	64.4531	84.2913	64.4531	82.212	64.4531	84.1464	64.4531	82.1944	64.4531	83.9724	64.4531	82.206	64.4531	83.7802	64.4531	82.2441	64.4531	83.5809	64.4531	82.3056	64.4531	83.3845	64.4531	82.3871	64.4531	83.1981	64.4531	82.4857	64.4531	83.0258	64.4531	82.5993	64.4531	82.8689	64.4531	82.727
67.3828	83.7487	67.3828	83.5489	67.3828	83.9367	67.3828	83.3445	67.3828	84.1055	67.3828	83.1427	67.3828	84.248	67.3828	82.9499	67.3828	84.3573	67.3828	82.7724	67.3828	84.4276	67.3828	82.6153	67.3828	84.4543	67.3828	82.4829	67.3828	84.4347	67.3828	82.3784	67.3828	84.3688	67.3828	82.3036	67.3828	84.2597	67.3828	82.2588	67.3828	84.1136	67.3828	82.2434	67.3828	83.9399	67.3828	82.2552	67.3828	83.7495	67.3828	82.2915	67.3828	83.5539	67.3828	82.3492	67.3828	83.3629	67.3828	82.4249	67.3828	83.1836	67.3828	82.5162	67.3828	83.0197	67.3828	82.6212	67.3828	82.872	67.3828	82.7396
68.8477	83.7619	68.8477	83.5662	68.8477	83.9444	68.8477	83.3643	68.8477	84.1063	68.8477	83.1633	68.8477	84.2406	68.8477	82.9699	68.8477	84.341	68.8477	82.7903	68.8477	84.4018	68.8477	82.6298	68.8477	84.4192	68.8477	82.4931	68.8477	84.3914	68.8477	82.3836	68.8477	84.3191	68.8477	82.3035	68.8477	84.2065	68.8477	82.2539	68.8477	84.0606	68.8477	82.2343	68.8477	83.891	68.8477	82.2434	68.8477	83.7083	68.8477	82.2785	68.8477	83.5228	68.8477	82.3368	68.8477	83.3426	68.8477	82.4147	68.8477	83.1726	68.8477	82.5091	68.8477	83.0152	68.8477	82.6175	68.8477	82.8706	68.8477	82.7382
71.7773	83.7375	71.7773	83.5411	71.7773	83.9197	71.7773	83.3378	71.7773	84.0804	71.7773	83.1351	71.7773	84.2125	71.7773	82.9399	71.7773	84.31	71.7773	82.7587	71.7773	84.3674	71.7773	82.5974	71.7773	84.3814	71.7773	82.4609	71.7773	84.3506	71.7773	82.3527	71.7773	84.2764	71.7773	82.2754	71.7773	84.1635	71.7773	82.2297	71.7773	84.0193	71.7773	82.2151	71.7773	83.8537	71.7773	82.2299	71.7773	83.6771	71.7773	82.271	71.7773	83.4992	71.7773	82.3349	71.7773	83.3272	71.7773	82.4176	71.7773	83.1653	71.7773	82.5155	71.7773	83.0148	71.7773	82.6255	71.7773	82.8753	71.7773	82.7456
74.707	83.6985	74.707	83.5007	74.707	83.881	74.707	83.2951	74.707	84.0409	74.707	83.0895	74.707	84.1711	74.707	82.8911	74.707	84.2655	74.707	82.707	74.707	84.3193	74.707	82.5432	74.707	84.3292	74.707	82.4051	74.707	84.2944	74.707	82.2967	74.707	84.2169	74.707	82.2203	74.707	84.102	74.707	82.1768	74.707	83.9576	74.707	82.1657	74.707	83.7936	74.707	82.1846	74.707	83.6206	74.707	82.2303	74.707	83.4478	74.707	82.2986	74.707	83.2817	74.707	82.3852	74.707	83.1257	74.707	82.4858	74.707	82.9804	74.707	82.5972	74.707	82.8446	74.707	82.7171
77.6367	83.7037	77.6367	83.5049	77.6367	83.8856	77.6367	83.2971	77.6367	84.0434	77.6367	83.088	77.6367	84.1701	77.6367	82.8854	77.6367	84.26	77.6367	82.6965	77.6367	84.3083	77.6367	82.5282	77.6367	84.3126	77.6367	82.386	77.6367	84.2725	77.6367	82.2744	77.6367	84.1907	77.6367	82.1962	77.6367	84.0732	77.6367	82.1525	77.6367	83.9283	77.6367	82.1427	77.6367	83.7663	77.6367	82.1645	77.6367	83.5975	77.6367	82.2142	77.6367	83.4305	77.6367	82.2872	77.6367	83.2708	77.6367	82.3785	77.6367	83.1207	77.6367	82.4835	77.6367	82.9799	77.6367	82.5981	77.6367	82.8467	77.6367	82.7196
79.1016	83.7134	79.1016	83.5154	79.1016	83.8939	79.1016	83.3077	79.1016	84.0495	79.1016	83.0983	79.1016	84.1734	79.1016	82.8948	79.1016	84.2597	79.1016	82.7048	79.1016	84.3041	79.1016	82.535	79.1016	84.3041	79.1016	82.3913	79.1016	84.2597	79.1016	82.2782	79.1016	84.1739	79.1016	82.1987	79.1016	84.0528	79.1016	82.1538	79.1016	83.9053	79.1016	82.1429	79.1016	83.7419	79.1016	82.1638	79.1016	83.573	79.1016	82.2125	79.1016	83.4071	79.1016	82.2846	79.1016	83.2496	79.1016	82.3749	79.1016	83.1024	79.1016	82.4784	79.1016	82.9648	79.1016	82.5912	79.1016	82.8347	79.1016	82.7103
82.0312	83.7057	82.0312	83.506	82.0312	83.8869	82.0312	83.2955	82.0312	84.0419	82.0312	83.0825	82.0312	84.164	82.0312	82.8751	82.0312	84.2476	82.0312	82.6811	82.0312	84.2884	82.0312	82.5076	82.0312	84.2844	82.0312	82.3609	82.0312	84.236	82.0312	82.2457	82.0312	84.1467	82.0312	82.1651	82.0312	84.0229	82.0312	82.1202	82.0312	83.874	82.0312	82.1103	82.0312	83.7104	82.0312	82.1328	82.0312	83.5426	82.0312	82.1837	82.0312	83.3788	82.0312	82.2581	82.0312	83.2237	82.0312	82.3506	82.0312	83.0788	82.0312	82.4561	82.0312	82.943	82.0312	82.5702	82.0312	82.814	82.0312	82.6899
84.9609	83.6981	84.9609	83.4981	84.9609	83.8788	84.9609	83.2871	84.9609	84.0326	84.9609	83.0733	84.9609	84.153	84.9609	82.8654	84.9609	84.2344	84.9609	82.6717	84.9609	84.2731	84.9609	82.4997	84.9609	84.2675	84.9609	82.3562	84.9609	84.2188	84.9609	82.246	84.9609	84.1311	84.9609	82.1724	84.9609	84.0117	84.9609	82.1364	84.9609	83.8703	84.9609	82.1368	84.9609	83.7175	84.9609	82.1706	84.9609	83.5631	84.9609	82.2329	84.9609	83.4139	84.9609	82.3181	84.9609	83.2735	84.9609	82.42	84.9609	83.1417	84.9609	82.5328	84.9609	83.0161	84.9609	82.6514	84.9609	82.8936	84.9609	82.7722
87.8906	83.7946	87.8906	83.5962	87.8906	83.9716	87.8906	83.3846	87.8906	84.1197	87.8906	83.1686	87.8906	84.2323	87.8906	82.9571	87.8906	84.3042	87.8906	82.7589	87.8906	84.3321	87.8906	82.5822	87.8906	84.315	87.8906	82.4344	87.8906	84.255	87.8906	82.321	87.8906	84.1573	87.8906	82.2459	87.8906	84.0305	87.8906	82.2104	87.8906	83.8854	87.8906	82.2134	87.8906	83.7338	87.8906	82.2515	87.8906	83.5855	87.8906	82.3193	87.8906	83.4471	87.8906	82.4101	87.8906	83.3204	87.8906	82.5168	87.8906	83.2035	87.8906	82.6323	87.8906	83.0919	87.8906	82.7505	87.8906	82.9809	87.8906	82.8674
90.8203	83.9149	90.8203	83.7159	90.8203	84.091	90.8203	83.5022	90.8203	84.2363	90.8203	83.2827	90.8203	84.3443	90.8203	83.0667	90.8203	84.4095	90.8203	82.863	90.8203	84.4287	90.8203	82.6802	90.8203	84.4008	90.8203	82.5258	90.8203	84.3281	90.8203	82.4056	90.8203	84.2161	90.8203	82.3236	90.8203	84.0741	90.8203	82.2812	90.8203	83.914	90.8203	82.2774	90.8203	83.7485	90.8203	82.3086	90.8203	83.5889	90.8203	82.3694	90.8203	83.4427	90.8203	82.4529	90.8203	83.3124	90.8203	82.5518	90.8203	83.1958	90.8203	82.6591	90.8203	83.0879	90.8203	82.7689	90.8203	82.9832	90.8203	82.8774
95.2148	83.9119	95.2148	83.7073	95.2148	84.0919	95.2148	83.4864	95.2148	84.2393	95.2148	83.2587	95.2148	84.3475	95.2148	83.0336	95.2148	84.4114	95.2148	82.8208	95.2148	84.4278	95.2148	82.6294	95.2148	84.3961	95.2148	82.4676	95.2148	84.3188	95.2148	82.342	95.2148	84.2021	95.2148	82.2568	95.2148	84.0554	95.2148	82.2137	95.2148	83.8911	95.2148	82.2115	95.2148	83.7222	95.2148	82.2463	95.2148	83.5601	95.2148	82.3118	95.2148	83.4122	95.2148	82.4006	95.2148	83.2808	95.2148	82.5047	95.2148	83.1634	95.2148	82.6165	95.2148	83.0546	95.2148	82.7299	95.2148	82.9487	95.2148	82.8411
98.1445	83.9171	98.1445	83.7079	98.1445	84.0995	98.1445	83.4806	98.1445	84.2475	98.1445	83.2448	98.1445	84.3542	98.1445	83.0104	98.1445	84.4149	98.1445	82.7873	98.1445	84.4263	98.1445	82.5853	98.1445	84.3883	98.1445	82.4134	98.1445	84.3036	98.1445	82.2787	98.1445	84.179	98.1445	82.1863	98.1445	84.0246	98.1445	82.1382	98.1445	83.8534	98.1445	82.1336	98.1445	83.679	98.1445	82.1682	98.1445	83.513	98.1445	82.2358	98.1445	83.3628	98.1445	82.3282	98.1445	83.2303	98.1445	82.4367	98.1445	83.1123	98.1445	82.5531	98.1445	83.0028	98.1445	82.6708	98.1445	82.8954	98.1445	82.7854
101.074	83.9016	101.074	83.6894	101.074	84.0855	101.074	83.4577	101.074	84.2334	101.074	83.2158	101.074	84.3387	101.074	82.9737	101.074	84.3962	101.074	82.7413	101.074	84.4031	101.074	82.5287	101.074	84.3588	101.074	82.3447	101.074	84.2662	101.074	82.1972	101.074	84.1319	101.074	82.0915	101.074	83.9664	101.074	82.0304	101.074	83.7826	101.074	82.0135	101.074	83.5948	101.074	82.0374	101.074	83.4152	101.074	82.0961	101.074	83.2519	101.074	82.1817	101.074	83.1074	101.074	82.2857	101.074	82.9792	101.074	82.3998	101.074	82.8615	101.074	82.5174	101.074	82.748	101.074	82.6339
105.469	83.7243	105.469	83.5118	105.469	83.9074	105.469	83.2788	105.469	84.0532	105.469	83.0349	105.469	84.1551	105.469	82.7903	105.469	84.2082	105.469	82.5552	105.469	84.2098	105.469	82.3396	105.469	84.1597	105.469	82.1529	105.469	84.0612	105.469	82.0024	105.469	83.9214	105.469	81.8935	105.469	83.7509	105.469	81.8288	105.469	83.5631	105.469	81.8077	105.469	83.3719	105.469	81.8269	105.469	83.1895	105.469	81.8804	105.469	83.0236	105.469	81.9606	105.469	82.8765	105.469	82.0595	105.469	82.7459	105.469	82.1692	105.469	82.6263	105.469	82.2834	105.469	82.5118	105.469	82.3981
108.398	83.6517	108.398	83.4406	108.398	83.834	108.398	83.2097	108.398	83.9795	108.398	82.9691	108.398	84.0817	108.398	82.7292	108.398	84.1355	108.398	82.5006	108.398	84.1383	108.398	82.2935	108.398	84.0903	108.398	82.117	108.398	83.9949	108.398	81.9785	108.398	83.8593	108.398	81.8828	108.398	83.6942	108.398	81.8315	108.398	83.5131	108.398	81.8232	108.398	83.3297	108.398	81.8533	108.398	83.1562	108.398	81.9152	108.398	83	108.398	82.0006	108.398	82.8633	108.398	82.1012	108.398	82.7434	108.398	82.2091	108.398	82.6346	108.398	82.3185	108.398	82.5303	108.398	82.4258
112.793	83.583	112.793	83.3693	112.793	83.7675	112.793	83.1358	112.793	83.9151	112.793	82.8925	112.793	84.0194	112.793	82.6503	112.793	84.0762	112.793	82.42	112.793	84.0836	112.793	82.212	112.793	84.0427	112.793	82.0356	112.793	83.9577	112.793	81.8979	112.793	83.836	112.793	81.8034	112.793	83.6879	112.793	81.7537	112.793	83.5252	112.793	81.7473	112.793	83.3591	112.793	81.7798	112.793	83.1984	112.793	81.8449	112.793	83.0481	112.793	81.9351	112.793	82.909	112.793	82.0427	112.793	82.7788	112.793	82.1609	112.793	82.654	112.793	82.2838	112.793	82.5311	112.793	82.4078
117.188	83.1242	117.188	82.8875	117.188	83.3312	117.188	82.6306	117.188	83.5009	117.188	82.3646	117.188	83.6277	117.188	82.1018	117.188	83.7083	117.188	81.8549	117.188	83.7418	117.188	81.6362	117.188	83.7299	117.188	81.4562	117.188	83.6768	117.188	81.3231	117.188	83.589	117.188	81.2411	117.188	83.4744	117.188	81.2109	117.188	83.3414	117.188	81.2293	117.188	83.1976	117.188	81.2902	117.188	83.0487	117.188	81.386	117.188	82.8979	117.188	81.5084	117.188	82.7462	117.188	81.6493	117.188	82.5933	117.188	81.8018	117.188	82.4382	117.188	81.9604	117.188	82.2806	117.188	82.1209
120.117	82.8829	120.117	82.6555	120.117	83.0761	120.117	82.4026	120.117	83.2291	120.117	82.1356	120.117	83.3383	120.117	81.8677	120.117	83.4032	120.117	81.6135	120.117	83.4259	120.117	81.3883	120.117	83.4117	120.117	81.2058	120.117	83.3677	120.117	81.077	120.117	83.3028	120.117	81.0082	120.117	83.2254	120.117	81.0007	120.117	83.142	120.117	81.0501	120.117	83.0559	120.117	81.1485	120.117	82.9667	120.117	81.2853	120.117	82.8712	120.117	81.4493	120.117	82.7651	120.117	81.6297	120.117	82.6446	120.117	81.8174	120.117	82.5074	120.117	82.0044	120.117	82.3536	120.117	82.1848
124.512	82.3101	124.512	82.0977	124.512	82.4775	124.512	81.8487	124.512	82.5945	124.512	81.5735	124.512	82.6582	124.512	81.2852	124.512	82.6692	124.512	80.9993	124.512	82.6318	124.512	80.7332	124.512	82.5547	124.512	80.5048	124.512	82.4511	124.512	80.3312	124.512	82.3371	124.512	80.2255	124.512	82.2292	124.512	80.1949	124.512	82.1403	124.512	80.2389	124.512	82.0759	124.512	80.3497	124.512	82.0325	124.512	80.5134	124.512	81.999	124.512	80.7131	124.512	81.9608	124.512	80.9312	124.512	81.904	124.512	81.1512	124.512	81.8184	124.512	81.3592	124.512	81.6986	124.512	81.5442
128.906	82.2875	128.906	82.0651	128.906	82.4624	128.906	81.8036	128.906	82.5837	128.906	81.5137	128.906	82.6476	128.906	81.2083	128.906	82.6533	128.906	80.9025	128.906	82.6035	128.906	80.6136	128.906	82.5048	128.906	80.3595	128.906	82.3688	128.906	80.1577	128.906	82.2111	128.906	80.0221	128.906	82.0497	128.906	79.9613	128.906	81.9013	128.906	79.9759	128.906	81.7777	128.906	80.0592	128.906	81.6818	128.906	80.1978	128.906	81.6077	128.906	80.3748	128.906	81.5431	128.906	80.5722	128.906	81.4737	128.906	80.7731	128.906	81.3869	128.906	80.9633	128.906	81.2743	128.906	81.1325
133.301	82.4074	133.301	82.1925	133.301	82.5733	133.301	81.9355	133.301	82.6857	133.301	81.6451	133.301	82.7419	133.301	81.3324	133.301	82.742	133.301	81.0111	133.301	82.6891	133.301	80.6975	133.301	82.59	133.301	80.41	133.301	82.4552	133.301	80.1677	133.301	82.2983	133.301	79.9881	133.301	82.1342	133.301	79.8841	133.301	81.9769	133.301	79.861	133.301	81.8355	133.301	79.9149	133.301	81.7128	133.301	80.034	133.301	81.6052	133.301	80.2006	133.301	81.5041	133.301	80.3954	133.301	81.3992	133.301	80.5998	133.301	81.2811	133.301	80.7988	133.301	81.143	133.301	80.9819
139.16	82.5898	139.16	82.4003	139.16	82.7294	139.16	82.1669	139.16	82.8151	139.16	81.8977	139.16	82.8455	139.16	81.6027	139.16	82.8223	139.16	81.2943	139.16	82.7514	139.16	80.9872	139.16	82.643	139.16	80.6987	139.16	82.5115	139.16	80.4473	139.16	82.3737	139.16	80.2518	139.16	82.2455	139.16	80.1275	139.16	82.1373	139.16	80.0837	139.16	82.0514	139.16	80.1209	139.16	81.9812	139.16	80.2308	139.16	81.9141	139.16	80.3977	139.16	81.8364	139.16	80.6024	139.16	81.7366	139.16	80.8252	139.16	81.6079	139.16	81.049	139.16	81.4482	139.16	81.2599
143.555	82.83	143.555	82.656	143.555	82.9531	143.555	82.4375	143.555	83.0211	143.555	82.1826	143.555	83.0326	143.555	81.9012	143.555	82.9897	143.555	81.6052	143.555	82.8993	143.555	81.3083	143.555	82.7738	143.555	81.0265	143.555	82.6303	143.555	80.7773	143.555	82.4886	143.555	80.578	143.555	82.3668	143.555	80.444	143.555	82.2754	143.555	80.3854	143.555	82.2138	143.555	80.405	143.555	82.1704	143.555	80.4969	143.555	82.1277	143.555	80.6485	143.555	82.068	143.555	80.8423	143.555	81.9782	143.555	81.0598	143.555	81.8522	143.555	81.2833	143.555	81.6902	143.555	81.4975
147.949	82.9197	147.949	82.7652	147.949	83.0208	147.949	82.5645	147.949	83.0641	147.949	82.3261	147.949	83.0482	147.949	82.0603	147.949	82.9763	147.949	81.7794	147.949	82.858	147.949	81.4972	147.949	82.71	147.949	81.2301	147.949	82.5561	147.949	80.9957	147.949	82.4236	147.949	80.8121	147.949	82.3357	147.949	80.6952	147.949	82.3032	147.949	80.6558	147.949	82.3192	147.949	80.6971	147.949	82.3611	147.949	80.8133	147.949	82.3997	147.949	80.9911	147.949	82.4082	147.949	81.2117	147.949	82.3684	147.949	81.4546	147.949	82.2729	147.949	81.6995	147.949	82.1232	147.949	81.9277
153.809	82.6847	153.809	82.5472	153.809	82.7674	153.809	82.3673	153.809	82.7851	153.809	82.1585	153.809	82.7312	153.809	81.9347	153.809	82.6049	153.809	81.7097	153.809	82.4142	153.809	81.4972	153.809	82.1795	153.809	81.3097	153.809	81.9352	153.809	81.159	153.809	81.7276	153.809	81.0552	153.809	81.6035	153.809	81.0058	153.809	81.5914	153.809	81.0149	153.809	81.6862	153.809	81.0822	153.809	81.8509	153.809	81.2023	153.809	82.0335	153.809	81.3651	153.809	82.1864	153.809	81.5562	153.809	82.2783	153.809	81.7585	153.809	82.2955	153.809	81.9527	153.809	82.2389	153.809	82.1191
159.668	82.8596	159.668	82.6426	159.668	83.0052	159.668	82.3674	159.668	83.0683	159.668	82.0498	159.668	83.0405	159.668	81.7085	159.668	82.9172	159.668	81.3648	159.668	82.7001	159.668	81.0436	159.668	82.4004	159.668	80.7708	159.668	82.0445	159.668	80.5716	159.668	81.6772	159.668	80.4651	159.668	81.3606	159.668	80.4607	159.668	81.1593	159.668	80.5545	159.668	81.1136	159.668	80.7303	159.668	81.2169	159.668	80.9633	159.668	81.4192	159.668	81.2243	159.668	81.653	159.668	81.4846	159.668	81.8591	159.668	81.718	159.668	81.9984	159.668	81.902	159.668	82.0525	159.668	82.018
165.527	82.9719	165.527	82.7481	165.527	83.1183	165.527	82.4566	165.527	83.179	165.527	82.1091	165.527	83.1482	165.527	81.7204	165.527	83.023	165.527	81.3088	165.527	82.8056	165.527	80.8977	165.527	82.5067	165.527	80.5156	165.527	82.1497	165.527	80.1947	165.527	81.7737	165.527	79.9666	165.527	81.4327	165.527	79.8552	165.527	81.1844	165.527	79.8691	165.527	81.068	165.527	79.9984	165.527	81.0847	165.527	80.217	165.527	81.1962	165.527	80.4897	165.527	81.3443	165.527	80.7796	165.527	81.474	165.527	81.0536	165.527	81.5462	165.527	81.2844	165.527	81.5404	165.527	81.4513
171.387	83.2634	171.387	83.0899	171.387	83.3668	171.387	82.8558	171.387	83.3909	171.387	82.5709	171.387	83.3275	171.387	82.2459	171.387	83.1708	171.387	81.8929	171.387	82.9192	171.387	81.5268	171.387	82.579	171.387	81.1661	171.387	82.1694	171.387	80.8337	171.387	81.7276	171.387	80.5554	171.387	81.3109	171.387	80.357	171.387	80.9875	171.387	80.2582	171.387	80.8131	171.387	80.2664	171.387	80.8019	171.387	80.3727	171.387	80.9173	171.387	80.5534	171.387	81.0919	171.387	80.7751	171.387	81.2584	171.387	81.0011	171.387	81.3681	171.387	81.1975	171.387	81.3957	171.387	81.3357
177.246	83.247	177.246	83.0306	177.246	83.3931	177.246	82.7567	177.246	83.4571	177.246	82.439	177.246	83.4283	177.246	82.0924	177.246	83.2985	177.246	81.7333	177.246	83.0634	177.246	81.3803	177.246	82.7257	177.246	81.0544	177.246	82.2998	177.246	80.7785	177.246	81.8179	177.246	80.5747	177.246	81.3349	177.246	80.4607	177.246	80.9262	177.246	80.4444	177.246	80.6669	177.246	80.5208	177.246	80.5972	177.246	80.6715	177.246	80.6982	177.246	80.8677	177.246	80.9032	177.246	81.0761	177.246	81.1329	177.246	81.2636	177.246	81.3242	177.246	81.4006	177.246	81.4394	177.246	81.464
183.105	83.2461	183.105	83.004	183.105	83.4128	183.105	82.6979	183.105	83.4938	183.105	82.3406	183.105	83.4804	183.105	81.9472	183.105	83.3665	183.105	81.5351	183.105	83.1495	183.105	81.1261	183.105	82.8341	183.105	80.7465	183.105	82.4353	183.105	80.4263	183.105	81.9843	183.105	80.1959	183.105	81.5319	183.105	80.0791	183.105	81.1449	183.105	80.0857	183.105	80.8891	183.105	80.2063	183.105	80.8002	183.105	80.4139	183.105	80.8643	183.105	80.6701	183.105	81.0249	183.105	80.9344	183.105	81.2118	183.105	81.1695	183.105	81.3658	183.105	81.3458	183.105	81.4486	183.105	81.4425
188.965	83.3116	188.965	83.0665	188.965	83.4751	188.965	82.7495	188.965	83.5475	188.965	82.3707	188.965	83.5198	188.965	81.9412	188.965	83.384	188.965	81.4748	188.965	83.1354	188.965	80.9902	188.965	82.775	188.965	80.5136	188.965	82.315	188.965	80.0808	188.965	81.7859	188.965	79.7353	188.965	81.2444	188.965	79.5208	188.965	80.7734	188.965	79.4666	188.965	80.4626	188.965	79.5744	188.965	80.3652	188.965	79.814	188.965	80.464	188.965	80.1337	188.965	80.6806	188.965	80.4755	188.965	80.9202	188.965	80.7873	188.965	81.1072	188.965	81.0282	188.965	81.1966	188.965	81.1699
196.289	83.3405	196.289	83.1183	196.289	83.4905	196.289	82.8325	196.289	83.5583	196.289	82.4905	196.289	83.5332	196.289	82.0982	196.289	83.4043	196.289	81.6613	196.289	83.1615	196.289	81.187	196.289	82.7971	196.289	80.6872	196.289	82.3093	196.289	80.183	196.289	81.7092	196.289	79.7081	196.289	81.031	196.289	79.3097	196.289	80.3457	196.289	79.0407	196.289	79.7642	196.289	78.9413	196.289	79.4061	196.289	79.0179	196.289	79.33	196.289	79.2345	196.289	79.4855	196.289	79.5252	196.289	79.7485	196.289	79.8164	196.289	79.9956	196.289	80.044	196.289	80.1454	196.289	80.1619
203.613	83.0237	203.613	82.7782	203.613	83.2045	203.613	82.4808	203.613	83.3097	203.613	82.145	203.613	83.3306	203.613	81.7837	203.613	83.2613	203.613	81.4088	203.613	83.0992	203.613	81.0307	203.613	82.8449	203.613	80.6594	203.613	82.5029	203.613	80.3064	203.613	82.0837	203.613	79.9865	203.613	81.6065	203.613	79.7192	203.613	81.1034	203.613	79.526	203.613	80.6223	203.613	79.4244	203.613	80.2214	203.613	79.42	203.613	79.9515	203.613	79.4997	203.613	79.8306	203.613	79.6324	203.613	79.8301	203.613	79.7769	203.613	79.8895	203.613	79.8929	203.613	79.945	203.613	79.9519
210.938	83.2455	210.938	82.9919	210.938	83.423	210.938	82.6732	210.938	83.5143	210.938	82.3007	210.938	83.5104	210.938	81.8852	210.938	83.4045	210.938	81.4373	210.938	83.1919	210.938	80.9681	210.938	82.8722	210.938	80.4903	210.938	82.4507	210.938	80.0214	210.938	81.9425	210.938	79.586	210.938	81.3772	210.938	79.2162	210.938	80.8031	210.938	78.9479	210.938	80.2863	210.938	78.8105	210.938	79.895	210.938	78.8135	210.938	79.6712	210.938	78.938	210.938	79.606	210.938	79.1402	210.938	79.6428	210.938	79.3646	210.938	79.7068	210.938	79.5598	210.938	79.7345	210.938	79.6885
218.262	82.3099	218.262	82.0566	218.262	82.5014	218.262	81.7559	218.262	82.6185	218.262	81.4237	218.262	82.6517	218.262	81.0756	218.262	82.5946	218.262	80.7256	218.262	82.4443	218.262	80.3857	218.262	82.202	218.262	80.0651	218.262	81.8739	218.262	79.7719	218.262	81.4728	218.262	79.5143	218.262	81.021	218.262	79.3018	218.262	80.552	218.262	79.1449	218.262	80.1104	218.262	79.0524	218.262	79.7451	218.262	79.0274	218.262	79.4934	218.262	79.0628	218.262	79.3642	218.262	79.1405	218.262	79.3323	218.262	79.2342	218.262	79.351	218.262	79.3163	218.262	79.3728	218.262	79.365
225.586	81.9003	225.586	81.6179	225.586	82.1047	225.586	81.2734	225.586	82.2187	225.586	80.8861	225.586	82.2342	225.586	80.4778	225.586	82.1476	225.586	80.0717	225.586	81.9603	225.586	79.6917	225.586	81.6798	225.586	79.3605	225.586	81.3217	225.586	79.0993	225.586	80.9111	225.586	78.9255	225.586	80.485	225.586	78.8509	225.586	80.0906	225.586	78.8779	225.586	79.7798	225.586	78.9975	225.586	79.5944	225.586	79.1876	225.586	79.5484	225.586	79.4167	225.586	79.6197	225.586	79.6482	225.586	79.7579	225.586	79.8467	225.586	79.904	225.586	79.9831	225.586	80.0081	225.586	80.0386
232.91	81.9254	232.91	81.6193	232.91	82.1346	232.91	81.2292	232.91	82.2382	232.91	80.7725	232.91	82.2319	232.91	80.2707	232.91	82.1159	232.91	79.7494	232.91	81.8952	232.91	79.2383	232.91	81.5804	232.91	78.77	232.91	81.1878	232.91	78.3784	232.91	80.7401	232.91	78.0946	232.91	80.2676	232.91	77.9416	232.91	79.8091	232.91	77.9279	232.91	79.4108	232.91	78.0425	232.91	79.1197	232.91	78.2553	232.91	78.9681	232.91	78.5232	232.91	78.9548	232.91	78.7979	232.91	79.04	232.91	79.0352	232.91	79.1603	232.91	79.2004	232.91	79.2531	232.91	79.2735
241.699	81.8368	241.699	81.5371	241.699	82.0326	241.699	81.1442	241.699	82.1167	241.699	80.6714	241.699	82.0838	241.699	80.1349	241.699	81.9311	241.699	79.5543	241.699	81.6588	241.699	78.9543	241.699	81.2704	241.699	78.3663	241.699	80.7745	241.699	77.8307	241.699	80.1882	241.699	77.3966	241.699	79.5445	241.699	77.1148	241.699	78.9016	241.699	77.0225	241.699	78.3474	241.699	77.125	241.699	77.9829	241.699	77.3874	241.699	77.8726	241.699	77.7445	241.699	77.9951	241.699	78.1208	241.699	78.2508	241.699	78.4479	241.699	78.5191	241.699	78.6734	241.699	78.7072	241.699	78.7638
250.488	81.8462	250.488	81.5506	250.488	82.0248	250.488	81.1473	250.488	82.0797	250.488	80.6485	250.488	82.0071	250.488	80.07	250.488	81.8076	250.488	79.4326	250.488	81.4872	250.488	78.7643	250.488	81.0608	250.488	78.1022	250.488	80.5542	250.488	77.493	250.488	80.0058	250.488	76.9902	250.488	79.4629	250.488	76.644	250.488	78.9727	250.488	76.485	250.488	78.5701	250.488	76.5113	250.488	78.2701	250.488	76.6855	250.488	78.0703	250.488	76.9486	250.488	77.9576	250.488	77.2372	250.488	77.9102	250.488	77.4986	250.488	77.8972	250.488	77.6983	250.488	77.8805	250.488	77.8229
259.277	82.2863	259.277	82.0298	259.277	82.443	259.277	81.6798	259.277	82.494	259.277	81.2428	259.277	82.4344	259.277	80.7259	259.277	82.2602	259.277	80.1376	259.277	81.9691	259.277	79.4903	259.277	81.5617	259.277	78.8032	259.277	81.0438	259.277	78.1083	259.277	80.4306	259.277	77.4545	259.277	79.7538	259.277	76.9079	259.277	79.0687	259.277	76.5394	259.277	78.4546	259.277	76.397	259.277	77.9973	259.277	76.478	259.277	77.7488	259.277	76.7259	259.277	77.6937	259.277	77.056	259.277	77.7569	259.277	77.386	259.277	77.8448	259.277	77.6539	259.277	77.8818	259.277	77.823
268.066	82.256	268.066	82.0119	268.066	82.4113	268.066	81.6898	268.066	82.4684	268.066	81.3012	268.066	82.4204	268.066	80.8578	268.066	82.2637	268.066	80.372	268.066	81.9996	268.066	79.8583	268.066	81.6352	268.066	79.3371	268.066	81.1863	268.066	78.8378	268.066	80.6807	268.066	78.402	268.066	80.1608	268.066	78.0797	268.066	79.6842	268.066	77.9166	268.066	79.3144	268.066	77.934	268.066	79.1002	268.066	78.1141	268.066	79.0517	268.066	78.4045	268.066	79.1314	268.066	78.7371	268.066	79.2718	268.066	79.0481	268.066	79.4017	268.066	79.2894	268.066	79.4659	268.066	79.4319
276.855	82.4463	276.855	82.157	276.855	82.6334	276.855	81.7758	276.855	82.7089	276.855	81.3131	276.855	82.6646	276.855	80.779	276.855	82.4945	276.855	80.183	276.855	82.1943	276.855	79.5356	276.855	81.7628	276.855	78.8531	276.855	81.205	276.855	78.1655	276.855	80.538	276.855	77.526	276.855	79.803	276.855	77.0169	276.855	79.0794	276.855	76.7351	276.855	78.4882	276.855	76.7465	276.855	78.1565	276.855	77.0376	276.855	78.1369	276.855	77.5143	276.855	78.3602	276.855	78.0514	276.855	78.682	276.855	78.54	276.855	78.9655	276.855	78.9053	276.855	79.121	276.855	79.1043
287.109	82.6079	287.109	82.3302	287.109	82.7761	287.109	81.9521	287.109	82.8286	287.109	81.4841	287.109	82.7624	287.109	80.9386	287.109	82.5784	287.109	80.329	287.109	82.2817	287.109	79.6714	287.109	81.8822	287.109	78.9872	287.109	81.3942	287.109	78.3083	287.109	80.8376	287.109	77.6827	287.109	80.2393	287.109	77.1773	287.109	79.6371	287.109	76.8662	287.109	79.0848	287.109	76.8008	287.109	78.6494	287.109	76.9756	287.109	78.3903	287.109	77.3218	287.109	78.3232	287.109	77.7385	287.109	78.3993	287.109	78.1292	287.109	78.5262	287.109	78.4245	287.109	78.6105	287.109	78.5865
297.363	82.7665	297.363	82.4627	297.363	82.9814	297.363	82.0805	297.363	83.0956	297.363	81.6276	297.363	83.0967	297.363	81.1082	297.363	82.9732	297.363	80.5228	297.363	82.7141	297.363	79.8707	297.363	82.3104	297.363	79.1546	297.363	81.7584	297.363	78.389	297.363	81.0678	297.363	77.6121	297.363	80.2752	297.363	76.8993	297.363	79.4647	297.363	76.3658	297.363	78.7745	297.363	76.132	297.363	78.3541	297.363	76.2519	297.363	78.2625	297.363	76.6648	297.363	78.4129	297.363	77.2331	297.363	78.641	297.363	77.8159	297.363	78.8047	297.363	78.3107	297.363	78.8206	297.363	78.6555
307.617	82.3094	307.617	82.0817	307.617	82.4579	307.617	81.7885	307.617	82.5163	307.617	81.4434	307.617	82.477	307.617	81.0569	307.617	82.3359	307.617	80.6344	307.617	82.0915	307.617	80.1764	307.617	81.7433	307.617	79.6824	307.617	81.292	307.617	79.158	307.617	80.7423	307.617	78.625	307.617	80.1117	307.617	78.131	307.617	79.4458	307.617	77.7504	307.617	78.8339	307.617	77.5641	307.617	78.4011	307.617	77.6162	307.617	78.2468	307.617	77.8776	307.617	78.3639	307.617	78.2563	307.617	78.6348	307.617	78.6418	307.617	78.9116	307.617	78.9423	307.617	79.0847	307.617	79.0984
319.336	82.0204	319.336	81.7701	319.336	82.1764	319.336	81.4403	319.336	82.2284	319.336	81.0483	319.336	82.1726	319.336	80.61	319.336	82.0105	319.336	80.1365	319.336	81.7466	319.336	79.6327	319.336	81.3847	319.336	79.1003	319.336	80.9254	319.336	78.5464	319.336	80.3672	319.336	77.9949	319.336	79.7157	319.336	77.4998	319.336	79.006	319.336	77.1471	319.336	78.3335	319.336	77.0294	319.336	77.8614	319.336	77.1893	319.336	77.7418	319.336	77.5787	319.336	77.9763	319.336	78.0796	319.336	78.3975	319.336	78.5623	319.336	78.8031	319.336	78.9241	319.336	79.0571	319.336	79.0995
329.59	82.2442	329.59	81.9586	329.59	82.4137	329.59	81.5769	329.59	82.4545	329.59	81.1238	329.59	82.3612	329.59	80.6249	329.59	82.1355	329.59	80.1014	329.59	81.7846	329.59	79.566	329.59	81.3186	329.59	79.0227	329.59	80.7483	329.59	78.4745	329.59	80.0853	329.59	77.9374	329.59	79.3498	329.59	77.4576	329.59	78.5923	329.59	77.1189	329.59	77.924	329.59	77.0195	329.59	77.5189	329.59	77.2107	329.59	77.5178	329.59	77.6443	329.59	77.8837	329.59	78.1923	329.59	78.4157	329.59	78.7128	329.59	78.9003	329.59	79.0953	329.59	79.2038	329.59	79.2701
341.309	82.7505	341.309	82.433	341.309	82.9412	341.309	82.0074	341.309	82.9919	341.309	81.4961	341.309	82.8961	341.309	80.9222	341.309	82.6539	341.309	80.3064	341.309	82.272	341.309	79.665	341.309	81.762	341.309	79.0111	341.309	81.1381	341.309	78.3605	341.309	80.4138	341.309	77.7434	341.309	79.6041	341.309	77.2163	341.309	78.7396	341.309	76.8647	341.309	77.9016	341.309	76.776	341.309	77.2576	341.309	76.9809	341.309	77.0162	341.309	77.4151	341.309	77.2449	341.309	77.9455	341.309	77.7689	341.309	78.4313	341.309	78.3229	341.309	78.7627	341.309	78.7179	341.309	78.869
353.027	83.4021	353.027	83.0794	353.027	83.5818	353.027	82.6291	353.027	83.6097	353.027	82.0726	353.027	83.4846	353.027	81.4328	353.027	83.2116	353.027	80.7298	353.027	82.8006	353.027	79.9756	353.027	82.2625	353.027	79.1723	353.027	81.6048	353.027	78.3189	353.027	80.827	353.027	77.4302	353.027	79.9211	353.027	76.5702	353.027	78.8876	353.027	75.8909	353.027	77.783	353.027	75.6126	353.027	76.8038	353.027	75.8675	353.027	76.3022	353.027	76.5409	353.027	76.5049	353.027	77.3588	353.027	77.1938	353.027	78.0774	353.027	77.9487	353.027	78.5479	353.027	78.4871	353.027	78.694
366.211	82.6094	366.211	82.3738	366.211	82.7252	366.211	82.0333	366.211	82.7132	366.211	81.6083	366.211	82.5732	366.211	81.1203	366.211	82.3124	366.211	80.5878	366.211	81.9441	366.211	80.0223	366.211	81.4847	366.211	79.4275	366.211	80.9497	366.211	78.8038	366.211	80.3482	366.211	78.1585	366.211	79.6811	366.211	77.5213	366.211	78.9492	366.211	76.9583	366.211	78.177	366.211	76.5695	366.211	77.4473	366.211	76.4456	366.211	76.9124	366.211	76.5968	366.211	76.7178	366.211	76.9268	366.211	76.8635	366.211	77.286	366.211	77.1837	366.211	77.5417	366.211	77.4774	366.211	77.6127
379.395	82.5917	379.395	82.332	379.395	82.7186	379.395	81.9567	379.395	82.7053	379.395	81.4894	379.395	82.5545	379.395	80.9548	379.395	82.278	379.395	80.3708	379.395	81.893	379.395	79.7424	379.395	81.4157	379.395	79.06	379.395	80.8513	379.395	78.3066	379.395	80.1866	379.395	77.4751	379.395	79.3896	379.395	76.5998	379.395	78.4302	379.395	75.799	379.395	77.333	379.395	75.2929	379.395	76.274	379.395	75.2938	379.395	75.6349	379.395	75.7903	379.395	75.7304	379.395	76.531	379.395	76.3827	379.395	77.2336	379.395	77.1348	379.395	77.7122	379.395	77.672	379.395	77.8709
392.578	82.4326	392.578	82.2034	392.578	82.5151	392.578	81.8458	392.578	82.4405	392.578	81.3838	392.578	82.2069	392.578	80.8434	392.578	81.8233	392.578	80.2481	392.578	81.311	392.578	79.6141	392.578	80.7051	392.578	78.9491	392.578	80.052	392.578	78.2559	392.578	79.3971	392.578	77.545	392.578	78.7642	392.578	76.8524	392.578	78.143	392.578	76.2574	392.578	77.5076	392.578	75.8778	392.578	76.8687	392.578	75.8103	392.578	76.3272	392.578	76.0441	392.578	76.0551	392.578	76.4453	392.578	76.1475	392.578	76.8369	392.578	76.4939	392.578	77.0775	392.578	76.8683	392.578	77.0898
405.762	82.6209	405.762	82.3189	405.762	82.7721	405.762	81.8977	405.762	82.7563	405.762	81.4002	405.762	82.5737	405.762	80.8704	405.762	82.2393	405.762	80.3376	405.762	81.78	405.762	79.8042	405.762	81.2282	405.762	79.2451	405.762	80.6103	405.762	78.6234	405.762	79.9327	405.762	77.9169	405.762	79.1776	405.762	77.1547	405.762	78.3219	405.762	76.4587	405.762	77.3942	405.762	76.0507	405.762	76.5633	405.762	76.1296	405.762	76.1574	405.762	76.6645	405.762	76.3995	405.762	77.4029	405.762	77.0989	405.762	78.0776	405.762	77.8611	405.762	78.518	405.762	78.4128	405.762	78.6395
420.41	82.958	420.41	82.6892	420.41	83.0602	420.41	82.2749	420.41	82.985	420.41	81.7446	420.41	82.7315	420.41	81.1321	420.41	82.3093	420.41	80.4695	420.41	81.7397	420.41	79.7785	420.41	81.0555	420.41	79.0638	420.41	80.2998	420.41	78.3154	420.41	79.5143	420.41	77.5215	420.41	78.7207	420.41	76.6963	420.41	77.9078	420.41	75.9196	420.41	77.0531	420.41	75.3649	420.41	76.194	420.41	75.2343	420.41	75.5158	420.41	75.5714	420.41	75.3086	420.41	76.1775	420.41	75.6647	420.41	76.772	420.41	76.312	420.41	77.147	420.41	76.8932	420.41	77.1952
435.059	82.5322	435.059	82.1776	435.059	82.7088	435.059	81.6725	435.059	82.6954	435.059	81.0607	435.059	82.4924	435.059	80.3983	435.059	82.1116	435.059	79.739	435.059	81.5755	435.059	79.1132	435.059	80.9182	435.059	78.511	435.059	80.1837	435.059	77.8891	435.059	79.4179	435.059	77.2001	435.059	78.6503	435.059	76.4375	435.059	77.8775	435.059	75.6913	435.059	77.0785	435.059	75.1848	435.059	76.2848	435.059	75.1758	435.059	75.673	435.059	75.6908	435.059	75.5309	435.059	76.4572	435.059	75.9524	435.059	77.1526	435.059	76.6611	435.059	77.5714	435.059	77.291	435.059	77.6211
451.172	81.718	451.172	81.3796	451.172	81.8833	451.172	80.9003	451.172	81.8603	451.172	80.3271	451.172	81.6506	451.172	79.7113	451.172	81.2704	451.172	79.0886	451.172	80.7494	451.172	78.4592	451.172	80.126	451.172	77.7821	451.172	79.4363	451.172	76.9913	451.172	78.6947	451.172	76.0297	451.172	77.8769	451.172	74.9046	451.172	76.9322	451.172	73.7945	451.172	75.8541	451.172	73.162	451.172	74.8291	451.172	73.4762	451.172	74.3431	451.172	74.5613	451.172	74.7711	451.172	75.8223	451.172	75.7825	451.172	76.8562	451.172	76.7889	451.172	77.5025	451.172	77.4662	451.172	77.7101
465.82	82.5146	465.82	82.1398	465.82	82.7122	465.82	81.628	465.82	82.7147	465.82	81.0416	465.82	82.5249	465.82	80.452	465.82	82.1638	465.82	79.9127	465.82	81.6706	465.82	79.4289	465.82	81.0998	465.82	78.9498	465.82	80.5079	465.82	78.3906	465.82	79.9239	465.82	77.667	465.82	79.3164	465.82	76.7298	465.82	78.5882	465.82	75.6189	465.82	77.6194	465.82	74.5672	465.82	76.36	465.82	74.0519	465.82	75.0103	465.82	74.404	465.82	74.2132	465.82	75.313	465.82	74.5297	465.82	76.2188	465.82	75.5106	465.82	76.7781	465.82	76.4014	465.82	76.8503
483.398	83.9791	483.398	83.5923	483.398	84.1361	483.398	83.0107	483.398	84.0484	483.398	82.2959	483.398	83.7171	483.398	81.5355	483.398	83.1576	483.398	80.8242	483.398	82.4037	483.398	80.2215	483.398	81.5159	483.398	79.7121	483.398	80.588	483.398	79.2106	483.398	79.7296	483.398	78.6078	483.398	79.0033	483.398	77.824	483.398	78.355	483.398	76.8658	483.398	77.6416	483.398	75.9159	483.398	76.7745	483.398	75.3922	483.398	75.9164	483.398	75.6528	483.398	75.5622	483.398	76.4955	483.398	76.0398	483.398	77.396	483.398	76.9612	483.398	77.9898	483.398	77.7521	483.398	78.1205
499.512	83.3373	499.512	82.9247	499.512	83.5251	499.512	82.3311	499.512	83.4791	499.512	81.6428	499.512	83.2163	499.512	80.9797	499.512	82.7742	499.512	80.4472	499.512	82.2066	499.512	80.0656	499.512	81.575	499.512	79.7489	499.512	80.9278	499.512	79.3599	499.512	80.2688	499.512	78.7827	499.512	79.5346	499.512	77.9725	499.512	78.6103	499.512	77.0168	499.512	77.4036	499.512	76.2294	499.512	76.0179	499.512	76.0869	499.512	75.045	499.512	76.7255	499.512	75.2984	499.512	77.7202	499.512	76.5247	499.512	78.5985	499.512	77.8264	499.512	79.1151	499.512	78.7465	499.512	79.1761
517.09	84.1391	517.09	83.6168	517.09	84.3204	517.09	82.7668	517.09	84.1632	517.09	81.6375	517.09	83.6804	517.09	80.3521	517.09	82.9018	517.09	79.1493	517.09	81.9001	517.09	78.3243	517.09	80.842	517.09	77.9877	517.09	80.0189	517.09	77.9345	517.09	79.6898	517.09	77.8557	517.09	79.7636	517.09	77.5513	517.09	79.825	517.09	76.9845	517.09	79.4582	517.09	76.3222	517.09	78.3961	517.09	75.9779	517.09	76.6084	517.09	76.3456	517.09	74.8272	517.09	77.2736	517.09	74.8905	517.09	78.231	517.09	76.5475	517.09	78.8076	517.09	78.0325	517.09	78.7834
536.133	84.0908	536.133	83.5669	536.133	84.3012	536.133	82.7348	536.133	84.2041	536.133	81.6238	536.133	83.8104	536.133	80.3138	536.133	83.1343	536.133	78.9731	536.133	82.198	536.133	77.8525	536.133	81.0506	536.133	77.1397	536.133	79.8173	536.133	76.7615	536.133	78.7521	536.133	76.4379	536.133	78.1346	536.133	75.9039	536.133	77.9335	536.133	75.0469	536.133	77.7397	536.133	74.0394	536.133	77.1278	536.133	73.5436	536.133	75.9442	536.133	74.2345	536.133	74.6272	536.133	75.667	536.133	74.428	536.133	76.9669	536.133	75.6312	536.133	77.6961	536.133	76.9718	536.133	77.7088
555.176	83.2167	555.176	82.7627	555.176	83.3813	555.176	82.0127	555.176	83.2771	555.176	80.982	555.176	82.9342	555.176	79.7244	555.176	82.3888	555.176	78.3613	555.176	81.6781	555.176	77.1009	555.176	80.8374	555.176	76.171	555.176	79.9007	555.176	75.6397	555.176	78.9091	555.176	75.337	555.176	77.933	555.176	75.0201	555.176	77.0921	555.176	74.5699	555.176	76.5155	555.176	74.1121	555.176	76.2225	555.176	74.0472	555.176	76.1029	555.176	74.7005	555.176	76.0992	555.176	75.8219	555.176	76.3122	555.176	76.8788	555.176	76.7989	555.176	77.5314	555.176	77.3573	555.176	77.6719
574.219	84.2647	574.219	83.635	574.219	84.5519	574.219	82.6445	574.219	84.5188	574.219	81.2825	574.219	84.1878	574.219	79.5564	574.219	83.5751	574.219	77.5241	574.219	82.6856	574.219	75.3723	574.219	81.5245	574.219	73.4961	574.219	80.1539	574.219	72.2958	574.219	78.8163	574.219	71.6639	574.219	77.9631	574.219	71.0878	574.219	77.7727	574.219	70.2617	574.219	77.7493	574.219	69.582	574.219	77.2763	574.219	70.3134	574.219	76.1382	574.219	72.5935	574.219	74.9067	574.219	75.0412	574.219	75.0242	574.219	76.9006	574.219	76.4433	574.219	77.9929	574.219	77.7328	574.219	78.2771
594.727	81.878	594.727	81.2094	594.727	82.3259	594.727	80.3198	594.727	82.5606	594.727	79.2237	594.727	82.5882	594.727	77.9582	594.727	82.4052	594.727	76.598	594.727	81.9936	594.727	75.2787	594.727	81.3223	594.727	74.197	594.727	80.3654	594.727	73.5041	594.727	79.1581	594.727	73.1169	594.727	77.9114	594.727	72.6955	594.727	77.0384	594.727	71.8016	594.727	76.7044	594.727	69.993	594.727	76.4465	594.727	67.1383	594.727	75.7356	594.727	66.3327	594.727	74.6353	594.727	70.0686	594.727	74.1368	594.727	73.4252	594.727	74.905	594.727	75.4018	594.727	75.8979	594.727	76.1703
615.234	84.0716	615.234	83.5677	615.234	84.3525	615.234	82.858	615.234	84.3996	615.234	81.9644	615.234	84.2097	615.234	80.9157	615.234	83.7856	615.234	79.7616	615.234	83.134	615.234	78.6024	615.234	82.2645	615.234	77.6083	615.234	81.1951	615.234	76.9418	615.234	79.9713	615.234	76.5727	615.234	78.7005	615.234	76.2145	615.234	77.5693	615.234	75.4723	615.234	76.7523	615.234	73.9614	615.234	76.2446	615.234	71.43	615.234	75.9343	615.234	69.1906	615.234	75.9039	615.234	71.2066	615.234	76.3781	615.234	74.5292	615.234	77.1924	615.234	76.7142	615.234	77.7973	615.234	77.7313
637.207	85.0353	637.207	84.6093	637.207	85.1958	637.207	83.8915	637.207	85.126	637.207	82.8681	637.207	84.8657	637.207	81.5501	637.207	84.4511	637.207	80.0103	637.207	83.899	637.207	78.4597	637.207	83.193	637.207	77.2948	637.207	82.2827	637.207	76.8539	637.207	81.1203	637.207	76.986	637.207	79.7574	637.207	77.1962	637.207	78.4657	637.207	77.0587	637.207	77.5531	637.207	76.2921	637.207	76.777	637.207	74.7423	637.207	75.4886	637.207	72.8297	637.207	73.7624	637.207	72.7394	637.207	73.7681	637.207	74.9942	637.207	75.8801	637.207	77.0468	637.207	77.5428	637.207	77.9425
659.18	84.3216	659.18	83.9781	659.18	84.3878	659.18	83.3366	659.18	84.2148	659.18	82.391	659.18	83.8553	659.18	81.1516	659.18	83.3678	659.18	79.6629	659.18	82.7975	659.18	78.0533	659.18	82.1591	659.18	76.6057	659.18	81.4316	659.18	75.6989	659.18	80.5867	659.18	75.4382	659.18	79.6619	659.18	75.4571	659.18	78.8292	659.18	75.2632	659.18	78.2521	659.18	74.5072	659.18	77.7238	659.18	73.0852	659.18	76.7177	659.18	71.6962	659.18	74.9494	659.18	72.28	659.18	73.4107	659.18	74.4069	659.18	74.1528	659.18	76.0563	659.18	75.8034	659.18	76.5528
682.617	85.1532	682.617	84.6514	682.617	85.3372	682.617	83.8153	682.617	85.23	682.617	82.6313	682.617	84.8744	682.617	81.0859	682.617	84.3306	682.617	79.1759	682.617	83.6688	682.617	76.9628	682.617	82.9451	682.617	74.741	682.617	82.1647	682.617	73.2485	682.617	81.2657	682.617	73.0701	682.617	80.1976	682.617	73.6236	682.617	79.1265	682.617	74.0018	682.617	78.4832	682.617	73.6858	682.617	78.2745	682.617	72.4074	682.617	77.7483	682.617	70.4974	682.617	76.3217	682.617	70.619	682.617	74.6506	682.617	73.4581	682.617	74.8873	682.617	75.8106	682.617	76.2659	682.617	76.7489
707.52	83.6312	707.52	83.1579	707.52	83.9103	707.52	82.4918	707.52	84.0034	707.52	81.6337	707.52	83.9286	707.52	80.5703	707.52	83.7031	707.52	79.269	707.52	83.3288	707.52	77.691	707.52	82.7854	707.52	75.8506	707.52	82.0374	707.52	73.9739	707.52	81.0603	707.52	72.6844	707.52	79.9127	707.52	72.4895	707.52	78.8522	707.52	72.8373	707.52	78.2315	707.52	72.7736	707.52	77.9136	707.52	71.6106	707.52	77.2019	707.52	68.8948	707.52	75.6026	707.52	66.9123	707.52	73.8167	707.52	70.5854	707.52	74.0176	707.52	73.994	707.52	75.2787	707.52	75.4799
732.422	81.9879	732.422	81.7722	732.422	82.0937	732.422	81.4702	732.422	82.0563	732.422	81.0685	732.422	81.8597	732.422	80.5049	732.422	81.5207	732.422	79.6786	732.422	81.0879	732.422	78.4728	732.422	80.6213	732.422	76.787	732.422	80.1464	732.422	74.6187	732.422	79.6065	732.422	72.358	732.422	78.9015	732.422	71.1853	732.422	78.0822	732.422	71.6383	732.422	77.5219	732.422	72.4043	732.422	77.4176	732.422	72.4316	732.422	77.1325	732.422	71.3604	732.422	75.8172	732.422	69.4946	732.422	73.1231	732.422	68.8866	732.422	70.4435	732.422	70.3459	732.422	70.6396	732.422	71.2334
757.324	81.5259	757.324	81.018	757.324	81.8661	757.324	80.4312	757.324	81.9989	757.324	79.8846	757.324	81.9259	757.324	79.4642	757.324	81.6641	757.324	79.1418	757.324	81.2087	757.324	78.7669	757.324	80.5013	757.324	78.1541	757.324	79.4325	757.324	77.1853	757.324	77.9297	757.324	75.8953	757.324	76.2687	757.324	74.5608	757.324	75.4781	757.324	73.5897	757.324	76.0554	757.324	72.9363	757.324	76.8139	757.324	71.8606	757.324	76.8573	757.324	69.3602	757.324	76.0689	757.324	64.8595	757.324	74.8665	757.324	65.9735	757.324	74.0799	757.324	70.6969	757.324	73.8356	757.324	73.0736
785.156	79.5519	785.156	79.5883	785.156	79.5234	785.156	79.495	785.156	79.5999	785.156	79.1506	785.156	79.8045	785.156	78.5001	785.156	80.0911	785.156	77.6048	785.156	80.3538	785.156	76.6821	785.156	80.4244	785.156	76.0124	785.156	80.0735	785.156	75.6558	785.156	79.0273	785.156	75.4011	785.156	77.0495	785.156	75.1045	785.156	74.4379	785.156	74.8686	785.156	73.2128	785.156	74.7738	785.156	73.8944	785.156	74.4913	785.156	74.0305	785.156	73.3533	785.156	73.1292	785.156	70.5462	785.156	72.5376	785.156	65.9019	785.156	73.0142	785.156	67.3438	785.156	73.052	785.156	71.3802
811.523	80.5644	811.523	81.5749	811.523	79.1699	811.523	82.1009	811.523	77.647	811.523	82.11	811.523	76.465	811.523	81.589	811.523	76.1122	811.523	80.5465	811.523	76.6262	811.523	79.0947	811.523	77.5372	811.523	77.5992	811.523	78.2593	811.523	76.5992	811.523	78.2908	811.523	76.1769	811.523	77.2058	811.523	75.8971	811.523	74.7816	811.523	75.5968	811.523	72.3801	811.523	75.5598	811.523	72.9366	811.523	75.8299	811.523	73.5789	811.523	75.803	811.523	72.0088	811.523	74.7622	811.523	68.7658	811.523	72.2952	811.523	68.5321	811.523	69.3387	811.523	69.7933	811.523	69.2327
840.82	81.9169	840.82	83.463	840.82	79.6344	840.82	84.3145	840.82	76.6906	840.82	84.5414	840.82	73.6063	840.82	84.1988	840.82	72.0594	840.82	83.3064	840.82	73.1549	840.82	81.8742	840.82	75.2227	840.82	80.0158	840.82	76.9723	840.82	78.1708	840.82	77.8928	840.82	77.0893	840.82	77.5857	840.82	76.9563	840.82	75.5971	840.82	77.2033	840.82	72.022	840.82	77.4558	840.82	71.1871	840.82	77.6013	840.82	72.9392	840.82	77.3901	840.82	72.4951	840.82	76.3775	840.82	69.753	840.82	74.1422	840.82	67.9348	840.82	70.8496	840.82	68.5469	840.82	68.7986
870.117	85.5104	870.117	86.3939	870.117	83.9756	870.117	86.669	870.117	81.8147	870.117	86.4252	870.117	79.1018	870.117	85.7595	870.117	75.8172	870.117	84.732	870.117	71.497	870.117	83.3542	870.117	64.6624	870.117	81.6437	870.117	61.8851	870.117	79.7311	870.117	67.797	870.117	77.9412	870.117	69.9507	870.117	76.6661	870.117	69.3611	870.117	76.0632	870.117	66.7091	870.117	76.0886	870.117	64.5481	870.117	76.6002	870.117	64.0519	870.117	77.1701	870.117	61.0691	870.117	77.2122	870.117	50.8626	870.117	76.2379	870.117	51.8927	870.117	73.8378	870.117	62.7137	870.117	69.534
900.879	85.111	900.879	85.5435	900.879	84.1312	900.879	85.3919	900.879	82.744	900.879	84.706	900.879	81.1479	900.879	83.5902	900.879	79.4621	900.879	82.1647	900.879	77.6303	900.879	80.5435	900.879	75.5261	900.879	78.8673	900.879	73.1398	900.879	77.3513	900.879	70.7227	900.879	76.2068	900.879	68.6977	900.879	75.4415	900.879	66.8839	900.879	74.8474	900.879	63.766	900.879	74.2271	900.879	54.0103	900.879	73.6031	900.879	58.977	900.879	73.2784	900.879	66.1459	900.879	73.4183	900.879	67.6499	900.879	73.4788	900.879	65.8629	900.879	72.5623	900.879	65.6095	900.879	69.8633
933.105	83.9431	933.105	84.294	933.105	83.0538	933.105	84.0463	933.105	81.8241	933.105	83.2491	933.105	80.5002	933.105	82.0026	933.105	79.131	933.105	80.3945	933.105	77.4659	933.105	78.4718	933.105	75.1475	933.105	76.3039	933.105	72.0022	933.105	74.1324	933.105	69.1505	933.105	72.4468	933.105	69.4623	933.105	71.652	933.105	70.86	933.105	71.6307	933.105	70.7091	933.105	71.9815	933.105	68.2414	933.105	72.3575	933.105	64.7899	933.105	72.6015	933.105	66.2152	933.105	72.813	933.105	67.3752	933.105	73.0098	933.105	66.638	933.105	72.6918	933.105	68.1744	933.105	71.1275
965.332	83.4181	965.332	83.6624	965.332	82.6942	965.332	83.305	965.332	81.7381	965.332	82.3521	965.332	80.7848	965.332	80.8977	965.332	79.8477	965.332	79.0689	965.332	78.7263	965.332	76.9735	965.332	77.1784	965.332	74.7117	965.332	74.9942	965.332	72.5107	965.332	72.1285	965.332	70.898	965.332	69.5249	965.332	70.44	965.332	69.0042	965.332	70.9278	965.332	68.861	965.332	71.5489	965.332	66.9216	965.332	71.6966	965.332	65.5504	965.332	71.272	965.332	68.1011	965.332	70.8248	965.332	68.9083	965.332	70.8341	965.332	66.4062	965.332	70.3929	965.332	64.1793	965.332	68.0756
1000.49	83.2513	1000.49	83.2624	1000.49	82.7722	1000.49	82.6178	1000.49	82.0961	1000.49	81.2841	1000.49	81.3685	1000.49	79.3847	1000.49	80.4847	1000.49	77.1639	1000.49	79.2756	1000.49	74.8549	1000.49	77.7282	1000.49	72.5155	1000.49	75.9765	1000.49	70.0232	1000.49	74.1083	1000.49	67.2278	1000.49	72.1989	1000.49	64.7782	1000.49	70.9634	1000.49	65.5249	1000.49	70.9143	1000.49	68.3585	1000.49	70.2914	1000.49	70.3058	1000.49	67.5112	1000.49	70.9348	1000.49	65.2378	1000.49	70.842	1000.49	66.9922	1000.49	70.947	1000.49	67.393	1000.49	70.9664	1000.49	67.8289	1000.49	69.8193
1035.64	83.3214	1035.64	82.6828	1035.64	83.4464	1035.64	81.2888	1035.64	83.2978	1035.64	78.9756	1035.64	83.0016	1035.64	75.757	1035.64	82.5275	1035.64	72.0883	1035.64	81.788	1035.64	69.19	1035.64	80.7613	1035.64	68.2159	1035.64	79.5201	1035.64	68.5111	1035.64	78.1979	1035.64	68.4659	1035.64	77.0227	1035.64	66.826	1035.64	76.327	1035.64	61.8498	1035.64	75.9513	1035.64	42.286	1035.64	74.9464	1035.64	60.2795	1035.64	72.8392	1035.64	63.4081	1035.64	71.4294	1035.64	63.7389	1035.64	71.5758	1035.64	66.3433	1035.64	70.8209	1035.64	69.0974	1035.64	69.7402	1035.64	69.8225
1072.27	83.853	1072.27	83.3563	1072.27	83.8336	1072.27	82.2618	1072.27	83.5326	1072.27	80.6683	1072.27	83.1772	1072.27	78.8086	1072.27	82.7794	1072.27	76.8815	1072.27	82.1632	1072.27	74.9372	1072.27	81.1444	1072.27	73.3922	1072.27	79.6824	1072.27	73.3793	1072.27	78.136	1072.27	74.5333	1072.27	77.3095	1072.27	75.2495	1072.27	77.2115	1072.27	74.6848	1072.27	76.8809	1072.27	72.4306	1072.27	75.8653	1072.27	68.4726	1072.27	74.3814	1072.27	65.4217	1072.27	73.0401	1072.27	65.5927	1072.27	72.0153	1072.27	67.1106	1072.27	70.9273	1072.27	69.6983	1072.27	70.7643	1072.27	71.0053
1108.89	84.6682	1108.89	84.2543	1108.89	84.4758	1108.89	83.2735	1108.89	83.8924	1108.89	81.9808	1108.89	83.2331	1108.89	80.644	1108.89	82.629	1108.89	79.2351	1108.89	81.9895	1108.89	77.3151	1108.89	81.1205	1108.89	74.2676	1108.89	79.6989	1108.89	70.5864	1108.89	77.4502	1108.89	71.2131	1108.89	75.2871	1108.89	73.7987	1108.89	75.5196	1108.89	74.7205	1108.89	76.317	1108.89	74.0094	1108.89	75.9187	1108.89	72.5476	1108.89	75.0721	1108.89	71.6045	1108.89	74.0353	1108.89	70.6893	1108.89	71.7309	1108.89	69.4565	1108.89	69.6635	1108.89	70.2646	1108.89	70.8874	1108.89	71.5331
1148.44	84.41	1148.44	84.0847	1148.44	84.3324	1148.44	83.3746	1148.44	84.0569	1148.44	82.4368	1148.44	83.7608	1148.44	81.3811	1148.44	83.2957	1148.44	80.2034	1148.44	82.4235	1148.44	78.7414	1148.44	81.2225	1148.44	76.6298	1148.44	79.9599	1148.44	73.6514	1148.44	78.3247	1148.44	71.367	1148.44	75.3466	1148.44	72.2512	1148.44	72.4589	1148.44	73.4893	1148.44	74.5021	1148.44	73.3977	1148.44	75.3701	1148.44	72.4023	1148.44	73.6999	1148.44	71.7454	1148.44	72.5555	1148.44	71.3722	1148.44	71.5789	1148.44	70.4068	1148.44	67.6834	1148.44	69.8079	1148.44	66.8597	1148.44	69.3906
1189.45	84.2601	1189.45	84.056	1189.45	84.2382	1189.45	83.5743	1189.45	84.2218	1189.45	82.8595	1189.45	84.2953	1189.45	81.9126	1189.45	84.11	1189.45	80.705	1189.45	83.2754	1189.45	79.1351	1189.45	81.8141	1189.45	76.8502	1189.45	80.2489	1189.45	73.3227	1189.45	78.8753	1189.45	69.5121	1189.45	76.8086	1189.45	70.3753	1189.45	73.2122	1189.45	72.4369	1189.45	72.2991	1189.45	73.1005	1189.45	73.882	1189.45	73.1164	1189.45	73.115	1189.45	72.9024	1189.45	72.9236	1189.45	71.4291	1189.45	73.306	1189.45	68.6971	1189.45	70.9861	1189.45	69.6433	1189.45	69.5249	1189.45	70.8944
1230.47	83.7358	1230.47	83.7663	1230.47	83.715	1230.47	83.6208	1230.47	83.8252	1230.47	83.1546	1230.47	83.8936	1230.47	82.265	1230.47	83.5946	1230.47	81.0196	1230.47	82.7543	1230.47	79.6063	1230.47	81.4538	1230.47	77.8375	1230.47	80.0687	1230.47	74.9665	1230.47	78.9403	1230.47	70.0835	1230.47	77.4445	1230.47	66.0624	1230.47	74.1561	1230.47	69.0348	1230.47	70.8326	1230.47	70.9172	1230.47	73.0781	1230.47	72.0435	1230.47	73.2673	1230.47	73.1153	1230.47	72.1962	1230.47	72.7264	1230.47	72.2187	1230.47	70.3427	1230.47	69.9123	1230.47	68.8933	1230.47	67.0839	1230.47	68.7556
1274.41	82.4348	1274.41	82.4712	1274.41	82.7706	1274.41	82.8726	1274.41	83.2527	1274.41	83.1673	1274.41	83.6413	1274.41	82.8702	1274.41	83.6407	1274.41	81.9394	1274.41	83.0147	1274.41	80.7232	1274.41	81.7606	1274.41	79.2317	1274.41	80.2663	1274.41	76.7841	1274.41	79.1773	1274.41	73.2806	1274.41	78.2796	1274.41	71.9872	1274.41	76.3491	1274.41	72.6244	1274.41	73.672	1274.41	71.2515	1274.41	73.4532	1274.41	70.0688	1274.41	72.6788	1274.41	72.294	1274.41	71.0047	1274.41	72.2533	1274.41	72.1162	1274.41	68.1088	1274.41	71.1803	1274.41	66.6604	1274.41	68.724	1274.41	68.8545
1319.82	81.5983	1319.82	83.2392	1319.82	80.4182	1319.82	84.4563	1319.82	80.4908	1319.82	84.862	1319.82	81.2017	1319.82	84.2744	1319.82	81.5467	1319.82	82.7463	1319.82	81.1155	1319.82	80.9521	1319.82	79.9669	1319.82	79.6059	1319.82	78.6126	1319.82	77.7774	1319.82	77.8839	1319.82	73.7614	1319.82	77.5396	1319.82	66.9018	1319.82	76.0436	1319.82	69.3969	1319.82	72.894	1319.82	71.3223	1319.82	72.57	1319.82	70.284	1319.82	73.4529	1319.82	71.7542	1319.82	72.8619	1319.82	72.8185	1319.82	72.8807	1319.82	69.5119	1319.82	71.0464	1319.82	60.3038	1319.82	66.1436	1319.82	62.9321
1366.7	84.4319	1366.7	84.9135	1366.7	82.9972	1366.7	84.5289	1366.7	80.6238	1366.7	83.4083	1366.7	77.6676	1366.7	81.6733	1366.7	74.9853	1366.7	79.3398	1366.7	73.158	1366.7	76.5615	1366.7	71.859	1366.7	74.266	1366.7	70.9954	1366.7	72.9885	1366.7	71.0279	1366.7	71.3721	1366.7	70.8474	1366.7	68.645	1366.7	68.9454	1366.7	66.427	1366.7	66.2473	1366.7	65.4791	1366.7	65.314	1366.7	64.5159	1366.7	65.4749	1366.7	66.0254	1366.7	65.9042	1366.7	67.0955	1366.7	65.5825	1366.7	65.4749	1366.7	65.0077	1366.7	61.7267	1366.7	62.5908	1366.7	59.1435
1413.57	84.7718	1413.57	84.4314	1413.57	84.0816	1413.57	83.3748	1413.57	82.0865	1413.57	81.6943	1413.57	78.8945	1413.57	79.182	1413.57	75.4551	1413.57	75.5165	1413.57	73.1766	1413.57	71.0887	1413.57	72.0155	1413.57	68.5113	1413.57	70.9024	1413.57	67.3701	1413.57	70.4125	1413.57	65.5092	1413.57	71.4154	1413.57	64.7766	1413.57	71.0777	1413.57	64.4154	1413.57	67.1271	1413.57	60.7212	1413.57	60.5015	1413.57	52.5395	1413.57	60.4077	1413.57	59.5493	1413.57	61.3589	1413.57	62.501	1413.57	62.331	1413.57	64.0497	1413.57	63.6801	1413.57	65.2726	1413.57	66.1674	1413.57	66.4297
1463.38	84.593	1463.38	84.1066	1463.38	83.8815	1463.38	82.6711	1463.38	81.8138	1463.38	80.6618	1463.38	78.5473	1463.38	78.4041	1463.38	75.1942	1463.38	75.4665	1463.38	73.1634	1463.38	70.646	1463.38	71.9269	1463.38	65.0568	1463.38	70.6042	1463.38	65.0491	1463.38	69.3055	1463.38	63.4951	1463.38	69.9988	1463.38	63.0698	1463.38	71.236	1463.38	66.235	1463.38	70.4107	1463.38	65.4121	1463.38	66.8055	1463.38	58.0355	1463.38	58.7526	1463.38	51.0874	1463.38	60.2355	1463.38	59.8809	1463.38	63.1716	1463.38	62.9669	1463.38	63.5733	1463.38	62.8083	1463.38	65.5789	1463.38	64.6649
1516.11	84.2738	1516.11	84.0124	1516.11	83.1182	1516.11	82.3446	1516.11	80.5219	1516.11	79.3717	1516.11	76.5381	1516.11	75.6628	1516.11	72.4503	1516.11	72.3265	1516.11	71.3872	1516.11	68.8916	1516.11	70.987	1516.11	64.7263	1516.11	68.9365	1516.11	64.2639	1516.11	67.1724	1516.11	64.5087	1516.11	67.7168	1516.11	64.6085	1516.11	68.078	1516.11	66.8258	1516.11	67.9473	1516.11	66.8947	1516.11	66.2094	1516.11	62.9292	1516.11	61.0644	1516.11	56.1621	1516.11	53.8749	1516.11	57.6403	1516.11	57.541	1516.11	60.5998	1516.11	62.3468	1516.11	60.842	1516.11	63.3834	1516.11	61.7686
1568.85	83.9933	1568.85	83.6741	1568.85	82.7371	1568.85	81.7206	1568.85	79.607	1568.85	77.8102	1568.85	73.8058	1568.85	71.7222	1568.85	68.0361	1568.85	67.5446	1568.85	71.6094	1568.85	67.2168	1568.85	72.9211	1568.85	66.0504	1568.85	71.0563	1568.85	66.1455	1568.85	67.6756	1568.85	64.8103	1568.85	66.3709	1568.85	62.8393	1568.85	64.4316	1568.85	67.0434	1568.85	67.0452	1568.85	67.8001	1568.85	68.4373	1568.85	63.8119	1568.85	63.2197	1568.85	58.6877	1568.85	58.4826	1568.85	54.3876	1568.85	54.5371	1568.85	55.2595	1568.85	60.3559	1568.85	59.1619	1568.85	63.7483	1568.85	61.697
1624.51	84.4094	1624.51	83.424	1624.51	83.2964	1624.51	80.6762	1624.51	79.343	1624.51	75.9683	1624.51	71.1561	1624.51	67.7709	1624.51	69.005	1624.51	65.3673	1624.51	72.433	1624.51	68.7676	1624.51	73.2127	1624.51	67.5698	1624.51	72.1721	1624.51	68.266	1624.51	69.4868	1624.51	69.5609	1624.51	68.7813	1624.51	67.2597	1624.51	67.5105	1624.51	66.0167	1624.51	63.01	1624.51	67.1743	1624.51	68.1483	1624.51	63.7027	1624.51	67.2333	1624.51	59.207	1624.51	60.1507	1624.51	55.0663	1624.51	50.6609	1624.51	55.0873	1624.51	60.2791	1624.51	59.78	1624.51	64.0734	1624.51	60.9838
1681.64	84.7241	1681.64	83.761	1681.64	83.4531	1681.64	80.4021	1681.64	79.5292	1681.64	73.1729	1681.64	71.3007	1681.64	44.2894	1681.64	68.624	1681.64	67.6742	1681.64	74.0668	1681.64	69.4075	1681.64	75.3605	1681.64	68.1063	1681.64	74.3481	1681.64	65.4216	1681.64	71.6433	1681.64	65.4634	1681.64	69.5638	1681.64	67.6991	1681.64	67.7183	1681.64	69.505	1681.64	65.908	1681.64	69.7892	1681.64	68.0165	1681.64	67.3983	1681.64	67.3516	1681.64	61.8697	1681.64	63.5138	1681.64	52.8654	1681.64	57.8903	1681.64	55.4279	1681.64	54.8901	1681.64	61.1214	1681.64	63.5994	1681.64	63.5867
1741.7	84.0381	1741.7	82.7661	1741.7	83.4658	1741.7	79.4995	1741.7	80.0088	1741.7	73.0021	1741.7	67.724	1741.7	65.6077	1741.7	73.2845	1741.7	69.5945	1741.7	77.8353	1741.7	70.0884	1741.7	77.5583	1741.7	68.5777	1741.7	75.1791	1741.7	67.1777	1741.7	71.1456	1741.7	66.2689	1741.7	69.3666	1741.7	63.776	1741.7	69.82	1741.7	62.4442	1741.7	66.0578	1741.7	66.9692	1741.7	69.1206	1741.7	68.4991	1741.7	69.6996	1741.7	66.0133	1741.7	62.4722	1741.7	54.797	1741.7	54.6661	1741.7	60.2896	1741.7	55.3971	1741.7	62.8921	1741.7	63.8281	1741.7	64.2174
1803.22	83.3379	1803.22	82.0794	1803.22	82.8158	1803.22	79.1571	1803.22	79.0338	1803.22	73.4344	1803.22	63.6564	1803.22	68.1857	1803.22	73.9763	1803.22	71.4552	1803.22	78.7073	1803.22	71.7451	1803.22	79.3405	1803.22	69.3951	1803.22	77.6758	1803.22	66.2506	1803.22	74.6408	1803.22	66.3727	1803.22	72.3909	1803.22	66.1461	1803.22	71.3199	1803.22	62.7605	1803.22	68.5417	1803.22	60.4795	1803.22	64.2902	1803.22	63.8073	1803.22	70.0238	1803.22	63.6547	1803.22	69.1058	1803.22	54.2809	1803.22	59.5574	1803.22	56.1537	1803.22	61.8447	1803.22	57.4468	1803.22	64.2954	1803.22	59.8069
1866.21	83.1045	1866.21	82.2055	1866.21	82.2407	1866.21	78.9675	1866.21	78.571	1866.21	72.2727	1866.21	64.5865	1866.21	70.0582	1866.21	74.845	1866.21	73.8045	1866.21	78.8127	1866.21	74.6746	1866.21	78.8682	1866.21	73.7175	1866.21	76.9186	1866.21	71.8029	1866.21	73.0519	1866.21	70.8488	1866.21	70.6604	1866.21	70.3808	1866.21	70.7408	1866.21	69.4414	1866.21	69.0249	1866.21	69.2972	1866.21	70.2878	1866.21	66.4663	1866.21	69.761	1866.21	64.585	1866.21	62.8648	1866.21	64.8963	1866.21	63.1917	1866.21	53.9055	1866.21	55.5714	1866.21	62.8074	1866.21	66.5751	1866.21	64.422
1932.13	83.112	1932.13	82.097	1932.13	82.1573	1932.13	78.0712	1932.13	78.6575	1932.13	70.701	1932.13	66.8902	1932.13	73.2224	1932.13	74.4855	1932.13	75.2023	1932.13	78.0393	1932.13	75.2446	1932.13	78.4245	1932.13	74.5796	1932.13	77.5584	1932.13	72.8923	1932.13	75.3237	1932.13	72.0843	1932.13	73.0437	1932.13	72.5457	1932.13	69.7328	1932.13	72.566	1932.13	64.194	1932.13	73.1413	1932.13	66.3121	1932.13	70.7798	1932.13	71.3693	1932.13	65.3454	1932.13	67.7354	1932.13	62.9337	1932.13	35.9693	1932.13	57.4409	1932.13	56.6723	1932.13	62.1277	1932.13	62.8558	1932.13	61.5044
1999.51	83.1911	1999.51	82.2314	1999.51	81.0774	1999.51	77.4336	1999.51	77.9344	1999.51	74.9745	1999.51	71.7303	1999.51	77.2597	1999.51	74.2933	1999.51	76.7971	1999.51	79.1942	1999.51	73.4418	1999.51	79.2839	1999.51	67.6631	1999.51	78.2101	1999.51	65.7135	1999.51	76.5266	1999.51	68.9194	1999.51	76.8456	1999.51	71.5657	1999.51	77.34	1999.51	72.2424	1999.51	74.35	1999.51	73.2913	1999.51	60.9073	1999.51	71.477	1999.51	70.2351	1999.51	63.8033	1999.51	71.6371	1999.51	59.0956	1999.51	60.4655	1999.51	59.1766	1999.51	65.9574	1999.51	58.6754	1999.51	61.4579	1999.51	47.1257
2069.82	83.7772	2069.82	81.965	2069.82	81.6877	2069.82	77.7309	2069.82	76.9159	2069.82	77.2064	2069.82	74.7719	2069.82	77.4311	2069.82	75.2008	2069.82	75.7423	2069.82	79.0956	2069.82	72.2408	2069.82	79.5051	2069.82	68.4254	2069.82	77.5138	2069.82	69.8195	2069.82	75.4814	2069.82	73.071	2069.82	75.252	2069.82	73.9193	2069.82	76.8328	2069.82	70.9209	2069.82	76.208	2069.82	64.3673	2069.82	67.4337	2069.82	67.5618	2069.82	67.7115	2069.82	64.029	2069.82	68.8034	2069.82	53.9008	2069.82	59.937	2069.82	49.8192	2069.82	65.5943	2069.82	56.189	2069.82	61.4427	2069.82	50.8708
2143.07	85.0701	2143.07	80.8224	2143.07	84.643	2143.07	76.3078	2143.07	78.0295	2143.07	77.3881	2143.07	73.5742	2143.07	79.3426	2143.07	74.1795	2143.07	79.2743	2143.07	74.7903	2143.07	78.0617	2143.07	76.8048	2143.07	78.3184	2143.07	76.8857	2143.07	78.3051	2143.07	75.9559	2143.07	76.6394	2143.07	72.6448	2143.07	73.0912	2143.07	63.9996	2143.07	70.5981	2143.07	62.5088	2143.07	70.667	2143.07	68.1201	2143.07	68.1759	2143.07	68.137	2143.07	66.374	2143.07	60.4686	2143.07	63.2092	2143.07	43.6807	2143.07	54.3624	2143.07	62.9085	2143.07	61.8011	2143.07	62.562	2143.07	62.7859
2219.24	83.6959	2219.24	81.5235	2219.24	83.9491	2219.24	81.1141	2219.24	80.6506	2219.24	80.1569	2219.24	74.6893	2219.24	76.7336	2219.24	79.0259	2219.24	73.0228	2219.24	81.6572	2219.24	72.8251	2219.24	81.2659	2219.24	75.683	2219.24	78.0916	2219.24	77.9243	2219.24	75.2406	2219.24	79.2604	2219.24	76.5568	2219.24	79.5494	2219.24	75.9207	2219.24	78.0066	2219.24	75.1748	2219.24	76.3011	2219.24	68.8825	2219.24	74.0929	2219.24	68.5313	2219.24	70.1291	2219.24	70.1419	2219.24	64.5207	2219.24	65.025	2219.24	59.9434	2219.24	59.258	2219.24	59.5669	2219.24	56.6286	2219.24	60.8534
2296.88	83.5476	2296.88	82.6795	2296.88	82.9084	2296.88	81.5817	2296.88	79.5406	2296.88	78.5074	2296.88	74.8798	2296.88	75.3636	2296.88	76.6975	2296.88	78.0841	2296.88	81.928	2296.88	80.6405	2296.88	82.9585	2296.88	79.8838	2296.88	80.0978	2296.88	78.2473	2296.88	72.8412	2296.88	79.3102	2296.88	76.8904	2296.88	81.0514	2296.88	80.6086	2296.88	80.7651	2296.88	81.2722	2296.88	79.5267	2296.88	78.2553	2296.88	77.1434	2296.88	71.2454	2296.88	71.9637	2296.88	73.363	2296.88	60.4625	2296.88	71.0123	2296.88	61.6443	2296.88	67.6489	2296.88	59.1553	2296.88	60.2656	2296.88	47.3032
2378.91	82.9621	2378.91	83.0611	2378.91	82.9664	2378.91	82.6914	2378.91	81.2221	2378.91	80.4273	2378.91	78.794	2378.91	77.7957	2378.91	79.896	2378.91	76.3283	2378.91	82.4396	2378.91	78.2587	2378.91	82.2561	2378.91	79.5504	2378.91	78.6916	2378.91	79.5178	2378.91	71.0638	2378.91	80.5248	2378.91	72.0831	2378.91	83.1675	2378.91	77.7881	2378.91	82.8128	2378.91	80.5281	2378.91	79.7095	2378.91	78.8261	2378.91	76.2962	2378.91	71.6421	2378.91	73.7389	2378.91	73.8288	2378.91	66.4536	2378.91	71.2477	2378.91	54.2628	2378.91	64.7425	2378.91	60.7415	2378.91	54.2984	2378.91	51.79
2462.4	83.0902	2462.4	83.1947	2462.4	83.302	2462.4	82.1773	2462.4	82.2395	2462.4	81.0335	2462.4	78.2436	2462.4	79.4715	2462.4	78.1808	2462.4	78.7922	2462.4	79.5843	2462.4	78.2107	2462.4	80.2333	2462.4	76.8519	2462.4	78.3706	2462.4	75.5438	2462.4	74.9027	2462.4	74.4196	2462.4	71.2168	2462.4	71.8536	2462.4	72.3925	2462.4	68.7596	2462.4	64.7627	2462.4	69.5744	2462.4	67.5905	2462.4	66.8364	2462.4	68.1782	2462.4	68.6617	2462.4	66.0368	2462.4	66.4371	2462.4	36.5712	2462.4	63.6982	2462.4	61.6729	2462.4	59.701	2462.4	66.0072	2462.4	64.1823
2548.83	82.6568	2548.83	82.5946	2548.83	82.0414	2548.83	82.4128	2548.83	82.0917	2548.83	80.8152	2548.83	79.5483	2548.83	79.587	2548.83	77.1733	2548.83	79.6676	2548.83	79.3812	2548.83	77.9454	2548.83	79.5561	2548.83	75.645	2548.83	78.056	2548.83	74.1645	2548.83	75.4961	2548.83	70.3726	2548.83	71.0452	2548.83	71.3107	2548.83	69.8227	2548.83	70.8394	2548.83	66.8509	2548.83	69.1712	2548.83	67.4545	2548.83	68.8057	2548.83	67.5789	2548.83	66.4519	2548.83	65.4907	2548.83	65.1931	2548.83	44.6717	2548.83	60.6668	2548.83	63.8361	2548.83	58.5538	2548.83	64.4553	2548.83	63.6529
2639.65	82.2733	2639.65	82.9882	2639.65	82.2763	2639.65	82.4653	2639.65	81.0018	2639.65	79.7002	2639.65	80.4372	2639.65	80.2209	2639.65	76.8629	2639.65	79.1801	2639.65	78.2004	2639.65	76.3494	2639.65	79.7189	2639.65	74.2292	2639.65	78.1051	2639.65	72.6684	2639.65	76.1293	2639.65	72.5079	2639.65	71.3399	2639.65	70.2131	2639.65	71.3017	2639.65	68.7696	2639.65	66.7584	2639.65	67.8237	2639.65	67.8483	2639.65	65.9694	2639.65	65.2483	2639.65	65.0332	2639.65	65.5526	2639.65	63.6454	2639.65	50.0947	2639.65	59.4925	2639.65	56.7382	2639.65	58.1051	2639.65	63.9467	2639.65	62.7649
2731.93	82.117	2731.93	84.0607	2731.93	82.0308	2731.93	81.7684	2731.93	81.2675	2731.93	79.9198	2731.93	79.1534	2731.93	80.4185	2731.93	78.2826	2731.93	78.438	2731.93	76.9766	2731.93	75.7874	2731.93	78.6084	2731.93	73.5282	2731.93	77.8248	2731.93	71.855	2731.93	75.4398	2731.93	69.8145	2731.93	70.6286	2731.93	65.6826	2731.93	71.8489	2731.93	67.4179	2731.93	68.0483	2731.93	66.3302	2731.93	66.1136	2731.93	67.1156	2731.93	62.3423	2731.93	65.334	2731.93	56.9982	2731.93	63.0851	2731.93	55.3688	2731.93	56.9508	2731.93	63.036	2731.93	56.9683	2731.93	63.6164	2731.93	62.8056
2828.61	82.6575	2828.61	83.7383	2828.61	80.6124	2828.61	80.5943	2828.61	82.0149	2828.61	80.861	2828.61	79.5718	2828.61	79.7375	2828.61	76.5104	2828.61	76.544	2828.61	77.5521	2828.61	74.8871	2828.61	78.0073	2828.61	73.7375	2828.61	76.9403	2828.61	72.452	2828.61	74.2471	2828.61	70.7859	2828.61	70.162	2828.61	70.9331	2828.61	67.6863	2828.61	68.6165	2828.61	66.6461	2828.61	68.451	2828.61	65.7307	2828.61	65.4307	2828.61	60.1037	2828.61	65.3342	2828.61	61.9323	2828.61	63.4798	2828.61	56.1656	2828.61	56.7453	2828.61	61.8507	2828.61	56.2878	2828.61	63.8822	2828.61	61.9482
2928.22	82.2875	2928.22	81.948	2928.22	79.1589	2928.22	79.8905	2928.22	80.7656	2928.22	80.5902	2928.22	80.6498	2928.22	78.3512	2928.22	75.6065	2928.22	76.3804	2928.22	76.9689	2928.22	75.3292	2928.22	77.728	2928.22	74.2132	2928.22	76.7122	2928.22	72.4741	2928.22	74.1528	2928.22	70.9484	2928.22	68.8629	2928.22	68.8329	2928.22	67.1392	2928.22	66.8405	2928.22	62.1883	2928.22	66.97	2928.22	65.6157	2928.22	64.0748	2928.22	57.9713	2928.22	64.0464	2928.22	57.6567	2928.22	62.1538	2928.22	52.7916	2928.22	56.473	2928.22	63.8855	2928.22	53.9035	2928.22	62.874	2928.22	61.5134
3030.76	82.9413	3030.76	81.9337	3030.76	80.3478	3030.76	80.8215	3030.76	80.114	3030.76	80.0555	3030.76	80.5591	3030.76	78.1003	3030.76	76.9538	3030.76	76.5936	3030.76	74.9292	3030.76	74.9914	3030.76	78.1334	3030.76	72.928	3030.76	76.1443	3030.76	70.8862	3030.76	73.0916	3030.76	68.3395	3030.76	59.4023	3030.76	65.8594	3030.76	65.0778	3030.76	66.0204	3030.76	65.0842	3030.76	65.3963	3030.76	60.3797	3030.76	64.5	3030.76	61.516	3030.76	63.6385	3030.76	56.8	3030.76	60.5719	3030.76	56.5861	3030.76	55.7556	3030.76	60.6105	3030.76	52.0417	3030.76	59.4397	3030.76	60.3174
3137.7	82.7246	3137.7	81.8365	3137.7	79.9169	3137.7	80.9986	3137.7	80.8872	3137.7	80.3773	3137.7	80.7325	3137.7	78.1338	3137.7	77.7971	3137.7	76.3649	3137.7	73.6911	3137.7	74.7307	3137.7	77.7051	3137.7	72.7012	3137.7	76.2232	3137.7	70.4206	3137.7	73.1048	3137.7	67.1366	3137.7	66.2823	3137.7	67.0648	3137.7	59.4909	3137.7	64.4731	3137.7	63.2354	3137.7	65.5328	3137.7	62.9194	3137.7	63.501	3137.7	58.9957	3137.7	63.1024	3137.7	55.3008	3137.7	61.455	3137.7	57.7351	3137.7	55.5555	3137.7	59.0615	3137.7	49.1501	3137.7	60.259	3137.7	59.9408
3249.02	83.4803	3249.02	81.7774	3249.02	80.5958	3249.02	81.059	3249.02	80.0752	3249.02	79.7437	3249.02	81.287	3249.02	77.9713	3249.02	77.958	3249.02	76.471	3249.02	73.6821	3249.02	73.4973	3249.02	76.6886	3249.02	71.4908	3249.02	76.4326	3249.02	69.9731	3249.02	74.4498	3249.02	69.9638	3249.02	68.5901	3249.02	67.9648	3249.02	60.9564	3249.02	67.0676	3249.02	64.1498	3249.02	65.2333	3249.02	58.8406	3249.02	64.0213	3249.02	59.6566	3249.02	62.2694	3249.02	57.6054	3249.02	60.9303	3249.02	58.3194	3249.02	53.3319	3249.02	59.2522	3249.02	47.5586	3249.02	62.8617	3249.02	59.5689
3363.28	83.3331	3363.28	81.7756	3363.28	81.0446	3363.28	81.5493	3363.28	79.2233	3363.28	79.3297	3363.28	81.2174	3363.28	77.9451	3363.28	78.3124	3363.28	75.6277	3363.28	72.9736	3363.28	73.4424	3363.28	76.3604	3363.28	71.107	3363.28	75.8032	3363.28	69.0663	3363.28	74.7702	3363.28	67.3114	3363.28	70.7314	3363.28	64.6885	3363.28	64.9562	3363.28	65.3866	3363.28	58.805	3363.28	63.8535	3363.28	61.6293	3363.28	63.0754	3363.28	58.2738	3363.28	61.6239	3363.28	56.6094	3363.28	61.6711	3363.28	55.7372	3363.28	56.6633	3363.28	57.4498	3363.28	38.5192	3363.28	58.8922	3363.28	55.0986
3481.93	83.5939	3481.93	81.6836	3481.93	82.229	3481.93	81.1187	3481.93	78.9388	3481.93	79.473	3481.93	80.896	3481.93	78.486	3481.93	78.9215	3481.93	75.5882	3481.93	72.443	3481.93	73.1389	3481.93	75.5378	3481.93	71.5729	3481.93	75.1075	3481.93	69.4609	3481.93	74.1049	3481.93	67.6822	3481.93	68.3834	3481.93	66.6349	3481.93	66.1804	3481.93	65.9631	3481.93	65.5254	3481.93	64.9229	3481.93	49.2232	3481.93	64.4377	3481.93	52.6934	3481.93	61.4753	3481.93	55.7561	3481.93	61.661	3481.93	58.7523	3481.93	57.2044	3481.93	57.9158	3481.93	35.0497	3481.93	61.0016	3481.93	55.4302
3604.98	83.2251	3604.98	82.3235	3604.98	83.3645	3604.98	81.4892	3604.98	79.8087	3604.98	80.2474	3604.98	80.9758	3604.98	78.2742	3604.98	78.8699	3604.98	75.8779	3604.98	73.6469	3604.98	74.2268	3604.98	74.9027	3604.98	72.4578	3604.98	74.4113	3604.98	70.0509	3604.98	72.7758	3604.98	66.718	3604.98	69.005	3604.98	66.4553	3604.98	61.2809	3604.98	64.3086	3604.98	61.9056	3604.98	64.5898	3604.98	55.4282	3604.98	63.0741	3604.98	50.7911	3604.98	61.9263	3604.98	54.4433	3604.98	59.9472	3604.98	59.6962	3604.98	56.0403	3604.98	57.1363	3604.98	34.5988	3604.98	59.3742	3604.98	56.5627
3732.42	83.0492	3732.42	82.7168	3732.42	83.9135	3732.42	81.2915	3732.42	79.8955	3732.42	80.721	3732.42	81.4963	3732.42	78.1349	3732.42	78.7826	3732.42	75.9944	3732.42	73.9924	3732.42	74.1806	3732.42	74.2289	3732.42	71.4448	3732.42	73.924	3732.42	68.5191	3732.42	69.7866	3732.42	67.2748	3732.42	65.0873	3732.42	65.4001	3732.42	59.0065	3732.42	63.8764	3732.42	63.446	3732.42	63.896	3732.42	56.4449	3732.42	63.2488	3732.42	54.7594	3732.42	61.05	3732.42	53.8211	3732.42	60.3217	3732.42	59.7538	3732.42	56.3799	3732.42	56.4839	3732.42	38.0753	3732.42	60.3863	3732.42	55.793
3864.26	83.2875	3864.26	83.3496	3864.26	84.0615	3864.26	81.9236	3864.26	81.2328	3864.26	80.5933	3864.26	80.8392	3864.26	78.0397	3864.26	79.37	3864.26	76.4127	3864.26	72.9008	3864.26	72.7666	3864.26	74.0367	3864.26	70.5955	3864.26	73.1938	3864.26	67.7703	3864.26	69.4346	3864.26	66.8192	3864.26	66.1896	3864.26	64.425	3864.26	49.7355	3864.26	63.6674	3864.26	56.6752	3864.26	62.0472	3864.26	58.4455	3864.26	62.2086	3864.26	57.908	3864.26	59.1714	3864.26	54.116	3864.26	60.5115	3864.26	59.2809	3864.26	57.351	3864.26	54.7195	3864.26	47.1097	3864.26	60.1889	3864.26	50.7526
4000.49	83.3558	4000.49	83.0033	4000.49	83.8306	4000.49	81.7449	4000.49	81.3905	4000.49	80.7381	4000.49	81.0718	4000.49	78.6554	4000.49	79.1075	4000.49	75.4695	4000.49	73.1098	4000.49	72.9534	4000.49	73.8605	4000.49	69.6049	4000.49	73.4801	4000.49	67.2852	4000.49	71.6219	4000.49	65.5239	4000.49	67.0769	4000.49	61.624	4000.49	51.1722	4000.49	62.2477	4000.49	53.9316	4000.49	62.8299	4000.49	56.7579	4000.49	62.3048	4000.49	56.3798	4000.49	58.9823	4000.49	53.8508	4000.49	59.224	4000.49	59.8553	4000.49	56.227	4000.49	53.6643	4000.49	50.4539	4000.49	58.9526	4000.49	54.6645
4141.11	83.7041	4141.11	83.3451	4141.11	83.7828	4141.11	82.6098	4141.11	82.273	4141.11	80.5671	4141.11	80.7262	4141.11	78.1506	4141.11	79.4367	4141.11	75.066	4141.11	72.7177	4141.11	72.1874	4141.11	72.9596	4141.11	69.895	4141.11	72.8883	4141.11	67.1738	4141.11	69.6486	4141.11	65.5688	4141.11	64.9023	4141.11	63.6675	4141.11	60.5673	4141.11	61.3846	4141.11	48.8235	4141.11	61.4227	4141.11	56.5338	4141.11	61.2854	4141.11	58.9542	4141.11	58.6855	4141.11	54.2189	4141.11	59.2136	4141.11	58.4906	4141.11	55.8692	4141.11	47.9089	4141.11	53.4029	4141.11	57.9712	4141.11	51.5159
4287.6	83.9202	4287.6	82.94	4287.6	83.4772	4287.6	82.4385	4287.6	82.3281	4287.6	80.7965	4287.6	80.6566	4287.6	77.7636	4287.6	79.1264	4287.6	74.6646	4287.6	71.8712	4287.6	72.292	4287.6	72.4173	4287.6	69.5676	4287.6	73.0934	4287.6	66.7678	4287.6	70.3956	4287.6	65.7923	4287.6	67.1416	4287.6	62.1573	4287.6	64.6277	4287.6	61.7559	4287.6	57.2071	4287.6	62.5969	4287.6	59.3799	4287.6	61.7193	4287.6	58.8275	4287.6	59.6939	4287.6	53.4885	4287.6	59.5108	4287.6	58.5888	4287.6	57.7591	4287.6	52.3578	4287.6	53.3261	4287.6	58.5265	4287.6	53.6396
4438.48	83.9349	4438.48	83.0288	4438.48	83.6302	4438.48	82.8686	4438.48	82.3022	4438.48	80.35	4438.48	80.4255	4438.48	77.3308	4438.48	79.1173	4438.48	74.5009	4438.48	71.9157	4438.48	72.1583	4438.48	69.9248	4438.48	69.7649	4438.48	71.9736	4438.48	66.4311	4438.48	70.013	4438.48	63.3294	4438.48	66.718	4438.48	61.3284	4438.48	63.9178	4438.48	60.1504	4438.48	54.1288	4438.48	58.7749	4438.48	58.7681	4438.48	60.2348	4438.48	52.5846	4438.48	56.5503	4438.48	52.5884	4438.48	57.9022	4438.48	57.8694	4438.48	56.9292	4438.48	51.1275	4438.48	52.9858	4438.48	55.9966	4438.48	52.088
4595.21	83.8245	4595.21	83.002	4595.21	83.0197	4595.21	82.162	4595.21	82.7689	4595.21	79.8859	4595.21	79.4287	4595.21	77.1661	4595.21	79.3545	4595.21	74.4415	4595.21	72.5106	4595.21	71.6513	4595.21	68.8899	4595.21	67.6485	4595.21	71.7252	4595.21	66.1071	4595.21	69.5257	4595.21	64.9062	4595.21	66.7287	4595.21	62.3307	4595.21	60.8712	4595.21	60.7539	4595.21	51.4328	4595.21	60.4034	4595.21	56.4098	4595.21	61.1119	4595.21	58.6558	4595.21	59.195	4595.21	48.6269	4595.21	57.1146	4595.21	58.1018	4595.21	56.6629	4595.21	50.0535	4595.21	56.2132	4595.21	58.4177	4595.21	51.9965
4756.35	83.5415	4756.35	82.8215	4756.35	83.1988	4756.35	81.971	4756.35	82.5555	4756.35	79.6593	4756.35	79.5715	4756.35	76.7873	4756.35	79.2413	4756.35	73.7115	4756.35	72.6141	4756.35	70.4607	4756.35	67.2979	4756.35	68.5867	4756.35	72.2936	4756.35	65.2625	4756.35	67.5923	4756.35	62.7478	4756.35	63.6652	4756.35	60.7612	4756.35	60.9008	4756.35	59.9612	4756.35	58.4696	4756.35	58.7643	4756.35	55.3935	4756.35	59.9971	4756.35	59.6515	4756.35	57.1257	4756.35	48.8882	4756.35	57.0138	4756.35	57.8606	4756.35	57.9239	4756.35	49.452	4756.35	55.3177	4756.35	55.3977	4756.35	53.4374
4924.8	83.6735	4924.8	82.9517	4924.8	82.9254	4924.8	81.6748	4924.8	82.7036	4924.8	79.3058	4924.8	78.926	4924.8	76.3679	4924.8	79.1125	4924.8	73.4988	4924.8	73.6585	4924.8	70.9282	4924.8	63.8982	4924.8	67.5721	4924.8	71.2999	4924.8	65.1112	4924.8	68.3881	4924.8	63.0922	4924.8	64.7525	4924.8	60.8454	4924.8	60.9625	4924.8	59.4047	4924.8	50.3168	4924.8	59.2506	4924.8	50.1527	4924.8	59.4232	4924.8	59.2592	4924.8	58.7863	4924.8	51.2183	4924.8	58.2967	4924.8	56.953	4924.8	59.2377	4924.8	49.9515	4924.8	56.6918	4924.8	55.2738	4924.8	53.7942
5097.66	83.4191	5097.66	82.7324	5097.66	83.1384	5097.66	81.3106	5097.66	82.1879	5097.66	79.152	5097.66	79.2055	5097.66	76.2674	5097.66	78.3232	5097.66	73.1431	5097.66	74.4781	5097.66	70.7021	5097.66	63.8809	5097.66	67.1868	5097.66	69.3323	5097.66	65.2023	5097.66	67.7077	5097.66	63.2317	5097.66	63.6098	5097.66	61.6127	5097.66	61.8733	5097.66	60.0939	5097.66	57.4399	5097.66	59.7267	5097.66	48.9695	5097.66	59.4351	5097.66	56.7158	5097.66	57.8531	5097.66	48.4885	5097.66	58.8429	5097.66	56.408	5097.66	59.384	5097.66	48.1707	5097.66	57.7935	5097.66	53.7191	5097.66	51.1066
5277.83	82.6768	5277.83	82.7295	5277.83	83.3032	5277.83	81.0993	5277.83	82.123	5277.83	78.8566	5277.83	78.713	5277.83	75.4598	5277.83	78.0269	5277.83	73.1184	5277.83	74.5244	5277.83	70.0062	5277.83	65.3628	5277.83	68.2766	5277.83	69.462	5277.83	66.3216	5277.83	67.8914	5277.83	63.4791	5277.83	66.4875	5277.83	60.611	5277.83	60.2814	5277.83	59.7144	5277.83	50.589	5277.83	59.0453	5277.83	53.89	5277.83	59.3482	5277.83	46.8554	5277.83	58.6675	5277.83	44.6255	5277.83	58.5499	5277.83	55.5161	5277.83	60.2975	5277.83	49.8056	5277.83	58.0553	5277.83	50.6634	5277.83	52.3166
5463.87	82.8138	5463.87	82.9405	5463.87	83.7165	5463.87	80.5147	5463.87	81.4404	5463.87	78.0792	5463.87	79.0532	5463.87	75.745	5463.87	76.9809	5463.87	71.8881	5463.87	75.553	5463.87	70.9817	5463.87	65.2073	5463.87	66.9263	5463.87	68.4212	5463.87	65.0634	5463.87	69.4216	5463.87	62.0902	5463.87	67.6467	5463.87	61.0224	5463.87	54.9424	5463.87	58.9251	5463.87	50.6116	5463.87	59.3608	5463.87	56.4842	5463.87	57.2096	5463.87	51.4759	5463.87	58.4804	5463.87	51.2928	5463.87	58.4925	5463.87	56.1248	5463.87	59.5452	5463.87	48.4924	5463.87	58.4017	5463.87	50.2968	5463.87	52.0423
5657.23	82.8954	5657.23	82.3344	5657.23	83.2872	5657.23	80.3472	5657.23	81.4433	5657.23	78.0144	5657.23	79.0147	5657.23	75.331	5657.23	75.4296	5657.23	72.9142	5657.23	75.5523	5657.23	69.7464	5657.23	66.3903	5657.23	66.3794	5657.23	68.513	5657.23	64.8881	5657.23	69.1097	5657.23	63.7695	5657.23	66.4104	5657.23	62.6898	5657.23	60.8396	5657.23	60.5626	5657.23	37.2033	5657.23	59.9116	5657.23	51.3841	5657.23	57.0588	5657.23	46.8764	5657.23	58.926	5657.23	53.0579	5657.23	58.2534	5657.23	54.8336	5657.23	59.8233	5657.23	46.9996	5657.23	58.8295	5657.23	49.481	5657.23	52.2341
5856.45	82.9595	5856.45	81.9126	5856.45	83.5733	5856.45	80.4213	5856.45	80.5791	5856.45	77.9305	5856.45	79.0683	5856.45	75.1585	5856.45	73.1608	5856.45	73.2507	5856.45	75.2877	5856.45	69.2455	5856.45	66.2871	5856.45	68.371	5856.45	66.9048	5856.45	66.0025	5856.45	68.3532	5856.45	63.7086	5856.45	62.85	5856.45	60.9518	5856.45	56.8916	5856.45	61.4331	5856.45	45.5921	5856.45	59.1088	5856.45	53.4739	5856.45	57.9428	5856.45	52.1596	5856.45	60.0299	5856.45	51.8757	5856.45	58.238	5856.45	53.0613	5856.45	60.0826	5856.45	51.5424	5856.45	58.5178	5856.45	47.786	5856.45	54.0158
6062.99	83.2042	6062.99	81.8775	6062.99	83.207	6062.99	80.3647	6062.99	80.3027	6062.99	77.7757	6062.99	78.5059	6062.99	75.3305	6062.99	72.2732	6062.99	72.3806	6062.99	75.9233	6062.99	70.9164	6062.99	66.5729	6062.99	67.3287	6062.99	67.7123	6062.99	65.1448	6062.99	66.212	6062.99	62.3417	6062.99	57.9653	6062.99	60.6507	6062.99	59.8091	6062.99	59.8855	6062.99	47.4992	6062.99	59.5988	6062.99	58.1733	6062.99	57.5531	6062.99	52.8315	6062.99	58.4762	6062.99	46.8582	6062.99	58.6092	6062.99	51.5876	6062.99	59.7678	6062.99	50.9611	6062.99	58.3421	6062.99	48.6291	6062.99	53.3819
6276.86	83.1866	6276.86	81.8209	6276.86	82.9286	6276.86	80.0288	6276.86	80.4164	6276.86	77.6658	6276.86	78.0527	6276.86	74.4176	6276.86	72.0509	6276.86	72.2182	6276.86	76.0636	6276.86	70.5483	6276.86	66.8559	6276.86	67.6662	6276.86	66.8448	6276.86	65.6664	6276.86	66.3222	6276.86	64.8308	6276.86	62.614	6276.86	61.4169	6276.86	50.0129	6276.86	60.4568	6276.86	43.8259	6276.86	58.6905	6276.86	54.5483	6276.86	56.7716	6276.86	49.9715	6276.86	58.4538	6276.86	41.6965	6276.86	57.8287	6276.86	53.494	6276.86	59.2996	6276.86	50.1728	6276.86	57.8706	6276.86	46.8116	6276.86	53.2883
6498.05	83.3281	6498.05	81.9816	6498.05	82.9444	6498.05	79.8306	6498.05	80.2676	6498.05	77.1349	6498.05	77.9078	6498.05	74.0073	6498.05	72.3933	6498.05	72.6728	6498.05	76.0442	6498.05	70.692	6498.05	67.5322	6498.05	67.7006	6498.05	66.6778	6498.05	64.1693	6498.05	66.451	6498.05	60.514	6498.05	64.5192	6498.05	60.04	6498.05	47.7801	6498.05	57.1984	6498.05	47.5536	6498.05	57.2574	6498.05	55.5177	6498.05	56.4994	6498.05	48.0268	6498.05	56.9197	6498.05	44.5444	6498.05	57.5536	6498.05	46.1163	6498.05	59.2178	6498.05	51.1158	6498.05	56.7623	6498.05	44.0555	6498.05	53.4952
6726.56	83.4128	6726.56	82.2243	6726.56	82.7656	6726.56	79.6141	6726.56	80.6437	6726.56	76.6974	6726.56	77.4528	6726.56	74.6774	6726.56	73.5663	6726.56	72.0604	6726.56	75.4788	6726.56	70.4275	6726.56	69.3296	6726.56	66.2073	6726.56	68.6866	6726.56	64.1455	6726.56	67.6494	6726.56	63.423	6726.56	63.59	6726.56	59.1113	6726.56	58.8297	6726.56	55.565	6726.56	56.0364	6726.56	57.5981	6726.56	53.7112	6726.56	56.6111	6726.56	49.508	6726.56	54.2183	6726.56	40.8161	6726.56	53.5199	6726.56	48.6064	6726.56	57.4734	6726.56	48.0537	6726.56	56.424	6726.56	44.4722	6726.56	52.5392
6963.87	83.3492	6963.87	82.17	6963.87	82.6817	6963.87	79.54	6963.87	80.8962	6963.87	77.1216	6963.87	77.3152	6963.87	74.2463	6963.87	74.5782	6963.87	71.9571	6963.87	74.1785	6963.87	70.1184	6963.87	71.0228	6963.87	67.4767	6963.87	66.8749	6963.87	64.0548	6963.87	65.7173	6963.87	61.2587	6963.87	62.1762	6963.87	57.2014	6963.87	62.0113	6963.87	55.6789	6963.87	58.43	6963.87	57.4208	6963.87	51.599	6963.87	56.6702	6963.87	51.2643	6963.87	55.673	6963.87	46.6342	6963.87	53.6727	6963.87	45.1963	6963.87	56.762	6963.87	52.3349	6963.87	54.3368	6963.87	46.4765	6963.87	51.8602
7209.96	83.2872	7209.96	82.1548	7209.96	82.9305	7209.96	80.0867	7209.96	80.7631	7209.96	76.7504	7209.96	77.6255	7209.96	73.8645	7209.96	74.9451	7209.96	72.5494	7209.96	72.4916	7209.96	69.7852	7209.96	71.0859	7209.96	66.6269	7209.96	65.4141	7209.96	62.9649	7209.96	60.8307	7209.96	61.0393	7209.96	60.4927	7209.96	55.3327	7209.96	58.5731	7209.96	54.8558	7209.96	55.0824	7209.96	57.3861	7209.96	52.1599	7209.96	54.2512	7209.96	50.076	7209.96	53.4109	7209.96	41.86	7209.96	51.7936	7209.96	41.2946	7209.96	55.6002	7209.96	48.8375	7209.96	53.7873	7209.96	42.3303	7209.96	49.6287
7464.84	83.6898	7464.84	82.3075	7464.84	82.9496	7464.84	80.1842	7464.84	80.6415	7464.84	77.0607	7464.84	77.7695	7464.84	74.1669	7464.84	75.2127	7464.84	72.3021	7464.84	70.4628	7464.84	69.7142	7464.84	72.0151	7464.84	65.745	7464.84	60.7205	7464.84	61.9104	7464.84	59.7694	7464.84	61.4899	7464.84	60.952	7464.84	55.6764	7464.84	54.4189	7464.84	54.2778	7464.84	52.8889	7464.84	55.8788	7464.84	54.8266	7464.84	55.4648	7464.84	46.707	7464.84	53.5378	7464.84	45.1873	7464.84	50.4689	7464.84	42.5344	7464.84	53.4461	7464.84	51.0305	7464.84	51.6539	7464.84	45.4303	7464.84	50.3448
7727.05	83.4654	7727.05	82.4106	7727.05	82.5922	7727.05	79.7718	7727.05	80.7543	7727.05	77.3492	7727.05	77.7642	7727.05	73.7988	7727.05	75.2954	7727.05	72.6439	7727.05	68.9919	7727.05	68.1071	7727.05	71.8753	7727.05	66.2869	7727.05	55.6203	7727.05	60.9714	7727.05	55.5812	7727.05	58.7223	7727.05	62.34	7727.05	57.2225	7727.05	57.2282	7727.05	55.4945	7727.05	53.3797	7727.05	53.6897	7727.05	49.6623	7727.05	55.3126	7727.05	49.1327	7727.05	51.1315	7727.05	43.1819	7727.05	48.1076	7727.05	38.4288	7727.05	52.0144	7727.05	50.4349	7727.05	49.6225	7727.05	47.4313	7727.05	49.0421
7999.51	83.3613	7999.51	82.3323	7999.51	82.4779	7999.51	80.1063	7999.51	80.7035	7999.51	76.8178	7999.51	77.7421	7999.51	74.462	7999.51	76.0557	7999.51	72.1547	7999.51	67.137	7999.51	68.2512	7999.51	71.5686	7999.51	64.5672	7999.51	39.1557	7999.51	61.6229	7999.51	59.0723	7999.51	57.561	7999.51	61.862	7999.51	58.6744	7999.51	59.1728	7999.51	55.1211	7999.51	55.8944	7999.51	54.1773	7999.51	50.7536	7999.51	53.1073	7999.51	45.51	7999.51	50.4413	7999.51	36.3274	7999.51	49.134	7999.51	46.3067	7999.51	51.1094	7999.51	49.8805	7999.51	47.3372	7999.51	46.2172	7999.51	49.6527
8282.23	83.385	8282.23	82.3164	8282.23	82.4794	8282.23	80.1676	8282.23	80.6254	8282.23	76.5823	8282.23	77.8692	8282.23	74.7038	8282.23	76.0676	8282.23	72.0954	8282.23	67.1751	8282.23	67.6638	8282.23	71.6749	8282.23	65.5757	8282.23	55.5937	8282.23	61.0718	8282.23	61.2584	8282.23	58.0193	8282.23	60.3573	8282.23	57.2083	8282.23	57.3818	8282.23	55.5144	8282.23	54.4927	8282.23	54.0078	8282.23	51.3039	8282.23	53.6152	8282.23	35.9512	8282.23	49.1948	8282.23	42.1112	8282.23	50.5414	8282.23	44.8992	8282.23	48.9742	8282.23	49.3406	8282.23	44.2965	8282.23	43.5709	8282.23	47.5215
8573.73	83.2414	8573.73	82.2668	8573.73	82.184	8573.73	79.6348	8573.73	80.3977	8573.73	77.0856	8573.73	77.8848	8573.73	74.3549	8573.73	76.1659	8573.73	72.2271	8573.73	68.3565	8573.73	67.9032	8573.73	71.3237	8573.73	64.8178	8573.73	56.9464	8573.73	63.0302	8573.73	60.8408	8573.73	59.8356	8573.73	57.5268	8573.73	57.4412	8573.73	59.3173	8573.73	55.5472	8573.73	56.6455	8573.73	55.2705	8573.73	51.0008	8573.73	51.1488	8573.73	49.8542	8573.73	51.7948	8573.73	37.1745	8573.73	51.6763	8573.73	46.5226	8573.73	49.2236	8573.73	48.8814	8573.73	44.2798	8573.73	41.4185	8573.73	47.9996
8876.95	83.1857	8876.95	82.286	8876.95	81.8382	8876.95	79.4215	8876.95	80.2319	8876.95	76.7173	8876.95	77.8337	8876.95	75.2137	8876.95	75.3406	8876.95	71.7831	8876.95	70.0456	8876.95	68.4756	8876.95	69.9992	8876.95	66.6775	8876.95	62.6908	8876.95	63.4092	8876.95	62.7959	8876.95	59.6116	8876.95	57.3092	8876.95	56.7709	8876.95	59.4705	8876.95	55.0331	8876.95	58.6495	8876.95	54.2907	8876.95	51.4327	8876.95	50.3071	8876.95	47.172	8876.95	50.9818	8876.95	36.9526	8876.95	49.8561	8876.95	47.376	8876.95	49.0125	8876.95	48.2621	8876.95	44.1397	8876.95	40.5384	8876.95	48.5706
9188.96	83.1926	9188.96	82.6313	9188.96	81.971	9188.96	79.0668	9188.96	80.2199	9188.96	77.0506	9188.96	77.8778	9188.96	74.237	9188.96	74.5959	9188.96	72.7233	9188.96	71.3065	9188.96	68.9813	9188.96	69.247	9188.96	66.1005	9188.96	66.2821	9188.96	64.3036	9188.96	63.5862	9188.96	60.4549	9188.96	57.9441	9188.96	57.3053	9188.96	59.6871	9188.96	54.6208	9188.96	56.8066	9188.96	52.747	9188.96	43.9944	9188.96	50.3938	9188.96	45.4567	9188.96	49.5349	9188.96	46.695	9188.96	48.7816	9188.96	45.4071	9188.96	49.3704	9188.96	47.1734	9188.96	42.4584	9188.96	40.1364	9188.96	48.002
9514.16	83.5342	9514.16	82.7515	9514.16	82.1128	9514.16	79.5419	9514.16	80.3258	9514.16	76.431	9514.16	77.9469	9514.16	74.6299	9514.16	73.8479	9514.16	72.5841	9514.16	72.694	9514.16	69.1206	9514.16	69.1615	9514.16	67.7394	9514.16	67.8697	9514.16	64.2368	9514.16	63.8576	9514.16	60.877	9514.16	49.6131	9514.16	57.7215	9514.16	57.9366	9514.16	54.4823	9514.16	55.6204	9514.16	52.4763	9514.16	25.609	9514.16	52.7707	9514.16	46.4189	9514.16	49.6625	9514.16	43.1454	9514.16	48.9194	9514.16	44.2618	9514.16	49.8894	9514.16	46.6929	9514.16	40.9498	9514.16	36.8958	9514.16	45.7191
9849.61	83.8811	9849.61	82.6204	9849.61	82.1333	9849.61	79.4013	9849.61	80.4458	9849.61	77.1368	9849.61	78.0371	9849.61	74.177	9849.61	73.8527	9849.61	73.0594	9849.61	72.7108	9849.61	70.6995	9849.61	68.8165	9849.61	67.981	9849.61	69.3162	9849.61	63.9732	9849.61	65.1546	9849.61	61.3884	9849.61	54.3338	9849.61	57.7475	9849.61	58.6845	9849.61	55.3017	9849.61	57.7255	9849.61	54.4812	9849.61	41.4134	9849.61	54.0482	9849.61	51.1819	9849.61	50.6264	9849.61	46.7399	9849.61	50.5967	9849.61	46.1192	9849.61	50.6617	9849.61	46.2974	9849.61	41.5664	9849.61	39.2757	9849.61	45.4039
10196.8	83.9977	10196.8	83.0666	10196.8	82.2632	10196.8	79.5941	10196.8	80.6332	10196.8	77.4204	10196.8	78.3912	10196.8	75.4	10196.8	75.0755	10196.8	74.3227	10196.8	73.5475	10196.8	71.2393	10196.8	68.2608	10196.8	68.0705	10196.8	70.5256	10196.8	63.9324	10196.8	62.6388	10196.8	60.9454	10196.8	45.8836	10196.8	60.0084	10196.8	60.4668	10196.8	54.8644	10196.8	58.0476	10196.8	54.8787	10196.8	39.3449	10196.8	54.5952	10196.8	48.8472	10196.8	51.1574	10196.8	44.4938	10196.8	51.542	10196.8	48.5556	10196.8	51.4213	10196.8	46.3873	10196.8	39.0502	10196.8	29.7493	10196.8	40.8941
10555.7	83.3942	10555.7	82.571	10555.7	81.8685	10555.7	80.2929	10555.7	80.6997	10555.7	78.0274	10555.7	78.711	10555.7	75.6047	10555.7	76.5402	10555.7	75.6201	10555.7	73.795	10555.7	71.5457	10555.7	68.1662	10555.7	67.836	10555.7	70.1971	10555.7	64.1365	10555.7	60.0059	10555.7	59.7751	10555.7	35.0373	10555.7	59.2028	10555.7	60.0283	10555.7	54.6627	10555.7	57.4089	10555.7	55.987	10555.7	43.6193	10555.7	54.6295	10555.7	48.9481	10555.7	52.062	10555.7	42.7342	10555.7	52.4402	10555.7	50.1663	10555.7	53.0664	10555.7	47.1871	10555.7	40.7877	10555.7	37.6891	10555.7	43.5718
10927.7	82.9685	10927.7	82.2799	10927.7	81.4457	10927.7	80.5628	10927.7	80.858	10927.7	78.4197	10927.7	78.99	10927.7	77.1525	10927.7	77.7142	10927.7	75.1909	10927.7	74.8981	10927.7	71.8257	10927.7	68.8984	10927.7	67.7005	10927.7	69.7464	10927.7	64.4282	10927.7	58.1233	10927.7	60.698	10927.7	51.7663	10927.7	59.1034	10927.7	58.2757	10927.7	53.8504	10927.7	52.0417	10927.7	55.9375	10927.7	40.0145	10927.7	54.116	10927.7	44.9612	10927.7	53.0933	10927.7	42.9114	10927.7	53.3154	10927.7	46.9814	10927.7	52.792	10927.7	45.5931	10927.7	41.2368	10927.7	32.2293	10927.7	44.7313
11313	81.5086	11313	81.2218	11313	80.99	11313	80.8713	11313	80.2056	11313	78.437	11313	79.397	11313	77.4272	11313	78.5949	11313	75.8131	11313	75.3647	11313	71.2629	11313	70.6286	11313	67.466	11313	70.901	11313	64.661	11313	55.0672	11313	59.7382	11313	50.4891	11313	59.1686	11313	56.5489	11313	53.0044	11313	46.9778	11313	55.3198	11313	46.0152	11313	53.4362	11313	44.8806	11313	53.3285	11313	40.5315	11313	54.1557	11313	45.7072	11313	52.2577	11313	44.3943	11313	42.5999	11313	29.1679	11313	46.6105
11712.9	80.091	11712.9	80.0079	11712.9	80.2712	11712.9	80.7611	11712.9	80.09	11712.9	79.1413	11712.9	79.8791	11712.9	78.1217	11712.9	78.9913	11712.9	75.4802	11712.9	75.5927	11712.9	71.4052	11712.9	71.3724	11712.9	67.5773	11712.9	69.4343	11712.9	64.0197	11712.9	41.5676	11712.9	59.3094	11712.9	51.977	11712.9	56.2233	11712.9	55.5738	11712.9	52.9526	11712.9	45.1337	11712.9	53.7753	11712.9	26.1826	11712.9	52.4808	11712.9	39.0117	11712.9	52.8941	11712.9	40.6331	11712.9	54.4621	11712.9	46.3757	11712.9	51.8874	11712.9	44.1414	11712.9	41.2643	11712.9	35.5061	11712.9	47.5401
12126	78.1584	12126	79.2808	12126	80.1671	12126	80.9809	12126	80.5784	12126	79.833	12126	80.9328	12126	78.4683	12126	79.1216	12126	75.8221	12126	76.1018	12126	71.1433	12126	70.4068	12126	67.0844	12126	67.858	12126	64.841	12126	50.0635	12126	59.3818	12126	54.2756	12126	55.9629	12126	54.8162	12126	52.3942	12126	42.1376	12126	52.506	12126	42.7772	12126	50.186	12126	26.6453	12126	53.1501	12126	40.5802	12126	53.4737	12126	45.0028	12126	51.3122	12126	42.218	12126	44.2083	12126	37.8565	12126	47.7813
12553.7	77.5832	12553.7	79.9105	12553.7	80.6182	12553.7	81.5023	12553.7	81.5755	12553.7	80.017	12553.7	81.3978	12553.7	78.208	12553.7	78.9563	12553.7	75.4278	12553.7	75.5054	12553.7	70.7465	12553.7	70.7387	12553.7	65.9824	12553.7	66.9555	12553.7	63.4781	12553.7	57.4468	12553.7	58.0044	12553.7	54.5021	12553.7	54.5567	12553.7	52.8823	12553.7	52.8316	12553.7	48.6303	12553.7	50.6777	12553.7	38.3917	12553.7	49.5187	12553.7	38.6239	12553.7	51.8996	12553.7	29.3603	12553.7	52.2112	12553.7	43.3643	12553.7	50.5088	12553.7	39.4029	12553.7	44.9526	12553.7	38.2119	12553.7	48.4389
12996.1	79.3373	12996.1	80.6582	12996.1	81.4997	12996.1	81.9833	12996.1	82.3311	12996.1	80.2913	12996.1	81.8268	12996.1	77.1428	12996.1	78.8818	12996.1	74.2701	12996.1	75.0862	12996.1	69.7604	12996.1	69.2352	12996.1	64.9156	12996.1	64.9835	12996.1	61.3316	12996.1	59.9704	12996.1	57.0095	12996.1	52.6631	12996.1	52.1821	12996.1	53.8349	12996.1	50.2206	12996.1	52.5406	12996.1	47.1428	12996.1	42.858	12996.1	47.9818	12996.1	47.2391	12996.1	49.7377	12996.1	46.4834	12996.1	50.1854	12996.1	39.2202	12996.1	48.2556	12996.1	33.6908	12996.1	46.1799	12996.1	37.9785	12996.1	48.4311
13454.6	80.7819	13454.6	81.6411	13454.6	82.1179	13454.6	81.877	13454.6	82.6281	13454.6	79.6121	13454.6	81.4972	13454.6	75.9498	13454.6	78.5864	13454.6	72.5355	13454.6	74.1605	13454.6	67.3625	13454.6	67.8468	13454.6	62.6152	13454.6	60.8998	13454.6	59.34	13454.6	60.3853	13454.6	53.7788	13454.6	41.818	13454.6	48.9625	13454.6	48.9141	13454.6	47.5933	13454.6	51.4008	13454.6	43.6944	13454.6	40.8844	13454.6	44.0424	13454.6	45.3113	13454.6	46.636	13454.6	46.9883	13454.6	47.7743	13454.6	42.2666	13454.6	45.5395	13454.6	32.1547	13454.6	45.358	13454.6	38.5607	13454.6	45.5941
13929.2	82.2427	13929.2	82.369	13929.2	82.5426	13929.2	82.0032	13929.2	82.7354	13929.2	78.802	13929.2	80.8555	13929.2	74.5875	13929.2	77.8768	13929.2	69.8796	13929.2	73.1153	13929.2	65.4366	13929.2	66.277	13929.2	58.344	13929.2	63.0232	13929.2	54.5867	13929.2	61.6493	13929.2	51.8639	13929.2	44.5482	13929.2	43.8164	13929.2	41.5396	13929.2	44.6033	13929.2	45.3502	13929.2	42.6755	13929.2	39.144	13929.2	39.8345	13929.2	40.8663	13929.2	41.6888	13929.2	44.208	13929.2	43.9373	13929.2	40.2214	13929.2	38.937	13929.2	27.7798	13929.2	42.5627	13929.2	36.2426	13929.2	44.752
14419.9	83.3958	14419.9	83.2129	14419.9	82.6376	14419.9	81.8784	14419.9	82.082	14419.9	77.6463	14419.9	79.77	14419.9	72.1596	14419.9	76.0065	14419.9	67.3165	14419.9	71.6162	14419.9	62.1613	14419.9	65.002	14419.9	52.7747	14419.9	60.8762	14419.9	48.5958	14419.9	60.1054	14419.9	48.0818	14419.9	37.6597	14419.9	40.758	14419.9	39.3524	14419.9	42.9799	14419.9	36.4742	14419.9	36.34	14419.9	32.4316	14419.9	33.4623	14419.9	40.3697	14419.9	38.0417	14419.9	42.3081	14419.9	41.4114	14419.9	36.9176	14419.9	37.7041	14419.9	31.5657	14419.9	40.6995	14419.9	33.9574	14419.9	41.2391
14928.2	84.0782	14928.2	83.8006	14928.2	82.8417	14928.2	81.6113	14928.2	81.1305	14928.2	76.3371	14928.2	78.3299	14928.2	69.9246	14928.2	74.2122	14928.2	64.1913	14928.2	69.9069	14928.2	57.5062	14928.2	63.457	14928.2	51.3029	14928.2	60.3669	14928.2	47.2531	14928.2	57.0432	14928.2	45.8225	14928.2	42.6035	14928.2	39.5723	14928.2	39.5627	14928.2	38.6827	14928.2	32.7929	14928.2	35.3562	14928.2	33.8665	14928.2	33.6552	14928.2	39.2816	14928.2	30.7562	14928.2	40.9967	14928.2	41.0132	14928.2	31.31	14928.2	35.2396	14928.2	23.4368	14928.2	37.9771	14928.2	35.9133	14928.2	39.2507
15455.6	84.4319	15455.6	84.1179	15455.6	82.8649	15455.6	81.335	15455.6	80.2122	15455.6	74.9344	15455.6	77.1008	15455.6	68.3111	15455.6	72.6844	15455.6	62.2321	15455.6	68.5469	15455.6	56.1801	15455.6	62.3794	15455.6	51.4403	15455.6	59.5389	15455.6	46.6774	15455.6	54.3261	15455.6	44.3124	15455.6	41.1736	15455.6	38.03	15455.6	46.8953	15455.6	40.7658	15455.6	46.9924	15455.6	38.3136	15455.6	39.3078	15455.6	35.1614	15455.6	37.6412	15455.6	30.6872	15455.6	32.4592	15455.6	42.6281	15455.6	16.5149	15455.6	32.9205	15455.6	17.8529	15455.6	38.1372	15455.6	25.553	15455.6	34.2125
16000.5	84.7037	16000.5	84.1534	16000.5	82.9342	16000.5	80.9344	16000.5	79.3954	16000.5	73.8455	16000.5	75.6853	16000.5	67.2143	16000.5	71.4587	16000.5	60.2367	16000.5	66.4328	16000.5	57.2374	16000.5	61.3203	16000.5	50.7773	16000.5	57.249	16000.5	43.7952	16000.5	51.6517	16000.5	40.5493	16000.5	40.3387	16000.5	37.4521	16000.5	49.1748	16000.5	35.4976	16000.5	47.6791	16000.5	30.3536	16000.5	40.9191	16000.5	25.6435	16000.5	32.9387	16000.5	32.4032	16000.5	31.9646	16000.5	42.2866	16000.5	12.4459	16000.5	25.2171	16000.5	31.8135	16000.5	37.5274	16000.5	21.3422	16000.5	30.2348
16564.5	85.1655	16564.5	84.2188	16564.5	83.4737	16564.5	80.8099	16564.5	79.2309	16564.5	73.7694	16564.5	74.9014	16564.5	67.6478	16564.5	70.016	16564.5	60.7149	16564.5	63.9171	16564.5	56.7391	16564.5	60.0088	16564.5	51.2652	16564.5	56.251	16564.5	45.6275	16564.5	46.4261	16564.5	42.2795	16564.5	40.8355	16564.5	40.5447	16564.5	51.5614	16564.5	40.5253	16564.5	48.5874	16564.5	30.3809	16564.5	37.8653	16564.5	36.0463	16564.5	28.0994	16564.5	31.375	16564.5	35.5224	16564.5	39.6095	16564.5	28.2924	16564.5	22.9492	16564.5	35.6274	16564.5	37.5933	16564.5	35.0223	16564.5	32.6064
17148.9	85.6098	17148.9	84.2109	17148.9	84.0479	17148.9	80.4365	17148.9	79.143	17148.9	74.0033	17148.9	74.0024	17148.9	68.1043	17148.9	68.8782	17148.9	61.3101	17148.9	62.5167	17148.9	55.7147	17148.9	57.5183	17148.9	51.2129	17148.9	52.3193	17148.9	44.2258	17148.9	47.0708	17148.9	42.7525	17148.9	39.9409	17148.9	38.2709	17148.9	53.3321	17148.9	36.4988	17148.9	54.623	17148.9	28.777	17148.9	36.3146	17148.9	34.294	17148.9	32.2324	17148.9	32.7444	17148.9	32.0364	17148.9	35.1999	17148.9	31.5268	17148.9	13.3505	17148.9	34.8689	17148.9	33.4782	17148.9	34.1897	17148.9	28.2484
17752.4	85.9711	17752.4	84.165	17752.4	84.5781	17752.4	79.8857	17752.4	79.6279	17752.4	73.89	17752.4	73.1485	17752.4	67.8749	17752.4	67.7815	17752.4	61.3604	17752.4	61.095	17752.4	54.1457	17752.4	56.7743	17752.4	48.3432	17752.4	54.6229	17752.4	41.2267	17752.4	47.363	17752.4	38.5685	17752.4	37.8697	17752.4	26.1696	17752.4	53.5186	17752.4	35.129	17752.4	59.1765	17752.4	24.2218	17752.4	44.4737	17752.4	18.0396	17752.4	34.9763	17752.4	29.5133	17752.4	21.3268	17752.4	29.9913	17752.4	27.1029	17752.4	19.8105	17752.4	27.974	17752.4	18.3704	17752.4	29.1352	17752.4	27.7974
18379.4	86.1952	18379.4	84.2118	18379.4	85.0256	18379.4	79.8128	18379.4	80.0536	18379.4	73.2719	18379.4	73.1153	18379.4	67.1825	18379.4	66.6016	18379.4	61.309	18379.4	63.2118	18379.4	54.8641	18379.4	58.3856	18379.4	47.4033	18379.4	53.1071	18379.4	43.1849	18379.4	45.814	18379.4	38.9132	18379.4	38.8132	18379.4	22.1952	18379.4	55.4306	18379.4	33.4078	18379.4	61.99	18379.4	26.1532	18379.4	48.4298	18379.4	30.443	18379.4	35.1584	18379.4	30.3466	18379.4	29.6488	18379.4	33.6294	18379.4	11.994	18379.4	30.3096	18379.4	31.7994	18379.4	37.1332	18379.4	30.6202	18379.4	34.5893
19026.9	86.5944	19026.9	84.6066	19026.9	85.4485	19026.9	80.3176	19026.9	80.3626	19026.9	72.3386	19026.9	72.8718	19026.9	66.3206	19026.9	65.265	19026.9	62.7833	19026.9	65.3189	19026.9	58.7111	19026.9	59.8482	19026.9	53.486	19026.9	51.8359	19026.9	49.5101	19026.9	48.1417	19026.9	44.0629	19026.9	41.0498	19026.9	37.5373	19026.9	57.4033	19026.9	37.4535	19026.9	64.6084	19026.9	34.0635	19026.9	51.0825	19026.9	31.4118	19026.9	38.5605	19026.9	33.4475	19026.9	31.459	19026.9	33.5886	19026.9	28.0833	19026.9	35.8454	19026.9	31.2217	19026.9	39.3728	19026.9	36.66	19026.9	36.3818
19697.8	86.6397	19697.8	84.7767	19697.8	85.8033	19697.8	80.5067	19697.8	80.8064	19697.8	69.6344	19697.8	72.2823	19697.8	65.2633	19697.8	65.4754	19697.8	65.2997	19697.8	65.7367	19697.8	61.7324	19697.8	58.5541	19697.8	57.0929	19697.8	52.647	19697.8	52.6632	19697.8	50.7599	19697.8	47.8326	19697.8	43.0588	19697.8	39.6362	19697.8	58.1821	19697.8	42.0678	19697.8	66.9812	19697.8	38.0718	19697.8	52.8251	19697.8	37.5489	19697.8	39.1397	19697.8	35.6352	19697.8	34.5943	19697.8	34.3214	19697.8	33.6977	19697.8	34.2406	19697.8	31.9968	19697.8	40.7958	19697.8	39.3585	19697.8	33.3485
19999.5	86.5139	19999.5	84.8445	19999.5	85.5578	19999.5	80.2117	19999.5	80.893	19999.5	68.6444	19999.5	73.0792	19999.5	65.3868	19999.5	66.0703	19999.5	65.9657	19999.5	64.8538	19999.5	63.029	19999.5	62.8616	19999.5	58.8718	19999.5	53.864	19999.5	55.2222	19999.5	52.6714	19999.5	44.9485	19999.5	44.0319	19999.5	43.8548	19999.5	57.8697	19999.5	43.6799	19999.5	67.8389	19999.5	39.5199	19999.5	53.4293	19999.5	45.6671	19999.5	48.7551	19999.5	39.335	19999.5	49.4803	19999.5	28.0046	19999.5	45.5262	19999.5	40.8131	19999.5	39.3625	19999.5	42.0046	19999.5	43.1669	19999.5	45.8382
