"SPL Vertical"
"On-Axis"		"10°"		"-10°"		"20°"		"-20°"		"30°"		"-30°"		"40°"		"-40°"		"50°"		"-50°"		"60°"		"-60°"		"70°"		"-70°"		"80°"		"-80°"		"90°"		"-90°"		"100°"		"-100°"		"110°"		"-110°"		"120°"		"-120°"		"130°"		"-130°"		"140°"		"-140°"		"150°"		"-150°"		"160°"		"-160°"		"170°"		"-170°"		"180°"
"Frequency / Hz"	"Sound Pressure Level / dB (re 20 µPa/V)  [2.83  V @ 1. m]"	"Frequency / Hz"	"Sound Pressure Level / dB (re 20 µPa/V)  [2.83  V @ 1. m]"	"Frequency / Hz"	"Sound Pressure Level / dB (re 20 µPa/V)  [2.83  V @ 1. m]"	"Frequency / Hz"	"Sound Pressure Level / dB (re 20 µPa/V)  [2.83  V @ 1. m]"	"Frequency / Hz"	"Sound Pressure Level / dB (re 20 µPa/V)  [2.83  V @ 1. m]"	"Frequency / Hz"	"Sound Pressure Level / dB (re 20 µPa/V)  [2.83  V @ 1. m]"	"Frequency / Hz"	"Sound Pressure Level / dB (re 20 µPa/V)  [2.83  V @ 1. m]"	"Frequency / Hz"	"Sound Pressure Level / dB (re 20 µPa/V)  [2.83  V @ 1. m]"	"Frequency / Hz"	"Sound Pressure Level / dB (re 20 µPa/V)  [2.83  V @ 1. m]"	"Frequency / Hz"	"Sound Pressure Level / dB (re 20 µPa/V)  [2.83  V @ 1. m]"	"Frequency / Hz"	"Sound Pressure Level / dB (re 20 µPa/V)  [2.83  V @ 1. m]"	"Frequency / Hz"	"Sound Pressure Level / dB (re 20 µPa/V)  [2.83  V @ 1. m]"	"Frequency / Hz"	"Sound Pressure Level / dB (re 20 µPa/V)  [2.83  V @ 1. m]"	"Frequency / Hz"	"Sound Pressure Level / dB (re 20 µPa/V)  [2.83  V @ 1. m]"	"Frequency / Hz"	"Sound Pressure Level / dB (re 20 µPa/V)  [2.83  V @ 1. m]"	"Frequency / Hz"	"Sound Pressure Level / dB (re 20 µPa/V)  [2.83  V @ 1. m]"	"Frequency / Hz"	"Sound Pressure Level / dB (re 20 µPa/V)  [2.83  V @ 1. m]"	"Frequency / Hz"	"Sound Pressure Level / dB (re 20 µPa/V)  [2.83  V @ 1. m]"	"Frequency / Hz"	"Sound Pressure Level / dB (re 20 µPa/V)  [2.83  V @ 1. m]"	"Frequency / Hz"	"Sound Pressure Level / dB (re 20 µPa/V)  [2.83  V @ 1. m]"	"Frequency / Hz"	"Sound Pressure Level / dB (re 20 µPa/V)  [2.83  V @ 1. m]"	"Frequency / Hz"	"Sound Pressure Level / dB (re 20 µPa/V)  [2.83  V @ 1. m]"	"Frequency / Hz"	"Sound Pressure Level / dB (re 20 µPa/V)  [2.83  V @ 1. m]"	"Frequency / Hz"	"Sound Pressure Level / dB (re 20 µPa/V)  [2.83  V @ 1. m]"	"Frequency / Hz"	"Sound Pressure Level / dB (re 20 µPa/V)  [2.83  V @ 1. m]"	"Frequency / Hz"	"Sound Pressure Level / dB (re 20 µPa/V)  [2.83  V @ 1. m]"	"Frequency / Hz"	"Sound Pressure Level / dB (re 20 µPa/V)  [2.83  V @ 1. m]"	"Frequency / Hz"	"Sound Pressure Level / dB (re 20 µPa/V)  [2.83  V @ 1. m]"	"Frequency / Hz"	"Sound Pressure Level / dB (re 20 µPa/V)  [2.83  V @ 1. m]"	"Frequency / Hz"	"Sound Pressure Level / dB (re 20 µPa/V)  [2.83  V @ 1. m]"	"Frequency / Hz"	"Sound Pressure Level / dB (re 20 µPa/V)  [2.83  V @ 1. m]"	"Frequency / Hz"	"Sound Pressure Level / dB (re 20 µPa/V)  [2.83  V @ 1. m]"	"Frequency / Hz"	"Sound Pressure Level / dB (re 20 µPa/V)  [2.83  V @ 1. m]"	"Frequency / Hz"	"Sound Pressure Level / dB (re 20 µPa/V)  [2.83  V @ 1. m]"	"Frequency / Hz"	"Sound Pressure Level / dB (re 20 µPa/V)  [2.83  V @ 1. m]"	"Frequency / Hz"	"Sound Pressure Level / dB (re 20 µPa/V)  [2.83  V @ 1. m]"
20.1416	49.1495	20.1416	48.8975	20.1416	49.378	20.1416	48.6475	20.1416	49.5641	20.1416	48.4276	20.1416	49.6984	20.1416	48.2619	20.1416	49.7819	20.1416	48.1634	20.1416	49.8269	20.1416	48.1308	20.1416	49.8552	20.1416	48.1505	20.1416	49.8946	20.1416	48.204	20.1416	49.974	20.1416	48.276	20.1416	50.1158	20.1416	48.3611	20.1416	50.3289	20.1416	48.4674	20.1416	50.6015	20.1416	48.615	20.1416	50.9008	20.1416	48.8295	20.1416	51.1785	20.1416	49.1303	20.1416	51.3823	20.1416	49.5181	20.1416	51.4684	20.1416	49.9687	20.1416	51.4101	20.1416	50.4364	20.1416	51.2028	20.1416	50.8653
20.5078	41.2469	20.5078	40.2691	20.5078	42.12	20.5078	39.2902	20.5078	42.8474	20.5078	38.4851	20.5078	43.4273	20.5078	38.038	20.5078	43.8816	20.5078	38.0102	20.5078	44.2468	20.5078	38.2926	20.5078	44.5668	20.5078	38.7152	20.5078	44.885	20.5078	39.1571	20.5078	45.2351	20.5078	39.5684	20.5078	45.6327	20.5078	39.9486	20.5078	46.0703	20.5078	40.3261	20.5078	46.5166	20.5078	40.7471	20.5078	46.9215	20.5078	41.2661	20.5078	47.2246	20.5078	41.9309	20.5078	47.3663	20.5078	42.7586	20.5078	47.297	20.5078	43.7141	20.5078	46.9858	20.5078	44.7129	20.5078	46.4274	20.5078	45.6488
21.2402	49.5505	21.2402	49.3482	21.2402	49.7463	21.2402	49.1531	21.2402	49.9199	21.2402	48.9742	21.2402	50.0565	21.2402	48.8137	21.2402	50.1443	21.2402	48.6671	21.2402	50.1762	21.2402	48.5239	21.2402	50.1509	21.2402	48.3698	21.2402	50.0719	21.2402	48.1895	21.2402	49.9466	21.2402	47.9696	21.2402	49.7835	21.2402	47.7019	21.2402	49.5896	21.2402	47.3875	21.2402	49.3682	21.2402	47.0399	21.2402	49.1173	21.2402	46.6899	21.2402	48.8289	21.2402	46.387	21.2402	48.4915	21.2402	46.195	21.2402	48.0956	21.2402	46.1744	21.2402	47.6434	21.2402	46.353	21.2402	47.1611	21.2402	46.705
21.9727	48.6967	21.9727	48.4825	21.9727	48.9106	21.9727	48.2782	21.9727	49.1144	21.9727	48.0927	21.9727	49.3005	21.9727	47.9325	21.9727	49.4652	21.9727	47.8005	21.9727	49.6087	21.9727	47.6951	21.9727	49.7349	21.9727	47.611	21.9727	49.8498	21.9727	47.541	21.9727	49.9591	21.9727	47.4799	21.9727	50.0657	21.9727	47.4275	21.9727	50.1682	21.9727	47.3933	21.9727	50.2582	21.9727	47.3968	21.9727	50.3209	21.9727	47.4656	21.9727	50.3361	21.9727	47.6268	21.9727	50.2819	21.9727	47.8951	21.9727	50.1392	21.9727	48.2624	21.9727	49.8971	21.9727	48.6957	21.9727	49.5586	21.9727	49.1449
22.7051	34.7559	22.7051	34.7939	22.7051	34.7264	22.7051	34.8543	22.7051	34.6816	22.7051	34.9355	22.7051	34.5949	22.7051	35.0218	22.7051	34.4418	22.7051	35.0905	22.7051	34.2009	22.7051	35.1222	22.7051	33.8523	22.7051	35.109	22.7051	33.3764	22.7051	35.0583	22.7051	32.7575	22.7051	34.9952	22.7051	31.9959	22.7051	34.9584	22.7051	31.1399	22.7051	34.9871	22.7051	30.3362	22.7051	35.0955	22.7051	29.8518	22.7051	35.2508	22.7051	29.9329	22.7051	35.377	22.7051	30.5612	22.7051	35.384	22.7051	31.4882	22.7051	35.2028	22.7051	32.4785	22.7051	34.8029	22.7051	33.4019	22.7051	34.1918
23.8037	53.8599	23.8037	53.8262	23.8037	53.9279	23.8037	53.8307	23.8037	54.0224	23.8037	53.8714	23.8037	54.1337	23.8037	53.9408	23.8037	54.2518	23.8037	54.0283	23.8037	54.3675	23.8037	54.123	23.8037	54.472	23.8037	54.2163	23.8037	54.5572	23.8037	54.3028	23.8037	54.6167	23.8037	54.3807	23.8037	54.6492	23.8037	54.4513	23.8037	54.6611	23.8037	54.5196	23.8037	54.668	23.8037	54.593	23.8037	54.6914	23.8037	54.6798	23.8037	54.75	23.8037	54.7855	23.8037	54.8486	23.8037	54.9071	23.8037	54.972	23.8037	55.0301	23.8037	55.0891	23.8037	55.1299	23.8037	55.166	23.8037	55.1805
24.5361	46.7689	24.5361	46.8361	24.5361	46.7475	24.5361	46.9489	24.5361	46.7657	24.5361	47.0985	24.5361	46.814	24.5361	47.2701	24.5361	46.8824	24.5361	47.4479	24.5361	46.9602	24.5361	47.6203	24.5361	47.0364	24.5361	47.783	24.5361	47.0997	24.5361	47.9384	24.5361	47.1416	24.5361	48.0929	24.5361	47.1609	24.5361	48.2524	24.5361	47.1694	24.5361	48.4188	24.5361	47.1936	24.5361	48.5881	24.5361	47.2705	24.5361	48.7514	24.5361	47.4328	24.5361	48.8957	24.5361	47.69	24.5361	49.0042	24.5361	48.0179	24.5361	49.0558	24.5361	48.3653	24.5361	49.0278	24.5361	48.6746	24.5361	48.902
25.2686	32.6511	25.2686	31.7522	25.2686	33.5175	25.2686	30.8579	25.2686	34.3266	25.2686	30.0093	25.2686	35.065	25.2686	29.2322	25.2686	35.7286	25.2686	28.5294	25.2686	36.3214	25.2686	27.9209	25.2686	36.8565	25.2686	27.5357	25.2686	37.3535	25.2686	27.6538	25.2686	37.8342	25.2686	28.4948	25.2686	38.3139	25.2686	29.9179	25.2686	38.7927	25.2686	31.5611	25.2686	39.2508	25.2686	33.1503	25.2686	39.6503	25.2686	34.5632	25.2686	39.9449	25.2686	35.7707	25.2686	40.0928	25.2686	36.7874	25.2686	40.0678	25.2686	37.6455	25.2686	39.8651	25.2686	38.3761	25.2686	39.4993	25.2686	38.9957
26.3672	28.3006	26.3672	27.8873	26.3672	29.1926	26.3672	28.0193	26.3672	30.3838	26.3672	28.576	26.3672	31.7034	26.3672	29.3375	26.3672	33.0353	26.3672	30.1166	26.3672	34.3094	26.3672	30.811	26.3672	35.4849	26.3672	31.393	26.3672	36.5382	26.3672	31.8825	26.3672	37.4566	26.3672	32.3201	26.3672	38.2333	26.3672	32.744	26.3672	38.8626	26.3672	33.1732	26.3672	39.337	26.3672	33.6055	26.3672	39.6455	26.3672	34.0333	26.3672	39.7732	26.3672	34.4726	26.3672	39.7027	26.3672	34.9804	26.3672	39.4172	26.3672	35.6295	26.3672	38.9095	26.3672	36.4396	26.3672	38.1965	26.3672	37.3373
27.0996	39.1741	27.0996	39.2952	27.0996	39.1309	27.0996	39.4831	27.0996	39.1757	27.0996	39.7286	27.0996	39.3144	27.0996	40.0235	27.0996	39.5459	27.0996	40.3585	27.0996	39.8613	27.0996	40.7213	27.0996	40.2438	27.0996	41.0967	27.0996	40.6716	27.0996	41.4695	27.0996	41.1211	27.0996	41.8274	27.0996	41.5705	27.0996	42.1621	27.0996	42.0022	27.0996	42.469	27.0996	42.4021	27.0996	42.746	27.0996	42.759	27.0996	42.9917	27.0996	43.064	27.0996	43.2045	27.0996	43.3103	27.0996	43.382	27.0996	43.4937	27.0996	43.5212	27.0996	43.613	27.0996	43.6186	27.0996	43.6701	27.0996	43.6701
28.1982	41.0523	28.1982	41.2242	28.1982	40.891	28.1982	41.3855	28.1982	40.7573	28.1982	41.5137	28.1982	40.6622	28.1982	41.5896	28.1982	40.6118	28.1982	41.6013	28.1982	40.6096	28.1982	41.5462	28.1982	40.6586	28.1982	41.4313	28.1982	40.7625	28.1982	41.2716	28.1982	40.9261	28.1982	41.088	28.1982	41.1539	28.1982	40.9058	28.1982	41.4483	28.1982	40.7537	28.1982	41.8041	28.1982	40.6626	28.1982	42.2018	28.1982	40.6672	28.1982	42.6014	28.1982	40.8057	28.1982	42.9439	28.1982	41.1076	28.1982	43.1612	28.1982	41.5649	28.1982	43.1939	28.1982	42.1089	28.1982	43.0112	28.1982	42.6272
29.2969	34.2775	29.2969	34.2799	29.2969	34.4451	29.2969	34.4915	29.2969	34.7412	29.2969	34.9216	29.2969	35.1351	29.2969	35.5301	29.2969	35.6049	29.2969	36.2341	29.2969	36.1293	29.2969	36.9363	29.2969	36.6825	29.2969	37.5534	29.2969	37.2365	29.2969	38.0335	29.2969	37.767	29.2969	38.3661	29.2969	38.26	29.2969	38.5853	29.2969	38.7153	29.2969	38.7609	29.2969	39.1425	29.2969	38.9675	29.2969	39.5494	29.2969	39.2379	29.2969	39.9274	29.2969	39.5422	29.2969	40.2438	29.2969	39.8203	29.2969	40.4534	29.2969	40.0374	29.2969	40.5273	29.2969	40.2059	29.2969	40.4777	29.2969	40.3545
30.0293	39.5068	30.0293	39.9574	30.0293	39.0319	30.0293	40.3867	30.0293	38.5325	30.0293	40.797	30.0293	38.0203	30.0293	41.1871	30.0293	37.5342	30.0293	41.5492	30.0293	37.1593	30.0293	41.8662	30.0293	37.0273	30.0293	42.1108	30.0293	37.2657	30.0293	42.2507	30.0293	37.9053	30.0293	42.2573	30.0293	38.8457	30.0293	42.1151	30.0293	39.9226	30.0293	41.8317	30.0293	40.9862	30.0293	41.4466	30.0293	41.9259	30.0293	41.04	30.0293	42.6628	30.0293	40.7332	30.0293	43.1392	30.0293	40.6632	30.0293	43.3168	30.0293	40.9172	30.0293	43.1825	30.0293	41.4605	30.0293	42.7624	30.0293	42.139
31.1279	51.5629	31.1279	51.711	31.1279	51.4438	31.1279	51.8818	31.1279	51.358	31.1279	52.0667	31.1279	51.3077	31.1279	52.2563	31.1279	51.2936	31.1279	52.4414	31.1279	51.3157	31.1279	52.6149	31.1279	51.373	31.1279	52.7721	31.1279	51.4632	31.1279	52.9109	31.1279	51.5825	31.1279	53.0309	31.1279	51.7248	31.1279	53.1319	31.1279	51.8826	31.1279	53.2131	31.1279	52.0474	31.1279	53.2722	31.1279	52.2116	31.1279	53.3056	31.1279	52.3695	31.1279	53.3101	31.1279	52.5184	31.1279	53.2835	31.1279	52.6587	31.1279	53.2264	31.1279	52.7921	31.1279	53.1424	31.1279	52.9192	31.1279	53.0378
32.2266	52.2467	32.2266	52.5418	32.2266	51.9986	32.2266	52.8669	32.2266	51.8103	32.2266	53.2032	32.2266	51.6896	32.2266	53.5324	32.2266	51.6381	32.2266	53.8383	32.2266	51.6519	32.2266	54.1087	32.2266	51.7228	32.2266	54.3358	32.2266	51.8401	32.2266	54.5167	32.2266	51.9923	32.2266	54.6526	32.2266	52.1696	32.2266	54.7477	32.2266	52.3646	32.2266	54.8076	32.2266	52.5731	32.2266	54.837	32.2266	52.7939	32.2266	54.8378	32.2266	53.0272	32.2266	54.8075	32.2266	53.2728	32.2266	54.7404	32.2266	53.5285	32.2266	54.63	32.2266	53.788	32.2266	54.4735	32.2266	54.041	32.2266	54.2739
33.3252	54.2416	33.3252	54.4387	33.3252	54.0765	33.3252	54.6606	33.3252	53.9495	33.3252	54.8987	33.3252	53.8649	33.3252	55.144	33.3252	53.8243	33.3252	55.387	33.3252	53.8265	33.3252	55.6175	33.3252	53.8684	33.3252	55.8259	33.3252	53.9453	33.3252	56.0042	33.3252	54.0526	33.3252	56.1472	33.3252	54.1867	33.3252	56.2538	33.3252	54.3451	33.3252	56.3264	33.3252	54.5261	33.3252	56.3699	33.3252	54.7284	33.3252	56.3886	33.3252	54.9488	33.3252	56.3841	33.3252	55.1819	33.3252	56.3534	33.3252	55.4195	33.3252	56.2901	33.3252	55.6504	33.3252	56.188	33.3252	55.8625	33.3252	56.0444
34.79	53	34.79	53.0751	34.79	53.0046	34.79	53.2218	34.79	53.0889	34.79	53.4246	34.79	53.2446	34.79	53.6641	34.79	53.4581	34.79	53.9205	34.79	53.7125	34.79	54.1766	34.79	53.9907	34.79	54.4197	34.79	54.2771	34.79	54.6429	34.79	54.5599	34.79	54.8449	34.79	54.8321	34.79	55.0294	34.79	55.091	34.79	55.203	34.79	55.3368	34.79	55.3731	34.79	55.5701	34.79	55.5452	34.79	55.7876	34.79	55.7204	34.79	55.9811	34.79	55.8933	34.79	56.1376	34.79	56.0524	34.79	56.2427	34.79	56.1814	34.79	56.2858	34.79	56.2635
35.8887	56.552	35.8887	56.9386	35.8887	56.1889	35.8887	57.3316	35.8887	55.8648	35.8887	57.7137	35.8887	55.5927	35.8887	58.0675	35.8887	55.3817	35.8887	58.3765	35.8887	55.2356	35.8887	58.6253	35.8887	55.1532	35.8887	58.8004	35.8887	55.1283	35.8887	58.8917	35.8887	55.1523	35.8887	58.893	35.8887	55.215	35.8887	58.8033	35.8887	55.307	35.8887	58.6271	35.8887	55.4195	35.8887	58.3752	35.8887	55.5447	35.8887	58.0644	35.8887	55.676	35.8887	57.7175	35.8887	55.8096	35.8887	57.3611	35.8887	55.9462	35.8887	57.0217	35.8887	56.0928	35.8887	56.7202	35.8887	56.2617	35.8887	56.4673
36.9873	58.7869	36.9873	59.0659	36.9873	58.5228	36.9873	59.351	36.9873	58.28	36.9873	59.6321	36.9873	58.0631	36.9873	59.898	36.9873	57.8744	36.9873	60.1375	36.9873	57.715	36.9873	60.34	36.9873	57.5849	36.9873	60.4969	36.9873	57.4837	36.9873	60.6013	36.9873	57.4111	36.9873	60.6488	36.9873	57.3675	36.9873	60.6371	36.9873	57.3543	36.9873	60.5658	36.9873	57.3745	36.9873	60.4363	36.9873	57.4322	36.9873	60.2515	36.9873	57.5326	36.9873	60.0161	36.9873	57.6813	36.9873	59.7374	36.9873	57.8818	36.9873	59.4249	36.9873	58.1331	36.9873	59.0916	36.9873	58.4281	36.9873	58.7534
38.4521	62.5339	38.4521	62.7759	38.4521	62.309	38.4521	63.0253	38.4521	62.1094	38.4521	63.2716	38.4521	61.9415	38.4521	63.5038	38.4521	61.8102	38.4521	63.7118	38.4521	61.7183	38.4521	63.8869	38.4521	61.6669	38.4521	64.0227	38.4521	61.6555	38.4521	64.1157	38.4521	61.6823	38.4521	64.165	38.4521	61.7445	38.4521	64.1724	38.4521	61.839	38.4521	64.1415	38.4521	61.9623	38.4521	64.077	38.4521	62.1107	38.4521	63.9842	38.4521	62.2797	38.4521	63.8685	38.4521	62.4644	38.4521	63.734	38.4521	62.6591	38.4521	63.5837	38.4521	62.8575	38.4521	63.4193	38.4521	63.0535	38.4521	63.242
39.917	64.6503	39.917	64.8399	39.917	64.4704	39.917	65.0321	39.917	64.306	39.917	65.2187	39.917	64.1615	39.917	65.3908	39.917	64.0402	39.917	65.5396	39.917	63.9445	39.917	65.6576	39.917	63.876	39.917	65.7391	39.917	63.8357	39.917	65.7811	39.917	63.8239	39.917	65.7838	39.917	63.8402	39.917	65.75	39.917	63.8834	39.917	65.6847	39.917	63.9514	39.917	65.5942	39.917	64.0414	39.917	65.4849	39.917	64.1497	39.917	65.3629	39.917	64.2721	39.917	65.2329	39.917	64.4042	39.917	65.0984	39.917	64.542	39.917	64.9612	39.917	64.6821	39.917	64.8222
41.3818	68.294	41.3818	68.496	41.3818	68.0923	41.3818	68.6915	41.3818	67.896	41.3818	68.872	41.3818	67.7084	41.3818	69.0285	41.3818	67.5319	41.3818	69.1518	41.3818	67.3678	41.3818	69.2333	41.3818	67.2174	41.3818	69.2665	41.3818	67.0822	41.3818	69.2469	41.3818	66.9637	41.3818	69.173	41.3818	66.8641	41.3818	69.0468	41.3818	66.7857	41.3818	68.8736	41.3818	66.7312	41.3818	68.6617	41.3818	66.7033	41.3818	68.422	41.3818	66.7049	41.3818	68.1668	41.3818	66.7385	41.3818	67.9086	41.3818	66.8064	41.3818	67.659	41.3818	66.9098	41.3818	67.4278	41.3818	67.049	41.3818	67.2227
42.8467	70.5125	42.8467	70.7007	42.8467	70.3342	42.8467	70.8934	42.8467	70.1693	42.8467	71.0831	42.8467	70.0193	42.8467	71.261	42.8467	69.8846	42.8467	71.4174	42.8467	69.765	42.8467	71.5429	42.8467	69.6599	42.8467	71.6288	42.8467	69.5696	42.8467	71.6689	42.8467	69.4949	42.8467	71.6594	42.8467	69.4374	42.8467	71.5998	42.8467	69.3996	42.8467	71.4927	42.8467	69.3842	42.8467	71.3437	42.8467	69.3942	42.8467	71.1604	42.8467	69.4323	42.8467	70.9522	42.8467	69.5004	42.8467	70.7293	42.8467	69.5994	42.8467	70.5022	42.8467	69.7293	42.8467	70.2809	42.8467	69.8885	42.8467	70.074
44.3115	72.2338	44.3115	72.4181	44.3115	72.055	44.3115	72.6015	44.3115	71.8864	44.3115	72.7768	44.3115	71.7313	44.3115	72.9358	44.3115	71.5918	44.3115	73.0704	44.3115	71.4691	44.3115	73.173	44.3115	71.3635	44.3115	73.2374	44.3115	71.2754	44.3115	73.2593	44.3115	71.2053	44.3115	73.2369	44.3115	71.1539	44.3115	73.1712	44.3115	71.1221	44.3115	73.0653	44.3115	71.1116	44.3115	72.9245	44.3115	71.1241	44.3115	72.7552	44.3115	71.1615	44.3115	72.5649	44.3115	71.2255	44.3115	72.3615	44.3115	71.3175	44.3115	72.1534	44.3115	71.4379	44.3115	71.9495	44.3115	71.5857	44.3115	71.7579
45.7764	74.1858	45.7764	74.3523	45.7764	74.0207	45.7764	74.5151	45.7764	73.8614	45.7764	74.6675	45.7764	73.711	45.7764	74.8024	45.7764	73.5717	45.7764	74.9124	45.7764	73.4452	45.7764	74.9904	45.7764	73.3328	45.7764	75.0308	45.7764	73.2358	45.7764	75.0296	45.7764	73.1553	45.7764	74.9858	45.7764	73.0928	45.7764	74.9013	45.7764	73.0496	45.7764	74.7804	45.7764	73.0273	45.7764	74.63	45.7764	73.0272	45.7764	74.4578	45.7764	73.0508	45.7764	74.2724	45.7764	73.0993	45.7764	74.0817	45.7764	73.1735	45.7764	73.8929	45.7764	73.2736	45.7764	73.7125	45.7764	73.3986	45.7764	73.5461
47.2412	76.0479	47.2412	76.2101	47.2412	75.8891	47.2412	76.3705	47.2412	75.7375	47.2412	76.5227	47.2412	75.5958	47.2412	76.6591	47.2412	75.4653	47.2412	76.772	47.2412	75.347	47.2412	76.8542	47.2412	75.2413	47.2412	76.8997	47.2412	75.1488	47.2412	76.9044	47.2412	75.0703	47.2412	76.8669	47.2412	75.007	47.2412	76.7885	47.2412	74.9604	47.2412	76.6731	47.2412	74.9327	47.2412	76.5264	47.2412	74.9263	47.2412	76.3559	47.2412	74.9435	47.2412	76.1697	47.2412	74.9867	47.2412	75.9762	47.2412	75.0572	47.2412	75.7835	47.2412	75.1554	47.2412	75.5991	47.2412	75.2804	47.2412	75.4296
49.0723	78.2511	49.0723	78.4059	49.0723	78.0893	49.0723	78.5482	49.0723	77.926	49.0723	78.6721	49.0723	77.7657	49.0723	78.7721	49.0723	77.6127	49.0723	78.8428	49.0723	77.4707	49.0723	78.8803	49.0723	77.3428	49.0723	78.8818	49.0723	77.2314	49.0723	78.8465	49.0723	77.1386	49.0723	78.7757	49.0723	77.0659	49.0723	78.6727	49.0723	77.0143	49.0723	78.5426	49.0723	76.9849	49.0723	78.3921	49.0723	76.9782	49.0723	78.2281	49.0723	76.9947	49.0723	78.0575	49.0723	77.0348	49.0723	77.8864	49.0723	77.0984	49.0723	77.7202	49.0723	77.1847	49.0723	77.5634	49.0723	77.2925	49.0723	77.4197
50.9033	80.3768	50.9033	80.5134	50.9033	80.2308	50.9033	80.6357	50.9033	80.0799	50.9033	80.7383	50.9033	79.9284	50.9033	80.8161	50.9033	79.7798	50.9033	80.8643	50.9033	79.6375	50.9033	80.879	50.9033	79.5046	50.9033	80.8577	50.9033	79.3839	50.9033	80.8	50.9033	79.2778	50.9033	80.7073	50.9033	79.1884	50.9033	80.5834	50.9033	79.1174	50.9033	80.4341	50.9033	79.0659	50.9033	80.2667	50.9033	79.0348	50.9033	80.0895	50.9033	79.0248	50.9033	79.9108	50.9033	79.0364	50.9033	79.7379	50.9033	79.0702	50.9033	79.5772	50.9033	79.1268	50.9033	79.4331	50.9033	79.2064	50.9033	79.3088
52.7344	82.5323	52.7344	82.6638	52.7344	82.392	52.7344	82.782	52.7344	82.2473	52.7344	82.8824	52.7344	82.1024	52.7344	82.9606	52.7344	81.9616	52.7344	83.0128	52.7344	81.8285	52.7344	83.0359	52.7344	81.7067	52.7344	83.0279	52.7344	81.5992	52.7344	82.9881	52.7344	81.5084	52.7344	82.9173	52.7344	81.4361	52.7344	82.8184	52.7344	81.3833	52.7344	82.6954	52.7344	81.3503	52.7344	82.554	52.7344	81.3372	52.7344	82.4006	52.7344	81.3438	52.7344	82.242	52.7344	81.3701	52.7344	82.0849	52.7344	81.4163	52.7344	81.9349	52.7344	81.4825	52.7344	81.7967	52.7344	81.5685	52.7344	81.6738
54.5654	84.1094	54.5654	84.24	54.5654	83.9709	54.5654	84.3582	54.5654	83.829	54.5654	84.4593	54.5654	83.6883	54.5654	84.539	54.5654	83.5531	54.5654	84.5936	54.5654	83.4277	54.5654	84.6202	54.5654	83.3161	54.5654	84.617	54.5654	83.2216	54.5654	84.5841	54.5654	83.1468	54.5654	84.5228	54.5654	83.0933	54.5654	84.4365	54.5654	83.0614	54.5654	84.3298	54.5654	83.0508	54.5654	84.2083	54.5654	83.0602	54.5654	84.0779	54.5654	83.0881	54.5654	83.9444	54.5654	83.1332	54.5654	83.8125	54.5654	83.1941	54.5654	83.6859	54.5654	83.2692	54.5654	83.5668	54.5654	83.3573	54.5654	83.4569
56.3965	85.1451	56.3965	85.2712	56.3965	85.0112	56.3965	85.3846	56.3965	84.8743	56.3965	85.4806	56.3965	84.7392	56.3965	85.5553	56.3965	84.6106	56.3965	85.6048	56.3965	84.4926	56.3965	85.6266	56.3965	84.3889	56.3965	85.6189	56.3965	84.3023	56.3965	85.5819	56.3965	84.2348	56.3965	85.5173	56.3965	84.1876	56.3965	85.4287	56.3965	84.1607	56.3965	85.3212	56.3965	84.1531	56.3965	85.2008	56.3965	84.1637	56.3965	85.0741	56.3965	84.1906	56.3965	84.947	56.3965	84.2319	56.3965	84.8247	56.3965	84.286	56.3965	84.7104	56.3965	84.3513	56.3965	84.606	56.3965	84.4266	56.3965	84.5115
58.2275	85.7982	58.2275	85.9363	58.2275	85.6505	58.2275	86.0597	58.2275	85.4989	58.2275	86.1634	58.2275	85.3489	58.2275	86.243	58.2275	85.2064	58.2275	86.2949	58.2275	85.0767	58.2275	86.3165	58.2275	84.9645	58.2275	86.3066	58.2275	84.8734	58.2275	86.2661	58.2275	84.8059	58.2275	86.1974	58.2275	84.7632	58.2275	86.1051	58.2275	84.7445	58.2275	85.9945	58.2275	84.748	58.2275	85.8717	58.2275	84.7707	58.2275	85.7422	58.2275	84.8088	58.2275	85.6114	58.2275	84.859	58.2275	85.4837	58.2275	84.9189	58.2275	85.3631	58.2275	84.9874	58.2275	85.2524	58.2275	85.0651	58.2275	85.153
60.4248	85.6678	60.4248	85.786	60.4248	85.5328	60.4248	85.8824	60.4248	85.3865	60.4248	85.9526	60.4248	85.2343	60.4248	85.9927	60.4248	85.082	60.4248	85.9999	60.4248	84.935	60.4248	85.973	60.4248	84.7985	60.4248	85.9125	60.4248	84.677	60.4248	85.8214	60.4248	84.5739	60.4248	85.7047	60.4248	84.4918	60.4248	85.5693	60.4248	84.4319	60.4248	85.4233	60.4248	84.3944	60.4248	85.2751	60.4248	84.3781	60.4248	85.1319	60.4248	84.3811	60.4248	84.9991	60.4248	84.4009	60.4248	84.8798	60.4248	84.435	60.4248	84.775	60.4248	84.4812	60.4248	84.6841	60.4248	84.5382	60.4248	84.6055
62.6221	85.3917	62.6221	85.4952	62.6221	85.2709	62.6221	85.5769	62.6221	85.1376	62.6221	85.6331	62.6221	84.997	62.6221	85.6606	62.6221	84.8542	62.6221	85.6573	62.6221	84.7145	62.6221	85.6223	62.6221	84.5823	62.6221	85.556	62.6221	84.4618	62.6221	85.4605	62.6221	84.3556	62.6221	85.3393	62.6221	84.2657	62.6221	85.1981	62.6221	84.1926	62.6221	85.0436	62.6221	84.1363	62.6221	84.8839	62.6221	84.0962	62.6221	84.7271	62.6221	84.0715	62.6221	84.5805	62.6221	84.0618	62.6221	84.4498	62.6221	84.0668	62.6221	84.3382	62.6221	84.0868	62.6221	84.247	62.6221	84.1227	62.6221	84.1756
64.8193	84.7857	64.8193	84.903	64.8193	84.6542	64.8193	85.0013	64.8193	84.5133	64.8193	85.0766	64.8193	84.3686	64.8193	85.1256	64.8193	84.2253	64.8193	85.146	64.8193	84.0888	64.8193	85.1367	64.8193	83.9637	64.8193	85.0977	64.8193	83.8539	64.8193	85.0308	64.8193	83.7618	64.8193	84.9391	64.8193	83.6889	64.8193	84.8271	64.8193	83.6351	64.8193	84.7	64.8193	83.5998	64.8193	84.5637	64.8193	83.5817	64.8193	84.4237	64.8193	83.5802	64.8193	84.2852	64.8193	83.5947	64.8193	84.1524	64.8193	83.6256	64.8193	84.0288	64.8193	83.6734	64.8193	83.9172	64.8193	83.7382	64.8193	83.8198
67.0166	84.5424	67.0166	84.667	67.0166	84.4017	67.0166	84.7703	67.0166	84.2509	67.0166	84.848	67.0166	84.0965	67.0166	84.8968	67.0166	83.9452	67.0166	84.9146	67.0166	83.8036	67.0166	84.9012	67.0166	83.6773	67.0166	84.8577	67.0166	83.5711	67.0166	84.787	67.0166	83.4876	67.0166	84.6938	67.0166	83.4282	67.0166	84.5838	67.0166	83.3921	67.0166	84.4633	67.0166	83.3778	67.0166	84.3384	67.0166	83.3827	67.0166	84.2142	67.0166	83.4043	67.0166	84.0947	67.0166	83.4402	67.0166	83.9822	67.0166	83.4886	67.0166	83.8779	67.0166	83.5479	67.0166	83.7822	67.0166	83.617	67.0166	83.6953
69.2139	84.7196	69.2139	84.8438	69.2139	84.5757	69.2139	84.9431	69.2139	84.4182	69.2139	85.0132	69.2139	84.254	69.2139	85.0513	69.2139	84.0903	69.2139	85.0557	69.2139	83.9343	69.2139	85.0266	69.2139	83.7927	69.2139	84.9659	69.2139	83.6709	69.2139	84.8774	69.2139	83.573	69.2139	84.7664	69.2139	83.5008	69.2139	84.6396	69.2139	83.4544	69.2139	84.5043	69.2139	83.432	69.2139	84.3674	69.2139	83.4309	69.2139	84.2346	69.2139	83.448	69.2139	84.11	69.2139	83.4801	69.2139	83.9959	69.2139	83.5247	69.2139	83.8929	69.2139	83.5798	69.2139	83.8005	69.2139	83.6443	69.2139	83.7178
71.7773	84.9892	71.7773	85.1102	71.7773	84.8476	71.7773	85.2054	71.7773	84.6916	71.7773	85.2707	71.7773	84.5279	71.7773	85.3033	71.7773	84.3639	71.7773	85.3019	71.7773	84.2066	71.7773	85.2666	71.7773	84.0626	71.7773	85.1996	71.7773	83.9372	71.7773	85.1045	71.7773	83.834	71.7773	84.9865	71.7773	83.7547	71.7773	84.8523	71.7773	83.6992	71.7773	84.7087	71.7773	83.6657	71.7773	84.5625	71.7773	83.6518	71.7773	84.4199	71.7773	83.6551	71.7773	84.2856	71.7773	83.6731	71.7773	84.1626	71.7773	83.7046	71.7773	84.0528	71.7773	83.7486	71.7773	83.9568	71.7773	83.8052	71.7773	83.8744
74.3408	85.1866	74.3408	85.3059	74.3408	85.0455	74.3408	85.3982	74.3408	84.8892	74.3408	85.4597	74.3408	84.7249	74.3408	85.4878	74.3408	84.5604	74.3408	85.4818	74.3408	84.4037	74.3408	85.4428	74.3408	84.2619	74.3408	85.3734	74.3408	84.1406	74.3408	85.2781	74.3408	84.0433	74.3408	85.1625	74.3408	83.9715	74.3408	85.0332	74.3408	83.9241	74.3408	84.8967	74.3408	83.8984	74.3408	84.7593	74.3408	83.8911	74.3408	84.6259	74.3408	83.899	74.3408	84.5005	74.3408	83.9197	74.3408	84.3857	74.3408	83.9517	74.3408	84.2827	74.3408	83.9946	74.3408	84.1923	74.3408	84.0487	74.3408	84.1145
76.9043	85.53	76.9043	85.6496	76.9043	85.385	76.9043	85.739	76.9043	85.2212	76.9043	85.7945	76.9043	85.0461	76.9043	85.8146	76.9043	84.8682	76.9043	85.7991	76.9043	84.6961	76.9043	85.7499	76.9043	84.538	76.9043	85.6702	76.9043	84.4003	76.9043	85.5652	76.9043	84.2879	76.9043	85.441	76.9043	84.2028	76.9043	85.3042	76.9043	84.145	76.9043	85.1618	76.9043	84.1124	76.9043	85.0197	76.9043	84.1019	76.9043	84.8827	76.9043	84.11	76.9043	84.7543	76.9043	84.134	76.9043	84.6367	76.9043	84.1714	76.9043	84.5306	76.9043	84.2209	76.9043	84.4362	76.9043	84.2816	76.9043	84.3534
79.834	85.7739	79.834	85.8956	79.834	85.6274	79.834	85.9875	79.834	85.4625	79.834	86.046	79.834	85.2868	79.834	86.0692	79.834	85.1088	79.834	86.0569	79.834	84.9372	79.834	86.0107	79.834	84.7803	79.834	85.9338	79.834	84.6449	79.834	85.8312	79.834	84.5356	79.834	85.709	79.834	84.4545	79.834	85.574	79.834	84.401	79.834	85.433	79.834	84.3724	79.834	85.2919	79.834	84.3651	79.834	85.1553	79.834	84.3754	79.834	85.0266	79.834	84.4004	79.834	84.9079	79.834	84.438	79.834	84.8003	79.834	84.4873	79.834	84.7044	79.834	84.5481	79.834	84.6203
82.3975	85.0508	82.3975	85.1837	82.3975	84.8953	82.3975	85.2885	82.3975	84.7245	82.3975	85.3612	82.3975	84.5466	82.3975	85.3998	82.3975	84.371	82.3975	85.4037	82.3975	84.2069	82.3975	85.3748	82.3975	84.0631	82.3975	85.3165	82.3975	83.9464	82.3975	85.2337	82.3975	83.8614	82.3975	85.1328	82.3975	83.8092	82.3975	85.0203	82.3975	83.7878	82.3975	84.9026	82.3975	83.7929	82.3975	84.7849	82.3975	83.8188	82.3975	84.6708	82.3975	83.8599	82.3975	84.5624	82.3975	83.9117	82.3975	84.4601	82.3975	83.9714	82.3975	84.3638	82.3975	84.0376	82.3975	84.2733	82.3975	84.1101	82.3975	84.1886
85.3271	84.3407	85.3271	84.4415	85.3271	84.2112	85.3271	84.5102	85.3271	84.0586	85.3271	84.545	85.3271	83.8902	85.3271	84.546	85.3271	83.7152	85.3271	84.5148	85.3271	83.5441	85.3271	84.4545	85.3271	83.3874	85.3271	84.3697	85.3271	83.2551	85.3271	84.266	85.3271	83.1545	85.3271	84.1498	85.3271	83.0895	85.3271	84.0279	85.3271	83.0595	85.3271	83.907	85.3271	83.0602	85.3271	83.7927	85.3271	83.0844	85.3271	83.6898	85.3271	83.124	85.3271	83.6005	85.3271	83.1713	85.3271	83.5254	85.3271	83.2206	85.3271	83.4625	85.3271	83.2688	85.3271	83.409	85.3271	83.3151	85.3271	83.361
88.2568	85.0579	88.2568	85.1655	88.2568	84.9243	88.2568	85.2422	88.2568	84.7711	88.2568	85.2849	88.2568	84.6056	88.2568	85.2923	88.2568	84.4355	88.2568	85.265	88.2568	84.2685	88.2568	85.2057	88.2568	84.1116	88.2568	85.1184	88.2568	83.9707	88.2568	85.0084	88.2568	83.8499	88.2568	84.8814	88.2568	83.7517	88.2568	84.7431	88.2568	83.6766	88.2568	84.599	88.2568	83.6244	88.2568	84.4545	88.2568	83.5936	88.2568	84.3141	88.2568	83.583	88.2568	84.1818	88.2568	83.5908	88.2568	84.0608	88.2568	83.6156	88.2568	83.9529	88.2568	83.6558	88.2568	83.8586	88.2568	83.7101	88.2568	83.7778
91.5527	85.9156	91.5527	86.059	91.5527	85.7417	91.5527	86.1632	91.5527	85.5491	91.5527	86.2234	91.5527	85.3518	91.5527	86.2384	91.5527	85.1645	91.5527	86.2108	91.5527	85.0009	91.5527	86.1467	91.5527	84.8717	91.5527	86.0547	91.5527	84.7824	91.5527	85.9449	91.5527	84.7332	91.5527	85.8274	91.5527	84.7189	91.5527	85.7107	91.5527	84.7307	91.5527	85.6005	91.5527	84.7585	91.5527	85.4991	91.5527	84.7935	91.5527	85.4059	91.5527	84.8295	91.5527	85.3194	91.5527	84.8641	91.5527	85.2379	91.5527	84.8982	91.5527	85.1616	91.5527	84.9349	91.5527	85.0916	91.5527	84.978	91.5527	85.03
94.8486	85.716	94.8486	85.8538	94.8486	85.5326	94.8486	85.9411	94.8486	85.3122	94.8486	85.9764	94.8486	85.0665	94.8486	85.9608	94.8486	84.8107	94.8486	85.8979	94.8486	84.5615	94.8486	85.7939	94.8486	84.3361	94.8486	85.6568	94.8486	84.1489	94.8486	85.4965	94.8486	84.0098	94.8486	85.3243	94.8486	83.9221	94.8486	85.1514	94.8486	83.8829	94.8486	84.9878	94.8486	83.8844	94.8486	84.8411	94.8486	83.9161	94.8486	84.7146	94.8486	83.9675	94.8486	84.6081	94.8486	84.0298	94.8486	84.5181	94.8486	84.0968	94.8486	84.4399	94.8486	84.1651	94.8486	84.3686	94.8486	84.2329	94.8486	84.3004
98.1445	85.0785	98.1445	85.2264	98.1445	84.8782	98.1445	85.3182	98.1445	84.6316	98.1445	85.3518	98.1445	84.3479	98.1445	85.3271	98.1445	84.0395	98.1445	85.2451	98.1445	83.7223	98.1445	85.109	98.1445	83.4146	98.1445	84.9241	98.1445	83.1354	98.1445	84.6991	98.1445	82.9022	98.1445	84.4465	98.1445	82.7273	98.1445	84.1825	98.1445	82.6167	98.1445	83.9259	98.1445	82.5684	98.1445	83.6955	98.1445	82.5742	98.1445	83.5052	98.1445	82.6219	98.1445	83.3606	98.1445	82.6977	98.1445	83.2566	98.1445	82.7884	98.1445	83.1801	98.1445	82.8822	98.1445	83.1149	98.1445	82.9702	98.1445	83.0475
101.44	85.2588	101.44	85.4087	101.44	85.0852	101.44	85.5315	101.44	84.8914	101.44	85.6242	101.44	84.6815	101.44	85.6837	101.44	84.4602	101.44	85.7066	101.44	84.2327	101.44	85.6888	101.44	84.0044	101.44	85.6262	101.44	83.7803	101.44	85.514	101.44	83.5649	101.44	85.3484	101.44	83.3619	101.44	85.1276	101.44	83.1742	101.44	84.8535	101.44	83.0046	101.44	84.5334	101.44	82.856	101.44	84.1818	101.44	82.7324	101.44	83.8196	101.44	82.6393	101.44	83.472	101.44	82.5841	101.44	83.1638	101.44	82.5752	101.44	82.9143	101.44	82.6222	101.44	82.7334
105.103	84.4758	105.103	84.6141	105.103	84.3206	105.103	84.7307	105.103	84.1565	105.103	84.8244	105.103	83.9948	105.103	84.8969	105.103	83.8484	105.103	84.9516	105.103	83.7298	105.103	84.9926	105.103	83.6489	105.103	85.023	105.103	83.6105	105.103	85.0436	105.103	83.6133	105.103	85.0525	105.103	83.6505	105.103	85.0453	105.103	83.7116	105.103	85.0164	105.103	83.7852	105.103	84.9618	105.103	83.8615	105.103	84.8804	105.103	83.9343	105.103	84.7755	105.103	84.0017	105.103	84.6549	105.103	84.0663	105.103	84.5291	105.103	84.1336	105.103	84.4087	105.103	84.2102	105.103	84.3013
108.765	84.7943	108.765	84.9008	108.765	84.6422	108.765	84.958	108.765	84.4522	108.765	84.9661	108.765	84.2359	108.765	84.9288	108.765	84.0092	108.765	84.8533	108.765	83.7908	108.765	84.7497	108.765	83.6008	108.765	84.6305	108.765	83.4581	108.765	84.5092	108.765	83.3763	108.765	84.3985	108.765	83.3611	108.765	84.3082	108.765	83.4085	108.765	84.2438	108.765	83.5055	108.765	84.2057	108.765	83.6336	108.765	84.1898	108.765	83.7725	108.765	84.1892	108.765	83.9043	108.765	84.1962	108.765	84.0161	108.765	84.2033	108.765	84.1011	108.765	84.2036	108.765	84.1583	108.765	84.1907
112.793	85.2547	112.793	85.3238	112.793	85.1392	112.793	85.3429	112.793	84.9851	112.793	85.3122	112.793	84.8034	112.793	85.2359	112.793	84.6078	112.793	85.1216	112.793	84.4133	112.793	84.9795	112.793	84.2341	112.793	84.821	112.793	84.0822	112.793	84.6579	112.793	83.9662	112.793	84.5005	112.793	83.8898	112.793	84.3571	112.793	83.852	112.793	84.2335	112.793	83.8477	112.793	84.1333	112.793	83.8682	112.793	84.0583	112.793	83.9024	112.793	84.0083	112.793	83.9393	112.793	83.9812	112.793	83.9696	112.793	83.9729	112.793	83.9874	112.793	83.9772	112.793	83.9918	112.793	83.9861
116.455	84.6527	116.455	84.7264	116.455	84.5305	116.455	84.7474	116.455	84.3683	116.455	84.7157	116.455	84.1784	116.455	84.6352	116.455	83.9761	116.455	84.5133	116.455	83.7775	116.455	84.3599	116.455	83.5978	116.455	84.1864	116.455	83.4489	116.455	84.005	116.455	83.3378	116.455	83.8272	116.455	83.2665	116.455	83.6634	116.455	83.2321	116.455	83.5223	116.455	83.2282	116.455	83.4102	116.455	83.246	116.455	83.3309	116.455	83.2754	116.455	83.2847	116.455	83.3063	116.455	83.2684	116.455	83.3299	116.455	83.275	116.455	83.3403	116.455	83.2951	116.455	83.3357	116.455	83.3184
120.85	84.634	120.85	84.7347	120.85	84.4747	120.85	84.7723	120.85	84.2668	120.85	84.7468	120.85	84.0247	120.85	84.6628	120.85	83.7666	120.85	84.5287	120.85	83.5126	120.85	84.3559	120.85	83.2822	120.85	84.1584	120.85	83.0906	120.85	83.9509	120.85	82.9476	120.85	83.748	120.85	82.8562	120.85	83.5624	120.85	82.8137	120.85	83.4041	120.85	82.8129	120.85	83.279	120.85	82.8438	120.85	83.1892	120.85	82.8947	120.85	83.1324	120.85	82.9532	120.85	83.1032	120.85	83.0083	120.85	83.093	120.85	83.0513	120.85	83.092	120.85	83.0782	120.85	83.0899
124.878	84.431	124.878	84.5214	124.878	84.279	124.878	84.5463	124.878	84.0743	124.878	84.5062	124.878	83.8303	124.878	84.4058	124.878	83.5644	124.878	84.2533	124.878	83.2961	124.878	84.0597	124.878	83.0442	124.878	83.838	124.878	82.8247	124.878	83.6029	124.878	82.6485	124.878	83.3694	124.878	82.5209	124.878	83.1522	124.878	82.4424	124.878	82.9646	124.878	82.4096	124.878	82.817	124.878	82.4157	124.878	82.7146	124.878	82.451	124.878	82.6562	124.878	82.5031	124.878	82.6339	124.878	82.5587	124.878	82.6347	124.878	82.6057	124.878	82.6438	124.878	82.636	124.878	82.6474
129.272	83.9187	129.272	84.0075	129.272	83.7709	129.272	84.0326	129.272	83.5735	129.272	83.994	129.272	83.3405	129.272	83.8956	129.272	83.0893	129.272	83.7456	129.272	82.8391	129.272	83.555	129.272	82.6077	129.272	83.3381	129.272	82.4092	129.272	83.1114	129.272	82.2525	129.272	82.8926	129.272	82.1415	129.272	82.6989	129.272	82.0766	129.272	82.5448	129.272	82.0554	129.272	82.4391	129.272	82.0734	129.272	82.3824	129.272	82.1227	129.272	82.3669	129.272	82.1919	129.272	82.3781	129.272	82.2672	129.272	82.399	129.272	82.3351	129.272	82.4139	129.272	82.385	129.272	82.4112
134.033	83.2891	134.033	83.3921	134.033	83.1258	134.033	83.4293	134.033	82.9127	134.033	83.3999	134.033	82.6654	134.033	83.3074	134.033	82.403	134.033	83.1588	134.033	82.1464	134.033	82.9651	134.033	81.9151	134.033	82.7402	134.033	81.7243	134.033	82.5016	134.033	81.5832	134.033	82.2697	134.033	81.4956	134.033	82.0668	134.033	81.4611	134.033	81.9138	134.033	81.4766	134.033	81.8255	134.033	81.5359	134.033	81.8048	134.033	81.629	134.033	81.8401	134.033	81.7416	134.033	81.9082	134.033	81.8563	134.033	81.9811	134.033	81.9553	134.033	82.034	134.033	82.0233	134.033	82.0504
138.794	82.6332	138.794	82.7548	138.794	82.442	138.794	82.7998	138.794	82.1939	138.794	82.7666	138.794	81.9073	138.794	82.6586	138.794	81.605	138.794	82.4842	138.794	81.3118	138.794	82.2574	138.794	81.0516	138.794	81.9982	138.794	80.8437	138.794	81.734	138.794	80.7017	138.794	81.4982	138.794	80.6336	138.794	81.3263	138.794	80.6429	138.794	81.2474	138.794	80.7281	138.794	81.2723	138.794	80.8817	138.794	81.3873	138.794	81.0875	138.794	81.5572	138.794	81.321	138.794	81.737	138.794	81.5534	138.794	81.8849	138.794	81.7555	138.794	81.9703	138.794	81.9027	138.794	81.9772
143.555	82.2403	143.555	82.4249	143.555	81.9949	143.555	82.5387	143.555	81.7006	143.555	82.5722	143.555	81.3704	143.555	82.5161	143.555	81.0168	143.555	82.359	143.555	80.6501	143.555	82.0878	143.555	80.2776	143.555	81.6902	143.555	79.9078	143.555	81.1612	143.555	79.5578	143.555	80.5189	143.555	79.2635	143.555	79.8307	143.555	79.0849	143.555	79.2416	143.555	79.0901	143.555	78.9556	143.555	79.3172	143.555	79.1079	143.555	79.7384	143.555	79.628	143.555	80.266	143.555	80.2965	143.555	80.7918	143.555	80.9062	143.555	81.2205	143.555	81.3333	143.555	81.4812	143.555	81.5268
148.682	82.5905	148.682	82.649	148.682	82.4666	148.682	82.6395	148.682	82.2941	148.682	82.571	148.682	82.1031	148.682	82.4609	148.682	81.9316	148.682	82.3289	148.682	81.814	148.682	82.1909	148.682	81.7654	148.682	82.0511	148.682	81.7717	148.682	81.8982	148.682	81.7923	148.682	81.7063	148.682	81.7765	148.682	81.4424	148.682	81.6813	148.682	81.0781	148.682	81.4859	148.682	80.6076	148.682	81.1988	148.682	80.0671	148.682	80.8568	148.682	79.5505	148.682	80.512	148.682	79.1897	148.682	80.2051	148.682	79.0783	148.682	79.9409	148.682	79.1952	148.682	79.6907	148.682	79.432
153.809	82.4102	153.809	82.4991	153.809	82.2304	153.809	82.4968	153.809	81.9691	153.809	82.4101	153.809	81.6456	153.809	82.2523	153.809	81.2897	153.809	82.0418	153.809	80.9398	153.809	81.8003	153.809	80.6355	153.809	81.5497	153.809	80.4072	153.809	81.3078	153.809	80.2669	153.809	81.086	153.809	80.2064	153.809	80.888	153.809	80.2054	153.809	80.7132	153.809	80.2422	153.809	80.5619	153.809	80.3	153.809	80.4398	153.809	80.3671	153.809	80.3576	153.809	80.4328	153.809	80.3249	153.809	80.4845	153.809	80.3417	153.809	80.509	153.809	80.3932	153.809	80.4979	153.809	80.4539
159.302	82.3638	159.302	82.4545	159.302	82.175	159.302	82.4473	159.302	81.8964	159.302	82.349	159.302	81.5455	159.302	82.1722	159.302	81.1507	159.302	81.9344	159.302	80.7492	159.302	81.6565	159.302	80.3827	159.302	81.3612	159.302	80.0875	159.302	81.0705	159.302	79.8848	159.302	80.8033	159.302	79.7762	159.302	80.5741	159.302	79.7483	159.302	80.3929	159.302	79.7819	159.302	80.2658	159.302	79.859	159.302	80.1952	159.302	79.9647	159.302	80.1784	159.302	80.0837	159.302	80.2055	159.302	80.1981	159.302	80.2584	159.302	80.2888	159.302	80.3133	159.302	80.3403	159.302	80.3465
164.795	82.198	164.795	82.2806	164.795	82.0142	164.795	82.2621	164.795	81.737	164.795	82.1496	164.795	81.3841	164.795	81.956	164.795	80.9835	164.795	81.6988	164.795	80.5729	164.795	81.3987	164.795	80.1949	164.795	81.0783	164.795	79.8886	164.795	80.7602	164.795	79.6798	164.795	80.4659	164.795	79.5755	164.795	80.2152	164.795	79.566	164.795	80.0264	164.795	79.6316	164.795	79.9136	164.795	79.7503	164.795	79.8828	164.795	79.8994	164.795	79.9272	164.795	80.0561	164.795	80.0258	164.795	80.1967	164.795	80.1475	164.795	80.299	164.795	80.2587	164.795	80.3461	164.795	80.331
170.654	82.0956	170.654	82.1909	170.654	81.8969	170.654	82.1829	170.654	81.6015	170.654	82.0772	170.654	81.2245	170.654	81.8841	170.654	80.7909	170.654	81.618	170.654	80.336	170.654	81.2964	170.654	79.9034	170.654	80.9398	170.654	79.5386	170.654	80.5709	170.654	79.2799	170.654	80.2154	170.654	79.1488	170.654	79.9024	170.654	79.1455	170.654	79.6634	170.654	79.2514	170.654	79.5267	170.654	79.4351	170.654	79.5064	170.654	79.6587	170.654	79.593	170.654	79.8835	170.654	79.7529	170.654	80.0743	170.654	79.9393	170.654	80.2032	170.654	80.1062	170.654	80.2529	170.654	80.218
176.88	81.9181	176.88	82.0063	176.88	81.7338	176.88	81.9962	176.88	81.462	176.88	81.8911	176.88	81.118	176.88	81.6994	176.88	80.7241	176.88	81.4342	176.88	80.3093	176.88	81.1126	176.88	79.9065	176.88	80.7539	176.88	79.5497	176.88	80.3793	176.88	79.2688	176.88	80.0114	176.88	79.0861	176.88	79.6752	176.88	79.0129	176.88	79.399	176.88	79.0464	176.88	79.2114	176.88	79.168	176.88	79.133	176.88	79.3441	176.88	79.1653	176.88	79.5328	176.88	79.2855	176.88	79.6926	176.88	79.4526	176.88	79.7912	176.88	79.6206	176.88	79.8107	176.88	79.7493
183.105	81.555	183.105	81.6629	183.105	81.3471	183.105	81.6678	183.105	81.0514	183.105	81.5747	183.105	80.6895	183.105	81.3963	183.105	80.2919	183.105	81.1512	183.105	79.8946	183.105	80.8626	183.105	79.5344	183.105	80.5552	183.105	79.2421	183.105	80.2526	183.105	79.0379	183.105	79.9753	183.105	78.9306	183.105	79.7397	183.105	78.9196	183.105	79.5591	183.105	78.9958	183.105	79.4441	183.105	79.1412	183.105	79.4001	183.105	79.3275	183.105	79.4242	183.105	79.5197	183.105	79.5027	183.105	79.6831	183.105	79.6115	183.105	79.7911	183.105	79.7211	183.105	79.8302	183.105	79.8021
189.331	81.3959	189.331	81.53	189.331	81.1399	189.331	81.5401	189.331	80.7768	189.331	81.4339	189.331	80.3352	189.331	81.2276	189.331	79.8588	189.331	80.9446	189.331	79.4017	189.331	80.6146	189.331	79.0183	189.331	80.2717	189.331	78.749	189.331	79.9514	189.331	78.6098	189.331	79.686	189.331	78.5937	189.331	79.4981	189.331	78.6805	189.331	79.3967	189.331	78.8473	189.331	79.3774	189.331	79.0698	189.331	79.426	189.331	79.3205	189.331	79.5238	189.331	79.5675	189.331	79.6508	189.331	79.7775	189.331	79.7855	189.331	79.9234	189.331	79.9035	189.331	79.9907	189.331	79.9794
196.289	81.309	196.289	81.4516	196.289	81.0285	196.289	81.4576	196.289	80.6224	196.289	81.3389	196.289	80.1198	196.289	81.116	196.289	79.5694	196.289	80.8167	196.289	79.038	196.289	80.4737	196.289	78.599	196.289	80.1223	196.289	78.3116	196.289	79.7969	196.289	78.2004	196.289	79.5272	196.289	78.2526	196.289	79.335	196.289	78.4319	196.289	79.2315	196.289	78.6959	196.289	79.2149	196.289	79.0038	196.289	79.2715	196.289	79.3163	196.289	79.3807	196.289	79.5956	196.289	79.5207	196.289	79.8093	196.289	79.6717	196.289	79.9359	196.289	79.8133	196.289	79.9698	196.289	79.9215
202.881	81.52	202.881	81.668	202.881	81.1982	202.881	81.6475	202.881	80.71	202.881	81.4733	202.881	80.0825	202.881	81.1686	202.881	79.3713	202.881	80.7666	202.881	78.6673	202.881	80.3123	202.881	78.087	202.881	79.8645	202.881	77.7327	202.881	79.4907	202.881	77.6411	202.881	79.2514	202.881	77.7693	202.881	79.1768	202.881	78.0355	202.881	79.2504	202.881	78.3655	202.881	79.4172	202.881	78.7097	202.881	79.6101	202.881	79.037	202.881	79.7753	202.881	79.3252	202.881	79.8854	202.881	79.5582	202.881	79.9372	202.881	79.7292	202.881	79.9419	202.881	79.8425	202.881	79.9101
210.205	82.3362	210.205	82.4185	210.205	82.0819	210.205	82.3389	210.205	81.6525	210.205	82.1116	210.205	81.0553	210.205	81.7543	210.205	80.3146	210.205	81.287	210.205	79.4825	210.205	80.7336	210.205	78.6496	210.205	80.125	210.205	77.9445	210.205	79.5066	210.205	77.4985	210.205	78.9459	210.205	77.3773	210.205	78.5308	210.205	77.5416	210.205	78.3401	210.205	77.8847	210.205	78.3946	210.205	78.299	210.205	78.6343	210.205	78.7091	210.205	78.9551	210.205	79.0709	210.205	79.2636	210.205	79.3612	210.205	79.5046	210.205	79.5684	210.205	79.657	210.205	79.6876	210.205	79.7175
217.529	82.0692	217.529	82.1452	217.529	81.8351	217.529	82.071	217.529	81.4448	217.529	81.8615	217.529	80.9128	217.529	81.5375	217.529	80.2707	217.529	81.1248	217.529	79.5721	217.529	80.6536	217.529	78.8922	217.529	80.1585	217.529	78.3185	217.529	79.6782	217.529	77.9266	217.529	79.2544	217.529	77.7528	217.529	78.9277	217.529	77.7837	217.529	78.728	217.529	77.9702	217.529	78.6625	217.529	78.2497	217.529	78.7096	217.529	78.5618	217.529	78.8285	217.529	78.8549	217.529	78.9758	217.529	79.0905	217.529	79.1186	217.529	79.246	217.529	79.2346	217.529	79.3153	217.529	79.3061
225.22	81.9828	225.22	82.0661	225.22	81.714	225.22	81.975	225.22	81.2605	225.22	81.7288	225.22	80.6409	225.22	81.3537	225.22	79.8995	225.22	80.882	225.22	79.1164	225.22	80.351	225.22	78.4078	225.22	79.8044	225.22	77.8998	225.22	79.2928	225.22	77.6738	225.22	78.8738	225.22	77.7247	225.22	78.6048	225.22	77.978	225.22	78.5232	225.22	78.341	225.22	78.6225	225.22	78.738	225.22	78.8492	225.22	79.1159	225.22	79.1287	225.22	79.4388	225.22	79.398	225.22	79.6836	225.22	79.6213	225.22	79.8383	225.22	79.7843	225.22	79.9016	225.22	79.8803
233.276	82.5223	233.276	82.5882	233.276	82.2532	233.276	82.4651	233.276	81.777	233.276	82.1748	233.276	81.1059	233.276	81.7449	233.276	80.278	233.276	81.2084	233.276	79.3712	233.276	80.6028	233.276	78.5108	233.276	79.9693	233.276	77.849	233.276	79.3533	233.276	77.4977	233.276	78.8056	233.276	77.4651	233.276	78.3837	233.276	77.67	233.276	78.142	233.276	78.0116	233.276	78.107	233.276	78.412	233.276	78.2548	233.276	78.8152	233.276	78.519	233.276	79.175	233.276	78.8263	233.276	79.4502	233.276	79.1232	233.276	79.6106	233.276	79.3761	233.276	79.6441	233.276	79.5586
241.333	82.3019	241.333	82.3041	241.333	82.0978	241.333	82.1271	241.333	81.6773	241.333	81.7991	241.333	81.039	241.333	81.3528	241.333	80.2047	241.333	80.8251	241.333	79.237	241.333	80.2567	241.333	78.2606	241.333	79.6902	241.333	77.4615	241.333	79.1673	241.333	77.016	241.333	78.7258	241.333	76.9721	241.333	78.3974	241.333	77.2259	241.333	78.2065	241.333	77.6254	241.333	78.1618	241.333	78.058	241.333	78.246	241.333	78.4601	241.333	78.4169	241.333	78.7953	241.333	78.6245	241.333	79.039	241.333	78.8303	241.333	79.1763	241.333	79.0097	241.333	79.2062	241.333	79.1428
250.122	82.4438	250.122	82.4284	250.122	82.257	250.122	82.2282	250.122	81.8574	250.122	81.8663	250.122	81.2447	250.122	81.3727	250.122	80.4381	250.122	80.7862	250.122	79.4916	250.122	80.1575	250.122	78.516	250.122	79.5488	250.122	77.6877	250.122	79.0274	250.122	77.1993	250.122	78.6523	250.122	77.1417	250.122	78.4584	250.122	77.4405	250.122	78.4479	250.122	77.9344	250.122	78.5902	250.122	78.4807	250.122	78.8312	250.122	78.9879	250.122	79.1087	250.122	79.4047	250.122	79.373	250.122	79.704	250.122	79.5969	250.122	79.877	250.122	79.771	250.122	79.9314	250.122	79.8881
258.911	83.0149	258.911	82.9838	258.911	82.8208	258.911	82.7454	258.911	82.3898	258.911	82.3212	258.911	81.722	258.911	81.736	258.911	80.8395	258.911	81.0202	258.911	79.804	258.911	80.2161	258.911	78.7397	258.911	79.3868	258.911	77.8411	258.911	78.6215	258.911	77.3146	258.911	78.0292	258.911	77.252	258.911	77.7086	258.911	77.5743	258.911	77.7039	258.911	78.12	258.911	77.9787	258.911	78.745	258.911	78.4345	258.911	79.3476	258.911	78.9569	258.911	79.8582	258.911	79.4552	258.911	80.2319	258.911	79.8771	258.911	80.4467	258.911	80.2004	258.911	80.5023	258.911	80.4137
268.066	83.4295	268.066	83.4373	268.066	83.2066	268.066	83.2459	268.066	82.7553	268.066	82.8722	268.066	82.0696	268.066	82.3334	268.066	81.1593	268.066	81.6487	268.066	80.0679	268.066	80.842	268.066	78.9002	268.066	79.95	268.066	77.8474	268.066	79.0331	268.066	77.152	268.066	78.1907	268.066	76.9638	268.066	77.5625	268.066	77.2257	268.066	77.2864	268.066	77.7559	268.066	77.4106	268.066	78.3883	268.066	77.8471	268.066	79.0127	268.066	78.4332	268.066	79.5552	268.066	79.0247	268.066	79.964	268.066	79.5349	268.066	80.2076	268.066	79.9248	268.066	80.276	268.066	80.1767
277.222	82.9518	277.222	82.969	277.222	82.7315	277.222	82.8068	277.222	82.2931	277.222	82.4926	277.222	81.6345	277.222	82.0535	277.222	80.7717	277.222	81.5126	277.222	79.7452	277.222	80.8875	277.222	78.631	277.222	80.1912	277.222	77.5525	277.222	79.4402	277.222	76.6832	277.222	78.6746	277.222	76.21	277.222	77.9878	277.222	76.2418	277.222	77.5348	277.222	76.7272	277.222	77.4555	277.222	77.481	277.222	77.7442	277.222	78.2921	277.222	78.2438	277.222	79.0028	277.222	78.7801	277.222	79.5261	277.222	79.2498	277.222	79.8326	277.222	79.6118	277.222	79.9303	277.222	79.8465
287.109	82.1106	287.109	82.2129	287.109	81.7922	287.109	82.11	287.109	81.2538	287.109	81.8223	287.109	80.5012	287.109	81.3836	287.109	79.5599	287.109	80.8425	287.109	78.4955	287.109	80.255	287.109	77.4382	287.109	79.6679	287.109	76.5786	287.109	79.1023	287.109	76.0805	287.109	78.5565	287.109	75.9639	287.109	78.0401	287.109	76.1218	287.109	77.6171	287.109	76.4495	287.109	77.4047	287.109	76.9029	287.109	77.4852	287.109	77.4529	287.109	77.8096	287.109	78.0328	287.109	78.2336	287.109	78.5459	287.109	78.6275	287.109	78.9103	287.109	78.9219	287.109	79.0885	287.109	79.0843
297.363	82.1698	297.363	82.2515	297.363	81.8248	297.363	82.0863	297.363	81.2108	297.363	81.7001	297.363	80.3378	297.363	81.1282	297.363	79.2424	297.363	80.4172	297.363	78.0077	297.363	79.6285	297.363	76.785	297.363	78.8395	297.363	75.788	297.363	78.1352	297.363	75.2191	297.363	77.5896	297.363	75.163	297.363	77.2522	297.363	75.5628	297.363	77.1503	297.363	76.2827	297.363	77.2903	297.363	77.1643	297.363	77.639	297.363	78.0573	297.363	78.1193	297.363	78.841	297.363	78.6418	297.363	79.4354	297.363	79.1359	297.363	79.7997	297.363	79.5483	297.363	79.9247	297.363	79.828
307.617	83.2907	307.617	83.2623	307.617	83.062	307.617	83.0138	307.617	82.537	307.617	82.5782	307.617	81.6799	307.617	81.9866	307.617	80.4723	307.617	81.2738	307.617	78.951	307.617	80.4828	307.617	77.2993	307.617	79.6638	307.617	75.9607	307.617	78.8653	307.617	75.4577	307.617	78.1296	307.617	75.794	307.617	77.5152	307.617	76.5246	307.617	77.1395	307.617	77.3464	307.617	77.1554	307.617	78.1825	307.617	77.5974	307.617	79.0065	307.617	78.2968	307.617	79.7461	307.617	79.0285	307.617	80.305	307.617	79.6608	307.617	80.6176	307.617	80.156	307.617	80.6727	307.617	80.5032
318.604	83.0902	318.604	82.9705	318.604	82.9747	318.604	82.6454	318.604	82.5857	318.604	82.1385	318.604	81.88	318.604	81.4729	318.604	80.8163	318.604	80.6805	318.604	79.377	318.604	79.8116	318.604	77.632	318.604	78.9365	318.604	75.8998	318.604	78.1351	318.604	74.8787	318.604	77.4774	318.604	75.0581	318.604	77.0238	318.604	76.0011	318.604	76.8518	318.604	77.0961	318.604	77.0399	318.604	78.1043	318.604	77.5632	318.604	78.9857	318.604	78.2534	318.604	79.7151	318.604	78.9236	318.604	80.2372	318.604	79.4845	318.604	80.5009	318.604	79.9368	318.604	80.5015	318.604	80.2892
329.956	83.9518	329.956	83.7704	329.956	83.893	329.956	83.384	329.956	83.5465	329.956	82.817	329.956	82.8563	329.956	82.0877	329.956	81.7638	329.956	81.2143	329.956	80.2205	329.956	80.2205	329.956	78.2276	329.956	79.1382	329.956	75.9733	329.956	78.0123	329.956	74.1534	329.956	76.9118	329.956	73.8027	329.956	75.969	329.956	74.8077	329.956	75.442	329.956	76.2396	329.956	75.6426	329.956	77.6346	329.956	76.5805	329.956	78.8711	329.956	77.863	329.956	79.8928	329.956	79.0884	329.956	80.6492	329.956	80.0632	329.956	81.1088	329.956	80.7447	329.956	81.2689	329.956	81.1441
341.675	83.3628	341.675	83.213	341.675	83.3252	341.675	82.8865	341.675	83.0664	341.675	82.3822	341.675	82.528	341.675	81.7039	341.675	81.6355	341.675	80.8718	341.675	80.3103	341.675	79.9261	341.675	78.4951	341.675	78.9199	341.675	76.2379	341.675	77.9044	341.675	73.9709	341.675	76.9138	341.675	72.8138	341.675	75.9842	341.675	73.3376	341.675	75.2414	341.675	74.6123	341.675	74.9776	341.675	75.9381	341.675	75.4205	341.675	77.1728	341.675	76.3642	341.675	78.2666	341.675	77.3938	341.675	79.1123	341.675	78.2779	341.675	79.605	341.675	78.973	341.675	79.7092	341.675	79.4701
353.394	83.6391	353.394	83.548	353.394	83.5622	353.394	83.2818	353.394	83.3107	353.394	82.8371	353.394	82.8521	353.394	82.2261	353.394	82.1287	353.394	81.4803	353.394	81.0711	353.394	80.646	353.394	79.62	353.394	79.7765	353.394	77.7678	353.394	78.917	353.394	75.6716	353.394	78.0798	353.394	73.8993	353.394	77.2388	353.394	73.3505	353.394	76.4055	353.394	74.105	353.394	75.7998	353.394	75.3888	353.394	75.8592	353.394	76.6938	353.394	76.6894	353.394	77.8399	353.394	77.8095	353.394	78.7421	353.394	78.7581	353.394	79.3505	353.394	79.3735	353.394	79.653	353.394	79.6614
365.845	83.4505	365.845	83.4008	365.845	83.3217	365.845	83.17	365.845	83.0077	365.845	82.7586	365.845	82.4813	365.845	82.1795	365.845	81.6935	365.845	81.4623	365.845	80.588	365.845	80.6563	365.845	79.1364	365.845	79.8303	365.845	77.4136	365.845	79.0557	365.845	75.7335	365.845	78.3634	365.845	74.6858	365.845	77.7133	365.845	74.6112	365.845	77.0513	365.845	75.1734	365.845	76.4652	365.845	75.9479	365.845	76.2858	365.845	76.7862	365.845	76.7845	365.845	77.652	365.845	77.7268	365.845	78.4687	365.845	78.6522	365.845	79.1213	365.845	79.2944	365.845	79.5114	365.845	79.5794
379.028	83.5434	379.028	83.3783	379.028	83.5151	379.028	83.0355	379.028	83.2643	379.028	82.5252	379.028	82.7442	379.028	81.8581	379.028	81.8913	379.028	81.0524	379.028	80.6361	379.028	80.1416	379.028	78.9323	379.028	79.1842	379.028	76.8476	379.028	78.2607	379.028	74.824	379.028	77.4411	379.028	73.8852	379.028	76.7488	379.028	74.4767	379.028	76.217	379.028	75.7255	379.028	76.0282	379.028	76.9534	379.028	76.4402	379.028	78.0161	379.028	77.3865	379.028	78.9265	379.028	78.4739	379.028	79.6707	379.028	79.3923	379.028	80.192	379.028	80.0336	379.028	80.4367	379.028	80.383
392.212	84.6104	392.212	84.3622	392.212	84.635	392.212	83.9028	392.212	84.4285	392.212	83.2551	392.212	83.9717	392.212	82.449	392.212	83.2182	392.212	81.5154	392.212	82.0912	392.212	80.4893	392.212	80.5004	392.212	79.4292	392.212	78.3887	392.212	78.4292	392.212	75.9146	392.212	77.5716	392.212	74.0237	392.212	76.829	392.212	74.2191	392.212	76.0992	392.212	75.8936	392.212	75.4965	392.212	77.6937	392.212	75.5767	392.212	79.2163	392.212	76.6699	392.212	80.4113	392.212	78.2191	392.212	81.249	392.212	79.623	392.212	81.6936	392.212	80.6844	392.212	81.734	392.212	81.3892
406.128	85.2081	406.128	84.8457	406.128	85.2872	406.128	84.2371	406.128	85.0612	406.128	83.4357	406.128	84.5163	406.128	82.5036	406.128	83.6378	406.128	81.4921	406.128	82.4005	406.128	80.4219	406.128	80.7738	406.128	79.2809	406.128	78.7627	406.128	78.054	406.128	76.5573	406.128	76.7717	406.128	74.8527	406.128	75.5329	406.128	74.6315	406.128	74.5018	406.128	75.739	406.128	74.0019	406.128	77.304	406.128	74.5334	406.128	78.8816	406.128	76.0726	406.128	80.2738	406.128	77.9082	406.128	81.3149	406.128	79.5137	406.128	81.8887	406.128	80.7365	406.128	81.9603	406.128	81.5601
420.41	85.5375	420.41	85.1605	420.41	85.63	420.41	84.5162	420.41	85.4329	420.41	83.6565	420.41	84.9294	420.41	82.6704	420.41	84.0809	420.41	81.6564	420.41	82.8329	420.41	80.685	420.41	81.1277	420.41	79.7775	420.41	78.9309	420.41	78.9015	420.41	76.3796	420.41	77.9533	420.41	74.3598	420.41	76.7312	420.41	74.4608	420.41	74.9523	420.41	76.1045	420.41	72.527	420.41	77.8127	420.41	71.0975	420.41	79.213	420.41	73.2597	420.41	80.346	420.41	76.2964	420.41	81.1987	420.41	78.5775	420.41	81.6654	420.41	80.1359	420.41	81.654	420.41	81.142
435.425	84.573	435.425	84.2353	435.425	84.5977	435.425	83.6427	435.425	84.2928	435.425	82.8789	435.425	83.6682	435.425	82.0161	435.425	82.7236	435.425	81.0837	435.425	81.4203	435.425	80.0774	435.425	79.6803	435.425	79.0203	435.425	77.4105	435.425	78.0333	435.425	74.6514	435.425	77.2908	435.425	72.3519	435.425	76.7793	435.425	72.6625	435.425	76.1494	435.425	74.7354	435.425	74.9398	435.425	76.7287	435.425	73.0858	435.425	78.3245	435.425	72.2904	435.425	79.5834	435.425	74.4305	435.425	80.4818	435.425	77.1169	435.425	80.9292	435.425	79.0515	435.425	80.8611	435.425	80.2531
450.806	84.3399	450.806	83.8544	450.806	84.4805	450.806	83.1055	450.806	84.2488	450.806	82.201	450.806	83.6639	450.806	81.2225	450.806	82.7566	450.806	80.1969	450.806	81.5322	450.806	79.1246	450.806	79.943	450.806	78.0444	450.806	77.8802	450.806	77.0793	450.806	75.2194	450.806	76.391	450.806	72.188	450.806	75.9835	450.806	70.7609	450.806	75.5445	450.806	72.5448	450.806	74.5945	450.806	75.0076	450.806	72.9556	450.806	76.9591	450.806	72.1749	450.806	78.4175	450.806	74.4557	450.806	79.5192	450.806	77.3533	450.806	80.2826	450.806	79.3249	450.806	80.6085	450.806	80.3469
466.553	85.4478	466.553	84.7874	466.553	85.7389	466.553	83.8304	466.553	85.6635	466.553	82.7113	466.553	85.272	466.553	81.5783	466.553	84.5989	466.553	80.5366	466.553	83.6003	466.553	79.623	466.553	82.1358	466.553	78.839	466.553	79.976	466.553	78.2278	466.553	76.8072	466.553	77.8988	466.553	72.5218	466.553	77.8518	466.553	70.3564	466.553	77.7516	466.553	73.3723	466.553	77.0083	466.553	76.4069	466.553	74.9379	466.553	78.5928	466.553	71.005	466.553	80.176	466.553	70.261	466.553	81.2318	466.553	75.2105	466.553	81.7161	466.553	78.6523	466.553	81.5481	466.553	80.6062
483.032	85.6212	483.032	85.0897	483.032	85.7328	483.032	84.2089	483.032	85.4538	483.032	83.1184	483.032	84.8893	483.032	81.9549	483.032	84.1402	483.032	80.7975	483.032	83.213	483.032	79.6742	483.032	81.9906	483.032	78.5934	483.032	80.2642	483.032	77.601	483.032	77.7725	483.032	76.9308	483.032	74.3102	483.032	76.9552	483.032	70.906	483.032	77.5144	483.032	71.7311	483.032	77.7894	483.032	74.8383	483.032	76.9857	483.032	77.4219	483.032	74.5915	483.032	79.3392	483.032	72.1003	483.032	80.6567	483.032	74.824	483.032	81.3461	483.032	78.3565	483.032	81.3218	483.032	80.4233
499.878	84.338	499.878	83.6823	499.878	84.4747	499.878	82.6412	499.878	84.0974	499.878	81.4037	499.878	83.3729	499.878	80.0939	499.878	82.5557	499.878	78.7339	499.878	81.7833	499.878	77.375	499.878	80.9129	499.878	76.2193	499.878	79.5986	499.878	75.4615	499.878	77.4455	499.878	75.0611	499.878	74.0937	499.878	74.9824	499.878	70.0817	499.878	75.421	499.878	70.2076	499.878	76.2253	499.878	73.4308	499.878	76.6419	499.878	76.025	499.878	75.9544	499.878	77.913	499.878	73.891	499.878	79.2017	499.878	72.3158	499.878	79.7598	499.878	74.7873	499.878	79.3573	499.878	77.7372
517.456	86.0403	517.456	85.4098	517.456	86.1994	517.456	84.4261	517.456	85.8823	517.456	83.2473	517.456	85.191	517.456	81.9779	517.456	84.2613	517.456	80.656	517.456	83.1599	517.456	79.307	517.456	81.8276	517.456	77.942	517.456	80.1357	517.456	76.5039	517.456	78.0199	517.456	74.999	517.456	75.6072	517.456	74.0565	517.456	73.3494	517.456	74.5629	517.456	72.291	517.456	75.5935	517.456	73.6951	517.456	75.8652	517.456	76.5783	517.456	75.2691	517.456	79.1673	517.456	75.0522	517.456	80.8706	517.456	76.6161	517.456	81.6455	517.456	78.869	517.456	81.5463	517.456	80.6083
535.767	84.9888	535.767	84.0817	535.767	85.5227	535.767	82.9333	535.767	85.6116	535.767	81.6855	535.767	85.2427	535.767	80.4279	535.767	84.4305	535.767	79.1678	535.767	83.1849	535.767	77.8385	535.767	81.5035	535.767	76.3821	535.767	79.396	535.767	74.9656	535.767	76.9501	535.767	74.0886	535.767	74.508	535.767	73.944	535.767	73.0537	535.767	74.036	535.767	73.7047	535.767	73.9589	535.767	75.7129	535.767	73.5319	535.767	77.7283	535.767	72.2703	535.767	79.2278	535.767	69.0556	535.767	80.0948	535.767	65.8132	535.767	80.21	535.767	72.2448	535.767	79.3055	535.767	76.9208
554.81	85.5205	554.81	84.7124	554.81	85.9928	554.81	83.7356	554.81	86.0502	554.81	82.7219	554.81	85.7282	554.81	81.6635	554.81	85.1121	554.81	80.445	554.81	84.2283	554.81	78.9261	554.81	82.9852	554.81	77.0053	554.81	81.2208	554.81	74.808	554.81	78.7322	554.81	73.2137	554.81	75.1443	554.81	73.5275	554.81	69.7665	554.81	75.1572	554.81	68.5307	554.81	76.7156	554.81	74.5931	554.81	77.4715	554.81	78.5066	554.81	76.9503	554.81	80.6441	554.81	74.6585	554.81	81.5319	554.81	71.1765	554.81	81.4051	554.81	73.3985	554.81	80.2287	554.81	77.6797
574.219	85.2697	574.219	84.7236	574.219	85.5228	574.219	83.934	574.219	85.4531	574.219	82.9698	574.219	85.0576	574.219	81.9077	574.219	84.375	574.219	80.7764	574.219	83.465	574.219	79.4855	574.219	82.3154	574.219	77.8118	574.219	80.7721	574.219	75.5479	574.219	78.5675	574.219	73.1756	574.219	75.4339	574.219	72.7708	574.219	71.5774	574.219	74.412	574.219	69.2256	574.219	76.0792	574.219	71.2818	574.219	77.1193	574.219	74.9111	574.219	77.3251	574.219	77.6179	574.219	76.5227	574.219	78.938	574.219	74.8754	574.219	78.8916	574.219	73.8733	574.219	77.58	574.219	75.3683
594.727	84.9747	594.727	84.2088	594.727	85.4425	594.727	83.3721	594.727	85.454	594.727	82.6104	594.727	84.9301	594.727	81.797	594.727	83.8915	594.727	80.6642	594.727	82.5121	594.727	79.0546	594.727	81.1085	594.727	76.9623	594.727	79.9093	594.727	74.36	594.727	78.7067	594.727	70.7864	594.727	76.8602	594.727	65.343	594.727	73.6621	594.727	66.399	594.727	69.1051	594.727	71.577	594.727	67.8323	594.727	74.2467	594.727	71.5109	594.727	75.3918	594.727	75.1001	594.727	75.4379	594.727	77.6667	594.727	74.4116	594.727	78.9269	594.727	74.1407	594.727	78.6115	594.727	76.5902
615.601	85.6501	615.601	84.6878	615.601	86.2541	615.601	83.7169	615.601	86.2921	615.601	82.8836	615.601	85.7712	615.601	81.9597	615.601	84.8574	615.601	80.7187	615.601	83.7496	615.601	79.1403	615.601	82.5248	615.601	77.2576	615.601	81.0794	615.601	75.0464	615.601	79.1539	615.601	72.3725	615.601	76.2617	615.601	68.6548	615.601	71.482	615.601	65.4854	615.601	66.267	615.601	70.3766	615.601	70.8949	615.601	74.5107	615.601	75.0651	615.601	76.1222	615.601	77.7307	615.601	75.6209	615.601	79.485	615.601	74.0115	615.601	80.2498	615.601	74.7459	615.601	79.7286	615.601	77.7085
637.207	84.7445	637.207	84.1583	637.207	85.261	637.207	83.7415	637.207	85.344	637.207	83.3154	637.207	84.8775	637.207	82.6179	637.207	84.054	637.207	81.6218	637.207	83.1782	637.207	80.3971	637.207	82.3141	637.207	78.8747	637.207	81.1955	637.207	76.8704	637.207	79.4919	637.207	74.3174	637.207	76.886	637.207	71.402	637.207	72.6386	637.207	69.3369	637.207	65.3074	637.207	71.5029	637.207	68.8661	637.207	75.0641	637.207	74.4961	637.207	77.2786	637.207	77.3426	637.207	77.9253	637.207	78.5841	637.207	76.7839	637.207	78.4387	637.207	73.6509	637.207	76.5649	637.207	73.0627
659.912	83.1281	659.912	82.5001	659.912	83.7363	659.912	82.1922	659.912	83.852	659.912	81.9102	659.912	83.3246	659.912	81.2116	659.912	82.3308	659.912	80.0438	659.912	81.2052	659.912	78.6278	659.912	80.2008	659.912	77.0912	659.912	79.3154	659.912	75.1947	659.912	78.2755	659.912	72.3191	659.912	76.621	659.912	67.4191	659.912	73.6725	659.912	61.3075	659.912	67.8949	659.912	68.1348	659.912	49.1649	659.912	73.4663	659.912	67.3365	659.912	76.2753	659.912	73.2585	659.912	77.1332	659.912	76.4146	659.912	76.3612	659.912	77.7411	659.912	75.1921	659.912	77.4174	659.912	75.9223
682.983	83.472	682.983	83.1814	682.983	83.7829	682.983	82.8548	682.983	83.8757	682.983	82.211	682.983	83.5729	682.983	81.1441	682.983	82.8851	682.983	79.789	682.983	81.8888	682.983	78.2641	682.983	80.6572	682.983	76.5835	682.983	79.3016	682.983	74.7616	682.983	78.0322	682.983	72.6216	682.983	76.9237	682.983	69.5095	682.983	75.5184	682.983	63.3724	682.983	73.1261	682.983	53.0842	682.983	69.7221	682.983	69.0787	682.983	67.8812	682.983	74.6169	682.983	70.2475	682.983	77.0228	682.983	73.4437	682.983	77.1488	682.983	75.3358	682.983	75.734	682.983	75.5332	682.983	74.9223
707.153	83.2952	707.153	82.757	707.153	83.8301	707.153	82.2545	707.153	84.1246	707.153	81.6749	707.153	83.9757	707.153	80.9711	707.153	83.3616	707.153	80.2071	707.153	82.3597	707.153	79.4238	707.153	81.0055	707.153	78.4639	707.153	79.203	707.153	76.922	707.153	76.8317	707.153	74.4011	707.153	74.2151	707.153	70.8638	707.153	72.3361	707.153	65.4831	707.153	71.4475	707.153	44.9896	707.153	72.1912	707.153	66.5142	707.153	74.6287	707.153	72.1997	707.153	76.4651	707.153	75.0614	707.153	77.0459	707.153	75.952	707.153	76.8304	707.153	74.5915	707.153	75.5978	707.153	73.5924
732.056	81.6822	732.056	81.0494	732.056	82.5544	732.056	80.9455	732.056	83.0856	732.056	80.8739	732.056	83.0666	732.056	80.4717	732.056	82.535	732.056	79.8666	732.056	81.5901	732.056	79.1161	732.056	80.3446	732.056	78.2047	732.056	78.911	732.056	77.2665	732.056	77.2983	732.056	75.8584	732.056	75.2697	732.056	73.111	732.056	72.4532	732.056	68.4756	732.056	68.3434	732.056	60.2393	732.056	62.9395	732.056	63.3462	732.056	68.4759	732.056	71.1738	732.056	74.103	732.056	74.8654	732.056	76.6757	732.056	76.2548	732.056	77.1823	732.056	76.0347	732.056	76.3963	732.056	75.6082
757.69	83.1222	757.69	82.2918	757.69	84.0192	757.69	81.3871	757.69	84.5653	757.69	80.5001	757.69	84.3139	757.69	80.1844	757.69	83.2983	757.69	80.2482	757.69	81.9249	757.69	79.9263	757.69	80.583	757.69	78.8946	757.69	79.252	757.69	77.0959	757.69	77.766	757.69	74.6811	757.69	75.9626	757.69	72.5942	757.69	73.225	757.69	71.5194	757.69	69.1297	757.69	69.5539	757.69	68.5544	757.69	63.5678	757.69	71.0573	757.69	62.9095	757.69	73.6648	757.69	68.5818	757.69	76.1481	757.69	71.4668	757.69	76.9065	757.69	72.9857	757.69	75.7945	757.69	74.116
784.424	81.7678	784.424	80.9082	784.424	82.3471	784.424	80.0856	784.424	82.8167	784.424	80.0717	784.424	82.9771	784.424	80.5638	784.424	82.4507	784.424	80.5014	784.424	81.2946	784.424	79.3734	784.424	80.0128	784.424	77.423	784.424	78.8383	784.424	75.4544	784.424	77.3754	784.424	73.6045	784.424	75.4746	784.424	71.2564	784.424	73.1536	784.424	67.8571	784.424	68.9349	784.424	61.8739	784.424	65.7587	784.424	48.6194	784.424	72.0178	784.424	65.94	784.424	75.1805	784.424	71.2672	784.424	76.3488	784.424	72.9275	784.424	76.4128	784.424	72.0634	784.424	74.5882	784.424	71.5194
812.256	81.7912	812.256	80.2818	812.256	82.9314	812.256	79.6209	812.256	83.1658	812.256	79.5422	812.256	82.8917	812.256	79.3648	812.256	82.2725	812.256	78.8722	812.256	81.023	812.256	77.7053	812.256	79.4008	812.256	75.5406	812.256	78.623	812.256	72.8354	812.256	78.5397	812.256	71.7111	812.256	77.5349	812.256	73.2937	812.256	75.1673	812.256	74.4414	812.256	71.9167	812.256	73.0867	812.256	65.0233	812.256	67.1904	812.256	66.6606	812.256	56.3352	812.256	74.8235	812.256	69.4014	812.256	77.3205	812.256	71.7163	812.256	76.8326	812.256	71.259	812.256	74.3035	812.256	71.4558
840.82	82.0196	840.82	81.739	840.82	83.4392	840.82	82.3043	840.82	84.3803	840.82	82.221	840.82	84.2124	840.82	81.1102	840.82	83.2302	840.82	79.1018	840.82	81.9382	840.82	76.4268	840.82	80.5611	840.82	73.4458	840.82	79.2896	840.82	71.0706	840.82	78.2079	840.82	70.5634	840.82	76.4516	840.82	70.3455	840.82	73.9292	840.82	69.0524	840.82	72.811	840.82	67.3551	840.82	72.3344	840.82	63.538	840.82	69.7402	840.82	50.093	840.82	70.6976	840.82	64.6367	840.82	74.4072	840.82	71.3981	840.82	75.4498	840.82	74.3553	840.82	75.0463	840.82	74.9579
870.483	83.3574	870.483	83.9886	870.483	83.3992	870.483	84.0177	870.483	83.8223	870.483	83.0309	870.483	83.4015	870.483	81.5111	870.483	82.0566	870.483	80.1678	870.483	80.6239	870.483	79.1462	870.483	79.6562	870.483	77.7908	870.483	78.4362	870.483	75.1954	870.483	76.7926	870.483	70.9671	870.483	75.1651	870.483	67.2395	870.483	72.5378	870.483	66.3316	870.483	68.3367	870.483	66.3507	870.483	71.2106	870.483	65.039	870.483	73.8331	870.483	51.8452	870.483	75.0762	870.483	67.078	870.483	76.9328	870.483	72.9651	870.483	77.4195	870.483	74.0636	870.483	75.9955	870.483	74.1617
901.245	84.5593	901.245	85.525	901.245	83.8429	901.245	85.4347	901.245	84.146	901.245	84.3591	901.245	84.1417	901.245	82.9095	901.245	82.8393	901.245	81.3485	901.245	80.3465	901.245	80.0334	901.245	77.5787	901.245	79.388	901.245	75.2384	901.245	78.8153	901.245	74.3483	901.245	77.1718	901.245	74.6436	901.245	74.5303	901.245	73.7455	901.245	72.1717	901.245	69.7673	901.245	69.9531	901.245	62.8032	901.245	68.5059	901.245	66.0523	901.245	66.3253	901.245	72.6988	901.245	59.7465	901.245	76.7254	901.245	72.4283	901.245	77.992	901.245	75.9266	901.245	77.2035	901.245	76.3969
933.105	83.8948	933.105	84.5775	933.105	84.0686	933.105	85.4039	933.105	84.1275	933.105	85.5597	933.105	83.2378	933.105	84.7978	933.105	81.2796	933.105	83.1314	933.105	78.3998	933.105	81.2461	933.105	75.074	933.105	79.9088	933.105	71.6783	933.105	78.9428	933.105	66.8556	933.105	77.6681	933.105	64.1802	933.105	76.2569	933.105	70.0238	933.105	75.9565	933.105	70.1684	933.105	75.4543	933.105	67.3375	933.105	71.4711	933.105	73.9242	933.105	65.4721	933.105	77.5848	933.105	68.5011	933.105	79.343	933.105	75.1318	933.105	79.6092	933.105	77.7863	933.105	78.045	933.105	77.2349
966.064	81.8113	966.064	82.8675	966.064	81.9433	966.064	83.7485	966.064	82.3728	966.064	83.9194	966.064	81.4296	966.064	83.4631	966.064	79.4742	966.064	82.6195	966.064	77.6866	966.064	81.3413	966.064	76.0343	966.064	79.5926	966.064	73.2472	966.064	78.2938	966.064	70.3379	966.064	77.5903	966.064	71.2829	966.064	76.2537	966.064	71.1059	966.064	74.4877	966.064	67.9524	966.064	75.0963	966.064	56.5728	966.064	75.4206	966.064	68.6486	966.064	71.9974	966.064	76.5086	966.064	45.4356	966.064	80.0714	966.064	73.8511	966.064	81.1427	966.064	77.7696	966.064	80.1779	966.064	78.7223
1,000.12	80.3862	1,000.12	82.2865	1,000.12	79.8832	1,000.12	83.0561	1,000.12	80.817	1,000.12	82.7286	1,000.12	81.412	1,000.12	81.8101	1,000.12	81.5444	1,000.12	80.6994	1,000.12	79.9038	1,000.12	80.1936	1,000.12	77.1656	1,000.12	80.0494	1,000.12	76.6113	1,000.12	79.0382	1,000.12	75.8438	1,000.12	76.8233	1,000.12	71.2618	1,000.12	73.9834	1,000.12	71.5727	1,000.12	74.6918	1,000.12	74.3346	1,000.12	76.6308	1,000.12	72.1541	1,000.12	75.5985	1,000.12	64.956	1,000.12	73.9172	1,000.12	73.1924	1,000.12	67.7224	1,000.12	79.0965	1,000.12	70.7895	1,000.12	80.6237	1,000.12	77.6835	1,000.12	79.4074	1,000.12	78.3833
1,035.28	78.8665	1,035.28	80.6859	1,035.28	77.3119	1,035.28	82.1537	1,035.28	79.0442	1,035.28	82.5044	1,035.28	82.0564	1,035.28	80.5852	1,035.28	83.6917	1,035.28	78.309	1,035.28	83.4412	1,035.28	79.1966	1,035.28	81.5742	1,035.28	80.6564	1,035.28	77.8244	1,035.28	80.0807	1,035.28	72.7317	1,035.28	78.2246	1,035.28	72.2424	1,035.28	77.585	1,035.28	72.5282	1,035.28	77.5538	1,035.28	71.3086	1,035.28	75.3635	1,035.28	69.5758	1,035.28	73.4992	1,035.28	63.0136	1,035.28	74.7661	1,035.28	71.386	1,035.28	71.5267	1,035.28	78.603	1,035.28	63.0437	1,035.28	80.3309	1,035.28	74.2052	1,035.28	78.7213	1,035.28	76.4024
1,071.9	79.6663	1,071.9	82.7192	1,071.9	77.337	1,071.9	83.3809	1,071.9	80.7366	1,071.9	81.564	1,071.9	82.8302	1,071.9	78.5618	1,071.9	82.8369	1,071.9	77.7458	1,071.9	81.5983	1,071.9	76.8072	1,071.9	80.634	1,071.9	74.105	1,071.9	81.1451	1,071.9	72.9939	1,071.9	80.5944	1,071.9	74.7837	1,071.9	75.5965	1,071.9	73.8937	1,071.9	69.6703	1,071.9	70.6133	1,071.9	73.8604	1,071.9	73.5245	1,071.9	71.3192	1,071.9	73.4991	1,071.9	71.682	1,071.9	71.3223	1,071.9	70.8282	1,071.9	73.9621	1,071.9	74.8367	1,071.9	70.1565	1,071.9	79.5029	1,071.9	74.1636	1,071.9	79.1551	1,071.9	77.5351
1,109.62	81.3732	1,109.62	81.3084	1,109.62	78.6685	1,109.62	80.5323	1,109.62	76.8263	1,109.62	79.7359	1,109.62	80.8735	1,109.62	78.4223	1,109.62	83.7254	1,109.62	79.5219	1,109.62	84.3247	1,109.62	80.9017	1,109.62	83.2591	1,109.62	78.8028	1,109.62	79.8843	1,109.62	73.4394	1,109.62	75.5383	1,109.62	72.4741	1,109.62	69.7473	1,109.62	73.4811	1,109.62	55.7822	1,109.62	70.9154	1,109.62	71.2538	1,109.62	76.7339	1,109.62	72.258	1,109.62	77.3127	1,109.62	61.5114	1,109.62	67.4577	1,109.62	72.6612	1,109.62	72.0538	1,109.62	78.2223	1,109.62	71.2374	1,109.62	80.317	1,109.62	72.1853	1,109.62	78.4917	1,109.62	75.7561
1,148.8	80.6203	1,148.8	81.035	1,148.8	79.7112	1,148.8	81.1492	1,148.8	80.3307	1,148.8	79.1287	1,148.8	82.6314	1,148.8	77.6848	1,148.8	84.4173	1,148.8	79.9021	1,148.8	85.2992	1,148.8	78.9319	1,148.8	84.3436	1,148.8	76.4035	1,148.8	82.2338	1,148.8	77.3004	1,148.8	81.4768	1,148.8	77.7425	1,148.8	79.963	1,148.8	78.2297	1,148.8	72.9336	1,148.8	75.4569	1,148.8	69.7815	1,148.8	71.0393	1,148.8	73.7536	1,148.8	75.6937	1,148.8	74.3235	1,148.8	75.1194	1,148.8	75.1066	1,148.8	72.0223	1,148.8	68.0384	1,148.8	67.6211	1,148.8	76.72	1,148.8	73.5137	1,148.8	77.1795	1,148.8	71.6776
1,189.09	82.1555	1,189.09	82.3356	1,189.09	80.0691	1,189.09	80.6768	1,189.09	78.8119	1,189.09	77.9316	1,189.09	83.4797	1,189.09	80.3971	1,189.09	86.7565	1,189.09	81.27	1,189.09	86.8226	1,189.09	76.3714	1,189.09	84.6549	1,189.09	75.9975	1,189.09	81.4459	1,189.09	75.9129	1,189.09	79.343	1,189.09	69.8101	1,189.09	77.9553	1,189.09	69.3228	1,189.09	70.915	1,189.09	73.0397	1,189.09	70.0682	1,189.09	68.1971	1,189.09	74.4281	1,189.09	70.2251	1,189.09	69.2423	1,189.09	71.0571	1,189.09	75.2638	1,189.09	75.8649	1,189.09	78.2728	1,189.09	75.6358	1,189.09	73.2509	1,189.09	73.576	1,189.09	67.038	1,189.09	74.8546
1,231.2	83.3692	1,231.2	82.9852	1,231.2	81.862	1,231.2	79.8308	1,231.2	81.6527	1,231.2	77.4397	1,231.2	83.9546	1,231.2	78.6161	1,231.2	86.2793	1,231.2	78.1129	1,231.2	86.8748	1,231.2	76.9323	1,231.2	85.2095	1,231.2	74.7053	1,231.2	81.9301	1,231.2	73.4731	1,231.2	80.2394	1,231.2	75.5044	1,231.2	79.9495	1,231.2	74.5025	1,231.2	73.4093	1,231.2	64.588	1,231.2	62.4648	1,231.2	67.4485	1,231.2	72.5087	1,231.2	70.089	1,231.2	72.4834	1,231.2	60.8282	1,231.2	74.7383	1,231.2	65.8024	1,231.2	76.9398	1,231.2	67.6549	1,231.2	76.0837	1,231.2	69.5683	1,231.2	72.0257	1,231.2	63.7138
1,274.41	84.1039	1,274.41	82.785	1,274.41	82.5187	1,274.41	78.4452	1,274.41	81.8974	1,274.41	77.9318	1,274.41	83.8611	1,274.41	79.0318	1,274.41	85.5241	1,274.41	77.8925	1,274.41	86.2081	1,274.41	75.0354	1,274.41	85.2548	1,274.41	73.3864	1,274.41	80.5029	1,274.41	71.7504	1,274.41	73.4862	1,274.41	74.1223	1,274.41	75.1434	1,274.41	76.0418	1,274.41	77.4724	1,274.41	72.6472	1,274.41	72.0439	1,274.41	61.3139	1,274.41	70.6879	1,274.41	71.1288	1,274.41	78.5831	1,274.41	71.6416	1,274.41	77.2847	1,274.41	64.5051	1,274.41	74.1525	1,274.41	69.8964	1,274.41	74.5081	1,274.41	73.741	1,274.41	69.567	1,274.41	71.5539
1,319.46	84.3177	1,319.46	81.7868	1,319.46	83.3373	1,319.46	78.3457	1,319.46	81.1142	1,319.46	79.7039	1,319.46	82.775	1,319.46	79.8534	1,319.46	84.7037	1,319.46	77.1061	1,319.46	85.1608	1,319.46	74.5367	1,319.46	83.6147	1,319.46	72.2717	1,319.46	80.7989	1,319.46	62.9278	1,319.46	78.7394	1,319.46	66.1317	1,319.46	77.2122	1,319.46	66.3052	1,319.46	74.9855	1,319.46	69.4258	1,319.46	67.5668	1,319.46	69.018	1,319.46	53.2593	1,319.46	59.5624	1,319.46	70.6867	1,319.46	61.3923	1,319.46	73.5815	1,319.46	70.0141	1,319.46	76.4824	1,319.46	67.3951	1,319.46	74.5952	1,319.46	72.6211	1,319.46	68.9357	1,319.46	73.1574
1,365.97	84.812	1,365.97	82.4077	1,365.97	84.485	1,365.97	80.0674	1,365.97	83.0881	1,365.97	80.6008	1,365.97	82.6734	1,365.97	78.877	1,365.97	85.0067	1,365.97	78.3849	1,365.97	86.0411	1,365.97	75.4952	1,365.97	84.8593	1,365.97	73.7644	1,365.97	82.1895	1,365.97	76.5621	1,365.97	78.0978	1,365.97	76.7693	1,365.97	74.1319	1,365.97	74.067	1,365.97	74.1935	1,365.97	70.9715	1,365.97	70.1148	1,365.97	73.5364	1,365.97	59.6621	1,365.97	62.4361	1,365.97	73.1555	1,365.97	68.0387	1,365.97	77.3536	1,365.97	66.3591	1,365.97	77.1202	1,365.97	65.8015	1,365.97	75.1688	1,365.97	71.9791	1,365.97	73.7716	1,365.97	74.96
1,414.31	83.8263	1,414.31	80.6438	1,414.31	84.4228	1,414.31	80.39	1,414.31	83.7609	1,414.31	81.0373	1,414.31	83.8563	1,414.31	80.6546	1,414.31	85.1558	1,414.31	75.8837	1,414.31	86.4768	1,414.31	75.1572	1,414.31	84.977	1,414.31	79.0148	1,414.31	80.842	1,414.31	77.9005	1,414.31	77.6261	1,414.31	69.1638	1,414.31	74.0356	1,414.31	65.0582	1,414.31	66.0711	1,414.31	72.3406	1,414.31	71.9	1,414.31	69.4357	1,414.31	68.9319	1,414.31	67.8603	1,414.31	66.8558	1,414.31	65.5537	1,414.31	70.8134	1,414.31	68.8932	1,414.31	76.951	1,414.31	66.7324	1,414.31	75.6733	1,414.31	73.4225	1,414.31	73.8073	1,414.31	75.5495
1,464.11	82.7929	1,464.11	81.2657	1,464.11	82.8787	1,464.11	80.5364	1,464.11	82.7701	1,464.11	81.019	1,464.11	84.2111	1,464.11	78.4203	1,464.11	85.3493	1,464.11	77.7706	1,464.11	85.6897	1,464.11	78.1679	1,464.11	85.3019	1,464.11	69.3539	1,464.11	83.0104	1,464.11	62.3928	1,464.11	77.7456	1,464.11	75.3449	1,464.11	75.8735	1,464.11	73.3104	1,464.11	71.4927	1,464.11	58.2178	1,464.11	64.1551	1,464.11	63.7869	1,464.11	63.9813	1,464.11	67.9745	1,464.11	65.5629	1,464.11	59.4476	1,464.11	67.8517	1,464.11	67.8437	1,464.11	71.9698	1,464.11	67.8867	1,464.11	76.7876	1,464.11	73.0652	1,464.11	75.6743	1,464.11	74.5011
1,515.75	81.7587	1,515.75	78.6385	1,515.75	82.5432	1,515.75	80.6349	1,515.75	81.5337	1,515.75	80.5864	1,515.75	82.883	1,515.75	77.9574	1,515.75	85.0876	1,515.75	78.2897	1,515.75	85.3976	1,515.75	75.6723	1,515.75	84.4879	1,515.75	76.611	1,515.75	81.739	1,515.75	75.7486	1,515.75	75.8888	1,515.75	74.4524	1,515.75	72.7549	1,515.75	71.416	1,515.75	74.2133	1,515.75	66.1921	1,515.75	71.4979	1,515.75	70.8097	1,515.75	67.0874	1,515.75	72.1353	1,515.75	70.5299	1,515.75	70.3248	1,515.75	72.7162	1,515.75	63.151	1,515.75	69.6296	1,515.75	67.7819	1,515.75	76.8928	1,515.75	70.0765	1,515.75	75.5866	1,515.75	74.6323
1,569.21	79.3117	1,569.21	77.5917	1,569.21	81.3767	1,569.21	77.5862	1,569.21	82.1432	1,569.21	77.8549	1,569.21	84.1652	1,569.21	75.3223	1,569.21	85.736	1,569.21	77.1576	1,569.21	84.7621	1,569.21	79.5447	1,569.21	83.3869	1,569.21	77.5077	1,569.21	81.9612	1,569.21	73.235	1,569.21	77.4997	1,569.21	70.594	1,569.21	70.1607	1,569.21	71.0997	1,569.21	72.9179	1,569.21	64.4131	1,569.21	69.771	1,569.21	65.8044	1,569.21	64.9238	1,569.21	69.425	1,569.21	70.2786	1,569.21	58.6973	1,569.21	75.1862	1,569.21	64.06	1,569.21	73.3174	1,569.21	62.866	1,569.21	75.9311	1,569.21	70.8859	1,569.21	73.0424	1,569.21	72.6696
1,624.51	80.3223	1,624.51	76.8011	1,624.51	82.762	1,624.51	77.2059	1,624.51	82.4697	1,624.51	74.4804	1,624.51	83.7171	1,624.51	73.9146	1,624.51	86.5829	1,624.51	78.9405	1,624.51	86.7404	1,624.51	78.8828	1,624.51	84.3463	1,624.51	76.9519	1,624.51	80.2058	1,624.51	72.952	1,624.51	77.3756	1,624.51	67.8719	1,624.51	74.1356	1,624.51	64.6252	1,624.51	68.5206	1,624.51	67.3329	1,624.51	66.0884	1,624.51	68.1201	1,624.51	51.3646	1,624.51	71.3511	1,624.51	69.241	1,624.51	65.4258	1,624.51	74.2104	1,624.51	66.7601	1,624.51	73.4549	1,624.51	55.8416	1,624.51	74.766	1,624.51	70.1257	1,624.51	72.719	1,624.51	73.562
1,681.64	81.392	1,681.64	79.318	1,681.64	85.05	1,681.64	77.5519	1,681.64	85.0028	1,681.64	71.25	1,681.64	82.8183	1,681.64	74.9337	1,681.64	85.633	1,681.64	78.3371	1,681.64	86.2623	1,681.64	78.1945	1,681.64	82.9953	1,681.64	77.7845	1,681.64	79.6134	1,681.64	76.9337	1,681.64	77.8835	1,681.64	73.4464	1,681.64	72.4966	1,681.64	69.4003	1,681.64	67.7178	1,681.64	68.5687	1,681.64	71.6748	1,681.64	58.4155	1,681.64	68.9245	1,681.64	68.9515	1,681.64	66.3494	1,681.64	66.0603	1,681.64	73.0582	1,681.64	63.783	1,681.64	69.5099	1,681.64	58.1564	1,681.64	71.726	1,681.64	67.8092	1,681.64	72.9595	1,681.64	70.9634
1,740.97	84.1255	1,740.97	82.2418	1,740.97	86.141	1,740.97	80.1125	1,740.97	85.9746	1,740.97	68.7071	1,740.97	84.0677	1,740.97	74.3306	1,740.97	84.4958	1,740.97	75.815	1,740.97	85.0669	1,740.97	77.6139	1,740.97	82.8873	1,740.97	76.1892	1,740.97	79.0385	1,740.97	69.7392	1,740.97	76.6608	1,740.97	70.816	1,740.97	74.9307	1,740.97	68.3663	1,740.97	71.1346	1,740.97	65.7869	1,740.97	72.9173	1,740.97	62.2174	1,740.97	70.4225	1,740.97	63.2655	1,740.97	65.0444	1,740.97	65.2831	1,740.97	73.6371	1,740.97	62.0171	1,740.97	73.1989	1,740.97	61.512	1,740.97	74.1599	1,740.97	68.3585	1,740.97	73.6536	1,740.97	73.3984
1,802.49	84.2687	1,802.49	83.4795	1,802.49	86.7432	1,802.49	81.1862	1,802.49	86.8222	1,802.49	74.9029	1,802.49	84.2949	1,802.49	76.3174	1,802.49	84.6412	1,802.49	78.7439	1,802.49	84.726	1,802.49	77.9257	1,802.49	82.5505	1,802.49	76.016	1,802.49	78.4831	1,802.49	76.3074	1,802.49	70.6194	1,802.49	75.7764	1,802.49	66.0888	1,802.49	71.8584	1,802.49	70.2522	1,802.49	62.1058	1,802.49	71.4793	1,802.49	57.7746	1,802.49	70.788	1,802.49	60.5553	1,802.49	58.4989	1,802.49	66.6121	1,802.49	73.5973	1,802.49	63.4956	1,802.49	72.9396	1,802.49	66.6601	1,802.49	73.7589	1,802.49	68.7835	1,802.49	72.5972	1,802.49	69.608
1,866.21	84.5881	1,866.21	83.2962	1,866.21	86.6708	1,866.21	81.1015	1,866.21	86.263	1,866.21	72.9378	1,866.21	82.6692	1,866.21	69.5298	1,866.21	82.2326	1,866.21	76.7319	1,866.21	82.9963	1,866.21	79.1625	1,866.21	80.3955	1,866.21	77.3978	1,866.21	76.3944	1,866.21	72.4328	1,866.21	71.7511	1,866.21	68.2559	1,866.21	67.8569	1,866.21	66.8995	1,866.21	67.8002	1,866.21	67.5222	1,866.21	70.282	1,866.21	67.7015	1,866.21	69.6525	1,866.21	51.6593	1,866.21	53.9601	1,866.21	64.7655	1,866.21	73.6136	1,866.21	60.6768	1,866.21	73.4699	1,866.21	67.2561	1,866.21	71.2232	1,866.21	63.7751	1,866.21	70.2174	1,866.21	67.8455
1,931.76	84.7164	1,931.76	84.0746	1,931.76	86.1491	1,931.76	81.5043	1,931.76	85.9342	1,931.76	70.5523	1,931.76	82.1706	1,931.76	74.4176	1,931.76	79.0844	1,931.76	79.9468	1,931.76	81.0631	1,931.76	80.0418	1,931.76	81.6687	1,931.76	79.1281	1,931.76	78.6951	1,931.76	76.4299	1,931.76	74.433	1,931.76	71.8996	1,931.76	69.6796	1,931.76	69.0963	1,931.76	67.8224	1,931.76	64.9798	1,931.76	70.7067	1,931.76	68.9345	1,931.76	70.241	1,931.76	63.7798	1,931.76	56.0002	1,931.76	66.8541	1,931.76	74.434	1,931.76	60.023	1,931.76	73.7001	1,931.76	70.2243	1,931.76	74.2755	1,931.76	69.5858	1,931.76	67.4806	1,931.76	67.2648
1,999.88	81.9721	1,999.88	82.1802	1,999.88	83.7645	1,999.88	81.2387	1,999.88	85.2924	1,999.88	74.2005	1,999.88	83.5832	1,999.88	70.3827	1,999.88	79.4533	1,999.88	79.8259	1,999.88	79.4651	1,999.88	82.1752	1,999.88	80.1028	1,999.88	81.2099	1,999.88	78.8772	1,999.88	79.3997	1,999.88	75.9131	1,999.88	76.1624	1,999.88	70.9124	1,999.88	70.8889	1,999.88	51.7047	1,999.88	69.0474	1,999.88	66.9939	1,999.88	68.7685	1,999.88	66.7066	1,999.88	67.7995	1,999.88	50.6171	1,999.88	66.043	1,999.88	72.7952	1,999.88	66.716	1,999.88	72.9265	1,999.88	69.1958	1,999.88	73.6027	1,999.88	64.1277	1,999.88	72.8111	1,999.88	70.6924
2,070.56	84.2602	2,070.56	81.9601	2,070.56	85.8354	2,070.56	78.6429	2,070.56	85.619	2,070.56	66.5299	2,070.56	84.0711	2,070.56	74.3683	2,070.56	81.7319	2,070.56	80.0022	2,070.56	80.1582	2,070.56	82.7121	2,070.56	80.597	2,070.56	82.2442	2,070.56	80.4263	2,070.56	80.5331	2,070.56	76.8242	2,070.56	77.9193	2,070.56	71.3473	2,070.56	72.9871	2,070.56	66.3536	2,070.56	65.1402	2,070.56	61.1234	2,070.56	69.1815	2,070.56	69.9358	2,070.56	69.2589	2,070.56	65.1012	2,070.56	64.2489	2,070.56	72.3287	2,070.56	66.1916	2,070.56	72.7143	2,070.56	61.3114	2,070.56	73.119	2,070.56	54.745	2,070.56	74.5933	2,070.56	70.4183
2,143.43	85.0881	2,143.43	82.9449	2,143.43	87.0287	2,143.43	79.7758	2,143.43	86.3038	2,143.43	72.0777	2,143.43	82.6767	2,143.43	69.9457	2,143.43	81.6743	2,143.43	81.2974	2,143.43	82.8513	2,143.43	83.1369	2,143.43	81.1209	2,143.43	80.4144	2,143.43	76.6343	2,143.43	77.1146	2,143.43	73.7036	2,143.43	73.4734	2,143.43	72.4042	2,143.43	70.0885	2,143.43	67.754	2,143.43	65.5192	2,143.43	63.4028	2,143.43	59.9314	2,143.43	72.6484	2,143.43	68.2154	2,143.43	66.7773	2,143.43	68.0493	2,143.43	72.7561	2,143.43	70.3232	2,143.43	74.4598	2,143.43	51.4855	2,143.43	74.0229	2,143.43	56.6215	2,143.43	74.8985	2,143.43	69.8854
2,219.24	85.5459	2,219.24	83.6503	2,219.24	88.239	2,219.24	81.6893	2,219.24	88.3484	2,219.24	76.3052	2,219.24	84.771	2,219.24	74.0591	2,219.24	80.6396	2,219.24	81.0208	2,219.24	80.6563	2,219.24	81.8391	2,219.24	79.4018	2,219.24	80.9148	2,219.24	75.186	2,219.24	77.9198	2,219.24	67.7582	2,219.24	71.5952	2,219.24	66.4107	2,219.24	70.8402	2,219.24	67.6476	2,219.24	69.0879	2,219.24	68.4812	2,219.24	60.7328	2,219.24	69.1234	2,219.24	61.5431	2,219.24	64.3982	2,219.24	66.494	2,219.24	71.1859	2,219.24	67.5054	2,219.24	71.6298	2,219.24	64.8872	2,219.24	71.3115	2,219.24	64.799	2,219.24	73.7145	2,219.24	68.5942
2,297.24	85.4366	2,297.24	83.3683	2,297.24	87.2607	2,297.24	80.6888	2,297.24	87.4855	2,297.24	77.0882	2,297.24	84.4995	2,297.24	75.0676	2,297.24	80.5112	2,297.24	81.1049	2,297.24	80.0955	2,297.24	82.3589	2,297.24	78.7852	2,297.24	81.6221	2,297.24	76.3045	2,297.24	78.6929	2,297.24	72.0166	2,297.24	75.7237	2,297.24	67.5689	2,297.24	73.01	2,297.24	68.4756	2,297.24	69.185	2,297.24	69.7054	2,297.24	59.55	2,297.24	67.9374	2,297.24	66.0029	2,297.24	58.3434	2,297.24	64.506	2,297.24	67.2998	2,297.24	69.0833	2,297.24	70.3862	2,297.24	67.867	2,297.24	69.2264	2,297.24	67.7323	2,297.24	70.8873	2,297.24	65.9516
2,378.54	84.534	2,378.54	82.3913	2,378.54	85.6966	2,378.54	80.5533	2,378.54	85.884	2,378.54	78.1072	2,378.54	84.2012	2,378.54	73.8146	2,378.54	80.9118	2,378.54	77.1859	2,378.54	77.0257	2,378.54	80.5918	2,378.54	78.6499	2,378.54	81.0217	2,378.54	79.1336	2,378.54	78.8768	2,378.54	74.9056	2,378.54	76.2974	2,378.54	71.6661	2,378.54	73.734	2,378.54	70.1194	2,378.54	70.3684	2,378.54	67.1195	2,378.54	59.5871	2,378.54	67.8187	2,378.54	57.5456	2,378.54	63.9559	2,378.54	64.9035	2,378.54	64.3839	2,378.54	64.6679	2,378.54	67.5828	2,378.54	68.1199	2,378.54	68.8003	2,378.54	66.5808	2,378.54	70.6599	2,378.54	67.0621
2,462.4	87.442	2,462.4	85.2411	2,462.4	86.8469	2,462.4	81.8392	2,462.4	85	2,462.4	79.2058	2,462.4	84.127	2,462.4	77.4221	2,462.4	82.3719	2,462.4	79.851	2,462.4	79.0165	2,462.4	80.9592	2,462.4	78.2196	2,462.4	79.6835	2,462.4	78.1212	2,462.4	78.2279	2,462.4	76.1246	2,462.4	76.4288	2,462.4	70.5206	2,462.4	72.9916	2,462.4	70.8946	2,462.4	68.5	2,462.4	61.222	2,462.4	53.3179	2,462.4	60.5286	2,462.4	46.9356	2,462.4	58.9905	2,462.4	66.0403	2,462.4	60.0841	2,462.4	66.962	2,462.4	64.3975	2,462.4	68.6397	2,462.4	67.8605	2,462.4	67.7939	2,462.4	71.1837	2,462.4	67.2611
2,549.19	87.0166	2,549.19	85.3276	2,549.19	86.9184	2,549.19	82.02	2,549.19	84.7423	2,549.19	78.576	2,549.19	82.0639	2,549.19	77.7468	2,549.19	80.5069	2,549.19	79.5828	2,549.19	79.9233	2,549.19	79.9047	2,549.19	79.1688	2,549.19	80.4538	2,549.19	76.8824	2,549.19	79.3253	2,549.19	75.566	2,549.19	74.3375	2,549.19	72.3545	2,549.19	68.5511	2,549.19	67.524	2,549.19	67.5637	2,549.19	64.4581	2,549.19	64.994	2,549.19	61.9209	2,549.19	55.9795	2,549.19	54.0965	2,549.19	62.5858	2,549.19	50.9897	2,549.19	66.3865	2,549.19	64.9789	2,549.19	69.1556	2,549.19	67.2889	2,549.19	65.0297	2,549.19	70.9848	2,549.19	65.0556
2,638.92	88.5454	2,638.92	87.027	2,638.92	88.8132	2,638.92	84.1797	2,638.92	87.6421	2,638.92	81.7019	2,638.92	85.272	2,638.92	80.5653	2,638.92	82.2666	2,638.92	81.4091	2,638.92	82	2,638.92	82.6755	2,638.92	82.0009	2,638.92	82.6729	2,638.92	79.5658	2,638.92	78.1329	2,638.92	76.869	2,638.92	73.5886	2,638.92	73.8729	2,638.92	72.5825	2,638.92	68.7879	2,638.92	71.1633	2,638.92	66.2217	2,638.92	66.7959	2,638.92	57.2309	2,638.92	64.1398	2,638.92	64.1663	2,638.92	63.4068	2,638.92	60.9884	2,638.92	64.1903	2,638.92	62.7727	2,638.92	69.1073	2,638.92	67.0301	2,638.92	66.7649	2,638.92	69.9186	2,638.92	67.8179
2,731.93	85.117	2,731.93	84.835	2,731.93	86.1077	2,731.93	83.4614	2,731.93	86.3158	2,731.93	80.6503	2,731.93	84.5545	2,731.93	79.4371	2,731.93	80.4349	2,731.93	80.6953	2,731.93	78.6371	2,731.93	81.7306	2,731.93	80.7159	2,731.93	81.7303	2,731.93	80.3903	2,731.93	78.9721	2,731.93	79.5133	2,731.93	75.2128	2,731.93	74.0671	2,731.93	73.8701	2,731.93	71.6848	2,731.93	71.2507	2,731.93	66.703	2,731.93	64.9563	2,731.93	62.9504	2,731.93	63.094	2,731.93	63.9803	2,731.93	56.4715	2,731.93	63.6295	2,731.93	58.1978	2,731.93	61.6574	2,731.93	66.7935	2,731.93	65.8551	2,731.93	66.6199	2,731.93	67.5332	2,731.93	67.9701
2,828.25	85.0542	2,828.25	83.9147	2,828.25	84.1338	2,828.25	81.4733	2,828.25	83.9963	2,828.25	79.8415	2,828.25	83.7678	2,828.25	78.4816	2,828.25	80.1439	2,828.25	79.8615	2,828.25	77.77	2,828.25	80.9142	2,828.25	78.6444	2,828.25	79.7833	2,828.25	79.6844	2,828.25	78.5511	2,828.25	80.852	2,828.25	78.2575	2,828.25	74.6544	2,828.25	73.8843	2,828.25	66.4087	2,828.25	70.4443	2,828.25	64.6296	2,828.25	61.9395	2,828.25	56.4258	2,828.25	67.9347	2,828.25	60.5688	2,828.25	58.6111	2,828.25	57.0978	2,828.25	54.6542	2,828.25	54.4784	2,828.25	67.0894	2,828.25	65.4479	2,828.25	62.338	2,828.25	67.4833	2,828.25	65.2935
2,928.22	85.4781	2,928.22	84.6542	2,928.22	83.9483	2,928.22	82.0374	2,928.22	83.3143	2,928.22	80.6534	2,928.22	82.614	2,928.22	78.8803	2,928.22	80.6328	2,928.22	79.8049	2,928.22	80.452	2,928.22	81.9841	2,928.22	77.9403	2,928.22	80.8576	2,928.22	78.5032	2,928.22	77.987	2,928.22	79.35	2,928.22	77.7051	2,928.22	72.5311	2,928.22	74.2499	2,928.22	54.4337	2,928.22	70.9156	2,928.22	63.3596	2,928.22	64.6899	2,928.22	59.1653	2,928.22	67.7778	2,928.22	57.906	2,928.22	60.9521	2,928.22	61.693	2,928.22	53.0841	2,928.22	49.9816	2,928.22	66.2625	2,928.22	58.8711	2,928.22	62.2656	2,928.22	67.7211	2,928.22	68.1752
3,031.49	87.3863	3,031.49	86.8687	3,031.49	85.6005	3,031.49	83.6948	3,031.49	84.2728	3,031.49	82.1097	3,031.49	82.9507	3,031.49	82.0543	3,031.49	82.3749	3,031.49	81.3472	3,031.49	82.5905	3,031.49	81.6535	3,031.49	81.2557	3,031.49	81.3613	3,031.49	81.8983	3,031.49	77.2293	3,031.49	79.5991	3,031.49	72.4462	3,031.49	69.5188	3,031.49	70.2451	3,031.49	42.1677	3,031.49	68.9269	3,031.49	60.5123	3,031.49	60.7399	3,031.49	62.6453	3,031.49	66.9211	3,031.49	61.1202	3,031.49	38.8526	3,031.49	57.2917	3,031.49	62.8081	3,031.49	35.0992	3,031.49	62.9967	3,031.49	64.2069	3,031.49	60.3547	3,031.49	64.9574	3,031.49	65.4798
3,138.43	86.852	3,138.43	86.0636	3,138.43	86.3236	3,138.43	83.9875	3,138.43	84.8201	3,138.43	82.4035	3,138.43	82.0057	3,138.43	81.6145	3,138.43	81.1127	3,138.43	81.6545	3,138.43	81.8381	3,138.43	82.7008	3,138.43	81.4206	3,138.43	81.6256	3,138.43	82.2682	3,138.43	75.772	3,138.43	79.8024	3,138.43	72.9799	3,138.43	72.4429	3,138.43	73.3092	3,138.43	66.2851	3,138.43	70.4293	3,138.43	54.0756	3,138.43	64.1993	3,138.43	45.2396	3,138.43	69.743	3,138.43	60.7676	3,138.43	53.9972	3,138.43	59.0942	3,138.43	59.6553	3,138.43	51.4592	3,138.43	62.6824	3,138.43	58.3259	3,138.43	65.3364	3,138.43	64.7342	3,138.43	66.455
3,249.02	84.8642	3,249.02	84.5701	3,249.02	84.494	3,249.02	82.5132	3,249.02	84.0211	3,249.02	80.9707	3,249.02	82.0328	3,249.02	80.5336	3,249.02	80.4402	3,249.02	80.6949	3,249.02	80.7579	3,249.02	81.7964	3,249.02	81.4246	3,249.02	81.7238	3,249.02	82.3229	3,249.02	79.0007	3,249.02	79.0561	3,249.02	77.0661	3,249.02	71.381	3,249.02	74.9185	3,249.02	67.7044	3,249.02	69.9407	3,249.02	56.334	3,249.02	64.0034	3,249.02	63.9467	3,249.02	68.4691	3,249.02	66.4035	3,249.02	54.7586	3,249.02	62.6594	3,249.02	62.1778	3,249.02	34.6414	3,249.02	56.2738	3,249.02	59.907	3,249.02	61.5174	3,249.02	64.6191	3,249.02	66.2552
3,363.65	84.0536	3,363.65	83.8665	3,363.65	83.1815	3,363.65	80.6595	3,363.65	83.1395	3,363.65	79.7627	3,363.65	81.3815	3,363.65	80.4586	3,363.65	80.2256	3,363.65	79.7714	3,363.65	79.3337	3,363.65	80.6899	3,363.65	79.7014	3,363.65	80.4131	3,363.65	82.1872	3,363.65	75.7492	3,363.65	78.4867	3,363.65	73.9234	3,363.65	72.9697	3,363.65	72.9388	3,363.65	73.6285	3,363.65	68.5642	3,363.65	60.2961	3,363.65	61.7612	3,363.65	60.8993	3,363.65	68.9169	3,363.65	56.5961	3,363.65	47.1344	3,363.65	64.7642	3,363.65	62.8558	3,363.65	59.2797	3,363.65	56.7701	3,363.65	60.261	3,363.65	57.5738	3,363.65	59.6384	3,363.65	67.5608
3,482.3	86.55	3,482.3	86.807	3,482.3	85.6043	3,482.3	84.5068	3,482.3	84.7833	3,482.3	81.6724	3,482.3	84.198	3,482.3	81.4656	3,482.3	82.8759	3,482.3	82.1191	3,482.3	78.8816	3,482.3	82.7796	3,482.3	81.2879	3,482.3	80.8549	3,482.3	83.2898	3,482.3	75.823	3,482.3	78.5041	3,482.3	74.9994	3,482.3	76.4651	3,482.3	73.7656	3,482.3	76.8322	3,482.3	68.2209	3,482.3	65.6902	3,482.3	58.3009	3,482.3	61.9926	3,482.3	66.1669	3,482.3	64.178	3,482.3	53.3925	3,482.3	63.2354	3,482.3	59.7754	3,482.3	57.9166	3,482.3	60.8313	3,482.3	63.6782	3,482.3	56.3174	3,482.3	60.7959	3,482.3	63.2087
3,604.98	86.9291	3,604.98	86.7106	3,604.98	85.1934	3,604.98	84.1924	3,604.98	84.7203	3,604.98	82.9456	3,604.98	85.5268	3,604.98	82.5251	3,604.98	83.8007	3,604.98	82.0269	3,604.98	80.8224	3,604.98	82.1309	3,604.98	83.033	3,604.98	80.9686	3,604.98	83.0159	3,604.98	77.1333	3,604.98	78.2071	3,604.98	74.4219	3,604.98	77.5057	3,604.98	73.4112	3,604.98	78.3029	3,604.98	68.1651	3,604.98	70.6712	3,604.98	56.5867	3,604.98	53.1176	3,604.98	65.2783	3,604.98	58.4205	3,604.98	41.385	3,604.98	63.7145	3,604.98	55.7738	3,604.98	55.1938	3,604.98	56.1856	3,604.98	65.0983	3,604.98	55.6443	3,604.98	61.7802	3,604.98	63.5218
3,732.06	86.4034	3,732.06	85.6908	3,732.06	83.8855	3,732.06	83.0645	3,732.06	82.5572	3,732.06	82.034	3,732.06	83.751	3,732.06	80.6849	3,732.06	82.412	3,732.06	79.5856	3,732.06	80.2826	3,732.06	81.286	3,732.06	81.4834	3,732.06	80.5615	3,732.06	81.8961	3,732.06	78.3267	3,732.06	79.8624	3,732.06	77.4461	3,732.06	76.727	3,732.06	74.5186	3,732.06	75.9546	3,732.06	69.7672	3,732.06	67.6187	3,732.06	57.9135	3,732.06	62.8476	3,732.06	64.0097	3,732.06	61.1891	3,732.06	56.402	3,732.06	51.9618	3,732.06	61.4039	3,732.06	57.7375	3,732.06	40.3565	3,732.06	62.5684	3,732.06	57.0234	3,732.06	62.6045	3,732.06	63.563
3,863.89	86.2356	3,863.89	85.6023	3,863.89	84.4508	3,863.89	83.629	3,863.89	83.2364	3,863.89	82.0472	3,863.89	83.1612	3,863.89	80.4865	3,863.89	82.0086	3,863.89	79.4973	3,863.89	80.6708	3,863.89	79.9347	3,863.89	80.8988	3,863.89	79.505	3,863.89	80.7883	3,863.89	76.8843	3,863.89	79.0361	3,863.89	70.4227	3,863.89	75.3072	3,863.89	68.4563	3,863.89	72.2805	3,863.89	65.0983	3,863.89	70.1855	3,863.89	56.2703	3,863.89	60.6681	3,863.89	61.4821	3,863.89	57.6274	3,863.89	50.0761	3,863.89	63.0749	3,863.89	61.1967	3,863.89	54.2233	3,863.89	53.4525	3,863.89	60.3231	3,863.89	52.124	3,863.89	59.1543	3,863.89	62.1742
4,000.12	85.3609	4,000.12	85.8939	4,000.12	83.7333	4,000.12	84.0134	4,000.12	84.2915	4,000.12	81.8964	4,000.12	84.3697	4,000.12	80.362	4,000.12	82.3932	4,000.12	79.2556	4,000.12	81.8364	4,000.12	81.2632	4,000.12	82.689	4,000.12	81.8201	4,000.12	81.329	4,000.12	78.393	4,000.12	77.5723	4,000.12	74.5776	4,000.12	75.3873	4,000.12	69.529	4,000.12	73.306	4,000.12	63.7559	4,000.12	67.7163	4,000.12	55.1678	4,000.12	56.216	4,000.12	65.4265	4,000.12	60.6359	4,000.12	33.7202	4,000.12	64.1936	4,000.12	62.2577	4,000.12	58.971	4,000.12	59.2334	4,000.12	59.3982	4,000.12	59.214	4,000.12	61.2429	4,000.12	61.3011
4,141.11	86.7631	4,141.11	87.0309	4,141.11	84.5758	4,141.11	84.8365	4,141.11	84.8437	4,141.11	82.8158	4,141.11	84.9098	4,141.11	81.5152	4,141.11	82.9009	4,141.11	80.5758	4,141.11	83.3609	4,141.11	81.2214	4,141.11	83.8738	4,141.11	80.3647	4,141.11	81.3466	4,141.11	77.8419	4,141.11	76.7038	4,141.11	76.4271	4,141.11	73.9114	4,141.11	72.7618	4,141.11	73.2051	4,141.11	65.8499	4,141.11	67.9996	4,141.11	55.5848	4,141.11	55.9712	4,141.11	63.3364	4,141.11	53.7682	4,141.11	53.2541	4,141.11	62.1662	4,141.11	55.0759	4,141.11	60.386	4,141.11	62.7899	4,141.11	53.9406	4,141.11	53.7748	4,141.11	62.17	4,141.11	53.057
4,287.23	84.0549	4,287.23	85.5978	4,287.23	80.8779	4,287.23	82.8793	4,287.23	83.4535	4,287.23	79.4615	4,287.23	83.3073	4,287.23	77.8795	4,287.23	81.0378	4,287.23	77.0659	4,287.23	81.4398	4,287.23	79.7157	4,287.23	81.1003	4,287.23	79.3431	4,287.23	79.2476	4,287.23	75.5763	4,287.23	74.8599	4,287.23	72.3964	4,287.23	67.6727	4,287.23	68.765	4,287.23	70.4775	4,287.23	63.9647	4,287.23	67.3853	4,287.23	45.4452	4,287.23	57.5654	4,287.23	61.5835	4,287.23	48.3096	4,287.23	50.3191	4,287.23	56.1741	4,287.23	56.8473	4,287.23	56.9697	4,287.23	64.2664	4,287.23	47.8625	4,287.23	50.2354	4,287.23	61.6275	4,287.23	55.2388
4,438.11	84.7035	4,438.11	86.7354	4,438.11	84.4341	4,438.11	85.4952	4,438.11	86.0449	4,438.11	81.6354	4,438.11	84.0986	4,438.11	78.5216	4,438.11	83.3917	4,438.11	79.476	4,438.11	83.8141	4,438.11	80.6826	4,438.11	81.8239	4,438.11	79.6068	4,438.11	79.6973	4,438.11	78.746	4,438.11	75.6187	4,438.11	77.7241	4,438.11	66.3909	4,438.11	72.3454	4,438.11	63.2862	4,438.11	66.8508	4,438.11	66.2163	4,438.11	46.2924	4,438.11	56.9781	4,438.11	60.01	4,438.11	55.8293	4,438.11	53.4996	4,438.11	58.6638	4,438.11	53.6621	4,438.11	55.1713	4,438.11	62.4413	4,438.11	52.1444	4,438.11	56.3313	4,438.11	61.64	4,438.11	61.2327
4,594.85	84.4751	4,594.85	86.6275	4,594.85	85.1611	4,594.85	85.3216	4,594.85	86.6349	4,594.85	81.8413	4,594.85	84.4652	4,594.85	79.7363	4,594.85	84.3731	4,594.85	79.0968	4,594.85	83.6065	4,594.85	79.9839	4,594.85	80.8794	4,594.85	78.8865	4,594.85	78.1581	4,594.85	70.7912	4,594.85	69.5314	4,594.85	59.4749	4,594.85	66.2721	4,594.85	63.2885	4,594.85	66.5067	4,594.85	58.9901	4,594.85	62.4421	4,594.85	50.1822	4,594.85	54.092	4,594.85	59.8702	4,594.85	60.6775	4,594.85	58.7578	4,594.85	49.3026	4,594.85	55.3125	4,594.85	53.9312	4,594.85	60.9683	4,594.85	46.1281	4,594.85	57.277	4,594.85	61.5675	4,594.85	56.9576
4,756.71	84.0627	4,756.71	85.8835	4,756.71	85.239	4,756.71	85.1687	4,756.71	84.9267	4,756.71	81.3758	4,756.71	82.6573	4,756.71	77.6174	4,756.71	83.0267	4,756.71	77.3191	4,756.71	80.1153	4,756.71	78.5744	4,756.71	78.3059	4,756.71	77.2545	4,756.71	77.6074	4,756.71	73.39	4,756.71	73.7014	4,756.71	70.1774	4,756.71	69.7929	4,756.71	67.5303	4,756.71	67.6267	4,756.71	59.0087	4,756.71	57.3456	4,756.71	46.7133	4,756.71	59.5743	4,756.71	61.2707	4,756.71	61.411	4,756.71	57.1455	4,756.71	42.8547	4,756.71	55.3599	4,756.71	50.4356	4,756.71	55.7321	4,756.71	45.1181	4,756.71	54.3339	4,756.71	63.3965	4,756.71	57.581
4,924.44	86.1627	4,924.44	85.2047	4,924.44	86.0124	4,924.44	83.6885	4,924.44	83.8639	4,924.44	82.2292	4,924.44	83.3132	4,924.44	79.3389	4,924.44	83.4324	4,924.44	76.8331	4,924.44	79.7036	4,924.44	77.9427	4,924.44	78.465	4,924.44	74.4817	4,924.44	77.4864	4,924.44	70.5719	4,924.44	75.5255	4,924.44	70.6974	4,924.44	70.3056	4,924.44	64.5982	4,924.44	69.0815	4,924.44	59.8253	4,924.44	65.5621	4,924.44	50.0079	4,924.44	59.1217	4,924.44	56.6823	4,924.44	59.764	4,924.44	48.0277	4,924.44	52.6099	4,924.44	53.4517	4,924.44	45.818	4,924.44	55.2794	4,924.44	57.7762	4,924.44	45.2871	4,924.44	61.6536	4,924.44	56.6177
5,098.39	86.8617	5,098.39	85.5463	5,098.39	86.8896	5,098.39	84.0588	5,098.39	85.2439	5,098.39	82.2181	5,098.39	84.0481	5,098.39	78.3972	5,098.39	81.985	5,098.39	76.4842	5,098.39	79.2002	5,098.39	76.4665	5,098.39	78.6306	5,098.39	74.1457	5,098.39	77.6076	5,098.39	74.7393	5,098.39	78.0821	5,098.39	71.0397	5,098.39	73.4447	5,098.39	62.9885	5,098.39	64.9777	5,098.39	56.5894	5,098.39	68.5489	5,098.39	48.3337	5,098.39	61.639	5,098.39	56.2083	5,098.39	52.8436	5,098.39	50.4059	5,098.39	57.5994	5,098.39	52.3938	5,098.39	46.6678	5,098.39	59.6822	5,098.39	60.0679	5,098.39	53.7963	5,098.39	55.819	5,098.39	51.6696
5,278.2	85.7821	5,278.2	84.5855	5,278.2	85.1762	5,278.2	82.9919	5,278.2	84.157	5,278.2	83.0256	5,278.2	83.2028	5,278.2	79.8347	5,278.2	82.8236	5,278.2	71.5647	5,278.2	80.3926	5,278.2	73.7004	5,278.2	77.3464	5,278.2	77.2888	5,278.2	77.7352	5,278.2	76.1159	5,278.2	78.8456	5,278.2	71.8015	5,278.2	76.1392	5,278.2	69.1911	5,278.2	58.8925	5,278.2	42.806	5,278.2	65.3017	5,278.2	38.1868	5,278.2	61.785	5,278.2	58.7416	5,278.2	54.7635	5,278.2	48.5517	5,278.2	54.7268	5,278.2	46.7839	5,278.2	52.7382	5,278.2	56.8634	5,278.2	59.1826	5,278.2	60.8917	5,278.2	57.1015	5,278.2	59.2166
5,464.23	85.6294	5,464.23	84.3537	5,464.23	85.2966	5,464.23	82.8477	5,464.23	83.3654	5,464.23	81.5668	5,464.23	83.8424	5,464.23	76.5323	5,464.23	83.7764	5,464.23	71.9441	5,464.23	78.3409	5,464.23	76.3571	5,464.23	76.0597	5,464.23	77.2732	5,464.23	77.7627	5,464.23	75.8898	5,464.23	78.3997	5,464.23	71.8238	5,464.23	74.6611	5,464.23	67.4788	5,464.23	64.4031	5,464.23	55.3382	5,464.23	63.308	5,464.23	53.2163	5,464.23	63.4044	5,464.23	59.3274	5,464.23	58.2036	5,464.23	51.8108	5,464.23	51.9266	5,464.23	51.9016	5,464.23	48.8835	5,464.23	57.5909	5,464.23	56.0783	5,464.23	56.9161	5,464.23	57.5105	5,464.23	59.8166
5,656.86	85.3459	5,656.86	83.7304	5,656.86	84.998	5,656.86	82.594	5,656.86	84.9709	5,656.86	81.6705	5,656.86	85.6033	5,656.86	76.8164	5,656.86	82.6124	5,656.86	73.4911	5,656.86	77.9469	5,656.86	76.1633	5,656.86	78.7045	5,656.86	76.4536	5,656.86	78.4498	5,656.86	74.8895	5,656.86	77.9407	5,656.86	69.5536	5,656.86	73.6855	5,656.86	68.0947	5,656.86	56.4673	5,656.86	52.6812	5,656.86	58.5126	5,656.86	51.8357	5,656.86	65.0664	5,656.86	58.7821	5,656.86	51.1659	5,656.86	38.9674	5,656.86	58.2952	5,656.86	53.3666	5,656.86	54.0791	5,656.86	56.0191	5,656.86	54.2063	5,656.86	55.0132	5,656.86	45.7744	5,656.86	59.5645
5,856.45	83.6871	5,856.45	83.1907	5,856.45	83.4275	5,856.45	81.8007	5,856.45	83.7211	5,856.45	79.1495	5,856.45	83.0374	5,856.45	75.9975	5,856.45	79.764	5,856.45	74.9429	5,856.45	79.5002	5,856.45	75.5759	5,856.45	79.7114	5,856.45	76.099	5,856.45	77.1886	5,856.45	75.6877	5,856.45	75.1378	5,856.45	68.1726	5,856.45	70.4239	5,856.45	62.7024	5,856.45	54.2976	5,856.45	53.4326	5,856.45	52.0962	5,856.45	54.8572	5,856.45	56.9292	5,856.45	59.3246	5,856.45	51.0356	5,856.45	54.4695	5,856.45	57.8197	5,856.45	50.9682	5,856.45	55.4282	5,856.45	57.8103	5,856.45	57.1308	5,856.45	50.6093	5,856.45	38.6477	5,856.45	60.0494
6,062.99	84.6868	6,062.99	84.2232	6,062.99	83.4809	6,062.99	82.8123	6,062.99	83.4445	6,062.99	81.5616	6,062.99	82.149	6,062.99	79.009	6,062.99	80.6645	6,062.99	75.3359	6,062.99	80.8843	6,062.99	76.6807	6,062.99	79.1444	6,062.99	77.4969	6,062.99	78.0205	6,062.99	74.3176	6,062.99	75.0992	6,062.99	64.5552	6,062.99	70.9635	6,062.99	61.6341	6,062.99	58.1337	6,062.99	56.2222	6,062.99	57.6356	6,062.99	53.1017	6,062.99	60.4072	6,062.99	56.8773	6,062.99	51.579	6,062.99	56.7901	6,062.99	59.5036	6,062.99	55.2206	6,062.99	49.8211	6,062.99	60.1623	6,062.99	51.2814	6,062.99	51.8461	6,062.99	52.9606	6,062.99	55.5005
6,276.86	83.696	6,276.86	84.0685	6,276.86	83.3807	6,276.86	83.229	6,276.86	83.5564	6,276.86	81.8013	6,276.86	81.4335	6,276.86	79.8851	6,276.86	80.8458	6,276.86	75.9501	6,276.86	79.8363	6,276.86	75.3653	6,276.86	78.9143	6,276.86	77.5526	6,276.86	76.9627	6,276.86	77.5135	6,276.86	72.9631	6,276.86	72.2834	6,276.86	69.5346	6,276.86	66.6281	6,276.86	54.4194	6,276.86	59.9238	6,276.86	60.0591	6,276.86	56.4107	6,276.86	59.5829	6,276.86	57.0673	6,276.86	55.4968	6,276.86	58.9553	6,276.86	58.1171	6,276.86	52.8045	6,276.86	44.1754	6,276.86	60.6264	6,276.86	48.4786	6,276.86	56.6381	6,276.86	59.7463	6,276.86	54.6687
6,498.05	82.571	6,498.05	83.3241	6,498.05	81.3061	6,498.05	81.9532	6,498.05	81.0795	6,498.05	81.4359	6,498.05	79.8623	6,498.05	80.5511	6,498.05	80.3266	6,498.05	76.048	6,498.05	78.5392	6,498.05	72.1845	6,498.05	78.1783	6,498.05	77.0451	6,498.05	75.2166	6,498.05	79.2768	6,498.05	70.7699	6,498.05	76.549	6,498.05	68.3763	6,498.05	68.9277	6,498.05	60.2173	6,498.05	65.7086	6,498.05	58.6378	6,498.05	55.0831	6,498.05	58.7287	6,498.05	56.3864	6,498.05	56.7833	6,498.05	56.8066	6,498.05	54.9137	6,498.05	48.4341	6,498.05	42.9581	6,498.05	61.2936	6,498.05	49.3159	6,498.05	57.2895	6,498.05	62.2476	6,498.05	57.2998
6,727.29	82.5458	6,727.29	83.6862	6,727.29	81.1631	6,727.29	82.7113	6,727.29	80.1156	6,727.29	81.8076	6,727.29	78.8406	6,727.29	80.7506	6,727.29	78.2674	6,727.29	78.0133	6,727.29	76.0646	6,727.29	73.7369	6,727.29	73.9884	6,727.29	74.7525	6,727.29	70.9819	6,727.29	77.4003	6,727.29	72.5412	6,727.29	73.6391	6,727.29	69.8636	6,727.29	68.0009	6,727.29	64.6322	6,727.29	65.4279	6,727.29	62.1652	6,727.29	53.7442	6,727.29	57.4601	6,727.29	56.348	6,727.29	50.4867	6,727.29	56.9131	6,727.29	49.1449	6,727.29	52.6682	6,727.29	48.8396	6,727.29	58.9152	6,727.29	50.0416	6,727.29	55.3833	6,727.29	60.7072	6,727.29	57.1952
6,964.23	82.0235	6,964.23	83.3582	6,964.23	81.9262	6,964.23	83.5452	6,964.23	80.8587	6,964.23	82.4305	6,964.23	78.9664	6,964.23	80.3521	6,964.23	77.438	6,964.23	78.7857	6,964.23	73.0607	6,964.23	77.2521	6,964.23	73.5899	6,964.23	75.9092	6,964.23	74.7975	6,964.23	75.9847	6,964.23	75.0634	6,964.23	73.1852	6,964.23	73.2736	6,964.23	62.669	6,964.23	70.2594	6,964.23	62.617	6,964.23	63.8818	6,964.23	45.0005	6,964.23	61.2517	6,964.23	59.9253	6,964.23	52.5348	6,964.23	56.3076	6,964.23	52.619	6,964.23	57.0594	6,964.23	40.967	6,964.23	50.085	6,964.23	47.851	6,964.23	48.799	6,964.23	52.3631	6,964.23	57.4771
7,209.96	82.7558	7,209.96	82.9584	7,209.96	82.746	7,209.96	83.512	7,209.96	80.359	7,209.96	82.5969	7,209.96	77.9643	7,209.96	80.4769	7,209.96	74.0432	7,209.96	78.8707	7,209.96	67.2782	7,209.96	78.1096	7,209.96	74.4494	7,209.96	76.6307	7,209.96	77.5089	7,209.96	74.3177	7,209.96	76.6074	7,209.96	70.2297	7,209.96	72.3566	7,209.96	66.1647	7,209.96	68.6476	7,209.96	60.3017	7,209.96	56.7542	7,209.96	50.9761	7,209.96	61.97	7,209.96	58.5263	7,209.96	50.3154	7,209.96	56.2367	7,209.96	48.9226	7,209.96	57.6203	7,209.96	55.4006	7,209.96	49.9619	7,209.96	52.7967	7,209.96	51.8866	7,209.96	49.7543	7,209.96	56.9904
7,464.11	83.2007	7,464.11	82.6736	7,464.11	82.4851	7,464.11	82.7409	7,464.11	80.7364	7,464.11	82.3456	7,464.11	79.1753	7,464.11	80.3066	7,464.11	73.723	7,464.11	77.4535	7,464.11	76.141	7,464.11	75.4549	7,464.11	76.8571	7,464.11	73.8936	7,464.11	74.5245	7,464.11	72.5333	7,464.11	71.1564	7,464.11	69.8311	7,464.11	67.3097	7,464.11	65.2704	7,464.11	62.9084	7,464.11	59.1713	7,464.11	54.8389	7,464.11	48.5122	7,464.11	49.7023	7,464.11	59.0993	7,464.11	44.0502	7,464.11	55.4925	7,464.11	54.0784	7,464.11	49.5148	7,464.11	52.2951	7,464.11	39.8679	7,464.11	55.6588	7,464.11	40.6974	7,464.11	53.4642	7,464.11	48.8254
7,727.42	81.5649	7,727.42	81.8918	7,727.42	80.3454	7,727.42	81.2001	7,727.42	79.9948	7,727.42	80.6954	7,727.42	78.342	7,727.42	79.8624	7,727.42	76.5585	7,727.42	76.9816	7,727.42	79.5506	7,727.42	73.5172	7,727.42	76.6044	7,727.42	73.7764	7,727.42	68.6175	7,727.42	74.5443	7,727.42	61.9339	7,727.42	70.5331	7,727.42	54.7361	7,727.42	54.274	7,727.42	60.4292	7,727.42	54.9882	7,727.42	47.7241	7,727.42	49.1065	7,727.42	49.5801	7,727.42	59.6235	7,727.42	50.1757	7,727.42	51.7342	7,727.42	50.5251	7,727.42	58.9339	7,727.42	46.906	7,727.42	44.4032	7,727.42	54.5525	7,727.42	55.306	7,727.42	50.621	7,727.42	45.1525
7,999.88	81.2018	7,999.88	81.0425	7,999.88	80.6772	7,999.88	80.7025	7,999.88	80.3985	7,999.88	80.5965	7,999.88	77.52	7,999.88	77.8966	7,999.88	78.0964	7,999.88	74.6514	7,999.88	79.0191	7,999.88	72.795	7,999.88	74.8009	7,999.88	68.45	7,999.88	62.5083	7,999.88	68.139	7,999.88	60.9884	7,999.88	67.9605	7,999.88	58.1289	7,999.88	62.3497	7,999.88	55.3086	7,999.88	57.3342	7,999.88	50.6645	7,999.88	45.7481	7,999.88	56.8792	7,999.88	54.6703	7,999.88	49.0103	7,999.88	48.6046	7,999.88	46.1882	7,999.88	58.3378	7,999.88	44.5049	7,999.88	59.6925	7,999.88	58.5243	7,999.88	50.5011	7,999.88	48.7682	7,999.88	58.4598
8,282.23	81.6683	8,282.23	81.3064	8,282.23	81.428	8,282.23	79.99	8,282.23	81.554	8,282.23	79.3603	8,282.23	78.9876	8,282.23	78.4258	8,282.23	79.4872	8,282.23	75.8971	8,282.23	79.3917	8,282.23	71.05	8,282.23	70.9413	8,282.23	68.1931	8,282.23	57.7197	8,282.23	70.6929	8,282.23	62.3232	8,282.23	71.1771	8,282.23	56.4884	8,282.23	63.0387	8,282.23	53.892	8,282.23	56.734	8,282.23	55.0637	8,282.23	45.4513	8,282.23	54.1931	8,282.23	57.2555	8,282.23	56.8288	8,282.23	53.6639	8,282.23	41.5915	8,282.23	56.8074	8,282.23	41.669	8,282.23	47.0741	8,282.23	50.6247	8,282.23	56.3934	8,282.23	44.161	8,282.23	55.7449
8,574.1	83.0948	8,574.1	83.1152	8,574.1	82.3655	8,574.1	82.0757	8,574.1	81.4741	8,574.1	81.4682	8,574.1	79.9453	8,574.1	80.2552	8,574.1	81.5558	8,574.1	77.0707	8,574.1	78.1139	8,574.1	72.3837	8,574.1	67.0183	8,574.1	65.9545	8,574.1	65.3692	8,574.1	56.0513	8,574.1	64.2732	8,574.1	58.7216	8,574.1	62.7368	8,574.1	62.4978	8,574.1	56.5301	8,574.1	55.9786	8,574.1	57.4459	8,574.1	42.8464	8,574.1	53.5871	8,574.1	55.9866	8,574.1	48.9383	8,574.1	57.6978	8,574.1	51.0437	8,574.1	51.3728	8,574.1	52.9532	8,574.1	53.7048	8,574.1	56.1851	8,574.1	58.364	8,574.1	47.8925	8,574.1	43.117
8,876.59	85.2058	8,876.59	85.1366	8,876.59	84.8998	8,876.59	84.8051	8,876.59	83.5732	8,876.59	84.0683	8,876.59	82.3585	8,876.59	82.3	8,876.59	81.8389	8,876.59	79.4313	8,876.59	76.406	8,876.59	73.5206	8,876.59	70.6311	8,876.59	66.5062	8,876.59	72.9875	8,876.59	65.7805	8,876.59	68.8081	8,876.59	61.2816	8,876.59	57.484	8,876.59	60.1574	8,876.59	53.6511	8,876.59	53.5031	8,876.59	55.4078	8,876.59	42.345	8,876.59	44.3272	8,876.59	47.3526	8,876.59	40.249	8,876.59	57.7583	8,876.59	53.0969	8,876.59	48.1105	8,876.59	50.9567	8,876.59	50.0353	8,876.59	49.5761	8,876.59	58.4772	8,876.59	53.0824	8,876.59	47.9624
9,189.7	84.9914	9,189.7	84.6609	9,189.7	84.8465	9,189.7	84.5995	9,189.7	84.0034	9,189.7	84.3127	9,189.7	82.9738	9,189.7	82.1813	9,189.7	81.0386	9,189.7	78.3625	9,189.7	71.989	9,189.7	73.4997	9,189.7	73.5333	9,189.7	70.0581	9,189.7	71.6063	9,189.7	67.2862	9,189.7	63.9644	9,189.7	58.723	9,189.7	53.9202	9,189.7	56.3743	9,189.7	58.9381	9,189.7	48.9701	9,189.7	58.956	9,189.7	44.0905	9,189.7	39.3772	9,189.7	48.1945	9,189.7	53.9153	9,189.7	47.9116	9,189.7	48.2527	9,189.7	49.3186	9,189.7	48.1828	9,189.7	44.1736	9,189.7	52.0578	9,189.7	52.4412	9,189.7	52.2271	9,189.7	51.1047
9,513.79	84.7907	9,513.79	84.2818	9,513.79	84.8243	9,513.79	84.2025	9,513.79	83.7942	9,513.79	83.8171	9,513.79	83.0358	9,513.79	81.8992	9,513.79	80.0763	9,513.79	77.8917	9,513.79	73.0371	9,513.79	72.4142	9,513.79	74.2967	9,513.79	68.7808	9,513.79	70.3554	9,513.79	63.5671	9,513.79	65.0219	9,513.79	61.4577	9,513.79	56.0795	9,513.79	57.1703	9,513.79	59.821	9,513.79	50.7359	9,513.79	63.3413	9,513.79	45.3896	9,513.79	4.30462	9,513.79	44.0745	9,513.79	55.7861	9,513.79	44.7107	9,513.79	54.2447	9,513.79	46.0503	9,513.79	53.5453	9,513.79	45.6735	9,513.79	53.6303	9,513.79	43.5956	9,513.79	52.8896	9,513.79	49.6139
9,849.24	85.8222	9,849.24	85.1508	9,849.24	85.608	9,849.24	85.0776	9,849.24	84.784	9,849.24	84.2948	9,849.24	84.0275	9,849.24	81.5167	9,849.24	79.5128	9,849.24	77.6569	9,849.24	77.0574	9,849.24	72.7457	9,849.24	76.7003	9,849.24	67.8845	9,849.24	71.3465	9,849.24	61.4879	9,849.24	66.3477	9,849.24	63.6242	9,849.24	59.2458	9,849.24	57.5363	9,849.24	59.5867	9,849.24	49.7075	9,849.24	65.3719	9,849.24	39.5679	9,849.24	49.9278	9,849.24	35.3786	9,849.24	56.4143	9,849.24	46.1358	9,849.24	51.0748	9,849.24	47.9205	9,849.24	52.9801	9,849.24	44.6167	9,849.24	52.9684	9,849.24	39.1511	9,849.24	51.6915	9,849.24	45.2953
10,196.4	85.8025	10,196.4	85.2457	10,196.4	85.1095	10,196.4	84.8747	10,196.4	85.2735	10,196.4	83.9932	10,196.4	83.8865	10,196.4	80.7783	10,196.4	79.7856	10,196.4	76.2638	10,196.4	77.3844	10,196.4	70.242	10,196.4	74.9362	10,196.4	66.2727	10,196.4	67.5151	10,196.4	63.2053	10,196.4	61.9945	10,196.4	61.7067	10,196.4	48.9935	10,196.4	55.0562	10,196.4	61.6115	10,196.4	46.886	10,196.4	65.2994	10,196.4	42.102	10,196.4	49.48	10,196.4	37.4783	10,196.4	56.2766	10,196.4	46.7735	10,196.4	52.133	10,196.4	48.3081	10,196.4	50.6769	10,196.4	36.2207	10,196.4	50.283	10,196.4	48.684	10,196.4	41.6881	10,196.4	43.46
10,556	84.2862	10,556	84.7052	10,556	83.7508	10,556	84.6829	10,556	84.8188	10,556	83.0925	10,556	82.6479	10,556	79.5075	10,556	79.1431	10,556	75.9587	10,556	77.7883	10,556	70.291	10,556	72.1852	10,556	66.9958	10,556	63.0266	10,556	63.8402	10,556	51.8905	10,556	66.2756	10,556	55.084	10,556	58.6332	10,556	58.4327	10,556	45.2086	10,556	66.1893	10,556	49.6465	10,556	40.5735	10,556	46.5607	10,556	56.2901	10,556	50.5536	10,556	56.7147	10,556	49.1988	10,556	35.8802	10,556	45.6205	10,556	55.3416	10,556	54.3915	10,556	47.9508	10,556	42.6196
10,928.5	84.0297	10,928.5	85.2671	10,928.5	84.5016	10,928.5	85.404	10,928.5	84.8146	10,928.5	82.8172	10,928.5	82.4129	10,928.5	79.5427	10,928.5	80.1842	10,928.5	76.9219	10,928.5	76.5086	10,928.5	70.8818	10,928.5	71.8751	10,928.5	64.384	10,928.5	58.8527	10,928.5	64.2273	10,928.5	56.9178	10,928.5	68.1149	10,928.5	54.3792	10,928.5	61.6086	10,928.5	58.1004	10,928.5	49.281	10,928.5	65.3797	10,928.5	51.0086	10,928.5	52.1625	10,928.5	50.5983	10,928.5	55.5029	10,928.5	47.4272	10,928.5	56.1404	10,928.5	40.696	10,928.5	51.4778	10,928.5	46.5115	10,928.5	50.6184	10,928.5	53.9976	10,928.5	54.9854	10,928.5	49.0487
11,313.7	85.1678	11,313.7	85.4934	11,313.7	85.6243	11,313.7	85.2298	11,313.7	85.0656	11,313.7	82.731	11,313.7	82.6319	11,313.7	79.9541	11,313.7	79.6056	11,313.7	77.0037	11,313.7	76.0897	11,313.7	70.7368	11,313.7	69.8473	11,313.7	66.0391	11,313.7	62.429	11,313.7	61.0309	11,313.7	60.0322	11,313.7	62.9797	11,313.7	50.3352	11,313.7	57.88	11,313.7	59.5255	11,313.7	49.8574	11,313.7	66.2567	11,313.7	47.3174	11,313.7	56.5255	11,313.7	50.4212	11,313.7	58.8219	11,313.7	37.2898	11,313.7	55.9533	11,313.7	48.5686	11,313.7	52.588	11,313.7	43.796	11,313.7	53.857	11,313.7	50.3556	11,313.7	51.7737	11,313.7	48.5282
11,712.5	85.58	11,712.5	85.3545	11,712.5	86.0874	11,712.5	85.0072	11,712.5	84.5315	11,712.5	82.4791	11,712.5	82.2398	11,712.5	79.1817	11,712.5	78.8011	11,712.5	75.7754	11,712.5	76.0155	11,712.5	68.9672	11,712.5	66.9092	11,712.5	66.1952	11,712.5	64.5849	11,712.5	59.0083	11,712.5	62.5025	11,712.5	58.1171	11,712.5	58.7346	11,712.5	53.3679	11,712.5	64.7536	11,712.5	50.7343	11,712.5	68.4908	11,712.5	42.1404	11,712.5	57.287	11,712.5	50.6709	11,712.5	58.3041	11,712.5	37.7058	11,712.5	55.0427	11,712.5	48.7736	11,712.5	52.5695	11,712.5	47.1558	11,712.5	47.1003	11,712.5	43.3982	11,712.5	53.0018	11,712.5	46.3666
12,125.6	85.4539	12,125.6	84.696	12,125.6	84.8956	12,125.6	84.6252	12,125.6	83.8649	12,125.6	82.4429	12,125.6	81.7832	12,125.6	78.751	12,125.6	77.9139	12,125.6	74.2511	12,125.6	74.0339	12,125.6	64.7024	12,125.6	64.0494	12,125.6	64.4962	12,125.6	68.8225	12,125.6	67.1599	12,125.6	70.328	12,125.6	67.2436	12,125.6	64.7636	12,125.6	59.3064	12,125.6	64.709	12,125.6	51.302	12,125.6	67.8417	12,125.6	43.363	12,125.6	57.4976	12,125.6	57.3856	12,125.6	57.6806	12,125.6	36.143	12,125.6	56.0617	12,125.6	53.6262	12,125.6	47.3434	12,125.6	50.4295	12,125.6	54.2096	12,125.6	51.719	12,125.6	53.2295	12,125.6	45.3907
12,553.3	83.7796	12,553.3	83.7842	12,553.3	83.2072	12,553.3	83.9561	12,553.3	83.6085	12,553.3	81.8623	12,553.3	80.4861	12,553.3	77.6499	12,553.3	77.1773	12,553.3	71.258	12,553.3	71.5403	12,553.3	65.9163	12,553.3	69.332	12,553.3	68.2463	12,553.3	74.2281	12,553.3	67.9048	12,553.3	69.4998	12,553.3	66.1039	12,553.3	65.0371	12,553.3	57.7357	12,553.3	62.8481	12,553.3	40.5416	12,553.3	66.1252	12,553.3	41.2758	12,553.3	56.2382	12,553.3	59.6288	12,553.3	60.1237	12,553.3	37.4134	12,553.3	55.8352	12,553.3	50.4745	12,553.3	52.4979	12,553.3	57.9168	12,553.3	54.2755	12,553.3	50.5866	12,553.3	56.1522	12,553.3	53.636
12,996.1	82.249	12,996.1	82.9541	12,996.1	82.7565	12,996.1	83.1965	12,996.1	82.729	12,996.1	80.2252	12,996.1	77.6808	12,996.1	74.2607	12,996.1	75.3691	12,996.1	64.3436	12,996.1	68.1452	12,996.1	73.0164	12,996.1	75.2521	12,996.1	71.2194	12,996.1	73.6688	12,996.1	69.3704	12,996.1	69.8535	12,996.1	68.2041	12,996.1	66.195	12,996.1	58.0379	12,996.1	60.8978	12,996.1	51.2871	12,996.1	64.3678	12,996.1	50.5268	12,996.1	60.9324	12,996.1	57.5722	12,996.1	57.6895	12,996.1	41.3017	12,996.1	54.4617	12,996.1	55.3597	12,996.1	56.3861	12,996.1	59.0604	12,996.1	51.1393	12,996.1	51.5839	12,996.1	57.5995	12,996.1	58.0909
13,454.2	82.5579	13,454.2	82.4232	13,454.2	83.2265	13,454.2	82.4639	13,454.2	81.547	13,454.2	78.8663	13,454.2	76.1808	13,454.2	74.5101	13,454.2	76.8583	13,454.2	74.1619	13,454.2	66.6291	13,454.2	75.4092	13,454.2	76.3313	13,454.2	72.9179	13,454.2	72.9706	13,454.2	69.7802	13,454.2	72.2455	13,454.2	68.3108	13,454.2	67.5771	13,454.2	54.0203	13,454.2	57.0152	13,454.2	52.9769	13,454.2	61.9671	13,454.2	50.0276	13,454.2	60.8931	13,454.2	53.4104	13,454.2	59.1178	13,454.2	41.8991	13,454.2	54.3396	13,454.2	58.0798	13,454.2	58.4269	13,454.2	52.0686	13,454.2	59.7962	13,454.2	52.5283	13,454.2	59.9862	13,454.2	58.7235
13,928.8	82.2037	13,928.8	81.1044	13,928.8	82.0362	13,928.8	80.6484	13,928.8	80.069	13,928.8	78.354	13,928.8	75.7623	13,928.8	76.3733	13,928.8	74.0703	13,928.8	76.8887	13,928.8	73.4167	13,928.8	75.5679	13,928.8	77.8842	13,928.8	71.8928	13,928.8	73.2457	13,928.8	66.6136	13,928.8	71.1689	13,928.8	66.0648	13,928.8	59.62	13,928.8	55.6461	13,928.8	52.5289	13,928.8	54.4939	13,928.8	66.2268	13,928.8	48.6823	13,928.8	63.0511	13,928.8	52.1207	13,928.8	60.3802	13,928.8	40.9876	13,928.8	59.0995	13,928.8	56.6567	13,928.8	56.852	13,928.8	43.293	13,928.8	61.8035	13,928.8	50.5215	13,928.8	54.9489	13,928.8	55.9273
14,419.9	81.0563	14,419.9	79.5306	14,419.9	81.6347	14,419.9	79.2587	14,419.9	79.0457	14,419.9	78.458	14,419.9	75.7959	14,419.9	77.4456	14,419.9	75.1678	14,419.9	79.0264	14,419.9	77.3742	14,419.9	75.4224	14,419.9	76.9337	14,419.9	70.5208	14,419.9	73.5164	14,419.9	63.8472	14,419.9	66.854	14,419.9	63.454	14,419.9	53.4169	14,419.9	49.9654	14,419.9	56.4996	14,419.9	54.2218	14,419.9	66.8232	14,419.9	48.6107	14,419.9	62.4887	14,419.9	56.4128	14,419.9	56.714	14,419.9	50.2716	14,419.9	58.5336	14,419.9	52.5119	14,419.9	43.9968	14,419.9	47.7201	14,419.9	56.6617	14,419.9	55.5364	14,419.9	56.5948	14,419.9	43.029
14,928.6	80.2599	14,928.6	77.9327	14,928.6	80.5536	14,928.6	78.491	14,928.6	77.0956	14,928.6	78.9822	14,928.6	77.1584	14,928.6	78.8982	14,928.6	77.5195	14,928.6	78.9632	14,928.6	75.703	14,928.6	72.2902	14,928.6	75.0129	14,928.6	68.0962	14,928.6	70.1505	14,928.6	60.1893	14,928.6	58.6182	14,928.6	59.2254	14,928.6	59.6412	14,928.6	57.0203	14,928.6	59.0132	14,928.6	51.9476	14,928.6	65.8633	14,928.6	48.8175	14,928.6	62.4883	14,928.6	54.446	14,928.6	56.171	14,928.6	52.8531	14,928.6	55.8029	14,928.6	55.9282	14,928.6	56.9833	14,928.6	48.5637	14,928.6	59.4585	14,928.6	51.7258	14,928.6	59.579	14,928.6	51.3951
15,454.8	78.7042	15,454.8	76.8446	15,454.8	77.9603	15,454.8	78.153	15,454.8	76.1345	15,454.8	79.3569	15,454.8	78.5333	15,454.8	77.7103	15,454.8	76.5069	15,454.8	77.167	15,454.8	71.8777	15,454.8	69.0432	15,454.8	71.3714	15,454.8	58.7691	15,454.8	64.0354	15,454.8	67.1446	15,454.8	65.0389	15,454.8	69.449	15,454.8	58.2747	15,454.8	61.1289	15,454.8	51.5541	15,454.8	50.8272	15,454.8	61.7647	15,454.8	37.6814	15,454.8	60.6909	15,454.8	54.1809	15,454.8	54.8926	15,454.8	40.5449	15,454.8	57.6883	15,454.8	57.7758	15,454.8	55.7867	15,454.8	48.8098	15,454.8	59.1669	15,454.8	49.789	15,454.8	54.6397	15,454.8	52.1662
16,000.1	77.4095	16,000.1	77.7544	16,000.1	76.8351	16,000.1	79.1781	16,000.1	77.1831	16,000.1	79.1496	16,000.1	77.8507	16,000.1	76.4887	16,000.1	73.6657	16,000.1	75.5562	16,000.1	71.1516	16,000.1	64.3842	16,000.1	71.6886	16,000.1	60.2327	16,000.1	61.1711	16,000.1	67.6874	16,000.1	66.8156	16,000.1	70.7844	16,000.1	57.6778	16,000.1	61.955	16,000.1	49.0133	16,000.1	52.2619	16,000.1	62.1554	16,000.1	37.8723	16,000.1	61.434	16,000.1	51.2632	16,000.1	57.7115	16,000.1	43.2676	16,000.1	57.2972	16,000.1	53.3301	16,000.1	57.1812	16,000.1	50.9689	16,000.1	54.0101	16,000.1	51.8709	16,000.1	56.9213	16,000.1	48.046
16,564.1	78.9338	16,564.1	79.2464	16,564.1	78.4508	16,564.1	79.5451	16,564.1	79.0008	16,564.1	78.6541	16,564.1	77.6443	16,564.1	74.7367	16,564.1	74.3207	16,564.1	73.1716	16,564.1	71.0622	16,564.1	59.5181	16,564.1	69.075	16,564.1	64.1176	16,564.1	59.2315	16,564.1	68.4386	16,564.1	65.9123	16,564.1	70.4651	16,564.1	57.0232	16,564.1	62.0201	16,564.1	51.6114	16,564.1	51.6343	16,564.1	62.1402	16,564.1	42.0843	16,564.1	61.3981	16,564.1	49.8453	16,564.1	56.7361	16,564.1	44.2005	16,564.1	55.3187	16,564.1	53.8495	16,564.1	54.2807	16,564.1	45.3399	16,564.1	58.2584	16,564.1	51.7067	16,564.1	55.1554	16,564.1	51.3672
17,148.2	83.4804	17,148.2	83.5064	17,148.2	83.11	17,148.2	82.3421	17,148.2	82.114	17,148.2	79.7813	17,148.2	79.3816	17,148.2	75.0831	17,148.2	75.5803	17,148.2	71.6725	17,148.2	69.7288	17,148.2	61.2235	17,148.2	68.1736	17,148.2	67.8443	17,148.2	61.9002	17,148.2	64.3647	17,148.2	65.2787	17,148.2	67.6609	17,148.2	57.6513	17,148.2	57.8125	17,148.2	55.3749	17,148.2	48.4337	17,148.2	65.5819	17,148.2	45.0055	17,148.2	61.5711	17,148.2	49.7715	17,148.2	55.984	17,148.2	31.2106	17,148.2	54.3272	17,148.2	53.0034	17,148.2	54.3998	17,148.2	45.9692	17,148.2	57.1229	17,148.2	47.6156	17,148.2	51.4399	17,148.2	50.4874
17,753.2	86.009	17,753.2	84.6041	17,753.2	84.8198	17,753.2	80.0257	17,753.2	83.1923	17,753.2	75.6134	17,753.2	79.0118	17,753.2	71.5002	17,753.2	72.4622	17,753.2	63.5426	17,753.2	67.7399	17,753.2	57.7563	17,753.2	62.2961	17,753.2	62.4584	17,753.2	55.8094	17,753.2	58.6501	17,753.2	57.8302	17,753.2	65.0042	17,753.2	52.2489	17,753.2	59.9135	17,753.2	58.8469	17,753.2	47.731	17,753.2	64.4295	17,753.2	44.0583	17,753.2	55.086	17,753.2	50.9923	17,753.2	53.5621	17,753.2	42.6279	17,753.2	50.3876	17,753.2	50.9234	17,753.2	50.8436	17,753.2	49.1496	17,753.2	53.3297	17,753.2	50.7323	17,753.2	45.3736	17,753.2	33.2212
18,379	85.0182	18,379	83.3179	18,379	83.6288	18,379	77.967	18,379	81.4438	18,379	69.8471	18,379	77.51	18,379	65.0552	18,379	66.9126	18,379	57.3968	18,379	66.668	18,379	53.6035	18,379	60.3706	18,379	49.4503	18,379	54.0395	18,379	63.1203	18,379	53.7784	18,379	66.1347	18,379	47.354	18,379	61.0658	18,379	59.8796	18,379	49.9614	18,379	62.0203	18,379	41.4965	18,379	51.9436	18,379	54.6106	18,379	49.9466	18,379	50.5668	18,379	49.4514	18,379	51.9672	18,379	50.0843	18,379	52.0317	18,379	50.1836	18,379	52.4027	18,379	47.1027	18,379	42.6596
19,027.2	85.0305	19,027.2	83.7051	19,027.2	83.1607	19,027.2	77.4635	19,027.2	80.5745	19,027.2	68.4049	19,027.2	75.1836	19,027.2	62.2635	19,027.2	68.6085	19,027.2	57.021	19,027.2	66.2348	19,027.2	53.2889	19,027.2	56.9266	19,027.2	46.1462	19,027.2	52.352	19,027.2	61.0645	19,027.2	52.7245	19,027.2	66.6577	19,027.2	50.0526	19,027.2	61.3625	19,027.2	57.8864	19,027.2	51.3616	19,027.2	62.5036	19,027.2	44.0325	19,027.2	37.4064	19,027.2	53.2757	19,027.2	49.4117	19,027.2	50.2078	19,027.2	52.8687	19,027.2	54.6568	19,027.2	46.6701	19,027.2	53.1961	19,027.2	55.4153	19,027.2	52.1524	19,027.2	50.8898	19,027.2	53.8907
19,698.5	80.8321	19,698.5	79.5093	19,698.5	78.9485	19,698.5	70.2479	19,698.5	76.5801	19,698.5	60.7805	19,698.5	69.1361	19,698.5	60.9164	19,698.5	62.396	19,698.5	58.8972	19,698.5	62.7651	19,698.5	54.8056	19,698.5	54.8188	19,698.5	46.7353	19,698.5	49.6878	19,698.5	55.9456	19,698.5	53.924	19,698.5	59.7048	19,698.5	39.9692	19,698.5	56.5069	19,698.5	55.416	19,698.5	48.7903	19,698.5	58.6987	19,698.5	43.8551	19,698.5	32.721	19,698.5	48.1188	19,698.5	45.6082	19,698.5	46.9831	19,698.5	47.6211	19,698.5	53.8309	19,698.5	48.4619	19,698.5	49.0007	19,698.5	53.13	19,698.5	52.475	19,698.5	45.4355	19,698.5	51.6406
19,999.9	74.2023	19,999.9	76.9786	19,999.9	75.815	19,999.9	72.8502	19,999.9	66.3794	19,999.9	64.9747	19,999.9	66.4537	19,999.9	63.5962	19,999.9	56.8335	19,999.9	55.0707	19,999.9	62.0548	19,999.9	57.837	19,999.9	55.7968	19,999.9	52.9665	19,999.9	42.2699	19,999.9	46.1839	19,999.9	54.4253	19,999.9	56.1021	19,999.9	47.3081	19,999.9	53.5288	19,999.9	54.3361	19,999.9	44.3072	19,999.9	53.4499	19,999.9	44.4218	19,999.9	47.05	19,999.9	47.595	19,999.9	42.1956	19,999.9	33.9642	19,999.9	48.9399	19,999.9	52.0347	19,999.9	50.5808	19,999.9	47.2692	19,999.9	43.2005	19,999.9	49.3929	19,999.9	47.2849	19,999.9	51.2454
