"SPL Horizontal"
"On-Axis"		"10°"		"-10°"		"20°"		"-20°"		"30°"		"-30°"		"40°"		"-40°"		"50°"		"-50°"		"60°"		"-60°"		"70°"		"-70°"		"80°"		"-80°"		"90°"		"-90°"		"100°"		"-100°"		"110°"		"-110°"		"120°"		"-120°"		"130°"		"-130°"		"140°"		"-140°"		"150°"		"-150°"		"160°"		"-160°"		"170°"		"-170°"		"180°"
"Frequency / Hz"	"Sound Pressure Level / dB (re 20 µPa/V)  [2.83  V @ 1. m]"	"Frequency / Hz"	"Sound Pressure Level / dB (re 20 µPa/V)  [2.83  V @ 1. m]"	"Frequency / Hz"	"Sound Pressure Level / dB (re 20 µPa/V)  [2.83  V @ 1. m]"	"Frequency / Hz"	"Sound Pressure Level / dB (re 20 µPa/V)  [2.83  V @ 1. m]"	"Frequency / Hz"	"Sound Pressure Level / dB (re 20 µPa/V)  [2.83  V @ 1. m]"	"Frequency / Hz"	"Sound Pressure Level / dB (re 20 µPa/V)  [2.83  V @ 1. m]"	"Frequency / Hz"	"Sound Pressure Level / dB (re 20 µPa/V)  [2.83  V @ 1. m]"	"Frequency / Hz"	"Sound Pressure Level / dB (re 20 µPa/V)  [2.83  V @ 1. m]"	"Frequency / Hz"	"Sound Pressure Level / dB (re 20 µPa/V)  [2.83  V @ 1. m]"	"Frequency / Hz"	"Sound Pressure Level / dB (re 20 µPa/V)  [2.83  V @ 1. m]"	"Frequency / Hz"	"Sound Pressure Level / dB (re 20 µPa/V)  [2.83  V @ 1. m]"	"Frequency / Hz"	"Sound Pressure Level / dB (re 20 µPa/V)  [2.83  V @ 1. m]"	"Frequency / Hz"	"Sound Pressure Level / dB (re 20 µPa/V)  [2.83  V @ 1. m]"	"Frequency / Hz"	"Sound Pressure Level / dB (re 20 µPa/V)  [2.83  V @ 1. m]"	"Frequency / Hz"	"Sound Pressure Level / dB (re 20 µPa/V)  [2.83  V @ 1. m]"	"Frequency / Hz"	"Sound Pressure Level / dB (re 20 µPa/V)  [2.83  V @ 1. m]"	"Frequency / Hz"	"Sound Pressure Level / dB (re 20 µPa/V)  [2.83  V @ 1. m]"	"Frequency / Hz"	"Sound Pressure Level / dB (re 20 µPa/V)  [2.83  V @ 1. m]"	"Frequency / Hz"	"Sound Pressure Level / dB (re 20 µPa/V)  [2.83  V @ 1. m]"	"Frequency / Hz"	"Sound Pressure Level / dB (re 20 µPa/V)  [2.83  V @ 1. m]"	"Frequency / Hz"	"Sound Pressure Level / dB (re 20 µPa/V)  [2.83  V @ 1. m]"	"Frequency / Hz"	"Sound Pressure Level / dB (re 20 µPa/V)  [2.83  V @ 1. m]"	"Frequency / Hz"	"Sound Pressure Level / dB (re 20 µPa/V)  [2.83  V @ 1. m]"	"Frequency / Hz"	"Sound Pressure Level / dB (re 20 µPa/V)  [2.83  V @ 1. m]"	"Frequency / Hz"	"Sound Pressure Level / dB (re 20 µPa/V)  [2.83  V @ 1. m]"	"Frequency / Hz"	"Sound Pressure Level / dB (re 20 µPa/V)  [2.83  V @ 1. m]"	"Frequency / Hz"	"Sound Pressure Level / dB (re 20 µPa/V)  [2.83  V @ 1. m]"	"Frequency / Hz"	"Sound Pressure Level / dB (re 20 µPa/V)  [2.83  V @ 1. m]"	"Frequency / Hz"	"Sound Pressure Level / dB (re 20 µPa/V)  [2.83  V @ 1. m]"	"Frequency / Hz"	"Sound Pressure Level / dB (re 20 µPa/V)  [2.83  V @ 1. m]"	"Frequency / Hz"	"Sound Pressure Level / dB (re 20 µPa/V)  [2.83  V @ 1. m]"	"Frequency / Hz"	"Sound Pressure Level / dB (re 20 µPa/V)  [2.83  V @ 1. m]"	"Frequency / Hz"	"Sound Pressure Level / dB (re 20 µPa/V)  [2.83  V @ 1. m]"	"Frequency / Hz"	"Sound Pressure Level / dB (re 20 µPa/V)  [2.83  V @ 1. m]"	"Frequency / Hz"	"Sound Pressure Level / dB (re 20 µPa/V)  [2.83  V @ 1. m]"	"Frequency / Hz"	"Sound Pressure Level / dB (re 20 µPa/V)  [2.83  V @ 1. m]"
20.1416	49.1495	20.1416	49.1689	20.1416	49.1154	20.1416	49.1777	20.1416	49.0653	20.1416	49.1824	20.1416	49.0012	20.1416	49.1908	20.1416	48.9275	20.1416	49.2103	20.1416	48.8515	20.1416	49.2464	20.1416	48.7825	20.1416	49.3023	20.1416	48.7331	20.1416	49.3793	20.1416	48.7188	20.1416	49.4771	20.1416	48.758	20.1416	49.5935	20.1416	48.8697	20.1416	49.7234	20.1416	49.068	20.1416	49.8622	20.1416	49.355	20.1416	50.0096	20.1416	49.7131	20.1416	50.1726	20.1416	50.1013	20.1416	50.3579	20.1416	50.4611	20.1416	50.5591	20.1416	50.7315	20.1416	50.7451	20.1416	50.8696	20.1416	50.8653
20.5078	41.2469	20.5078	41.2798	20.5078	41.1927	20.5078	41.3044	20.5078	41.1111	20.5078	41.3378	20.5078	41.0051	20.5078	41.3971	20.5078	40.8882	20.5078	41.4946	20.5078	40.7837	20.5078	41.6349	20.5078	40.7233	20.5078	41.8167	20.5078	40.7452	20.5078	42.0376	20.5078	40.891	20.5078	42.2968	20.5078	41.1968	20.5078	42.5932	20.5078	41.6766	20.5078	42.9228	20.5078	42.3106	20.5078	43.2801	20.5078	43.0483	20.5078	43.6645	20.5078	43.8195	20.5078	44.08	20.5078	44.5453	20.5078	44.5254	20.5078	45.1456	20.5078	44.9765	20.5078	45.5515	20.5078	45.3769	20.5078	45.7203	20.5078	45.6488
21.2402	49.5505	21.2402	49.3825	21.2402	49.6983	21.2402	49.1959	21.2402	49.8246	21.2402	48.9917	21.2402	49.9288	21.2402	48.7691	21.2402	50.0113	21.2402	48.5253	21.2402	50.0735	21.2402	48.2559	21.2402	50.1174	21.2402	47.957	21.2402	50.1433	21.2402	47.6281	21.2402	50.1471	21.2402	47.2745	21.2402	50.1174	21.2402	46.909	21.2402	50.0359	21.2402	46.5519	21.2402	49.8814	21.2402	46.2308	21.2402	49.6362	21.2402	45.9787	21.2402	49.2922	21.2402	45.8317	21.2402	48.8546	21.2402	45.8223	21.2402	48.3423	21.2402	45.9702	21.2402	47.786	21.2402	46.2729	21.2402	47.2251	21.2402	46.705
21.9727	48.6967	21.9727	48.2849	21.9727	49.1054	21.9727	47.875	21.9727	49.5081	21.9727	47.4733	21.9727	49.9038	21.9727	47.0858	21.9727	50.2923	21.9727	46.7172	21.9727	50.6729	21.9727	46.3707	21.9727	51.044	21.9727	46.0505	21.9727	51.4016	21.9727	45.7647	21.9727	51.738	21.9727	45.5278	21.9727	52.0389	21.9727	45.3612	21.9727	52.2811	21.9727	45.292	21.9727	52.4339	21.9727	45.3496	21.9727	52.4629	21.9727	45.5636	21.9727	52.3364	21.9727	45.959	21.9727	52.0324	21.9727	46.5464	21.9727	51.5424	21.9727	47.3103	21.9727	50.8752	21.9727	48.2015	21.9727	50.0595	21.9727	49.1449
22.7051	34.7559	22.7051	35.6357	22.7051	33.7297	22.7051	36.4	22.7051	32.4948	22.7051	37.0629	22.7051	30.9354	22.7051	37.6322	22.7051	28.8381	22.7051	38.1149	22.7051	25.7711	22.7051	38.5188	22.7051	20.6364	22.7051	38.8519	22.7051	12.8235	22.7051	39.1201	22.7051	20.6312	22.7051	39.3263	22.7051	26.1244	22.7051	39.4674	22.7051	29.3899	22.7051	39.5318	22.7051	31.4806	22.7051	39.4958	22.7051	32.7234	22.7051	39.3202	22.7051	33.2176	22.7051	38.9493	22.7051	33.0205	22.7051	38.3115	22.7051	32.3408	22.7051	37.3272	22.7051	31.8607	22.7051	35.9355	22.7051	32.5323	22.7051	34.1918
23.8037	53.8599	23.8037	53.6992	23.8037	54.0576	23.8037	53.5792	23.8037	54.2852	23.8037	53.5007	23.8037	54.5322	23.8037	53.4624	23.8037	54.7856	23.8037	53.4619	23.8037	55.032	23.8037	53.4953	23.8037	55.2586	23.8037	53.5586	23.8037	55.4538	23.8037	53.6484	23.8037	55.6075	23.8037	53.7623	23.8037	55.7114	23.8037	53.8987	23.8037	55.7597	23.8037	54.0563	23.8037	55.7502	23.8037	54.2333	23.8037	55.6878	23.8037	54.4251	23.8037	55.5872	23.8037	54.6225	23.8037	55.4722	23.8037	54.8113	23.8037	55.3688	23.8037	54.9741	23.8037	55.2921	23.8037	55.0978	23.8037	55.2368	23.8037	55.1805
24.5361	46.7689	24.5361	46.5642	24.5361	47.0197	24.5361	46.415	24.5361	47.3017	24.5361	46.3256	24.5361	47.5954	24.5361	46.2964	24.5361	47.8804	24.5361	46.3266	24.5361	48.1378	24.5361	46.4146	24.5361	48.3529	24.5361	46.5579	24.5361	48.5178	24.5361	46.7531	24.5361	48.6316	24.5361	46.9949	24.5361	48.6997	24.5361	47.2762	24.5361	48.7308	24.5361	47.5866	24.5361	48.7345	24.5361	47.9105	24.5361	48.7205	24.5361	48.2262	24.5361	48.7013	24.5361	48.5069	24.5361	48.6932	24.5361	48.7264	24.5361	48.7127	24.5361	48.8658	24.5361	48.7654	24.5361	48.9203	24.5361	48.8386	24.5361	48.902
25.2686	32.6511	25.2686	32.9737	25.2686	32.5828	25.2686	33.4993	25.2686	32.7798	25.2686	34.1604	25.2686	33.2098	25.2686	34.895	25.2686	33.8169	25.2686	35.6576	25.2686	34.5446	25.2686	36.4202	25.2686	35.3442	25.2686	37.1683	25.2686	36.1707	25.2686	37.8946	25.2686	36.9769	25.2686	38.5909	25.2686	37.7115	25.2686	39.2401	25.2686	38.325	25.2686	39.8097	25.2686	38.7784	25.2686	40.2518	25.2686	39.0513	25.2686	40.5114	25.2686	39.146	25.2686	40.5427	25.2686	39.0901	25.2686	40.3315	25.2686	38.9419	25.2686	39.9194	25.2686	38.7978	25.2686	39.4193	25.2686	38.7834	25.2686	38.9957
26.3672	28.3006	26.3672	28.9618	26.3672	27.9199	26.3672	29.8109	26.3672	27.8918	26.3672	30.7536	26.3672	28.2609	26.3672	31.7112	26.3672	29.0336	26.3672	32.6277	26.3672	30.1543	26.3672	33.4669	26.3672	31.4988	26.3672	34.2059	26.3672	32.9137	26.3672	34.8279	26.3672	34.2673	26.3672	35.3192	26.3672	35.472	26.3672	35.6714	26.3672	36.4804	26.3672	35.8889	26.3672	37.2726	26.3672	35.9975	26.3672	37.8454	26.3672	36.0482	26.3672	38.2053	26.3672	36.1095	26.3672	38.3633	26.3672	36.2487	26.3672	38.3316	26.3672	36.5085	26.3672	38.1261	26.3672	36.8879	26.3672	37.7763	26.3672	37.3373
27.0996	39.1741	27.0996	39.0902	27.0996	39.3185	27.0996	39.0609	27.0996	39.5311	27.0996	39.0832	27.0996	39.8191	27.0996	39.1561	27.0996	40.1849	27.0996	39.2795	27.0996	40.6231	27.0996	39.4536	27.0996	41.1188	27.0996	39.6789	27.0996	41.6479	27.0996	39.9576	27.0996	42.1818	27.0996	40.2919	27.0996	42.6925	27.0996	40.6802	27.0996	43.1572	27.0996	41.1105	27.0996	43.5594	27.0996	41.5578	27.0996	43.8862	27.0996	41.9897	27.0996	44.1243	27.0996	42.381	27.0996	44.2581	27.0996	42.7269	27.0996	44.2737	27.0996	43.045	27.0996	44.1672	27.0996	43.3582	27.0996	43.954	27.0996	43.6701
28.1982	41.0523	28.1982	41.3563	28.1982	40.7187	28.1982	41.6176	28.1982	40.3764	28.1982	41.8306	28.1982	40.054	28.1982	41.9958	28.1982	39.7849	28.1982	42.1168	28.1982	39.6024	28.1982	42.1971	28.1982	39.5322	28.1982	42.2374	28.1982	39.5882	28.1982	42.2342	28.1982	39.7762	28.1982	42.181	28.1982	40.0988	28.1982	42.0735	28.1982	40.5502	28.1982	41.9159	28.1982	41.0999	28.1982	41.73	28.1982	41.6864	28.1982	41.5624	28.1982	42.2334	28.1982	41.4837	28.1982	42.6715	28.1982	41.566	28.1982	42.9494	28.1982	41.8335	28.1982	43.0356	28.1982	42.2267	28.1982	42.9203	28.1982	42.6272
29.2969	34.2775	29.2969	34.3919	29.2969	34.2787	29.2969	34.5754	29.2969	34.4562	29.2969	34.8017	29.2969	34.8574	29.2969	35.0588	29.2969	35.4771	29.2969	35.3442	29.2969	36.2416	29.2969	35.6607	29.2969	37.0381	29.2969	36.015	29.2969	37.7628	29.2969	36.4149	29.2969	38.3522	29.2969	36.8663	29.2969	38.7906	29.2969	37.3697	29.2969	39.0998	29.2969	37.9164	29.2969	39.3189	29.2969	38.4846	29.2969	39.4859	29.2969	39.0392	29.2969	39.6308	29.2969	39.5372	29.2969	39.7764	29.2969	39.9376	29.2969	39.9366	29.2969	40.2113	29.2969	40.1071	29.2969	40.3474	29.2969	40.2606	29.2969	40.3545
30.0293	39.5068	30.0293	39.0041	30.0293	39.9535	30.0293	38.5251	30.0293	40.287	30.0293	38.168	30.0293	40.4669	30.0293	38.0242	30.0293	40.4645	30.0293	38.136	30.0293	40.2603	30.0293	38.4735	30.0293	39.8474	30.0293	38.9574	30.0293	39.2438	30.0293	39.5037	30.0293	38.5194	30.0293	40.053	30.0293	37.835	30.0293	40.5735	30.0293	37.4402	30.0293	41.0518	30.0293	37.5347	30.0293	41.4805	30.0293	38.0847	30.0293	41.8506	30.0293	38.8781	30.0293	42.1474	30.0293	39.7208	30.0293	42.3497	30.0293	40.508	30.0293	42.4317	30.0293	41.1918	30.0293	42.3674	30.0293	41.743	30.0293	42.139
31.1279	51.5629	31.1279	51.2335	31.1279	51.9114	31.1279	50.9468	31.1279	52.2565	31.1279	50.7242	31.1279	52.5784	31.1279	50.5822	31.1279	52.8617	31.1279	50.5302	31.1279	53.0961	31.1279	50.569	31.1279	53.2772	31.1279	50.6919	31.1279	53.4048	31.1279	50.8866	31.1279	53.4819	31.1279	51.1368	31.1279	53.5125	31.1279	51.424	31.1279	53.5014	31.1279	51.7279	31.1279	53.4551	31.1279	52.0279	31.1279	53.384	31.1279	52.3046	31.1279	53.3027	31.1279	52.5429	31.1279	53.2259	31.1279	52.734	31.1279	53.164	31.1279	52.8762	31.1279	53.1182	31.1279	52.9741	31.1279	53.0807	31.1279	53.0378
32.2266	52.2467	32.2266	52.1371	32.2266	52.397	32.2266	52.0796	32.2266	52.5741	32.2266	52.0815	32.2266	52.7643	32.2266	52.1449	32.2266	52.9554	32.2266	52.2672	32.2266	53.1382	32.2266	52.4419	32.2266	53.3065	32.2266	52.66	32.2266	53.4567	32.2266	52.9104	32.2266	53.5863	32.2266	53.1806	32.2266	53.6936	32.2266	53.4566	32.2266	53.7771	32.2266	53.7231	32.2266	53.8374	32.2266	53.9637	32.2266	53.8791	32.2266	54.1624	32.2266	53.9119	32.2266	54.3052	32.2266	53.9491	32.2266	54.3838	32.2266	54.0031	32.2266	54.3976	32.2266	54.0799	32.2266	54.3553	32.2266	54.1751	32.2266	54.2739
33.3252	54.2416	33.3252	53.978	33.3252	54.5417	33.3252	53.7624	33.3252	54.865	33.3252	53.6025	33.3252	55.1971	33.3252	53.5018	33.3252	55.5248	33.3252	53.4602	33.3252	55.8365	33.3252	53.4749	33.3252	56.122	33.3252	53.5423	33.3252	56.3731	33.3252	53.6584	33.3252	56.5824	33.3252	53.8195	33.3252	56.7433	33.3252	54.0212	33.3252	56.8504	33.3252	54.2575	33.3252	56.9002	33.3252	54.5198	33.3252	56.8927	33.3252	54.7968	33.3252	56.832	33.3252	55.0757	33.3252	56.7267	33.3252	55.3453	33.3252	56.5871	33.3252	55.598	33.3252	56.4232	33.3252	55.8307	33.3252	56.2415	33.3252	56.0444
34.79	53	34.79	53.0478	34.79	53.0214	34.79	53.163	34.79	53.1078	34.79	53.338	34.79	53.2511	34.79	53.5602	34.79	53.4411	34.79	53.8149	34.79	53.6675	34.79	54.0879	34.79	53.9204	34.79	54.3672	34.79	54.1912	34.79	54.6443	34.79	54.4715	34.79	54.9138	34.79	54.7531	34.79	55.1724	34.79	55.0274	34.79	55.4166	34.79	55.286	34.79	55.6421	34.79	55.5211	34.79	55.8425	34.79	55.7267	34.79	56.0107	34.79	55.8996	34.79	56.1398	34.79	56.0395	34.79	56.2252	34.79	56.1472	34.79	56.2658	34.79	56.2226	34.79	56.2635
35.8887	56.552	35.8887	56.3467	35.8887	56.7749	35.8887	56.1735	35.8887	57.0001	35.8887	56.0447	35.8887	57.2135	35.8887	55.9682	35.8887	57.4028	35.8887	55.946	35.8887	57.5585	35.8887	55.9739	35.8887	57.6735	35.8887	56.0421	35.8887	57.7438	35.8887	56.1367	35.8887	57.7673	35.8887	56.2422	35.8887	57.7437	35.8887	56.3437	35.8887	57.6744	35.8887	56.4286	35.8887	57.5624	35.8887	56.4878	35.8887	57.413	35.8887	56.5165	35.8887	57.2346	35.8887	56.5152	35.8887	57.0398	35.8887	56.4913	35.8887	56.8459	35.8887	56.4605	35.8887	56.6736	35.8887	56.4448	35.8887	56.5432	35.8887	56.4673
36.9873	58.7869	36.9873	58.6133	36.9873	58.9754	36.9873	58.4604	36.9873	59.171	36.9873	58.332	36.9873	59.3647	36.9873	58.229	36.9873	59.5479	36.9873	58.1504	36.9873	59.7125	36.9873	58.0938	36.9873	59.8518	36.9873	58.056	36.9873	59.9602	36.9873	58.0335	36.9873	60.0337	36.9873	58.0232	36.9873	60.0686	36.9873	58.0229	36.9873	60.0624	36.9873	58.0325	36.9873	60.0132	36.9873	58.0542	36.9873	59.9209	36.9873	58.0932	36.9873	59.7872	36.9873	58.1568	36.9873	59.617	36.9873	58.2522	36.9873	59.4176	36.9873	58.3846	36.9873	59.1988	36.9873	58.5536	36.9873	58.9729	36.9873	58.7534
38.4521	62.5339	38.4521	62.3873	38.4521	62.6962	38.4521	62.2625	38.4521	62.8668	38.4521	62.1642	38.4521	63.038	38.4521	62.095	38.4521	63.2026	38.4521	62.0554	38.4521	63.3545	38.4521	62.0445	38.4521	63.4886	38.4521	62.0603	38.4521	63.6015	38.4521	62.0997	38.4521	63.6907	38.4521	62.1596	38.4521	63.7547	38.4521	62.2369	38.4521	63.793	38.4521	62.3289	38.4521	63.8052	38.4521	62.4335	38.4521	63.7918	38.4521	62.5492	38.4521	63.7533	38.4521	62.6753	38.4521	63.6908	38.4521	62.8105	38.4521	63.6059	38.4521	62.9527	38.4521	63.5006	38.4521	63.0983	38.4521	63.3779	38.4521	63.242
39.917	64.6503	39.917	64.5283	39.917	64.7787	39.917	64.4185	39.917	64.907	39.917	64.3254	39.917	65.0286	39.917	64.2518	39.917	65.1375	39.917	64.1994	39.917	65.2286	39.917	64.1681	39.917	65.2985	39.917	64.1572	39.917	65.3453	39.917	64.165	39.917	65.3686	39.917	64.1896	39.917	65.3702	39.917	64.2284	39.917	65.3528	39.917	64.279	39.917	65.3197	39.917	64.3393	39.917	65.2737	39.917	64.4074	39.917	65.2171	39.917	64.4821	39.917	65.151	39.917	64.5621	39.917	65.0768	39.917	64.6464	39.917	64.9959	39.917	64.7336	39.917	64.9103	39.917	64.8222
41.3818	68.294	41.3818	68.2152	41.3818	68.3623	41.3818	68.1302	41.3818	68.4154	41.3818	68.0431	41.3818	68.4493	41.3818	67.9569	41.3818	68.461	41.3818	67.8736	41.3818	68.4483	41.3818	67.7935	41.3818	68.41	41.3818	67.7163	41.3818	68.3461	41.3818	67.6411	41.3818	68.2576	41.3818	67.5672	41.3818	68.1474	41.3818	67.4947	41.3818	68.0203	41.3818	67.425	41.3818	67.8831	41.3818	67.3602	41.3818	67.7441	41.3818	67.3032	41.3818	67.612	41.3818	67.257	41.3818	67.494	41.3818	67.224	41.3818	67.3947	41.3818	67.2063	41.3818	67.3164	41.3818	67.2055	41.3818	67.2593	41.3818	67.2227
42.8467	70.5125	42.8467	70.4436	42.8467	70.5843	42.8467	70.3788	42.8467	70.6567	42.8467	70.3184	42.8467	70.7267	42.8467	70.2622	42.8467	70.7907	42.8467	70.2094	42.8467	70.8442	42.8467	70.1594	42.8467	70.8827	42.8467	70.1117	42.8467	70.9016	42.8467	70.0667	42.8467	70.8974	42.8467	70.0259	42.8467	70.8679	42.8467	69.9911	42.8467	70.8127	42.8467	69.9649	42.8467	70.7342	42.8467	69.9492	42.8467	70.6372	42.8467	69.9448	42.8467	70.5285	42.8467	69.9512	42.8467	70.4165	42.8467	69.9673	42.8467	70.3096	42.8467	69.9923	42.8467	70.2147	42.8467	70.0271	42.8467	70.1359	42.8467	70.074
44.3115	72.2338	44.3115	72.1261	44.3115	72.339	44.3115	72.0195	44.3115	72.4379	44.3115	71.9174	44.3115	72.527	44.3115	71.8229	44.3115	72.6027	44.3115	71.7379	44.3115	72.6619	44.3115	71.6639	44.3115	72.7015	44.3115	71.6016	44.3115	72.7189	44.3115	71.5514	44.3115	72.7122	44.3115	71.5133	44.3115	72.6802	44.3115	71.4877	44.3115	72.6233	44.3115	71.4749	44.3115	72.5434	44.3115	71.4754	44.3115	72.4437	44.3115	71.4894	44.3115	72.3294	44.3115	71.5168	44.3115	72.2065	44.3115	71.5572	44.3115	72.0819	44.3115	71.6105	44.3115	71.9624	44.3115	71.6771	44.3115	71.8533	44.3115	71.7579
45.7764	74.1858	45.7764	74.1066	45.7764	74.26	45.7764	74.0251	45.7764	74.3265	45.7764	73.9435	45.7764	74.3825	45.7764	73.8639	45.7764	74.4252	45.7764	73.788	45.7764	74.4519	45.7764	73.7171	45.7764	74.4604	45.7764	73.6522	45.7764	74.4487	45.7764	73.5943	45.7764	74.4162	45.7764	73.5443	45.7764	74.3631	45.7764	73.5029	45.7764	74.291	45.7764	73.4708	45.7764	74.2029	45.7764	73.4484	45.7764	74.103	45.7764	73.4361	45.7764	73.9962	45.7764	73.4341	45.7764	73.8883	45.7764	73.4429	45.7764	73.7849	45.7764	73.4635	45.7764	73.6911	45.7764	73.4973	45.7764	73.6108	45.7764	73.5461
47.2412	76.0479	47.2412	75.9797	47.2412	76.1148	47.2412	75.9124	47.2412	76.1777	47.2412	75.8472	47.2412	76.2335	47.2412	75.785	47.2412	76.2789	47.2412	75.726	47.2412	76.3107	47.2412	75.6699	47.2412	76.3259	47.2412	75.6163	47.2412	76.3222	47.2412	75.5649	47.2412	76.298	47.2412	75.5159	47.2412	76.2532	47.2412	75.4698	47.2412	76.1887	47.2412	75.4276	47.2412	76.1067	47.2412	75.391	47.2412	76.0107	47.2412	75.3621	47.2412	75.9051	47.2412	75.3437	47.2412	75.7953	47.2412	75.3385	47.2412	75.6872	47.2412	75.3496	47.2412	75.5867	47.2412	75.3795	47.2412	75.4995	47.2412	75.4296
49.0723	78.2511	49.0723	78.1601	49.0723	78.3302	49.0723	78.061	49.0723	78.3942	49.0723	77.9577	49.0723	78.4402	49.0723	77.8541	49.0723	78.4659	49.0723	77.754	49.0723	78.4696	49.0723	77.6606	49.0723	78.4508	49.0723	77.5766	49.0723	78.4096	49.0723	77.504	49.0723	78.3473	49.0723	77.4437	49.0723	78.2662	49.0723	77.396	49.0723	78.1699	49.0723	77.3604	49.0723	78.0628	49.0723	77.3363	49.0723	77.9501	49.0723	77.323	49.0723	77.8374	49.0723	77.3202	49.0723	77.73	49.0723	77.3278	49.0723	77.6323	49.0723	77.3464	49.0723	77.5472	49.0723	77.3767	49.0723	77.4763	49.0723	77.4197
50.9033	80.3768	50.9033	80.3083	50.9033	80.4305	50.9033	80.2269	50.9033	80.4676	50.9033	80.1352	50.9033	80.4866	50.9033	80.0356	50.9033	80.4865	50.9033	79.931	50.9033	80.4667	50.9033	79.8241	50.9033	80.4273	50.9033	79.718	50.9033	80.3687	50.9033	79.6158	50.9033	80.2923	50.9033	79.5207	50.9033	80.2001	50.9033	79.4358	50.9033	80.0951	50.9033	79.3637	50.9033	79.9811	50.9033	79.3068	50.9033	79.8626	50.9033	79.2661	50.9033	79.7448	50.9033	79.2421	50.9033	79.6324	50.9033	79.2345	50.9033	79.5299	50.9033	79.2431	50.9033	79.4405	50.9033	79.2678	50.9033	79.3665	50.9033	79.3088
52.7344	82.5323	52.7344	82.4813	52.7344	82.5711	52.7344	82.4198	52.7344	82.5963	52.7344	82.3498	52.7344	82.6067	52.7344	82.2733	52.7344	82.6018	52.7344	82.1927	52.7344	82.5813	52.7344	82.1103	52.7344	82.5454	52.7344	82.0285	52.7344	82.4948	52.7344	81.9498	52.7344	82.4307	52.7344	81.8766	52.7344	82.3549	52.7344	81.8111	52.7344	82.2699	52.7344	81.7552	52.7344	82.1787	52.7344	81.7098	52.7344	82.0852	52.7344	81.6753	52.7344	81.9934	52.7344	81.6516	52.7344	81.9074	52.7344	81.6389	52.7344	81.8303	52.7344	81.6378	52.7344	81.7648	52.7344	81.6491	52.7344	81.7124	52.7344	81.6738
54.5654	84.1094	54.5654	84.06	54.5654	84.1477	54.5654	84.0012	54.5654	84.1733	54.5654	83.9355	54.5654	84.1853	54.5654	83.8654	54.5654	84.183	54.5654	83.7939	54.5654	84.1664	54.5654	83.7239	54.5654	84.1359	54.5654	83.6582	54.5654	84.0925	54.5654	83.5991	54.5654	84.0377	54.5654	83.548	54.5654	83.9738	54.5654	83.5058	54.5654	83.9037	54.5654	83.4722	54.5654	83.8304	54.5654	83.447	54.5654	83.7574	54.5654	83.4295	54.5654	83.688	54.5654	83.4197	54.5654	83.6248	54.5654	83.4174	54.5654	83.5697	54.5654	83.4228	54.5654	83.5234	54.5654	83.4359	54.5654	83.4859	54.5654	83.4569
56.3965	85.1451	56.3965	85.094	56.3965	85.188	56.3965	85.0373	56.3965	85.22	56.3965	84.9777	56.3965	85.2389	56.3965	84.9175	56.3965	85.2429	56.3965	84.8587	56.3965	85.2308	56.3965	84.803	56.3965	85.2024	56.3965	84.7512	56.3965	85.1586	56.3965	84.7037	56.3965	85.1015	56.3965	84.6604	56.3965	85.0342	56.3965	84.6211	56.3965	84.9603	56.3965	84.5855	56.3965	84.884	56.3965	84.5539	56.3965	84.8089	56.3965	84.527	56.3965	84.7384	56.3965	84.5062	56.3965	84.6748	56.3965	84.4931	56.3965	84.6198	56.3965	84.4891	56.3965	84.574	56.3965	84.4952	56.3965	84.5378	56.3965	84.5115
58.2275	85.7982	58.2275	85.7382	58.2275	85.8485	58.2275	85.6716	58.2275	85.8859	58.2275	85.6016	58.2275	85.9077	58.2275	85.5311	58.2275	85.9118	58.2275	85.4623	58.2275	85.8972	58.2275	85.3974	58.2275	85.8644	58.2275	85.3378	58.2275	85.8154	58.2275	85.2844	58.2275	85.7533	58.2275	85.2376	58.2275	85.6824	58.2275	85.1971	58.2275	85.6073	58.2275	85.1629	58.2275	85.5319	58.2275	85.135	58.2275	85.4594	58.2275	85.1143	58.2275	85.3921	58.2275	85.1019	58.2275	85.3311	58.2275	85.0994	58.2275	85.2769	58.2275	85.1075	58.2275	85.2292	58.2275	85.1258	58.2275	85.1878	58.2275	85.153
60.4248	85.6678	60.4248	85.6093	60.4248	85.7078	60.4248	85.5356	60.4248	85.7265	60.4248	85.4506	60.4248	85.722	60.4248	85.3583	60.4248	85.6931	60.4248	85.2628	60.4248	85.6398	60.4248	85.1681	60.4248	85.5636	60.4248	85.0777	60.4248	85.4674	60.4248	84.9943	60.4248	85.3557	60.4248	84.9201	60.4248	85.2346	60.4248	84.8559	60.4248	85.111	60.4248	84.8018	60.4248	84.9919	60.4248	84.7568	60.4248	84.8834	60.4248	84.7194	60.4248	84.7902	60.4248	84.6875	60.4248	84.7151	60.4248	84.6597	60.4248	84.6596	60.4248	84.6356	60.4248	84.6238	60.4248	84.6165	60.4248	84.6067	60.4248	84.6055
62.6221	85.3917	62.6221	85.3314	62.6221	85.4327	62.6221	85.2541	62.6221	85.4524	62.6221	85.163	62.6221	85.4498	62.6221	85.0615	62.6221	85.4246	62.6221	84.9535	62.6221	85.3769	62.6221	84.8428	62.6221	85.3082	62.6221	84.7332	62.6221	85.2203	62.6221	84.6277	62.6221	85.1163	62.6221	84.5292	62.6221	84.9999	62.6221	84.4397	62.6221	84.8759	62.6221	84.3605	62.6221	84.7497	62.6221	84.293	62.6221	84.627	62.6221	84.2379	62.6221	84.5132	62.6221	84.1962	62.6221	84.4125	62.6221	84.1685	62.6221	84.3276	62.6221	84.1556	62.6221	84.2599	62.6221	84.1578	62.6221	84.2094	62.6221	84.1756
64.8193	84.7857	64.8193	84.7337	64.8193	84.8208	64.8193	84.6672	64.8193	84.8371	64.8193	84.5892	64.8193	84.8336	64.8193	84.5036	64.8193	84.8105	64.8193	84.4139	64.8193	84.7684	64.8193	84.324	64.8193	84.7091	64.8193	84.2371	64.8193	84.6348	64.8193	84.1561	64.8193	84.5486	64.8193	84.0829	64.8193	84.4541	64.8193	84.0184	64.8193	84.355	64.8193	83.9631	64.8193	84.2555	64.8193	83.9165	64.8193	84.1597	64.8193	83.8784	64.8193	84.0713	64.8193	83.8483	64.8193	83.9934	64.8193	83.8265	64.8193	83.9285	64.8193	83.8137	64.8193	83.8778	64.8193	83.8109	64.8193	83.8417	64.8193	83.8198
67.0166	84.5424	67.0166	84.4901	67.0166	84.5761	67.0166	84.4221	67.0166	84.5895	67.0166	84.3417	67.0166	84.582	67.0166	84.2532	67.0166	84.5539	67.0166	84.1609	67.0166	84.5067	67.0166	84.0696	67.0166	84.443	67.0166	83.9834	67.0166	84.3663	67.0166	83.9058	67.0166	84.2807	67.0166	83.8393	67.0166	84.191	67.0166	83.7852	67.0166	84.1016	67.0166	83.7435	67.0166	84.0168	67.0166	83.7135	67.0166	83.9399	67.0166	83.6936	67.0166	83.873	67.0166	83.6821	67.0166	83.8172	67.0166	83.6773	67.0166	83.7725	67.0166	83.6781	67.0166	83.7382	67.0166	83.684	67.0166	83.7129	67.0166	83.6953
69.2139	84.7196	69.2139	84.6612	69.2139	84.7561	69.2139	84.5837	69.2139	84.7689	69.2139	84.491	69.2139	84.7572	69.2139	84.3878	69.2139	84.7216	69.2139	84.2792	69.2139	84.6638	69.2139	84.1707	69.2139	84.5866	69.2139	84.0673	69.2139	84.494	69.2139	83.9733	69.2139	84.391	69.2139	83.8921	69.2139	84.2829	69.2139	83.8257	69.2139	84.1756	69.2139	83.7746	69.2139	84.0743	69.2139	83.7381	69.2139	83.9837	69.2139	83.7146	69.2139	83.9065	69.2139	83.7018	69.2139	83.8441	69.2139	83.6973	69.2139	83.796	69.2139	83.6991	69.2139	83.7606	69.2139	83.7061	69.2139	83.7354	69.2139	83.7178
71.7773	84.9892	71.7773	84.9357	71.7773	85.0201	71.7773	84.8621	71.7773	85.0268	71.7773	84.7722	71.7773	85.0088	71.7773	84.6703	71.7773	84.9668	71.7773	84.5613	71.7773	84.9025	71.7773	84.4504	71.7773	84.8187	71.7773	84.3427	71.7773	84.7193	71.7773	84.2426	71.7773	84.6089	71.7773	84.1534	71.7773	84.493	71.7773	84.0775	71.7773	84.3771	71.7773	84.0154	71.7773	84.2666	71.7773	83.9669	71.7773	84.1662	71.7773	83.9303	71.7773	84.0793	71.7773	83.9038	71.7773	84.0079	71.7773	83.8857	71.7773	83.9528	71.7773	83.8746	71.7773	83.9134	71.7773	83.8706	71.7773	83.8879	71.7773	83.8744
74.3408	85.1866	74.3408	85.1329	74.3408	85.2163	74.3408	85.058	74.3408	85.2207	74.3408	84.9657	74.3408	85.1997	74.3408	84.8608	74.3408	85.1545	74.3408	84.7488	74.3408	85.0876	74.3408	84.6354	74.3408	85.0026	74.3408	84.5259	74.3408	84.904	74.3408	84.425	74.3408	84.7973	74.3408	84.3364	74.3408	84.688	74.3408	84.2622	74.3408	84.5815	74.3408	84.2031	74.3408	84.4822	74.3408	84.1588	74.3408	84.3934	74.3408	84.1278	74.3408	84.317	74.3408	84.1083	74.3408	84.2536	74.3408	84.0985	74.3408	84.2028	74.3408	84.0967	74.3408	84.1636	74.3408	84.1021	74.3408	84.1346	74.3408	84.1145
76.9043	85.53	76.9043	85.4736	76.9043	85.5603	76.9043	85.3936	76.9043	85.5633	76.9043	85.2939	76.9043	85.5392	76.9043	85.1793	76.9043	85.4894	76.9043	85.0556	76.9043	85.4166	76.9043	84.9291	76.9043	85.3244	76.9043	84.8058	76.9043	85.2177	76.9043	84.6912	76.9043	85.102	76.9043	84.5896	76.9043	84.9832	76.9043	84.504	76.9043	84.8669	76.9043	84.4358	76.9043	84.7582	76.9043	84.3851	76.9043	84.661	76.9043	84.3507	76.9043	84.5776	76.9043	84.3308	76.9043	84.5087	76.9043	84.3231	76.9043	84.4537	76.9043	84.3254	76.9043	84.4108	76.9043	84.3359	76.9043	84.378	76.9043	84.3534
79.834	85.7739	79.834	85.6996	79.834	85.8225	79.834	85.6035	79.834	85.843	79.834	85.4906	79.834	85.8342	79.834	85.3666	79.834	85.7968	79.834	85.2378	79.834	85.7332	79.834	85.1105	79.834	85.6474	79.834	84.9907	79.834	85.5446	79.834	84.8831	79.834	85.4311	79.834	84.7911	79.834	85.313	79.834	84.7164	79.834	85.1962	79.834	84.6591	79.834	85.0853	79.834	84.618	79.834	84.9839	79.834	84.5914	79.834	84.8939	79.834	84.5774	79.834	84.8163	79.834	84.5742	79.834	84.7508	79.834	84.5807	79.834	84.6969	79.834	84.5961	79.834	84.6537	79.834	84.6203
82.3975	85.0508	82.3975	84.9897	82.3975	85.0892	82.3975	84.9088	82.3975	85.1037	82.3975	84.812	82.3975	85.0942	82.3975	84.7041	82.3975	85.0619	82.3975	84.5911	82.3975	85.0096	82.3975	84.4792	82.3975	84.9411	82.3975	84.3746	82.3975	84.8613	82.3975	84.2827	82.3975	84.7754	82.3975	84.2074	82.3975	84.6884	82.3975	84.1508	82.3975	84.6047	82.3975	84.1131	82.3975	84.5276	82.3975	84.0927	82.3975	84.459	82.3975	84.087	82.3975	84.3991	82.3975	84.0931	82.3975	84.3471	82.3975	84.1082	82.3975	84.3015	82.3975	84.1302	82.3975	84.2605	82.3975	84.1574	82.3975	84.2231	82.3975	84.1886
85.3271	84.3407	85.3271	84.3024	85.3271	84.3506	85.3271	84.2388	85.3271	84.3309	85.3271	84.1545	85.3271	84.2823	85.3271	84.0558	85.3271	84.2072	85.3271	83.9495	85.3271	84.1098	85.3271	83.8429	85.3271	83.9958	85.3271	83.7427	85.3271	83.872	85.3271	83.6547	85.3271	83.7459	85.3271	83.5825	85.3271	83.6253	85.3271	83.5275	85.3271	83.5175	85.3271	83.4887	85.3271	83.4286	85.3271	83.4629	85.3271	83.3627	85.3271	83.4456	85.3271	83.3211	85.3271	83.4323	85.3271	83.3023	85.3271	83.419	85.3271	83.3024	85.3271	83.4032	85.3271	83.316	85.3271	83.3836	85.3271	83.3372	85.3271	83.361
88.2568	85.0579	88.2568	85.0202	88.2568	85.0687	88.2568	84.959	88.2568	85.0511	88.2568	84.8786	88.2568	85.005	88.2568	84.7846	88.2568	84.9319	88.2568	84.6825	88.2568	84.8351	88.2568	84.578	88.2568	84.719	88.2568	84.476	88.2568	84.5896	88.2568	84.3802	88.2568	84.4532	88.2568	84.2928	88.2568	84.3165	88.2568	84.2141	88.2568	84.186	88.2568	84.1434	88.2568	84.0672	88.2568	84.0786	88.2568	83.9644	88.2568	84.0177	88.2568	83.8809	88.2568	83.9596	88.2568	83.8186	88.2568	83.9044	88.2568	83.7781	88.2568	83.8536	88.2568	83.759	88.2568	83.8103	88.2568	83.7597	88.2568	83.7778
91.5527	85.9156	91.5527	85.8939	91.5527	85.9106	91.5527	85.8475	91.5527	85.8789	91.5527	85.78	91.5527	85.8225	91.5527	85.6967	91.5527	85.7451	91.5527	85.6041	91.5527	85.6519	91.5527	85.5087	91.5527	85.5494	91.5527	85.4167	91.5527	85.4445	91.5527	85.3334	91.5527	85.3441	91.5527	85.2618	91.5527	85.2541	91.5527	85.2033	91.5527	85.1785	91.5527	85.1577	91.5527	85.1193	91.5527	85.123	91.5527	85.0763	91.5527	85.0972	91.5527	85.0477	91.5527	85.0775	91.5527	85.0307	91.5527	85.0621	91.5527	85.0226	91.5527	85.0494	91.5527	85.0209	91.5527	85.0387	91.5527	85.0238	91.5527	85.03
94.8486	85.716	94.8486	85.6972	94.8486	85.6956	94.8486	85.6412	94.8486	85.6366	94.8486	85.5518	94.8486	85.5415	94.8486	85.4347	94.8486	85.4151	94.8486	85.2972	94.8486	85.2645	94.8486	85.1473	94.8486	85.0984	94.8486	84.9937	94.8486	84.9268	94.8486	84.8445	94.8486	84.7603	94.8486	84.7069	94.8486	84.6093	94.8486	84.5866	94.8486	84.4822	94.8486	84.4874	94.8486	84.3847	94.8486	84.4114	94.8486	84.3189	94.8486	84.3583	94.8486	84.2823	94.8486	84.326	94.8486	84.2694	94.8486	84.3101	94.8486	84.2722	94.8486	84.3046	94.8486	84.2825	94.8486	84.3032	94.8486	84.2933	94.8486	84.3004
98.1445	85.0785	98.1445	85.0668	98.1445	85.0385	98.1445	85.0053	98.1445	84.9471	98.1445	84.8985	98.1445	84.8071	98.1445	84.7524	98.1445	84.6243	98.1445	84.575	98.1445	84.407	98.1445	84.3752	98.1445	84.1664	98.1445	84.1627	98.1445	83.9162	98.1445	83.9476	98.1445	83.6716	98.1445	83.7398	98.1445	83.4484	98.1445	83.5486	98.1445	83.2609	98.1445	83.3823	98.1445	83.1196	98.1445	83.2474	98.1445	83.0287	98.1445	83.1481	98.1445	82.9854	98.1445	83.0847	98.1445	82.9795	98.1445	83.053	98.1445	82.9964	98.1445	83.0441	98.1445	83.0205	98.1445	83.0462	98.1445	83.0395	98.1445	83.0475
101.44	85.2588	101.44	85.1656	101.44	85.3226	101.44	85.0499	101.44	85.3509	101.44	84.9195	101.44	85.3388	101.44	84.7819	101.44	85.2826	101.44	84.6438	101.44	85.1801	101.44	84.5101	101.44	85.0306	101.44	84.3831	101.44	84.8354	101.44	84.262	101.44	84.5984	101.44	84.1431	101.44	84.3264	101.44	84.0205	101.44	84.0302	101.44	83.8875	101.44	83.7239	101.44	83.7386	101.44	83.4251	101.44	83.5716	101.44	83.1535	101.44	83.3888	101.44	82.929	101.44	83.1986	101.44	82.7682	101.44	83.0142	101.44	82.6818	101.44	82.8531	101.44	82.6721	101.44	82.7334
105.103	84.4758	105.103	84.4123	105.103	84.534	105.103	84.3442	105.103	84.5875	105.103	84.274	105.103	84.6378	105.103	84.205	105.103	84.6864	105.103	84.1414	105.103	84.7343	105.103	84.0868	105.103	84.7805	105.103	84.0439	105.103	84.8222	105.103	84.0143	105.103	84.8549	105.103	83.9981	105.103	84.8733	105.103	83.9947	105.103	84.8725	105.103	84.0029	105.103	84.8493	105.103	84.0212	105.103	84.8031	105.103	84.0483	105.103	84.7362	105.103	84.0831	105.103	84.6535	105.103	84.1251	105.103	84.5618	105.103	84.1746	105.103	84.4686	105.103	84.2329	105.103	84.3804	105.103	84.3013
108.765	84.7943	108.765	84.7299	108.765	84.8121	108.765	84.6247	108.765	84.7824	108.765	84.4888	108.765	84.7087	108.765	84.3366	108.765	84.5993	108.765	84.185	108.765	84.4662	108.765	84.052	108.765	84.3246	108.765	83.9528	108.765	84.1908	108.765	83.8972	108.765	84.0795	108.765	83.887	108.765	84.0015	108.765	83.9155	108.765	83.9611	108.765	83.9702	108.765	83.956	108.765	84.0359	108.765	83.9785	108.765	84.0989	108.765	84.0178	108.765	84.1495	108.765	84.0633	108.765	84.1829	108.765	84.1067	108.765	84.1991	108.765	84.1433	108.765	84.2006	108.765	84.1714	108.765	84.1907
112.793	85.2547	112.793	85.1985	112.793	85.265	112.793	85.0983	112.793	85.23	112.793	84.9587	112.793	85.1528	112.793	84.787	112.793	85.0389	112.793	84.593	112.793	84.896	112.793	84.3893	112.793	84.7343	112.793	84.1901	112.793	84.5653	112.793	84.0108	112.793	84.4014	112.793	83.8657	112.793	84.2545	112.793	83.7654	112.793	84.1341	112.793	83.7148	112.793	84.046	112.793	83.7111	112.793	83.9911	112.793	83.7443	112.793	83.9658	112.793	83.8001	112.793	83.9627	112.793	83.8631	112.793	83.9725	112.793	83.9201	112.793	83.9854	112.793	83.9623	112.793	83.9923	112.793	83.9861
116.455	84.6527	116.455	84.6079	116.455	84.6571	116.455	84.5253	116.455	84.6207	116.455	84.4093	116.455	84.5455	116.455	84.266	116.455	84.4359	116.455	84.1023	116.455	84.2987	116.455	83.9261	116.455	84.1427	116.455	83.7457	116.455	83.9785	116.455	83.5701	116.455	83.8175	116.455	83.4092	116.455	83.6707	116.455	83.2734	116.455	83.5478	116.455	83.1721	116.455	83.4548	116.455	83.1121	116.455	83.3937	116.455	83.0949	116.455	83.3615	116.455	83.1152	116.455	83.351	116.455	83.1616	116.455	83.3518	116.455	83.2198	116.455	83.3526	116.455	83.2755	116.455	83.3437	116.455	83.3184
120.85	84.634	120.85	84.5659	120.85	84.6527	120.85	84.452	120.85	84.6211	120.85	84.2989	120.85	84.5411	120.85	84.1153	120.85	84.4171	120.85	83.9122	120.85	84.2559	120.85	83.7021	120.85	84.0666	120.85	83.4977	120.85	83.8609	120.85	83.3111	120.85	83.6525	120.85	83.1533	120.85	83.4561	120.85	83.0323	120.85	83.2867	120.85	82.9531	120.85	83.1562	120.85	82.916	120.85	83.071	120.85	82.9165	120.85	83.0305	120.85	82.9451	120.85	83.0261	120.85	82.9894	120.85	83.0442	120.85	83.0356	120.85	83.0695	120.85	83.0717	120.85	83.0879	120.85	83.0899
124.878	84.431	124.878	84.3655	124.878	84.4473	124.878	84.2542	124.878	84.4134	124.878	84.1027	124.878	84.3306	124.878	83.9185	124.878	84.2027	124.878	83.7103	124.878	84.0359	124.878	83.4878	124.878	83.8382	124.878	83.2611	124.878	83.62	124.878	83.0413	124.878	83.3938	124.878	82.8402	124.878	83.1737	124.878	82.6703	124.878	82.975	124.878	82.5434	124.878	82.8119	124.878	82.4677	124.878	82.6948	124.878	82.4443	124.878	82.6272	124.878	82.4654	124.878	82.6038	124.878	82.5149	124.878	82.6115	124.878	82.5729	124.878	82.6327	124.878	82.621	124.878	82.6492	124.878	82.6474
129.272	83.9187	129.272	83.8408	129.272	83.9473	129.272	83.717	129.272	83.926	129.272	83.5539	129.272	83.857	129.272	83.3607	129.272	83.7448	129.272	83.1487	129.272	83.596	129.272	82.9301	129.272	83.419	129.272	82.7172	129.272	83.2241	129.272	82.5216	129.272	83.0232	129.272	82.3538	129.272	82.8299	129.272	82.2229	129.272	82.6584	129.272	82.1364	129.272	82.5218	129.272	82.0984	129.272	82.4292	129.272	82.1073	129.272	82.3825	129.272	82.155	129.272	82.3748	129.272	82.2265	129.272	82.3914	129.272	82.3038	129.272	82.4139	129.272	82.3694	129.272	82.4246	129.272	82.4112
134.033	83.2891	134.033	83.2194	134.033	83.3067	134.033	83.0997	134.033	83.2732	134.033	82.9344	134.033	83.192	134.033	82.7312	134.033	83.069	134.033	82.5005	134.033	82.9121	134.033	82.2555	134.033	82.7313	134.033	82.0118	134.033	82.5382	134.033	81.7871	134.033	82.3461	134.033	81.6	134.033	82.1695	134.033	81.4681	134.033	82.023	134.033	81.4044	134.033	81.9193	134.033	81.4136	134.033	81.8663	134.033	81.4886	134.033	81.864	134.033	81.6109	134.033	81.9026	134.033	81.7539	134.033	81.9635	134.033	81.8892	134.033	82.0229	134.033	81.993	134.033	82.0577	134.033	82.0504
138.794	82.6332	138.794	82.5675	138.794	82.6417	138.794	82.4458	138.794	82.5941	138.794	82.2722	138.794	82.4938	138.794	82.0538	138.794	82.3468	138.794	81.8011	138.794	82.1614	138.794	81.5294	138.794	81.9492	138.794	81.2591	138.794	81.7263	138.794	81.0163	138.794	81.5134	138.794	80.8312	138.794	81.3357	138.794	80.7326	138.794	81.2192	138.794	80.7393	138.794	81.1837	138.794	80.852	138.794	81.2349	138.794	81.0496	138.794	81.3605	138.794	81.2948	138.794	81.5319	138.794	81.5443	138.794	81.7123	138.794	81.7588	138.794	81.8649	138.794	81.9088	138.794	81.9599	138.794	81.9772
143.555	82.2403	143.555	82.1995	143.555	82.2288	143.555	82.1038	143.555	82.1653	143.555	81.9483	143.555	82.0478	143.555	81.7252	143.555	81.872	143.555	81.4243	143.555	81.6318	143.555	81.0348	143.555	81.3206	143.555	80.5511	143.555	80.9355	143.555	79.9835	143.555	80.4856	143.555	79.3773	143.555	80.0051	143.555	78.8361	143.555	79.5682	143.555	78.5216	143.555	79.2903	143.555	78.5796	143.555	79.2843	143.555	79.0173	143.555	79.5804	143.555	79.6844	143.555	80.0883	143.555	80.3853	143.555	80.6539	143.555	80.9739	143.555	81.137	143.555	81.3671	143.555	81.4444	143.555	81.5268
148.682	82.5905	148.682	82.4871	148.682	82.6666	148.682	82.3613	148.682	82.7187	148.682	82.2245	148.682	82.7563	148.682	82.0898	148.682	82.7902	148.682	81.9656	148.682	82.827	148.682	81.8491	148.682	82.8625	148.682	81.7238	148.682	82.8808	148.682	81.5616	148.682	82.8551	148.682	81.3298	148.682	82.7548	148.682	81.0017	148.682	82.5529	148.682	80.569	148.682	82.2355	148.682	80.0566	148.682	81.8109	148.682	79.5361	148.682	81.3158	148.682	79.1211	148.682	80.8123	148.682	78.919	148.682	80.3652	148.682	78.9573	148.682	80.0046	148.682	79.1629	148.682	79.7085	148.682	79.432
153.809	82.4102	153.809	82.3515	153.809	82.4005	153.809	82.2291	153.809	82.3248	153.809	82.0541	153.809	82.1921	153.809	81.8418	153.809	82.0179	153.809	81.6098	153.809	81.8214	153.809	81.3746	153.809	81.6227	153.809	81.1482	153.809	81.4381	153.809	80.9362	153.809	81.2766	153.809	80.7388	153.809	81.1396	153.809	80.5541	153.809	81.0232	153.809	80.3843	153.809	80.9233	153.809	80.2395	153.809	80.8387	153.809	80.1376	153.809	80.7705	153.809	80.0973	153.809	80.7176	153.809	80.1263	153.809	80.673	153.809	80.2141	153.809	80.623	153.809	80.3336	153.809	80.5525	153.809	80.4539
159.302	82.3638	159.302	82.2962	159.302	82.3548	159.302	82.1575	159.302	82.2699	159.302	81.9594	159.302	82.1158	159.302	81.718	159.302	81.9053	159.302	81.4529	159.302	81.6561	159.302	81.1841	159.302	81.3888	159.302	80.9292	159.302	81.1244	159.302	80.7009	159.302	80.8804	159.302	80.5056	159.302	80.6691	159.302	80.3458	159.302	80.4971	159.302	80.2232	159.302	80.3679	159.302	80.1414	159.302	80.2837	159.302	80.1051	159.302	80.2456	159.302	80.1157	159.302	80.2495	159.302	80.1657	159.302	80.283	159.302	80.2369	159.302	80.325	159.302	80.3045	159.302	80.3519	159.302	80.3465
164.795	82.198	164.795	82.1494	164.795	82.1687	164.795	82.027	164.795	82.0629	164.795	81.8402	164.795	81.8876	164.795	81.6031	164.795	81.6553	164.795	81.333	164.795	81.3832	164.795	81.0489	164.795	81.0918	164.795	80.7694	164.795	80.8035	164.795	80.5115	164.795	80.5399	164.795	80.2892	164.795	80.3198	164.795	80.1143	164.795	80.1562	164.795	79.996	164.795	80.0561	164.795	79.9409	164.795	80.0196	164.795	79.949	164.795	80.0394	164.795	80.0112	164.795	80.1013	164.795	80.1075	164.795	80.185	164.795	80.2103	164.795	80.2659	164.795	80.2916	164.795	80.3204	164.795	80.331
170.654	82.0956	170.654	82.0256	170.654	82.0774	170.654	81.8711	170.654	81.9726	170.654	81.6421	170.654	81.7886	170.654	81.354	170.654	81.5378	170.654	81.0277	170.654	81.2373	170.654	80.6879	170.654	80.9084	170.654	80.3611	170.654	80.5753	170.654	80.0731	170.654	80.2637	170.654	79.8458	170.654	79.9991	170.654	79.695	170.654	79.8044	170.654	79.6279	170.654	79.6951	170.654	79.6415	170.654	79.675	170.654	79.7219	170.654	79.7333	170.654	79.8456	170.654	79.8454	170.654	79.9834	170.654	79.979	170.654	80.106	170.654	80.1015	170.654	80.1894	170.654	80.1868	170.654	80.218
176.88	81.9181	176.88	81.8587	176.88	81.8888	176.88	81.7149	176.88	81.7713	176.88	81.4961	176.88	81.5704	176.88	81.2164	176.88	81.2953	176.88	80.8956	176.88	80.9594	176.88	80.5572	176.88	80.5807	176.88	80.2276	176.88	80.1823	176.88	79.932	176.88	79.7921	176.88	79.6916	176.88	79.4426	176.88	79.5202	176.88	79.1684	176.88	79.4235	176.88	78.9996	176.88	79.3986	176.88	78.9525	176.88	79.4348	176.88	79.0202	176.88	79.514	176.88	79.1715	176.88	79.612	176.88	79.3609	176.88	79.7007	176.88	79.5415	176.88	79.7535	176.88	79.6775	176.88	79.7493
183.105	81.555	183.105	81.4968	183.105	81.5315	183.105	81.3598	183.105	81.4283	183.105	81.1515	183.105	81.2526	183.105	80.8839	183.105	81.0166	183.105	80.5736	183.105	80.7371	183.105	80.2411	183.105	80.4341	183.105	79.9113	183.105	80.1297	183.105	79.6122	183.105	79.8459	183.105	79.3725	183.105	79.6032	183.105	79.2162	183.105	79.4194	183.105	79.1561	183.105	79.3078	183.105	79.1886	183.105	79.2746	183.105	79.2929	183.105	79.3148	183.105	79.4372	183.105	79.4116	183.105	79.5865	183.105	79.5379	183.105	79.7101	183.105	79.6627	183.105	79.7859	183.105	79.7576	183.105	79.8021
189.331	81.3959	189.331	81.3435	189.331	81.3535	189.331	81.201	189.331	81.2171	189.331	80.9785	189.331	80.9934	189.331	80.6914	189.331	80.6958	189.331	80.3607	189.331	80.3448	189.331	80.0133	189.331	79.9687	189.331	79.6815	189.331	79.6021	189.331	79.4013	189.331	79.2827	189.331	79.2066	189.331	79.045	189.331	79.1207	189.331	78.9123	189.331	79.1471	189.331	78.891	189.331	79.2671	189.331	78.9707	189.331	79.445	189.331	79.1273	189.331	79.6393	189.331	79.3295	189.331	79.8125	189.331	79.5441	189.331	79.937	189.331	79.7398	189.331	79.9951	189.331	79.891	189.331	79.9794
196.289	81.309	196.289	81.2474	196.289	81.2699	196.289	81.0935	196.289	81.129	196.289	80.8626	196.289	80.8923	196.289	80.5754	196.289	80.5735	196.289	80.2562	196.289	80.1938	196.289	79.9303	196.289	79.7825	196.289	79.6218	196.289	79.3769	196.289	79.3544	196.289	79.0198	196.289	79.1525	196.289	78.7536	196.289	79.0413	196.289	78.6101	196.289	79.0388	196.289	78.5996	196.289	79.1441	196.289	78.7077	196.289	79.3305	196.289	78.902	196.289	79.5504	196.289	79.143	196.289	79.7521	196.289	79.394	196.289	79.8942	196.289	79.6238	196.289	79.9529	196.289	79.8067	196.289	79.9215
202.881	81.52	202.881	81.4064	202.881	81.5056	202.881	81.174	202.881	81.3623	202.881	80.8421	202.881	81.096	202.881	80.4425	202.881	80.7201	202.881	80.0196	202.881	80.2565	202.881	79.6255	202.881	79.7394	202.881	79.309	202.881	79.2184	202.881	79.1004	202.881	78.7601	202.881	79.0049	202.881	78.4382	202.881	79.0081	202.881	78.3087	202.881	79.0883	202.881	78.379	202.881	79.2248	202.881	78.602	202.881	79.3963	202.881	78.9014	202.881	79.5781	202.881	79.2077	202.881	79.7419	202.881	79.4759	202.881	79.8618	202.881	79.6858	202.881	79.9203	202.881	79.8312	202.881	79.9101
210.205	82.3362	210.205	82.2265	210.205	82.3209	210.205	81.9909	210.205	82.1859	210.205	81.6333	210.205	81.9394	210.205	81.1662	210.205	81.5927	210.205	80.6156	210.205	81.16	210.205	80.0281	210.205	80.6585	210.205	79.474	210.205	80.1095	210.205	79.0369	210.205	79.5424	210.205	78.7846	210.205	79.0017	210.205	78.7332	210.205	78.5522	210.205	78.8412	210.205	78.2707	210.205	79.0386	210.205	78.2126	210.205	79.2615	210.205	78.3714	210.205	79.4668	210.205	78.6746	210.205	79.6295	210.205	79.0238	210.205	79.7338	210.205	79.3391	210.205	79.767	210.205	79.5755	210.205	79.7175
217.529	82.0692	217.529	81.9762	217.529	82.0455	217.529	81.773	217.529	81.9043	217.529	81.4717	217.529	81.6513	217.529	81.0897	217.529	81.2992	217.529	80.6498	217.529	80.8691	217.529	80.1821	217.529	80.3909	217.529	79.7241	217.529	79.9039	217.529	79.3209	217.529	79.4532	217.529	79.0175	217.529	79.0812	217.529	78.8458	217.529	78.8161	217.529	78.8099	217.529	78.6649	217.529	78.8824	217.529	78.6166	217.529	79.0167	217.529	78.6518	217.529	79.1638	217.529	78.7502	217.529	79.2851	217.529	78.8904	217.529	79.3554	217.529	79.0477	217.529	79.3628	217.529	79.1948	217.529	79.3061
225.22	81.9828	225.22	81.8907	225.22	81.9373	225.22	81.6633	225.22	81.7582	225.22	81.3105	225.22	81.4561	225.22	80.8511	225.22	81.0484	225.22	80.3176	225.22	80.5605	225.22	79.7601	225.22	80.0268	225.22	79.2481	225.22	79.4922	225.22	78.859	225.22	79.0106	225.22	78.6513	225.22	78.6393	225.22	78.635	225.22	78.4257	225.22	78.7689	225.22	78.3907	225.22	78.9875	225.22	78.5194	225.22	79.2321	225.22	78.7652	225.22	79.4638	225.22	79.0667	225.22	79.6596	225.22	79.3656	225.22	79.8034	225.22	79.6167	225.22	79.8812	225.22	79.7922	225.22	79.8803
233.276	82.5223	233.276	82.4354	233.276	82.4653	233.276	82.21	233.276	82.2649	233.276	81.8576	233.276	81.9278	233.276	81.3961	233.276	81.4672	233.276	80.8506	233.276	80.9038	233.276	80.2565	233.276	80.2689	233.276	79.6633	233.276	79.6074	233.276	79.1366	233.276	78.9807	233.276	78.7497	233.276	78.4613	233.276	78.5578	233.276	78.1143	233.276	78.5681	233.276	77.9724	233.276	78.7337	233.276	78.0226	233.276	78.9797	233.276	78.2188	233.276	79.2356	233.276	78.5041	233.276	79.4493	233.276	78.8245	233.276	79.5865	233.276	79.1328	233.276	79.6261	233.276	79.388	233.276	79.5586
241.333	82.3019	241.333	82.2029	241.333	82.2651	241.333	81.9727	241.333	82.0936	241.333	81.6206	241.333	81.7934	241.333	81.162	241.333	81.3764	241.333	80.6192	241.333	80.86	241.333	80.0262	241.333	80.2685	241.333	79.4336	241.333	79.636	241.333	78.9105	241.333	79.0093	241.333	78.5317	241.333	78.4499	241.333	78.3468	241.333	78.026	241.333	78.3502	241.333	77.7929	241.333	78.4849	241.333	77.7679	241.333	78.6777	241.333	77.9209	241.333	78.8714	241.333	78.1883	241.333	79.0325	241.333	78.4977	241.333	79.1419	241.333	78.786	241.333	79.1839	241.333	79.0089	241.333	79.1428
250.122	82.4438	250.122	82.3365	250.122	82.4079	250.122	82.0898	250.122	82.2326	250.122	81.7163	250.122	81.9288	250.122	81.2374	250.122	81.5138	250.122	80.6852	250.122	81.0126	250.122	80.1029	250.122	80.4591	250.122	79.5469	250.122	79.8979	250.122	79.0832	250.122	79.383	250.122	78.774	250.122	78.9705	250.122	78.6539	250.122	78.7047	250.122	78.7117	250.122	78.6039	250.122	78.8978	250.122	78.6565	250.122	79.149	250.122	78.8281	250.122	79.4102	250.122	79.0731	250.122	79.6404	250.122	79.3428	250.122	79.8098	250.122	79.5919	250.122	79.8967	250.122	79.7824	250.122	79.8881
258.911	83.0149	258.911	82.8803	258.911	82.9806	258.911	82.5811	258.911	82.7817	258.911	82.1311	258.911	82.4303	258.911	81.5544	258.911	81.9467	258.911	80.8859	258.911	81.3605	258.911	80.1718	258.911	80.7132	258.911	79.4715	258.911	80.0616	258.911	78.862	258.911	79.4786	258.911	78.4373	258.911	79.0424	258.911	78.2809	258.911	78.8108	258.911	78.4121	258.911	78.7947	258.911	78.7595	258.911	78.9558	258.911	79.202	258.911	79.2303	258.911	79.6325	258.911	79.5543	258.911	79.9879	258.911	79.8734	258.911	80.2412	258.911	80.1434	258.911	80.3841	258.911	80.3306	258.911	80.4137
268.066	83.4295	268.066	83.3168	268.066	83.3766	268.066	83.0408	268.066	83.1629	268.066	82.611	268.066	82.7994	268.066	82.0461	268.066	82.3031	268.066	81.3758	268.066	81.6956	268.066	80.6441	268.066	81.0039	268.066	79.91	268.066	80.2643	268.066	79.2445	268.066	79.5324	268.066	78.722	268.066	78.8936	268.066	78.4068	268.066	78.4538	268.066	78.3359	268.066	78.2932	268.066	78.5015	268.066	78.4099	268.066	78.8436	268.066	78.7192	268.066	79.2656	268.066	79.1113	268.066	79.6684	268.066	79.4995	268.066	79.9773	268.066	79.8284	268.066	80.1508	268.066	80.0629	268.066	80.1767
277.222	82.9518	277.222	82.8155	277.222	82.9252	277.222	82.528	277.222	82.7312	277.222	82.1055	277.222	82.3733	277.222	81.5649	277.222	81.8651	277.222	80.9205	277.222	81.2323	277.222	80.1858	277.222	80.5144	277.222	79.3867	277.222	79.765	277.222	78.5891	277.222	79.047	277.222	77.925	277.222	78.4269	277.222	77.5668	277.222	77.9706	277.222	77.6097	277.222	77.7385	277.222	77.9763	277.222	77.7681	277.222	78.4864	277.222	78.0428	277.222	78.9867	277.222	78.481	277.222	79.3964	277.222	78.9667	277.222	79.6846	277.222	79.395	277.222	79.8385	277.222	79.698	277.222	79.8465
287.109	82.1106	287.109	81.9371	287.109	82.1055	287.109	81.5897	287.109	81.9254	287.109	81.0858	287.109	81.5813	287.109	80.4618	287.109	81.0928	287.109	79.7779	287.109	80.4868	287.109	79.1101	287.109	79.796	287.109	78.5205	287.109	79.0594	287.109	78.0254	287.109	78.331	287.109	77.5984	287.109	77.6957	287.109	77.2215	287.109	77.2667	287.109	76.9456	287.109	77.1334	287.109	76.8925	287.109	77.2872	287.109	77.1531	287.109	77.6228	287.109	77.6679	287.109	78.0193	287.109	78.2538	287.109	78.4001	287.109	78.7352	287.109	78.7274	287.109	79.0173	287.109	78.9703	287.109	79.0843
297.363	82.1698	297.363	82.1164	297.363	82.0397	297.363	81.8752	297.363	81.7339	297.363	81.4502	297.363	81.261	297.363	80.8592	297.363	80.6329	297.363	80.1394	297.363	79.874	297.363	79.3524	297.363	79.0367	297.363	78.5856	297.363	78.2124	297.363	77.941	297.363	77.5209	297.363	77.5099	297.363	77.0656	297.363	77.3437	297.363	76.8911	297.363	77.4398	297.363	76.9873	297.363	77.7478	297.363	77.3205	297.363	78.1883	297.363	77.8326	297.363	78.6753	297.363	78.4295	297.363	79.1333	297.363	78.9994	297.363	79.504	297.363	79.4507	297.363	79.7454	297.363	79.7321	297.363	79.828
307.617	83.2907	307.617	83.1275	307.617	83.2604	307.617	82.7682	307.617	83.0444	307.617	82.2135	307.617	82.6567	307.617	81.4685	307.617	82.1158	307.617	80.5483	307.617	81.4396	307.617	79.493	307.617	80.6416	307.617	78.3905	307.617	79.7356	307.617	77.3999	307.617	78.7573	307.617	76.7299	307.617	77.8083	307.617	76.5298	307.617	77.0977	307.617	76.7769	307.617	76.8897	307.617	77.3185	307.617	77.2791	307.617	77.9957	307.617	78.0651	307.617	78.6978	307.617	78.9415	307.617	79.351	307.617	79.6926	307.617	79.8996	307.617	80.2169	307.617	80.297	307.617	80.4847	307.617	80.5032
318.604	83.0902	318.604	82.8706	318.604	83.0996	318.604	82.4571	318.604	82.8945	318.604	81.8756	318.604	82.4837	318.604	81.157	318.604	81.8908	318.604	80.3317	318.604	81.1558	318.604	79.4279	318.604	80.3359	318.604	78.4796	318.604	79.5002	318.604	77.549	318.604	78.7185	318.604	76.7591	318.604	78.0538	318.604	76.3003	318.604	77.5683	318.604	76.3391	318.604	77.3339	318.604	76.8605	318.604	77.4147	318.604	77.6623	318.604	77.8133	318.604	78.5152	318.604	78.4348	318.604	79.2669	318.604	79.1222	318.604	79.8383	318.604	79.7228	318.604	80.1878	318.604	80.1299	318.604	80.2892
329.956	83.9518	329.956	83.7044	329.956	83.9879	329.956	83.2544	329.956	83.8091	329.956	82.6172	329.956	83.4167	329.956	81.8165	329.956	82.8171	329.956	80.8864	329.956	82.0254	329.956	79.8749	329.956	81.0721	329.956	78.8487	329.956	80.0159	329.956	77.8992	329.956	78.9602	329.956	77.1466	329.956	78.0628	329.956	76.7341	329.956	77.5087	329.956	76.7877	329.956	77.4206	329.956	77.3284	329.956	77.7716	329.956	78.2119	329.956	78.4108	329.956	79.1984	329.956	79.1643	329.956	80.0766	329.956	79.8956	329.956	80.7199	329.956	80.5107	329.956	81.077	329.956	80.9431	329.956	81.1441
341.675	83.3628	341.675	83.1245	341.675	83.391	341.675	82.6827	341.675	83.2114	341.675	82.0516	341.675	82.8355	341.675	81.2515	341.675	82.2811	341.675	80.3092	341.675	81.5666	341.675	79.2628	341.675	80.7094	341.675	78.1724	341.675	79.7337	341.675	77.1356	341.675	78.6888	341.675	76.2938	341.675	77.6724	341.675	75.7994	341.675	76.8372	341.675	75.7424	341.675	76.3581	341.675	76.1031	341.675	76.3459	341.675	76.771	341.675	76.7648	341.675	77.5861	341.675	77.4459	341.675	78.378	341.675	78.1864	341.675	79.0056	341.675	78.829	341.675	79.3813	341.675	79.2758	341.675	79.4701
353.394	83.6391	353.394	83.445	353.394	83.6344	353.394	83.055	353.394	83.4361	353.394	82.481	353.394	83.0561	353.394	81.7428	353.394	82.5113	353.394	80.8628	353.394	81.8211	353.394	79.8623	353.394	81.0039	353.394	78.7691	353.394	80.0757	353.394	77.6445	353.394	79.0662	353.394	76.6256	353.394	78.0596	353.394	75.9292	353.394	77.2382	353.394	75.7389	353.394	76.8361	353.394	76.0486	353.394	76.9523	353.394	76.6907	353.394	77.4515	353.394	77.4812	353.394	78.1111	353.394	78.2762	353.394	78.7594	353.394	78.9602	353.394	79.2833	353.394	79.4413	353.394	79.6019	353.394	79.6614
365.845	83.4505	365.845	83.208	365.845	83.4796	365.845	82.7575	365.845	83.3002	365.845	82.1196	365.845	82.9229	365.845	81.3305	365.845	82.3607	365.845	80.4395	365.845	81.6305	365.845	79.4982	365.845	80.7575	365.845	78.5447	365.845	79.7798	365.845	77.6022	365.845	78.7552	365.845	76.7266	365.845	77.78	365.845	76.0798	365.845	77.0136	365.845	75.9029	365.845	76.6454	365.845	76.2861	365.845	76.7539	365.845	77.0343	365.845	77.2196	365.845	77.8676	365.845	77.8434	365.845	78.6056	365.845	78.4759	365.845	79.1632	365.845	79.0232	365.845	79.4963	365.845	79.4111	365.845	79.5794
379.028	83.5434	379.028	83.3226	379.028	83.5495	379.028	82.8944	379.028	83.3363	379.028	82.2612	379.028	82.9103	379.028	81.4176	379.028	82.2933	379.028	80.3599	379.028	81.5221	379.028	79.1146	379.028	80.6412	379.028	77.7832	379.028	79.6907	379.028	76.5772	379.028	78.7046	379.028	75.7558	379.028	77.7468	379.028	75.4561	379.028	76.9934	379.028	75.6474	379.028	76.7411	379.028	76.2525	379.028	77.14	379.028	77.1612	379.028	77.9551	379.028	78.1818	379.028	78.8223	379.028	79.1075	379.028	79.5308	379.028	79.8045	379.028	80.0244	379.028	80.226	379.028	80.3081	379.028	80.383
392.212	84.6104	392.212	84.3966	392.212	84.613	392.212	83.9846	392.212	84.4008	392.212	83.3968	392.212	83.9754	392.212	82.6551	392.212	83.3382	392.212	81.7645	392.212	82.4892	392.212	80.7009	392.212	81.4336	392.212	79.425	392.212	80.1976	392.212	77.9467	392.212	78.8439	392.212	76.4702	392.212	77.4884	392.212	75.5309	392.212	76.3455	392.212	75.6221	392.212	75.8083	392.212	76.5177	392.212	76.2495	392.212	77.6822	392.212	77.4693	392.212	78.8262	392.212	78.8696	392.212	79.8349	392.212	80.0441	392.212	80.6327	392.212	80.8553	392.212	81.1619	392.212	81.2949	392.212	81.3892
406.128	85.2081	406.128	85.0247	406.128	85.1252	406.128	84.566	406.128	84.7979	406.128	83.8469	406.128	84.2537	406.128	82.9142	406.128	83.5186	406.128	81.8419	406.128	82.6117	406.128	80.7	406.128	81.5415	406.128	79.5007	406.128	80.3153	406.128	78.1748	406.128	78.9646	406.128	76.6543	406.128	77.5813	406.128	75.1328	406.128	76.3459	406.128	74.4304	406.128	75.5389	406.128	75.2911	406.128	75.5015	406.128	77.0216	406.128	76.3714	406.128	78.7088	406.128	77.8052	406.128	80.0339	406.128	79.28	406.128	80.9499	406.128	80.4649	406.128	81.4603	406.128	81.2327	406.128	81.5601
420.41	85.5375	420.41	85.3101	420.41	85.5089	420.41	84.8434	420.41	85.2137	420.41	84.1493	420.41	84.6567	420.41	83.231	420.41	83.8628	420.41	82.0902	420.41	82.8705	420.41	80.7499	420.41	81.7121	420.41	79.2814	420.41	80.3892	420.41	77.8109	420.41	78.8847	420.41	76.4769	420.41	77.2601	420.41	75.3896	420.41	75.8376	420.41	74.7255	420.41	75.1853	420.41	74.836	420.41	75.5179	420.41	75.8731	420.41	76.4867	420.41	77.4114	420.41	77.7437	420.41	78.916	420.41	79.0533	420.41	80.1043	420.41	80.1747	420.41	80.8648	420.41	80.9059	420.41	81.142
435.425	84.573	435.425	84.4026	435.425	84.4748	435.425	83.9633	435.425	84.1106	435.425	83.2604	435.425	83.4865	435.425	82.3107	435.425	82.6187	435.425	81.1422	435.425	81.5433	435.425	79.7813	435.425	80.3203	435.425	78.2362	435.425	79.017	435.425	76.5169	435.425	77.6682	435.425	74.761	435.425	76.2655	435.425	73.4488	435.425	74.8563	435.425	73.1903	435.425	73.7644	435.425	73.8967	435.425	73.6094	435.425	75.0474	435.425	74.5891	435.425	76.3903	435.425	76.159	435.425	77.7986	435.425	77.7626	435.425	79.0599	435.425	79.0911	435.425	79.9334	435.425	79.9598	435.425	80.2531
450.806	84.3399	450.806	84.1144	450.806	84.3053	450.806	83.634	450.806	84.0114	450.806	82.9149	450.806	83.4628	450.806	81.9891	450.806	82.6621	450.806	80.9011	450.806	81.6037	450.806	79.6826	450.806	80.2691	450.806	78.3041	450.806	78.6335	450.806	76.6307	450.806	76.6997	450.806	74.445	450.806	74.599	450.806	71.6952	450.806	72.8285	450.806	69.7678	450.806	72.3292	450.806	71.3049	450.806	73.4161	450.806	74.1687	450.806	75.2568	450.806	76.473	450.806	77.1001	450.806	78.1091	450.806	78.6188	450.806	79.2468	450.806	79.6865	450.806	79.9919	450.806	80.26	450.806	80.3469
466.553	85.4478	466.553	85.2074	466.553	85.4229	466.553	84.7361	466.553	85.0957	466.553	84.0508	466.553	84.4496	466.553	83.1491	466.553	83.5104	466.553	82.0285	466.553	82.3574	466.553	80.7188	466.553	81.0911	466.553	79.2918	466.553	79.7419	466.553	77.7948	466.553	78.1871	466.553	76.123	466.553	76.1882	466.553	73.9773	466.553	73.6127	466.553	71.2124	466.553	71.2192	466.553	69.8752	466.553	71.2226	466.553	72.6358	466.553	73.1605	466.553	75.9187	466.553	75.2404	466.553	78.2676	466.553	77.1491	466.553	79.7595	466.553	78.8094	466.553	80.5245	466.553	80.0155	466.553	80.6062
483.032	85.6212	483.032	85.4065	483.032	85.5571	483.032	84.9206	483.032	85.2244	483.032	84.1836	483.032	84.6381	483.032	83.2131	483.032	83.7949	483.032	82.0126	483.032	82.6662	483.032	80.5736	483.032	81.2304	483.032	78.8921	483.032	79.5424	483.032	76.9988	483.032	77.7868	483.032	74.9952	483.032	76.1281	483.032	73.0632	483.032	74.3776	483.032	71.476	483.032	72.1962	483.032	70.8872	483.032	70.8853	483.032	72.214	483.032	73.1245	483.032	74.8202	483.032	76.1692	483.032	77.3155	483.032	78.2587	483.032	79.1084	483.032	79.5024	483.032	80.113	483.032	80.19	483.032	80.4233
499.878	84.338	499.878	84.194	499.878	84.2099	499.878	83.7919	499.878	83.8147	499.878	83.1645	499.878	83.1623	499.878	82.3374	499.878	82.2619	499.878	81.2914	499.878	81.136	499.878	79.9566	499.878	79.8472	499.878	78.2643	499.878	78.5005	499.878	76.2208	499.878	77.1766	499.878	73.9207	499.878	75.8063	499.878	71.4034	499.878	74.0849	499.878	68.4944	499.878	71.5509	499.878	65.7873	499.878	68.4591	499.878	67.1197	499.878	68.989	499.878	70.8682	499.878	72.5921	499.878	73.8209	499.878	75.3263	499.878	75.831	499.878	76.9464	499.878	77.11	499.878	77.702	499.878	77.7372
517.456	86.0403	517.456	85.8339	517.456	85.9239	517.456	85.2813	517.456	85.5036	517.456	84.3777	517.456	84.7962	517.456	83.1773	517.456	83.8337	517.456	81.8237	517.456	82.6777	517.456	80.5081	517.456	81.4039	517.456	79.3216	517.456	80.0509	517.456	78.1284	517.456	78.5738	517.456	76.6429	517.456	76.8791	517.456	74.627	517.456	74.9558	517.456	72.0716	517.456	73.0599	517.456	69.8584	517.456	71.9494	517.456	71.0302	517.456	72.7684	517.456	74.626	517.456	75.1717	517.456	77.5787	517.456	77.5962	517.456	79.4165	517.456	79.3201	517.456	80.3504	517.456	80.2851	517.456	80.6083
535.767	84.9888	535.767	84.8038	535.767	84.8782	535.767	84.363	535.767	84.4728	535.767	83.7101	535.767	83.8281	535.767	82.857	535.767	83.0339	535.767	81.7816	535.767	82.1588	535.767	80.4802	535.767	81.1918	535.767	79.0437	535.767	80.0276	535.767	77.6336	535.767	78.518	535.767	76.2426	535.767	76.5557	535.767	74.5747	535.767	74.1385	535.767	72.3998	535.767	71.3343	535.767	69.9529	535.767	68.2715	535.767	67.8119	535.767	66.6786	535.767	67.5491	535.767	69.3451	535.767	70.7637	535.767	72.7992	535.767	74.169	535.767	75.2055	535.767	76.2019	535.767	76.5546	535.767	76.9208
554.81	85.5205	554.81	85.2896	554.81	85.4666	554.81	84.7874	554.81	85.1435	554.81	84.0675	554.81	84.5754	554.81	83.2055	554.81	83.775	554.81	82.2506	554.81	82.7445	554.81	81.1808	554.81	81.5172	554.81	79.9264	554.81	80.2096	554.81	78.4728	554.81	78.9344	554.81	76.9183	554.81	77.5302	554.81	75.2319	554.81	75.4465	554.81	72.7999	554.81	71.8717	554.81	68.4072	554.81	66.4374	554.81	65.3862	554.81	66.9056	554.81	70.6814	554.81	71.4162	554.81	74.279	554.81	74.3832	554.81	76.2591	554.81	76.2699	554.81	77.3214	554.81	77.3425	554.81	77.6797
574.219	85.2697	574.219	85.1085	574.219	85.1614	574.219	84.6819	574.219	84.7973	574.219	84.003	574.219	84.2069	574.219	83.0982	574.219	83.4163	574.219	82.0318	574.219	82.4427	574.219	80.9073	574.219	81.3123	574.219	79.8062	574.219	80.0647	574.219	78.7068	574.219	78.7304	574.219	77.5024	574.219	77.3353	574.219	76.1521	574.219	75.8864	574.219	74.8077	574.219	74.1514	574.219	73.5959	574.219	71.4414	574.219	72.3166	574.219	66.9624	574.219	71.275	574.219	65.2424	574.219	72.0831	574.219	69.6478	574.219	74.0567	574.219	72.7272	574.219	75.2829	574.219	74.4967	574.219	75.3683
594.727	84.9747	594.727	84.7889	594.727	84.9441	594.727	84.3793	594.727	84.6869	594.727	83.7405	594.727	84.184	594.727	82.8931	594.727	83.4314	594.727	81.886	594.727	82.4468	594.727	80.7886	594.727	81.235	594.727	79.6874	594.727	79.7678	594.727	78.6311	594.727	78.0684	594.727	77.4889	594.727	76.2777	594.727	75.8991	594.727	74.4037	594.727	73.3679	594.727	72.1436	594.727	69.3663	594.727	69.4	594.727	65.1463	594.727	66.8279	594.727	67.4006	594.727	66.5726	594.727	71.1667	594.727	70.3971	594.727	73.8839	594.727	74.1745	594.727	75.717	594.727	76.1993	594.727	76.5902
615.601	85.6501	615.601	85.4811	615.601	85.4421	615.601	84.9523	615.601	84.8891	615.601	84.1336	615.601	84.0618	615.601	83.1321	615.601	83.0455	615.601	82.0494	615.601	81.9111	615.601	80.9273	615.601	80.6945	615.601	79.7008	615.601	79.3788	615.601	78.2255	615.601	77.8881	615.601	76.4937	615.601	76.1515	615.601	74.9221	615.601	74.1534	615.601	73.8625	615.601	71.7206	615.601	72.6294	615.601	68.3407	615.601	70.742	615.601	65.4983	615.601	70.7885	615.601	68.7778	615.601	73.6636	615.601	72.8455	615.601	76.0626	615.601	75.5776	615.601	77.356	615.601	77.1492	615.601	77.7085
637.207	84.7445	637.207	84.5984	637.207	84.67	637.207	84.2272	637.207	84.343	637.207	83.5864	637.207	83.7306	637.207	82.6414	637.207	82.8275	637.207	81.4391	637.207	81.6586	637.207	80.1315	637.207	80.2852	637.207	78.9089	637.207	78.8377	637.207	77.8368	637.207	77.4799	637.207	76.69	637.207	76.2492	637.207	75.0999	637.207	75.0157	637.207	73.0805	637.207	73.618	637.207	71.3599	637.207	71.8286	637.207	70.2124	637.207	69.245	637.207	68.886	637.207	66.5357	637.207	67.8706	637.207	68.0678	637.207	69.149	637.207	71.3292	637.207	71.5522	637.207	73.0559	637.207	73.0627
659.912	83.1281	659.912	82.7072	659.912	83.1755	659.912	81.9874	659.912	82.8218	659.912	81.0459	659.912	82.0887	659.912	79.9167	659.912	81.041	659.912	78.6255	659.912	79.8018	659.912	77.2396	659.912	78.5655	659.912	75.8007	659.912	77.5006	659.912	74.3627	659.912	76.5333	659.912	73.3164	659.912	75.346	659.912	72.9628	659.912	73.7057	659.912	72.5005	659.912	71.5832	659.912	70.8678	659.912	68.7702	659.912	67.9805	659.912	65.4006	659.912	67.5725	659.912	66.2693	659.912	71.3406	659.912	70.0717	659.912	74.4525	659.912	72.8714	659.912	75.9238	659.912	74.8026	659.912	75.9223
682.983	83.472	682.983	83.1866	682.983	83.3152	682.983	82.5807	682.983	82.7068	682.983	81.769	682.983	81.791	682.983	80.7806	682.983	80.768	682.983	79.5926	682.983	79.7324	682.983	78.2181	682.983	78.6448	682.983	76.7744	682.983	77.4561	682.983	75.4111	682.983	76.1878	682.983	73.9831	682.983	74.8807	682.983	72.1248	682.983	73.4946	682.983	70.2519	682.983	71.7556	682.983	69.8858	682.983	68.9913	682.983	70.8165	682.983	64.5671	682.983	72.0076	682.983	63.4865	682.983	73.3052	682.983	68.1934	682.983	74.4132	682.983	71.7513	682.983	75.0165	682.983	73.9093	682.983	74.9223
707.153	83.2952	707.153	83.4279	707.153	82.787	707.153	83.1433	707.153	81.9714	707.153	82.4819	707.153	80.9334	707.153	81.5555	707.153	79.7958	707.153	80.4452	707.153	78.6242	707.153	79.1336	707.153	77.3383	707.153	77.5601	707.153	75.9393	707.153	75.77	707.153	74.6736	707.153	74.0617	707.153	73.5098	707.153	72.653	707.153	72.0848	707.153	70.8915	707.153	70.6656	707.153	68.3278	707.153	69.8211	707.153	68.3359	707.153	68.7083	707.153	70.6441	707.153	67.2243	707.153	71.9046	707.153	68.1354	707.153	72.6861	707.153	70.6973	707.153	73.4673	707.153	72.655	707.153	73.5924
732.056	81.6822	732.056	81.8069	732.056	81.298	732.056	81.6069	732.056	80.6374	732.056	80.9982	732.056	79.6771	732.056	80.0254	732.056	78.4665	732.056	78.8568	732.056	77.1917	732.056	77.6085	732.056	76.0956	732.056	76.3278	732.056	75.1117	732.056	75.1559	732.056	73.9697	732.056	73.9961	732.056	72.8094	732.056	72.4608	732.056	71.8396	732.056	71.0144	732.056	70.1328	732.056	70.0315	732.056	65.9035	732.056	67.6216	732.056	54.093	732.056	64.1518	732.056	57.6645	732.056	68.6457	732.056	65.5383	732.056	72.8732	732.056	70.615	732.056	75.1188	732.056	74.1154	732.056	75.6082
757.69	83.1222	757.69	83.2274	757.69	82.5973	757.69	82.9044	757.69	81.7439	757.69	82.2101	757.69	80.6912	757.69	81.2451	757.69	79.4909	757.69	80.1388	757.69	78.0802	757.69	79.0212	757.69	76.4397	757.69	77.8456	757.69	74.8694	757.69	76.3837	757.69	73.8764	757.69	74.7787	757.69	73.3611	757.69	73.4127	757.69	72.768	757.69	71.5935	757.69	72.0314	757.69	68.5522	757.69	71.0885	757.69	66.2695	757.69	68.5684	757.69	67.0159	757.69	60.4391	757.69	70.1393	757.69	59.8753	757.69	73.2873	757.69	68.7036	757.69	74.6214	757.69	72.2288	757.69	74.116
784.424	81.7678	784.424	81.8986	784.424	81.0583	784.424	81.4788	784.424	79.9869	784.424	80.7729	784.424	78.8752	784.424	80.0759	784.424	77.9279	784.424	79.3641	784.424	77.0217	784.424	78.2586	784.424	75.6737	784.424	76.5564	784.424	73.5442	784.424	74.7035	784.424	71.3299	784.424	73.0953	784.424	70.6024	784.424	71.2408	784.424	70.6824	784.424	69.5614	784.424	70.4124	784.424	68.619	784.424	70.1404	784.424	66.1912	784.424	69.4691	784.424	64.0324	784.424	66.5862	784.424	67.9614	784.424	59.0873	784.424	70.1414	784.424	65.6643	784.424	71.1208	784.424	70.3038	784.424	71.5194
812.256	81.7912	812.256	82.0368	812.256	81.3154	812.256	81.9096	812.256	80.7041	812.256	81.4118	812.256	79.9551	812.256	80.7157	812.256	79.0174	812.256	79.8931	812.256	77.8743	812.256	78.8405	812.256	76.7344	812.256	77.5885	812.256	75.8977	812.256	76.3497	812.256	75.0127	812.256	75.2218	812.256	73.6021	812.256	74.2359	812.256	72.1345	812.256	73.1626	812.256	70.9646	812.256	70.8646	812.256	69.6715	812.256	66.7134	812.256	68.0503	812.256	65.9394	812.256	65.1067	812.256	69.0769	812.256	62.3494	812.256	71.454	812.256	65.6848	812.256	72.3691	812.256	69.0264	812.256	71.4558
840.82	82.0196	840.82	82.0655	840.82	81.7514	840.82	81.9511	840.82	81.2266	840.82	81.6224	840.82	80.3448	840.82	80.8005	840.82	79.0811	840.82	79.4248	840.82	77.7289	840.82	78.0829	840.82	76.513	840.82	77.0865	840.82	75.1558	840.82	75.615	840.82	73.5618	840.82	73.5571	840.82	72.3362	840.82	72.2202	840.82	71.2361	840.82	71.1086	840.82	69.8541	840.82	69.182	840.82	70.1141	840.82	68.332	840.82	70.9485	840.82	69.2816	840.82	69.3999	840.82	71.8583	840.82	66.6073	840.82	74.7063	840.82	68.753	840.82	75.8239	840.82	72.4309	840.82	74.9579
870.483	83.3574	870.483	83.1689	870.483	83.117	870.483	82.6234	870.483	82.4105	870.483	81.7172	870.483	81.4278	870.483	80.5924	870.483	80.3511	870.483	79.3887	870.483	79.1542	870.483	77.8303	870.483	77.961	870.483	75.988	870.483	76.8283	870.483	74.9852	870.483	75.0726	870.483	74.6506	870.483	72.7645	870.483	73.1249	870.483	72.2094	870.483	71.1353	870.483	72.2167	870.483	70.4002	870.483	70.7126	870.483	67.739	870.483	69.2915	870.483	66.1528	870.483	68.8362	870.483	70.1663	870.483	68.8447	870.483	73.1533	870.483	70.8943	870.483	74.4205	870.483	72.8603	870.483	74.1617
901.245	84.5593	901.245	84.2079	901.245	84.4552	901.245	83.4756	901.245	83.8647	901.245	82.289	901.245	82.9553	901.245	80.5648	901.245	82.0025	901.245	78.5354	901.245	81.0614	901.245	76.5753	901.245	79.8305	901.245	74.4505	901.245	78.1901	901.245	72.2731	901.245	76.8162	901.245	71.9158	901.245	76.1526	901.245	71.4205	901.245	75.5694	901.245	68.7727	901.245	74.6764	901.245	66.4481	901.245	73.1048	901.245	66.5284	901.245	70.0295	901.245	68.9228	901.245	65.2077	901.245	72.7516	901.245	63.9128	901.245	75.151	901.245	69.8231	901.245	76.4128	901.245	74.3878	901.245	76.3969
933.105	83.8948	933.105	82.8893	933.105	84.2152	933.105	81.5064	933.105	84.1588	933.105	80.3559	933.105	84.0513	933.105	79.1052	933.105	83.8219	933.105	76.7549	933.105	83.1956	933.105	73.3106	933.105	82.0155	933.105	71.0465	933.105	80.4957	933.105	71.1871	933.105	79.147	933.105	70.5984	933.105	78.2105	933.105	69.5668	933.105	77.7043	933.105	69.8667	933.105	77.2279	933.105	69.333	933.105	75.7724	933.105	66.0252	933.105	73.5384	933.105	65.22	933.105	71.0943	933.105	72.3711	933.105	67.763	933.105	75.7059	933.105	73.1534	933.105	76.7143	933.105	76.8282	933.105	77.2349
966.064	81.8113	966.064	81.1354	966.064	82.3528	966.064	79.9859	966.064	82.6041	966.064	78.2024	966.064	82.3932	966.064	76.7351	966.064	81.9045	966.064	75.9735	966.064	81.2808	966.064	74.9786	966.064	80.3053	966.064	73.6922	966.064	79.0367	966.064	71.8272	966.064	78.1146	966.064	68.836	966.064	77.075	966.064	68.1421	966.064	75.7015	966.064	68.2382	966.064	76.078	966.064	64.4867	966.064	76.9836	966.064	64.139	966.064	75.3668	966.064	62.982	966.064	71.3733	966.064	68.8594	966.064	68.5274	966.064	75.4234	966.064	71.0547	966.064	78.3742	966.064	76.3709	966.064	78.7223
1,000.12	80.3862	1,000.12	79.2949	1,000.12	80.8986	1,000.12	78.7291	1,000.12	81.0552	1,000.12	78.8465	1,000.12	81.8419	1,000.12	79.0858	1,000.12	82.4731	1,000.12	79.1651	1,000.12	81.8298	1,000.12	78.6885	1,000.12	80.2079	1,000.12	76.8848	1,000.12	78.6589	1,000.12	73.432	1,000.12	77.1652	1,000.12	71.4932	1,000.12	76.4003	1,000.12	71.3398	1,000.12	77.1451	1,000.12	69.3275	1,000.12	76.9442	1,000.12	68.5258	1,000.12	76.5125	1,000.12	63.7374	1,000.12	76.564	1,000.12	58.8041	1,000.12	73.4595	1,000.12	69.6964	1,000.12	66.2003	1,000.12	74.9168	1,000.12	70.5843	1,000.12	78.3503	1,000.12	75.2109	1,000.12	78.3833
1,035.28	78.8665	1,035.28	77.9759	1,035.28	80.498	1,035.28	77.9388	1,035.28	82.0967	1,035.28	78.6937	1,035.28	82.2913	1,035.28	78.9389	1,035.28	81.3282	1,035.28	78.4455	1,035.28	80.5764	1,035.28	77.6169	1,035.28	79.7706	1,035.28	76.5934	1,035.28	77.5125	1,035.28	74.8898	1,035.28	74.6934	1,035.28	71.4699	1,035.28	73.0703	1,035.28	68.8387	1,035.28	72.6564	1,035.28	70.1199	1,035.28	75.3188	1,035.28	70.5061	1,035.28	76.3987	1,035.28	67.8107	1,035.28	75.8395	1,035.28	57.5006	1,035.28	75.6427	1,035.28	69.2076	1,035.28	71.5893	1,035.28	75.1327	1,035.28	67.2338	1,035.28	76.4592	1,035.28	75.0473	1,035.28	76.4024
1,071.9	79.6663	1,071.9	79.924	1,071.9	79.917	1,071.9	80.4215	1,071.9	80.4649	1,071.9	81.0199	1,071.9	81.239	1,071.9	81.4944	1,071.9	81.8404	1,071.9	81.2282	1,071.9	81.5805	1,071.9	80.2624	1,071.9	80.3245	1,071.9	78.688	1,071.9	78.3895	1,071.9	76.3105	1,071.9	75.8288	1,071.9	74.0959	1,071.9	72.9107	1,071.9	72.6461	1,071.9	71.352	1,071.9	69.3286	1,071.9	71.3966	1,071.9	69.0364	1,071.9	72.2839	1,071.9	69.4356	1,071.9	72.3118	1,071.9	64.3107	1,071.9	71.3799	1,071.9	65.571	1,071.9	72.1954	1,071.9	72.0819	1,071.9	72.3	1,071.9	76.6108	1,071.9	74.7308	1,071.9	77.5351
1,109.62	81.3732	1,109.62	81.7134	1,109.62	81.7169	1,109.62	82.1822	1,109.62	82.2556	1,109.62	82.3258	1,109.62	82.1529	1,109.62	82.3383	1,109.62	81.0302	1,109.62	81.8595	1,109.62	79.6461	1,109.62	80.3723	1,109.62	78.8332	1,109.62	78.8264	1,109.62	78.0046	1,109.62	78.1227	1,109.62	76.6397	1,109.62	75.5283	1,109.62	74.5521	1,109.62	69.3462	1,109.62	70.8784	1,109.62	70.5501	1,109.62	71.0203	1,109.62	72.0777	1,109.62	74.018	1,109.62	71.1214	1,109.62	74.7932	1,109.62	69.9124	1,109.62	73.1174	1,109.62	65.4179	1,109.62	69.9025	1,109.62	68.7939	1,109.62	68.8478	1,109.62	74.7311	1,109.62	73.0707	1,109.62	75.7561
1,148.8	80.6203	1,148.8	81.95	1,148.8	79.3116	1,148.8	83.1968	1,148.8	78.9372	1,148.8	84.1119	1,148.8	80.2056	1,148.8	83.7064	1,148.8	81.6631	1,148.8	82.3256	1,148.8	81.5	1,148.8	81.3945	1,148.8	79.2159	1,148.8	80.0648	1,148.8	77.4535	1,148.8	76.7764	1,148.8	76.3985	1,148.8	74.7081	1,148.8	73.2855	1,148.8	74.5398	1,148.8	72.6059	1,148.8	70.3101	1,148.8	72.7657	1,148.8	69.1772	1,148.8	68.0487	1,148.8	71.9083	1,148.8	72.6691	1,148.8	66.9166	1,148.8	72.6813	1,148.8	57.6092	1,148.8	69.7648	1,148.8	67.6594	1,148.8	73.1711	1,148.8	70.1745	1,148.8	73.5728	1,148.8	71.6776
1,189.09	82.1555	1,189.09	82.849	1,189.09	82.5202	1,189.09	83.5705	1,189.09	82.1365	1,189.09	83.1515	1,189.09	80.8734	1,189.09	82.7316	1,189.09	80.4931	1,189.09	82.4889	1,189.09	80.6494	1,189.09	81.1117	1,189.09	79.7495	1,189.09	78.8366	1,189.09	77.0045	1,189.09	76.1201	1,189.09	72.1893	1,189.09	71.9062	1,189.09	70.8518	1,189.09	69.8927	1,189.09	67.2626	1,189.09	71.699	1,189.09	66.6184	1,189.09	71.2781	1,189.09	71.8998	1,189.09	73.0565	1,189.09	69.1377	1,189.09	72.8765	1,189.09	58.0469	1,189.09	70.2953	1,189.09	63.1168	1,189.09	66.4997	1,189.09	67.7669	1,189.09	70.1204	1,189.09	73.914	1,189.09	74.8546
1,231.2	83.3692	1,231.2	83.7002	1,231.2	82.7722	1,231.2	83.8565	1,231.2	82.0668	1,231.2	83.775	1,231.2	81.3167	1,231.2	83.1672	1,231.2	80.5876	1,231.2	82.1589	1,231.2	79.9816	1,231.2	80.9681	1,231.2	78.939	1,231.2	79.2977	1,231.2	76.9748	1,231.2	77.3732	1,231.2	74.4012	1,231.2	75.6154	1,231.2	71.5141	1,231.2	72.7721	1,231.2	68.1885	1,231.2	70.3775	1,231.2	63.43	1,231.2	71.1147	1,231.2	65.0725	1,231.2	71.2711	1,231.2	69.7479	1,231.2	72.0347	1,231.2	68.7843	1,231.2	70.6097	1,231.2	62.9598	1,231.2	63.9665	1,231.2	58.7677	1,231.2	58.0393	1,231.2	62.963	1,231.2	63.7138
1,274.41	84.1039	1,274.41	84.6981	1,274.41	83.5885	1,274.41	85.0014	1,274.41	83.2411	1,274.41	84.7389	1,274.41	83.0558	1,274.41	83.8355	1,274.41	82.5052	1,274.41	82.2801	1,274.41	81.0321	1,274.41	80.4876	1,274.41	79.2646	1,274.41	78.9378	1,274.41	77.8006	1,274.41	76.7871	1,274.41	75.643	1,274.41	73.7196	1,274.41	72.662	1,274.41	72.9973	1,274.41	70.5118	1,274.41	71.6577	1,274.41	66.7153	1,274.41	66.8711	1,274.41	61.8021	1,274.41	69.0124	1,274.41	65.2359	1,274.41	70.2115	1,274.41	64.5591	1,274.41	69.1475	1,274.41	64.1549	1,274.41	68.01	1,274.41	65.5498	1,274.41	69.2086	1,274.41	70.1002	1,274.41	71.5539
1,319.46	84.3177	1,319.46	84.6121	1,319.46	84.2161	1,319.46	84.8432	1,319.46	84.2206	1,319.46	84.7057	1,319.46	84.1016	1,319.46	84.1097	1,319.46	83.6261	1,319.46	83.1011	1,319.46	82.4464	1,319.46	81.5182	1,319.46	80.4747	1,319.46	79.0966	1,319.46	78.4108	1,319.46	76.4792	1,319.46	76.6493	1,319.46	74.3853	1,319.46	74.3374	1,319.46	71.3007	1,319.46	71.7885	1,319.46	69.5021	1,319.46	69.56	1,319.46	70.7839	1,319.46	66.785	1,319.46	70.2831	1,319.46	70.282	1,319.46	69.4788	1,319.46	72.5504	1,319.46	67.789	1,319.46	70.5462	1,319.46	70.2191	1,319.46	62.826	1,319.46	73.595	1,319.46	68.2124	1,319.46	73.1574
1,365.97	84.812	1,365.97	84.9871	1,365.97	84.9831	1,365.97	85.2144	1,365.97	85.4337	1,365.97	85.18	1,365.97	85.5359	1,365.97	84.7244	1,365.97	84.8303	1,365.97	83.6406	1,365.97	83.4574	1,365.97	81.9798	1,365.97	81.5702	1,365.97	80.0825	1,365.97	78.9091	1,365.97	77.8434	1,365.97	75.925	1,365.97	75.3002	1,365.97	73.6565	1,365.97	72.6974	1,365.97	71.9862	1,365.97	68.9655	1,365.97	70.0977	1,365.97	69.0135	1,365.97	67.429	1,365.97	70.881	1,365.97	68.0425	1,365.97	69.5717	1,365.97	70.1559	1,365.97	66.4937	1,365.97	70.9648	1,365.97	69.9231	1,365.97	72.7731	1,365.97	75.0691	1,365.97	73.4915	1,365.97	74.96
1,414.31	83.8263	1,414.31	83.9884	1,414.31	84.428	1,414.31	84.9306	1,414.31	84.9107	1,414.31	85.2145	1,414.31	84.9361	1,414.31	84.2599	1,414.31	84.4496	1,414.31	82.7699	1,414.31	83.2445	1,414.31	81.1454	1,414.31	81.6431	1,414.31	79.3419	1,414.31	79.8736	1,414.31	77.5675	1,414.31	77.4077	1,414.31	75.6223	1,414.31	74.0885	1,414.31	73.5512	1,414.31	70.0803	1,414.31	70.235	1,414.31	68.5866	1,414.31	65.8942	1,414.31	69.5106	1,414.31	70.6156	1,414.31	68.4343	1,414.31	70.4957	1,414.31	71.9768	1,414.31	65.7023	1,414.31	71.0551	1,414.31	65.7601	1,414.31	68.2508	1,414.31	71.9479	1,414.31	74.6584	1,414.31	75.5495
1,464.11	82.7929	1,464.11	83.6175	1,464.11	82.7773	1,464.11	84.3271	1,464.11	83.4592	1,464.11	84.5805	1,464.11	84.1325	1,464.11	84.3199	1,464.11	83.892	1,464.11	83.2486	1,464.11	82.588	1,464.11	81.2488	1,464.11	80.806	1,464.11	78.5756	1,464.11	78.3913	1,464.11	75.7443	1,464.11	75.5065	1,464.11	72.8845	1,464.11	72.9613	1,464.11	71.6762	1,464.11	71.3645	1,464.11	71.6886	1,464.11	68.7209	1,464.11	66.1422	1,464.11	66.8669	1,464.11	65.4101	1,464.11	69.4446	1,464.11	67.4767	1,464.11	68.952	1,464.11	65.8208	1,464.11	66.6786	1,464.11	67.5469	1,464.11	64.0481	1,464.11	71.7362	1,464.11	71.9177	1,464.11	74.5011
1,515.75	81.7587	1,515.75	82.5405	1,515.75	81.6866	1,515.75	83.33	1,515.75	82.8214	1,515.75	83.839	1,515.75	83.941	1,515.75	83.6983	1,515.75	84.1843	1,515.75	82.6914	1,515.75	83.5959	1,515.75	81.1718	1,515.75	82.2114	1,515.75	79.8186	1,515.75	80.3045	1,515.75	78.2464	1,515.75	77.9795	1,515.75	76.017	1,515.75	74.6815	1,515.75	72.712	1,515.75	70.3105	1,515.75	69.0798	1,515.75	68.628	1,515.75	70.2785	1,515.75	64.2826	1,515.75	68.6621	1,515.75	67.9939	1,515.75	70.3862	1,515.75	70.8891	1,515.75	66.8305	1,515.75	70.9493	1,515.75	69.5248	1,515.75	69.9871	1,515.75	75.0801	1,515.75	70.8259	1,515.75	74.6323
1,569.21	79.3117	1,569.21	80.6448	1,569.21	79.3383	1,569.21	82.3065	1,569.21	80.89	1,569.21	83.4061	1,569.21	82.545	1,569.21	83.4879	1,569.21	83.0443	1,569.21	82.5024	1,569.21	82.3264	1,569.21	80.7995	1,569.21	80.7362	1,569.21	78.5385	1,569.21	78.4011	1,569.21	76.5999	1,569.21	76.1902	1,569.21	74.3555	1,569.21	74.5849	1,569.21	71.3891	1,569.21	71.7936	1,569.21	71.2096	1,569.21	68.2286	1,569.21	69.5511	1,569.21	68.7121	1,569.21	69.2206	1,569.21	67.7835	1,569.21	69.7601	1,569.21	69.816	1,569.21	62.7631	1,569.21	70.6068	1,569.21	59.1365	1,569.21	67.092	1,569.21	69.9546	1,569.21	70.8498	1,569.21	72.6696
1,624.51	80.3223	1,624.51	81.7412	1,624.51	80.3405	1,624.51	83.3728	1,624.51	81.8868	1,624.51	84.2943	1,624.51	83.2587	1,624.51	84.0838	1,624.51	83.5911	1,624.51	82.8341	1,624.51	83.3677	1,624.51	80.6952	1,624.51	82.3447	1,624.51	78.0048	1,624.51	80.1413	1,624.51	75.4694	1,624.51	77.386	1,624.51	73.6743	1,624.51	74.9476	1,624.51	72.4602	1,624.51	72.128	1,624.51	69.7452	1,624.51	68.8426	1,624.51	69.7272	1,624.51	65.9891	1,624.51	71.9545	1,624.51	66.9995	1,624.51	72.6963	1,624.51	69.2946	1,624.51	71.2206	1,624.51	68.9322	1,624.51	61.2906	1,624.51	68.0295	1,624.51	70.6206	1,624.51	70.6738	1,624.51	73.562
1,681.64	81.392	1,681.64	82.6537	1,681.64	81.3723	1,681.64	84.3701	1,681.64	82.2468	1,681.64	85.2067	1,681.64	83.6866	1,681.64	85.0711	1,681.64	84.7032	1,681.64	84.0275	1,681.64	84.3238	1,681.64	82.0846	1,681.64	82.8782	1,681.64	79.6066	1,681.64	81.0062	1,681.64	76.8375	1,681.64	78.1253	1,681.64	74.0462	1,681.64	74.3845	1,681.64	71.906	1,681.64	71.5884	1,681.64	69.649	1,681.64	68.178	1,681.64	64.551	1,681.64	67.1358	1,681.64	67.3458	1,681.64	68.0216	1,681.64	71.3184	1,681.64	69.8909	1,681.64	70.444	1,681.64	70.3204	1,681.64	65.4454	1,681.64	66.1796	1,681.64	66.5394	1,681.64	69.8041	1,681.64	70.9634
1,740.97	84.1255	1,740.97	84.709	1,740.97	84.1208	1,740.97	85.6151	1,740.97	85.0244	1,740.97	86.4478	1,740.97	85.691	1,740.97	86.3867	1,740.97	85.3671	1,740.97	85.181	1,740.97	84.6337	1,740.97	83.0533	1,740.97	83.3691	1,740.97	79.9507	1,740.97	80.8492	1,740.97	76.5137	1,740.97	78.0547	1,740.97	73.9158	1,740.97	75.9897	1,740.97	71.6545	1,740.97	73.8348	1,740.97	69.9187	1,740.97	71.9252	1,740.97	68.2416	1,740.97	68.6068	1,740.97	67.9325	1,740.97	66.1189	1,740.97	69.0155	1,740.97	69.6769	1,740.97	70.5119	1,740.97	70.2041	1,740.97	67.6956	1,740.97	64.8882	1,740.97	70.6846	1,740.97	68.1359	1,740.97	73.3984
1,802.49	84.2687	1,802.49	84.6843	1,802.49	84.4345	1,802.49	85.9699	1,802.49	84.7362	1,802.49	86.7015	1,802.49	85.2763	1,802.49	86.2272	1,802.49	85.5504	1,802.49	85.0173	1,802.49	84.8059	1,802.49	83.4241	1,802.49	83.0035	1,802.49	81.4426	1,802.49	81.0289	1,802.49	79.3651	1,802.49	78.978	1,802.49	77.2543	1,802.49	75.8761	1,802.49	74.6471	1,802.49	72.4202	1,802.49	71.5884	1,802.49	70.5357	1,802.49	68.4284	1,802.49	69.4893	1,802.49	68.7007	1,802.49	67.6401	1,802.49	70.0347	1,802.49	67.8205	1,802.49	70.1166	1,802.49	70.3379	1,802.49	65.9229	1,802.49	68.9055	1,802.49	67.3846	1,802.49	65.0621	1,802.49	69.608
1,866.21	84.5881	1,866.21	84.9894	1,866.21	83.939	1,866.21	85.4063	1,866.21	83.6534	1,866.21	85.8145	1,866.21	84.2709	1,866.21	85.7855	1,866.21	84.5768	1,866.21	84.7736	1,866.21	84.0034	1,866.21	82.7034	1,866.21	82.7727	1,866.21	80.508	1,866.21	81.006	1,866.21	78.4028	1,866.21	78.0539	1,866.21	75.5181	1,866.21	73.8461	1,866.21	71.9785	1,866.21	71.0041	1,866.21	70.8821	1,866.21	68.7008	1,866.21	70.2252	1,866.21	68.4479	1,866.21	66.2796	1,866.21	67.3715	1,866.21	69.5897	1,866.21	64.8518	1,866.21	67.731	1,866.21	68.7134	1,866.21	66.7089	1,866.21	66.3455	1,866.21	66.0652	1,866.21	64.2566	1,866.21	67.8455
1,931.76	84.7164	1,931.76	84.2687	1,931.76	84.7566	1,931.76	84.2635	1,931.76	84.1681	1,931.76	84.194	1,931.76	83.8405	1,931.76	83.7621	1,931.76	83.8315	1,931.76	82.889	1,931.76	83.2719	1,931.76	81.615	1,931.76	82.0346	1,931.76	79.8097	1,931.76	79.9231	1,931.76	76.5523	1,931.76	76.9894	1,931.76	73.9269	1,931.76	74.2854	1,931.76	73.4151	1,931.76	70.489	1,931.76	71.2002	1,931.76	67.4495	1,931.76	69.7227	1,931.76	68.1419	1,931.76	69.6371	1,931.76	66.4803	1,931.76	70.9889	1,931.76	70.0324	1,931.76	71.5119	1,931.76	68.161	1,931.76	68.1914	1,931.76	67.9	1,931.76	67.7801	1,931.76	65.9531	1,931.76	67.2648
1,999.88	81.9721	1,999.88	80.9268	1,999.88	83.0461	1,999.88	81.1833	1,999.88	83.7966	1,999.88	82.6465	1,999.88	84.2592	1,999.88	83.7805	1,999.88	84.4871	1,999.88	83.9559	1,999.88	84.4281	1,999.88	83.1953	1,999.88	83.4398	1,999.88	81.2985	1,999.88	81.3651	1,999.88	78.1031	1,999.88	78.5183	1,999.88	73.4578	1,999.88	74.8036	1,999.88	69.7423	1,999.88	71.4837	1,999.88	68.2939	1,999.88	70.0259	1,999.88	65.61	1,999.88	66.4773	1,999.88	66.0562	1,999.88	68.0154	1,999.88	70.7192	1,999.88	70.1445	1,999.88	69.8669	1,999.88	71.2022	1,999.88	67.9521	1,999.88	70.8396	1,999.88	71.5923	1,999.88	68.3633	1,999.88	70.6924
2,070.56	84.2602	2,070.56	82.9887	2,070.56	84.224	2,070.56	82.2088	2,070.56	83.598	2,070.56	83.0417	2,070.56	83.7595	2,070.56	84.0221	2,070.56	84.2074	2,070.56	84.0831	2,070.56	83.9586	2,070.56	82.6614	2,070.56	83.1024	2,070.56	80.3855	2,070.56	81.4452	2,070.56	78.0725	2,070.56	78.863	2,070.56	74.937	2,070.56	75.7054	2,070.56	69.6599	2,070.56	71.5568	2,070.56	68.5011	2,070.56	67.6815	2,070.56	68.9942	2,070.56	65.9838	2,070.56	62.7965	2,070.56	63.1669	2,070.56	66.4877	2,070.56	68.038	2,070.56	70.3388	2,070.56	70.8612	2,070.56	61.9183	2,070.56	70.8179	2,070.56	67.6153	2,070.56	67.5736	2,070.56	70.4183
2,143.43	85.0881	2,143.43	84.1472	2,143.43	84.4769	2,143.43	83.1223	2,143.43	83.8336	2,143.43	84.1568	2,143.43	84.4152	2,143.43	85.2578	2,143.43	85.5108	2,143.43	84.9855	2,143.43	85.9901	2,143.43	83.773	2,143.43	85.0703	2,143.43	81.8722	2,143.43	82.9407	2,143.43	79.4231	2,143.43	80.9	2,143.43	76.6124	2,143.43	78.7472	2,143.43	72.5551	2,143.43	74.1496	2,143.43	67.2846	2,143.43	68.5559	2,143.43	66.7335	2,143.43	69.11	2,143.43	66.7211	2,143.43	67.3878	2,143.43	65.1671	2,143.43	63.7363	2,143.43	68.4345	2,143.43	69.79	2,143.43	65.2431	2,143.43	70.7871	2,143.43	65.0651	2,143.43	66.567	2,143.43	69.8854
2,219.24	85.5459	2,219.24	85.4226	2,219.24	84.2047	2,219.24	84.874	2,219.24	82.7732	2,219.24	85.4614	2,219.24	83.6259	2,219.24	86.1418	2,219.24	85.1309	2,219.24	85.7335	2,219.24	85.4938	2,219.24	84.4454	2,219.24	84.6038	2,219.24	82.5815	2,219.24	83.0402	2,219.24	80.302	2,219.24	80.8562	2,219.24	77.7093	2,219.24	77.8386	2,219.24	73.9769	2,219.24	74.7463	2,219.24	68.6378	2,219.24	70.3675	2,219.24	67.137	2,219.24	61.5353	2,219.24	63.5666	2,219.24	67.4596	2,219.24	64.152	2,219.24	64.2774	2,219.24	68.4578	2,219.24	66.771	2,219.24	68.0553	2,219.24	69.24	2,219.24	60.4158	2,219.24	60.3977	2,219.24	68.5942
2,297.24	85.4366	2,297.24	84.6534	2,297.24	84.0019	2,297.24	83.3047	2,297.24	81.5674	2,297.24	83.6396	2,297.24	81.3583	2,297.24	84.4688	2,297.24	82.7161	2,297.24	84.3723	2,297.24	83.4036	2,297.24	83.4205	2,297.24	82.9416	2,297.24	82.0487	2,297.24	81.2057	2,297.24	80.2719	2,297.24	79.1909	2,297.24	78.0133	2,297.24	77.6595	2,297.24	75.1149	2,297.24	74.9257	2,297.24	70.8009	2,297.24	69.8972	2,297.24	68.1189	2,297.24	63.9765	2,297.24	69.2844	2,297.24	61.2973	2,297.24	61.155	2,297.24	63.3333	2,297.24	68.2533	2,297.24	59.679	2,297.24	67.4541	2,297.24	68.8381	2,297.24	58.4009	2,297.24	59.931	2,297.24	65.9516
2,378.54	84.534	2,378.54	83.2729	2,378.54	84.5564	2,378.54	81.966	2,378.54	83.418	2,378.54	82.409	2,378.54	82.8174	2,378.54	83.4037	2,378.54	83.8019	2,378.54	83.2767	2,378.54	84.1249	2,378.54	81.9585	2,378.54	83.3227	2,378.54	80.0755	2,378.54	82.0338	2,378.54	78.0477	2,378.54	80.0509	2,378.54	75.9487	2,378.54	77.4621	2,378.54	74.3591	2,378.54	74.9503	2,378.54	70.7566	2,378.54	73.0426	2,378.54	63.7639	2,378.54	69.6138	2,378.54	66.6512	2,378.54	61.4537	2,378.54	65.6475	2,378.54	68.0086	2,378.54	65.4356	2,378.54	58.6469	2,378.54	70.0143	2,378.54	66.9135	2,378.54	52.3752	2,378.54	58.5715	2,378.54	67.0621
2,462.4	87.442	2,462.4	86.1665	2,462.4	86.874	2,462.4	84.1327	2,462.4	85.2614	2,462.4	83.6764	2,462.4	84.4919	2,462.4	84.5107	2,462.4	85.3139	2,462.4	84.5809	2,462.4	85.9649	2,462.4	83.4874	2,462.4	85.4654	2,462.4	81.0352	2,462.4	83.3575	2,462.4	77.7029	2,462.4	80.5365	2,462.4	74.5476	2,462.4	78.3961	2,462.4	72.3627	2,462.4	76.5773	2,462.4	71.1982	2,462.4	73.6082	2,462.4	67.0415	2,462.4	68.9929	2,462.4	62.9566	2,462.4	64.2318	2,462.4	64.9649	2,462.4	69.0197	2,462.4	60.8292	2,462.4	63.3191	2,462.4	69.5326	2,462.4	69.0375	2,462.4	47.3049	2,462.4	62.7578	2,462.4	67.2611
2,549.19	87.0166	2,549.19	86.4606	2,549.19	86.6772	2,549.19	85.4661	2,549.19	85.4779	2,549.19	84.8029	2,549.19	84.4965	2,549.19	85.3176	2,549.19	85.0266	2,549.19	85.734	2,549.19	85.3469	2,549.19	85.0538	2,549.19	84.2295	2,549.19	83.1638	2,549.19	82.597	2,549.19	80.3443	2,549.19	80.9878	2,549.19	76.9052	2,549.19	78.509	2,549.19	73.7854	2,549.19	75.3444	2,549.19	72.2365	2,549.19	72.5476	2,549.19	68.799	2,549.19	71.4349	2,549.19	61.4722	2,549.19	64.0975	2,549.19	68.5558	2,549.19	69.0787	2,549.19	45.2006	2,549.19	57.6775	2,549.19	68.1353	2,549.19	69.3823	2,549.19	53.5875	2,549.19	60.3479	2,549.19	65.0556
2,638.92	88.5454	2,638.92	88.1169	2,638.92	87.6303	2,638.92	86.6222	2,638.92	86.104	2,638.92	85.3725	2,638.92	84.8337	2,638.92	85.4484	2,638.92	84.3013	2,638.92	85.5421	2,638.92	83.9237	2,638.92	84.7129	2,638.92	83.6314	2,638.92	83.2821	2,638.92	82.1578	2,638.92	81.2892	2,638.92	79.2483	2,638.92	78.4381	2,638.92	76.4929	2,638.92	74.6528	2,638.92	74.2735	2,638.92	72.4555	2,638.92	72.4034	2,638.92	72.6637	2,638.92	70.9968	2,638.92	64.5396	2,638.92	63.4377	2,638.92	68.4901	2,638.92	67.2233	2,638.92	58.3142	2,638.92	64.9002	2,638.92	67.2201	2,638.92	63.8125	2,638.92	50.0311	2,638.92	56.2456	2,638.92	67.8179
2,731.93	85.117	2,731.93	84.3819	2,731.93	84.9076	2,731.93	83.5385	2,731.93	84.8057	2,731.93	83.7901	2,731.93	84.0089	2,731.93	83.9122	2,731.93	83.5105	2,731.93	83.4737	2,731.93	84.0182	2,731.93	83.1882	2,731.93	83.8342	2,731.93	82.2865	2,731.93	82.1823	2,731.93	80.0208	2,731.93	80.1719	2,731.93	77.2945	2,731.93	77.1856	2,731.93	75.1134	2,731.93	73.069	2,731.93	72.2482	2,731.93	70.4878	2,731.93	71.2486	2,731.93	70.4715	2,731.93	66.7308	2,731.93	66.2763	2,731.93	69.0395	2,731.93	68.0825	2,731.93	61.8056	2,731.93	66.3142	2,731.93	63.1169	2,731.93	64.7583	2,731.93	58.7121	2,731.93	59.288	2,731.93	67.9701
2,828.25	85.0542	2,828.25	84.5079	2,828.25	85.5045	2,828.25	83.2715	2,828.25	85.4139	2,828.25	81.936	2,828.25	84.1004	2,828.25	82.6149	2,828.25	83.1667	2,828.25	83.5331	2,828.25	83.6349	2,828.25	82.7003	2,828.25	83.7663	2,828.25	80.7067	2,828.25	82.2937	2,828.25	78.957	2,828.25	79.6638	2,828.25	76.1711	2,828.25	76.7262	2,828.25	72.5047	2,828.25	73.8323	2,828.25	69.1275	2,828.25	70.6631	2,828.25	69.7989	2,828.25	68.4633	2,828.25	65.1404	2,828.25	64.9629	2,828.25	65.9943	2,828.25	65.0689	2,828.25	58.5344	2,828.25	67.4315	2,828.25	63.7822	2,828.25	59.0621	2,828.25	57.5067	2,828.25	62.2088	2,828.25	65.2935
2,928.22	85.4781	2,928.22	85.474	2,928.22	86.3448	2,928.22	85.1024	2,928.22	86.6038	2,928.22	83.3361	2,928.22	85.3054	2,928.22	83.4054	2,928.22	84.4659	2,928.22	84.647	2,928.22	84.4721	2,928.22	83.7132	2,928.22	83.1909	2,928.22	80.6558	2,928.22	80.968	2,928.22	77.9996	2,928.22	79.7376	2,928.22	75.9445	2,928.22	77.7578	2,928.22	73.3357	2,928.22	74.1588	2,928.22	69.0335	2,928.22	70.6746	2,928.22	66.0318	2,928.22	68.6702	2,928.22	63.2846	2,928.22	67.91	2,928.22	68.3958	2,928.22	64.1849	2,928.22	64.3068	2,928.22	68.1068	2,928.22	63.2365	2,928.22	58.6884	2,928.22	57.2405	2,928.22	57.9901	2,928.22	68.1752
3,031.49	87.3863	3,031.49	87.8386	3,031.49	87.8014	3,031.49	87.3024	3,031.49	87.5492	3,031.49	85.1854	3,031.49	85.623	3,031.49	84.5466	3,031.49	84.2655	3,031.49	84.8753	3,031.49	84.3485	3,031.49	83.3145	3,031.49	83.9628	3,031.49	81.3728	3,031.49	82.2276	3,031.49	79.4776	3,031.49	79.4554	3,031.49	76.5183	3,031.49	76.24	3,031.49	73.6521	3,031.49	73.698	3,031.49	69.7135	3,031.49	70.9905	3,031.49	66.1254	3,031.49	68.1788	3,031.49	63.2953	3,031.49	67.7135	3,031.49	64.2983	3,031.49	63.9	3,031.49	61.0241	3,031.49	67.3746	3,031.49	62.0002	3,031.49	57.4507	3,031.49	59.2296	3,031.49	59.9266	3,031.49	65.4798
3,138.43	86.852	3,138.43	87.251	3,138.43	87.0546	3,138.43	86.4131	3,138.43	86.9419	3,138.43	84.4414	3,138.43	84.9164	3,138.43	83.99	3,138.43	83.4585	3,138.43	84.4553	3,138.43	84.6874	3,138.43	84.0574	3,138.43	84.7464	3,138.43	82.455	3,138.43	82.2336	3,138.43	79.0602	3,138.43	78.9989	3,138.43	75.0818	3,138.43	75.6905	3,138.43	73.2643	3,138.43	73.0139	3,138.43	71.996	3,138.43	71.0981	3,138.43	67.6519	3,138.43	66.2468	3,138.43	65.1761	3,138.43	67.0372	3,138.43	62.5474	3,138.43	61.5683	3,138.43	62.6812	3,138.43	67.3916	3,138.43	62.4783	3,138.43	57.369	3,138.43	54.8073	3,138.43	57.0071	3,138.43	66.455
3,249.02	84.8642	3,249.02	85.4395	3,249.02	85.4155	3,249.02	85.1678	3,249.02	86.076	3,249.02	84.061	3,249.02	85.0571	3,249.02	84.0644	3,249.02	84.1328	3,249.02	84.4612	3,249.02	84.5584	3,249.02	83.5132	3,249.02	83.6529	3,249.02	81.6073	3,249.02	81.2536	3,249.02	79.3816	3,249.02	79.4019	3,249.02	76.1177	3,249.02	76.7883	3,249.02	72.6303	3,249.02	73.2497	3,249.02	70.8106	3,249.02	72.915	3,249.02	65.6432	3,249.02	68.2781	3,249.02	66.8102	3,249.02	67.1046	3,249.02	57.009	3,249.02	60.4845	3,249.02	59.3259	3,249.02	68.602	3,249.02	59.4225	3,249.02	52.6708	3,249.02	57.9017	3,249.02	52.9171	3,249.02	66.2552
3,363.65	84.0536	3,363.65	84.9641	3,363.65	85.2254	3,363.65	84.8541	3,363.65	86.0191	3,363.65	83.1012	3,363.65	84.2104	3,363.65	82.69	3,363.65	82.6794	3,363.65	82.7432	3,363.65	83.1842	3,363.65	81.0277	3,363.65	82.2407	3,363.65	78.785	3,363.65	79.7853	3,363.65	76.854	3,363.65	77.9125	3,363.65	74.4475	3,363.65	75.6483	3,363.65	72.1312	3,363.65	72.3204	3,363.65	70.7888	3,363.65	72.225	3,363.65	63.1156	3,363.65	68.4631	3,363.65	62.6488	3,363.65	66.1092	3,363.65	58.393	3,363.65	54.0239	3,363.65	61.2283	3,363.65	65.2083	3,363.65	59.0327	3,363.65	51.9629	3,363.65	58.7927	3,363.65	45.3348	3,363.65	67.5608
3,482.3	86.55	3,482.3	87.0969	3,482.3	86.3533	3,482.3	86.0396	3,482.3	86.2142	3,482.3	83.5601	3,482.3	84.4805	3,482.3	82.6594	3,482.3	83.267	3,482.3	82.8759	3,482.3	83.7028	3,482.3	82.0998	3,482.3	82.7661	3,482.3	80.8942	3,482.3	80.1157	3,482.3	78.8114	3,482.3	77.4614	3,482.3	75.3791	3,482.3	76.0085	3,482.3	70.6443	3,482.3	72.2157	3,482.3	70.4827	3,482.3	72.0215	3,482.3	64.3933	3,482.3	68.4205	3,482.3	64.6959	3,482.3	66.4601	3,482.3	51.97	3,482.3	44.4646	3,482.3	57.6889	3,482.3	62.8592	3,482.3	60.1738	3,482.3	46.5418	3,482.3	52.5742	3,482.3	55.0056	3,482.3	63.2087
3,604.98	86.9291	3,604.98	87.3241	3,604.98	86.4339	3,604.98	86.0971	3,604.98	86.0256	3,604.98	84.2607	3,604.98	84.6028	3,604.98	83.8545	3,604.98	83.7577	3,604.98	84.3488	3,604.98	84.1906	3,604.98	83.9578	3,604.98	83.4502	3,604.98	81.4337	3,604.98	81.7229	3,604.98	77.2445	3,604.98	79.7299	3,604.98	74.7271	3,604.98	77.4899	3,604.98	71.2829	3,604.98	73.2874	3,604.98	70.3412	3,604.98	70.2255	3,604.98	64.6681	3,604.98	68.8821	3,604.98	62.4603	3,604.98	64.5109	3,604.98	49.6743	3,604.98	58.1388	3,604.98	50.9738	3,604.98	60.4086	3,604.98	58.2416	3,604.98	51.2001	3,604.98	54.902	3,604.98	41.0556	3,604.98	63.5218
3,732.06	86.4034	3,732.06	86.765	3,732.06	86.1067	3,732.06	85.9644	3,732.06	85.8296	3,732.06	84.4495	3,732.06	84.7911	3,732.06	83.4619	3,732.06	83.9919	3,732.06	82.946	3,732.06	84.0654	3,732.06	82.0445	3,732.06	83.4623	3,732.06	81.2258	3,732.06	81.9957	3,732.06	79.3047	3,732.06	79.4655	3,732.06	76.1175	3,732.06	77.6558	3,732.06	71.4334	3,732.06	74.5094	3,732.06	69.1393	3,732.06	71.4683	3,732.06	66.0372	3,732.06	69.5428	3,732.06	61.2647	3,732.06	65.2817	3,732.06	56.5126	3,732.06	58.3735	3,732.06	57.5022	3,732.06	59.0972	3,732.06	59.8918	3,732.06	51.1841	3,732.06	54.2358	3,732.06	55.6588	3,732.06	63.563
3,863.89	86.2356	3,863.89	86.1476	3,863.89	86.0238	3,863.89	85.3432	3,863.89	85.5794	3,863.89	84.0392	3,863.89	84.3176	3,863.89	82.6994	3,863.89	82.5343	3,863.89	82.4424	3,863.89	82.3843	3,863.89	82.444	3,863.89	82.8064	3,863.89	80.4465	3,863.89	81.0804	3,863.89	76.969	3,863.89	76.3314	3,863.89	75.214	3,863.89	74.1867	3,863.89	71.1318	3,863.89	72.4993	3,863.89	69.9249	3,863.89	68.9697	3,863.89	66.6502	3,863.89	68.1164	3,863.89	63.542	3,863.89	63.7885	3,863.89	49.7556	3,863.89	53.7451	3,863.89	58.8759	3,863.89	59.7026	3,863.89	60.5506	3,863.89	55.6659	3,863.89	53.5259	3,863.89	61.2822	3,863.89	62.1742
4,000.12	85.3609	4,000.12	85.6636	4,000.12	85.0273	4,000.12	84.7276	4,000.12	84.956	4,000.12	82.774	4,000.12	83.548	4,000.12	80.89	4,000.12	81.3403	4,000.12	81.1992	4,000.12	81.0298	4,000.12	82.2353	4,000.12	81.3286	4,000.12	79.5668	4,000.12	79.914	4,000.12	73.2136	4,000.12	76.4776	4,000.12	71.6723	4,000.12	73.7456	4,000.12	70.8292	4,000.12	71.3841	4,000.12	65.8919	4,000.12	67.6082	4,000.12	61.9459	4,000.12	65.7731	4,000.12	62.6857	4,000.12	63.456	4,000.12	59.8475	4,000.12	26.4153	4,000.12	58.5667	4,000.12	57.4163	4,000.12	60.3874	4,000.12	57.9516	4,000.12	35.5578	4,000.12	58.8935	4,000.12	61.3011
4,141.11	86.7631	4,141.11	86.2736	4,141.11	86.1228	4,141.11	84.5401	4,141.11	85.434	4,141.11	83.4001	4,141.11	84.3573	4,141.11	82.874	4,141.11	82.5146	4,141.11	82.4149	4,141.11	81.9086	4,141.11	80.8271	4,141.11	82.2988	4,141.11	78.267	4,141.11	80.0626	4,141.11	74.9969	4,141.11	75.7659	4,141.11	72.121	4,141.11	74.1305	4,141.11	68.9137	4,141.11	73.0287	4,141.11	64.9673	4,141.11	69.4033	4,141.11	62.6294	4,141.11	65.0469	4,141.11	62.1728	4,141.11	65.4537	4,141.11	63.2692	4,141.11	58.8974	4,141.11	51.3223	4,141.11	34.7347	4,141.11	48.8846	4,141.11	61.6214	4,141.11	41.3018	4,141.11	57.843	4,141.11	53.057
4,287.23	84.0549	4,287.23	84.188	4,287.23	84.4598	4,287.23	84.2296	4,287.23	84.7209	4,287.23	83.7739	4,287.23	83.7274	4,287.23	82.1947	4,287.23	81.9502	4,287.23	81.0702	4,287.23	80.8932	4,287.23	80.3275	4,287.23	80.1333	4,287.23	78	4,287.23	79.2255	4,287.23	74.1169	4,287.23	77.3002	4,287.23	71.3407	4,287.23	75.1785	4,287.23	70.2056	4,287.23	71.9749	4,287.23	67.9169	4,287.23	69.1236	4,287.23	61.6767	4,287.23	65.817	4,287.23	62.3764	4,287.23	63.4782	4,287.23	57.5922	4,287.23	58.7743	4,287.23	50.5653	4,287.23	60.5201	4,287.23	57.3255	4,287.23	57.4419	4,287.23	45.5545	4,287.23	56.4028	4,287.23	55.2388
4,438.11	84.7035	4,438.11	84.3951	4,438.11	84.4542	4,438.11	83.8126	4,438.11	84.5365	4,438.11	82.9523	4,438.11	84.335	4,438.11	80.8209	4,438.11	82.3773	4,438.11	80.0596	4,438.11	80.2973	4,438.11	80.7622	4,438.11	81.5639	4,438.11	80.0244	4,438.11	81.8204	4,438.11	77.6209	4,438.11	77.9216	4,438.11	74.7304	4,438.11	75.0027	4,438.11	70.8716	4,438.11	73.0537	4,438.11	69.4735	4,438.11	70.0532	4,438.11	62.1971	4,438.11	68.5993	4,438.11	63.3737	4,438.11	66.2827	4,438.11	61.6324	4,438.11	52.4149	4,438.11	48.4791	4,438.11	63.3369	4,438.11	60.317	4,438.11	58.4412	4,438.11	51.3685	4,438.11	43.5307	4,438.11	61.2327
4,594.85	84.4751	4,594.85	83.3587	4,594.85	85.0791	4,594.85	83.9541	4,594.85	83.7656	4,594.85	84.312	4,594.85	82.2093	4,594.85	82.3327	4,594.85	81.691	4,594.85	80.3534	4,594.85	81.0765	4,594.85	81.2362	4,594.85	81.2714	4,594.85	81.5186	4,594.85	80.9334	4,594.85	77.6743	4,594.85	78.2507	4,594.85	72.6228	4,594.85	75.5948	4,594.85	69.3418	4,594.85	73.2105	4,594.85	67.873	4,594.85	67.4699	4,594.85	66.1216	4,594.85	67.4424	4,594.85	58.845	4,594.85	63.8045	4,594.85	62.743	4,594.85	59.2533	4,594.85	33.3185	4,594.85	57.4364	4,594.85	60.1986	4,594.85	50.6964	4,594.85	49.9254	4,594.85	48.7135	4,594.85	56.9576
4,756.71	84.0627	4,756.71	83.686	4,756.71	83.7578	4,756.71	84.8972	4,756.71	82.471	4,756.71	85.0436	4,756.71	82.4146	4,756.71	82.2068	4,756.71	81.9947	4,756.71	80.4238	4,756.71	80.5306	4,756.71	81.7213	4,756.71	80.9365	4,756.71	80.347	4,756.71	80.2733	4,756.71	76.1023	4,756.71	75.411	4,756.71	73.7489	4,756.71	72.1271	4,756.71	70.166	4,756.71	71.4159	4,756.71	66.6991	4,756.71	65.5342	4,756.71	64.2547	4,756.71	65.4854	4,756.71	57.7763	4,756.71	64.1892	4,756.71	57.8974	4,756.71	56.9108	4,756.71	46.8596	4,756.71	60.2931	4,756.71	60.4705	4,756.71	53.1875	4,756.71	49.9787	4,756.71	54.227	4,756.71	57.581
4,924.44	86.1627	4,924.44	84.5241	4,924.44	86.0517	4,924.44	83.1602	4,924.44	84.6579	4,924.44	81.99	4,924.44	84.6221	4,924.44	81.0646	4,924.44	84.2331	4,924.44	81.1728	4,924.44	82.3993	4,924.44	81.5104	4,924.44	82.0108	4,924.44	80.187	4,924.44	81.3827	4,924.44	75.9883	4,924.44	78.0418	4,924.44	70.3553	4,924.44	73.5354	4,924.44	68.6256	4,924.44	71.8472	4,924.44	63.3605	4,924.44	64.1141	4,924.44	60.7427	4,924.44	65.955	4,924.44	57.3148	4,924.44	60.9284	4,924.44	57.9543	4,924.44	61.8271	4,924.44	53.2757	4,924.44	52.8672	4,924.44	56.8595	4,924.44	55.0218	4,924.44	46.4322	4,924.44	50.3032	4,924.44	56.6177
5,098.39	86.8617	5,098.39	86.1216	5,098.39	86.1671	5,098.39	85.1404	5,098.39	85.0334	5,098.39	84.7161	5,098.39	84.5289	5,098.39	83.704	5,098.39	82.6822	5,098.39	82.6749	5,098.39	80.4974	5,098.39	82.8148	5,098.39	81.1195	5,098.39	81.8358	5,098.39	80.4733	5,098.39	77.7813	5,098.39	77.3885	5,098.39	73.1951	5,098.39	75.3152	5,098.39	68.5356	5,098.39	72.855	5,098.39	66.6372	5,098.39	65.2548	5,098.39	66.7737	5,098.39	63.3984	5,098.39	54.3315	5,098.39	61.4874	5,098.39	61.1866	5,098.39	60.5739	5,098.39	58.2346	5,098.39	58.1625	5,098.39	55.313	5,098.39	49.6654	5,098.39	50.1692	5,098.39	51.1637	5,098.39	51.6696
5,278.2	85.7821	5,278.2	85.4978	5,278.2	84.7796	5,278.2	84.2351	5,278.2	83.9841	5,278.2	82.5095	5,278.2	83.4365	5,278.2	79.9671	5,278.2	81.224	5,278.2	78.7732	5,278.2	79.2854	5,278.2	80.4099	5,278.2	80.1566	5,278.2	79.818	5,278.2	80.0777	5,278.2	76.3032	5,278.2	78.4735	5,278.2	74.023	5,278.2	75.2709	5,278.2	72.588	5,278.2	71.804	5,278.2	66.2041	5,278.2	62.8756	5,278.2	67.514	5,278.2	63.1629	5,278.2	63.4646	5,278.2	54.6559	5,278.2	63.5533	5,278.2	58.8323	5,278.2	59.2192	5,278.2	55.0327	5,278.2	59.5642	5,278.2	48.5204	5,278.2	54.9837	5,278.2	48.7884	5,278.2	59.2166
5,464.23	85.6294	5,464.23	84.8002	5,464.23	85.2808	5,464.23	83.5669	5,464.23	84.7768	5,464.23	82.7095	5,464.23	83.8774	5,464.23	81.5666	5,464.23	81.2472	5,464.23	80.0756	5,464.23	79.0996	5,464.23	78.9405	5,464.23	79.764	5,464.23	78.1318	5,464.23	79.3209	5,464.23	76.5001	5,464.23	76.7779	5,464.23	72.3281	5,464.23	74.2128	5,464.23	68.4979	5,464.23	71.6104	5,464.23	63.1359	5,464.23	60.9624	5,464.23	63.8209	5,464.23	64.3528	5,464.23	56.0319	5,464.23	57.3687	5,464.23	62.1264	5,464.23	54.0499	5,464.23	55.9425	5,464.23	60.4198	5,464.23	60.103	5,464.23	51.1357	5,464.23	54.9279	5,464.23	47.9544	5,464.23	59.8166
5,656.86	85.3459	5,656.86	84.819	5,656.86	84.9771	5,656.86	84.1482	5,656.86	83.6542	5,656.86	82.9928	5,656.86	82.2598	5,656.86	80.857	5,656.86	81.0358	5,656.86	79.0161	5,656.86	79.3095	5,656.86	79.2318	5,656.86	78.2823	5,656.86	78.771	5,656.86	78.134	5,656.86	75.5778	5,656.86	76.7333	5,656.86	72.4397	5,656.86	73.0173	5,656.86	70.3252	5,656.86	71.0401	5,656.86	59.6002	5,656.86	54.6173	5,656.86	61.7198	5,656.86	63.8233	5,656.86	56.7525	5,656.86	53.3902	5,656.86	59.1453	5,656.86	58.8844	5,656.86	56.7641	5,656.86	52.3038	5,656.86	60.7995	5,656.86	57.275	5,656.86	53.8192	5,656.86	55.4959	5,656.86	59.5645
5,856.45	83.6871	5,856.45	83.1579	5,856.45	83.649	5,856.45	82.9921	5,856.45	82.7698	5,856.45	82.446	5,856.45	82.3671	5,856.45	80.6254	5,856.45	81.7954	5,856.45	78.3889	5,856.45	79.3618	5,856.45	77.7314	5,856.45	77.0228	5,856.45	76.8281	5,856.45	76.7455	5,856.45	74.1824	5,856.45	74.7841	5,856.45	69.1809	5,856.45	69.8071	5,856.45	67.6304	5,856.45	68.8317	5,856.45	60.7422	5,856.45	57.8552	5,856.45	65.163	5,856.45	62.1773	5,856.45	47.2226	5,856.45	52.4536	5,856.45	60.8056	5,856.45	57.5882	5,856.45	58.5954	5,856.45	55.0386	5,856.45	56.4905	5,856.45	45.272	5,856.45	54.8146	5,856.45	52.3998	5,856.45	60.0494
6,062.99	84.6868	6,062.99	84.2447	6,062.99	84.3189	6,062.99	83.3745	6,062.99	83.4076	6,062.99	82.2335	6,062.99	82.3449	6,062.99	79.9779	6,062.99	80.7358	6,062.99	77.583	6,062.99	78.5511	6,062.99	77.0261	6,062.99	76.8496	6,062.99	75.8008	6,062.99	75.9182	6,062.99	74.6671	6,062.99	74.7127	6,062.99	72.6592	6,062.99	71.0475	6,062.99	68.1528	6,062.99	68.8556	6,062.99	60.5322	6,062.99	57.0284	6,062.99	58.6356	6,062.99	59.8976	6,062.99	52.6973	6,062.99	41.1488	6,062.99	59.802	6,062.99	55.0924	6,062.99	55.5458	6,062.99	51.566	6,062.99	57.1007	6,062.99	50.6788	6,062.99	58.0462	6,062.99	52.5887	6,062.99	55.5005
6,276.86	83.696	6,276.86	82.9955	6,276.86	83.3367	6,276.86	82.5142	6,276.86	82.1041	6,276.86	81.8351	6,276.86	81.6344	6,276.86	79.8051	6,276.86	81.0823	6,276.86	77.2737	6,276.86	78.6144	6,276.86	75.6686	6,276.86	76.1218	6,276.86	75.7156	6,276.86	76.6537	6,276.86	76.5595	6,276.86	76.8121	6,276.86	73.686	6,276.86	73.4137	6,276.86	67.7421	6,276.86	70.2905	6,276.86	60.4316	6,276.86	61.0102	6,276.86	58.6443	6,276.86	61.5992	6,276.86	45.8264	6,276.86	53.643	6,276.86	59.6285	6,276.86	57.3627	6,276.86	60.5411	6,276.86	58.4388	6,276.86	50.2359	6,276.86	54.1077	6,276.86	53.5143	6,276.86	55.2398	6,276.86	54.6687
6,498.05	82.571	6,498.05	82.5095	6,498.05	82.6869	6,498.05	82.3274	6,498.05	82.2206	6,498.05	80.6968	6,498.05	81.1605	6,498.05	78.1319	6,498.05	79.4428	6,498.05	76.442	6,498.05	77.0714	6,498.05	76.3047	6,498.05	75.5173	6,498.05	77.2429	6,498.05	76.5783	6,498.05	77.179	6,498.05	76.9646	6,498.05	74.6952	6,498.05	74.3143	6,498.05	70.4869	6,498.05	71.8527	6,498.05	58.6725	6,498.05	62.1348	6,498.05	62.1534	6,498.05	59.6504	6,498.05	55.7124	6,498.05	49.7743	6,498.05	53.7442	6,498.05	58.5013	6,498.05	60.0351	6,498.05	54.5653	6,498.05	51.6139	6,498.05	58.9124	6,498.05	47.2133	6,498.05	52.394	6,498.05	57.2998
6,727.29	82.5458	6,727.29	82.2983	6,727.29	82.6952	6,727.29	82.1333	6,727.29	81.9829	6,727.29	81.8061	6,727.29	81.4354	6,727.29	80.0777	6,727.29	80.7321	6,727.29	77.8078	6,727.29	78.5078	6,727.29	77.7841	6,727.29	77.0777	6,727.29	77.3956	6,727.29	76.9161	6,727.29	75.223	6,727.29	75.7421	6,727.29	71.3401	6,727.29	71.7447	6,727.29	68.1678	6,727.29	69.3898	6,727.29	62.0724	6,727.29	60.2745	6,727.29	58.0207	6,727.29	58.6133	6,727.29	57.0313	6,727.29	50.4889	6,727.29	53.3159	6,727.29	54.1696	6,727.29	59.7674	6,727.29	55.2777	6,727.29	54.826	6,727.29	55.9709	6,727.29	43.2732	6,727.29	49.2317	6,727.29	57.1952
6,964.23	82.0235	6,964.23	82.1989	6,964.23	81.6225	6,964.23	82.0943	6,964.23	81.751	6,964.23	81.305	6,964.23	81.5146	6,964.23	78.8456	6,964.23	79.2687	6,964.23	78.0782	6,964.23	77.7854	6,964.23	78.1482	6,964.23	78.3806	6,964.23	75.9657	6,964.23	76.3539	6,964.23	70.8248	6,964.23	70.5967	6,964.23	66.6481	6,964.23	62.767	6,964.23	62.5385	6,964.23	64.3884	6,964.23	57.288	6,964.23	52.1973	6,964.23	53.1646	6,964.23	57.3721	6,964.23	47.6527	6,964.23	48.8961	6,964.23	54.2557	6,964.23	49.963	6,964.23	55.3045	6,964.23	51.7216	6,964.23	55.2063	6,964.23	52.41	6,964.23	44.3921	6,964.23	47.7263	6,964.23	57.4771
7,209.96	82.7558	7,209.96	82.6608	7,209.96	82.6419	7,209.96	82.4262	7,209.96	82.6772	7,209.96	81.664	7,209.96	81.6907	7,209.96	80.6516	7,209.96	79.8846	7,209.96	80.6321	7,209.96	79.4922	7,209.96	77.8249	7,209.96	78.4285	7,209.96	71.6287	7,209.96	75.021	7,209.96	68.2318	7,209.96	70.7165	7,209.96	65.7373	7,209.96	65.0613	7,209.96	61.0742	7,209.96	61.1375	7,209.96	47.8269	7,209.96	58.0909	7,209.96	48.9188	7,209.96	47.106	7,209.96	52.7488	7,209.96	42.3864	7,209.96	41.4947	7,209.96	44.3654	7,209.96	47.3313	7,209.96	51.294	7,209.96	50.6578	7,209.96	45.5389	7,209.96	45.674	7,209.96	51.3146	7,209.96	56.9904
7,464.11	83.2007	7,464.11	82.9936	7,464.11	82.5921	7,464.11	81.8122	7,464.11	81.3177	7,464.11	79.7219	7,464.11	80.324	7,464.11	79.6534	7,464.11	80.5344	7,464.11	79.8222	7,464.11	80.0775	7,464.11	75.9955	7,464.11	77.7709	7,464.11	71.2153	7,464.11	74.2981	7,464.11	71.2711	7,464.11	71.0719	7,464.11	67.6578	7,464.11	67.6797	7,464.11	61.8791	7,464.11	64.4052	7,464.11	56.776	7,464.11	61.517	7,464.11	45.5734	7,464.11	41.5112	7,464.11	46.3826	7,464.11	51.9576	7,464.11	48.0983	7,464.11	48.2779	7,464.11	38.4018	7,464.11	48.444	7,464.11	51.4466	7,464.11	52.1274	7,464.11	43.9604	7,464.11	51.2583	7,464.11	48.8254
7,727.42	81.5649	7,727.42	80.7693	7,727.42	81.4798	7,727.42	79.6999	7,727.42	79.6257	7,727.42	78.5964	7,727.42	78.3481	7,727.42	79.0826	7,727.42	79.5552	7,727.42	78.2138	7,727.42	79.052	7,727.42	73.9065	7,727.42	76.1236	7,727.42	72.4298	7,727.42	73.8937	7,727.42	71.1386	7,727.42	72.7264	7,727.42	66.4841	7,727.42	68.6695	7,727.42	60.5479	7,727.42	64.6356	7,727.42	52.0883	7,727.42	59.6492	7,727.42	50.8648	7,727.42	57.12	7,727.42	49.5168	7,727.42	53.6663	7,727.42	48.1979	7,727.42	46.3608	7,727.42	46.827	7,727.42	47.5807	7,727.42	47.169	7,727.42	44.4177	7,727.42	48.2817	7,727.42	46.3593	7,727.42	45.1525
7,999.88	81.2018	7,999.88	80.9502	7,999.88	81.4744	7,999.88	80.3727	7,999.88	80.9936	7,999.88	81.2396	7,999.88	80.6606	7,999.88	81.2665	7,999.88	80.6235	7,999.88	78.0075	7,999.88	78.4853	7,999.88	75.6233	7,999.88	75.3549	7,999.88	76.5829	7,999.88	75.3718	7,999.88	72.0351	7,999.88	74.5001	7,999.88	65.8796	7,999.88	69.7159	7,999.88	62.8999	7,999.88	65.7484	7,999.88	55.5108	7,999.88	59.5074	7,999.88	58.3858	7,999.88	55.5911	7,999.88	57.1031	7,999.88	57.1445	7,999.88	54.7431	7,999.88	56.2585	7,999.88	51.4761	7,999.88	56.6583	7,999.88	49.3115	7,999.88	56.1503	7,999.88	56.4112	7,999.88	60.4006	7,999.88	58.4598
8,282.23	81.6683	8,282.23	81.6045	8,282.23	80.8886	8,282.23	79.4017	8,282.23	78.9236	8,282.23	78.7074	8,282.23	76.9479	8,282.23	77.8615	8,282.23	77.2493	8,282.23	73.4081	8,282.23	75.331	8,282.23	74.0203	8,282.23	73.423	8,282.23	74.3287	8,282.23	73.6532	8,282.23	71.3034	8,282.23	72.0786	8,282.23	67.2219	8,282.23	67.6731	8,282.23	60.0753	8,282.23	62.2604	8,282.23	56.7122	8,282.23	59.2472	8,282.23	54.3797	8,282.23	54.9036	8,282.23	50.531	8,282.23	50.1698	8,282.23	39.8904	8,282.23	54.8264	8,282.23	46.4065	8,282.23	57.5759	8,282.23	49.3644	8,282.23	49.4625	8,282.23	47.3408	8,282.23	56.2877	8,282.23	55.7449
8,574.1	83.0948	8,574.1	81.8795	8,574.1	83.0471	8,574.1	81.6145	8,574.1	82.6509	8,574.1	82.4453	8,574.1	82.5648	8,574.1	80.5805	8,574.1	81.5385	8,574.1	78.7071	8,574.1	79.1551	8,574.1	77.3826	8,574.1	77.2792	8,574.1	73.1897	8,574.1	75.4698	8,574.1	72.0613	8,574.1	72.2337	8,574.1	69.6653	8,574.1	66.3364	8,574.1	61.6311	8,574.1	62.7334	8,574.1	57.1279	8,574.1	60.2484	8,574.1	57.068	8,574.1	53.9544	8,574.1	52.4254	8,574.1	52.9827	8,574.1	52.7626	8,574.1	51.894	8,574.1	42.1271	8,574.1	58.5856	8,574.1	51.128	8,574.1	44.7459	8,574.1	51.2041	8,574.1	51.7371	8,574.1	43.117
8,876.59	85.2058	8,876.59	84.3018	8,876.59	84.4693	8,876.59	83.9385	8,876.59	84.0361	8,876.59	84.1147	8,876.59	84.2668	8,876.59	81.873	8,876.59	82.3841	8,876.59	79.7511	8,876.59	79.4497	8,876.59	77.3782	8,876.59	78.1192	8,876.59	73.7163	8,876.59	75.9684	8,876.59	73.5928	8,876.59	74.2778	8,876.59	70.1986	8,876.59	70.6975	8,876.59	61.3213	8,876.59	64.6106	8,876.59	56.6708	8,876.59	61.1872	8,876.59	54.5006	8,876.59	54.2885	8,876.59	55.9419	8,876.59	50.7691	8,876.59	47.7596	8,876.59	51.3575	8,876.59	36.0598	8,876.59	51.3289	8,876.59	46.6133	8,876.59	42.3501	8,876.59	44.2172	8,876.59	35.521	8,876.59	47.9624
9,189.7	84.9914	9,189.7	84.3033	9,189.7	84.6129	9,189.7	83.6693	9,189.7	84.054	9,189.7	82.9543	9,189.7	83.4517	9,189.7	80.8413	9,189.7	81.9667	9,189.7	78.7759	9,189.7	79.6789	9,189.7	75.4182	9,189.7	77.1059	9,189.7	72.6045	9,189.7	75.3055	9,189.7	72.5247	9,189.7	73.5268	9,189.7	68.3423	9,189.7	68.1222	9,189.7	58.4957	9,189.7	59.2868	9,189.7	43.8488	9,189.7	60.2862	9,189.7	51.4595	9,189.7	54.1865	9,189.7	45.9476	9,189.7	44.4127	9,189.7	53.1785	9,189.7	42.4454	9,189.7	34.3467	9,189.7	44.6995	9,189.7	50.9593	9,189.7	45.7826	9,189.7	43.1271	9,189.7	47.1302	9,189.7	51.1047
9,513.79	84.7907	9,513.79	84.1968	9,513.79	84.1787	9,513.79	83.6786	9,513.79	83.4555	9,513.79	82.8861	9,513.79	83.1889	9,513.79	80.6797	9,513.79	81.6994	9,513.79	78.6663	9,513.79	79.3229	9,513.79	75.5523	9,513.79	77.2018	9,513.79	71.104	9,513.79	74.0607	9,513.79	69.6119	9,513.79	71.2554	9,513.79	66.4124	9,513.79	67.7305	9,513.79	59.8169	9,513.79	60.6051	9,513.79	50.054	9,513.79	59.2204	9,513.79	48.5377	9,513.79	44.9335	9,513.79	46.1509	9,513.79	45.3307	9,513.79	52.7419	9,513.79	46.6226	9,513.79	45.1374	9,513.79	46.0609	9,513.79	54.7608	9,513.79	48.3306	9,513.79	45.7311	9,513.79	44.2141	9,513.79	49.6139
9,849.24	85.8222	9,849.24	84.6939	9,849.24	84.9509	9,849.24	83.9524	9,849.24	83.6011	9,849.24	83.1251	9,849.24	83.3751	9,849.24	81.0193	9,849.24	81.9958	9,849.24	78.68	9,849.24	79.3492	9,849.24	73.3104	9,849.24	76.3343	9,849.24	70.9594	9,849.24	72.7262	9,849.24	72.8475	9,849.24	72.3731	9,849.24	69.5101	9,849.24	69.2296	9,849.24	62.5164	9,849.24	62.4089	9,849.24	56.1525	9,849.24	60.3468	9,849.24	43.6374	9,849.24	50.1163	9,849.24	40.8057	9,849.24	45.5636	9,849.24	52.8169	9,849.24	45.7001	9,849.24	48.8909	9,849.24	51.5214	9,849.24	52.2127	9,849.24	53.4942	9,849.24	39.2301	9,849.24	52.4707	9,849.24	45.2953
10,196.4	85.8025	10,196.4	84.6515	10,196.4	85.0893	10,196.4	84.0033	10,196.4	83.9494	10,196.4	83.1446	10,196.4	83.4198	10,196.4	80.8296	10,196.4	81.6054	10,196.4	77.781	10,196.4	78.3745	10,196.4	73.5496	10,196.4	75.4187	10,196.4	73.549	10,196.4	73.0337	10,196.4	72.494	10,196.4	71.8586	10,196.4	68.7144	10,196.4	68.2672	10,196.4	61.092	10,196.4	60.2419	10,196.4	50.44	10,196.4	59.7431	10,196.4	34.6786	10,196.4	50.4523	10,196.4	50.4939	10,196.4	45.7805	10,196.4	41.2948	10,196.4	50.6401	10,196.4	41.2157	10,196.4	54.1445	10,196.4	48.0877	10,196.4	45.585	10,196.4	42.6844	10,196.4	51.9872	10,196.4	43.46
10,556	84.2862	10,556	84.286	10,556	84.4095	10,556	84.594	10,556	84.445	10,556	83.1415	10,556	83.4208	10,556	80.4878	10,556	80.8983	10,556	77.3667	10,556	78.521	10,556	75.6424	10,556	76.193	10,556	74.9777	10,556	73.7404	10,556	72.3345	10,556	73.1174	10,556	67.9714	10,556	68.5148	10,556	64.478	10,556	63.2682	10,556	57.9511	10,556	60.3799	10,556	43.3195	10,556	54.9179	10,556	51.2227	10,556	52.799	10,556	55.2191	10,556	49.6619	10,556	39.6929	10,556	58.8567	10,556	47.6973	10,556	42.4662	10,556	33.6993	10,556	49.8767	10,556	42.6196
10,928.5	84.0297	10,928.5	84.5608	10,928.5	84.8009	10,928.5	84.8485	10,928.5	85.0528	10,928.5	83.0607	10,928.5	83.5342	10,928.5	80.197	10,928.5	81.0641	10,928.5	77.4045	10,928.5	79.0218	10,928.5	75.2932	10,928.5	76.1403	10,928.5	74.9609	10,928.5	74.8178	10,928.5	74.4163	10,928.5	75.2262	10,928.5	70.3493	10,928.5	70.5937	10,928.5	64.5525	10,928.5	62.334	10,928.5	58.7554	10,928.5	60.2261	10,928.5	50.8725	10,928.5	53.3315	10,928.5	40.0886	10,928.5	50.9159	10,928.5	54.5799	10,928.5	51.0696	10,928.5	39.4609	10,928.5	58.2066	10,928.5	43.3877	10,928.5	52.2647	10,928.5	42.7541	10,928.5	49.4279	10,928.5	49.0487
11,313.7	85.1678	11,313.7	85.2033	11,313.7	85.5198	11,313.7	84.7296	11,313.7	85.4455	11,313.7	83.0818	11,313.7	83.8124	11,313.7	80.4645	11,313.7	81.2702	11,313.7	78.0204	11,313.7	78.7205	11,313.7	76.8997	11,313.7	76.1818	11,313.7	76.2472	11,313.7	75.4819	11,313.7	73.9756	11,313.7	75.0259	11,313.7	69.5282	11,313.7	70.5609	11,313.7	62.0059	11,313.7	60.7083	11,313.7	58.8885	11,313.7	60.6266	11,313.7	48.1804	11,313.7	48.481	11,313.7	47.4677	11,313.7	51.0806	11,313.7	40.903	11,313.7	58.149	11,313.7	40.1499	11,313.7	54.8623	11,313.7	44.9972	11,313.7	51.3661	11,313.7	47.7173	11,313.7	37.8185	11,313.7	48.5282
11,712.5	85.58	11,712.5	85.1226	11,712.5	85.7175	11,712.5	84.4432	11,712.5	85.2664	11,712.5	83.0528	11,712.5	83.8139	11,712.5	80.3203	11,712.5	81.3116	11,712.5	77.824	11,712.5	78.821	11,712.5	76.7079	11,712.5	76.8358	11,712.5	75.13	11,712.5	74.9524	11,712.5	72.0713	11,712.5	73.7773	11,712.5	67.6775	11,712.5	70.1684	11,712.5	60.9142	11,712.5	59.7047	11,712.5	58.7407	11,712.5	61.7919	11,712.5	46.8351	11,712.5	52.4562	11,712.5	48.713	11,712.5	49.9034	11,712.5	40.5634	11,712.5	57.0406	11,712.5	44.8941	11,712.5	50.274	11,712.5	48.8489	11,712.5	47.5345	11,712.5	42.2028	11,712.5	52.2403	11,712.5	46.3666
12,125.6	85.4539	12,125.6	84.9256	12,125.6	85.5041	12,125.6	84.5554	12,125.6	84.9412	12,125.6	82.7317	12,125.6	83.3527	12,125.6	79.0767	12,125.6	80.5461	12,125.6	77.117	12,125.6	78.3026	12,125.6	75.5618	12,125.6	75.9106	12,125.6	73.6732	12,125.6	73.5205	12,125.6	70.4837	12,125.6	72.5469	12,125.6	65.382	12,125.6	69.1532	12,125.6	60.068	12,125.6	59.2932	12,125.6	57.8665	12,125.6	59.8607	12,125.6	45.795	12,125.6	53.6033	12,125.6	48.4388	12,125.6	46.2528	12,125.6	39.2717	12,125.6	53.4903	12,125.6	41.8253	12,125.6	52.5048	12,125.6	45.6558	12,125.6	53.1749	12,125.6	43.0754	12,125.6	52.5234	12,125.6	45.3907
12,553.3	83.7796	12,553.3	84.1553	12,553.3	84.4308	12,553.3	84.3166	12,553.3	84.5171	12,553.3	81.9232	12,553.3	82.6221	12,553.3	78.8984	12,553.3	79.7744	12,553.3	77.2569	12,553.3	78.2387	12,553.3	76.3139	12,553.3	76.4444	12,553.3	73.7573	12,553.3	74.2744	12,553.3	67.7099	12,553.3	70.9633	12,553.3	59.9541	12,553.3	65.6039	12,553.3	53.1919	12,553.3	54.8184	12,553.3	54.3358	12,553.3	54.3107	12,553.3	43.7115	12,553.3	52.9445	12,553.3	48.1294	12,553.3	43.1642	12,553.3	51.2333	12,553.3	47.2612	12,553.3	44.7408	12,553.3	36.194	12,553.3	34.482	12,553.3	51.1735	12,553.3	44.5634	12,553.3	45.5291	12,553.3	53.636
12,996.1	82.249	12,996.1	83.4249	12,996.1	83.2692	12,996.1	83.7234	12,996.1	83.9058	12,996.1	81.8842	12,996.1	82.1144	12,996.1	79.261	12,996.1	79.9991	12,996.1	77.7505	12,996.1	78.8849	12,996.1	75.813	12,996.1	77.2076	12,996.1	69.7822	12,996.1	73.6499	12,996.1	58.2913	12,996.1	66.6182	12,996.1	52.6082	12,996.1	57.3804	12,996.1	45.6426	12,996.1	54.8962	12,996.1	54.5696	12,996.1	42.4004	12,996.1	46.8948	12,996.1	49.9735	12,996.1	44.9831	12,996.1	40.228	12,996.1	53.9152	12,996.1	50.9884	12,996.1	51.3082	12,996.1	46.9451	12,996.1	47.4755	12,996.1	48.0697	12,996.1	48.5756	12,996.1	51.8791	12,996.1	58.0909
13,454.2	82.5579	13,454.2	83.4999	13,454.2	82.8933	13,454.2	83.0679	13,454.2	83.4496	13,454.2	80.8242	13,454.2	81.5466	13,454.2	78.5851	13,454.2	79.8092	13,454.2	78.8354	13,454.2	79.1174	13,454.2	74.5011	13,454.2	76.5105	13,454.2	55.0795	13,454.2	68.6138	13,454.2	64.0298	13,454.2	53.3465	13,454.2	59.6152	13,454.2	58.419	13,454.2	54.407	13,454.2	55.1501	13,454.2	33.5716	13,454.2	56.7886	13,454.2	48.606	13,454.2	44.9233	13,454.2	38.8215	13,454.2	50.9687	13,454.2	49.0551	13,454.2	49.7443	13,454.2	48.9184	13,454.2	35.06	13,454.2	50.9127	13,454.2	53.3423	13,454.2	54.3542	13,454.2	50.8873	13,454.2	58.7235
13,928.8	82.2037	13,928.8	82.1411	13,928.8	81.7979	13,928.8	80.6386	13,928.8	81.4428	13,928.8	79.0047	13,928.8	80.394	13,928.8	80.4975	13,928.8	80.8876	13,928.8	79.7668	13,928.8	80.2474	13,928.8	68.9847	13,928.8	75.2808	13,928.8	68.8212	13,928.8	60.7234	13,928.8	71.8863	13,928.8	72.2336	13,928.8	68.0532	13,928.8	68.346	13,928.8	61.5158	13,928.8	57.1116	13,928.8	55.4742	13,928.8	61.5492	13,928.8	55.0547	13,928.8	44.9805	13,928.8	42.3847	13,928.8	55.7901	13,928.8	56.9357	13,928.8	51.5577	13,928.8	46.7949	13,928.8	45.0995	13,928.8	55.958	13,928.8	50.9945	13,928.8	53.3943	13,928.8	54.0024	13,928.8	55.9273
14,419.9	81.0563	14,419.9	80.8691	14,419.9	79.774	14,419.9	79.0251	14,419.9	79.6179	14,419.9	79.4943	14,419.9	80.5302	14,419.9	81.3359	14,419.9	81.7391	14,419.9	77.9047	14,419.9	79.6338	14,419.9	68.1725	14,419.9	68.4989	14,419.9	76.0435	14,419.9	72.5151	14,419.9	73.7285	14,419.9	74.9732	14,419.9	68.234	14,419.9	68.7794	14,419.9	58.2408	14,419.9	52.9763	14,419.9	59.9605	14,419.9	61.5335	14,419.9	56.5966	14,419.9	52.3654	14,419.9	56.7598	14,419.9	57.974	14,419.9	56.2288	14,419.9	56.0631	14,419.9	53.5032	14,419.9	51.0447	14,419.9	55.8602	14,419.9	54.293	14,419.9	54.8638	14,419.9	54.8697	14,419.9	43.029
14,928.6	80.2599	14,928.6	79.7359	14,928.6	79.565	14,928.6	78.6738	14,928.6	79.5583	14,928.6	81.1324	14,928.6	81.5286	14,928.6	80.7944	14,928.6	82.103	14,928.6	72.517	14,928.6	76.3615	14,928.6	75.4834	14,928.6	69.7956	14,928.6	77.3081	14,928.6	76.2569	14,928.6	74.4448	14,928.6	75.2701	14,928.6	70.162	14,928.6	69.9434	14,928.6	60.4561	14,928.6	54.6919	14,928.6	62.0077	14,928.6	63.8228	14,928.6	57.2109	14,928.6	56.5063	14,928.6	61.7813	14,928.6	59.5925	14,928.6	49.3089	14,928.6	58.4217	14,928.6	51.0967	14,928.6	51.8753	14,928.6	51.6345	14,928.6	47.2416	14,928.6	52.3283	14,928.6	56.4539	14,928.6	51.3951
15,454.8	78.7042	15,454.8	77.167	15,454.8	78.2879	15,454.8	78.904	15,454.8	79.3282	15,454.8	82.1357	15,454.8	81.8531	15,454.8	79.738	15,454.8	80.5994	15,454.8	74.8055	15,454.8	74.2011	15,454.8	77.2517	15,454.8	75.454	15,454.8	76.4689	15,454.8	75.6353	15,454.8	74.1662	15,454.8	74.393	15,454.8	69.6635	15,454.8	70.8473	15,454.8	61.6269	15,454.8	58.9283	15,454.8	57.3585	15,454.8	63.7809	15,454.8	55.5994	15,454.8	56.0397	15,454.8	60.3715	15,454.8	57.3522	15,454.8	43.7449	15,454.8	56.1357	15,454.8	42.2788	15,454.8	51.8261	15,454.8	55.7823	15,454.8	55.1635	15,454.8	49.486	15,454.8	59.5293	15,454.8	52.1662
16,000.1	77.4095	16,000.1	77.4395	16,000.1	77.1676	16,000.1	79.6547	16,000.1	78.7112	16,000.1	80.1333	16,000.1	80.9737	16,000.1	75.8532	16,000.1	79.5752	16,000.1	74.8133	16,000.1	75.9034	16,000.1	74.9982	16,000.1	74.9685	16,000.1	73.0228	16,000.1	72.6004	16,000.1	70.9574	16,000.1	71.2569	16,000.1	65.5943	16,000.1	68.432	16,000.1	60.0541	16,000.1	57.9784	16,000.1	48.2443	16,000.1	60.6209	16,000.1	49.7394	16,000.1	54.1331	16,000.1	57.3882	16,000.1	54.2031	16,000.1	54.2724	16,000.1	55.8028	16,000.1	48.5918	16,000.1	54.2871	16,000.1	54.772	16,000.1	53.3191	16,000.1	49.9202	16,000.1	56.3888	16,000.1	48.046
16,564.1	78.9338	16,564.1	79.5266	16,564.1	78.7119	16,564.1	80.4882	16,564.1	79.2546	16,564.1	79.1701	16,564.1	80.1274	16,564.1	75.1502	16,564.1	78.0678	16,564.1	74.3701	16,564.1	74.9806	16,564.1	71.3182	16,564.1	72.5787	16,564.1	66.8852	16,564.1	69.0024	16,564.1	67.0511	16,564.1	68.0806	16,564.1	62.7751	16,564.1	63.6431	16,564.1	55.865	16,564.1	54.8381	16,564.1	48.8678	16,564.1	54.803	16,564.1	50.1544	16,564.1	49.262	16,564.1	51.7999	16,564.1	48.611	16,564.1	54.5344	16,564.1	50.1684	16,564.1	50.3399	16,564.1	54.4944	16,564.1	50.7727	16,564.1	52.3025	16,564.1	49.7442	16,564.1	53.9773	16,564.1	51.3672
17,148.2	83.4804	17,148.2	83.5626	17,148.2	83.0748	17,148.2	82.9062	17,148.2	82.3691	17,148.2	80.3174	17,148.2	81.2591	17,148.2	77.1154	17,148.2	78.6219	17,148.2	75.965	17,148.2	76.0456	17,148.2	71.7732	17,148.2	72.0298	17,148.2	66.0226	17,148.2	68.0918	17,148.2	62.9999	17,148.2	67.1371	17,148.2	61.6104	17,148.2	61.5242	17,148.2	51.0109	17,148.2	46.2444	17,148.2	49.2592	17,148.2	45.2854	17,148.2	50.1185	17,148.2	41.1098	17,148.2	44.0308	17,148.2	46.6867	17,148.2	54.1939	17,148.2	47.9878	17,148.2	49.5092	17,148.2	54.7218	17,148.2	36.0353	17,148.2	48.0546	17,148.2	48.3002	17,148.2	47.471	17,148.2	50.4874
17,753.2	86.009	17,753.2	84.0713	17,753.2	85.6916	17,753.2	81.6854	17,753.2	83.9604	17,753.2	80.3677	17,753.2	81.4114	17,753.2	77.0116	17,753.2	78.2448	17,753.2	73.0071	17,753.2	74.4405	17,753.2	68.5301	17,753.2	69.0749	17,753.2	61.8669	17,753.2	66.0434	17,753.2	60.0618	17,753.2	64.5027	17,753.2	57.0009	17,753.2	58.2542	17,753.2	51.5614	17,753.2	45.911	17,753.2	49.5759	17,753.2	44.5862	17,753.2	44.4983	17,753.2	50.5869	17,753.2	48.3764	17,753.2	44.629	17,753.2	45.7311	17,753.2	53.0968	17,753.2	45.7958	17,753.2	51.3792	17,753.2	49.9806	17,753.2	47.8584	17,753.2	48.5206	17,753.2	49.746	17,753.2	33.2212
18,379	85.0182	18,379	82.1558	18,379	84.8599	18,379	77.5793	18,379	82.3682	18,379	74.5221	18,379	79.3102	18,379	72.0346	18,379	75.348	18,379	68.0854	18,379	69.6394	18,379	64.5868	18,379	61.8824	18,379	62.6565	18,379	60.6039	18,379	60.2175	18,379	59.8507	18,379	55.5168	18,379	54.6941	18,379	45.4243	18,379	43.3054	18,379	47.8819	18,379	36.8927	18,379	41.7925	18,379	42.8413	18,379	52.1729	18,379	48.4681	18,379	44.7976	18,379	52.3726	18,379	45.7863	18,379	42.7662	18,379	52.3725	18,379	43.1583	18,379	46.4185	18,379	48.9804	18,379	42.6596
19,027.2	85.0305	19,027.2	83.1739	19,027.2	83.6923	19,027.2	79.1601	19,027.2	79.7031	19,027.2	72.1622	19,027.2	75.7286	19,027.2	64.4269	19,027.2	71.3754	19,027.2	64.4471	19,027.2	63.6561	19,027.2	63.5672	19,027.2	56.2043	19,027.2	61.2342	19,027.2	55.6373	19,027.2	59.0838	19,027.2	54.4246	19,027.2	53.6948	19,027.2	53.3834	19,027.2	45.71	19,027.2	42.92	19,027.2	39.8491	19,027.2	35.8446	19,027.2	41.0749	19,027.2	39.8161	19,027.2	46.1255	19,027.2	40.0599	19,027.2	45.7273	19,027.2	44.9863	19,027.2	37.8238	19,027.2	47.761	19,027.2	38.4152	19,027.2	29.6819	19,027.2	50.2093	19,027.2	48.505	19,027.2	53.8907
19,698.5	80.8321	19,698.5	76.5969	19,698.5	81.0901	19,698.5	71.0366	19,698.5	77.1931	19,698.5	62.0448	19,698.5	71.7772	19,698.5	53.7305	19,698.5	67.2461	19,698.5	63.1199	19,698.5	58.9869	19,698.5	64.0214	19,698.5	56.7696	19,698.5	59.7759	19,698.5	57.4676	19,698.5	52.5911	19,698.5	55.9506	19,698.5	51.6677	19,698.5	50.3667	19,698.5	27.317	19,698.5	41.2726	19,698.5	41.9096	19,698.5	36.0748	19,698.5	31.5947	19,698.5	30.1525	19,698.5	47.8106	19,698.5	41.132	19,698.5	39.1845	19,698.5	46.1865	19,698.5	34.4401	19,698.5	37.2847	19,698.5	46.0406	19,698.5	34.9573	19,698.5	51.0722	19,698.5	42.0808	19,698.5	51.6406
19,999.9	74.2023	19,999.9	70.3357	19,999.9	77.4073	19,999.9	72.1394	19,999.9	75.6749	19,999.9	65.0953	19,999.9	70.386	19,999.9	55.4307	19,999.9	64.019	19,999.9	64.8858	19,999.9	55.9815	19,999.9	60.8913	19,999.9	60.8977	19,999.9	54.9935	19,999.9	55.4666	19,999.9	54.5417	19,999.9	54.369	19,999.9	49.7036	19,999.9	54.3352	19,999.9	40.7747	19,999.9	42.9543	19,999.9	47.5177	19,999.9	41.8089	19,999.9	41.3174	19,999.9	49.8162	19,999.9	47.3159	19,999.9	41.1233	19,999.9	49.9534	19,999.9	40.3799	19,999.9	44.2321	19,999.9	52.7342	19,999.9	49.6211	19,999.9	46.1749	19,999.9	50.2787	19,999.9	51.0965	19,999.9	51.2454
