"SPL Vertical"
"On-Axis"		"10°"		"-10°"		"20°"		"-20°"		"30°"		"-30°"		"40°"		"-40°"		"50°"		"-50°"		"60°"		"-60°"		"70°"		"-70°"		"80°"		"-80°"		"90°"		"-90°"		"100°"		"-100°"		"110°"		"-110°"		"120°"		"-120°"		"130°"		"-130°"		"140°"		"-140°"		"150°"		"-150°"		"160°"		"-160°"		"170°"		"-170°"		"180°"
"Frequency / Hz"	"Sound Pressure Level / dB (re 20 µPa/V)  [2.83  V @ 1. m]"	"Frequency / Hz"	"Sound Pressure Level / dB (re 20 µPa/V)  [2.83  V @ 1. m]"	"Frequency / Hz"	"Sound Pressure Level / dB (re 20 µPa/V)  [2.83  V @ 1. m]"	"Frequency / Hz"	"Sound Pressure Level / dB (re 20 µPa/V)  [2.83  V @ 1. m]"	"Frequency / Hz"	"Sound Pressure Level / dB (re 20 µPa/V)  [2.83  V @ 1. m]"	"Frequency / Hz"	"Sound Pressure Level / dB (re 20 µPa/V)  [2.83  V @ 1. m]"	"Frequency / Hz"	"Sound Pressure Level / dB (re 20 µPa/V)  [2.83  V @ 1. m]"	"Frequency / Hz"	"Sound Pressure Level / dB (re 20 µPa/V)  [2.83  V @ 1. m]"	"Frequency / Hz"	"Sound Pressure Level / dB (re 20 µPa/V)  [2.83  V @ 1. m]"	"Frequency / Hz"	"Sound Pressure Level / dB (re 20 µPa/V)  [2.83  V @ 1. m]"	"Frequency / Hz"	"Sound Pressure Level / dB (re 20 µPa/V)  [2.83  V @ 1. m]"	"Frequency / Hz"	"Sound Pressure Level / dB (re 20 µPa/V)  [2.83  V @ 1. m]"	"Frequency / Hz"	"Sound Pressure Level / dB (re 20 µPa/V)  [2.83  V @ 1. m]"	"Frequency / Hz"	"Sound Pressure Level / dB (re 20 µPa/V)  [2.83  V @ 1. m]"	"Frequency / Hz"	"Sound Pressure Level / dB (re 20 µPa/V)  [2.83  V @ 1. m]"	"Frequency / Hz"	"Sound Pressure Level / dB (re 20 µPa/V)  [2.83  V @ 1. m]"	"Frequency / Hz"	"Sound Pressure Level / dB (re 20 µPa/V)  [2.83  V @ 1. m]"	"Frequency / Hz"	"Sound Pressure Level / dB (re 20 µPa/V)  [2.83  V @ 1. m]"	"Frequency / Hz"	"Sound Pressure Level / dB (re 20 µPa/V)  [2.83  V @ 1. m]"	"Frequency / Hz"	"Sound Pressure Level / dB (re 20 µPa/V)  [2.83  V @ 1. m]"	"Frequency / Hz"	"Sound Pressure Level / dB (re 20 µPa/V)  [2.83  V @ 1. m]"	"Frequency / Hz"	"Sound Pressure Level / dB (re 20 µPa/V)  [2.83  V @ 1. m]"	"Frequency / Hz"	"Sound Pressure Level / dB (re 20 µPa/V)  [2.83  V @ 1. m]"	"Frequency / Hz"	"Sound Pressure Level / dB (re 20 µPa/V)  [2.83  V @ 1. m]"	"Frequency / Hz"	"Sound Pressure Level / dB (re 20 µPa/V)  [2.83  V @ 1. m]"	"Frequency / Hz"	"Sound Pressure Level / dB (re 20 µPa/V)  [2.83  V @ 1. m]"	"Frequency / Hz"	"Sound Pressure Level / dB (re 20 µPa/V)  [2.83  V @ 1. m]"	"Frequency / Hz"	"Sound Pressure Level / dB (re 20 µPa/V)  [2.83  V @ 1. m]"	"Frequency / Hz"	"Sound Pressure Level / dB (re 20 µPa/V)  [2.83  V @ 1. m]"	"Frequency / Hz"	"Sound Pressure Level / dB (re 20 µPa/V)  [2.83  V @ 1. m]"	"Frequency / Hz"	"Sound Pressure Level / dB (re 20 µPa/V)  [2.83  V @ 1. m]"	"Frequency / Hz"	"Sound Pressure Level / dB (re 20 µPa/V)  [2.83  V @ 1. m]"	"Frequency / Hz"	"Sound Pressure Level / dB (re 20 µPa/V)  [2.83  V @ 1. m]"	"Frequency / Hz"	"Sound Pressure Level / dB (re 20 µPa/V)  [2.83  V @ 1. m]"	"Frequency / Hz"	"Sound Pressure Level / dB (re 20 µPa/V)  [2.83  V @ 1. m]"	"Frequency / Hz"	"Sound Pressure Level / dB (re 20 µPa/V)  [2.83  V @ 1. m]"
20.5078	58.9748	20.5078	58.5064	20.5078	59.2886	20.5078	57.8792	20.5078	59.4472	20.5078	57.0835	20.5078	59.4445	20.5078	56.1051	20.5078	59.2691	20.5078	54.9285	20.5078	58.9039	20.5078	53.5489	20.5078	58.3256	20.5078	52.0101	20.5078	57.5047	20.5078	50.5031	20.5078	56.408	20.5078	49.5033	20.5078	55.0113	20.5078	49.5641	20.5078	53.3481	20.5078	50.6038	20.5078	51.6589	20.5078	52.0171	20.5078	50.6184	20.5078	53.3661	20.5078	50.9142	20.5078	54.4787	20.5078	52.1725	20.5078	55.3051	20.5078	53.576	20.5078	55.8324	20.5078	54.7243	20.5078	56.0526	20.5078	55.5173	20.5078	55.9537
21.9727	51.503	21.9727	50.4537	21.9727	52.1531	21.9727	48.8967	21.9727	52.4494	21.9727	46.6127	21.9727	52.394	21.9727	43.1993	21.9727	51.9482	21.9727	38.8984	21.9727	51.0228	21.9727	40.5186	21.9727	49.4473	21.9727	45.5245	21.9727	46.9124	21.9727	49.2601	21.9727	43.1544	21.9727	52.0187	21.9727	41.7953	21.9727	54.1532	21.9727	46.4392	21.9727	55.8537	21.9727	50.6234	21.9727	57.2241	21.9727	53.6358	21.9727	58.3226	21.9727	55.8483	21.9727	59.1817	21.9727	57.4942	21.9727	59.8173	21.9727	58.7058	21.9727	60.2346	21.9727	59.5623	21.9727	60.4307	21.9727	60.1143	21.9727	60.3959
23.4375	56.6131	23.4375	56.1015	23.4375	56.9386	23.4375	55.4242	23.4375	57.063	23.4375	54.6248	23.4375	56.9686	23.4375	53.8028	23.4375	56.6318	23.4375	53.1576	23.4375	56.0238	23.4375	52.9759	23.4375	55.1215	23.4375	53.4529	23.4375	53.9509	23.4375	54.4926	23.4375	52.724	23.4375	55.8132	23.4375	52.0778	23.4375	57.1738	23.4375	52.7613	23.4375	58.4428	23.4375	54.5067	23.4375	59.5622	23.4375	56.4792	23.4375	60.5095	23.4375	58.2381	23.4375	61.2749	23.4375	59.6702	23.4375	61.8523	23.4375	60.7742	23.4375	62.2345	23.4375	61.5751	23.4375	62.4121	23.4375	62.1	23.4375	62.3725
24.9023	58.9034	24.9023	58.299	24.9023	59.2814	24.9023	57.4596	24.9023	59.4334	24.9023	56.3768	24.9023	59.3495	24.9023	55.0666	24.9023	59.0078	24.9023	53.6478	24.9023	58.373	24.9023	52.5157	24.9023	57.397	24.9023	52.3758	24.9023	56.0342	24.9023	53.4911	24.9023	54.3278	24.9023	55.2594	24.9023	52.7449	24.9023	57.0802	24.9023	52.5825	24.9023	58.7099	24.9023	54.319	24.9023	60.091	24.9023	56.6439	24.9023	61.2234	24.9023	58.7161	24.9023	62.1177	24.9023	60.3661	24.9023	62.7819	24.9023	61.614	24.9023	63.2181	24.9023	62.5069	24.9023	63.422	24.9023	63.0862	24.9023	63.3835
26.3672	60.9431	26.3672	60.4563	26.3672	61.2543	26.3672	59.8043	26.3672	61.3812	26.3672	59.0086	26.3672	61.3124	26.3672	58.1233	26.3672	61.033	26.3672	57.273	26.3672	60.5275	26.3672	56.6898	26.3672	59.7898	26.3672	56.6547	26.3672	58.8524	26.3672	57.2781	26.3672	57.859	26.3672	58.3789	26.3672	57.1752	26.3672	59.6699	26.3672	57.3014	26.3672	60.9451	26.3672	58.3349	26.3672	62.1001	26.3672	59.8238	26.3672	63.0902	26.3672	61.3197	26.3672	63.8969	26.3672	62.6118	26.3672	64.5112	26.3672	63.6366	26.3672	64.9259	26.3672	64.3879	26.3672	65.1325	26.3672	64.8774	26.3672	65.1206
27.832	62.4896	27.832	61.9782	27.832	62.8085	27.832	61.2751	27.832	62.9317	27.832	60.3863	27.832	62.8509	27.832	59.3426	27.832	62.5518	27.832	58.2444	27.832	62.0156	27.832	57.3378	27.832	61.2257	27.832	57.0224	27.832	60.1915	27.832	57.5616	27.832	59.0162	27.832	58.7605	27.832	58.0421	27.832	60.2097	27.832	57.8842	27.832	61.6276	27.832	58.8299	27.832	62.8906	27.832	60.3943	27.832	63.9566	27.832	62.0037	27.832	64.8141	27.832	63.3931	27.832	65.4598	27.832	64.4904	27.832	65.8907	27.832	65.2929	27.832	66.1008	27.832	65.8167	27.832	66.0805
29.2969	60.8689	29.2969	60.3471	29.2969	61.1938	29.2969	59.6727	29.2969	61.2985	29.2969	58.9426	29.2969	61.1664	29.2969	58.3521	29.2969	60.7849	29.2969	58.1945	29.2969	60.1572	29.2969	58.6928	29.2969	59.3438	29.2969	59.7788	29.2969	58.562	29.2969	61.1725	29.2969	58.2907	29.2969	62.6229	29.2969	59.0025	29.2969	63.9916	29.2969	60.5475	29.2969	65.2197	29.2969	62.3687	29.2969	66.2862	29.2969	64.0878	29.2969	67.1846	29.2969	65.5626	29.2969	67.9122	29.2969	66.7615	29.2969	68.4658	29.2969	67.6905	29.2969	68.8402	29.2969	68.3655	29.2969	69.0281	29.2969	68.8034	29.2969	69.0197
30.7617	64.412	30.7617	64.01	30.7617	64.6782	30.7617	63.4998	30.7617	64.7925	30.7617	62.9321	30.7617	64.745	30.7617	62.397	30.7617	64.5317	30.7617	62.0333	30.7617	64.1602	30.7617	61.9994	30.7617	63.6657	30.7617	62.3886	30.7617	63.1397	30.7617	63.1576	30.7617	62.7632	30.7617	64.1614	30.7617	62.7813	30.7617	65.247	30.7617	63.3435	30.7617	66.3056	30.7617	64.3523	30.7617	67.2729	30.7617	65.5578	30.7617	68.1138	30.7617	66.7433	30.7617	68.8084	30.7617	67.786	30.7617	69.3434	30.7617	68.6321	30.7617	69.7081	30.7617	69.2637	30.7617	69.8925	30.7617	69.6798	30.7617	69.8864
32.2266	65.5902	32.2266	65.2281	32.2266	65.8292	32.2266	64.7753	32.2266	65.9265	32.2266	64.2889	32.2266	65.8717	32.2266	63.8622	32.2266	65.663	32.2266	63.6253	32.2266	65.3132	32.2266	63.7084	32.2266	64.8657	32.2266	64.1693	32.2266	64.4223	32.2266	64.9517	32.2266	64.164	32.2266	65.9263	32.2266	64.3064	32.2266	66.964	32.2266	64.9487	32.2266	67.9719	32.2266	65.9738	32.2266	68.8931	32.2266	67.1547	32.2266	69.6949	32.2266	68.3035	32.2266	70.3575	32.2266	69.3131	32.2266	70.8671	32.2266	70.1349	32.2266	71.2124	32.2266	70.7516	32.2266	71.3831	32.2266	71.1614	32.2266	71.3692
33.6914	67.0988	33.6914	66.7759	33.6914	67.3147	33.6914	66.3794	33.6914	67.4046	33.6914	65.9638	33.6914	67.3587	33.6914	65.613	33.6914	67.1774	33.6914	65.436	33.6914	66.8772	33.6914	65.5366	33.6914	66.5048	33.6914	65.9601	33.6914	66.1573	33.6914	66.6644	33.6914	65.9911	33.6914	67.5476	33.6914	66.1763	33.6914	68.5008	33.6914	66.783	33.6914	69.4395	33.6914	67.7157	33.6914	70.3078	33.6914	68.7909	33.6914	71.071	33.6914	69.847	33.6914	71.707	33.6914	70.7842	33.6914	72.2001	33.6914	71.552	33.6914	72.5377	33.6914	72.13	33.6914	72.7089	33.6914	72.5129	33.6914	72.7036
35.1562	68.427	35.1562	68.1418	35.1562	68.6228	35.1562	67.8024	35.1562	68.7083	35.1562	67.464	35.1562	68.6736	35.1562	67.2043	35.1562	68.521	35.1562	67.1156	35.1562	68.2709	35.1562	67.2767	35.1562	67.9737	35.1562	67.7145	35.1562	67.7245	35.1562	68.3886	35.1562	67.6614	35.1562	69.2146	35.1562	67.9175	35.1562	70.1024	35.1562	68.5333	35.1562	70.9798	35.1562	69.4201	35.1562	71.7962	35.1562	70.4241	35.1562	72.5183	35.1562	71.4085	35.1562	73.1234	35.1562	72.2848	35.1562	73.5951	35.1562	73.0054	35.1562	73.9202	35.1562	73.5489	35.1562	74.0873	35.1562	73.9088	35.1562	74.0863
36.6211	69.6495	36.6211	69.4092	36.6211	69.8177	36.6211	69.1298	36.6211	69.8943	36.6211	68.8601	36.6211	69.8708	36.6211	68.6661	36.6211	69.7511	36.6211	68.6225	36.6211	69.556	36.6211	68.7911	36.6211	69.3331	36.6211	69.194	36.6211	69.1651	36.6211	69.8019	36.6211	69.164	36.6211	70.5496	36.6211	69.4326	36.6211	71.3622	36.6211	70.0015	36.6211	72.1752	36.6211	70.8032	36.6211	72.9401	36.6211	71.7146	36.6211	73.6228	36.6211	72.6186	36.6211	74.199	36.6211	73.4324	36.6211	74.6508	36.6211	74.1077	36.6211	74.9638	36.6211	74.6201	36.6211	75.126	36.6211	74.9603	36.6211	75.1274
38.0859	71.2306	38.0859	71.0267	38.0859	71.3812	38.0859	70.7999	38.0859	71.46	38.0859	70.5937	38.0859	71.4597	38.0859	70.4634	38.0859	71.3854	38.0859	70.4674	38.0859	71.2583	38.0859	70.6515	38.0859	71.1215	38.0859	71.0303	38.0859	71.0436	38.0859	71.5811	38.0859	71.1102	38.0859	72.2534	38.0859	71.3937	38.0859	72.9871	38.0859	71.9137	38.0859	73.7275	38.0859	72.6206	38.0859	74.4308	38.0859	73.4221	38.0859	75.064	38.0859	74.2238	38.0859	75.6028	38.0859	74.9535	38.0859	76.0284	38.0859	75.5644	38.0859	76.3259	38.0859	76.0307	38.0859	76.483	38.0859	76.3402	38.0859	76.49
39.5508	72.7419	39.5508	72.5681	39.5508	72.8736	39.5508	72.3789	39.5508	72.9465	39.5508	72.2112	39.5508	72.9535	39.5508	72.1098	39.5508	72.8992	39.5508	72.1212	39.5508	72.8019	39.5508	72.2814	39.5508	72.6983	39.5508	72.6044	39.5508	72.6448	39.5508	73.0759	39.5508	72.7108	39.5508	73.6586	39.5508	72.9565	39.5508	74.305	39.5508	73.4023	39.5508	74.9678	39.5508	74.0147	39.5508	75.6063	39.5508	74.7211	39.5508	76.1884	39.5508	75.4402	39.5508	76.6885	39.5508	76.1042	39.5508	77.0868	39.5508	76.6665	39.5508	77.367	39.5508	77.0986	39.5508	77.5164	39.5508	77.3864	39.5508	77.525
41.0156	73.8893	41.0156	73.744	41.0156	73.9986	41.0156	73.5873	41.0156	74.0561	41.0156	73.4518	41.0156	74.0547	41.0156	73.3761	41.0156	73.9983	41.0156	73.3993	41.0156	73.9035	41.0156	73.5522	41.0156	73.8041	41.0156	73.8475	41.0156	73.7519	41.0156	74.2757	41.0156	73.8104	41.0156	74.8072	41.0156	74.0356	41.0156	75.4017	41.0156	74.4486	41.0156	76.017	41.0156	75.0218	41.0156	76.6147	41.0156	75.6899	41.0156	77.163	41.0156	76.3768	41.0156	77.636	41.0156	77.017	41.0156	78.0127	41.0156	77.5635	41.0156	78.2764	41.0156	77.9873	41.0156	78.4137	41.0156	78.2728	41.0156	78.4146
42.4805	75.0133	42.4805	74.8895	42.4805	75.1105	42.4805	74.7602	42.4805	75.1677	42.4805	74.6539	42.4805	75.1801	42.4805	74.6039	42.4805	75.1525	42.4805	74.6436	42.4805	75.1017	42.4805	74.7996	42.4805	75.0585	42.4805	75.0835	42.4805	75.0673	42.4805	75.4877	42.4805	75.1785	42.4805	75.9876	42.4805	75.4334	42.4805	76.548	42.4805	75.8439	42.4805	77.131	42.4805	76.3846	42.4805	77.7011	42.4805	77.0013	42.4805	78.2278	42.4805	77.6303	42.4805	78.6858	42.4805	78.2152	42.4805	79.0544	42.4805	78.7138	42.4805	79.3169	42.4805	79.0986	42.4805	79.4602	42.4805	79.3542	42.4805	79.4746
43.9453	76.4106	43.9453	76.3058	43.9453	76.4957	43.9453	76.1992	43.9453	76.55	43.9453	76.1142	43.9453	76.5697	43.9453	76.0785	43.9453	76.5593	43.9453	76.1199	43.9453	76.5334	43.9453	76.2606	43.9453	76.5177	43.9453	76.5117	43.9453	76.548	43.9453	76.8691	43.9453	76.665	43.9453	77.3144	43.9453	76.9015	43.9453	77.8191	43.9453	77.2689	43.9453	78.3503	43.9453	77.7489	43.9453	78.8756	43.9453	78.2987	43.9453	79.3658	43.9453	78.8647	43.9453	79.7959	43.9453	79.3963	43.9453	80.1449	43.9453	79.8531	43.9453	80.3957	43.9453	80.2076	43.9453	80.5346	43.9453	80.443	43.9453	80.5522
45.4102	77.3831	45.4102	77.2862	45.4102	77.466	45.4102	77.1917	45.4102	77.5247	45.4102	77.1209	45.4102	77.5559	45.4102	77.0984	45.4102	77.5636	45.4102	77.1485	45.4102	77.561	45.4102	77.2907	45.4102	77.5711	45.4102	77.5345	45.4102	77.6252	45.4102	77.8762	45.4102	77.7579	45.4102	78.2996	45.4102	77.997	45.4102	78.7792	45.4102	78.3514	45.4102	79.2852	45.4102	78.8052	45.4102	79.7876	45.4102	79.3207	45.4102	80.2585	45.4102	79.8504	45.4102	80.6739	45.4102	80.3479	45.4102	81.0132	45.4102	80.7756	45.4102	81.2593	45.4102	81.1067	45.4102	81.3989	45.4102	81.3249	45.4102	81.4224
46.875	78.5826	46.875	78.4881	46.875	78.6648	46.875	78.3958	46.875	78.7256	46.875	78.3244	46.875	78.7617	46.875	78.2955	46.875	78.7764	46.875	78.3307	46.875	78.7808	46.875	78.4477	46.875	78.7943	46.875	78.6562	46.875	78.8437	46.875	78.955	46.875	78.959	46.875	79.3314	46.875	79.165	46.875	79.764	46.875	79.4722	46.875	80.2261	46.875	79.8696	46.875	80.6899	46.875	80.3269	46.875	81.129	46.875	80.8026	46.875	81.5193	46.875	81.2542	46.875	81.8406	46.875	81.6455	46.875	82.0755	46.875	81.9496	46.875	82.2109	46.875	82.1496	46.875	82.2371
48.3398	79.5703	48.3398	79.4829	48.3398	79.6453	48.3398	79.396	48.3398	79.6996	48.3398	79.3269	48.3398	79.7305	48.3398	79.2951	48.3398	79.7416	48.3398	79.3207	48.3398	79.7435	48.3398	79.4202	48.3398	79.7541	48.3398	79.6037	48.3398	79.798	48.3398	79.8713	48.3398	79.9024	48.3398	80.2131	48.3398	80.0902	48.3398	80.6104	48.3398	80.3712	48.3398	81.0393	48.3398	80.7366	48.3398	81.4735	48.3398	81.1595	48.3398	81.8877	48.3398	81.6021	48.3398	82.2584	48.3398	82.0247	48.3398	82.5651	48.3398	82.3923	48.3398	82.7906	48.3398	82.6789	48.3398	82.9216	48.3398	82.8672	48.3398	82.9486
51.2695	81.317	51.2695	81.2524	51.2695	81.3822	51.2695	81.1989	51.2695	81.4409	51.2695	81.1698	51.2695	81.4908	51.2695	81.1792	51.2695	81.5344	51.2695	81.2409	51.2695	81.5795	51.2695	81.365	51.2695	81.6395	51.2695	81.5567	51.2695	81.7312	51.2695	81.8145	51.2695	81.8726	51.2695	82.1298	51.2695	82.0775	51.2695	82.4882	51.2695	82.3508	51.2695	82.871	51.2695	82.6842	51.2695	83.2576	51.2695	83.0576	51.2695	83.6271	51.2695	83.4423	51.2695	83.9594	51.2695	83.8071	51.2695	84.2364	51.2695	84.1238	51.2695	84.4423	51.2695	84.3698	51.2695	84.5648	51.2695	84.5297	51.2695	84.5952
52.7344	82.2427	52.7344	82.1875	52.7344	82.3006	52.7344	82.1435	52.7344	82.3555	52.7344	82.1214	52.7344	82.4056	52.7344	82.133	52.7344	82.4528	52.7344	82.1895	52.7344	82.5039	52.7344	82.3002	52.7344	82.5695	52.7344	82.4704	52.7344	82.6639	52.7344	82.7001	52.7344	82.8019	52.7344	82.9832	52.7344	82.9951	52.7344	83.3081	52.7344	83.2478	52.7344	83.6591	52.7344	83.5534	52.7344	84.0174	52.7344	83.8948	52.7344	84.3633	52.7344	84.2467	52.7344	84.6776	52.7344	84.5812	52.7344	84.9421	52.7344	84.8717	52.7344	85.1414	52.7344	85.0968	52.7344	85.2626	52.7344	85.2414	52.7344	85.2973
54.1992	82.9984	54.1992	82.943	54.1992	83.058	54.1992	82.8995	54.1992	83.1167	54.1992	82.8776	54.1992	83.1723	54.1992	82.8879	54.1992	83.2266	54.1992	82.9406	54.1992	83.2849	54.1992	83.0441	54.1992	83.3565	54.1992	83.2032	54.1992	83.4535	54.1992	83.4182	54.1992	83.5887	54.1992	83.6837	54.1992	83.7723	54.1992	83.9895	54.1992	84.0085	54.1992	84.3211	54.1992	84.2918	54.1992	84.6611	54.1992	84.6074	54.1992	84.991	54.1992	84.933	54.1992	85.2924	54.1992	85.2427	54.1992	85.5477	54.1992	85.5119	54.1992	85.7416	54.1992	85.7199	54.1992	85.8619	54.1992	85.8519	54.1992	85.8999
55.6641	83.5942	55.6641	83.5416	55.6641	83.652	55.6641	83.5014	55.6641	83.7104	55.6641	83.4824	55.6641	83.7674	55.6641	83.4941	55.6641	83.8246	55.6641	83.546	55.6641	83.8868	55.6641	83.6456	55.6641	83.9624	55.6641	83.7977	55.6641	84.0623	55.6641	84.0026	55.6641	84.198	55.6641	84.2556	55.6641	84.3785	55.6641	84.5474	55.6641	84.6071	55.6641	84.8645	55.6641	84.8787	55.6641	85.1908	55.6641	85.1793	55.6641	85.5084	55.6641	85.4882	55.6641	85.7995	55.6641	85.7814	55.6641	86.0473	55.6641	86.0355	55.6641	86.2368	55.6641	86.2311	55.6641	86.3558	55.6641	86.3539	55.6641	86.396
58.5938	84.9972	58.5938	84.9534	58.5938	85.0505	58.5938	84.9244	58.5938	85.1099	58.5938	84.9162	58.5938	85.1738	58.5938	84.9357	58.5938	85.243	58.5938	84.9892	58.5938	85.3203	58.5938	85.0822	58.5938	85.4109	58.5938	85.2176	58.5938	85.5215	58.5938	85.3957	58.5938	85.6587	58.5938	85.6131	58.5938	85.8278	58.5938	85.863	58.5938	86.0304	58.5938	86.1349	58.5938	86.2623	58.5938	86.4161	58.5938	86.5134	58.5938	86.692	58.5938	86.7682	58.5938	86.9474	58.5938	87.0084	58.5938	87.1675	58.5938	87.2153	58.5938	87.3387	58.5938	87.3725	58.5938	87.4502	58.5938	87.4679	58.5938	87.4944
60.0586	85.6126	60.0586	85.5723	60.0586	85.6613	60.0586	85.545	60.0586	85.7155	60.0586	85.5359	60.0586	85.7743	60.0586	85.5514	60.0586	85.8384	60.0586	85.5974	60.0586	85.9108	60.0586	85.6791	60.0586	85.9961	60.0586	85.7998	60.0586	86.1004	60.0586	85.9602	60.0586	86.2295	60.0586	86.158	60.0586	86.3881	60.0586	86.3872	60.0586	86.5772	60.0586	86.6388	60.0586	86.793	60.0586	86.9009	60.0586	87.0263	60.0586	87.16	60.0586	87.2628	60.0586	87.4016	60.0586	87.4856	60.0586	87.6111	60.0586	87.677	60.0586	87.7756	60.0586	87.8218	60.0586	87.8843	60.0586	87.9082	60.0586	87.9296
62.9883	86.5559	62.9883	86.5224	62.9883	86.6029	62.9883	86.5057	62.9883	86.6612	62.9883	86.5092	62.9883	86.7299	62.9883	86.5368	62.9883	86.8088	62.9883	86.5923	62.9883	86.8991	62.9883	86.6786	62.9883	87.003	62.9883	86.7975	62.9883	87.1232	62.9883	86.9489	62.9883	87.2625	62.9883	87.1305	62.9883	87.4226	62.9883	87.3378	62.9883	87.6031	62.9883	87.5633	62.9883	87.8001	62.9883	87.7979	62.9883	88.0061	62.9883	88.0304	62.9883	88.2101	62.9883	88.2485	62.9883	88.3986	62.9883	88.44	62.9883	88.5577	62.9883	88.5932	62.9883	88.6748	62.9883	88.6983	62.9883	88.7402	62.9883	88.7484
64.4531	87.0264	64.4531	86.9948	64.4531	87.0723	64.4531	86.9799	64.4531	87.1305	64.4531	86.9847	64.4531	87.1998	64.4531	87.0124	64.4531	87.28	64.4531	87.0658	64.4531	87.3716	64.4531	87.1472	64.4531	87.4759	64.4531	87.2582	64.4531	87.5949	64.4531	87.3985	64.4531	87.7303	64.4531	87.5664	64.4531	87.8831	64.4531	87.7577	64.4531	88.0524	64.4531	87.9663	64.4531	88.2349	64.4531	88.1839	64.4531	88.4238	64.4531	88.4005	64.4531	88.6094	64.4531	88.6049	64.4531	88.7798	64.4531	88.7856	64.4531	88.9226	64.4531	88.9316	64.4531	89.0262	64.4531	89.0335	64.4531	89.0819	64.4531	89.0847
67.3828	87.8838	67.3828	87.8564	67.3828	87.9267	67.3828	87.8461	67.3828	87.984	67.3828	87.8543	67.3828	88.0548	67.3828	87.8828	67.3828	88.1384	67.3828	87.9331	67.3828	88.2344	67.3828	88.0064	67.3828	88.3427	67.3828	88.1037	67.3828	88.4631	67.3828	88.2247	67.3828	88.5955	67.3828	88.3683	67.3828	88.7392	67.3828	88.5317	67.3828	88.8924	67.3828	88.7104	67.3828	89.0518	67.3828	88.8981	67.3828	89.2118	67.3828	89.0869	67.3828	89.3651	67.3828	89.2674	67.3828	89.5026	67.3828	89.4297	67.3828	89.6144	67.3828	89.5642	67.3828	89.6917	67.3828	89.6623	67.3828	89.7275	67.3828	89.7178
68.8477	88.2792	68.8477	88.2502	68.8477	88.3236	68.8477	88.238	68.8477	88.3827	68.8477	88.2438	68.8477	88.4553	68.8477	88.2689	68.8477	88.5409	68.8477	88.3149	68.8477	88.6388	68.8477	88.3827	68.8477	88.7484	68.8477	88.4729	68.8477	88.8689	68.8477	88.5856	68.8477	88.9996	68.8477	88.7196	68.8477	89.139	68.8477	88.8725	68.8477	89.285	68.8477	89.0403	68.8477	89.434	68.8477	89.2173	68.8477	89.5812	68.8477	89.3961	68.8477	89.72	68.8477	89.5683	68.8477	89.8422	68.8477	89.7246	68.8477	89.9396	68.8477	89.8559	68.8477	90.0041	68.8477	89.954	68.8477	90.0297	68.8477	90.013
71.7773	89.0346	71.7773	89.0069	71.7773	89.0798	71.7773	88.9972	71.7773	89.1421	71.7773	89.0059	71.7773	89.2203	71.7773	89.0332	71.7773	89.3131	71.7773	89.0792	71.7773	89.419	71.7773	89.144	71.7773	89.5359	71.7773	89.2276	71.7773	89.6614	71.7773	89.3294	71.7773	89.7932	71.7773	89.4485	71.7773	89.9284	71.7773	89.5831	71.7773	90.0641	71.7773	89.7303	71.7773	90.1969	71.7773	89.8858	71.7773	90.3226	71.7773	90.0442	71.7773	90.4361	71.7773	90.1985	71.7773	90.5318	71.7773	90.3412	71.7773	90.6035	71.7773	90.4644	71.7773	90.6454	71.7773	90.5608	71.7773	90.6532	71.7773	90.6248
74.707	89.6279	74.707	89.6009	74.707	89.6742	74.707	89.593	74.707	89.7393	74.707	89.6038	74.707	89.8223	74.707	89.6324	74.707	89.921	74.707	89.6778	74.707	90.033	74.707	89.7394	74.707	90.1549	74.707	89.8161	74.707	90.2829	74.707	89.9072	74.707	90.4134	74.707	90.0117	74.707	90.5424	74.707	90.1283	74.707	90.6664	74.707	90.255	74.707	90.782	74.707	90.389	74.707	90.8859	74.707	90.5262	74.707	90.9746	74.707	90.6617	74.707	91.0442	74.707	90.7894	74.707	91.091	74.707	90.9029	74.707	91.1112	74.707	90.996	74.707	91.1024	74.707	91.0636
77.6367	90.2648	77.6367	90.2383	77.6367	90.3093	77.6367	90.2293	77.6367	90.3716	77.6367	90.2369	77.6367	90.4506	77.6367	90.2597	77.6367	90.5442	77.6367	90.2964	77.6367	90.6496	77.6367	90.3458	77.6367	90.7631	77.6367	90.4068	77.6367	90.8804	77.6367	90.4786	77.6367	90.9973	77.6367	90.5604	77.6367	91.1095	77.6367	90.6517	77.6367	91.2133	77.6367	90.7514	77.6367	91.3054	77.6367	90.8579	77.6367	91.3834	77.6367	90.9688	77.6367	91.4448	77.6367	91.0804	77.6367	91.4877	77.6367	91.1884	77.6367	91.51	77.6367	91.2878	77.6367	91.5102	77.6367	91.3734	77.6367	91.4871	77.6367	91.4409
79.1016	90.5752	79.1016	90.5485	79.1016	90.6197	79.1016	90.539	79.1016	90.6821	79.1016	90.5456	79.1016	90.7611	79.1016	90.5667	79.1016	90.8549	79.1016	90.6008	79.1016	90.9602	79.1016	90.6464	79.1016	91.0731	79.1016	90.7024	79.1016	91.1892	79.1016	90.7678	79.1016	91.3036	79.1016	90.8421	79.1016	91.4119	79.1016	90.9248	79.1016	91.51	79.1016	91.0152	79.1016	91.5946	79.1016	91.1121	79.1016	91.6634	79.1016	91.2138	79.1016	91.7145	79.1016	91.3173	79.1016	91.7466	79.1016	91.419	79.1016	91.7584	79.1016	91.5143	79.1016	91.7492	79.1016	91.5988	79.1016	91.7189	79.1016	91.668
82.0312	91.1152	82.0312	91.0875	82.0312	91.1605	82.0312	91.0765	82.0312	91.2232	82.0312	91.0808	82.0312	91.3021	82.0312	91.0986	82.0312	91.3948	82.0312	91.1277	82.0312	91.4979	82.0312	91.1662	82.0312	91.6071	82.0312	91.2128	82.0312	91.7175	82.0312	91.2662	82.0312	91.8239	82.0312	91.3258	82.0312	91.9216	82.0312	91.3915	82.0312	92.0064	82.0312	91.4632	82.0312	92.0751	82.0312	91.5407	82.0312	92.1255	82.0312	91.6233	82.0312	92.1568	82.0312	91.7097	82.0312	92.1686	82.0312	91.7974	82.0312	92.1613	82.0312	91.8832	82.0312	92.1355	82.0312	91.9634	82.0312	92.0926	82.0312	92.0344
84.9609	91.4092	84.9609	91.3892	84.9609	91.4486	84.9609	91.3872	84.9609	91.5078	84.9609	91.401	84.9609	91.5862	84.9609	91.4281	84.9609	91.6816	84.9609	91.4658	84.9609	91.791	84.9609	91.5117	84.9609	91.9097	84.9609	91.5637	84.9609	92.0322	84.9609	91.6207	84.9609	92.1527	84.9609	91.6818	84.9609	92.2647	84.9609	91.747	84.9609	92.3628	84.9609	91.8165	84.9609	92.4422	84.9609	91.8908	84.9609	92.4999	84.9609	91.9699	84.9609	92.5343	84.9609	92.0533	84.9609	92.5451	84.9609	92.1395	84.9609	92.5333	84.9609	92.2259	84.9609	92.5009	84.9609	92.3091	84.9609	92.4505	84.9609	92.3853
87.8906	91.7056	87.8906	91.6887	87.8906	91.7455	87.8906	91.6925	87.8906	91.8093	87.8906	91.7138	87.8906	91.8966	87.8906	91.7492	87.8906	92.005	87.8906	91.795	87.8906	92.1305	87.8906	91.8479	87.8906	92.2669	87.8906	91.905	87.8906	92.4069	87.8906	91.9643	87.8906	92.5424	87.8906	92.0248	87.8906	92.6654	87.8906	92.0863	87.8906	92.769	87.8906	92.1495	87.8906	92.8481	87.8906	92.2156	87.8906	92.8995	87.8906	92.2858	87.8906	92.9223	87.8906	92.3611	87.8906	92.9177	87.8906	92.4415	87.8906	92.8886	87.8906	92.5259	87.8906	92.8387	87.8906	92.6117	87.8906	92.7728	87.8906	92.6955
90.8203	92.4034	90.8203	92.3806	90.8203	92.4437	90.8203	92.3729	90.8203	92.5023	90.8203	92.377	90.8203	92.5781	90.8203	92.3888	90.8203	92.6683	90.8203	92.4044	90.8203	92.7681	90.8203	92.4201	90.8203	92.8714	90.8203	92.4333	90.8203	92.971	90.8203	92.4426	90.8203	93.0595	90.8203	92.4478	90.8203	93.1301	90.8203	92.4505	90.8203	93.1771	90.8203	92.4532	90.8203	93.197	90.8203	92.4594	90.8203	93.1885	90.8203	92.4733	90.8203	93.1528	90.8203	92.4985	90.8203	93.0936	90.8203	92.5379	90.8203	93.0165	90.8203	92.5927	90.8203	92.928	90.8203	92.6625	90.8203	92.8352	90.8203	92.7448
95.2148	92.7328	95.2148	92.703	95.2148	92.7773	95.2148	92.6861	95.2148	92.8375	95.2148	92.6797	95.2148	92.9133	95.2148	92.6812	95.2148	93.003	95.2148	92.6881	95.2148	93.1031	95.2148	92.6983	95.2148	93.2084	95.2148	92.7098	95.2148	93.3121	95.2148	92.7216	95.2148	93.4066	95.2148	92.7333	95.2148	93.4843	95.2148	92.7452	95.2148	93.5384	95.2148	92.7589	95.2148	93.5642	95.2148	92.7764	95.2148	93.5594	95.2148	92.8007	95.2148	93.5249	95.2148	92.8347	95.2148	93.4645	95.2148	92.8809	95.2148	93.3844	95.2148	92.9409	95.2148	93.292	95.2148	93.0148	95.2148	93.1951	95.2148	93.1008
98.1445	92.9368	98.1445	92.9081	98.1445	92.9836	98.1445	92.8957	98.1445	93.0493	98.1445	92.8966	98.1445	93.1332	98.1445	92.9076	98.1445	93.2326	98.1445	92.9251	98.1445	93.3432	98.1445	92.9457	98.1445	93.4586	98.1445	92.9665	98.1445	93.571	98.1445	92.9853	98.1445	93.672	98.1445	93.0008	98.1445	93.7534	98.1445	93.0132	98.1445	93.8081	98.1445	93.0238	98.1445	93.8312	98.1445	93.0355	98.1445	93.821	98.1445	93.0518	98.1445	93.7791	98.1445	93.0768	98.1445	93.7101	98.1445	93.1145	98.1445	93.6213	98.1445	93.1676	98.1445	93.5213	98.1445	93.2374	98.1445	93.4191	98.1445	93.3224
101.074	93.0414	101.074	93.0158	101.074	93.0896	101.074	93.0104	101.074	93.161	101.074	93.0218	101.074	93.2545	101.074	93.0459	101.074	93.3668	101.074	93.0781	101.074	93.4925	101.074	93.1142	101.074	93.6244	101.074	93.1502	101.074	93.7538	101.074	93.1831	101.074	93.8716	101.074	93.2114	101.074	93.9689	101.074	93.2346	101.074	94.038	101.074	93.2541	101.074	94.0738	101.074	93.2727	101.074	94.0739	101.074	93.2944	101.074	94.0395	101.074	93.3238	101.074	93.9753	101.074	93.3652	101.074	93.8885	101.074	93.422	101.074	93.7881	101.074	93.4953	101.074	93.6838	101.074	93.5839
105.469	93.3967	105.469	93.3746	105.469	93.4381	105.469	93.3695	105.469	93.4997	105.469	93.3777	105.469	93.5805	105.469	93.3947	105.469	93.6775	105.469	93.4157	105.469	93.786	105.469	93.4362	105.469	93.8992	105.469	93.4522	105.469	94.0093	105.469	93.461	105.469	94.1076	105.469	93.4613	105.469	94.1853	105.469	93.4537	105.469	94.2348	105.469	93.4407	105.469	94.2506	105.469	93.4267	105.469	94.2302	105.469	93.4172	105.469	94.1748	105.469	93.4189	105.469	94.0892	105.469	93.438	105.469	93.9817	105.469	93.4795	105.469	93.8628	105.469	93.5457	105.469	93.7439	105.469	93.6354
108.398	93.6476	108.398	93.6188	108.398	93.6936	108.398	93.605	108.398	93.757	108.398	93.6027	108.398	93.8367	108.398	93.6079	108.398	93.9294	108.398	93.6159	108.398	94.0301	108.398	93.6222	108.398	94.1323	108.398	93.6231	108.398	94.2284	108.398	93.6159	108.398	94.3099	108.398	93.5994	108.398	94.3687	108.398	93.5743	108.398	94.3977	108.398	93.5432	108.398	94.3918	108.398	93.511	108.398	94.3491	108.398	93.484	108.398	94.2716	108.398	93.4698	108.398	94.1651	108.398	93.4756	108.398	94.0387	108.398	93.5076	108.398	93.9042	108.398	93.569	108.398	93.774	108.398	93.6594
112.793	93.9444	112.793	93.9147	112.793	93.986	112.793	93.8951	112.793	94.0397	112.793	93.8828	112.793	94.1047	112.793	93.8741	112.793	94.1789	112.793	93.8649	112.793	94.2588	112.793	93.8512	112.793	94.3396	112.793	93.8298	112.793	94.4151	112.793	93.7986	112.793	94.4782	112.793	93.7573	112.793	94.5209	112.793	93.7074	112.793	94.5361	112.793	93.6527	112.793	94.5179	112.793	93.599	112.793	94.4638	112.793	93.5536	112.793	94.3746	112.793	93.5249	112.793	94.2559	112.793	93.5209	112.793	94.1169	112.793	93.5481	112.793	93.97	112.793	93.6098	112.793	93.8285	112.793	93.7052
117.188	94.0572	117.188	94.015	117.188	94.1066	117.188	93.9786	117.188	94.1638	117.188	93.9457	117.188	94.2284	117.188	93.9137	117.188	94.2987	117.188	93.8798	117.188	94.3712	117.188	93.8409	117.188	94.4412	117.188	93.7948	117.188	94.5024	117.188	93.74	117.188	94.5472	117.188	93.6766	117.188	94.5679	117.188	93.6062	117.188	94.5574	117.188	93.5325	117.188	94.5109	117.188	93.4614	117.188	94.4264	117.188	93.4004	117.188	94.3066	117.188	93.3586	117.188	94.1581	117.188	93.3446	117.188	93.992	117.188	93.3661	117.188	93.822	117.188	93.4272	117.188	93.6628	117.188	93.5279
120.117	94.2439	120.117	94.1999	120.117	94.2945	120.117	94.1613	120.117	94.3517	120.117	94.1257	120.117	94.4143	120.117	94.09	120.117	94.48	120.117	94.0507	120.117	94.5449	120.117	94.0041	120.117	94.6039	120.117	93.9472	120.117	94.6506	120.117	93.878	120.117	94.6778	120.117	93.7963	120.117	94.678	120.117	93.7039	120.117	94.6446	120.117	93.6051	120.117	94.5734	120.117	93.5066	120.117	94.4632	120.117	93.4177	120.117	94.3174	120.117	93.3488	120.117	94.1442	120.117	93.3111	120.117	93.9561	120.117	93.3137	120.117	93.7687	120.117	93.3629	120.117	93.5982	120.117	93.4594
124.512	94.1928	124.512	94.1549	124.512	94.2374	124.512	94.1221	124.512	94.2895	124.512	94.0915	124.512	94.3486	124.512	94.0599	124.512	94.4129	124.512	94.0234	124.512	94.479	124.512	93.9783	124.512	94.5421	124.512	93.9217	124.512	94.5954	124.512	93.8519	124.512	94.6311	124.512	93.7687	124.512	94.6407	124.512	93.6743	124.512	94.6164	124.512	93.5732	124.512	94.5524	124.512	93.4724	124.512	94.4468	124.512	93.3811	124.512	94.3025	124.512	93.3103	124.512	94.1277	124.512	93.2712	124.512	93.9357	124.512	93.2737	124.512	93.743	124.512	93.3242	124.512	93.5671	124.512	93.4237
128.906	93.9966	128.906	93.9592	128.906	94.0456	128.906	93.9314	128.906	94.1073	128.906	93.9109	128.906	94.182	128.906	93.895	128.906	94.2686	128.906	93.8805	128.906	94.3638	128.906	93.8641	128.906	94.4622	128.906	93.8424	128.906	94.5559	128.906	93.8129	128.906	94.6353	128.906	93.7738	128.906	94.6899	128.906	93.7252	128.906	94.7096	128.906	93.6694	128.906	94.6868	128.906	93.611	128.906	94.6181	128.906	93.5575	128.906	94.5051	128.906	93.5184	128.906	94.3554	128.906	93.5042	128.906	94.1822	128.906	93.5245	128.906	94.002	128.906	93.586	128.906	93.8328	128.906	93.6904
133.301	93.9814	133.301	93.9368	133.301	94.0387	133.301	93.9031	133.301	94.1089	133.301	93.8778	133.301	94.1911	133.301	93.8575	133.301	94.2827	133.301	93.8383	133.301	94.3797	133.301	93.8164	133.301	94.4762	133.301	93.7881	133.301	94.5649	133.301	93.7508	133.301	94.6368	133.301	93.703	133.301	94.6824	133.301	93.6451	133.301	94.6924	133.301	93.5799	133.301	94.6595	133.301	93.5129	133.301	94.5803	133.301	93.4521	133.301	94.4562	133.301	93.4077	133.301	94.295	133.301	93.3907	133.301	94.1097	133.301	93.4111	133.301	93.9177	133.301	93.4759	133.301	93.7377	133.301	93.5865
139.16	93.993	139.16	93.945	139.16	94.0494	139.16	93.905	139.16	94.1135	139.16	93.8717	139.16	94.1841	139.16	93.8422	139.16	94.2592	139.16	93.8131	139.16	94.3362	139.16	93.7802	139.16	94.4111	139.16	93.74	139.16	94.4788	139.16	93.6895	139.16	94.5321	139.16	93.6278	139.16	94.5627	139.16	93.5559	139.16	94.5623	139.16	93.4777	139.16	94.5237	139.16	93.3996	139.16	94.4432	139.16	93.3307	139.16	94.3215	139.16	93.2817	139.16	94.1648	139.16	93.2636	139.16	93.9847	139.16	93.2857	139.16	93.7968	139.16	93.3535	139.16	93.6187	139.16	93.4667
143.555	93.9829	143.555	93.9312	143.555	94.0394	143.555	93.8843	143.555	94.1005	143.555	93.8412	143.555	94.1655	143.555	93.8003	143.555	94.2334	143.555	93.7587	143.555	94.3028	143.555	93.7132	143.555	94.3705	143.555	93.6607	143.555	94.4318	143.555	93.5985	143.555	94.4796	143.555	93.5255	143.555	94.5049	143.555	93.4428	143.555	94.4986	143.555	93.3539	143.555	94.4526	143.555	93.2652	143.555	94.3623	143.555	93.1862	143.555	94.2283	143.555	93.1281	143.555	94.0573	143.555	93.1028	143.555	93.8618	143.555	93.1209	143.555	93.6589	143.555	93.1888	143.555	93.468	143.555	93.3068
147.949	93.9071	147.949	93.8552	147.949	93.9624	147.949	93.8064	147.949	94.0213	147.949	93.76	147.949	94.0834	147.949	93.7143	147.949	94.1483	147.949	93.6669	147.949	94.2147	147.949	93.615	147.949	94.2796	147.949	93.5558	147.949	94.3382	147.949	93.4873	147.949	94.3833	147.949	93.4087	147.949	94.4058	147.949	93.3213	147.949	94.3965	147.949	93.2293	147.949	94.3476	147.949	93.1392	147.949	94.2545	147.949	93.0604	147.949	94.1183	147.949	93.004	147.949	93.9455	147.949	92.9813	147.949	93.749	147.949	93.0021	147.949	93.5455	147.949	93.0723	147.949	93.354	147.949	93.1919
153.809	93.8069	153.809	93.7556	153.809	93.8589	153.809	93.7048	153.809	93.9116	153.809	93.6539	153.809	93.9652	153.809	93.6017	153.809	94.0203	153.809	93.5459	153.809	94.0766	153.809	93.484	153.809	94.1328	153.809	93.4132	153.809	94.185	153.809	93.3318	153.809	94.2264	153.809	93.2394	153.809	94.2478	153.809	93.1378	153.809	94.239	153.809	93.0317	153.809	94.1907	153.809	92.9285	153.809	94.0971	153.809	92.8388	153.809	93.9576	153.809	92.7747	153.809	93.7785	153.809	92.7487	153.809	93.5723	153.809	92.7711	153.809	93.3568	153.809	92.8475	153.809	93.1521	153.809	92.9773
159.668	93.601	159.668	93.5363	159.668	93.6683	159.668	93.4749	159.668	93.7372	159.668	93.4174	159.668	93.8077	159.668	93.3633	159.668	93.8795	159.668	93.3108	159.668	93.9521	159.668	93.2572	159.668	94.0232	159.668	93.1995	159.668	94.0883	159.668	93.1347	159.668	94.1403	159.668	93.0615	159.668	94.1698	159.668	92.9808	159.668	94.1671	159.668	92.8963	159.668	94.1235	159.668	92.8149	159.668	94.0344	159.668	92.7463	159.668	93.9002	159.668	92.7019	159.668	93.7273	159.668	92.6929	159.668	93.5283	159.668	92.7286	159.668	93.3197	159.668	92.8137	159.668	93.12	159.668	92.9468
165.527	93.5202	165.527	93.4604	165.527	93.584	165.527	93.4056	165.527	93.6506	165.527	93.3568	165.527	93.7192	165.527	93.3135	165.527	93.7899	165.527	93.2738	165.527	93.8622	165.527	93.2345	165.527	93.9345	165.527	93.1915	165.527	94.0032	165.527	93.141	165.527	94.0613	165.527	93.0806	165.527	94.0994	165.527	93.0103	165.527	94.1068	165.527	92.9331	165.527	94.0739	165.527	92.8556	165.527	93.9948	165.527	92.7875	165.527	93.8693	165.527	92.7403	165.527	93.704	165.527	92.7258	165.527	93.5119	165.527	92.7538	165.527	93.3102	165.527	92.8299	165.527	93.1183	165.527	92.9538
171.387	93.4622	171.387	93.3875	171.387	93.5371	171.387	93.3161	171.387	93.6087	171.387	93.2506	171.387	93.6744	171.387	93.192	171.387	93.7329	171.387	93.1393	171.387	93.7838	171.387	93.0899	171.387	93.8273	171.387	93.0402	171.387	93.8625	171.387	92.9863	171.387	93.8865	171.387	92.9255	171.387	93.894	171.387	92.8572	171.387	93.8773	171.387	92.7836	171.387	93.8291	171.387	92.7102	171.387	93.7441	171.387	92.6453	171.387	93.6213	171.387	92.5994	171.387	93.4659	171.387	92.5831	171.387	93.2886	171.387	92.6056	171.387	93.1045	171.387	92.6721	171.387	92.9306	171.387	92.7825
177.246	93.6166	177.246	93.5366	177.246	93.6803	177.246	93.4441	177.246	93.7249	177.246	93.3427	177.246	93.7491	177.246	93.235	177.246	93.7539	177.246	93.1225	177.246	93.7416	177.246	93.0056	177.246	93.7153	177.246	92.8843	177.246	93.677	177.246	92.7586	177.246	93.6264	177.246	92.6297	177.246	93.5608	177.246	92.5004	177.246	93.4759	177.246	92.3755	177.246	93.3673	177.246	92.2618	177.246	93.2331	177.246	92.1676	177.246	93.0749	177.246	92.1016	177.246	92.899	177.246	92.0716	177.246	92.715	177.246	92.0832	177.246	92.535	177.246	92.1387	177.246	92.3718	177.246	92.2367
183.105	93.2021	183.105	93.1513	183.105	93.2431	183.105	93.0915	183.105	93.2749	183.105	93.0238	183.105	93.2998	183.105	92.9484	183.105	93.3222	183.105	92.8643	183.105	93.3469	183.105	92.7693	183.105	93.3766	183.105	92.6606	183.105	93.4098	183.105	92.5365	183.105	93.439	183.105	92.3972	183.105	93.4515	183.105	92.2463	183.105	93.4318	183.105	92.0913	183.105	93.3659	183.105	91.9434	183.105	93.2456	183.105	91.8167	183.105	93.071	183.105	91.7261	183.105	92.8518	183.105	91.685	183.105	92.6055	183.105	91.703	183.105	92.3545	183.105	91.7842	183.105	92.1216	183.105	91.9266
188.965	93.0713	188.965	93.0019	188.965	93.1227	188.965	92.9175	188.965	93.1554	188.965	92.822	188.965	93.1714	188.965	92.7196	188.965	93.1753	188.965	92.6136	188.965	93.1736	188.965	92.5061	188.965	93.1724	188.965	92.3978	188.965	93.1752	188.965	92.2886	188.965	93.1807	188.965	92.1786	188.965	93.1821	188.965	92.0688	188.965	93.1679	188.965	91.9627	188.965	93.1257	188.965	91.8664	188.965	93.045	188.965	91.7886	188.965	92.9214	188.965	91.7398	188.965	92.758	188.965	91.73	188.965	92.5657	188.965	91.767	188.965	92.3609	188.965	91.8541	188.965	92.1625	188.965	91.9888
196.289	93.0088	196.289	92.9435	196.289	93.0558	196.289	92.8629	196.289	93.0829	196.289	92.7706	196.289	93.091	196.289	92.6693	196.289	93.0834	196.289	92.5608	196.289	93.0651	196.289	92.4451	196.289	93.0414	196.289	92.3218	196.289	93.0157	196.289	92.1903	196.289	92.9873	196.289	92.051	196.289	92.951	196.289	91.9068	196.289	92.8979	196.289	91.7634	196.289	92.8182	196.289	91.6295	196.289	92.7046	196.289	91.5165	196.289	92.5552	196.289	91.4366	196.289	92.3748	196.289	91.4011	196.289	92.1741	196.289	91.4176	196.289	91.9686	196.289	91.4887	196.289	91.7754	196.289	91.6109
203.613	92.8967	203.613	92.8151	203.613	92.9527	203.613	92.7132	203.613	92.9799	203.613	92.5967	203.613	92.9784	203.613	92.471	203.613	92.952	203.613	92.3395	203.613	92.9077	203.613	92.2043	203.613	92.8534	203.613	92.066	203.613	92.7956	203.613	91.925	203.613	92.7365	203.613	91.7821	203.613	92.6724	203.613	91.6401	203.613	92.5952	203.613	91.5041	203.613	92.4957	203.613	91.3814	203.613	92.3678	203.613	91.2811	203.613	92.2114	203.613	91.2123	203.613	92.0333	203.613	91.1828	203.613	91.8453	203.613	91.1971	203.613	91.6615	203.613	91.2562	203.613	91.4953	203.613	91.3574
210.938	92.6929	210.938	92.6237	210.938	92.7363	210.938	92.5332	210.938	92.7516	210.938	92.4265	210.938	92.7399	210.938	92.3083	210.938	92.706	210.938	92.1817	210.938	92.658	210.938	92.0483	210.938	92.605	210.938	91.9081	210.938	92.5547	210.938	91.7614	210.938	92.5094	210.938	91.6093	210.938	92.4649	210.938	91.455	210.938	92.4114	210.938	91.3051	210.938	92.3365	210.938	91.1687	210.938	92.2301	210.938	91.0571	210.938	92.0881	210.938	90.9817	210.938	91.9141	210.938	90.9518	210.938	91.719	210.938	90.9732	210.938	91.5186	210.938	91.0467	210.938	91.3299	210.938	91.1684
218.262	92.3264	218.262	92.2497	218.262	92.3762	218.262	92.1526	218.262	92.3956	218.262	92.0425	218.262	92.3856	218.262	91.9261	218.262	92.3519	218.262	91.8081	218.262	92.304	218.262	91.6908	218.262	92.2531	218.262	91.5747	218.262	92.2083	218.262	91.4594	218.262	92.1735	218.262	91.345	218.262	92.1455	218.262	91.2337	218.262	92.1151	218.262	91.1307	218.262	92.0708	218.262	91.0435	218.262	92.0028	218.262	90.9812	218.262	91.907	218.262	90.9522	218.262	91.7854	218.262	90.962	218.262	91.6454	218.262	91.0116	218.262	91.4965	218.262	91.0975	218.262	91.349	218.262	91.2129
225.586	92.2723	225.586	92.1724	225.586	92.3402	225.586	92.0482	225.586	92.3713	225.586	91.909	225.586	92.3646	225.586	91.7635	225.586	92.3235	225.586	91.6192	225.586	92.2554	225.586	91.4811	225.586	92.1704	225.586	91.3514	225.586	92.0794	225.586	91.2308	225.586	91.991	225.586	91.1191	225.586	91.9085	225.586	91.0168	225.586	91.8298	225.586	90.9259	225.586	91.7488	225.586	90.851	225.586	91.659	225.586	90.798	225.586	91.5567	225.586	90.7728	225.586	91.4426	225.586	90.7792	225.586	91.3212	225.586	90.8176	225.586	91.1987	225.586	90.8845	225.586	91.0812	225.586	90.9745
232.91	92.2811	232.91	92.17	232.91	92.3569	232.91	92.0325	232.91	92.3911	232.91	91.8777	232.91	92.3808	232.91	91.7135	232.91	92.3283	232.91	91.545	232.91	92.2405	232.91	91.3747	232.91	92.1274	232.91	91.2033	232.91	91.9993	232.91	91.0315	232.91	91.8636	232.91	90.8619	232.91	91.7233	232.91	90.7002	232.91	91.5771	232.91	90.5547	232.91	91.4228	232.91	90.4351	232.91	91.2606	232.91	90.3496	232.91	91.0949	232.91	90.3032	232.91	90.9337	232.91	90.2954	232.91	90.7852	232.91	90.3218	232.91	90.6547	232.91	90.3754	232.91	90.5433	232.91	90.4502
241.699	92.0147	241.699	91.9104	241.699	92.0735	241.699	91.7687	241.699	92.0829	241.699	91.5999	241.699	92.0447	241.699	91.4148	241.699	91.9665	241.699	91.2221	241.699	91.8605	241.699	91.028	241.699	91.7401	241.699	90.8354	241.699	91.6164	241.699	90.6455	241.699	91.4943	241.699	90.4596	241.699	91.371	241.699	90.2811	241.699	91.2384	241.699	90.1173	241.699	91.0884	241.699	89.9784	241.699	90.9183	241.699	89.8759	241.699	90.734	241.699	89.8178	241.699	90.548	241.699	89.8061	241.699	90.3741	241.699	89.836	241.699	90.2215	241.699	89.8984	241.699	90.0925	241.699	89.9851
250.488	91.9252	250.488	91.7685	250.488	92.027	250.488	91.5671	250.488	92.0681	250.488	91.3345	250.488	92.0487	250.488	91.0853	250.488	91.9762	250.488	90.8337	250.488	91.8639	250.488	90.5918	250.488	91.7291	250.488	90.3686	250.488	91.588	250.488	90.1689	250.488	91.4509	250.488	89.9939	250.488	91.3183	250.488	89.8428	250.488	91.1814	250.488	89.715	250.488	91.0277	250.488	89.6118	250.488	90.8477	250.488	89.5372	250.488	90.6415	250.488	89.4958	250.488	90.4196	250.488	89.491	250.488	90.1996	250.488	89.5234	250.488	89.9989	250.488	89.5911	250.488	89.8287	250.488	89.6929
259.277	91.7025	259.277	91.5847	259.277	91.7706	259.277	91.4269	259.277	91.7854	259.277	91.2437	259.277	91.751	259.277	91.0513	259.277	91.6781	259.277	90.8647	259.277	91.5826	259.277	90.6946	259.277	91.4813	259.277	90.5454	259.277	91.3878	259.277	90.4153	259.277	91.3072	259.277	90.2981	259.277	91.2345	259.277	90.1868	259.277	91.1559	259.277	90.0771	259.277	91.0555	259.277	89.9701	259.277	90.9215	259.277	89.873	259.277	90.752	259.277	89.7964	259.277	90.5562	259.277	89.7514	259.277	90.3516	259.277	89.7461	259.277	90.1585	259.277	89.7845	259.277	89.9937	259.277	89.8675
268.066	91.4896	268.066	91.3604	268.066	91.555	268.066	91.1762	268.066	91.5547	268.066	90.9502	268.066	91.4946	268.066	90.6988	268.066	91.3895	268.066	90.4398	268.066	91.2602	268.066	90.1911	268.066	91.1295	268.066	89.9678	268.066	91.0155	268.066	89.7808	268.066	90.9249	268.066	89.6345	268.066	90.8517	268.066	89.5281	268.066	90.7803	268.066	89.4568	268.066	90.6938	268.066	89.4156	268.066	90.5815	268.066	89.4006	268.066	90.4425	268.066	89.4104	268.066	90.2848	268.066	89.4445	268.066	90.1205	268.066	89.5028	268.066	89.9614	268.066	89.5849	268.066	89.8161	268.066	89.6898
276.855	91.1856	276.855	91.0551	276.855	91.2563	276.855	90.8719	276.855	91.265	276.855	90.6461	276.855	91.2162	276.855	90.3896	276.855	91.1215	276.855	90.115	276.855	90.9992	276.855	89.8356	276.855	90.8711	276.855	89.565	276.855	90.7573	276.855	89.3178	276.855	90.6686	276.855	89.1075	276.855	90.6019	276.855	88.9445	276.855	90.5406	276.855	88.8345	276.855	90.4633	276.855	88.7778	276.855	90.3533	276.855	88.7708	276.855	90.2056	276.855	88.8083	276.855	90.0279	276.855	88.8841	276.855	89.8346	276.855	88.9923	276.855	89.6402	276.855	89.1267	276.855	89.4543	276.855	89.2821
287.109	90.8727	287.109	90.7471	287.109	90.9359	287.109	90.5665	287.109	90.9352	287.109	90.3432	287.109	90.8766	287.109	90.092	287.109	90.7747	287.109	89.8284	287.109	90.6513	287.109	89.5677	287.109	90.5331	287.109	89.3234	287.109	90.4458	287.109	89.1068	287.109	90.4046	287.109	88.9276	287.109	90.4075	287.109	88.7944	287.109	90.4355	287.109	88.715	287.109	90.4611	287.109	88.6953	287.109	90.4591	287.109	88.7379	287.109	90.4139	287.109	88.8397	287.109	90.3209	287.109	88.9915	287.109	90.1844	287.109	89.1798	287.109	90.013	287.109	89.3892	287.109	89.8168	287.109	89.6055
297.363	91.2797	297.363	91.1056	297.363	91.3487	297.363	90.8441	297.363	91.3025	297.363	90.5178	297.363	91.1413	297.363	90.1514	297.363	90.8794	297.363	89.7708	297.363	90.547	297.363	89.402	297.363	90.1912	297.363	89.0717	297.363	89.8691	297.363	88.8067	297.363	89.6341	297.363	88.6308	297.363	89.5173	297.363	88.5594	297.363	89.5175	297.363	88.5942	297.363	89.6074	297.363	88.722	297.363	89.7486	297.363	88.9191	297.363	89.904	297.363	89.1582	297.363	90.0427	297.363	89.4127	297.363	90.1399	297.363	89.6587	297.363	90.1774	297.363	89.8746	297.363	90.145	297.363	90.0415
307.617	91.6278	307.617	91.4365	307.617	91.7156	307.617	91.1597	307.617	91.6885	307.617	90.82	307.617	91.5448	307.617	90.4422	307.617	91.2946	307.617	90.0496	307.617	90.9616	307.617	89.662	307.617	90.5831	307.617	89.2942	307.617	90.207	307.617	88.9574	307.617	89.8819	307.617	88.6641	307.617	89.6422	307.617	88.4326	307.617	89.4971	307.617	88.2878	307.617	89.4326	307.617	88.2546	307.617	89.4271	307.617	88.3435	307.617	89.4618	307.617	88.54	307.617	89.5207	307.617	88.8044	307.617	89.583	307.617	89.0842	307.617	89.6202	307.617	89.3301	307.617	89.6024	307.617	89.5077
319.336	91.5804	319.336	91.4035	319.336	91.6489	319.336	91.1283	319.336	91.6038	319.336	90.7688	319.336	91.446	319.336	90.3439	319.336	91.1831	319.336	89.8781	319.336	90.8309	319.336	89.4016	319.336	90.4142	319.336	88.9497	319.336	89.9684	319.336	88.558	319.336	89.5393	319.336	88.2549	319.336	89.1777	319.336	88.0558	319.336	88.9268	319.336	87.9618	319.336	88.8054	319.336	87.9644	319.336	88.8002	319.336	88.0514	319.336	88.8731	319.336	88.2076	319.336	88.9767	319.336	88.4115	319.336	89.068	319.336	88.6339	319.336	89.1142	319.336	88.8407	319.336	89.0944	319.336	89.0011
329.59	91.0816	329.59	90.9364	329.59	91.1396	329.59	90.7106	329.59	91.1061	329.59	90.4116	329.59	90.9812	329.59	90.0471	329.59	90.7697	329.59	89.6267	329.59	90.482	329.59	89.1654	329.59	90.133	329.59	88.6878	329.59	89.7413	329.59	88.232	329.59	89.3292	329.59	87.8478	329.59	88.9227	329.59	87.5857	329.59	88.5545	329.59	87.4778	329.59	88.2647	329.59	87.5229	329.59	88.0935	329.59	87.6871	329.59	88.0612	329.59	87.9196	329.59	88.1504	329.59	88.1676	329.59	88.3082	329.59	88.386	329.59	88.4694	329.59	88.5399	329.59	88.5799	329.59	88.607
341.309	91.0928	341.309	90.9009	341.309	91.1796	341.309	90.6198	341.309	91.1518	341.309	90.2693	341.309	91.0099	341.309	89.8686	341.309	90.7656	341.309	89.434	341.309	90.4419	341.309	88.9778	341.309	90.07	341.309	88.5107	341.309	89.6844	341.309	88.0479	341.309	89.3148	341.309	87.616	341.309	88.9783	341.309	87.2569	341.309	88.6803	341.309	87.0218	341.309	88.4258	341.309	86.9519	341.309	88.232	341.309	87.0552	341.309	88.1267	341.309	87.2964	341.309	88.1249	341.309	87.61	341.309	88.2042	341.309	87.9228	341.309	88.3058	341.309	88.174	341.309	88.3623	341.309	88.3245
353.027	90.899	353.027	90.6934	353.027	90.9973	353.027	90.3936	353.027	90.9798	353.027	90.0143	353.027	90.845	353.027	89.5707	353.027	90.6008	353.027	89.0776	353.027	90.2654	353.027	88.5511	353.027	89.8661	353.027	88.0105	353.027	89.4368	353.027	87.4832	353.027	89.0112	353.027	87.0086	353.027	88.6166	353.027	86.6383	353.027	88.2716	353.027	86.4271	353.027	87.9924	353.027	86.4105	353.027	87.7993	353.027	86.5816	353.027	87.7109	353.027	86.8861	353.027	87.7264	353.027	87.2433	353.027	87.8138	353.027	87.5742	353.027	87.9182	353.027	87.8218	353.027	87.9813	353.027	87.9575
366.211	91.0256	366.211	90.8665	366.211	91.0646	366.211	90.5962	366.211	90.9814	366.211	90.2281	366.211	90.7815	366.211	89.7776	366.211	90.4777	366.211	89.2612	366.211	90.0901	366.211	88.6977	366.211	89.6478	366.211	88.1111	366.211	89.1917	366.211	87.5345	366.211	88.7713	366.211	87.011	366.211	88.4297	366.211	86.5886	366.211	88.1848	366.211	86.3081	366.211	88.0235	366.211	86.1913	366.211	87.918	366.211	86.2358	366.211	87.8468	366.211	86.416	366.211	87.8006	366.211	86.6879	366.211	87.7704	366.211	86.996	366.211	87.734	366.211	87.2846	366.211	87.6576	366.211	87.5111
379.395	91.0031	379.395	90.8101	379.395	91.1013	379.395	90.5361	379.395	91.0944	379.395	90.1948	379.395	90.9769	379.395	89.7966	379.395	90.7477	379.395	89.3481	379.395	90.4107	379.395	88.8554	379.395	89.9767	379.395	88.3305	379.395	89.4676	379.395	87.7983	379.395	88.9187	379.395	87.3011	379.395	88.3785	379.395	86.8949	379.395	87.9085	379.395	86.635	379.395	87.5788	379.395	86.5544	379.395	87.4468	379.395	86.6495	379.395	87.5164	379.395	86.8821	379.395	87.7188	379.395	87.1948	379.395	87.9454	379.395	87.5265	379.395	88.1017	379.395	87.8225	379.395	88.1358	379.395	88.037
392.578	91.0877	392.578	90.8262	392.578	91.2327	392.578	90.4676	392.578	91.2464	392.578	90.0359	392.578	91.1188	392.578	89.555	392.578	90.8467	392.578	89.0441	392.578	90.4389	392.578	88.5134	392.578	89.9216	392.578	87.9686	392.578	89.3404	392.578	87.4222	392.578	88.7533	392.578	86.9099	392.578	88.2138	392.578	86.5009	392.578	87.7575	392.578	86.2853	392.578	87.4077	392.578	86.3279	392.578	87.1992	392.578	86.6181	392.578	87.1814	392.578	87.0686	392.578	87.3735	392.578	87.5622	392.578	87.7127	392.578	87.9957	392.578	88.0724	392.578	88.2943	392.578	88.3301	392.578	88.4114
405.762	91.2585	405.762	91.0244	405.762	91.3499	405.762	90.6671	405.762	91.284	405.762	90.2082	405.762	91.0569	405.762	89.6703	405.762	90.6821	405.762	89.0762	405.762	90.1925	405.762	88.4483	405.762	89.6346	405.762	87.8101	405.762	89.0563	405.762	87.192	405.762	88.4959	405.762	86.6372	405.762	87.9812	405.762	86.203	405.762	87.5379	405.762	85.9508	405.762	87.2023	405.762	85.9239	405.762	87.023	405.762	86.1248	405.762	87.0379	405.762	86.5048	405.762	87.2349	405.762	86.9766	405.762	87.5357	405.762	87.4392	405.762	87.8257	405.762	87.8015	405.762	88.0011	405.762	87.9983
420.41	91.2991	420.41	91.1261	420.41	91.3379	420.41	90.8329	420.41	91.2388	420.41	90.4381	420.41	91.0113	420.41	89.9602	420.41	90.6748	420.41	89.414	420.41	90.2496	420.41	88.8098	420.41	89.7511	420.41	88.1569	420.41	89.1913	420.41	87.4718	420.41	88.5867	420.41	86.7933	420.41	87.9648	420.41	86.1953	420.41	87.3701	420.41	85.7828	420.41	86.8698	420.41	85.652	420.41	86.5483	420.41	85.8273	420.41	86.4714	420.41	86.2339	420.41	86.6349	420.41	86.7367	420.41	86.9524	420.41	87.1992	420.41	87.2978	420.41	87.5194	420.41	87.5543	420.41	87.6408
435.059	90.664	435.059	90.4862	435.059	90.7188	435.059	90.1935	435.059	90.6474	435.059	89.7977	435.059	90.4536	435.059	89.313	435.059	90.1468	435.059	88.7553	435.059	89.7428	435.059	88.1448	435.059	89.2639	435.059	87.5072	435.059	88.7395	435.059	86.8789	435.059	88.1983	435.059	86.3114	435.059	87.6576	435.059	85.8719	435.059	87.1285	435.059	85.6335	435.059	86.6512	435.059	85.6479	435.059	86.3336	435.059	85.9135	435.059	86.3135	435.059	86.3634	435.059	86.6191	435.059	86.8882	435.059	87.1022	435.059	87.3745	435.059	87.5559	435.059	87.7314	435.059	87.8393	435.059	87.8976
451.172	91.1942	451.172	90.9555	451.172	91.2968	451.172	90.595	451.172	91.2501	451.172	90.1225	451.172	91.0452	451.172	89.541	451.172	90.6829	451.172	88.8465	451.172	90.1791	451.172	88.0356	451.172	89.5683	451.172	87.1181	451.172	88.9005	451.172	86.1306	451.172	88.2253	451.172	85.1519	451.172	87.5663	451.172	84.317	451.172	86.9077	451.172	83.8061	451.172	86.2196	451.172	83.763	451.172	85.5347	451.172	84.1742	451.172	85.0272	451.172	84.8634	451.172	84.9514	451.172	85.612	451.172	85.3586	451.172	86.2459	451.172	85.9832	451.172	86.6473	451.172	86.5047	451.172	86.7426
465.82	90.905	465.82	90.6686	465.82	90.9905	465.82	90.2961	465.82	90.9142	465.82	89.8048	465.82	90.6734	465.82	89.2132	465.82	90.2784	465.82	88.5382	465.82	89.7538	465.82	87.7929	465.82	89.1344	465.82	86.9898	465.82	88.4609	465.82	86.1524	465.82	87.7779	465.82	85.3341	465.82	87.1307	465.82	84.6354	465.82	86.5569	465.82	84.1993	465.82	86.0832	465.82	84.1496	465.82	85.7352	465.82	84.4924	465.82	85.5516	465.82	85.0891	465.82	85.5735	465.82	85.74	465.82	85.798	465.82	86.2754	465.82	86.1425	465.82	86.5905	465.82	86.4695	465.82	86.6471
483.398	90.7047	483.398	90.574	483.398	90.6933	483.398	90.315	483.398	90.5345	483.398	89.9416	483.398	90.2399	483.398	89.4628	483.398	89.8414	483.398	88.8794	483.398	89.3839	483.398	88.184	483.398	88.9108	483.398	87.3649	483.398	88.4517	483.398	86.4177	483.398	88.0151	483.398	85.3684	483.398	87.5805	483.398	84.317	483.398	87.1055	483.398	83.4812	483.398	86.5643	483.398	83.1455	483.398	86.0093	483.398	83.4364	483.398	85.6061	483.398	84.1815	483.398	85.5462	483.398	85.0771	483.398	85.8432	483.398	85.8801	483.398	86.286	483.398	86.4439	483.398	86.6231	483.398	86.6957
499.512	90.4465	499.512	90.2154	499.512	90.5556	499.512	89.8993	499.512	90.5122	499.512	89.5302	499.512	90.3005	499.512	89.1266	499.512	89.9229	499.512	88.6887	499.512	89.3991	499.512	88.1978	499.512	88.7656	499.512	87.6198	499.512	88.0773	499.512	86.9132	499.512	87.4019	499.512	86.0452	499.512	86.7953	499.512	85.0213	499.512	86.2777	499.512	83.9374	499.512	85.8467	499.512	83.0492	499.512	85.5265	499.512	82.7352	499.512	85.3963	499.512	83.1714	499.512	85.5275	499.512	84.0939	499.512	85.87	499.512	85.0889	499.512	86.2425	499.512	85.8796	499.512	86.444	499.512	86.3403
517.09	90.4084	517.09	90.0904	517.09	90.5413	517.09	89.6309	517.09	90.4762	517.09	89.1018	517.09	90.2266	517.09	88.5845	517.09	89.8237	517.09	88.1354	517.09	89.3039	517.09	87.7574	517.09	88.703	517.09	87.4011	517.09	88.0611	517.09	86.9897	517.09	87.426	517.09	86.4476	517.09	86.8352	517.09	85.7338	517.09	86.2896	517.09	84.8919	517.09	85.7584	517.09	84.1175	517.09	85.2368	517.09	83.7588	517.09	84.8289	517.09	84.0589	517.09	84.7499	517.09	84.844	517.09	85.1183	517.09	85.7015	517.09	85.7475	517.09	86.3114	517.09	86.2973	517.09	86.5185
536.133	90.9945	536.133	90.5991	536.133	91.1037	536.133	89.9384	536.133	90.9293	536.133	89.0707	536.133	90.4906	536.133	88.1122	536.133	89.8195	536.133	87.2408	536.133	88.9612	536.133	86.6353	536.133	87.9943	536.133	86.3548	536.133	87.0677	536.133	86.2844	536.133	86.3956	536.133	86.2277	536.133	86.1177	536.133	86.0349	536.133	86.1356	536.133	85.6667	536.133	86.198	536.133	85.2086	536.133	86.1282	536.133	84.8537	536.133	85.9314	536.133	84.8147	536.133	85.7612	536.133	85.1431	536.133	85.7776	536.133	85.6559	536.133	85.9833	536.133	86.0931	536.133	86.2165	536.133	86.2881
555.176	91.3262	555.176	90.9751	555.176	91.4203	555.176	90.3646	555.176	91.2787	555.176	89.5251	555.176	90.93	555.176	88.5349	555.176	90.3951	555.176	87.5212	555.176	89.6728	555.176	86.6228	555.176	88.7439	555.176	85.9204	555.176	87.6142	555.176	85.3997	555.176	86.3956	555.176	84.9951	555.176	85.3843	555.176	84.6613	555.176	84.9503	555.176	84.3989	555.176	85.1381	555.176	84.2408	555.176	85.5907	555.176	84.244	555.176	85.9681	555.176	84.4753	555.176	86.171	555.176	84.9453	555.176	86.2785	555.176	85.5396	555.176	86.3836	555.176	86.0676	555.176	86.4588	555.176	86.383
574.219	91.7154	574.219	91.3648	574.219	91.8756	574.219	90.8212	574.219	91.8524	574.219	90.0996	574.219	91.6395	574.219	89.2403	574.219	91.2118	574.219	88.3088	574.219	90.543	574.219	87.3883	574.219	89.6289	574.219	86.5525	574.219	88.4953	574.219	85.8259	574.219	87.1972	574.219	85.1754	574.219	85.8479	574.219	84.5627	574.219	84.6865	574.219	84.0275	574.219	84.0786	574.219	83.7538	574.219	84.2716	574.219	83.9866	574.219	85.0909	574.219	84.7463	574.219	86.1031	574.219	85.7543	574.219	86.9752	574.219	86.6992	574.219	87.5635	574.219	87.3985	574.219	87.8341	574.219	87.781
594.727	91.1477	594.727	90.8755	594.727	91.2216	594.727	90.3944	594.727	91.1168	594.727	89.6979	594.727	90.8556	594.727	88.7854	594.727	90.4435	594.727	87.6894	594.727	89.8652	594.727	86.5215	594.727	89.1083	594.727	85.4919	594.727	88.1892	594.727	84.8188	594.727	87.163	594.727	84.5458	594.727	86.1268	594.727	84.4972	594.727	85.2032	594.727	84.4639	594.727	84.4655	594.727	84.3984	594.727	83.9485	594.727	84.4793	594.727	83.8951	594.727	84.9666	594.727	84.6682	594.727	85.8787	594.727	86.016	594.727	86.9198	594.727	87.2597	594.727	87.7505	594.727	88.0017	594.727	88.1506
615.234	91.2984	615.234	91.0058	615.234	91.3493	615.234	90.4724	615.234	91.1711	615.234	89.7213	615.234	90.789	615.234	88.8031	615.234	90.2418	615.234	87.7946	615.234	89.5662	615.234	86.7868	615.234	88.7667	615.234	85.8673	615.234	87.8178	615.234	85.1152	615.234	86.7053	615.234	84.6018	615.234	85.4931	615.234	84.3559	615.234	84.4503	615.234	84.3216	615.234	84.0606	615.234	84.4043	615.234	84.4005	615.234	84.5803	615.234	84.875	615.234	84.9364	615.234	85.0913	615.234	85.5323	615.234	85.2579	615.234	86.2236	615.234	85.7345	615.234	86.7206	615.234	86.3872	615.234	86.7905
637.207	91.3174	637.207	90.9691	637.207	91.4323	637.207	90.4123	637.207	91.3228	637.207	89.6916	637.207	91.0329	637.207	88.8573	637.207	90.5996	637.207	87.9512	637.207	89.9942	637.207	87.0041	637.207	89.1433	637.207	86.0616	637.207	88.028	637.207	85.2121	637.207	86.7262	637.207	84.515	637.207	85.3391	637.207	83.9043	637.207	83.9627	637.207	83.3132	637.207	82.913	637.207	82.9005	637.207	82.7988	637.207	83.0176	637.207	83.6346	637.207	83.7784	637.207	84.7284	637.207	84.8588	637.207	85.6736	637.207	85.8706	637.207	86.3951	637.207	86.59	637.207	86.8389	637.207	86.9196
659.18	91.1325	659.18	90.9314	659.18	91.0184	659.18	90.3837	659.18	90.6797	659.18	89.5316	659.18	90.2172	659.18	88.4859	659.18	89.6673	659.18	87.3814	659.18	89.0017	659.18	86.2971	659.18	88.21	659.18	85.2276	659.18	87.3145	659.18	84.2103	659.18	86.2996	659.18	83.4936	659.18	85.1463	659.18	83.3287	659.18	83.9729	659.18	83.5051	659.18	83.0068	659.18	83.5942	659.18	82.4397	659.18	83.5275	659.18	82.5889	659.18	83.7092	659.18	83.6951	659.18	84.5165	659.18	85.2323	659.18	85.7056	659.18	86.5057	659.18	86.743	659.18	87.2151	659.18	87.2889
682.617	91.0136	682.617	90.8419	682.617	90.9158	682.617	90.3659	682.617	90.6154	682.617	89.5885	682.617	90.1909	682.617	88.5781	682.617	89.6678	682.617	87.489	682.617	89.0072	682.617	86.4908	682.617	88.2091	682.617	85.6061	682.617	87.3753	682.617	84.7216	682.617	86.5892	682.617	83.8669	682.617	85.7252	682.617	83.3489	682.617	84.5165	682.617	83.3703	682.617	83.0859	682.617	83.7095	682.617	82.5441	682.617	84.1708	682.617	83.3703	682.617	84.8486	682.617	84.2964	682.617	85.7784	682.617	84.8917	682.617	86.6961	682.617	85.6362	682.617	87.2488	682.617	86.5756	682.617	87.2135
707.52	91.3158	707.52	91.2396	707.52	91.1758	707.52	90.853	707.52	90.9539	707.52	90.1571	707.52	90.6949	707.52	89.2233	707.52	90.3334	707.52	88.1645	707.52	89.8166	707.52	87.1384	707.52	89.1445	707.52	86.3145	707.52	88.2864	707.52	85.6667	707.52	87.1631	707.52	84.8857	707.52	85.7332	707.52	83.88	707.52	84.0255	707.52	83.1924	707.52	82.1808	707.52	83.1409	707.52	80.9813	707.52	83.1951	707.52	81.8236	707.52	83.2095	707.52	83.9051	707.52	83.8723	707.52	85.809	707.52	85.4048	707.52	87.1962	707.52	86.968	707.52	87.9407	707.52	87.8819
732.422	91.5452	732.422	91.6763	732.422	91.1405	732.422	91.4185	732.422	90.6537	732.422	90.774	732.422	90.2376	732.422	89.8589	732.422	89.8834	732.422	88.8328	732.422	89.464	732.422	87.7807	732.422	88.8808	732.422	86.6942	732.422	88.1082	732.422	85.5971	732.422	87.109	732.422	84.6402	732.422	85.7732	732.422	84.0319	732.422	84.1033	732.422	83.8586	732.422	82.5511	732.422	83.9848	732.422	81.8365	732.422	84.1749	732.422	82.1904	732.422	84.3433	732.422	83.3394	732.422	84.6806	732.422	84.7616	732.422	85.3908	732.422	85.9542	732.422	86.2319	732.422	86.6469	732.422	86.7335
757.324	91.5218	757.324	91.5462	757.324	91.3767	757.324	91.3546	757.324	91.1399	757.324	90.8787	757.324	90.7341	757.324	90.0841	757.324	90.1112	757.324	88.9264	757.324	89.3833	757.324	87.3836	757.324	88.729	757.324	85.5921	757.324	88.1789	757.324	84.0451	757.324	87.5722	757.324	83.5822	757.324	86.6866	757.324	84.2232	757.324	85.3756	757.324	84.8406	757.324	83.825	757.324	84.75	757.324	82.9495	757.324	84.0936	757.324	83.4155	757.324	83.501	757.324	84.4892	757.324	83.635	757.324	85.5983	757.324	84.5773	757.324	86.4744	757.324	85.7393	757.324	86.8321	757.324	86.5671
785.156	89.3291	785.156	89.4079	785.156	89.9212	785.156	90.2998	785.156	90.4993	785.156	91.2566	785.156	90.6611	785.156	91.5614	785.156	90.2419	785.156	90.7488	785.156	89.1537	785.156	88.4655	785.156	87.3665	785.156	84.4381	785.156	84.959	785.156	78.3745	785.156	81.9634	785.156	70.459	785.156	77.9418	785.156	65.5379	785.156	74.3429	785.156	68.3457	785.156	78.3157	785.156	79.0353	785.156	83.3409	785.156	85.0157	785.156	86.6706	785.156	88.0683	785.156	88.0116	785.156	89.1571	785.156	87.1062	785.156	88.8997	785.156	84.0553	785.156	87.6968	785.156	82.6373	785.156	85.4565
811.523	89.1353	811.523	89.0991	811.523	88.9828	811.523	89.0565	811.523	88.5132	811.523	89.265	811.523	87.6906	811.523	89.7071	811.523	86.7875	811.523	89.9294	811.523	86.3166	811.523	89.5051	811.523	86.5675	811.523	88.2524	811.523	87.237	811.523	86.0907	811.523	87.6072	811.523	83.4186	811.523	87.1378	811.523	82.7458	811.523	85.4405	811.523	85.0898	811.523	81.6588	811.523	87.5162	811.523	69.1909	811.523	89.0052	811.523	78.9616	811.523	89.4817	811.523	86.2975	811.523	89.0569	811.523	89.3585	811.523	88.3265	811.523	90.4494	811.523	88.3595	811.523	90.2749	811.523	89.3202
840.82	90.0177	840.82	89.5138	840.82	90.1794	840.82	89.3273	840.82	89.7006	840.82	89.8091	840.82	88.4832	840.82	90.5421	840.82	86.6947	840.82	90.9301	840.82	85.4767	840.82	90.3987	840.82	85.5576	840.82	88.2988	840.82	85.9574	840.82	83.638	840.82	86.3738	840.82	75.0983	840.82	86.4712	840.82	79.4277	840.82	85.1832	840.82	83.2299	840.82	81.418	840.82	84.3293	840.82	80.3497	840.82	86.3002	840.82	86.113	840.82	89.7073	840.82	89.6574	840.82	92.4957	840.82	91.5046	840.82	94.1599	840.82	92.6203	840.82	94.7437	840.82	93.5997	840.82	94.4381
870.117	94.158	870.117	92.9987	870.117	94.6783	870.117	91.3572	870.117	94.4161	870.117	89.4574	870.117	93.1609	870.117	87.9937	870.117	90.5665	870.117	87.9987	870.117	86.114	870.117	88.6924	870.117	78.8681	870.117	88.9163	870.117	79.9322	870.117	88.5552	870.117	86.0078	870.117	87.5567	870.117	89.0536	870.117	85.4986	870.117	90.6922	870.117	79.7638	870.117	91.6255	870.117	76.7511	870.117	91.4962	870.117	88.7919	870.117	90.2918	870.117	93.223	870.117	90.9908	870.117	94.9305	870.117	93.8087	870.117	95.268	870.117	95.7278	870.117	95.4099	870.117	96.341	870.117	95.9836
900.879	95.2795	900.879	93.8265	900.879	95.9249	900.879	91.771	900.879	95.5115	900.879	89.2766	900.879	93.9062	900.879	87.222	900.879	91.4808	900.879	87.7626	900.879	89.1895	900.879	89.7205	900.879	86.4452	900.879	90.7123	900.879	80.3862	900.879	90.3512	900.879	81.521	900.879	88.889	900.879	87.5509	900.879	85.8359	900.879	89.8316	900.879	78.2592	900.879	90.2781	900.879	82.1541	900.879	89.6791	900.879	88.3458	900.879	87.8649	900.879	90.4666	900.879	86.8533	900.879	91.504	900.879	91.0344	900.879	93.3337	900.879	94.7044	900.879	95.4855	900.879	96.5023	900.879	96.7047
933.105	95.9657	933.105	94.853	933.105	96.2357	933.105	93.2496	933.105	95.6048	933.105	91.53	933.105	94.3812	933.105	89.4682	933.105	92.8726	933.105	86.0639	933.105	90.946	933.105	82.5706	933.105	88.6934	933.105	85.4425	933.105	85.4777	933.105	87.9729	933.105	76.2598	933.105	87.8855	933.105	78.65	933.105	85.7875	933.105	87.0638	933.105	84.0558	933.105	90.1883	933.105	83.4344	933.105	90.9407	933.105	84.2495	933.105	90.0392	933.105	88.1664	933.105	89.4033	933.105	91.609	933.105	91.5678	933.105	93.9289	933.105	94.308	933.105	95.5347	933.105	95.956	933.105	96.3157
965.332	94.9219	965.332	94.2804	965.332	95.0299	965.332	93.7478	965.332	94.1936	965.332	93.4461	965.332	92.485	965.332	92.5238	965.332	91.4046	965.332	89.8357	965.332	92.2259	965.332	84.6631	965.332	92.4307	965.332	82.5639	965.332	90.3531	965.332	87.0767	965.332	85.7506	965.332	89.7435	965.332	78.8348	965.332	90.1374	965.332	83.1994	965.332	88.2864	965.332	89.187	965.332	84.018	965.332	92.0621	965.332	82.357	965.332	93.0286	965.332	86.5002	965.332	92.8518	965.332	89.6189	965.332	92.7783	965.332	92.0695	965.332	93.7239	965.332	93.9445	965.332	94.744	965.332	94.8925
1,000.49	93.8376	1,000.49	94.9272	1,000.49	91.1723	1,000.49	94.65	1,000.49	88.3761	1,000.49	93.5042	1,000.49	88.9148	1,000.49	92.1505	1,000.49	90.2638	1,000.49	90.485	1,000.49	90.3307	1,000.49	87.7602	1,000.49	89.2848	1,000.49	84.9491	1,000.49	87.6536	1,000.49	86.1774	1,000.49	85.3491	1,000.49	88.878	1,000.49	80.6869	1,000.49	90.1559	1,000.49	74.9961	1,000.49	89.7317	1,000.49	84.7904	1,000.49	86.4879	1,000.49	89.607	1,000.49	77.5778	1,000.49	91.6273	1,000.49	81.118	1,000.49	91.6559	1,000.49	84.2072	1,000.49	90.2279	1,000.49	84.7596	1,000.49	88.5605	1,000.49	86.8405	1,000.49	88.4384	1,000.49	88.4953
1,035.64	92.4891	1,035.64	92.8804	1,035.64	91.3179	1,035.64	92.9939	1,035.64	89.5336	1,035.64	93.1243	1,035.64	87.9122	1,035.64	92.6777	1,035.64	87.0313	1,035.64	90.7975	1,035.64	87.1412	1,035.64	86.5126	1,035.64	88.0744	1,035.64	76.8785	1,035.64	88.8958	1,035.64	77.2398	1,035.64	88.5833	1,035.64	83.7424	1,035.64	86.6336	1,035.64	85.7395	1,035.64	82.5041	1,035.64	83.8794	1,035.64	71.3862	1,035.64	78.0617	1,035.64	78.7394	1,035.64	82.1187	1,035.64	86.4104	1,035.64	83.0749	1,035.64	88.763	1,035.64	76.2617	1,035.64	88.0967	1,035.64	77.4648	1,035.64	85.2858	1,035.64	84.8146	1,035.64	83.4902	1,035.64	85.4657
1,072.27	91.9904	1,072.27	92.6852	1,072.27	90.6269	1,072.27	92.6401	1,072.27	89.3847	1,072.27	92.2477	1,072.27	88.6788	1,072.27	91.8266	1,072.27	88.1095	1,072.27	91.2244	1,072.27	87.4805	1,072.27	89.9887	1,072.27	86.2968	1,072.27	87.507	1,072.27	84.8796	1,072.27	83.0016	1,072.27	84.2216	1,072.27	80.8059	1,072.27	82.4192	1,072.27	83.2802	1,072.27	74.7999	1,072.27	84.4904	1,072.27	74.7423	1,072.27	85.2643	1,072.27	82.5767	1,072.27	84.4232	1,072.27	85.4366	1,072.27	79.289	1,072.27	86.8928	1,072.27	70.5656	1,072.27	86.2392	1,072.27	77.0102	1,072.27	83.3057	1,072.27	76.0724	1,072.27	77.3765	1,072.27	66.2669
1,108.89	92.3416	1,108.89	92.5726	1,108.89	91.664	1,108.89	92.2553	1,108.89	91.0472	1,108.89	91.6972	1,108.89	90.2428	1,108.89	91.0825	1,108.89	88.4152	1,108.89	89.9957	1,108.89	86.2796	1,108.89	87.9025	1,108.89	85.4045	1,108.89	84.7445	1,108.89	84.9088	1,108.89	81.1664	1,108.89	84.4126	1,108.89	80.3912	1,108.89	84.5262	1,108.89	80.4696	1,108.89	83.215	1,108.89	79.9641	1,108.89	77.2796	1,108.89	82.1065	1,108.89	70.5645	1,108.89	84.2064	1,108.89	77.7784	1,108.89	83.441	1,108.89	82.0864	1,108.89	79.9573	1,108.89	83.2217	1,108.89	77.4795	1,108.89	82.6379	1,108.89	78.3833	1,108.89	82.1372	1,108.89	80.5179
1,148.44	91.7036	1,148.44	92.6718	1,148.44	90.0353	1,148.44	92.1272	1,148.44	89.7353	1,148.44	90.4648	1,148.44	90.0386	1,148.44	89.4589	1,148.44	89.0114	1,148.44	89.4859	1,148.44	87.0316	1,148.44	88.9754	1,148.44	85.5864	1,148.44	87.5317	1,148.44	84.5511	1,148.44	84.8768	1,148.44	83.4837	1,148.44	82.688	1,148.44	82.9946	1,148.44	82.1352	1,148.44	81.6128	1,148.44	81.0612	1,148.44	78.3408	1,148.44	80.6337	1,148.44	77.9083	1,148.44	79.6657	1,148.44	76.0267	1,148.44	76.9469	1,148.44	78.6964	1,148.44	75.1648	1,148.44	83.1315	1,148.44	79.8577	1,148.44	82.0004	1,148.44	83.3506	1,148.44	78.3204	1,148.44	82.4362
1,189.45	91.3226	1,189.45	91.9056	1,189.45	90.8658	1,189.45	91.8987	1,189.45	90.4977	1,189.45	91.0313	1,189.45	88.9149	1,189.45	89.4946	1,189.45	86.4226	1,189.45	87.4808	1,189.45	85.7832	1,189.45	85.1227	1,189.45	85.9624	1,189.45	82.8552	1,189.45	85.6136	1,189.45	80.7386	1,189.45	84.4993	1,189.45	78.8671	1,189.45	83.1107	1,189.45	78.9392	1,189.45	81.6876	1,189.45	79.1705	1,189.45	79.5322	1,189.45	78.2161	1,189.45	77.1847	1,189.45	78.0496	1,189.45	74.552	1,189.45	78.116	1,189.45	75.8741	1,189.45	78.1136	1,189.45	77.3763	1,189.45	80.3217	1,189.45	76.9631	1,189.45	82.4151	1,189.45	79.7566	1,189.45	82.2259
1,230.47	91.4848	1,230.47	91.9349	1,230.47	91.6	1,230.47	92.3258	1,230.47	90.8314	1,230.47	91.4696	1,230.47	87.8604	1,230.47	88.982	1,230.47	84.1974	1,230.47	86.1356	1,230.47	84.7484	1,230.47	85.4985	1,230.47	86.5915	1,230.47	85.551	1,230.47	86.7459	1,230.47	83.6816	1,230.47	84.6645	1,230.47	80.4135	1,230.47	81.9026	1,230.47	79.4054	1,230.47	80.3519	1,230.47	79.7923	1,230.47	77.0679	1,230.47	79.6196	1,230.47	75.4116	1,230.47	80.7285	1,230.47	78.4107	1,230.47	81.4274	1,230.47	76.8401	1,230.47	80.2502	1,230.47	74.3347	1,230.47	80.4134	1,230.47	79.2426	1,230.47	82.8258	1,230.47	81.2096	1,230.47	82.8382
1,274.41	92.0956	1,274.41	92.0438	1,274.41	91.667	1,274.41	91.6189	1,274.41	89.87	1,274.41	90.5366	1,274.41	87.0036	1,274.41	88.9444	1,274.41	85.956	1,274.41	87.2555	1,274.41	85.2205	1,274.41	85.381	1,274.41	82.5145	1,274.41	82.0734	1,274.41	79.4785	1,274.41	78.0812	1,274.41	79.3059	1,274.41	75.4999	1,274.41	78.0684	1,274.41	72.9404	1,274.41	75.4045	1,274.41	74.0117	1,274.41	74.936	1,274.41	77.5057	1,274.41	76.8026	1,274.41	79.356	1,274.41	76.6401	1,274.41	79.0947	1,274.41	74.0877	1,274.41	76.5472	1,274.41	75.4196	1,274.41	78.4256	1,274.41	76.6521	1,274.41	82.1427	1,274.41	80.2796	1,274.41	82.6465
1,319.82	92.4903	1,319.82	92.4333	1,319.82	91.9719	1,319.82	92.2439	1,319.82	89.652	1,319.82	91.4561	1,319.82	86.6447	1,319.82	89.5776	1,319.82	86.605	1,319.82	86.9148	1,319.82	84.8133	1,319.82	83.4856	1,319.82	79.9813	1,319.82	78.9291	1,319.82	76.4598	1,319.82	77.1654	1,319.82	77.7816	1,319.82	77.6448	1,319.82	78.2134	1,319.82	79.073	1,319.82	76.4874	1,319.82	79.0175	1,319.82	76.5376	1,319.82	79.2842	1,319.82	77.0653	1,319.82	79.2974	1,319.82	75.1576	1,319.82	78.9397	1,319.82	77.2167	1,319.82	77.8759	1,319.82	77.2881	1,319.82	78.7164	1,319.82	78.0578	1,319.82	82.3692	1,319.82	81.1718	1,319.82	83.1314
1,366.7	92.4092	1,366.7	92.3717	1,366.7	91.6311	1,366.7	92.2398	1,366.7	88.9259	1,366.7	91.2895	1,366.7	86.3393	1,366.7	89.199	1,366.7	85.6668	1,366.7	86.5252	1,366.7	82.7491	1,366.7	83.2718	1,366.7	80.5965	1,366.7	77.8962	1,366.7	82.2573	1,366.7	72.8545	1,366.7	82.7813	1,366.7	78.2065	1,366.7	81.3862	1,366.7	79.3133	1,366.7	79.0288	1,366.7	76.2603	1,366.7	77.2252	1,366.7	75.2534	1,366.7	76.6657	1,366.7	78.3451	1,366.7	77.5098	1,366.7	80.1523	1,366.7	77.2452	1,366.7	79.3855	1,366.7	68.6206	1,366.7	78.3324	1,366.7	79.2537	1,366.7	81.7819	1,366.7	82.2596	1,366.7	82.3558
1,413.57	92.3475	1,413.57	92.4928	1,413.57	91.1472	1,413.57	92.2371	1,413.57	88.1519	1,413.57	91.5243	1,413.57	86.8688	1,413.57	90.2671	1,413.57	86.7899	1,413.57	87.8881	1,413.57	83.0633	1,413.57	83.0927	1,413.57	81.1557	1,413.57	76.202	1,413.57	81.8407	1,413.57	73.4748	1,413.57	81.9211	1,413.57	77.019	1,413.57	80.9162	1,413.57	78.0011	1,413.57	77.528	1,413.57	76.7312	1,413.57	76.1296	1,413.57	71.0555	1,413.57	79.2868	1,413.57	71.2201	1,413.57	78.7352	1,413.57	79.69	1,413.57	76.3995	1,413.57	81.6036	1,413.57	74.6043	1,413.57	79.7368	1,413.57	74.9353	1,413.57	80.8448	1,413.57	80.4635	1,413.57	81.6398
1,463.38	92.9695	1,463.38	93.1772	1,463.38	91.4324	1,463.38	92.7486	1,463.38	89.2804	1,463.38	92.3231	1,463.38	88.6361	1,463.38	91.7135	1,463.38	86.3919	1,463.38	89.4542	1,463.38	84.5732	1,463.38	85.9055	1,463.38	86.7113	1,463.38	84.4697	1,463.38	84.964	1,463.38	83.8565	1,463.38	81.8974	1,463.38	80.9868	1,463.38	79.9693	1,463.38	78.2396	1,463.38	77.9862	1,463.38	72.3964	1,463.38	77.0423	1,463.38	63.4679	1,463.38	74.6603	1,463.38	68.0687	1,463.38	72.4001	1,463.38	81.1886	1,463.38	80.8762	1,463.38	83.2817	1,463.38	78.6284	1,463.38	78.6964	1,463.38	78.0874	1,463.38	79.663	1,463.38	82.0794	1,463.38	80.894
1,516.11	93.1761	1,516.11	93.5452	1,516.11	91.8633	1,516.11	93.639	1,516.11	89.9528	1,516.11	93.0206	1,516.11	89.0831	1,516.11	91.0007	1,516.11	86.2397	1,516.11	87.5832	1,516.11	85.6455	1,516.11	83.655	1,516.11	87.2386	1,516.11	82.4546	1,516.11	86.3827	1,516.11	82.4684	1,516.11	84.9737	1,516.11	80.9315	1,516.11	83.7712	1,516.11	79.6639	1,516.11	81.1627	1,516.11	75.0173	1,516.11	79.2692	1,516.11	73.8972	1,516.11	76.8836	1,516.11	74.9399	1,516.11	69.8738	1,516.11	80.1982	1,516.11	78.7391	1,516.11	81.7769	1,516.11	80.9542	1,516.11	76.7422	1,516.11	79.226	1,516.11	78.4918	1,516.11	82.8948	1,516.11	82.6849
1,568.85	92.6948	1,568.85	92.5752	1,568.85	91.2173	1,568.85	92.7002	1,568.85	89.294	1,568.85	92.8787	1,568.85	88.4645	1,568.85	91.3617	1,568.85	84.6488	1,568.85	88.0348	1,568.85	84.8477	1,568.85	83.3876	1,568.85	86.0606	1,568.85	78.6576	1,568.85	86.4545	1,568.85	78.2138	1,568.85	86.3655	1,568.85	72.9846	1,568.85	83.7657	1,568.85	74.7382	1,568.85	81.0924	1,568.85	77.4302	1,568.85	81.3798	1,568.85	78.726	1,568.85	81.4848	1,568.85	77.9624	1,568.85	81.483	1,568.85	77.1605	1,568.85	71.7708	1,568.85	79.6085	1,568.85	78.2078	1,568.85	77.9553	1,568.85	80.4256	1,568.85	76.494	1,568.85	81.3515	1,568.85	80.874
1,624.51	93.231	1,624.51	92.9933	1,624.51	91.045	1,624.51	91.6934	1,624.51	89.6542	1,624.51	92.4014	1,624.51	86.775	1,624.51	91.9855	1,624.51	80.9678	1,624.51	87.8162	1,624.51	83.9111	1,624.51	82.732	1,624.51	83.0669	1,624.51	78.2159	1,624.51	83.9671	1,624.51	73.9364	1,624.51	85.396	1,624.51	74.0422	1,624.51	83.7695	1,624.51	68.0931	1,624.51	79.1772	1,624.51	71.0299	1,624.51	78.7136	1,624.51	77.3846	1,624.51	79.8344	1,624.51	76.174	1,624.51	79.9258	1,624.51	71.6534	1,624.51	72.7852	1,624.51	78.9732	1,624.51	72.2755	1,624.51	78.8152	1,624.51	77.2008	1,624.51	74.4564	1,624.51	82.5528	1,624.51	79.9355
1,681.64	93.2304	1,681.64	94.3594	1,681.64	91.1952	1,681.64	92.5312	1,681.64	90.4192	1,681.64	91.0454	1,681.64	85.0841	1,681.64	91.0606	1,681.64	83.9664	1,681.64	87.4128	1,681.64	85.5676	1,681.64	82.0146	1,681.64	83.4893	1,681.64	76.8	1,681.64	83.4684	1,681.64	75.5445	1,681.64	83.7818	1,681.64	74.5706	1,681.64	83.1362	1,681.64	71.3006	1,681.64	80.8855	1,681.64	63.0961	1,681.64	76.3019	1,681.64	70.2915	1,681.64	80.0347	1,681.64	79.7594	1,681.64	82.1839	1,681.64	78.9205	1,681.64	80.5486	1,681.64	77.6935	1,681.64	62.6692	1,681.64	79.0275	1,681.64	76.3827	1,681.64	78.4323	1,681.64	78.9498	1,681.64	79.3441
1,741.7	94.266	1,741.7	94.0061	1,741.7	92.9026	1,741.7	92.9218	1,741.7	89.3935	1,741.7	90.0599	1,741.7	86.2459	1,741.7	86.6904	1,741.7	83.3662	1,741.7	83.9206	1,741.7	84.5283	1,741.7	83.5999	1,741.7	85.265	1,741.7	82.8891	1,741.7	83.0605	1,741.7	76.0985	1,741.7	84.1868	1,741.7	75.386	1,741.7	82.8515	1,741.7	76.2418	1,741.7	82.7522	1,741.7	69.3663	1,741.7	79.9984	1,741.7	78.0315	1,741.7	83.0388	1,741.7	77.3554	1,741.7	83.7558	1,741.7	78.1479	1,741.7	76.2053	1,741.7	78.6676	1,741.7	73.5659	1,741.7	78.2891	1,741.7	78.8753	1,741.7	77.8038	1,741.7	81.477	1,741.7	79.2031
1,803.22	93.9796	1,803.22	94.8107	1,803.22	92.3029	1,803.22	93.4583	1,803.22	89.2899	1,803.22	88.9725	1,803.22	84.9845	1,803.22	85.3721	1,803.22	84.4591	1,803.22	83.9103	1,803.22	85.8749	1,803.22	81.096	1,803.22	85.4678	1,803.22	79.5004	1,803.22	82.4356	1,803.22	66.5643	1,803.22	79.5697	1,803.22	73.575	1,803.22	81.1426	1,803.22	75.3856	1,803.22	80.9501	1,803.22	74.9305	1,803.22	77.8593	1,803.22	78.6189	1,803.22	80.559	1,803.22	80.2569	1,803.22	84.3351	1,803.22	78.6202	1,803.22	81.3091	1,803.22	78.5525	1,803.22	56.6705	1,803.22	81.4034	1,803.22	82.0673	1,803.22	80.3122	1,803.22	84.3899	1,803.22	82.2763
1,866.21	93.5257	1,866.21	94.6588	1,866.21	91.4778	1,866.21	93.6301	1,866.21	88.1809	1,866.21	89.2941	1,866.21	82.5698	1,866.21	84.0134	1,866.21	83.7141	1,866.21	81.0083	1,866.21	86.3284	1,866.21	78.8618	1,866.21	87.2174	1,866.21	78.693	1,866.21	85.0168	1,866.21	61.933	1,866.21	81.6257	1,866.21	71.2915	1,866.21	77.5662	1,866.21	63.9049	1,866.21	80.5449	1,866.21	66.7332	1,866.21	81.1378	1,866.21	78.0389	1,866.21	75.4676	1,866.21	80.7676	1,866.21	85.2679	1,866.21	79.5171	1,866.21	84.1302	1,866.21	78.6619	1,866.21	74.2211	1,866.21	82.8345	1,866.21	82.4971	1,866.21	83.3401	1,866.21	85.0742	1,866.21	83.2464
1,932.13	92.8407	1,932.13	93.7072	1,932.13	90.5334	1,932.13	92.0354	1,932.13	87.1591	1,932.13	89.3726	1,932.13	82.1229	1,932.13	86.2493	1,932.13	84.7879	1,932.13	76.2334	1,932.13	87.8874	1,932.13	75.2707	1,932.13	87.6043	1,932.13	77.9277	1,932.13	87.2995	1,932.13	74.0649	1,932.13	83.8857	1,932.13	68.6712	1,932.13	81.9086	1,932.13	76.8705	1,932.13	81.6565	1,932.13	69.534	1,932.13	80.2751	1,932.13	76.7435	1,932.13	69.7352	1,932.13	79.72	1,932.13	82.2387	1,932.13	79.4505	1,932.13	82.5798	1,932.13	78.2186	1,932.13	74.9961	1,932.13	79.7205	1,932.13	79.1409	1,932.13	82.3027	1,932.13	85.2301	1,932.13	84.5925
1,999.51	92.8943	1,999.51	92.1275	1,999.51	90.7528	1,999.51	90.1803	1,999.51	86.4068	1,999.51	90.4716	1,999.51	79.7433	1,999.51	87.0731	1,999.51	84.8587	1,999.51	78.6943	1,999.51	86.9543	1,999.51	72.2806	1,999.51	87.0254	1,999.51	74.5523	1,999.51	87.2967	1,999.51	67.1653	1,999.51	86.4462	1,999.51	77.8804	1,999.51	81.9404	1,999.51	78.9895	1,999.51	79.0134	1,999.51	77.6421	1,999.51	80.742	1,999.51	79.0032	1,999.51	75.2567	1,999.51	81.2502	1,999.51	79.8219	1,999.51	81.0053	1,999.51	84.2221	1,999.51	80.5746	1,999.51	81.2226	1,999.51	81.7223	1,999.51	78.7265	1,999.51	84.0132	1,999.51	85.6814	1,999.51	86.0727
2,069.82	94.352	2,069.82	92.5753	2,069.82	92.3289	2,069.82	90.4298	2,069.82	86.1359	2,069.82	89.3787	2,069.82	78.7372	2,069.82	84.7837	2,069.82	83.9737	2,069.82	78.6444	2,069.82	87.7713	2,069.82	71.7908	2,069.82	88.1499	2,069.82	69.8759	2,069.82	87.5888	2,069.82	75.1795	2,069.82	86.387	2,069.82	70.7226	2,069.82	85.641	2,069.82	60.5164	2,069.82	79.9933	2,069.82	73.9206	2,069.82	78.5937	2,069.82	77.7078	2,069.82	79.9725	2,069.82	78.586	2,069.82	63.4072	2,069.82	79.8833	2,069.82	79.4422	2,069.82	77.4162	2,069.82	80.4259	2,069.82	75.7933	2,069.82	68.8446	2,069.82	80.7353	2,069.82	82.2141	2,069.82	83.8136
2,143.07	94.254	2,143.07	93.331	2,143.07	92.8987	2,143.07	91.4159	2,143.07	86.5696	2,143.07	85.3671	2,143.07	74.1722	2,143.07	79.7115	2,143.07	83.7965	2,143.07	79.1682	2,143.07	87.7149	2,143.07	75.7716	2,143.07	88.4652	2,143.07	65.7819	2,143.07	87.7484	2,143.07	75.2804	2,143.07	87.6281	2,143.07	65.1738	2,143.07	87.304	2,143.07	69.2984	2,143.07	83.2975	2,143.07	72.6226	2,143.07	78.2699	2,143.07	74.7404	2,143.07	79.8193	2,143.07	74.6397	2,143.07	75.2006	2,143.07	75.658	2,143.07	69.7275	2,143.07	75.3658	2,143.07	77.7263	2,143.07	63.3222	2,143.07	69.7343	2,143.07	70.8952	2,143.07	76.8997	2,143.07	76.3981
2,219.24	93.2847	2,219.24	93.1069	2,219.24	92.5785	2,219.24	91.3615	2,219.24	87.675	2,219.24	85.5436	2,219.24	78.0127	2,219.24	81.7278	2,219.24	84.5268	2,219.24	79.7987	2,219.24	87.012	2,219.24	63.2392	2,219.24	88.4737	2,219.24	56.8918	2,219.24	87.1929	2,219.24	69.4328	2,219.24	84.4483	2,219.24	77.9556	2,219.24	85.0157	2,219.24	73.7389	2,219.24	85.0202	2,219.24	72.5763	2,219.24	81.4865	2,219.24	74.6205	2,219.24	78.4814	2,219.24	75.3226	2,219.24	79.2773	2,219.24	62.3858	2,219.24	75.1639	2,219.24	71.4257	2,219.24	68.7354	2,219.24	65.0271	2,219.24	73.1375	2,219.24	67.0081	2,219.24	77.5803	2,219.24	73.9315
2,296.88	92.7442	2,296.88	93.1634	2,296.88	91.8436	2,296.88	91.359	2,296.88	86.9742	2,296.88	87.1728	2,296.88	71.6649	2,296.88	83.7548	2,296.88	84.7939	2,296.88	75.0142	2,296.88	87.4641	2,296.88	67.5275	2,296.88	88.3903	2,296.88	78.7019	2,296.88	85.3817	2,296.88	79.9197	2,296.88	81.0796	2,296.88	78.7636	2,296.88	82.4607	2,296.88	79.007	2,296.88	82.5753	2,296.88	72.6661	2,296.88	82.2207	2,296.88	74.5049	2,296.88	78.7397	2,296.88	79.0947	2,296.88	80.1406	2,296.88	70.8593	2,296.88	78.8904	2,296.88	68.7004	2,296.88	74.1444	2,296.88	60.4089	2,296.88	73.6665	2,296.88	68.1019	2,296.88	77.0337	2,296.88	69.0708
2,378.91	93.0848	2,378.91	91.9891	2,378.91	91.5496	2,378.91	88.9828	2,378.91	85.5532	2,378.91	87.3816	2,378.91	73.6302	2,378.91	79.128	2,378.91	84.7785	2,378.91	68.7132	2,378.91	87.5941	2,378.91	76.4928	2,378.91	88.4012	2,378.91	79.5844	2,378.91	86.747	2,378.91	71.8021	2,378.91	85.0848	2,378.91	77.7268	2,378.91	83.6277	2,378.91	73.7322	2,378.91	82.2712	2,378.91	79.0987	2,378.91	76.5166	2,378.91	72.5727	2,378.91	77.3795	2,378.91	79.5514	2,378.91	79.0651	2,378.91	76.3399	2,378.91	79.8609	2,378.91	66.4384	2,378.91	75.9225	2,378.91	62.6284	2,378.91	68.3729	2,378.91	73.7819	2,378.91	77.7565	2,378.91	73.1099
2,462.4	94.2415	2,462.4	93.0887	2,462.4	92.4182	2,462.4	89.911	2,462.4	86.2941	2,462.4	86.2719	2,462.4	77.4572	2,462.4	73.9264	2,462.4	86.7914	2,462.4	77.4506	2,462.4	88.6421	2,462.4	78.2771	2,462.4	88.9723	2,462.4	80.6714	2,462.4	87.2755	2,462.4	82.7542	2,462.4	82.6961	2,462.4	78.5872	2,462.4	84.7808	2,462.4	79.9095	2,462.4	82.2549	2,462.4	78.0173	2,462.4	80.373	2,462.4	75.1175	2,462.4	77.6271	2,462.4	77.7164	2,462.4	80.208	2,462.4	79.114	2,462.4	79.495	2,462.4	72.179	2,462.4	75.774	2,462.4	70.1688	2,462.4	71.4993	2,462.4	71.8262	2,462.4	79.0655	2,462.4	74.9234
2,548.83	94.4001	2,548.83	93.9359	2,548.83	93.2891	2,548.83	90.6923	2,548.83	87.0645	2,548.83	82.2654	2,548.83	75.6994	2,548.83	69.4805	2,548.83	87.0711	2,548.83	78.0213	2,548.83	88.2503	2,548.83	81.8062	2,548.83	88.0065	2,548.83	81.3587	2,548.83	83.9207	2,548.83	80.8398	2,548.83	84.7452	2,548.83	82.3231	2,548.83	86.1406	2,548.83	80.3243	2,548.83	79.9321	2,548.83	77.237	2,548.83	78.067	2,548.83	79.1105	2,548.83	80.6059	2,548.83	75.0556	2,548.83	80.0438	2,548.83	79.8084	2,548.83	80.4224	2,548.83	70.1196	2,548.83	77.4882	2,548.83	64.8895	2,548.83	73.3525	2,548.83	73.3373	2,548.83	80.0338	2,548.83	73.3689
2,639.65	93.165	2,639.65	93.0685	2,639.65	91.9919	2,639.65	89.9017	2,639.65	86.7239	2,639.65	82.8639	2,639.65	74.4275	2,639.65	77.631	2,639.65	86.7847	2,639.65	80.8	2,639.65	89.3519	2,639.65	84.4685	2,639.65	88.0448	2,639.65	85.7149	2,639.65	84.8628	2,639.65	84.7789	2,639.65	82.9851	2,639.65	81.3382	2,639.65	84.4945	2,639.65	81.4023	2,639.65	78.3639	2,639.65	77.177	2,639.65	67.4643	2,639.65	77.7462	2,639.65	77.3276	2,639.65	78.1447	2,639.65	78.3362	2,639.65	79.7033	2,639.65	77.6771	2,639.65	75.3441	2,639.65	75.6318	2,639.65	60.5413	2,639.65	76.1055	2,639.65	73.6504	2,639.65	80.6845	2,639.65	74.7121
2,731.93	92.6437	2,731.93	91.2473	2,731.93	91.0161	2,731.93	88.0406	2,731.93	85.6983	2,731.93	83.6606	2,731.93	80.4129	2,731.93	80.7876	2,731.93	87.5247	2,731.93	84.1007	2,731.93	90.0642	2,731.93	85.8007	2,731.93	88.3193	2,731.93	84.3385	2,731.93	85.1756	2,731.93	82.2287	2,731.93	80.6788	2,731.93	82.0566	2,731.93	79.2333	2,731.93	79.0974	2,731.93	73.5233	2,731.93	79.0197	2,731.93	73.7908	2,731.93	77.0081	2,731.93	76.1661	2,731.93	78.5333	2,731.93	78.8663	2,731.93	78.2303	2,731.93	76.4147	2,731.93	76.352	2,731.93	76.51	2,731.93	71.3204	2,731.93	76.6001	2,731.93	66.6601	2,731.93	77.3744	2,731.93	67.5321
2,828.61	92.986	2,828.61	91.4065	2,828.61	91.12	2,828.61	88.133	2,828.61	85.3712	2,828.61	82.147	2,828.61	82.0071	2,828.61	84.1926	2,828.61	88.3707	2,828.61	86.652	2,828.61	89.8925	2,828.61	87.043	2,828.61	88.2569	2,828.61	85.2791	2,828.61	86.6738	2,828.61	82.0722	2,828.61	83.0009	2,828.61	80.4018	2,828.61	74.453	2,828.61	80.5537	2,828.61	77.6515	2,828.61	80.7409	2,828.61	76.8684	2,828.61	76.6607	2,828.61	76.8946	2,828.61	76.6994	2,828.61	76.8377	2,828.61	78.332	2,828.61	75.8534	2,828.61	75.4149	2,828.61	77.3693	2,828.61	69.1286	2,828.61	76.0241	2,828.61	70.6571	2,828.61	76.946	2,828.61	74.3681
2,928.22	93.3434	2,928.22	92.317	2,928.22	91.983	2,928.22	89.1266	2,928.22	86.3031	2,928.22	84.2081	2,928.22	83.0023	2,928.22	85.9156	2,928.22	88.0103	2,928.22	87.3679	2,928.22	89.4044	2,928.22	85.3333	2,928.22	87.7337	2,928.22	84.6323	2,928.22	85.956	2,928.22	84.0687	2,928.22	78.6646	2,928.22	80.3372	2,928.22	74.9527	2,928.22	77.2439	2,928.22	82.1811	2,928.22	75.0283	2,928.22	81.1386	2,928.22	76.3131	2,928.22	71.4575	2,928.22	72.8673	2,928.22	75.0564	2,928.22	78.5401	2,928.22	72.7136	2,928.22	76.0428	2,928.22	76.2415	2,928.22	67.2077	2,928.22	75.8942	2,928.22	69.4055	2,928.22	77.6801	2,928.22	73.9944
3,030.76	93.158	3,030.76	92.1288	3,030.76	92.2456	3,030.76	89.0112	3,030.76	87.1691	3,030.76	85.3489	3,030.76	83.0694	3,030.76	85.9284	3,030.76	88.3	3,030.76	86.5403	3,030.76	89.5341	3,030.76	84.3079	3,030.76	87.1708	3,030.76	84.7497	3,030.76	85.4577	3,030.76	80.2842	3,030.76	78.2543	3,030.76	77.9633	3,030.76	81.2168	3,030.76	77.2019	3,030.76	84.338	3,030.76	77.8743	3,030.76	76.6265	3,030.76	76.1127	3,030.76	65.5367	3,030.76	76.2598	3,030.76	77.2385	3,030.76	76.6825	3,030.76	65.7163	3,030.76	76.1703	3,030.76	75.5674	3,030.76	73.6752	3,030.76	76.4666	3,030.76	66.9314	3,030.76	78.8257	3,030.76	72.4796
3,137.7	92.2758	3,137.7	91.4136	3,137.7	92.1052	3,137.7	89.3971	3,137.7	88.1604	3,137.7	86.4393	3,137.7	82.4277	3,137.7	86.9053	3,137.7	87.9988	3,137.7	86.4473	3,137.7	89.1323	3,137.7	85.3312	3,137.7	86.1583	3,137.7	82.7851	3,137.7	84.0215	3,137.7	81.2716	3,137.7	77.4251	3,137.7	81.5046	3,137.7	81.6188	3,137.7	78.5777	3,137.7	82.8502	3,137.7	78.0588	3,137.7	77.7673	3,137.7	75.0618	3,137.7	56.0521	3,137.7	79.1453	3,137.7	77.8583	3,137.7	76.6241	3,137.7	63.5269	3,137.7	75.3937	3,137.7	72.6106	3,137.7	73.3779	3,137.7	76.3679	3,137.7	57.7255	3,137.7	77.5003	3,137.7	72.8441
3,249.02	90.7363	3,249.02	91.1586	3,249.02	91.1291	3,249.02	87.9618	3,249.02	88.6455	3,249.02	87.1274	3,249.02	84.6561	3,249.02	87.5661	3,249.02	87.3049	3,249.02	86.3681	3,249.02	87.684	3,249.02	85.628	3,249.02	86.5126	3,249.02	84.7306	3,249.02	85.7033	3,249.02	84.7425	3,249.02	81.7667	3,249.02	81.3873	3,249.02	81.404	3,249.02	78.9193	3,249.02	78.2542	3,249.02	76.1536	3,249.02	75.1485	3,249.02	75.4119	3,249.02	70.0486	3,249.02	78.0177	3,249.02	78.5562	3,249.02	77.7348	3,249.02	68.7106	3,249.02	76.8896	3,249.02	73.0662	3,249.02	74.8803	3,249.02	77.5725	3,249.02	67.7248	3,249.02	76.8866	3,249.02	72.0019
3,363.28	91.0888	3,363.28	90.9744	3,363.28	89.7016	3,363.28	88.0054	3,363.28	88.6348	3,363.28	87.281	3,363.28	85.4802	3,363.28	86.6889	3,363.28	86.7088	3,363.28	86.8353	3,363.28	86.2663	3,363.28	86.3792	3,363.28	87.828	3,363.28	86.1399	3,363.28	85.9706	3,363.28	81.9178	3,363.28	83.8513	3,363.28	79.4644	3,363.28	81.97	3,363.28	79.2239	3,363.28	73.8288	3,363.28	77.8043	3,363.28	67.5501	3,363.28	77.184	3,363.28	67.8186	3,363.28	77.1047	3,363.28	76.9795	3,363.28	78.855	3,363.28	70.6316	3,363.28	75.0857	3,363.28	71.988	3,363.28	71.7896	3,363.28	76.9276	3,363.28	71.7081	3,363.28	75.2399	3,363.28	63.7508
3,481.93	91.6832	3,481.93	92.1386	3,481.93	89.0469	3,481.93	89.8669	3,481.93	89.3744	3,481.93	87.5774	3,481.93	85.7944	3,481.93	87.6243	3,481.93	86.2621	3,481.93	87.9976	3,481.93	85.039	3,481.93	87.5098	3,481.93	88.1056	3,481.93	85.1062	3,481.93	84.8509	3,481.93	83.4981	3,481.93	84.3186	3,481.93	81.7037	3,481.93	79.1567	3,481.93	78.2655	3,481.93	72.5996	3,481.93	77.7828	3,481.93	67.244	3,481.93	74.1696	3,481.93	67.025	3,481.93	77.4167	3,481.93	74.9237	3,481.93	79.9016	3,481.93	71.8546	3,481.93	76.2635	3,481.93	69.3043	3,481.93	72.3005	3,481.93	76.3149	3,481.93	71.1609	3,481.93	75.5458	3,481.93	67.0543
3,604.98	92.0829	3,604.98	91.6114	3,604.98	88.1774	3,604.98	90.0346	3,604.98	89.1263	3,604.98	87.9124	3,604.98	88.5369	3,604.98	87.5162	3,604.98	84.9284	3,604.98	88.6731	3,604.98	86.673	3,604.98	87.6272	3,604.98	88.5226	3,604.98	84.6279	3,604.98	85.6763	3,604.98	83.9189	3,604.98	80.8123	3,604.98	76.7946	3,604.98	70.159	3,604.98	76.5344	3,604.98	71.1833	3,604.98	76.1097	3,604.98	60.0802	3,604.98	75.1602	3,604.98	66.4994	3,604.98	72.6291	3,604.98	71.3443	3,604.98	78.9318	3,604.98	71.189	3,604.98	78.1102	3,604.98	72.8205	3,604.98	74.3676	3,604.98	75.6573	3,604.98	67.6043	3,604.98	75.8002	3,604.98	67.7103
3,732.42	92.4604	3,732.42	90.9494	3,732.42	89.3476	3,732.42	88.9738	3,732.42	87.9976	3,732.42	88.4277	3,732.42	88.6231	3,732.42	89.4858	3,732.42	85.1243	3,732.42	88.602	3,732.42	85.7539	3,732.42	86.9505	3,732.42	87.107	3,732.42	84.6109	3,732.42	83.3349	3,732.42	80.5325	3,732.42	79.5927	3,732.42	78.6948	3,732.42	74.8557	3,732.42	75.0835	3,732.42	75.766	3,732.42	74.7942	3,732.42	64.4254	3,732.42	73.881	3,732.42	60.4614	3,732.42	74.5254	3,732.42	70.4164	3,732.42	77.3425	3,732.42	66.1273	3,732.42	76.7415	3,732.42	72.151	3,732.42	74.7792	3,732.42	75.6644	3,732.42	55.8991	3,732.42	74.8935	3,732.42	63.8311
3,864.26	91.7465	3,864.26	90.6811	3,864.26	89.2849	3,864.26	89.8648	3,864.26	88.3473	3,864.26	88.7547	3,864.26	88.7587	3,864.26	90.0527	3,864.26	85.1409	3,864.26	87.9969	3,864.26	86.7899	3,864.26	86.3111	3,864.26	86.5383	3,864.26	83.8612	3,864.26	82.9106	3,864.26	81.868	3,864.26	78.7177	3,864.26	81.0056	3,864.26	76.1876	3,864.26	76.5337	3,864.26	76.492	3,864.26	76.5451	3,864.26	72.8296	3,864.26	74.0468	3,864.26	68.8857	3,864.26	75.2697	3,864.26	68.561	3,864.26	75.475	3,864.26	67.108	3,864.26	76.4077	3,864.26	69.6862	3,864.26	74.9768	3,864.26	77.2642	3,864.26	68.7736	3,864.26	73.7341	3,864.26	69.3593
4,000.49	90.9904	4,000.49	90.813	4,000.49	87.9763	4,000.49	90.2251	4,000.49	87.7385	4,000.49	89.0541	4,000.49	89.6563	4,000.49	88.8919	4,000.49	84.7746	4,000.49	88.012	4,000.49	87.4865	4,000.49	85.0805	4,000.49	87.5856	4,000.49	84.8569	4,000.49	83.5517	4,000.49	82.3865	4,000.49	76.8788	4,000.49	78.0294	4,000.49	77.4633	4,000.49	75.5327	4,000.49	79.7671	4,000.49	76.0869	4,000.49	74.0319	4,000.49	74.7676	4,000.49	68.4284	4,000.49	73.2443	4,000.49	66.7501	4,000.49	75.0472	4,000.49	66.8972	4,000.49	75.048	4,000.49	67.6825	4,000.49	74.3152	4,000.49	77.2877	4,000.49	71.51	4,000.49	73.5325	4,000.49	66.6316
4,141.11	91.4561	4,141.11	91.6378	4,141.11	90.1441	4,141.11	88.3295	4,141.11	87.0241	4,141.11	89.4916	4,141.11	90.2059	4,141.11	89.9142	4,141.11	86.1548	4,141.11	87.6132	4,141.11	86.881	4,141.11	85.4192	4,141.11	86.6671	4,141.11	84.4773	4,141.11	80.0817	4,141.11	80.6566	4,141.11	80.4233	4,141.11	79.1517	4,141.11	83.3141	4,141.11	76.5788	4,141.11	78.9174	4,141.11	73.4286	4,141.11	61.3428	4,141.11	74.4082	4,141.11	73.6934	4,141.11	74.0491	4,141.11	67.2334	4,141.11	77.2188	4,141.11	69.8231	4,141.11	75.8647	4,141.11	64.3724	4,141.11	70.7041	4,141.11	76.2237	4,141.11	71.5389	4,141.11	72.903	4,141.11	65.2485
4,287.6	91.6404	4,287.6	91.343	4,287.6	90.2774	4,287.6	89.4996	4,287.6	88.6066	4,287.6	90.7447	4,287.6	90.1007	4,287.6	88.9957	4,287.6	88.3128	4,287.6	87.3856	4,287.6	86.8735	4,287.6	85.448	4,287.6	84.7477	4,287.6	81.3204	4,287.6	83.4679	4,287.6	82.2226	4,287.6	83.1114	4,287.6	72.8975	4,287.6	82.9468	4,287.6	71.9381	4,287.6	73.4424	4,287.6	73.6904	4,287.6	72.4666	4,287.6	75.2701	4,287.6	68.5222	4,287.6	70.4505	4,287.6	72.9531	4,287.6	76.0632	4,287.6	70.7125	4,287.6	75.5364	4,287.6	64.3276	4,287.6	73.7045	4,287.6	75.1162	4,287.6	71.0684	4,287.6	70.7575	4,287.6	67.7226
4,438.48	92.7044	4,438.48	91.5125	4,438.48	89.7381	4,438.48	90.5518	4,438.48	88.9455	4,438.48	90.2238	4,438.48	90.9699	4,438.48	88.4583	4,438.48	88.7474	4,438.48	87.9921	4,438.48	85.3798	4,438.48	83.2178	4,438.48	80.5013	4,438.48	83.4856	4,438.48	85.9544	4,438.48	78.3567	4,438.48	84.4849	4,438.48	80.4842	4,438.48	77.5561	4,438.48	76.2177	4,438.48	64.2511	4,438.48	72.7924	4,438.48	72.7863	4,438.48	73.9327	4,438.48	66.6267	4,438.48	70.8787	4,438.48	74.3961	4,438.48	76.1023	4,438.48	72.3281	4,438.48	76.267	4,438.48	68.3358	4,438.48	73.009	4,438.48	76.309	4,438.48	70.1659	4,438.48	71.4444	4,438.48	67.6348
4,595.21	91.9165	4,595.21	91.9223	4,595.21	90.0732	4,595.21	89.3499	4,595.21	88.0932	4,595.21	89.6371	4,595.21	90.8624	4,595.21	89.0314	4,595.21	89.6781	4,595.21	86.4811	4,595.21	83.6532	4,595.21	85.5322	4,595.21	86.0337	4,595.21	80.4539	4,595.21	87.666	4,595.21	83.3636	4,595.21	85.1801	4,595.21	73.9334	4,595.21	76.2031	4,595.21	76.262	4,595.21	72.7217	4,595.21	70.484	4,595.21	68.2932	4,595.21	74.327	4,595.21	73.0667	4,595.21	71.9071	4,595.21	72.7893	4,595.21	75.9658	4,595.21	72.3838	4,595.21	72.9453	4,595.21	68.1813	4,595.21	73.7098	4,595.21	75.8881	4,595.21	72.0318	4,595.21	72.1536	4,595.21	65.6059
4,756.35	92.9267	4,756.35	90.8502	4,756.35	90.6038	4,756.35	90.7436	4,756.35	88.8044	4,756.35	90.1865	4,756.35	91.1657	4,756.35	87.5968	4,756.35	88.5884	4,756.35	86.803	4,756.35	80.1737	4,756.35	85.5751	4,756.35	89.1954	4,756.35	83.4706	4,756.35	87.6196	4,756.35	79.8295	4,756.35	82.2245	4,756.35	77.4097	4,756.35	78.8516	4,756.35	74.1497	4,756.35	73.5901	4,756.35	74.4984	4,756.35	51.982	4,756.35	72.301	4,756.35	72.92	4,756.35	73.7587	4,756.35	71.0569	4,756.35	74.2853	4,756.35	68.0824	4,756.35	74.7585	4,756.35	66.1667	4,756.35	73.4398	4,756.35	75.5643	4,756.35	68.1194	4,756.35	69.2087	4,756.35	67.808
4,924.8	93.4481	4,924.8	91.2575	4,924.8	92.019	4,924.8	90.7489	4,924.8	88.4148	4,924.8	89.1692	4,924.8	90.8931	4,924.8	88.9884	4,924.8	87.407	4,924.8	87.1857	4,924.8	80.3827	4,924.8	84.7064	4,924.8	89.5323	4,924.8	80.9005	4,924.8	85.6906	4,924.8	79.6188	4,924.8	79.4267	4,924.8	76.474	4,924.8	76.0831	4,924.8	74.2979	4,924.8	65.6359	4,924.8	72.157	4,924.8	59.2616	4,924.8	71.3372	4,924.8	56.4725	4,924.8	71.5275	4,924.8	70.1032	4,924.8	73.8138	4,924.8	70.2262	4,924.8	72.6079	4,924.8	57.7434	4,924.8	72.7833	4,924.8	75.7367	4,924.8	67.4677	4,924.8	69.2962	4,924.8	66.5237
5,097.66	92.4152	5,097.66	90.7652	5,097.66	91.9234	5,097.66	90.9493	5,097.66	90.0285	5,097.66	89.8018	5,097.66	91.3886	5,097.66	88.2251	5,097.66	86.6706	5,097.66	86.3755	5,097.66	81.7928	5,097.66	83.3708	5,097.66	88.9306	5,097.66	81.3615	5,097.66	83.575	5,097.66	76.5237	5,097.66	79.606	5,097.66	73.9673	5,097.66	72.5002	5,097.66	67.6355	5,097.66	66.5907	5,097.66	71.3456	5,097.66	61.9379	5,097.66	72.6277	5,097.66	64.1516	5,097.66	73.4033	5,097.66	70.2901	5,097.66	71.8282	5,097.66	69.3719	5,097.66	72.6987	5,097.66	60.4508	5,097.66	73.3055	5,097.66	74.0595	5,097.66	67.6593	5,097.66	68.0752	5,097.66	65.6737
5,277.83	92.2238	5,277.83	90.9264	5,277.83	91.3074	5,277.83	90.8372	5,277.83	90.1173	5,277.83	89.9728	5,277.83	90.8334	5,277.83	88.3734	5,277.83	85.8677	5,277.83	86.2459	5,277.83	84.4167	5,277.83	82.6657	5,277.83	86.7228	5,277.83	79.772	5,277.83	81.5966	5,277.83	78.8534	5,277.83	78.8523	5,277.83	75.183	5,277.83	77.437	5,277.83	72.7996	5,277.83	67.1445	5,277.83	68.7318	5,277.83	61.0004	5,277.83	71.1285	5,277.83	55.0866	5,277.83	70.6917	5,277.83	50.8627	5,277.83	71.4838	5,277.83	69.11	5,277.83	71.9866	5,277.83	58.707	5,277.83	71.4753	5,277.83	72.518	5,277.83	70.4575	5,277.83	61.6005	5,277.83	63.0102
5,463.87	92.4701	5,463.87	91.4633	5,463.87	92.2925	5,463.87	90.9257	5,463.87	88.6257	5,463.87	90.0434	5,463.87	89.5997	5,463.87	88.6979	5,463.87	87.6333	5,463.87	85.329	5,463.87	85.1564	5,463.87	81.9433	5,463.87	82.6787	5,463.87	80.4212	5,463.87	82.4596	5,463.87	74.7482	5,463.87	79.0593	5,463.87	75.1584	5,463.87	77.871	5,463.87	70.1009	5,463.87	68.5386	5,463.87	71.2682	5,463.87	63.6823	5,463.87	68.2328	5,463.87	51.9976	5,463.87	72.9672	5,463.87	62.1558	5,463.87	71.7005	5,463.87	66.617	5,463.87	72.5817	5,463.87	58.1077	5,463.87	70.5688	5,463.87	67.4824	5,463.87	69.7954	5,463.87	65.1603	5,463.87	60.2984
5,657.23	92.4408	5,657.23	91.0221	5,657.23	92.2805	5,657.23	90.9371	5,657.23	88.8832	5,657.23	90.8962	5,657.23	88.9173	5,657.23	88.2041	5,657.23	88.9044	5,657.23	85.4193	5,657.23	82.749	5,657.23	80.996	5,657.23	81.3384	5,657.23	79.8362	5,657.23	82.1268	5,657.23	77.876	5,657.23	78.8903	5,657.23	74.1955	5,657.23	72.7188	5,657.23	71.3943	5,657.23	64.4956	5,657.23	68.4362	5,657.23	70.3522	5,657.23	70.8143	5,657.23	47.3519	5,657.23	73.1231	5,657.23	62.8239	5,657.23	70.8566	5,657.23	55.2416	5,657.23	72.4143	5,657.23	53.7806	5,657.23	71.1039	5,657.23	71.9335	5,657.23	70.1464	5,657.23	61.2549	5,657.23	64.0379
5,856.45	91.4559	5,856.45	91.0513	5,856.45	91.4053	5,856.45	91.6735	5,856.45	90.1032	5,856.45	90.309	5,856.45	89.1984	5,856.45	87.0323	5,856.45	88.25	5,856.45	85.3075	5,856.45	81.531	5,856.45	82.0498	5,856.45	82.4237	5,856.45	79.707	5,856.45	83.1048	5,856.45	76.8665	5,856.45	79.826	5,856.45	75.4256	5,856.45	75.0785	5,856.45	70.6533	5,856.45	71.0873	5,856.45	69.9123	5,856.45	72.8979	5,856.45	68.2998	5,856.45	58.7117	5,856.45	71.9328	5,856.45	64.5497	5,856.45	72.7503	5,856.45	58.0355	5,856.45	72.3457	5,856.45	46.0896	5,856.45	70.7747	5,856.45	70.737	5,856.45	71.0619	5,856.45	62.7015	5,856.45	63.1593
6,062.99	92.3405	6,062.99	91.1391	6,062.99	91.9409	6,062.99	91.8689	6,062.99	91.5725	6,062.99	90.1472	6,062.99	90.022	6,062.99	86.7502	6,062.99	88.3325	6,062.99	85.2047	6,062.99	80.044	6,062.99	82.6093	6,062.99	81.792	6,062.99	80.7217	6,062.99	83.2365	6,062.99	76.9515	6,062.99	79.784	6,062.99	72.7973	6,062.99	75.9159	6,062.99	69.9502	6,062.99	71.6729	6,062.99	69.1293	6,062.99	67.2839	6,062.99	69.1239	6,062.99	58.7078	6,062.99	73.0923	6,062.99	66.9172	6,062.99	70.3998	6,062.99	65.3552	6,062.99	71.8709	6,062.99	60.4584	6,062.99	69.7788	6,062.99	69.3678	6,062.99	69.0104	6,062.99	58.2894	6,062.99	63.2906
6,276.86	91.8161	6,276.86	90.8891	6,276.86	91.5787	6,276.86	91.8615	6,276.86	90.9086	6,276.86	89.4065	6,276.86	90.0146	6,276.86	86.9117	6,276.86	87.1296	6,276.86	84.4118	6,276.86	78.1735	6,276.86	82.6519	6,276.86	80.7826	6,276.86	79.2224	6,276.86	82.1006	6,276.86	76.4899	6,276.86	80.3421	6,276.86	72.6577	6,276.86	74.4547	6,276.86	68.7428	6,276.86	75.4136	6,276.86	68.1596	6,276.86	69.2081	6,276.86	67.6034	6,276.86	62.5057	6,276.86	73.5123	6,276.86	60.9135	6,276.86	68.8627	6,276.86	61.6752	6,276.86	71.7195	6,276.86	60.6388	6,276.86	71.4983	6,276.86	63.336	6,276.86	69.534	6,276.86	56.9415	6,276.86	66.3568
6,498.05	91.781	6,498.05	91.1671	6,498.05	90.3467	6,498.05	91.8987	6,498.05	89.6584	6,498.05	88.7309	6,498.05	89.6721	6,498.05	86.8973	6,498.05	85.9137	6,498.05	85.0117	6,498.05	81.0431	6,498.05	80.7752	6,498.05	79.0728	6,498.05	78.223	6,498.05	80.8689	6,498.05	75.1627	6,498.05	76.0891	6,498.05	72.7051	6,498.05	74.5745	6,498.05	69.3489	6,498.05	75.3075	6,498.05	66.7537	6,498.05	67.8876	6,498.05	66.148	6,498.05	62.2858	6,498.05	70.0674	6,498.05	68.9611	6,498.05	68.6656	6,498.05	61.4932	6,498.05	70.748	6,498.05	59.9075	6,498.05	70.0847	6,498.05	64.9031	6,498.05	70.2723	6,498.05	57.4852	6,498.05	65.4236
6,726.56	91.9881	6,726.56	91.5636	6,726.56	91.6162	6,726.56	91.5616	6,726.56	89.7777	6,726.56	88.6421	6,726.56	89.0356	6,726.56	86.1866	6,726.56	85.7284	6,726.56	85.5124	6,726.56	82.4127	6,726.56	79.5346	6,726.56	80.2502	6,726.56	78.4103	6,726.56	79.3178	6,726.56	75.2326	6,726.56	67.6967	6,726.56	70.4043	6,726.56	75.0573	6,726.56	67.222	6,726.56	70.9891	6,726.56	64.3329	6,726.56	64.2375	6,726.56	67.459	6,726.56	61.0811	6,726.56	69.4543	6,726.56	67.049	6,726.56	67.3152	6,726.56	57.3805	6,726.56	70.0891	6,726.56	56.4029	6,726.56	71.093	6,726.56	68.2901	6,726.56	69.6285	6,726.56	56.9209	6,726.56	64.8186
6,963.87	91.1817	6,963.87	91.4861	6,963.87	91.7698	6,963.87	91.1683	6,963.87	91.4743	6,963.87	88.5289	6,963.87	87.2268	6,963.87	86.8591	6,963.87	87.1758	6,963.87	83.993	6,963.87	82.6508	6,963.87	80.9829	6,963.87	79.6447	6,963.87	76.9563	6,963.87	73.9621	6,963.87	74.7843	6,963.87	75.3888	6,963.87	70.0251	6,963.87	73.3949	6,963.87	67.7979	6,963.87	66.4549	6,963.87	61.3544	6,963.87	56.5542	6,963.87	66.73	6,963.87	56.7523	6,963.87	68.6842	6,963.87	65.3779	6,963.87	65.6519	6,963.87	57.2379	6,963.87	70.4791	6,963.87	58.1124	6,963.87	67.9485	6,963.87	65.7668	6,963.87	69.9369	6,963.87	57.916	6,963.87	66.7954
7,209.96	91.4715	7,209.96	91.777	7,209.96	91.0118	7,209.96	90.813	7,209.96	90.8606	7,209.96	88.6159	7,209.96	87.4405	7,209.96	86.0901	7,209.96	87.0588	7,209.96	83.4714	7,209.96	83.6999	7,209.96	79.2111	7,209.96	76.4916	7,209.96	75.1485	7,209.96	80.1378	7,209.96	73.5007	7,209.96	76.1168	7,209.96	72.457	7,209.96	73.0581	7,209.96	67.1473	7,209.96	69.1693	7,209.96	66.5957	7,209.96	64.4825	7,209.96	67.554	7,209.96	52.0557	7,209.96	66.358	7,209.96	63.0451	7,209.96	67.3512	7,209.96	50.4202	7,209.96	70.8607	7,209.96	60.3171	7,209.96	68.6211	7,209.96	62.7641	7,209.96	70.4839	7,209.96	58.8347	7,209.96	66.3744
7,464.84	91.7317	7,464.84	91.2339	7,464.84	91.049	7,464.84	90.3629	7,464.84	90.1989	7,464.84	88.9543	7,464.84	88.6412	7,464.84	85.4075	7,464.84	86.1633	7,464.84	83.2942	7,464.84	84.0248	7,464.84	79.2783	7,464.84	67.6791	7,464.84	78.1607	7,464.84	82.7567	7,464.84	75.078	7,464.84	77.3486	7,464.84	72.0265	7,464.84	76.9307	7,464.84	67.3396	7,464.84	74.5846	7,464.84	63.057	7,464.84	68.427	7,464.84	66.0074	7,464.84	57.2218	7,464.84	68.0234	7,464.84	47.6683	7,464.84	66.7199	7,464.84	63.8505	7,464.84	69.2323	7,464.84	56.0785	7,464.84	68.4415	7,464.84	64.5299	7,464.84	70.8435	7,464.84	59.8447	7,464.84	65.8036
7,727.05	91.6466	7,727.05	91.2695	7,727.05	90.8475	7,727.05	90.6838	7,727.05	90.0037	7,727.05	88.4683	7,727.05	89.4519	7,727.05	84.7974	7,727.05	84.618	7,727.05	83.0719	7,727.05	85.1438	7,727.05	80.3467	7,727.05	73.8824	7,727.05	75.9389	7,727.05	84.3296	7,727.05	73.7506	7,727.05	70.7502	7,727.05	71.0562	7,727.05	76.6524	7,727.05	65.2952	7,727.05	71.3742	7,727.05	66.4449	7,727.05	67.9225	7,727.05	65.9305	7,727.05	57.2852	7,727.05	68.4363	7,727.05	58.7998	7,727.05	67.2485	7,727.05	63.7554	7,727.05	66.3466	7,727.05	51.4944	7,727.05	68.2209	7,727.05	59.6175	7,727.05	70.7272	7,727.05	64.2595	7,727.05	64.2383
7,999.51	91.5195	7,999.51	91.2137	7,999.51	90.8108	7,999.51	90.3685	7,999.51	89.7113	7,999.51	87.8181	7,999.51	88.6613	7,999.51	85.3739	7,999.51	84.2465	7,999.51	81.5424	7,999.51	83.9213	7,999.51	80.2966	7,999.51	80.2255	7,999.51	76.4933	7,999.51	81.4339	7,999.51	74.7857	7,999.51	76.4293	7,999.51	71.9666	7,999.51	70.2492	7,999.51	66.9533	7,999.51	71.0231	7,999.51	65.1531	7,999.51	70.3603	7,999.51	65.1701	7,999.51	60.0186	7,999.51	69.4592	7,999.51	61.5724	7,999.51	67.1271	7,999.51	61.7057	7,999.51	66.6143	7,999.51	55.4338	7,999.51	68.6469	7,999.51	62.9989	7,999.51	68.0435	7,999.51	58.368	7,999.51	64.9541
8,282.23	91.5966	8,282.23	90.9312	8,282.23	90.8125	8,282.23	90.074	8,282.23	89.5448	8,282.23	87.707	8,282.23	87.2772	8,282.23	84.2794	8,282.23	84.6105	8,282.23	82.3663	8,282.23	82.2257	8,282.23	80.2799	8,282.23	79.4402	8,282.23	78.0338	8,282.23	71.9475	8,282.23	74.0804	8,282.23	78.7643	8,282.23	71.8599	8,282.23	70.8021	8,282.23	63.1425	8,282.23	70.682	8,282.23	63.5831	8,282.23	68.2492	8,282.23	64.7226	8,282.23	60.3982	8,282.23	68.1707	8,282.23	59.0403	8,282.23	66.3338	8,282.23	57.6421	8,282.23	64.2749	8,282.23	50.3948	8,282.23	67.6738	8,282.23	62.2328	8,282.23	69.8729	8,282.23	60.3636	8,282.23	66.2892
8,573.73	91.9985	8,573.73	90.5117	8,573.73	91.5345	8,573.73	89.8696	8,573.73	89.5483	8,573.73	87.4809	8,573.73	86.0491	8,573.73	84.3066	8,573.73	85.3163	8,573.73	82.7423	8,573.73	82.3321	8,573.73	80.4544	8,573.73	77.2677	8,573.73	76.8803	8,573.73	75.7935	8,573.73	73.3539	8,573.73	78.1804	8,573.73	71.5196	8,573.73	70.7248	8,573.73	63.2851	8,573.73	66.8344	8,573.73	62.5715	8,573.73	64.9305	8,573.73	64.7718	8,573.73	54.7519	8,573.73	67.3154	8,573.73	57.9987	8,573.73	64.5481	8,573.73	57.1724	8,573.73	63.5165	8,573.73	59.188	8,573.73	67.3641	8,573.73	59.4276	8,573.73	67.9294	8,573.73	57.3121	8,573.73	64.788
8,876.95	91.2597	8,876.95	90.7539	8,876.95	91.1008	8,876.95	90.186	8,876.95	90.9485	8,876.95	86.9514	8,876.95	87.1995	8,876.95	84.861	8,876.95	84.3881	8,876.95	82.7853	8,876.95	83.4546	8,876.95	79.9688	8,876.95	76.366	8,876.95	75.7547	8,876.95	77.9574	8,876.95	72.9327	8,876.95	77.0776	8,876.95	70.3135	8,876.95	67.2315	8,876.95	63.5041	8,876.95	67.8212	8,876.95	64.0401	8,876.95	63.5787	8,876.95	62.0478	8,876.95	56.0637	8,876.95	64.5365	8,876.95	54.4976	8,876.95	66.5276	8,876.95	58.0537	8,876.95	64.4354	8,876.95	60.3887	8,876.95	65.9676	8,876.95	51.4675	8,876.95	65.2122	8,876.95	57.861	8,876.95	64.6634
9,188.96	91.3327	9,188.96	91.0542	9,188.96	91.11	9,188.96	89.6609	9,188.96	89.3915	9,188.96	86.9644	9,188.96	87.9911	9,188.96	85.0585	9,188.96	82.0513	9,188.96	82.2179	9,188.96	83.8596	9,188.96	80.2328	9,188.96	77.6325	9,188.96	75.4312	9,188.96	74.2382	9,188.96	73.0287	9,188.96	76.9291	9,188.96	69.468	9,188.96	61.4243	9,188.96	62.1275	9,188.96	68.469	9,188.96	63.3787	9,188.96	65.1487	9,188.96	63.9339	9,188.96	52.9951	9,188.96	65.9775	9,188.96	55.0774	9,188.96	67.2248	9,188.96	54.0152	9,188.96	63.0417	9,188.96	49.874	9,188.96	63.5801	9,188.96	49.833	9,188.96	65.3097	9,188.96	56.1629	9,188.96	63.9142
9,514.16	91.5655	9,514.16	91.3048	9,514.16	91.0262	9,514.16	89.3816	9,514.16	88.4591	9,514.16	87.2377	9,514.16	86.129	9,514.16	84.7283	9,514.16	83.0553	9,514.16	82.249	9,514.16	80.5794	9,514.16	79.8472	9,514.16	78.9926	9,514.16	75.9388	9,514.16	67.0272	9,514.16	72.0677	9,514.16	77.1016	9,514.16	68.4268	9,514.16	51.9319	9,514.16	65.7327	9,514.16	69.1734	9,514.16	58.864	9,514.16	65.5819	9,514.16	61.7501	9,514.16	53.2659	9,514.16	67.0828	9,514.16	55.0816	9,514.16	66.1456	9,514.16	54.9117	9,514.16	60.1531	9,514.16	51.7456	9,514.16	60.5056	9,514.16	54.0446	9,514.16	66.1605	9,514.16	53.5107	9,514.16	63.0957
9,849.61	91.8824	9,849.61	91.2769	9,849.61	91.2047	9,849.61	89.5284	9,849.61	88.7525	9,849.61	87.038	9,849.61	84.4752	9,849.61	84.771	9,849.61	82.8489	9,849.61	82.0169	9,849.61	79.3137	9,849.61	79.3357	9,849.61	78.4738	9,849.61	75.2598	9,849.61	67.2406	9,849.61	71.552	9,849.61	74.298	9,849.61	70.1404	9,849.61	61.1852	9,849.61	62.4785	9,849.61	69.0111	9,849.61	61.7151	9,849.61	65.9761	9,849.61	62.7371	9,849.61	56.8939	9,849.61	65.4544	9,849.61	51.6239	9,849.61	63.3749	9,849.61	48.2607	9,849.61	60.8353	9,849.61	53.5298	9,849.61	61.5978	9,849.61	54.085	9,849.61	63.4986	9,849.61	54.8141	9,849.61	62.2949
10,196.8	92.0617	10,196.8	91.5218	10,196.8	90.9407	10,196.8	89.6982	10,196.8	88.5365	10,196.8	86.6994	10,196.8	85.4113	10,196.8	85.1068	10,196.8	82.5731	10,196.8	81.6248	10,196.8	80.4035	10,196.8	79.2209	10,196.8	77.2416	10,196.8	74.6049	10,196.8	69.5239	10,196.8	71.9199	10,196.8	73.9204	10,196.8	67.9351	10,196.8	60.673	10,196.8	62.7414	10,196.8	66.6722	10,196.8	60.481	10,196.8	64.7256	10,196.8	63.9787	10,196.8	55.3626	10,196.8	65.8629	10,196.8	53.5873	10,196.8	64.8165	10,196.8	45.1714	10,196.8	60.5056	10,196.8	53.9415	10,196.8	60.523	10,196.8	56.3267	10,196.8	61.2806	10,196.8	50.281	10,196.8	61.6583
10,555.7	92.1523	10,555.7	91.5661	10,555.7	90.8816	10,555.7	89.5252	10,555.7	88.4527	10,555.7	86.9368	10,555.7	86.6774	10,555.7	84.5551	10,555.7	82.213	10,555.7	81.6037	10,555.7	81.2118	10,555.7	78.7069	10,555.7	72.9467	10,555.7	75.1629	10,555.7	70.6477	10,555.7	70.6669	10,555.7	71.8978	10,555.7	68.3321	10,555.7	59.626	10,555.7	62.6391	10,555.7	68.0004	10,555.7	56.2798	10,555.7	63.7814	10,555.7	61.5953	10,555.7	50.5152	10,555.7	65.3925	10,555.7	56.608	10,555.7	64.465	10,555.7	51.8269	10,555.7	60.245	10,555.7	54.0215	10,555.7	57.72	10,555.7	30.4198	10,555.7	59.9237	10,555.7	42.8653	10,555.7	61.0797
10,927.7	92.2219	10,927.7	91.5724	10,927.7	90.6442	10,927.7	89.5082	10,927.7	88.0771	10,927.7	86.7	10,927.7	86.5149	10,927.7	84.6532	10,927.7	81.0764	10,927.7	81.2573	10,927.7	80.4247	10,927.7	78.9742	10,927.7	74.0239	10,927.7	74.4557	10,927.7	72.142	10,927.7	71.3	10,927.7	67.3267	10,927.7	68.7203	10,927.7	66.7142	10,927.7	62.6109	10,927.7	66.9023	10,927.7	57.7578	10,927.7	60.177	10,927.7	63.0241	10,927.7	50.6213	10,927.7	66.1588	10,927.7	54.2165	10,927.7	64.3355	10,927.7	54.673	10,927.7	60.7197	10,927.7	44.1585	10,927.7	57.0955	10,927.7	44.3056	10,927.7	57.2584	10,927.7	40.2798	10,927.7	60.9234
11,313	92.2731	11,313	91.3369	11,313	90.6454	11,313	89.3456	11,313	87.8552	11,313	86.6218	11,313	85.0924	11,313	84.5456	11,313	81.9454	11,313	80.744	11,313	80.09	11,313	79.3442	11,313	75.5633	11,313	74.2301	11,313	72.4774	11,313	70.8811	11,313	70.0689	11,313	67.2066	11,313	66.5289	11,313	59.5334	11,313	67.8557	11,313	58.4047	11,313	62.8976	11,313	62.0195	11,313	47.7959	11,313	64.9049	11,313	40.9402	11,313	63.3729	11,313	52.697	11,313	59.9913	11,313	33.8101	11,313	56.5352	11,313	48.8429	11,313	58.487	11,313	52.125	11,313	60.3259
11,712.9	92.0436	11,712.9	91.0562	11,712.9	90.809	11,712.9	89.0984	11,712.9	88.416	11,712.9	86.9102	11,712.9	84.6802	11,712.9	83.9839	11,712.9	81.1092	11,712.9	81.575	11,712.9	81.2314	11,712.9	78.7239	11,712.9	74.858	11,712.9	73.7504	11,712.9	75.1204	11,712.9	68.9556	11,712.9	69.87	11,712.9	66.8897	11,712.9	63.1846	11,712.9	60.5918	11,712.9	68.3435	11,712.9	53.4576	11,712.9	58.9161	11,712.9	59.3158	11,712.9	51.7575	11,712.9	64.2615	11,712.9	50.075	11,712.9	63.0082	11,712.9	57.6709	11,712.9	62.5702	11,712.9	41.8582	11,712.9	55.8585	11,712.9	54.5106	11,712.9	59.2788	11,712.9	50.9548	11,712.9	57.6393
12,126	91.8517	12,126	91.0464	12,126	90.4639	12,126	89.4087	12,126	88.3868	12,126	86.6318	12,126	86.5107	12,126	84.7449	12,126	81.9268	12,126	81.5063	12,126	80.9017	12,126	78.9562	12,126	75.3937	12,126	72.6225	12,126	75.0904	12,126	68.979	12,126	62.1832	12,126	66.5508	12,126	63.1076	12,126	58.8956	12,126	67.721	12,126	56.6192	12,126	63.7513	12,126	60.9927	12,126	57.7844	12,126	64.4759	12,126	48.041	12,126	62.2489	12,126	52.0416	12,126	60.347	12,126	44.391	12,126	51.8664	12,126	45.3039	12,126	57.6035	12,126	55.2931	12,126	56.9059
12,553.7	91.4854	12,553.7	90.9615	12,553.7	89.999	12,553.7	89.496	12,553.7	88.0235	12,553.7	86.6102	12,553.7	86.2769	12,553.7	84.8829	12,553.7	83.0338	12,553.7	81.1869	12,553.7	80.9429	12,553.7	78.2175	12,553.7	76.1772	12,553.7	72.738	12,553.7	74.8388	12,553.7	68.4921	12,553.7	64.669	12,553.7	66.5212	12,553.7	63.7042	12,553.7	59.3999	12,553.7	70.022	12,553.7	54.334	12,553.7	65.6059	12,553.7	60.0363	12,553.7	54.6132	12,553.7	63.5382	12,553.7	47.0281	12,553.7	60.9702	12,553.7	53.2872	12,553.7	60.3071	12,553.7	44.7711	12,553.7	51.4541	12,553.7	42.4373	12,553.7	57.2353	12,553.7	48.9665	12,553.7	55.0719
12,996.1	91.0607	12,996.1	90.4994	12,996.1	89.7816	12,996.1	89.4306	12,996.1	87.8739	12,996.1	86.3564	12,996.1	85.1317	12,996.1	84.8775	12,996.1	82.6369	12,996.1	80.814	12,996.1	81.2563	12,996.1	77.5544	12,996.1	75.8984	12,996.1	71.9756	12,996.1	72.8346	12,996.1	68.065	12,996.1	64.5752	12,996.1	64.0603	12,996.1	63.3799	12,996.1	58.8537	12,996.1	70.537	12,996.1	44.029	12,996.1	65.258	12,996.1	58.1577	12,996.1	59.1381	12,996.1	62.9469	12,996.1	46.4636	12,996.1	60.9465	12,996.1	52.1222	12,996.1	60.7447	12,996.1	41.3333	12,996.1	52.6381	12,996.1	43.4214	12,996.1	55.2905	12,996.1	51.4154	12,996.1	53.0762
13,454.6	90.7526	13,454.6	90.325	13,454.6	89.4246	13,454.6	89.3246	13,454.6	88.1572	13,454.6	86.4121	13,454.6	86.6013	13,454.6	84.5467	13,454.6	83.1182	13,454.6	80.1399	13,454.6	79.1146	13,454.6	77.1489	13,454.6	76.3325	13,454.6	71.5517	13,454.6	72.2282	13,454.6	67.1142	13,454.6	65.9564	13,454.6	64.2677	13,454.6	63.1411	13,454.6	55.391	13,454.6	70.8291	13,454.6	43.4227	13,454.6	67.0386	13,454.6	56.7901	13,454.6	57.389	13,454.6	61.5437	13,454.6	44.0292	13,454.6	59.6559	13,454.6	54.4053	13,454.6	59.4956	13,454.6	44.042	13,454.6	44.7098	13,454.6	45.0222	13,454.6	52.7977	13,454.6	51.5063	13,454.6	51.071
13,929.2	90.4334	13,929.2	90.4228	13,929.2	89.6662	13,929.2	89.1406	13,929.2	88.2322	13,929.2	86.8488	13,929.2	87.0111	13,929.2	84.3334	13,929.2	82.4571	13,929.2	79.7189	13,929.2	79.8174	13,929.2	76.6913	13,929.2	76.2191	13,929.2	70.8005	13,929.2	71.7857	13,929.2	65.7561	13,929.2	61.2409	13,929.2	63.2261	13,929.2	64.0885	13,929.2	55.3685	13,929.2	70.7286	13,929.2	49.2282	13,929.2	65.7438	13,929.2	57.6132	13,929.2	57.8771	13,929.2	60.6097	13,929.2	49.2222	13,929.2	59.0228	13,929.2	52.2291	13,929.2	57.9319	13,929.2	44.759	13,929.2	47.6601	13,929.2	48.6722	13,929.2	51.4997	13,929.2	55.842	13,929.2	46.8775
14,419.9	90.6647	14,419.9	90.7504	14,419.9	90.4135	14,419.9	89.4791	14,419.9	89.1424	14,419.9	86.9549	14,419.9	86.4995	14,419.9	84.298	14,419.9	83.1897	14,419.9	79.2128	14,419.9	79.3837	14,419.9	75.9045	14,419.9	75.1777	14,419.9	69.5712	14,419.9	71.1473	14,419.9	64.5337	14,419.9	67.6007	14,419.9	61.7838	14,419.9	63.2	14,419.9	54.7745	14,419.9	70.0421	14,419.9	48.2594	14,419.9	65.7377	14,419.9	55.4394	14,419.9	59.532	14,419.9	59.322	14,419.9	50.6738	14,419.9	57.83	14,419.9	49.4455	14,419.9	56.4911	14,419.9	24.6579	14,419.9	46.5321	14,419.9	47.2444	14,419.9	50.8283	14,419.9	53.7195	14,419.9	41.7162
14,928.2	91.2286	14,928.2	91.1344	14,928.2	90.6976	14,928.2	89.8277	14,928.2	89.3432	14,928.2	86.7322	14,928.2	86.8891	14,928.2	83.7253	14,928.2	82.564	14,928.2	78.1898	14,928.2	77.0559	14,928.2	74.4281	14,928.2	74.8407	14,928.2	67.3317	14,928.2	67.7252	14,928.2	62.5955	14,928.2	63.519	14,928.2	58.4869	14,928.2	60.8689	14,928.2	52.2076	14,928.2	68.4035	14,928.2	45.701	14,928.2	66.1786	14,928.2	52.8397	14,928.2	57.6952	14,928.2	57.1964	14,928.2	50.4218	14,928.2	56.2409	14,928.2	47.7066	14,928.2	55.3409	14,928.2	33.3943	14,928.2	44.0292	14,928.2	45.2216	14,928.2	50.2218	14,928.2	52.4351	14,928.2	44.361
15,455.6	91.4058	15,455.6	91.0253	15,455.6	90.8085	15,455.6	89.6721	15,455.6	89.3674	15,455.6	86.0664	15,455.6	86.1434	15,455.6	82.7454	15,455.6	80.2033	15,455.6	76.5824	15,455.6	76.3429	15,455.6	71.9224	15,455.6	71.643	15,455.6	65.4249	15,455.6	64.6077	15,455.6	59.6747	15,455.6	60.3504	15,455.6	55.3809	15,455.6	59.5192	15,455.6	52.1532	15,455.6	68.517	15,455.6	44.4784	15,455.6	66.7662	15,455.6	51.7537	15,455.6	58.5559	15,455.6	54.7607	15,455.6	49.0831	15,455.6	54.0305	15,455.6	40.525	15,455.6	53.467	15,455.6	39.2247	15,455.6	37.5425	15,455.6	50.4159	15,455.6	47.4287	15,455.6	47.1205	15,455.6	48.791
16,000.5	91.0886	16,000.5	90.6035	16,000.5	90.4845	16,000.5	89.0979	16,000.5	88.5836	16,000.5	85.0512	16,000.5	84.6299	16,000.5	81.3998	16,000.5	79.4897	16,000.5	74.4387	16,000.5	74.4986	16,000.5	69.6187	16,000.5	67.9244	16,000.5	61.6794	16,000.5	59.185	16,000.5	55.1842	16,000.5	59.8899	16,000.5	50.7	16,000.5	58.0974	16,000.5	50.1094	16,000.5	67.0338	16,000.5	39.5914	16,000.5	66.398	16,000.5	47.7785	16,000.5	57.8811	16,000.5	49.6076	16,000.5	45.2999	16,000.5	50.9011	16,000.5	43.349	16,000.5	48.7672	16,000.5	34.0579	16,000.5	41.2081	16,000.5	49.6307	16,000.5	43.5794	16,000.5	50.1932	16,000.5	46.3281
16,564.5	90.5305	16,564.5	90.0541	16,564.5	89.6989	16,564.5	88.3742	16,564.5	87.8474	16,564.5	84.0288	16,564.5	83.9065	16,564.5	79.7269	16,564.5	77.2474	16,564.5	72.0739	16,564.5	71.4579	16,564.5	67.2655	16,564.5	66.3528	16,564.5	55.6503	16,564.5	55.6083	16,564.5	54.0143	16,564.5	53.9292	16,564.5	48.6811	16,564.5	57.9881	16,564.5	47.2643	16,564.5	65.456	16,564.5	36.4613	16,564.5	66.406	16,564.5	44.734	16,564.5	57.3902	16,564.5	49.3117	16,564.5	36.6398	16,564.5	49.0478	16,564.5	43.2739	16,564.5	49.3443	16,564.5	32.5522	16,564.5	36.0079	16,564.5	43.5673	16,564.5	44.2258	16,564.5	46.5811	16,564.5	44.3351
17,148.9	89.6214	17,148.9	89.2647	17,148.9	88.6863	17,148.9	87.3741	17,148.9	86.426	17,148.9	82.8688	17,148.9	82.1734	17,148.9	78.0783	17,148.9	75.6738	17,148.9	69.4157	17,148.9	68.5917	17,148.9	63.5301	17,148.9	59.1813	17,148.9	54.2891	17,148.9	50.5067	17,148.9	51.9557	17,148.9	47.6596	17,148.9	46.9838	17,148.9	52.592	17,148.9	45.4649	17,148.9	62.9588	17,148.9	34.0787	17,148.9	65.7704	17,148.9	41.1513	17,148.9	56.8763	17,148.9	47.9345	17,148.9	41.4737	17,148.9	45.8298	17,148.9	39.9694	17,148.9	47.1201	17,148.9	37.8477	17,148.9	34.1732	17,148.9	44.3778	17,148.9	41.34	17,148.9	38.0646	17,148.9	35.181
17,752.4	88.6368	17,752.4	88.1575	17,752.4	87.5373	17,752.4	86.2681	17,752.4	85.1605	17,752.4	81.4724	17,752.4	80.5209	17,752.4	76.2044	17,752.4	72.9766	17,752.4	66.3368	17,752.4	64.0019	17,752.4	58.2403	17,752.4	55.9485	17,752.4	52.8486	17,752.4	44.3704	17,752.4	50.6049	17,752.4	43.3822	17,752.4	48.0528	17,752.4	51.5784	17,752.4	42.5839	17,752.4	62.0894	17,752.4	33.0243	17,752.4	65.4741	17,752.4	39.7844	17,752.4	55.6428	17,752.4	46.5458	17,752.4	41.1787	17,752.4	43.8042	17,752.4	39.8565	17,752.4	45.0546	17,752.4	40.2783	17,752.4	34.2862	17,752.4	45.4388	17,752.4	40.4479	17,752.4	45.7188	17,752.4	40.1706
18,379.4	87.3256	18,379.4	86.9877	18,379.4	86.2952	18,379.4	85.1829	18,379.4	83.8896	18,379.4	79.9997	18,379.4	79.0683	18,379.4	74.0419	18,379.4	70.5185	18,379.4	61.8119	18,379.4	57.9426	18,379.4	55.2102	18,379.4	45.3943	18,379.4	52.0468	18,379.4	47.2166	18,379.4	50.4003	18,379.4	47.8388	18,379.4	49.4324	18,379.4	49.3613	18,379.4	42.572	18,379.4	60.4032	18,379.4	33.0324	18,379.4	64.8593	18,379.4	38.7752	18,379.4	55.1037	18,379.4	45.1897	18,379.4	42.4429	18,379.4	40.2923	18,379.4	30.9609	18,379.4	44.1694	18,379.4	40.502	18,379.4	16.897	18,379.4	46.2247	18,379.4	42.9711	18,379.4	43.9045	18,379.4	41.9947
19,026.9	86.2969	19,026.9	85.9557	19,026.9	85.344	19,026.9	84.3544	19,026.9	82.8263	19,026.9	78.8424	19,026.9	77.0668	19,026.9	71.7826	19,026.9	67.4975	19,026.9	56.4778	19,026.9	50.1021	19,026.9	56.8893	19,026.9	55.4034	19,026.9	56.0274	19,026.9	53.5554	19,026.9	52.338	19,026.9	50.4613	19,026.9	50.3431	19,026.9	50.8158	19,026.9	43.7351	19,026.9	59.7072	19,026.9	35.0636	19,026.9	64.7352	19,026.9	37.4913	19,026.9	54.017	19,026.9	44.2092	19,026.9	42.0084	19,026.9	40.2147	19,026.9	25.4827	19,026.9	43.371	19,026.9	34.198	19,026.9	35.7813	19,026.9	46.9323	19,026.9	43.3507	19,026.9	46.8167	19,026.9	43.6928
19,697.8	85.4075	19,697.8	85.2987	19,697.8	84.6957	19,697.8	83.6986	19,697.8	82.0406	19,697.8	77.6094	19,697.8	74.9867	19,697.8	68.7317	19,697.8	61.0561	19,697.8	54.5892	19,697.8	58.3089	19,697.8	60.1485	19,697.8	57.8049	19,697.8	57.2787	19,697.8	57.7864	19,697.8	52.9216	19,697.8	50.9045	19,697.8	51.133	19,697.8	47.7807	19,697.8	42.7939	19,697.8	59.3709	19,697.8	35.1213	19,697.8	63.8716	19,697.8	40.5878	19,697.8	52.5664	19,697.8	44.1904	19,697.8	42.4755	19,697.8	40.3397	19,697.8	36.9693	19,697.8	44.4142	19,697.8	37.5646	19,697.8	41.3092	19,697.8	44.9268	19,697.8	40.8169	19,697.8	45.026	19,697.8	41.6993
19,999.5	84.9776	19,999.5	84.8619	19,999.5	84.5825	19,999.5	83.1622	19,999.5	81.6935	19,999.5	76.9796	19,999.5	73.8977	19,999.5	66.9222	19,999.5	52.8514	19,999.5	54.6131	19,999.5	62.101	19,999.5	59.9487	19,999.5	61.5056	19,999.5	59.0404	19,999.5	57.628	19,999.5	54.6152	19,999.5	49.6084	19,999.5	50.9246	19,999.5	47.6753	19,999.5	49.019	19,999.5	57.5553	19,999.5	26.788	19,999.5	62.5738	19,999.5	43.1283	19,999.5	51.9971	19,999.5	51.416	19,999.5	51.7373	19,999.5	49.5262	19,999.5	46.2201	19,999.5	48.6438	19,999.5	51.1441	19,999.5	56.0559	19,999.5	49.302	19,999.5	43.6017	19,999.5	42.0818	19,999.5	49.7745
