"SPL Horizontal"
"On-Axis"		"10°"		"-10°"		"20°"		"-20°"		"30°"		"-30°"		"40°"		"-40°"		"50°"		"-50°"		"60°"		"-60°"		"70°"		"-70°"		"80°"		"-80°"		"90°"		"-90°"		"100°"		"-100°"		"110°"		"-110°"		"120°"		"-120°"		"130°"		"-130°"		"140°"		"-140°"		"150°"		"-150°"		"160°"		"-160°"		"170°"		"-170°"		"180°"
"Frequency / Hz"	"Sound Pressure Level / dB (re 20 µPa/V)  [2.83  V @ 1. m]"	"Frequency / Hz"	"Sound Pressure Level / dB (re 20 µPa/V)  [2.83  V @ 1. m]"	"Frequency / Hz"	"Sound Pressure Level / dB (re 20 µPa/V)  [2.83  V @ 1. m]"	"Frequency / Hz"	"Sound Pressure Level / dB (re 20 µPa/V)  [2.83  V @ 1. m]"	"Frequency / Hz"	"Sound Pressure Level / dB (re 20 µPa/V)  [2.83  V @ 1. m]"	"Frequency / Hz"	"Sound Pressure Level / dB (re 20 µPa/V)  [2.83  V @ 1. m]"	"Frequency / Hz"	"Sound Pressure Level / dB (re 20 µPa/V)  [2.83  V @ 1. m]"	"Frequency / Hz"	"Sound Pressure Level / dB (re 20 µPa/V)  [2.83  V @ 1. m]"	"Frequency / Hz"	"Sound Pressure Level / dB (re 20 µPa/V)  [2.83  V @ 1. m]"	"Frequency / Hz"	"Sound Pressure Level / dB (re 20 µPa/V)  [2.83  V @ 1. m]"	"Frequency / Hz"	"Sound Pressure Level / dB (re 20 µPa/V)  [2.83  V @ 1. m]"	"Frequency / Hz"	"Sound Pressure Level / dB (re 20 µPa/V)  [2.83  V @ 1. m]"	"Frequency / Hz"	"Sound Pressure Level / dB (re 20 µPa/V)  [2.83  V @ 1. m]"	"Frequency / Hz"	"Sound Pressure Level / dB (re 20 µPa/V)  [2.83  V @ 1. m]"	"Frequency / Hz"	"Sound Pressure Level / dB (re 20 µPa/V)  [2.83  V @ 1. m]"	"Frequency / Hz"	"Sound Pressure Level / dB (re 20 µPa/V)  [2.83  V @ 1. m]"	"Frequency / Hz"	"Sound Pressure Level / dB (re 20 µPa/V)  [2.83  V @ 1. m]"	"Frequency / Hz"	"Sound Pressure Level / dB (re 20 µPa/V)  [2.83  V @ 1. m]"	"Frequency / Hz"	"Sound Pressure Level / dB (re 20 µPa/V)  [2.83  V @ 1. m]"	"Frequency / Hz"	"Sound Pressure Level / dB (re 20 µPa/V)  [2.83  V @ 1. m]"	"Frequency / Hz"	"Sound Pressure Level / dB (re 20 µPa/V)  [2.83  V @ 1. m]"	"Frequency / Hz"	"Sound Pressure Level / dB (re 20 µPa/V)  [2.83  V @ 1. m]"	"Frequency / Hz"	"Sound Pressure Level / dB (re 20 µPa/V)  [2.83  V @ 1. m]"	"Frequency / Hz"	"Sound Pressure Level / dB (re 20 µPa/V)  [2.83  V @ 1. m]"	"Frequency / Hz"	"Sound Pressure Level / dB (re 20 µPa/V)  [2.83  V @ 1. m]"	"Frequency / Hz"	"Sound Pressure Level / dB (re 20 µPa/V)  [2.83  V @ 1. m]"	"Frequency / Hz"	"Sound Pressure Level / dB (re 20 µPa/V)  [2.83  V @ 1. m]"	"Frequency / Hz"	"Sound Pressure Level / dB (re 20 µPa/V)  [2.83  V @ 1. m]"	"Frequency / Hz"	"Sound Pressure Level / dB (re 20 µPa/V)  [2.83  V @ 1. m]"	"Frequency / Hz"	"Sound Pressure Level / dB (re 20 µPa/V)  [2.83  V @ 1. m]"	"Frequency / Hz"	"Sound Pressure Level / dB (re 20 µPa/V)  [2.83  V @ 1. m]"	"Frequency / Hz"	"Sound Pressure Level / dB (re 20 µPa/V)  [2.83  V @ 1. m]"	"Frequency / Hz"	"Sound Pressure Level / dB (re 20 µPa/V)  [2.83  V @ 1. m]"	"Frequency / Hz"	"Sound Pressure Level / dB (re 20 µPa/V)  [2.83  V @ 1. m]"	"Frequency / Hz"	"Sound Pressure Level / dB (re 20 µPa/V)  [2.83  V @ 1. m]"	"Frequency / Hz"	"Sound Pressure Level / dB (re 20 µPa/V)  [2.83  V @ 1. m]"
20.5078	58.9748	20.5078	59.1033	20.5078	58.7016	20.5078	59.0882	20.5078	58.2773	20.5078	58.9254	20.5078	57.6884	20.5078	58.6082	20.5078	56.9129	20.5078	58.1293	20.5078	55.919	20.5078	57.4865	20.5078	54.6627	20.5078	56.6906	20.5078	53.092	20.5078	55.7805	20.5078	51.1761	20.5078	54.8461	20.5078	49.0508	20.5078	54.0467	20.5078	47.4607	20.5078	53.5825	20.5078	47.6909	20.5078	53.5774	20.5078	49.4388	20.5078	53.9696	20.5078	51.4036	20.5078	54.5641	20.5078	53.0476	20.5078	55.1663	20.5078	54.2932	20.5078	55.6442	20.5078	55.1686	20.5078	55.9213	20.5078	55.7117	20.5078	55.9537
21.9727	51.503	21.9727	51.6787	21.9727	50.9852	21.9727	51.5131	21.9727	50.086	21.9727	50.968	21.9727	48.7183	21.9727	49.9541	21.9727	46.7313	21.9727	48.2993	21.9727	43.9806	21.9727	45.6919	21.9727	41.3505	21.9727	41.8651	21.9727	42.7485	21.9727	40.4956	21.9727	46.6462	21.9727	45.1685	21.9727	50.0242	21.9727	49.3808	21.9727	52.6701	21.9727	52.4532	21.9727	54.7629	21.9727	54.7631	21.9727	56.4354	21.9727	56.5419	21.9727	57.7675	21.9727	57.9158	21.9727	58.806	21.9727	58.9551	21.9727	59.5772	21.9727	59.7004	21.9727	60.0957	21.9727	60.176	21.9727	60.3681	21.9727	60.3959
23.4375	56.6131	23.4375	56.6414	23.4375	56.3873	23.4375	56.4748	23.4375	55.9602	23.4375	56.1179	23.4375	55.33	23.4375	55.5851	23.4375	54.5094	23.4375	54.9188	23.4375	53.5614	23.4375	54.2239	23.4375	52.676	23.4375	53.7114	23.4375	52.2435	23.4375	53.6736	23.4375	52.6676	23.4375	54.2861	23.4375	53.8996	23.4375	55.4214	23.4375	55.4998	23.4375	56.786	23.4375	57.1028	23.4375	58.1439	23.4375	58.5401	23.4375	59.3686	23.4375	59.756	23.4375	60.4045	23.4375	60.7386	23.4375	61.2293	23.4375	61.4888	23.4375	61.8342	23.4375	62.0099	23.4375	62.2157	23.4375	62.304	23.4375	62.3725
24.9023	58.9034	24.9023	58.9817	24.9023	58.6066	24.9023	58.8431	24.9023	58.0798	24.9023	58.4804	24.9023	57.3013	24.9023	57.879	24.9023	56.2434	24.9023	57.0243	24.9023	54.8911	24.9023	55.924	24.9023	53.323	24.9023	54.6811	24.9023	51.9606	24.9023	53.6591	24.9023	51.7741	24.9023	53.5411	24.9023	53.1851	24.9023	54.6412	24.9023	55.2951	24.9023	56.4004	24.9023	57.3384	24.9023	58.2005	24.9023	59.0806	24.9023	59.7757	24.9023	60.4961	24.9023	61.0591	24.9023	61.6064	24.9023	62.0485	24.9023	62.4363	24.9023	62.7572	24.9023	63.0033	24.9023	63.1987	24.9023	63.3178	24.9023	63.3835
26.3672	60.9431	26.3672	60.9647	26.3672	60.7428	26.3672	60.8074	26.3672	60.3629	26.3672	60.4704	26.3672	59.8032	26.3672	59.9572	26.3672	59.0729	26.3672	59.2876	26.3672	58.2116	26.3672	58.5219	26.3672	57.3349	26.3672	57.8042	26.3672	56.6945	26.3672	57.3923	26.3672	56.6421	26.3672	57.5618	26.3672	57.3458	26.3672	58.3615	26.3672	58.5862	26.3672	59.5552	26.3672	60.0047	26.3672	60.8531	26.3672	61.36	26.3672	62.0685	26.3672	62.5422	26.3672	63.1126	26.3672	63.511	26.3672	63.9491	26.3672	64.2544	26.3672	64.565	26.3672	64.7703	26.3672	64.9559	26.3672	65.0588	26.3672	65.1206
27.832	62.4896	27.832	62.5548	27.832	62.234	27.832	62.4346	27.832	61.7782	27.832	62.1313	27.832	61.109	27.832	61.6483	27.832	60.2151	27.832	60.9995	27.832	59.1065	27.832	60.2301	27.832	57.8711	27.832	59.4542	27.832	56.8019	27.832	58.8959	27.832	56.4692	27.832	58.8449	27.832	57.2508	27.832	59.4377	27.832	58.7817	27.832	60.5071	27.832	60.4785	27.832	61.7568	27.832	62.0309	27.832	62.9664	27.832	63.3393	27.832	64.0224	27.832	64.3857	27.832	64.8759	27.832	65.1753	27.832	65.5075	27.832	65.7167	27.832	65.91	27.832	66.017	27.832	66.0805
29.2969	60.8689	29.2969	60.7727	29.2969	60.7507	29.2969	60.4538	29.2969	60.4335	29.2969	59.9126	29.2969	59.9518	29.2969	59.1746	29.2969	59.3851	29.2969	58.3379	29.2969	58.9005	29.2969	57.6631	29.2969	58.7669	29.2969	57.5977	29.2969	59.2292	29.2969	58.4428	29.2969	60.2812	29.2969	59.9661	29.2969	61.6735	29.2969	61.7082	29.2969	63.1422	29.2969	63.3747	29.2969	64.5269	29.2969	64.8483	29.2969	65.754	29.2969	66.096	29.2969	66.7946	29.2969	67.1151	29.2969	67.6393	29.2969	67.9111	29.2969	68.2851	29.2969	68.4905	29.2969	68.7311	29.2969	68.8587	29.2969	68.9765	29.2969	69.0197
30.7617	64.412	30.7617	64.4218	30.7617	64.2559	30.7617	64.291	30.7617	63.9553	30.7617	64.0338	30.7617	63.524	30.7617	63.6791	30.7617	62.9981	30.7617	63.2814	30.7617	62.456	30.7617	62.9347	30.7617	62.0395	30.7617	62.7743	30.7617	61.9422	30.7617	62.9373	30.7617	62.3141	30.7617	63.4817	30.7617	63.1378	30.7617	64.3391	30.7617	64.242	30.7617	65.3643	30.7617	65.4314	30.7617	66.4165	30.7617	66.5686	30.7617	67.3971	30.7617	67.5771	30.7617	68.2477	30.7617	68.4193	30.7617	68.9358	30.7617	69.0774	30.7617	69.4439	30.7617	69.5434	30.7617	69.7624	30.7617	69.8135	30.7617	69.8864
32.2266	65.5902	32.2266	65.6024	32.2266	65.4441	32.2266	65.4832	32.2266	65.1712	32.2266	65.2445	32.2266	64.7931	32.2266	64.9142	32.2266	64.3568	32.2266	64.5464	32.2266	63.9508	32.2266	64.2348	32.2266	63.7137	32.2266	64.1126	32.2266	63.8013	32.2266	64.3115	32.2266	64.2989	32.2266	64.8828	32.2266	65.1522	32.2266	65.7554	32.2266	66.2093	32.2266	66.787	32.2266	67.316	32.2266	67.8414	32.2266	68.3643	32.2266	68.8237	32.2266	69.2919	32.2266	69.6776	32.2266	70.0654	32.2266	70.3721	32.2266	70.6676	32.2266	70.8907	32.2266	71.0889	32.2266	71.2244	32.2266	71.3237	32.2266	71.3692
33.6914	67.0988	33.6914	67.0915	33.6914	66.9874	33.6914	66.9675	33.6914	66.7655	33.6914	66.7401	33.6914	66.4558	33.6914	66.4381	33.6914	66.1033	33.6914	66.1159	33.6914	65.7869	33.6914	65.862	33.6914	65.6208	33.6914	65.7942	33.6914	65.728	33.6914	66.021	33.6914	66.1767	33.6914	66.5788	33.6914	66.9314	33.6914	67.4031	33.6914	67.8764	33.6914	68.3709	33.6914	68.8827	33.6914	69.3621	33.6914	69.8515	33.6914	70.2895	33.6914	70.7198	33.6914	71.0988	33.6914	71.4513	33.6914	71.7586	33.6914	72.0252	33.6914	72.2515	33.6914	72.4294	33.6914	72.568	33.6914	72.6569	33.6914	72.7036
35.1562	68.427	35.1562	68.4153	35.1562	68.3351	35.1562	68.3012	35.1562	68.15	35.1562	68.0983	35.1562	67.8973	35.1562	67.8365	35.1562	67.6241	35.1562	67.5707	35.1562	67.4051	35.1562	67.3851	35.1562	67.338	35.1562	67.3854	35.1562	67.5162	35.1562	67.6605	35.1562	67.9818	35.1562	68.2319	35.1562	68.6979	35.1562	69.0365	35.1562	69.5709	35.1562	69.9643	35.1562	70.4971	35.1562	70.9087	35.1562	71.3933	35.1562	71.7912	35.1562	72.2032	35.1562	72.5614	35.1562	72.8911	35.1562	73.1895	35.1562	73.4349	35.1562	73.6585	35.1562	73.8206	35.1562	73.959	35.1562	74.0395	35.1562	74.0863
36.6211	69.6495	36.6211	69.6438	36.6211	69.5691	36.6211	69.5539	36.6211	69.4129	36.6211	69.3935	36.6211	69.2048	36.6211	69.1919	36.6211	68.9873	36.6211	68.9984	36.6211	68.8243	36.6211	68.8839	36.6211	68.7962	36.6211	68.9315	36.6211	68.9781	36.6211	69.208	36.6211	69.406	36.6211	69.7299	36.6211	70.0553	36.6211	70.4508	36.6211	70.8529	36.6211	71.2859	36.6211	71.7108	36.6211	72.1465	36.6211	72.5519	36.6211	72.9614	36.6211	73.32	36.6211	73.6811	36.6211	73.9773	36.6211	74.2736	36.6211	74.4995	36.6211	74.7191	36.6211	74.8708	36.6211	75.0058	36.6211	75.0819	36.6211	75.1274
38.0859	71.2306	38.0859	71.2231	38.0859	71.1712	38.0859	71.1512	38.0859	71.054	38.0859	71.0288	38.0859	70.9008	38.0859	70.884	38.0859	70.7491	38.0859	70.7608	38.0859	70.6523	38.0859	70.7184	38.0859	70.6743	38.0859	70.8206	38.0859	70.8719	38.0859	71.1148	38.0859	71.272	38.0859	71.6089	38.0859	71.856	38.0859	72.2649	38.0859	72.5682	38.0859	73.0158	38.0859	73.3379	38.0859	73.7894	38.0859	74.0996	38.0859	74.5248	38.0859	74.8019	38.0859	75.1773	38.0859	75.4082	38.0859	75.7164	38.0859	75.8938	38.0859	76.1222	38.0859	76.2421	38.0859	76.3824	38.0859	76.4427	38.0859	76.49
39.5508	72.7419	39.5508	72.729	39.5508	72.7	39.5508	72.6638	39.5508	72.6109	39.5508	72.5597	39.5508	72.4937	39.5508	72.442	39.5508	72.3796	39.5508	72.3494	39.5508	72.3119	39.5508	72.331	39.5508	72.3408	39.5508	72.438	39.5508	72.5115	39.5508	72.7073	39.5508	72.8479	39.5508	73.1453	39.5508	73.3413	39.5508	73.7228	39.5508	73.9527	39.5508	74.3864	39.5508	74.6266	39.5508	75.0758	39.5508	75.3066	39.5508	75.7373	39.5508	75.9445	39.5508	76.329	39.5508	76.5032	39.5508	76.8207	39.5508	76.956	39.5508	77.192	39.5508	77.2843	39.5508	77.4294	39.5508	77.4761	39.5508	77.525
41.0156	73.8893	41.0156	73.8924	41.0156	73.8382	41.0156	73.8497	41.0156	73.7466	41.0156	73.7728	41.0156	73.6318	41.0156	73.6834	41.0156	73.5225	41.0156	73.6139	41.0156	73.4583	41.0156	73.6054	41.0156	73.4854	41.0156	73.7008	41.0156	73.6458	41.0156	73.9332	41.0156	73.9626	41.0156	74.313	41.0156	74.4292	41.0156	74.8216	41.0156	75.0102	41.0156	75.4178	41.0156	75.6534	41.0156	76.0503	41.0156	76.3046	41.0156	76.6691	41.0156	76.9165	41.0156	77.2326	41.0156	77.4526	41.0156	77.7086	41.0156	77.8858	41.0156	78.0739	41.0156	78.1976	41.0156	78.3125	41.0156	78.376	41.0156	78.4146
42.4805	75.0133	42.4805	75.0224	42.4805	74.9678	42.4805	74.9967	42.4805	74.8932	42.4805	74.9466	42.4805	74.8058	42.4805	74.8917	42.4805	74.7317	42.4805	74.8602	42.4805	74.7053	42.4805	74.8871	42.4805	74.7654	42.4805	75.0079	42.4805	74.9453	42.4805	75.2492	42.4805	75.2622	42.4805	75.6189	42.4805	75.7088	42.4805	76.1014	42.4805	76.2549	42.4805	76.6616	42.4805	76.8562	42.4805	77.2548	42.4805	77.4657	42.4805	77.8361	42.4805	78.0411	42.4805	78.3665	42.4805	78.548	42.4805	78.8151	42.4805	78.9604	42.4805	79.1588	42.4805	79.2597	42.4805	79.3818	42.4805	79.4333	42.4805	79.4746
43.9453	76.4106	43.9453	76.4108	43.9453	76.3822	43.9453	76.3844	43.9453	76.3316	43.9453	76.3408	43.9453	76.2727	43.9453	76.2972	43.9453	76.2269	43.9453	76.2782	43.9453	76.2225	43.9453	76.3138	43.9453	76.2904	43.9453	76.4339	43.9453	76.4574	43.9453	76.661	43.9453	76.7385	43.9453	77.0019	43.9453	77.1301	43.9453	77.4437	43.9453	77.6103	43.9453	77.9567	43.9453	78.1443	43.9453	78.5015	43.9453	78.6921	43.9453	79.0375	43.9453	79.2156	43.9453	79.5282	43.9453	79.6819	43.9453	79.944	43.9453	80.0651	43.9453	80.2625	43.9453	80.3458	43.9453	80.4683	43.9453	80.5106	43.9453	80.5522
45.4102	77.3831	45.4102	77.3885	45.4102	77.3559	45.4102	77.3734	45.4102	77.3129	45.4102	77.3459	45.4102	77.2669	45.4102	77.3213	45.4102	77.2379	45.4102	77.3211	45.4102	77.2512	45.4102	77.371	45.4102	77.3341	45.4102	77.4969	45.4102	77.5096	45.4102	77.7181	45.4102	77.7899	45.4102	78.0411	45.4102	78.171	45.4102	78.4558	45.4102	78.6325	45.4102	78.937	45.4102	79.1424	45.4102	79.4501	45.4102	79.6642	45.4102	79.9581	45.4102	80.1621	45.4102	80.4265	45.4102	80.6053	45.4102	80.8263	45.4102	80.9687	45.4102	81.1352	45.4102	81.2337	45.4102	81.3371	45.4102	81.3874	45.4102	81.4224
46.875	78.5826	46.875	78.5895	46.875	78.5576	46.875	78.5793	46.875	78.5198	46.875	78.5588	46.875	78.4804	46.875	78.5407	46.875	78.4563	46.875	78.5435	46.875	78.4689	46.875	78.5892	46.875	78.5411	46.875	78.7002	46.875	78.6931	46.875	78.894	46.875	78.9365	46.875	79.1776	46.875	79.2698	46.875	79.5439	46.875	79.6778	46.875	79.9725	46.875	80.134	46.875	80.4338	46.875	80.6062	46.875	80.8943	46.875	81.0618	46.875	81.322	46.875	81.4709	46.875	81.6891	46.875	81.809	46.875	81.9736	46.875	82.0572	46.875	82.1595	46.875	82.2024	46.875	82.2371
48.3398	79.5703	48.3398	79.5758	48.3398	79.548	48.3398	79.5653	48.3398	79.5136	48.3398	79.5451	48.3398	79.4771	48.3398	79.5269	48.3398	79.4535	48.3398	79.5272	48.3398	79.4621	48.3398	79.5659	48.3398	79.5237	48.3398	79.6636	48.3398	79.657	48.3398	79.8364	48.3398	79.8737	48.3398	80.0917	48.3398	80.1741	48.3398	80.4245	48.3398	80.546	48.3398	80.8177	48.3398	80.9664	48.3398	81.2447	48.3398	81.4057	48.3398	81.6748	48.3398	81.8331	48.3398	82.0774	48.3398	82.2196	48.3398	82.4252	48.3398	82.5407	48.3398	82.6962	48.3398	82.7772	48.3398	82.874	48.3398	82.9157	48.3398	82.9486
51.2695	81.317	51.2695	81.3195	51.2695	81.3107	51.2695	81.3192	51.2695	81.3038	51.2695	81.3214	51.2695	81.3036	51.2695	81.3354	51.2695	81.3208	51.2695	81.3739	51.2695	81.369	51.2695	81.4512	51.2695	81.4622	51.2695	81.5811	51.2695	81.6129	51.2695	81.7735	51.2695	81.8283	51.2695	82.0313	51.2695	82.1081	51.2695	82.3487	51.2695	82.443	51.2695	82.7109	51.2695	82.8158	51.2695	83.0964	51.2695	83.2039	51.2695	83.4803	51.2695	83.5824	51.2695	83.8371	51.2695	83.9269	51.2695	84.1436	51.2695	84.2156	51.2695	84.3809	51.2695	84.431	51.2695	84.5344	51.2695	84.5601	51.2695	84.5952
52.7344	82.2427	52.7344	82.2533	52.7344	82.2305	52.7344	82.2629	52.7344	82.2198	52.7344	82.2759	52.7344	82.2172	52.7344	82.2997	52.7344	82.2323	52.7344	82.3449	52.7344	82.2771	52.7344	82.4235	52.7344	82.3641	52.7344	82.5469	52.7344	82.5041	52.7344	82.7238	52.7344	82.7037	52.7344	82.9573	52.7344	82.9629	52.7344	83.243	52.7344	83.2737	52.7344	83.5692	52.7344	83.621	52.7344	83.9178	52.7344	83.984	52.7344	84.2672	52.7344	84.3396	52.7344	84.5941	52.7344	84.6643	52.7344	84.8771	52.7344	84.9373	52.7344	85.0974	52.7344	85.1412	52.7344	85.2406	52.7344	85.2636	52.7344	85.2973
54.1992	82.9984	54.1992	83.0121	54.1992	82.9853	54.1992	83.0266	54.1992	82.9758	54.1992	83.0453	54.1992	82.9762	54.1992	83.0748	54.1992	82.9953	54.1992	83.1239	54.1992	83.0435	54.1992	83.2031	54.1992	83.1318	54.1992	83.3223	54.1992	83.2696	54.1992	83.4892	54.1992	83.462	54.1992	83.7065	54.1992	83.7089	54.1992	83.9713	54.1992	84.0028	54.1992	84.2735	54.1992	84.3298	54.1992	84.5976	54.1992	84.6711	54.1992	84.9237	54.1992	85.005	54.1992	85.2307	54.1992	85.3098	54.1992	85.4979	54.1992	85.5657	54.1992	85.7071	54.1992	85.7565	54.1992	85.8442	54.1992	85.8701	54.1992	85.8999
55.6641	83.5942	55.6641	83.6121	55.6641	83.5789	55.6641	83.6325	55.6641	83.5697	55.6641	83.6577	55.6641	83.5724	55.6641	83.6932	55.6641	83.5949	55.6641	83.7463	55.6641	83.6468	55.6641	83.8261	55.6641	83.7375	55.6641	83.9415	55.6641	83.875	55.6641	84.0999	55.6641	84.0639	55.6641	84.3045	55.6641	84.3033	55.6641	84.5532	55.6641	84.5863	55.6641	84.8379	55.6641	84.8999	55.6641	85.1446	55.6641	85.2262	55.6641	85.4548	55.6641	85.5452	55.6641	85.7484	55.6641	85.8361	55.6641	86.0052	55.6641	86.0802	55.6641	86.2073	55.6641	86.2618	55.6641	86.3407	55.6641	86.3693	55.6641	86.396
58.5938	84.9972	58.5938	85.0017	58.5938	84.9997	58.5938	85.0134	58.5938	85.0112	58.5938	85.0345	58.5938	85.0354	58.5938	85.069	58.5938	85.0776	58.5938	85.1227	58.5938	85.1437	58.5938	85.2021	58.5938	85.2399	58.5938	85.3134	58.5938	85.3711	58.5938	85.4614	58.5938	85.54	58.5938	85.6479	58.5938	85.746	58.5938	85.8706	58.5938	85.9841	58.5938	86.1226	58.5938	86.2452	58.5938	86.3922	58.5938	86.5162	58.5938	86.6643	58.5938	86.7817	58.5938	86.9217	58.5938	87.0251	58.5938	87.1473	58.5938	87.2303	58.5938	87.3255	58.5938	87.3834	58.5938	87.4439	58.5938	87.4736	58.5938	87.4944
60.0586	85.6126	60.0586	85.6099	60.0586	85.6226	60.0586	85.6154	60.0586	85.6407	60.0586	85.6317	60.0586	85.6693	60.0586	85.6627	60.0586	85.712	60.0586	85.7136	60.0586	85.7739	60.0586	85.7899	60.0586	85.8603	60.0586	85.8969	60.0586	85.9764	60.0586	86.0381	60.0586	86.1259	60.0586	86.2147	60.0586	86.3095	60.0586	86.4239	60.0586	86.5239	60.0586	86.6592	60.0586	86.7615	60.0586	86.91	60.0586	87.0107	60.0586	87.1625	60.0586	87.257	60.0586	87.4012	60.0586	87.4844	60.0586	87.6102	60.0586	87.6773	60.0586	87.775	60.0586	87.8222	60.0586	87.8841	60.0586	87.9084	60.0586	87.9296
62.9883	86.5559	62.9883	86.5643	62.9883	86.5598	62.9883	86.5853	62.9883	86.577	62.9883	86.62	62.9883	86.6095	62.9883	86.6703	62.9883	86.6598	62.9883	86.7391	62.9883	86.7314	62.9883	86.8292	62.9883	86.8274	62.9883	86.9434	62.9883	86.9507	62.9883	87.0836	62.9883	87.1023	62.9883	87.2499	62.9883	87.2812	62.9883	87.4401	62.9883	87.4835	62.9883	87.649	62.9883	87.7024	62.9883	87.8684	62.9883	87.928	62.9883	88.0876	62.9883	88.1484	62.9883	88.2941	62.9883	88.3508	62.9883	88.4745	62.9883	88.5221	62.9883	88.6167	62.9883	88.6509	62.9883	88.7102	62.9883	88.7281	62.9883	88.7484
64.4531	87.0264	64.4531	87.0345	64.4531	87.0317	64.4531	87.0559	64.4531	87.051	64.4531	87.0914	64.4531	87.0858	64.4531	87.1424	64.4531	87.1381	64.4531	87.2109	64.4531	87.2104	64.4531	87.2992	64.4531	87.305	64.4531	87.4092	64.4531	87.4237	64.4531	87.5424	64.4531	87.5671	64.4531	87.6986	64.4531	87.7342	64.4531	87.8758	64.4531	87.9215	64.4531	88.0694	64.4531	88.123	64.4531	88.2721	64.4531	88.3302	64.4531	88.4744	64.4531	88.5326	64.4531	88.6648	64.4531	88.7186	64.4531	88.8314	64.4531	88.8762	64.4531	88.9628	64.4531	88.9948	64.4531	89.0493	64.4531	89.0661	64.4531	89.0847
67.3828	87.8838	67.3828	87.8893	67.3828	87.8934	67.3828	87.9099	67.3828	87.9186	67.3828	87.9457	67.3828	87.96	67.3828	87.9972	67.3828	88.0185	67.3828	88.0654	67.3828	88.0947	67.3828	88.151	67.3828	88.1894	67.3828	88.2551	67.3828	88.3027	67.3828	88.3777	67.3828	88.4341	67.3828	88.5184	67.3828	88.5822	67.3828	88.6749	67.3828	88.7442	67.3828	88.8436	67.3828	88.9155	67.3828	89.0185	67.3828	89.0899	67.3828	89.1922	67.3828	89.2593	67.3828	89.3554	67.3828	89.4145	67.3828	89.4983	67.3828	89.546	67.3828	89.6113	67.3828	89.6447	67.3828	89.6863	67.3828	89.7036	67.3828	89.7178
68.8477	88.2792	68.8477	88.2816	68.8477	88.2925	68.8477	88.3	68.8477	88.3216	68.8477	88.3346	68.8477	88.3663	68.8477	88.3859	68.8477	88.4267	68.8477	88.4542	68.8477	88.503	68.8477	88.5397	68.8477	88.5953	68.8477	88.6426	68.8477	88.7035	68.8477	88.7624	68.8477	88.8272	68.8477	88.8979	68.8477	88.9653	68.8477	89.0468	68.8477	89.1152	68.8477	89.2054	68.8477	89.2732	68.8477	89.3687	68.8477	89.4337	68.8477	89.5297	68.8477	89.5896	68.8477	89.6803	68.8477	89.7325	68.8477	89.8119	68.8477	89.8537	68.8477	89.9156	68.8477	89.945	68.8477	89.9844	68.8477	89.9995	68.8477	90.013
71.7773	89.0346	71.7773	89.0387	71.7773	89.0481	71.7773	89.0606	71.7773	89.0791	71.7773	89.1002	71.7773	89.1266	71.7773	89.1568	71.7773	89.1899	71.7773	89.2297	71.7773	89.268	71.7773	89.3179	71.7773	89.3599	71.7773	89.4204	71.7773	89.4647	71.7773	89.5356	71.7773	89.5812	71.7773	89.6619	71.7773	89.7079	71.7773	89.7969	71.7773	89.8425	71.7773	89.9376	71.7773	89.9819	71.7773	90.0798	71.7773	90.1218	71.7773	90.2183	71.7773	90.2566	71.7773	90.3467	71.7773	90.3798	71.7773	90.458	71.7773	90.4844	71.7773	90.5451	71.7773	90.5635	71.7773	90.6021	71.7773	90.6116	71.7773	90.6248
74.707	89.6279	74.707	89.6309	74.707	89.6436	74.707	89.6528	74.707	89.6776	74.707	89.6929	74.707	89.7287	74.707	89.7501	74.707	89.7954	74.707	89.823	74.707	89.876	74.707	89.9098	74.707	89.9685	74.707	90.0086	74.707	90.0709	74.707	90.1174	74.707	90.1812	74.707	90.2341	74.707	90.2973	74.707	90.3561	74.707	90.4169	74.707	90.4806	74.707	90.5372	74.707	90.6041	74.707	90.6551	74.707	90.7225	74.707	90.7667	74.707	90.8309	74.707	90.8672	74.707	90.9241	74.707	90.9518	74.707	90.9967	74.707	91.0154	74.707	91.0442	74.707	91.0536	74.707	91.0636
77.6367	90.2648	77.6367	90.2696	77.6367	90.2781	77.6367	90.2926	77.6367	90.3088	77.6367	90.333	77.6367	90.3555	77.6367	90.3893	77.6367	90.4161	77.6367	90.4594	77.6367	90.4882	77.6367	90.5409	77.6367	90.5693	77.6367	90.6312	77.6367	90.657	77.6367	90.7275	77.6367	90.7488	77.6367	90.8272	77.6367	90.8427	77.6367	90.9278	77.6367	90.937	77.6367	91.0267	77.6367	91.03	77.6367	91.1214	77.6367	91.1199	77.6367	91.2093	77.6367	91.2044	77.6367	91.2875	77.6367	91.2809	77.6367	91.3526	77.6367	91.3461	77.6367	91.4017	77.6367	91.3965	77.6367	91.4317	77.6367	91.4289	77.6367	91.4409
79.1016	90.5752	79.1016	90.5818	79.1016	90.5868	79.1016	90.6066	79.1016	90.6159	79.1016	90.6487	79.1016	90.6609	79.1016	90.7063	79.1016	90.7196	79.1016	90.777	79.1016	90.7894	79.1016	90.858	79.1016	90.8674	79.1016	90.9462	79.1016	90.951	79.1016	91.0387	79.1016	91.0375	79.1016	91.1326	79.1016	91.125	79.1016	91.2254	79.1016	91.2116	79.1016	91.3148	79.1016	91.2961	79.1016	91.3989	79.1016	91.377	79.1016	91.4755	79.1016	91.4527	79.1016	91.5425	79.1016	91.5211	79.1016	91.5975	79.1016	91.5796	79.1016	91.6382	79.1016	91.6253	79.1016	91.6621	79.1016	91.6554	79.1016	91.668
82.0312	91.1152	82.0312	91.1255	82.0312	91.1229	82.0312	91.1535	82.0312	91.1478	82.0312	91.1977	82.0312	91.1883	82.0312	91.2561	82.0312	91.242	82.0312	91.3255	82.0312	91.306	82.0312	91.4027	82.0312	91.377	82.0312	91.4841	82.0312	91.452	82.0312	91.5664	82.0312	91.5284	82.0312	91.6465	82.0312	91.6038	82.0312	91.7223	82.0312	91.6765	82.0312	91.7919	82.0312	91.7455	82.0312	91.8544	82.0312	91.8099	82.0312	91.9091	82.0312	91.8688	82.0312	91.9551	82.0312	91.9211	82.0312	91.9918	82.0312	91.9654	82.0312	92.0179	82.0312	92.0001	82.0312	92.0324	82.0312	92.0234	82.0312	92.0344
84.9609	91.4092	84.9609	91.4084	84.9609	91.4309	84.9609	91.4285	84.9609	91.4725	84.9609	91.468	84.9609	91.5314	84.9609	91.5243	84.9609	91.6045	84.9609	91.5941	84.9609	91.6879	84.9609	91.6734	84.9609	91.7773	84.9609	91.7581	84.9609	91.8686	84.9609	91.8444	84.9609	91.9581	84.9609	91.9291	84.9609	92.0428	84.9609	92.0096	84.9609	92.1203	84.9609	92.0844	84.9609	92.1891	84.9609	92.1525	84.9609	92.2483	84.9609	92.2131	84.9609	92.2975	84.9609	92.2658	84.9609	92.3364	84.9609	92.31	84.9609	92.3648	84.9609	92.3451	84.9609	92.3825	84.9609	92.3704	84.9609	92.3894	84.9609	92.3853
87.8906	91.7056	87.8906	91.6959	87.8906	91.7397	87.8906	91.711	87.8906	91.7963	87.8906	91.7494	87.8906	91.8721	87.8906	91.8085	87.8906	91.9626	87.8906	91.8844	87.8906	92.0625	87.8906	91.9724	87.8906	92.1662	87.8906	92.0678	87.8906	92.2682	87.8906	92.1655	87.8906	92.3635	87.8906	92.2614	87.8906	92.4484	87.8906	92.3517	87.8906	92.5203	87.8906	92.4334	87.8906	92.5782	87.8906	92.5044	87.8906	92.6223	87.8906	92.5635	87.8906	92.6542	87.8906	92.6104	87.8906	92.6758	87.8906	92.6456	87.8906	92.6893	87.8906	92.6705	87.8906	92.6966	87.8906	92.6866	87.8906	92.6986	87.8906	92.6955
90.8203	92.4034	90.8203	92.4337	90.8203	92.3895	90.8203	92.4792	90.8203	92.3918	90.8203	92.5374	90.8203	92.4089	90.8203	92.6049	90.8203	92.4383	90.8203	92.6775	90.8203	92.4764	90.8203	92.7504	90.8203	92.5191	90.8203	92.8187	90.8203	92.562	90.8203	92.8779	90.8203	92.6011	90.8203	92.924	90.8203	92.6332	90.8203	92.954	90.8203	92.6568	90.8203	92.9663	90.8203	92.6717	90.8203	92.961	90.8203	92.6792	90.8203	92.9399	90.8203	92.6822	90.8203	92.9066	90.8203	92.6841	90.8203	92.8656	90.8203	92.6886	90.8203	92.8219	90.8203	92.6989	90.8203	92.7804	90.8203	92.7174	90.8203	92.7448
95.2148	92.7328	95.2148	92.7352	95.2148	92.7485	95.2148	92.756	95.2148	92.7807	95.2148	92.7938	95.2148	92.8261	95.2148	92.8456	95.2148	92.8805	95.2148	92.9071	95.2148	92.9391	95.2148	92.9732	95.2148	92.997	95.2148	93.0383	95.2148	93.0497	95.2148	93.0973	95.2148	93.0936	95.2148	93.1455	95.2148	93.1261	95.2148	93.1798	95.2148	93.1461	95.2148	93.1987	95.2148	93.1536	95.2148	93.2027	95.2148	93.1505	95.2148	93.1941	95.2148	93.1397	95.2148	93.1765	95.2148	93.125	95.2148	93.1543	95.2148	93.1106	95.2148	93.132	95.2148	93.1001	95.2148	93.1132	95.2148	93.0964	95.2148	93.1008
98.1445	92.9368	98.1445	92.9491	98.1445	92.9433	98.1445	92.9799	98.1445	92.9674	98.1445	93.0273	98.1445	93.0067	98.1445	93.088	98.1445	93.0574	98.1445	93.1575	98.1445	93.1152	98.1445	93.2305	98.1445	93.1754	98.1445	93.3013	98.1445	93.233	98.1445	93.3643	98.1445	93.2839	98.1445	93.4148	98.1445	93.3243	98.1445	93.4493	98.1445	93.352	98.1445	93.4663	98.1445	93.3661	98.1445	93.466	98.1445	93.3676	98.1445	93.4511	98.1445	93.3592	98.1445	93.4257	98.1445	93.345	98.1445	93.3951	98.1445	93.33	98.1445	93.3647	98.1445	93.319	98.1445	93.3393	98.1445	93.3157	98.1445	93.3224
101.074	93.0414	101.074	93.0483	101.074	93.0585	101.074	93.0791	101.074	93.0973	101.074	93.1321	101.074	93.154	101.074	93.2033	101.074	93.2234	101.074	93.2874	101.074	93.2998	101.074	93.3778	101.074	93.3771	101.074	93.4675	101.074	93.4498	101.074	93.5497	101.074	93.5131	101.074	93.6185	101.074	93.5634	101.074	93.6695	101.074	93.5987	101.074	93.7004	101.074	93.6184	101.074	93.7112	101.074	93.6239	101.074	93.7042	101.074	93.6182	101.074	93.6838	101.074	93.6056	101.074	93.6559	101.074	93.5912	101.074	93.6264	101.074	93.5804	101.074	93.6011	101.074	93.5771	101.074	93.5839
105.469	93.3967	105.469	93.4132	105.469	93.4006	105.469	93.4482	105.469	93.425	105.469	93.4983	105.469	93.4683	105.469	93.5589	105.469	93.5268	105.469	93.6246	105.469	93.5952	105.469	93.6899	105.469	93.6672	105.469	93.749	105.469	93.7359	105.469	93.7969	105.469	93.7946	105.469	93.8295	105.469	93.8378	105.469	93.8443	105.469	93.8618	105.469	93.8408	105.469	93.8648	105.469	93.8204	105.469	93.8478	105.469	93.7865	105.469	93.8142	105.469	93.7446	105.469	93.7698	105.469	93.7017	105.469	93.7221	105.469	93.6651	105.469	93.6793	105.469	93.6414	105.469	93.6487	105.469	93.6354
108.398	93.6476	108.398	93.6628	108.398	93.6491	108.398	93.6935	108.398	93.6666	108.398	93.7375	108.398	93.6984	108.398	93.7914	108.398	93.7412	108.398	93.8503	108.398	93.7906	108.398	93.9088	108.398	93.8411	108.398	93.9612	108.398	93.8871	108.398	94.0017	108.398	93.9227	108.398	94.0257	108.398	93.943	108.398	94.0298	108.398	93.9446	108.398	94.0127	108.398	93.9264	108.398	93.9756	108.398	93.89	108.398	93.9219	108.398	93.8398	108.398	93.8576	108.398	93.7827	108.398	93.7907	108.398	93.7278	108.398	93.7299	108.398	93.6842	108.398	93.6839	108.398	93.6597	108.398	93.6594
112.793	93.9444	112.793	93.9566	112.793	93.9448	112.793	93.9805	112.793	93.9571	112.793	94.0144	112.793	93.9799	112.793	94.0555	112.793	94.0107	112.793	94.0999	112.793	94.0455	112.793	94.1427	112.793	94.08	112.793	94.1786	112.793	94.1088	112.793	94.202	112.793	94.1266	112.793	94.2083	112.793	94.1287	112.793	94.194	112.793	94.1118	112.793	94.1578	112.793	94.0745	112.793	94.1007	112.793	94.0187	112.793	94.027	112.793	93.9489	112.793	93.9436	112.793	93.8731	112.793	93.8597	112.793	93.8011	112.793	93.7858	112.793	93.7435	112.793	93.7318	112.793	93.7095	112.793	93.7052
117.188	94.0572	117.188	94.0603	117.188	94.0624	117.188	94.0714	117.188	94.0751	117.188	94.0895	117.188	94.0934	117.188	94.1119	117.188	94.1144	117.188	94.1354	117.188	94.1342	117.188	94.1557	117.188	94.1486	117.188	94.1681	117.188	94.1528	117.188	94.1679	117.188	94.1426	117.188	94.1509	117.188	94.1144	117.188	94.1142	117.188	94.0666	117.188	94.057	117.188	93.9995	117.188	93.981	117.188	93.9163	117.188	93.8906	117.188	93.8229	117.188	93.7931	117.188	93.7278	117.188	93.6979	117.188	93.6411	117.188	93.6156	117.188	93.5735	117.188	93.5564	117.188	93.5339	117.188	93.5279
120.117	94.2439	120.117	94.2444	120.117	94.2508	120.117	94.2525	120.117	94.2636	120.117	94.2672	120.117	94.2799	120.117	94.2861	120.117	94.2962	120.117	94.3055	120.117	94.3082	120.117	94.3208	120.117	94.3112	120.117	94.3265	120.117	94.3003	120.117	94.3172	120.117	94.2711	120.117	94.2879	120.117	94.2203	120.117	94.2353	120.117	94.1464	120.117	94.1582	120.117	94.0508	120.117	94.0584	120.117	93.9378	120.117	93.9411	120.117	93.8151	120.117	93.8148	120.117	93.6936	120.117	93.6909	120.117	93.5859	120.117	93.5823	120.117	93.5047	120.117	93.5018	120.117	93.4605	120.117	93.4594
124.512	94.1928	124.512	94.1979	124.512	94.1977	124.512	94.2127	124.512	94.2116	124.512	94.2354	124.512	94.2318	124.512	94.2627	124.512	94.2543	124.512	94.2904	124.512	94.274	124.512	94.3131	124.512	94.2848	124.512	94.3249	124.512	94.2809	124.512	94.3201	124.512	94.2567	124.512	94.2933	124.512	94.2084	124.512	94.2409	124.512	94.1343	124.512	94.1618	124.512	94.0358	124.512	94.0578	124.512	93.918	124.512	93.9347	124.512	93.7897	124.512	93.8016	124.512	93.6628	124.512	93.6707	124.512	93.551	124.512	93.5558	124.512	93.4674	124.512	93.4699	124.512	93.423	124.512	93.4237
128.906	93.9966	128.906	94.0113	128.906	93.9979	128.906	94.0413	128.906	94.0146	128.906	94.0842	128.906	94.044	128.906	94.1364	128.906	94.0821	128.906	94.1929	128.906	94.1235	128.906	94.2477	128.906	94.1615	128.906	94.2944	128.906	94.1894	128.906	94.3261	128.906	94.2007	128.906	94.3369	128.906	94.1905	128.906	94.3223	128.906	94.1563	128.906	94.2804	128.906	94.0986	128.906	94.2122	128.906	94.0217	128.906	94.1223	128.906	93.9331	128.906	94.0186	128.906	93.8431	128.906	93.9117	128.906	93.7637	128.906	93.8138	128.906	93.7063	128.906	93.7368	128.906	93.6802	128.906	93.6904
133.301	93.9814	133.301	93.9971	133.301	93.9802	133.301	94.0266	133.301	93.9925	133.301	94.068	133.301	94.016	133.301	94.118	133.301	94.0467	133.301	94.1719	133.301	94.0797	133.301	94.224	133.301	94.1088	133.301	94.2678	133.301	94.1277	133.301	94.2968	133.301	94.1303	133.301	94.3049	133.301	94.1119	133.301	94.2877	133.301	94.0702	133.301	94.2426	133.301	94.0056	133.301	94.1702	133.301	93.9222	133.301	94.074	133.301	93.8277	133.301	93.9616	133.301	93.7327	133.301	93.8435	133.301	93.6499	133.301	93.7329	133.301	93.592	133.301	93.6434	133.301	93.5691	133.301	93.5865
139.16	93.993	139.16	94.0077	139.16	93.9883	139.16	94.0318	139.16	93.9933	139.16	94.0641	139.16	94.0067	139.16	94.1026	139.16	94.0259	139.16	94.144	139.16	94.0471	139.16	94.1842	139.16	94.065	139.16	94.2179	139.16	94.0734	139.16	94.239	139.16	94.0663	139.16	94.2416	139.16	94.0385	139.16	94.2204	139.16	93.9872	139.16	94.172	139.16	93.9125	139.16	94.0956	139.16	93.819	139.16	93.9943	139.16	93.7149	139.16	93.8751	139.16	93.6121	139.16	93.7488	139.16	93.5243	139.16	93.6294	139.16	93.4649	139.16	93.5311	139.16	93.4441	139.16	93.4667
143.555	93.9829	143.555	93.988	143.555	93.9836	143.555	93.9988	143.555	93.9899	143.555	94.0148	143.555	94.001	143.555	94.0346	143.555	94.0153	143.555	94.0565	143.555	94.0298	143.555	94.0773	143.555	94.0402	143.555	94.0928	143.555	94.0415	143.555	94.0978	143.555	94.0279	143.555	94.0866	143.555	93.9945	143.555	94.0539	143.555	93.9381	143.555	93.9958	143.555	93.8582	143.555	93.9115	143.555	93.758	143.555	93.8042	143.555	93.6446	143.555	93.6818	143.555	93.529	143.555	93.5562	143.555	93.4245	143.555	93.4423	143.555	93.3454	143.555	93.3551	143.555	93.3037	143.555	93.3068
147.949	93.9071	147.949	93.9078	147.949	93.9116	147.949	93.9133	147.949	93.9214	147.949	93.9226	147.949	93.9358	147.949	93.9342	147.949	93.953	147.949	93.9457	147.949	93.9703	147.949	93.9542	147.949	93.9835	147.949	93.9557	147.949	93.9875	147.949	93.9456	147.949	93.9771	147.949	93.9193	147.949	93.9475	147.949	93.8728	147.949	93.8951	147.949	93.8037	147.949	93.8189	147.949	93.7127	147.949	93.7207	147.949	93.6045	147.949	93.6063	147.949	93.4878	147.949	93.4853	147.949	93.3749	147.949	93.3702	147.949	93.2798	147.949	93.2751	147.949	93.2156	147.949	93.2127	147.949	93.1919
153.809	93.8069	153.809	93.8144	153.809	93.8042	153.809	93.8263	153.809	93.8059	153.809	93.8413	153.809	93.8107	153.809	93.8572	153.809	93.8167	153.809	93.8709	153.809	93.8207	153.809	93.8785	153.809	93.8186	153.809	93.8755	153.809	93.806	153.809	93.8572	153.809	93.7783	153.809	93.8197	153.809	93.7318	153.809	93.7597	153.809	93.6642	153.809	93.6763	153.809	93.5756	153.809	93.5712	153.809	93.469	153.809	93.4498	153.809	93.3507	153.809	93.3208	153.809	93.2307	153.809	93.1964	153.809	93.1213	153.809	93.0899	153.809	93.0356	153.809	93.0137	153.809	92.9852	153.809	92.9773
159.668	93.601	159.668	93.6025	159.668	93.607	159.668	93.6112	159.668	93.6195	159.668	93.6263	159.668	93.6368	159.668	93.6451	159.668	93.6563	159.668	93.6639	159.668	93.6743	159.668	93.6776	159.668	93.6861	159.668	93.6805	159.668	93.6865	159.668	93.6672	159.668	93.6708	159.668	93.6333	159.668	93.6354	159.668	93.5767	159.668	93.5788	159.668	93.4981	159.668	93.5019	159.668	93.4015	159.668	93.4086	159.668	93.294	159.668	93.3052	159.668	93.1856	159.668	93.1999	159.668	93.0871	159.668	93.1024	159.668	93.0094	159.668	93.0222	159.668	92.9609	159.668	92.9682	159.668	92.9468
165.527	93.5202	165.527	93.5138	165.527	93.5324	165.527	93.5143	165.527	93.5495	165.527	93.5227	165.527	93.5705	165.527	93.539	165.527	93.5939	165.527	93.5619	165.527	93.6172	165.527	93.5873	165.527	93.6365	165.527	93.6093	165.527	93.6465	165.527	93.6205	165.527	93.6415	165.527	93.6135	165.527	93.6161	165.527	93.583	165.527	93.5672	165.527	93.5268	165.527	93.4943	165.527	93.4467	165.527	93.4011	165.527	93.3483	165.527	93.2949	165.527	93.2409	165.527	93.1861	165.527	93.136	165.527	93.0871	165.527	93.0462	165.527	93.0095	165.527	92.9828	165.527	92.9631	165.527	92.9538
171.387	93.4622	171.387	93.437	171.387	93.4856	171.387	93.41	171.387	93.5077	171.387	93.3828	171.387	93.5294	171.387	93.3577	171.387	93.5509	171.387	93.3372	171.387	93.5709	171.387	93.3226	171.387	93.5865	171.387	93.3128	171.387	93.5927	171.387	93.3044	171.387	93.5837	171.387	93.2914	171.387	93.5538	171.387	93.2675	171.387	93.4989	171.387	93.2275	171.387	93.418	171.387	93.1692	171.387	93.3143	171.387	93.0942	171.387	93.1953	171.387	93.0089	171.387	93.072	171.387	92.9231	171.387	92.9576	171.387	92.8491	171.387	92.865	171.387	92.799	171.387	92.8047	171.387	92.7825
177.246	93.6166	177.246	93.639	177.246	93.5806	177.246	93.6457	177.246	93.5342	177.246	93.6359	177.246	93.481	177.246	93.6093	177.246	93.4249	177.246	93.566	177.246	93.3686	177.246	93.5061	177.246	93.313	177.246	93.4293	177.246	93.2568	177.246	93.3354	177.246	93.1965	177.246	93.2242	177.246	93.1276	177.246	93.0963	177.246	93.0453	177.246	92.9541	177.246	92.9472	177.246	92.8027	177.246	92.8334	177.246	92.6498	177.246	92.708	177.246	92.5061	177.246	92.5786	177.246	92.3832	177.246	92.4557	177.246	92.2924	177.246	92.3507	177.246	92.2423	177.246	92.2747	177.246	92.2367
183.105	93.2021	183.105	93.2325	183.105	93.1684	183.105	93.2583	183.105	93.1327	183.105	93.2785	183.105	93.0961	183.105	93.2918	183.105	93.0587	183.105	93.2967	183.105	93.019	183.105	93.2906	183.105	92.9742	183.105	93.27	183.105	92.9194	183.105	93.2303	183.105	92.8495	183.105	93.1669	183.105	92.76	183.105	93.0762	183.105	92.6487	183.105	92.9567	183.105	92.5175	183.105	92.8103	183.105	92.373	183.105	92.643	183.105	92.2262	183.105	92.4651	183.105	92.0915	183.105	92.2901	183.105	91.9836	183.105	92.133	183.105	91.9153	183.105	92.0081	183.105	91.8951	183.105	91.9266
188.965	93.0713	188.965	93.0966	188.965	93.0372	188.965	93.1128	188.965	92.9957	188.965	93.1204	188.965	92.9489	188.965	93.1205	188.965	92.8995	188.965	93.1134	188.965	92.8495	188.965	93.0988	188.965	92.7999	188.965	93.0748	188.965	92.7493	188.965	93.0379	188.965	92.6944	188.965	92.984	188.965	92.6304	188.965	92.9097	188.965	92.5529	188.965	92.813	188.965	92.4598	188.965	92.6953	188.965	92.3533	188.965	92.5613	188.965	92.2406	188.965	92.4189	188.965	92.133	188.965	92.279	188.965	92.0436	188.965	92.1534	188.965	91.9849	188.965	92.0535	188.965	91.9654	188.965	91.9888
196.289	93.0088	196.289	93.0145	196.289	92.9885	196.289	93.0069	196.289	92.9535	196.289	92.9882	196.289	92.9049	196.289	92.9605	196.289	92.8446	196.289	92.9253	196.289	92.7747	196.289	92.883	196.289	92.6969	196.289	92.8323	196.289	92.6117	196.289	92.7703	196.289	92.5185	196.289	92.6933	196.289	92.4163	196.289	92.598	196.289	92.304	196.289	92.4824	196.289	92.1817	196.289	92.348	196.289	92.0523	196.289	92.1997	196.289	91.9218	196.289	92.046	196.289	91.7996	196.289	91.8985	196.289	91.6974	196.289	91.7693	196.289	91.6266	196.289	91.6704	196.289	91.5962	196.289	91.6109
203.613	92.8967	203.613	92.8932	203.613	92.8769	203.613	92.8677	203.613	92.835	203.613	92.8234	203.613	92.7741	203.613	92.7652	203.613	92.6981	203.613	92.698	203.613	92.6108	203.613	92.6255	203.613	92.5154	203.613	92.5486	203.613	92.4133	203.613	92.4655	203.613	92.3046	203.613	92.3724	203.613	92.1884	203.613	92.2654	203.613	92.064	203.613	92.1425	203.613	91.9324	203.613	92.0055	203.613	91.7971	203.613	91.8607	203.613	91.6649	203.613	91.7178	203.613	91.5452	203.613	91.5876	203.613	91.4477	203.613	91.4798	203.613	91.381	203.613	91.4015	203.613	91.3503	203.613	91.3574
210.938	92.6929	210.938	92.6846	210.938	92.6849	210.938	92.6606	210.938	92.6613	210.938	92.6222	210.938	92.6232	210.938	92.5717	210.938	92.572	210.938	92.5105	210.938	92.5087	210.938	92.4389	210.938	92.4336	210.938	92.3554	210.938	92.3466	210.938	92.2573	210.938	92.2472	210.938	92.1424	210.938	92.1353	210.938	92.0102	210.938	92.0112	210.938	91.8641	210.938	91.8768	210.938	91.711	210.938	91.7358	210.938	91.5608	210.938	91.5945	210.938	91.4244	210.938	91.4609	210.938	91.3114	210.938	91.3442	210.938	91.2287	210.938	91.2528	210.938	91.1804	210.938	91.193	210.938	91.1684
218.262	92.3264	218.262	92.3088	218.262	92.3268	218.262	92.2739	218.262	92.312	218.262	92.2238	218.262	92.2843	218.262	92.1635	218.262	92.2456	218.262	92.0991	218.262	92.1971	218.262	92.0354	218.262	92.1388	218.262	91.9737	218.262	92.0702	218.262	91.9103	218.262	91.9907	218.262	91.8387	218.262	91.9003	218.262	91.7535	218.262	91.8003	218.262	91.6542	218.262	91.6942	218.262	91.5467	218.262	91.5872	218.262	91.4417	218.262	91.4858	218.262	91.3504	218.262	91.396	218.262	91.2808	218.262	91.3224	218.262	91.2357	218.262	91.2672	218.262	91.2139	218.262	91.2308	218.262	91.2129
225.586	92.2723	225.586	92.3047	225.586	92.2109	225.586	92.3062	225.586	92.125	225.586	92.2773	225.586	92.021	225.586	92.2211	225.586	91.9061	225.586	92.1433	225.586	91.7867	225.586	92.0516	225.586	91.668	225.586	91.9543	225.586	91.5525	225.586	91.8568	225.586	91.4414	225.586	91.7602	225.586	91.3344	225.586	91.6615	225.586	91.2322	225.586	91.5572	225.586	91.1364	225.586	91.4471	225.586	91.0514	225.586	91.3365	225.586	90.9829	225.586	91.2338	225.586	90.9366	225.586	91.146	225.586	90.9154	225.586	91.0753	225.586	90.918	225.586	91.0194	225.586	90.9396	225.586	90.9745
232.91	92.2811	232.91	92.2671	232.91	92.2639	232.91	92.2246	232.91	92.2151	232.91	92.1583	232.91	92.136	232.91	92.0734	232.91	92.0292	232.91	91.9749	232.91	91.8972	232.91	91.8671	232.91	91.742	232.91	91.7524	232.91	91.5658	232.91	91.6317	232.91	91.372	232.91	91.5044	232.91	91.1668	232.91	91.3692	232.91	90.9602	232.91	91.2264	232.91	90.7654	232.91	91.0792	232.91	90.597	232.91	90.935	232.91	90.4679	232.91	90.8026	232.91	90.3859	232.91	90.6888	232.91	90.3519	232.91	90.5947	232.91	90.3588	232.91	90.5167	232.91	90.3954	232.91	90.4502
241.699	92.0147	241.699	91.9975	241.699	92.0016	241.699	91.9498	241.699	91.9607	241.699	91.8736	241.699	91.8959	241.699	91.7735	241.699	91.8117	241.699	91.655	241.699	91.7117	241.699	91.5237	241.699	91.5973	241.699	91.3831	241.699	91.4672	241.699	91.2341	241.699	91.3184	241.699	91.0757	241.699	91.1486	241.699	90.9072	241.699	90.9591	241.699	90.7313	241.699	90.7571	241.699	90.5548	241.699	90.5557	241.699	90.3881	241.699	90.3714	241.699	90.2425	241.699	90.2191	241.699	90.1274	241.699	90.107	241.699	90.0473	241.699	90.0344	241.699	90.0013	241.699	89.9957	241.699	89.9851
250.488	91.9252	250.488	91.932	250.488	91.8765	250.488	91.8948	250.488	91.7911	250.488	91.8153	250.488	91.6773	250.488	91.6981	250.488	91.5449	250.488	91.5505	250.488	91.4038	250.488	91.3822	250.488	91.2616	250.488	91.2041	250.488	91.122	250.488	91.0258	250.488	90.984	250.488	90.8525	250.488	90.8435	250.488	90.683	250.488	90.6953	250.488	90.5117	250.488	90.5368	250.488	90.3341	250.488	90.3703	250.488	90.1533	250.488	90.2035	250.488	89.9821	250.488	90.0475	250.488	89.8393	250.488	89.913	250.488	89.7409	250.488	89.807	250.488	89.6932	250.488	89.7327	250.488	89.6929
259.277	91.7025	259.277	91.7398	259.277	91.6236	259.277	91.7348	259.277	91.5081	259.277	91.6906	259.277	91.3652	259.277	91.6123	259.277	91.2073	259.277	91.5057	259.277	91.0478	259.277	91.3762	259.277	90.8992	259.277	91.2284	259.277	90.7703	259.277	91.0678	259.277	90.6633	259.277	90.9017	259.277	90.5722	259.277	90.7397	259.277	90.4847	259.277	90.5899	259.277	90.3888	259.277	90.4552	259.277	90.2791	259.277	90.3317	259.277	90.1607	259.277	90.2133	259.277	90.0466	259.277	90.099	259.277	89.9515	259.277	89.9957	259.277	89.8866	259.277	89.9151	259.277	89.8578	259.277	89.8675
268.066	91.4896	268.066	91.4787	268.066	91.437	268.066	91.4146	268.066	91.3185	268.066	91.3133	268.066	91.1392	268.066	91.1945	268.066	90.9118	268.066	91.0769	268.066	90.6549	268.066	90.9734	268.066	90.3916	268.066	90.8868	268.066	90.1463	268.066	90.8097	268.066	89.9404	268.066	90.7305	268.066	89.7854	268.066	90.6408	268.066	89.6786	268.066	90.5403	268.066	89.606	268.066	90.4342	268.066	89.5522	268.066	90.3264	268.066	89.5096	268.066	90.2145	268.066	89.482	268.066	90.0926	268.066	89.4797	268.066	89.9586	268.066	89.5125	268.066	89.8197	268.066	89.5838	268.066	89.6898
276.855	91.1856	276.855	91.1467	276.855	91.2037	276.855	91.0813	276.855	91.2016	276.855	90.9852	276.855	91.1709	276.855	90.8601	276.855	91.0938	276.855	90.7143	276.855	90.9484	276.855	90.56	276.855	90.7177	276.855	90.4097	276.855	90.3999	276.855	90.2731	276.855	90.0164	276.855	90.1562	276.855	89.6127	276.855	90.0618	276.855	89.2478	276.855	89.9883	276.855	88.9722	276.855	89.9307	276.855	88.8079	276.855	89.879	276.855	88.7457	276.855	89.819	276.855	88.7615	276.855	89.7343	276.855	88.8346	276.855	89.6138	276.855	88.9528	276.855	89.4583	276.855	89.1067	276.855	89.2821
287.109	90.8727	287.109	90.7918	287.109	90.9031	287.109	90.6594	287.109	90.8893	287.109	90.4772	287.109	90.8446	287.109	90.2513	287.109	90.7879	287.109	89.9981	287.109	90.7355	287.109	89.749	287.109	90.6935	287.109	89.5448	287.109	90.6537	287.109	89.4173	287.109	90.5972	287.109	89.3693	287.109	90.5052	287.109	89.3749	287.109	90.3695	287.109	89.4002	287.109	90.1978	287.109	89.4253	287.109	90.0123	287.109	89.4498	287.109	89.8408	287.109	89.4824	287.109	89.7079	287.109	89.5258	287.109	89.6267	287.109	89.5701	287.109	89.5953	287.109	89.5994	287.109	89.5967	287.109	89.6055
297.363	91.2797	297.363	91.2523	297.363	91.2196	297.363	91.1433	297.363	91.0748	297.363	90.966	297.363	90.8565	297.363	90.7373	297.363	90.583	297.363	90.4743	297.363	90.2801	297.363	90.1931	297.363	89.9814	297.363	89.9114	297.363	89.7255	297.363	89.6506	297.363	89.5452	297.363	89.4342	297.363	89.4551	297.363	89.2822	297.363	89.4471	297.363	89.2051	297.363	89.4985	297.363	89.2046	297.363	89.5866	297.363	89.2768	297.363	89.6962	297.363	89.4125	297.363	89.8162	297.363	89.5918	297.363	89.9323	297.363	89.7814	297.363	90.0239	297.363	89.9418	297.363	90.0669	297.363	90.0415
307.617	91.6278	307.617	91.5492	307.617	91.6122	307.617	91.3726	307.617	91.5093	307.617	91.1007	307.617	91.3288	307.617	90.745	307.617	91.0827	307.617	90.3285	307.617	90.7859	307.617	89.8845	307.617	90.4576	307.617	89.4528	307.617	90.1228	307.617	89.0747	307.617	89.8115	307.617	88.7859	307.617	89.5547	307.617	88.6087	307.617	89.3768	307.617	88.546	307.617	89.289	307.617	88.5827	307.617	89.2871	307.617	88.6933	307.617	89.3516	307.617	88.8502	307.617	89.4502	307.617	89.0294	307.617	89.5435	307.617	89.211	307.617	89.5956	307.617	89.3768	307.617	89.5847	307.617	89.5077
319.336	91.5804	319.336	91.5491	319.336	91.5011	319.336	91.4057	319.336	91.3184	319.336	91.1526	319.336	91.0467	319.336	90.794	319.336	90.7067	319.336	90.3362	319.336	90.3244	319.336	89.7911	319.336	89.9303	319.336	89.1831	319.336	89.5588	319.336	88.5577	319.336	89.2446	319.336	87.9875	319.336	89.0148	319.336	87.5625	319.336	88.8797	319.336	87.3557	319.336	88.83	319.336	87.3837	319.336	88.8431	319.336	87.6	319.336	88.8935	319.336	87.9258	319.336	88.9591	319.336	88.2819	319.336	89.0218	319.336	88.6041	319.336	89.0643	319.336	88.8495	319.336	89.0655	319.336	89.0011
329.59	91.0816	329.59	91.0817	329.59	91.0382	329.59	91.0402	329.59	90.9405	329.59	90.9468	329.59	90.7751	329.59	90.7844	329.59	90.5344	329.59	90.5369	329.59	90.2184	329.59	90.1953	329.59	89.8358	329.59	89.762	329.59	89.404	329.59	89.2563	329.59	88.9524	329.59	88.7246	329.59	88.5222	329.59	88.246	329.59	88.1597	329.59	87.9176	329.59	87.9055	329.59	87.8072	329.59	87.7839	329.59	87.9041	329.59	87.7975	329.59	88.1233	329.59	87.9238	329.59	88.3605	329.59	88.1182	329.59	88.5392	329.59	88.3266	329.59	88.6233	329.59	88.5009	329.59	88.607
341.309	91.0928	341.309	91.0986	341.309	90.9954	341.309	91.0208	341.309	90.8046	341.309	90.8715	341.309	90.5262	341.309	90.6615	341.309	90.1721	341.309	90.3971	341.309	89.7605	341.309	90.079	341.309	89.3156	341.309	89.7041	341.309	88.8701	341.309	89.267	341.309	88.4663	341.309	88.7658	341.309	88.1523	341.309	88.2174	341.309	87.9683	341.309	87.6813	341.309	87.9268	341.309	87.2689	341.309	88.0039	341.309	87.0975	341.309	88.149	341.309	87.1984	341.309	88.3043	341.309	87.4838	341.309	88.4219	341.309	87.8215	341.309	88.4725	341.309	88.1153	341.309	88.4422	341.309	88.3245
353.027	90.899	353.027	90.9498	353.027	90.8065	353.027	90.9406	353.027	90.6787	353.027	90.8459	353.027	90.5091	353.027	90.6425	353.027	90.2806	353.027	90.3206	353.027	89.9711	353.027	89.894	353.027	89.5618	353.027	89.3982	353.027	89.0439	353.027	88.8774	353.027	88.4284	353.027	88.3677	353.027	87.7589	353.027	87.8957	353.027	87.1232	353.027	87.4938	353.027	86.6441	353.027	87.2121	353.027	86.4303	353.027	87.1033	353.027	86.5084	353.027	87.1844	353.027	86.8066	353.027	87.4094	353.027	87.2031	353.027	87.6806	353.027	87.5804	353.027	87.89	353.027	87.8498	353.027	87.9575
366.211	91.0256	366.211	90.8706	366.211	91.0588	366.211	90.6043	366.211	90.9764	366.211	90.2565	366.211	90.7913	366.211	89.8669	366.211	90.5169	366.211	89.4656	366.211	90.1665	366.211	89.0619	366.211	89.756	366.211	88.6525	366.211	89.3038	366.211	88.243	366.211	88.827	366.211	87.8588	366.211	88.3425	366.211	87.5352	366.211	87.8753	366.211	87.2968	366.211	87.4672	366.211	87.1518	366.211	87.171	366.211	87.0981	366.211	87.0273	366.211	87.1281	366.211	87.0387	366.211	87.2242	366.211	87.1636	366.211	87.3526	366.211	87.3299	366.211	87.4649	366.211	87.4627	366.211	87.5111
379.395	91.0031	379.395	91.0114	379.395	90.9349	379.395	90.9588	379.395	90.8043	379.395	90.8302	379.395	90.6146	379.395	90.5972	379.395	90.3741	379.395	90.2324	379.395	90.0866	379.395	89.7262	379.395	89.7488	379.395	89.0967	379.395	89.3568	379.395	88.3895	379.395	88.9199	379.395	87.673	379.395	88.4716	379.395	87.0373	379.395	88.0722	379.395	86.5895	379.395	87.7939	379.395	86.4225	379.395	87.6846	379.395	86.5521	379.395	87.7322	379.395	86.8859	379.395	87.869	379.395	87.2806	379.395	88.0119	379.395	87.6263	379.395	88.1009	379.395	87.8786	379.395	88.1105	379.395	88.037
392.578	91.0877	392.578	91.0985	392.578	90.9887	392.578	91.0274	392.578	90.796	392.578	90.8811	392.578	90.5064	392.578	90.664	392.578	90.1234	392.578	90.3736	392.578	89.6628	392.578	90.0011	392.578	89.1549	392.578	89.5377	392.578	88.6414	392.578	88.9858	392.578	88.1637	392.578	88.3712	392.578	87.7534	392.578	87.7484	392.578	87.4357	392.578	87.2003	392.578	87.2457	392.578	86.8284	392.578	87.2281	392.578	86.7246	392.578	87.3992	392.578	86.9133	392.578	87.7096	392.578	87.3121	392.578	88.0571	392.578	87.7749	392.578	88.3348	392.578	88.1691	392.578	88.4659	392.578	88.4114
405.762	91.2585	405.762	91.2371	405.762	91.1736	405.762	91.103	405.762	90.9897	405.762	90.8618	405.762	90.7064	405.762	90.5347	405.762	90.3139	405.762	90.1473	405.762	89.8	405.762	89.7104	405.762	89.1618	405.762	89.2103	405.762	88.4203	405.762	88.6252	405.762	87.642	405.762	87.9636	405.762	86.9541	405.762	87.2973	405.762	86.5158	405.762	86.7565	405.762	86.4261	405.762	86.4634	405.762	86.6464	405.762	86.4497	405.762	87.0389	405.762	86.6555	405.762	87.461	405.762	86.9932	405.762	87.813	405.762	87.3817	405.762	88.0371	405.762	87.7415	405.762	88.1024	405.762	87.9983
420.41	91.2991	420.41	91.2953	420.41	91.2264	420.41	91.2178	420.41	91.0698	420.41	91.0514	420.41	90.8315	420.41	90.7703	420.41	90.5224	420.41	90.3592	420.41	90.1465	420.41	89.8295	420.41	89.6875	420.41	89.2103	420.41	89.1108	420.41	88.5224	420.41	88.3828	420.41	87.7735	420.41	87.5041	420.41	87.0069	420.41	86.552	420.41	86.3738	420.41	85.7112	420.41	86.1059	420.41	85.2277	420.41	86.2978	420.41	85.2409	420.41	86.7744	420.41	85.6586	420.41	87.2713	420.41	86.2594	420.41	87.6163	420.41	86.8544	420.41	87.7417	420.41	87.3338	420.41	87.6408
435.059	90.664	435.059	90.612	435.059	90.667	435.059	90.5155	435.059	90.6103	435.059	90.3649	435.059	90.4778	435.059	90.1299	435.059	90.247	435.059	89.767	435.059	89.8961	435.059	89.2436	435.059	89.4169	435.059	88.5607	435.059	88.8211	435.059	87.7546	435.059	88.1361	435.059	86.8779	435.059	87.4006	435.059	85.9911	435.059	86.6812	435.059	85.2007	435.059	86.1025	435.059	84.7181	435.059	85.8321	435.059	84.7871	435.059	85.9652	435.059	85.4186	435.059	86.4167	435.059	86.3147	435.059	86.9853	435.059	87.1327	435.059	87.4898	435.059	87.6777	435.059	87.8173	435.059	87.8976
451.172	91.1942	451.172	91.1098	451.172	91.1474	451.172	90.9137	451.172	90.9657	451.172	90.6344	451.172	90.6645	451.172	90.3045	451.172	90.2678	451.172	89.9515	451.172	89.7888	451.172	89.5792	451.172	89.2207	451.172	89.1501	451.172	88.5507	451.172	88.5948	451.172	87.7857	451.172	87.8532	451.172	86.9734	451.172	86.9228	451.172	86.2152	451.172	85.9022	451.172	85.6564	451.172	85.0263	451.172	85.4182	451.172	84.6156	451.172	85.5041	451.172	84.8138	451.172	85.8049	451.172	85.4005	451.172	86.1855	451.172	86.0349	451.172	86.5287	451.172	86.5071	451.172	86.7376	451.172	86.7426
465.82	90.905	465.82	90.9336	465.82	90.8056	465.82	90.8599	465.82	90.6597	465.82	90.6721	465.82	90.4637	465.82	90.3848	465.82	90.1904	465.82	90.0158	465.82	89.8081	465.82	89.5585	465.82	89.2958	465.82	88.9795	465.82	88.6501	465.82	88.2479	465.82	87.8854	465.82	87.3729	465.82	87.0338	465.82	86.4215	465.82	86.1541	465.82	85.5201	465.82	85.3645	465.82	84.8449	465.82	84.8704	465.82	84.5723	465.82	84.8611	465.82	84.7606	465.82	85.2883	465.82	85.2742	465.82	85.8814	465.82	85.8771	465.82	86.3822	465.82	86.3722	465.82	86.6526	465.82	86.6471
483.398	90.7047	483.398	90.7234	483.398	90.6498	483.398	90.7098	483.398	90.5502	483.398	90.6504	483.398	90.398	483.398	90.5156	483.398	90.1794	483.398	90.2786	483.398	89.8702	483.398	89.9312	483.398	89.439	483.398	89.471	483.398	88.8494	483.398	88.8711	483.398	88.0653	483.398	88.0717	483.398	87.0708	483.398	87.0187	483.398	85.9207	483.398	85.755	483.398	84.8324	483.398	84.5629	483.398	84.2185	483.398	83.972	483.398	84.3666	483.398	84.2394	483.398	85.0466	483.398	84.9983	483.398	85.8125	483.398	85.7903	483.398	86.3955	483.398	86.3843	483.398	86.6988	483.398	86.6957
499.512	90.4465	499.512	90.4442	499.512	90.3739	499.512	90.3917	499.512	90.2026	499.512	90.2739	499.512	89.9482	499.512	90.0428	499.512	89.6539	499.512	89.6695	499.512	89.3367	499.512	89.1855	499.512	88.9612	499.512	88.6691	499.512	88.4791	499.512	88.1789	499.512	87.8864	499.512	87.695	499.512	87.2245	499.512	87.132	499.512	86.5232	499.512	86.4173	499.512	85.7721	499.512	85.5898	499.512	85.017	499.512	84.8789	499.512	84.4936	499.512	84.6301	499.512	84.5023	499.512	84.958	499.512	85.0185	499.512	85.5768	499.512	85.6897	499.512	86.1122	499.512	86.1866	499.512	86.3403
517.09	90.4084	517.09	90.2737	517.09	90.405	517.09	90.0327	517.09	90.2589	517.09	89.7471	517.09	89.9909	517.09	89.4818	517.09	89.6475	517.09	89.2497	517.09	89.2865	517.09	88.9891	517.09	88.9411	517.09	88.6089	517.09	88.5817	517.09	88.0521	517.09	88.1181	517.09	87.3264	517.09	87.4619	517.09	86.4939	517.09	86.6147	517.09	85.6522	517.09	85.7274	517.09	84.9564	517.09	85.063	517.09	84.6295	517.09	84.82	517.09	84.81	517.09	84.9855	517.09	85.3585	517.09	85.4087	517.09	85.968	517.09	85.9151	517.09	86.3935	517.09	86.333	517.09	86.5185
536.133	90.9945	536.133	90.9839	536.133	90.8256	536.133	90.7959	536.133	90.5036	536.133	90.4483	536.133	90.065	536.133	89.9655	536.133	89.5168	536.133	89.3872	536.133	88.8357	536.133	88.7654	536.133	88.0177	536.133	88.1371	536.133	87.1241	536.133	87.4921	536.133	86.2702	536.133	86.7767	536.133	85.5708	536.133	85.9525	536.133	85.0918	536.133	85.1046	536.133	84.8492	536.133	84.5073	536.133	84.8431	536.133	84.4196	536.133	85.0774	536.133	84.7463	536.133	85.5191	536.133	85.1874	536.133	86.0309	536.133	85.5874	536.133	86.4006	536.133	85.9544	536.133	86.4812	536.133	86.2881
555.176	91.3262	555.176	91.2967	555.176	91.3003	555.176	91.2085	555.176	91.212	555.176	91.0518	555.176	91.0264	555.176	90.7874	555.176	90.6854	555.176	90.3411	555.176	90.1388	555.176	89.658	555.176	89.3804	555.176	88.777	555.176	88.4653	555.176	87.8318	555.176	87.4795	555.176	86.9374	555.176	86.4639	555.176	86.0992	555.176	85.4038	555.176	85.306	555.176	84.4116	555.176	84.6634	555.176	83.9052	555.176	84.335	555.176	84.156	555.176	84.4192	555.176	84.7907	555.176	84.9033	555.176	85.3881	555.176	85.5949	555.176	85.8648	555.176	86.1671	555.176	86.2329	555.176	86.383
574.219	91.7154	574.219	91.6253	574.219	91.6697	574.219	91.4431	574.219	91.4688	574.219	91.1996	574.219	91.1531	574.219	90.9138	574.219	90.797	574.219	90.5897	574.219	90.4215	574.219	90.1675	574.219	89.9415	574.219	89.5014	574.219	89.2268	574.219	88.4514	574.219	88.2226	574.219	87.0498	574.219	87.0338	574.219	85.6022	574.219	85.8998	574.219	84.4958	574.219	85.0551	574.219	83.9125	574.219	84.6781	574.219	84.0405	574.219	84.8914	574.219	84.909	574.219	85.5848	574.219	86.0208	574.219	86.4422	574.219	86.9345	574.219	87.1903	574.219	87.5284	574.219	87.6647	574.219	87.781
594.727	91.1477	594.727	91.2468	594.727	90.9724	594.727	91.2334	594.727	90.7438	594.727	91.0892	594.727	90.4625	594.727	90.8125	594.727	90.1339	594.727	90.4003	594.727	89.7616	594.727	89.8684	594.727	89.3021	594.727	89.2647	594.727	88.6793	594.727	88.5862	594.727	87.858	594.727	87.6955	594.727	86.861	594.727	86.4347	594.727	85.7293	594.727	84.9309	594.727	84.5983	594.727	83.8915	594.727	83.9503	594.727	84.0732	594.727	84.3287	594.727	85.1409	594.727	85.3957	594.727	86.3709	594.727	86.4636	594.727	87.3924	594.727	87.2866	594.727	88.0133	594.727	87.8659	594.727	88.1506
615.234	91.2984	615.234	91.366	615.234	91.1891	615.234	91.3601	615.234	91.0408	615.234	91.2431	615.234	90.8204	615.234	90.9951	615.234	90.484	615.234	90.6263	615.234	90.0027	615.234	90.158	615.234	89.3443	615.234	89.5676	615.234	88.4469	615.234	88.7628	615.234	87.2419	615.234	87.6433	615.234	85.7356	615.234	86.1726	615.234	84.1346	615.234	84.3968	615.234	82.9623	615.234	82.6211	615.234	82.8446	615.234	81.7687	615.234	83.728	615.234	82.4111	615.234	84.9485	615.234	83.744	615.234	86.0372	615.234	85.051	615.234	86.781	615.234	86.0957	615.234	87.0443	615.234	86.7905
637.207	91.3174	637.207	91.1852	637.207	91.348	637.207	91.0424	637.207	91.2395	637.207	90.9316	637.207	91.0282	637.207	90.8194	637.207	90.7345	637.207	90.6523	637.207	90.327	637.207	90.3842	637.207	89.7979	637.207	89.9724	637.207	89.1818	637.207	89.3729	637.207	88.4603	637.207	88.5112	637.207	87.4984	637.207	87.2729	637.207	86.1175	637.207	85.5922	637.207	84.3609	637.207	83.7228	637.207	82.9803	637.207	82.6669	637.207	83.0669	637.207	83.3115	637.207	84.2044	637.207	84.7694	637.207	85.3767	637.207	86.0008	637.207	86.2276	637.207	86.7072	637.207	86.7395	637.207	86.9196
659.18	91.1325	659.18	90.9634	659.18	91.1093	659.18	90.6348	659.18	90.9014	659.18	90.2839	659.18	90.5391	659.18	90.041	659.18	90.1214	659.18	89.8342	659.18	89.729	659.18	89.472	659.18	89.2901	659.18	88.8466	659.18	88.6632	659.18	87.9602	659.18	87.7766	659.18	86.8959	659.18	86.6089	659.18	85.7865	659.18	85.1772	659.18	84.6791	659.18	83.642	659.18	83.6201	659.18	82.4805	659.18	83.2159	659.18	82.5286	659.18	84.0928	659.18	83.8789	659.18	85.4163	659.18	85.4691	659.18	86.4009	659.18	86.6042	659.18	87.0044	659.18	87.1867	659.18	87.2889
682.617	91.0136	682.617	91.1581	682.617	90.6779	682.617	91.1063	682.617	90.2533	682.617	90.8814	682.617	89.8894	682.617	90.55	682.617	89.6118	682.617	90.2119	682.617	89.333	682.617	89.8623	682.617	88.9552	682.617	89.3968	682.617	88.3413	682.617	88.7133	682.617	87.3546	682.617	87.6521	682.617	85.9741	682.617	86.0651	682.617	84.3081	682.617	84.1927	682.617	82.695	682.617	82.8718	682.617	81.9202	682.617	82.7788	682.617	82.4968	682.617	83.5406	682.617	83.8816	682.617	84.6243	682.617	85.3447	682.617	85.8159	682.617	86.4668	682.617	86.7762	682.617	87.0969	682.617	87.2135
707.52	91.3158	707.52	91.352	707.52	91.1974	707.52	91.1899	707.52	91.0286	707.52	90.8059	707.52	90.7567	707.52	90.3468	707.52	90.3837	707.52	90.0195	707.52	89.9464	707.52	89.851	707.52	89.4281	707.52	89.594	707.52	88.8001	707.52	89.0379	707.52	87.9884	707.52	88.2468	707.52	86.7848	707.52	87.244	707.52	85.0407	707.52	85.6632	707.52	82.9083	707.52	83.2738	707.52	81.044	707.52	81.4629	707.52	81.0561	707.52	82.3769	707.52	82.8906	707.52	84.484	707.52	84.8614	707.52	86.309	707.52	86.4486	707.52	87.4804	707.52	87.5093	707.52	87.8819
732.422	91.5452	732.422	91.3296	732.422	91.6747	732.422	91.1398	732.422	91.5534	732.422	90.9675	732.422	91.097	732.422	90.6866	732.422	90.3865	732.422	90.1876	732.422	89.6185	732.422	89.5662	732.422	88.9022	732.422	88.9635	732.422	88.128	732.422	88.237	732.422	87.1804	732.422	87.1416	732.422	86.0458	732.422	85.6697	732.422	84.5529	732.422	83.9629	732.422	82.6264	732.422	82.3845	732.422	81.2742	732.422	81.8479	732.422	81.6825	732.422	82.7448	732.422	83.1758	732.422	84.4205	732.422	84.7033	732.422	85.9547	732.422	85.7488	732.422	86.7253	732.422	86.358	732.422	86.7335
757.324	91.5218	757.324	91.4548	757.324	91.2849	757.324	91.073	757.324	90.8564	757.324	90.5628	757.324	90.3334	757.324	90.2238	757.324	89.8077	757.324	90.0829	757.324	89.4356	757.324	89.7989	757.324	89.2004	757.324	89.1667	757.324	88.658	757.324	88.27	757.324	87.3387	757.324	87.1182	757.324	85.3	757.324	85.4782	757.324	83.2762	757.324	83.2479	757.324	81.9031	757.324	81.5564	757.324	81.4039	757.324	82.0228	757.324	82.113	757.324	83.3989	757.324	83.5651	757.324	84.6873	757.324	85.1308	757.324	85.6643	757.324	86.2681	757.324	86.2445	757.324	86.6742	757.324	86.5671
785.156	89.3291	785.156	89.9836	785.156	88.899	785.156	90.6014	785.156	88.7816	785.156	90.8906	785.156	88.8776	785.156	90.654	785.156	89.0412	785.156	90.0031	785.156	88.9926	785.156	89.3001	785.156	88.3264	785.156	88.4228	785.156	86.9944	785.156	86.7367	785.156	85.1648	785.156	83.7617	785.156	82.0355	785.156	78.718	785.156	75.7266	785.156	66.7588	785.156	73.9142	785.156	76.2398	785.156	78.2308	785.156	82.3836	785.156	81.1894	785.156	84.6999	785.156	83.7344	785.156	84.757	785.156	85.1306	785.156	84.0665	785.156	85.7145	785.156	84.5202	785.156	85.8951	785.156	85.4565
811.523	89.1353	811.523	89.3125	811.523	88.8469	811.523	89.0734	811.523	88.8513	811.523	88.5981	811.523	89.2231	811.523	88.6727	811.523	89.6581	811.523	89.3999	811.523	90.0232	811.523	89.8646	811.523	90.3521	811.523	89.8742	811.523	90.3881	811.523	89.5895	811.523	89.7431	811.523	88.4389	811.523	88.2059	811.523	85.5388	811.523	85.229	811.523	80.6162	811.523	79.2891	811.523	78.1642	811.523	76.1499	811.523	81.1355	811.523	81.6535	811.523	84.815	811.523	84.4342	811.523	87.6583	811.523	86.5224	811.523	89.112	811.523	88.272	811.523	89.4188	811.523	89.1179	811.523	89.3202
840.82	90.0177	840.82	89.7832	840.82	89.5542	840.82	89.0337	840.82	88.6941	840.82	88.2691	840.82	88.1517	840.82	87.9839	840.82	88.5405	840.82	88.716	840.82	89.8146	840.82	90.4023	840.82	91.1731	840.82	91.4802	840.82	91.8416	840.82	91.1147	840.82	91.3398	840.82	89.7429	840.82	89.214	840.82	87.8181	840.82	84.7562	840.82	84.6267	840.82	75.4852	840.82	81.8809	840.82	81.2778	840.82	86.3695	840.82	88.2618	840.82	90.4005	840.82	91.6142	840.82	92.563	840.82	93.0389	840.82	93.5484	840.82	93.6748	840.82	94.1099	840.82	94.2256	840.82	94.4381
870.117	94.158	870.117	94.2169	870.117	93.1409	870.117	93.1383	870.117	91.4575	870.117	91.0693	870.117	89.4436	870.117	88.5627	870.117	87.8779	870.117	86.569	870.117	88.2841	870.117	87.1782	870.117	90.6408	870.117	90.5286	870.117	92.9385	870.117	93.1532	870.117	94.1919	870.117	93.9825	870.117	94.2345	870.117	93.2271	870.117	92.8984	870.117	91.2622	870.117	89.752	870.117	88.0127	870.117	84.0443	870.117	83.3539	870.117	83.3756	870.117	86.1813	870.117	89.3064	870.117	91.3488	870.117	92.6785	870.117	94.2513	870.117	94.5402	870.117	95.6373	870.117	95.5765	870.117	95.9836
900.879	95.2795	900.879	95.5276	900.879	94.7985	900.879	95.1467	900.879	94.0023	900.879	93.8697	900.879	92.3257	900.879	91.7269	900.879	89.1341	900.879	88.9275	900.879	85.4181	900.879	87.1596	900.879	87.2175	900.879	88.9449	900.879	90.7577	900.879	91.3393	900.879	92.8781	900.879	93.0733	900.879	93.421	900.879	93.7913	900.879	92.4568	900.879	92.6122	900.879	89.8101	900.879	88.7673	900.879	84.6305	900.879	82.0288	900.879	84.6802	900.879	86.4243	900.879	90.785	900.879	92.0264	900.879	94.0839	900.879	94.796	900.879	95.7478	900.879	96.1521	900.879	96.5563	900.879	96.7047
933.105	95.9657	933.105	95.7226	933.105	95.7737	933.105	95.2545	933.105	94.9517	933.105	94.2854	933.105	93.4063	933.105	92.2371	933.105	90.8602	933.105	88.8262	933.105	86.3774	933.105	83.797	933.105	80.5597	933.105	83.6683	933.105	86.538	933.105	90.0223	933.105	90.9267	933.105	92.9679	933.105	92.9615	933.105	93.5389	933.105	93.3173	933.105	92.9195	933.105	92.1146	933.105	91.3671	933.105	89.5885	933.105	89.2473	933.105	87.9273	933.105	89.4553	933.105	90.3736	933.105	91.9247	933.105	93.3452	933.105	94.348	933.105	95.2656	933.105	95.8337	933.105	96.1425	933.105	96.3157
965.332	94.9219	965.332	95.0574	965.332	94.5831	965.332	95.074	965.332	94.226	965.332	94.9315	965.332	93.8445	965.332	94.2926	965.332	92.5889	965.332	92.7064	965.332	89.4584	965.332	89.7627	965.332	83.1989	965.332	84.0249	965.332	73.5785	965.332	73.0475	965.332	86.1227	965.332	87.6765	965.332	90.991	965.332	92.0524	965.332	92.7383	965.332	93.2575	965.332	92.5414	965.332	92.6127	965.332	91.4355	965.332	90.6464	965.332	90.3645	965.332	88.5878	965.332	90.2654	965.332	89.8878	965.332	91.4349	965.332	92.7248	965.332	92.9459	965.332	94.466	965.332	94.2384	965.332	94.8925
1,000.49	93.8376	1,000.49	93.4789	1,000.49	94.0829	1,000.49	93.3953	1,000.49	94.0842	1,000.49	93.6281	1,000.49	93.8447	1,000.49	93.5868	1,000.49	93.2232	1,000.49	92.8747	1,000.49	92.1092	1,000.49	91.5117	1,000.49	89.8697	1,000.49	88.7528	1,000.49	84.4578	1,000.49	84.6782	1,000.49	77.51	1,000.49	85.2833	1,000.49	85.8569	1,000.49	87.9239	1,000.49	90.0172	1,000.49	90.0853	1,000.49	91.863	1,000.49	91.3032	1,000.49	91.6487	1,000.49	91.1328	1,000.49	89.5134	1,000.49	88.9362	1,000.49	86.1421	1,000.49	85.3372	1,000.49	84.3341	1,000.49	85.0378	1,000.49	86.7531	1,000.49	87.304	1,000.49	88.488	1,000.49	88.4953
1,035.64	92.4891	1,035.64	92.3793	1,035.64	92.3626	1,035.64	92.2399	1,035.64	92.0702	1,035.64	92.4723	1,035.64	91.8458	1,035.64	92.537	1,035.64	91.8663	1,035.64	91.9883	1,035.64	91.2716	1,035.64	90.8337	1,035.64	89.6844	1,035.64	88.6444	1,035.64	86.8501	1,035.64	84.6704	1,035.64	80.4781	1,035.64	76.6216	1,035.64	74.738	1,035.64	82.6321	1,035.64	84.0731	1,035.64	87.1995	1,035.64	86.4331	1,035.64	87.9601	1,035.64	86.5018	1,035.64	86.7543	1,035.64	86.1455	1,035.64	85.1519	1,035.64	84.6118	1,035.64	82.9191	1,035.64	82.1234	1,035.64	81.6752	1,035.64	82.5508	1,035.64	83.9925	1,035.64	84.8603	1,035.64	85.4657
1,072.27	91.9904	1,072.27	91.6226	1,072.27	91.8243	1,072.27	91.1316	1,072.27	91.2111	1,072.27	90.7853	1,072.27	90.7707	1,072.27	90.6669	1,072.27	90.4547	1,072.27	90.3539	1,072.27	90.1662	1,072.27	89.7052	1,072.27	89.5988	1,072.27	88.6363	1,072.27	87.7274	1,072.27	86.3432	1,072.27	84.8743	1,072.27	83.7512	1,072.27	82.1872	1,072.27	82.9515	1,072.27	82.5802	1,072.27	84.6237	1,072.27	86.5453	1,072.27	86.5953	1,072.27	88.1155	1,072.27	87.5423	1,072.27	87.1845	1,072.27	87.0857	1,072.27	84.8861	1,072.27	84.57	1,072.27	80.0674	1,072.27	77.9917	1,072.27	67.1215	1,072.27	62.7051	1,072.27	56.2338	1,072.27	66.2669
1,108.89	92.3416	1,108.89	92.5772	1,108.89	91.8492	1,108.89	92.1338	1,108.89	91.1101	1,108.89	91.1962	1,108.89	90.2333	1,108.89	90.5526	1,108.89	89.4925	1,108.89	89.5153	1,108.89	88.6968	1,108.89	88.1796	1,108.89	87.8838	1,108.89	87.4708	1,108.89	86.8881	1,108.89	86.5359	1,108.89	84.4092	1,108.89	84.7858	1,108.89	82.1038	1,108.89	83.0532	1,108.89	81.7756	1,108.89	82.2943	1,108.89	82.3037	1,108.89	82.7733	1,108.89	83.1795	1,108.89	82.4843	1,108.89	83.0029	1,108.89	82.2986	1,108.89	81.6447	1,108.89	81.7737	1,108.89	79.0845	1,108.89	79.899	1,108.89	79.4543	1,108.89	79.0077	1,108.89	81.1563	1,108.89	80.5179
1,148.44	91.7036	1,148.44	91.6611	1,148.44	91.7952	1,148.44	91.6053	1,148.44	91.2274	1,148.44	90.9225	1,148.44	90.1324	1,148.44	90.0652	1,148.44	89.0146	1,148.44	89.1344	1,148.44	87.748	1,148.44	87.529	1,148.44	86.5436	1,148.44	86.1474	1,148.44	85.6398	1,148.44	84.9822	1,148.44	83.7211	1,148.44	83.8951	1,148.44	80.2887	1,148.44	83.3478	1,148.44	80.2438	1,148.44	83.0627	1,148.44	81.9189	1,148.44	82.9406	1,148.44	82.6549	1,148.44	79.5904	1,148.44	81.2138	1,148.44	74.995	1,148.44	79.0465	1,148.44	76.4363	1,148.44	75.6245	1,148.44	79.9885	1,148.44	80.5689	1,148.44	82.0568	1,148.44	82.842	1,148.44	82.4362
1,189.45	91.3226	1,189.45	91.4559	1,189.45	91.2509	1,189.45	91.3367	1,189.45	91.1829	1,189.45	90.9564	1,189.45	90.6392	1,189.45	90.2372	1,189.45	89.5234	1,189.45	89.0771	1,189.45	88.3303	1,189.45	87.6173	1,189.45	87.1489	1,189.45	85.8015	1,189.45	85.679	1,189.45	83.7801	1,189.45	82.8305	1,189.45	81.4475	1,189.45	79.8521	1,189.45	82.2994	1,189.45	80.9686	1,189.45	83.7774	1,189.45	82.1869	1,189.45	84.3143	1,189.45	82.0612	1,189.45	83.118	1,189.45	80.0148	1,189.45	78.8007	1,189.45	75.8611	1,189.45	74.647	1,189.45	70.5191	1,189.45	77.5425	1,189.45	77.5836	1,189.45	80.5078	1,189.45	81.9745	1,189.45	82.2259
1,230.47	91.4848	1,230.47	91.3088	1,230.47	91.6613	1,230.47	91.0096	1,230.47	91.3316	1,230.47	90.4183	1,230.47	90.2794	1,230.47	89.7368	1,230.47	89.0883	1,230.47	88.913	1,230.47	88.0057	1,230.47	87.2969	1,230.47	86.873	1,230.47	85.0661	1,230.47	85.6903	1,230.47	81.8708	1,230.47	84.9118	1,230.47	78.6578	1,230.47	82.8325	1,230.47	80.4247	1,230.47	81.3375	1,230.47	83.6075	1,230.47	81.8194	1,230.47	83.9353	1,230.47	81.1302	1,230.47	81.6833	1,230.47	79.5659	1,230.47	78.1173	1,230.47	78.0187	1,230.47	75.2955	1,230.47	75.8423	1,230.47	77.5333	1,230.47	78.5332	1,230.47	80.659	1,230.47	82.1505	1,230.47	82.8382
1,274.41	92.0956	1,274.41	91.9109	1,274.41	92.1028	1,274.41	91.5293	1,274.41	91.628	1,274.41	91.0406	1,274.41	90.9083	1,274.41	90.3508	1,274.41	90.1086	1,274.41	89.3653	1,274.41	89.1503	1,274.41	88.7516	1,274.41	87.7225	1,274.41	87.4992	1,274.41	85.8898	1,274.41	86.1516	1,274.41	83.9033	1,274.41	84.3431	1,274.41	83.0292	1,274.41	82.0427	1,274.41	83.3892	1,274.41	82.7545	1,274.41	83.3097	1,274.41	84.0249	1,274.41	82.9263	1,274.41	82.6807	1,274.41	79.0329	1,274.41	78.086	1,274.41	72.783	1,274.41	71.0131	1,274.41	71.732	1,274.41	77.4326	1,274.41	80.0111	1,274.41	81.6982	1,274.41	82.7281	1,274.41	82.6465
1,319.82	92.4903	1,319.82	92.4935	1,319.82	92.0658	1,319.82	92.226	1,319.82	91.6482	1,319.82	91.675	1,319.82	90.9169	1,319.82	90.6807	1,319.82	89.457	1,319.82	89.9596	1,319.82	88.0427	1,319.82	88.8912	1,319.82	86.6042	1,319.82	87.4309	1,319.82	84.1896	1,319.82	86.0387	1,319.82	82.8849	1,319.82	83.7697	1,319.82	83.0737	1,319.82	80.1037	1,319.82	82.4938	1,319.82	81.6168	1,319.82	81.964	1,319.82	83.586	1,319.82	81.9388	1,319.82	82.558	1,319.82	79.2005	1,319.82	78.0755	1,319.82	71.5462	1,319.82	71.1077	1,319.82	71.8891	1,319.82	76.754	1,319.82	79.1827	1,319.82	81.8619	1,319.82	81.9445	1,319.82	83.1314
1,366.7	92.4092	1,366.7	92.5174	1,366.7	92.0181	1,366.7	92.316	1,366.7	91.3593	1,366.7	91.5721	1,366.7	90.5076	1,366.7	90.6189	1,366.7	89.4584	1,366.7	89.5383	1,366.7	88.238	1,366.7	88.5514	1,366.7	87.0936	1,366.7	87.6663	1,366.7	84.6224	1,366.7	85.6858	1,366.7	82.6051	1,366.7	83.9023	1,366.7	80.8975	1,366.7	82.2131	1,366.7	81.0159	1,366.7	82.0152	1,366.7	80.5997	1,366.7	81.8379	1,366.7	81.1055	1,366.7	81.9084	1,366.7	78.4995	1,366.7	77.6559	1,366.7	71.3047	1,366.7	69.6813	1,366.7	71.1531	1,366.7	71.8017	1,366.7	79.5244	1,366.7	79.3144	1,366.7	81.7014	1,366.7	82.3558
1,413.57	92.3475	1,413.57	92.6645	1,413.57	91.6955	1,413.57	92.3255	1,413.57	90.7496	1,413.57	91.6102	1,413.57	89.8056	1,413.57	90.5021	1,413.57	88.7906	1,413.57	89.1377	1,413.57	87.5535	1,413.57	87.8605	1,413.57	86.6717	1,413.57	86.9904	1,413.57	84.2562	1,413.57	84.9946	1,413.57	81.8315	1,413.57	83.6793	1,413.57	80.1194	1,413.57	81.8008	1,413.57	80.9892	1,413.57	81.014	1,413.57	81.081	1,413.57	82.3383	1,413.57	80.7683	1,413.57	82.7481	1,413.57	77.2434	1,413.57	79.4953	1,413.57	75.4352	1,413.57	74.3605	1,413.57	61.832	1,413.57	76.1458	1,413.57	74.721	1,413.57	80.4324	1,413.57	80.6199	1,413.57	81.6398
1,463.38	92.9695	1,463.38	93.2099	1,463.38	92.5839	1,463.38	93.0857	1,463.38	91.342	1,463.38	92.1298	1,463.38	90.6919	1,463.38	90.9888	1,463.38	90.1743	1,463.38	89.8834	1,463.38	88.864	1,463.38	87.8349	1,463.38	87.4611	1,463.38	86.8691	1,463.38	85.0598	1,463.38	85.5237	1,463.38	82.2845	1,463.38	82.4646	1,463.38	80.5874	1,463.38	79.0846	1,463.38	78.2881	1,463.38	79.451	1,463.38	80.3428	1,463.38	79.4926	1,463.38	80.9031	1,463.38	81.4075	1,463.38	80.4568	1,463.38	78.1954	1,463.38	78.6485	1,463.38	72.617	1,463.38	67.9546	1,463.38	74.1185	1,463.38	77.33	1,463.38	79.7076	1,463.38	80.1678	1,463.38	80.894
1,516.11	93.1761	1,516.11	93.3032	1,516.11	92.7992	1,516.11	92.7356	1,516.11	92.2533	1,516.11	92.0672	1,516.11	91.477	1,516.11	90.8656	1,516.11	90.1001	1,516.11	88.9046	1,516.11	89.0436	1,516.11	87.7023	1,516.11	87.5488	1,516.11	86.6638	1,516.11	86.3284	1,516.11	86.1429	1,516.11	84.7085	1,516.11	83.9262	1,516.11	81.9454	1,516.11	80.4523	1,516.11	78.5241	1,516.11	78.6308	1,516.11	80.4866	1,516.11	77.726	1,516.11	83.5274	1,516.11	81.7321	1,516.11	81.8016	1,516.11	80.2896	1,516.11	80.0264	1,516.11	74.0791	1,516.11	71.0474	1,516.11	74.2114	1,516.11	77.3078	1,516.11	78.8208	1,516.11	80.8842	1,516.11	82.6849
1,568.85	92.6948	1,568.85	92.6822	1,568.85	92.1857	1,568.85	91.9698	1,568.85	91.4278	1,568.85	90.9238	1,568.85	90.6285	1,568.85	89.3239	1,568.85	89.3943	1,568.85	87.4361	1,568.85	87.49	1,568.85	87.0903	1,568.85	87.2927	1,568.85	85.1584	1,568.85	85.7295	1,568.85	82.8909	1,568.85	84.8018	1,568.85	81.0417	1,568.85	81.1656	1,568.85	80.9014	1,568.85	80.8635	1,568.85	79.937	1,568.85	80.059	1,568.85	75.657	1,568.85	79.7715	1,568.85	78.3891	1,568.85	78.853	1,568.85	77.1707	1,568.85	76.7043	1,568.85	72.2757	1,568.85	74.5609	1,568.85	75.1844	1,568.85	74.3707	1,568.85	78.4867	1,568.85	79.8121	1,568.85	80.874
1,624.51	93.231	1,624.51	92.9952	1,624.51	93.0536	1,624.51	92.3193	1,624.51	91.6832	1,624.51	91.2669	1,624.51	90.4051	1,624.51	89.7945	1,624.51	89.8392	1,624.51	88.1108	1,624.51	87.9488	1,624.51	86.9047	1,624.51	87.011	1,624.51	84.7111	1,624.51	84.5598	1,624.51	83.5951	1,624.51	83.3631	1,624.51	81.888	1,624.51	82.2601	1,624.51	81.1493	1,624.51	81.6591	1,624.51	80.8629	1,624.51	80.228	1,624.51	79.5929	1,624.51	81.0054	1,624.51	80.6695	1,624.51	80.7603	1,624.51	79.1608	1,624.51	77.1931	1,624.51	73.6071	1,624.51	73.643	1,624.51	71.3761	1,624.51	69.4355	1,624.51	78.3808	1,624.51	75.954	1,624.51	79.9355
1,681.64	93.2304	1,681.64	93.2125	1,681.64	92.9615	1,681.64	92.3025	1,681.64	92.2385	1,681.64	91.2168	1,681.64	90.7726	1,681.64	90.1748	1,681.64	90.2272	1,681.64	88.652	1,681.64	89.3783	1,681.64	86.8224	1,681.64	87.5068	1,681.64	86.0877	1,681.64	86.3162	1,681.64	83.3971	1,681.64	83.6546	1,681.64	82.5476	1,681.64	82.0708	1,681.64	81.3669	1,681.64	81.132	1,681.64	78.2126	1,681.64	79.4628	1,681.64	79.4418	1,681.64	79.322	1,681.64	79.9647	1,681.64	80.5612	1,681.64	79.9248	1,681.64	78.5885	1,681.64	77.1112	1,681.64	78.5008	1,681.64	68.8636	1,681.64	77.7112	1,681.64	79.0477	1,681.64	82.7047	1,681.64	79.3441
1,741.7	94.266	1,741.7	94.0351	1,741.7	93.4543	1,741.7	93.7088	1,741.7	92.8075	1,741.7	92.6925	1,741.7	91.9008	1,741.7	90.5804	1,741.7	90.3785	1,741.7	89.6871	1,741.7	88.8314	1,741.7	87.2055	1,741.7	88.2654	1,741.7	86.108	1,741.7	86.8755	1,741.7	82.9787	1,741.7	84.2451	1,741.7	82.9277	1,741.7	80.6897	1,741.7	80.9904	1,741.7	79.7288	1,741.7	81.1628	1,741.7	80.6661	1,741.7	77.5889	1,741.7	79.3018	1,741.7	78.9318	1,741.7	81.4855	1,741.7	79.2351	1,741.7	78.3362	1,741.7	79.4218	1,741.7	77.6622	1,741.7	72.9889	1,741.7	76.6215	1,741.7	78.3751	1,741.7	79.9807	1,741.7	79.2031
1,803.22	93.9796	1,803.22	94.147	1,803.22	93.4255	1,803.22	93.6292	1,803.22	92.6308	1,803.22	92.4754	1,803.22	91.2174	1,803.22	90.9236	1,803.22	89.2993	1,803.22	89.1968	1,803.22	87.8754	1,803.22	88.4224	1,803.22	87.1574	1,803.22	87.2862	1,803.22	86.3442	1,803.22	86.1769	1,803.22	83.5312	1,803.22	83.5187	1,803.22	81.2136	1,803.22	81.3336	1,803.22	81.6311	1,803.22	81.9651	1,803.22	81.8762	1,803.22	81.7603	1,803.22	79.1034	1,803.22	78.7692	1,803.22	76.8359	1,803.22	76.6958	1,803.22	76.6913	1,803.22	78.3539	1,803.22	75.6728	1,803.22	80.0361	1,803.22	79.8502	1,803.22	80.7791	1,803.22	81.2878	1,803.22	82.2763
1,866.21	93.5257	1,866.21	93.7087	1,866.21	92.9042	1,866.21	93.2014	1,866.21	92.167	1,866.21	92.4122	1,866.21	90.9344	1,866.21	91.0578	1,866.21	89.0226	1,866.21	89.1459	1,866.21	86.5352	1,866.21	86.905	1,866.21	85.6547	1,866.21	86.7773	1,866.21	85.5396	1,866.21	86.4508	1,866.21	84.4486	1,866.21	83.5858	1,866.21	80.6493	1,866.21	80.5353	1,866.21	79.6687	1,866.21	81.71	1,866.21	82.3424	1,866.21	83.263	1,866.21	81.7643	1,866.21	81.3691	1,866.21	77.7087	1,866.21	76.4475	1,866.21	69.9513	1,866.21	73.2737	1,866.21	73.9544	1,866.21	79.5578	1,866.21	80.7688	1,866.21	82.4042	1,866.21	84.1567	1,866.21	83.2464
1,932.13	92.8407	1,932.13	93.0613	1,932.13	92.4822	1,932.13	92.7134	1,932.13	91.9187	1,932.13	91.959	1,932.13	90.6794	1,932.13	90.6724	1,932.13	89.0193	1,932.13	88.2297	1,932.13	86.5658	1,932.13	86.5942	1,932.13	84.2171	1,932.13	85.026	1,932.13	84.3658	1,932.13	85.4674	1,932.13	84.5015	1,932.13	83.5795	1,932.13	81.6829	1,932.13	80.6036	1,932.13	78.2611	1,932.13	79.7675	1,932.13	79.5808	1,932.13	82.6286	1,932.13	81.9766	1,932.13	81.386	1,932.13	79.9056	1,932.13	76.3156	1,932.13	74.2984	1,932.13	73.1502	1,932.13	69.229	1,932.13	78.2672	1,932.13	79.2524	1,932.13	84.2752	1,932.13	83.4152	1,932.13	84.5925
1,999.51	92.8943	1,999.51	92.7756	1,999.51	92.7052	1,999.51	92.1138	1,999.51	92.3455	1,999.51	91.6856	1,999.51	91.3843	1,999.51	90.8117	1,999.51	90.7165	1,999.51	89.5883	1,999.51	88.4495	1,999.51	86.5079	1,999.51	85.4812	1,999.51	83.2553	1,999.51	82.691	1,999.51	82.3181	1,999.51	84.1545	1,999.51	83.8342	1,999.51	83.2721	1,999.51	79.1529	1,999.51	76.5107	1,999.51	74.326	1,999.51	78.4011	1,999.51	81.7558	1,999.51	82.8174	1,999.51	83.1706	1,999.51	82.3074	1,999.51	79.3187	1,999.51	77.6572	1,999.51	70.797	1,999.51	65.967	1,999.51	79.7297	1,999.51	81.2768	1,999.51	84.641	1,999.51	85.3808	1,999.51	86.0727
2,069.82	94.352	2,069.82	94.0447	2,069.82	93.8739	2,069.82	93.3692	2,069.82	92.636	2,069.82	92.1	2,069.82	91.6969	2,069.82	91.202	2,069.82	90.4739	2,069.82	90.1475	2,069.82	89.2415	2,069.82	88.6256	2,069.82	87.3883	2,069.82	85.8984	2,069.82	84.9746	2,069.82	83.2335	2,069.82	83.8485	2,069.82	83.2488	2,069.82	84.7862	2,069.82	83.6301	2,069.82	81.305	2,069.82	78.746	2,069.82	73.1197	2,069.82	75.0591	2,069.82	79.3936	2,069.82	80.8451	2,069.82	83.0995	2,069.82	83.0415	2,069.82	81.9437	2,069.82	80.5524	2,069.82	74.8103	2,069.82	76.2857	2,069.82	76.8747	2,069.82	81.6031	2,069.82	83.1829	2,069.82	83.8136
2,143.07	94.254	2,143.07	94.2582	2,143.07	93.633	2,143.07	93.8074	2,143.07	92.7326	2,143.07	92.7239	2,143.07	91.2939	2,143.07	91.4684	2,143.07	89.97	2,143.07	90.2244	2,143.07	88.6941	2,143.07	89.0208	2,143.07	87.159	2,143.07	87.0201	2,143.07	85.4252	2,143.07	85.1862	2,143.07	82.9939	2,143.07	82.8082	2,143.07	82.7958	2,143.07	83.1715	2,143.07	81.8777	2,143.07	82.4343	2,143.07	78.1114	2,143.07	76.4251	2,143.07	72.9936	2,143.07	78.9984	2,143.07	81.2207	2,143.07	82.4071	2,143.07	82.4237	2,143.07	81.5112	2,143.07	79.1928	2,143.07	77.4031	2,143.07	68.6117	2,143.07	72.9364	2,143.07	77.7681	2,143.07	76.3981
2,219.24	93.2847	2,219.24	93.5697	2,219.24	92.7752	2,219.24	92.9914	2,219.24	91.8546	2,219.24	92.4013	2,219.24	90.6828	2,219.24	91.2436	2,219.24	89.6496	2,219.24	89.9398	2,219.24	88.2937	2,219.24	89.0152	2,219.24	86.6118	2,219.24	87.1151	2,219.24	84.9384	2,219.24	85.1776	2,219.24	83.0392	2,219.24	83.9451	2,219.24	82.1518	2,219.24	81.4874	2,219.24	80.359	2,219.24	81.4189	2,219.24	79.5556	2,219.24	79.975	2,219.24	75.8664	2,219.24	77.8731	2,219.24	76.3087	2,219.24	80.3386	2,219.24	79.9746	2,219.24	81.8344	2,219.24	78.9143	2,219.24	76.5563	2,219.24	67.8434	2,219.24	65.9267	2,219.24	65.5983	2,219.24	73.9315
2,296.88	92.7442	2,296.88	92.2848	2,296.88	92.5531	2,296.88	91.9153	2,296.88	91.6805	2,296.88	91.0489	2,296.88	90.967	2,296.88	89.9983	2,296.88	89.5046	2,296.88	89.1419	2,296.88	88.6753	2,296.88	86.8577	2,296.88	87.2191	2,296.88	85.3082	2,296.88	85.3544	2,296.88	84.8485	2,296.88	83.8642	2,296.88	83.4239	2,296.88	81.2657	2,296.88	81.2285	2,296.88	79.5696	2,296.88	78.5708	2,296.88	79.9649	2,296.88	79.2355	2,296.88	78.5857	2,296.88	78.7815	2,296.88	76.4792	2,296.88	78.3201	2,296.88	79.8082	2,296.88	79.5607	2,296.88	78.1396	2,296.88	75.9043	2,296.88	71.7473	2,296.88	67.7903	2,296.88	69.6432	2,296.88	69.0708
2,378.91	93.0848	2,378.91	92.8758	2,378.91	92.7648	2,378.91	92.0649	2,378.91	92.5117	2,378.91	91.1274	2,378.91	91.0559	2,378.91	89.764	2,378.91	90.4707	2,378.91	88.3027	2,378.91	89.2381	2,378.91	87.384	2,378.91	87.8243	2,378.91	85.6373	2,378.91	85.5246	2,378.91	82.664	2,378.91	84.2906	2,378.91	82.1376	2,378.91	83.6949	2,378.91	79.7764	2,378.91	81.54	2,378.91	77.1078	2,378.91	80.5	2,378.91	78.5689	2,378.91	77.8142	2,378.91	77.077	2,378.91	78.1799	2,378.91	78.1902	2,378.91	78.8418	2,378.91	77.6699	2,378.91	79.7909	2,378.91	74.5547	2,378.91	72.9045	2,378.91	67.4788	2,378.91	68.6062	2,378.91	73.1099
2,462.4	94.2415	2,462.4	93.8623	2,462.4	94.1725	2,462.4	93.0793	2,462.4	93.6475	2,462.4	92.4161	2,462.4	92.8331	2,462.4	91.1898	2,462.4	91.6637	2,462.4	89.881	2,462.4	90.861	2,462.4	88.2112	2,462.4	89.7052	2,462.4	87.1945	2,462.4	87.4149	2,462.4	84	2,462.4	85.6628	2,462.4	82.5669	2,462.4	83.5468	2,462.4	82.0879	2,462.4	83.4006	2,462.4	79.8313	2,462.4	81.6471	2,462.4	78.1639	2,462.4	81.3592	2,462.4	77.6732	2,462.4	79.687	2,462.4	77.4106	2,462.4	79.4008	2,462.4	79.2218	2,462.4	79.1767	2,462.4	77.7698	2,462.4	74.6489	2,462.4	69.998	2,462.4	72.2401	2,462.4	74.9234
2,548.83	94.4001	2,548.83	93.9909	2,548.83	94.5464	2,548.83	93.9894	2,548.83	93.7638	2,548.83	92.903	2,548.83	93.0855	2,548.83	91.9528	2,548.83	91.4602	2,548.83	90.6192	2,548.83	90.2175	2,548.83	89.1094	2,548.83	89.0512	2,548.83	87.4662	2,548.83	87.1476	2,548.83	87.1072	2,548.83	84.0758	2,548.83	82.5541	2,548.83	83.2595	2,548.83	82.5869	2,548.83	83.1601	2,548.83	82.3988	2,548.83	80.9459	2,548.83	80.0731	2,548.83	80.5955	2,548.83	78.7296	2,548.83	77.5161	2,548.83	75.6431	2,548.83	78.1308	2,548.83	77.7903	2,548.83	79.3323	2,548.83	77.5448	2,548.83	75.6232	2,548.83	73.101	2,548.83	72.9174	2,548.83	73.3689
2,639.65	93.165	2,639.65	93.3081	2,639.65	93.1737	2,639.65	92.9398	2,639.65	92.7381	2,639.65	92.7393	2,639.65	92.1592	2,639.65	91.6893	2,639.65	91.0087	2,639.65	90.7498	2,639.65	89.209	2,639.65	89.2696	2,639.65	87.2885	2,639.65	88.0035	2,639.65	86.3177	2,639.65	86.8977	2,639.65	83.214	2,639.65	83.559	2,639.65	82.3432	2,639.65	81.6102	2,639.65	80.9506	2,639.65	81.4817	2,639.65	80.1115	2,639.65	80.1405	2,639.65	81.3094	2,639.65	79.2408	2,639.65	77.5253	2,639.65	78.7238	2,639.65	75.9022	2,639.65	79.9955	2,639.65	78.6037	2,639.65	78.0953	2,639.65	73.9405	2,639.65	75.1825	2,639.65	69.4576	2,639.65	74.7121
2,731.93	92.6437	2,731.93	92.7664	2,731.93	92.2857	2,731.93	92.0522	2,731.93	92.0571	2,731.93	91.6062	2,731.93	91.3593	2,731.93	90.5994	2,731.93	90.3903	2,731.93	90.0279	2,731.93	89.2867	2,731.93	88.4175	2,731.93	87.3615	2,731.93	87.6734	2,731.93	86.2797	2,731.93	85.5877	2,731.93	84.2663	2,731.93	82.2831	2,731.93	81.1548	2,731.93	80.6463	2,731.93	80.0143	2,731.93	79.4161	2,731.93	80.5893	2,731.93	80.1162	2,731.93	81.0021	2,731.93	78.5002	2,731.93	79.1237	2,731.93	77.7745	2,731.93	79.1342	2,731.93	78.4576	2,731.93	77.8714	2,731.93	77.4544	2,731.93	76.103	2,731.93	70.8417	2,731.93	72.9805	2,731.93	67.5321
2,828.61	92.986	2,828.61	92.7475	2,828.61	92.553	2,828.61	92.4039	2,828.61	92.6551	2,828.61	92.0675	2,828.61	91.9092	2,828.61	91.2435	2,828.61	91.1459	2,828.61	89.0556	2,828.61	89.856	2,828.61	88.1341	2,828.61	88.5375	2,828.61	86.7757	2,828.61	87.0483	2,828.61	83.3307	2,828.61	85.3956	2,828.61	82.5953	2,828.61	82.2671	2,828.61	81.0252	2,828.61	81.3914	2,828.61	77.2898	2,828.61	80.1981	2,828.61	79.6855	2,828.61	79.6601	2,828.61	79.1345	2,828.61	80.3272	2,828.61	77.4464	2,828.61	78.007	2,828.61	76.6626	2,828.61	79.413	2,828.61	78.4843	2,828.61	75.676	2,828.61	72.6644	2,828.61	70.3954	2,828.61	74.3681
2,928.22	93.3434	2,928.22	93.2705	2,928.22	93.4223	2,928.22	93.0759	2,928.22	93.2596	2,928.22	92.5983	2,928.22	93.0243	2,928.22	92.1063	2,928.22	92.4942	2,928.22	90.943	2,928.22	91.1926	2,928.22	89.0859	2,928.22	89.1561	2,928.22	86.8112	2,928.22	87.4673	2,928.22	84.9566	2,928.22	86.083	2,928.22	84.1156	2,928.22	84.0698	2,928.22	82.1558	2,928.22	82.3567	2,928.22	80.7625	2,928.22	78.6023	2,928.22	77.7336	2,928.22	79.2557	2,928.22	79.8536	2,928.22	79.6946	2,928.22	78.1471	2,928.22	76.3251	2,928.22	76.4598	2,928.22	79.7944	2,928.22	77.5884	2,928.22	76.1787	2,928.22	70.3858	2,928.22	73.6338	2,928.22	73.9944
3,030.76	93.158	3,030.76	92.9826	3,030.76	93.2485	3,030.76	93.1625	3,030.76	93.1563	3,030.76	93.0785	3,030.76	93.1249	3,030.76	92.7194	3,030.76	92.5451	3,030.76	91.7009	3,030.76	91.3172	3,030.76	90.3504	3,030.76	89.391	3,030.76	87.193	3,030.76	87.1013	3,030.76	86.5158	3,030.76	85.1557	3,030.76	84.3575	3,030.76	82.8621	3,030.76	82.4741	3,030.76	81.2824	3,030.76	81.4834	3,030.76	79.9413	3,030.76	79.1517	3,030.76	80.0727	3,030.76	79.7447	3,030.76	79.989	3,030.76	78.8374	3,030.76	77.6805	3,030.76	79.8147	3,030.76	79.3408	3,030.76	78.8491	3,030.76	76.9979	3,030.76	76.649	3,030.76	71.213	3,030.76	72.4796
3,137.7	92.2758	3,137.7	92.1625	3,137.7	93.0813	3,137.7	92.4509	3,137.7	92.8716	3,137.7	92.6192	3,137.7	92.8164	3,137.7	92.4217	3,137.7	92.1325	3,137.7	92.3347	3,137.7	91.2098	3,137.7	90.7636	3,137.7	88.9737	3,137.7	88.5486	3,137.7	86.2563	3,137.7	86.5378	3,137.7	84.8698	3,137.7	85.0294	3,137.7	82.8399	3,137.7	82.8397	3,137.7	80.7359	3,137.7	81.8389	3,137.7	79.6894	3,137.7	79.342	3,137.7	79.0164	3,137.7	79.8909	3,137.7	80.2889	3,137.7	78.7016	3,137.7	76.8968	3,137.7	79.3467	3,137.7	79.2558	3,137.7	79.8541	3,137.7	78.2995	3,137.7	76.2657	3,137.7	71.0916	3,137.7	72.8441
3,249.02	90.7363	3,249.02	91.0472	3,249.02	91.8117	3,249.02	92.1873	3,249.02	92.4274	3,249.02	92.6248	3,249.02	92.3834	3,249.02	92.4594	3,249.02	91.5673	3,249.02	91.8787	3,249.02	90.373	3,249.02	90.4734	3,249.02	88.8065	3,249.02	88.558	3,249.02	86.5959	3,249.02	86.4495	3,249.02	84.8557	3,249.02	84.5459	3,249.02	83.3205	3,249.02	82.0808	3,249.02	80.9353	3,249.02	81.4353	3,249.02	79.3269	3,249.02	79.9608	3,249.02	77.7176	3,249.02	78.9302	3,249.02	80.2972	3,249.02	78.3956	3,249.02	77.7088	3,249.02	78.4638	3,249.02	77.9764	3,249.02	79.0876	3,249.02	78.2304	3,249.02	76.0643	3,249.02	74.1135	3,249.02	72.0019
3,363.28	91.0888	3,363.28	91.3579	3,363.28	91.9329	3,363.28	92.0522	3,363.28	92.5756	3,363.28	92.5333	3,363.28	92.5591	3,363.28	92.2182	3,363.28	91.9557	3,363.28	91.461	3,363.28	90.2113	3,363.28	89.9012	3,363.28	88.3832	3,363.28	87.8929	3,363.28	86.0244	3,363.28	85.6275	3,363.28	83.8802	3,363.28	83.5301	3,363.28	82.9307	3,363.28	81.104	3,363.28	80.674	3,363.28	80.2977	3,363.28	80.6049	3,363.28	79.4913	3,363.28	77.2307	3,363.28	78.1149	3,363.28	79.8438	3,363.28	78.5963	3,363.28	78.2881	3,363.28	77.1153	3,363.28	77.5509	3,363.28	78.7925	3,363.28	77.5609	3,363.28	73.4417	3,363.28	71.0747	3,363.28	63.7508
3,481.93	91.6832	3,481.93	92.2848	3,481.93	91.6566	3,481.93	92.9609	3,481.93	92.7833	3,481.93	93.3698	3,481.93	92.3872	3,481.93	93.1923	3,481.93	91.4187	3,481.93	91.4908	3,481.93	89.418	3,481.93	89.9436	3,481.93	87.4064	3,481.93	87.9138	3,481.93	84.7433	3,481.93	85.103	3,481.93	82.5397	3,481.93	82.9211	3,481.93	80.7524	3,481.93	80.7309	3,481.93	79.3968	3,481.93	79.14	3,481.93	79.9821	3,481.93	78.6101	3,481.93	78.0325	3,481.93	79.1836	3,481.93	79.0609	3,481.93	78.0368	3,481.93	76.9713	3,481.93	77.3654	3,481.93	76.3101	3,481.93	78.9912	3,481.93	77.2672	3,481.93	74.5021	3,481.93	69.6968	3,481.93	67.0543
3,604.98	92.0829	3,604.98	92.1909	3,604.98	92.0299	3,604.98	93.0611	3,604.98	92.4498	3,604.98	93.2126	3,604.98	92.2039	3,604.98	92.6794	3,604.98	91.1641	3,604.98	90.5599	3,604.98	89.6288	3,604.98	88.4427	3,604.98	87.942	3,604.98	86.5919	3,604.98	85.713	3,604.98	84.0946	3,604.98	82.9511	3,604.98	81.6772	3,604.98	81.2118	3,604.98	80.2744	3,604.98	79.6531	3,604.98	78.6246	3,604.98	79.0911	3,604.98	77.5555	3,604.98	77.9358	3,604.98	76.4968	3,604.98	78.8085	3,604.98	78.6174	3,604.98	78.7079	3,604.98	76.0502	3,604.98	77.8289	3,604.98	78.1865	3,604.98	77.4381	3,604.98	74.4893	3,604.98	70.5194	3,604.98	67.7103
3,732.42	92.4604	3,732.42	92.4706	3,732.42	92.8806	3,732.42	93.2185	3,732.42	92.9327	3,732.42	93.4482	3,732.42	92.7602	3,732.42	92.8735	3,732.42	91.4362	3,732.42	90.6915	3,732.42	89.7371	3,732.42	88.4303	3,732.42	88.0558	3,732.42	86.1233	3,732.42	85.4719	3,732.42	84.0359	3,732.42	84.1687	3,732.42	81.3367	3,732.42	81.2176	3,732.42	79.9896	3,732.42	79.8127	3,732.42	78.271	3,732.42	78.5041	3,732.42	76.8245	3,732.42	78.6853	3,732.42	76.8566	3,732.42	78.1604	3,732.42	78.134	3,732.42	79.4623	3,732.42	76.1779	3,732.42	78.4993	3,732.42	78.5566	3,732.42	77.2831	3,732.42	75.0812	3,732.42	71.3076	3,732.42	63.8311
3,864.26	91.7465	3,864.26	91.7598	3,864.26	92.5289	3,864.26	92.3028	3,864.26	92.2962	3,864.26	92.8777	3,864.26	91.9325	3,864.26	91.6358	3,864.26	91.0802	3,864.26	90.1449	3,864.26	89.2837	3,864.26	87.99	3,864.26	87.2497	3,864.26	85.5213	3,864.26	84.5918	3,864.26	83.8594	3,864.26	82.4313	3,864.26	81.4731	3,864.26	80.033	3,864.26	79.5175	3,864.26	78.0932	3,864.26	77.8066	3,864.26	77.4158	3,864.26	77.6214	3,864.26	77.7877	3,864.26	77.4708	3,864.26	76.9628	3,864.26	78.6577	3,864.26	78.849	3,864.26	76.8783	3,864.26	77.4837	3,864.26	78.5787	3,864.26	77.5924	3,864.26	74.9104	3,864.26	70.2181	3,864.26	69.3593
4,000.49	90.9904	4,000.49	90.8154	4,000.49	91.5828	4,000.49	91.6767	4,000.49	91.9058	4,000.49	91.7509	4,000.49	91.6166	4,000.49	91.0575	4,000.49	90.6946	4,000.49	89.676	4,000.49	88.8978	4,000.49	86.988	4,000.49	86.3609	4,000.49	85.1176	4,000.49	83.8141	4,000.49	82.616	4,000.49	82.3818	4,000.49	81.3488	4,000.49	80.7579	4,000.49	78.2409	4,000.49	78.3616	4,000.49	76.196	4,000.49	76.7415	4,000.49	76.8424	4,000.49	76.9754	4,000.49	75.7109	4,000.49	77.9346	4,000.49	78.5891	4,000.49	77.861	4,000.49	75.9277	4,000.49	78.3443	4,000.49	78.4333	4,000.49	77.1165	4,000.49	72.924	4,000.49	66.9399	4,000.49	66.6316
4,141.11	91.4561	4,141.11	92.2254	4,141.11	91.3917	4,141.11	91.9297	4,141.11	92.6608	4,141.11	92.011	4,141.11	92.2554	4,141.11	92.2597	4,141.11	91.8276	4,141.11	90.6226	4,141.11	89.7812	4,141.11	87.8465	4,141.11	87.0145	4,141.11	85.9342	4,141.11	85.2547	4,141.11	82.302	4,141.11	81.7783	4,141.11	81.6267	4,141.11	80.0751	4,141.11	78.9891	4,141.11	77.7287	4,141.11	77.9756	4,141.11	75.5132	4,141.11	75.3051	4,141.11	76.9879	4,141.11	76.823	4,141.11	77.9294	4,141.11	78.0424	4,141.11	77.9423	4,141.11	76.2806	4,141.11	79.1342	4,141.11	79.5727	4,141.11	78.1338	4,141.11	74.5708	4,141.11	55.206	4,141.11	65.2485
4,287.6	91.6404	4,287.6	91.8657	4,287.6	92.1293	4,287.6	92.3168	4,287.6	92.3095	4,287.6	92.3706	4,287.6	92.3173	4,287.6	91.8131	4,287.6	90.8164	4,287.6	90.8934	4,287.6	89.5231	4,287.6	88.8315	4,287.6	87.0876	4,287.6	86.6174	4,287.6	85.8176	4,287.6	84.8023	4,287.6	83.1169	4,287.6	82.2729	4,287.6	80.749	4,287.6	80.8274	4,287.6	78.2695	4,287.6	77.9037	4,287.6	78.1023	4,287.6	77.682	4,287.6	75.777	4,287.6	75.1242	4,287.6	73.428	4,287.6	78.0667	4,287.6	78.9436	4,287.6	78.05	4,287.6	77.4845	4,287.6	78.8936	4,287.6	77.6635	4,287.6	75.6924	4,287.6	54.2959	4,287.6	67.7226
4,438.48	92.7044	4,438.48	92.1617	4,438.48	92.7292	4,438.48	93.0416	4,438.48	92.4053	4,438.48	92.4696	4,438.48	91.77	4,438.48	90.7771	4,438.48	90.6505	4,438.48	89.9683	4,438.48	88.844	4,438.48	88.7916	4,438.48	87.5813	4,438.48	86.3196	4,438.48	85.3591	4,438.48	84.2788	4,438.48	81.3588	4,438.48	80.8123	4,438.48	80.9885	4,438.48	78.041	4,438.48	77.0032	4,438.48	76.6935	4,438.48	76.2246	4,438.48	77.1744	4,438.48	75.1888	4,438.48	75.6599	4,438.48	76.0309	4,438.48	78.5417	4,438.48	77.1593	4,438.48	77.0816	4,438.48	75.4377	4,438.48	77.3652	4,438.48	76.1995	4,438.48	73.0105	4,438.48	61.856	4,438.48	67.6348
4,595.21	91.9165	4,595.21	92.2669	4,595.21	91.5348	4,595.21	91.0279	4,595.21	91.8629	4,595.21	91.2391	4,595.21	90.4964	4,595.21	89.7706	4,595.21	89.9022	4,595.21	88.6264	4,595.21	88.9842	4,595.21	88.4209	4,595.21	86.265	4,595.21	86.7856	4,595.21	83.5519	4,595.21	82.865	4,595.21	81.9775	4,595.21	80.4723	4,595.21	79.3449	4,595.21	78.7568	4,595.21	76.4304	4,595.21	77.5145	4,595.21	75.4234	4,595.21	73.5112	4,595.21	74.2403	4,595.21	76.0931	4,595.21	75.4113	4,595.21	75.2906	4,595.21	73.3102	4,595.21	75.6921	4,595.21	74.5542	4,595.21	77.5614	4,595.21	74.7943	4,595.21	71.4638	4,595.21	55.3717	4,595.21	65.6059
4,756.35	92.9267	4,756.35	92.385	4,756.35	93.1143	4,756.35	91.9639	4,756.35	91.9732	4,756.35	91.0342	4,756.35	91.4155	4,756.35	90.8703	4,756.35	89.8952	4,756.35	89.5862	4,756.35	87.6481	4,756.35	87.0065	4,756.35	86.9141	4,756.35	83.3252	4,756.35	83.8857	4,756.35	82.1012	4,756.35	80.3513	4,756.35	79.0129	4,756.35	78.3352	4,756.35	80.3194	4,756.35	77.364	4,756.35	72.2884	4,756.35	76.6768	4,756.35	73.8049	4,756.35	73.1337	4,756.35	73.0439	4,756.35	72.5943	4,756.35	73.6892	4,756.35	74.3297	4,756.35	75.5339	4,756.35	74.053	4,756.35	75.6335	4,756.35	75.9241	4,756.35	71.113	4,756.35	61.352	4,756.35	67.808
4,924.8	93.4481	4,924.8	92.7836	4,924.8	92.9559	4,924.8	93.3339	4,924.8	91.2838	4,924.8	91.7598	4,924.8	90.5534	4,924.8	91.425	4,924.8	89.0547	4,924.8	89.7221	4,924.8	86.8692	4,924.8	88.1128	4,924.8	84.9719	4,924.8	85.7022	4,924.8	83.1388	4,924.8	82.6315	4,924.8	80.9645	4,924.8	79.4901	4,924.8	78.9261	4,924.8	77.5715	4,924.8	75.5356	4,924.8	76.3762	4,924.8	73.722	4,924.8	74.4364	4,924.8	74.1633	4,924.8	72.9237	4,924.8	73.7377	4,924.8	70.5705	4,924.8	73.1603	4,924.8	75.1539	4,924.8	74.7232	4,924.8	75.9034	4,924.8	75.0122	4,924.8	70.8619	4,924.8	57.2893	4,924.8	66.5237
5,097.66	92.4152	5,097.66	92.3205	5,097.66	90.8029	5,097.66	90.5392	5,097.66	90.8188	5,097.66	90.394	5,097.66	88.9457	5,097.66	88.6628	5,097.66	88.9972	5,097.66	87.6476	5,097.66	88.3412	5,097.66	86.5593	5,097.66	85.5102	5,097.66	85.4147	5,097.66	82.4082	5,097.66	81.3276	5,097.66	81.066	5,097.66	80.4284	5,097.66	78.8314	5,097.66	74.0927	5,097.66	75.2986	5,097.66	76.3099	5,097.66	73.2767	5,097.66	75.3656	5,097.66	73.157	5,097.66	73.866	5,097.66	72.2772	5,097.66	75.8032	5,097.66	72.7726	5,097.66	74.9275	5,097.66	74.2512	5,097.66	76.1415	5,097.66	74.5147	5,097.66	70.8578	5,097.66	58.1825	5,097.66	65.6737
5,277.83	92.2238	5,277.83	92.1999	5,277.83	91.6804	5,277.83	90.4267	5,277.83	89.7037	5,277.83	89.4058	5,277.83	89.7378	5,277.83	89.0991	5,277.83	88.6605	5,277.83	87.9391	5,277.83	87.3835	5,277.83	86.1455	5,277.83	85.4708	5,277.83	84.0515	5,277.83	82.9722	5,277.83	80.5734	5,277.83	78.7344	5,277.83	78.7652	5,277.83	77.9433	5,277.83	77.9187	5,277.83	75.1256	5,277.83	74.4047	5,277.83	72.6414	5,277.83	70.8775	5,277.83	71.7149	5,277.83	60.5592	5,277.83	71.1162	5,277.83	72.9873	5,277.83	72.802	5,277.83	71.407	5,277.83	74.2157	5,277.83	73.2647	5,277.83	72.9657	5,277.83	68.5338	5,277.83	60.5964	5,277.83	63.0102
5,463.87	92.4701	5,463.87	92.1352	5,463.87	91.764	5,463.87	91.0729	5,463.87	89.9886	5,463.87	89.5965	5,463.87	89.8808	5,463.87	90.0437	5,463.87	88.4428	5,463.87	88.5976	5,463.87	87.1348	5,463.87	86.7464	5,463.87	84.5831	5,463.87	83.1609	5,463.87	81.8511	5,463.87	83.2343	5,463.87	78.2274	5,463.87	78.2609	5,463.87	76.2283	5,463.87	78.2179	5,463.87	74.1623	5,463.87	76.0066	5,463.87	69.8697	5,463.87	71.9535	5,463.87	72.8632	5,463.87	73.3386	5,463.87	70.9224	5,463.87	67.3621	5,463.87	73.6886	5,463.87	74.8945	5,463.87	76.3542	5,463.87	73.591	5,463.87	72.1648	5,463.87	69.1875	5,463.87	56.1124	5,463.87	60.2984
5,657.23	92.4408	5,657.23	91.9046	5,657.23	90.7076	5,657.23	90.6979	5,657.23	90.3754	5,657.23	89.8468	5,657.23	88.7652	5,657.23	89.5522	5,657.23	89.1512	5,657.23	88.2436	5,657.23	88.1874	5,657.23	86.3823	5,657.23	85.267	5,657.23	84.1702	5,657.23	82.2788	5,657.23	80.3842	5,657.23	79.9897	5,657.23	76.7532	5,657.23	76.494	5,657.23	71.0751	5,657.23	73.378	5,657.23	71.1619	5,657.23	72.73	5,657.23	71.0787	5,657.23	69.974	5,657.23	70.2645	5,657.23	67.9351	5,657.23	69.4146	5,657.23	72.1973	5,657.23	74.2435	5,657.23	75.3125	5,657.23	70.7953	5,657.23	68.8147	5,657.23	67.5061	5,657.23	54.6954	5,657.23	64.0379
5,856.45	91.4559	5,856.45	91.2067	5,856.45	90.7421	5,856.45	89.9682	5,856.45	89.0143	5,856.45	89.128	5,856.45	89.4811	5,856.45	89.1988	5,856.45	88.6839	5,856.45	88.8379	5,856.45	86.7766	5,856.45	86.0689	5,856.45	84.778	5,856.45	85.4945	5,856.45	82.825	5,856.45	79.9212	5,856.45	78.2318	5,856.45	78.5613	5,856.45	75.6633	5,856.45	76.4164	5,856.45	73.8114	5,856.45	71.9476	5,856.45	72.5639	5,856.45	72.4408	5,856.45	70.3006	5,856.45	69.6309	5,856.45	67.2478	5,856.45	70.291	5,856.45	72.2227	5,856.45	72.8899	5,856.45	73.8647	5,856.45	72.3511	5,856.45	67.3082	5,856.45	69.8588	5,856.45	63.2717	5,856.45	63.1593
6,062.99	92.3405	6,062.99	92.1003	6,062.99	91.133	6,062.99	90.8324	6,062.99	89.6964	6,062.99	90.1204	6,062.99	89.4889	6,062.99	89.9783	6,062.99	89.0857	6,062.99	88.2826	6,062.99	86.0602	6,062.99	85.4925	6,062.99	84.0409	6,062.99	80.202	6,062.99	80.2112	6,062.99	78.9525	6,062.99	78.1645	6,062.99	75.7643	6,062.99	76.0783	6,062.99	76.0434	6,062.99	73.9578	6,062.99	73.4721	6,062.99	71.2141	6,062.99	71.4106	6,062.99	71.6763	6,062.99	72.6756	6,062.99	68.6488	6,062.99	71.0352	6,062.99	72.4973	6,062.99	72.5772	6,062.99	74.4525	6,062.99	69.8402	6,062.99	67.955	6,062.99	66.5609	6,062.99	59.7729	6,062.99	63.2906
6,276.86	91.8161	6,276.86	91.3016	6,276.86	90.401	6,276.86	89.7086	6,276.86	89.9561	6,276.86	89.2346	6,276.86	88.7639	6,276.86	88.96	6,276.86	88.6936	6,276.86	87.6556	6,276.86	86.348	6,276.86	85.6551	6,276.86	83.3282	6,276.86	82.3146	6,276.86	81.4128	6,276.86	80.9416	6,276.86	78.8416	6,276.86	77.382	6,276.86	76.6653	6,276.86	75.8023	6,276.86	72.3917	6,276.86	73.5745	6,276.86	71.0894	6,276.86	72.2567	6,276.86	70.4076	6,276.86	72.4399	6,276.86	63.1152	6,276.86	70.7731	6,276.86	70.4681	6,276.86	72.9274	6,276.86	73.1648	6,276.86	69.8177	6,276.86	66.9081	6,276.86	67.165	6,276.86	57.5241	6,276.86	66.3568
6,498.05	91.781	6,498.05	91.4223	6,498.05	91.1852	6,498.05	90.0138	6,498.05	89.3015	6,498.05	89.5256	6,498.05	89.3755	6,498.05	88.7092	6,498.05	87.2083	6,498.05	87.736	6,498.05	85.1695	6,498.05	85.0635	6,498.05	82.8238	6,498.05	83.1973	6,498.05	81.1554	6,498.05	80.1176	6,498.05	77.8037	6,498.05	77.1916	6,498.05	75.9556	6,498.05	73.8025	6,498.05	73.7915	6,498.05	71.5377	6,498.05	70.3048	6,498.05	68.6331	6,498.05	69.8741	6,498.05	71.4903	6,498.05	67.1745	6,498.05	71.7403	6,498.05	70.1045	6,498.05	72.1316	6,498.05	71.2621	6,498.05	70.2159	6,498.05	67.3511	6,498.05	68.076	6,498.05	57.1641	6,498.05	65.4236
6,726.56	91.9881	6,726.56	91.6059	6,726.56	90.6277	6,726.56	90.3004	6,726.56	89.6601	6,726.56	89.0602	6,726.56	88.4347	6,726.56	88.3879	6,726.56	87.1722	6,726.56	85.7093	6,726.56	85.1068	6,726.56	85.3772	6,726.56	82.8013	6,726.56	83.166	6,726.56	80.195	6,726.56	80.0459	6,726.56	77.3379	6,726.56	76.2978	6,726.56	75.6248	6,726.56	74.1469	6,726.56	71.3413	6,726.56	70.5544	6,726.56	71.3961	6,726.56	71.5405	6,726.56	70.9368	6,726.56	68.7574	6,726.56	67.9329	6,726.56	71.618	6,726.56	69.7844	6,726.56	71.5509	6,726.56	73.7492	6,726.56	71.0579	6,726.56	67.4344	6,726.56	61.4329	6,726.56	53.5956	6,726.56	64.8186
6,963.87	91.1817	6,963.87	91.2559	6,963.87	90.6761	6,963.87	89.9387	6,963.87	89.1417	6,963.87	88.0599	6,963.87	87.5233	6,963.87	86.685	6,963.87	86.0983	6,963.87	85.2658	6,963.87	85.0454	6,963.87	83.8689	6,963.87	83.2214	6,963.87	81.3072	6,963.87	80.9025	6,963.87	77.8353	6,963.87	76.6215	6,963.87	76.4968	6,963.87	74.9644	6,963.87	72.2765	6,963.87	71.4821	6,963.87	71.6881	6,963.87	72.6679	6,963.87	69.7279	6,963.87	66.7518	6,963.87	67.6626	6,963.87	71.4163	6,963.87	70.1385	6,963.87	71.7377	6,963.87	70.3319	6,963.87	70.1473	6,963.87	67.8392	6,963.87	65.7822	6,963.87	64.0243	6,963.87	37.4407	6,963.87	66.7954
7,209.96	91.4715	7,209.96	91.5007	7,209.96	91.0542	7,209.96	90.4989	7,209.96	89.0369	7,209.96	88.4845	7,209.96	87.7156	7,209.96	86.9694	7,209.96	85.8107	7,209.96	85.9842	7,209.96	84.4087	7,209.96	84.0557	7,209.96	82.9658	7,209.96	82.0639	7,209.96	79.6109	7,209.96	79.1344	7,209.96	77.3951	7,209.96	76.927	7,209.96	74.1646	7,209.96	74.0812	7,209.96	72.3305	7,209.96	70.7679	7,209.96	69.7672	7,209.96	66.8349	7,209.96	67.0002	7,209.96	66.9434	7,209.96	71.5289	7,209.96	71.6208	7,209.96	70.658	7,209.96	72.1361	7,209.96	71.8423	7,209.96	69.0337	7,209.96	66.6877	7,209.96	62.2861	7,209.96	47.4408	7,209.96	66.3744
7,464.84	91.7317	7,464.84	91.6013	7,464.84	90.9597	7,464.84	90.6422	7,464.84	88.7855	7,464.84	88.6224	7,464.84	86.1689	7,464.84	86.5112	7,464.84	85.4941	7,464.84	85.1079	7,464.84	84.5287	7,464.84	83.7187	7,464.84	82.1865	7,464.84	81.7007	7,464.84	78.5197	7,464.84	77.7497	7,464.84	75.5007	7,464.84	74.4846	7,464.84	71.9377	7,464.84	72.3133	7,464.84	70.3092	7,464.84	70.8664	7,464.84	68.8666	7,464.84	67.8963	7,464.84	64.6575	7,464.84	65.2192	7,464.84	71.2898	7,464.84	69.7416	7,464.84	69.1032	7,464.84	71.2851	7,464.84	70.5987	7,464.84	68.9067	7,464.84	65.7505	7,464.84	63.4858	7,464.84	56.2073	7,464.84	65.8036
7,727.05	91.6466	7,727.05	91.4533	7,727.05	91.431	7,727.05	90.5393	7,727.05	88.8262	7,727.05	87.8467	7,727.05	86.0738	7,727.05	85.9301	7,727.05	85.1007	7,727.05	85.5966	7,727.05	84.22	7,727.05	83.5105	7,727.05	81.7461	7,727.05	81.1939	7,727.05	80.1588	7,727.05	78.184	7,727.05	76.0319	7,727.05	75.873	7,727.05	72.6531	7,727.05	72.2117	7,727.05	68.8813	7,727.05	69.7815	7,727.05	67.6137	7,727.05	67.6864	7,727.05	67.1566	7,727.05	64.1861	7,727.05	69.8072	7,727.05	70.8317	7,727.05	69.9777	7,727.05	72.0108	7,727.05	69.4867	7,727.05	69.5788	7,727.05	62.2526	7,727.05	65.5405	7,727.05	53.6883	7,727.05	64.2383
7,999.51	91.5195	7,999.51	91.743	7,999.51	91.1789	7,999.51	90.7084	7,999.51	89.123	7,999.51	87.8607	7,999.51	86.0892	7,999.51	86.5479	7,999.51	85.5542	7,999.51	85.5779	7,999.51	84.0464	7,999.51	83.509	7,999.51	82.3986	7,999.51	81.2515	7,999.51	80.0571	7,999.51	78.8215	7,999.51	75.9777	7,999.51	76.149	7,999.51	73.8097	7,999.51	73.4872	7,999.51	69.3001	7,999.51	70.3855	7,999.51	67.3425	7,999.51	66.3148	7,999.51	66.6756	7,999.51	67.4161	7,999.51	69.6428	7,999.51	67.594	7,999.51	67.5749	7,999.51	69.573	7,999.51	70.3978	7,999.51	69.4331	7,999.51	63.1625	7,999.51	61.9903	7,999.51	54.811	7,999.51	64.9541
8,282.23	91.5966	8,282.23	91.8658	8,282.23	91.3257	8,282.23	90.6933	8,282.23	88.9685	8,282.23	87.8402	8,282.23	86.2391	8,282.23	86.4576	8,282.23	85.451	8,282.23	85.2726	8,282.23	83.9585	8,282.23	83.3663	8,282.23	82.0184	8,282.23	81.0347	8,282.23	80.5815	8,282.23	78.1068	8,282.23	75.8093	8,282.23	74.818	8,282.23	74.6651	8,282.23	70.5475	8,282.23	70.0899	8,282.23	67.7953	8,282.23	66.8643	8,282.23	67.1587	8,282.23	65.5297	8,282.23	66.9317	8,282.23	70.4061	8,282.23	69.9947	8,282.23	70.5005	8,282.23	69.0512	8,282.23	69.3288	8,282.23	69.9019	8,282.23	64.9891	8,282.23	63.3111	8,282.23	42.8392	8,282.23	66.2892
8,573.73	91.9985	8,573.73	91.7349	8,573.73	91.4686	8,573.73	90.6781	8,573.73	88.6395	8,573.73	87.976	8,573.73	86.5182	8,573.73	85.6526	8,573.73	85.4289	8,573.73	84.3761	8,573.73	83.8603	8,573.73	82.9039	8,573.73	82.2501	8,573.73	81.1565	8,573.73	79.717	8,573.73	78.361	8,573.73	77.0498	8,573.73	75.457	8,573.73	73.9281	8,573.73	72.3207	8,573.73	70.9823	8,573.73	68.139	8,573.73	68.3114	8,573.73	62.0411	8,573.73	65.1189	8,573.73	69.1939	8,573.73	71.6077	8,573.73	69.9411	8,573.73	69.1277	8,573.73	69.0295	8,573.73	70.1332	8,573.73	68.0904	8,573.73	67.2195	8,573.73	58.5727	8,573.73	45.7249	8,573.73	64.788
8,876.95	91.2597	8,876.95	91.2761	8,876.95	90.8688	8,876.95	90.1911	8,876.95	88.7759	8,876.95	87.4555	8,876.95	85.8922	8,876.95	85.1002	8,876.95	83.9817	8,876.95	84.0942	8,876.95	83.752	8,876.95	83.6035	8,876.95	81.6545	8,876.95	81.8119	8,876.95	79.362	8,876.95	78.9968	8,876.95	76.9748	8,876.95	75.217	8,876.95	73.0994	8,876.95	70.6731	8,876.95	69.9417	8,876.95	70.9519	8,876.95	67.7211	8,876.95	66.4149	8,876.95	65.7616	8,876.95	64.6841	8,876.95	69.9512	8,876.95	69.2736	8,876.95	68.0156	8,876.95	70.1161	8,876.95	68.377	8,876.95	67.6809	8,876.95	66.0045	8,876.95	60.3056	8,876.95	46.1815	8,876.95	64.6634
9,188.96	91.3327	9,188.96	91.3166	9,188.96	90.8436	9,188.96	89.9173	9,188.96	88.3065	9,188.96	87.8223	9,188.96	85.7399	9,188.96	85.2656	9,188.96	83.9261	9,188.96	83.9992	9,188.96	83.0865	9,188.96	83.4867	9,188.96	81.8249	9,188.96	81.3499	9,188.96	79.3505	9,188.96	78.1277	9,188.96	76.6958	9,188.96	74.7862	9,188.96	72.1562	9,188.96	71.9023	9,188.96	69.5258	9,188.96	68.6835	9,188.96	67.0059	9,188.96	62.9356	9,188.96	65.9151	9,188.96	66.1684	9,188.96	68.6826	9,188.96	67.9249	9,188.96	67.8883	9,188.96	68.937	9,188.96	68.2531	9,188.96	64.3618	9,188.96	64.7586	9,188.96	46.3573	9,188.96	44.1024	9,188.96	63.9142
9,514.16	91.5655	9,514.16	91.2704	9,514.16	90.4747	9,514.16	89.9269	9,514.16	88.8279	9,514.16	87.7889	9,514.16	85.6036	9,514.16	84.9082	9,514.16	83.5966	9,514.16	83.8893	9,514.16	83.4188	9,514.16	83.2634	9,514.16	82.0696	9,514.16	80.4035	9,514.16	79.3637	9,514.16	78.1081	9,514.16	74.7476	9,514.16	74.4448	9,514.16	71.9806	9,514.16	70.6531	9,514.16	68.6728	9,514.16	66.3471	9,514.16	65.8334	9,514.16	66.198	9,514.16	64.981	9,514.16	66.5145	9,514.16	67.2406	9,514.16	66.0145	9,514.16	68.2499	9,514.16	69.1004	9,514.16	66.9183	9,514.16	65.2903	9,514.16	60.6927	9,514.16	55.3832	9,514.16	55.6515	9,514.16	63.0957
9,849.61	91.8824	9,849.61	91.3405	9,849.61	90.5927	9,849.61	89.9706	9,849.61	88.8049	9,849.61	87.8651	9,849.61	85.6375	9,849.61	84.5706	9,849.61	83.9774	9,849.61	83.8571	9,849.61	83.1977	9,849.61	83.0682	9,849.61	81.9873	9,849.61	80.7819	9,849.61	79.6543	9,849.61	77.1252	9,849.61	74.7363	9,849.61	74.4395	9,849.61	71.6972	9,849.61	71.0191	9,849.61	67.8763	9,849.61	68.0059	9,849.61	65.0115	9,849.61	65.3399	9,849.61	65.369	9,849.61	66.2569	9,849.61	66.7467	9,849.61	65.8772	9,849.61	68.075	9,849.61	66.7275	9,849.61	65.9945	9,849.61	64.5138	9,849.61	61.1594	9,849.61	53.3786	9,849.61	56.9611	9,849.61	62.2949
10,196.8	92.0617	10,196.8	91.5667	10,196.8	90.6818	10,196.8	90.1655	10,196.8	89.1417	10,196.8	87.9215	10,196.8	85.8572	10,196.8	84.9907	10,196.8	84.3374	10,196.8	83.8977	10,196.8	83.2793	10,196.8	82.9034	10,196.8	81.1547	10,196.8	80.3951	10,196.8	78.9598	10,196.8	77.2599	10,196.8	75.1664	10,196.8	73.6846	10,196.8	71.8306	10,196.8	70.1423	10,196.8	67.0339	10,196.8	68.2832	10,196.8	66.5404	10,196.8	64.2333	10,196.8	62.8332	10,196.8	62.4232	10,196.8	66.3382	10,196.8	66.3685	10,196.8	67.353	10,196.8	67.1694	10,196.8	65.1054	10,196.8	64.2407	10,196.8	61.5112	10,196.8	56.8348	10,196.8	60.0018	10,196.8	61.6583
10,555.7	92.1523	10,555.7	91.5726	10,555.7	90.7524	10,555.7	90.214	10,555.7	89.2451	10,555.7	88.2705	10,555.7	86.3239	10,555.7	85.7425	10,555.7	84.4491	10,555.7	84.0818	10,555.7	83.0871	10,555.7	82.4671	10,555.7	80.8724	10,555.7	80.622	10,555.7	78.0327	10,555.7	76.7127	10,555.7	75.0961	10,555.7	73.7913	10,555.7	71.0896	10,555.7	69.8445	10,555.7	69.1686	10,555.7	68.6306	10,555.7	66.1106	10,555.7	62.4825	10,555.7	61.3337	10,555.7	62.8388	10,555.7	63.4042	10,555.7	66.8238	10,555.7	66.117	10,555.7	66.6358	10,555.7	64.2907	10,555.7	61.6853	10,555.7	61.6021	10,555.7	55.7739	10,555.7	56.6615	10,555.7	61.0797
10,927.7	92.2219	10,927.7	91.8343	10,927.7	90.8374	10,927.7	90.4724	10,927.7	89.3775	10,927.7	88.3937	10,927.7	86.7139	10,927.7	86.309	10,927.7	84.3476	10,927.7	83.8815	10,927.7	82.7737	10,927.7	82.9049	10,927.7	80.9616	10,927.7	79.8211	10,927.7	77.6819	10,927.7	77.233	10,927.7	74.5313	10,927.7	72.5418	10,927.7	70.5217	10,927.7	69.2784	10,927.7	68.2602	10,927.7	67.4895	10,927.7	65.392	10,927.7	62.5563	10,927.7	63.3331	10,927.7	61.9377	10,927.7	60.8868	10,927.7	64.3839	10,927.7	65.3053	10,927.7	65.2843	10,927.7	63.1238	10,927.7	57.1992	10,927.7	60.3363	10,927.7	48.7226	10,927.7	56.4448	10,927.7	60.9234
11,313	92.2731	11,313	91.6718	11,313	91.0466	11,313	90.4119	11,313	89.0511	11,313	88.1756	11,313	86.8681	11,313	86.0795	11,313	84.2712	11,313	83.6823	11,313	83.0645	11,313	82.5365	11,313	81.2386	11,313	79.929	11,313	78.291	11,313	75.8104	11,313	74.5926	11,313	71.9516	11,313	70.1863	11,313	69.0635	11,313	67.7945	11,313	66.081	11,313	65.806	11,313	63.4506	11,313	61.8414	11,313	64.6162	11,313	59.149	11,313	63.202	11,313	65.2608	11,313	65.151	11,313	62.3702	11,313	57.9297	11,313	59.1486	11,313	50.0143	11,313	57.5779	11,313	60.3259
11,712.9	92.0436	11,712.9	91.7817	11,712.9	91.0594	11,712.9	90.2186	11,712.9	88.9752	11,712.9	88.3562	11,712.9	87.3857	11,712.9	86.1814	11,712.9	84.5036	11,712.9	83.9227	11,712.9	83.1373	11,712.9	82.4011	11,712.9	80.8384	11,712.9	79.9299	11,712.9	78.2905	11,712.9	75.3947	11,712.9	74.1008	11,712.9	72.8435	11,712.9	69.5346	11,712.9	68.5362	11,712.9	67.879	11,712.9	66.0877	11,712.9	63.2618	11,712.9	61.4869	11,712.9	58.9191	11,712.9	62.8368	11,712.9	62.4682	11,712.9	63.6066	11,712.9	65.265	11,712.9	65.5362	11,712.9	63.1748	11,712.9	59.0133	11,712.9	59.625	11,712.9	53.159	11,712.9	57.293	11,712.9	57.6393
12,126	91.8517	12,126	91.5022	12,126	91.0763	12,126	89.9732	12,126	89.0443	12,126	88.4972	12,126	87.3968	12,126	86.385	12,126	84.5469	12,126	83.7385	12,126	82.9738	12,126	82.2339	12,126	80.3314	12,126	79.2353	12,126	77.037	12,126	75.9468	12,126	73.2464	12,126	71.3992	12,126	69.9725	12,126	68.1632	12,126	67.3153	12,126	65.8078	12,126	63.8281	12,126	59.2057	12,126	60.7889	12,126	61.651	12,126	62.6946	12,126	62.7975	12,126	65.3897	12,126	63.9302	12,126	61.5161	12,126	55.8133	12,126	58.323	12,126	54.7453	12,126	58.9184	12,126	56.9059
12,553.7	91.4854	12,553.7	91.2969	12,553.7	90.6068	12,553.7	89.7046	12,553.7	88.7916	12,553.7	88.3166	12,553.7	87.669	12,553.7	86.4017	12,553.7	84.7856	12,553.7	83.7768	12,553.7	82.8519	12,553.7	81.6521	12,553.7	80.1405	12,553.7	78.6899	12,553.7	76.7767	12,553.7	75.5522	12,553.7	73.9535	12,553.7	71.1609	12,553.7	70.0366	12,553.7	68.5488	12,553.7	67.2898	12,553.7	65.2755	12,553.7	63.5684	12,553.7	62.326	12,553.7	60.1582	12,553.7	63.5351	12,553.7	60.6382	12,553.7	61.2901	12,553.7	64.4383	12,553.7	63.8037	12,553.7	59.7789	12,553.7	51.7061	12,553.7	56.77	12,553.7	53.9717	12,553.7	59.8569	12,553.7	55.0719
12,996.1	91.0607	12,996.1	91.1122	12,996.1	90.4456	12,996.1	89.5489	12,996.1	88.7922	12,996.1	88.5575	12,996.1	87.6397	12,996.1	86.5344	12,996.1	84.9386	12,996.1	83.8298	12,996.1	82.5049	12,996.1	81.4505	12,996.1	80.6387	12,996.1	78.6485	12,996.1	77.9074	12,996.1	75.4891	12,996.1	73.7874	12,996.1	71.8435	12,996.1	69.7361	12,996.1	68.0476	12,996.1	66.4239	12,996.1	64.7295	12,996.1	63.352	12,996.1	60.4314	12,996.1	60.222	12,996.1	57.2244	12,996.1	55.1539	12,996.1	62.0016	12,996.1	62.9561	12,996.1	61.6112	12,996.1	60.5732	12,996.1	45.3112	12,996.1	52.9034	12,996.1	52.9545	12,996.1	56.9119	12,996.1	53.0762
13,454.6	90.7526	13,454.6	90.7509	13,454.6	90.5225	13,454.6	89.4591	13,454.6	89.0239	13,454.6	88.2253	13,454.6	87.7749	13,454.6	86.7619	13,454.6	85.1396	13,454.6	83.6001	13,454.6	82.0335	13,454.6	81.411	13,454.6	80.419	13,454.6	78.9007	13,454.6	77.4327	13,454.6	74.6919	13,454.6	72.9511	13,454.6	71.6484	13,454.6	69.323	13,454.6	65.4024	13,454.6	65.6627	13,454.6	64.4199	13,454.6	62.9574	13,454.6	59.0398	13,454.6	59.9923	13,454.6	53.7051	13,454.6	50.4409	13,454.6	58.4804	13,454.6	62.3924	13,454.6	61.719	13,454.6	59.5559	13,454.6	48.2867	13,454.6	41.5199	13,454.6	53.3366	13,454.6	57.235	13,454.6	51.071
13,929.2	90.4334	13,929.2	90.1346	13,929.2	90.2588	13,929.2	89.2989	13,929.2	89.2695	13,929.2	88.2935	13,929.2	88.093	13,929.2	86.9046	13,929.2	85.2181	13,929.2	83.1466	13,929.2	82.1428	13,929.2	81.3507	13,929.2	79.432	13,929.2	78.1013	13,929.2	75.3736	13,929.2	73.6453	13,929.2	71.2989	13,929.2	69.6464	13,929.2	68.721	13,929.2	65.6982	13,929.2	65.3914	13,929.2	63.3227	13,929.2	62.5423	13,929.2	59.0759	13,929.2	60.6345	13,929.2	54.8434	13,929.2	54.8301	13,929.2	58.6349	13,929.2	61.6302	13,929.2	60.9389	13,929.2	57.7397	13,929.2	51.1412	13,929.2	33.7483	13,929.2	54.762	13,929.2	57.0726	13,929.2	46.8775
14,419.9	90.6647	14,419.9	90.3464	14,419.9	90.6114	14,419.9	89.6656	14,419.9	89.6109	14,419.9	88.6612	14,419.9	87.9577	14,419.9	86.7764	14,419.9	84.8906	14,419.9	82.8022	14,419.9	81.725	14,419.9	80.3157	14,419.9	78.6943	14,419.9	76.1889	14,419.9	75.1448	14,419.9	72.8733	14,419.9	72.0818	14,419.9	69.594	14,419.9	68.1028	14,419.9	65.3939	14,419.9	62.9993	14,419.9	61.9696	14,419.9	61.3145	14,419.9	57.575	14,419.9	60.1722	14,419.9	37.6358	14,419.9	52.692	14,419.9	55.6076	14,419.9	58.9735	14,419.9	57.8611	14,419.9	58.0383	14,419.9	50.1022	14,419.9	45.8893	14,419.9	56.1221	14,419.9	54.6603	14,419.9	41.7162
14,928.2	91.2286	14,928.2	90.9144	14,928.2	90.9784	14,928.2	90.2308	14,928.2	89.6384	14,928.2	88.7644	14,928.2	87.5055	14,928.2	86.2687	14,928.2	83.8885	14,928.2	82.2177	14,928.2	79.9699	14,928.2	78.308	14,928.2	76.6819	14,928.2	74.6618	14,928.2	73.1666	14,928.2	69.9986	14,928.2	69.0778	14,928.2	67.673	14,928.2	65.1003	14,928.2	61.7366	14,928.2	60.5182	14,928.2	60.2308	14,928.2	59.4265	14,928.2	54.2014	14,928.2	57.164	14,928.2	45.9943	14,928.2	52.5348	14,928.2	51.7766	14,928.2	56.5481	14,928.2	54.5465	14,928.2	55.3697	14,928.2	48.6073	14,928.2	52.7909	14,928.2	52.9083	14,928.2	51.8111	14,928.2	44.361
15,455.6	91.4058	15,455.6	91.1133	15,455.6	90.8602	15,455.6	90.1201	15,455.6	89.1334	15,455.6	88.2572	15,455.6	86.56	15,455.6	85.2167	15,455.6	82.4427	15,455.6	80.5672	15,455.6	77.7303	15,455.6	76.2933	15,455.6	73.4534	15,455.6	71.1625	15,455.6	68.3197	15,455.6	67.058	15,455.6	64.9568	15,455.6	61.3669	15,455.6	61.0796	15,455.6	57.6748	15,455.6	57.897	15,455.6	56.0203	15,455.6	53.8037	15,455.6	49.0865	15,455.6	51.4562	15,455.6	43.678	15,455.6	45.1	15,455.6	51.0389	15,455.6	54.2794	15,455.6	49.9018	15,455.6	53.3636	15,455.6	47.7999	15,455.6	51.5544	15,455.6	48.0829	15,455.6	49.7014	15,455.6	48.791
16,000.5	91.0886	16,000.5	90.8015	16,000.5	90.3136	16,000.5	89.6539	16,000.5	88.2976	16,000.5	87.3107	16,000.5	84.9903	16,000.5	83.7151	16,000.5	80.6789	16,000.5	78.3226	16,000.5	75.438	16,000.5	73.0391	16,000.5	70.4937	16,000.5	65.8424	16,000.5	64.532	16,000.5	59.6082	16,000.5	63.7026	16,000.5	57.8661	16,000.5	57.3558	16,000.5	51.3305	16,000.5	54.4842	16,000.5	45.6682	16,000.5	52.9823	16,000.5	41.7827	16,000.5	46.8955	16,000.5	42.6971	16,000.5	49.1245	16,000.5	48.4943	16,000.5	49.9438	16,000.5	48.3826	16,000.5	49.8607	16,000.5	46.1527	16,000.5	51.0301	16,000.5	44.282	16,000.5	46.3552	16,000.5	46.3281
16,564.5	90.5305	16,564.5	90.2452	16,564.5	89.5916	16,564.5	88.9245	16,564.5	87.2539	16,564.5	86.1196	16,564.5	83.4589	16,564.5	81.8918	16,564.5	78.2484	16,564.5	75.8285	16,564.5	71.8068	16,564.5	69.796	16,564.5	66.8288	16,564.5	60.226	16,564.5	63.0693	16,564.5	52.9956	16,564.5	59.4033	16,564.5	55.3885	16,564.5	54.947	16,564.5	45.3818	16,564.5	53.977	16,564.5	45.6362	16,564.5	52.28	16,564.5	44.4893	16,564.5	41.8232	16,564.5	28.9336	16,564.5	46.001	16,564.5	42.9898	16,564.5	47.8294	16,564.5	46.3012	16,564.5	50.7763	16,564.5	46.5286	16,564.5	48.9261	16,564.5	43.3997	16,564.5	48.0925	16,564.5	44.3351
17,148.9	89.6214	17,148.9	89.3479	17,148.9	88.6129	17,148.9	88.0024	17,148.9	86.1226	17,148.9	85.0643	17,148.9	82.0716	17,148.9	80.5043	17,148.9	75.9539	17,148.9	73.4656	17,148.9	69.0641	17,148.9	65.8333	17,148.9	65.1778	17,148.9	56.2831	17,148.9	63.348	17,148.9	53.0932	17,148.9	60.7035	17,148.9	54.9242	17,148.9	55.3693	17,148.9	47.3598	17,148.9	54.3062	17,148.9	44.04	17,148.9	51.4141	17,148.9	44.5753	17,148.9	40.4947	17,148.9	35.565	17,148.9	45.9849	17,148.9	39.0918	17,148.9	44.8648	17,148.9	43.3166	17,148.9	49.9228	17,148.9	46.9764	17,148.9	47.3542	17,148.9	40.4401	17,148.9	42.6644	17,148.9	35.181
17,752.4	88.6368	17,752.4	88.3708	17,752.4	87.5504	17,752.4	86.8843	17,752.4	85.0079	17,752.4	83.7023	17,752.4	80.4786	17,752.4	78.3238	17,752.4	73.7069	17,752.4	69.856	17,752.4	66.787	17,752.4	59.1755	17,752.4	64.9378	17,752.4	59.7342	17,752.4	63.5879	17,752.4	57.9629	17,752.4	61.0332	17,752.4	56.7492	17,752.4	55.6978	17,752.4	48.7813	17,752.4	53.5648	17,752.4	47.4522	17,752.4	51.8117	17,752.4	43.3357	17,752.4	41.9182	17,752.4	35.6103	17,752.4	44.4735	17,752.4	36.0666	17,752.4	42.8016	17,752.4	41.4884	17,752.4	48.2967	17,752.4	46.3677	17,752.4	48.5601	17,752.4	39.8662	17,752.4	46.6533	17,752.4	40.1706
18,379.4	87.3256	18,379.4	87.1512	18,379.4	86.3632	18,379.4	85.8225	18,379.4	83.6433	18,379.4	82.4129	18,379.4	78.7941	18,379.4	75.9509	18,379.4	71.0698	18,379.4	64.8256	18,379.4	64.3383	18,379.4	57.3747	18,379.4	65.373	18,379.4	62.1781	18,379.4	64.2705	18,379.4	61.3545	18,379.4	60.895	18,379.4	57.5479	18,379.4	55.0955	18,379.4	53.001	18,379.4	53.2852	18,379.4	50.0298	18,379.4	50.9212	18,379.4	47.2977	18,379.4	46.9251	18,379.4	40.933	18,379.4	44.7535	18,379.4	30.174	18,379.4	41.8491	18,379.4	39.9555	18,379.4	47.8818	18,379.4	45.5734	18,379.4	48.3495	18,379.4	37.5989	18,379.4	44.2517	18,379.4	41.9947
19,026.9	86.2969	19,026.9	86.1866	19,026.9	85.4432	19,026.9	84.9812	19,026.9	82.6093	19,026.9	80.9943	19,026.9	77.4006	19,026.9	73.6547	19,026.9	68.7217	19,026.9	57.8338	19,026.9	63.6656	19,026.9	60.2837	19,026.9	65.6705	19,026.9	65.4008	19,026.9	65.069	19,026.9	62.7423	19,026.9	61.554	19,026.9	59.1221	19,026.9	55.0685	19,026.9	53.4026	19,026.9	53.4667	19,026.9	50.7253	19,026.9	52.0465	19,026.9	46.99	19,026.9	49.9045	19,026.9	41.9933	19,026.9	37.9796	19,026.9	36.9773	19,026.9	40.3718	19,026.9	40.5948	19,026.9	48.776	19,026.9	42.6643	19,026.9	46.5874	19,026.9	36.2051	19,026.9	46.1585	19,026.9	43.6928
19,697.8	85.4075	19,697.8	85.4598	19,697.8	84.7608	19,697.8	84.2649	19,697.8	81.7303	19,697.8	79.7308	19,697.8	75.446	19,697.8	71.004	19,697.8	66.1395	19,697.8	55.6772	19,697.8	63.3925	19,697.8	63.3981	19,697.8	65.9107	19,697.8	66.3528	19,697.8	65.2577	19,697.8	63.0889	19,697.8	60.3701	19,697.8	58.415	19,697.8	54.5153	19,697.8	55.0921	19,697.8	54.0175	19,697.8	52.0304	19,697.8	51.9204	19,697.8	49.8375	19,697.8	48.9286	19,697.8	46.97	19,697.8	42.7896	19,697.8	24.8254	19,697.8	38.7487	19,697.8	40.5325	19,697.8	47.8939	19,697.8	43.091	19,697.8	45.6198	19,697.8	38.5574	19,697.8	45.7053	19,697.8	41.6993
19,999.5	84.9776	19,999.5	84.9746	19,999.5	84.6542	19,999.5	83.5077	19,999.5	81.3546	19,999.5	78.2912	19,999.5	73.9314	19,999.5	68.3801	19,999.5	64.9136	19,999.5	61.7143	19,999.5	62.9471	19,999.5	64.7486	19,999.5	65.5582	19,999.5	66.1148	19,999.5	63.2581	19,999.5	62.7879	19,999.5	60.5167	19,999.5	55.407	19,999.5	54.2954	19,999.5	55.5375	19,999.5	55.0815	19,999.5	52.3396	19,999.5	51.9937	19,999.5	54.3176	19,999.5	45.3633	19,999.5	47.8758	19,999.5	51.9478	19,999.5	53.3498	19,999.5	51.5495	19,999.5	51.8223	19,999.5	46.8998	19,999.5	51.1926	19,999.5	57.9798	19,999.5	44.6768	19,999.5	45.9015	19,999.5	49.7745
