"SPL Vertical"
"On-Axis"		"10°"		"-10°"		"20°"		"-20°"		"30°"		"-30°"		"40°"		"-40°"		"50°"		"-50°"		"60°"		"-60°"		"70°"		"-70°"		"80°"		"-80°"		"90°"		"-90°"		"100°"		"-100°"		"110°"		"-110°"		"120°"		"-120°"		"130°"		"-130°"		"140°"		"-140°"		"150°"		"-150°"		"160°"		"-160°"		"170°"		"-170°"		"180°"
"Frequency [Hz]"	"Sound Pessure Level [dB]   [2.83V at 1m]"	"Frequency [Hz]"	"Sound Pessure Level [dB]   [2.83V at 1m]"	"Frequency [Hz]"	"Sound Pessure Level [dB]   [2.83V at 1m]"	"Frequency [Hz]"	"Sound Pessure Level [dB]   [2.83V at 1m]"	"Frequency [Hz]"	"Sound Pessure Level [dB]   [2.83V at 1m]"	"Frequency [Hz]"	"Sound Pessure Level [dB]   [2.83V at 1m]"	"Frequency [Hz]"	"Sound Pessure Level [dB]   [2.83V at 1m]"	"Frequency [Hz]"	"Sound Pessure Level [dB]   [2.83V at 1m]"	"Frequency [Hz]"	"Sound Pessure Level [dB]   [2.83V at 1m]"	"Frequency [Hz]"	"Sound Pessure Level [dB]   [2.83V at 1m]"	"Frequency [Hz]"	"Sound Pessure Level [dB]   [2.83V at 1m]"	"Frequency [Hz]"	"Sound Pessure Level [dB]   [2.83V at 1m]"	"Frequency [Hz]"	"Sound Pessure Level [dB]   [2.83V at 1m]"	"Frequency [Hz]"	"Sound Pessure Level [dB]   [2.83V at 1m]"	"Frequency [Hz]"	"Sound Pessure Level [dB]   [2.83V at 1m]"	"Frequency [Hz]"	"Sound Pessure Level [dB]   [2.83V at 1m]"	"Frequency [Hz]"	"Sound Pessure Level [dB]   [2.83V at 1m]"	"Frequency [Hz]"	"Sound Pessure Level [dB]   [2.83V at 1m]"	"Frequency [Hz]"	"Sound Pessure Level [dB]   [2.83V at 1m]"	"Frequency [Hz]"	"Sound Pessure Level [dB]   [2.83V at 1m]"	"Frequency [Hz]"	"Sound Pessure Level [dB]   [2.83V at 1m]"	"Frequency [Hz]"	"Sound Pessure Level [dB]   [2.83V at 1m]"	"Frequency [Hz]"	"Sound Pessure Level [dB]   [2.83V at 1m]"	"Frequency [Hz]"	"Sound Pessure Level [dB]   [2.83V at 1m]"	"Frequency [Hz]"	"Sound Pessure Level [dB]   [2.83V at 1m]"	"Frequency [Hz]"	"Sound Pessure Level [dB]   [2.83V at 1m]"	"Frequency [Hz]"	"Sound Pessure Level [dB]   [2.83V at 1m]"	"Frequency [Hz]"	"Sound Pessure Level [dB]   [2.83V at 1m]"	"Frequency [Hz]"	"Sound Pessure Level [dB]   [2.83V at 1m]"	"Frequency [Hz]"	"Sound Pessure Level [dB]   [2.83V at 1m]"	"Frequency [Hz]"	"Sound Pessure Level [dB]   [2.83V at 1m]"	"Frequency [Hz]"	"Sound Pessure Level [dB]   [2.83V at 1m]"	"Frequency [Hz]"	"Sound Pessure Level [dB]   [2.83V at 1m]"	"Frequency [Hz]"	"Sound Pessure Level [dB]   [2.83V at 1m]"	"Frequency [Hz]"	"Sound Pessure Level [dB]   [2.83V at 1m]"	"Frequency [Hz]"	"Sound Pessure Level [dB]   [2.83V at 1m]"
20.5078	60.3814	20.5078	59.6306	20.5078	61.2615	20.5078	59.0245	20.5078	62.2317	20.5078	58.5559	20.5078	63.2357	20.5078	58.2026	20.5078	64.2093	20.5078	57.938	20.5078	65.0893	20.5078	57.7386	20.5078	65.8189	20.5078	57.5888	20.5078	66.3517	20.5078	57.4818	20.5078	66.6537	20.5078	57.4184	20.5078	66.7058	20.5078	57.4058	20.5078	66.5049	20.5078	57.4554	20.5078	66.0652	20.5078	57.5796	20.5078	65.4192	20.5078	57.7893	20.5078	64.6154	20.5078	58.0917	20.5078	63.7142	20.5078	58.4894	20.5078	62.7791	20.5078	58.9817	20.5078	61.8658	20.5078	59.5672	20.5078	61.014	20.5078	60.2451
21.9727	62.7777	21.9727	62.1075	21.9727	63.5723	21.9727	61.5723	21.9727	64.4586	21.9727	61.1621	21.9727	65.3853	21.9727	60.8552	21.9727	66.2912	21.9727	60.6268	21.9727	67.114	21.9727	60.4556	21.9727	67.7966	21.9727	60.3276	21.9727	68.2915	21.9727	60.2359	21.9727	68.5642	21.9727	60.1807	21.9727	68.5948	21.9727	60.1673	21.9727	68.3808	21.9727	60.2046	21.9727	67.9376	21.9727	60.3028	21.9727	67.3	21.9727	60.4714	21.9727	66.5199	21.9727	60.7169	21.9727	65.6604	21.9727	61.043	21.9727	64.7865	21.9727	61.4512	21.9727	63.9522	21.9727	61.9432	21.9727	63.1925	21.9727	62.5224
23.4375	65.0332	23.4375	64.4175	23.4375	65.7558	23.4375	63.916	23.4375	66.5593	23.4375	63.5212	23.4375	67.4014	23.4375	63.2166	23.4375	68.229	23.4375	62.9836	23.4375	68.9853	23.4375	62.8065	23.4375	69.6162	23.4375	62.6745	23.4375	70.0759	23.4375	62.5829	23.4375	70.3302	23.4375	62.5321	23.4375	70.3601	23.4375	62.527	23.4375	70.1634	23.4375	62.5752	23.4375	69.7565	23.4375	62.6849	23.4375	69.1742	23.4375	62.8634	23.4375	68.4668	23.4375	63.1152	23.4375	67.6929	23.4375	63.4416	23.4375	66.9092	23.4375	63.8414	23.4375	66.1602	23.4375	64.313	23.4375	65.4724	23.4375	64.8563
24.9023	66.9123	24.9023	66.3501	24.9023	67.5727	24.9023	65.8915	24.9023	68.3091	24.9023	65.529	24.9023	69.0838	24.9023	65.2478	24.9023	69.8476	24.9023	65.0312	24.9023	70.5465	24.9023	64.8649	24.9023	71.1276	24.9023	64.7387	24.9023	71.5456	24.9023	64.6474	24.9023	71.766	24.9023	64.5904	24.9023	71.7695	24.9023	64.5706	24.9023	71.554	24.9023	64.594	24.9023	71.1367	24.9023	64.668	24.9023	70.5537	24.9023	64.8	24.9023	69.8571	24.9023	64.9961	24.9023	69.1072	24.9023	65.2601	24.9023	68.3607	24.9023	65.594	24.9023	67.6604	24.9023	65.9986	24.9023	67.0297	24.9023	66.4762
26.3672	68.7032	26.3672	68.1625	26.3672	69.327	26.3672	67.7111	26.3672	70.0146	26.3672	67.3445	26.3672	70.733	26.3672	67.0519	26.3672	71.4389	26.3672	66.8207	26.3672	72.0832	26.3672	66.6395	26.3672	72.617	26.3672	66.4999	26.3672	72.9971	26.3672	66.3971	26.3672	73.1904	26.3672	66.3301	26.3672	73.178	26.3672	66.3011	26.3672	72.958	26.3672	66.3149	26.3672	72.5474	26.3672	66.3779	26.3672	71.9819	26.3672	66.4969	26.3672	71.3118	26.3672	66.6779	26.3672	70.5943	26.3672	66.9252	26.3672	69.8823	26.3672	67.241	26.3672	69.2146	26.3672	67.6266	26.3672	68.6125	26.3672	68.0831
27.832	70.4935	27.832	70.0081	27.832	71.0504	27.832	69.5981	27.832	71.6636	27.832	69.2595	27.832	72.3057	27.832	68.9835	27.832	72.9389	27.832	68.7603	27.832	73.5187	27.832	68.5811	27.832	73.9993	27.832	68.4397	27.832	74.3391	27.832	68.3326	27.832	74.5061	27.832	68.2595	27.832	74.4823	27.832	68.2226	27.832	74.2663	27.832	68.2264	27.832	73.876	27.832	68.2766	27.832	73.3468	27.832	68.3795	27.832	72.7278	27.832	68.5405	27.832	72.0725	27.832	68.7631	27.832	71.4281	27.832	69.0488	27.832	70.8273	27.832	69.3978	27.832	70.2864	27.832	69.81
29.2969	71.9066	29.2969	71.4456	29.2969	72.4291	29.2969	71.0502	29.2969	72.9993	29.2969	70.7176	29.2969	73.5931	29.2969	70.4415	29.2969	74.1766	29.2969	70.2144	29.2969	74.7089	29.2969	70.0294	29.2969	75.1474	29.2969	69.8816	29.2969	75.4527	29.2969	69.7684	29.2969	75.5942	29.2969	69.6894	29.2969	75.5548	29.2969	69.6466	29.2969	75.3341	29.2969	69.6438	29.2969	74.9501	29.2969	69.686	29.2969	74.4384	29.2969	69.7786	29.2969	73.8469	29.2969	69.9263	29.2969	73.2267	29.2969	70.1324	29.2969	72.6212	29.2969	70.3984	29.2969	72.0592	29.2969	70.7242	29.2969	71.5541	29.2969	71.1092
30.7617	73.0877	30.7617	72.6432	30.7617	73.5864	30.7617	72.2577	30.7617	74.1265	30.7617	71.9299	30.7617	74.6857	30.7617	71.6554	30.7617	75.2328	30.7617	71.428	30.7617	75.7295	30.7617	71.2419	30.7617	76.1354	30.7617	71.0924	30.7617	76.4124	30.7617	70.9768	30.7617	76.5313	30.7617	70.8939	30.7617	76.4764	30.7617	70.8447	30.7617	76.2496	30.7617	70.832	30.7617	75.8713	30.7617	70.8602	30.7617	75.3781	30.7617	70.9352	30.7617	74.8157	30.7617	71.063	30.7617	74.2291	30.7617	71.2495	30.7617	73.6545	30.7617	71.4986	30.7617	73.1152	30.7617	71.8119	30.7617	72.624	30.7617	72.1881
32.2266	74.2794	32.2266	73.8541	32.2266	74.751	32.2266	73.4802	32.2266	75.2567	32.2266	73.1575	32.2266	75.7765	32.2266	72.8832	32.2266	76.2818	32.2266	72.6529	32.2266	76.7378	32.2266	72.4624	32.2266	77.1069	32.2266	72.3079	32.2266	77.3536	32.2266	72.1871	32.2266	77.4506	32.2266	72.0993	32.2266	77.3833	32.2266	72.0452	32.2266	77.1543	32.2266	72.027	32.2266	76.7839	32.2266	72.0487	32.2266	76.3077	32.2266	72.1151	32.2266	75.7695	32.2266	72.2318	32.2266	75.2115	32.2266	72.4042	32.2266	74.6669	32.2266	72.6361	32.2266	74.157	32.2266	72.9293	32.2266	73.6935	32.2266	73.2827
33.6914	75.3487	33.6914	74.9408	33.6914	75.7964	33.6914	74.5781	33.6914	76.2727	33.6914	74.2616	33.6914	76.7587	33.6914	73.9895	33.6914	77.2283	33.6914	73.759	33.6914	77.6495	33.6914	73.5668	33.6914	77.9873	33.6914	73.4103	33.6914	78.2087	33.6914	73.2877	33.6914	78.288	33.6914	73.1984	33.6914	78.2122	33.6914	73.1431	33.6914	77.9845	33.6914	73.1236	33.6914	77.6253	33.6914	73.1431	33.6914	77.1691	33.6914	73.2058	33.6914	76.6572	33.6914	73.3165	33.6914	76.1292	33.6914	73.4798	33.6914	75.6154	33.6914	73.6992	33.6914	75.1346	33.6914	73.9762	33.6914	74.6975	33.6914	74.3099
35.1562	76.2752	35.1562	75.8809	35.1562	76.7042	35.1562	75.527	35.1562	77.1569	35.1562	75.2154	35.1562	77.6155	35.1562	74.9453	35.1562	78.0557	35.1562	74.7147	35.1562	78.4474	35.1562	74.5214	35.1562	78.758	35.1562	74.3633	35.1562	78.9567	35.1562	74.2391	35.1562	79.0195	35.1562	74.1483	35.1562	78.935	35.1562	74.0913	35.1562	78.7071	35.1562	74.0699	35.1562	78.3564	35.1562	74.0868	35.1562	77.9165	35.1562	74.1457	35.1562	77.427	35.1562	74.2507	35.1562	76.9246	35.1562	74.4061	35.1562	76.4368	35.1562	74.615	35.1562	75.9806	35.1562	74.8789	35.1562	75.5653	35.1562	75.1966
36.6211	77.1139	36.6211	76.7284	36.6211	77.5303	36.6211	76.3805	36.6211	77.9659	36.6211	76.0733	36.6211	78.4034	36.6211	75.8071	36.6211	78.8194	36.6211	75.5812	36.6211	79.1857	36.6211	75.3938	36.6211	79.4716	36.6211	75.2432	36.6211	79.6487	36.6211	75.1281	36.6211	79.6952	36.6211	75.0476	36.6211	79.6013	36.6211	75.0018	36.6211	79.3725	36.6211	74.9914	36.6211	79.0303	36.6211	75.018	36.6211	78.6087	36.6211	75.0841	36.6211	78.1461	36.6211	75.1923	36.6211	77.6773	36.6211	75.3456	36.6211	77.2266	36.6211	75.5458	36.6211	76.8077	36.6211	75.7936	36.6211	76.427	36.6211	76.0881
38.0859	77.8923	38.0859	77.5102	38.0859	78.2995	38.0859	77.1609	38.0859	78.7199	38.0859	76.8488	38.0859	79.1367	38.0859	76.576	38.0859	79.5278	38.0859	76.3429	38.0859	79.867	38.0859	76.1491	38.0859	80.1257	38.0859	75.9936	38.0859	80.2775	38.0859	75.8754	38.0859	80.3024	38.0859	75.7935	38.0859	80.1917	38.0859	75.7471	38.0859	79.9519	38.0859	75.7362	38.0859	79.6047	38.0859	75.761	38.0859	79.1838	38.0859	75.8229	38.0859	78.7274	38.0859	75.9234	38.0859	78.2692	38.0859	76.065	38.0859	77.8329	38.0859	76.2495	38.0859	77.4315	38.0859	76.4786	38.0859	77.0705	38.0859	76.7524
39.5508	78.7216	39.5508	78.3485	39.5508	79.1108	39.5508	77.9992	39.5508	79.505	39.5508	77.679	39.5508	79.889	39.5508	77.3913	39.5508	80.243	39.5508	77.1384	39.5508	80.5434	39.5508	76.9215	39.5508	80.7642	39.5508	76.7413	39.5508	80.8805	39.5508	76.5979	39.5508	80.8738	39.5508	76.4911	39.5508	80.7361	39.5508	76.4209	39.5508	80.4737	39.5508	76.387	39.5508	80.1083	39.5508	76.3898	39.5508	79.6737	39.5508	76.4302	39.5508	79.2079	39.5508	76.5096	39.5508	78.7452	39.5508	76.6301	39.5508	78.3094	39.5508	76.794	39.5508	77.9136	39.5508	77.0034	39.5508	77.5631	39.5508	77.2596
41.0156	79.3685	41.0156	79.0096	41.0156	79.7429	41.0156	78.6731	41.0156	80.1226	41.0156	78.3633	41.0156	80.4932	41.0156	78.0832	41.0156	80.8356	41.0156	77.8344	41.0156	81.1268	41.0156	77.6179	41.0156	81.3415	41.0156	77.4345	41.0156	81.4556	41.0156	77.2845	41.0156	81.4512	41.0156	77.1683	41.0156	81.3209	41.0156	77.0863	41.0156	81.0706	41.0156	77.0394	41.0156	80.7208	41.0156	77.029	41.0156	80.3022	41.0156	77.057	41.0156	79.8494	41.0156	77.1262	41.0156	79.3934	41.0156	77.2402	41.0156	78.9568	41.0156	77.4021	41.0156	78.5539	41.0156	77.6147	41.0156	78.1927	41.0156	77.8786
42.4805	79.9893	42.4805	79.627	42.4805	80.3645	42.4805	79.2856	42.4805	80.7412	42.4805	78.971	42.4805	81.1044	42.4805	78.6872	42.4805	81.4352	42.4805	78.437	42.4805	81.711	42.4805	78.2223	42.4805	81.9081	42.4805	78.044	42.4805	82.0041	42.4805	77.9028	42.4805	81.9832	42.4805	77.7985	42.4805	81.8399	42.4805	77.7312	42.4805	81.5827	42.4805	77.7005	42.4805	81.234	42.4805	77.7065	42.4805	80.8259	42.4805	77.7496	42.4805	80.393	42.4805	77.8308	42.4805	79.9645	42.4805	77.9516	42.4805	79.56	42.4805	78.1139	42.4805	79.1896	42.4805	78.3189	42.4805	78.8579	42.4805	78.5671
43.9453	80.6795	43.9453	80.3209	43.9453	81.0461	43.9453	79.9785	43.9453	81.4095	43.9453	79.6584	43.9453	81.7554	43.9453	79.3654	43.9453	82.0655	43.9453	79.1028	43.9453	82.3185	43.9453	78.873	43.9453	82.4914	43.9453	78.6779	43.9453	82.5631	43.9453	78.5186	43.9453	82.5183	43.9453	78.3957	43.9453	82.3523	43.9453	78.3093	43.9453	82.074	43.9453	78.2597	43.9453	81.7064	43.9453	78.247	43.9453	81.2822	43.9453	78.2718	43.9453	80.8368	43.9453	78.3353	43.9453	80.4001	43.9453	78.4393	43.9453	79.9919	43.9453	78.5859	43.9453	79.6222	43.9453	78.7769	43.9453	79.2955	43.9453	79.0135
45.4102	81.3376	45.4102	80.9874	45.4102	81.6919	45.4102	80.6492	45.4102	82.0396	45.4102	80.3289	45.4102	82.3673	45.4102	80.031	45.4102	82.6576	45.4102	79.7591	45.4102	82.8902	45.4102	79.5157	45.4102	83.0433	45.4102	79.303	45.4102	83.0966	45.4102	79.1226	45.4102	83.0354	45.4102	78.9755	45.4102	82.8549	45.4102	78.8628	45.4102	82.5632	45.4102	78.7855	45.4102	82.1821	45.4102	78.7448	45.4102	81.7433	45.4102	78.7424	45.4102	81.2818	45.4102	78.7807	45.4102	80.8281	45.4102	78.8628	45.4102	80.4037	45.4102	78.992	45.4102	80.0211	45.4102	79.1714	45.4102	79.6864	45.4102	79.4028
46.875	81.8713	46.875	81.5292	46.875	82.2175	46.875	81.1994	46.875	82.5575	46.875	80.888	46.875	82.8778	46.875	80.5997	46.875	83.1616	46.875	80.3381	46.875	83.3896	46.875	80.1058	46.875	83.541	46.875	79.9048	46.875	83.5969	46.875	79.7365	46.875	83.5437	46.875	79.6019	46.875	83.3772	46.875	79.5017	46.875	83.1056	46.875	79.4365	46.875	82.7494	46.875	79.4074	46.875	82.3382	46.875	79.4155	46.875	81.9038	46.875	79.4631	46.875	81.4743	46.875	79.5525	46.875	81.0695	46.875	79.6867	46.875	80.7013	46.875	79.868	46.875	80.3763	46.875	80.0979
48.3398	82.2971	48.3398	81.9645	48.3398	82.6352	48.3398	81.6456	48.3398	82.9688	48.3398	81.3466	48.3398	83.2849	48.3398	81.0725	48.3398	83.5679	48.3398	80.827	48.3398	83.7994	48.3398	80.6131	48.3398	83.9598	48.3398	80.4329	48.3398	84.031	48.3398	80.2876	48.3398	84.0003	48.3398	80.1779	48.3398	83.8637	48.3398	80.1039	48.3398	83.6286	48.3398	80.0655	48.3398	83.3134	48.3398	80.0624	48.3398	82.9436	48.3398	80.0946	48.3398	82.5466	48.3398	80.1623	48.3398	82.1468	48.3398	80.2668	48.3398	81.7633	48.3398	80.4099	48.3398	81.4095	48.3398	80.5941	48.3398	81.0941	48.3398	80.8218
51.2695	83.4279	51.2695	83.0947	51.2695	83.7635	51.2695	82.7726	51.2695	84.0903	51.2695	82.4686	51.2695	84.3949	51.2695	82.1884	51.2695	84.6611	51.2695	81.9363	51.2695	84.871	51.2695	81.7159	51.2695	85.0061	51.2695	81.5297	51.2695	85.0506	51.2695	81.3796	51.2695	84.9946	51.2695	81.2667	51.2695	84.8375	51.2695	81.1916	51.2695	84.5902	51.2695	81.1543	51.2695	84.2737	51.2695	81.1545	51.2695	83.9145	51.2695	81.1918	51.2695	83.5387	51.2695	81.266	51.2695	83.1673	51.2695	81.3769	51.2695	82.8141	51.2695	81.5248	51.2695	82.4875	51.2695	81.7102	51.2695	82.1928	51.2695	81.933
52.7344	84.0079	52.7344	83.6697	52.7344	84.3447	52.7344	83.3401	52.7344	84.6686	52.7344	83.0273	52.7344	84.966	52.7344	82.7379	52.7344	85.2209	52.7344	82.4776	52.7344	85.4163	52.7344	82.2506	52.7344	85.5349	52.7344	82.0598	52.7344	85.5618	52.7344	81.9073	52.7344	85.4885	52.7344	81.794	52.7344	85.3153	52.7344	81.72	52.7344	85.0542	52.7344	81.6845	52.7344	84.7269	52.7344	81.6864	52.7344	84.3608	52.7344	81.7243	52.7344	83.9826	52.7344	81.7969	52.7344	83.6134	52.7344	81.9032	52.7344	83.267	52.7344	82.043	52.7344	82.9514	52.7344	82.2168	52.7344	82.6704	52.7344	82.4256
54.1992	84.5053	54.1992	84.17	54.1992	84.8373	54.1992	83.8413	54.1992	85.1545	54.1992	83.5277	54.1992	85.4434	54.1992	83.2362	54.1992	85.6888	54.1992	82.9726	54.1992	85.8739	54.1992	82.7414	54.1992	85.9819	54.1992	82.546	54.1992	85.9983	54.1992	82.3884	54.1992	85.9145	54.1992	82.2695	54.1992	85.7309	54.1992	82.1892	54.1992	85.4593	54.1992	82.1466	54.1992	85.1215	54.1992	82.1404	54.1992	84.7452	54.1992	82.1688	54.1992	84.3579	54.1992	82.2304	54.1992	83.982	54.1992	82.3244	54.1992	83.6326	54.1992	82.451	54.1992	83.3184	54.1992	82.6116	54.1992	83.0434	54.1992	82.8083
55.6641	84.9337	55.6641	84.6014	55.6641	85.2637	55.6641	84.2768	55.6641	85.5797	55.6641	83.9686	55.6641	85.8682	55.6641	83.6842	55.6641	86.1143	55.6641	83.4296	55.6641	86.3015	55.6641	83.2094	55.6641	86.4136	55.6641	83.027	55.6641	86.4369	55.6641	82.8841	55.6641	86.3637	55.6641	82.7814	55.6641	86.1953	55.6641	82.7182	55.6641	85.9435	55.6641	82.6931	55.6641	85.6294	55.6641	82.7039	55.6641	85.2791	55.6641	82.7483	55.6641	84.9176	55.6641	82.8244	55.6641	84.565	55.6641	82.9307	55.6641	84.2343	55.6641	83.0668	55.6641	83.9333	55.6641	83.2336	55.6641	83.6657	55.6641	83.4327
58.5938	85.9632	58.5938	85.6299	58.5938	86.2892	58.5938	85.2999	58.5938	86.5959	58.5938	84.9831	58.5938	86.87	58.5938	84.6879	58.5938	87.0969	58.5938	84.4218	58.5938	87.2613	58.5938	84.1908	58.5938	87.3487	58.5938	83.9992	58.5938	87.3473	58.5938	83.85	58.5938	87.2519	58.5938	83.7442	58.5938	87.0662	58.5938	83.6813	58.5938	86.8044	58.5938	83.6595	58.5938	86.4893	58.5938	83.6759	58.5938	86.1474	58.5938	83.7271	58.5938	85.8022	58.5938	83.8098	58.5938	85.4711	58.5938	83.9212	58.5938	85.1637	58.5938	84.0594	58.5938	84.8846	58.5938	84.2239	58.5938	84.6353	58.5938	84.4155
60.0586	86.4594	60.0586	86.1236	60.0586	86.7856	60.0586	85.7892	60.0586	87.0901	60.0586	85.4663	60.0586	87.3596	60.0586	85.1639	60.0586	87.58	60.0586	84.89	60.0586	87.7364	60.0586	84.6511	60.0586	87.8148	60.0586	84.4522	60.0586	87.8044	60.0586	84.2965	60.0586	87.7003	60.0586	84.1854	60.0586	87.5071	60.0586	84.1183	60.0586	87.2392	60.0586	84.0935	60.0586	86.9197	60.0586	84.1079	60.0586	86.5746	60.0586	84.1578	60.0586	86.2276	60.0586	84.2396	60.0586	85.8955	60.0586	84.3502	60.0586	85.5878	60.0586	84.4876	60.0586	85.3091	60.0586	84.6512	60.0586	85.0605	60.0586	84.8417
62.9883	87.3645	62.9883	87.0267	62.9883	87.6879	62.9883	86.6859	62.9883	87.9851	62.9883	86.3527	62.9883	88.2433	62.9883	86.037	62.9883	88.4491	62.9883	85.7479	62.9883	88.5887	62.9883	85.4932	62.9883	88.6497	62.9883	85.2792	62.9883	88.6226	62.9883	85.1102	62.9883	88.5046	62.9883	84.9885	62.9883	88.3014	62.9883	84.9142	62.9883	88.0287	62.9883	84.8857	62.9883	87.7096	62.9883	84.8995	62.9883	87.3693	62.9883	84.9517	62.9883	87.0294	62.9883	85.0376	62.9883	86.7044	62.9883	85.1533	62.9883	86.4024	62.9883	85.296	62.9883	86.1267	62.9883	85.4643	62.9883	85.8788	62.9883	85.6582
64.4531	87.8693	64.4531	87.5374	64.4531	88.1842	64.4531	87.1998	64.4531	88.4706	64.4531	86.8673	64.4531	88.7157	64.4531	86.5501	64.4531	88.9067	64.4531	86.2576	64.4531	89.0303	64.4531	85.9981	64.4531	89.0744	64.4531	85.7786	64.4531	89.0307	64.4531	85.604	64.4531	88.8972	64.4531	85.4772	64.4531	88.6811	64.4531	85.3988	64.4531	88.3996	64.4531	85.367	64.4531	88.0772	64.4531	85.3784	64.4531	87.7398	64.4531	85.4284	64.4531	87.4086	64.4531	85.512	64.4531	87.0967	64.4531	85.6245	64.4531	86.8099	64.4531	85.7623	64.4531	86.5499	64.4531	85.9236	64.4531	86.3163	64.4531	86.1079
67.3828	88.6898	67.3828	88.3785	67.3828	88.982	67.3828	88.0585	67.3828	89.244	67.3828	87.7391	67.3828	89.4639	67.3828	87.4295	67.3828	89.6287	67.3828	87.1376	67.3828	89.7252	67.3828	86.8709	67.3828	89.7415	67.3828	86.6356	67.3828	89.6685	67.3828	86.4369	67.3828	89.5037	67.3828	86.2779	67.3828	89.2535	67.3828	86.1605	67.3828	88.9347	67.3828	86.0847	67.3828	88.5728	67.3828	86.0487	67.3828	88.1963	67.3828	86.0499	67.3828	87.8305	67.3828	86.0851	67.3828	87.4927	67.3828	86.1511	67.3828	87.1921	67.3828	86.2461	67.3828	86.9312	67.3828	86.3696	67.3828	86.7091	67.3828	86.523
68.8477	89.0632	68.8477	88.7498	68.8477	89.3601	68.8477	88.4307	68.8477	89.629	68.8477	88.1161	68.8477	89.8576	68.8477	87.8152	68.8477	90.0329	68.8477	87.536	68.8477	90.142	68.8477	87.2857	68.8477	90.1735	68.8477	87.0698	68.8477	90.1189	68.8477	86.8922	68.8477	89.976	68.8477	86.7553	68.8477	89.7514	68.8477	86.6596	68.8477	89.4609	68.8477	86.6042	68.8477	89.1276	68.8477	86.587	68.8477	88.7773	68.8477	86.605	68.8477	88.4325	68.8477	86.655	68.8477	88.1091	68.8477	86.7343	68.8477	87.8158	68.8477	86.8412	68.8477	87.5561	68.8477	86.9753	68.8477	87.3306	68.8477	87.1377
71.7773	89.7957	71.7773	89.4718	71.7773	90.1	71.7773	89.1402	71.7773	90.3724	71.7773	88.8121	71.7773	90.6007	71.7773	88.4986	71.7773	90.7723	71.7773	88.2096	71.7773	90.8754	71.7773	87.9537	71.7773	90.9001	71.7773	87.7379	71.7773	90.8403	71.7773	87.5671	71.7773	90.6965	71.7773	87.4437	71.7773	90.4778	71.7773	87.368	71.7773	90.2016	71.7773	87.338	71.7773	89.8914	71.7773	87.35	71.7773	89.5708	71.7773	87.3992	71.7773	89.2586	71.7773	87.4804	71.7773	88.9662	71.7773	87.5887	71.7773	88.6986	71.7773	87.7203	71.7773	88.4567	71.7773	87.8727	71.7773	88.2396	71.7773	88.0455
74.707	90.4986	74.707	90.1754	74.707	90.7991	74.707	89.8415	74.707	91.0648	74.707	89.5085	74.707	91.2835	74.707	89.1875	74.707	91.4431	74.707	88.8889	74.707	91.5326	74.707	88.6217	74.707	91.5431	74.707	88.3935	74.707	91.4696	74.707	88.2098	74.707	91.3137	74.707	88.0737	74.707	91.0851	74.707	87.986	74.707	90.8012	74.707	87.9453	74.707	90.4848	74.707	87.9482	74.707	90.1587	74.707	87.9901	74.707	89.841	74.707	88.0658	74.707	89.5436	74.707	88.1701	74.707	89.2723	74.707	88.2987	74.707	89.0288	74.707	88.4487	74.707	88.812	74.707	88.6194
77.6367	90.9482	77.6367	90.6302	77.6367	91.2429	77.6367	90.3013	77.6367	91.5019	77.6367	89.9736	77.6367	91.713	77.6367	89.6588	77.6367	91.8645	77.6367	89.3676	77.6367	91.946	77.6367	89.1094	77.6367	91.9497	77.6367	88.8917	77.6367	91.8721	77.6367	88.7195	77.6367	91.7166	77.6367	88.5955	77.6367	91.4941	77.6367	88.5196	77.6367	91.223	77.6367	88.4897	77.6367	90.9253	77.6367	88.5017	77.6367	90.622	77.6367	88.5507	77.6367	90.3284	77.6367	88.6311	77.6367	90.0536	77.6367	88.7377	77.6367	89.8014	77.6367	88.8664	77.6367	89.5726	77.6367	89.0144	77.6367	89.3664	77.6367	89.1809
79.1016	91.13	79.1016	90.8099	79.1016	91.4259	79.1016	90.4787	79.1016	91.6849	79.1016	90.1489	79.1016	91.8948	79.1016	89.8328	79.1016	92.0438	79.1016	89.5417	79.1016	92.1219	79.1016	89.2854	79.1016	92.1218	79.1016	89.0718	79.1016	92.0409	79.1016	88.9059	79.1016	91.8836	79.1016	88.79	79.1016	91.6621	79.1016	88.7238	79.1016	91.3957	79.1016	88.7044	79.1016	91.1069	79.1016	88.727	79.1016	90.8159	79.1016	88.786	79.1016	90.5369	79.1016	88.8752	79.1016	90.277	79.1016	88.9891	79.1016	90.0384	79.1016	89.1229	79.1016	89.8205	79.1016	89.2736	79.1016	89.6215	79.1016	89.4397
82.0312	91.4754	82.0312	91.1472	82.0312	91.7757	82.0312	90.805	82.0312	92.035	82.0312	90.4627	82.0312	92.2408	82.0312	90.1341	82.0312	92.3818	82.0312	89.8323	82.0312	92.4488	82.0312	89.5687	82.0312	92.436	82.0312	89.3524	82.0312	92.3427	82.0312	89.1894	82.0312	92.1752	82.0312	89.082	82.0312	91.948	82.0312	89.0292	82.0312	91.6824	82.0312	89.0269	82.0312	91.4015	82.0312	89.0688	82.0312	91.1253	82.0312	89.1475	82.0312	90.8661	82.0312	89.255	82.0312	90.6284	82.0312	89.3843	82.0312	90.4115	82.0312	89.5294	82.0312	90.2121	82.0312	89.6859	82.0312	90.0265	82.0312	89.8516
84.9609	91.793	84.9609	91.4654	84.9609	92.0864	84.9609	91.1173	84.9609	92.3328	84.9609	90.763	84.9609	92.5207	84.9609	90.4171	84.9609	92.6398	84.9609	90.0939	84.9609	92.6821	84.9609	89.8065	84.9609	92.6431	84.9609	89.5657	84.9609	92.5239	84.9609	89.3791	84.9609	92.3327	84.9609	89.2507	84.9609	92.086	84.9609	89.1802	84.9609	91.8062	84.9609	89.1641	84.9609	91.517	84.9609	89.1961	84.9609	91.2376	84.9609	89.2685	84.9609	90.9788	84.9609	89.3728	84.9609	90.7434	84.9609	89.5012	84.9609	90.5291	84.9609	89.6469	84.9609	90.3316	84.9609	89.8047	84.9609	90.1468	84.9609	89.9716
87.8906	91.8967	87.8906	91.5713	87.8906	92.1859	87.8906	91.2237	87.8906	92.426	87.8906	90.8691	87.8906	92.6054	87.8906	90.5236	87.8906	92.7142	87.8906	90.2029	87.8906	92.7454	87.8906	89.922	87.8906	92.6962	87.8906	89.6933	87.8906	92.5701	87.8906	89.5253	87.8906	92.3787	87.8906	89.4219	87.8906	92.142	87.8906	89.382	87.8906	91.885	87.8906	89.4002	87.8906	91.6318	87.8906	89.4679	87.8906	91.3988	87.8906	89.5751	87.8906	91.192	87.8906	89.7109	87.8906	91.0087	87.8906	89.8653	87.8906	90.8414	87.8906	90.0297	87.8906	90.6819	87.8906	90.197	87.8906	90.5236	87.8906	90.3623
90.8203	92.3614	90.8203	92.0377	90.8203	92.6427	90.8203	91.6858	90.8203	92.8689	90.8203	91.3208	90.8203	93.0281	90.8203	90.9587	90.8203	93.1105	90.8203	90.6164	90.8203	93.109	90.8203	90.3105	90.8203	93.0215	90.8203	90.0566	90.8203	92.8535	90.8203	89.8671	90.8203	92.62	90.8203	89.7499	90.8203	92.3463	90.8203	89.7071	90.8203	92.064	90.8203	89.7344	90.8203	91.8034	90.8203	89.8223	90.8203	91.584	90.8203	89.9573	90.8203	91.4104	90.8203	90.1234	90.8203	91.2744	90.8203	90.3048	90.8203	91.1611	90.8203	90.4867	90.8203	91.0543	90.8203	90.6573	90.8203	90.9402	90.8203	90.8092
95.2148	92.8527	95.2148	92.5256	95.2148	93.1338	95.2148	92.1674	95.2148	93.3555	95.2148	91.7938	95.2148	93.5055	95.2148	91.421	95.2148	93.5738	95.2148	91.0657	95.2148	93.5531	95.2148	90.7438	95.2148	93.4411	95.2148	90.4696	95.2148	93.2426	95.2148	90.2544	95.2148	92.9718	95.2148	90.1055	95.2148	92.654	95.2148	90.025	95.2148	92.322	95.2148	90.0101	95.2148	92.0092	95.2148	90.053	95.2148	91.7397	95.2148	90.1426	95.2148	91.5219	95.2148	90.2656	95.2148	91.3502	95.2148	90.4082	95.2148	91.2107	95.2148	90.5577	95.2148	91.0877	95.2148	90.7041	95.2148	90.9676	95.2148	90.8411
98.1445	92.7626	98.1445	92.4316	98.1445	93.0447	98.1445	92.0666	98.1445	93.2642	98.1445	91.684	98.1445	93.4091	98.1445	91.3011	98.1445	93.47	98.1445	90.9357	98.1445	93.4402	98.1445	90.6049	98.1445	93.3183	98.1445	90.3241	98.1445	93.1101	98.1445	90.1054	98.1445	92.8311	98.1445	89.9562	98.1445	92.5074	98.1445	89.8783	98.1445	92.1729	98.1445	89.868	98.1445	91.8613	98.1445	89.9166	98.1445	91.5962	98.1445	90.0122	98.1445	91.3856	98.1445	90.1409	98.1445	91.2222	98.1445	90.2886	98.1445	91.0906	98.1445	90.4423	98.1445	90.9735	98.1445	90.5919	98.1445	90.8566	98.1445	90.7306
101.074	92.6279	101.074	92.2915	101.074	92.9096	101.074	91.9156	101.074	93.1232	101.074	91.517	101.074	93.2571	101.074	91.1141	101.074	93.3022	101.074	90.7259	101.074	93.2529	101.074	90.3716	101.074	93.1084	101.074	90.0686	101.074	92.8759	101.074	89.8312	101.074	92.5724	101.074	89.6683	101.074	92.2258	101.074	89.5825	101.074	91.8721	101.074	89.5701	101.074	91.547	101.074	89.6215	101.074	91.2758	101.074	89.7232	101.074	91.0665	101.074	89.8595	101.074	90.911	101.074	90.0145	101.074	90.7913	101.074	90.1737	101.074	90.687	101.074	90.3254	101.074	90.5809	101.074	90.4618
105.469	92.4628	105.469	92.1403	105.469	92.7241	105.469	91.7702	105.469	92.9121	105.469	91.3675	105.469	93.0165	105.469	90.9491	105.469	93.0285	105.469	90.5333	105.469	92.9422	105.469	90.1392	105.469	92.7561	105.469	89.7854	105.469	92.4759	105.469	89.4883	105.469	92.1176	105.469	89.2605	105.469	91.7087	105.469	89.1083	105.469	91.287	105.469	89.0316	105.469	90.8921	105.469	89.0234	105.469	90.5554	105.469	89.0717	105.469	90.2912	105.469	89.1614	105.469	90.0958	105.469	89.2762	105.469	89.9529	105.469	89.4009	105.469	89.8412	105.469	89.5237	105.469	89.7408	105.469	89.6372
108.398	92.3249	108.398	92.0107	108.398	92.5843	108.398	91.6554	108.398	92.7761	108.398	91.2742	108.398	92.8889	108.398	90.8831	108.398	92.9131	108.398	90.4988	108.398	92.8422	108.398	90.138	108.398	92.6741	108.398	89.8164	108.398	92.4138	108.398	89.5472	108.398	92.0758	108.398	89.3398	108.398	91.6853	108.398	89.1986	108.398	91.276	108.398	89.1224	108.398	90.8838	108.398	89.1048	108.398	90.5382	108.398	89.1351	108.398	90.2558	108.398	89.2003	108.398	90.0389	108.398	89.2868	108.398	89.8782	108.398	89.3822	108.398	89.7576	108.398	89.4778	108.398	89.6597	108.398	89.5694
112.793	91.8292	112.793	91.481	112.793	92.1204	112.793	91.0927	112.793	92.3396	112.793	90.6833	112.793	92.4746	112.793	90.2733	112.793	92.5161	112.793	89.8836	112.793	92.4592	112.793	89.5341	112.793	92.305	112.793	89.2419	112.793	92.0628	112.793	89.0193	112.793	91.7522	112.793	88.8726	112.793	91.4027	112.793	88.8012	112.793	91.0496	112.793	88.7986	112.793	90.7259	112.793	88.8537	112.793	90.4531	112.793	88.9525	112.793	90.2374	112.793	89.0799	112.793	90.0721	112.793	89.2213	112.793	89.9431	112.793	89.3641	112.793	89.8344	112.793	89.499	112.793	89.7308	112.793	89.6211
117.188	91.2551	117.188	90.8551	117.188	91.5801	117.188	90.3978	117.188	91.8159	117.188	89.905	117.188	91.9519	117.188	89.4021	117.188	91.9811	117.188	88.9179	117.188	91.9018	117.188	88.4818	117.188	91.7185	117.188	88.1209	117.188	91.4451	117.188	87.8553	117.188	91.1056	117.188	87.6944	117.188	90.7341	117.188	87.6357	117.188	90.3683	117.188	87.6667	117.188	90.0404	117.188	87.7684	117.188	89.7677	117.188	87.9197	117.188	89.5508	117.188	88.1	117.188	89.3784	117.188	88.292	117.188	89.2342	117.188	88.482	117.188	89.102	117.188	88.6604	117.188	88.968	117.188	88.8224
120.117	91.5518	120.117	91.1849	120.117	91.8338	120.117	90.7473	120.117	92.0192	120.117	90.2569	120.117	92.0994	120.117	89.7355	120.117	92.0691	120.117	89.2093	120.117	91.9273	120.117	88.708	120.117	91.6802	120.117	88.2626	120.117	91.3436	120.117	87.901	120.117	90.946	120.117	87.6438	120.117	90.5274	120.117	87.4992	120.117	90.1323	120.117	87.4625	120.117	89.7966	120.117	87.5183	120.117	89.5353	120.117	87.6447	120.117	89.3407	120.117	87.8186	120.117	89.1907	120.117	88.0186	120.117	89.0601	120.117	88.2267	120.117	88.9286	120.117	88.4292	120.117	88.7827	120.117	88.6162
124.512	91.6895	124.512	91.3459	124.512	91.9522	124.512	90.936	124.512	92.1221	124.512	90.4773	124.512	92.1898	124.512	89.9909	124.512	92.1493	124.512	89.5014	124.512	91.9996	124.512	89.0371	124.512	91.7467	124.512	88.6273	124.512	91.4075	124.512	88.2994	124.512	91.0123	124.512	88.0741	124.512	90.6043	124.512	87.961	124.512	90.2325	124.512	87.9569	124.512	89.9369	124.512	88.047	124.512	89.7346	124.512	88.2086	124.512	89.6157	124.512	88.416	124.512	89.5515	124.512	88.6437	124.512	89.5076	124.512	88.869	124.512	89.4536	124.512	89.073	124.512	89.3686	124.512	89.242
128.906	91.5397	128.906	91.1865	128.906	91.8044	128.906	90.7602	128.906	91.9677	128.906	90.2795	128.906	92.0196	128.906	89.7669	128.906	91.9534	128.906	89.2494	128.906	91.7676	128.906	88.7583	128.906	91.469	128.906	88.3271	128.906	91.0771	128.906	87.9876	128.906	90.6285	128.906	87.7644	128.906	90.1769	128.906	87.669	128.906	89.7848	128.906	87.6974	128.906	89.5023	128.906	87.831	128.906	89.347	128.906	88.0419	128.906	89.2988	128.906	88.2982	128.906	89.3143	128.906	88.5688	128.906	89.3459	128.906	88.8254	128.906	89.3545	128.906	89.0451	128.906	89.3137	128.906	89.2109
133.301	91.4319	133.301	91.0802	133.301	91.6888	133.301	90.6469	133.301	91.8395	133.301	90.147	133.301	91.8741	133.301	89.5992	133.301	91.7842	133.301	89.0262	133.301	91.5648	133.301	88.456	133.301	91.2164	133.301	87.9219	133.301	90.7501	133.301	87.46	133.301	90.1937	133.301	87.105	133.301	89.5982	133.301	86.8828	133.301	89.0365	133.301	86.8033	133.301	88.5869	133.301	86.8573	133.301	88.3009	133.301	87.0186	133.301	88.1783	133.301	87.2508	133.301	88.1719	133.301	87.514	133.301	88.2154	133.301	87.7708	133.301	88.2495	133.301	87.9898	133.301	88.2338	133.301	88.148
139.16	90.7824	139.16	90.4574	139.16	91.023	139.16	90.062	139.16	91.1672	139.16	89.6127	139.16	91.2055	139.16	89.1285	139.16	91.1312	139.16	88.6311	139.16	90.9413	139.16	88.1446	139.16	90.6382	139.16	87.6943	139.16	90.2325	139.16	87.305	139.16	89.7454	139.16	86.9974	139.16	89.2115	139.16	86.7848	139.16	88.6781	139.16	86.6701	139.16	88.1981	139.16	86.6455	139.16	87.8169	139.16	86.6941	139.16	87.5567	139.16	86.7932	139.16	87.4093	139.16	86.9181	139.16	87.3424	139.16	87.0454	139.16	87.3139	139.16	87.1561	139.16	87.287	139.16	87.2376
143.555	90.2275	143.555	89.8438	143.555	90.5078	143.555	89.3737	143.555	90.6717	143.555	88.8385	143.555	90.7104	143.555	88.2645	143.555	90.6193	143.555	87.6831	143.555	90.3997	143.555	87.1296	143.555	90.0611	143.555	86.6406	143.555	89.6237	143.555	86.2482	143.555	89.1208	143.555	85.9746	143.555	88.5973	143.555	85.8268	143.555	88.1027	143.555	85.7961	143.555	87.6798	143.555	85.8612	143.555	87.3539	143.555	85.9941	143.555	87.1294	143.555	86.1652	143.555	86.9927	143.555	86.3471	143.555	86.918	143.555	86.5168	143.555	86.8737	143.555	86.6577	143.555	86.8292	143.555	86.7614
147.949	90.8152	147.949	90.461	147.949	91.0493	147.949	89.9982	147.949	91.1545	147.949	89.4416	147.949	91.1238	147.949	88.8108	147.949	90.9533	147.949	88.132	147.949	90.6438	147.949	87.4396	147.949	90.2044	147.949	86.7772	147.949	89.6579	147.949	86.194	147.949	89.047	147.949	85.7373	147.949	88.4361	147.949	85.4403	147.949	87.9005	147.949	85.3116	147.949	87.4996	147.949	85.3338	147.949	87.2493	147.949	85.4715	147.949	87.1188	147.949	85.6839	147.949	87.0531	147.949	85.9334	147.949	87	147.949	86.1898	147.949	86.9235	147.949	86.4305	147.949	86.8049	147.949	86.6391
153.809	90.648	153.809	90.3393	153.809	90.8482	153.809	89.9332	153.809	90.9303	153.809	89.4432	153.809	90.886	153.809	88.8862	153.809	90.7094	153.809	88.2839	153.809	90.3981	153.809	87.6646	153.809	89.9562	153.809	87.0642	153.809	89.3995	153.809	86.5257	153.809	88.7631	153.809	86.0947	153.809	88.1093	153.809	85.81	153.809	87.5269	153.809	85.6925	153.809	87.1092	153.809	85.7378	153.809	86.9104	153.809	85.9172	153.809	86.9122	153.809	86.1866	153.809	87.0366	153.809	86.4966	153.809	87.1902	153.809	86.8005	153.809	87.2991	153.809	87.0582	153.809	87.3203	153.809	87.2382
159.668	89.9859	159.668	89.6897	159.668	90.1731	159.668	89.2961	159.668	90.2418	159.668	88.819	159.668	90.1841	159.668	88.2753	159.668	89.9949	159.668	87.6856	159.668	89.6722	159.668	87.0751	159.668	89.2192	159.668	86.4736	159.668	88.647	159.668	85.9151	159.668	87.979	159.668	85.434	159.668	87.256	159.668	85.0603	159.668	86.5399	159.668	84.813	159.668	85.9099	159.668	84.6948	159.668	85.4427	159.668	84.6916	159.668	85.1789	159.668	84.775	159.668	85.0993	159.668	84.9087	159.668	85.1363	159.668	85.0546	159.668	85.2101	159.668	85.1773	159.668	85.2589	159.668	85.25
165.527	89.8813	165.527	89.5459	165.527	90.0905	165.527	89.0995	165.527	90.1608	165.527	88.5605	165.527	90.0823	165.527	87.9514	165.527	89.8486	165.527	87.3001	165.527	89.4591	165.527	86.6406	165.527	88.9225	165.527	86.0127	165.527	88.2622	165.527	85.4594	165.527	87.5231	165.527	85.0199	165.527	86.7757	165.527	84.7218	165.527	86.1092	165.527	84.5734	165.527	85.607	165.527	84.562	165.527	85.3126	165.527	84.658	165.527	85.2113	165.527	84.8233	165.527	85.2446	165.527	85.0184	165.527	85.3387	165.527	85.2069	165.527	85.4297	165.527	85.3587	165.527	85.4744	165.527	85.4516
171.387	90.6505	171.387	90.3456	171.387	90.8214	171.387	89.9147	171.387	90.8516	171.387	89.3682	171.387	90.7353	171.387	88.7201	171.387	90.4681	171.387	87.9906	171.387	90.0476	171.387	87.2086	171.387	89.4761	171.387	86.4141	171.387	88.7641	171.387	85.6589	171.387	87.9371	171.387	85.0011	171.387	87.0453	171.387	84.494	171.387	86.1722	171.387	84.1696	171.387	85.4307	171.387	84.0289	171.387	84.9279	171.387	84.0442	171.387	84.7032	171.387	84.1712	171.387	84.6986	171.387	84.3617	171.387	84.7996	171.387	84.5703	171.387	84.9003	171.387	84.7565	171.387	84.9367	171.387	84.8866
177.246	91.0948	177.246	90.8076	177.246	91.2509	177.246	90.4006	177.246	91.2653	177.246	89.8861	177.246	91.129	177.246	89.2789	177.246	90.8349	177.246	88.598	177.246	90.3807	177.246	87.8696	177.246	89.771	177.246	87.1309	177.246	89.0222	177.246	86.4319	177.246	88.1681	177.246	85.8327	177.246	87.268	177.246	85.3922	177.246	86.4136	177.246	85.1487	177.246	85.7232	177.246	85.1035	177.246	85.3076	177.246	85.2198	177.246	85.2086	177.246	85.4381	177.246	85.3629	177.246	85.6938	177.246	85.64	177.246	85.9289	177.246	85.9126	177.246	86.0959	177.246	86.0977	177.246	86.1592
183.105	91.1531	183.105	90.8937	183.105	91.2895	183.105	90.5236	183.105	91.2922	183.105	90.057	183.105	91.1541	183.105	89.5098	183.105	90.8717	183.105	88.9003	183.105	90.4475	183.105	88.2504	183.105	89.8916	183.105	87.5867	183.105	89.2227	183.105	86.9421	183.105	88.4694	183.105	86.3547	183.105	87.6706	183.105	85.8651	183.105	86.8772	183.105	85.5079	183.105	86.1547	183.105	85.3021	183.105	85.5816	183.105	85.2423	183.105	85.2287	183.105	85.297	183.105	85.1183	183.105	85.4161	183.105	85.1988	183.105	85.5426	183.105	85.3697	183.105	85.6245	183.105	85.533	183.105	85.6253
188.965	91.5594	188.965	91.2503	188.965	91.7243	188.965	90.8132	188.965	91.7314	188.965	90.2667	188.965	91.5709	188.965	89.6328	188.965	91.2384	188.965	88.9379	188.965	90.7378	188.965	88.2154	188.965	90.0855	188.965	87.5068	188.965	89.315	188.965	86.8619	188.965	88.4816	188.965	86.3325	188.965	87.6624	188.965	85.9611	188.965	86.9469	188.965	85.7682	188.965	86.4175	188.965	85.7451	188.965	86.1245	188.965	85.8577	188.965	86.0663	188.965	86.0574	188.965	86.1855	188.965	86.2918	188.965	86.3904	188.965	86.5117	188.965	86.5903	188.965	86.675	188.965	86.7208	188.965	86.7503
196.289	92.567	196.289	92.2919	196.289	92.6971	196.289	91.8861	196.289	92.6696	196.289	91.3654	196.289	92.4743	196.289	90.747	196.289	92.1047	196.289	90.0513	196.289	91.5594	196.289	89.3042	196.289	90.8457	196.289	88.5405	196.289	89.9843	196.289	87.8076	196.289	89.017	196.289	87.1655	196.289	88.015	196.289	86.6786	196.289	87.0854	196.289	86.3959	196.289	86.3619	196.289	86.3301	196.289	85.9661	196.289	86.4487	196.289	85.9408	196.289	86.6864	196.289	86.2088	196.289	86.9665	196.289	86.6146	196.289	87.2175	196.289	87.0066	196.289	87.3804	196.289	87.2866	196.289	87.4118
203.613	92.009	203.613	91.7079	203.613	92.1668	203.613	91.2826	203.613	92.1654	203.613	90.7548	203.613	91.9924	203.613	90.1489	203.613	91.6404	203.613	89.4922	203.613	91.1091	203.613	88.8156	203.613	90.4079	203.613	88.1547	203.613	89.5616	203.613	87.5506	203.613	88.6165	203.613	87.0489	203.613	87.6473	203.613	86.6947	203.613	86.7589	203.613	86.5214	203.613	86.075	203.613	86.5363	203.613	85.7079	203.613	86.7119	203.613	85.7091	203.613	86.9892	203.613	86.026	203.613	87.2913	203.613	86.5168	203.613	87.5409	203.613	87.02	203.613	87.6717	203.613	87.4144	203.613	87.6366
210.938	93.2444	210.938	92.9094	210.938	93.4116	210.938	92.4197	210.938	93.4003	210.938	91.7903	210.938	93.2018	210.938	91.04	210.938	92.8105	210.938	90.1931	210.938	92.2251	210.938	89.2832	210.938	91.4509	210.938	88.3581	210.938	90.5037	210.938	87.4841	210.938	89.418	210.938	86.744	210.938	88.2606	210.938	86.2219	210.938	87.1478	210.938	85.9743	210.938	86.2523	210.938	86.003	210.938	85.7601	210.938	86.2526	210.938	85.7548	210.938	86.6334	210.938	86.1335	210.938	87.0478	210.938	86.678	210.938	87.4078	210.938	87.1889	210.938	87.6416	210.938	87.5453	210.938	87.6971
218.262	93.8819	218.262	93.617	218.262	94.0111	218.262	93.2246	218.262	93.9982	218.262	92.7142	218.262	93.8392	218.262	92.0974	218.262	93.5322	218.262	91.3878	218.262	93.0776	218.262	90.6024	218.262	92.4778	218.262	89.7636	218.262	91.737	218.262	88.9004	218.262	90.8609	218.262	88.0487	218.262	89.8581	218.262	87.2515	218.262	88.7418	218.262	86.5561	218.262	87.5392	218.262	86.0087	218.262	86.3162	218.262	85.6431	218.262	85.2222	218.262	85.4624	218.262	84.494	218.262	85.4239	218.262	84.3007	218.262	85.4414	218.262	84.5405	218.262	85.4112	218.262	84.9312	218.262	85.2492
225.586	93.3634	225.586	93.0451	225.586	93.5353	225.586	92.5955	225.586	93.5496	225.586	92.0327	225.586	93.4002	225.586	91.3783	225.586	93.0881	225.586	90.6584	225.586	92.6228	225.586	89.9075	225.586	92.0248	225.586	89.1719	225.586	91.3278	225.586	88.5102	225.586	90.5805	225.586	87.9867	225.586	89.8456	225.586	87.6527	225.586	89.1941	225.586	87.5267	225.586	88.6941	225.586	87.5855	225.586	88.3916	225.586	87.7765	225.586	88.2914	225.586	88.0368	225.586	88.3503	225.586	88.3083	225.586	88.4943	225.586	88.5436	225.586	88.6484	225.586	88.7077	225.586	88.7551	225.586	88.7796
232.91	93.4697	232.91	93.0759	232.91	93.7	232.91	92.5385	232.91	93.7505	232.91	91.8793	232.91	93.6099	232.91	91.121	232.91	93.2744	232.91	90.288	232.91	92.7504	232.91	89.41	232.91	92.0589	232.91	88.5289	232.91	91.2403	232.91	87.7089	232.91	90.3563	232.91	87.0406	232.91	89.4857	232.91	86.6269	232.91	88.7116	232.91	86.5412	232.91	88.1143	232.91	86.7804	232.91	87.7776	232.91	87.2609	232.91	87.7699	232.91	87.8598	232.91	88.0731	232.91	88.4589	232.91	88.5488	232.91	88.9634	232.91	89.0145	232.91	89.3038	232.91	89.3323	232.91	89.4337
241.699	94.3483	241.699	93.9785	241.699	94.538	241.699	93.4447	241.699	94.5353	241.699	92.7656	241.699	94.3314	241.699	91.9624	241.699	93.9216	241.699	91.0599	241.699	93.305	241.699	90.0893	241.699	92.4838	241.699	89.093	241.699	91.4664	241.699	88.1318	241.699	90.2768	241.699	87.2878	241.699	88.9797	241.699	86.6551	241.699	87.7207	241.699	86.3132	241.699	86.7483	241.699	86.2926	241.699	86.3207	241.699	86.557	241.699	86.4905	241.699	87.0167	241.699	87.0448	241.699	87.558	241.699	87.696	241.699	88.0677	241.699	88.2372	241.699	88.4487	241.699	88.5603	241.699	88.6276
250.488	92.9424	250.488	92.6218	250.488	93.0936	250.488	92.1534	250.488	93.06	250.488	91.5634	250.488	92.8322	250.488	90.8809	250.488	92.4067	250.488	90.1347	250.488	91.7883	250.488	89.351	250.488	90.9935	250.488	88.5529	250.488	90.0583	250.488	87.7652	250.488	89.0484	250.488	87.0209	250.488	88.0632	250.488	86.3681	250.488	87.2109	250.488	85.8681	250.488	86.5525	250.488	85.5772	250.488	86.0707	250.488	85.5135	250.488	85.7203	250.488	85.6332	250.488	85.5016	250.488	85.841	250.488	85.4586	250.488	86.027	250.488	85.5968	250.488	86.1035	250.488	85.8301	250.488	86.0299
259.277	93.9903	259.277	93.5203	259.277	94.2573	259.277	92.8581	259.277	94.3115	259.277	92.0162	259.277	94.1438	259.277	91.0103	259.277	93.7461	259.277	89.8662	259.277	93.1094	259.277	88.6306	259.277	92.222	259.277	87.3894	259.277	91.0688	259.277	86.2837	259.277	89.6401	259.277	85.494	259.277	87.9689	259.277	85.1611	259.277	86.2436	259.277	85.2912	259.277	84.9937	259.277	85.7636	259.277	84.8765	259.277	86.4228	259.277	85.7686	259.277	87.1416	259.277	86.9441	259.277	87.8261	259.277	87.9396	259.277	88.4043	259.277	88.6146	259.277	88.8177	259.277	88.9634	259.277	89.0181
268.066	95.1436	268.066	94.835	268.066	95.282	268.066	94.3623	268.066	95.2462	268.066	93.7323	268.066	95.0339	268.066	92.953	268.066	94.6433	268.066	92.0342	268.066	94.0712	268.066	90.9909	268.066	93.3109	268.066	89.8493	268.066	92.3517	268.066	88.6548	268.066	91.1841	268.066	87.4822	268.066	89.815	268.066	86.4417	268.066	88.3023	268.066	85.6671	268.066	86.81	268.066	85.2728	268.066	85.6493	268.066	85.2889	268.066	85.1561	268.066	85.6326	268.066	85.369	268.066	86.1455	268.066	85.9693	268.066	86.6582	268.066	86.5935	268.066	87.0317	268.066	87.0226	268.066	87.17
276.855	93.0798	276.855	92.7521	276.855	93.2662	276.855	92.2954	276.855	93.2995	276.855	91.7199	276.855	93.1694	276.855	91.0331	276.855	92.8671	276.855	90.2407	276.855	92.3834	276.855	89.3517	276.855	91.7055	276.855	88.3878	276.855	90.8147	276.855	87.3985	276.855	89.689	276.855	86.4806	276.855	88.3194	276.855	85.7923	276.855	86.7661	276.855	85.5195	276.855	85.2964	276.855	85.7648	276.855	84.5222	276.855	86.4485	276.855	84.9467	276.855	87.3573	276.855	86.1957	276.855	88.2696	276.855	87.5619	276.855	89.0194	276.855	88.6565	276.855	89.4949	276.855	89.3499	276.855	89.6215
287.109	93.4011	287.109	93.0796	287.109	93.563	287.109	92.6128	287.109	93.5579	287.109	92.0164	287.109	93.3879	287.109	91.3005	287.109	93.0631	287.109	90.4671	287.109	92.5959	287.109	89.5142	287.109	91.9918	287.109	88.4497	287.109	91.2379	287.109	87.3114	287.109	90.2913	287.109	86.1933	287.109	89.0778	287.109	85.2633	287.109	87.5159	287.109	84.7333	287.109	85.618	287.109	84.7473	287.109	83.8111	287.109	85.2692	287.109	83.2488	287.109	86.1078	287.109	84.3673	287.109	87.03	287.109	86.0144	287.109	87.8348	287.109	87.3636	287.109	88.3686	287.109	88.2003	287.109	88.5178
297.363	94.3635	297.363	94.0338	297.363	94.4825	297.363	93.5242	297.363	94.3757	297.363	92.8736	297.363	94.0488	297.363	92.1185	297.363	93.5311	297.363	91.2813	297.363	92.8745	297.363	90.3647	297.363	92.1427	297.363	89.3547	297.363	91.3834	297.363	88.2329	297.363	90.588	297.363	86.9966	297.363	89.6615	297.363	85.6942	297.363	88.4235	297.363	84.4858	297.363	86.6372	297.363	83.6901	297.363	84.0642	297.363	83.6283	297.363	80.8239	297.363	84.2527	297.363	79.2222	297.363	85.1543	297.363	81.2898	297.363	85.9308	297.363	83.7622	297.363	86.3296	297.363	85.3843	297.363	86.192
307.617	94.4571	307.617	94.0868	307.617	94.5724	307.617	93.4808	307.617	94.4305	307.617	92.6745	307.617	94.0451	307.617	91.7183	307.617	93.4448	307.617	90.6722	307.617	92.6723	307.617	89.5963	307.617	91.785	307.617	88.5393	307.617	90.8572	307.617	87.5311	307.617	89.9758	307.617	86.5872	307.617	89.2077	307.617	85.7287	307.617	88.5453	307.617	85.0129	307.617	87.8876	307.617	84.5505	307.617	87.1035	307.617	84.4563	307.617	86.1341	307.617	84.7259	307.617	85.0998	307.617	85.1763	307.617	84.3673	307.617	85.5492	307.617	84.3119	307.617	85.6405	307.617	84.8073	307.617	85.364
319.336	94.3249	319.336	94.1053	319.336	94.3239	319.336	93.6697	319.336	94.1112	319.336	93.0338	319.336	93.7083	319.336	92.2202	319.336	93.1466	319.336	91.2539	319.336	92.4626	319.336	90.1578	319.336	91.6937	319.336	88.9528	319.336	90.8706	319.336	87.6612	319.336	90.002	319.336	86.3207	319.336	89.0526	319.336	85.0191	319.336	87.9298	319.336	83.9651	319.336	86.5152	319.336	83.5235	319.336	84.8191	319.336	83.965	319.336	83.4131	319.336	85.0814	319.336	83.5278	319.336	86.3736	319.336	85.0567	319.336	87.4551	319.336	86.6837	319.336	88.1179	319.336	87.7838	319.336	88.2508
329.59	93.7357	329.59	93.4502	329.59	93.8117	329.59	92.971	329.59	93.6696	329.59	92.3223	329.59	93.3088	329.59	91.5369	329.59	92.7395	329.59	90.6553	329.59	91.9898	329.59	89.7231	329.59	91.1141	329.59	88.7831	329.59	90.1985	329.59	87.864	329.59	89.3497	329.59	86.9706	329.59	88.6443	329.59	86.0946	329.59	88.0594	329.59	85.2608	329.59	87.4695	329.59	84.6095	329.59	86.7572	329.59	84.4205	329.59	85.9791	329.59	84.8807	329.59	85.4771	329.59	85.7824	329.59	85.6398	329.59	86.696	329.59	86.3404	329.59	87.2957	329.59	87.0612	329.59	87.4248
341.309	94.7297	341.309	94.5009	341.309	94.703	341.309	94.0291	341.309	94.4209	341.309	93.333	341.309	93.9006	341.309	92.4315	341.309	93.1772	341.309	91.3398	341.309	92.3035	341.309	90.0744	341.309	91.347	341.309	88.6702	341.309	90.3837	341.309	87.2068	341.309	89.4788	341.309	85.8262	341.309	88.6449	341.309	84.6997	341.309	87.7954	341.309	83.9461	341.309	86.7425	341.309	83.6206	341.309	85.2651	341.309	83.8063	341.309	83.3213	341.309	84.5591	341.309	81.8267	341.309	85.6805	341.309	82.684	341.309	86.7592	341.309	84.8782	341.309	87.4221	341.309	86.5928	341.309	87.4206
353.027	94.2909	353.027	94.0762	353.027	94.2851	353.027	93.6537	353.027	94.0526	353.027	93.0412	353.027	93.5935	353.027	92.2561	353.027	92.9107	353.027	91.3113	353.027	92.0095	353.027	90.2143	353.027	90.9008	353.027	88.9709	353.027	89.6155	353.027	87.5945	353.027	88.2414	353.027	86.121	353.027	86.9883	353.027	84.6435	353.027	86.1752	353.027	83.3944	353.027	85.9593	353.027	82.822	353.027	86.1217	353.027	83.3115	353.027	86.3616	353.027	84.6175	353.027	86.6082	353.027	86.1044	353.027	86.9786	353.027	87.3194	353.027	87.5163	353.027	88.0615	353.027	88.0393	353.027	88.2811
366.211	94.8154	366.211	94.7293	366.211	94.6638	366.211	94.4301	366.211	94.2654	366.211	93.95	366.211	93.6319	366.211	93.319	366.211	92.7983	366.211	92.5555	366.211	91.819	366.211	91.6638	366.211	90.7542	366.211	90.6392	366.211	89.6562	366.211	89.4756	366.211	88.5659	366.211	88.1712	366.211	87.5139	366.211	86.73	366.211	86.4801	366.211	85.1811	366.211	85.3092	366.211	83.68	366.211	83.6796	366.211	82.7391	366.211	81.2838	366.211	83.0463	366.211	79.0651	366.211	84.3626	366.211	80.4966	366.211	85.7462	366.211	83.5709	366.211	86.59	366.211	85.6743	366.211	86.6245
379.395	94.1261	379.395	93.9487	379.395	94.0674	379.395	93.5597	379.395	93.7677	379.395	92.9932	379.395	93.2482	379.395	92.2819	379.395	92.5544	379.395	91.4507	379.395	91.7433	379.395	90.5205	379.395	90.8611	379.395	89.5195	379.395	89.9185	379.395	88.4873	379.395	88.874	379.395	87.4564	379.395	87.6394	379.395	86.4167	379.395	86.1468	379.395	85.3209	379.395	84.523	379.395	84.2206	379.395	83.29	379.395	83.5659	379.395	83.033	379.395	84.0878	379.395	83.7311	379.395	85.5961	379.395	85.0534	379.395	87.1314	379.395	86.5686	379.395	88.1051	379.395	87.7702	379.395	88.3238
392.578	94.4064	392.578	94.1831	392.578	94.3476	392.578	93.7136	392.578	94.001	392.578	93.0542	392.578	93.3909	392.578	92.2647	392.578	92.5669	392.578	91.3882	392.578	91.5955	392.578	90.4432	392.578	90.5564	392.578	89.4377	392.578	89.5437	392.578	88.3939	392.578	88.6587	392.578	87.3563	392.578	87.9697	392.578	86.3608	392.578	87.439	392.578	85.3785	392.578	86.8778	392.578	84.3168	392.578	85.9746	392.578	83.1793	392.578	84.3636	392.578	82.3931	392.578	81.8475	392.578	82.6753	392.578	79.7922	392.578	83.7755	392.578	81.1878	392.578	84.6656	392.578	83.4955	392.578	84.6767
405.762	95.1675	405.762	94.9025	405.762	95.134	405.762	94.3871	405.762	94.7918	405.762	93.6924	405.762	94.1689	405.762	92.8845	405.762	93.3187	405.762	91.995	405.762	92.2987	405.762	91.0157	405.762	91.1503	405.762	89.9224	405.762	89.894	405.762	88.7135	405.762	88.5551	405.762	87.4419	405.762	87.2268	405.762	86.2307	405.762	86.1228	405.762	85.2631	405.762	85.4357	405.762	84.7615	405.762	85.0252	405.762	84.9412	405.762	84.554	405.762	85.8282	405.762	84.1656	405.762	87.0909	405.762	84.7514	405.762	88.2396	405.762	86.3884	405.762	88.8969	405.762	87.9679	405.762	88.8397
420.41	94.8493	420.41	94.6182	420.41	94.6781	420.41	94.0137	420.41	94.1217	420.41	93.1074	420.41	93.2492	420.41	92.0051	420.41	92.1827	420.41	90.8159	420.41	91.0647	420.41	89.6087	420.41	89.9904	420.41	88.3969	420.41	88.9714	420.41	87.1756	420.41	87.9705	420.41	85.9723	420.41	86.948	420.41	84.8509	420.41	85.8867	420.41	83.8632	420.41	84.8184	420.41	83.0601	420.41	83.7151	420.41	82.7007	420.41	82.2062	420.41	83.2786	420.41	79.8046	420.41	84.6972	420.41	78.5606	420.41	86.1191	420.41	81.7809	420.41	86.8627	420.41	84.937	420.41	86.5617
435.059	94.5636	435.059	94.3143	435.059	94.483	435.059	93.7692	435.059	94.0982	435.059	93.0126	435.059	93.4818	435.059	92.1512	435.059	92.7144	435.059	91.2695	435.059	91.8388	435.059	90.3937	435.059	90.8552	435.059	89.4952	435.059	89.7606	435.059	88.5273	435.059	88.5825	435.059	87.4518	435.059	87.383	435.059	86.2348	435.059	86.2497	435.059	84.8479	435.059	85.2792	435.059	83.3952	435.059	84.5044	435.059	82.5544	435.059	83.8609	435.059	83.4119	435.059	83.5811	435.059	85.4417	435.059	84.4149	435.059	87.2952	435.059	86.1859	435.059	88.3812	435.059	87.7674	435.059	88.5457
451.172	95.04	451.172	94.7728	451.172	94.8673	451.172	94.068	451.172	94.3228	451.172	93.0014	451.172	93.5369	451.172	91.7188	451.172	92.6655	451.172	90.3998	451.172	91.8191	451.172	89.1709	451.172	91.0107	451.172	88.0429	451.172	90.1762	451.172	86.9555	451.172	89.2231	451.172	85.874	451.172	88.0663	451.172	84.8364	451.172	86.7217	451.172	83.9389	451.172	85.4702	451.172	83.3408	451.172	84.5741	451.172	83.361	451.172	83.4258	451.172	84.2873	451.172	80.7155	451.172	85.7715	451.172	76.5747	451.172	87.0559	451.172	80.2566	451.172	87.5775	451.172	84.75	451.172	86.9575
465.82	95.4553	465.82	95.2525	465.82	95.2423	465.82	94.6266	465.82	94.6889	465.82	93.633	465.82	93.929	465.82	92.3855	465.82	93.1027	465.82	91.042	465.82	92.2729	465.82	89.763	465.82	91.4023	465.82	88.6509	465.82	90.4295	465.82	87.7138	465.82	89.3476	465.82	86.871	465.82	88.2019	465.82	85.9626	465.82	87.0275	465.82	84.7423	465.82	85.8511	465.82	82.9002	465.82	84.6961	465.82	80.3957	465.82	83.2317	465.82	79.2829	465.82	80.2841	465.82	81.6893	465.82	72.6582	465.82	84.218	465.82	74.412	465.82	85.3228	465.82	81.8378	465.82	84.7191
483.398	95.6795	483.398	95.556	483.398	95.423	483.398	95.025	483.398	94.8868	483.398	94.133	483.398	94.2032	483.398	92.985	483.398	93.4522	483.398	91.7083	483.398	92.6142	483.398	90.396	483.398	91.6192	483.398	89.0745	483.398	90.4139	483.398	87.7444	483.398	88.9787	483.398	86.4564	483.398	87.3671	483.398	85.3077	483.398	85.8848	483.398	84.2781	483.398	85.1727	483.398	83.123	483.398	85.3091	483.398	81.8039	483.398	85.3095	483.398	81.5954	483.398	84.269	483.398	83.5554	483.398	82.2144	483.398	85.7418	483.398	81.9517	483.398	86.8117	483.398	84.5182	483.398	86.4304
499.512	94.354	499.512	94.4216	499.512	93.8712	499.512	94.0241	499.512	93.1272	499.512	93.2062	499.512	92.3613	499.512	92.0939	499.512	91.7929	499.512	90.8691	499.512	91.4699	499.512	89.7226	499.512	91.2554	499.512	88.8014	499.512	90.9409	499.512	88.1708	499.512	90.2855	499.512	87.7743	499.512	88.9713	499.512	87.4041	499.512	86.6015	499.512	86.7388	499.512	83.1472	499.512	85.4394	499.512	81.4514	499.512	83.3565	499.512	83.0173	499.512	81.4328	499.512	83.6642	499.512	81.985	499.512	82.3868	499.512	83.6801	499.512	80.2857	499.512	84.3173	499.512	81.0719	499.512	83.3557
517.09	95.4637	517.09	95.6383	517.09	94.7577	517.09	95.1948	517.09	93.7287	517.09	94.1425	517.09	92.6901	517.09	92.5847	517.09	91.8863	517.09	90.7342	517.09	91.3231	517.09	88.8873	517.09	90.9231	517.09	87.3025	517.09	90.6771	517.09	86.1195	517.09	90.4818	517.09	85.4648	517.09	90.0577	517.09	85.3915	517.09	89.1849	517.09	85.5568	517.09	88.0067	517.09	85.387	517.09	86.8583	517.09	84.6965	517.09	85.2408	517.09	84.4707	517.09	81.5075	517.09	86.0322	517.09	75.4923	517.09	88.1004	517.09	82.1749	517.09	89.2228	517.09	86.8868	517.09	88.9327
536.133	95.7343	536.133	95.628	536.133	95.4083	536.133	95.0396	536.133	94.7752	536.133	93.9905	536.133	94.0182	536.133	92.5866	536.133	93.2533	536.133	91.0265	536.133	92.3955	536.133	89.5411	536.133	91.2951	536.133	88.2261	536.133	90.0292	536.133	86.9247	536.133	88.9581	536.133	85.3772	536.133	88.2618	536.133	83.6148	536.133	87.5807	536.133	82.4242	536.133	86.6366	536.133	82.4309	536.133	85.7018	536.133	82.648	536.133	84.7289	536.133	82.4172	536.133	82.9032	536.133	82.7188	536.133	80.5937	536.133	84.266	536.133	81.5735	536.133	85.6382	536.133	84.3078	536.133	85.7568
555.176	94.4156	555.176	94.9207	555.176	93.5949	555.176	94.9367	555.176	92.8573	555.176	94.4576	555.176	92.5728	555.176	93.567	555.176	92.6052	555.176	92.3961	555.176	92.4978	555.176	91.0857	555.176	91.965	555.176	89.7323	555.176	90.9727	555.176	88.3399	555.176	89.6218	555.176	86.8377	555.176	88.0369	555.176	85.1714	555.176	86.3431	555.176	83.3299	555.176	84.9733	555.176	81.0623	555.176	85.0272	555.176	77.2824	555.176	86.2638	555.176	71.201	555.176	86.7065	555.176	77.2589	555.176	84.8685	555.176	82.156	555.176	78.472	555.176	83.6082	555.176	72.5979	555.176	81.657
574.219	94.6946	574.219	94.8099	574.219	94.3027	574.219	94.4941	574.219	93.9662	574.219	93.7491	574.219	93.9099	574.219	92.6572	574.219	93.9014	574.219	91.3398	574.219	93.5215	574.219	89.9444	574.219	92.5856	574.219	88.63	574.219	91.2314	574.219	87.5099	574.219	89.8263	574.219	86.5848	574.219	88.6635	574.219	85.775	574.219	87.6125	574.219	84.9875	574.219	86.281	574.219	84.0501	574.219	84.505	574.219	82.7064	574.219	82.8769	574.219	81.423	574.219	82.4378	574.219	82.336	574.219	82.6566	574.219	84.7033	574.219	83.1648	574.219	86.1133	574.219	84.5999	574.219	85.98
594.727	94.5209	594.727	94.3583	594.727	94.4105	594.727	93.769	594.727	94.3312	594.727	92.7953	594.727	94.406	594.727	91.5984	594.727	94.3825	594.727	90.3751	594.727	93.955	594.727	89.2837	594.727	93.0062	594.727	88.4023	594.727	91.5743	594.727	87.708	594.727	89.8259	594.727	87.0666	594.727	88.0818	594.727	86.2963	594.727	86.5996	594.727	85.305	594.727	85.2519	594.727	84.1381	594.727	83.8272	594.727	82.764	594.727	82.1788	594.727	80.9986	594.727	79.8219	594.727	79.7763	594.727	77.5098	594.727	81.2582	594.727	79.55	594.727	83.3488	594.727	82.6563	594.727	83.9572
615.234	93.4724	615.234	93.8169	615.234	92.8066	615.234	93.5104	615.234	92.4891	615.234	92.5659	615.234	92.7981	615.234	91.2117	615.234	93.2115	615.234	89.8296	615.234	93.2207	615.234	88.7933	615.234	92.6884	615.234	88.1818	615.234	91.6883	615.234	87.7641	615.234	90.3429	615.234	87.2807	615.234	88.7521	615.234	86.5986	615.234	87.0513	615.234	85.6952	615.234	85.505	615.234	84.5762	615.234	84.5593	615.234	83.2293	615.234	84.4347	615.234	81.9875	615.234	83.9058	615.234	82.0733	615.234	80.7115	615.234	83.4861	615.234	67.2482	615.234	84.3043	615.234	77.5687	615.234	83.0756
637.207	92.8503	637.207	93.2012	637.207	92.8303	637.207	93.1208	637.207	93.6307	637.207	92.3181	637.207	94.6159	637.207	90.8107	637.207	95.0489	637.207	88.8037	637.207	94.6941	637.207	86.763	637.207	93.6281	637.207	85.358	637.207	92.091	637.207	84.8621	637.207	90.4149	637.207	84.9753	637.207	88.898	637.207	85.3905	637.207	87.5505	637.207	85.8315	637.207	85.9468	637.207	85.8564	637.207	83.9407	637.207	84.9212	637.207	83.3581	637.207	82.7086	637.207	84.1672	637.207	81.2514	637.207	83.0439	637.207	83.5523	637.207	78.3717	637.207	85.2698	637.207	79.7421	637.207	84.2992
659.18	92.5724	659.18	92.5895	659.18	93.0361	659.18	92.6009	659.18	93.9323	659.18	92.225	659.18	94.7009	659.18	91.348	659.18	94.8976	659.18	89.9952	659.18	94.3657	659.18	88.2826	659.18	93.1582	659.18	86.4878	659.18	91.465	659.18	85.0048	659.18	89.5516	659.18	83.8882	659.18	87.6605	659.18	82.7951	659.18	85.8516	659.18	81.9292	659.18	84.01	659.18	82.0064	659.18	82.1494	659.18	82.2648	659.18	81.3977	659.18	81.4366	659.18	82.6771	659.18	80.1645	659.18	83.207	659.18	81.153	659.18	81.1247	659.18	82.366	659.18	78.6729	659.18	81.1623
682.617	92.1903	682.617	91.8991	682.617	93.1664	682.617	91.9248	682.617	94.3417	682.617	91.7104	682.617	95.0386	682.617	91.014	682.617	94.9804	682.617	89.8047	682.617	94.2102	682.617	88.1788	682.617	92.9178	682.617	86.3795	682.617	91.2753	682.617	84.7454	682.617	89.3568	682.617	83.4292	682.617	87.4056	682.617	82.2817	682.617	85.9758	682.617	81.4255	682.617	84.8575	682.617	81.4401	682.617	83.7057	682.617	81.8019	682.617	83.7344	682.617	81.2108	682.617	84.2253	682.617	79.7716	682.617	83.2791	682.617	79.9247	682.617	79.9896	682.617	80.6164	682.617	75.6008	682.617	78.6843
707.52	92.3758	707.52	91.8232	707.52	93.4927	707.52	91.6383	707.52	94.6779	707.52	91.3256	707.52	95.3509	707.52	90.6557	707.52	95.2247	707.52	89.6158	707.52	94.2638	707.52	88.2341	707.52	92.6119	707.52	86.5605	707.52	90.5126	707.52	84.842	707.52	88.2828	707.52	83.6031	707.52	86.3352	707.52	82.9253	707.52	84.8077	707.52	82.0697	707.52	83.1632	707.52	80.6574	707.52	80.816	707.52	79.1832	707.52	79.988	707.52	77.7746	707.52	82.1088	707.52	77.0874	707.52	82.6049	707.52	79.386	707.52	80.185	707.52	81.3593	707.52	78.168	707.52	80.6704
732.422	92.2004	732.422	91.3263	732.422	93.5536	732.422	90.9211	732.422	94.8098	732.422	90.4639	732.422	95.4648	732.422	89.5923	732.422	95.309	732.422	88.2979	732.422	94.3593	732.422	86.8321	732.422	92.787	732.422	85.4054	732.422	90.7858	732.422	83.8927	732.422	88.3873	732.422	82.2902	732.422	85.623	732.422	81.5782	732.422	83.3172	732.422	82.207	732.422	82.043	732.422	82.8168	732.422	80.0944	732.422	82.6105	732.422	77.4624	732.422	81.3722	732.422	78.6626	732.422	79.3165	732.422	80.3646	732.422	79.1486	732.422	79.7415	732.422	80.8772	732.422	79.1903	732.422	80.7878
757.324	93.2393	757.324	92.3464	757.324	94.4547	757.324	91.7524	757.324	95.4802	757.324	91.0115	757.324	95.8585	757.324	89.9087	757.324	95.4198	757.324	88.5898	757.324	94.2041	757.324	87.2407	757.324	92.3325	757.324	85.7593	757.324	89.8829	757.324	83.958	757.324	86.943	757.324	82.1236	757.324	84.2639	757.324	81.225	757.324	83.3071	757.324	81.5727	757.324	82.988	757.324	82.2249	757.324	80.9198	757.324	82.3765	757.324	76.3614	757.324	81.5538	757.324	78.4107	757.324	79.9522	757.324	81.4426	757.324	79.6458	757.324	81.34	757.324	80.6911	757.324	80.2896	757.324	80.6572
785.156	93.2974	785.156	91.874	785.156	94.6844	785.156	90.8564	785.156	95.5163	785.156	90.1019	785.156	95.5282	785.156	89.1505	785.156	94.688	785.156	87.7387	785.156	93.1476	785.156	85.9906	785.156	91.1743	785.156	84.5496	785.156	88.9425	785.156	83.9311	785.156	86.3959	785.156	83.2364	785.156	83.6062	785.156	80.8813	785.156	80.8419	785.156	76.654	785.156	78.4541	785.156	78.4778	785.156	76.7619	785.156	81.3209	785.156	73.066	785.156	80.9651	785.156	75.8434	785.156	77.5986	785.156	79.9559	785.156	76.0225	785.156	78.7289	785.156	78.5875	785.156	74.64	785.156	77.6866
811.523	94.5502	811.523	93.0574	811.523	95.7199	811.523	91.7341	811.523	96.1274	811.523	90.6411	811.523	95.601	811.523	89.4597	811.523	94.2393	811.523	87.9722	811.523	92.4191	811.523	86.2168	811.523	90.6167	811.523	84.52	811.523	88.8931	811.523	83.6118	811.523	86.6673	811.523	83.6797	811.523	83.3254	811.523	83.4082	811.523	79.1738	811.523	81.9188	811.523	77.9217	811.523	80.9025	811.523	79.8609	811.523	82.0468	811.523	78.9274	811.523	82.5031	811.523	74.4418	811.523	80.8866	811.523	78.4714	811.523	78.4803	811.523	80.0157	811.523	78.132	811.523	77.6959	811.523	77.1736
840.82	94.9397	840.82	93.3719	840.82	96.092	840.82	91.8217	840.82	96.4267	840.82	90.4405	840.82	95.7081	840.82	89.1154	840.82	93.9366	840.82	87.806	840.82	91.5334	840.82	86.5992	840.82	89.3421	840.82	85.4411	840.82	87.8915	840.82	83.9105	840.82	86.7361	840.82	81.6085	840.82	84.9486	840.82	79.5494	840.82	81.8214	840.82	79.9283	840.82	77.8573	840.82	81.2459	840.82	76.2299	840.82	81.9815	840.82	75.3315	840.82	81.8831	840.82	73.7927	840.82	80.9549	840.82	77.5023	840.82	80.034	840.82	79.1567	840.82	79.5983	840.82	77.7836	840.82	78.221
870.117	95.3978	870.117	93.7775	870.117	96.4418	870.117	92.1222	870.117	96.5107	870.117	90.8183	870.117	95.4266	870.117	89.8435	870.117	93.312	870.117	88.9332	870.117	90.6608	870.117	87.8032	870.117	88.1379	870.117	86.2296	870.117	86.3322	870.117	84.1877	870.117	85.5125	870.117	81.8811	870.117	84.9933	870.117	78.9063	870.117	83.7489	870.117	73.3586	870.117	81.517	870.117	74.126	870.117	80.2605	870.117	79.7399	870.117	79.2395	870.117	81.235	870.117	72.5973	870.117	79.555	870.117	74.772	870.117	77.2134	870.117	80.1057	870.117	78.5128	870.117	80.4573	870.117	79.5962
900.879	95.5729	900.879	93.8555	900.879	96.8084	900.879	92.1435	900.879	97.0484	900.879	90.5686	900.879	96.0056	900.879	89.0448	900.879	93.7864	900.879	87.781	900.879	90.9495	900.879	87.0169	900.879	88.0096	900.879	86.2939	900.879	85.1708	900.879	85.0985	900.879	83.1268	900.879	83.7766	900.879	82.7382	900.879	82.7422	900.879	83.2488	900.879	80.3268	900.879	82.8023	900.879	73.8046	900.879	81.0783	900.879	74.4352	900.879	79.1437	900.879	78.935	900.879	75.4692	900.879	78.7004	900.879	76.8548	900.879	76.581	900.879	78.2742	900.879	76.9745	900.879	77.3986	900.879	77.1074
933.105	95.2116	933.105	93.3535	933.105	96.4108	933.105	91.7966	933.105	96.3726	933.105	90.828	933.105	94.9564	933.105	89.7102	933.105	92.5133	933.105	87.9413	933.105	90.1221	933.105	86.0364	933.105	88.6497	933.105	85.3951	933.105	87.4673	933.105	85.1244	933.105	85.4222	933.105	83.4128	933.105	82.4024	933.105	81.4028	933.105	80.5587	933.105	81.0599	933.105	79.882	933.105	79.484	933.105	80.3019	933.105	77.7501	933.105	79.6842	933.105	79.9953	933.105	73.6761	933.105	80.1358	933.105	74.5765	933.105	77.9483	933.105	80.6288	933.105	80.2126	933.105	82.7587	933.105	82.5849
965.332	95.2911	965.332	93.3569	965.332	96.4369	965.332	91.4164	965.332	96.4013	965.332	90.3036	965.332	95.0361	965.332	89.6343	965.332	92.6704	965.332	88.2159	965.332	90.5115	965.332	85.2909	965.332	89.1042	965.332	82.1639	965.332	87.5201	965.332	82.3894	965.332	85.5359	965.332	82.4229	965.332	83.475	965.332	80.1327	965.332	82.7005	965.332	79.2335	965.332	82.174	965.332	80.2238	965.332	80.1793	965.332	79.3104	965.332	80.5082	965.332	80.1917	965.332	78.8773	965.332	80.8305	965.332	76.3713	965.332	79.7934	965.332	78.3202	965.332	80.2559	965.332	78.1582	965.332	79.6969
1000.49	95.5063	1000.49	93.5101	1000.49	96.1917	1000.49	90.9243	1000.49	95.5755	1000.49	89.3383	1000.49	93.9173	1000.49	88.6382	1000.49	92.2394	1000.49	87.5666	1000.49	91.6242	1000.49	85.8669	1000.49	91.0054	1000.49	83.6703	1000.49	89.6426	1000.49	82.1199	1000.49	87.497	1000.49	82.7887	1000.49	84.5441	1000.49	81.7746	1000.49	81.9359	1000.49	74.4486	1000.49	81.2157	1000.49	75.7033	1000.49	81.2419	1000.49	80.2518	1000.49	81.5501	1000.49	80.6069	1000.49	80.0311	1000.49	79.7792	1000.49	77.8158	1000.49	77.3815	1000.49	81.2535	1000.49	77.8549	1000.49	80.9816	1000.49	79.6652
1035.64	95.5518	1035.64	93.559	1035.64	96.4482	1035.64	90.8502	1035.64	95.9178	1035.64	88.2085	1035.64	94.0814	1035.64	86.7441	1035.64	92.4184	1035.64	86.3296	1035.64	91.8743	1035.64	85.8563	1035.64	91.5944	1035.64	84.6646	1035.64	90.9248	1035.64	82.6259	1035.64	89.0008	1035.64	82.7507	1035.64	86.3495	1035.64	84.0797	1035.64	85.3742	1035.64	81.9501	1035.64	84.2916	1035.64	73.9752	1035.64	82.8548	1035.64	74.1251	1035.64	81.4064	1035.64	79.8255	1035.64	80.0487	1035.64	78.5419	1035.64	74.6194	1035.64	75.713	1035.64	79.2681	1035.64	78.4305	1035.64	79.6532	1035.64	79.546
1072.27	96.3864	1072.27	94.0194	1072.27	97.0958	1072.27	90.7581	1072.27	96.1512	1072.27	88.387	1072.27	94.2429	1072.27	88.024	1072.27	93.0384	1072.27	88.0184	1072.27	93.2152	1072.27	86.6496	1072.27	93.2571	1072.27	83.7158	1072.27	92.481	1072.27	80.2506	1072.27	90.5879	1072.27	75.2892	1072.27	87.5639	1072.27	72.7685	1072.27	85.5478	1072.27	80.3158	1072.27	83.8921	1072.27	81.7427	1072.27	85.0375	1072.27	76.1088	1072.27	85.1025	1072.27	79.2449	1072.27	80.7194	1072.27	80.5869	1072.27	76.4584	1072.27	75.5879	1072.27	80.2154	1072.27	74.6339	1072.27	78.573	1072.27	74.8383
1108.89	96.4644	1108.89	94.4249	1108.89	97.1891	1108.89	91.9892	1108.89	96.1339	1108.89	90.3539	1108.89	93.9886	1108.89	89.9304	1108.89	93.579	1108.89	89.0383	1108.89	94.4124	1108.89	86.8204	1108.89	94.1684	1108.89	83.4709	1108.89	92.5582	1108.89	79.7764	1108.89	89.7629	1108.89	77.5247	1108.89	86.0227	1108.89	76.9568	1108.89	85.098	1108.89	78.9811	1108.89	85.5927	1108.89	81.4619	1108.89	82.3917	1108.89	79.437	1108.89	83.3221	1108.89	77.9423	1108.89	82.695	1108.89	78.3839	1108.89	78.4989	1108.89	75.4491	1108.89	81.5721	1108.89	78.1174	1108.89	80.7698	1108.89	79.9024
1148.44	95.848	1148.44	94.1515	1148.44	96.5161	1148.44	92.1008	1148.44	95.5648	1148.44	90.0729	1148.44	93.8234	1148.44	88.8388	1148.44	93.6051	1148.44	88.2823	1148.44	93.8985	1148.44	87.5283	1148.44	93.6805	1148.44	86.7081	1148.44	93.0945	1148.44	84.7342	1148.44	91.1826	1148.44	82.3377	1148.44	86.7011	1148.44	82.5148	1148.44	83.0393	1148.44	79.6997	1148.44	83.7133	1148.44	78.8073	1148.44	84.5372	1148.44	79.2034	1148.44	83.0131	1148.44	77.9668	1148.44	84.3185	1148.44	81.064	1148.44	79.7521	1148.44	77.1177	1148.44	82.1352	1148.44	74.2102	1148.44	80.4613	1148.44	75.4594
1189.45	95.1893	1189.45	93.6299	1189.45	95.4093	1189.45	91.0505	1189.45	94.1317	1189.45	88.863	1189.45	92.71	1189.45	87.8813	1189.45	93.0874	1189.45	87.116	1189.45	93.4638	1189.45	86.5742	1189.45	92.8395	1189.45	86.2514	1189.45	91.9321	1189.45	85.096	1189.45	90.6838	1189.45	81.4253	1189.45	86.9419	1189.45	77.2815	1189.45	81.1203	1189.45	77.7079	1189.45	82.3086	1189.45	77.676	1189.45	83.1222	1189.45	80.1351	1189.45	80.9915	1189.45	79.9065	1189.45	82.9882	1189.45	77.237	1189.45	77.987	1189.45	72.4854	1189.45	81.2053	1189.45	74.9926	1189.45	81.2308	1189.45	76.5731
1230.47	95.0931	1230.47	93.5038	1230.47	94.7908	1230.47	89.6715	1230.47	92.9896	1230.47	86.8089	1230.47	91.2617	1230.47	87.235	1230.47	91.9761	1230.47	86.8213	1230.47	92.7326	1230.47	86.2355	1230.47	92.1317	1230.47	85.8057	1230.47	90.8398	1230.47	84.7997	1230.47	89.8333	1230.47	82.1081	1230.47	87.2322	1230.47	77.278	1230.47	80.5413	1230.47	75.9911	1230.47	78.143	1230.47	73.662	1230.47	80.7016	1230.47	74.1057	1230.47	79.3485	1230.47	77.8112	1230.47	78.9929	1230.47	77.2099	1230.47	76.9459	1230.47	71.5724	1230.47	78.9859	1230.47	66.746	1230.47	77.2983	1230.47	67.1651
1274.41	94.475	1274.41	92.6322	1274.41	93.7931	1274.41	88.1215	1274.41	91.2668	1274.41	85.0878	1274.41	89.1271	1274.41	86.416	1274.41	90.3992	1274.41	86.2415	1274.41	91.9053	1274.41	84.7198	1274.41	91.4418	1274.41	82.7618	1274.41	89.0597	1274.41	80.0651	1274.41	86.9545	1274.41	76.6189	1274.41	85.7089	1274.41	70.89	1274.41	82.6696	1274.41	73.9777	1274.41	80.6704	1274.41	78.0099	1274.41	78.3422	1274.41	72.1508	1274.41	76.0307	1274.41	70.409	1274.41	76.4955	1274.41	74.9682	1274.41	72.8241	1274.41	70.4615	1274.41	76.7559	1274.41	62.5778	1274.41	75.7716	1274.41	66.9826
1319.82	94.5587	1319.82	92.2035	1319.82	93.7564	1319.82	85.7498	1319.82	90.2807	1319.82	82.4588	1319.82	86.2199	1319.82	85.189	1319.82	88.2279	1319.82	84.6102	1319.82	90.3157	1319.82	82.9445	1319.82	90.2794	1319.82	81.7848	1319.82	89.1036	1319.82	79.9084	1319.82	86.0975	1319.82	79.7502	1319.82	82.4241	1319.82	82.2181	1319.82	78.5355	1319.82	79.5446	1319.82	78.7216	1319.82	72.5463	1319.82	81.2287	1319.82	76.1729	1319.82	77.4156	1319.82	67.813	1319.82	76.9862	1319.82	75.4194	1319.82	72.3996	1319.82	71.5355	1319.82	74.1962	1319.82	64.5523	1319.82	75.1496	1319.82	58.9594
1366.7	94.7086	1366.7	91.2496	1366.7	94.2577	1366.7	80.138	1366.7	89.4871	1366.7	80.0866	1366.7	82.9152	1366.7	83.4897	1366.7	87.3471	1366.7	83.4368	1366.7	89.3951	1366.7	82.5973	1366.7	89.1823	1366.7	77.7605	1366.7	87.7971	1366.7	67.7575	1366.7	85.781	1366.7	62.9484	1366.7	82.9083	1366.7	67.1926	1366.7	77.6953	1366.7	77.8451	1366.7	67.7962	1366.7	79.7251	1366.7	78.8423	1366.7	78.1686	1366.7	77.6361	1366.7	75.5165	1366.7	73.846	1366.7	72.2174	1366.7	70.9558	1366.7	74.6789	1366.7	74.8149	1366.7	62.9289	1366.7	73.6966	1366.7	61.6368
1413.57	94.4749	1413.57	90.3802	1413.57	93.9729	1413.57	76.6452	1413.57	88.5362	1413.57	81.1804	1413.57	82.4623	1413.57	83.7725	1413.57	87.4626	1413.57	84.1657	1413.57	88.9601	1413.57	83.4636	1413.57	88.0555	1413.57	83.7625	1413.57	85.223	1413.57	85.1001	1413.57	82.3105	1413.57	84.3226	1413.57	81.7334	1413.57	80.7191	1413.57	80.8864	1413.57	62.8029	1413.57	75.2195	1413.57	76.3177	1413.57	67.5679	1413.57	78.4587	1413.57	74.5061	1413.57	75.1776	1413.57	69.9916	1413.57	73.4011	1413.57	69.4007	1413.57	75.5599	1413.57	75.0012	1413.57	55.3636	1413.57	73.9269	1413.57	64.7486
1463.38	93.4544	1463.38	89.5733	1463.38	92.9827	1463.38	82.4541	1463.38	87.8826	1463.38	81.5537	1463.38	79.8812	1463.38	83.3801	1463.38	88.2622	1463.38	84.6439	1463.38	89.438	1463.38	84.1028	1463.38	87.6951	1463.38	84.4437	1463.38	85.0997	1463.38	85.2796	1463.38	81.0707	1463.38	83.8655	1463.38	71.417	1463.38	82.5262	1463.38	72.8638	1463.38	82.3911	1463.38	76.3906	1463.38	74.9261	1463.38	74.9989	1463.38	69.0675	1463.38	73.5281	1463.38	70.8699	1463.38	71.0832	1463.38	65.7288	1463.38	69.1996	1463.38	71.4859	1463.38	72.8404	1463.38	63.3155	1463.38	70.8131	1463.38	64.5588
1516.11	92.6036	1516.11	90.2455	1516.11	91.6743	1516.11	86.2784	1516.11	85.2156	1516.11	81.6651	1516.11	76.9451	1516.11	84.9033	1516.11	88.1882	1516.11	86.2677	1516.11	89.3589	1516.11	85.8946	1516.11	87.7865	1516.11	84.2975	1516.11	85.0117	1516.11	81.3649	1516.11	81.2335	1516.11	79.6747	1516.11	77.2618	1516.11	79.0974	1516.11	73.7645	1516.11	79.6494	1516.11	58.2991	1516.11	80.7238	1516.11	74.5191	1516.11	75.7388	1516.11	73.7642	1516.11	76.2834	1516.11	65.6279	1516.11	72.0235	1516.11	66.9592	1516.11	71.6319	1516.11	72.6977	1516.11	67.3712	1516.11	70.0528	1516.11	64.4753
1568.85	92.3528	1568.85	91.4585	1568.85	90.6226	1568.85	87.7561	1568.85	83.5942	1568.85	84.0048	1568.85	82.3502	1568.85	86.9487	1568.85	87.838	1568.85	86.8761	1568.85	89.2595	1568.85	85.8054	1568.85	87.8518	1568.85	84.3907	1568.85	84.2934	1568.85	81.4536	1568.85	79.7123	1568.85	75.3218	1568.85	75.7885	1568.85	70.8481	1568.85	76.35	1568.85	72.8542	1568.85	75.5334	1568.85	79.1214	1568.85	59.887	1568.85	76.9375	1568.85	74.4783	1568.85	75.1729	1568.85	70.4809	1568.85	73.8158	1568.85	60.9571	1568.85	70.5113	1568.85	72.1463	1568.85	67.1662	1568.85	68.4542	1568.85	68.1119
1624.51	92.8347	1624.51	92.2225	1624.51	90.5828	1624.51	87.5119	1624.51	84.7891	1624.51	85.2157	1624.51	85.7558	1624.51	87.5445	1624.51	88.8102	1624.51	88.0853	1624.51	88.9596	1624.51	86.6464	1624.51	88.0451	1624.51	84.0706	1624.51	85.066	1624.51	82.7936	1624.51	81.9906	1624.51	82.7391	1624.51	76.7586	1624.51	80.2585	1624.51	60.2745	1624.51	77.2706	1624.51	76.0494	1624.51	69.1923	1624.51	74.2199	1624.51	73.1693	1624.51	74.7489	1624.51	63.2741	1624.51	67.1358	1624.51	68.0842	1624.51	66.5865	1624.51	66.5972	1624.51	70.3997	1624.51	64.2526	1624.51	67.4022	1624.51	65.9912
1681.64	94.0916	1681.64	93.0483	1681.64	91.1142	1681.64	88.4675	1681.64	86.7141	1681.64	86.4592	1681.64	87.3298	1681.64	88.3105	1681.64	88.5036	1681.64	88.6327	1681.64	88.1848	1681.64	86.9152	1681.64	87.1859	1681.64	83.5201	1681.64	85.0507	1681.64	82.4688	1681.64	81.9142	1681.64	82.5276	1681.64	80.8127	1681.64	83.4743	1681.64	78.6847	1681.64	81.2521	1681.64	69.8713	1681.64	79.5238	1681.64	76.1565	1681.64	75.6776	1681.64	75.8737	1681.64	73.8749	1681.64	60.2983	1681.64	68.8832	1681.64	68.3503	1681.64	65.8784	1681.64	74.3957	1681.64	65.6527	1681.64	70.4934	1681.64	65.4633
1741.7	94.2071	1741.7	93.9275	1741.7	91.2833	1741.7	90.1778	1741.7	88.5086	1741.7	88.7954	1741.7	89.8716	1741.7	89.5302	1741.7	88.0498	1741.7	88.6972	1741.7	88.238	1741.7	85.4752	1741.7	87.7941	1741.7	85.0544	1741.7	84.6533	1741.7	83.4956	1741.7	81.0251	1741.7	78.4665	1741.7	77.5306	1741.7	75.9536	1741.7	78.4003	1741.7	78.3859	1741.7	77.6729	1741.7	77.0862	1741.7	68.9583	1741.7	72.9791	1741.7	77.8749	1741.7	72.0589	1741.7	68.0894	1741.7	72.0918	1741.7	64.0861	1741.7	70.7993	1741.7	71.0787	1741.7	64.7298	1741.7	73.4107	1741.7	67.5263
1803.22	93.9357	1803.22	93.71	1803.22	90.8852	1803.22	90.4797	1803.22	89.7014	1803.22	89.6227	1803.22	91.3663	1803.22	90.396	1803.22	88.7189	1803.22	88.2667	1803.22	86.8711	1803.22	86.7009	1803.22	86.704	1803.22	83.1952	1803.22	85.6195	1803.22	77.7832	1803.22	83.6813	1803.22	81.604	1803.22	80.8261	1803.22	83.029	1803.22	73.4025	1803.22	76.1421	1803.22	75.3842	1803.22	75.5526	1803.22	77.7559	1803.22	74.5248	1803.22	77.0352	1803.22	67.8988	1803.22	68.5931	1803.22	69.3483	1803.22	65.2442	1803.22	66.2591	1803.22	71.5868	1803.22	60.4938	1803.22	69.3865	1803.22	70.3873
1866.21	94.2717	1866.21	92.9125	1866.21	91.9848	1866.21	90.7033	1866.21	90.632	1866.21	91.2955	1866.21	91.384	1866.21	89.8824	1866.21	88.9817	1866.21	87.4846	1866.21	86.98	1866.21	86.7292	1866.21	87.2995	1866.21	82.2213	1866.21	85.9235	1866.21	83.2125	1866.21	79.0645	1866.21	85.9014	1866.21	79.4855	1866.21	84.8844	1866.21	79.9155	1866.21	82.3728	1866.21	78.2752	1866.21	74.7767	1866.21	61.5984	1866.21	75.3843	1866.21	79.2481	1866.21	74.0877	1866.21	73.7453	1866.21	72.1882	1866.21	68.1618	1866.21	70.6965	1866.21	72.3899	1866.21	61.6604	1866.21	71.9027	1866.21	65.6105
1932.13	94.2454	1932.13	93.3108	1932.13	92.3459	1932.13	91.8924	1932.13	91.7323	1932.13	91.4215	1932.13	91.8692	1932.13	89.5321	1932.13	89.5345	1932.13	87.9903	1932.13	85.6895	1932.13	84.064	1932.13	87.6481	1932.13	84.7343	1932.13	86.7363	1932.13	82.0968	1932.13	82.0306	1932.13	73.7144	1932.13	77.5422	1932.13	61.0484	1932.13	72.697	1932.13	67.2748	1932.13	77.246	1932.13	72.7426	1932.13	77.9078	1932.13	69.4536	1932.13	76.5229	1932.13	75.8155	1932.13	72.8803	1932.13	69.9118	1932.13	67.2523	1932.13	68.0313	1932.13	71.9519	1932.13	64.8044	1932.13	70.3692	1932.13	64.9664
1999.51	93.9663	1999.51	93.7489	1999.51	92.4005	1999.51	92.9902	1999.51	92.2672	1999.51	91.3672	1999.51	92.0139	1999.51	89.0309	1999.51	89.1283	1999.51	86.3606	1999.51	86.0247	1999.51	84.6059	1999.51	85.279	1999.51	83.7575	1999.51	85.0836	1999.51	83.1385	1999.51	78.75	1999.51	83.1471	1999.51	77.6661	1999.51	81.7467	1999.51	76.86	1999.51	75.8654	1999.51	65.9187	1999.51	70.3776	1999.51	76.5005	1999.51	76.2982	1999.51	74.3897	1999.51	74.4841	1999.51	68.7343	1999.51	74.49	1999.51	70.8545	1999.51	67.4553	1999.51	71.4474	1999.51	48.8146	1999.51	63.9259	1999.51	62.8591
2069.82	93.0851	2069.82	93.3889	2069.82	92.8419	2069.82	93.4936	2069.82	92.4404	2069.82	90.6315	2069.82	91.6393	2069.82	88.0263	2069.82	89.0373	2069.82	87.8259	2069.82	85.2727	2069.82	87.3356	2069.82	87.4697	2069.82	84.3439	2069.82	84.8492	2069.82	86.5522	2069.82	81.2274	2069.82	88.9084	2069.82	76.0296	2069.82	87.0437	2069.82	77.287	2069.82	83.1894	2069.82	82.0454	2069.82	79.4945	2069.82	77.3839	2069.82	79.602	2069.82	76.2604	2069.82	67.3344	2069.82	76.0822	2069.82	74.5749	2069.82	73.1784	2069.82	72.0483	2069.82	73.4404	2069.82	68.6144	2069.82	71.5842	2069.82	67.228
2143.07	93.6026	2143.07	92.9351	2143.07	92.9728	2143.07	92.6664	2143.07	91.4317	2143.07	90.9565	2143.07	91.5278	2143.07	88.0026	2143.07	89.9473	2143.07	85.6507	2143.07	84.9335	2143.07	85.8226	2143.07	84.2835	2143.07	84.5083	2143.07	84.2395	2143.07	81.2806	2143.07	82.3795	2143.07	76.3626	2143.07	77.7604	2143.07	77.5408	2143.07	72.5227	2143.07	63.8299	2143.07	69.4999	2143.07	72.308	2143.07	75.5799	2143.07	71.2548	2143.07	74.8907	2143.07	76.6603	2143.07	71.8321	2143.07	75.839	2143.07	72.1569	2143.07	68.506	2143.07	69.5921	2143.07	60.0447	2143.07	52.6214	2143.07	66.5735
2219.24	93.265	2219.24	93.7819	2219.24	92.4243	2219.24	92.3544	2219.24	92.7324	2219.24	89.9144	2219.24	90.5388	2219.24	88.1607	2219.24	88.45	2219.24	85.6013	2219.24	82.4688	2219.24	82.4411	2219.24	85.477	2219.24	79.4342	2219.24	84.1811	2219.24	78.6378	2219.24	81.581	2219.24	80.201	2219.24	74.6701	2219.24	80.6898	2219.24	77.3422	2219.24	74.404	2219.24	74.9064	2219.24	76.3174	2219.24	70.8398	2219.24	71.6982	2219.24	70.0676	2219.24	73.9858	2219.24	67.5858	2219.24	72.1685	2219.24	64.7866	2219.24	71.2004	2219.24	63.6907	2219.24	67.5513	2219.24	65.7663	2219.24	58.3095
2296.88	92.1885	2296.88	92.8717	2296.88	91.8714	2296.88	91.6192	2296.88	91.6142	2296.88	89.5202	2296.88	90.6783	2296.88	87.8743	2296.88	87.9503	2296.88	85.8214	2296.88	81.1792	2296.88	83.2513	2296.88	83.0184	2296.88	81.3165	2296.88	83.7581	2296.88	78.6351	2296.88	80.0744	2296.88	69.076	2296.88	77.3358	2296.88	67.2753	2296.88	70.9774	2296.88	75.0903	2296.88	54.2235	2296.88	62.0099	2296.88	74.5369	2296.88	68.4593	2296.88	74.3707	2296.88	70.5615	2296.88	64.8616	2296.88	67.9896	2296.88	64.5547	2296.88	67.8319	2296.88	64.9293	2296.88	64.5252	2296.88	68.2237	2296.88	59.8834
2378.91	92.5235	2378.91	92.796	2378.91	92.1341	2378.91	90.8465	2378.91	90.7987	2378.91	89.5236	2378.91	89.735	2378.91	87.065	2378.91	87.7652	2378.91	84.3345	2378.91	81.3704	2378.91	81.0385	2378.91	82.9124	2378.91	77.2155	2378.91	82.6941	2378.91	74.9105	2378.91	81.9168	2378.91	77.1636	2378.91	75.0612	2378.91	77.6667	2378.91	73.669	2378.91	76.6851	2378.91	71.9406	2378.91	75.0677	2378.91	72.7971	2378.91	75.4151	2378.91	70.637	2378.91	69.8243	2378.91	60.8936	2378.91	71.285	2378.91	64.4323	2378.91	69.8777	2378.91	63.9141	2378.91	65.8322	2378.91	64.0517	2378.91	62.221
2462.4	92.4509	2462.4	92.8987	2462.4	92.2872	2462.4	90.7057	2462.4	90.9682	2462.4	88.6915	2462.4	88.6813	2462.4	87.1425	2462.4	87.256	2462.4	84.4216	2462.4	81.2579	2462.4	81.1581	2462.4	79.9345	2462.4	78.7117	2462.4	82.5661	2462.4	78.9948	2462.4	78.6206	2462.4	76.8955	2462.4	72.5129	2462.4	74.4882	2462.4	68.4219	2462.4	66.7432	2462.4	55.257	2462.4	68.0397	2462.4	73.3129	2462.4	65.5915	2462.4	70.8785	2462.4	71.526	2462.4	66.52	2462.4	71.3395	2462.4	60.361	2462.4	68.453	2462.4	63.9288	2462.4	66.2547	2462.4	62.3002	2462.4	58.8755
2548.83	91.6085	2548.83	91.8031	2548.83	91.6631	2548.83	90.5774	2548.83	90.6514	2548.83	88.7405	2548.83	88.7439	2548.83	85.8643	2548.83	86.3153	2548.83	82.7557	2548.83	81.0656	2548.83	80.2166	2548.83	80.3581	2548.83	77.8983	2548.83	80.8606	2548.83	72.4205	2548.83	80.1443	2548.83	69.0252	2548.83	72.3839	2548.83	70.6546	2548.83	65.7908	2548.83	76.6134	2548.83	65.5035	2548.83	71.6664	2548.83	70.4206	2548.83	71.0028	2548.83	69.3266	2548.83	71.0582	2548.83	50.467	2548.83	69.829	2548.83	62.6035	2548.83	68.9843	2548.83	64.0669	2548.83	66.5823	2548.83	62.8512	2548.83	61.0243
2639.65	91.4802	2639.65	91.255	2639.65	91.0062	2639.65	89.9661	2639.65	89.1112	2639.65	88.156	2639.65	88.795	2639.65	85.5519	2639.65	85.5414	2639.65	82.6024	2639.65	80.9226	2639.65	79.9955	2639.65	78.1065	2639.65	76.4914	2639.65	80.3037	2639.65	78.3718	2639.65	77.4778	2639.65	76.7797	2639.65	73.7052	2639.65	74.6876	2639.65	60.6451	2639.65	66.8068	2639.65	69.9247	2639.65	69.9385	2639.65	67.9841	2639.65	66.1977	2639.65	70.7986	2639.65	66.6935	2639.65	62.4311	2639.65	69.588	2639.65	62.5353	2639.65	67.9811	2639.65	62.737	2639.65	65.669	2639.65	62.4657	2639.65	65.2962
2731.93	91.3331	2731.93	90.8401	2731.93	90.6815	2731.93	89.3464	2731.93	89.0365	2731.93	86.8384	2731.93	86.7685	2731.93	84.2213	2731.93	85.691	2731.93	81.4344	2731.93	79.612	2731.93	78.2811	2731.93	74.822	2731.93	76.4684	2731.93	79.4286	2731.93	72.6537	2731.93	77.8867	2731.93	69.0565	2731.93	60.5263	2731.93	69.8121	2731.93	57.6773	2731.93	73.6365	2731.93	69.1834	2731.93	66.2145	2731.93	67.1162	2731.93	66.5717	2731.93	67.0527	2731.93	69.7947	2731.93	49.7979	2731.93	67.5478	2731.93	61.4699	2731.93	68.0085	2731.93	57.8522	2731.93	66.712	2731.93	58.6806	2731.93	55.4456
2828.61	90.0543	2828.61	89.6213	2828.61	89.7205	2828.61	88.9324	2828.61	88.1755	2828.61	86.3199	2828.61	86.0093	2828.61	82.7253	2828.61	84.2578	2828.61	79.9761	2828.61	79.2933	2828.61	77.9199	2828.61	73.6712	2828.61	74.3128	2828.61	75.1174	2828.61	73.741	2828.61	77.0478	2828.61	75.0769	2828.61	66.0588	2828.61	69.3216	2828.61	70.1978	2828.61	69.7001	2828.61	64.4783	2828.61	66.7797	2828.61	63.3942	2828.61	66.6372	2828.61	64.1889	2828.61	63.2457	2828.61	58.2448	2828.61	66.6782	2828.61	61.3629	2828.61	67.2852	2828.61	57.5316	2828.61	64.8465	2828.61	58.5643	2828.61	64.8265
2928.22	89.5041	2928.22	88.9102	2928.22	88.7014	2928.22	87.8372	2928.22	87.877	2928.22	85.6936	2928.22	85.5471	2928.22	82.356	2928.22	82.5629	2928.22	79.368	2928.22	80.2144	2928.22	75.2376	2928.22	69.9961	2928.22	74.7422	2928.22	76.7189	2928.22	72.8298	2928.22	75.5724	2928.22	70.3878	2928.22	64.1582	2928.22	72.2821	2928.22	62.6297	2928.22	70.161	2928.22	64.44	2928.22	66.4572	2928.22	60.4043	2928.22	62.8287	2928.22	63.4518	2928.22	66.4067	2928.22	53.065	2928.22	65.1775	2928.22	61.0408	2928.22	63.7961	2928.22	58.7206	2928.22	64.5197	2928.22	53.5323	2928.22	55.9199
3030.76	90.509	3030.76	89.8923	3030.76	89.4313	3030.76	88.3212	3030.76	87.873	3030.76	85.6717	3030.76	85.6095	3030.76	83.018	3030.76	83.3326	3030.76	78.6217	3030.76	79.5236	3030.76	76.6437	3030.76	71.2953	3030.76	75.5526	3030.76	76.9304	3030.76	72.1513	3030.76	73.8347	3030.76	74.8977	3030.76	70.5619	3030.76	70.4207	3030.76	70.4521	3030.76	69.2415	3030.76	70.3585	3030.76	67.2697	3030.76	62.4204	3030.76	64.8182	3030.76	62.2311	3030.76	64.4735	3030.76	48.5014	3030.76	67.1526	3030.76	63.1946	3030.76	66.19	3030.76	48.1159	3030.76	64.2567	3030.76	58.9573	3030.76	65.7593
3137.7	90.2572	3137.7	90.0574	3137.7	89.9241	3137.7	89.0363	3137.7	89.14	3137.7	85.772	3137.7	85.0418	3137.7	82.2341	3137.7	83.7901	3137.7	79.9796	3137.7	80.9001	3137.7	76.6799	3137.7	74.3631	3137.7	75.236	3137.7	76.9869	3137.7	74.315	3137.7	75.8194	3137.7	68.9055	3137.7	73.8605	3137.7	71.769	3137.7	70.8296	3137.7	70.1697	3137.7	64.9261	3137.7	67.7489	3137.7	53.33	3137.7	62.0151	3137.7	65.4965	3137.7	64.6136	3137.7	51.8438	3137.7	63.8372	3137.7	58.1126	3137.7	64.9391	3137.7	58.0305	3137.7	65.4849	3137.7	57.4648	3137.7	59.2779
3249.02	90.6015	3249.02	90.2251	3249.02	89.9093	3249.02	88.6192	3249.02	88.5983	3249.02	86.1325	3249.02	86.1977	3249.02	82.6338	3249.02	83.0924	3249.02	80.1845	3249.02	81.4146	3249.02	76.9064	3249.02	75.5168	3249.02	75.9403	3249.02	79.304	3249.02	72.8139	3249.02	75.1319	3249.02	74.9118	3249.02	75.0398	3249.02	72.645	3249.02	68.0829	3249.02	68.592	3249.02	65.6407	3249.02	66.3771	3249.02	60.8182	3249.02	66.8862	3249.02	61.9892	3249.02	60.9085	3249.02	47.4398	3249.02	65.7294	3249.02	62.4773	3249.02	65.9492	3249.02	55.3953	3249.02	65.223	3249.02	55.4787	3249.02	66.6308
3363.28	91.0553	3363.28	91.2081	3363.28	90.8982	3363.28	89.1376	3363.28	88.9217	3363.28	85.6962	3363.28	85.7331	3363.28	83.1543	3363.28	83.4469	3363.28	80.666	3363.28	81.0399	3363.28	77.8795	3363.28	76.1548	3363.28	76.2072	3363.28	78.0654	3363.28	75.5111	3363.28	73.2592	3363.28	70.0517	3363.28	75.2725	3363.28	69.448	3363.28	71.1414	3363.28	69.1287	3363.28	58.8951	3363.28	70.0054	3363.28	50.3748	3363.28	61.3057	3363.28	62.3224	3363.28	63.7752	3363.28	52.4256	3363.28	63.8713	3363.28	61.4539	3363.28	65.5734	3363.28	59.115	3363.28	65.9886	3363.28	56.8087	3363.28	62.4682
3481.93	91.2335	3481.93	91.0553	3481.93	90.891	3481.93	89.1704	3481.93	89.3164	3481.93	86.1141	3481.93	86.1236	3481.93	83.1711	3481.93	83.0949	3481.93	80.7936	3481.93	82.3399	3481.93	78.2665	3481.93	77.5301	3481.93	75.9175	3481.93	76.7889	3481.93	75.2923	3481.93	74.6966	3481.93	73.2644	3481.93	74.4495	3481.93	72.2764	3481.93	69.1562	3481.93	69.6358	3481.93	62.8906	3481.93	66.4537	3481.93	59.5591	3481.93	66.3832	3481.93	63.7474	3481.93	63.5431	3481.93	49.8146	3481.93	64.3621	3481.93	55.4798	3481.93	63.699	3481.93	60.3242	3481.93	65.5716	3481.93	55.8985	3481.93	66.7174
3604.98	91.9577	3604.98	91.6387	3604.98	91.5441	3604.98	89.4368	3604.98	89.3749	3604.98	86.3994	3604.98	86.9096	3604.98	82.9807	3604.98	83.155	3604.98	80.9052	3604.98	83.4341	3604.98	78.7254	3604.98	77.3584	3604.98	78.3661	3604.98	77.6284	3604.98	75.2972	3604.98	75.8008	3604.98	72.6259	3604.98	73.0292	3604.98	72.7834	3604.98	65.3291	3604.98	70.2147	3604.98	60.6957	3604.98	70.5334	3604.98	46.8865	3604.98	64.3891	3604.98	62.6944	3604.98	62.0608	3604.98	38.573	3604.98	64.4118	3604.98	61.2692	3604.98	63.9504	3604.98	54.0912	3604.98	65.4387	3604.98	59.2536	3604.98	63.1286
3732.42	92.5686	3732.42	91.3945	3732.42	91.4198	3732.42	89.6428	3732.42	89.5142	3732.42	86.5611	3732.42	87.2314	3732.42	83.1261	3732.42	81.8737	3732.42	81.8866	3732.42	83.4576	3732.42	80.2203	3732.42	79.3444	3732.42	77.3941	3732.42	76.8874	3732.42	77.2222	3732.42	77.2962	3732.42	74.1037	3732.42	66.8749	3732.42	72.1636	3732.42	68.0113	3732.42	68.3381	3732.42	47.3409	3732.42	68.4674	3732.42	60.2204	3732.42	66.0254	3732.42	62.4388	3732.42	65.1098	3732.42	49.0804	3732.42	63.5067	3732.42	51.9656	3732.42	62.3273	3732.42	57.5903	3732.42	64.5854	3732.42	58.5415	3732.42	64.6896
3864.26	93.1013	3864.26	92.1674	3864.26	92.5116	3864.26	90.1611	3864.26	89.9718	3864.26	86.5796	3864.26	86.9415	3864.26	84.2421	3864.26	82.3816	3864.26	81.5025	3864.26	83.2314	3864.26	80.2416	3864.26	80.1003	3864.26	78.5678	3864.26	75.6931	3864.26	73.2781	3864.26	79.9582	3864.26	72.3359	3864.26	73.742	3864.26	66.0534	3864.26	67.7074	3864.26	72.0383	3864.26	62.868	3864.26	68.8731	3864.26	61.4163	3864.26	63.1927	3864.26	57.3461	3864.26	63.9529	3864.26	43.2891	3864.26	65.2527	3864.26	58.2747	3864.26	62.7345	3864.26	61.5889	3864.26	65.7526	3864.26	59.757	3864.26	65.7411
4000.49	93.4414	4000.49	91.7973	4000.49	91.7823	4000.49	89.7368	4000.49	90.0015	4000.49	86.9031	4000.49	86.5302	4000.49	83.511	4000.49	82.2394	4000.49	82.5645	4000.49	82.8277	4000.49	80.4818	4000.49	80.1818	4000.49	77.415	4000.49	78.0473	4000.49	76.8612	4000.49	79.6326	4000.49	71.8554	4000.49	72.0791	4000.49	73.8428	4000.49	68.3713	4000.49	67.8392	4000.49	58.2317	4000.49	68.594	4000.49	59.2404	4000.49	65.6199	4000.49	58.23	4000.49	66.2352	4000.49	44.2999	4000.49	63.9434	4000.49	59.1196	4000.49	61.7707	4000.49	54.7187	4000.49	60.6964	4000.49	61.9104	4000.49	65.9589
4141.11	93.2869	4141.11	92.7919	4141.11	92.8568	4141.11	89.9603	4141.11	89.8214	4141.11	86.2019	4141.11	86.131	4141.11	83.6685	4141.11	82.7789	4141.11	82.1732	4141.11	82.1037	4141.11	79.286	4141.11	78.1049	4141.11	77.5456	4141.11	75.8038	4141.11	75.4251	4141.11	79.1555	4141.11	71.4158	4141.11	71.7447	4141.11	72.4401	4141.11	68.8559	4141.11	68.9119	4141.11	61.0554	4141.11	67.0669	4141.11	45.7641	4141.11	63.7505	4141.11	60.8363	4141.11	64.9683	4141.11	52.8976	4141.11	64.1286	4141.11	56.5998	4141.11	60.3715	4141.11	61.9171	4141.11	63.7412	4141.11	53.7665	4141.11	65.5004
4287.6	93.6577	4287.6	92.2883	4287.6	92.2607	4287.6	89.3921	4287.6	90.1255	4287.6	86.5232	4287.6	85.7119	4287.6	83.8705	4287.6	83.3581	4287.6	82.0756	4287.6	82.0317	4287.6	79.2274	4287.6	76.9004	4287.6	77.4931	4287.6	76.1798	4287.6	71.3853	4287.6	78.857	4287.6	73.1514	4287.6	64.1463	4287.6	66.7635	4287.6	71.5623	4287.6	69.2303	4287.6	53.5002	4287.6	66.7507	4287.6	62.0567	4287.6	65.7067	4287.6	60.452	4287.6	63.1693	4287.6	51.1845	4287.6	63.4469	4287.6	53.4646	4287.6	55.6015	4287.6	57.1407	4287.6	55.101	4287.6	58.5861	4287.6	66.3404
4438.48	93.2623	4438.48	92.6251	4438.48	92.7602	4438.48	89.6649	4438.48	89.3345	4438.48	85.2057	4438.48	85.8715	4438.48	83.8603	4438.48	83.1349	4438.48	82.0606	4438.48	81.6923	4438.48	78.7986	4438.48	76.5217	4438.48	75.6895	4438.48	75.3313	4438.48	73.4617	4438.48	75.1683	4438.48	70.8992	4438.48	74.4252	4438.48	68.5085	4438.48	68.9031	4438.48	69.276	4438.48	61.5802	4438.48	67.1456	4438.48	55.9422	4438.48	67.4356	4438.48	55.7758	4438.48	62.6186	4438.48	51.3293	4438.48	62.7972	4438.48	54.9109	4438.48	60.9401	4438.48	55.4892	4438.48	54.7001	4438.48	61.2331	4438.48	61.2961
4595.21	93.3517	4595.21	92.2112	4595.21	92.399	4595.21	89.1894	4595.21	89.3825	4595.21	86.3296	4595.21	85.1331	4595.21	83.5034	4595.21	83.5219	4595.21	82.248	4595.21	80.5469	4595.21	78.4145	4595.21	78.3793	4595.21	74.5119	4595.21	75.723	4595.21	72.9829	4595.21	73.9048	4595.21	71.576	4595.21	70.947	4595.21	70.4426	4595.21	62.4331	4595.21	68.6053	4595.21	54.716	4595.21	66.1951	4595.21	37.3577	4595.21	64.8976	4595.21	49.2129	4595.21	63.9361	4595.21	40.2843	4595.21	65.956	4595.21	55.8523	4595.21	61.1851	4595.21	60.0277	4595.21	47.5806	4595.21	55.1683	4595.21	61.8291
4756.35	93.3251	4756.35	91.7376	4756.35	92.1836	4756.35	88.972	4756.35	88.6311	4756.35	85.5609	4756.35	85.7382	4756.35	83.7907	4756.35	83.3569	4756.35	81.2854	4756.35	78.3154	4756.35	77.1416	4756.35	78.7307	4756.35	75.8169	4756.35	73.1535	4756.35	72.3354	4756.35	69.6226	4756.35	71.4555	4756.35	72.2609	4756.35	68.7246	4756.35	54.2845	4756.35	70.2044	4756.35	59.4358	4756.35	67.1242	4756.35	50.3611	4756.35	65.7913	4756.35	57.2339	4756.35	63.3489	4756.35	48.6984	4756.35	64.022	4756.35	47.7976	4756.35	58.7683	4756.35	57.2738	4756.35	50.6484	4756.35	58.7127	4756.35	59.8981
4924.8	92.9071	4924.8	91.9001	4924.8	92.1395	4924.8	88.419	4924.8	88.4791	4924.8	85.0022	4924.8	85.4	4924.8	83.4921	4924.8	83.2832	4924.8	80.7446	4924.8	78.4583	4924.8	77.2219	4924.8	80.6702	4924.8	75.1837	4924.8	74.5716	4924.8	71.2629	4924.8	73.0124	4924.8	69.8596	4924.8	70.5597	4924.8	68.68	4924.8	57.9106	4924.8	68.4204	4924.8	60.3757	4924.8	64.5794	4924.8	55.5967	4924.8	65.1632	4924.8	58.5397	4924.8	64.0167	4924.8	49.2385	4924.8	66.2407	4924.8	43.6456	4924.8	62.369	4924.8	57.111	4924.8	50.139	4924.8	59.7245	4924.8	58.5144
5097.66	93.1722	5097.66	91.443	5097.66	91.5324	5097.66	88.4005	5097.66	88.6907	5097.66	85.2654	5097.66	84.887	5097.66	83.3543	5097.66	82.6631	5097.66	79.754	5097.66	80.036	5097.66	76.7669	5097.66	79.4723	5097.66	75.7536	5097.66	73.6986	5097.66	72.9877	5097.66	75.2046	5097.66	70.119	5097.66	73.4266	5097.66	69.5233	5097.66	61.8661	5097.66	68.0164	5097.66	55.1925	5097.66	63.8544	5097.66	53.1327	5097.66	64.9248	5097.66	51.4825	5097.66	63.6227	5097.66	38.0019	5097.66	66.6613	5097.66	47.8405	5097.66	63.5362	5097.66	52.4859	5097.66	55.6279	5097.66	55.9882	5097.66	54.7528
5277.83	92.6531	5277.83	91.3557	5277.83	91.5286	5277.83	88.2309	5277.83	88.7978	5277.83	85.0171	5277.83	84.7491	5277.83	82.388	5277.83	81.4691	5277.83	79.6492	5277.83	79.1969	5277.83	77.7088	5277.83	78.979	5277.83	75.8287	5277.83	74.0339	5277.83	72.1572	5277.83	74.8959	5277.83	70.9083	5277.83	72.6004	5277.83	67.725	5277.83	57.9955	5277.83	66.8927	5277.83	51.1156	5277.83	62.8584	5277.83	35.8866	5277.83	62.7323	5277.83	55.1653	5277.83	61.2708	5277.83	52.1699	5277.83	64.8276	5277.83	52.24	5277.83	63.679	5277.83	59.2028	5277.83	56.3556	5277.83	54.6808	5277.83	48.0343
5463.87	92.6943	5463.87	91.5674	5463.87	91.6666	5463.87	87.4195	5463.87	88.0402	5463.87	85.4766	5463.87	84.8716	5463.87	82.1676	5463.87	81.2816	5463.87	79.5086	5463.87	78.1549	5463.87	78.5741	5463.87	80.5284	5463.87	75.6524	5463.87	71.8476	5463.87	71.5319	5463.87	76.6124	5463.87	70.8008	5463.87	71.2749	5463.87	67.1721	5463.87	63.9002	5463.87	66.3635	5463.87	51.5744	5463.87	64.1902	5463.87	59.7181	5463.87	62.2361	5463.87	58.4122	5463.87	58.5385	5463.87	56.7189	5463.87	64.7714	5463.87	53.4958	5463.87	62.4706	5463.87	53.8175	5463.87	56.3566	5463.87	54.4951	5463.87	44.967
5657.23	92.3718	5657.23	91.0432	5657.23	90.6552	5657.23	87.5592	5657.23	88.3283	5657.23	84.8932	5657.23	84.0882	5657.23	81.8883	5657.23	81.7666	5657.23	79.5953	5657.23	77.8956	5657.23	78.342	5657.23	78.4576	5657.23	74.8787	5657.23	70.9289	5657.23	69.9343	5657.23	74.5075	5657.23	68.1866	5657.23	70.2924	5657.23	65.6531	5657.23	62.542	5657.23	64.2268	5657.23	60.7058	5657.23	63.6711	5657.23	59.0268	5657.23	62.8232	5657.23	61.0605	5657.23	56.1454	5657.23	55.2915	5657.23	64.2472	5657.23	50.3232	5657.23	62.4975	5657.23	55.1098	5657.23	56.7773	5657.23	56.3732	5657.23	42.8525
5856.45	92.4129	5856.45	90.943	5856.45	91.0481	5856.45	87.8025	5856.45	87.8987	5856.45	84.5907	5856.45	84.6055	5856.45	81.1665	5856.45	81.8932	5856.45	80.3278	5856.45	76.2246	5856.45	77.7063	5856.45	79.9744	5856.45	73.3444	5856.45	69.3655	5856.45	69.3995	5856.45	74.8079	5856.45	67.3524	5856.45	63.7237	5856.45	66.2748	5856.45	60.849	5856.45	64.4921	5856.45	57.2812	5856.45	62.2142	5856.45	58.8931	5856.45	61.3723	5856.45	52.6865	5856.45	58.9804	5856.45	43.0943	5856.45	62.1254	5856.45	51.286	5856.45	62.5911	5856.45	55.3898	5856.45	57.669	5856.45	54.9702	5856.45	43.4088
6062.99	92.7706	6062.99	91.2894	6062.99	91.439	6062.99	88.2192	6062.99	88.3592	6062.99	84.7202	6062.99	85.2074	6062.99	81.5415	6062.99	82.2235	6062.99	80.8267	6062.99	76.2253	6062.99	77.1164	6062.99	79.2227	6062.99	71.1499	6062.99	63.7103	6062.99	70.7058	6062.99	73.8735	6062.99	68.5304	6062.99	68.5954	6062.99	67.7824	6062.99	60.7647	6062.99	65.218	6062.99	57.3877	6062.99	64.1259	6062.99	52.564	6062.99	60.8563	6062.99	49.4438	6062.99	60.3479	6062.99	43.1238	6062.99	62.6577	6062.99	51.4994	6062.99	62.7652	6062.99	53.8354	6062.99	57.8744	6062.99	53.8492	6062.99	41.5099
6276.86	93.2234	6276.86	91.4985	6276.86	91.7628	6276.86	88.3405	6276.86	88.7294	6276.86	84.6379	6276.86	85.0765	6276.86	82.0297	6276.86	82.1168	6276.86	80.8002	6276.86	76.7035	6276.86	76.0149	6276.86	77.8035	6276.86	73.1579	6276.86	65.6907	6276.86	71.8929	6276.86	73.794	6276.86	69.01	6276.86	67.9287	6276.86	67.0817	6276.86	63.72	6276.86	65.059	6276.86	53.4263	6276.86	64.4092	6276.86	48.5608	6276.86	61.6276	6276.86	41.2495	6276.86	58.4477	6276.86	50.5256	6276.86	62.3082	6276.86	51.9825	6276.86	62.3422	6276.86	54.1954	6276.86	58.8476	6276.86	53.1961	6276.86	41.7617
6498.05	93.031	6498.05	91.1825	6498.05	91.4679	6498.05	87.6951	6498.05	87.9437	6498.05	83.2794	6498.05	84.4326	6498.05	81.9974	6498.05	81.5862	6498.05	79.1411	6498.05	74.848	6498.05	75.5084	6498.05	77.571	6498.05	73.2786	6498.05	70.5609	6498.05	72.288	6498.05	71.254	6498.05	69.0584	6498.05	66.7555	6498.05	66.3964	6498.05	63.0266	6498.05	64.5271	6498.05	53.4075	6498.05	62.769	6498.05	52.4727	6498.05	60.6592	6498.05	46.2375	6498.05	56.5181	6498.05	47.8728	6498.05	59.7415	6498.05	46.524	6498.05	60.564	6498.05	54.4996	6498.05	58.612	6498.05	52.3292	6498.05	46.616
6726.56	93.7343	6726.56	91.6379	6726.56	91.7156	6726.56	88.4848	6726.56	88.486	6726.56	83.3919	6726.56	84.6876	6726.56	82.6302	6726.56	82.3019	6726.56	77.6501	6726.56	76.6764	6726.56	76.2123	6726.56	74.2118	6726.56	74.7282	6726.56	72.7099	6726.56	71.2701	6726.56	68.8923	6726.56	66.5041	6726.56	67.7566	6726.56	65.7961	6726.56	62.2285	6726.56	63.7453	6726.56	52.4813	6726.56	61.851	6726.56	55.8751	6726.56	59.0639	6726.56	51.0657	6726.56	56.3991	6726.56	49.6531	6726.56	59.0862	6726.56	47.6029	6726.56	59.9313	6726.56	54.1009	6726.56	57.9956	6726.56	51.9395	6726.56	39.9527
6963.87	94.1939	6963.87	92.058	6963.87	92.1428	6963.87	88.5661	6963.87	88.7091	6963.87	83.2419	6963.87	85.0619	6963.87	82.3951	6963.87	82.1725	6963.87	77.3074	6963.87	77.3386	6963.87	76.7566	6963.87	65.8031	6963.87	73.4049	6963.87	74.052	6963.87	68.8651	6963.87	68.571	6963.87	61.1306	6963.87	63.9575	6963.87	65.4286	6963.87	56.6521	6963.87	61.486	6963.87	57.7527	6963.87	61.2523	6963.87	56.9839	6963.87	58.3181	6963.87	56.9776	6963.87	55.7941	6963.87	53.8869	6963.87	55.005	6963.87	50.3813	6963.87	58.9216	6963.87	53.1917	6963.87	57.9259	6963.87	51.5863	6963.87	48.5779
7209.96	94.4731	7209.96	92.3701	7209.96	92.6712	7209.96	88.7557	7209.96	88.8426	7209.96	84.5785	7209.96	85.5588	7209.96	81.584	7209.96	82.1403	7209.96	76.9478	7209.96	77.8941	7209.96	76.8398	7209.96	69.1556	7209.96	69.713	7209.96	76.1193	7209.96	67.2505	7209.96	64.7239	7209.96	64.8487	7209.96	68.7902	7209.96	63.4716	7209.96	54.6334	7209.96	62.8658	7209.96	58.5771	7209.96	60.5271	7209.96	55.4129	7209.96	58.6789	7209.96	52.7336	7209.96	56.8546	7209.96	54.561	7209.96	53.5273	7209.96	45.7099	7209.96	59.1773	7209.96	52.0147	7209.96	57.9794	7209.96	53.4932	7209.96	52.286
7464.84	94.5921	7464.84	92.5102	7464.84	92.8141	7464.84	88.1551	7464.84	88.7639	7464.84	85.1659	7464.84	85.5823	7464.84	80.693	7464.84	82.1134	7464.84	78.6575	7464.84	79.3928	7464.84	75.3065	7464.84	74.225	7464.84	69.9186	7464.84	74.319	7464.84	70.0104	7464.84	63.5017	7464.84	66.6498	7464.84	64.7572	7464.84	66.4671	7464.84	58.629	7464.84	64.6779	7464.84	58.945	7464.84	63.3917	7464.84	53.6112	7464.84	58.1203	7464.84	47.9275	7464.84	57.3776	7464.84	55.1519	7464.84	58.3796	7464.84	45.9318	7464.84	59.2962	7464.84	52.6468	7464.84	58.3766	7464.84	54.0585	7464.84	52.0868
7727.05	94.4207	7727.05	92.5016	7727.05	92.8608	7727.05	87.6542	7727.05	88.7421	7727.05	85.2704	7727.05	85.5297	7727.05	80.0897	7727.05	82.5331	7727.05	78.9271	7727.05	79.7404	7727.05	73.607	7727.05	75.7165	7727.05	73.5007	7727.05	73.3118	7727.05	70.9159	7727.05	62.4832	7727.05	68.9509	7727.05	65.774	7727.05	64.7975	7727.05	61.3208	7727.05	63.4824	7727.05	31.2048	7727.05	60.3036	7727.05	44.9282	7727.05	59.145	7727.05	42.6472	7727.05	57.678	7727.05	51.9641	7727.05	59.4265	7727.05	44.1351	7727.05	59.2309	7727.05	51.6431	7727.05	57.7739	7727.05	54.7278	7727.05	52.9091
7999.51	94.1284	7999.51	92.4404	7999.51	92.9608	7999.51	87.3688	7999.51	88.5797	7999.51	84.7928	7999.51	86.1414	7999.51	80.6701	7999.51	82.1216	7999.51	78.0008	7999.51	78.7575	7999.51	74.7887	7999.51	75.5728	7999.51	74.0058	7999.51	72.3866	7999.51	69.4711	7999.51	62.3473	7999.51	65.9223	7999.51	62.555	7999.51	63.4587	7999.51	61.8307	7999.51	62.4192	7999.51	55.8238	7999.51	60.6975	7999.51	41.3229	7999.51	59.2774	7999.51	44.3959	7999.51	57.2899	7999.51	47.1613	7999.51	57.8755	7999.51	49.957	7999.51	58.4094	7999.51	51.0326	7999.51	56.1917	7999.51	51.7334	7999.51	52.0745
8282.23	94.1816	8282.23	92.6724	8282.23	93.3301	8282.23	87.9714	8282.23	88.8773	8282.23	84.4737	8282.23	86.4663	8282.23	81.9889	8282.23	82.0479	8282.23	75.8762	8282.23	78.046	8282.23	76.6889	8282.23	74.7758	8282.23	72.4264	8282.23	72.2262	8282.23	67.5741	8282.23	59.1349	8282.23	65.3933	8282.23	54.4544	8282.23	61.9401	8282.23	58.7162	8282.23	63.1857	8282.23	56.4815	8282.23	57.2831	8282.23	41.6262	8282.23	54.7814	8282.23	47.1051	8282.23	57.2249	8282.23	45.4015	8282.23	56.5954	8282.23	49.8449	8282.23	58.9031	8282.23	40.6213	8282.23	56.5475	8282.23	51.9473	8282.23	53.7684
8573.73	94.6489	8573.73	93.1045	8573.73	93.9436	8573.73	88.8126	8573.73	89.7438	8573.73	83.8314	8573.73	86.669	8573.73	82.4824	8573.73	82.7653	8573.73	77.0542	8573.73	77.6681	8573.73	77.3104	8573.73	76.1361	8573.73	71.5081	8573.73	70.1643	8573.73	67.8671	8573.73	66.8917	8573.73	68.2978	8573.73	58.5983	8573.73	64.7889	8573.73	58.1626	8573.73	62.517	8573.73	54.0026	8573.73	60.2841	8573.73	40.9693	8573.73	58.2353	8573.73	47.3162	8573.73	59.7684	8573.73	51.3637	8573.73	59.082	8573.73	40.2468	8573.73	58.5377	8573.73	45.5041	8573.73	57.0277	8573.73	51.6921	8573.73	53.7315
8876.95	95.1779	8876.95	93.119	8876.95	94.3329	8876.95	89.8174	8876.95	90.0806	8876.95	85.0112	8876.95	86.776	8876.95	81.8448	8876.95	82.686	8876.95	79.401	8876.95	77.6232	8876.95	76.7951	8876.95	76.0089	8876.95	73.752	8876.95	72.3075	8876.95	70.817	8876.95	67.5722	8876.95	69.7444	8876.95	54.9428	8876.95	64.986	8876.95	63.437	8876.95	65.2266	8876.95	53.6627	8876.95	62.6584	8876.95	46.3295	8876.95	58.4248	8876.95	47.501	8876.95	59.6532	8876.95	51.4732	8876.95	57.1796	8876.95	47.7438	8876.95	59.7166	8876.95	48.5941	8876.95	57.3523	8876.95	47.6596	8876.95	52.0794
9188.96	95.5082	9188.96	93.2524	9188.96	94.122	9188.96	90.5557	9188.96	90.3177	9188.96	86.056	9188.96	86.143	9188.96	81.768	9188.96	82.8584	9188.96	80.0502	9188.96	78.1631	9188.96	76.6796	9188.96	75.4919	9188.96	75.3988	9188.96	73.8873	9188.96	70.3434	9188.96	68.1748	9188.96	69.0881	9188.96	49.1727	9188.96	64.3846	9188.96	64.5471	9188.96	63.2658	9188.96	47.7942	9188.96	58.3504	9188.96	43.7083	9188.96	56.4577	9188.96	48.6766	9188.96	58.8926	9188.96	48.2717	9188.96	57.6964	9188.96	42.1434	9188.96	58.5674	9188.96	48.4405	9188.96	56.4572	9188.96	51.9105	9188.96	45.3605
9514.16	95.5422	9514.16	92.9654	9514.16	94.0239	9514.16	90.4349	9514.16	90.7871	9514.16	86.3375	9514.16	85.7005	9514.16	82.7319	9514.16	83.0917	9514.16	79.3184	9514.16	78.7415	9514.16	77.7666	9514.16	74.3517	9514.16	74.2827	9514.16	72.9313	9514.16	68.2888	9514.16	68.5302	9514.16	67.7215	9514.16	52.6719	9514.16	64.2811	9514.16	64.6401	9514.16	61.6826	9514.16	50.9399	9514.16	60.9372	9514.16	46.4129	9514.16	59.0697	9514.16	49.3735	9514.16	59.402	9514.16	50.0321	9514.16	57.2743	9514.16	41.8291	9514.16	59.0191	9514.16	47.6421	9514.16	54.1009	9514.16	48.588	9514.16	46.286
9849.61	95.446	9849.61	92.9887	9849.61	93.2002	9849.61	90.737	9849.61	90.3807	9849.61	86.6303	9849.61	84.6724	9849.61	83.6844	9849.61	81.7748	9849.61	78.7184	9849.61	78.5944	9849.61	78.3911	9849.61	72.5879	9849.61	72.8166	9849.61	70.6785	9849.61	69.5194	9849.61	67.9536	9849.61	67.8168	9849.61	58.2842	9849.61	64.9992	9849.61	62.086	9849.61	61.9966	9849.61	51.9078	9849.61	60.2936	9849.61	49.1159	9849.61	56.8987	9849.61	45.3116	9849.61	58.5689	9849.61	48.9917	9849.61	56.8206	9849.61	46.8595	9849.61	58.9782	9849.61	45.8979	9849.61	56.7321	9849.61	45.4896	9849.61	46.7131
10196.8	94.7779	10196.8	92.5847	10196.8	91.7535	10196.8	90.4141	10196.8	89.5516	10196.8	85.9161	10196.8	83.9162	10196.8	83.2186	10196.8	79.8782	10196.8	79.4665	10196.8	78.1993	10196.8	76.0493	10196.8	72.129	10196.8	72.6392	10196.8	71.7757	10196.8	69.6839	10196.8	64.4467	10196.8	69.5546	10196.8	58.6258	10196.8	64.322	10196.8	62.9778	10196.8	61.5	10196.8	45.7801	10196.8	58.5645	10196.8	49.7704	10196.8	58.7	10196.8	30.8463	10196.8	57.8036	10196.8	48.6389	10196.8	58.5474	10196.8	45.2514	10196.8	59.1518	10196.8	45.081	10196.8	54.0144	10196.8	34.855	10196.8	44.0262
10555.7	94.3502	10555.7	92.517	10555.7	90.5228	10555.7	90.5963	10555.7	88.6214	10555.7	85.6948	10555.7	83.4755	10555.7	82.6507	10555.7	78.6272	10555.7	79.6883	10555.7	76.118	10555.7	75.0393	10555.7	72.0942	10555.7	73.1842	10555.7	69.5738	10555.7	69.1857	10555.7	63.6277	10555.7	65.3716	10555.7	60.8726	10555.7	63.5646	10555.7	60.7209	10555.7	61.3125	10555.7	52.7059	10555.7	57.6545	10555.7	45.774	10555.7	56.4465	10555.7	29.7179	10555.7	56.3141	10555.7	46.1147	10555.7	55.1187	10555.7	45.6367	10555.7	55.8603	10555.7	45.4332	10555.7	54.2949	10555.7	49.3823	10555.7	49.4501
10927.7	93.3605	10927.7	91.4035	10927.7	89.8281	10927.7	89.2806	10927.7	88.116	10927.7	84.7204	10927.7	83.6253	10927.7	81.4355	10927.7	79.9708	10927.7	77.723	10927.7	74.0432	10927.7	74.0256	10927.7	72.4455	10927.7	70.7209	10927.7	62.8917	10927.7	64.444	10927.7	60.9309	10927.7	62.2427	10927.7	58.9482	10927.7	58.9225	10927.7	61.2526	10927.7	56.9847	10927.7	57.7302	10927.7	53.8417	10927.7	34.1497	10927.7	51.936	10927.7	45.2091	10927.7	50.1807	10927.7	29.7953	10927.7	50.718	10927.7	43.2318	10927.7	53.7943	10927.7	42.2439	10927.7	46.2074	10927.7	50.4886	10927.7	49.5956
11313	93.2099	11313	91.4537	11313	90.4832	11313	88.8766	11313	88.0256	11313	84.8546	11313	83.8523	11313	82.0133	11313	80.7205	11313	76.4923	11313	72.6424	11313	74.8304	11313	73.3954	11313	67.7368	11313	66.2001	11313	65.4157	11313	63.6424	11313	63.5264	11313	62.5163	11313	60.6547	11313	61.9227	11313	55.8231	11313	59.3195	11313	55.29	11313	40.1406	11313	52.679	11313	45.5624	11313	52.6655	11313	42.559	11313	50.9945	11313	39.2124	11313	54.7848	11313	40.5684	11313	47.077	11313	45.5051	11313	47.778
11712.9	93.3123	11712.9	91.9815	11712.9	90.3878	11712.9	89.5209	11712.9	87.663	11712.9	84.7791	11712.9	83.085	11712.9	82.9448	11712.9	80.9481	11712.9	77.5243	11712.9	76.3673	11712.9	73.8039	11712.9	70.7047	11712.9	70.4408	11712.9	68.7562	11712.9	67.805	11712.9	62.5659	11712.9	64.5101	11712.9	63.1875	11712.9	59.183	11712.9	56.8766	11712.9	57.171	11712.9	60.4009	11712.9	55.4544	11712.9	44.1527	11712.9	53.7217	11712.9	47.5596	11712.9	51.6466	11712.9	40.5778	11712.9	54.8045	11712.9	45.4076	11712.9	54.3974	11712.9	38.8023	11712.9	43.8364	11712.9	43.5735	11712.9	47.975
12126	93.9657	12126	92.6533	12126	92.2625	12126	89.7821	12126	89.4855	12126	84.3048	12126	85.1382	12126	82.4962	12126	81.9415	12126	78.3389	12126	78.6577	12126	73.3816	12126	70.6557	12126	71.1628	12126	68.8671	12126	67.318	12126	64.6755	12126	62.5552	12126	63.5475	12126	60.2376	12126	59.7319	12126	56.1129	12126	62.8606	12126	54.6127	12126	44.3782	12126	52.3046	12126	47.8108	12126	46.6369	12126	37.9863	12126	53.3748	12126	47.2311	12126	52.4582	12126	32.5602	12126	33.8201	12126	44.9872	12126	43.5323
12553.7	95.4451	12553.7	93.9854	12553.7	93.8896	12553.7	91.3132	12553.7	90.9038	12553.7	86.138	12553.7	86.5586	12553.7	83.0772	12553.7	82.9712	12553.7	78.644	12553.7	79.5054	12553.7	75.0152	12553.7	74.2727	12553.7	70.1424	12553.7	66.8513	12553.7	66.4032	12553.7	65.7315	12553.7	63.6503	12553.7	63.7251	12553.7	59.8443	12553.7	64.5108	12553.7	56.4751	12553.7	64.4741	12553.7	55.3268	12553.7	49.127	12553.7	52.1301	12553.7	47.0468	12553.7	45.7865	12553.7	21.6646	12553.7	53.089	12553.7	49.7928	12553.7	51.6564	12553.7	41.5199	12553.7	44.6509	12553.7	43.6092	12553.7	48.0966
12996.1	96.5073	12996.1	94.753	12996.1	94.9929	12996.1	91.9898	12996.1	92.307	12996.1	87.0922	12996.1	87.7041	12996.1	83.9953	12996.1	83.7424	12996.1	78.1096	12996.1	79.6856	12996.1	75.0162	12996.1	77.0803	12996.1	70.7435	12996.1	68.7895	12996.1	68.008	12996.1	68.186	12996.1	63.2416	12996.1	64.0829	12996.1	60.0637	12996.1	67.5829	12996.1	56.1243	12996.1	65.0313	12996.1	54.5465	12996.1	51.9934	12996.1	52.667	12996.1	49.0282	12996.1	50.4363	12996.1	30.7028	12996.1	47.3103	12996.1	50.4649	12996.1	53.0582	12996.1	44.9311	12996.1	47.1431	12996.1	38.4464	12996.1	47.1637
13454.6	96.3334	13454.6	94.7298	13454.6	95.0783	13454.6	91.7879	13454.6	92.202	13454.6	87.2717	13454.6	87.7944	13454.6	84.4671	13454.6	83.4564	13454.6	79.0353	13454.6	78.4583	13454.6	74.9102	13454.6	77.0442	13454.6	71.1573	13454.6	70.4297	13454.6	66.8419	13454.6	68.2013	13454.6	64.0877	13454.6	60.4124	13454.6	58.4298	13454.6	68.2369	13454.6	56.8141	13454.6	65.4107	13454.6	53.1642	13454.6	51.6764	13454.6	53.2404	13454.6	40.1899	13454.6	51.4968	13454.6	36.9293	13454.6	43.5224	13454.6	50.6951	13454.6	53.6033	13454.6	45.6668	13454.6	41.0504	13454.6	46.9249	13454.6	43.4652
13929.2	96.0827	13929.2	94.6436	13929.2	94.8837	13929.2	92.0058	13929.2	92.6019	13929.2	87.4254	13929.2	88.3288	13929.2	84.7898	13929.2	83.9404	13929.2	80.0655	13929.2	80.2624	13929.2	76.1517	13929.2	75.4309	13929.2	69.5866	13929.2	71.6826	13929.2	69.4483	13929.2	64.6276	13929.2	62.6317	13929.2	61.8421	13929.2	59.6455	13929.2	68.059	13929.2	55.3546	13929.2	65.9483	13929.2	53.4735	13929.2	49.1329	13929.2	53.634	13929.2	34.975	13929.2	49.9749	13929.2	47.0249	13929.2	49.8333	13929.2	46.0355	13929.2	51.0387	13929.2	44.5913	13929.2	37.8884	13929.2	44.5373	13929.2	41.6881
14419.9	96.1371	14419.9	94.8329	14419.9	96.2326	14419.9	92.4958	14419.9	94.378	14419.9	87.8451	14419.9	89.9454	14419.9	84.8984	14419.9	85.415	14419.9	79.7135	14419.9	82.3269	14419.9	75.3476	14419.9	75.3371	14419.9	71.582	14419.9	70.9966	14419.9	68.106	14419.9	69.5256	14419.9	61.1031	14419.9	63.7551	14419.9	56.5597	14419.9	72.0344	14419.9	56.6754	14419.9	66.5133	14419.9	49.7858	14419.9	43.6268	14419.9	52.4274	14419.9	31.7547	14419.9	49.5786	14419.9	50.1094	14419.9	45.9601	14419.9	51.2151	14419.9	48.3457	14419.9	42.7546	14419.9	36.6698	14419.9	41.6424	14419.9	42.2403
14928.2	95.258	14928.2	94.6169	14928.2	96.0712	14928.2	92.5241	14928.2	94.4685	14928.2	87.7606	14928.2	89.7682	14928.2	84.2483	14928.2	84.5762	14928.2	80.0413	14928.2	81.554	14928.2	75.3085	14928.2	76.0635	14928.2	70.0768	14928.2	73.3575	14928.2	66.8673	14928.2	66.5397	14928.2	62.7738	14928.2	61.0837	14928.2	58.2814	14928.2	72.3359	14928.2	55.9353	14928.2	66.8075	14928.2	51.7999	14928.2	44.7787	14928.2	53.4479	14928.2	43.4597	14928.2	51.849	14928.2	52.7826	14928.2	46.8525	14928.2	46.3635	14928.2	46.602	14928.2	43.8386	14928.2	45.9471	14928.2	45.5434	14928.2	43.2271
15455.6	94.2118	15455.6	94.8302	15455.6	94.8972	15455.6	92.5263	15455.6	92.8578	15455.6	87.1235	15455.6	87.9476	15455.6	83.441	15455.6	82.1493	15455.6	78.8968	15455.6	77.9725	15455.6	74.1401	15455.6	74.6772	15455.6	68.0939	15455.6	70.8105	15455.6	67.0249	15455.6	62.8064	15455.6	62.1648	15455.6	62.7466	15455.6	56.2322	15455.6	71.5669	15455.6	55.2938	15455.6	65.6509	15455.6	51.674	15455.6	41.1066	15455.6	51.8745	15455.6	44.6795	15455.6	50.8576	15455.6	49.7832	15455.6	43.4272	15455.6	45.3392	15455.6	46.09	15455.6	44.9287	15455.6	43.0997	15455.6	47.8006	15455.6	46.7704
16000.5	95.1699	16000.5	96.6161	16000.5	95.3221	16000.5	94.1695	16000.5	93.1022	16000.5	88.494	16000.5	87.6981	16000.5	84.68	16000.5	81.6965	16000.5	79.2608	16000.5	77.6909	16000.5	74.9994	16000.5	74.7834	16000.5	69.7528	16000.5	68.5939	16000.5	68.0784	16000.5	63.2487	16000.5	61.8676	16000.5	62.2088	16000.5	59.3579	16000.5	72.2459	16000.5	54.0751	16000.5	67.1264	16000.5	56.3093	16000.5	47.4699	16000.5	55.6926	16000.5	51.5573	16000.5	53.6699	16000.5	52.3078	16000.5	44.9529	16000.5	49.0045	16000.5	36.8814	16000.5	44.7052	16000.5	48.3775	16000.5	49.637	16000.5	54.6525
16564.5	96.2096	16564.5	97.5149	16564.5	95.8416	16564.5	94.8107	16564.5	92.6225	16564.5	88.7161	16564.5	86.707	16564.5	84.8061	16564.5	79.9407	16564.5	79.1825	16564.5	76.8008	16564.5	74.2887	16564.5	71.6953	16564.5	69.8957	16564.5	69.8294	16564.5	65.4709	16564.5	50.314	16564.5	60.1087	16564.5	61.0169	16564.5	59.1746	16564.5	69.3615	16564.5	52.2114	16564.5	68.1718	16564.5	56.2092	16564.5	48.8878	16564.5	55.7402	16564.5	51.4898	16564.5	53.7655	16564.5	48.9996	16564.5	45.7527	16564.5	50.9746	16564.5	45.0536	16564.5	38.6404	16564.5	52.4918	16564.5	51.7595	16564.5	59.4486
17148.9	99.6902	17148.9	99.4642	17148.9	98.5831	17148.9	95.8247	17148.9	94.2307	17148.9	89.1708	17148.9	87.3581	17148.9	85.3012	17148.9	80.5995	17148.9	79.8251	17148.9	77.33	17148.9	74.7105	17148.9	69.7924	17148.9	69.5656	17148.9	69.3101	17148.9	67.0978	17148.9	59.4323	17148.9	60.9742	17148.9	64.3091	17148.9	59.6775	17148.9	65.1388	17148.9	53.5678	17148.9	69.1972	17148.9	56.8083	17148.9	48.9946	17148.9	58.0149	17148.9	48.8973	17148.9	55.7444	17148.9	47.2469	17148.9	50.1537	17148.9	49.5721	17148.9	42.2743	17148.9	41.1875	17148.9	51.6064	17148.9	55.5875	17148.9	63.3535
17752.4	101.322	17752.4	99.7523	17752.4	99.8158	17752.4	95.154	17752.4	95.157	17752.4	88.0869	17752.4	88.5449	17752.4	84.0554	17752.4	81.6669	17752.4	78.5743	17752.4	78.8141	17752.4	74.281	17752.4	71.9638	17752.4	69.176	17752.4	70.0205	17752.4	67.292	17752.4	67.9288	17752.4	57.1096	17752.4	64.8896	17752.4	57.2071	17752.4	66.9383	17752.4	51.8726	17752.4	67.6908	17752.4	54.7419	17752.4	43.2346	17752.4	56.5032	17752.4	50.6448	17752.4	54.1957	17752.4	38.1753	17752.4	51.1744	17752.4	51.9366	17752.4	40.2296	17752.4	46.2907	17752.4	48.326	17752.4	57.6809	17752.4	64.7408
18379.4	98.3742	18379.4	96.1819	18379.4	96.7949	18379.4	91.6932	18379.4	92.4921	18379.4	84.71	18379.4	86.4652	18379.4	80.7698	18379.4	80.1099	18379.4	74.819	18379.4	76.374	18379.4	69.4514	18379.4	72.6452	18379.4	66.3058	18379.4	66.4431	18379.4	61.2557	18379.4	66.9399	18379.4	55.3836	18379.4	61.1811	18379.4	56.004	18379.4	67.0185	18379.4	48.372	18379.4	63.6508	18379.4	52.9718	18379.4	45.1827	18379.4	54.007	18379.4	50.0593	18379.4	53.2297	18379.4	48.5196	18379.4	49.36	18379.4	52.1671	18379.4	47.8286	18379.4	47.9884	18379.4	54.4469	18379.4	57.3529	18379.4	65.7984
19026.9	95.0465	19026.9	92.9555	19026.9	94.0926	19026.9	89.2644	19026.9	90.4724	19026.9	82.2597	19026.9	85.2778	19026.9	78.719	19026.9	78.7928	19026.9	74.0354	19026.9	75.3442	19026.9	68.714	19026.9	70.7605	19026.9	63.7937	19026.9	65.9336	19026.9	60.2496	19026.9	63.7216	19026.9	53.9162	19026.9	58.5386	19026.9	53.5093	19026.9	68.1594	19026.9	47.5699	19026.9	58.5406	19026.9	49.973	19026.9	48.2918	19026.9	52.1571	19026.9	46.9804	19026.9	50.4634	19026.9	48.8645	19026.9	44.2572	19026.9	47.6243	19026.9	46.8306	19026.9	44.8336	19026.9	57.4266	19026.9	55.0613	19026.9	65.1668
19697.8	93.377	19697.8	91.3141	19697.8	92.9054	19697.8	88.1101	19697.8	90.0067	19697.8	81.2988	19697.8	84.9107	19697.8	77.7289	19697.8	78.394	19697.8	72.6014	19697.8	74.9688	19697.8	66.9205	19697.8	69.2649	19697.8	63.2379	19697.8	62.5405	19697.8	56.808	19697.8	64.8796	19697.8	53.2835	19697.8	56.6544	19697.8	53.5931	19697.8	66.9076	19697.8	45.2048	19697.8	51.841	19697.8	49.1492	19697.8	47.6896	19697.8	52.3222	19697.8	48.536	19697.8	49.6774	19697.8	54.0052	19697.8	37.8105	19697.8	45.947	19697.8	50.7901	19697.8	45.0197	19697.8	60.0581	19697.8	56.8233	19697.8	67.7539
19999.5	87.5949	19999.5	85.7298	19999.5	86.4717	19999.5	85.0871	19999.5	84.3361	19999.5	80.1416	19999.5	80.349	19999.5	76.6573	19999.5	72.4184	19999.5	69.6814	19999.5	68.3256	19999.5	62.0676	19999.5	64.5379	19999.5	58.7453	19999.5	58.6311	19999.5	54.3102	19999.5	64.9801	19999.5	59.0483	19999.5	53.6036	19999.5	42.3228	19999.5	63.9313	19999.5	51.7819	19999.5	55.3412	19999.5	41.852	19999.5	47.7212	19999.5	53.4671	19999.5	40.4788	19999.5	45.546	19999.5	53.7054	19999.5	48.2036	19999.5	50.6633	19999.5	49.3196	19999.5	42.4391	19999.5	59.8747	19999.5	54.5014	19999.5	63.0912
