"SPL Horizontal"
"On-Axis"		"10°"		"-10°"		"20°"		"-20°"		"30°"		"-30°"		"40°"		"-40°"		"50°"		"-50°"		"60°"		"-60°"		"70°"		"-70°"		"80°"		"-80°"		"90°"		"-90°"		"100°"		"-100°"		"110°"		"-110°"		"120°"		"-120°"		"130°"		"-130°"		"140°"		"-140°"		"150°"		"-150°"		"160°"		"-160°"		"170°"		"-170°"		"180°"
"Frequency [Hz]"	"Sound Pessure Level [dB]   [2.83V at 1m]"	"Frequency [Hz]"	"Sound Pessure Level [dB]   [2.83V at 1m]"	"Frequency [Hz]"	"Sound Pessure Level [dB]   [2.83V at 1m]"	"Frequency [Hz]"	"Sound Pessure Level [dB]   [2.83V at 1m]"	"Frequency [Hz]"	"Sound Pessure Level [dB]   [2.83V at 1m]"	"Frequency [Hz]"	"Sound Pessure Level [dB]   [2.83V at 1m]"	"Frequency [Hz]"	"Sound Pessure Level [dB]   [2.83V at 1m]"	"Frequency [Hz]"	"Sound Pessure Level [dB]   [2.83V at 1m]"	"Frequency [Hz]"	"Sound Pessure Level [dB]   [2.83V at 1m]"	"Frequency [Hz]"	"Sound Pessure Level [dB]   [2.83V at 1m]"	"Frequency [Hz]"	"Sound Pessure Level [dB]   [2.83V at 1m]"	"Frequency [Hz]"	"Sound Pessure Level [dB]   [2.83V at 1m]"	"Frequency [Hz]"	"Sound Pessure Level [dB]   [2.83V at 1m]"	"Frequency [Hz]"	"Sound Pessure Level [dB]   [2.83V at 1m]"	"Frequency [Hz]"	"Sound Pessure Level [dB]   [2.83V at 1m]"	"Frequency [Hz]"	"Sound Pessure Level [dB]   [2.83V at 1m]"	"Frequency [Hz]"	"Sound Pessure Level [dB]   [2.83V at 1m]"	"Frequency [Hz]"	"Sound Pessure Level [dB]   [2.83V at 1m]"	"Frequency [Hz]"	"Sound Pessure Level [dB]   [2.83V at 1m]"	"Frequency [Hz]"	"Sound Pessure Level [dB]   [2.83V at 1m]"	"Frequency [Hz]"	"Sound Pessure Level [dB]   [2.83V at 1m]"	"Frequency [Hz]"	"Sound Pessure Level [dB]   [2.83V at 1m]"	"Frequency [Hz]"	"Sound Pessure Level [dB]   [2.83V at 1m]"	"Frequency [Hz]"	"Sound Pessure Level [dB]   [2.83V at 1m]"	"Frequency [Hz]"	"Sound Pessure Level [dB]   [2.83V at 1m]"	"Frequency [Hz]"	"Sound Pessure Level [dB]   [2.83V at 1m]"	"Frequency [Hz]"	"Sound Pessure Level [dB]   [2.83V at 1m]"	"Frequency [Hz]"	"Sound Pessure Level [dB]   [2.83V at 1m]"	"Frequency [Hz]"	"Sound Pessure Level [dB]   [2.83V at 1m]"	"Frequency [Hz]"	"Sound Pessure Level [dB]   [2.83V at 1m]"	"Frequency [Hz]"	"Sound Pessure Level [dB]   [2.83V at 1m]"	"Frequency [Hz]"	"Sound Pessure Level [dB]   [2.83V at 1m]"	"Frequency [Hz]"	"Sound Pessure Level [dB]   [2.83V at 1m]"	"Frequency [Hz]"	"Sound Pessure Level [dB]   [2.83V at 1m]"	"Frequency [Hz]"	"Sound Pessure Level [dB]   [2.83V at 1m]"	"Frequency [Hz]"	"Sound Pessure Level [dB]   [2.83V at 1m]"
20.5078	60.3814	20.5078	60.4053	20.5078	60.3737	20.5078	60.4442	20.5078	60.3821	20.5078	60.4955	20.5078	60.4047	20.5078	60.5551	20.5078	60.4386	20.5078	60.6177	20.5078	60.4793	20.5078	60.6773	20.5078	60.5217	20.5078	60.7274	20.5078	60.5601	20.5078	60.762	20.5078	60.5891	20.5078	60.7757	20.5078	60.6039	20.5078	60.7649	20.5078	60.6006	20.5078	60.7283	20.5078	60.5776	20.5078	60.6674	20.5078	60.5354	20.5078	60.5874	20.5078	60.4774	20.5078	60.4964	20.5078	60.4103	20.5078	60.4056	20.5078	60.3431	20.5078	60.3268	20.5078	60.2868	20.5078	60.2709	20.5078	60.2515	20.5078	60.2451
21.9727	62.7777	21.9727	62.8018	21.9727	62.7651	21.9727	62.8368	21.9727	62.7639	21.9727	62.8809	21.9727	62.7726	21.9727	62.9313	21.9727	62.7888	21.9727	62.9839	21.9727	62.8092	21.9727	63.034	21.9727	62.8298	21.9727	63.0762	21.9727	62.8459	21.9727	63.1052	21.9727	62.8531	21.9727	63.1157	21.9727	62.8475	21.9727	63.104	21.9727	62.8266	21.9727	63.068	21.9727	62.7896	21.9727	63.0082	21.9727	62.7382	21.9727	62.9281	21.9727	62.6771	21.9727	62.8343	21.9727	62.6137	21.9727	62.7361	21.9727	62.5575	21.9727	62.6446	21.9727	62.5185	21.9727	62.5705	21.9727	62.5051	21.9727	62.5224
23.4375	65.0332	23.4375	65.0383	23.4375	65.0373	23.4375	65.0522	23.4375	65.0501	23.4375	65.0734	23.4375	65.0701	23.4375	65.0996	23.4375	65.0951	23.4375	65.1279	23.4375	65.122	23.4375	65.1544	23.4375	65.1473	23.4375	65.1753	23.4375	65.1671	23.4375	65.187	23.4375	65.1778	23.4375	65.1863	23.4375	65.1765	23.4375	65.1717	23.4375	65.1614	23.4375	65.1428	23.4375	65.1321	23.4375	65.1013	23.4375	65.0903	23.4375	65.0506	23.4375	65.0396	23.4375	64.9957	23.4375	64.9851	23.4375	64.9428	23.4375	64.9334	23.4375	64.8984	23.4375	64.8912	23.4375	64.8682	23.4375	64.8643	23.4375	64.8563
24.9023	66.9123	24.9023	66.9213	24.9023	66.9077	24.9023	66.9341	24.9023	66.9071	24.9023	66.9496	24.9023	66.9096	24.9023	66.9658	24.9023	66.9132	24.9023	66.9802	24.9023	66.9157	24.9023	66.9898	24.9023	66.9141	24.9023	66.9914	24.9023	66.9055	24.9023	66.9824	24.9023	66.8871	24.9023	66.9606	24.9023	66.857	24.9023	66.9251	24.9023	66.8147	24.9023	66.8764	24.9023	66.761	24.9023	66.8165	24.9023	66.6993	24.9023	66.7489	24.9023	66.6343	24.9023	66.6783	24.9023	66.5725	24.9023	66.6102	24.9023	66.5207	24.9023	66.5503	24.9023	66.4849	24.9023	66.5042	24.9023	66.4695	24.9023	66.4762
26.3672	68.7032	26.3672	68.6976	26.3672	68.7093	26.3672	68.6925	26.3672	68.7155	26.3672	68.6871	26.3672	68.7207	26.3672	68.6801	26.3672	68.7232	26.3672	68.6696	26.3672	68.7209	26.3672	68.6536	26.3672	68.7114	26.3672	68.6299	26.3672	68.6923	26.3672	68.5967	26.3672	68.6615	26.3672	68.553	26.3672	68.6179	26.3672	68.4989	26.3672	68.5615	26.3672	68.4358	26.3672	68.4937	26.3672	68.3666	26.3672	68.4176	26.3672	68.2952	26.3672	68.3378	26.3672	68.2267	26.3672	68.2599	26.3672	68.1664	26.3672	68.1903	26.3672	68.1196	26.3672	68.1347	26.3672	68.0908	26.3672	68.098	26.3672	68.0831
27.832	70.4935	27.832	70.4934	27.832	70.4907	27.832	70.4899	27.832	70.4847	27.832	70.4825	27.832	70.4751	27.832	70.4702	27.832	70.4608	27.832	70.4516	27.832	70.4406	27.832	70.4253	27.832	70.413	27.832	70.3901	27.832	70.3768	27.832	70.3452	27.832	70.331	27.832	70.2908	27.832	70.2756	27.832	70.2278	27.832	70.2116	27.832	70.1586	27.832	70.1414	27.832	70.0865	27.832	70.0685	27.832	70.0155	27.832	69.9973	27.832	69.95	27.832	69.9325	27.832	69.8939	27.832	69.8785	27.832	69.8504	27.832	69.8389	27.832	69.8219	27.832	69.8157	27.832	69.81
29.2969	71.9066	29.2969	71.9029	29.2969	71.9042	29.2969	71.893	29.2969	71.8955	29.2969	71.8764	29.2969	71.8801	29.2969	71.8527	29.2969	71.8574	29.2969	71.8209	29.2969	71.8267	29.2969	71.7805	29.2969	71.7873	29.2969	71.7307	29.2969	71.7388	29.2969	71.6716	29.2969	71.6812	29.2969	71.604	29.2969	71.6153	29.2969	71.5296	29.2969	71.5427	29.2969	71.4512	29.2969	71.4661	29.2969	71.3726	29.2969	71.3888	29.2969	71.298	29.2969	71.3147	29.2969	71.2318	29.2969	71.2477	29.2969	71.1776	29.2969	71.1912	29.2969	71.1382	29.2969	71.1482	29.2969	71.1151	29.2969	71.1204	29.2969	71.1092
30.7617	73.0877	30.7617	73.0818	30.7617	73.0847	30.7617	73.0672	30.7617	73.0727	30.7617	73.0434	30.7617	73.0517	30.7617	73.0105	30.7617	73.0211	30.7617	72.968	30.7617	72.9806	30.7617	72.9158	30.7617	72.93	30.7617	72.8541	30.7617	72.8693	30.7617	72.7836	30.7617	72.7992	30.7617	72.7057	30.7617	72.721	30.7617	72.6229	30.7617	72.6373	30.7617	72.5383	30.7617	72.5513	30.7617	72.4559	30.7617	72.467	30.7617	72.3796	30.7617	72.3886	30.7617	72.3131	30.7617	72.3198	30.7617	72.2591	30.7617	72.2636	30.7617	72.2196	30.7617	72.2223	30.7617	72.1957	30.7617	72.197	30.7617	72.1881
32.2266	74.2794	32.2266	74.2719	32.2266	74.2759	32.2266	74.2533	32.2266	74.2612	32.2266	74.2235	32.2266	74.2353	32.2266	74.1825	32.2266	74.1982	32.2266	74.1305	32.2266	74.1498	32.2266	74.0676	32.2266	74.0903	32.2266	73.9947	32.2266	74.0202	32.2266	73.913	32.2266	73.9409	32.2266	73.8246	32.2266	73.8542	32.2266	73.7324	32.2266	73.7629	32.2266	73.6401	32.2266	73.6706	32.2266	73.5518	32.2266	73.5812	32.2266	73.4717	32.2266	73.4986	32.2266	73.4031	32.2266	73.4262	32.2266	73.3487	32.2266	73.367	32.2266	73.31	32.2266	73.3226	32.2266	73.288	32.2266	73.2944	32.2266	73.2827
33.6914	75.3487	33.6914	75.3388	33.6914	75.3459	33.6914	75.3163	33.6914	75.3304	33.6914	75.2813	33.6914	75.3022	33.6914	75.2341	33.6914	75.2615	33.6914	75.1751	33.6914	75.2084	33.6914	75.1051	33.6914	75.1436	33.6914	75.0252	33.6914	75.0681	33.6914	74.9374	33.6914	74.9835	33.6914	74.844	33.6914	74.8921	33.6914	74.7484	33.6914	74.797	33.6914	74.6544	33.6914	74.702	33.6914	74.566	33.6914	74.6108	33.6914	74.4872	33.6914	74.5274	33.6914	74.4208	33.6914	74.4549	33.6914	74.3691	33.6914	74.3957	33.6914	74.3331	33.6914	74.3513	33.6914	74.3134	33.6914	74.3226	33.6914	74.3099
35.1562	76.2752	35.1562	76.266	35.1562	76.2703	35.1562	76.2429	35.1562	76.2514	35.1562	76.2061	35.1562	76.2187	35.1562	76.1561	35.1562	76.1725	35.1562	76.0935	35.1562	76.1134	35.1562	76.0195	35.1562	76.0423	35.1562	75.9355	35.1562	75.9606	35.1562	75.8439	35.1562	75.8704	35.1562	75.7472	35.1562	75.7744	35.1562	75.649	35.1562	75.6759	35.1562	75.5529	35.1562	75.5787	35.1562	75.463	35.1562	75.4868	35.1562	75.3828	35.1562	75.4038	35.1562	75.3151	35.1562	75.3325	35.1562	75.2619	35.1562	75.2752	35.1562	75.2242	35.1562	75.2331	35.1562	75.2024	35.1562	75.2069	35.1562	75.1966
36.6211	77.1139	36.6211	77.1067	36.6211	77.1061	36.6211	77.0847	36.6211	77.0837	36.6211	77.048	36.6211	77.0469	36.6211	76.9973	36.6211	76.9965	36.6211	76.9335	36.6211	76.9334	36.6211	76.8582	36.6211	76.8591	36.6211	76.7733	36.6211	76.7756	36.6211	76.6816	36.6211	76.6853	36.6211	76.5864	36.6211	76.5914	36.6211	76.4914	36.6211	76.4977	36.6211	76.4006	36.6211	76.4078	36.6211	76.3178	36.6211	76.3254	36.6211	76.246	36.6211	76.2535	36.6211	76.1872	36.6211	76.194	36.6211	76.1423	36.6211	76.1479	36.6211	76.1111	36.6211	76.1151	36.6211	76.0933	36.6211	76.0953	36.6211	76.0881
38.0859	77.8923	38.0859	77.8865	38.0859	77.8812	38.0859	77.8638	38.0859	77.8533	38.0859	77.8248	38.0859	77.8091	38.0859	77.7702	38.0859	77.7494	38.0859	77.701	38.0859	77.6754	38.0859	77.619	38.0859	77.589	38.0859	77.5264	38.0859	77.4928	38.0859	77.4262	38.0859	77.3899	38.0859	77.3219	38.0859	77.2843	38.0859	77.2176	38.0859	77.18	38.0859	77.1175	38.0859	77.0816	38.0859	77.0256	38.0859	76.9927	38.0859	76.9449	38.0859	76.9162	38.0859	76.8776	38.0859	76.854	38.0859	76.8246	38.0859	76.8068	38.0859	76.7863	38.0859	76.7744	38.0859	76.7623	38.0859	76.7564	38.0859	76.7524
39.5508	78.7216	39.5508	78.7095	39.5508	78.7117	39.5508	78.6754	39.5508	78.6802	39.5508	78.6199	39.5508	78.6276	39.5508	78.5439	39.5508	78.5552	39.5508	78.449	39.5508	78.4645	39.5508	78.3377	39.5508	78.3574	39.5508	78.2131	39.5508	78.2369	39.5508	78.0794	39.5508	78.1067	39.5508	77.9417	39.5508	77.9712	39.5508	77.8055	39.5508	77.8359	39.5508	77.677	39.5508	77.7066	39.5508	77.5614	39.5508	77.5886	39.5508	77.4632	39.5508	77.4866	39.5508	77.3846	39.5508	77.4034	39.5508	77.3262	39.5508	77.34	39.5508	77.287	39.5508	77.2959	39.5508	77.2652	39.5508	77.2695	39.5508	77.2596
41.0156	79.3685	41.0156	79.3531	41.0156	79.3629	41.0156	79.3171	41.0156	79.3364	41.0156	79.2611	41.0156	79.2894	41.0156	79.1862	41.0156	79.2225	41.0156	79.0938	41.0156	79.1373	41.0156	78.9862	41.0156	79.0355	41.0156	78.8659	41.0156	78.9197	41.0156	78.7364	41.0156	78.7935	41.0156	78.6021	41.0156	78.6608	41.0156	78.4675	41.0156	78.5265	41.0156	78.3378	41.0156	78.3954	41.0156	78.2179	41.0156	78.2725	41.0156	78.1121	41.0156	78.1619	41.0156	78.024	41.0156	78.0669	41.0156	77.9557	41.0156	77.99	41.0156	77.9086	41.0156	77.9326	41.0156	77.8829	41.0156	77.8953	41.0156	77.8786
42.4805	79.9893	42.4805	79.9818	42.4805	79.9743	42.4805	79.952	42.4805	79.937	42.4805	79.9005	42.4805	79.8781	42.4805	79.8286	42.4805	79.799	42.4805	79.7382	42.4805	79.7017	42.4805	79.6318	42.4805	79.5889	42.4805	79.5128	42.4805	79.4642	42.4805	79.3853	42.4805	79.3323	42.4805	79.2543	42.4805	79.1982	42.4805	79.1249	42.4805	79.0676	42.4805	79.0023	42.4805	78.946	42.4805	78.8911	42.4805	78.838	42.4805	78.7947	42.4805	78.7471	42.4805	78.7152	42.4805	78.6751	42.4805	78.6534	42.4805	78.622	42.4805	78.6086	42.4805	78.5872	42.4805	78.5802	42.4805	78.5693	42.4805	78.5671
43.9453	80.6795	43.9453	80.6711	43.9453	80.6627	43.9453	80.6377	43.9453	80.6209	43.9453	80.5803	43.9453	80.5547	43.9453	80.5001	43.9453	80.4654	43.9453	80.399	43.9453	80.3551	43.9453	80.2799	43.9453	80.2264	43.9453	80.1462	43.9453	80.0834	43.9453	80.0023	43.9453	79.9306	43.9453	79.8532	43.9453	79.7738	43.9453	79.7045	43.9453	79.6194	43.9453	79.5618	43.9453	79.4737	43.9453	79.43	43.9453	79.3427	43.9453	79.3133	43.9453	79.231	43.9453	79.2143	43.9453	79.1416	43.9453	79.1346	43.9453	79.0757	43.9453	79.0745	43.9453	79.0331	43.9453	79.0342	43.9453	79.0128	43.9453	79.0135
45.4102	81.3376	45.4102	81.324	45.4102	81.3242	45.4102	81.2836	45.4102	81.2838	45.4102	81.2173	45.4102	81.217	45.4102	81.1262	45.4102	81.125	45.4102	81.0123	45.4102	81.0094	45.4102	80.8781	45.4102	80.8729	45.4102	80.727	45.4102	80.7189	45.4102	80.5633	45.4102	80.5518	45.4102	80.3923	45.4102	80.3771	45.4102	80.2198	45.4102	80.2011	45.4102	80.0519	45.4102	80.0304	45.4102	79.8948	45.4102	79.8715	45.4102	79.7537	45.4102	79.7304	45.4102	79.6331	45.4102	79.6115	45.4102	79.5361	45.4102	79.518	45.4102	79.4647	45.4102	79.4517	45.4102	79.42	45.4102	79.4132	45.4102	79.4028
46.875	81.8713	46.875	81.8593	46.875	81.8578	46.875	81.8222	46.875	81.8189	46.875	81.7609	46.875	81.7553	46.875	81.6767	46.875	81.668	46.875	81.5715	46.875	81.559	46.875	81.4479	46.875	81.4308	46.875	81.3093	46.875	81.287	46.875	81.1598	46.875	81.1319	46.875	81.0042	46.875	80.9708	46.875	80.8477	46.875	80.8095	46.875	80.6958	46.875	80.6542	46.875	80.5536	46.875	80.5106	46.875	80.4255	46.875	80.3838	46.875	80.3154	46.875	80.2777	46.875	80.226	46.875	80.1951	46.875	80.1592	46.875	80.1372	46.875	80.1162	46.875	80.1048	46.875	80.0979
48.3398	82.2971	48.3398	82.2875	48.3398	82.2833	48.3398	82.2549	48.3398	82.2465	48.3398	82.2003	48.3398	82.1874	48.3398	82.1252	48.3398	82.1075	48.3398	82.0318	48.3398	82.0089	48.3398	81.923	48.3398	81.8946	48.3398	81.8023	48.3398	81.7682	48.3398	81.6738	48.3398	81.6342	48.3398	81.5422	48.3398	81.4977	48.3398	81.4122	48.3398	81.3638	48.3398	81.2884	48.3398	81.2377	48.3398	81.1747	48.3398	81.124	48.3398	81.0744	48.3398	81.0262	48.3398	80.9894	48.3398	80.9467	48.3398	80.9212	48.3398	80.8865	48.3398	80.8704	48.3398	80.8459	48.3398	80.8372	48.3398	80.8245	48.3398	80.8218
51.2695	83.4279	51.2695	83.4101	51.2695	83.4194	51.2695	83.3667	51.2695	83.3849	51.2695	83.2989	51.2695	83.3253	51.2695	83.209	51.2695	83.2425	51.2695	83.0998	51.2695	83.1392	51.2695	82.9755	51.2695	83.019	51.2695	82.8406	51.2695	82.8864	51.2695	82.7007	51.2695	82.7469	51.2695	82.5615	51.2695	82.6063	51.2695	82.4287	51.2695	82.4705	51.2695	82.3075	51.2695	82.345	51.2695	82.2016	51.2695	82.234	51.2695	82.1134	51.2695	82.1402	51.2695	82.0436	51.2695	82.0648	51.2695	81.9919	51.2695	82.0075	51.2695	81.957	51.2695	81.9672	51.2695	81.9377	51.2695	81.9428	51.2695	81.933
52.7344	84.0079	52.7344	83.9907	52.7344	83.9968	52.7344	83.9458	52.7344	83.9578	52.7344	83.8745	52.7344	83.8923	52.7344	83.7788	52.7344	83.8022	52.7344	83.662	52.7344	83.6905	52.7344	83.5282	52.7344	83.5614	52.7344	83.3826	52.7344	83.4198	52.7344	83.2312	52.7344	83.2714	52.7344	83.0805	52.7344	83.1225	52.7344	82.937	52.7344	82.9796	52.7344	82.8066	52.7344	82.8483	52.7344	82.6938	52.7344	82.733	52.7344	82.6012	52.7344	82.6366	52.7344	82.5298	52.7344	82.5598	52.7344	82.4785	52.7344	82.502	52.7344	82.4454	52.7344	82.4615	52.7344	82.4283	52.7344	82.4365	52.7344	82.4256
54.1992	84.5053	54.1992	84.4885	54.1992	84.493	54.1992	84.4431	54.1992	84.4521	54.1992	84.3704	54.1992	84.3835	54.1992	84.2725	54.1992	84.2895	54.1992	84.1528	54.1992	84.1728	54.1992	84.0151	54.1992	84.0373	54.1992	83.8646	54.1992	83.8881	54.1992	83.7072	54.1992	83.7308	54.1992	83.5493	54.1992	83.5718	54.1992	83.3974	54.1992	83.4176	54.1992	83.2573	54.1992	83.2744	54.1992	83.1337	54.1992	83.1473	54.1992	83.0297	54.1992	83.0396	54.1992	82.9465	54.1992	82.9532	54.1992	82.8841	54.1992	82.8881	54.1992	82.8411	54.1992	82.8432	54.1992	82.8162	54.1992	82.817	54.1992	82.8083
55.6641	84.9337	55.6641	84.9205	55.6641	84.9193	55.6641	84.88	55.6641	84.8775	55.6641	84.8137	55.6641	84.8098	55.6641	84.7238	55.6641	84.7185	55.6641	84.6138	55.6641	84.6067	55.6641	84.4878	55.6641	84.4788	55.6641	84.351	55.6641	84.3399	55.6641	84.2093	55.6641	84.1959	55.6641	84.0687	55.6641	84.0531	55.6641	83.9353	55.6641	83.9176	55.6641	83.814	55.6641	83.7948	55.6641	83.7086	55.6641	83.6886	55.6641	83.6212	55.6641	83.6015	55.6641	83.552	55.6641	83.534	55.6641	83.5001	55.6641	83.4851	55.6641	83.464	55.6641	83.4532	55.6641	83.4419	55.6641	83.4363	55.6641	83.4327
58.5938	85.9632	58.5938	85.9465	58.5938	85.9484	58.5938	85.899	58.5938	85.9025	58.5938	85.8225	58.5938	85.827	58.5938	85.7201	58.5938	85.7245	58.5938	85.596	58.5938	85.599	58.5938	85.4554	58.5938	85.4557	58.5938	85.3049	58.5938	85.301	58.5938	85.1517	58.5938	85.1423	58.5938	85.003	58.5938	84.9874	58.5938	84.8659	58.5938	84.8438	58.5938	84.7459	58.5938	84.718	58.5938	84.6464	58.5938	84.6143	58.5938	84.5683	58.5938	84.5345	58.5938	84.5103	58.5938	84.4779	58.5938	84.4694	58.5938	84.4416	58.5938	84.442	58.5938	84.4216	58.5938	84.4247	58.5938	84.4139	58.5938	84.4155
60.0586	86.4594	60.0586	86.4405	60.0586	86.4453	60.0586	86.3892	60.0586	86.3985	60.0586	86.3075	60.0586	86.3206	60.0586	86.1985	60.0586	86.2144	60.0586	86.0666	60.0586	86.0839	60.0586	85.9175	60.0586	85.9347	60.0586	85.7581	60.0586	85.7734	60.0586	85.5959	60.0586	85.6077	60.0586	85.439	60.0586	85.4459	60.0586	85.2948	60.0586	85.296	60.0586	85.1692	60.0586	85.1645	60.0586	85.0659	60.0586	85.0562	60.0586	84.9861	60.0586	84.9727	60.0586	84.9281	60.0586	84.9132	60.0586	84.8885	60.0586	84.8745	60.0586	84.8632	60.0586	84.8524	60.0586	84.8484	60.0586	84.8425	60.0586	84.8417
62.9883	87.3645	62.9883	87.3385	62.9883	87.3546	62.9883	87.2776	62.9883	87.3092	62.9883	87.1838	62.9883	87.2301	62.9883	87.0608	62.9883	87.1201	62.9883	86.9135	62.9883	86.9836	62.9883	86.7482	62.9883	86.8266	62.9883	86.5727	62.9883	86.6563	62.9883	86.3957	62.9883	86.481	62.9883	86.2261	62.9883	86.3097	62.9883	86.0725	62.9883	86.1511	62.9883	85.9415	62.9883	86.0125	62.9883	85.8371	62.9883	85.8985	62.9883	85.7602	62.9883	85.811	62.9883	85.7084	62.9883	85.7483	62.9883	85.6774	62.9883	85.7067	62.9883	85.6617	62.9883	85.6809	62.9883	85.6565	62.9883	85.6659	62.9883	85.6582
64.4531	87.8693	64.4531	87.8382	64.4531	87.8628	64.4531	87.7706	64.4531	87.8194	64.4531	87.6684	64.4531	87.7409	64.4531	87.5354	64.4531	87.6302	64.4531	87.3767	64.4531	87.492	64.4531	87.199	64.4531	87.3322	64.4531	87.0109	64.4531	87.1583	64.4531	86.8219	64.4531	86.9787	64.4531	86.6421	64.4531	86.8028	64.4531	86.481	64.4531	86.6393	64.4531	86.3459	64.4531	86.4958	64.4531	86.2414	64.4531	86.3774	64.4531	86.1681	64.4531	86.2857	64.4531	86.1229	64.4531	86.2191	64.4531	86.1004	64.4531	86.1735	64.4531	86.0941	64.4531	86.143	64.4531	86.098	64.4531	86.1225	64.4531	86.1079
67.3828	88.6898	67.3828	88.6693	67.3828	88.6717	67.3828	88.6106	67.3828	88.6155	67.3828	88.5154	67.3828	88.5228	67.3828	88.3864	67.3828	88.3963	67.3828	88.2276	67.3828	88.2402	67.3828	88.0443	67.3828	88.0596	67.3828	87.8434	67.3828	87.8617	67.3828	87.6331	67.3828	87.6544	67.3828	87.4225	67.3828	87.447	67.3828	87.2211	67.3828	87.2488	67.3828	87.0381	67.3828	87.0683	67.3828	86.8804	67.3828	86.9123	67.3828	86.7527	67.3828	86.7846	67.3828	86.656	67.3828	86.6858	67.3828	86.5886	67.3828	86.614	67.3828	86.5467	67.3828	86.5653	67.3828	86.526	67.3828	86.5358	67.3828	86.523
68.8477	89.0632	68.8477	89.0422	68.8477	89.0481	68.8477	88.9858	68.8477	88.9976	68.8477	88.8959	68.8477	88.9131	68.8477	88.7755	68.8477	88.7976	68.8477	88.6287	68.8477	88.6551	68.8477	88.4612	68.8477	88.491	68.8477	88.2796	68.8477	88.3121	68.8477	88.0918	68.8477	88.126	68.8477	87.9061	68.8477	87.9412	68.8477	87.731	68.8477	87.7659	68.8477	87.5736	68.8477	87.6074	68.8477	87.4395	68.8477	87.4714	68.8477	87.3318	68.8477	87.3607	68.8477	87.2507	68.8477	87.2755	68.8477	87.1941	68.8477	87.2139	68.8477	87.1588	68.8477	87.1726	68.8477	87.1409	68.8477	87.148	68.8477	87.1377
71.7773	89.7957	71.7773	89.7785	71.7773	89.7747	71.7773	89.7238	71.7773	89.716	71.7773	89.634	71.7773	89.6218	71.7773	89.5127	71.7773	89.4959	71.7773	89.3653	71.7773	89.3435	71.7773	89.1985	71.7773	89.1714	71.7773	89.0204	71.7773	88.9882	71.7773	88.84	71.7773	88.8031	71.7773	88.6665	71.7773	88.6261	71.7773	88.5084	71.7773	88.4662	71.7773	88.3723	71.7773	88.3306	71.7773	88.2623	71.7773	88.2236	71.7773	88.1794	71.7773	88.1458	71.7773	88.1216	71.7773	88.0945	71.7773	88.0845	71.7773	88.0645	71.7773	88.0627	71.7773	88.0498	71.7773	88.0509	71.7773	88.0447	71.7773	88.0455
74.707	90.4986	74.707	90.4786	74.707	90.478	74.707	90.4189	74.707	90.4175	74.707	90.322	74.707	90.3192	74.707	90.1921	74.707	90.1869	74.707	90.0348	74.707	90.0262	74.707	89.8574	74.707	89.8442	74.707	89.6686	74.707	89.6494	74.707	89.4778	74.707	89.4517	74.707	89.2948	74.707	89.2612	74.707	89.1282	74.707	89.0875	74.707	88.9849	74.707	88.9384	74.707	88.8688	74.707	88.8189	74.707	88.7804	74.707	88.7305	74.707	88.7173	74.707	88.6711	74.707	88.6747	74.707	88.636	74.707	88.6472	74.707	88.6194	74.707	88.6298	74.707	88.6153	74.707	88.6194
77.6367	90.9482	77.6367	90.9245	77.6367	90.9309	77.6367	90.8611	77.6367	90.8732	77.6367	90.7608	77.6367	90.7775	77.6367	90.6285	77.6367	90.648	77.6367	90.4708	77.6367	90.4907	77.6367	90.2956	77.6367	90.3132	77.6367	90.1123	77.6367	90.1248	77.6367	89.9307	77.6367	89.9352	77.6367	89.7603	77.6367	89.7546	77.6367	89.609	77.6367	89.592	77.6367	89.4825	77.6367	89.4544	77.6367	89.3832	77.6367	89.346	77.6367	89.3101	77.6367	89.2674	77.6367	89.2597	77.6367	89.2163	77.6367	89.2266	77.6367	89.1877	77.6367	89.2052	77.6367	89.1759	77.6367	89.1908	77.6367	89.1751	77.6367	89.1809
79.1016	91.13	79.1016	91.1046	79.1016	91.1135	79.1016	91.0388	79.1016	91.056	79.1016	90.9356	79.1016	90.9602	79.1016	90.8003	79.1016	90.8305	79.1016	90.6399	79.1016	90.6734	79.1016	90.4632	79.1016	90.4971	79.1016	90.2802	79.1016	90.3113	79.1016	90.1014	79.1016	90.1261	79.1016	89.9367	79.1016	89.9519	79.1016	89.7942	79.1016	89.7975	79.1016	89.6789	79.1016	89.6695	79.1016	89.5923	79.1016	89.5712	79.1016	89.5323	79.1016	89.5025	79.1016	89.4939	79.1016	89.4601	79.1016	89.4708	79.1016	89.4386	79.1016	89.457	79.1016	89.4318	79.1016	89.4475	79.1016	89.4337	79.1016	89.4397
82.0312	91.4754	82.0312	91.4406	82.0312	91.4657	82.0312	91.3623	82.0312	91.4123	82.0312	91.2442	82.0312	91.3185	82.0312	91.0919	82.0312	91.1895	82.0312	90.9136	82.0312	91.0326	82.0312	90.7196	82.0312	90.857	82.0312	90.5218	82.0312	90.6733	82.0312	90.3329	82.0312	90.4926	82.0312	90.1646	82.0312	90.3258	82.0312	90.0265	82.0312	90.1815	82.0312	89.9238	82.0312	90.0657	82.0312	89.8571	82.0312	89.98	82.0312	89.8222	82.0312	89.9227	82.0312	89.8118	82.0312	89.8886	82.0312	89.8168	82.0312	89.871	82.0312	89.829	82.0312	89.8629	82.0312	89.8418	82.0312	89.8579	82.0312	89.8516
84.9609	91.793	84.9609	91.7555	84.9609	91.7805	84.9609	91.6693	84.9609	91.7193	84.9609	91.5379	84.9609	91.6128	84.9609	91.3675	84.9609	91.4671	84.9609	91.167	84.9609	91.2905	84.9609	90.9476	84.9609	91.0936	84.9609	90.7228	84.9609	90.8886	84.9609	90.507	84.9609	90.6884	84.9609	90.314	84.9609	90.5052	84.9609	90.1551	84.9609	90.3485	84.9609	90.0369	84.9609	90.224	84.9609	89.9602	84.9609	90.1328	84.9609	89.9206	84.9609	90.0715	84.9609	89.9097	84.9609	90.0337	84.9609	89.9176	84.9609	90.0115	84.9609	89.9349	84.9609	89.9974	84.9609	89.9543	84.9609	89.9855	84.9609	89.9716
87.8906	91.8967	87.8906	91.8674	87.8906	91.8732	87.8906	91.7861	87.8906	91.7985	87.8906	91.6567	87.8906	91.6771	87.8906	91.4859	87.8906	91.5166	87.8906	91.2834	87.8906	91.3272	87.8906	91.0621	87.8906	91.1222	87.8906	90.8372	87.8906	90.9166	87.8906	90.6256	87.8906	90.7261	87.8906	90.4435	87.8906	90.5647	87.8906	90.3036	87.8906	90.4423	87.8906	90.2131	87.8906	90.3628	87.8906	90.1715	87.8906	90.3235	87.8906	90.1717	87.8906	90.3159	87.8906	90.2014	87.8906	90.3285	87.8906	90.2468	87.8906	90.3488	87.8906	90.295	87.8906	90.366	87.8906	90.3357	87.8906	90.3721	87.8906	90.3623
90.8203	92.3614	90.8203	92.3384	90.8203	92.325	90.8203	92.2575	90.8203	92.2307	90.8203	92.1227	90.8203	92.0828	90.8203	91.9408	90.8203	91.8886	90.8203	91.7223	90.8203	91.6593	90.8203	91.4805	90.8203	91.4095	90.8203	91.2325	90.8203	91.1579	90.8203	90.9975	90.8203	90.925	90.8203	90.795	90.8203	90.7315	90.8203	90.6414	90.8203	90.5935	90.8203	90.5471	90.8203	90.5195	90.8203	90.5131	90.8203	90.5072	90.8203	90.5313	90.8203	90.5446	90.8203	90.5864	90.8203	90.6125	90.8203	90.6592	90.8203	90.6898	90.8203	90.7306	90.8203	90.757	90.8203	90.7844	90.8203	90.7996	90.8203	90.8092
95.2148	92.8527	95.2148	92.8213	95.2148	92.8216	95.2148	92.729	95.2148	92.729	95.2148	92.5796	95.2148	92.5787	95.2148	92.3799	95.2148	92.3768	95.2148	92.1399	95.2148	92.1331	95.2148	91.8728	95.2148	91.8607	95.2148	91.5952	95.2148	91.5763	95.2148	91.3267	95.2148	91.2999	95.2148	91.0874	95.2148	91.0523	95.2148	90.8954	95.2148	90.8527	95.2148	90.7628	95.2148	90.7145	95.2148	90.6927	95.2148	90.6419	95.2148	90.6782	95.2148	90.6288	95.2148	90.7042	95.2148	90.66	95.2148	90.7513	95.2148	90.7154	95.2148	90.7997	95.2148	90.7746	95.2148	90.8331	95.2148	90.8202	95.2148	90.8411
98.1445	92.7626	98.1445	92.7282	98.1445	92.7325	98.1445	92.6307	98.1445	92.6388	98.1445	92.4741	98.1445	92.4856	98.1445	92.2657	98.1445	92.2796	98.1445	92.016	98.1445	92.0311	98.1445	91.7389	98.1445	91.7539	98.1445	91.4521	98.1445	91.4654	98.1445	91.1763	98.1445	91.186	98.1445	90.9326	98.1445	90.9371	98.1445	90.7399	98.1445	90.7378	98.1445	90.6103	98.1445	90.601	98.1445	90.5463	98.1445	90.5302	98.1445	90.5399	98.1445	90.5187	98.1445	90.5743	98.1445	90.5509	98.1445	90.6289	98.1445	90.6068	98.1445	90.683	98.1445	90.6659	98.1445	90.7203	98.1445	90.711	98.1445	90.7306
101.074	92.6279	101.074	92.5901	101.074	92.5967	101.074	92.4848	101.074	92.4977	101.074	92.3161	101.074	92.3348	101.074	92.0913	101.074	92.1151	101.074	91.8211	101.074	91.8492	101.074	91.5204	101.074	91.5517	101.074	91.208	101.074	91.2414	101.074	90.9063	101.074	90.9406	101.074	90.6391	101.074	90.6729	101.074	90.428	101.074	90.4595	101.074	90.2873	101.074	90.3148	101.074	90.2204	101.074	90.2426	101.074	90.2185	101.074	90.2346	101.074	90.2628	101.074	90.273	101.074	90.3299	101.074	90.3353	101.074	90.3967	101.074	90.3989	101.074	90.4445	101.074	90.4451	101.074	90.4618
105.469	92.4628	105.469	92.4276	105.469	92.4238	105.469	92.3194	105.469	92.312	105.469	92.1416	105.469	92.1307	105.469	91.9003	105.469	91.8863	105.469	91.605	105.469	91.5884	105.469	91.2689	105.469	91.2503	105.469	90.9099	105.469	90.8902	105.469	90.55	105.469	90.5305	105.469	90.2143	105.469	90.1964	105.469	89.9278	105.469	89.9131	105.469	89.7104	105.469	89.7001	105.469	89.572	105.469	89.5664	105.469	89.5091	105.469	89.5077	105.469	89.5061	105.469	89.5075	105.469	89.5399	105.469	89.5426	105.469	89.5857	105.469	89.5883	105.469	89.6227	105.469	89.6242	105.469	89.6372
108.398	92.3249	108.398	92.2898	108.398	92.289	108.398	92.1851	108.398	92.1834	108.398	92.0142	108.398	92.0117	108.398	91.7837	108.398	91.7802	108.398	91.503	108.398	91.4982	108.398	91.1855	108.398	91.1787	108.398	90.8481	108.398	90.8386	108.398	90.5113	108.398	90.4983	108.398	90.1975	108.398	90.1803	108.398	89.9284	108.398	89.9069	108.398	89.7209	108.398	89.6958	108.398	89.5829	108.398	89.5557	108.398	89.5115	108.398	89.4844	108.398	89.4935	108.398	89.4689	108.398	89.5096	108.398	89.4895	108.398	89.5386	108.398	89.5245	108.398	89.5625	108.398	89.5553	108.398	89.5694
112.793	91.8292	112.793	91.7873	112.793	91.7972	112.793	91.673	112.793	91.6926	112.793	91.491	112.793	91.5199	112.793	91.2494	112.793	91.2872	112.793	90.9602	112.793	91.0062	112.793	90.64	112.793	90.6932	112.793	90.3096	112.793	90.3688	112.793	89.9935	112.793	90.0571	112.793	89.7174	112.793	89.7833	112.793	89.5039	112.793	89.5692	112.793	89.3672	112.793	89.4292	112.793	89.3095	112.793	89.3657	112.793	89.3201	112.793	89.3684	112.793	89.3785	112.793	89.4178	112.793	89.4595	112.793	89.4893	112.793	89.5389	112.793	89.5588	112.793	89.597	112.793	89.607	112.793	89.6211
117.188	91.2551	117.188	91.2101	117.188	91.2146	117.188	91.0808	117.188	91.0902	117.188	90.8718	117.188	90.8872	117.188	90.5914	117.188	90.6142	117.188	90.2524	117.188	90.2849	117.188	89.8736	117.188	89.9182	117.188	89.4798	117.188	89.539	117.188	89.1021	117.188	89.1775	117.188	88.7745	117.188	88.8654	117.188	88.5283	117.188	88.6304	117.188	88.3833	117.188	88.4888	117.188	88.3415	117.188	88.4405	117.188	88.3858	117.188	88.4694	117.188	88.4856	117.188	88.5487	117.188	88.606	117.188	88.6483	117.188	88.7159	117.188	88.7403	117.188	88.7923	117.188	88.8031	117.188	88.8224
120.117	91.5518	120.117	91.506	120.117	91.5084	120.117	91.3721	120.117	91.3769	120.117	91.1545	120.117	91.1616	120.117	90.8607	120.117	90.8703	120.117	90.5029	120.117	90.5149	120.117	90.0981	120.117	90.1128	120.117	89.67	120.117	89.688	120.117	89.2483	120.117	89.2708	120.117	88.8673	120.117	88.8961	120.117	88.5605	120.117	88.5971	120.117	88.3527	120.117	88.3975	120.117	88.2525	120.117	88.3034	120.117	88.2485	120.117	88.3013	120.117	88.3134	120.117	88.3627	120.117	88.4123	120.117	88.453	120.117	88.5116	120.117	88.5403	120.117	88.585	120.117	88.5997	120.117	88.6162
124.512	91.6895	124.512	91.6445	124.512	91.6461	124.512	91.5122	124.512	91.5159	124.512	91.2965	124.512	91.3037	124.512	91.0052	124.512	91.0176	124.512	90.6506	124.512	90.6707	124.512	90.251	124.512	90.2819	124.512	89.8319	124.512	89.8769	124.512	89.426	124.512	89.4885	124.512	89.071	124.512	89.1534	124.512	88.8026	124.512	88.9051	124.512	88.6457	124.512	88.765	124.512	88.6054	124.512	88.7344	124.512	88.665	124.512	88.7937	124.512	88.7912	124.512	88.9088	124.512	88.9445	124.512	89.0411	124.512	89.0879	124.512	89.1562	124.512	89.193	124.512	89.2283	124.512	89.242
128.906	91.5397	128.906	91.4988	128.906	91.4857	128.906	91.364	128.906	91.3381	128.906	91.139	128.906	91.1009	128.906	90.8309	128.906	90.7819	128.906	90.4519	128.906	90.3935	128.906	90.0207	128.906	89.9554	128.906	89.5649	128.906	89.4963	128.906	89.1221	128.906	89.0554	128.906	88.7375	128.906	88.6797	128.906	88.4564	128.906	88.4152	128.906	88.3109	128.906	88.2928	128.906	88.3074	128.906	88.315	128.906	88.4228	128.906	88.453	128.906	88.6133	128.906	88.6578	128.906	88.8278	128.906	88.8754	128.906	89.0202	128.906	89.0597	128.906	89.1554	128.906	89.1776	128.906	89.2109
133.301	91.4319	133.301	91.3864	133.301	91.3795	133.301	91.2431	133.301	91.2301	133.301	91.0036	133.301	90.986	133.301	90.6714	133.301	90.6514	133.301	90.2535	133.301	90.2338	133.301	89.7622	133.301	89.7457	133.301	89.2187	133.301	89.208	133.301	88.6566	133.301	88.653	133.301	88.1245	133.301	88.1275	133.301	87.6825	133.301	87.6894	133.301	87.3886	133.301	87.3952	133.301	87.2754	133.301	87.2786	133.301	87.3325	133.301	87.3317	133.301	87.5095	133.301	87.5064	133.301	87.7369	133.301	87.7337	133.301	87.949	133.301	87.9469	133.301	88.096	133.301	88.0951	133.301	88.148
139.16	90.7824	139.16	90.7564	139.16	90.7193	139.16	90.6422	139.16	90.5683	139.16	90.4433	139.16	90.3329	139.16	90.1652	139.16	90.0195	139.16	89.8165	139.16	89.6379	139.16	89.4094	139.16	89.2024	139.16	88.9611	139.16	88.7329	139.16	88.4949	139.16	88.2559	139.16	88.041	139.16	87.8051	139.16	87.6352	139.16	87.4177	139.16	87.313	139.16	87.1281	139.16	87.1001	139.16	86.9569	139.16	87.0026	139.16	86.9026	139.16	87.0032	139.16	86.9404	139.16	87.066	139.16	87.0309	139.16	87.1489	139.16	87.1317	139.16	87.2146	139.16	87.2079	139.16	87.2376
143.555	90.2275	143.555	90.1775	143.555	90.1683	143.555	90.0207	143.555	90.0008	143.555	89.7626	143.555	89.7294	143.555	89.4123	143.555	89.3625	143.555	88.9835	143.555	88.914	143.555	88.4961	143.555	88.4048	143.555	87.9774	143.555	87.8642	143.555	87.4637	143.555	87.3311	143.555	86.9989	143.555	86.8514	143.555	86.6282	143.555	86.4712	143.555	86.3867	143.555	86.2246	143.555	86.2863	143.555	86.1226	143.555	86.3092	143.555	86.1486	143.555	86.4144	143.555	86.2644	143.555	86.5516	143.555	86.4233	143.555	86.6752	143.555	86.5808	143.555	86.7514	143.555	86.7012	143.555	86.7614
147.949	90.8152	147.949	90.7612	147.949	90.7544	147.949	90.594	147.949	90.5792	147.949	90.3173	147.949	90.2917	147.949	89.9371	147.949	89.897	147.949	89.463	147.949	89.404	147.949	88.9097	147.949	88.8287	147.949	88.2998	147.949	88.197	147.949	87.6668	147.949	87.5499	147.949	87.0578	147.949	86.9449	147.949	86.5312	147.949	86.4509	147.949	86.1462	147.949	86.1279	147.949	85.9414	147.949	86.0006	147.949	85.9163	147.949	86.0433	147.949	86.0291	147.949	86.193	147.949	86.2149	147.949	86.3773	147.949	86.409	147.949	86.5361	147.949	86.5609	147.949	86.63	147.949	86.6391
153.809	90.648	153.809	90.5917	153.809	90.5972	153.809	90.4298	153.809	90.4395	153.809	90.1664	153.809	90.1773	153.809	89.808	153.809	89.8155	153.809	89.3648	153.809	89.3622	153.809	88.8519	153.809	88.8307	153.809	88.2921	153.809	88.2418	153.809	87.7183	153.809	87.6288	153.809	87.176	153.809	87.0414	153.809	86.7217	153.809	86.546	153.809	86.4123	153.809	86.2139	153.809	86.2854	153.809	86.0933	153.809	86.3386	153.809	86.1804	153.809	86.5261	153.809	86.4158	153.809	86.7761	153.809	86.7112	153.809	87.0144	153.809	86.9827	153.809	87.1812	153.809	87.1694	153.809	87.2382
159.668	89.9859	159.668	89.9305	159.668	89.927	159.668	89.7625	159.668	89.7548	159.668	89.4861	159.668	89.4729	159.668	89.109	159.668	89.0881	159.668	88.6431	159.668	88.6108	159.668	88.1054	159.668	88.0559	159.668	87.52	159.668	87.4442	159.668	86.9184	159.668	86.8037	159.668	86.3398	159.668	86.1708	159.668	85.8281	159.668	85.5907	159.668	85.425	159.668	85.1149	159.668	85.1597	159.668	84.7908	159.668	85.0376	159.668	84.6453	159.668	85.0366	159.668	84.6673	159.668	85.1107	159.668	84.8064	159.668	85.2035	159.668	84.9912	159.668	85.2622	159.668	85.1542	159.668	85.25
165.527	89.8813	165.527	89.8001	165.527	89.8276	165.527	89.5851	165.527	89.6404	165.527	89.2402	165.527	89.3237	165.527	88.7733	165.527	88.8851	165.527	88.1983	165.527	88.3375	165.527	87.539	165.527	87.7022	165.527	86.8333	165.527	87.0124	165.527	86.1382	165.527	86.3169	165.527	85.5274	165.527	85.6795	165.527	85.076	165.527	85.1684	165.527	84.8309	165.527	84.8357	165.527	84.7864	165.527	84.6956	165.527	84.8883	165.527	84.7202	165.527	85.0628	165.527	84.8547	165.527	85.2434	165.527	85.0396	165.527	85.3838	165.527	85.2239	165.527	85.4569	165.527	85.3696	165.527	85.4516
171.387	90.6505	171.387	90.5926	171.387	90.5775	171.387	90.4053	171.387	90.3723	171.387	90.0907	171.387	90.0347	171.387	89.6514	171.387	89.5656	171.387	89.0908	171.387	88.9682	171.387	88.4142	171.387	88.2509	171.387	87.6326	171.387	87.4319	171.387	86.769	171.387	86.548	171.387	85.8701	171.387	85.6654	171.387	85.0189	171.387	84.8847	171.387	84.3341	171.387	84.3211	171.387	83.9311	171.387	84.0501	171.387	83.8495	171.387	84.0559	171.387	84.0179	171.387	84.2423	171.387	84.3042	171.387	84.4929	171.387	84.5882	171.387	84.7164	171.387	84.7941	171.387	84.8573	171.387	84.8866
177.246	91.0948	177.246	91.0248	177.246	91.0389	177.246	90.8301	177.246	90.8574	177.246	90.5134	177.246	90.5516	177.246	90.0794	177.246	90.124	177.246	89.5355	177.246	89.5792	177.246	88.8939	177.246	88.925	177.246	88.1737	177.246	88.1761	177.246	87.4061	177.246	87.3606	177.246	86.6405	177.246	86.53	177.246	85.9495	177.246	85.769	177.246	85.4227	177.246	85.19	177.246	85.1384	177.246	84.8943	177.246	85.1193	177.246	84.9073	177.246	85.3102	177.246	85.1538	177.246	85.6048	177.246	85.5041	177.246	85.8937	177.246	85.8368	177.246	86.0947	177.246	86.0696	177.246	86.1592
183.105	91.1531	183.105	91.0871	183.105	91.1015	183.105	90.9045	183.105	90.9327	183.105	90.6078	183.105	90.6489	183.105	90.2014	183.105	90.2542	183.105	89.692	183.105	89.7549	183.105	89.0905	183.105	89.1606	183.105	88.4141	183.105	88.4854	183.105	87.69	183.105	87.7515	183.105	86.96	183.105	86.9935	183.105	86.2819	183.105	86.2643	183.105	85.7244	183.105	85.6357	183.105	85.3485	183.105	85.1861	183.105	85.181	183.105	84.9683	183.105	85.1968	183.105	84.9755	183.105	85.3274	183.105	85.1374	183.105	85.488	183.105	85.354	183.105	85.6038	183.105	85.5356	183.105	85.6253
188.965	91.5594	188.965	91.4908	188.965	91.4954	188.965	91.2898	188.965	91.3002	188.965	90.9588	188.965	90.977	188.965	90.5028	188.965	90.5313	188.965	89.9305	188.965	89.9718	188.965	89.2558	188.965	89.3128	188.965	88.5023	188.965	88.5785	188.965	87.7087	188.965	87.8092	188.965	86.9371	188.965	87.0676	188.965	86.275	188.965	86.4361	188.965	85.8191	188.965	85.9984	188.965	85.6328	188.965	85.8021	188.965	85.7036	188.965	85.8314	188.965	85.946	188.965	86.0165	188.965	86.2487	188.965	86.2689	188.965	86.518	188.965	86.5103	188.965	86.6945	188.965	86.6831	188.965	86.7503
196.289	92.567	196.289	92.5052	196.289	92.4985	196.289	92.3132	196.289	92.3009	196.289	91.992	196.289	91.9765	196.289	91.5444	196.289	91.5283	196.289	90.9757	196.289	90.9606	196.289	90.2944	196.289	90.2804	196.289	89.5162	196.289	89.5	196.289	88.6694	196.289	88.6448	196.289	87.8043	196.289	87.7652	196.289	87.003	196.289	86.9511	196.289	86.3781	196.289	86.3311	196.289	86.0393	196.289	86.0267	196.289	86.0275	196.289	86.0691	196.289	86.2777	196.289	86.3652	196.289	86.6561	196.289	86.7599	196.289	87.0285	196.289	87.1166	196.289	87.2985	196.289	87.3481	196.289	87.4118
203.613	92.009	203.613	91.9246	203.613	91.9567	203.613	91.7046	203.613	91.7693	203.613	91.3518	203.613	91.4504	203.613	90.8715	203.613	91.006	203.613	90.2718	203.613	90.4449	203.613	89.566	203.613	89.7788	203.613	88.7767	203.613	89.0251	203.613	87.944	203.613	88.2122	203.613	87.1359	203.613	87.3889	203.613	86.4549	203.613	86.6369	203.613	86.0196	203.613	86.073	203.613	85.9094	203.613	85.8139	203.613	86.106	203.613	85.9018	203.613	86.4986	203.613	86.2597	203.613	86.946	203.613	86.7355	203.613	87.331	203.613	87.1825	203.613	87.5755	203.613	87.5003	203.613	87.6366
210.938	93.2444	210.938	93.1918	210.938	93.1426	210.938	92.9851	210.938	92.8871	210.938	92.6257	210.938	92.4793	210.938	92.1162	210.938	91.9216	210.938	91.4603	210.938	91.2182	210.938	90.6633	210.938	90.3777	210.938	89.7349	210.938	89.4189	210.938	88.6954	210.938	88.3821	210.938	87.5907	210.938	87.3476	210.938	86.5185	210.938	86.453	210.938	85.6523	210.938	85.8742	210.938	85.2062	210.938	85.7326	210.938	85.2869	210.938	85.9916	210.938	85.7769	210.938	86.4791	210.938	86.4316	210.938	87.0047	210.938	87.0407	210.938	87.4306	210.938	87.4809	210.938	87.6755	210.938	87.6971
218.262	93.8819	218.262	93.8366	218.262	93.8085	218.262	93.673	218.262	93.6166	218.262	93.3923	218.262	93.3071	218.262	92.9959	218.262	92.8808	218.262	92.4846	218.262	92.3376	218.262	91.8588	218.262	91.676	218.262	91.1189	218.262	90.8929	218.262	90.2676	218.262	89.9854	218.262	89.3143	218.262	88.9546	218.262	88.2827	218.262	87.8165	218.262	87.2249	218.262	86.6239	218.262	86.237	218.262	85.5013	218.262	85.4596	218.262	84.6578	218.262	85.0219	218.262	84.2904	218.262	84.9377	218.262	84.3935	218.262	85.0709	218.262	84.7405	218.262	85.2255	218.262	85.0761	218.262	85.2492
225.586	93.3634	225.586	93.3111	225.586	93.2806	225.586	93.1256	225.586	93.0646	225.586	92.8125	225.586	92.7207	225.586	92.3813	225.586	92.258	225.586	91.8452	225.586	91.6893	225.586	91.2219	225.586	91.0323	225.586	90.5354	225.586	90.3132	225.586	89.8195	225.586	89.5726	225.586	89.1229	225.586	88.8722	225.586	88.5121	225.586	88.2934	225.586	88.063	225.586	87.9167	225.586	87.8344	225.586	87.7826	225.586	87.8342	225.586	87.8647	225.586	88.0084	225.586	88.084	225.586	88.2666	225.586	88.3487	225.586	88.5201	225.586	88.5833	225.586	88.7035	225.586	88.7366	225.586	88.7796
232.91	93.4697	232.91	93.3727	232.91	93.4108	232.91	93.1208	232.91	93.1959	232.91	92.7163	232.91	92.8261	232.91	92.1629	232.91	92.3039	232.91	91.4672	232.91	91.6331	232.91	90.6413	232.91	90.8207	232.91	89.7103	232.91	89.8808	232.91	88.7252	232.91	88.8447	232.91	87.7833	232.91	87.7841	232.91	87.0397	232.91	86.8463	232.91	86.6698	232.91	86.2597	232.91	86.7593	232.91	86.2189	232.91	87.2231	232.91	86.695	232.91	87.8689	232.91	87.4472	232.91	88.513	232.91	88.2203	232.91	89.0306	232.91	88.8527	232.91	89.3499	232.91	89.2669	232.91	89.4337
241.699	94.3483	241.699	94.2728	241.699	94.2732	241.699	94.0481	241.699	94.047	241.699	93.6762	241.699	93.6698	241.699	93.159	241.699	93.1412	241.699	92.4986	241.699	92.4597	241.699	91.6973	241.699	91.6214	241.699	90.7596	241.699	90.6212	241.699	89.6986	241.699	89.459	241.699	88.5492	241.699	88.1615	241.699	87.397	241.699	86.8333	241.699	86.4145	241.699	85.7358	241.699	85.8525	241.699	85.2601	241.699	85.8876	241.699	85.5815	241.699	86.4314	241.699	86.4115	241.699	87.1968	241.699	87.327	241.699	87.9141	241.699	88.0641	241.699	88.4182	241.699	88.5099	241.699	88.6276
250.488	92.9424	250.488	92.8117	250.488	92.9251	250.488	92.5399	250.488	92.7596	250.488	92.1392	250.488	92.4519	250.488	91.6254	250.488	92.0134	250.488	91.0155	250.488	91.4592	250.488	90.3258	250.488	90.8068	250.488	89.5716	250.488	90.0734	250.488	88.7698	250.488	89.2739	250.488	87.9476	250.488	88.4194	250.488	87.153	250.488	87.521	250.488	86.4616	250.488	86.6052	250.488	85.9633	250.488	85.7462	250.488	85.7193	250.488	85.0917	250.488	85.7166	250.488	84.8127	250.488	85.8641	250.488	84.9493	250.488	86.0358	250.488	85.3395	250.488	86.1169	250.488	85.7523	250.488	86.0299
259.277	93.9903	259.277	93.8962	259.277	93.8885	259.277	93.6059	259.277	93.5928	259.277	93.1203	259.277	93.1059	259.277	92.4414	259.277	92.4304	259.277	91.5726	259.277	91.5682	259.277	90.5192	259.277	90.5211	259.277	89.2949	259.277	89.2965	259.277	87.9375	259.277	87.9296	259.277	86.5527	259.277	86.538	259.277	85.3857	259.277	85.4031	259.277	84.8191	259.277	84.9267	259.277	85.0741	259.277	85.2618	259.277	85.9173	259.277	86.1042	259.277	86.9277	259.277	87.0544	259.277	87.8249	259.277	87.8841	259.277	88.4901	259.277	88.5046	259.277	88.8885	259.277	88.8868	259.277	89.0181
268.066	95.1436	268.066	95.0583	268.066	95.0882	268.066	94.8329	268.066	94.8917	268.066	94.4683	268.066	94.5529	268.066	93.9648	268.066	94.0682	268.066	93.3201	268.066	93.4307	268.066	92.5286	268.066	92.6307	268.066	91.5808	268.066	91.6575	268.066	90.467	268.066	90.5047	268.066	89.1866	268.066	89.1823	268.066	87.7727	268.066	87.7464	268.066	86.3492	268.066	86.355	268.066	85.2098	268.066	85.3146	268.066	84.7492	268.066	84.9487	268.066	85.0647	268.066	85.2607	268.066	85.7938	268.066	85.9135	268.066	86.5164	268.066	86.563	268.066	87.0022	268.066	87.0119	268.066	87.17
276.855	93.0798	276.855	92.9695	276.855	93.0198	276.855	92.6887	276.855	92.7948	276.855	92.2416	276.855	92.4148	276.855	91.6353	276.855	91.8924	276.855	90.8787	276.855	91.24	276.855	89.9815	276.855	90.465	276.855	88.9595	276.855	89.5683	276.855	87.8483	276.855	88.5489	276.855	86.7361	276.855	87.4261	276.855	85.806	276.855	86.2964	276.855	85.3278	276.855	85.4211	276.855	85.4935	276.855	85.1993	276.855	86.2151	276.855	85.7908	276.855	87.2002	276.855	86.8665	276.855	88.1729	276.855	87.9807	276.855	88.9573	276.855	88.8695	276.855	89.4571	276.855	89.4266	276.855	89.6215
287.109	93.4011	287.109	93.4094	287.109	93.2215	287.109	93.2389	287.109	92.8779	287.109	92.8824	287.109	92.3777	287.109	92.3335	287.109	91.7282	287.109	91.5872	287.109	90.937	287.109	90.6385	287.109	90.0086	287.109	89.4812	287.109	88.9393	287.109	88.1086	287.109	87.7122	287.109	86.5311	287.109	86.3069	287.109	84.8519	287.109	84.7613	287.109	83.46	287.109	83.3535	287.109	83.0947	287.109	82.7809	287.109	84.0008	287.109	83.5152	287.109	85.4634	287.109	84.9784	287.109	86.8188	287.109	86.4248	287.109	87.8099	287.109	87.5368	287.109	88.3771	287.109	88.2374	287.109	88.5178
297.363	94.3635	297.363	94.2795	297.363	94.3007	297.363	94.0519	297.363	94.0869	297.363	93.6806	297.363	93.7177	297.363	93.1595	297.363	93.1869	297.363	92.4735	297.363	92.4822	297.363	91.5969	297.363	91.5817	297.363	90.4898	297.363	90.4514	297.363	89.0935	297.363	89.0465	297.363	87.3238	297.363	87.315	297.363	85.0692	297.363	85.2112	297.363	82.2479	297.363	82.777	297.363	79.2889	297.363	80.5185	297.363	78.4786	297.363	79.936	297.363	80.5965	297.363	81.4593	297.363	83.0083	297.363	83.4543	297.363	84.7643	297.363	85.0052	297.363	85.812	297.363	85.9231	297.363	86.192
307.617	94.4571	307.617	94.3636	307.617	94.3908	307.617	94.1146	307.617	94.1674	307.617	93.7205	307.617	93.7949	307.617	93.1949	307.617	93.2834	307.617	92.5497	307.617	92.6403	307.617	91.7902	307.617	91.8652	307.617	90.9095	307.617	90.946	307.617	89.8849	307.617	89.8588	307.617	88.6771	307.617	88.5747	307.617	87.2415	307.617	87.0802	307.617	85.5727	307.617	85.4271	307.617	83.8349	307.617	83.8412	307.617	82.5772	307.617	82.8238	307.617	82.4768	307.617	82.8239	307.617	83.333	307.617	83.5964	307.617	84.3606	307.617	84.5119	307.617	85.0893	307.617	85.1567	307.617	85.364
319.336	94.3249	319.336	94.2365	319.336	94.2796	319.336	94.015	319.336	94.1024	319.336	93.6633	319.336	93.796	319.336	93.184	319.336	93.361	319.336	92.5749	319.336	92.7937	319.336	91.8236	319.336	92.0816	319.336	90.9014	319.336	91.1981	319.336	89.7588	319.336	90.0955	319.336	88.3227	319.336	88.6968	319.336	86.506	319.336	86.8982	319.336	84.2904	319.336	84.6315	319.336	82.1375	319.336	82.2419	319.336	81.6581	319.336	81.4076	319.336	83.351	319.336	83.0674	319.336	85.4429	319.336	85.2676	319.336	87.0251	319.336	86.931	319.336	87.9569	319.336	87.9157	319.336	88.2508
329.59	93.7357	329.59	93.6282	329.59	93.6926	329.59	93.3844	329.59	93.4987	329.59	93.0298	329.59	93.168	329.59	92.5917	329.59	92.7234	329.59	92.0875	329.59	92.1896	329.59	91.5157	329.59	91.5835	329.59	90.8551	329.59	90.9039	329.59	90.0712	329.59	90.1243	329.59	89.126	329.59	89.1918	329.59	87.9889	329.59	88.0402	329.59	86.6683	329.59	86.6349	329.59	85.3065	329.59	85.0986	329.59	84.3476	329.59	83.9529	329.59	84.3787	329.59	83.9582	329.59	85.3059	329.59	84.9995	329.59	86.4127	329.59	86.2237	329.59	87.184	329.59	87.0922	329.59	87.4248
341.309	94.7297	341.309	94.6226	341.309	94.6311	341.309	94.3159	341.309	94.3314	341.309	93.8258	341.309	93.8445	341.309	93.1771	341.309	93.1905	341.309	92.3981	341.309	92.3896	341.309	91.51	341.309	91.454	341.309	90.512	341.309	90.3797	341.309	89.3667	341.309	89.141	341.309	87.9967	341.309	87.6905	341.309	86.3016	341.309	85.9683	341.309	84.2319	341.309	83.9562	341.309	82.0994	341.309	81.9286	341.309	81.2294	341.309	81.0134	341.309	82.5391	341.309	82.1742	341.309	84.5648	341.309	84.2056	341.309	86.1854	341.309	85.9284	341.309	87.1451	341.309	87.015	341.309	87.4206
353.027	94.2909	353.027	94.2122	353.027	94.1938	353.027	93.9587	353.027	93.9263	353.027	93.537	353.027	93.4988	353.027	92.9573	353.027	92.9257	353.027	92.2282	353.027	92.2223	353.027	91.3527	353.027	91.4026	353.027	90.3235	353.027	90.4745	353.027	89.1253	353.027	89.432	353.027	87.7427	353.027	88.2469	353.027	86.1907	353.027	86.8744	353.027	84.6075	353.027	85.3187	353.027	83.453	353.027	83.8467	353.027	83.4412	353.027	83.2459	353.027	84.5859	353.027	84.0689	353.027	86.0843	353.027	85.6004	353.027	87.3273	353.027	86.9928	353.027	88.0816	353.027	87.9137	353.027	88.2811
366.211	94.8154	366.211	94.7436	366.211	94.7257	366.211	94.5151	366.211	94.4773	366.211	94.1407	366.211	94.0795	366.211	93.6325	366.211	93.5432	366.211	92.9984	366.211	92.8733	366.211	92.2364	366.211	92.0605	366.211	91.3293	366.211	91.0735	366.211	90.2345	366.211	89.8507	366.211	88.8665	366.211	88.2891	366.211	87.067	366.211	86.222	366.211	84.5582	366.211	83.3872	366.211	80.9147	366.211	79.5608	366.211	76.7121	366.211	76.8176	366.211	78.2164	366.211	79.5253	366.211	82.1684	366.211	82.8847	366.211	84.748	366.211	85.0825	366.211	86.1469	366.211	86.2788	366.211	86.6245
379.395	94.1261	379.395	94.0789	379.395	94.0203	379.395	93.8791	379.395	93.7733	379.395	93.5363	379.395	93.4054	379.395	93.0628	379.395	92.9392	379.395	92.4614	379.395	92.389	379.395	91.7146	379.395	91.7503	379.395	90.7785	379.395	90.9908	379.395	89.5825	379.395	90.0454	379.395	88.0297	379.395	88.8111	379.395	85.992	379.395	87.1374	379.395	83.3306	379.395	84.8113	379.395	80.2805	379.395	81.6728	379.395	79.2638	379.395	79.0617	379.395	81.8521	379.395	80.8508	379.395	84.7603	379.395	84.144	379.395	86.811	379.395	86.5024	379.395	87.9793	379.395	87.852	379.395	88.3238
392.578	94.4064	392.578	94.2704	392.578	94.3339	392.578	93.9313	392.578	94.0627	392.578	93.409	392.578	93.6187	392.578	92.739	392.578	93.0417	392.578	91.9733	392.578	92.3758	392.578	91.1722	392.578	91.6554	392.578	90.3794	392.578	90.8899	392.578	89.5863	392.578	90.0535	392.578	88.7094	392.578	89.0796	392.578	87.5977	392.578	87.8542	392.578	86.0486	392.578	86.1997	392.578	83.809	392.578	83.8503	392.578	80.6689	392.578	80.5248	392.578	77.7675	392.578	77.3898	392.578	79.1222	392.578	79.0259	392.578	82.1226	392.578	82.1895	392.578	84.0323	392.578	84.0906	392.578	84.6767
405.762	95.1675	405.762	95.0554	405.762	95.0523	405.762	94.7249	405.762	94.7275	405.762	94.2086	405.762	94.231	405.762	93.5527	405.762	93.61	405.762	92.7972	405.762	92.9031	405.762	91.9571	405.762	92.1242	405.762	91.0156	405.762	91.2535	405.762	89.931	405.762	90.2373	405.762	88.637	405.762	88.9881	405.762	87.0189	405.762	87.3823	405.762	84.8808	405.762	85.2783	405.762	82.0723	405.762	82.7414	405.762	79.838	405.762	81.1405	405.762	81.5797	405.762	82.596	405.762	84.7883	405.762	85.2098	405.762	87.1112	405.762	87.2443	405.762	88.4186	405.762	88.4471	405.762	88.8397
420.41	94.8493	420.41	94.7223	420.41	94.6931	420.41	94.3294	420.41	94.2588	420.41	93.7126	420.41	93.5719	420.41	92.9373	420.41	92.6803	420.41	92.0811	420.41	91.6604	420.41	91.2108	420.41	90.6185	420.41	90.3516	420.41	89.6676	420.41	89.4668	420.41	88.8624	420.41	88.4565	420.41	88.1261	420.41	87.1611	420.41	87.2358	420.41	85.3431	420.41	85.8567	420.41	82.6323	420.41	83.5238	420.41	78.687	420.41	79.5768	420.41	76.7957	420.41	75.7559	420.41	80.7796	420.41	79.8314	420.41	84.1663	420.41	83.7912	420.41	86.0108	420.41	85.8811	420.41	86.5617
435.059	94.5636	435.059	94.4049	435.059	94.4464	435.059	93.9987	435.059	94.0509	435.059	93.3921	435.059	93.4106	435.059	92.6462	435.059	92.6027	435.059	91.8287	435.059	91.7377	435.059	90.9963	435.059	90.9135	435.059	90.1667	435.059	90.1461	435.059	89.2969	435.059	89.3388	435.059	88.2808	435.059	88.3143	435.059	86.9573	435.059	86.857	435.059	85.1059	435.059	84.7309	435.059	82.4823	435.059	81.8278	435.059	79.5609	435.059	79.569	435.059	80.0323	435.059	81.3892	435.059	83.4805	435.059	84.5944	435.059	86.2689	435.059	86.9198	435.059	87.9203	435.059	88.2145	435.059	88.5457
451.172	95.04	451.172	94.8869	451.172	94.909	451.172	94.4571	451.172	94.5091	451.172	93.7815	451.172	93.8768	451.172	92.9183	451.172	93.0651	451.172	91.952	451.172	92.1283	451.172	90.9763	451.172	91.102	451.172	90.0501	451.172	89.9901	451.172	89.1432	451.172	88.772	451.172	88.1183	451.172	87.4166	451.172	86.753	451.172	85.8593	451.172	84.7349	451.172	83.9036	451.172	81.542	451.172	81.0367	451.172	76.33	451.172	76.278	451.172	74.8636	451.172	74.3454	451.172	80.6939	451.172	80.4355	451.172	84.3849	451.172	84.3497	451.172	86.3295	451.172	86.3519	451.172	86.9575
465.82	95.4553	465.82	95.3162	465.82	95.3019	465.82	94.8826	465.82	94.8788	465.82	94.1764	465.82	94.2241	465.82	93.2429	465.82	93.3871	465.82	92.1467	465.82	92.4287	465.82	90.9655	465.82	91.4228	465.82	89.7838	465.82	90.4498	465.82	88.6766	465.82	89.5648	465.82	87.6679	465.82	88.7395	465.82	86.6664	465.82	87.8099	465.82	85.4093	465.82	86.4642	465.82	83.4061	465.82	84.2069	465.82	79.6601	465.82	80.0199	465.82	70.7687	465.82	69.0962	465.82	73.616	465.82	73.1353	465.82	80.9175	465.82	80.8303	465.82	83.8856	465.82	83.8232	465.82	84.7191
483.398	95.6795	483.398	95.5408	483.398	95.4869	483.398	95.0761	483.398	94.9796	483.398	94.3143	483.398	94.1986	483.398	93.314	483.398	93.2158	483.398	92.165	483.398	92.1416	483.398	90.9725	483.398	91.1162	483.398	89.8185	483.398	90.2549	483.398	88.7253	483.398	89.5584	483.398	87.6449	483.398	88.8759	483.398	86.4484	483.398	87.9639	483.398	84.88	483.398	86.5402	483.398	82.4922	483.398	84.2231	483.398	78.7554	483.398	80.2881	483.398	76.436	483.398	74.4223	483.398	80.5334	483.398	77.9037	483.398	84.1081	483.398	82.9187	483.398	85.9805	483.398	85.5017	483.398	86.4304
499.512	94.354	499.512	94.221	499.512	94.1762	499.512	93.8078	499.512	93.6779	499.512	93.1654	499.512	92.8719	499.512	92.3619	499.512	91.804	499.512	91.4659	499.512	90.5712	499.512	90.5225	499.512	89.3398	499.512	89.5361	499.512	88.3091	499.512	88.4776	499.512	87.5671	499.512	87.3069	499.512	86.9739	499.512	85.9734	499.512	86.257	499.512	84.3636	499.512	85.1672	499.512	82.2147	499.512	83.5244	499.512	79.1157	499.512	81.2355	499.512	75.6668	499.512	78.7452	499.512	76.9895	499.512	78.39	499.512	80.5592	499.512	80.6322	499.512	82.7121	499.512	82.6153	499.512	83.3557
517.09	95.4637	517.09	95.2162	517.09	95.3151	517.09	94.603	517.09	94.7709	517.09	93.6849	517.09	93.8593	517.09	92.5459	517.09	92.6371	517.09	91.2872	517.09	91.2032	517.09	90.0288	517.09	89.7084	517.09	88.8876	517.09	88.3211	517.09	87.8886	517.09	87.1215	517.09	86.8818	517.09	86.0144	517.09	85.5826	517.09	84.7321	517.09	83.6136	517.09	82.8034	517.09	80.2377	517.09	79.2488	517.09	72.6852	517.09	71.4654	517.09	72.5658	517.09	75.9022	517.09	81.8278	517.09	82.924	517.09	86.0839	517.09	86.5419	517.09	88.2274	517.09	88.3932	517.09	88.9327
536.133	95.7343	536.133	95.4597	536.133	95.5966	536.133	94.7852	536.133	95.0479	536.133	93.7493	536.133	94.1014	536.133	92.4325	536.133	92.7929	536.133	90.9615	536.133	91.2021	536.133	89.4908	536.133	89.4836	536.133	88.184	536.133	87.8811	536.133	87.2012	536.133	86.6527	536.133	86.5896	536.133	85.8698	536.133	86.116	536.133	85.3008	536.133	85.3297	536.133	84.5243	536.133	83.7324	536.133	82.9852	536.133	80.7031	536.133	79.6867	536.133	75.5592	536.133	71.5791	536.133	76.1224	536.133	74.704	536.133	81.6679	536.133	81.9273	536.133	84.7217	536.133	84.957	536.133	85.7568
555.176	94.4156	555.176	94.2118	555.176	94.3345	555.176	93.7212	555.176	93.9776	555.176	92.946	555.176	93.3624	555.176	91.8969	555.176	92.5105	555.176	90.6097	555.176	91.4407	555.176	89.17	555.176	90.1705	555.176	87.7345	555.176	88.7385	555.176	86.5129	555.176	87.2472	555.176	85.6607	555.176	85.8728	555.176	85.1012	555.176	84.7296	555.176	84.4673	555.176	83.6523	555.176	83.2184	555.176	82.1679	555.176	80.6127	555.176	79.5234	555.176	74.8556	555.176	74.1143	555.176	61.6368	555.176	67.4698	555.176	76.2752	555.176	76.4387	555.176	80.5403	555.176	80.4717	555.176	81.657
574.219	94.6946	574.219	94.6807	574.219	94.2802	574.219	94.2179	574.219	93.4828	574.219	93.3122	574.219	92.3761	574.219	92.0002	574.219	91.0685	574.219	90.3565	574.219	89.7011	574.219	88.5029	574.219	88.4239	574.219	86.6033	574.219	87.3462	574.219	84.8158	574.219	86.4857	574.219	83.2297	574.219	85.7654	574.219	81.85	574.219	85.0345	574.219	80.4914	574.219	84.0545	574.219	78.4494	574.219	82.4265	574.219	74.1571	574.219	79.416	574.219	71.0776	574.219	73.9509	574.219	78.8294	574.219	75.4738	574.219	83.3776	574.219	81.5267	574.219	85.5532	574.219	84.7451	574.219	85.98
594.727	94.5209	594.727	94.27	594.727	94.3831	594.727	93.6723	594.727	93.8332	594.727	92.7825	594.727	92.8695	594.727	91.67	594.727	91.5147	594.727	90.4135	594.727	89.842	594.727	89.0818	594.727	88.0231	594.727	87.7246	594.727	86.3017	594.727	86.4034	594.727	84.8134	594.727	85.1974	594.727	83.5324	594.727	84.1061	594.727	82.5397	594.727	82.9368	594.727	81.8986	594.727	81.2584	594.727	80.9563	594.727	78.1508	594.727	78.2585	594.727	70.2229	594.727	70.1254	594.727	68.7317	594.727	72.6502	594.727	78.8959	594.727	80.3774	594.727	82.6585	594.727	83.3314	594.727	83.9572
615.234	93.4724	615.234	93.212	615.234	93.3584	615.234	92.5757	615.234	92.8759	615.234	91.5809	615.234	92.0321	615.234	90.2805	615.234	90.8578	615.234	88.7971	615.234	89.4275	615.234	87.3555	615.234	87.8371	615.234	86.2089	615.234	86.1657	615.234	85.4584	615.234	84.531	615.234	85.0068	615.234	83.1742	615.234	84.6598	615.234	82.1743	615.234	84.1404	615.234	81.0695	615.234	83.0666	615.234	79.1214	615.234	80.8825	615.234	75.2248	615.234	76.3233	615.234	64.9267	615.234	67.4435	615.234	72.5331	615.234	76.4827	615.234	79.5123	615.234	81.4008	615.234	82.4789	615.234	83.0756
637.207	92.8503	637.207	92.7656	637.207	92.4658	637.207	92.213	637.207	91.6696	637.207	91.2406	637.207	90.6024	637.207	89.9463	637.207	89.4588	637.207	88.4435	637.207	88.3653	637.207	86.7924	637.207	87.2983	637.207	85.023	637.207	86.1957	637.207	83.3302	637.207	85.1114	637.207	82.144	637.207	84.1556	637.207	81.6173	637.207	83.3551	637.207	81.3033	637.207	82.7009	637.207	80.511	637.207	82.0152	637.207	78.1459	637.207	80.5269	637.207	70.6819	637.207	76.6009	637.207	70.4029	637.207	70.8834	637.207	79.998	637.207	78.613	637.207	83.4678	637.207	82.9115	637.207	84.2992
659.18	92.5724	659.18	92.405	659.18	92.3496	659.18	91.869	659.18	91.7552	659.18	91.0282	659.18	90.8056	659.18	89.9516	659.18	89.4936	659.18	88.6981	659.18	87.8541	659.18	87.3507	659.18	86.0889	659.18	86.0013	659.18	84.569	659.18	84.6009	659.18	83.5269	659.18	82.9339	659.18	82.8279	659.18	81.0197	659.18	82.2775	659.18	79.6429	659.18	81.8004	659.18	79.2323	659.18	81.1091	659.18	78.2726	659.18	79.5172	659.18	74.3839	659.18	75.6638	659.18	55.2058	659.18	61.8201	659.18	74.9143	659.18	72.9468	659.18	80.0227	659.18	79.3099	659.18	81.1623
682.617	92.1903	682.617	91.9713	682.617	92.0592	682.617	91.4337	682.617	91.5566	682.617	90.6017	682.617	90.6859	682.617	89.506	682.617	89.4741	682.617	88.2039	682.617	87.9726	682.617	86.7477	682.617	86.258	682.617	85.1445	682.617	84.4083	682.617	83.4526	682.617	82.5181	682.617	81.9947	682.617	80.9212	682.617	81.1646	682.617	80.3304	682.617	80.7496	682.617	80.8217	682.617	80.2528	682.617	81.2353	682.617	79.2342	682.617	80.3684	682.617	76.5622	682.617	77.0259	682.617	69.1267	682.617	66.593	682.617	70.223	682.617	69.8855	682.617	76.9635	682.617	77.0453	682.617	78.6843
707.52	92.3758	707.52	92.0826	707.52	92.2848	707.52	91.4509	707.52	91.8009	707.52	90.5559	707.52	90.9562	707.52	89.4755	707.52	89.8263	707.52	88.2632	707.52	88.5019	707.52	86.9693	707.52	87.0085	707.52	85.7013	707.52	85.3061	707.52	84.553	707.52	83.4888	707.52	83.4188	707.52	81.8096	707.52	82.2276	707.52	80.4627	707.52	81.4004	707.52	79.771	707.52	81.0872	707.52	79.8905	707.52	80.3768	707.52	79.7288	707.52	78.0865	707.52	77.2627	707.52	71.5519	707.52	68.6772	707.52	67.5625	707.52	74.5002	707.52	77.817	707.52	79.8642	707.52	80.6704
732.422	92.2004	732.422	92.1184	732.422	91.9607	732.422	91.7203	732.422	91.413	732.422	90.987	732.422	90.6137	732.422	89.8604	732.422	89.6249	732.422	88.2808	732.422	88.5032	732.422	86.2842	732.422	87.344	732.422	84.0824	732.422	86.1936	732.422	81.9583	732.422	84.9615	732.422	80	732.422	83.5713	732.422	78.2655	732.422	81.9909	732.422	77.5655	732.422	80.1711	732.422	78.3484	732.422	78.6182	732.422	78.7483	732.422	77.9625	732.422	76.5691	732.422	76.4754	732.422	67.1553	732.422	69.9757	732.422	72.6127	732.422	70.2827	732.422	79.2538	732.422	78.6418	732.422	80.7878
757.324	93.2393	757.324	92.9737	757.324	93.2789	757.324	92.4884	757.324	93.0676	757.324	91.7976	757.324	92.5358	757.324	90.9461	757.324	91.5788	757.324	89.9717	757.324	90.1263	757.324	88.8123	757.324	88.2322	757.324	87.2968	757.324	86.149	757.324	85.298	757.324	84.2765	757.324	82.9713	757.324	82.7932	757.324	80.8917	757.324	81.5326	757.324	79.3518	757.324	80.549	757.324	77.7295	757.324	79.9785	757.324	75.7739	757.324	79.2588	757.324	73.1878	757.324	77.4659	757.324	67.6744	757.324	73.6016	757.324	73.3495	757.324	73.5621	757.324	79.1016	757.324	78.7857	757.324	80.6572
785.156	93.2974	785.156	93.0444	785.156	93.1949	785.156	92.5021	785.156	92.756	785.156	91.7767	785.156	92.0674	785.156	90.8912	785.156	91.2404	785.156	89.7514	785.156	90.3178	785.156	88.3271	785.156	89.2244	785.156	86.8286	785.156	87.8516	785.156	85.524	785.156	86.1059	785.156	84.2971	785.156	83.7897	785.156	82.6466	785.156	80.6778	785.156	80.5134	785.156	77.4344	785.156	79.4537	785.156	76.536	785.156	79.5193	785.156	77.532	785.156	78.3709	785.156	76.9807	785.156	74.5027	785.156	72.239	785.156	70.5693	785.156	67.675	785.156	75.7955	785.156	75.5018	785.156	77.6866
811.523	94.5502	811.523	94.3113	811.523	94.493	811.523	93.7782	811.523	94.0724	811.523	92.8997	811.523	93.2407	811.523	91.693	811.523	92.0371	811.523	90.2777	811.523	90.6362	811.523	88.7536	811.523	89.3233	811.523	87.1584	811.523	88.2754	811.523	85.5891	811.523	87.3912	811.523	84.0888	811.523	86.4519	811.523	82.3821	811.523	85.159	811.523	80.3704	811.523	83.0495	811.523	79.1682	811.523	79.9689	811.523	79.3443	811.523	77.1371	811.523	78.4554	811.523	75.2333	811.523	73.3349	811.523	70.64	811.523	61.9949	811.523	62.6856	811.523	75.1788	811.523	74.2157	811.523	77.1736
840.82	94.9397	840.82	94.7304	840.82	94.8052	840.82	94.2441	840.82	94.3283	840.82	93.5466	840.82	93.5268	840.82	92.5725	840.82	92.3783	840.82	91.1737	840.82	90.8411	840.82	89.4166	840.82	88.9363	840.82	87.7258	840.82	86.8334	840.82	86.2327	840.82	84.9379	840.82	84.538	840.82	83.7898	840.82	82.7343	840.82	83.2893	840.82	81.0967	840.82	82.821	840.82	78.9677	840.82	82.4678	840.82	77.2992	840.82	82.13	840.82	77.1055	840.82	80.6338	840.82	74.0641	840.82	76.1611	840.82	57.6368	840.82	63.5352	840.82	74.8263	840.82	75.6093	840.82	78.221
870.117	95.3978	870.117	95.1495	870.117	95.3591	870.117	94.6338	870.117	94.9786	870.117	93.8111	870.117	94.254	870.117	92.6478	870.117	93.2703	870.117	91.1933	870.117	92.1021	870.117	89.5478	870.117	90.7102	870.117	87.793	870.117	89.0021	870.117	86.1221	870.117	86.9763	870.117	84.7511	870.117	84.7368	870.117	83.1727	870.117	82.2487	870.117	80.6746	870.117	79.1598	870.117	78.7033	870.117	76.1306	870.117	78.9319	870.117	76.8763	870.117	78.4027	870.117	77.2524	870.117	74.6344	870.117	71.4658	870.117	44.2277	870.117	68.7717	870.117	76.0119	870.117	78.0571	870.117	79.5962
900.879	95.5729	900.879	95.4288	900.879	95.3881	900.879	94.9439	900.879	94.9175	900.879	94.1744	900.879	94.1654	900.879	93.2102	900.879	93.0533	900.879	92.0275	900.879	91.5512	900.879	90.4696	900.879	89.8042	900.879	88.57	900.879	88.0591	900.879	86.8729	900.879	86.6509	900.879	85.8063	900.879	85.7484	900.879	84.6108	900.879	84.7559	900.879	82.0394	900.879	83.0381	900.879	78.076	900.879	80.9838	900.879	77.5614	900.879	79.9618	900.879	78.7312	900.879	79.9118	900.879	76.6194	900.879	77.7989	900.879	65.9878	900.879	67.759	900.879	72.5566	900.879	74.0011	900.879	77.1074
933.105	95.2116	933.105	94.9531	933.105	95.1033	933.105	94.4095	933.105	94.6813	933.105	93.7144	933.105	94.079	933.105	92.865	933.105	93.3446	933.105	91.6804	933.105	92.2879	933.105	90.0158	933.105	90.5691	933.105	87.8853	933.105	87.9715	933.105	85.3081	933.105	84.6765	933.105	82.6064	933.105	81.6245	933.105	80.9007	933.105	80.0897	933.105	80.3041	933.105	79.7993	933.105	79.7016	933.105	79.5543	933.105	78.6417	933.105	79.5681	933.105	77.7116	933.105	79.1447	933.105	73.8413	933.105	74.4809	933.105	66.1916	933.105	70.4014	933.105	79.9433	933.105	80.306	933.105	82.5849
965.332	95.2911	965.332	95.2257	965.332	95.1823	965.332	94.8658	965.332	94.839	965.332	94.0748	965.332	94.1281	965.332	92.894	965.332	93.0656	965.332	91.5069	965.332	91.8204	965.332	90.0293	965.332	90.5154	965.332	88.4757	965.332	89.1378	965.332	87.0902	965.332	87.5849	965.332	85.9817	965.332	85.7629	965.332	84.3918	965.332	83.5487	965.332	81.3385	965.332	80.1062	965.332	76.6974	965.332	74.0425	965.332	75.8673	965.332	73.3537	965.332	76.8271	965.332	76.9164	965.332	73.5988	965.332	74.9556	965.332	54.0376	965.332	59.0106	965.332	76.4911	965.332	76.9383	965.332	79.6969
1000.49	95.5063	1000.49	95.2734	1000.49	95.3411	1000.49	94.8053	1000.49	94.7945	1000.49	94.1804	1000.49	94.0243	1000.49	93.2291	1000.49	93.0523	1000.49	91.7276	1000.49	91.6549	1000.49	89.6172	1000.49	89.5982	1000.49	87.0926	1000.49	87.0118	1000.49	84.8477	1000.49	84.8389	1000.49	83.9401	1000.49	84.081	1000.49	83.9013	1000.49	83.8082	1000.49	82.9925	1000.49	83.0373	1000.49	80.0937	1000.49	81.3151	1000.49	77.4664	1000.49	79.242	1000.49	79.5956	1000.49	79.639	1000.49	78.5665	1000.49	78.2427	1000.49	67.1191	1000.49	63.8053	1000.49	75.6794	1000.49	76.1859	1000.49	79.6652
1035.64	95.5518	1035.64	95.4281	1035.64	95.4361	1035.64	95.0162	1035.64	95.0499	1035.64	94.3347	1035.64	94.343	1035.64	93.4628	1035.64	93.3783	1035.64	92.3332	1035.64	92.2759	1035.64	90.7218	1035.64	90.9319	1035.64	88.4316	1035.64	88.9414	1035.64	85.722	1035.64	86.2533	1035.64	83.9003	1035.64	83.7273	1035.64	82.8318	1035.64	81.5834	1035.64	80.6624	1035.64	78.3941	1035.64	76.3381	1035.64	70.5913	1035.64	72.7275	1035.64	72.2775	1035.64	76.3109	1035.64	77.9032	1035.64	75.8426	1035.64	77.3652	1035.64	63.1659	1035.64	71.0429	1035.64	75.0985	1035.64	76.8086	1035.64	79.546
1072.27	96.3864	1072.27	96.3418	1072.27	96.0818	1072.27	95.9687	1072.27	95.4598	1072.27	95.2859	1072.27	94.5769	1072.27	94.327	1072.27	93.4703	1072.27	93.1137	1072.27	91.993	1072.27	91.3844	1072.27	90.0174	1072.27	88.8402	1072.27	87.9125	1072.27	86.2017	1072.27	85.835	1072.27	84.8671	1072.27	84.2778	1072.27	84.9219	1072.27	84.5732	1072.27	84.5566	1072.27	84.7101	1072.27	80.8979	1072.27	83.1001	1072.27	75.0907	1072.27	78.8206	1072.27	79.3737	1072.27	75.8542	1072.27	79.8347	1072.27	77.656	1072.27	73.3852	1072.27	72.0158	1072.27	68.2108	1072.27	68.4577	1072.27	74.8383
1108.89	96.4644	1108.89	96.2645	1108.89	96.3575	1108.89	95.8155	1108.89	95.8947	1108.89	95.142	1108.89	95.1151	1108.89	94.2534	1108.89	94.0178	1108.89	93.0123	1108.89	92.6459	1108.89	91.2709	1108.89	91.1746	1108.89	89.0136	1108.89	89.4138	1108.89	85.9745	1108.89	86.6952	1108.89	81.9875	1108.89	83.228	1108.89	79.1725	1108.89	80.6438	1108.89	79.8827	1108.89	79.7183	1108.89	79.5829	1108.89	77.4835	1108.89	74.9365	1108.89	74.2042	1108.89	76.9374	1108.89	79.8644	1108.89	79.4409	1108.89	80.8638	1108.89	72.9787	1108.89	73.1787	1108.89	73.6551	1108.89	74.809	1108.89	79.9024
1148.44	95.848	1148.44	95.7411	1148.44	95.7623	1148.44	95.3445	1148.44	95.4416	1148.44	94.5072	1148.44	94.7073	1148.44	93.1681	1148.44	93.4853	1148.44	91.6369	1148.44	92.0399	1148.44	90.4696	1148.44	90.5848	1148.44	89.4238	1148.44	88.8742	1148.44	87.6357	1148.44	86.7178	1148.44	85.3283	1148.44	84.1342	1148.44	83.982	1148.44	82.7557	1148.44	83.3469	1148.44	83.4139	1148.44	81.4905	1148.44	82.3259	1148.44	75.7174	1148.44	77.6495	1148.44	73.773	1148.44	74.7006	1148.44	79.4857	1148.44	77.228	1148.44	76.0965	1148.44	72.7042	1148.44	66.8405	1148.44	69.532	1148.44	75.4594
1189.45	95.1893	1189.45	95.1957	1189.45	95.2021	1189.45	94.977	1189.45	95.012	1189.45	94.1732	1189.45	94.3228	1189.45	92.81	1189.45	93.091	1189.45	91.2211	1189.45	91.4507	1189.45	89.436	1189.45	89.5213	1189.45	87.0755	1189.45	87.3059	1189.45	84.1626	1189.45	84.6763	1189.45	80.6274	1189.45	81.7681	1189.45	76.5232	1189.45	80.124	1189.45	79.1842	1189.45	80.4619	1189.45	80.2755	1189.45	80.1738	1189.45	75.7226	1189.45	75.089	1189.45	74.0128	1189.45	73.0672	1189.45	77.9429	1189.45	78.8437	1189.45	73.5943	1189.45	75.164	1189.45	70.8952	1189.45	71.7563	1189.45	76.5731
1230.47	95.0931	1230.47	94.9658	1230.47	95.0179	1230.47	94.645	1230.47	94.6266	1230.47	93.9128	1230.47	93.7067	1230.47	92.4092	1230.47	92.1572	1230.47	90.0369	1230.47	90.0829	1230.47	87.5133	1230.47	87.8977	1230.47	85.984	1230.47	85.9927	1230.47	84.7317	1230.47	83.9427	1230.47	82.645	1230.47	81.0969	1230.47	80.2528	1230.47	77.3661	1230.47	78.4275	1230.47	76.6715	1230.47	77.9913	1230.47	77.4863	1230.47	76.0689	1230.47	74.3548	1230.47	67.8855	1230.47	71.822	1230.47	73.0143	1230.47	77.0958	1230.47	73.5648	1230.47	77.1068	1230.47	66.4637	1230.47	69.4415	1230.47	67.1651
1274.41	94.475	1274.41	94.3795	1274.41	94.3697	1274.41	93.9532	1274.41	93.9636	1274.41	93.0304	1274.41	93.0672	1274.41	91.5063	1274.41	91.4168	1274.41	89.1278	1274.41	88.9234	1274.41	85.9648	1274.41	86.1619	1274.41	82.6932	1274.41	83.7275	1274.41	79.923	1274.41	81.3406	1274.41	76.9453	1274.41	79.3409	1274.41	72.1035	1274.41	77.7852	1274.41	73.3807	1274.41	76.5688	1274.41	77.0129	1274.41	77.3172	1274.41	75.2914	1274.41	76.4977	1274.41	66.8288	1274.41	69.9994	1274.41	70.2454	1274.41	69.4481	1274.41	70.0997	1274.41	70.2457	1274.41	60.3843	1274.41	60.6574	1274.41	66.9826
1319.82	94.5587	1319.82	94.3057	1319.82	94.4042	1319.82	93.4732	1319.82	93.8294	1319.82	91.9241	1319.82	92.5037	1319.82	89.5387	1319.82	90.4224	1319.82	86.5295	1319.82	87.9139	1319.82	83.2416	1319.82	85.0117	1319.82	79.8964	1319.82	81.8691	1319.82	77.2726	1319.82	78.9859	1319.82	75.9664	1319.82	76.6448	1319.82	75.5334	1319.82	73.5127	1319.82	73.8209	1319.82	72.2094	1319.82	69.8182	1319.82	72.2465	1319.82	68.2169	1319.82	70.6741	1319.82	65.9289	1319.82	66.2057	1319.82	69.3398	1319.82	69.3363	1319.82	67.8375	1319.82	66.6529	1319.82	61.5303	1319.82	51.2954	1319.82	58.9594
1366.7	94.7086	1366.7	94.3357	1366.7	94.4897	1366.7	93.2927	1366.7	93.5927	1366.7	91.49	1366.7	92.0903	1366.7	89.0481	1366.7	90.0798	1366.7	86.1607	1366.7	87.4473	1366.7	83.2166	1366.7	84.3513	1366.7	80.8517	1366.7	81.3901	1366.7	78.8359	1366.7	78.9712	1366.7	76.5999	1366.7	76.2577	1366.7	72.1074	1366.7	74.0437	1366.7	64.2192	1366.7	72.6887	1366.7	71.6763	1366.7	72.9643	1366.7	72.5592	1366.7	73.4399	1366.7	71.8994	1366.7	71.1533	1366.7	71.6292	1366.7	69.9958	1366.7	71.6065	1366.7	70.8416	1366.7	66.5666	1366.7	65.6843	1366.7	61.6368
1413.57	94.4749	1413.57	94.0369	1413.57	94.1527	1413.57	92.9715	1413.57	93.3403	1413.57	91.2907	1413.57	91.9535	1413.57	88.9051	1413.57	89.6909	1413.57	86.2586	1413.57	87.0242	1413.57	83.5823	1413.57	84.4372	1413.57	80.4895	1413.57	81.8836	1413.57	77.6748	1413.57	79.6581	1413.57	75.3489	1413.57	77.5591	1413.57	74.1758	1413.57	74.8328	1413.57	74.6777	1413.57	72.1308	1413.57	74.5238	1413.57	72.2918	1413.57	74.9284	1413.57	73.0043	1413.57	73.1201	1413.57	71.7468	1413.57	71.5781	1413.57	71.9604	1413.57	73.278	1413.57	73.1179	1413.57	70.1285	1413.57	68.9066	1413.57	64.7486
1463.38	93.4544	1463.38	93.1923	1463.38	93.4509	1463.38	92.5744	1463.38	92.9544	1463.38	91.4347	1463.38	91.8225	1463.38	89.6942	1463.38	90.0143	1463.38	87.3663	1463.38	87.6128	1463.38	84.7492	1463.38	84.8842	1463.38	82.6115	1463.38	82.0749	1463.38	80.8185	1463.38	79.6221	1463.38	78.5565	1463.38	77.295	1463.38	76.8143	1463.38	75.4113	1463.38	73.5228	1463.38	74.5022	1463.38	72.3935	1463.38	74.8046	1463.38	73.1969	1463.38	74.3097	1463.38	71.7334	1463.38	71.8063	1463.38	72.6896	1463.38	73.3515	1463.38	73.8767	1463.38	73.407	1463.38	68.8045	1463.38	68.0967	1463.38	64.5588
1516.11	92.6036	1516.11	92.4877	1516.11	92.6618	1516.11	92.1992	1516.11	92.3627	1516.11	91.304	1516.11	91.4712	1516.11	89.703	1516.11	89.9546	1516.11	87.4718	1516.11	87.6869	1516.11	84.6627	1516.11	84.7851	1516.11	81.5641	1516.11	82.2066	1516.11	78.8977	1516.11	80.415	1516.11	77.271	1516.11	78.4831	1516.11	75.2493	1516.11	75.4673	1516.11	73.9414	1516.11	72.2118	1516.11	73.5498	1516.11	72.9964	1516.11	73.374	1516.11	73.2235	1516.11	71.1519	1516.11	71.4477	1516.11	73.1112	1516.11	73.4596	1516.11	73.6081	1516.11	73.8958	1516.11	67.3933	1516.11	67.5004	1516.11	64.4753
1568.85	92.3528	1568.85	92.284	1568.85	92.4084	1568.85	92.0112	1568.85	92.2238	1568.85	91.0238	1568.85	91.4487	1568.85	89.2866	1568.85	89.7077	1568.85	86.817	1568.85	87.1489	1568.85	83.7047	1568.85	84.3768	1568.85	80.7908	1568.85	81.4417	1568.85	78.5845	1568.85	77.711	1568.85	75.9995	1568.85	74.2243	1568.85	74.2133	1568.85	72.9799	1568.85	72.7806	1568.85	73.742	1568.85	70.3729	1568.85	71.986	1568.85	70.9361	1568.85	73.1632	1568.85	72.0422	1568.85	73.4024	1568.85	73.303	1568.85	74.0802	1568.85	74.4052	1568.85	74.4993	1568.85	70.3853	1568.85	69.6888	1568.85	68.1119
1624.51	92.8347	1624.51	92.8217	1624.51	92.9402	1624.51	92.4704	1624.51	92.6437	1624.51	91.3776	1624.51	91.4961	1624.51	89.4109	1624.51	89.5561	1624.51	86.9003	1624.51	86.7266	1624.51	83.9016	1624.51	83.2898	1624.51	81.2576	1624.51	80.5715	1624.51	79.6011	1624.51	78.5134	1624.51	77.2709	1624.51	77.0307	1624.51	74.7792	1624.51	74.954	1624.51	71.9502	1624.51	72.5986	1624.51	71.157	1624.51	71.3337	1624.51	72.046	1624.51	72.1331	1624.51	73.7206	1624.51	74.0447	1624.51	73.5358	1624.51	73.1896	1624.51	74.2666	1624.51	74.6843	1624.51	70.9481	1624.51	68.2859	1624.51	65.9912
1681.64	94.0916	1681.64	94.0357	1681.64	93.7926	1681.64	93.4344	1681.64	93.0489	1681.64	92.0712	1681.64	91.6317	1681.64	89.919	1681.64	89.4061	1681.64	87.6665	1681.64	86.6588	1681.64	85.3273	1681.64	83.7368	1681.64	82.541	1681.64	80.9686	1681.64	80.2685	1681.64	79.5897	1681.64	78.7343	1681.64	78.3595	1681.64	74.9832	1681.64	74.5177	1681.64	72.7491	1681.64	70.5988	1681.64	71.0392	1681.64	69.0079	1681.64	71.6916	1681.64	72.0109	1681.64	70.8595	1681.64	73.0266	1681.64	71.9126	1681.64	72.7394	1681.64	73.7399	1681.64	75.0254	1681.64	68.391	1681.64	68.2783	1681.64	65.4633
1741.7	94.2071	1741.7	94.0645	1741.7	94.0374	1741.7	93.5635	1741.7	93.3787	1741.7	92.2939	1741.7	91.9372	1741.7	90.1632	1741.7	89.5752	1741.7	87.83	1741.7	86.7457	1741.7	85.319	1741.7	84.1906	1741.7	83.0912	1741.7	81.2593	1741.7	80.2131	1741.7	78.2196	1741.7	78.0285	1741.7	76.4242	1741.7	76.7716	1741.7	73.6743	1741.7	76.6991	1741.7	74.85	1741.7	75.3599	1741.7	73.0469	1741.7	73.1795	1741.7	72.046	1741.7	74.0385	1741.7	71.6458	1741.7	72.1635	1741.7	70.4587	1741.7	75.4368	1741.7	74.2959	1741.7	70.3391	1741.7	68.9626	1741.7	67.5263
1803.22	93.9357	1803.22	93.9342	1803.22	93.8999	1803.22	93.5266	1803.22	93.3107	1803.22	92.1116	1803.22	91.4295	1803.22	90.0095	1803.22	89.1502	1803.22	88.064	1803.22	86.8438	1803.22	86.0318	1803.22	84.7937	1803.22	83.7342	1803.22	83.0939	1803.22	81.752	1803.22	79.682	1803.22	80.2634	1803.22	78.0762	1803.22	78.5333	1803.22	76.7231	1803.22	75.2348	1803.22	72.1647	1803.22	75.2284	1803.22	70.2902	1803.22	73.1908	1803.22	70.3126	1803.22	73.8662	1803.22	73.8396	1803.22	66.7056	1803.22	71.4086	1803.22	70.8248	1803.22	73.097	1803.22	69.2211	1803.22	67.9906	1803.22	70.3873
1866.21	94.2717	1866.21	94.1752	1866.21	94.0402	1866.21	93.6742	1866.21	93.2543	1866.21	92.303	1866.21	91.6053	1866.21	90.1028	1866.21	89.2965	1866.21	87.6985	1866.21	87.6405	1866.21	86.1683	1866.21	85.5807	1866.21	83.8943	1866.21	83.3916	1866.21	80.8836	1866.21	81.0863	1866.21	78.9548	1866.21	78.7638	1866.21	77.5555	1866.21	77.623	1866.21	74.3272	1866.21	73.4772	1866.21	74.3036	1866.21	73.5599	1866.21	73.1124	1866.21	72.5143	1866.21	74.0386	1866.21	72.786	1866.21	71.4896	1866.21	72.7177	1866.21	72.3215	1866.21	71.2813	1866.21	64.2058	1866.21	60.7458	1866.21	65.6105
1932.13	94.2454	1932.13	94.0748	1932.13	93.8768	1932.13	93.3692	1932.13	92.8592	1932.13	92.0523	1932.13	91.4041	1932.13	90.486	1932.13	89.6116	1932.13	88.4309	1932.13	87.2355	1932.13	86.3489	1932.13	85.1739	1932.13	83.6855	1932.13	82.6187	1932.13	81.2737	1932.13	80.0756	1932.13	79.2463	1932.13	77.2595	1932.13	77.8964	1932.13	74.8411	1932.13	73.4948	1932.13	74.4268	1932.13	70.7569	1932.13	72.8643	1932.13	72.4007	1932.13	72.9405	1932.13	69.0485	1932.13	72.9482	1932.13	71.81	1932.13	74.5952	1932.13	72.298	1932.13	73.3902	1932.13	65.9789	1932.13	66.4731	1932.13	64.9664
1999.51	93.9663	1999.51	93.6978	1999.51	93.6475	1999.51	93.2952	1999.51	92.7824	1999.51	92.1266	1999.51	91.3353	1999.51	90.4548	1999.51	89.4654	1999.51	88.5502	1999.51	87.7377	1999.51	86.1907	1999.51	86.1059	1999.51	83.2605	1999.51	83.6018	1999.51	81.1046	1999.51	81.2266	1999.51	78.1648	1999.51	78.956	1999.51	75.1221	1999.51	76.1049	1999.51	73.4529	1999.51	75.9472	1999.51	69.09	1999.51	71.5285	1999.51	70.7519	1999.51	71.921	1999.51	70.4139	1999.51	69.448	1999.51	69.5096	1999.51	64.5652	1999.51	73.7063	1999.51	71.0974	1999.51	65.4898	1999.51	67.5096	1999.51	62.8591
2069.82	93.0851	2069.82	93.104	2069.82	93.0278	2069.82	92.2252	2069.82	92.4105	2069.82	91.2602	2069.82	91.3367	2069.82	90.2514	2069.82	90.6386	2069.82	87.924	2069.82	89.1105	2069.82	85.4127	2069.82	85.8487	2069.82	82.7373	2069.82	83.0007	2069.82	80.9266	2069.82	80.8656	2069.82	80.2474	2069.82	77.8916	2069.82	79.6157	2069.82	76.8257	2069.82	78.3571	2069.82	76.8733	2069.82	73.6127	2069.82	74.5098	2069.82	75.3823	2069.82	73.7996	2069.82	72.7946	2069.82	70.3677	2069.82	64.6075	2069.82	62.8058	2069.82	73.2927	2069.82	74.9283	2069.82	72.9985	2069.82	73.0788	2069.82	67.228
2143.07	93.6026	2143.07	93.181	2143.07	93.4894	2143.07	92.8187	2143.07	92.6255	2143.07	91.9479	2143.07	91.3975	2143.07	90.1202	2143.07	89.5816	2143.07	87.1551	2143.07	87.5663	2143.07	83.9878	2143.07	84.8264	2143.07	80.5835	2143.07	82.7377	2143.07	79.0644	2143.07	79.4533	2143.07	76.6639	2143.07	77.5864	2143.07	74.1557	2143.07	75.8219	2143.07	74.1169	2143.07	74.1959	2143.07	71.5206	2143.07	74.6941	2143.07	71.185	2143.07	73.6593	2143.07	74.1	2143.07	73.8672	2143.07	72.9878	2143.07	75.6496	2143.07	69.9101	2143.07	69.1236	2143.07	60.8663	2143.07	58.3681	2143.07	66.5735
2219.24	93.265	2219.24	92.8437	2219.24	92.9271	2219.24	92.0887	2219.24	91.9595	2219.24	90.9175	2219.24	90.8821	2219.24	89.6399	2219.24	89.1679	2219.24	87.5615	2219.24	87.1813	2219.24	85.1914	2219.24	83.9743	2219.24	81.7952	2219.24	81.3477	2219.24	80.0145	2219.24	76.9634	2219.24	77.3761	2219.24	75.7918	2219.24	74.9546	2219.24	72.4886	2219.24	69.1836	2219.24	73.2527	2219.24	72.2429	2219.24	71.8085	2219.24	67.6811	2219.24	70.2578	2219.24	70.6148	2219.24	68.8771	2219.24	69.6126	2219.24	71.3207	2219.24	70.6095	2219.24	72.0165	2219.24	70.7488	2219.24	66.2969	2219.24	58.3095
2296.88	92.1885	2296.88	91.7784	2296.88	91.7955	2296.88	91.084	2296.88	90.9869	2296.88	89.9626	2296.88	89.903	2296.88	88.6589	2296.88	88.6909	2296.88	86.5077	2296.88	86.368	2296.88	83.978	2296.88	83.8001	2296.88	81.1211	2296.88	80.9903	2296.88	78.4566	2296.88	78.1377	2296.88	76.2763	2296.88	74.7718	2296.88	73.6659	2296.88	73.8316	2296.88	71.599	2296.88	71.0492	2296.88	71.7202	2296.88	68.5122	2296.88	71.9662	2296.88	69.6426	2296.88	71.5564	2296.88	68.7887	2296.88	71.9986	2296.88	71.4516	2296.88	69.3838	2296.88	68.6918	2296.88	66.0782	2296.88	66.9394	2296.88	59.8834
2378.91	92.5235	2378.91	92.0302	2378.91	91.9865	2378.91	90.8874	2378.91	90.7985	2378.91	89.9536	2378.91	89.9266	2378.91	88.8454	2378.91	88.5607	2378.91	86.7326	2378.91	86.7446	2378.91	84.0014	2378.91	83.7357	2378.91	81.303	2378.91	81.0759	2378.91	78.2759	2378.91	78.6576	2378.91	75.6617	2378.91	76.4155	2378.91	73.5958	2378.91	73.5641	2378.91	71.0698	2378.91	70.8764	2378.91	68.4224	2378.91	70.3451	2378.91	70.6879	2378.91	69.0679	2378.91	67.797	2378.91	68.5179	2378.91	71.9468	2378.91	70.3344	2378.91	67.6021	2378.91	67.2552	2378.91	67.2686	2378.91	66.3665	2378.91	62.221
2462.4	92.4509	2462.4	91.9188	2462.4	91.9276	2462.4	90.9972	2462.4	90.752	2462.4	90.0629	2462.4	89.7516	2462.4	88.9439	2462.4	88.6468	2462.4	86.9859	2462.4	86.3645	2462.4	84.1433	2462.4	83.6982	2462.4	81.4912	2462.4	80.8583	2462.4	78.9437	2462.4	78.3467	2462.4	75.7233	2462.4	75.6164	2462.4	73.8019	2462.4	73.6279	2462.4	70.516	2462.4	70.8194	2462.4	69.368	2462.4	68.6645	2462.4	65.1179	2462.4	68.8003	2462.4	69.2071	2462.4	67.9961	2462.4	70.4575	2462.4	71.3679	2462.4	68.0731	2462.4	69.0133	2462.4	66.7514	2462.4	65.8478	2462.4	58.8755
2548.83	91.6085	2548.83	91.1076	2548.83	90.8874	2548.83	89.8061	2548.83	89.8352	2548.83	89.0483	2548.83	88.8787	2548.83	87.8783	2548.83	87.5755	2548.83	85.662	2548.83	85.6558	2548.83	83.1415	2548.83	82.9535	2548.83	80.6853	2548.83	80.6776	2548.83	78.1842	2548.83	78.5194	2548.83	75.7508	2548.83	75.1821	2548.83	74.318	2548.83	73.292	2548.83	71.3826	2548.83	68.4595	2548.83	70.2765	2548.83	70.1908	2548.83	68.7952	2548.83	66.3148	2548.83	68.9751	2548.83	68.5091	2548.83	70.9888	2548.83	70.6862	2548.83	65.7083	2548.83	64.3829	2548.83	65.8391	2548.83	65.2203	2548.83	61.0243
2639.65	91.4802	2639.65	90.779	2639.65	90.7543	2639.65	89.6694	2639.65	89.6128	2639.65	88.8797	2639.65	88.8613	2639.65	87.4591	2639.65	87.4129	2639.65	85.3964	2639.65	85.1356	2639.65	82.9937	2639.65	82.9375	2639.65	79.9304	2639.65	80.0088	2639.65	77.2004	2639.65	77.5797	2639.65	73.8659	2639.65	74.2964	2639.65	72.1522	2639.65	72.6696	2639.65	68.9397	2639.65	70.6651	2639.65	67.7981	2639.65	68.4023	2639.65	63.0314	2639.65	64.1553	2639.65	67.0694	2639.65	67.4743	2639.65	68.3692	2639.65	67.4161	2639.65	65.8995	2639.65	67.1674	2639.65	65.2406	2639.65	64.5864	2639.65	65.2962
2731.93	91.3331	2731.93	90.6827	2731.93	90.5475	2731.93	89.7447	2731.93	89.4939	2731.93	88.8174	2731.93	88.5704	2731.93	87.2042	2731.93	86.8869	2731.93	84.7938	2731.93	84.8726	2731.93	82.7912	2731.93	82.6753	2731.93	79.8376	2731.93	79.5291	2731.93	76.8514	2731.93	76.5313	2731.93	74.637	2731.93	73.4788	2731.93	70.8547	2731.93	71.6093	2731.93	69.0905	2731.93	68.758	2731.93	66.1839	2731.93	65.2975	2731.93	67.2988	2731.93	67.1183	2731.93	67.8618	2731.93	68.4231	2731.93	65.8595	2731.93	68.8496	2731.93	64.3817	2731.93	63.1809	2731.93	61.7426	2731.93	58.5358	2731.93	55.4456
2828.61	90.0543	2828.61	89.5643	2828.61	89.4249	2828.61	88.4152	2828.61	88.4472	2828.61	87.61	2828.61	87.4398	2828.61	85.5983	2828.61	85.5291	2828.61	83.2221	2828.61	83.1286	2828.61	80.8354	2828.61	80.8134	2828.61	78.3712	2828.61	78.1121	2828.61	75.231	2828.61	74.8345	2828.61	71.7049	2828.61	71.9843	2828.61	69.4809	2828.61	68.2856	2828.61	68.1835	2828.61	68.3698	2828.61	63.549	2828.61	63.2702	2828.61	64.1161	2828.61	62.3171	2828.61	65.6181	2828.61	65.9903	2828.61	63.8124	2828.61	61.9556	2828.61	62.5526	2828.61	65.4981	2828.61	62.326	2828.61	64.2891	2828.61	64.8265
2928.22	89.5041	2928.22	89.0634	2928.22	88.989	2928.22	88.0343	2928.22	88.0061	2928.22	86.5595	2928.22	86.5947	2928.22	84.6356	2928.22	84.4372	2928.22	82.1411	2928.22	82.4424	2928.22	79.7147	2928.22	79.9597	2928.22	76.7175	2928.22	76.8379	2928.22	73.6952	2928.22	73.4455	2928.22	71.2457	2928.22	71.0885	2928.22	68.1043	2928.22	67.665	2928.22	67.2626	2928.22	66.0384	2928.22	61.9684	2928.22	59.3556	2928.22	65.8078	2928.22	65.2943	2928.22	65.0489	2928.22	64.9167	2928.22	64.5758	2928.22	66.7387	2928.22	65.959	2928.22	62.1931	2928.22	58.3926	2928.22	41.9573	2928.22	55.9199
3030.76	90.509	3030.76	90.1042	3030.76	89.9284	3030.76	88.8423	3030.76	88.849	3030.76	87.1636	3030.76	87.0052	3030.76	85.2827	3030.76	85.2029	3030.76	83.4023	3030.76	82.9334	3030.76	80.6296	3030.76	80.2266	3030.76	77.821	3030.76	77.098	3030.76	74.0699	3030.76	74.038	3030.76	71.2172	3030.76	71.516	3030.76	68.5867	3030.76	68.2173	3030.76	65.1424	3030.76	66.9336	3030.76	63.2316	3030.76	63.9358	3030.76	62.8013	3030.76	61.4332	3030.76	62.841	3030.76	64.2799	3030.76	60.5143	3030.76	60.5779	3030.76	60.9605	3030.76	65.5081	3030.76	58.4775	3030.76	62.7229	3030.76	65.7593
3137.7	90.2572	3137.7	89.8847	3137.7	89.9508	3137.7	88.7665	3137.7	88.6462	3137.7	86.7122	3137.7	86.7447	3137.7	85.254	3137.7	85.033	3137.7	83.6309	3137.7	83.4519	3137.7	81.1636	3137.7	80.5692	3137.7	77.933	3137.7	77.8792	3137.7	75.0517	3137.7	74.7496	3137.7	72.5483	3137.7	71.8702	3137.7	70.3014	3137.7	68.7374	3137.7	69.2341	3137.7	66.5227	3137.7	67.0741	3137.7	62.3809	3137.7	63.1599	3137.7	65.7021	3137.7	63.8568	3137.7	62.8719	3137.7	66.6319	3137.7	65.9831	3137.7	67.4033	3137.7	64.4663	3137.7	55.9758	3137.7	48.8027	3137.7	59.2779
3249.02	90.6015	3249.02	90.4096	3249.02	90.2301	3249.02	89.1058	3249.02	89.0531	3249.02	87.4442	3249.02	87.1742	3249.02	86.2784	3249.02	86.1009	3249.02	84.5875	3249.02	84.3751	3249.02	81.6892	3249.02	81.4033	3249.02	78.5655	3249.02	78.8217	3249.02	75.8308	3249.02	75.4599	3249.02	71.7795	3249.02	73.316	3249.02	69.4867	3249.02	70.109	3249.02	66.6181	3249.02	67.0599	3249.02	66.6748	3249.02	67.8363	3249.02	65.0062	3249.02	60.1092	3249.02	64.5171	3249.02	65.1163	3249.02	63.7321	3249.02	65.7128	3249.02	64.7452	3249.02	66.6499	3249.02	60.3048	3249.02	61.0059	3249.02	66.6308
3363.28	91.0553	3363.28	90.9436	3363.28	90.7738	3363.28	89.7037	3363.28	89.6698	3363.28	88.1095	3363.28	88.0598	3363.28	87.0796	3363.28	86.8977	3363.28	85.481	3363.28	85.1518	3363.28	82.8868	3363.28	82.0937	3363.28	79.9696	3363.28	79.2773	3363.28	77.1629	3363.28	76.4117	3363.28	74.8728	3363.28	72.9498	3363.28	72.2154	3363.28	70.1989	3363.28	69.4402	3363.28	68.4361	3363.28	66.3649	3363.28	64.2332	3363.28	59.4029	3363.28	64.8911	3363.28	63.2386	3363.28	64.2667	3363.28	68.7434	3363.28	65.9376	3363.28	67.6548	3363.28	65.8521	3363.28	55.2308	3363.28	56.1387	3363.28	62.4682
3481.93	91.2335	3481.93	91.2927	3481.93	91.0938	3481.93	90.3133	3481.93	90.1768	3481.93	88.9876	3481.93	88.7138	3481.93	87.7012	3481.93	87.7892	3481.93	85.5234	3481.93	85.5031	3481.93	82.577	3481.93	82.712	3481.93	79.1298	3481.93	80.5741	3481.93	75.6515	3481.93	77.2529	3481.93	71.8956	3481.93	74.03	3481.93	69.972	3481.93	71.6448	3481.93	67.209	3481.93	67.8232	3481.93	66.146	3481.93	66.8821	3481.93	65.2506	3481.93	63.1134	3481.93	68.1255	3481.93	65.9906	3481.93	66.1132	3481.93	69.1429	3481.93	66.3156	3481.93	67.9808	3481.93	56.6849	3481.93	56.0448	3481.93	66.7174
3604.98	91.9577	3604.98	91.9698	3604.98	92.0245	3604.98	91.1012	3604.98	90.9606	3604.98	89.6222	3604.98	89.3123	3604.98	88.2288	3604.98	87.7941	3604.98	86.0186	3604.98	85.3107	3604.98	83.7426	3604.98	83.1069	3604.98	80.5195	3604.98	79.4945	3604.98	78.4895	3604.98	75.9769	3604.98	74.8417	3604.98	73.9133	3604.98	72.503	3604.98	70.5543	3604.98	66.2613	3604.98	67.8945	3604.98	66.6433	3604.98	67.7498	3604.98	62.6895	3604.98	63.085	3604.98	64.338	3604.98	67.1965	3604.98	69.6704	3604.98	68.0883	3604.98	67.5811	3604.98	64.636	3604.98	58.3374	3604.98	56.7681	3604.98	63.1286
3732.42	92.5686	3732.42	92.7849	3732.42	92.8207	3732.42	91.769	3732.42	91.6603	3732.42	90.0857	3732.42	90.0895	3732.42	88.2162	3732.42	88.3299	3732.42	85.6458	3732.42	86.1129	3732.42	83.3383	3732.42	83.6248	3732.42	80.3639	3732.42	80.856	3732.42	75.8812	3732.42	77.298	3732.42	73.4218	3732.42	73.0054	3732.42	69.9438	3732.42	70.4214	3732.42	68.6558	3732.42	65.6382	3732.42	67.2978	3732.42	65.5902	3732.42	64.3011	3732.42	64.6676	3732.42	67.9925	3732.42	66.5169	3732.42	68.6079	3732.42	69.8087	3732.42	64.8943	3732.42	67.8318	3732.42	58.8752	3732.42	54.8146	3732.42	64.6896
3864.26	93.1013	3864.26	93.1221	3864.26	93.0839	3864.26	92.0219	3864.26	91.8265	3864.26	90.4278	3864.26	90.0237	3864.26	88.4584	3864.26	88.1363	3864.26	86.3347	3864.26	85.6559	3864.26	84.5272	3864.26	83.0823	3864.26	80.511	3864.26	79.7014	3864.26	76.8218	3864.26	76.1312	3864.26	73.2524	3864.26	71.6325	3864.26	71.6269	3864.26	70.1167	3864.26	66.9913	3864.26	67.8218	3864.26	64.0737	3864.26	66.6781	3864.26	64.256	3864.26	59.6175	3864.26	66.6447	3864.26	66.3045	3864.26	67.9198	3864.26	67.4718	3864.26	66.7008	3864.26	60.8123	3864.26	58.712	3864.26	54.3625	3864.26	65.7411
4000.49	93.4414	4000.49	93.401	4000.49	93.346	4000.49	92.3523	4000.49	92.1563	4000.49	90.6876	4000.49	90.6251	4000.49	88.4131	4000.49	88.2987	4000.49	86.5132	4000.49	86.3914	4000.49	83.5602	4000.49	83.8496	4000.49	79.6109	4000.49	79.6773	4000.49	75.4199	4000.49	76.3208	4000.49	73.3577	4000.49	74.4412	4000.49	69.6193	4000.49	70.4258	4000.49	67.194	4000.49	68.3743	4000.49	66.7986	4000.49	66.4042	4000.49	59.2318	4000.49	64.3246	4000.49	65.1015	4000.49	67.6998	4000.49	68.0494	4000.49	69.4086	4000.49	62.4186	4000.49	65.7668	4000.49	57.0088	4000.49	57.4141	4000.49	65.9589
4141.11	93.2869	4141.11	93.0518	4141.11	93.0427	4141.11	91.9673	4141.11	92.0214	4141.11	90.4362	4141.11	90.3503	4141.11	88.5262	4141.11	88.2138	4141.11	86.5212	4141.11	86.289	4141.11	83.5426	4141.11	82.9876	4141.11	80.4928	4141.11	79.6936	4141.11	77.9362	4141.11	75.8314	4141.11	74.8029	4141.11	73.6709	4141.11	71.4751	4141.11	70.5257	4141.11	68.5353	4141.11	65.7964	4141.11	64.5091	4141.11	64.8964	4141.11	55.9509	4141.11	55.7119	4141.11	65.257	4141.11	62.2915	4141.11	67.7885	4141.11	64.0064	4141.11	64.0542	4141.11	62.0701	4141.11	54.0522	4141.11	56.0074	4141.11	65.5004
4287.6	93.6577	4287.6	93.2523	4287.6	93.0081	4287.6	92.5698	4287.6	92.4743	4287.6	91.0522	4287.6	90.7409	4287.6	88.9416	4287.6	88.945	4287.6	86.812	4287.6	86.6837	4287.6	83.4572	4287.6	83.1423	4287.6	80.3714	4287.6	80.6254	4287.6	76.3057	4287.6	76.6258	4287.6	73.0798	4287.6	73.2529	4287.6	70.0704	4287.6	70.925	4287.6	65.5641	4287.6	68.6251	4287.6	65.799	4287.6	63.5766	4287.6	62.5327	4287.6	56.9786	4287.6	62.2077	4287.6	65.2639	4287.6	67.1038	4287.6	67.7973	4287.6	62.5571	4287.6	60.4108	4287.6	60.656	4287.6	60.8832	4287.6	66.3404
4438.48	93.2623	4438.48	92.6772	4438.48	92.7509	4438.48	92.286	4438.48	92.1602	4438.48	90.7863	4438.48	90.4273	4438.48	88.6931	4438.48	88.5258	4438.48	86.297	4438.48	86.2069	4438.48	83.3122	4438.48	82.6977	4438.48	80.1395	4438.48	79.634	4438.48	76.7136	4438.48	76.4625	4438.48	73.5374	4438.48	73.2858	4438.48	70.1669	4438.48	69.4676	4438.48	68.219	4438.48	67.7357	4438.48	64.0514	4438.48	65.6394	4438.48	58.2193	4438.48	62.4638	4438.48	62.0681	4438.48	63.7678	4438.48	65.6707	4438.48	66.3951	4438.48	59.2275	4438.48	62.7197	4438.48	50.3329	4438.48	57.5329	4438.48	61.2961
4595.21	93.3517	4595.21	92.9437	4595.21	92.7449	4595.21	92.4733	4595.21	92.3179	4595.21	90.8884	4595.21	90.7971	4595.21	88.9887	4595.21	88.735	4595.21	86.4447	4595.21	86.0214	4595.21	83.2827	4595.21	83.1508	4595.21	80.2653	4595.21	79.404	4595.21	74.795	4595.21	75.3147	4595.21	73.0166	4595.21	71.7617	4595.21	69.725	4595.21	69.417	4595.21	66.4119	4595.21	66.6464	4595.21	65.4238	4595.21	65.8541	4595.21	62.2753	4595.21	61.2599	4595.21	63.2573	4595.21	62.2103	4595.21	67.2166	4595.21	63.6996	4595.21	63.0135	4595.21	55.1623	4595.21	57.2629	4595.21	57.6558	4595.21	61.8291
4756.35	93.3251	4756.35	92.6935	4756.35	92.6114	4756.35	92.4336	4756.35	92.4239	4756.35	91.0174	4756.35	90.9197	4756.35	88.9519	4756.35	88.5119	4756.35	85.9986	4756.35	85.764	4756.35	82.7385	4756.35	83.0611	4756.35	79.8871	4756.35	79.3942	4756.35	76.0032	4756.35	75.8371	4756.35	72.7496	4756.35	71.9343	4756.35	70.312	4756.35	70.1811	4756.35	66.1744	4756.35	65.6412	4756.35	64.8259	4756.35	62.4616	4756.35	60.6048	4756.35	57.7729	4756.35	63.5828	4756.35	63.1037	4756.35	66.0129	4756.35	66.0991	4756.35	63.3676	4756.35	60.2426	4756.35	51.0334	4756.35	58.4839	4756.35	59.8981
4924.8	92.9071	4924.8	92.375	4924.8	92.3396	4924.8	92.3293	4924.8	92.2792	4924.8	90.6986	4924.8	90.7752	4924.8	88.4844	4924.8	88.0075	4924.8	85.61	4924.8	85.422	4924.8	82.5634	4924.8	82.5127	4924.8	79.2967	4924.8	79.1261	4924.8	75.7745	4924.8	74.9581	4924.8	72.1759	4924.8	72.2823	4924.8	69.2076	4924.8	68.5821	4924.8	66.2304	4924.8	66.5425	4924.8	62.6098	4924.8	61.9517	4924.8	60.4874	4924.8	61.285	4924.8	61.697	4924.8	62.6192	4924.8	65.9928	4924.8	65.8912	4924.8	61.6021	4924.8	62.3592	4924.8	45.9993	4924.8	55.3933	4924.8	58.5144
5097.66	93.1722	5097.66	92.7406	5097.66	92.6839	5097.66	92.5809	5097.66	92.4055	5097.66	91.1658	5097.66	90.9518	5097.66	88.6783	5097.66	88.2381	5097.66	86.115	5097.66	85.9589	5097.66	82.855	5097.66	82.7878	5097.66	79.4869	5097.66	79.7308	5097.66	76.3481	5097.66	75.9222	5097.66	72.6839	5097.66	73.0643	5097.66	69.2604	5097.66	70.0799	5097.66	67.0089	5097.66	67.1032	5097.66	61.4319	5097.66	60.4796	5097.66	60.0762	5097.66	60.6253	5097.66	60.9374	5097.66	60.4257	5097.66	65.8285	5097.66	64.5826	5097.66	62.8756	5097.66	60.688	5097.66	51.585	5097.66	52.7867	5097.66	54.7528
5277.83	92.6531	5277.83	92.3854	5277.83	92.3626	5277.83	92.0442	5277.83	91.969	5277.83	90.754	5277.83	90.7715	5277.83	88.2732	5277.83	88.0364	5277.83	85.3325	5277.83	85.3965	5277.83	82.3093	5277.83	82.3703	5277.83	79.054	5277.83	79.1432	5277.83	75.0781	5277.83	75.1263	5277.83	71.8064	5277.83	71.1598	5277.83	68.0536	5277.83	69.006	5277.83	65.669	5277.83	64.8151	5277.83	61.9731	5277.83	61.7126	5277.83	60.1861	5277.83	62.3007	5277.83	59.9782	5277.83	59.9633	5277.83	63.9172	5277.83	62.8111	5277.83	63.1592	5277.83	59.8436	5277.83	50.4984	5277.83	56.6683	5277.83	48.0343
5463.87	92.6943	5463.87	92.7892	5463.87	92.7471	5463.87	92.2618	5463.87	92.1905	5463.87	91.1372	5463.87	91.0273	5463.87	88.4302	5463.87	88.0952	5463.87	85.6033	5463.87	85.1697	5463.87	82.2267	5463.87	82.0989	5463.87	78.9613	5463.87	77.9992	5463.87	74.482	5463.87	73.842	5463.87	70.8568	5463.87	70.3017	5463.87	68.4931	5463.87	66.6409	5463.87	65.158	5463.87	64.2322	5463.87	62.1884	5463.87	62.2448	5463.87	60.5218	5463.87	60.7366	5463.87	58.6024	5463.87	58.4761	5463.87	63.3573	5463.87	62.6835	5463.87	60.2537	5463.87	57.8559	5463.87	35.5985	5463.87	58.8926	5463.87	44.967
5657.23	92.3718	5657.23	92.6724	5657.23	92.591	5657.23	92.097	5657.23	92.0784	5657.23	90.9808	5657.23	90.891	5657.23	88.3345	5657.23	87.8466	5657.23	85.3651	5657.23	84.8816	5657.23	81.5569	5657.23	81.5568	5657.23	77.8384	5657.23	77.4173	5657.23	74.178	5657.23	72.9628	5657.23	70.2852	5657.23	70.439	5657.23	68.2061	5657.23	67.2834	5657.23	65.1317	5657.23	64.3017	5657.23	62.1585	5657.23	60.8897	5657.23	58.0322	5657.23	57.912	5657.23	54.5502	5657.23	56.0882	5657.23	63.0452	5657.23	62.7267	5657.23	57.9315	5657.23	57.6348	5657.23	41.5415	5657.23	56.0662	5657.23	42.8525
5856.45	92.4129	5856.45	92.8052	5856.45	92.7507	5856.45	92.3242	5856.45	92.3632	5856.45	91.0931	5856.45	91.0395	5856.45	88.5281	5856.45	88.1726	5856.45	85.3298	5856.45	85.0069	5856.45	81.5868	5856.45	81.8126	5856.45	78.0557	5856.45	77.695	5856.45	74.784	5856.45	74.1478	5856.45	71.3959	5856.45	70.6753	5856.45	68.4791	5856.45	68.3132	5856.45	64.6468	5856.45	64.6437	5856.45	63.0954	5856.45	62.6417	5856.45	59.1421	5856.45	58.7257	5856.45	54.1686	5856.45	55.006	5856.45	62.0407	5856.45	62.148	5856.45	58.0935	5856.45	56.8808	5856.45	50.1616	5856.45	49.9322	5856.45	43.4088
6062.99	92.7706	6062.99	93.3024	6062.99	93.2562	6062.99	92.9133	6062.99	92.9962	6062.99	91.5083	6062.99	91.5293	6062.99	89.1108	6062.99	88.8391	6062.99	85.8767	6062.99	85.5906	6062.99	82.0746	6062.99	82.102	6062.99	79.1284	6062.99	78.7909	6062.99	75.7345	6062.99	75.4072	6062.99	71.8688	6062.99	71.2349	6062.99	68.6255	6062.99	67.6566	6062.99	64.8488	6062.99	66.1722	6062.99	63.0717	6062.99	63.6572	6062.99	60.0235	6062.99	61.7411	6062.99	54.3075	6062.99	57.0264	6062.99	62.5489	6062.99	63.0427	6062.99	59.4574	6062.99	57.0691	6062.99	55.3506	6062.99	49.772	6062.99	41.5099
6276.86	93.2234	6276.86	93.6503	6276.86	93.6121	6276.86	93.3298	6276.86	93.3782	6276.86	91.9462	6276.86	91.8459	6276.86	89.5104	6276.86	89.2687	6276.86	86.369	6276.86	85.8602	6276.86	82.5879	6276.86	82.572	6276.86	79.3895	6276.86	79.2156	6276.86	76.0623	6276.86	75.3238	6276.86	72.0037	6276.86	71.5458	6276.86	68.5726	6276.86	68.5745	6276.86	65.5294	6276.86	66.637	6276.86	63.0321	6276.86	63.1872	6276.86	62.407	6276.86	60.6432	6276.86	56.288	6276.86	55.8761	6276.86	62.471	6276.86	62.6678	6276.86	58.8679	6276.86	55.9175	6276.86	53.3679	6276.86	51.6294	6276.86	41.7617
6498.05	93.031	6498.05	93.371	6498.05	93.3184	6498.05	93.1638	6498.05	93.132	6498.05	91.7753	6498.05	91.6747	6498.05	89.2883	6498.05	88.8768	6498.05	85.9391	6498.05	85.385	6498.05	82.3773	6498.05	82.3949	6498.05	79.0853	6498.05	78.891	6498.05	75.4933	6498.05	75.0224	6498.05	70.5658	6498.05	70.3257	6498.05	66.8261	6498.05	67.1995	6498.05	64.6943	6498.05	64.156	6498.05	61.5184	6498.05	62.332	6498.05	60.4583	6498.05	60.4043	6498.05	55.7086	6498.05	51.9146	6498.05	60.7314	6498.05	60.2925	6498.05	57.4086	6498.05	55.5373	6498.05	56.1964	6498.05	49.528	6498.05	46.616
6726.56	93.7343	6726.56	93.9411	6726.56	93.915	6726.56	93.7337	6726.56	93.648	6726.56	92.4281	6726.56	92.2892	6726.56	89.7938	6726.56	89.458	6726.56	86.5736	6726.56	85.6702	6726.56	83.053	6726.56	82.9005	6726.56	79.2471	6726.56	78.8552	6726.56	75.6121	6726.56	74.6857	6726.56	71.1245	6726.56	70.6837	6726.56	67.8558	6726.56	67.9502	6726.56	65.8138	6726.56	65.5274	6726.56	62.4029	6726.56	62.9955	6726.56	62.4745	6726.56	61.3689	6726.56	57.1522	6726.56	53.6807	6726.56	60.3941	6726.56	61.142	6726.56	57.9134	6726.56	56.1681	6726.56	56.3885	6726.56	51.5234	6726.56	39.9527
6963.87	94.1939	6963.87	94.1926	6963.87	94.1661	6963.87	93.9433	6963.87	93.7646	6963.87	92.6865	6963.87	92.4864	6963.87	90.033	6963.87	89.5945	6963.87	86.7344	6963.87	85.9545	6963.87	83.3611	6963.87	83.2944	6963.87	79.3316	6963.87	78.8659	6963.87	75.7279	6963.87	74.577	6963.87	71.5325	6963.87	71.2859	6963.87	68.6088	6963.87	68.2272	6963.87	65.8105	6963.87	64.7575	6963.87	63.6469	6963.87	63.1695	6963.87	62.5721	6963.87	60.3667	6963.87	58.5842	6963.87	53.1549	6963.87	60.9051	6963.87	60.9965	6963.87	57.4572	6963.87	56.666	6963.87	53.965	6963.87	53.8478	6963.87	48.5779
7209.96	94.4731	7209.96	94.3636	7209.96	94.3909	7209.96	94.2685	7209.96	94.089	7209.96	92.805	7209.96	92.5327	7209.96	90.33	7209.96	89.8736	7209.96	87.1781	7209.96	86.3654	7209.96	83.461	7209.96	83.3012	7209.96	79.791	7209.96	79.345	7209.96	76.3964	7209.96	75.2137	7209.96	72.3538	7209.96	71.2548	7209.96	69.7134	7209.96	68.6893	7209.96	66.2285	7209.96	65.6492	7209.96	63.8251	7209.96	63.0335	7209.96	61.8584	7209.96	59.1061	7209.96	59.493	7209.96	53.9605	7209.96	60.2239	7209.96	59.6661	7209.96	57.8085	7209.96	53.3879	7209.96	55.5301	7209.96	53.6397	7209.96	52.286
7464.84	94.5921	7464.84	94.5952	7464.84	94.5134	7464.84	94.4595	7464.84	94.1782	7464.84	92.8416	7464.84	92.5066	7464.84	90.5242	7464.84	90.0773	7464.84	87.5999	7464.84	86.677	7464.84	83.735	7464.84	83.4788	7464.84	80.1988	7464.84	79.4107	7464.84	76.1458	7464.84	75.2646	7464.84	72.6037	7464.84	71.771	7464.84	68.6683	7464.84	68.9559	7464.84	64.9989	7464.84	64.7246	7464.84	64.1803	7464.84	62.5699	7464.84	62.2878	7464.84	55.9114	7464.84	60.0313	7464.84	52.5681	7464.84	58.4747	7464.84	57.7076	7464.84	58.9033	7464.84	55.76	7464.84	56.2408	7464.84	48.6068	7464.84	52.0868
7727.05	94.4207	7727.05	94.5089	7727.05	94.5058	7727.05	94.4697	7727.05	94.1864	7727.05	92.8471	7727.05	92.4005	7727.05	90.647	7727.05	90.1623	7727.05	87.4946	7727.05	86.5296	7727.05	83.9475	7727.05	83.5341	7727.05	80.1616	7727.05	79.2714	7727.05	76.1866	7727.05	75.7983	7727.05	71.9879	7727.05	71.7566	7727.05	69.0668	7727.05	67.7456	7727.05	66.7243	7727.05	65.669	7727.05	64.88	7727.05	62.523	7727.05	60.6406	7727.05	52.6656	7727.05	59.8253	7727.05	51.8324	7727.05	58.5132	7727.05	56.3906	7727.05	58.4252	7727.05	53.9154	7727.05	54.5988	7727.05	37.6117	7727.05	52.9091
7999.51	94.1284	7999.51	94.4598	7999.51	94.2475	7999.51	94.4318	7999.51	94.0001	7999.51	92.7001	7999.51	92.2053	7999.51	90.7255	7999.51	90.2846	7999.51	87.2303	7999.51	86.0995	7999.51	83.8036	7999.51	83.2386	7999.51	79.7279	7999.51	79.4053	7999.51	76.1763	7999.51	75.2529	7999.51	71.582	7999.51	70.4579	7999.51	69.3547	7999.51	67.7116	7999.51	66.6219	7999.51	64.3298	7999.51	64.2674	7999.51	62.9677	7999.51	60.9192	7999.51	53.4187	7999.51	57.6164	7999.51	47.6156	7999.51	56.2654	7999.51	54.8413	7999.51	55.2193	7999.51	55.6093	7999.51	57.2277	7999.51	39.0325	7999.51	52.0745
8282.23	94.1816	8282.23	94.6093	8282.23	94.3802	8282.23	94.623	8282.23	94.0448	8282.23	93.1027	8282.23	92.388	8282.23	91.1607	8282.23	90.6707	8282.23	87.5011	8282.23	86.5042	8282.23	83.8394	8282.23	83.2402	8282.23	79.333	8282.23	79.0229	8282.23	75.6339	8282.23	73.9809	8282.23	71.3444	8282.23	69.2785	8282.23	68.0589	8282.23	67.9565	8282.23	65.4043	8282.23	63.5612	8282.23	65.4211	8282.23	63.1276	8282.23	60.3221	8282.23	52.4005	8282.23	55.3501	8282.23	42.425	8282.23	56.1878	8282.23	51.752	8282.23	55.3879	8282.23	55.5044	8282.23	56.0149	8282.23	41.1058	8282.23	53.7684
8573.73	94.6489	8573.73	95.193	8573.73	94.9005	8573.73	95.0733	8573.73	94.6509	8573.73	93.6905	8573.73	93.1036	8573.73	91.7532	8573.73	91.325	8573.73	88.1709	8573.73	87.009	8573.73	84.2452	8573.73	83.6575	8573.73	78.6907	8573.73	78.3476	8573.73	75.8417	8573.73	74.4832	8573.73	72.0198	8573.73	70.5961	8573.73	69.7037	8573.73	68.5829	8573.73	65.8776	8573.73	63.9042	8573.73	64.4374	8573.73	63.0871	8573.73	62.6866	8573.73	56.7718	8573.73	51.1321	8573.73	48.3189	8573.73	55.0186	8573.73	47.4491	8573.73	56.8873	8573.73	52.2095	8573.73	55.9111	8573.73	44.9072	8573.73	53.7315
8876.95	95.1779	8876.95	95.5466	8876.95	95.4334	8876.95	95.3586	8876.95	95.0407	8876.95	94.0835	8876.95	93.7143	8876.95	91.8356	8876.95	91.5999	8876.95	88.3853	8876.95	87.3809	8876.95	84.2539	8876.95	83.6538	8876.95	79.3958	8876.95	79.4051	8876.95	76.4118	8876.95	75.5831	8876.95	72.0299	8876.95	71.0779	8876.95	68.0342	8876.95	67.8469	8876.95	64.8541	8876.95	63.5304	8876.95	65.2009	8876.95	63.8783	8876.95	61.4315	8876.95	53.4108	8876.95	47.1185	8876.95	41.4853	8876.95	55.874	8876.95	45.7621	8876.95	57.388	8876.95	55.3569	8876.95	55.8821	8876.95	46.2197	8876.95	52.0794
9188.96	95.5082	9188.96	95.5733	9188.96	95.6356	9188.96	95.2059	9188.96	95.3743	9188.96	93.9903	9188.96	94.2533	9188.96	91.6257	9188.96	92.121	9188.96	88.0603	9188.96	87.8847	9188.96	83.3549	9188.96	83.0885	9188.96	79.7478	9188.96	79.6042	9188.96	74.9308	9188.96	74.7131	9188.96	70.5131	9188.96	71.7929	9188.96	68.2323	9188.96	66.8487	9188.96	65.5235	9188.96	65.8488	9188.96	62.4164	9188.96	63.5282	9188.96	61.2855	9188.96	59.9687	9188.96	45.5798	9188.96	51.2282	9188.96	50.9304	9188.96	44.7257	9188.96	51.5755	9188.96	42.304	9188.96	52.9548	9188.96	49.6303	9188.96	45.3605
9514.16	95.5422	9514.16	95.5245	9514.16	95.8224	9514.16	95.1234	9514.16	95.5971	9514.16	93.9046	9514.16	94.6948	9514.16	91.2986	9514.16	92.3994	9514.16	87.5468	9514.16	88.3277	9514.16	82.8573	9514.16	83.9185	9514.16	79.0305	9514.16	79.8315	9514.16	75.0425	9514.16	76.2601	9514.16	71.3636	9514.16	72.8392	9514.16	67.5105	9514.16	67.2074	9514.16	65.073	9514.16	65.1164	9514.16	62.4326	9514.16	64.2355	9514.16	58.3231	9514.16	59.7693	9514.16	44.2758	9514.16	52.33	9514.16	53.9836	9514.16	43.4453	9514.16	57.6995	9514.16	53.6828	9514.16	53.1739	9514.16	49.5084	9514.16	46.286
9849.61	95.446	9849.61	95.0883	9849.61	95.9667	9849.61	94.399	9849.61	95.9498	9849.61	93.0662	9849.61	94.9884	9849.61	90.117	9849.61	92.6237	9849.61	86.3459	9849.61	88.3268	9849.61	81.7521	9849.61	83.7182	9849.61	77.1165	9849.61	79.9809	9849.61	73.7005	9849.61	75.2483	9849.61	69.4119	9849.61	71.7395	9849.61	65.3944	9849.61	66.4069	9849.61	62.2479	9849.61	63.958	9849.61	60.2274	9849.61	62.1311	9849.61	56.0088	9849.61	61.3224	9849.61	49.2132	9849.61	48.6184	9849.61	51.7588	9849.61	40.2922	9849.61	55.6042	9849.61	53.9645	9849.61	51.352	9849.61	54.4099	9849.61	46.7131
10196.8	94.7779	10196.8	94.3085	10196.8	95.1621	10196.8	93.7504	10196.8	95.1415	10196.8	92.1431	10196.8	94.0336	10196.8	89.2588	10196.8	91.6943	10196.8	84.9952	10196.8	87.2559	10196.8	80.19	10196.8	82.4206	10196.8	75.9264	10196.8	78.3558	10196.8	70.897	10196.8	73.2988	10196.8	68.8231	10196.8	71.1978	10196.8	65.3526	10196.8	66.8062	10196.8	62.6416	10196.8	64.6053	10196.8	56.7701	10196.8	61.4434	10196.8	54.3765	10196.8	60.7297	10196.8	47.215	10196.8	50.7824	10196.8	50.5076	10196.8	41.4531	10196.8	54.1819	10196.8	51.8175	10196.8	28.3643	10196.8	55.8496	10196.8	44.0262
10555.7	94.3502	10555.7	93.7245	10555.7	94.5907	10555.7	93.0967	10555.7	94.5174	10555.7	91.5971	10555.7	93.4457	10555.7	88.5588	10555.7	91.1279	10555.7	84.8103	10555.7	87.0223	10555.7	80.4726	10555.7	82.6625	10555.7	74.7791	10555.7	77.6792	10555.7	71.9024	10555.7	73.4542	10555.7	67.9538	10555.7	70.0562	10555.7	63.2805	10555.7	65.4965	10555.7	61.2433	10555.7	62.8097	10555.7	56.9735	10555.7	58.7038	10555.7	53.6405	10555.7	57.9764	10555.7	51.9838	10555.7	47.2188	10555.7	53.0779	10555.7	42.1988	10555.7	52.3139	10555.7	47.5394	10555.7	42.6825	10555.7	50.2108	10555.7	49.4501
10927.7	93.3605	10927.7	92.7567	10927.7	93.8212	10927.7	92.0168	10927.7	93.943	10927.7	90.3652	10927.7	92.7605	10927.7	87.4252	10927.7	90.4603	10927.7	83.4356	10927.7	86.2412	10927.7	78.543	10927.7	81.2031	10927.7	73.6842	10927.7	76.9317	10927.7	66.5968	10927.7	71.105	10927.7	63.3039	10927.7	67.5006	10927.7	59.9397	10927.7	63.7908	10927.7	57.4291	10927.7	59.3903	10927.7	55.8532	10927.7	57.4002	10927.7	47.6353	10927.7	58.9135	10927.7	47.2425	10927.7	48.5963	10927.7	51.4581	10927.7	27.6692	10927.7	49.9518	10927.7	39.1312	10927.7	48.3604	10927.7	51.3742	10927.7	49.5956
11313	93.2099	11313	92.862	11313	93.5061	11313	92.5607	11313	93.8031	11313	91.0326	11313	92.429	11313	88.1115	11313	90.1279	11313	83.8591	11313	85.8571	11313	79.5957	11313	81.2605	11313	74.4226	11313	76.5803	11313	70.2221	11313	71.7839	11313	65.6279	11313	67.3262	11313	61.8068	11313	61.5463	11313	58.3303	11313	58.8959	11313	55.9308	11313	56.8232	11313	44.0011	11313	57.6456	11313	45.4031	11313	40.6648	11313	50.9104	11313	32.772	11313	49.1481	11313	40.5915	11313	44.8898	11313	49.82	11313	47.778
11712.9	93.3123	11712.9	93.3141	11712.9	93.1697	11712.9	93.4577	11712.9	93.1401	11712.9	92.3793	11712.9	92.0351	11712.9	89.4517	11712.9	89.4914	11712.9	85.4465	11712.9	85.4375	11712.9	80.9797	11712.9	80.8507	11712.9	76.2119	11712.9	75.9712	11712.9	70.5482	11712.9	69.9811	11712.9	67.5401	11712.9	64.9876	11712.9	62.4216	11712.9	58.5873	11712.9	58.8961	11712.9	56.9998	11712.9	56.6107	11712.9	54.4995	11712.9	45.914	11712.9	53.8043	11712.9	45.3785	11712.9	46.6476	11712.9	48.6733	11712.9	44.3806	11712.9	47.661	11712.9	46.8431	11712.9	46.3385	11712.9	42.4208	11712.9	47.975
12126	93.9657	12126	94.2895	12126	93.4121	12126	94.8591	12126	93.0438	12126	93.9673	12126	91.9591	12126	91.2098	12126	89.2043	12126	86.7783	12126	84.6333	12126	82.4985	12126	79.8803	12126	78.1921	12126	74.6546	12126	73.3793	12126	70.7895	12126	68.61	12126	65.4537	12126	64.3515	12126	59.8859	12126	58.9568	12126	55.076	12126	57.7982	12126	53.7987	12126	46.6629	12126	54.165	12126	49.0488	12126	49.3536	12126	51.3217	12126	47.3479	12126	45.0157	12126	50.1727	12126	42.9261	12126	35.5816	12126	43.5323
12553.7	95.4451	12553.7	95.3905	12553.7	94.7222	12553.7	95.9088	12553.7	94.4968	12553.7	94.9852	12553.7	93.5089	12553.7	92.0365	12553.7	90.6425	12553.7	87.8463	12553.7	86.4206	12553.7	83.5992	12553.7	81.7394	12553.7	79.0554	12553.7	77.1221	12553.7	73.4089	12553.7	71.815	12553.7	68.4623	12553.7	65.6581	12553.7	64.1046	12553.7	60.1801	12553.7	58.3855	12553.7	58.0862	12553.7	56.6872	12553.7	53.1075	12553.7	40.5641	12553.7	53.177	12553.7	48.6568	12553.7	46.8974	12553.7	50.8284	12553.7	45.628	12553.7	48.6362	12553.7	49.493	12553.7	36.7534	12553.7	44.8137	12553.7	48.0966
12996.1	96.5073	12996.1	96.1729	12996.1	95.5714	12996.1	96.5881	12996.1	95.0224	12996.1	95.6716	12996.1	93.6744	12996.1	92.6231	12996.1	90.4863	12996.1	88.3043	12996.1	85.9956	12996.1	83.8347	12996.1	81.1228	12996.1	79.4248	12996.1	77.3492	12996.1	73.9877	12996.1	71.1944	12996.1	69.0633	12996.1	65.512	12996.1	65.1663	12996.1	60.3774	12996.1	57.7664	12996.1	57.585	12996.1	56.3827	12996.1	54.4992	12996.1	46.4326	12996.1	53.2009	12996.1	50.3397	12996.1	39.0591	12996.1	48.0881	12996.1	45.4608	12996.1	50.5997	12996.1	49.2257	12996.1	40.7301	12996.1	41.3369	12996.1	47.1637
13454.6	96.3334	13454.6	95.9642	13454.6	95.4254	13454.6	96.0544	13454.6	94.6933	13454.6	94.8671	13454.6	93.2333	13454.6	91.564	13454.6	89.9499	13454.6	86.9301	13454.6	85.3363	13454.6	82.5768	13454.6	80.9299	13454.6	78.3218	13454.6	76.7582	13454.6	72.6443	13454.6	70.3338	13454.6	66.9409	13454.6	64.9588	13454.6	63.7765	13454.6	60.08	13454.6	57.225	13454.6	57.2612	13454.6	53.5466	13454.6	52.5589	13454.6	45.1379	13454.6	53.6181	13454.6	46.0087	13454.6	37.9145	13454.6	42.0492	13454.6	47.9245	13454.6	51.1029	13454.6	38.6746	13454.6	48.5399	13454.6	46.0217	13454.6	43.4652
13929.2	96.0827	13929.2	95.8771	13929.2	94.9466	13929.2	95.8676	13929.2	93.7428	13929.2	94.5411	13929.2	91.464	13929.2	91.2036	13929.2	87.5252	13929.2	86.3093	13929.2	82.4451	13929.2	81.8634	13929.2	78.1001	13929.2	77.6571	13929.2	72.9738	13929.2	72.2214	13929.2	66.1364	13929.2	65.8911	13929.2	61.3463	13929.2	63.0535	13929.2	59.0802	13929.2	56.5837	13929.2	55.0642	13929.2	50.7234	13929.2	47.8368	13929.2	43.7573	13929.2	48.3517	13929.2	42.9862	13929.2	34.4256	13929.2	45.1796	13929.2	50.0263	13929.2	50.8796	13929.2	33.4253	13929.2	53.3434	13929.2	50.4295	13929.2	41.6881
14419.9	96.1371	14419.9	95.9011	14419.9	95.4034	14419.9	95.7996	14419.9	94.5907	14419.9	94.4542	14419.9	92.1803	14419.9	91.0539	14419.9	88.4387	14419.9	85.6781	14419.9	82.929	14419.9	81.2253	14419.9	79.2637	14419.9	76.8128	14419.9	72.6736	14419.9	72.3367	14419.9	67.9147	14419.9	66.2351	14419.9	62.7436	14419.9	62.4609	14419.9	62.0017	14419.9	55.5575	14419.9	56.0296	14419.9	48.9923	14419.9	46.6799	14419.9	41.2714	14419.9	50.0416	14419.9	47.1606	14419.9	46.1751	14419.9	47.423	14419.9	51.9444	14419.9	53.2523	14419.9	48.0924	14419.9	57.3598	14419.9	53.1311	14419.9	42.2403
14928.2	95.258	14928.2	95.2438	14928.2	94.4342	14928.2	95.2907	14928.2	93.6446	14928.2	94.0083	14928.2	91.5028	14928.2	90.6195	14928.2	87.8281	14928.2	85.4104	14928.2	82.4518	14928.2	81.2427	14928.2	78.5916	14928.2	77.1543	14928.2	71.8132	14928.2	72.6178	14928.2	68.5832	14928.2	66.4418	14928.2	61.0106	14928.2	63.2865	14928.2	61.8178	14928.2	57.6943	14928.2	54.2593	14928.2	48.3684	14928.2	44.0343	14928.2	45.8307	14928.2	46.8637	14928.2	49.9547	14928.2	37.2682	14928.2	48.5053	14928.2	49.866	14928.2	55.5708	14928.2	47.8061	14928.2	59.3448	14928.2	54.8711	14928.2	43.2271
15455.6	94.2118	15455.6	94.5555	15455.6	93.203	15455.6	94.8293	15455.6	91.8929	15455.6	94.2251	15455.6	88.9883	15455.6	91.046	15455.6	84.5514	15455.6	85.752	15455.6	78.845	15455.6	81.5666	15455.6	74.7725	15455.6	78.3248	15455.6	69.2009	15455.6	72.6302	15455.6	65.3055	15455.6	67.0267	15455.6	57.1389	15455.6	61.6704	15455.6	57.0631	15455.6	57.1979	15455.6	49.4977	15455.6	49.7515	15455.6	44.4517	15455.6	45.5276	15455.6	49.7811	15455.6	50.4831	15455.6	53.0624	15455.6	54.9455	15455.6	56.4305	15455.6	53.4396	15455.6	38.7544	15455.6	60.5585	15455.6	59.362	15455.6	46.7704
16000.5	95.1699	16000.5	94.3147	16000.5	94.879	16000.5	93.0245	16000.5	94.5054	16000.5	91.7379	16000.5	92.5218	16000.5	88.1456	16000.5	88.3233	16000.5	82.4745	16000.5	83.6944	16000.5	77.9181	16000.5	79.3967	16000.5	76.3803	16000.5	73.6105	16000.5	69.7415	16000.5	69.2236	16000.5	63.8814	16000.5	60.5201	16000.5	56.5577	16000.5	56.6229	16000.5	56.8997	16000.5	52.8869	16000.5	46.2529	16000.5	51.4135	16000.5	52.1196	16000.5	54.4418	16000.5	45.4595	16000.5	55.3608	16000.5	55.6635	16000.5	56.947	16000.5	57.9049	16000.5	53.6828	16000.5	64.4482	16000.5	61.812	16000.5	54.6525
16564.5	96.2096	16564.5	94.9651	16564.5	95.6665	16564.5	92.6588	16564.5	94.9499	16564.5	88.5943	16564.5	92.8272	16564.5	82.8265	16564.5	88.2583	16564.5	76.1803	16564.5	83.394	16564.5	71.3249	16564.5	79.3974	16564.5	71.6838	16564.5	73.6276	16564.5	59.9209	16564.5	65.7225	16564.5	56.427	16564.5	65.0083	16564.5	49.4761	16564.5	56.9029	16564.5	54.2749	16564.5	52.2631	16564.5	36.0596	16564.5	50.9913	16564.5	49.4947	16564.5	54.8036	16564.5	29.0196	16564.5	54.7049	16564.5	52.9319	16564.5	52.9531	16564.5	61.8205	16564.5	58.469	16564.5	64.97	16564.5	61.8212	16564.5	59.4486
17148.9	99.6902	17148.9	98.5513	17148.9	98.5235	17148.9	96.8313	17148.9	96.8392	17148.9	92.2252	17148.9	93.5193	17148.9	86.4035	17148.9	88.0298	17148.9	79.8115	17148.9	82.8622	17148.9	76.6941	17148.9	79.3734	17148.9	74.9173	17148.9	72.4377	17148.9	62.2939	17148.9	60.1731	17148.9	63.3394	17148.9	67.9116	17148.9	54.1411	17148.9	60.1636	17148.9	54.842	17148.9	55.5901	17148.9	40.2101	17148.9	53.8405	17148.9	52.8662	17148.9	57.402	17148.9	46.5971	17148.9	56.9066	17148.9	51.0238	17148.9	53.4693	17148.9	63.8837	17148.9	61.7204	17148.9	64.547	17148.9	61.7658	17148.9	63.3535
17752.4	101.322	17752.4	100.373	17752.4	99.7554	17752.4	99.7264	17752.4	97.1682	17752.4	95.8191	17752.4	91.9619	17752.4	90.5114	17752.4	84.9118	17752.4	84.1441	17752.4	79.1635	17752.4	81.4568	17752.4	77.9517	17752.4	79.9813	17752.4	69.8825	17752.4	66.7946	17752.4	48.2042	17752.4	69.0837	17752.4	69.629	17752.4	62.6184	17752.4	60.8186	17752.4	56.1657	17752.4	59.9244	17752.4	43.472	17752.4	58.6069	17752.4	59.8623	17752.4	52.4079	17752.4	47.0719	17752.4	64.5415	17752.4	55.6378	17752.4	61.7832	17752.4	65.1354	17752.4	61.4037	17752.4	67.2301	17752.4	66.4913	17752.4	64.7408
18379.4	98.3742	18379.4	97.2047	18379.4	96.8412	18379.4	96.9249	18379.4	94.8079	18379.4	92.5578	18379.4	89.6538	18379.4	86.9932	18379.4	83.5497	18379.4	79.9594	18379.4	79.142	18379.4	77.9206	18379.4	78.5934	18379.4	76.3626	18379.4	69.7855	18379.4	61.2903	18379.4	63.5758	18379.4	65.2442	18379.4	71.534	18379.4	61.2842	18379.4	63.6426	18379.4	58.0552	18379.4	61.5895	18379.4	35.5807	18379.4	60.7305	18379.4	60.8363	18379.4	49.7526	18379.4	45.6616	18379.4	65.4559	18379.4	60.1082	18379.4	61.4566	18379.4	64.8829	18379.4	59.351	18379.4	69.2092	18379.4	67.9982	18379.4	65.7984
19026.9	95.0465	19026.9	93.5291	19026.9	93.9599	19026.9	93.513	19026.9	92.1762	19026.9	88.5949	19026.9	86.7871	19026.9	82.3098	19026.9	80.3066	19026.9	74.6491	19026.9	76.0002	19026.9	74.0803	19026.9	76.0287	19026.9	72.6545	19026.9	63.7516	19026.9	59.1135	19026.9	66.7218	19026.9	61.189	19026.9	69.5022	19026.9	56.9292	19026.9	61.8813	19026.9	56.1161	19026.9	60.5387	19026.9	44.326	19026.9	58.9568	19026.9	58.7251	19026.9	50.9603	19026.9	43.6018	19026.9	62.7526	19026.9	58.8215	19026.9	60.5455	19026.9	64.2144	19026.9	57.7699	19026.9	68.7902	19026.9	67.5829	19026.9	65.1668
19697.8	93.377	19697.8	91.576	19697.8	92.7177	19697.8	92.2027	19697.8	91.0429	19697.8	86.5943	19697.8	85.5245	19697.8	80.7353	19697.8	79.7247	19697.8	72.1863	19697.8	76.5661	19697.8	74.1323	19697.8	76.8091	19697.8	72.0596	19697.8	61.0686	19697.8	65.3385	19697.8	71.0431	19697.8	61.9119	19697.8	70.4239	19697.8	59.397	19697.8	63.6489	19697.8	60.0286	19697.8	62.9049	19697.8	45.6499	19697.8	61.5054	19697.8	61.0671	19697.8	52.7113	19697.8	48.1612	19697.8	64.8687	19697.8	61.1503	19697.8	61.7764	19697.8	65.4097	19697.8	59.5305	19697.8	70.5295	19697.8	69.8662	19697.8	67.7539
19999.5	87.5949	19999.5	86.366	19999.5	87.8697	19999.5	88.4419	19999.5	86.0392	19999.5	83.7738	19999.5	80.5737	19999.5	78.2578	19999.5	75.7143	19999.5	70.5663	19999.5	73.8791	19999.5	70.3953	19999.5	72.561	19999.5	70.3783	19999.5	56.5217	19999.5	64.0333	19999.5	68.722	19999.5	61.4438	19999.5	66.2508	19999.5	58.6367	19999.5	59.9475	19999.5	56.553	19999.5	57.8866	19999.5	44.8931	19999.5	60.0882	19999.5	59.2313	19999.5	47.9323	19999.5	47.208	19999.5	61.2548	19999.5	60.5801	19999.5	60.9696	19999.5	62.3864	19999.5	50.0101	19999.5	69.229	19999.5	67.5261	19999.5	63.0912
