"SPL Horizontal"
"On-Axis"		"10°"		"-10°"		"20°"		"-20°"		"30°"		"-30°"		"40°"		"-40°"		"50°"		"-50°"		"60°"		"-60°"		"70°"		"-70°"		"80°"		"-80°"		"90°"		"-90°"		"100°"		"-100°"		"110°"		"-110°"		"120°"		"-120°"		"130°"		"-130°"		"140°"		"-140°"		"150°"		"-150°"		"160°"		"-160°"		"170°"		"-170°"		"180°"
"Frequency / Hz"	"Sound Pressure Level / dB (re 20 µPa/V)  [2.83  V @ 1. m]"	"Frequency / Hz"	"Sound Pressure Level / dB (re 20 µPa/V)  [2.83  V @ 1. m]"	"Frequency / Hz"	"Sound Pressure Level / dB (re 20 µPa/V)  [2.83  V @ 1. m]"	"Frequency / Hz"	"Sound Pressure Level / dB (re 20 µPa/V)  [2.83  V @ 1. m]"	"Frequency / Hz"	"Sound Pressure Level / dB (re 20 µPa/V)  [2.83  V @ 1. m]"	"Frequency / Hz"	"Sound Pressure Level / dB (re 20 µPa/V)  [2.83  V @ 1. m]"	"Frequency / Hz"	"Sound Pressure Level / dB (re 20 µPa/V)  [2.83  V @ 1. m]"	"Frequency / Hz"	"Sound Pressure Level / dB (re 20 µPa/V)  [2.83  V @ 1. m]"	"Frequency / Hz"	"Sound Pressure Level / dB (re 20 µPa/V)  [2.83  V @ 1. m]"	"Frequency / Hz"	"Sound Pressure Level / dB (re 20 µPa/V)  [2.83  V @ 1. m]"	"Frequency / Hz"	"Sound Pressure Level / dB (re 20 µPa/V)  [2.83  V @ 1. m]"	"Frequency / Hz"	"Sound Pressure Level / dB (re 20 µPa/V)  [2.83  V @ 1. m]"	"Frequency / Hz"	"Sound Pressure Level / dB (re 20 µPa/V)  [2.83  V @ 1. m]"	"Frequency / Hz"	"Sound Pressure Level / dB (re 20 µPa/V)  [2.83  V @ 1. m]"	"Frequency / Hz"	"Sound Pressure Level / dB (re 20 µPa/V)  [2.83  V @ 1. m]"	"Frequency / Hz"	"Sound Pressure Level / dB (re 20 µPa/V)  [2.83  V @ 1. m]"	"Frequency / Hz"	"Sound Pressure Level / dB (re 20 µPa/V)  [2.83  V @ 1. m]"	"Frequency / Hz"	"Sound Pressure Level / dB (re 20 µPa/V)  [2.83  V @ 1. m]"	"Frequency / Hz"	"Sound Pressure Level / dB (re 20 µPa/V)  [2.83  V @ 1. m]"	"Frequency / Hz"	"Sound Pressure Level / dB (re 20 µPa/V)  [2.83  V @ 1. m]"	"Frequency / Hz"	"Sound Pressure Level / dB (re 20 µPa/V)  [2.83  V @ 1. m]"	"Frequency / Hz"	"Sound Pressure Level / dB (re 20 µPa/V)  [2.83  V @ 1. m]"	"Frequency / Hz"	"Sound Pressure Level / dB (re 20 µPa/V)  [2.83  V @ 1. m]"	"Frequency / Hz"	"Sound Pressure Level / dB (re 20 µPa/V)  [2.83  V @ 1. m]"	"Frequency / Hz"	"Sound Pressure Level / dB (re 20 µPa/V)  [2.83  V @ 1. m]"	"Frequency / Hz"	"Sound Pressure Level / dB (re 20 µPa/V)  [2.83  V @ 1. m]"	"Frequency / Hz"	"Sound Pressure Level / dB (re 20 µPa/V)  [2.83  V @ 1. m]"	"Frequency / Hz"	"Sound Pressure Level / dB (re 20 µPa/V)  [2.83  V @ 1. m]"	"Frequency / Hz"	"Sound Pressure Level / dB (re 20 µPa/V)  [2.83  V @ 1. m]"	"Frequency / Hz"	"Sound Pressure Level / dB (re 20 µPa/V)  [2.83  V @ 1. m]"	"Frequency / Hz"	"Sound Pressure Level / dB (re 20 µPa/V)  [2.83  V @ 1. m]"	"Frequency / Hz"	"Sound Pressure Level / dB (re 20 µPa/V)  [2.83  V @ 1. m]"	"Frequency / Hz"	"Sound Pressure Level / dB (re 20 µPa/V)  [2.83  V @ 1. m]"	"Frequency / Hz"	"Sound Pressure Level / dB (re 20 µPa/V)  [2.83  V @ 1. m]"	"Frequency / Hz"	"Sound Pressure Level / dB (re 20 µPa/V)  [2.83  V @ 1. m]"	"Frequency / Hz"	"Sound Pressure Level / dB (re 20 µPa/V)  [2.83  V @ 1. m]"
20.5078	47.6667	20.5078	47.5809	20.5078	47.6582	20.5078	47.3932	20.5078	47.5625	20.5078	47.0981	20.5078	47.3839	20.5078	46.6965	20.5078	47.125	20.5078	46.2021	20.5078	46.7887	20.5078	45.6472	20.5078	46.3823	20.5078	45.0846	20.5078	45.9233	20.5078	44.5752	20.5078	45.4435	20.5078	44.163	20.5078	44.9901	20.5078	43.8543	20.5078	44.6211	20.5078	43.6269	20.5078	44.3892	20.5078	43.4627	20.5078	44.3174	20.5078	43.3707	20.5078	44.3791	20.5078	43.3785	20.5078	44.5037	20.5078	43.5033	20.5078	44.6057	20.5078	43.7305	20.5078	44.6179	20.5078	44.015	20.5078	44.5107	20.5078	44.2953
21.9727	35.811	21.9727	36.1129	21.9727	34.8765	21.9727	35.8258	21.9727	33.1589	21.9727	34.9198	21.9727	30.3896	21.9727	33.3499	21.9727	27.0951	21.9727	31.4019	21.9727	28.6674	21.9727	30.924	21.9727	33.3848	21.9727	33.4693	21.9727	37.1634	21.9727	36.7689	21.9727	40.0146	21.9727	39.588	21.9727	42.2273	21.9727	41.8661	21.9727	43.9833	21.9727	43.7214	21.9727	45.3945	21.9727	45.2517	21.9727	46.5344	21.9727	46.5159	21.9727	47.4524	21.9727	47.5413	21.9727	48.1808	21.9727	48.3374	21.9727	48.7381	21.9727	48.9083	21.9727	49.1311	21.9727	49.2603	21.9727	49.3569	21.9727	49.4049
23.4375	47.8375	23.4375	47.6427	23.4375	47.9477	23.4375	47.3629	23.4375	47.9796	23.4375	47.007	23.4375	47.9446	23.4375	46.6006	23.4375	47.861	23.4375	46.1959	23.4375	47.7561	23.4375	45.8815	23.4375	47.67	23.4375	45.7734	23.4375	47.6549	23.4375	45.973	23.4375	47.7671	23.4375	46.5055	23.4375	48.0503	23.4375	47.3023	23.4375	48.5155	23.4375	48.2455	23.4375	49.1327	23.4375	49.2224	23.4375	49.84	23.4375	50.148	23.4375	50.5638	23.4375	50.9641	23.4375	51.2361	23.4375	51.6322	23.4375	51.8033	23.4375	52.128	23.4375	52.2272	23.4375	52.4376	23.4375	52.483	23.4375	52.5556
24.9023	48.5047	24.9023	48.3524	24.9023	48.5087	24.9023	48.0632	24.9023	48.364	24.9023	47.6694	24.9023	48.081	24.9023	47.2436	24.9023	47.6898	24.9023	46.9224	24.9023	47.2588	24.9023	46.901	24.9023	46.9217	24.9023	47.3413	24.9023	46.8799	24.9023	48.24	24.9023	47.3183	24.9023	49.4318	24.9023	48.2565	24.9023	50.7223	24.9023	49.5266	24.9023	51.9765	24.9023	50.9112	24.9023	53.1213	24.9023	52.2505	24.9023	54.1212	24.9023	53.4535	24.9023	54.9567	24.9023	54.4732	24.9023	55.6146	24.9023	55.2865	24.9023	56.0833	24.9023	55.8826	24.9023	56.3524	24.9023	56.2578	24.9023	56.413
26.3672	53.0246	26.3672	53.0267	26.3672	52.9707	26.3672	52.9892	26.3672	52.8679	26.3672	52.9399	26.3672	52.7354	26.3672	52.9237	26.3672	52.6125	26.3672	53	26.3672	52.5611	26.3672	53.2304	26.3672	52.6598	26.3672	53.6566	26.3672	52.9808	26.3672	54.2801	26.3672	53.5555	26.3672	55.0596	26.3672	54.3543	26.3672	55.9304	26.3672	55.3007	26.3672	56.8261	26.3672	56.305	26.3672	57.6918	26.3672	57.2892	26.3672	58.4856	26.3672	58.1944	26.3672	59.176	26.3672	58.979	26.3672	59.7384	26.3672	59.6149	26.3672	60.1528	26.3672	60.0831	26.3672	60.4035	26.3672	60.3726	26.3672	60.479
27.832	57.0687	27.832	57.0674	27.832	57.0427	27.832	57.0441	27.832	56.9962	27.832	57.0165	27.832	56.9487	27.832	57.0156	27.832	56.9336	27.832	57.0839	27.832	56.9963	27.832	57.2692	27.832	57.1872	27.832	57.6105	27.832	57.547	27.832	58.1226	27.832	58.0888	27.832	58.7872	27.832	58.7904	27.832	59.5593	27.832	59.6012	27.832	60.3824	27.832	60.4592	27.832	61.2017	27.832	61.3052	27.832	61.9711	27.832	62.0893	27.832	62.6536	27.832	62.7725	27.832	63.2203	27.832	63.3256	27.832	63.6489	27.832	63.7274	27.832	63.9224	27.832	63.9643	27.832	64.0294
29.2969	60.9405	29.2969	60.8956	29.2969	60.9658	29.2969	60.8368	29.2969	60.9753	29.2969	60.7802	29.2969	60.9827	29.2969	60.7531	29.2969	61.0117	29.2969	60.7927	29.2969	61.0947	29.2969	60.9416	29.2969	61.269	29.2969	61.2366	29.2969	61.5682	29.2969	61.6946	29.2969	62.0105	29.2969	62.3034	29.2969	62.59	29.2969	63.0242	29.2969	63.2766	29.2969	63.804	29.2969	64.0235	29.2969	64.5885	29.2969	64.7788	29.2969	65.3298	29.2969	65.4937	29.2969	65.9895	29.2969	66.127	29.2969	66.5376	29.2969	66.6461	29.2969	66.9514	29.2969	67.0269	29.2969	67.2145	29.2969	67.2534	29.2969	67.3166
30.7617	64.1753	30.7617	64.174	30.7617	64.1802	30.7617	64.1819	30.7617	64.1902	30.7617	64.2114	30.7617	64.2144	30.7617	64.2813	30.7617	64.2692	30.7617	64.4141	30.7617	64.3777	30.7617	64.6333	30.7617	64.5662	30.7617	64.9566	30.7617	64.8585	30.7617	65.3907	30.7617	65.2682	30.7617	65.9263	30.7617	65.7919	30.7617	66.5396	30.7617	66.4078	30.7617	67.1964	30.7617	67.0799	30.7617	67.8584	30.7617	67.7652	30.7617	68.4884	30.7617	68.4211	30.7617	69.0528	30.7617	69.0093	30.7617	69.5232	30.7617	69.4984	30.7617	69.8765	30.7617	69.8643	30.7617	70.0953	30.7617	70.0907	30.7617	70.1683
32.2266	67.195	32.2266	67.2017	32.2266	67.1977	32.2266	67.2204	32.2266	67.2127	32.2266	67.2592	32.2266	67.2484	32.2266	67.3311	32.2266	67.3188	32.2266	67.4528	32.2266	67.4417	32.2266	67.6422	32.2266	67.6368	32.2266	67.9152	32.2266	67.9205	32.2266	68.28	32.2266	68.3013	32.2266	68.7341	32.2266	68.7746	32.2266	69.2622	32.2266	69.3225	32.2266	69.8384	32.2266	69.9159	32.2266	70.4307	32.2266	70.5197	32.2266	71.0046	32.2266	71.0976	32.2266	71.5276	32.2266	71.616	32.2266	71.9707	32.2266	72.046	32.2266	72.31	32.2266	72.3648	32.2266	72.5274	32.2266	72.5562	32.2266	72.6111
33.6914	70.1584	33.6914	70.1649	33.6914	70.1648	33.6914	70.1859	33.6914	70.1865	33.6914	70.227	33.6914	70.2302	33.6914	70.2973	33.6914	70.3062	33.6914	70.4091	33.6914	70.4277	33.6914	70.5759	33.6914	70.6088	33.6914	70.8102	33.6914	70.8618	33.6914	71.1201	33.6914	71.1931	33.6914	71.5062	33.6914	71.6008	33.6914	71.9592	33.6914	72.0721	33.6914	72.4602	33.6914	72.5854	33.6914	72.9829	33.6914	73.1123	33.6914	73.497	33.6914	73.6217	33.6914	73.9717	33.6914	74.0831	33.6914	74.3784	33.6914	74.4689	33.6914	74.6927	33.6914	74.7564	33.6914	74.896	33.6914	74.9288	33.6914	74.9763
35.1562	72.6741	35.1562	72.6754	35.1562	72.6889	35.1562	72.6946	35.1562	72.7215	35.1562	72.7366	35.1562	72.7766	35.1562	72.809	35.1562	72.8621	35.1562	72.9219	35.1562	72.9878	35.1562	73.0861	35.1562	73.1645	35.1562	73.3113	35.1562	73.4017	35.1562	73.6039	35.1562	73.7051	35.1562	73.9644	35.1562	74.0742	35.1562	74.3855	35.1562	74.5005	35.1562	74.8517	35.1562	74.9675	35.1562	75.3402	35.1562	75.4518	35.1562	75.8236	35.1562	75.9259	35.1562	76.2726	35.1562	76.361	35.1562	76.6592	35.1562	76.7296	35.1562	76.9587	35.1562	77.0077	35.1562	77.1518	35.1562	77.1769	35.1562	77.2261
36.6211	74.7014	36.6211	74.709	36.6211	74.7118	36.6211	74.736	36.6211	74.7414	36.6211	74.7858	36.6211	74.794	36.6211	74.8641	36.6211	74.8752	36.6211	74.9779	36.6211	74.9924	36.6211	75.1351	36.6211	75.1537	36.6211	75.3426	36.6211	75.3664	36.6211	75.6052	36.6211	75.6352	36.6211	75.9237	36.6211	75.9606	36.6211	76.2931	36.6211	76.3368	36.6211	76.702	36.6211	76.7512	36.6211	77.1323	36.6211	77.1848	36.6211	77.5612	36.6211	77.6137	36.6211	77.9625	36.6211	78.0113	36.6211	78.3102	36.6211	78.3514	36.6211	78.5806	36.6211	78.6104	36.6211	78.7544	36.6211	78.7701	36.6211	78.8192
38.0859	76.2556	38.0859	76.2569	38.0859	76.273	38.0859	76.2781	38.0859	76.31	38.0859	76.3222	38.0859	76.3694	38.0859	76.3939	38.0859	76.4555	38.0859	76.4993	38.0859	76.5741	38.0859	76.6451	38.0859	76.7315	38.0859	76.8375	38.0859	76.9336	38.0859	77.0811	38.0859	77.1844	38.0859	77.3767	38.0859	77.4843	38.0859	77.7206	38.0859	77.829	38.0859	78.1027	38.0859	78.2083	38.0859	78.5068	38.0859	78.6059	38.0859	78.9115	38.0859	79.0006	38.0859	79.2922	38.0859	79.3681	38.0859	79.6236	38.0859	79.6835	38.0859	79.8826	38.0859	79.924	38.0859	80.0505	38.0859	80.0717	38.0859	80.1151
39.5508	77.8947	39.5508	77.899	39.5508	77.9138	39.5508	77.9275	39.5508	77.9566	39.5508	77.9825	39.5508	78.0249	39.5508	78.0671	39.5508	78.1216	39.5508	78.1856	39.5508	78.2502	39.5508	78.3421	39.5508	78.4149	39.5508	78.5406	39.5508	78.6191	39.5508	78.7832	39.5508	78.8652	39.5508	79.0696	39.5508	79.1526	39.5508	79.3954	39.5508	79.4772	39.5508	79.7518	39.5508	79.8302	39.5508	80.1246	39.5508	80.1976	39.5508	80.4956	39.5508	80.5612	39.5508	80.8433	39.5508	80.8994	39.5508	81.1454	39.5508	81.19	39.5508	81.3811	39.5508	81.4122	39.5508	81.5334	39.5508	81.5494	39.5508	81.5909
41.0156	79.185	41.0156	79.1949	41.0156	79.1998	41.0156	79.2304	41.0156	79.2393	41.0156	79.2933	41.0156	79.3041	41.0156	79.3859	41.0156	79.3959	41.0156	79.5109	41.0156	79.5172	41.0156	79.6711	41.0156	79.6707	41.0156	79.8687	41.0156	79.8597	41.0156	80.1046	41.0156	80.0864	41.0156	80.3776	41.0156	80.3514	41.0156	80.6834	41.0156	80.6519	41.0156	81.0139	41.0156	80.9809	41.0156	81.3568	41.0156	81.3261	41.0156	81.6959	41.0156	81.6703	41.0156	82.012	41.0156	81.9931	41.0156	82.2851	41.0156	82.2727	41.0156	82.4961	41.0156	82.4891	41.0156	82.6292	41.0156	82.6262	41.0156	82.674
42.4805	80.7132	42.4805	80.72	42.4805	80.7296	42.4805	80.7505	42.4805	80.769	42.4805	80.806	42.4805	80.8321	42.4805	80.888	42.4805	80.9202	42.4805	80.9986	42.4805	81.0352	42.4805	81.1395	42.4805	81.1795	42.4805	81.3125	42.4805	81.355	42.4805	81.5183	42.4805	81.5632	42.4805	81.7562	42.4805	81.8038	42.4805	82.0232	42.4805	82.0739	42.4805	82.3131	42.4805	82.3668	42.4805	82.616	42.4805	82.6717	42.4805	82.9185	42.4805	82.974	42.4805	83.2039	42.4805	83.2559	42.4805	83.4541	42.4805	83.4986	42.4805	83.6514	42.4805	83.684	42.4805	83.7805	42.4805	83.7978	42.4805	83.8307
43.9453	81.8281	43.9453	81.8376	43.9453	81.8416	43.9453	81.8705	43.9453	81.8783	43.9453	81.9278	43.9453	81.9385	43.9453	82.0103	43.9453	82.023	43.9453	82.1195	43.9453	82.133	43.9453	82.2564	43.9453	82.2699	43.9453	82.4221	43.9453	82.435	43.9453	82.6166	43.9453	82.6288	43.9453	82.8385	43.9453	82.8509	43.9453	83.0849	43.9453	83.0983	43.9453	83.3499	43.9453	83.3656	43.9453	83.625	43.9453	83.6435	43.9453	83.8983	43.9453	83.9194	43.9453	84.1555	43.9453	84.1775	43.9453	84.3804	43.9453	84.4009	43.9453	84.557	43.9453	84.573	43.9453	84.6714	43.9453	84.6802	43.9453	84.7138
45.4102	82.8825	45.4102	82.8919	45.4102	82.8978	45.4102	82.9263	45.4102	82.9375	45.4102	82.9864	45.4102	83.0014	45.4102	83.0727	45.4102	83.0897	45.4102	83.1859	45.4102	83.2027	45.4102	83.3261	45.4102	83.3407	45.4102	83.4932	45.4102	83.5038	45.4102	83.6862	45.4102	83.692	45.4102	83.9028	45.4102	83.9041	45.4102	84.1393	45.4102	84.1374	45.4102	84.3901	45.4102	84.3871	45.4102	84.6474	45.4102	84.6453	45.4102	84.9009	45.4102	84.9011	45.4102	85.138	45.4102	85.1407	45.4102	85.3443	45.4102	85.3487	45.4102	85.5054	45.4102	85.5099	45.4102	85.6088	45.4102	85.6116	45.4102	85.6454
46.875	83.9442	46.875	83.9551	46.875	83.9617	46.875	83.9948	46.875	84.0068	46.875	84.0631	46.875	84.0786	46.875	84.1598	46.875	84.176	46.875	84.2837	46.875	84.2979	46.875	84.4334	46.875	84.443	46.875	84.6068	46.875	84.6101	46.875	84.8012	46.875	84.7979	46.875	85.0133	46.875	85.0045	46.875	85.2392	46.875	85.2271	46.875	85.4738	46.875	85.461	46.875	85.7106	46.875	85.6998	46.875	85.9412	46.875	85.934	46.875	86.1552	46.875	86.1519	46.875	86.3406	46.875	86.3404	46.875	86.4849	46.875	86.4863	46.875	86.5771	46.875	86.5783	46.875	86.6093
48.3398	85.2713	48.3398	85.2914	48.3398	85.2774	48.3398	85.337	48.3398	85.3094	48.3398	85.4071	48.3398	85.3668	48.3398	85.5004	48.3398	85.4484	48.3398	85.6149	48.3398	85.553	48.3398	85.7484	48.3398	85.6788	48.3398	85.8986	48.3398	85.8241	48.3398	86.0632	48.3398	85.9869	48.3398	86.2397	48.3398	86.1651	48.3398	86.4253	48.3398	86.3558	48.3398	86.6169	48.3398	86.5551	48.3398	86.8097	48.3398	86.7575	48.3398	86.9973	48.3398	86.9558	48.3398	87.1714	48.3398	87.1405	48.3398	87.3221	48.3398	87.3009	48.3398	87.439	48.3398	87.426	48.3398	87.5125	48.3398	87.5064	48.3398	87.5359
51.2695	86.8276	51.2695	86.8494	51.2695	86.823	51.2695	86.8876	51.2695	86.836	51.2695	86.9415	51.2695	86.8669	51.2695	87.01	51.2695	86.9155	51.2695	87.0919	51.2695	86.9815	51.2695	87.1859	51.2695	87.0643	51.2695	87.2909	51.2695	87.1629	51.2695	87.4057	51.2695	87.2761	51.2695	87.5291	51.2695	87.4024	51.2695	87.6595	51.2695	87.54	51.2695	87.7952	51.2695	87.6865	51.2695	87.933	51.2695	87.8384	51.2695	88.0686	51.2695	87.9905	51.2695	88.196	51.2695	88.1354	51.2695	88.3074	51.2695	88.2641	51.2695	88.3941	51.2695	88.3668	51.2695	88.4479	51.2695	88.4348	51.2695	88.4624
52.7344	87.5046	52.7344	87.514	52.7344	87.5125	52.7344	87.54	52.7344	87.5377	52.7344	87.5817	52.7344	87.5794	52.7344	87.6376	52.7344	87.6366	52.7344	87.7061	52.7344	87.7077	52.7344	87.7855	52.7344	87.7909	52.7344	87.8744	52.7344	87.8845	52.7344	87.9711	52.7344	87.9869	52.7344	88.0746	52.7344	88.0968	52.7344	88.1838	52.7344	88.2133	52.7344	88.2976	52.7344	88.3347	52.7344	88.4143	52.7344	88.4586	52.7344	88.5315	52.7344	88.581	52.7344	88.6447	52.7344	88.6956	52.7344	88.7481	52.7344	88.7946	52.7344	88.8337	52.7344	88.8696	52.7344	88.8938	52.7344	88.9134	52.7344	88.9216
54.1992	87.9768	54.1992	87.9577	54.1992	88.0121	54.1992	87.9551	54.1992	88.0625	54.1992	87.9689	54.1992	88.1263	54.1992	87.9982	54.1992	88.2014	54.1992	88.0419	54.1992	88.2853	54.1992	88.0985	54.1992	88.3756	54.1992	88.1665	54.1992	88.4702	54.1992	88.2444	54.1992	88.5672	54.1992	88.3312	54.1992	88.6654	54.1992	88.4258	54.1992	88.7636	54.1992	88.5275	54.1992	88.8603	54.1992	88.6353	54.1992	88.9535	54.1992	88.7472	54.1992	89.04	54.1992	88.8597	54.1992	89.115	54.1992	88.9675	54.1992	89.173	54.1992	89.0638	54.1992	89.2082	54.1992	89.1411	54.1992	89.2157	54.1992	89.1931
55.6641	88.6093	55.6641	88.6077	55.6641	88.629	55.6641	88.6242	55.6641	88.6658	55.6641	88.6582	55.6641	88.7181	55.6641	88.7083	55.6641	88.7837	55.6641	88.7726	55.6641	88.8601	55.6641	88.8486	55.6641	88.9446	55.6641	88.9336	55.6641	89.0347	55.6641	89.025	55.6641	89.1282	55.6641	89.1201	55.6641	89.2235	55.6641	89.2171	55.6641	89.3192	55.6641	89.3144	55.6641	89.4142	55.6641	89.4109	55.6641	89.5069	55.6641	89.5052	55.6641	89.595	55.6641	89.5949	55.6641	89.675	55.6641	89.6762	55.6641	89.7422	55.6641	89.7441	55.6641	89.7915	55.6641	89.7931	55.6641	89.8179	55.6641	89.8186
58.5938	89.4043	58.5938	89.4025	58.5938	89.4259	58.5938	89.4199	58.5938	89.4668	58.5938	89.4553	58.5938	89.5256	58.5938	89.5063	58.5938	89.6001	58.5938	89.5703	58.5938	89.6875	58.5938	89.6439	58.5938	89.7842	58.5938	89.7239	58.5938	89.8867	58.5938	89.8075	58.5938	89.9913	58.5938	89.8924	58.5938	90.0943	58.5938	89.9772	58.5938	90.1928	58.5938	90.0616	58.5938	90.2841	58.5938	90.1455	58.5938	90.3661	58.5938	90.2289	58.5938	90.4369	58.5938	90.3107	58.5938	90.4947	58.5938	90.3882	58.5938	90.5373	58.5938	90.4572	58.5938	90.5621	58.5938	90.5126	58.5938	90.5668	58.5938	90.5502
60.0586	89.5536	60.0586	89.5526	60.0586	89.5735	60.0586	89.5703	60.0586	89.6119	60.0586	89.6052	60.0586	89.6673	60.0586	89.6552	60.0586	89.7372	60.0586	89.7178	60.0586	89.8186	60.0586	89.7898	60.0586	89.9079	60.0586	89.8681	60.0586	90.0013	60.0586	89.95	60.0586	90.0951	60.0586	90.0331	60.0586	90.186	60.0586	90.1155	60.0586	90.2714	60.0586	90.1961	60.0586	90.3495	60.0586	90.2744	60.0586	90.4191	60.0586	90.3494	60.0586	90.4796	60.0586	90.42	60.0586	90.5303	60.0586	90.4838	60.0586	90.57	60.0586	90.5377	60.0586	90.5967	60.0586	90.5781	60.0586	90.608	60.0586	90.602
62.9883	89.4512	62.9883	89.4519	62.9883	89.4684	62.9883	89.47	62.9883	89.5026	62.9883	89.5046	62.9883	89.5522	62.9883	89.5535	62.9883	89.6147	62.9883	89.6141	62.9883	89.6869	62.9883	89.6831	62.9883	89.7653	62.9883	89.7572	62.9883	89.8463	62.9883	89.8328	62.9883	89.9263	62.9883	89.9071	62.9883	90.0022	62.9883	89.9777	62.9883	90.0719	62.9883	90.043	62.9883	90.1338	62.9883	90.1025	62.9883	90.1873	62.9883	90.1561	62.9883	90.2325	62.9883	90.2038	62.9883	90.2692	62.9883	90.2453	62.9883	90.2973	62.9883	90.2796	62.9883	90.3158	62.9883	90.3051	62.9883	90.3237	62.9883	90.3202
64.4531	89.3361	64.4531	89.3411	64.4531	89.3494	64.4531	89.3641	64.4531	89.3803	64.4531	89.4037	64.4531	89.4274	64.4531	89.4578	64.4531	89.4884	64.4531	89.5236	64.4531	89.5602	64.4531	89.5977	64.4531	89.6396	64.4531	89.6762	64.4531	89.7227	64.4531	89.7556	64.4531	89.806	64.4531	89.8323	64.4531	89.8861	64.4531	89.9038	64.4531	89.9601	64.4531	89.9683	64.4531	90.0259	64.4531	90.0251	64.4531	90.0823	64.4531	90.0742	64.4531	90.1289	64.4531	90.1162	64.4531	90.1655	64.4531	90.1516	64.4531	90.1924	64.4531	90.1801	64.4531	90.2094	64.4531	90.2011	64.4531	90.2164	64.4531	90.2135
67.3828	89.144	67.3828	89.1344	67.3828	89.1721	67.3828	89.1432	67.3828	89.2178	67.3828	89.1693	67.3828	89.2793	67.3828	89.2106	67.3828	89.354	67.3828	89.2645	67.3828	89.4381	67.3828	89.3274	67.3828	89.5276	67.3828	89.3955	67.3828	89.6178	67.3828	89.465	67.3828	89.704	67.3828	89.5322	67.3828	89.7817	67.3828	89.5943	67.3828	89.8472	67.3828	89.6495	67.3828	89.8978	67.3828	89.6973	67.3828	89.9323	67.3828	89.7382	67.3828	89.9511	67.3828	89.7735	67.3828	89.9559	67.3828	89.8051	67.3828	89.9493	67.3828	89.8344	67.3828	89.9343	67.3828	89.8624	67.3828	89.9134	67.3828	89.8889
68.8477	89.0538	68.8477	89.0404	68.8477	89.0846	68.8477	89.0444	68.8477	89.1319	68.8477	89.0648	68.8477	89.1941	68.8477	89.0998	68.8477	89.2682	68.8477	89.1466	68.8477	89.3508	68.8477	89.2019	68.8477	89.4375	68.8477	89.2619	68.8477	89.5237	68.8477	89.3229	68.8477	89.6043	68.8477	89.3812	68.8477	89.6748	68.8477	89.434	68.8477	89.731	68.8477	89.4794	68.8477	89.7704	68.8477	89.517	68.8477	89.7917	68.8477	89.5475	68.8477	89.7958	68.8477	89.5731	68.8477	89.7852	68.8477	89.5962	68.8477	89.7637	68.8477	89.6195	68.8477	89.7353	68.8477	89.645	68.8477	89.7041	68.8477	89.6734
71.7773	88.9218	71.7773	88.9097	71.7773	88.9498	71.7773	88.9137	71.7773	88.993	71.7773	88.9327	71.7773	89.0495	71.7773	88.965	71.7773	89.1166	71.7773	89.008	71.7773	89.1908	71.7773	89.0582	71.7773	89.268	71.7773	89.1118	71.7773	89.3434	71.7773	89.1647	71.7773	89.4121	71.7773	89.2132	71.7773	89.4695	71.7773	89.254	71.7773	89.5118	71.7773	89.285	71.7773	89.5363	71.7773	89.3057	71.7773	89.5422	71.7773	89.3174	71.7773	89.5308	71.7773	89.3228	71.7773	89.5053	71.7773	89.3263	71.7773	89.4706	71.7773	89.3323	71.7773	89.4324	71.7773	89.3449	71.7773	89.3961	71.7773	89.3661
74.707	88.7721	74.707	88.7556	74.707	88.8034	74.707	88.7538	74.707	88.8483	74.707	88.7661	74.707	88.9054	74.707	88.7909	74.707	88.9719	74.707	88.8258	74.707	89.0444	74.707	88.8679	74.707	89.119	74.707	88.9132	74.707	89.191	74.707	88.958	74.707	89.2554	74.707	88.9983	74.707	89.3075	74.707	89.0309	74.707	89.3433	74.707	89.0538	74.707	89.3601	74.707	89.0668	74.707	89.357	74.707	89.0715	74.707	89.3352	74.707	89.0713	74.707	89.2982	74.707	89.0712	74.707	89.2516	74.707	89.0763	74.707	89.2018	74.707	89.0909	74.707	89.1553	74.707	89.1174
77.6367	88.748	77.6367	88.7428	77.6367	88.7655	77.6367	88.7498	77.6367	88.7946	77.6367	88.7681	77.6367	88.8341	77.6367	88.7963	77.6367	88.8818	77.6367	88.8318	77.6367	88.9348	77.6367	88.8715	77.6367	88.9894	77.6367	88.9116	77.6367	89.0412	77.6367	88.9481	77.6367	89.0857	77.6367	88.9769	77.6367	89.1183	77.6367	88.9945	77.6367	89.1352	77.6367	88.999	77.6367	89.1342	77.6367	88.9899	77.6367	89.115	77.6367	88.9692	77.6367	89.0797	77.6367	88.9411	77.6367	89.0333	77.6367	88.9115	77.6367	88.9825	77.6367	88.8872	77.6367	88.9352	77.6367	88.8744	77.6367	88.8986	77.6367	88.8777
79.1016	88.7721	79.1016	88.7714	79.1016	88.7843	79.1016	88.7819	79.1016	88.8073	79.1016	88.8028	79.1016	88.8397	79.1016	88.8323	79.1016	88.8795	79.1016	88.868	79.1016	88.9237	79.1016	88.9066	79.1016	88.9688	79.1016	88.9441	79.1016	89.0106	79.1016	88.9763	79.1016	89.0447	79.1016	88.9993	79.1016	89.0669	79.1016	89.0094	79.1016	89.0738	79.1016	89.0048	79.1016	89.0633	79.1016	88.9851	79.1016	89.0357	79.1016	88.9524	79.1016	88.9936	79.1016	88.9112	79.1016	88.9423	79.1016	88.8679	79.1016	88.8894	79.1016	88.83	79.1016	88.8431	79.1016	88.8047	79.1016	88.8108	79.1016	88.7975
82.0312	88.7596	82.0312	88.761	82.0312	88.7698	82.0312	88.7736	82.0312	88.791	82.0312	88.7964	82.0312	88.822	82.0312	88.8276	82.0312	88.8604	82.0312	88.8643	82.0312	88.9034	82.0312	88.9032	82.0312	88.947	82.0312	88.9402	82.0312	88.9868	82.0312	88.9708	82.0312	89.0179	82.0312	88.9908	82.0312	89.0357	82.0312	88.9965	82.0312	89.0363	82.0312	88.9855	82.0312	89.0176	82.0312	88.9573	82.0312	88.9801	82.0312	88.9141	82.0312	88.927	82.0312	88.8606	82.0312	88.8649	82.0312	88.8043	82.0312	88.8025	82.0312	88.7538	82.0312	88.7497	82.0312	88.7181	82.0312	88.715	82.0312	88.7041
84.9609	88.6719	84.9609	88.6751	84.9609	88.681	84.9609	88.6903	84.9609	88.7019	84.9609	88.7164	84.9609	88.7336	84.9609	88.7517	84.9609	88.7743	84.9609	88.7936	84.9609	88.8213	84.9609	88.8387	84.9609	88.8709	84.9609	88.8828	84.9609	88.9188	84.9609	88.9215	84.9609	88.96	84.9609	88.9503	84.9609	88.9895	84.9609	88.9655	84.9609	89.0032	84.9609	88.9643	84.9609	88.9983	84.9609	88.9461	84.9609	88.9744	84.9609	88.9129	84.9609	88.9343	84.9609	88.869	84.9609	88.8833	84.9609	88.8214	84.9609	88.8296	84.9609	88.7785	84.9609	88.7823	84.9609	88.7486	84.9609	88.7499	84.9609	88.7381
87.8906	88.8101	87.8906	88.8131	87.8906	88.8142	87.8906	88.8229	87.8906	88.825	87.8906	88.8389	87.8906	88.8416	87.8906	88.8597	87.8906	88.8625	87.8906	88.8831	87.8906	88.8856	87.8906	88.9063	87.8906	88.9079	87.8906	88.9258	87.8906	88.9256	87.8906	88.9376	87.8906	88.9348	87.8906	88.9377	87.8906	88.9315	87.8906	88.9229	87.8906	88.9123	87.8906	88.891	87.8906	88.8755	87.8906	88.8419	87.8906	88.8216	87.8906	88.7783	87.8906	88.7543	87.8906	88.7056	87.8906	88.6801	87.8906	88.6321	87.8906	88.6081	87.8906	88.5674	87.8906	88.5486	87.8906	88.5212	87.8906	88.5109	87.8906	88.5013
90.8203	88.8183	90.8203	88.8062	90.8203	88.8373	90.8203	88.8013	90.8203	88.8621	90.8203	88.8035	90.8203	88.8912	90.8203	88.8118	90.8203	88.9225	90.8203	88.8241	90.8203	88.9534	90.8203	88.8374	90.8203	88.9804	90.8203	88.848	90.8203	88.9996	90.8203	88.8513	90.8203	89.0066	90.8203	88.8429	90.8203	88.997	90.8203	88.8189	90.8203	88.9672	90.8203	88.7769	90.8203	88.9153	90.8203	88.717	90.8203	88.8419	90.8203	88.6424	90.8203	88.7508	90.8203	88.5599	90.8203	88.6495	90.8203	88.4798	90.8203	88.5486	90.8203	88.4138	90.8203	88.4605	90.8203	88.3734	90.8203	88.397	90.8203	88.3669
95.2148	88.8977	95.2148	88.8854	95.2148	88.9156	95.2148	88.8791	95.2148	88.9386	95.2148	88.8786	95.2148	88.9654	95.2148	88.8834	95.2148	88.9943	95.2148	88.8918	95.2148	89.0231	95.2148	88.9014	95.2148	89.0486	95.2148	88.9085	95.2148	89.0667	95.2148	88.909	95.2148	89.0729	95.2148	88.8982	95.2148	89.0627	95.2148	88.8719	95.2148	89.032	95.2148	88.8275	95.2148	88.9783	95.2148	88.7647	95.2148	88.9019	95.2148	88.6865	95.2148	88.8062	95.2148	88.6	95.2148	88.6988	95.2148	88.5155	95.2148	88.591	95.2148	88.4456	95.2148	88.4964	95.2148	88.4026	95.2148	88.4281	95.2148	88.3957
98.1445	88.8926	98.1445	88.8823	98.1445	88.9068	98.1445	88.8759	98.1445	88.9246	98.1445	88.8735	98.1445	88.9456	98.1445	88.8744	98.1445	88.9686	98.1445	88.8777	98.1445	88.9921	98.1445	88.8813	98.1445	89.0135	98.1445	88.8826	98.1445	89.0291	98.1445	88.878	98.1445	89.0348	98.1445	88.8638	98.1445	89.0259	98.1445	88.8364	98.1445	88.9983	98.1445	88.7935	98.1445	88.9492	98.1445	88.7349	98.1445	88.8785	98.1445	88.6632	98.1445	88.7892	98.1445	88.5847	98.1445	88.6886	98.1445	88.5084	98.1445	88.5873	98.1445	88.4456	98.1445	88.4982	98.1445	88.4074	98.1445	88.4336	98.1445	88.4023
101.074	88.8281	101.074	88.8178	101.074	88.8422	101.074	88.8109	101.074	88.8596	101.074	88.8073	101.074	88.8801	101.074	88.806	101.074	88.9023	101.074	88.8057	101.074	88.9245	101.074	88.8041	101.074	88.9437	101.074	88.7985	101.074	88.9561	101.074	88.7852	101.074	88.9571	101.074	88.7607	101.074	88.9417	101.074	88.7218	101.074	88.9059	101.074	88.6666	101.074	88.847	101.074	88.5955	101.074	88.7649	101.074	88.5119	101.074	88.6633	101.074	88.4227	101.074	88.55	101.074	88.3379	101.074	88.4365	101.074	88.2696	101.074	88.3365	101.074	88.2295	101.074	88.2632	101.074	88.2263
105.469	88.8927	105.469	88.8801	105.469	88.9054	105.469	88.8679	105.469	88.9184	105.469	88.856	105.469	88.9315	105.469	88.8442	105.469	88.9444	105.469	88.8317	105.469	88.9561	105.469	88.8165	105.469	88.9642	105.469	88.7958	105.469	88.9653	105.469	88.7662	105.469	88.9547	105.469	88.7238	105.469	88.9273	105.469	88.6657	105.469	88.8784	105.469	88.5904	105.469	88.805	105.469	88.4993	105.469	88.7071	105.469	88.3971	105.469	88.5887	105.469	88.2922	105.469	88.4583	105.469	88.1959	105.469	88.3282	105.469	88.1212	105.469	88.2131	105.469	88.0803	105.469	88.1273	105.469	88.0815
108.398	88.9784	108.398	88.9686	108.398	88.9864	108.398	88.9572	108.398	88.9929	108.398	88.9444	108.398	88.9981	108.398	88.9302	108.398	89.0021	108.398	88.914	108.398	89.0041	108.398	88.8947	108.398	89.0026	108.398	88.8698	108.398	88.9944	108.398	88.8361	108.398	88.9755	108.398	88.7899	108.398	88.9409	108.398	88.728	108.398	88.8861	108.398	88.6487	108.398	88.8083	108.398	88.5531	108.398	88.7075	108.398	88.4456	108.398	88.5876	108.398	88.3345	108.398	88.4572	108.398	88.2312	108.398	88.3286	108.398	88.1492	108.398	88.2166	108.398	88.1009	108.398	88.1354	108.398	88.0954
112.793	88.9766	112.793	88.9694	112.793	88.9803	112.793	88.9587	112.793	88.9808	112.793	88.9447	112.793	88.9788	112.793	88.9279	112.793	88.9747	112.793	88.9081	112.793	88.9686	112.793	88.8843	112.793	88.9595	112.793	88.8545	112.793	88.9448	112.793	88.816	112.793	88.9209	112.793	88.7654	112.793	88.8831	112.793	88.6998	112.793	88.8272	112.793	88.6177	112.793	88.75	112.793	88.5199	112.793	88.6515	112.793	88.4109	112.793	88.5352	112.793	88.2988	112.793	88.4089	112.793	88.1952	112.793	88.2845	112.793	88.1131	112.793	88.176	112.793	88.0648	112.793	88.0973	112.793	88.0587
117.188	88.9544	117.188	88.9431	117.188	88.9585	117.188	88.9253	117.188	88.9555	117.188	88.902	117.188	88.946	117.188	88.8744	117.188	88.9308	117.188	88.843	117.188	88.9105	117.188	88.8077	117.188	88.8848	117.188	88.7668	117.188	88.8522	117.188	88.7179	117.188	88.8098	117.188	88.6577	117.188	88.7539	117.188	88.5832	117.188	88.6807	117.188	88.4929	117.188	88.588	117.188	88.3879	117.188	88.4765	117.188	88.2724	117.188	88.3506	117.188	88.1543	117.188	88.2191	117.188	88.0445	117.188	88.0938	117.188	87.9558	117.188	87.9887	117.188	87.9	117.188	87.9164	117.188	87.8858
120.117	88.9842	120.117	88.9655	120.117	88.9946	120.117	88.9394	120.117	88.9965	120.117	88.9074	120.117	88.9902	120.117	88.8709	120.117	88.9764	120.117	88.8311	120.117	88.9556	120.117	88.7877	120.117	88.9275	120.117	88.7395	120.117	88.8904	120.117	88.684	120.117	88.8417	120.117	88.6177	120.117	88.7779	120.117	88.5376	120.117	88.6956	120.117	88.4421	120.117	88.5932	120.117	88.3323	120.117	88.4718	120.117	88.213	120.117	88.3365	120.117	88.0925	120.117	88.1962	120.117	87.9824	120.117	88.0631	120.117	87.8955	120.117	87.9508	120.117	87.8435	120.117	87.8716	120.117	87.8347
124.512	88.994	124.512	88.9726	124.512	89.0049	124.512	88.9415	124.512	89.0057	124.512	88.9019	124.512	88.9973	124.512	88.8556	124.512	88.9809	124.512	88.8045	124.512	88.9575	124.512	88.7494	124.512	88.9271	124.512	88.6904	124.512	88.8886	124.512	88.6263	124.512	88.8393	124.512	88.5547	124.512	88.776	124.512	88.4734	124.512	88.6952	124.512	88.3806	124.512	88.595	124.512	88.2772	124.512	88.4763	124.512	88.167	124.512	88.3434	124.512	88.0572	124.512	88.2051	124.512	87.9582	124.512	88.0728	124.512	87.8817	124.512	87.9598	124.512	87.8387	124.512	87.8782	124.512	87.8367
128.906	89.0065	128.906	88.991	128.906	89.009	128.906	88.9628	128.906	88.9992	128.906	88.923	128.906	88.9785	128.906	88.8733	128.906	88.9487	128.906	88.8154	128.906	88.9115	128.906	88.7504	128.906	88.8677	128.906	88.6787	128.906	88.8167	128.906	88.5999	128.906	88.7565	128.906	88.5126	128.906	88.6841	128.906	88.4156	128.906	88.5963	128.906	88.3084	128.906	88.491	128.906	88.1928	128.906	88.3689	128.906	88.0728	128.906	88.2342	128.906	87.956	128.906	88.095	128.906	87.8524	128.906	87.9625	128.906	87.7734	128.906	87.8496	128.906	87.7291	128.906	87.768	128.906	87.7266
133.301	88.8701	133.301	88.8611	133.301	88.8672	133.301	88.8408	133.301	88.8525	133.301	88.8106	133.301	88.8268	133.301	88.7718	133.301	88.7915	133.301	88.7254	133.301	88.7481	133.301	88.6717	133.301	88.6974	133.301	88.6098	133.301	88.6393	133.301	88.538	133.301	88.5727	133.301	88.4543	133.301	88.4955	133.301	88.357	133.301	88.4053	133.301	88.2462	133.301	88.301	133.301	88.124	133.301	88.1833	133.301	87.9957	133.301	88.0562	133.301	87.8697	133.301	87.9269	133.301	87.7568	133.301	87.8056	133.301	87.6685	133.301	87.7042	133.301	87.6149	133.301	87.6338	133.301	87.6028
139.16	88.7142	139.16	88.6863	139.16	88.7273	139.16	88.6454	139.16	88.725	139.16	88.5948	139.16	88.708	139.16	88.5377	139.16	88.6782	139.16	88.4773	139.16	88.6372	139.16	88.4148	139.16	88.5864	139.16	88.3501	139.16	88.5258	139.16	88.2807	139.16	88.4543	139.16	88.2036	139.16	88.3702	139.16	88.1161	139.16	88.272	139.16	88.0173	139.16	88.1599	139.16	87.9091	139.16	88.0368	139.16	87.7969	139.16	87.9079	139.16	87.6885	139.16	87.7812	139.16	87.5936	139.16	87.666	139.16	87.5216	139.16	87.5715	139.16	87.4803	139.16	87.5059	139.16	87.4747
143.555	88.7459	143.555	88.7116	143.555	88.7593	143.555	88.6578	143.555	88.7525	143.555	88.5876	143.555	88.7277	143.555	88.5053	143.555	88.6878	143.555	88.4158	143.555	88.6357	143.555	88.3232	143.555	88.5732	143.555	88.2302	143.555	88.5009	143.555	88.1371	143.555	88.4174	143.555	88.0425	143.555	88.3206	143.555	87.9443	143.555	88.2087	143.555	87.841	143.555	88.0815	143.555	87.7335	143.555	87.9423	143.555	87.6251	143.555	87.7974	143.555	87.5222	143.555	87.6563	143.555	87.4328	143.555	87.5295	143.555	87.3653	143.555	87.4273	143.555	87.3271	143.555	87.3572	143.555	87.3236
147.949	88.739	147.949	88.714	147.949	88.7364	147.949	88.6618	147.949	88.7078	147.949	88.5852	147.949	88.6568	147.949	88.4883	147.949	88.5883	147.949	88.376	147.949	88.5078	147.949	88.2531	147.949	88.4194	147.949	88.1233	147.949	88.3258	147.949	87.989	147.949	88.2268	147.949	87.8512	147.949	88.1206	147.949	87.7106	147.949	88.0041	147.949	87.5689	147.949	87.8757	147.949	87.4296	147.949	87.736	147.949	87.2989	147.949	87.5891	147.949	87.1847	147.949	87.4421	147.949	87.0955	147.949	87.3045	147.949	87.0386	147.949	87.186	147.949	87.0188	147.949	87.095	147.949	87.038
153.809	88.5154	153.809	88.4962	153.809	88.5054	153.809	88.4495	153.809	88.4662	153.809	88.379	153.809	88.3998	153.809	88.2888	153.809	88.3097	153.809	88.1835	153.809	88.2009	153.809	88.0669	153.809	88.0783	153.809	87.9417	153.809	87.9465	153.809	87.8092	153.809	87.8086	153.809	87.6697	153.809	87.6664	153.809	87.5237	153.809	87.521	153.809	87.3732	153.809	87.3738	153.809	87.2225	153.809	87.2277	153.809	87.0781	153.809	87.0878	153.809	86.9483	153.809	86.9607	153.809	86.8409	153.809	86.8534	153.809	86.7618	153.809	86.7718	153.809	86.7147	153.809	86.7201	153.809	86.7008
159.668	88.5498	159.668	88.521	159.668	88.5492	159.668	88.4643	159.668	88.5195	159.668	88.3829	159.668	88.4624	159.668	88.281	159.668	88.3808	159.668	88.1634	159.668	88.2781	159.668	88.0344	159.668	88.1577	159.668	87.8971	159.668	88.0225	159.668	87.7533	159.668	87.8747	159.668	87.6038	159.668	87.7164	159.668	87.4494	159.668	87.5501	159.668	87.2926	159.668	87.3802	159.668	87.1382	159.668	87.213	159.668	86.9935	159.668	87.0567	159.668	86.867	159.668	86.9193	159.668	86.7661	159.668	86.8075	159.668	86.6955	159.668	86.7247	159.668	86.6567	159.668	86.672	159.668	86.6492
165.527	88.4531	165.527	88.425	165.527	88.4503	165.527	88.3669	165.527	88.4177	165.527	88.2818	165.527	88.3583	165.527	88.1746	165.527	88.2768	165.527	88.0509	165.527	88.1781	165.527	87.9165	165.527	88.0669	165.527	87.7762	165.527	87.9466	165.527	87.6335	165.527	87.8188	165.527	87.4903	165.527	87.6839	165.527	87.3478	165.527	87.542	165.527	87.2081	165.527	87.3949	165.527	87.0749	165.527	87.2468	165.527	86.954	165.527	87.1048	165.527	86.8521	165.527	86.9772	165.527	86.7748	165.527	86.871	165.527	86.7251	165.527	86.7904	165.527	86.703	165.527	86.736	165.527	86.707
171.387	88.318	171.387	88.2801	171.387	88.3217	171.387	88.2093	171.387	88.2923	171.387	88.1092	171.387	88.2329	171.387	87.9846	171.387	88.1482	171.387	87.8417	171.387	88.044	171.387	87.6864	171.387	87.9258	171.387	87.5244	171.387	87.7981	171.387	87.3603	171.387	87.6637	171.387	87.1983	171.387	87.5241	171.387	87.0426	171.387	87.3802	171.387	86.8978	171.387	87.2336	171.387	86.7697	171.387	87.088	171.387	86.664	171.387	86.9495	171.387	86.5854	171.387	86.825	171.387	86.5357	171.387	86.7202	171.387	86.5135	171.387	86.6378	171.387	86.5151	171.387	86.5774	171.387	86.5369
177.246	88.1161	177.246	88.0994	177.246	88.0973	177.246	88.0476	177.246	88.0445	177.246	87.9633	177.246	87.9617	177.246	87.8507	177.246	87.8547	177.246	87.7145	177.246	87.7298	177.246	87.56	177.246	87.5932	177.246	87.3919	177.246	87.4499	177.246	87.2149	177.246	87.3028	177.246	87.0338	177.246	87.1535	177.246	86.8545	177.246	87.0029	177.246	86.6841	177.246	86.8533	177.246	86.5309	177.246	86.709	177.246	86.4032	177.246	86.5763	177.246	86.307	177.246	86.4614	177.246	86.2442	177.246	86.3688	177.246	86.2123	177.246	86.2991	177.246	86.2058	177.246	86.2503	177.246	86.2194
183.105	87.9687	183.105	87.9509	183.105	87.9443	183.105	87.8929	183.105	87.8788	183.105	87.7991	183.105	87.7763	183.105	87.6755	183.105	87.6432	183.105	87.5289	183.105	87.4879	183.105	87.3657	183.105	87.3196	183.105	87.1909	183.105	87.147	183.105	87.0086	183.105	86.9777	183.105	86.8229	183.105	86.8175	183.105	86.6397	183.105	86.6707	183.105	86.4674	183.105	86.5405	183.105	86.3165	183.105	86.4294	183.105	86.1977	183.105	86.3387	183.105	86.1178	183.105	86.2681	183.105	86.0771	183.105	86.2148	183.105	86.0692	183.105	86.1738	183.105	86.0834	183.105	86.1398	183.105	86.1092
188.965	88.0016	188.965	87.9871	188.965	87.9676	188.965	87.9257	188.965	87.8859	188.965	87.822	188.965	87.7603	188.965	87.6823	188.965	87.597	188.965	87.5144	188.965	87.4037	188.965	87.3258	188.965	87.1891	188.965	87.1226	188.965	86.9614	188.965	86.9093	188.965	86.729	188.965	86.6898	188.965	86.5001	188.965	86.4695	188.965	86.2842	188.965	86.257	188.965	86.0923	188.965	86.065	188.965	85.9356	188.965	85.9071	188.965	85.8221	188.965	85.7934	188.965	85.7523	188.965	85.7258	188.965	85.7183	188.965	85.6966	188.965	85.7062	188.965	85.6918	188.965	85.7018	188.965	85.6968
196.289	88.1679	196.289	88.1364	196.289	88.1447	196.289	88.0521	196.289	88.0673	196.289	87.9194	196.289	87.9386	196.289	87.7454	196.289	87.7635	196.289	87.5395	196.289	87.5495	196.289	87.3121	196.289	87.3058	196.289	87.074	196.289	87.0434	196.289	86.8342	196.289	86.7741	196.289	86.6	196.289	86.51	196.289	86.3778	196.289	86.2629	196.289	86.1755	196.289	86.0449	196.289	86.0032	196.289	85.8674	196.289	85.871	196.289	85.7398	196.289	85.7848	196.289	85.666	196.289	85.7403	196.289	85.6412	196.289	85.7234	196.289	85.6514	196.289	85.7153	196.289	85.6772	196.289	85.7013
203.613	88.0144	203.613	87.9569	203.613	88.0171	203.613	87.8464	203.613	87.9654	203.613	87.6875	203.613	87.8625	203.613	87.4872	203.613	87.713	203.613	87.2544	203.613	87.5225	203.613	86.9989	203.613	87.2969	203.613	86.7309	203.613	87.0421	203.613	86.4602	203.613	86.7644	203.613	86.1971	203.613	86.4725	203.613	85.9527	203.613	86.18	203.613	85.7389	203.613	85.9053	203.613	85.5674	203.613	85.6701	203.613	85.4461	203.613	85.4934	203.613	85.3757	203.613	85.3835	203.613	85.3478	203.613	85.3343	203.613	85.346	203.613	85.3274	203.613	85.3515	203.613	85.3393	203.613	85.3504
210.938	87.979	210.938	87.9438	210.938	87.9611	210.938	87.8559	210.938	87.8918	210.938	87.7173	210.938	87.7752	210.938	87.5309	210.938	87.6176	210.938	87.3005	210.938	87.4257	210.938	87.0307	210.938	87.206	210.938	86.7275	210.938	86.9635	210.938	86.3989	210.938	86.7023	210.938	86.0556	210.938	86.4271	210.938	85.7131	210.938	86.1456	210.938	85.3932	210.938	85.8712	210.938	85.1225	210.938	85.6216	210.938	84.927	210.938	85.4149	210.938	84.8209	210.938	85.2621	210.938	84.7994	210.938	85.1605	210.938	84.8389	210.938	85.0937	210.938	84.9076	210.938	85.0391	210.938	84.9786
218.262	87.7262	218.262	87.6954	218.262	87.7003	218.262	87.611	218.262	87.618	218.262	87.4787	218.262	87.4844	218.262	87.3049	218.262	87.3081	218.262	87.0955	218.262	87.1006	218.262	86.8553	218.262	86.8734	218.262	86.5888	218.262	86.636	218.262	86.3015	218.262	86.3951	218.262	86.0019	218.262	86.1557	218.262	85.7029	218.262	85.924	218.262	85.4232	218.262	85.7093	218.262	85.1855	218.262	85.524	218.262	85.0121	218.262	85.3792	218.262	84.9165	218.262	85.2785	218.262	84.8967	218.262	85.2146	218.262	84.9341	218.262	85.1704	218.262	85.0005	218.262	85.1263	218.262	85.0696
225.586	87.8647	225.586	87.8273	225.586	87.8368	225.586	87.7293	225.586	87.7422	225.586	87.5783	225.586	87.5836	225.586	87.3826	225.586	87.3672	225.586	87.1501	225.586	87.1021	225.586	86.887	225.586	86.799	225.586	86.5973	225.586	86.4695	225.586	86.2848	225.586	86.1254	225.586	85.9561	225.586	85.7807	225.586	85.6248	225.586	85.454	225.586	85.3141	225.586	85.1696	225.586	85.0542	225.586	84.9541	225.586	84.8739	225.586	84.8265	225.586	84.7867	225.586	84.7871	225.586	84.7819	225.586	84.8127	225.586	84.8275	225.586	84.8657	225.586	84.8831	225.586	84.9081	225.586	84.9155
232.91	87.6977	232.91	87.6566	232.91	87.6752	232.91	87.5567	232.91	87.5883	232.91	87.4067	232.91	87.4404	232.91	87.2174	232.91	87.2377	232.91	86.9991	232.91	86.9882	232.91	86.758	232.91	86.7001	232.91	86.4944	232.91	86.3803	232.91	86.2042	232.91	86.0347	232.91	85.8845	232.91	85.6707	232.91	85.5402	232.91	85.303	232.91	85.1903	232.91	84.9577	232.91	84.8685	232.91	84.6717	232.91	84.6155	232.91	84.4803	232.91	84.462	232.91	84.3983	232.91	84.4117	232.91	84.4072	232.91	84.4363	232.91	84.4616	232.91	84.4881	232.91	84.5109	232.91	84.5214
241.699	87.4343	241.699	87.3784	241.699	87.4254	241.699	87.2601	241.699	87.3539	241.699	87.0872	241.699	87.2258	241.699	86.8729	241.699	87.0492	241.699	86.634	241.699	86.8331	241.699	86.3868	241.699	86.5835	241.699	86.1405	241.699	86.3018	241.699	85.8934	241.699	85.9829	241.699	85.6355	241.699	85.6198	241.699	85.3573	241.699	85.2105	241.699	85.0616	241.699	84.7699	241.699	84.7702	241.699	84.338	241.699	84.5182	241.699	83.9777	241.699	84.3358	241.699	83.7521	241.699	84.2275	241.699	83.6879	241.699	84.1657	241.699	83.755	241.699	84.1062	241.699	83.8857	241.699	84.0143
250.488	87.6359	250.488	87.5615	250.488	87.6278	250.488	87.4067	250.488	87.5403	250.488	87.1789	250.488	87.3816	250.488	86.8911	250.488	87.1654	250.488	86.5624	250.488	86.9095	250.488	86.2158	250.488	86.6328	250.488	85.8734	250.488	86.3496	250.488	85.5496	250.488	86.0645	250.488	85.2466	250.488	85.7702	250.488	84.9559	250.488	85.4527	250.488	84.6673	250.488	85.1009	250.488	84.3796	250.488	84.7184	250.488	84.1056	250.488	84.3299	250.488	83.8688	250.488	83.9781	250.488	83.6887	250.488	83.7074	250.488	83.5693	250.488	83.541	250.488	83.4986	250.488	83.4698	250.488	83.464
259.277	87.4757	259.277	87.4122	259.277	87.4504	259.277	87.2608	259.277	87.341	259.277	87.0275	259.277	87.1579	259.277	86.7247	259.277	86.9186	259.277	86.3722	259.277	86.6471	259.277	85.998	259.277	86.3711	259.277	85.6344	259.277	86.1158	259.277	85.3105	259.277	85.8944	259.277	85.0418	259.277	85.7025	259.277	84.8263	259.277	85.5196	259.277	84.6503	259.277	85.3198	259.277	84.4998	259.277	85.0864	259.277	84.3684	259.277	84.8221	259.277	84.2567	259.277	84.5515	259.277	84.1668	259.277	84.3134	259.277	84.0981	259.277	84.1423	259.277	84.0496	259.277	84.0511	259.277	84.028
268.066	87.3352	268.066	87.2237	268.066	87.3323	268.066	86.9986	268.066	87.2171	268.066	86.6656	268.066	86.9938	268.066	86.2389	268.066	86.6705	268.066	85.7435	268.066	86.2649	268.066	85.2168	268.066	85.8104	268.066	84.7064	268.066	85.3609	268.066	84.2628	268.066	84.9858	268.066	83.9283	268.066	84.7463	268.066	83.7267	268.066	84.663	268.066	83.6579	268.066	84.7002	268.066	83.6997	268.066	84.786	268.066	83.8131	268.066	84.8483	268.066	83.9526	268.066	84.8427	268.066	84.0809	268.066	84.7614	268.066	84.1825	268.066	84.6291	268.066	84.2679	268.066	84.4854	268.066	84.3627
276.855	87.6923	276.855	87.6732	276.855	87.6017	276.855	87.5335	276.855	87.4129	276.855	87.2621	276.855	87.1375	276.855	86.8499	276.855	86.7851	276.855	86.295	276.855	86.3611	276.855	85.6131	276.855	85.8678	276.855	84.852	276.855	85.3151	276.855	84.1015	276.855	84.7397	276.855	83.4835	276.855	84.2235	276.855	83.1016	276.855	83.8864	276.855	82.9834	276.855	83.8255	276.855	83.0793	276.855	84.0347	276.855	83.3206	276.855	84.4007	276.855	83.658	276.855	84.7819	276.855	84.0539	276.855	85.0761	276.855	84.4619	276.855	85.2331	276.855	84.8261	276.855	85.2381	276.855	85.0963
287.109	88.0375	287.109	88.078	287.109	87.9043	287.109	88.0248	287.109	87.6773	287.109	87.8733	287.109	87.3582	287.109	87.6158	287.109	86.9578	287.109	87.2419	287.109	86.5007	287.109	86.7398	287.109	86.0213	287.109	86.1003	287.109	85.5503	287.109	85.3295	287.109	85.1016	287.109	84.4709	287.109	84.6791	287.109	83.6328	287.109	84.3056	287.109	82.9871	287.109	84.0467	287.109	82.6894	287.109	83.9846	287.109	82.759	287.109	84.1389	287.109	83.0752	287.109	84.4213	287.109	83.4937	287.109	84.6902	287.109	83.9217	287.109	84.8342	287.109	84.31	287.109	84.8074	287.109	84.6197
297.363	88.1993	297.363	88.2177	297.363	88.096	297.363	88.1597	297.363	87.8953	297.363	88.0297	297.363	87.5806	297.363	87.827	297.363	87.131	297.363	87.543	297.363	86.5264	297.363	87.1609	297.363	85.7586	297.363	86.6596	297.363	84.8489	297.363	86.0239	297.363	83.8701	297.363	85.2668	297.363	82.9622	297.363	84.4612	297.363	82.3132	297.363	83.7663	297.363	82.0814	297.363	83.3868	297.363	82.2973	297.363	83.4246	297.363	82.8422	297.363	83.7772	297.363	83.523	297.363	84.2398	297.363	84.1635	297.363	84.6504	297.363	84.6524	297.363	84.9257	297.363	84.9427	297.363	85.0295
307.617	87.8472	307.617	87.8223	307.617	87.7962	307.617	87.7155	307.617	87.6772	307.617	87.522	307.617	87.4971	307.617	87.2392	307.617	87.2577	307.617	86.867	307.617	86.9508	307.617	86.4096	307.617	86.5559	307.617	85.8764	307.617	86.045	307.617	85.284	307.617	85.3973	307.617	84.6597	307.617	84.6212	307.617	84.0546	307.617	83.7812	307.617	83.557	307.617	83.0155	307.617	83.2846	307.617	82.5092	307.617	83.3213	307.617	82.3993	307.617	83.6368	307.617	82.6806	307.617	84.0847	307.617	83.2168	307.617	84.4849	307.617	83.8251	307.617	84.6984	307.617	84.3422	307.617	84.6526
319.336	87.6372	319.336	87.6112	319.336	87.5726	319.336	87.5006	319.336	87.4107	319.336	87.3082	319.336	87.1454	319.336	87.0337	319.336	86.7737	319.336	86.6723	319.336	86.2952	319.336	86.2124	319.336	85.7101	319.336	85.6336	319.336	85.0163	319.336	84.9093	319.336	84.2148	319.336	84.0223	319.336	83.3322	319.336	83.0024	319.336	82.4664	319.336	81.993	319.336	81.8231	319.336	81.2953	319.336	81.6343	319.336	81.2104	319.336	81.9358	319.336	81.7023	319.336	82.5096	319.336	82.4325	319.336	83.0949	319.336	83.0995	319.336	83.5364	319.336	83.5626	319.336	83.7732	319.336	83.7857
329.59	87.4991	329.59	87.5077	329.59	87.4357	329.59	87.4669	329.59	87.3108	329.59	87.3773	329.59	87.1181	329.59	87.2313	329.59	86.852	329.59	87.014	329.59	86.506	329.59	86.7069	329.59	86.0703	329.59	86.2934	329.59	85.5273	329.59	85.7619	329.59	84.8509	329.59	85.1075	329.59	84.0188	329.59	84.3391	329.59	83.0508	329.59	83.4996	329.59	82.0854	329.59	82.7015	329.59	81.4393	329.59	82.1422	329.59	81.4288	329.59	82.0109	329.59	81.9834	329.59	82.307	329.59	82.7129	329.59	82.8187	329.59	83.2967	329.59	83.3	329.59	83.5968	329.59	83.5873
341.309	87.4115	341.309	87.3818	341.309	87.3353	341.309	87.258	341.309	87.1493	341.309	87.06	341.309	86.8568	341.309	86.8119	341.309	86.4681	341.309	86.532	341.309	85.9984	341.309	86.2177	341.309	85.4644	341.309	85.8377	341.309	84.8787	341.309	85.3428	341.309	84.2472	341.309	84.6982	341.309	83.5752	341.309	83.934	341.309	82.8903	341.309	83.1989	341.309	82.2815	341.309	82.7483	341.309	81.9229	341.309	82.7636	341.309	81.9927	341.309	83.1579	341.309	82.4877	341.309	83.6793	341.309	83.1866	341.309	84.1268	341.309	83.8335	341.309	84.4023	341.309	84.2747	341.309	84.4613
353.027	87.8115	353.027	87.7299	353.027	87.819	353.027	87.576	353.027	87.7466	353.027	87.3518	353.027	87.5834	353.027	87.0642	353.027	87.3166	353.027	86.7237	353.027	86.9327	353.027	86.3363	353.027	86.4162	353.027	85.8912	353.027	85.7416	353.027	85.3555	353.027	84.8665	353.027	84.6858	353.027	83.7377	353.027	83.8594	353.027	82.3369	353.027	82.932	353.027	80.817	353.027	82.1174	353.027	79.7375	353.027	81.7752	353.027	79.8235	353.027	82.0899	353.027	80.8903	353.027	82.799	353.027	82.1431	353.027	83.4947	353.027	83.1401	353.027	83.9341	353.027	83.7712	353.027	84.0327
366.211	88.1768	366.211	88.0763	366.211	88.185	366.211	87.8882	366.211	88.0997	366.211	87.616	366.211	87.9248	366.211	87.2591	366.211	87.6665	366.211	86.8136	366.211	87.3258	366.211	86.275	366.211	86.8931	366.211	85.6405	366.211	86.347	366.211	84.9059	366.211	85.6575	366.211	84.0617	366.211	84.788	366.211	83.1012	366.211	83.7006	366.211	82.0638	366.211	82.3842	366.211	81.1215	366.211	80.9514	366.211	80.6086	366.211	79.8221	366.211	80.7597	366.211	79.6258	366.211	81.3831	366.211	80.3782	366.211	82.0675	366.211	81.4085	366.211	82.515	366.211	82.2035	366.211	82.5794
379.395	87.5233	379.395	87.4821	379.395	87.4975	379.395	87.3792	379.395	87.4063	379.395	87.2266	379.395	87.2554	379.395	87.0365	379.395	87.0521	379.395	86.8105	379.395	86.8033	379.395	86.5313	379.395	86.507	379.395	86.1605	379.395	86.1403	379.395	85.6476	379.395	85.6514	379.395	84.9448	379.395	84.9731	379.395	84.032	379.395	84.0598	379.395	82.9564	379.395	82.9472	379.395	81.8967	379.395	81.8382	379.395	81.1942	379.395	81.1422	379.395	81.1597	379.395	81.2042	379.395	81.7213	379.395	81.8676	379.395	82.4878	379.395	82.6563	379.395	83.1028	379.395	83.2103	379.395	83.3683
392.578	87.079	392.578	87.0034	392.578	87.0316	392.578	86.814	392.578	86.8674	392.578	86.5364	392.578	86.6064	392.578	86.2083	392.578	86.2764	392.578	85.8693	392.578	85.9048	392.578	85.5392	392.578	85.5101	392.578	85.1972	392.578	85.0923	392.578	84.7802	392.578	84.6242	392.578	84.2096	392.578	84.052	392.578	83.4419	392.578	83.318	392.578	82.5419	392.578	82.4169	392.578	81.7697	392.578	81.4955	392.578	81.5236	392.578	80.9257	392.578	81.9402	392.578	81.0655	392.578	82.6876	392.578	81.7942	392.578	83.3558	392.578	82.6664	392.578	83.7245	392.578	83.3563	392.578	83.7245
405.762	87.6511	405.762	87.5629	405.762	87.5801	405.762	87.3118	405.762	87.3593	405.762	86.9062	405.762	87.0036	405.762	86.3784	405.762	86.5341	405.762	85.7925	405.762	85.9754	405.762	85.2284	405.762	85.3513	405.762	84.7303	405.762	84.6777	405.762	84.2564	405.762	83.9546	405.762	83.6869	405.762	83.1539	405.762	82.8875	405.762	82.2275	405.762	81.7872	405.762	81.1768	405.762	80.5006	405.762	80.2108	405.762	79.5299	405.762	79.8183	405.762	79.5644	405.762	80.2692	405.762	80.4808	405.762	81.1553	405.762	81.5206	405.762	81.9557	405.762	82.2392	405.762	82.4366	405.762	82.5392
420.41	87.7587	420.41	87.6855	420.41	87.7289	420.41	87.5094	420.41	87.6051	420.41	87.2347	420.41	87.407	420.41	86.8685	420.41	87.16	420.41	86.422	420.41	86.8849	420.41	85.9119	420.41	86.5846	420.41	85.3543	420.41	86.2321	420.41	84.7498	420.41	85.7656	420.41	84.0733	420.41	85.0964	420.41	83.2831	420.41	84.1242	420.41	82.3568	420.41	82.7637	420.41	81.3523	420.41	81.016	420.41	80.4765	420.41	79.1988	420.41	80.054	420.41	78.2646	420.41	80.2393	420.41	78.8558	420.41	80.7875	420.41	80.0821	420.41	81.2858	420.41	81.0302	420.41	81.4232
435.059	87.8878	435.059	87.8005	435.059	87.8481	435.059	87.6151	435.059	87.661	435.059	87.3385	435.059	87.3329	435.059	86.9427	435.059	86.8909	435.059	86.3903	435.059	86.3621	435.059	85.675	435.059	85.7592	435.059	84.8366	435.059	85.0874	435.059	83.9237	435.059	84.3634	435.059	82.9379	435.059	83.6207	435.059	81.8521	435.059	82.887	435.059	80.7555	435.059	82.1749	435.059	80.0066	435.059	81.5391	435.059	79.9946	435.059	81.1586	435.059	80.583	435.059	81.2465	435.059	81.3143	435.059	81.7461	435.059	81.9304	435.059	82.3108	435.059	82.3822	435.059	82.6401	435.059	82.6446
451.172	88.3906	451.172	88.2632	451.172	88.3603	451.172	87.9913	451.172	88.1794	451.172	87.6244	451.172	87.8584	451.172	87.2376	451.172	87.4112	451.172	86.8851	451.172	86.8684	451.172	86.5573	451.172	86.2774	451.172	86.1892	451.172	85.6685	451.172	85.7023	451.172	85.0059	451.172	85.0277	451.172	84.182	451.172	84.1	451.172	83.0717	451.172	82.8715	451.172	81.6296	451.172	81.449	451.172	80.0653	451.172	80.4636	451.172	79.0468	451.172	80.8802	451.172	79.2669	451.172	82.3054	451.172	80.4651	451.172	83.5668	451.172	81.9204	451.172	84.1425	451.172	83.1755	451.172	83.9756
465.82	87.7702	465.82	87.7377	465.82	87.7101	465.82	87.5796	465.82	87.567	465.82	87.2575	465.82	87.3335	465.82	86.7651	465.82	87.0015	465.82	86.1572	465.82	86.5756	465.82	85.5323	465.82	86.0801	465.82	84.9563	465.82	85.5497	465.82	84.3945	465.82	84.9954	465.82	83.7413	465.82	84.3602	465.82	82.9137	465.82	83.5181	465.82	81.9227	465.82	82.359	465.82	80.9168	465.82	80.9774	465.82	80.2132	465.82	79.9068	465.82	80.1807	465.82	79.8034	465.82	80.8054	465.82	80.4735	465.82	81.5935	465.82	81.264	465.82	82.0944	465.82	81.8581	465.82	82.164
483.398	87.5503	483.398	87.455	483.398	87.4502	483.398	87.196	483.398	87.1645	483.398	86.8226	483.398	86.75	483.398	86.3772	483.398	86.2902	483.398	85.8896	483.398	85.8484	483.398	85.3818	483.398	85.4242	483.398	84.8539	483.398	84.952	483.398	84.2399	483.398	84.3469	483.398	83.3858	483.398	83.5474	483.398	82.0928	483.398	82.5229	483.398	80.2295	483.398	81.2833	483.398	78.0799	483.398	80.0092	483.398	77.0668	483.398	79.3426	483.398	78.1497	483.398	79.9688	483.398	79.8564	483.398	81.344	483.398	81.2645	483.398	82.4939	483.398	82.2843	483.398	83.0169	483.398	82.9046
499.512	87.8013	499.512	87.6923	499.512	87.7307	499.512	87.4184	499.512	87.4812	499.512	87.0047	499.512	87.0683	499.512	86.4737	499.512	86.5241	499.512	85.8392	499.512	85.9009	499.512	85.1186	499.512	85.2608	499.512	84.3516	499.512	84.6343	499.512	83.5873	499.512	83.9755	499.512	82.8189	499.512	83.1624	499.512	81.9295	499.512	82.048	499.512	80.7533	499.512	80.539	499.512	79.2843	499.512	78.7645	499.512	78.0354	499.512	77.453	499.512	77.9997	499.512	77.7044	499.512	79.1984	499.512	79.1721	499.512	80.6136	499.512	80.6705	499.512	81.6001	499.512	81.644	499.512	81.9579
517.09	86.9909	517.09	86.8192	517.09	86.9467	517.09	86.4646	517.09	86.6791	517.09	85.9953	517.09	86.2146	517.09	85.5094	517.09	85.635	517.09	85.0837	517.09	85.062	517.09	84.718	517.09	84.5796	517.09	84.3444	517.09	84.1545	517.09	83.8688	517.09	83.6557	517.09	83.1846	517.09	82.9314	517.09	82.1757	517.09	81.8529	517.09	80.7654	517.09	80.3494	517.09	79.1081	517.09	78.5715	517.09	78.0417	517.09	77.3112	517.09	78.6544	517.09	77.674	517.09	80.2831	517.09	79.2226	517.09	81.7165	517.09	80.835	517.09	82.5108	517.09	82.0145	517.09	82.5988
536.133	86.4843	536.133	86.3979	536.133	86.3779	536.133	86.0982	536.133	86.0967	536.133	85.5755	536.133	85.6456	536.133	84.8474	536.133	85.0275	536.133	83.9891	536.133	84.2822	536.133	83.1572	536.133	83.5187	536.133	82.5169	536.133	82.859	536.133	82.0413	536.133	82.2865	536.133	81.4425	536.133	81.5916	536.133	80.352	536.133	80.4953	536.133	78.5028	536.133	78.7889	536.133	76.0762	536.133	76.6189	536.133	75.0777	536.133	75.4645	536.133	77.2066	536.133	76.869	536.133	79.7511	536.133	78.9674	536.133	81.3655	536.133	80.4857	536.133	82.0239	536.133	81.4291	536.133	81.9633
555.176	87.63	555.176	87.5989	555.176	87.482	555.176	87.3978	555.176	87.1717	555.176	87.0286	555.176	86.7512	555.176	86.4851	555.176	86.2636	555.176	85.7939	555.176	85.7013	555.176	85.0277	555.176	85.0387	555.176	84.2285	555.176	84.2959	555.176	83.3237	555.176	83.5308	555.176	82.1825	555.176	82.7431	555.176	80.7335	555.176	81.7918	555.176	78.9385	555.176	80.4043	555.176	76.6292	555.176	78.2775	555.176	73.9367	555.176	75.6753	555.176	73.7828	555.176	75.4171	555.176	76.715	555.176	78.0096	555.176	79.1203	555.176	80.1464	555.176	80.5286	555.176	81.1471	555.176	81.2049
574.219	90.0193	574.219	89.8564	574.219	89.9368	574.219	89.4744	574.219	89.5808	574.219	88.9042	574.219	88.9666	574.219	88.2206	574.219	88.1985	574.219	87.5477	574.219	87.4509	574.219	87.0016	574.219	86.8615	574.219	86.6306	574.219	86.4207	574.219	86.3548	574.219	85.9847	574.219	85.9011	574.219	85.3639	574.219	84.8348	574.219	84.3427	574.219	82.6435	574.219	82.6343	574.219	78.7919	574.219	79.8919	574.219	74.1892	574.219	76.4301	574.219	75.6806	574.219	76.4017	574.219	79.2802	574.219	79.7563	574.219	81.8777	574.219	82.4095	574.219	83.5736	574.219	83.9043	574.219	84.2837
594.727	91.5851	594.727	91.4166	594.727	91.4606	594.727	90.9628	594.727	91.0717	594.727	90.2664	594.727	90.4612	594.727	89.4002	594.727	89.667	594.727	88.4735	594.727	88.7621	594.727	87.627	594.727	87.9258	594.727	86.9814	594.727	87.3741	594.727	86.5901	594.727	87.1048	594.727	86.4005	594.727	86.8088	594.727	86.158	594.727	86.0416	594.727	85.3958	594.727	84.3448	594.727	83.5556	594.727	81.2862	594.727	80.3249	594.727	77.3271	594.727	78.8615	594.727	77.6084	594.727	82.3435	594.727	81.0301	594.727	85.1962	594.727	83.6747	594.727	86.4585	594.727	85.4638	594.727	86.4505
615.234	91.0916	615.234	91.0276	615.234	90.9608	615.234	90.7367	615.234	90.6567	615.234	90.1945	615.234	90.1671	615.234	89.395	615.234	89.4677	615.234	88.4051	615.234	88.604	615.234	87.4531	615.234	87.7582	615.234	86.8197	615.234	87.1366	615.234	86.4535	615.234	86.7269	615.234	85.9607	615.234	86.3013	615.234	84.9853	615.234	85.6201	615.234	83.298	615.234	84.4427	615.234	80.6088	615.234	82.3773	615.234	76.4391	615.234	78.9001	615.234	73.4562	615.234	75.9104	615.234	77.6809	615.234	79.0699	615.234	81.2063	615.234	82.2038	615.234	83.008	615.234	83.5767	615.234	83.7281
637.207	91.1633	637.207	91.0727	637.207	90.995	637.207	90.7252	637.207	90.5544	637.207	90.0986	637.207	89.8485	637.207	89.1757	637.207	88.9308	637.207	88.011	637.207	87.8925	637.207	86.7967	637.207	86.8536	637.207	85.8557	637.207	86.0461	637.207	85.4485	637.207	85.7636	637.207	85.4651	637.207	85.8479	637.207	85.398	637.207	85.6541	637.207	84.5985	637.207	84.5989	637.207	82.3607	637.207	82.2506	637.207	77.7628	637.207	78.3888	637.207	74.4513	637.207	76.3449	637.207	79.7585	637.207	80.055	637.207	83.2941	637.207	83.2865	637.207	85.0435	637.207	85.0334	637.207	85.5767
659.18	90.4264	659.18	90.268	659.18	90.354	659.18	89.8763	659.18	90.0529	659.18	89.2736	659.18	89.5159	659.18	88.4987	659.18	88.7316	659.18	87.5506	659.18	87.6983	659.18	86.4317	659.18	86.4884	659.18	85.3427	659.18	85.3772	659.18	84.6366	659.18	84.7772	659.18	84.2247	659.18	84.6601	659.18	83.5161	659.18	84.3862	659.18	82.0601	659.18	83.3145	659.18	79.7198	659.18	81.0519	659.18	76.4916	659.18	77.229	659.18	73.1862	659.18	72.2876	659.18	74.8444	659.18	74.9773	659.18	78.8207	659.18	79.5487	659.18	81.3367	659.18	81.8378	659.18	82.3388
682.617	90.1322	682.617	90.0997	682.617	89.9917	682.617	89.8369	682.617	89.6802	682.617	89.2468	682.617	89.135	682.617	88.2923	682.617	88.2666	682.617	87.1291	682.617	87.0725	682.617	86.0208	682.617	85.7265	682.617	85.0671	682.617	84.5287	682.617	84.3221	682.617	83.802	682.617	83.9883	682.617	83.7351	682.617	84.0413	682.617	83.9488	682.617	83.9873	682.617	83.614	682.617	83.0018	682.617	81.9089	682.617	79.9945	682.617	77.7271	682.617	74.3148	682.617	70.6934	682.617	77.1521	682.617	76.4687	682.617	81.6852	682.617	80.8647	682.617	83.5507	682.617	82.9217	682.617	83.7958
707.52	90.4697	707.52	90.3123	707.52	90.3304	707.52	89.911	707.52	89.9122	707.52	89.2911	707.52	89.2918	707.52	88.4015	707.52	88.4702	707.52	87.2151	707.52	87.3151	707.52	85.8248	707.52	85.7746	707.52	84.4027	707.52	84.2377	707.52	83.3	707.52	83.467	707.52	83.0334	707.52	83.4766	707.52	83.2133	707.52	83.5066	707.52	82.6702	707.52	82.9853	707.52	80.6575	707.52	81.361	707.52	76.808	707.52	77.8128	707.52	70.3178	707.52	71.4843	707.52	73.1925	707.52	74.0696	707.52	79.2721	707.52	79.6427	707.52	81.972	707.52	82.2712	707.52	82.8911
732.422	89.5145	732.422	89.4193	732.422	89.4341	732.422	89.1077	732.422	89.1695	732.422	88.5524	732.422	88.6159	732.422	87.7107	732.422	87.7116	732.422	86.5079	732.422	86.5714	732.422	84.963	732.422	85.3165	732.422	83.5442	732.422	83.9264	732.422	83.0042	732.422	82.7631	732.422	83.0751	732.422	82.6072	732.422	83.0027	732.422	82.9579	732.422	82.6028	732.422	82.5898	732.422	81.4152	732.422	80.7887	732.422	78.026	732.422	77.0282	732.422	69.6911	732.422	70.9097	732.422	71.5127	732.422	72.0834	732.422	77.2651	732.422	77.8451	732.422	80.0475	732.422	80.814	732.422	81.361
757.324	89.5262	757.324	89.5433	757.324	89.2461	757.324	89.2762	757.324	88.7919	757.324	88.7426	757.324	88.276	757.324	87.9465	757.324	87.656	757.324	86.8933	757.324	86.6829	757.324	85.676	757.324	85.1508	757.324	84.34	757.324	83.1654	757.324	82.7934	757.324	81.3896	757.324	81.6356	757.324	80.8224	757.324	81.9476	757.324	81.2409	757.324	82.5369	757.324	81.5825	757.324	81.7859	757.324	80.9194	757.324	79.0441	757.324	77.9849	757.324	73.7833	757.324	70.1295	757.324	71.3542	757.324	71.391	757.324	78.0673	757.324	77.4048	757.324	81.3909	757.324	80.3804	757.324	81.8759
785.156	87.7007	785.156	87.9231	785.156	87.4797	785.156	87.8477	785.156	87.3771	785.156	87.244	785.156	87.159	785.156	86.0822	785.156	86.5321	785.156	84.4524	785.156	85.6234	785.156	82.3965	785.156	84.7941	785.156	79.8687	785.156	83.8012	785.156	77.325	785.156	82.0368	785.156	77.2443	785.156	80.1712	785.156	77.8315	785.156	80.2515	785.156	76.8049	785.156	80.7826	785.156	76.4775	785.156	80.1845	785.156	75.38	785.156	78.7518	785.156	71.3567	785.156	75.8886	785.156	78.4347	785.156	66.8725	785.156	82.1912	785.156	72.8186	785.156	82.7444	785.156	78.8509	785.156	81.4383
811.523	89.6726	811.523	89.1244	811.523	89.8867	811.523	88.4356	811.523	89.6687	811.523	87.7817	811.523	89.0233	811.523	87.1199	811.523	88.0681	811.523	86.2307	811.523	86.9225	811.523	84.8523	811.523	85.6945	811.523	83.082	811.523	84.5929	811.523	81.6653	811.523	83.3374	811.523	80.476	811.523	81.719	811.523	79.6077	811.523	81.6688	811.523	79.6163	811.523	82.3958	811.523	78.0291	811.523	81.0008	811.523	73.0755	811.523	76.328	811.523	66.2829	811.523	68.1551	811.523	69.5814	811.523	73.7292	811.523	74.2757	811.523	78.3765	811.523	77.8859	811.523	80.4621	811.523	80.2379
840.82	89.1453	840.82	88.9672	840.82	89.0772	840.82	88.5021	840.82	88.7945	840.82	87.7543	840.82	88.3748	840.82	86.8639	840.82	87.8622	840.82	85.8864	840.82	87.2113	840.82	84.5706	840.82	86.2979	840.82	82.873	840.82	84.9455	840.82	81.3352	840.82	83.4086	840.82	80.1302	840.82	82.4332	840.82	79.0876	840.82	81.7749	840.82	78.581	840.82	81.095	840.82	78.5698	840.82	80.4862	840.82	78.196	840.82	78.8568	840.82	76.0447	840.82	74.6963	840.82	69.3905	840.82	64.1383	840.82	63.8514	840.82	67.1044	840.82	71.4139	840.82	73.8162	840.82	74.5112
870.117	87.8526	870.117	87.7934	870.117	87.6654	870.117	87.5398	870.117	87.2349	870.117	87.0541	870.117	86.5429	870.117	85.9776	870.117	85.44	870.117	84.0785	870.117	83.8881	870.117	82.0124	870.117	82.3555	870.117	80.3077	870.117	81.1922	870.117	78.3938	870.117	80.028	870.117	77.6728	870.117	79.221	870.117	77.5689	870.117	78.9707	870.117	76.8156	870.117	78.8272	870.117	77.8558	870.117	79.6851	870.117	77.4191	870.117	80.361	870.117	72.7443	870.117	79.4245	870.117	64.3902	870.117	75.8918	870.117	68.6949	870.117	69.5897	870.117	72.4026	870.117	67.5137	870.117	71.0301
900.879	89.2851	900.879	88.9845	900.879	89.3522	900.879	88.4018	900.879	89.2034	900.879	87.6298	900.879	88.7925	900.879	86.8685	900.879	88.1105	900.879	86.1458	900.879	87.2398	900.879	85.0968	900.879	86.3703	900.879	83.5945	900.879	85.3716	900.879	82.2764	900.879	83.6751	900.879	80.7277	900.879	81.9702	900.879	78.4697	900.879	81.2752	900.879	77.7429	900.879	80.244	900.879	77.4956	900.879	79.4727	900.879	75.7188	900.879	78.3742	900.879	73.2739	900.879	76.423	900.879	71.6249	900.879	76.4145	900.879	72.9828	900.879	77.6555	900.879	76.5084	900.879	79.6707	900.879	79.4919
933.105	89.4028	933.105	89.4212	933.105	89.1883	933.105	89.0729	933.105	88.6199	933.105	88.0618	933.105	87.6845	933.105	86.4922	933.105	86.7001	933.105	84.6973	933.105	85.5841	933.105	82.9016	933.105	83.7087	933.105	81.159	933.105	81.3962	933.105	79.7685	933.105	80.1236	933.105	80.7528	933.105	80.0985	933.105	81.7852	933.105	81.0769	933.105	80.1385	933.105	81.383	933.105	78.1244	933.105	80.5086	933.105	78.5584	933.105	79.1214	933.105	78.5917	933.105	76.293	933.105	78.2038	933.105	73.3987	933.105	77.3968	933.105	74.1523	933.105	78.343	933.105	76.564	933.105	78.4962
965.332	88.1483	965.332	87.7801	965.332	88.0969	965.332	87.1863	965.332	87.8315	965.332	86.7617	965.332	87.4993	965.332	86.44	965.332	86.8875	965.332	85.7197	965.332	85.7246	965.332	84.0363	965.332	84.0191	965.332	81.7955	965.332	82.0525	965.332	80.3624	965.332	80.1929	965.332	78.8108	965.332	79.1825	965.332	78.305	965.332	80.1234	965.332	78.4957	965.332	80.3486	965.332	76.3741	965.332	77.6236	965.332	71.6718	965.332	73.4132	965.332	60.6163	965.332	74.055	965.332	74.6913	965.332	77.018	965.332	79.2154	965.332	78.9734	965.332	79.8585	965.332	80.154	965.332	80.0694
1,000.49	87.4416	1,000.49	87.422	1,000.49	87.2298	1,000.49	86.9235	1,000.49	86.7	1,000.49	85.8103	1,000.49	85.7158	1,000.49	84.6546	1,000.49	84.5196	1,000.49	84.1851	1,000.49	83.7325	1,000.49	83.5588	1,000.49	83.1971	1,000.49	81.2951	1,000.49	81.6984	1,000.49	76.7396	1,000.49	77.8407	1,000.49	72.5037	1,000.49	73.8089	1,000.49	76.7659	1,000.49	77.6406	1,000.49	79.1107	1,000.49	79.8585	1,000.49	77.3386	1,000.49	80.1198	1,000.49	71.7435	1,000.49	77.8015	1,000.49	61.0362	1,000.49	70.757	1,000.49	75.438	1,000.49	77.6507	1,000.49	79.7382	1,000.49	81.7558	1,000.49	82.5671	1,000.49	83.783	1,000.49	84.3619
1,035.64	89.0408	1,035.64	88.8374	1,035.64	88.3824	1,035.64	88.0272	1,035.64	87.1712	1,035.64	87.2762	1,035.64	85.906	1,035.64	86.5132	1,035.64	84.5973	1,035.64	85.2314	1,035.64	83.1574	1,035.64	84.1935	1,035.64	82.1808	1,035.64	83.5753	1,035.64	81.6071	1,035.64	81.7699	1,035.64	79.4489	1,035.64	78.8632	1,035.64	73.2232	1,035.64	76.7735	1,035.64	73.7301	1,035.64	78.0814	1,035.64	78.9641	1,035.64	80.4379	1,035.64	80.5202	1,035.64	79.3225	1,035.64	79.2849	1,035.64	73.794	1,035.64	74.3055	1,035.64	57.9833	1,035.64	59.4523	1,035.64	76.8225	1,035.64	76.2628	1,035.64	80.8716	1,035.64	80.6618	1,035.64	81.7688
1,072.27	88.3473	1,072.27	88.1394	1,072.27	88.099	1,072.27	87.653	1,072.27	87.3841	1,072.27	86.7761	1,072.27	86.3973	1,072.27	85.5129	1,072.27	85.3024	1,072.27	84.5261	1,072.27	84.3847	1,072.27	83.8267	1,072.27	83.6142	1,072.27	82.519	1,072.27	82.3416	1,072.27	79.9315	1,072.27	80.5648	1,072.27	75.7837	1,072.27	78.1013	1,072.27	71.4291	1,072.27	74.426	1,072.27	72.7233	1,072.27	72.0922	1,072.27	74.3666	1,072.27	71.7082	1,072.27	72.9425	1,072.27	71.3575	1,072.27	65.9789	1,072.27	64.5595	1,072.27	63.615	1,072.27	70.1078	1,072.27	74.957	1,072.27	76.9392	1,072.27	79.1111	1,072.27	79.3652	1,072.27	80.2007
1,108.89	88.2776	1,108.89	87.9439	1,108.89	88.2575	1,108.89	87.3922	1,108.89	87.7671	1,108.89	86.4034	1,108.89	86.9198	1,108.89	85.1099	1,108.89	85.7613	1,108.89	84.0373	1,108.89	84.3288	1,108.89	83.2495	1,108.89	82.9692	1,108.89	82.6495	1,108.89	82.2148	1,108.89	81.2983	1,108.89	80.9212	1,108.89	78.6371	1,108.89	77.4042	1,108.89	76.7172	1,108.89	73.3388	1,108.89	76.2108	1,108.89	73.1291	1,108.89	76.5751	1,108.89	73.4344	1,108.89	76.0496	1,108.89	72.6618	1,108.89	73.4629	1,108.89	65.9995	1,108.89	61.734	1,108.89	67.639	1,108.89	71.5995	1,108.89	76.4576	1,108.89	76.4523	1,108.89	79.3748	1,108.89	78.7088
1,148.44	88.5843	1,148.44	88.5816	1,148.44	88.0983	1,148.44	88.1363	1,148.44	87.1387	1,148.44	87.072	1,148.44	85.84	1,148.44	85.1337	1,148.44	84.3665	1,148.44	82.9948	1,148.44	82.4733	1,148.44	81.2498	1,148.44	80.7661	1,148.44	80.2786	1,148.44	80.2644	1,148.44	79.8559	1,148.44	79.7332	1,148.44	77.6071	1,148.44	78.2615	1,148.44	72.8224	1,148.44	74.3814	1,148.44	72.1931	1,148.44	73.0642	1,148.44	75.6243	1,148.44	73.8931	1,148.44	76.2371	1,148.44	72.7571	1,148.44	72.1949	1,148.44	70.4839	1,148.44	65.4394	1,148.44	47.8584	1,148.44	72.0524	1,148.44	71.7665	1,148.44	76.7822	1,148.44	76.8753	1,148.44	78.0074
1,189.45	87.7592	1,189.45	87.6505	1,189.45	87.7233	1,189.45	87.246	1,189.45	87.143	1,189.45	86.0891	1,189.45	86.1839	1,189.45	84.5796	1,189.45	84.9931	1,189.45	83.0151	1,189.45	83.292	1,189.45	81.2556	1,189.45	81.2721	1,189.45	79.7087	1,189.45	79.697	1,189.45	78.6621	1,189.45	78.4666	1,189.45	76.8872	1,189.45	76.7207	1,189.45	74.5318	1,189.45	76.1673	1,189.45	73.1513	1,189.45	75.6051	1,189.45	74.3072	1,189.45	76.2165	1,189.45	76.0959	1,189.45	76.2276	1,189.45	76.1002	1,189.45	73.9085	1,189.45	69.8383	1,189.45	68.5852	1,189.45	64.7048	1,189.45	69.4289	1,189.45	73.2777	1,189.45	75.2486	1,189.45	76.5977
1,230.47	87.0254	1,230.47	86.9487	1,230.47	86.7934	1,230.47	86.4117	1,230.47	86.222	1,230.47	85.2769	1,230.47	85.2565	1,230.47	83.8618	1,230.47	83.8259	1,230.47	82.1898	1,230.47	81.7732	1,230.47	80.3209	1,230.47	80.186	1,230.47	78.7013	1,230.47	79.5329	1,230.47	77.3629	1,230.47	78.6391	1,230.47	76.4184	1,230.47	77.2555	1,230.47	74.5874	1,230.47	74.9132	1,230.47	72.4325	1,230.47	74.3342	1,230.47	71.168	1,230.47	75.1222	1,230.47	72.6903	1,230.47	76.0629	1,230.47	71.5135	1,230.47	74.0947	1,230.47	66.8677	1,230.47	67.3952	1,230.47	58.9251	1,230.47	67.199	1,230.47	70.9275	1,230.47	73.4755	1,230.47	74.4484
1,274.41	86.0517	1,274.41	86.1067	1,274.41	85.7081	1,274.41	85.3725	1,274.41	85.4644	1,274.41	84.3258	1,274.41	84.8511	1,274.41	83.3814	1,274.41	83.3642	1,274.41	81.4588	1,274.41	81.5431	1,274.41	79.4418	1,274.41	79.936	1,274.41	78.9686	1,274.41	78.2785	1,274.41	78.653	1,274.41	77.1745	1,274.41	77.5421	1,274.41	74.4564	1,274.41	76.1526	1,274.41	69.2724	1,274.41	75.2999	1,274.41	71.3462	1,274.41	74.2389	1,274.41	73.6677	1,274.41	73.6593	1,274.41	72.9313	1,274.41	72.194	1,274.41	70.3857	1,274.41	66.6462	1,274.41	62.0836	1,274.41	70.4235	1,274.41	68.113	1,274.41	75.441	1,274.41	73.022	1,274.41	75.6016
1,319.82	86.6028	1,319.82	86.2119	1,319.82	86.2425	1,319.82	85.8159	1,319.82	85.6715	1,319.82	85.2119	1,319.82	84.8052	1,319.82	83.875	1,319.82	83.6945	1,319.82	82.303	1,319.82	82.3768	1,319.82	79.5908	1,319.82	80.2025	1,319.82	77.751	1,319.82	78.299	1,319.82	76.9379	1,319.82	78.3002	1,319.82	77.7802	1,319.82	77.7044	1,319.82	76.3836	1,319.82	73.6355	1,319.82	72.2506	1,319.82	71.1672	1,319.82	74.0712	1,319.82	71.36	1,319.82	76.3745	1,319.82	72.9681	1,319.82	75.3349	1,319.82	70.9338	1,319.82	69.4352	1,319.82	62.8946	1,319.82	57.9622	1,319.82	67.4887	1,319.82	67.2874	1,319.82	73.6394	1,319.82	72.8318
1,366.7	85.4361	1,366.7	84.9469	1,366.7	85.5057	1,366.7	84.1257	1,366.7	84.6295	1,366.7	82.68	1,366.7	83.062	1,366.7	81.5751	1,366.7	81.8667	1,366.7	80.6951	1,366.7	81.112	1,366.7	79.3542	1,366.7	79.5614	1,366.7	77.2267	1,366.7	77.2862	1,366.7	74.4681	1,366.7	74.2145	1,366.7	71.7364	1,366.7	73.9513	1,366.7	71.0643	1,366.7	75.4766	1,366.7	68.0678	1,366.7	74.0329	1,366.7	68.4832	1,366.7	70.2501	1,366.7	72.5415	1,366.7	71.9035	1,366.7	73.7082	1,366.7	73.1498	1,366.7	68.7019	1,366.7	69.1506	1,366.7	67.4281	1,366.7	65.3659	1,366.7	74.6244	1,366.7	68.793	1,366.7	74.1754
1,413.57	85.7606	1,413.57	85.3695	1,413.57	85.5925	1,413.57	84.6957	1,413.57	85.0507	1,413.57	83.9591	1,413.57	84.1955	1,413.57	82.4293	1,413.57	82.8294	1,413.57	80.4726	1,413.57	81.6941	1,413.57	78.7886	1,413.57	80.3347	1,413.57	77.3502	1,413.57	78.2108	1,413.57	75.571	1,413.57	76.585	1,413.57	73.1119	1,413.57	74.9556	1,413.57	73.3223	1,413.57	75.1634	1,413.57	72.8769	1,413.57	74.5219	1,413.57	70.8865	1,413.57	72.832	1,413.57	71.8997	1,413.57	71.2697	1,413.57	72.9525	1,413.57	72.0329	1,413.57	71.2539	1,413.57	70.2476	1,413.57	62.8768	1,413.57	59.7509	1,413.57	67.1721	1,413.57	63.2119	1,413.57	68.2389
1,463.38	86.4549	1,463.38	86.3176	1,463.38	86.4955	1,463.38	85.5581	1,463.38	85.8698	1,463.38	84.3511	1,463.38	84.7627	1,463.38	83.5038	1,463.38	83.4493	1,463.38	81.512	1,463.38	82.0568	1,463.38	78.9219	1,463.38	80.9277	1,463.38	75.8715	1,463.38	79.3979	1,463.38	75.1768	1,463.38	78.0665	1,463.38	74.7052	1,463.38	75.6729	1,463.38	72.2037	1,463.38	73.5256	1,463.38	70.9888	1,463.38	74.4353	1,463.38	70.8797	1,463.38	75.8539	1,463.38	69.2514	1,463.38	74.5377	1,463.38	64.646	1,463.38	72.3958	1,463.38	65.1167	1,463.38	70.1359	1,463.38	55.8204	1,463.38	59.815	1,463.38	63.7004	1,463.38	69.3862	1,463.38	70.2658
1,516.11	86.6487	1,516.11	86.3565	1,516.11	86.2564	1,516.11	85.2426	1,516.11	85.5625	1,516.11	83.9284	1,516.11	84.6516	1,516.11	83.2552	1,516.11	83.7837	1,516.11	82.1874	1,516.11	81.6979	1,516.11	80.5668	1,516.11	80.4174	1,516.11	78.2175	1,516.11	79.0651	1,516.11	76.784	1,516.11	76.8867	1,516.11	74.8074	1,516.11	75.3147	1,516.11	72.9722	1,516.11	71.782	1,516.11	70.8518	1,516.11	70.7166	1,516.11	67.4737	1,516.11	69.947	1,516.11	63.5472	1,516.11	71.8052	1,516.11	70.2087	1,516.11	73.1339	1,516.11	66.9786	1,516.11	68.5594	1,516.11	63.3481	1,516.11	59.2898	1,516.11	64.9184	1,516.11	68.4172	1,516.11	71.3468
1,568.85	85.6033	1,568.85	85.7183	1,568.85	85.5137	1,568.85	85.4207	1,568.85	85.0349	1,568.85	84.4815	1,568.85	84.0082	1,568.85	82.6719	1,568.85	83.1538	1,568.85	81.604	1,568.85	81.1597	1,568.85	80.0911	1,568.85	78.9132	1,568.85	77.2511	1,568.85	76.0107	1,568.85	77.011	1,568.85	74.4382	1,568.85	75.8846	1,568.85	74.0302	1,568.85	72.8304	1,568.85	72.644	1,568.85	72.2151	1,568.85	67.2684	1,568.85	71.4314	1,568.85	68.9737	1,568.85	71.1853	1,568.85	68.5617	1,568.85	68.9475	1,568.85	72.6379	1,568.85	69.8431	1,568.85	72.8732	1,568.85	64.843	1,568.85	65.8043	1,568.85	65.2687	1,568.85	65.5819	1,568.85	63.0189
1,624.51	85.3637	1,624.51	85.3347	1,624.51	84.8728	1,624.51	84.5791	1,624.51	84.6616	1,624.51	83.8261	1,624.51	83.5375	1,624.51	82.2625	1,624.51	82.4146	1,624.51	80.591	1,624.51	81.3621	1,624.51	78.2486	1,624.51	78.8071	1,624.51	77.0172	1,624.51	76.4135	1,624.51	75.6028	1,624.51	74.5477	1,624.51	72.8661	1,624.51	74.5135	1,624.51	71.8353	1,624.51	71.7057	1,624.51	69.6322	1,624.51	71.5579	1,624.51	70.4376	1,624.51	70.7561	1,624.51	70.9916	1,624.51	61.6826	1,624.51	69.0884	1,624.51	67.2351	1,624.51	71.27	1,624.51	67.1285	1,624.51	66.6518	1,624.51	62.2182	1,624.51	60.3675	1,624.51	66.945	1,624.51	65.831
1,681.64	85.8693	1,681.64	85.8294	1,681.64	85.3694	1,681.64	84.6555	1,681.64	84.6141	1,681.64	83.1918	1,681.64	83.7246	1,681.64	82.565	1,681.64	82.8351	1,681.64	80.1073	1,681.64	82.7808	1,681.64	79.9539	1,681.64	79.8725	1,681.64	77.2555	1,681.64	77.5462	1,681.64	74.3903	1,681.64	75.9944	1,681.64	74.175	1,681.64	75.5367	1,681.64	72.6517	1,681.64	73.6081	1,681.64	65.7861	1,681.64	69.5766	1,681.64	66.0246	1,681.64	68.5097	1,681.64	68.5518	1,681.64	65.5456	1,681.64	71.0967	1,681.64	70.4543	1,681.64	70.6298	1,681.64	72.2616	1,681.64	71.495	1,681.64	65.9974	1,681.64	61.3141	1,681.64	58.4836	1,681.64	62.0289
1,741.7	86.4098	1,741.7	85.7506	1,741.7	86.1263	1,741.7	85.4812	1,741.7	86.1779	1,741.7	84.7038	1,741.7	85.2343	1,741.7	82.3858	1,741.7	84.2666	1,741.7	81.3566	1,741.7	82.3396	1,741.7	78.602	1,741.7	80.5814	1,741.7	77.531	1,741.7	79.3354	1,741.7	76.2338	1,741.7	76.5719	1,741.7	72.2799	1,741.7	74.8325	1,741.7	72.2383	1,741.7	71.1309	1,741.7	70.7053	1,741.7	72.8483	1,741.7	69.007	1,741.7	73.9558	1,741.7	67.8002	1,741.7	71.7086	1,741.7	69.8192	1,741.7	74.4917	1,741.7	72.8162	1,741.7	71.5949	1,741.7	69.4591	1,741.7	69.9929	1,741.7	63.5938	1,741.7	67.418	1,741.7	68.1186
1,803.22	86.9573	1,803.22	86.6688	1,803.22	86.7799	1,803.22	85.9944	1,803.22	86.3782	1,803.22	85.0728	1,803.22	85.6077	1,803.22	83.6084	1,803.22	84.4754	1,803.22	82.1229	1,803.22	83.1454	1,803.22	80.373	1,803.22	81.7095	1,803.22	78.3182	1,803.22	79.4319	1,803.22	75.4571	1,803.22	76.25	1,803.22	74.8282	1,803.22	74.9538	1,803.22	74.3429	1,803.22	73.8134	1,803.22	70.1723	1,803.22	72.0633	1,803.22	69.5994	1,803.22	72.6283	1,803.22	69.0998	1,803.22	71.1625	1,803.22	64.9218	1,803.22	70.3742	1,803.22	68.8197	1,803.22	71.8176	1,803.22	67.4406	1,803.22	70.2017	1,803.22	64.005	1,803.22	66.1584	1,803.22	64.5626
1,866.21	86.3371	1,866.21	86.0034	1,866.21	86.3098	1,866.21	85.5454	1,866.21	85.8656	1,866.21	84.7964	1,866.21	85.3388	1,866.21	83.7174	1,866.21	84.1622	1,866.21	81.7787	1,866.21	82.4356	1,866.21	79.8349	1,866.21	80.4874	1,866.21	78.66	1,866.21	79.5611	1,866.21	75.572	1,866.21	76.6871	1,866.21	72.5063	1,866.21	73.3437	1,866.21	73.5525	1,866.21	73.2447	1,866.21	71.605	1,866.21	69.5772	1,866.21	69.7303	1,866.21	70.3186	1,866.21	70.4201	1,866.21	70.944	1,866.21	67.4773	1,866.21	66.6598	1,866.21	70.0957	1,866.21	70.6727	1,866.21	67.998	1,866.21	67.5583	1,866.21	66.5826	1,866.21	62.5425	1,866.21	67.6854
1,932.13	85.6461	1,932.13	85.3597	1,932.13	85.5179	1,932.13	84.6867	1,932.13	85.306	1,932.13	83.5284	1,932.13	84.4934	1,932.13	82.2887	1,932.13	83.3234	1,932.13	81.0061	1,932.13	81.9194	1,932.13	79.0311	1,932.13	79.6845	1,932.13	76.8694	1,932.13	78.004	1,932.13	75.1177	1,932.13	76.0349	1,932.13	72.2381	1,932.13	73.6348	1,932.13	72.2541	1,932.13	71.84	1,932.13	72.1366	1,932.13	72.6771	1,932.13	68.9418	1,932.13	67.7227	1,932.13	69.1969	1,932.13	70.0515	1,932.13	68.4601	1,932.13	68.5266	1,932.13	65.352	1,932.13	69.0867	1,932.13	65.4749	1,932.13	65.8114	1,932.13	58.8565	1,932.13	60.4336	1,932.13	64.2628
1,999.51	86.2447	1,999.51	85.8291	1,999.51	86.2019	1,999.51	85.1875	1,999.51	85.8682	1,999.51	84.2284	1,999.51	85.2972	1,999.51	82.8396	1,999.51	84.1043	1,999.51	81.0452	1,999.51	82.6467	1,999.51	79.0089	1,999.51	80.8389	1,999.51	77.0344	1,999.51	78.5554	1,999.51	74.1259	1,999.51	77.1477	1,999.51	72.0952	1,999.51	74.0346	1,999.51	69.6188	1,999.51	72.7387	1,999.51	68.0968	1,999.51	70.9968	1,999.51	67.2398	1,999.51	72.1367	1,999.51	67.3296	1,999.51	69.4433	1,999.51	67.3228	1,999.51	69.6928	1,999.51	70.671	1,999.51	71.4501	1,999.51	67.0628	1,999.51	67.6629	1,999.51	55.3106	1,999.51	54.5799	1,999.51	60.7597
2,069.82	86.73	2,069.82	86.5484	2,069.82	86.658	2,069.82	86.0241	2,069.82	86.2127	2,069.82	85.0176	2,069.82	85.5521	2,069.82	83.7861	2,069.82	84.4462	2,069.82	81.9426	2,069.82	82.6245	2,069.82	79.7722	2,069.82	80.4097	2,069.82	77.8633	2,069.82	78.536	2,069.82	75.9327	2,069.82	76.429	2,069.82	73.2121	2,069.82	75.1723	2,069.82	71.6908	2,069.82	72.859	2,069.82	68.8248	2,069.82	70.2671	2,069.82	69.4223	2,069.82	71.5129	2,069.82	69.146	2,069.82	69.4037	2,069.82	64.4407	2,069.82	69.067	2,069.82	69.6898	2,069.82	73.4629	2,069.82	70.5036	2,069.82	71.4278	2,069.82	65.1552	2,069.82	60.717	2,069.82	48.1446
2,143.07	86.146	2,143.07	86.0806	2,143.07	85.8514	2,143.07	85.7364	2,143.07	85.3899	2,143.07	84.7664	2,143.07	84.4719	2,143.07	83.388	2,143.07	83.4352	2,143.07	82.0715	2,143.07	81.6638	2,143.07	80.1627	2,143.07	79.4264	2,143.07	77.5829	2,143.07	76.8425	2,143.07	75.6146	2,143.07	75.2209	2,143.07	73.8483	2,143.07	71.8346	2,143.07	72.4292	2,143.07	71.1923	2,143.07	70.4843	2,143.07	70.1331	2,143.07	69.0475	2,143.07	69.222	2,143.07	71.6531	2,143.07	70.9986	2,143.07	66.3925	2,143.07	64.4819	2,143.07	69.1899	2,143.07	69.0724	2,143.07	70.3622	2,143.07	71.034	2,143.07	64.4225	2,143.07	64.1214	2,143.07	57.0031
2,219.24	85.3386	2,219.24	84.9933	2,219.24	85.1861	2,219.24	84.7436	2,219.24	84.8423	2,219.24	84.3301	2,219.24	84.2115	2,219.24	83.0316	2,219.24	82.9943	2,219.24	81.2841	2,219.24	81.2986	2,219.24	79.5446	2,219.24	79.1247	2,219.24	76.5382	2,219.24	77.2347	2,219.24	73.9819	2,219.24	74.8327	2,219.24	72.5485	2,219.24	71.9225	2,219.24	70.1244	2,219.24	70.3968	2,219.24	68.8502	2,219.24	67.566	2,219.24	67.2869	2,219.24	67.0748	2,219.24	70.2215	2,219.24	69.977	2,219.24	67.5778	2,219.24	67.1417	2,219.24	68.4721	2,219.24	68.8929	2,219.24	68.113	2,219.24	70.2305	2,219.24	66.1883	2,219.24	64.5684	2,219.24	63.1301
2,296.88	86.1791	2,296.88	86.0375	2,296.88	86.093	2,296.88	85.7011	2,296.88	85.6232	2,296.88	84.7523	2,296.88	84.7701	2,296.88	83.5764	2,296.88	83.5184	2,296.88	81.795	2,296.88	81.7066	2,296.88	79.5409	2,296.88	79.4724	2,296.88	77.0917	2,296.88	77.1421	2,296.88	75.1427	2,296.88	74.6219	2,296.88	71.4231	2,296.88	73.6599	2,296.88	69.8892	2,296.88	70.4219	2,296.88	69.2722	2,296.88	70.2727	2,296.88	66.6884	2,296.88	67.7819	2,296.88	68.4144	2,296.88	70.7816	2,296.88	67.1784	2,296.88	69.6957	2,296.88	66.8503	2,296.88	68.3147	2,296.88	69.1552	2,296.88	69.9553	2,296.88	63.236	2,296.88	65.8162	2,296.88	60.2416
2,378.91	86.5019	2,378.91	86.2122	2,378.91	86.0583	2,378.91	86.0957	2,378.91	85.7399	2,378.91	85.7057	2,378.91	84.7909	2,378.91	84.7555	2,378.91	83.3134	2,378.91	82.8532	2,378.91	81.4445	2,378.91	80.4471	2,378.91	79.3339	2,378.91	78.6543	2,378.91	76.5239	2,378.91	75.8005	2,378.91	74.2987	2,378.91	74.1487	2,378.91	71.7803	2,378.91	72.1575	2,378.91	71.5818	2,378.91	70.5007	2,378.91	69.6836	2,378.91	68.148	2,378.91	66.3462	2,378.91	70.4779	2,378.91	70.2524	2,378.91	68.6951	2,378.91	68.7083	2,378.91	68.2698	2,378.91	67.8609	2,378.91	69.5263	2,378.91	69.2958	2,378.91	61.8191	2,378.91	65.4119	2,378.91	62.7922
2,462.4	86.3131	2,462.4	86.1374	2,462.4	86.0592	2,462.4	86.0001	2,462.4	85.7998	2,462.4	85.3169	2,462.4	85.0963	2,462.4	84.2852	2,462.4	83.8291	2,462.4	82.4269	2,462.4	81.9691	2,462.4	80.0653	2,462.4	80.0117	2,462.4	77.9198	2,462.4	77.6961	2,462.4	74.9251	2,462.4	75.1833	2,462.4	73.5802	2,462.4	72.5938	2,462.4	71.0556	2,462.4	70.6785	2,462.4	71.5699	2,462.4	70.7446	2,462.4	67.1156	2,462.4	66.9603	2,462.4	70.0837	2,462.4	70.3135	2,462.4	70.8054	2,462.4	70.585	2,462.4	67.3799	2,462.4	67.314	2,462.4	69.1835	2,462.4	70.8583	2,462.4	64.871	2,462.4	66.2601	2,462.4	63.1422
2,548.83	86.5819	2,548.83	86.6924	2,548.83	86.7814	2,548.83	86.5433	2,548.83	86.7137	2,548.83	85.7812	2,548.83	85.7916	2,548.83	84.1692	2,548.83	84.7047	2,548.83	82.7531	2,548.83	82.6331	2,548.83	80.7099	2,548.83	80.1864	2,548.83	78.0035	2,548.83	78.2703	2,548.83	76.3059	2,548.83	76.128	2,548.83	72.1038	2,548.83	73.187	2,548.83	71.5339	2,548.83	71.445	2,548.83	70.102	2,548.83	70.271	2,548.83	67.9426	2,548.83	70.3917	2,548.83	67.5371	2,548.83	68.2337	2,548.83	70.9514	2,548.83	72.8157	2,548.83	69.056	2,548.83	69.8689	2,548.83	66.7455	2,548.83	71.0458	2,548.83	63.6754	2,548.83	66.4443	2,548.83	62.721
2,639.65	86.7369	2,639.65	87.2278	2,639.65	86.5531	2,639.65	86.8906	2,639.65	86.5521	2,639.65	86.2843	2,639.65	85.679	2,639.65	84.6015	2,639.65	84.5787	2,639.65	82.9636	2,639.65	82.3399	2,639.65	81.2875	2,639.65	80.2539	2,639.65	78.8277	2,639.65	77.9809	2,639.65	76.2074	2,639.65	74.7311	2,639.65	73.5742	2,639.65	72.2619	2,639.65	71.1048	2,639.65	70.6754	2,639.65	70.8836	2,639.65	70.3405	2,639.65	67.9264	2,639.65	68.6091	2,639.65	68.0899	2,639.65	68.8586	2,639.65	69.7334	2,639.65	70.0111	2,639.65	70.2859	2,639.65	70.3855	2,639.65	69.9906	2,639.65	70.4274	2,639.65	64.3689	2,639.65	61.2129	2,639.65	63.0546
2,731.93	87.1437	2,731.93	86.9946	2,731.93	87.1878	2,731.93	86.862	2,731.93	86.5143	2,731.93	86.0838	2,731.93	86.1439	2,731.93	84.6936	2,731.93	84.6715	2,731.93	82.008	2,731.93	82.9308	2,731.93	79.7449	2,731.93	80.3215	2,731.93	76.9685	2,731.93	77.5698	2,731.93	73.6729	2,731.93	75.4066	2,731.93	74.2029	2,731.93	73.9999	2,731.93	69.7373	2,731.93	71.1567	2,731.93	69.6145	2,731.93	68.5025	2,731.93	68.922	2,731.93	68.0523	2,731.93	68.2052	2,731.93	65.3272	2,731.93	70.2042	2,731.93	68.6035	2,731.93	69.7771	2,731.93	69.5901	2,731.93	69.8633	2,731.93	70.5498	2,731.93	62.2345	2,731.93	65.6168	2,731.93	60.202
2,828.61	88.4509	2,828.61	88.0348	2,828.61	88.5831	2,828.61	87.5792	2,828.61	87.9344	2,828.61	86.6422	2,828.61	87.1462	2,828.61	85.5367	2,828.61	85.4518	2,828.61	83.2804	2,828.61	83.5901	2,828.61	79.7123	2,828.61	81.1946	2,828.61	77.3365	2,828.61	78.438	2,828.61	74.9317	2,828.61	76.2304	2,828.61	72.204	2,828.61	74.9602	2,828.61	69.5845	2,828.61	71.5608	2,828.61	69.0528	2,828.61	70.6508	2,828.61	67.3773	2,828.61	69.996	2,828.61	66.035	2,828.61	67.047	2,828.61	68.5329	2,828.61	69.6046	2,828.61	69.4389	2,828.61	70.3263	2,828.61	69.8235	2,828.61	70.3289	2,828.61	61.1609	2,828.61	63.1625	2,828.61	58.92
2,928.22	88.2648	2,928.22	88.1694	2,928.22	88.229	2,928.22	87.5679	2,928.22	87.6982	2,928.22	86.5835	2,928.22	86.4701	2,928.22	84.9197	2,928.22	84.4838	2,928.22	82.9048	2,928.22	82.0747	2,928.22	79.7725	2,928.22	79.5087	2,928.22	77.3219	2,928.22	77.1643	2,928.22	74.9981	2,928.22	75.323	2,928.22	72.3344	2,928.22	73.3888	2,928.22	70.9204	2,928.22	69.7131	2,928.22	67.5926	2,928.22	69.6086	2,928.22	66.5475	2,928.22	68.1591	2,928.22	65.9795	2,928.22	67.3858	2,928.22	67.1243	2,928.22	68.745	2,928.22	68.5378	2,928.22	69.0444	2,928.22	69.3852	2,928.22	70.645	2,928.22	60.1834	2,928.22	64.5738	2,928.22	58.2929
3,030.76	88.5823	3,030.76	88.2963	3,030.76	88.0979	3,030.76	87.2953	3,030.76	87.6638	3,030.76	86.2021	3,030.76	86.0317	3,030.76	83.882	3,030.76	84.2114	3,030.76	81.2999	3,030.76	81.7539	3,030.76	79.7502	3,030.76	79.5319	3,030.76	77.5812	3,030.76	76.5155	3,030.76	74.3893	3,030.76	75.0152	3,030.76	71.8276	3,030.76	72.2218	3,030.76	70.0493	3,030.76	71.6784	3,030.76	67.36	3,030.76	68.9112	3,030.76	66.2099	3,030.76	67.0344	3,030.76	65.8587	3,030.76	66.7511	3,030.76	67.2337	3,030.76	67.0513	3,030.76	64.147	3,030.76	68.0523	3,030.76	68.9	3,030.76	71.4328	3,030.76	64.9151	3,030.76	62.6222	3,030.76	57.6189
3,137.7	88.3674	3,137.7	88.0417	3,137.7	88.2429	3,137.7	87.3161	3,137.7	87.3	3,137.7	86.0304	3,137.7	85.8848	3,137.7	84.059	3,137.7	83.9564	3,137.7	81.4093	3,137.7	81.7894	3,137.7	79.8833	3,137.7	80.2196	3,137.7	76.9684	3,137.7	78.1873	3,137.7	74.7671	3,137.7	76.353	3,137.7	72.4717	3,137.7	73.6913	3,137.7	70.5083	3,137.7	72.4487	3,137.7	67.982	3,137.7	69.1331	3,137.7	67.8622	3,137.7	68.7095	3,137.7	62.9128	3,137.7	68.6785	3,137.7	67.043	3,137.7	68.536	3,137.7	67.439	3,137.7	69.2983	3,137.7	68.9916	3,137.7	70.3687	3,137.7	62.2549	3,137.7	64.6485	3,137.7	60.9776
3,249.02	87.8906	3,249.02	87.5172	3,249.02	87.47	3,249.02	86.8043	3,249.02	86.4091	3,249.02	85.4392	3,249.02	84.7858	3,249.02	83.5567	3,249.02	82.8929	3,249.02	81.0884	3,249.02	81.8084	3,249.02	79.8765	3,249.02	80.6111	3,249.02	77.0469	3,249.02	79.253	3,249.02	75.8249	3,249.02	76.7036	3,249.02	73.4631	3,249.02	73.3467	3,249.02	72.1187	3,249.02	72.9173	3,249.02	69.099	3,249.02	69.4593	3,249.02	68.3614	3,249.02	69.5923	3,249.02	67.6833	3,249.02	67.4946	3,249.02	68.9541	3,249.02	69.1297	3,249.02	70.2232	3,249.02	69.9002	3,249.02	70.7322	3,249.02	69.9812	3,249.02	63.2578	3,249.02	62.827	3,249.02	60.4048
3,363.28	87.4604	3,363.28	87.242	3,363.28	87.4378	3,363.28	86.0205	3,363.28	86.0934	3,363.28	84.3834	3,363.28	84.5824	3,363.28	82.5753	3,363.28	83.4609	3,363.28	82.3893	3,363.28	82.0185	3,363.28	79.7253	3,363.28	80.6695	3,363.28	77.4043	3,363.28	78.8823	3,363.28	76.3118	3,363.28	76.2073	3,363.28	73.4086	3,363.28	74.6925	3,363.28	70.99	3,363.28	72.0713	3,363.28	68.1556	3,363.28	69.935	3,363.28	69.7089	3,363.28	68.8998	3,363.28	65.5639	3,363.28	69.7901	3,363.28	67.4061	3,363.28	68.6231	3,363.28	69.4996	3,363.28	69.296	3,363.28	68.6558	3,363.28	69.1183	3,363.28	62.1708	3,363.28	65.0575	3,363.28	59.3459
3,481.93	88.0101	3,481.93	87.677	3,481.93	87.4881	3,481.93	86.2437	3,481.93	86.2037	3,481.93	84.7857	3,481.93	84.5556	3,481.93	83.5521	3,481.93	83.6765	3,481.93	82.408	3,481.93	82.9167	3,481.93	81.0943	3,481.93	81.7274	3,481.93	79.339	3,481.93	79.3677	3,481.93	76.8205	3,481.93	77.4206	3,481.93	73.786	3,481.93	75.1539	3,481.93	71.7449	3,481.93	73.0048	3,481.93	69.9525	3,481.93	70.2401	3,481.93	67.599	3,481.93	69.7657	3,481.93	67.4201	3,481.93	70.5679	3,481.93	67.9521	3,481.93	69.1185	3,481.93	68.4735	3,481.93	70.7029	3,481.93	68.1082	3,481.93	67.9067	3,481.93	66.3373	3,481.93	64.1241	3,481.93	60.1032
3,604.98	87.5221	3,604.98	87.1777	3,604.98	86.6263	3,604.98	85.6095	3,604.98	85.5759	3,604.98	84.5026	3,604.98	84.3917	3,604.98	83.3676	3,604.98	83.7078	3,604.98	81.8558	3,604.98	83.3372	3,604.98	80.6311	3,604.98	81.9235	3,604.98	78.7197	3,604.98	79.2629	3,604.98	75.9812	3,604.98	77.4417	3,604.98	74.0278	3,604.98	74.6665	3,604.98	70.8388	3,604.98	72.3662	3,604.98	68.9246	3,604.98	70.8313	3,604.98	69.0711	3,604.98	69.011	3,604.98	68.1516	3,604.98	68.6028	3,604.98	66.9525	3,604.98	67.2816	3,604.98	69.2595	3,604.98	70.6726	3,604.98	67.4964	3,604.98	67.7949	3,604.98	64.3841	3,604.98	65.0433	3,604.98	62.4254
3,732.42	87.6099	3,732.42	86.7886	3,732.42	87.0564	3,732.42	85.5217	3,732.42	85.2012	3,732.42	84.3751	3,732.42	84.7499	3,732.42	83.4284	3,732.42	84.6559	3,732.42	82.2459	3,732.42	84.4193	3,732.42	80.7896	3,732.42	82.6326	3,732.42	78.4956	3,732.42	80.4723	3,732.42	75.6522	3,732.42	78.1093	3,732.42	72.1429	3,732.42	75.319	3,732.42	70.3528	3,732.42	72.7618	3,732.42	69.5701	3,732.42	71.5518	3,732.42	66.0578	3,732.42	69.9568	3,732.42	67.9653	3,732.42	69.0757	3,732.42	65.387	3,732.42	68.4599	3,732.42	68.946	3,732.42	71.1854	3,732.42	65.9218	3,732.42	68.7637	3,732.42	64.5217	3,732.42	62.9513	3,732.42	59.8878
3,864.26	87.2316	3,864.26	86.3573	3,864.26	86.6713	3,864.26	84.9663	3,864.26	85.0217	3,864.26	84.1651	3,864.26	84.6495	3,864.26	83.3579	3,864.26	84.7413	3,864.26	82.8075	3,864.26	84.0261	3,864.26	80.9338	3,864.26	81.9206	3,864.26	78.4996	3,864.26	80.1421	3,864.26	75.4438	3,864.26	77.4882	3,864.26	72.9791	3,864.26	75.01	3,864.26	71.088	3,864.26	72.1969	3,864.26	68.8503	3,864.26	71.1288	3,864.26	66.705	3,864.26	70.8425	3,864.26	66.1729	3,864.26	68.9298	3,864.26	66.7156	3,864.26	69.517	3,864.26	69.5691	3,864.26	71.1202	3,864.26	66.3274	3,864.26	68.2058	3,864.26	65.7275	3,864.26	64.7587	3,864.26	60.1497
4,000.49	87.1111	4,000.49	86.7488	4,000.49	85.8951	4,000.49	85.052	4,000.49	85.5137	4,000.49	84.095	4,000.49	84.9044	4,000.49	84.2229	4,000.49	84.6342	4,000.49	83.0904	4,000.49	83.6527	4,000.49	80.9916	4,000.49	82.1906	4,000.49	78.0968	4,000.49	79.9285	4,000.49	74.8793	4,000.49	77.3341	4,000.49	73.5284	4,000.49	75.1943	4,000.49	69.7789	4,000.49	72.1057	4,000.49	69.7761	4,000.49	71.3343	4,000.49	67.048	4,000.49	68.7322	4,000.49	67.5822	4,000.49	66.6644	4,000.49	66.6954	4,000.49	68.7728	4,000.49	68.2653	4,000.49	71.3704	4,000.49	65.7614	4,000.49	68.2087	4,000.49	64.2116	4,000.49	65.952	4,000.49	58.9727
4,141.11	87.6214	4,141.11	86.7052	4,141.11	86.9986	4,141.11	85.0798	4,141.11	85.1888	4,141.11	84.585	4,141.11	84.7496	4,141.11	84.1545	4,141.11	84.3203	4,141.11	82.7253	4,141.11	83.8287	4,141.11	80.8254	4,141.11	82.5879	4,141.11	78.5326	4,141.11	80.244	4,141.11	76.7573	4,141.11	77.3676	4,141.11	74.1955	4,141.11	75.5177	4,141.11	71.179	4,141.11	72.5702	4,141.11	68.7341	4,141.11	70.471	4,141.11	65.8958	4,141.11	68.4773	4,141.11	68.5031	4,141.11	71.021	4,141.11	68.6434	4,141.11	69.5922	4,141.11	69.5846	4,141.11	70.2831	4,141.11	66.8021	4,141.11	68.7425	4,141.11	66.9419	4,141.11	64.7773	4,141.11	61.2074
4,287.6	87.5434	4,287.6	86.2674	4,287.6	86.9165	4,287.6	85.1327	4,287.6	85.3553	4,287.6	84.2069	4,287.6	84.4951	4,287.6	83.043	4,287.6	84.7826	4,287.6	82.2738	4,287.6	84.2999	4,287.6	80.7153	4,287.6	82.3803	4,287.6	78.2488	4,287.6	80.3248	4,287.6	76.2472	4,287.6	78.0607	4,287.6	72.7273	4,287.6	75.3829	4,287.6	71.1391	4,287.6	73.3466	4,287.6	67.0259	4,287.6	70.236	4,287.6	64.7243	4,287.6	67.6579	4,287.6	64.7561	4,287.6	69.1255	4,287.6	67.0928	4,287.6	69.1992	4,287.6	67.2222	4,287.6	70.9706	4,287.6	65.7188	4,287.6	68.6067	4,287.6	62.0916	4,287.6	64.7929	4,287.6	62.2436
4,438.48	86.7261	4,438.48	86.1874	4,438.48	85.9286	4,438.48	84.0156	4,438.48	85.2732	4,438.48	83.2606	4,438.48	84.7771	4,438.48	83.149	4,438.48	84.2554	4,438.48	81.8342	4,438.48	83.3549	4,438.48	80.5502	4,438.48	82.313	4,438.48	78.6119	4,438.48	80.0774	4,438.48	75.5234	4,438.48	77.8426	4,438.48	73.4374	4,438.48	74.5981	4,438.48	68.6908	4,438.48	72.5587	4,438.48	67.3176	4,438.48	69.303	4,438.48	66.6421	4,438.48	67.6413	4,438.48	67.6308	4,438.48	67.7201	4,438.48	66.4388	4,438.48	67.6186	4,438.48	67.5391	4,438.48	70.0427	4,438.48	66.6623	4,438.48	68.3026	4,438.48	63.7387	4,438.48	62.6278	4,438.48	63.1976
4,595.21	87.2294	4,595.21	86.365	4,595.21	86.793	4,595.21	85.615	4,595.21	85.5061	4,595.21	84.4861	4,595.21	84.707	4,595.21	83.798	4,595.21	83.8001	4,595.21	83.0327	4,595.21	83.2555	4,595.21	80.9055	4,595.21	82.2712	4,595.21	78.4782	4,595.21	80.7928	4,595.21	75.7599	4,595.21	77.6536	4,595.21	73.4342	4,595.21	75.0813	4,595.21	71.1851	4,595.21	72.3485	4,595.21	68.9201	4,595.21	69.1485	4,595.21	64.3882	4,595.21	67.3178	4,595.21	66.7434	4,595.21	68.6243	4,595.21	66.7608	4,595.21	68.3755	4,595.21	68.492	4,595.21	70.2107	4,595.21	66.6934	4,595.21	67.5832	4,595.21	64.4075	4,595.21	64.8705	4,595.21	61.7366
4,756.35	86.4574	4,756.35	85.8299	4,756.35	86.1555	4,756.35	84.1791	4,756.35	85.6456	4,756.35	83.0772	4,756.35	84.4161	4,756.35	81.6258	4,756.35	84.3343	4,756.35	80.9473	4,756.35	84.1908	4,756.35	80.5783	4,756.35	82.4815	4,756.35	78.3474	4,756.35	80.6453	4,756.35	76.1982	4,756.35	77.9217	4,756.35	72.4423	4,756.35	74.7065	4,756.35	69.8085	4,756.35	70.7992	4,756.35	66.8465	4,756.35	68.7635	4,756.35	67.0646	4,756.35	66.3627	4,756.35	63.4185	4,756.35	66.4532	4,756.35	67.8661	4,756.35	68.7194	4,756.35	67.1096	4,756.35	69.6818	4,756.35	64.0273	4,756.35	67.814	4,756.35	63.3346	4,756.35	64.8366	4,756.35	63.9288
4,924.8	86.6571	4,924.8	86.1997	4,924.8	86.6816	4,924.8	85.3234	4,924.8	85.91	4,924.8	84.1004	4,924.8	84.6942	4,924.8	83.4789	4,924.8	83.891	4,924.8	82.8821	4,924.8	83.4601	4,924.8	81.6637	4,924.8	82.309	4,924.8	79.2795	4,924.8	79.8289	4,924.8	76.132	4,924.8	76.3461	4,924.8	73.5367	4,924.8	74.463	4,924.8	68.625	4,924.8	71.6847	4,924.8	68.262	4,924.8	69.3527	4,924.8	64.5184	4,924.8	66.6952	4,924.8	66.4055	4,924.8	67.866	4,924.8	64.7724	4,924.8	66.913	4,924.8	66.3248	4,924.8	70.2047	4,924.8	65.4749	4,924.8	67.038	4,924.8	64.9051	4,924.8	61.5236	4,924.8	62.8123
5,097.66	86.5706	5,097.66	86.3018	5,097.66	86.6639	5,097.66	85.4135	5,097.66	86.2846	5,097.66	83.692	5,097.66	84.9093	5,097.66	82.6996	5,097.66	84.3959	5,097.66	81.9173	5,097.66	84.0477	5,097.66	79.9298	5,097.66	82.2623	5,097.66	76.7728	5,097.66	80.2297	5,097.66	75.2933	5,097.66	77.6899	5,097.66	72.6711	5,097.66	73.5052	5,097.66	70.7516	5,097.66	70.75	5,097.66	66.0376	5,097.66	68.4656	5,097.66	63.9214	5,097.66	65.5376	5,097.66	66.6092	5,097.66	66.9696	5,097.66	65.8668	5,097.66	67.0342	5,097.66	66.9444	5,097.66	68.5267	5,097.66	64.575	5,097.66	64.9845	5,097.66	62.3305	5,097.66	60.4005	5,097.66	63.3118
5,277.83	85.6407	5,277.83	85.7801	5,277.83	86.1101	5,277.83	84.999	5,277.83	86.0785	5,277.83	83.7438	5,277.83	84.7559	5,277.83	83.3057	5,277.83	84.2807	5,277.83	83.0528	5,277.83	83.8603	5,277.83	81.6261	5,277.83	82.3635	5,277.83	79.681	5,277.83	80.0883	5,277.83	76.9773	5,277.83	76.7715	5,277.83	73.4553	5,277.83	74.0377	5,277.83	69.8596	5,277.83	71.3319	5,277.83	66.9878	5,277.83	67.9809	5,277.83	65.4979	5,277.83	66.2237	5,277.83	62.4516	5,277.83	66.8987	5,277.83	65.1123	5,277.83	66.6372	5,277.83	66.5987	5,277.83	68.6676	5,277.83	65.6885	5,277.83	65.793	5,277.83	63.4765	5,277.83	62.7476	5,277.83	61.1789
5,463.87	86.3397	5,463.87	86.5613	5,463.87	86.9314	5,463.87	86.3328	5,463.87	86.762	5,463.87	85.0439	5,463.87	85.4921	5,463.87	84.2769	5,463.87	84.6813	5,463.87	82.9847	5,463.87	83.8144	5,463.87	80.993	5,463.87	82.0363	5,463.87	77.7521	5,463.87	79.2622	5,463.87	74.2077	5,463.87	77.554	5,463.87	72.102	5,463.87	74.1068	5,463.87	67.2792	5,463.87	71.2016	5,463.87	63.359	5,463.87	67.8245	5,463.87	62.6094	5,463.87	66.0235	5,463.87	60.7419	5,463.87	66.5404	5,463.87	64.8964	5,463.87	67.1354	5,463.87	64.435	5,463.87	67.9764	5,463.87	65.9411	5,463.87	65.4907	5,463.87	61.176	5,463.87	57.5383	5,463.87	63.4837
5,657.23	85.8346	5,657.23	86.206	5,657.23	86.5836	5,657.23	85.8494	5,657.23	86.6694	5,657.23	84.5071	5,657.23	85.5392	5,657.23	83.2022	5,657.23	85.1497	5,657.23	82.2556	5,657.23	84.2081	5,657.23	80.1869	5,657.23	82.1144	5,657.23	77.4242	5,657.23	80.4088	5,657.23	75.8983	5,657.23	77.6423	5,657.23	72.6281	5,657.23	74.4947	5,657.23	71.7176	5,657.23	71.3841	5,657.23	69.5031	5,657.23	68.3772	5,657.23	66.2128	5,657.23	67.6745	5,657.23	62.5551	5,657.23	65.1709	5,657.23	64.9589	5,657.23	67.2409	5,657.23	66.7624	5,657.23	69.2404	5,657.23	66.4646	5,657.23	65.8983	5,657.23	61.1601	5,657.23	58.511	5,657.23	63.2085
5,856.45	85.6909	5,856.45	86.2095	5,856.45	86.5615	5,856.45	85.9463	5,856.45	86.6732	5,856.45	84.8351	5,856.45	86.1273	5,856.45	83.6384	5,856.45	84.6244	5,856.45	82.484	5,856.45	83.252	5,856.45	81.5069	5,856.45	82.3307	5,856.45	80.2431	5,856.45	80.6284	5,856.45	77.1198	5,856.45	78.1027	5,856.45	74.8079	5,856.45	75.2317	5,856.45	70.7816	5,856.45	72.1045	5,856.45	69.3811	5,856.45	69.544	5,856.45	67.0986	5,856.45	67.9246	5,856.45	62.9875	5,856.45	63.8853	5,856.45	65.2723	5,856.45	66.6791	5,856.45	65.0267	5,856.45	68.4367	5,856.45	65.9986	5,856.45	66.3746	5,856.45	61.2814	5,856.45	58.1057	5,856.45	64.7242
6,062.99	85.2512	6,062.99	85.636	6,062.99	85.8264	6,062.99	85.7694	6,062.99	86.5231	6,062.99	84.9568	6,062.99	85.4237	6,062.99	83.2592	6,062.99	84.0975	6,062.99	81.829	6,062.99	83.1644	6,062.99	80.6163	6,062.99	81.9671	6,062.99	79.0548	6,062.99	80.8873	6,062.99	76.7104	6,062.99	78.2072	6,062.99	72.9721	6,062.99	74.705	6,062.99	70.6956	6,062.99	71.3061	6,062.99	67.3415	6,062.99	69.44	6,062.99	65.4293	6,062.99	66.6878	6,062.99	64.8622	6,062.99	64.1767	6,062.99	64.1751	6,062.99	66.5831	6,062.99	65.2744	6,062.99	68.5388	6,062.99	63.9788	6,062.99	64.8702	6,062.99	58.9404	6,062.99	57.2212	6,062.99	62.9482
6,276.86	85.3241	6,276.86	85.5853	6,276.86	86.1579	6,276.86	85.9137	6,276.86	86.6176	6,276.86	85.023	6,276.86	86.263	6,276.86	82.9122	6,276.86	84.3898	6,276.86	81.9399	6,276.86	83.0777	6,276.86	81.4024	6,276.86	82.863	6,276.86	80.0328	6,276.86	81.003	6,276.86	77.1567	6,276.86	78.1037	6,276.86	74.2919	6,276.86	74.8942	6,276.86	71.0425	6,276.86	71.8983	6,276.86	68.1159	6,276.86	69.2202	6,276.86	65.4101	6,276.86	65.7651	6,276.86	63.6737	6,276.86	65.7042	6,276.86	66.2609	6,276.86	66.3718	6,276.86	67.2858	6,276.86	67.919	6,276.86	64.2607	6,276.86	65.4526	6,276.86	56.6903	6,276.86	55.1026	6,276.86	62.2881
6,498.05	85.3441	6,498.05	85.2652	6,498.05	85.6436	6,498.05	86.0106	6,498.05	86.7967	6,498.05	85.2731	6,498.05	86.3158	6,498.05	82.9091	6,498.05	84.5406	6,498.05	82.2142	6,498.05	84.1537	6,498.05	81.8577	6,498.05	83.1717	6,498.05	79.5461	6,498.05	81.3678	6,498.05	77.2693	6,498.05	78.5322	6,498.05	73.7245	6,498.05	75.0722	6,498.05	69.9438	6,498.05	71.5586	6,498.05	66.787	6,498.05	68.154	6,498.05	63.6247	6,498.05	67.4942	6,498.05	61.3192	6,498.05	65.0196	6,498.05	63.7602	6,498.05	66.7556	6,498.05	65.2621	6,498.05	66.8073	6,498.05	63.8788	6,498.05	63.872	6,498.05	58.4914	6,498.05	56.7919	6,498.05	62.2364
6,726.56	84.7901	6,726.56	84.8247	6,726.56	85.1538	6,726.56	85.923	6,726.56	86.6161	6,726.56	85.1948	6,726.56	86.1034	6,726.56	83.1259	6,726.56	84.0595	6,726.56	82.6431	6,726.56	83.4668	6,726.56	81.9474	6,726.56	83.151	6,726.56	80.2941	6,726.56	81.4164	6,726.56	76.3293	6,726.56	78.1463	6,726.56	73.414	6,726.56	74.7791	6,726.56	68.9011	6,726.56	71.3203	6,726.56	66.394	6,726.56	68.4039	6,726.56	63.6321	6,726.56	67.7161	6,726.56	60.9707	6,726.56	62.5021	6,726.56	64.0918	6,726.56	65.7796	6,726.56	65.1553	6,726.56	67.2282	6,726.56	64.2922	6,726.56	65.2988	6,726.56	60.2986	6,726.56	53.4404	6,726.56	60.3767
6,963.87	84.5403	6,963.87	84.8714	6,963.87	84.9276	6,963.87	86.3058	6,963.87	86.7727	6,963.87	85.7066	6,963.87	86.059	6,963.87	83.9413	6,963.87	84.567	6,963.87	83.1594	6,963.87	83.911	6,963.87	82.2221	6,963.87	82.5654	6,963.87	80.4441	6,963.87	80.3457	6,963.87	76.8749	6,963.87	78.0928	6,963.87	73.8193	6,963.87	74.5919	6,963.87	69.6443	6,963.87	70.6836	6,963.87	66.6684	6,963.87	68.4361	6,963.87	63.2683	6,963.87	65.677	6,963.87	58.6417	6,963.87	62.4547	6,963.87	65.0453	6,963.87	65.8285	6,963.87	65.891	6,963.87	66.7573	6,963.87	64.114	6,963.87	64.084	6,963.87	59.7814	6,963.87	58.6379	6,963.87	61.5986
7,209.96	84.346	7,209.96	84.6429	7,209.96	85.224	7,209.96	86.1768	7,209.96	86.621	7,209.96	85.8327	7,209.96	86.7103	7,209.96	84.4204	7,209.96	85.4778	7,209.96	83.3103	7,209.96	83.9502	7,209.96	81.698	7,209.96	82.9581	7,209.96	79.6378	7,209.96	80.6549	7,209.96	76.7128	7,209.96	77.8054	7,209.96	73.0999	7,209.96	74.5688	7,209.96	70.4055	7,209.96	71.5822	7,209.96	65.6573	7,209.96	68.8115	7,209.96	62.023	7,209.96	64.1165	7,209.96	60.5584	7,209.96	63.6462	7,209.96	63.9862	7,209.96	66.0425	7,209.96	65.1489	7,209.96	67.2098	7,209.96	63.6393	7,209.96	64.2815	7,209.96	58.5619	7,209.96	57.1212	7,209.96	59.537
7,464.84	84.0095	7,464.84	84.4665	7,464.84	84.9732	7,464.84	85.616	7,464.84	86.3662	7,464.84	85.2888	7,464.84	86.4278	7,464.84	84.0941	7,464.84	85.3104	7,464.84	82.6136	7,464.84	84.0136	7,464.84	81.215	7,464.84	82.4991	7,464.84	78.5988	7,464.84	80.3546	7,464.84	76.5405	7,464.84	77.9404	7,464.84	73.176	7,464.84	73.6667	7,464.84	69.4435	7,464.84	71.1291	7,464.84	65.8203	7,464.84	65.825	7,464.84	64.5079	7,464.84	62.678	7,464.84	58.9134	7,464.84	63.8836	7,464.84	62.2689	7,464.84	66.058	7,464.84	64.6837	7,464.84	65.7242	7,464.84	62.9921	7,464.84	62.6935	7,464.84	59.9414	7,464.84	56.7322	7,464.84	56.7508
7,727.05	83.492	7,727.05	84.4278	7,727.05	84.831	7,727.05	84.8603	7,727.05	85.6548	7,727.05	85.1644	7,727.05	85.9247	7,727.05	84.3746	7,727.05	85.1598	7,727.05	82.5198	7,727.05	82.9847	7,727.05	80.9941	7,727.05	81.4802	7,727.05	79.4252	7,727.05	79.8126	7,727.05	76.0399	7,727.05	77.2851	7,727.05	72.5976	7,727.05	73.0547	7,727.05	68.6043	7,727.05	68.5464	7,727.05	67.0751	7,727.05	65.3159	7,727.05	61.4296	7,727.05	61.5101	7,727.05	57.3396	7,727.05	60.149	7,727.05	61.9071	7,727.05	64.0394	7,727.05	63.0702	7,727.05	64.4136	7,727.05	61.3351	7,727.05	60.8409	7,727.05	58.2654	7,727.05	56.5399	7,727.05	55.151
7,999.51	84.6233	7,999.51	85.2993	7,999.51	85.3329	7,999.51	85.0393	7,999.51	85.3771	7,999.51	85.4148	7,999.51	85.6813	7,999.51	83.8377	7,999.51	84.5259	7,999.51	81.95	7,999.51	81.8775	7,999.51	80.1511	7,999.51	80.3018	7,999.51	78.4945	7,999.51	77.7653	7,999.51	74.7856	7,999.51	75.0088	7,999.51	71.0305	7,999.51	70.592	7,999.51	67.3203	7,999.51	67.6642	7,999.51	65.2344	7,999.51	64.6991	7,999.51	58.792	7,999.51	60.8536	7,999.51	54.5299	7,999.51	61.0141	7,999.51	61.0846	7,999.51	61.6157	7,999.51	62.167	7,999.51	63.6737	7,999.51	59.7258	7,999.51	60.2418	7,999.51	58.8041	7,999.51	54.1571	7,999.51	53.7748
8,282.23	85.915	8,282.23	86.0676	8,282.23	86.2695	8,282.23	85.461	8,282.23	85.756	8,282.23	85.4378	8,282.23	85.9056	8,282.23	83.7092	8,282.23	84.4645	8,282.23	81.4479	8,282.23	81.9738	8,282.23	79.0764	8,282.23	79.5338	8,282.23	76.1766	8,282.23	76.9215	8,282.23	73.5855	8,282.23	73.5909	8,282.23	69.5441	8,282.23	70.2845	8,282.23	66.2656	8,282.23	66.5809	8,282.23	60.979	8,282.23	61.9092	8,282.23	58.4086	8,282.23	56.341	8,282.23	56.1308	8,282.23	55.4045	8,282.23	58.1619	8,282.23	61.2355	8,282.23	61.054	8,282.23	62.1013	8,282.23	57.3304	8,282.23	56.4219	8,282.23	56.7068	8,282.23	52.9013	8,282.23	52.8597
8,573.73	86.6674	8,573.73	86.4689	8,573.73	86.6447	8,573.73	85.6125	8,573.73	86.1542	8,573.73	85.5384	8,573.73	86.0516	8,573.73	83.9559	8,573.73	84.4373	8,573.73	80.8893	8,573.73	81.3634	8,573.73	78.4757	8,573.73	79.2718	8,573.73	75.5185	8,573.73	77.1158	8,573.73	72.6291	8,573.73	73.8777	8,573.73	68.8567	8,573.73	70.0288	8,573.73	64.2704	8,573.73	66.0089	8,573.73	61.74	8,573.73	60.8529	8,573.73	57.4405	8,573.73	57.5652	8,573.73	52.3579	8,573.73	58.49	8,573.73	58.5384	8,573.73	59.2477	8,573.73	59.0091	8,573.73	60.6635	8,573.73	54.8446	8,573.73	56.2617	8,573.73	56.1185	8,573.73	52.6105	8,573.73	49.327
8,876.95	87.194	8,876.95	86.9507	8,876.95	86.9461	8,876.95	85.9813	8,876.95	86.446	8,876.95	85.4858	8,876.95	85.9644	8,876.95	83.6261	8,876.95	84.2266	8,876.95	80.4971	8,876.95	80.7196	8,876.95	78.3026	8,876.95	78.883	8,876.95	76.1376	8,876.95	76.3618	8,876.95	72.0013	8,876.95	72.4665	8,876.95	67.8198	8,876.95	68.9532	8,876.95	64.5064	8,876.95	64.2481	8,876.95	60.8301	8,876.95	60.8304	8,876.95	56.3894	8,876.95	59.3082	8,876.95	54.0463	8,876.95	57.9108	8,876.95	57.3887	8,876.95	56.4284	8,876.95	60.3423	8,876.95	58.7049	8,876.95	54.0103	8,876.95	52.4726	8,876.95	53.3407	8,876.95	52.9847	8,876.95	48.5741
9,188.96	87.3813	9,188.96	86.9768	9,188.96	86.903	9,188.96	86.0261	9,188.96	86.376	9,188.96	85.3881	9,188.96	85.7808	9,188.96	83.1256	9,188.96	83.8562	9,188.96	79.8185	9,188.96	80.7369	9,188.96	77.3401	9,188.96	78.0562	9,188.96	74.556	9,188.96	75.0784	9,188.96	70.7919	9,188.96	70.8495	9,188.96	65.8826	9,188.96	67.8482	9,188.96	64.338	9,188.96	63.7284	9,188.96	59.7738	9,188.96	59.6294	9,188.96	56.2213	9,188.96	57.3877	9,188.96	53.5366	9,188.96	55.461	9,188.96	55.2703	9,188.96	55.6767	9,188.96	59.0032	9,188.96	58.536	9,188.96	52.537	9,188.96	50.528	9,188.96	53.8165	9,188.96	53.3595	9,188.96	45.457
9,514.16	87.226	9,514.16	86.7804	9,514.16	86.7705	9,514.16	85.9943	9,514.16	86.2206	9,514.16	85.0383	9,514.16	85.3462	9,514.16	82.9806	9,514.16	83.399	9,514.16	79.4433	9,514.16	80.3683	9,514.16	76.8185	9,514.16	77.613	9,514.16	73.2073	9,514.16	74.999	9,514.16	69.5781	9,514.16	71.206	9,514.16	66.0909	9,514.16	68.2255	9,514.16	63.2601	9,514.16	62.5947	9,514.16	58.7192	9,514.16	60.4455	9,514.16	56.2272	9,514.16	58.7912	9,514.16	52.9972	9,514.16	56.0435	9,514.16	52.8728	9,514.16	53.1634	9,514.16	56.0489	9,514.16	56.489	9,514.16	50.9566	9,514.16	51.7882	9,514.16	53.8066	9,514.16	53.0456	9,514.16	47.2057
9,849.61	87.0776	9,849.61	86.5375	9,849.61	86.5696	9,849.61	85.6053	9,849.61	85.9308	9,849.61	84.7124	9,849.61	85.1872	9,849.61	82.613	9,849.61	82.858	9,849.61	79.131	9,849.61	79.4738	9,849.61	76.192	9,849.61	76.7644	9,849.61	73.0248	9,849.61	73.7919	9,849.61	70.0058	9,849.61	68.933	9,849.61	64.8709	9,849.61	67.0212	9,849.61	63.4811	9,849.61	62.9599	9,849.61	57.5388	9,849.61	60.091	9,849.61	55.7565	9,849.61	56.3313	9,849.61	54.078	9,849.61	53.0186	9,849.61	54.3564	9,849.61	52.6667	9,849.61	55.6512	9,849.61	56.606	9,849.61	49.3391	9,849.61	46.9942	9,849.61	53.8291	9,849.61	51.2673	9,849.61	47.9842
10,196.8	86.9215	10,196.8	86.186	10,196.8	86.546	10,196.8	85.1132	10,196.8	86.0831	10,196.8	84.2492	10,196.8	85.2838	10,196.8	81.6753	10,196.8	83.0321	10,196.8	78.5129	10,196.8	79.7492	10,196.8	75.0976	10,196.8	76.2748	10,196.8	72.3698	10,196.8	73.4514	10,196.8	69.1252	10,196.8	70.0672	10,196.8	64.7908	10,196.8	66.5571	10,196.8	62.8132	10,196.8	63.2432	10,196.8	56.809	10,196.8	59.3007	10,196.8	56.1027	10,196.8	56.2394	10,196.8	52.4905	10,196.8	51.4644	10,196.8	52.7595	10,196.8	53.1865	10,196.8	55.5801	10,196.8	55.3265	10,196.8	48.0896	10,196.8	45.8256	10,196.8	55.1766	10,196.8	49.0665	10,196.8	45.7545
10,555.7	86.7336	10,555.7	85.7503	10,555.7	86.5382	10,555.7	84.6038	10,555.7	85.9994	10,555.7	82.8265	10,555.7	85.1999	10,555.7	80.6266	10,555.7	83.3912	10,555.7	77.7613	10,555.7	80.1358	10,555.7	74.0762	10,555.7	76.7859	10,555.7	70.8925	10,555.7	74.8226	10,555.7	66.2271	10,555.7	70.643	10,555.7	63.2863	10,555.7	66.5806	10,555.7	61.0714	10,555.7	63.5155	10,555.7	56.0402	10,555.7	59.5554	10,555.7	52.8123	10,555.7	57.0634	10,555.7	45.8756	10,555.7	47.1535	10,555.7	48.33	10,555.7	50.8821	10,555.7	52.943	10,555.7	55.4892	10,555.7	41.6429	10,555.7	44.6666	10,555.7	53.6034	10,555.7	43.0046	10,555.7	45.7233
10,927.7	86.4209	10,927.7	85.6721	10,927.7	86.2254	10,927.7	84.3541	10,927.7	85.6523	10,927.7	82.1694	10,927.7	85.0456	10,927.7	80.1527	10,927.7	83.229	10,927.7	75.5973	10,927.7	79.5984	10,927.7	71.6916	10,927.7	76.654	10,927.7	67.8748	10,927.7	74.0064	10,927.7	63.6643	10,927.7	69.4357	10,927.7	58.6418	10,927.7	66.3125	10,927.7	56.7646	10,927.7	62.8766	10,927.7	50.1749	10,927.7	58.8842	10,927.7	49.8921	10,927.7	57.6097	10,927.7	45.2487	10,927.7	50.121	10,927.7	47.9985	10,927.7	45.3882	10,927.7	51.6198	10,927.7	53.6815	10,927.7	35.687	10,927.7	42.2839	10,927.7	47.7217	10,927.7	47.1444	10,927.7	44.2994
11,313	86.2099	11,313	85.7836	11,313	86.023	11,313	84.4815	11,313	85.0934	11,313	82.9147	11,313	84.1342	11,313	80.1177	11,313	82.5012	11,313	75.2926	11,313	78.7315	11,313	70.9993	11,313	74.9301	11,313	67.9372	11,313	71.9295	11,313	62.5941	11,313	68.2333	11,313	61.2765	11,313	63.8567	11,313	55.169	11,313	59.8085	11,313	50.9797	11,313	57.0482	11,313	54.4021	11,313	54.4392	11,313	45.8128	11,313	49.1881	11,313	47.6281	11,313	46.8239	11,313	50.0118	11,313	53.0678	11,313	40.8496	11,313	31.512	11,313	49.4349	11,313	44.3751	11,313	46.3463
11,712.9	85.9996	11,712.9	85.3543	11,712.9	85.8483	11,712.9	84.1993	11,712.9	84.907	11,712.9	82.4007	11,712.9	83.7283	11,712.9	79.8073	11,712.9	81.8001	11,712.9	75.6695	11,712.9	77.7262	11,712.9	71.8689	11,712.9	73.7694	11,712.9	68.752	11,712.9	70.992	11,712.9	64.2256	11,712.9	66.3204	11,712.9	60.0879	11,712.9	63.0246	11,712.9	56.9677	11,712.9	58.5417	11,712.9	53.7835	11,712.9	56.4401	11,712.9	50.4013	11,712.9	54.3416	11,712.9	45.518	11,712.9	47.1278	11,712.9	39.9616	11,712.9	44.4918	11,712.9	50.8833	11,712.9	51.947	11,712.9	30.3173	11,712.9	35.0578	11,712.9	49.4762	11,712.9	39.8004	11,712.9	42.8777
12,126	85.5118	12,126	85.1014	12,126	85.4709	12,126	83.6672	12,126	84.5816	12,126	82.1405	12,126	83.5458	12,126	79.4445	12,126	81.2941	12,126	74.9814	12,126	77.0869	12,126	71.3024	12,126	73.5558	12,126	67.9114	12,126	70.113	12,126	63.542	12,126	66.8682	12,126	60.6115	12,126	62.9451	12,126	56.9816	12,126	58.2434	12,126	50.411	12,126	56.6898	12,126	50.9652	12,126	52.7658	12,126	36.9236	12,126	41.9083	12,126	43.3309	12,126	41.5477	12,126	51.221	12,126	50.8079	12,126	38.2263	12,126	39.3479	12,126	46.4751	12,126	33.4782	12,126	37.5383
12,553.7	85.1173	12,553.7	84.8423	12,553.7	85.3484	12,553.7	83.0508	12,553.7	84.3041	12,553.7	81.617	12,553.7	83.309	12,553.7	78.9135	12,553.7	81.1109	12,553.7	75.1582	12,553.7	77.0971	12,553.7	70.406	12,553.7	72.6944	12,553.7	67.506	12,553.7	69.3469	12,553.7	64.4467	12,553.7	67.5678	12,553.7	60.8463	12,553.7	62.8833	12,553.7	57.4332	12,553.7	57.9541	12,553.7	51.8169	12,553.7	56.5955	12,553.7	51.1879	12,553.7	53.9058	12,553.7	35.3538	12,553.7	44.4731	12,553.7	44.8314	12,553.7	42.9617	12,553.7	48.9315	12,553.7	51.6096	12,553.7	40.0322	12,553.7	41.5159	12,553.7	47.0071	12,553.7	38.2792	12,553.7	40.5388
12,996.1	85.0464	12,996.1	84.6857	12,996.1	85.2084	12,996.1	82.9591	12,996.1	84.0827	12,996.1	81.7273	12,996.1	83.2631	12,996.1	78.9854	12,996.1	80.8584	12,996.1	74.6882	12,996.1	76.5941	12,996.1	69.8087	12,996.1	71.9829	12,996.1	67.0629	12,996.1	68.8219	12,996.1	64.0614	12,996.1	66.3196	12,996.1	60.6295	12,996.1	62.1489	12,996.1	54.961	12,996.1	58.2249	12,996.1	49.8696	12,996.1	55.8264	12,996.1	51.0717	12,996.1	52.9291	12,996.1	35.6627	12,996.1	42.3251	12,996.1	43.7422	12,996.1	42.8016	12,996.1	47.1001	12,996.1	51.5579	12,996.1	45.7562	12,996.1	44.9504	12,996.1	44.7965	12,996.1	34.3816	12,996.1	43.5487
13,454.6	85.2686	13,454.6	85.0041	13,454.6	85.5157	13,454.6	83.2757	13,454.6	84.5083	13,454.6	81.9811	13,454.6	83.4585	13,454.6	78.7959	13,454.6	80.8004	13,454.6	73.5867	13,454.6	76.2053	13,454.6	69.3568	13,454.6	70.9559	13,454.6	67.4256	13,454.6	67.9749	13,454.6	63.6338	13,454.6	65.9665	13,454.6	59.8385	13,454.6	61.4149	13,454.6	55.9671	13,454.6	58.1838	13,454.6	51.4279	13,454.6	56.0487	13,454.6	50.7305	13,454.6	51.4769	13,454.6	42.5384	13,454.6	45.8077	13,454.6	29.5599	13,454.6	44.6344	13,454.6	43.8298	13,454.6	51.6839	13,454.6	44.7459	13,454.6	42.6115	13,454.6	47.4737	13,454.6	38.1797	13,454.6	39.6108
13,929.2	85.3257	13,929.2	84.9699	13,929.2	85.5677	13,929.2	83.4035	13,929.2	84.7766	13,929.2	82.0302	13,929.2	83.3932	13,929.2	78.751	13,929.2	80.6441	13,929.2	73.5747	13,929.2	75.2851	13,929.2	69.2932	13,929.2	70.4286	13,929.2	65.3019	13,929.2	67.0945	13,929.2	61.7887	13,929.2	65.0581	13,929.2	58.2985	13,929.2	60.3769	13,929.2	53.8211	13,929.2	58.4952	13,929.2	50.238	13,929.2	54.3021	13,929.2	49.5706	13,929.2	49.8061	13,929.2	33.7285	13,929.2	44.0648	13,929.2	38.1471	13,929.2	44.8594	13,929.2	43.7337	13,929.2	50.684	13,929.2	44.747	13,929.2	39.6069	13,929.2	49.5011	13,929.2	44.0764	13,929.2	37.2492
14,419.9	84.8528	14,419.9	84.7883	14,419.9	85.3706	14,419.9	83.4199	14,419.9	84.921	14,419.9	82.196	14,419.9	83.7861	14,419.9	79.0944	14,419.9	80.8968	14,419.9	73.054	14,419.9	75.8169	14,419.9	69.3606	14,419.9	71.0432	14,419.9	66.324	14,419.9	67.8096	14,419.9	65.6414	14,419.9	67.2343	14,419.9	61.5608	14,419.9	62.4328	14,419.9	57.3691	14,419.9	60.6008	14,419.9	55.6487	14,419.9	56.3944	14,419.9	50.251	14,419.9	49.7036	14,419.9	40.4884	14,419.9	43.2653	14,419.9	42.2516	14,419.9	46.7552	14,419.9	37.9277	14,419.9	50.4438	14,419.9	47.102	14,419.9	45.8533	14,419.9	49.0064	14,419.9	44.0601	14,419.9	39.3503
14,928.2	84.1187	14,928.2	84.0218	14,928.2	84.7899	14,928.2	82.7723	14,928.2	84.6862	14,928.2	81.734	14,928.2	83.6105	14,928.2	79.0369	14,928.2	80.7829	14,928.2	73.9301	14,928.2	76.2739	14,928.2	69.0774	14,928.2	70.8791	14,928.2	67.9612	14,928.2	68.834	14,928.2	66.6547	14,928.2	68.513	14,928.2	63.0172	14,928.2	63.8453	14,928.2	57.3885	14,928.2	61.291	14,928.2	57.0715	14,928.2	55.5712	14,928.2	50.9713	14,928.2	49.0743	14,928.2	43.7207	14,928.2	42.4922	14,928.2	36.4817	14,928.2	47.3804	14,928.2	46.4388	14,928.2	49.9327	14,928.2	48.3716	14,928.2	45.4751	14,928.2	48.9627	14,928.2	44.3524	14,928.2	38.5197
15,455.6	86.6476	15,455.6	86.4669	15,455.6	86.6144	15,455.6	85.0584	15,455.6	85.7078	15,455.6	83.0704	15,455.6	83.994	15,455.6	79.352	15,455.6	80.26	15,455.6	73.5947	15,455.6	75.3039	15,455.6	66.3327	15,455.6	68.5865	15,455.6	66.2382	15,455.6	66.5922	15,455.6	64.1598	15,455.6	65.3138	15,455.6	59.3703	15,455.6	61.3127	15,455.6	54.6584	15,455.6	56.2941	15,455.6	55.0025	15,455.6	52.9128	15,455.6	46.603	15,455.6	49.4623	15,455.6	41.3121	15,455.6	8.73818	15,455.6	42.4524	15,455.6	44.0477	15,455.6	42.3191	15,455.6	46.5059	15,455.6	45.3776	15,455.6	45.8581	15,455.6	48.6654	15,455.6	38.1767	15,455.6	42.6433
16,000.5	87.3438	16,000.5	86.8242	16,000.5	87.5058	16,000.5	85.3111	16,000.5	86.7797	16,000.5	83.2913	16,000.5	84.9656	16,000.5	79.0835	16,000.5	80.2583	16,000.5	73.1397	16,000.5	74.4057	16,000.5	67.6193	16,000.5	69.1459	16,000.5	67.3734	16,000.5	68.0886	16,000.5	64.4842	16,000.5	66.1505	16,000.5	59.4018	16,000.5	63.5278	16,000.5	56.0601	16,000.5	57.7828	16,000.5	55.0558	16,000.5	55.2199	16,000.5	47.2698	16,000.5	47.3933	16,000.5	41.1949	16,000.5	45.9706	16,000.5	45.6034	16,000.5	45.9375	16,000.5	40.9691	16,000.5	47.9475	16,000.5	41.7657	16,000.5	46.7024	16,000.5	48.2259	16,000.5	31.3892	16,000.5	44.0834
16,564.5	86.6216	16,564.5	86.2646	16,564.5	86.7723	16,564.5	85.1002	16,564.5	86.2819	16,564.5	83.4522	16,564.5	84.892	16,564.5	78.9062	16,564.5	80.1401	16,564.5	71.9693	16,564.5	74.6875	16,564.5	68.3795	16,564.5	71.2399	16,564.5	66.619	16,564.5	69.8404	16,564.5	65.825	16,564.5	67.2578	16,564.5	61.6789	16,564.5	65.402	16,564.5	58.4942	16,564.5	59.7868	16,564.5	56.3681	16,564.5	56.219	16,564.5	46.3163	16,564.5	42.1879	16,564.5	39.4754	16,564.5	52.3126	16,564.5	46.7179	16,564.5	47.1582	16,564.5	44.9025	16,564.5	48.6082	16,564.5	39.9898	16,564.5	46.8917	16,564.5	48.4703	16,564.5	28.0538	16,564.5	43.8959
17,148.9	86.1599	17,148.9	86.0177	17,148.9	86.2013	17,148.9	85.0248	17,148.9	85.5728	17,148.9	83.3611	17,148.9	84.4722	17,148.9	79.0257	17,148.9	80.201	17,148.9	72.344	17,148.9	74.7519	17,148.9	69.9815	17,148.9	72.0342	17,148.9	68.7184	17,148.9	70.9272	17,148.9	69.4096	17,148.9	68.5529	17,148.9	64.3034	17,148.9	66.361	17,148.9	60.7874	17,148.9	61.1214	17,148.9	56.9463	17,148.9	56.5137	17,148.9	46.6673	17,148.9	39.8868	17,148.9	45.2224	17,148.9	54.9697	17,148.9	43.2555	17,148.9	46.5796	17,148.9	43.814	17,148.9	47.416	17,148.9	29.5435	17,148.9	47.2561	17,148.9	50.5904	17,148.9	26.4699	17,148.9	42.3101
17,752.4	85.731	17,752.4	85.7177	17,752.4	85.838	17,752.4	84.8387	17,752.4	85.0755	17,752.4	82.8979	17,752.4	83.6994	17,752.4	78.4624	17,752.4	79.5266	17,752.4	72.4614	17,752.4	74.3118	17,752.4	69.4569	17,752.4	71.6338	17,752.4	69.8458	17,752.4	72.1143	17,752.4	68.3254	17,752.4	67.5059	17,752.4	63.1716	17,752.4	64.9973	17,752.4	58.3957	17,752.4	59.4658	17,752.4	55.2284	17,752.4	54.1253	17,752.4	44.7366	17,752.4	46.9284	17,752.4	43.3295	17,752.4	54.9819	17,752.4	33.8874	17,752.4	45.4443	17,752.4	41.8369	17,752.4	47.857	17,752.4	42.4286	17,752.4	46.2991	17,752.4	52.5458	17,752.4	35.7338	17,752.4	39.0342
18,379.4	85.0091	18,379.4	84.8864	18,379.4	85.0323	18,379.4	83.9994	18,379.4	84.2922	18,379.4	81.9919	18,379.4	82.5722	18,379.4	77.2104	18,379.4	77.8629	18,379.4	72.1065	18,379.4	73.3126	18,379.4	69.5723	18,379.4	71.0173	18,379.4	68.534	18,379.4	70.3481	18,379.4	65.9875	18,379.4	64.5867	18,379.4	61.8707	18,379.4	62.9671	18,379.4	57.7626	18,379.4	57.5595	18,379.4	53.4735	18,379.4	52.5252	18,379.4	38.6549	18,379.4	47.1287	18,379.4	47.4803	18,379.4	53.9244	18,379.4	29.8361	18,379.4	44.4635	18,379.4	39.086	18,379.4	46.7152	18,379.4	46.0949	18,379.4	41.1606	18,379.4	53.0363	18,379.4	43.2002	18,379.4	33.6021
19,026.9	84.1653	19,026.9	84.0589	19,026.9	83.7348	19,026.9	82.9769	19,026.9	82.8587	19,026.9	80.8069	19,026.9	80.623	19,026.9	75.2728	19,026.9	74.7306	19,026.9	69.0796	19,026.9	68.8828	19,026.9	69.1471	19,026.9	68.8098	19,026.9	66.5106	19,026.9	67.3105	19,026.9	64.6382	19,026.9	62.9967	19,026.9	61.4161	19,026.9	60.7456	19,026.9	56.2844	19,026.9	54.9432	19,026.9	51.4687	19,026.9	50.5625	19,026.9	43.939	19,026.9	47.9342	19,026.9	46.2048	19,026.9	53.7419	19,026.9	38.054	19,026.9	45.3371	19,026.9	34.6076	19,026.9	46.9186	19,026.9	47.6379	19,026.9	37.14	19,026.9	52.4305	19,026.9	44.3084	19,026.9	30.5647
19,697.8	83.7656	19,697.8	83.548	19,697.8	82.7118	19,697.8	81.9311	19,697.8	81.231	19,697.8	79.1865	19,697.8	78.2008	19,697.8	72.4085	19,697.8	69.9717	19,697.8	66.7409	19,697.8	61.2173	19,697.8	68.569	19,697.8	66.0257	19,697.8	66.602	19,697.8	67.1414	19,697.8	64.1097	19,697.8	61.8398	19,697.8	60.2059	19,697.8	58.5785	19,697.8	54.8564	19,697.8	52.3375	19,697.8	50.115	19,697.8	47.6129	19,697.8	46.9345	19,697.8	48.4463	19,697.8	43.889	19,697.8	54.814	19,697.8	38.7939	19,697.8	45.7206	19,697.8	37.0362	19,697.8	48.4746	19,697.8	47.9579	19,697.8	40.7201	19,697.8	52.0114	19,697.8	44.9142	19,697.8	32.0478
19,999.5	83.9195	19,999.5	83.4872	19,999.5	82.8232	19,999.5	81.3982	19,999.5	80.4876	19,999.5	78.2455	19,999.5	76.931	19,999.5	72.1484	19,999.5	67.8612	19,999.5	67.6085	19,999.5	59.1632	19,999.5	68.8186	19,999.5	65.16	19,999.5	66.4886	19,999.5	67.6245	19,999.5	62.8617	19,999.5	61.8784	19,999.5	60.5855	19,999.5	59.7358	19,999.5	51.4027	19,999.5	46.7359	19,999.5	42.2563	19,999.5	45.4115	19,999.5	41.8793	19,999.5	52.54	19,999.5	24.773	19,999.5	53.5445	19,999.5	43.4754	19,999.5	49.0669	19,999.5	42.0609	19,999.5	46.8005	19,999.5	50.1432	19,999.5	41.8855	19,999.5	55.2663	19,999.5	41.0576	19,999.5	41.7493
