"SPL Vertical"
"On-Axis"		"10°"		"-10°"		"20°"		"-20°"		"30°"		"-30°"		"40°"		"-40°"		"50°"		"-50°"		"60°"		"-60°"		"70°"		"-70°"		"80°"		"-80°"		"90°"		"-90°"		"100°"		"-100°"		"110°"		"-110°"		"120°"		"-120°"		"130°"		"-130°"		"140°"		"-140°"		"150°"		"-150°"		"160°"		"-160°"		"170°"		"-170°"		"180°"
"Frequency / Hz"	"Sound Pressure Level / dB (re 20 µPa/V)  [2.83  V @ 1. m]"	"Frequency / Hz"	"Sound Pressure Level / dB (re 20 µPa/V)  [2.83  V @ 1. m]"	"Frequency / Hz"	"Sound Pressure Level / dB (re 20 µPa/V)  [2.83  V @ 1. m]"	"Frequency / Hz"	"Sound Pressure Level / dB (re 20 µPa/V)  [2.83  V @ 1. m]"	"Frequency / Hz"	"Sound Pressure Level / dB (re 20 µPa/V)  [2.83  V @ 1. m]"	"Frequency / Hz"	"Sound Pressure Level / dB (re 20 µPa/V)  [2.83  V @ 1. m]"	"Frequency / Hz"	"Sound Pressure Level / dB (re 20 µPa/V)  [2.83  V @ 1. m]"	"Frequency / Hz"	"Sound Pressure Level / dB (re 20 µPa/V)  [2.83  V @ 1. m]"	"Frequency / Hz"	"Sound Pressure Level / dB (re 20 µPa/V)  [2.83  V @ 1. m]"	"Frequency / Hz"	"Sound Pressure Level / dB (re 20 µPa/V)  [2.83  V @ 1. m]"	"Frequency / Hz"	"Sound Pressure Level / dB (re 20 µPa/V)  [2.83  V @ 1. m]"	"Frequency / Hz"	"Sound Pressure Level / dB (re 20 µPa/V)  [2.83  V @ 1. m]"	"Frequency / Hz"	"Sound Pressure Level / dB (re 20 µPa/V)  [2.83  V @ 1. m]"	"Frequency / Hz"	"Sound Pressure Level / dB (re 20 µPa/V)  [2.83  V @ 1. m]"	"Frequency / Hz"	"Sound Pressure Level / dB (re 20 µPa/V)  [2.83  V @ 1. m]"	"Frequency / Hz"	"Sound Pressure Level / dB (re 20 µPa/V)  [2.83  V @ 1. m]"	"Frequency / Hz"	"Sound Pressure Level / dB (re 20 µPa/V)  [2.83  V @ 1. m]"	"Frequency / Hz"	"Sound Pressure Level / dB (re 20 µPa/V)  [2.83  V @ 1. m]"	"Frequency / Hz"	"Sound Pressure Level / dB (re 20 µPa/V)  [2.83  V @ 1. m]"	"Frequency / Hz"	"Sound Pressure Level / dB (re 20 µPa/V)  [2.83  V @ 1. m]"	"Frequency / Hz"	"Sound Pressure Level / dB (re 20 µPa/V)  [2.83  V @ 1. m]"	"Frequency / Hz"	"Sound Pressure Level / dB (re 20 µPa/V)  [2.83  V @ 1. m]"	"Frequency / Hz"	"Sound Pressure Level / dB (re 20 µPa/V)  [2.83  V @ 1. m]"	"Frequency / Hz"	"Sound Pressure Level / dB (re 20 µPa/V)  [2.83  V @ 1. m]"	"Frequency / Hz"	"Sound Pressure Level / dB (re 20 µPa/V)  [2.83  V @ 1. m]"	"Frequency / Hz"	"Sound Pressure Level / dB (re 20 µPa/V)  [2.83  V @ 1. m]"	"Frequency / Hz"	"Sound Pressure Level / dB (re 20 µPa/V)  [2.83  V @ 1. m]"	"Frequency / Hz"	"Sound Pressure Level / dB (re 20 µPa/V)  [2.83  V @ 1. m]"	"Frequency / Hz"	"Sound Pressure Level / dB (re 20 µPa/V)  [2.83  V @ 1. m]"	"Frequency / Hz"	"Sound Pressure Level / dB (re 20 µPa/V)  [2.83  V @ 1. m]"	"Frequency / Hz"	"Sound Pressure Level / dB (re 20 µPa/V)  [2.83  V @ 1. m]"	"Frequency / Hz"	"Sound Pressure Level / dB (re 20 µPa/V)  [2.83  V @ 1. m]"	"Frequency / Hz"	"Sound Pressure Level / dB (re 20 µPa/V)  [2.83  V @ 1. m]"	"Frequency / Hz"	"Sound Pressure Level / dB (re 20 µPa/V)  [2.83  V @ 1. m]"	"Frequency / Hz"	"Sound Pressure Level / dB (re 20 µPa/V)  [2.83  V @ 1. m]"	"Frequency / Hz"	"Sound Pressure Level / dB (re 20 µPa/V)  [2.83  V @ 1. m]"
20.5078	47.6667	20.5078	47.6703	20.5078	47.5523	20.5078	47.5795	20.5078	47.3126	20.5078	47.4125	20.5078	46.9344	20.5078	47.1879	20.5078	46.4065	20.5078	46.924	20.5078	45.7234	20.5078	46.6364	20.5078	44.8947	20.5078	46.3368	20.5078	43.9677	20.5078	46.0322	20.5078	43.0634	20.5078	45.7249	20.5078	42.398	20.5078	45.4144	20.5078	42.2	20.5078	45.1005	20.5078	42.5072	20.5078	44.788	20.5078	43.1113	20.5078	44.492	20.5078	43.7464	20.5078	44.2416	20.5078	44.2381	20.5078	44.0769	20.5078	44.5158	20.5078	44.034	20.5078	44.5802	20.5078	44.12	20.5078	44.48	20.5078	44.2953
21.9727	35.811	21.9727	35.1993	21.9727	35.8058	21.9727	33.871	21.9727	35.1646	21.9727	31.5139	21.9727	33.7433	21.9727	27.1533	21.9727	31.203	21.9727	14.8019	21.9727	27.2522	21.9727	23.5039	21.9727	27.0653	21.9727	31.3114	21.9727	32.6368	21.9727	35.6153	21.9727	37.0792	21.9727	38.634	21.9727	40.3382	21.9727	40.9681	21.9727	42.8337	21.9727	42.8659	21.9727	44.7915	21.9727	44.45	21.9727	46.333	21.9727	45.7853	21.9727	47.528	21.9727	46.9057	21.9727	48.4191	21.9727	47.827	21.9727	49.0343	21.9727	48.5533	21.9727	49.3937	21.9727	49.0817	21.9727	49.5127	21.9727	49.4049
23.4375	47.8375	23.4375	47.5482	23.4375	48.0479	23.4375	47.1963	23.4375	48.1695	23.4375	46.8065	23.4375	48.1976	23.4375	46.4163	23.4375	48.135	23.4375	46.0791	23.4375	47.9971	23.4375	45.8635	23.4375	47.8216	23.4375	45.8415	23.4375	47.6791	23.4375	46.0645	23.4375	47.6728	23.4375	46.5393	23.4375	47.9071	23.4375	47.2229	23.4375	48.4257	23.4375	48.0421	23.4375	49.1729	23.4375	48.9193	23.4375	50.0255	23.4375	49.7877	23.4375	50.8566	23.4375	50.5959	23.4375	51.5729	23.4375	51.3046	23.4375	52.1193	23.4375	51.8831	23.4375	52.4689	23.4375	52.3069	23.4375	52.6132	23.4375	52.5556
24.9023	48.5047	24.9023	48.062	24.9023	48.8187	24.9023	47.5363	24.9023	48.9776	24.9023	47.0074	24.9023	48.9666	24.9023	46.6014	24.9023	48.7823	24.9023	46.4779	24.9023	48.4425	24.9023	46.7633	24.9023	48.0141	24.9023	47.4655	24.9023	47.6579	24.9023	48.4712	24.9023	47.6466	24.9023	49.6292	24.9023	48.2277	24.9023	50.8189	24.9023	49.3769	24.9023	51.9649	24.9023	50.8158	24.9023	53.0241	24.9023	52.2641	24.9023	53.9707	24.9023	53.5579	24.9023	54.7865	24.9023	54.6249	24.9023	55.4553	24.9023	55.4414	24.9023	55.9608	24.9023	56.0053	24.9023	56.2859	24.9023	56.3247	24.9023	56.413
26.3672	53.0246	26.3672	52.8696	26.3672	53.1469	26.3672	52.7182	26.3672	53.2137	26.3672	52.6189	26.3672	53.2157	26.3672	52.6271	26.3672	53.1603	26.3672	52.7932	26.3672	53.0785	26.3672	53.1467	26.3672	53.0338	26.3672	53.6853	26.3672	53.1238	26.3672	54.3763	26.3672	53.4566	26.3672	55.1702	26.3672	54.0918	26.3672	56.0149	26.3672	54.9939	26.3672	56.8649	26.3672	56.049	26.3672	57.683	26.3672	57.1275	26.3672	58.4391	26.3672	58.1266	26.3672	59.108	26.3672	58.9808	26.3672	59.667	26.3672	59.6535	26.3672	60.0948	26.3672	60.1283	26.3672	60.3715	26.3672	60.4017	26.3672	60.479
27.832	57.0687	27.832	56.9484	27.832	57.1783	27.832	56.8477	27.832	57.2567	27.832	56.8049	27.832	57.2952	27.832	56.8608	27.832	57.2991	27.832	57.0503	27.832	57.2922	27.832	57.3925	27.832	57.321	27.832	57.8845	27.832	57.4543	27.832	58.5031	27.832	57.7671	27.832	59.2117	27.832	58.3065	27.832	59.9696	27.832	59.0601	27.832	60.7384	27.832	59.9562	27.832	61.4841	27.832	60.8974	27.832	62.1775	27.832	61.7938	27.832	62.7927	27.832	62.5794	27.832	63.3064	27.832	63.2119	27.832	63.6966	27.832	63.6686	27.832	63.9435	27.832	63.9407	27.832	64.0294
29.2969	60.9405	29.2969	60.8377	29.2969	61.0341	29.2969	60.7505	29.2969	61.102	29.2969	60.7107	29.2969	61.1377	29.2969	60.7531	29.2969	61.1466	29.2969	60.9089	29.2969	61.1487	29.2969	61.198	29.2969	61.1826	29.2969	61.6232	29.2969	61.3041	29.2969	62.169	29.2969	61.5755	29.2969	62.8064	29.2969	62.04	29.2969	63.4996	29.2969	62.696	29.2969	64.2124	29.2969	63.4916	29.2969	64.9111	29.2969	64.3452	29.2969	65.5657	29.2969	65.1745	29.2969	66.1494	29.2969	65.9135	29.2969	66.6375	29.2969	66.5169	29.2969	67.0078	29.2969	66.9581	29.2969	67.2399	29.2969	67.225	29.2969	67.3166
30.7617	64.1753	30.7617	64.1165	30.7617	64.2464	30.7617	64.0876	30.7617	64.3176	30.7617	64.1102	30.7617	64.3841	30.7617	64.206	30.7617	64.4498	30.7617	64.3934	30.7617	64.5293	30.7617	64.6832	30.7617	64.6487	30.7617	65.0758	30.7617	64.8438	30.7617	65.5607	30.7617	65.1517	30.7617	66.1185	30.7617	65.5972	30.7617	66.7244	30.7617	66.1779	30.7617	67.3511	30.7617	66.8602	30.7617	67.9711	30.7617	67.5883	30.7617	68.558	30.7617	68.3004	30.7617	69.0865	30.7617	68.9414	30.7617	69.5327	30.7617	69.4698	30.7617	69.8745	30.7617	69.8581	30.7617	70.0919	30.7617	70.0921	30.7617	70.1683
32.2266	67.195	32.2266	67.155	32.2266	67.2515	32.2266	67.1447	32.2266	67.3155	32.2266	67.1797	32.2266	67.3834	32.2266	67.2759	32.2266	67.4582	32.2266	67.4472	32.2266	67.5512	32.2266	67.7024	32.2266	67.6816	32.2266	68.0431	32.2266	67.8759	32.2266	68.4631	32.2266	68.1615	32.2266	68.9489	32.2266	68.5572	32.2266	69.4816	32.2266	69.0631	32.2266	70.0385	32.2266	69.6555	32.2266	70.5955	32.2266	70.2919	32.2266	71.128	32.2266	70.9213	32.2266	71.6114	32.2266	71.4947	32.2266	72.0222	32.2266	71.9724	32.2266	72.3383	32.2266	72.3265	32.2266	72.5399	32.2266	72.5412	32.2266	72.6111
33.6914	70.1584	33.6914	70.1213	33.6914	70.2129	33.6914	70.111	33.6914	70.2782	33.6914	70.1391	33.6914	70.3519	33.6914	70.2179	33.6914	70.4366	33.6914	70.3586	33.6914	70.5404	33.6914	70.5692	33.6914	70.6773	33.6914	70.8531	33.6914	70.8662	33.6914	71.2077	33.6914	71.1268	33.6914	71.6243	33.6914	71.4735	33.6914	72.0886	33.6914	71.9077	33.6914	72.5822	33.6914	72.4137	33.6914	73.0837	33.6914	72.9599	33.6914	73.57	33.6914	73.5049	33.6914	74.0174	33.6914	74.006	33.6914	74.4026	33.6914	74.4261	33.6914	74.7032	33.6914	74.7374	33.6914	74.8996	33.6914	74.923	33.6914	74.9763
35.1562	72.6741	35.1562	72.6344	35.1562	72.7341	35.1562	72.6229	35.1562	72.809	35.1562	72.6489	35.1562	72.8965	35.1562	72.7223	35.1562	72.9984	35.1562	72.8522	35.1562	73.1205	35.1562	73.0455	35.1562	73.2733	35.1562	73.3054	35.1562	73.4705	35.1562	73.6306	35.1562	73.7265	35.1562	74.0144	35.1562	74.052	35.1562	74.4453	35.1562	74.4487	35.1562	74.9073	35.1562	74.9051	35.1562	75.3811	35.1562	75.3969	35.1562	75.8451	35.1562	75.8899	35.1562	76.2761	35.1562	76.3463	35.1562	76.6508	35.1562	76.7312	35.1562	76.9467	35.1562	77.0166	35.1562	77.1437	35.1562	77.1843	35.1562	77.2261
36.6211	74.7014	36.6211	74.6643	36.6211	74.7589	36.6211	74.6536	36.6211	74.8327	36.6211	74.6765	36.6211	74.9211	36.6211	74.7406	36.6211	75.0253	36.6211	74.8534	36.6211	75.1497	36.6211	75.0207	36.6211	75.3016	36.6211	75.246	36.6211	75.491	36.6211	75.5292	36.6211	75.7286	36.6211	75.8659	36.6211	76.0225	36.6211	76.2477	36.6211	76.3745	36.6211	76.6614	36.6211	76.7763	36.6211	77.0905	36.6211	77.2089	36.6211	77.5153	36.6211	77.644	36.6211	77.9141	36.6211	78.0485	36.6211	78.2645	36.6211	78.3906	36.6211	78.5446	36.6211	78.6435	36.6211	78.7346	36.6211	78.7892	36.6211	78.8192
38.0859	76.2556	38.0859	76.2128	38.0859	76.3185	38.0859	76.1955	38.0859	76.3978	38.0859	76.2103	38.0859	76.4917	38.0859	76.2642	38.0859	76.601	38.0859	76.3638	38.0859	76.7292	38.0859	76.5146	38.0859	76.8822	38.0859	76.7202	38.0859	77.0682	38.0859	76.9807	38.0859	77.2956	38.0859	77.2929	38.0859	77.5713	38.0859	77.6491	38.0859	77.8966	38.0859	78.0378	38.0859	78.2648	38.0859	78.4434	38.0859	78.6597	38.0859	78.8474	38.0859	79.0565	38.0859	79.2291	38.0859	79.4257	38.0859	79.5668	38.0859	79.7374	38.0859	79.839	38.0859	79.9665	38.0859	80.0268	38.0859	80.0952	38.0859	80.1151
39.5508	77.8947	39.5508	77.8598	39.5508	77.9546	39.5508	77.8537	39.5508	78.0367	39.5508	77.8809	39.5508	78.1394	39.5508	77.946	39.5508	78.2629	39.5508	78.0534	39.5508	78.4087	39.5508	78.2065	39.5508	78.5803	39.5508	78.4074	39.5508	78.782	39.5508	78.6557	39.5508	79.0185	39.5508	78.9484	39.5508	79.293	39.5508	79.2793	39.5508	79.6052	39.5508	79.6387	39.5508	79.9486	39.5508	80.0137	39.5508	80.3095	39.5508	80.3881	39.5508	80.6675	39.5508	80.7436	39.5508	80.9976	39.5508	81.0604	39.5508	81.274	39.5508	81.3186	39.5508	81.4743	39.5508	81.5001	39.5508	81.5825	39.5508	81.5909
41.0156	79.185	41.0156	79.1467	41.0156	79.2501	41.0156	79.1381	41.0156	79.3394	41.0156	79.1628	41.0156	79.4512	41.0156	79.2241	41.0156	79.5849	41.0156	79.3251	41.0156	79.7408	41.0156	79.4685	41.0156	79.9204	41.0156	79.6555	41.0156	80.1258	41.0156	79.8859	41.0156	80.3598	41.0156	80.157	41.0156	80.6238	41.0156	80.4638	41.0156	80.9168	41.0156	80.798	41.0156	81.2331	41.0156	81.1485	41.0156	81.561	41.0156	81.5009	41.0156	81.8831	41.0156	81.8384	41.0156	82.1774	41.0156	82.1424	41.0156	82.421	41.0156	82.394	41.0156	82.5935	41.0156	82.5758	41.0156	82.6802	41.0156	82.674
42.4805	80.7132	42.4805	80.679	42.4805	80.7722	42.4805	80.6718	42.4805	80.8543	42.4805	80.694	42.4805	80.9581	42.4805	80.7481	42.4805	81.083	42.4805	80.8367	42.4805	81.2288	42.4805	80.9618	42.4805	81.3963	42.4805	81.1245	42.4805	81.5863	42.4805	81.3251	42.4805	81.8001	42.4805	81.5618	42.4805	82.0383	42.4805	81.8309	42.4805	82.2995	42.4805	82.1259	42.4805	82.5789	42.4805	82.4375	42.4805	82.8671	42.4805	82.7533	42.4805	83.1493	42.4805	83.0583	42.4805	83.407	42.4805	83.3354	42.4805	83.6199	42.4805	83.5669	42.4805	83.7695	42.4805	83.7364	42.4805	83.842	42.4805	83.8307
43.9453	81.8281	43.9453	81.7977	43.9453	81.8836	43.9453	81.7938	43.9453	81.9632	43.9453	81.8179	43.9453	82.0657	43.9453	81.8712	43.9453	82.1903	43.9453	81.9554	43.9453	82.3361	43.9453	82.0717	43.9453	82.5025	43.9453	82.2208	43.9453	82.6894	43.9453	82.4029	43.9453	82.8962	43.9453	82.6169	43.9453	83.1223	43.9453	82.8598	43.9453	83.3657	43.9453	83.1268	43.9453	83.6217	43.9453	83.41	43.9453	83.8821	43.9453	83.6989	43.9453	84.1344	43.9453	83.98	43.9453	84.3624	43.9453	84.2379	43.9453	84.5484	43.9453	84.456	43.9453	84.6761	43.9453	84.6189	43.9453	84.7332	43.9453	84.7138
45.4102	82.8825	45.4102	82.8474	45.4102	82.9446	45.4102	82.8402	45.4102	83.0324	45.4102	82.862	45.4102	83.1446	45.4102	82.9133	45.4102	83.2796	45.4102	82.9951	45.4102	83.4355	45.4102	83.1078	45.4102	83.6106	45.4102	83.2516	45.4102	83.803	45.4102	83.4262	45.4102	84.011	45.4102	83.6303	45.4102	84.2324	45.4102	83.8613	45.4102	84.4646	45.4102	84.1147	45.4102	84.7029	45.4102	84.3834	45.4102	84.9403	45.4102	84.658	45.4102	85.1661	45.4102	84.9262	45.4102	85.3669	45.4102	85.1737	45.4102	85.5276	45.4102	85.3853	45.4102	85.6338	45.4102	85.5465	45.4102	85.6748	45.4102	85.6454
46.875	83.9442	46.875	83.9086	46.875	84.011	46.875	83.905	46.875	84.1076	46.875	83.9332	46.875	84.2315	46.875	83.9925	46.875	84.3798	46.875	84.0819	46.875	84.5491	46.875	84.2002	46.875	84.7357	46.875	84.3461	46.875	84.9362	46.875	84.5181	46.875	85.1471	46.875	84.7145	46.875	85.3653	46.875	84.9329	46.875	85.5874	46.875	85.1695	46.875	85.8092	46.875	85.4188	46.875	86.0247	46.875	85.6731	46.875	86.2253	46.875	85.9221	46.875	86.3998	46.875	86.1533	46.875	86.5358	46.875	86.3534	46.875	86.6213	46.875	86.5091	46.875	86.6472	46.875	86.6093
48.3398	85.2713	48.3398	85.2349	48.3398	85.3351	48.3398	85.2259	48.3398	85.4252	48.3398	85.2437	48.3398	85.54	48.3398	85.2875	48.3398	85.6767	48.3398	85.3563	48.3398	85.8321	48.3398	85.4492	48.3398	86.0022	48.3398	85.5654	48.3398	86.183	48.3398	85.704	48.3398	86.3705	48.3398	85.8644	48.3398	86.5614	48.3398	86.0451	48.3398	86.752	48.3398	86.2437	48.3398	86.9387	48.3398	86.4562	48.3398	87.1165	48.3398	86.6764	48.3398	87.2785	48.3398	86.8957	48.3398	87.416	48.3398	87.1032	48.3398	87.5189	48.3398	87.2869	48.3398	87.5773	48.3398	87.4346	48.3398	87.5841	48.3398	87.5359
51.2695	86.8276	51.2695	86.7813	51.2695	86.8922	51.2695	86.7535	51.2695	86.9746	51.2695	86.7442	51.2695	87.0738	51.2695	86.7534	51.2695	87.1882	51.2695	86.7813	51.2695	87.3155	51.2695	86.8281	51.2695	87.453	51.2695	86.8943	51.2695	87.5974	51.2695	86.9804	51.2695	87.745	51.2695	87.0866	51.2695	87.8924	51.2695	87.213	51.2695	88.0356	51.2695	87.3583	51.2695	88.1711	51.2695	87.5203	51.2695	88.2945	51.2695	87.6945	51.2695	88.4008	51.2695	87.8745	51.2695	88.484	51.2695	88.0516	51.2695	88.5371	51.2695	88.2155	51.2695	88.5538	51.2695	88.3556	51.2695	88.5294	51.2695	88.4624
52.7344	87.5046	52.7344	87.4536	52.7344	87.5721	52.7344	87.4192	52.7344	87.6556	52.7344	87.4014	52.7344	87.7542	52.7344	87.4001	52.7344	87.8662	52.7344	87.4154	52.7344	87.9897	52.7344	87.4477	52.7344	88.1217	52.7344	87.4974	52.7344	88.2588	52.7344	87.5651	52.7344	88.3971	52.7344	87.6515	52.7344	88.5326	52.7344	87.7569	52.7344	88.661	52.7344	87.881	52.7344	88.7783	52.7344	88.0224	52.7344	88.8803	52.7344	88.1779	52.7344	88.9628	52.7344	88.3425	52.7344	89.0209	52.7344	88.5086	52.7344	89.0496	52.7344	88.667	52.7344	89.0441	52.7344	88.8078	52.7344	89.0015	52.7344	88.9216
54.1992	87.9768	54.1992	87.9198	54.1992	88.0496	54.1992	87.879	54.1992	88.137	54.1992	87.8548	54.1992	88.2374	54.1992	87.8469	54.1992	88.3487	54.1992	87.8554	54.1992	88.468	54.1992	87.8802	54.1992	88.5921	54.1992	87.9215	54.1992	88.7173	54.1992	87.9793	54.1992	88.8397	54.1992	88.0541	54.1992	88.9553	54.1992	88.1458	54.1992	89.0607	54.1992	88.2544	54.1992	89.1527	54.1992	88.3788	54.1992	89.2289	54.1992	88.5164	54.1992	89.2867	54.1992	88.6631	54.1992	89.3232	54.1992	88.8125	54.1992	89.3352	54.1992	88.9564	54.1992	89.3189	54.1992	89.086	54.1992	89.2716	54.1992	89.1931
55.6641	88.6093	55.6641	88.5613	55.6641	88.6752	55.6641	88.531	55.6641	88.7584	55.6641	88.5179	55.6641	88.8574	55.6641	88.5212	55.6641	88.9702	55.6641	88.5398	55.6641	89.0936	55.6641	88.5728	55.6641	89.2235	55.6641	88.6196	55.6641	89.3553	55.6641	88.6797	55.6641	89.4837	55.6641	88.7533	55.6641	89.6039	55.6641	88.8404	55.6641	89.7114	55.6641	88.9414	55.6641	89.803	55.6641	89.0558	55.6641	89.8762	55.6641	89.1823	55.6641	89.9292	55.6641	89.3176	55.6641	89.9601	55.6641	89.4564	55.6641	89.9665	55.6641	89.5916	55.6641	89.946	55.6641	89.715	55.6641	89.8966	55.6641	89.8186
58.5938	89.4043	58.5938	89.3445	58.5938	89.4858	58.5938	89.3064	58.5938	89.5881	58.5938	89.2888	58.5938	89.7089	58.5938	89.2903	58.5938	89.8446	58.5938	89.3089	58.5938	89.9903	58.5938	89.3426	58.5938	90.14	58.5938	89.3898	58.5938	90.2869	58.5938	89.4492	58.5938	90.4241	58.5938	89.5202	58.5938	90.5456	58.5938	89.6025	58.5938	90.646	58.5938	89.6965	58.5938	90.7222	58.5938	89.8022	58.5938	90.7726	58.5938	89.919	58.5938	90.7969	58.5938	90.0453	58.5938	90.7959	58.5938	90.1773	58.5938	90.77	58.5938	90.3098	58.5938	90.7197	58.5938	90.4363	58.5938	90.6459	58.5938	90.5502
60.0586	89.5536	60.0586	89.4938	60.0586	89.6342	60.0586	89.4548	60.0586	89.7347	60.0586	89.4354	60.0586	89.853	60.0586	89.4339	60.0586	89.9853	60.0586	89.4483	60.0586	90.1269	60.0586	89.4766	60.0586	90.2719	60.0586	89.517	60.0586	90.4136	60.0586	89.5684	60.0586	90.5453	60.0586	89.6301	60.0586	90.6609	60.0586	89.7023	60.0586	90.7553	60.0586	89.7855	60.0586	90.825	60.0586	89.8804	60.0586	90.8684	60.0586	89.9872	60.0586	90.8852	60.0586	90.1048	60.0586	90.8761	60.0586	90.2304	60.0586	90.842	60.0586	90.3594	60.0586	90.7838	60.0586	90.4855	60.0586	90.7029	60.0586	90.602
62.9883	89.4512	62.9883	89.3829	62.9883	89.5384	62.9883	89.3333	62.9883	89.6435	62.9883	89.3015	62.9883	89.7645	62.9883	89.286	62.9883	89.8981	62.9883	89.2852	62.9883	90.0396	62.9883	89.2973	62.9883	90.1836	62.9883	89.3209	62.9883	90.3234	62.9883	89.355	62.9883	90.4523	62.9883	89.3994	62.9883	90.5634	62.9883	89.4545	62.9883	90.651	62.9883	89.5212	62.9883	90.7104	62.9883	89.6009	62.9883	90.7389	62.9883	89.6945	62.9883	90.7357	62.9883	89.8023	62.9883	90.7017	62.9883	89.9229	62.9883	90.6393	62.9883	90.0531	62.9883	90.5519	62.9883	90.1877	62.9883	90.4437	62.9883	90.3202
64.4531	89.3361	64.4531	89.2661	64.4531	89.4261	64.4531	89.2158	64.4531	89.5349	64.4531	89.1845	64.4531	89.6605	64.4531	89.1705	64.4531	89.7992	64.4531	89.1719	64.4531	89.9464	64.4531	89.1869	64.4531	90.0961	64.4531	89.2136	64.4531	90.2416	64.4531	89.2507	64.4531	90.3757	64.4531	89.2976	64.4531	90.4912	64.4531	89.3541	64.4531	90.5816	64.4531	89.4211	64.4531	90.6419	64.4531	89.4997	64.4531	90.6689	64.4531	89.5913	64.4531	90.6618	64.4531	89.6964	64.4531	90.6219	64.4531	89.8146	64.4531	90.5522	64.4531	89.9434	64.4531	90.4571	64.4531	90.0784	64.4531	90.342	64.4531	90.2135
67.3828	89.144	67.3828	89.0696	67.3828	89.2389	67.3828	89.0159	67.3828	89.3531	67.3828	88.9818	67.3828	89.484	67.3828	88.9654	67.3828	89.6276	67.3828	88.9644	67.3828	89.7785	67.3828	88.9762	67.3828	89.9304	67.3828	88.9986	67.3828	90.0759	67.3828	89.0295	67.3828	90.2074	67.3828	89.0679	67.3828	90.3171	67.3828	89.1136	67.3828	90.3983	67.3828	89.1673	67.3828	90.4455	67.3828	89.2308	67.3828	90.4557	67.3828	89.3062	67.3828	90.4286	67.3828	89.3956	67.3828	90.3665	67.3828	89.5002	67.3828	90.2744	67.3828	89.6194	67.3828	90.1588	67.3828	89.7506	67.3828	90.0276	67.3828	89.8889
68.8477	89.0538	68.8477	88.9758	68.8477	89.1516	68.8477	88.9178	68.8477	89.2678	68.8477	88.8789	68.8477	89.3995	68.8477	88.8574	68.8477	89.5425	68.8477	88.8508	68.8477	89.6913	68.8477	88.8564	68.8477	89.8395	68.8477	88.8719	68.8477	89.9797	68.8477	88.8952	68.8477	90.1043	68.8477	88.925	68.8477	90.2056	68.8477	88.961	68.8477	90.2767	68.8477	89.0042	68.8477	90.3122	68.8477	89.0565	68.8477	90.3094	68.8477	89.1205	68.8477	90.2681	68.8477	89.199	68.8477	90.1914	68.8477	89.2941	68.8477	90.0853	68.8477	89.4064	68.8477	89.9575	68.8477	89.5343	68.8477	89.8172	68.8477	89.6734
71.7773	88.9218	71.7773	88.8409	71.7773	89.0207	71.7773	88.7786	71.7773	89.1359	71.7773	88.7345	71.7773	89.2644	71.7773	88.7067	71.7773	89.4019	71.7773	88.6931	71.7773	89.5433	71.7773	88.6908	71.7773	89.6827	71.7773	88.6971	71.7773	89.813	71.7773	88.7098	71.7773	89.9271	71.7773	88.7273	71.7773	90.0172	71.7773	88.7494	71.7773	90.0764	71.7773	88.7771	71.7773	90.0991	71.7773	88.8126	71.7773	90.0821	71.7773	88.8594	71.7773	90.0253	71.7773	88.9214	71.7773	89.9323	71.7773	89.0023	71.7773	89.8099	71.7773	89.1042	71.7773	89.6676	71.7773	89.2266	71.7773	89.5162	71.7773	89.3661
74.707	88.7721	74.707	88.6924	74.707	88.8688	74.707	88.6301	74.707	88.9806	74.707	88.5846	74.707	89.1049	74.707	88.5544	74.707	89.2376	74.707	88.5372	74.707	89.3741	74.707	88.5301	74.707	89.5083	74.707	88.5307	74.707	89.6337	74.707	88.5364	74.707	89.7429	74.707	88.5459	74.707	89.8283	74.707	88.5589	74.707	89.8824	74.707	88.5765	74.707	89.8995	74.707	88.6014	74.707	89.8761	74.707	88.6375	74.707	89.8118	74.707	88.6895	74.707	89.7105	74.707	88.7619	74.707	89.5795	74.707	88.8577	74.707	89.4292	74.707	88.9773	74.707	89.2713	74.707	89.1174
77.6367	88.748	77.6367	88.6649	77.6367	88.8463	77.6367	88.5976	77.6367	88.9579	77.6367	88.5457	77.6367	89.0798	77.6367	88.5077	77.6367	89.2082	77.6367	88.4812	77.6367	89.338	77.6367	88.4634	77.6367	89.4636	77.6367	88.4516	77.6367	89.5782	77.6367	88.4434	77.6367	89.6746	77.6367	88.4372	77.6367	89.7451	77.6367	88.4328	77.6367	89.7825	77.6367	88.4317	77.6367	89.781	77.6367	88.4368	77.6367	89.7372	77.6367	88.453	77.6367	89.6514	77.6367	88.4861	77.6367	89.5284	77.6367	88.5419	77.6367	89.3768	77.6367	88.6252	77.6367	89.2089	77.6367	88.7379	77.6367	89.0382	77.6367	88.8777
79.1016	88.7721	79.1016	88.6858	79.1016	88.8726	79.1016	88.6146	79.1016	88.9853	79.1016	88.558	79.1016	89.1069	79.1016	88.5148	79.1016	89.2336	79.1016	88.4826	79.1016	89.3605	79.1016	88.4587	79.1016	89.4817	79.1016	88.4402	79.1016	89.591	79.1016	88.4247	79.1016	89.681	79.1016	88.4106	79.1016	89.7442	79.1016	88.3979	79.1016	89.7735	79.1016	88.3879	79.1016	89.763	79.1016	88.3841	79.1016	89.7095	79.1016	88.3915	79.1016	89.6134	79.1016	88.4166	79.1016	89.4798	79.1016	88.466	79.1016	89.3179	79.1016	88.545	79.1016	89.1408	79.1016	88.656	79.1016	88.9627	79.1016	88.7975
82.0312	88.7596	82.0312	88.6715	82.0312	88.8621	82.0312	88.5985	82.0312	88.9767	82.0312	88.5404	82.0312	89.1005	82.0312	88.4955	82.0312	89.2295	82.0312	88.4615	82.0312	89.3585	82.0312	88.4355	82.0312	89.4817	82.0312	88.4142	82.0312	89.5924	82.0312	88.395	82.0312	89.6828	82.0312	88.376	82.0312	89.745	82.0312	88.3569	82.0312	89.771	82.0312	88.339	82.0312	89.7546	82.0312	88.3259	82.0312	89.692	82.0312	88.3232	82.0312	89.5839	82.0312	88.3381	82.0312	89.4359	82.0312	88.3785	82.0312	89.2588	82.0312	88.4511	82.0312	89.067	82.0312	88.5599	82.0312	88.877	82.0312	88.7041
84.9609	88.6719	84.9609	88.5802	84.9609	88.7796	84.9609	88.5053	84.9609	88.9009	84.9609	88.4472	84.9609	89.0326	84.9609	88.4043	84.9609	89.1705	84.9609	88.3739	84.9609	89.3093	84.9609	88.3531	84.9609	89.4434	84.9609	88.3383	84.9609	89.5659	84.9609	88.3267	84.9609	89.6691	84.9609	88.3161	84.9609	89.7447	84.9609	88.306	84.9609	89.7845	84.9609	88.2975	84.9609	89.7811	84.9609	88.2942	84.9609	89.7301	84.9609	88.3017	84.9609	89.6308	84.9609	88.3272	84.9609	89.4881	84.9609	88.3786	84.9609	89.312	84.9609	88.4627	84.9609	89.1172	84.9609	88.583	84.9609	88.9205	84.9609	88.7381
87.8906	88.8101	87.8906	88.7113	87.8906	88.9187	87.8906	88.6241	87.8906	89.0345	87.8906	88.549	87.8906	89.1538	87.8906	88.4855	87.8906	89.273	87.8906	88.4317	87.8906	89.3876	87.8906	88.3851	87.8906	89.4931	87.8906	88.3429	87.8906	89.5839	87.8906	88.3028	87.8906	89.6539	87.8906	88.263	87.8906	89.6959	87.8906	88.2235	87.8906	89.7027	87.8906	88.1861	87.8906	89.6679	87.8906	88.155	87.8906	89.5877	87.8906	88.1364	87.8906	89.4621	87.8906	88.1385	87.8906	89.2963	87.8906	88.1702	87.8906	89.1012	87.8906	88.2391	87.8906	88.892	87.8906	88.3497	87.8906	88.6864	87.8906	88.5013
90.8203	88.8183	90.8203	88.716	90.8203	88.9305	90.8203	88.6255	90.8203	89.0498	90.8203	88.5474	90.8203	89.1724	90.8203	88.481	90.8203	89.2943	90.8203	88.4243	90.8203	89.4108	90.8203	88.3744	90.8203	89.5166	90.8203	88.3283	90.8203	89.6056	90.8203	88.2828	90.8203	89.6708	90.8203	88.2359	90.8203	89.7046	90.8203	88.1872	90.8203	89.6994	90.8203	88.1384	90.8203	89.6488	90.8203	88.0935	90.8203	89.5493	90.8203	88.0594	90.8203	89.4022	90.8203	88.0452	90.8203	89.2143	90.8203	88.0612	90.8203	88.9985	90.8203	88.1167	90.8203	88.7726	90.8203	88.2184	90.8203	88.556	90.8203	88.3669
95.2148	88.8977	95.2148	88.7887	95.2148	89.0152	95.2148	88.6909	95.2148	89.1381	95.2148	88.6052	95.2148	89.2625	95.2148	88.5316	95.2148	89.3847	95.2148	88.4682	95.2148	89.5005	95.2148	88.4125	95.2148	89.6057	95.2148	88.3611	95.2148	89.6948	95.2148	88.311	95.2148	89.7614	95.2148	88.26	95.2148	89.7975	95.2148	88.2075	95.2148	89.7947	95.2148	88.1552	95.2148	89.7452	95.2148	88.1072	95.2148	89.6444	95.2148	88.0706	95.2148	89.4923	95.2148	88.0549	95.2148	89.2957	95.2148	88.0712	95.2148	89.068	95.2148	88.1297	95.2148	88.8281	95.2148	88.2375	95.2148	88.5974	95.2148	88.3957
98.1445	88.8926	98.1445	88.7816	98.1445	89.0102	98.1445	88.6796	98.1445	89.1314	98.1445	88.5879	98.1445	89.2533	98.1445	88.5069	98.1445	89.3727	98.1445	88.4355	98.1445	89.4864	98.1445	88.3717	98.1445	89.5908	98.1445	88.313	98.1445	89.6812	98.1445	88.257	98.1445	89.751	98.1445	88.202	98.1445	89.7925	98.1445	88.1477	98.1445	89.7965	98.1445	88.0962	98.1445	89.7546	98.1445	88.0519	98.1445	89.661	98.1445	88.0216	98.1445	89.5148	98.1445	88.0148	98.1445	89.3216	98.1445	88.0419	98.1445	89.0941	98.1445	88.1125	98.1445	88.851	98.1445	88.2327	98.1445	88.6136	98.1445	88.4023
101.074	88.8281	101.074	88.7086	101.074	88.9515	101.074	88.5957	101.074	89.0755	101.074	88.4917	101.074	89.1971	101.074	88.3974	101.074	89.3135	101.074	88.3125	101.074	89.4221	101.074	88.2358	101.074	89.5198	101.074	88.1649	101.074	89.6028	101.074	88.0979	101.074	89.6652	101.074	88.0333	101.074	89.6994	101.074	87.9708	101.074	89.6964	101.074	87.9125	101.074	89.6476	101.074	87.8628	101.074	89.5465	101.074	87.829	101.074	89.3919	101.074	87.8206	101.074	89.1891	101.074	87.8484	101.074	88.951	101.074	87.9222	101.074	88.6964	101.074	88.0483	101.074	88.4478	101.074	88.2263
105.469	88.8927	105.469	88.772	105.469	89.0126	105.469	88.6541	105.469	89.1281	105.469	88.5419	105.469	89.2362	105.469	88.4372	105.469	89.3345	105.469	88.3404	105.469	89.4213	105.469	88.2507	105.469	89.4947	105.469	88.1663	105.469	89.5523	105.469	88.0852	105.469	89.5901	105.469	88.0061	105.469	89.6018	105.469	87.9288	105.469	89.5797	105.469	87.8554	105.469	89.5156	105.469	87.7907	105.469	89.4033	105.469	87.742	105.469	89.2412	105.469	87.7194	105.469	89.0343	105.469	87.7339	105.469	88.7949	105.469	87.7958	105.469	88.5418	105.469	87.9117	105.469	88.2969	105.469	88.0815
108.398	88.9784	108.398	88.8643	108.398	89.0906	108.398	88.7519	108.398	89.1979	108.398	88.6437	108.398	89.2975	108.398	88.5416	108.398	89.3873	108.398	88.446	108.398	89.4658	108.398	88.3558	108.398	89.5317	108.398	88.2694	108.398	89.5826	108.398	88.1847	108.398	89.6147	108.398	88.1002	108.398	89.6218	108.398	88.016	108.398	89.596	108.398	87.9342	108.398	89.529	108.398	87.8597	108.398	89.4145	108.398	87.8006	108.398	89.2506	108.398	87.7671	108.398	89.0424	108.398	87.7712	108.398	88.8024	108.398	87.8237	108.398	88.5497	108.398	87.9316	108.398	88.3068	108.398	88.0954
112.793	88.9766	112.793	88.8632	112.793	89.0874	112.793	88.7503	112.793	89.1922	112.793	88.6407	112.793	89.2883	112.793	88.536	112.793	89.3737	112.793	88.4368	112.793	89.4471	112.793	88.3421	112.793	89.5073	112.793	88.2507	112.793	89.5526	112.793	88.1606	112.793	89.5798	112.793	88.0709	112.793	89.5833	112.793	87.9818	112.793	89.5557	112.793	87.8959	112.793	89.4885	112.793	87.8184	112.793	89.375	112.793	87.7575	112.793	89.2128	112.793	87.7237	112.793	89.0063	112.793	87.7286	112.793	88.7675	112.793	87.7828	112.793	88.5151	112.793	87.8929	112.793	88.2716	112.793	88.0587
117.188	88.9544	117.188	88.8345	117.188	89.0692	117.188	88.7136	117.188	89.1746	117.188	88.5953	117.188	89.2672	117.188	88.482	117.188	89.3447	117.188	88.3745	117.188	89.406	117.188	88.272	117.188	89.4505	117.188	88.1729	117.188	89.4776	117.188	88.0751	117.188	89.4855	117.188	87.9773	117.188	89.4699	117.188	87.8796	117.188	89.4244	117.188	87.7844	117.188	89.3418	117.188	87.6971	117.188	89.2156	117.188	87.6262	117.188	89.0438	117.188	87.5824	117.188	88.8308	117.188	87.5779	117.188	88.5885	117.188	87.6235	117.188	88.3357	117.188	87.7261	117.188	88.0944	117.188	87.8858
120.117	88.9842	120.117	88.8685	120.117	89.0945	120.117	88.7517	120.117	89.1948	120.117	88.6374	120.117	89.2816	120.117	88.5281	120.117	89.3522	120.117	88.4243	120.117	89.4052	120.117	88.3251	120.117	89.4399	120.117	88.2284	120.117	89.4556	120.117	88.1316	120.117	89.4509	120.117	88.0329	120.117	89.4221	120.117	87.932	120.117	89.3639	120.117	87.8311	120.117	89.2699	120.117	87.7355	120.117	89.1348	120.117	87.6535	120.117	88.9576	120.117	87.5964	120.117	88.7432	120.117	87.5766	120.117	88.504	120.117	87.6057	120.117	88.2587	120.117	87.6913	120.117	88.0288	120.117	87.8347
124.512	88.994	124.512	88.8682	124.512	89.1138	124.512	88.7417	124.512	89.2228	124.512	88.6189	124.512	89.3165	124.512	88.5028	124.512	89.3924	124.512	88.3944	124.512	89.4488	124.512	88.2929	124.512	89.4853	124.512	88.1961	124.512	89.5015	124.512	88.1011	124.512	89.4959	124.512	88.0056	124.512	89.4651	124.512	87.909	124.512	89.4035	124.512	87.8128	124.512	89.3049	124.512	87.7219	124.512	89.1641	124.512	87.6445	124.512	88.9804	124.512	87.5913	124.512	88.7596	124.512	87.5745	124.512	88.5147	124.512	87.6055	124.512	88.2651	124.512	87.6924	124.512	88.0324	124.512	87.8367
128.906	89.0065	128.906	88.8746	128.906	89.1297	128.906	88.7393	128.906	89.239	128.906	88.6058	128.906	89.3304	128.906	88.4773	128.906	89.4014	128.906	88.3557	128.906	89.4511	128.906	88.2404	128.906	89.4797	128.906	88.1298	128.906	89.487	128.906	88.0216	128.906	89.4719	128.906	87.9139	128.906	89.4311	128.906	87.8064	128.906	89.3591	128.906	87.7016	128.906	89.2497	128.906	87.6046	128.906	89.098	128.906	87.5237	128.906	88.9039	128.906	87.4697	128.906	88.6735	128.906	87.4542	128.906	88.4205	128.906	87.4881	128.906	88.1644	128.906	87.5784	128.906	87.9266	128.906	87.7266
133.301	88.8701	133.301	88.7277	133.301	89.0026	133.301	88.5813	133.301	89.1201	133.301	88.4365	133.301	89.2187	133.301	88.2977	133.301	89.2963	133.301	88.1672	133.301	89.3526	133.301	88.0453	133.301	89.388	133.301	87.9306	133.301	89.4025	133.301	87.8209	133.301	89.3946	133.301	87.7142	133.301	89.36	133.301	87.6101	133.301	89.2923	133.301	87.5105	133.301	89.1843	133.301	87.4205	133.301	89.0305	133.301	87.3481	133.301	88.8307	133.301	87.3036	133.301	88.5919	133.301	87.2985	133.301	88.3289	133.301	87.343	133.301	88.0619	133.301	87.444	133.301	87.8133	133.301	87.6028
139.16	88.7142	139.16	88.5611	139.16	88.8545	139.16	88.4021	139.16	88.9761	139.16	88.2439	139.16	89.0751	139.16	88.0923	139.16	89.1496	139.16	87.951	139.16	89.2001	139.16	87.8214	139.16	89.2283	139.16	87.7028	139.16	89.2359	139.16	87.5933	139.16	89.223	139.16	87.4907	139.16	89.1867	139.16	87.3943	139.16	89.121	139.16	87.3054	139.16	89.018	139.16	87.2282	139.16	88.8713	139.16	87.1699	139.16	88.6796	139.16	87.1398	139.16	88.4487	139.16	87.148	139.16	88.1925	139.16	87.2035	139.16	87.9309	139.16	87.3121	139.16	87.6853	139.16	87.4747
143.555	88.7459	143.555	88.5894	143.555	88.8858	143.555	88.4235	143.555	89.0034	143.555	88.2551	143.555	89.0948	143.555	88.0902	143.555	89.1588	143.555	87.9331	143.555	89.1961	143.555	87.7857	143.555	89.2093	143.555	87.6478	143.555	89.2009	143.555	87.5182	143.555	89.1717	143.555	87.3959	143.555	89.1195	143.555	87.2809	143.555	89.0386	143.555	87.1757	143.555	88.9215	143.555	87.0855	143.555	88.762	143.555	87.0182	143.555	88.5589	143.555	86.9832	143.555	88.3184	143.555	86.9902	143.555	88.0546	143.555	87.0469	143.555	87.7872	143.555	87.1581	143.555	87.5375	143.555	87.3236
147.949	88.739	147.949	88.5802	147.949	88.876	147.949	88.4066	147.949	88.9856	147.949	88.2254	147.949	89.0642	147.949	88.0431	147.949	89.111	147.949	87.8646	147.949	89.1274	147.949	87.6925	147.949	89.1166	147.949	87.5276	147.949	89.0819	147.949	87.3699	147.949	89.0254	147.949	87.2192	147.949	88.9461	147.949	87.077	147.949	88.8397	147.949	86.947	147.949	88.6995	147.949	86.8359	147.949	88.5201	147.949	86.7524	147.949	88.3008	147.949	86.7066	147.949	88.0482	147.949	86.7074	147.949	87.7764	147.949	86.7616	147.949	87.5045	147.949	86.8722	147.949	87.2527	147.949	87.038
153.809	88.5154	153.809	88.36	153.809	88.6453	153.809	88.1863	153.809	88.7442	153.809	88.0022	153.809	88.8088	153.809	87.8146	153.809	88.8393	153.809	87.6288	153.809	88.8385	153.809	87.4481	153.809	88.8113	153.809	87.2736	153.809	88.7631	153.809	87.1053	153.809	88.6975	153.809	86.9436	153.809	88.6139	153.809	86.7902	153.809	88.5073	153.809	86.6493	153.809	88.3694	153.809	86.528	153.809	88.1927	153.809	86.4358	153.809	87.9745	153.809	86.3827	153.809	87.7208	153.809	86.378	153.809	87.446	153.809	86.4281	153.809	87.1706	153.809	86.536	153.809	86.9163	153.809	86.7008
159.668	88.5498	159.668	88.3901	159.668	88.6834	159.668	88.2114	159.668	88.7854	159.668	88.021	159.668	88.8529	159.668	87.8253	159.668	88.8859	159.668	87.6289	159.668	88.8872	159.668	87.4343	159.668	88.862	159.668	87.242	159.668	88.8157	159.668	87.052	159.668	88.7519	159.668	86.8654	159.668	88.67	159.668	86.6853	159.668	88.565	159.668	86.5189	159.668	88.4282	159.668	86.377	159.668	88.2511	159.668	86.2728	159.668	88.0299	159.668	86.22	159.668	87.7688	159.668	86.2289	159.668	87.4804	159.668	86.3049	159.668	87.1836	159.668	86.4471	159.668	86.9	159.668	86.6492
165.527	88.4531	165.527	88.3004	165.527	88.5793	165.527	88.1293	165.527	88.6723	165.527	87.9484	165.527	88.7285	165.527	87.7652	165.527	88.7476	165.527	87.5846	165.527	88.7335	165.527	87.4091	165.527	88.6924	165.527	87.2389	165.527	88.6319	165.527	87.0731	165.527	88.5576	165.527	86.9117	165.527	88.4707	165.527	86.7565	165.527	88.367	165.527	86.6131	165.527	88.2386	165.527	86.4906	165.527	88.0774	165.527	86.4005	165.527	87.8801	165.527	86.3543	165.527	87.6511	165.527	86.3605	165.527	87.4026	165.527	86.423	165.527	87.1513	165.527	86.5403	165.527	86.9144	165.527	86.707
171.387	88.318	171.387	88.1511	171.387	88.4552	171.387	87.9641	171.387	88.5553	171.387	87.7671	171.387	88.6145	171.387	87.5696	171.387	88.6328	171.387	87.3782	171.387	88.6139	171.387	87.1965	171.387	88.5645	171.387	87.0251	171.387	88.4921	171.387	86.8628	171.387	88.403	171.387	86.7084	171.387	88.299	171.387	86.5628	171.387	88.1774	171.387	86.4304	171.387	88.0319	171.387	86.3193	171.387	87.8568	171.387	86.2398	171.387	87.6512	171.387	86.2021	171.387	87.4216	171.387	86.213	171.387	87.1808	171.387	86.2746	171.387	86.9442	171.387	86.3843	171.387	86.7261	171.387	86.5369
177.246	88.1161	177.246	87.9459	177.246	88.2546	177.246	87.753	177.246	88.3545	177.246	87.5472	177.246	88.4121	177.246	87.3375	177.246	88.4281	177.246	87.1304	177.246	88.4074	177.246	86.9302	177.246	88.3578	177.246	86.7385	177.246	88.2881	177.246	86.5558	177.246	88.2044	177.246	86.383	177.246	88.1071	177.246	86.2229	177.246	87.9904	177.246	86.0815	177.246	87.8442	177.246	85.9675	177.246	87.66	177.246	85.8908	177.246	87.4361	177.246	85.8596	177.246	87.1813	177.246	85.8781	177.246	86.9134	177.246	85.9462	177.246	86.6533	177.246	86.0611	177.246	86.4184	177.246	86.2194
183.105	87.9687	183.105	87.7944	183.105	88.1044	183.105	87.5917	183.105	88.1948	183.105	87.3714	183.105	88.237	183.105	87.1438	183.105	88.2335	183.105	86.9169	183.105	88.1917	183.105	86.6955	183.105	88.123	183.105	86.4817	183.105	88.0395	183.105	86.2766	183.105	87.9511	183.105	86.0823	183.105	87.8605	183.105	85.9044	183.105	87.7621	183.105	85.7524	183.105	87.6439	183.105	85.6392	183.105	87.4933	183.105	85.5777	183.105	87.3037	183.105	85.5765	183.105	87.0786	183.105	85.6367	183.105	86.8308	183.105	85.7523	183.105	86.5771	183.105	85.9131	183.105	86.333	183.105	86.1092
188.965	88.0016	188.965	87.82	188.965	88.1375	188.965	87.6032	188.965	88.22	188.965	87.3634	188.965	88.2459	188.965	87.112	188.965	88.2174	188.965	86.8577	188.965	88.1418	188.965	86.606	188.965	88.0316	188.965	86.3589	188.965	87.9012	188.965	86.1164	188.965	87.7636	188.965	85.8799	188.965	87.6255	188.965	85.6545	188.965	87.4847	188.965	85.4516	188.965	87.3313	188.965	85.2881	188.965	87.1532	188.965	85.1834	188.965	86.9434	188.965	85.1523	188.965	86.7043	188.965	85.199	188.965	86.4468	188.965	85.3159	188.965	86.1852	188.965	85.4872	188.965	85.9323	188.965	85.6968
196.289	88.1679	196.289	87.9841	196.289	88.3058	196.289	87.7658	196.289	88.3888	196.289	87.5255	196.289	88.4122	196.289	87.2748	196.289	88.3763	196.289	87.0224	196.289	88.2874	196.289	86.7734	196.289	88.1571	196.289	86.5297	196.289	88.0005	196.289	86.291	196.289	87.8325	196.289	86.0577	196.289	87.6625	196.289	85.8338	196.289	87.4914	196.289	85.6288	196.289	87.3121	196.289	85.4576	196.289	87.1145	196.289	85.3378	196.289	86.8924	196.289	85.2836	196.289	86.6489	196.289	85.3008	196.289	86.395	196.289	85.3844	196.289	86.1451	196.289	85.5224	196.289	85.9112	196.289	85.7013
203.613	88.0144	203.613	87.8382	203.613	88.1294	203.613	87.6125	203.613	88.1756	203.613	87.3511	203.613	88.1515	203.613	87.0679	203.613	88.0623	203.613	86.7744	203.613	87.9202	203.613	86.4792	203.613	87.743	203.613	86.1872	203.613	87.5511	203.613	85.9016	203.613	87.363	203.613	85.6265	203.613	87.1891	203.613	85.3691	203.613	87.0278	203.613	85.1426	203.613	86.8671	203.613	84.9648	203.613	86.6916	203.613	84.8544	203.613	86.4913	203.613	84.8238	203.613	86.2673	203.613	84.8734	203.613	86.0299	203.613	84.9905	203.613	85.7925	203.613	85.1555	203.613	85.5644	203.613	85.3504
210.938	87.979	210.938	87.8346	210.938	88.0695	210.938	87.6455	210.938	88.0997	210.938	87.4222	210.938	88.0669	210.938	87.1745	210.938	87.9728	210.938	86.91	210.938	87.8236	210.938	86.6331	210.938	87.6305	210.938	86.3451	210.938	87.4093	210.938	86.0461	210.938	87.1774	210.938	85.7382	210.938	86.9494	210.938	85.4285	210.938	86.7314	210.938	85.1328	210.938	86.5201	210.938	84.8751	210.938	86.3066	210.938	84.6837	210.938	86.084	210.938	84.5816	210.938	85.8525	210.938	84.5765	210.938	85.6194	210.938	84.6571	210.938	85.3932	210.938	84.7993	210.938	85.1787	210.938	84.9786
218.262	87.7262	218.262	87.5555	218.262	87.8507	218.262	87.3525	218.262	87.9177	218.262	87.1312	218.262	87.9209	218.262	86.9037	218.262	87.8595	218.262	86.6771	218.262	87.7397	218.262	86.4528	218.262	87.5742	218.262	86.2268	218.262	87.3808	218.262	85.9934	218.262	87.1772	218.262	85.7484	218.262	86.9759	218.262	85.4942	218.262	86.7792	218.262	85.2428	218.262	86.5802	218.262	85.0158	218.262	86.3694	218.262	84.8403	218.262	86.143	218.262	84.7402	218.262	85.9066	218.262	84.7258	218.262	85.6727	218.262	84.7895	218.262	85.4526	218.262	84.9112	218.262	85.2514	218.262	85.0696
225.586	87.8647	225.586	87.6666	225.586	88.001	225.586	87.4225	225.586	88.063	225.586	87.1487	225.586	88.0427	225.586	86.8597	225.586	87.9392	225.586	86.5658	225.586	87.7595	225.586	86.2725	225.586	87.5199	225.586	85.9801	225.586	87.2444	225.586	85.6871	225.586	86.9603	225.586	85.3936	225.586	86.6911	225.586	85.1061	225.586	86.4485	225.586	84.8401	225.586	86.2302	225.586	84.6198	225.586	86.026	225.586	84.4726	225.586	85.8272	225.586	84.4182	225.586	85.6326	225.586	84.4586	225.586	85.4457	225.586	84.5753	225.586	85.2674	225.586	84.7374	225.586	85.0928	225.586	84.9155
232.91	87.6977	232.91	87.4983	232.91	87.8334	232.91	87.253	232.91	87.8914	232.91	86.9808	232.91	87.864	232.91	86.6982	232.91	87.7508	232.91	86.4162	232.91	87.5594	232.91	86.1389	232.91	87.305	232.91	85.8642	232.91	87.0082	232.91	85.5872	232.91	86.692	232.91	85.3043	232.91	86.3758	232.91	85.0185	232.91	86.0711	232.91	84.7423	232.91	85.7817	232.91	84.4989	232.91	85.509	232.91	84.3172	232.91	85.2596	232.91	84.2216	232.91	85.0454	232.91	84.2182	232.91	84.8754	232.91	84.2894	232.91	84.7446	232.91	84.4014	232.91	84.6336	232.91	84.5214
241.699	87.4343	241.699	87.2154	241.699	87.5923	241.699	86.9541	241.699	87.6768	241.699	86.6716	241.699	87.682	241.699	86.3887	241.699	87.6083	241.699	86.1205	241.699	87.4627	241.699	85.873	241.699	87.2574	241.699	85.6428	241.699	87.0082	241.699	85.4191	241.699	86.7303	241.699	85.1897	241.699	86.4316	241.699	84.9475	241.699	86.1099	241.699	84.6956	241.699	85.7561	241.699	84.4505	241.699	85.3683	241.699	84.2388	241.699	84.9665	241.699	84.0865	241.699	84.5966	241.699	84.0047	241.699	84.3111	241.699	83.9823	241.699	84.1354	241.699	83.9926	241.699	84.0509	241.699	84.0143
250.488	87.6359	250.488	87.3576	250.488	87.835	250.488	87.021	250.488	87.9403	250.488	86.6514	250.488	87.9447	250.488	86.2755	250.488	87.8493	250.488	85.9164	250.488	87.6655	250.488	85.5887	250.488	87.415	250.488	85.2949	250.488	87.1278	250.488	85.0263	250.488	86.8343	250.488	84.7682	250.488	86.5529	250.488	84.5068	250.488	86.2788	250.488	84.2377	250.488	85.9845	250.488	83.9697	250.488	85.6367	250.488	83.7248	250.488	85.2198	250.488	83.5307	250.488	84.7542	250.488	83.4075	250.488	84.2952	250.488	83.3591	250.488	83.9083	250.488	83.3785	250.488	83.6323	250.488	83.464
259.277	87.4757	259.277	87.2488	259.277	87.6214	259.277	86.9631	259.277	87.6719	259.277	86.6471	259.277	87.6216	259.277	86.3319	259.277	87.4738	259.277	86.0451	259.277	87.2418	259.277	85.8038	259.277	86.9509	259.277	85.6106	259.277	86.6378	259.277	85.4538	259.277	86.3438	259.277	85.3128	259.277	86.0987	259.277	85.166	259.277	85.903	259.277	84.9981	259.277	85.7243	259.277	84.806	259.277	85.5164	259.277	84.5994	259.277	85.2483	259.277	84.3982	259.277	84.926	259.277	84.2249	259.277	84.5928	259.277	84.0972	259.277	84.3086	259.277	84.0273	259.277	84.1171	259.277	84.028
268.066	87.3352	268.066	86.9655	268.066	87.5919	268.066	86.5112	268.066	87.7176	268.066	86.0116	268.066	87.7023	268.066	85.5165	268.066	87.5454	268.066	85.0797	268.066	87.2585	268.066	84.7465	268.066	86.8729	268.066	84.5384	268.066	86.4457	268.066	84.4461	268.066	86.0588	268.066	84.4346	268.066	85.7927	268.066	84.4596	268.066	85.6794	268.066	84.4828	268.066	85.6734	268.066	84.4813	268.066	85.6788	268.066	84.4487	268.066	85.6071	268.066	84.3927	268.066	85.4189	268.066	84.33	268.066	85.134	268.066	84.2841	268.066	84.8167	268.066	84.2841	268.066	84.5429	268.066	84.3627
276.855	87.6923	276.855	87.3212	276.855	87.937	276.855	86.8338	276.855	88.0513	276.855	86.2496	276.855	88.0343	276.855	85.6023	276.855	87.8861	276.855	84.9414	276.855	87.6075	276.855	84.3299	276.855	87.2028	276.855	83.8312	276.855	86.688	276.855	83.4885	276.855	86.1058	276.855	83.3099	276.855	85.5414	276.855	83.2729	276.855	85.1187	276.855	83.3433	276.855	84.9419	276.855	83.492	276.855	85.0113	276.855	83.6998	276.855	85.2141	276.855	83.9522	276.855	85.4093	276.855	84.2347	276.855	85.5038	276.855	84.531	276.855	85.4694	276.855	84.8244	276.855	85.3222	276.855	85.0963
287.109	88.0375	287.109	87.8106	287.109	88.1479	287.109	87.4676	287.109	88.1437	287.109	87.011	287.109	88.0308	287.109	86.4467	287.109	87.82	287.109	85.7876	287.109	87.5272	287.109	85.0599	287.109	87.1725	287.109	84.3097	287.109	86.7778	287.109	83.6057	287.109	86.3647	287.109	83.0309	287.109	85.9546	287.109	82.6578	287.109	85.5733	287.109	82.5182	287.109	85.2551	287.109	82.5934	287.109	85.0365	287.109	82.8316	287.109	84.9342	287.109	83.1733	287.109	84.923	287.109	83.5654	287.109	84.9418	287.109	83.9625	287.109	84.9236	287.109	84.3252	287.109	84.8218	287.109	84.6197
297.363	88.1993	297.363	87.9936	297.363	88.2971	297.363	87.6905	297.363	88.2767	297.363	87.298	297.363	88.1302	297.363	86.8202	297.363	87.8541	297.363	86.2587	297.363	87.4517	297.363	85.6164	297.363	86.9373	297.363	84.9056	297.363	86.3447	297.363	84.1592	297.363	85.7347	297.363	83.4428	297.363	85.1954	297.363	82.8594	297.363	84.8167	297.363	82.5273	297.363	84.6451	297.363	82.5214	297.363	84.6571	297.363	82.8179	297.363	84.7822	297.363	83.3066	297.363	84.9457	297.363	83.8557	297.363	85.0902	297.363	84.3615	297.363	85.1734	297.363	84.7619	297.363	85.1618	297.363	85.0295
307.617	87.8472	307.617	87.6401	307.617	87.971	307.617	87.3597	307.617	88.0051	307.617	87.0172	307.617	87.9459	307.617	86.6227	307.617	87.7896	307.617	86.1826	307.617	87.5297	307.617	85.7005	307.617	87.1559	307.617	85.1799	307.617	86.6582	307.617	84.6293	307.617	86.0339	307.617	84.0701	307.617	85.3029	307.617	83.5452	307.617	84.5309	307.617	83.1246	307.617	83.8538	307.617	82.8941	307.617	83.4553	307.617	82.915	307.617	83.4473	307.617	83.1771	307.617	83.7543	307.617	83.5933	307.617	84.1729	307.617	84.0441	307.617	84.5185	307.617	84.4226	307.617	84.689	307.617	84.6526
319.336	87.6372	319.336	87.3932	319.336	87.7925	319.336	87.0754	319.336	87.8474	319.336	86.7	319.336	87.7935	319.336	86.2817	319.336	87.6263	319.336	85.83	319.336	87.3465	319.336	85.3476	319.336	86.9608	319.336	84.8321	319.336	86.4818	319.336	84.2835	319.336	85.926	319.336	83.7143	319.336	85.3125	319.336	83.1625	319.336	84.6659	319.336	82.6976	319.336	84.0292	319.336	82.4098	319.336	83.4809	319.336	82.3682	319.336	83.1333	319.336	82.5701	319.336	83.0682	319.336	82.9306	319.336	83.2496	319.336	83.3246	319.336	83.5281	319.336	83.6363	319.336	83.7405	319.336	83.7857
329.59	87.4991	329.59	87.2483	329.59	87.6699	329.59	86.931	329.59	87.7496	329.59	86.5601	329.59	87.7307	329.59	86.1449	329.59	87.6105	329.59	85.6884	329.59	87.3899	329.59	85.1886	329.59	87.0716	329.59	84.6423	329.59	86.6573	329.59	84.0537	329.59	86.1478	329.59	83.4447	329.59	85.5473	329.59	82.8642	329.59	84.8761	329.59	82.3909	329.59	84.1868	329.59	82.1166	329.59	83.5766	329.59	82.1021	329.59	83.1696	329.59	82.3312	329.59	83.0459	329.59	82.7101	329.59	83.1665	329.59	83.1129	329.59	83.3899	329.59	83.4292	329.59	83.5633	329.59	83.5873
341.309	87.4115	341.309	87.0804	341.309	87.6365	341.309	86.6797	341.309	87.7316	341.309	86.2506	341.309	87.6888	341.309	85.8282	341.309	87.5172	341.309	85.4317	341.309	87.2404	341.309	85.0593	341.309	86.8904	341.309	84.6946	341.309	86.4969	341.309	84.3181	341.309	86.0717	341.309	83.9233	341.309	85.5987	341.309	83.5302	341.309	85.0437	341.309	83.195	341.309	84.393	341.309	83.0026	341.309	83.7164	341.309	83.0281	341.309	83.2103	341.309	83.279	341.309	83.1029	341.309	83.6742	341.309	83.4114	341.309	84.0824	341.309	83.8958	341.309	84.376	341.309	84.2925	341.309	84.4613
353.027	87.8115	353.027	87.4777	353.027	88.0187	353.027	87.042	353.027	88.0848	353.027	86.5375	353.027	88.0062	353.027	85.9988	353.027	87.7888	353.027	85.4519	353.027	87.4478	353.027	84.9051	353.027	87.007	353.027	84.3483	353.027	86.4974	353.027	83.7668	353.027	85.9503	353.027	83.1688	353.027	85.3842	353.027	82.6164	353.027	84.7937	353.027	82.238	353.027	84.1601	353.027	82.1741	353.027	83.497	353.027	82.4585	353.027	82.9133	353.027	82.9685	353.027	82.6154	353.027	83.5118	353.027	82.7443	353.027	83.9275	353.027	83.191	353.027	84.1159	353.027	83.6915	353.027	84.0327
366.211	88.1768	366.211	87.9091	366.211	88.3158	366.211	87.5305	366.211	88.3158	366.211	87.0639	366.211	88.1746	366.211	86.5343	366.211	87.8975	366.211	85.9637	366.211	87.4973	366.211	85.3641	366.211	86.9955	366.211	84.7314	366.211	86.4269	366.211	84.043	366.211	85.8417	366.211	83.266	366.211	85.2924	366.211	82.3817	366.211	84.8011	366.211	81.4314	366.211	84.3313	366.211	80.5804	366.211	83.8138	366.211	80.1269	366.211	83.2291	366.211	80.2926	366.211	82.6862	366.211	80.943	366.211	82.3861	366.211	81.7117	366.211	82.4051	366.211	82.3018	366.211	82.5594	366.211	82.5794
379.395	87.5233	379.395	87.1991	379.395	87.7366	379.395	86.7979	379.395	87.816	379.395	86.3586	379.395	87.7512	379.395	85.9121	379.395	87.5443	379.395	85.4674	379.395	87.2086	379.395	85.008	379.395	86.7669	379.395	84.5026	379.395	86.2489	379.395	83.9245	379.395	85.6849	379.395	83.2701	379.395	85.1	379.395	82.5712	379.395	84.5111	379.395	81.9073	379.395	83.9369	379.395	81.4104	379.395	83.4206	379.395	81.2326	379.395	83.0483	379.395	81.4464	379.395	82.9138	379.395	81.9594	379.395	83.023	379.395	82.5676	379.395	83.2484	379.395	83.0767	379.395	83.4085	379.395	83.3683
392.578	87.079	392.578	86.764	392.578	87.2375	392.578	86.3251	392.578	87.229	392.578	85.8171	392.578	87.0632	392.578	85.3078	392.578	86.7654	392.578	84.8558	392.578	86.3697	392.578	84.4816	392.578	85.9102	392.578	84.1557	392.578	85.4128	392.578	83.8151	392.578	84.8924	392.578	83.3968	392.578	84.3512	392.578	82.8724	392.578	83.7789	392.578	82.2875	392.578	83.1666	392.578	81.7971	392.578	82.5511	392.578	81.6305	392.578	82.0813	392.578	81.9115	392.578	81.9938	392.578	82.5068	392.578	82.372	392.578	83.1425	392.578	82.9842	392.578	83.5912	392.578	83.5024	392.578	83.7245
405.762	87.6511	405.762	87.3029	405.762	87.7847	405.762	86.7691	405.762	87.6953	405.762	86.1037	405.762	87.3951	405.762	85.3884	405.762	86.9174	405.762	84.7225	405.762	86.3152	405.762	84.1846	405.762	85.6571	405.762	83.7828	405.762	85.0184	405.762	83.4429	405.762	84.4594	405.762	83.0498	405.762	83.9884	405.762	82.5089	405.762	83.5364	405.762	81.8034	405.762	82.983	405.762	81.0598	405.762	82.2397	405.762	80.5825	405.762	81.3791	405.762	80.6714	405.762	80.7579	405.762	81.2628	405.762	80.8143	405.762	81.975	405.762	81.4601	405.762	82.4618	405.762	82.164	405.762	82.5392
420.41	87.7587	420.41	87.4819	420.41	87.8655	420.41	87.0488	420.41	87.8089	420.41	86.4932	420.41	87.6105	420.41	85.8673	420.41	87.2966	420.41	85.2333	420.41	86.8858	420.41	84.646	420.41	86.3873	420.41	84.129	420.41	85.8147	420.41	83.6585	420.41	85.2046	420.41	83.1725	420.41	84.6186	420.41	82.6003	420.41	84.1034	420.41	81.9044	420.41	83.6333	420.41	81.1292	420.41	83.1057	420.41	80.4506	420.41	82.4324	420.41	80.1403	420.41	81.6791	420.41	80.3315	420.41	81.1302	420.41	80.8243	420.41	81.0442	420.41	81.2673	420.41	81.2713	420.41	81.4232
435.059	87.8878	435.059	87.6062	435.059	87.9631	435.059	87.1201	435.059	87.851	435.059	86.4588	435.059	87.5831	435.059	85.6858	435.059	87.1928	435.059	84.9007	435.059	86.71	435.059	84.218	435.059	86.1639	435.059	83.7136	435.059	85.5949	435.059	83.3718	435.059	85.0587	435.059	83.0984	435.059	84.6101	435.059	82.7885	435.059	84.2699	435.059	82.3911	435.059	84.0021	435.059	81.9402	435.059	83.7326	435.059	81.5621	435.059	83.4063	435.059	81.4287	435.059	83.0463	435.059	81.6235	435.059	82.7626	435.059	82.0321	435.059	82.6549	435.059	82.4275	435.059	82.6742	435.059	82.6446
451.172	88.3906	451.172	88.0322	451.172	88.5359	451.172	87.4776	451.172	88.4581	451.172	86.7518	451.172	88.1553	451.172	85.8906	451.172	87.6358	451.172	84.9468	451.172	86.9217	451.172	83.9967	451.172	86.0495	451.172	83.1376	451.172	85.0681	451.172	82.4621	451.172	84.0409	451.172	82.019	451.172	83.0578	451.172	81.7981	451.172	82.2395	451.172	81.7618	451.172	81.6887	451.172	81.8947	451.172	81.4207	451.172	82.2135	451.172	81.3999	451.172	82.7106	451.172	81.6421	451.172	83.2904	451.172	82.1752	451.172	83.7886	451.172	82.8912	451.172	84.0487	451.172	83.5587	451.172	83.9756
465.82	87.7702	465.82	87.5052	465.82	87.8344	465.82	87.0515	465.82	87.7097	465.82	86.441	465.82	87.4297	465.82	85.7198	465.82	87.0369	465.82	84.9412	465.82	86.5621	465.82	84.1554	465.82	86.0103	465.82	83.3985	465.82	85.368	465.82	82.6799	465.82	84.6269	465.82	81.9804	465.82	83.8039	465.82	81.2755	465.82	82.9432	465.82	80.6024	465.82	82.102	465.82	80.1396	465.82	81.3419	465.82	80.1463	465.82	80.755	465.82	80.662	465.82	80.4875	465.82	81.3904	465.82	80.6501	465.82	81.9879	465.82	81.1558	465.82	82.2625	465.82	81.7445	465.82	82.164
483.398	87.5503	483.398	87.2461	483.398	87.6196	483.398	86.7283	483.398	87.4595	483.398	86.0446	483.398	87.0972	483.398	85.2641	483.398	86.5723	483.398	84.4681	483.398	85.9308	483.398	83.731	483.398	85.2264	483.398	83.0931	483.398	84.5192	483.398	82.5369	483.398	83.8584	483.398	81.9884	483.398	83.2554	483.398	81.3584	483.398	82.6798	483.398	80.6135	483.398	82.098	483.398	79.8705	483.398	81.5417	483.398	79.4565	483.398	81.1683	483.398	79.7205	483.398	81.2033	483.398	80.6012	483.398	81.689	483.398	81.6585	483.398	82.3514	483.398	82.4948	483.398	82.8324	483.398	82.9046
499.512	87.8013	499.512	87.4673	499.512	87.9023	499.512	86.9173	499.512	87.7763	499.512	86.1893	499.512	87.4488	499.512	85.3362	499.512	86.9576	499.512	84.4126	499.512	86.3394	499.512	83.4635	499.512	85.6185	499.512	82.5254	499.512	84.8074	499.512	81.6367	499.512	83.9286	499.512	80.8395	499.512	83.0477	499.512	80.1604	499.512	82.279	499.512	79.6021	499.512	81.7121	499.512	79.1873	499.512	81.3182	499.512	79.0294	499.512	81.0106	499.512	79.3027	499.512	80.8253	499.512	80.0253	499.512	80.9354	499.512	80.9267	499.512	81.3598	499.512	81.6479	499.512	81.8108	499.512	81.9579
517.09	86.9909	517.09	86.6267	517.09	87.081	517.09	86.0125	517.09	86.9156	517.09	85.2216	517.09	86.5502	517.09	84.3791	517.09	86.0709	517.09	83.6367	517.09	85.579	517.09	83.098	517.09	85.1566	517.09	82.7442	517.09	84.812	517.09	82.4483	517.09	84.4496	517.09	82.0551	517.09	83.9008	517.09	81.44	517.09	82.9973	517.09	80.5511	517.09	81.6772	517.09	79.5186	517.09	80.2074	517.09	78.8445	517.09	79.4013	517.09	79.1643	517.09	79.8158	517.09	80.3033	517.09	80.8353	517.09	81.5062	517.09	81.7756	517.09	82.3125	517.09	82.3942	517.09	82.5988
536.133	86.4843	536.133	86.2079	536.133	86.4148	536.133	85.5872	536.133	86.0026	536.133	84.6333	536.133	85.2597	536.133	83.3893	536.133	84.2178	536.133	81.988	536.133	82.9492	536.133	80.7329	536.133	81.6216	536.133	80.0195	536.133	80.5807	536.133	79.9251	536.133	80.1979	536.133	80.0826	536.133	80.3608	536.133	80.1008	536.133	80.5186	536.133	79.8016	536.133	80.2195	536.133	79.2326	536.133	79.3274	536.133	78.7384	536.133	78.2369	536.133	78.8843	536.133	78.0783	536.133	79.7866	536.133	79.248	536.133	80.8939	536.133	80.6711	536.133	81.6938	536.133	81.6272	536.133	81.9633
555.176	87.63	555.176	87.3297	555.176	87.6707	555.176	86.7665	555.176	87.4741	555.176	85.9526	555.176	87.0749	555.176	84.914	555.176	86.4926	555.176	83.6962	555.176	85.6979	555.176	82.3814	555.176	84.6246	555.176	81.1162	555.176	83.2524	555.176	80.1254	555.176	81.748	555.176	79.6275	555.176	80.5887	555.176	79.6174	555.176	80.2634	555.176	79.7747	555.176	80.5023	555.176	79.7354	555.176	80.5235	555.176	79.4313	555.176	79.8744	555.176	79.2249	555.176	78.8256	555.176	79.5752	555.176	78.5534	555.176	80.3602	555.176	79.5479	555.176	81.0383	555.176	80.6788	555.176	81.2049
574.219	90.0193	574.219	89.8103	574.219	89.9394	574.219	89.307	574.219	89.6115	574.219	88.5389	574.219	89.0893	574.219	87.5631	574.219	88.3976	574.219	86.4603	574.219	87.5275	574.219	85.3261	574.219	86.4902	574.219	84.2524	574.219	85.3594	574.219	83.3093	574.219	84.2176	574.219	82.5466	574.219	83.0546	574.219	81.9823	574.219	81.821	574.219	81.5613	574.219	80.7437	574.219	81.2141	574.219	80.3977	574.219	81.0395	574.219	80.7805	574.219	81.3223	574.219	81.2993	574.219	82.1703	574.219	81.9055	574.219	83.2477	574.219	82.8414	574.219	84.064	574.219	83.8067	574.219	84.2837
594.727	91.5851	594.727	91.3003	594.727	91.515	594.727	90.6766	594.727	91.1097	594.727	89.7932	594.727	90.4031	594.727	88.8059	594.727	89.4452	594.727	87.8938	594.727	88.3281	594.727	87.1165	594.727	87.2167	594.727	86.3167	594.727	86.3295	594.727	85.2324	594.727	85.8101	594.727	83.7232	594.727	85.5249	594.727	81.9683	594.727	85.04	594.727	80.5098	594.727	83.8102	594.727	79.8876	594.727	81.4081	594.727	80.2324	594.727	78.9243	594.727	81.4265	594.727	80.579	594.727	83.125	594.727	83.605	594.727	84.7614	594.727	85.4818	594.727	85.9176	594.727	86.3381	594.727	86.4505
615.234	91.0916	615.234	90.8741	615.234	90.9694	615.234	90.3006	615.234	90.5694	615.234	89.4247	615.234	89.9572	615.234	88.3807	615.234	89.15	615.234	87.3567	615.234	88.105	615.234	86.508	615.234	86.7963	615.234	85.8706	615.234	85.3518	615.234	85.3772	615.234	84.1832	615.234	84.9351	615.234	83.8141	615.234	84.4453	615.234	84.1673	615.234	83.7719	615.234	84.4889	615.234	82.7672	615.234	84.0194	615.234	81.4742	615.234	82.1272	615.234	80.5755	615.234	78.3008	615.234	81.0635	615.234	76.1363	615.234	82.4296	615.234	79.9952	615.234	83.5109	615.234	82.7191	615.234	83.7281
637.207	91.1633	637.207	90.8553	637.207	91.1008	637.207	90.143	637.207	90.7287	637.207	89.0217	637.207	90.1143	637.207	87.5342	637.207	89.2908	637.207	85.846	637.207	88.2335	637.207	84.3594	637.207	86.884	637.207	83.5655	637.207	85.2133	637.207	83.4672	637.207	83.3466	637.207	83.5937	637.207	81.8729	637.207	83.5755	637.207	81.7291	637.207	83.272	637.207	82.5138	637.207	82.6675	637.207	82.8462	637.207	81.9291	637.207	81.963	637.207	81.6617	637.207	80.1057	637.207	82.5316	637.207	80.0778	637.207	84.0558	637.207	82.6879	637.207	85.2502	637.207	84.7704	637.207	85.5767
659.18	90.4264	659.18	90.3867	659.18	90.1015	659.18	89.9448	659.18	89.5086	659.18	89.1342	659.18	88.7337	659.18	88.0343	659.18	87.7894	659.18	86.7363	659.18	86.6599	659.18	85.3267	659.18	85.3883	659.18	83.9167	659.18	84.0722	659.18	82.6885	659.18	82.8181	659.18	81.8409	659.18	81.7664	659.18	81.401	659.18	81.0355	659.18	81.1717	659.18	80.5358	659.18	80.9192	659.18	80.1052	659.18	80.5818	659.18	79.7846	659.18	80.4031	659.18	79.6057	659.18	80.7941	659.18	79.6201	659.18	81.6747	659.18	80.2789	659.18	82.3718	659.18	81.4788	659.18	82.3388
682.617	90.1322	682.617	90.0882	682.617	89.866	682.617	89.7224	682.617	89.3047	682.617	89.0517	682.617	88.463	682.617	88.115	682.617	87.3936	682.617	86.9406	682.617	86.1888	682.617	85.5484	682.617	84.8991	682.617	84.0555	682.617	83.5547	682.617	82.788	682.617	82.3567	682.617	81.9938	682.617	81.5822	682.617	81.4416	682.617	81.1097	682.617	80.7949	682.617	80.6775	682.617	79.9466	682.617	80.3413	682.617	79.0199	682.617	79.5986	682.617	78.8598	682.617	77.0856	682.617	80.3893	682.617	73.7741	682.617	82.4563	682.617	78.2384	682.617	83.758	682.617	82.1784	682.617	83.7958
707.52	90.4697	707.52	90.2754	707.52	90.0557	707.52	89.527	707.52	89.1564	707.52	88.3987	707.52	88.0667	707.52	87.1095	707.52	87.0573	707.52	85.8455	707.52	86.1369	707.52	84.7509	707.52	85.1404	707.52	83.9526	707.52	83.9056	707.52	83.4259	707.52	82.292	707.52	82.9074	707.52	80.5689	707.52	82.1266	707.52	80.072	707.52	81.0892	707.52	80.6888	707.52	80.2689	707.52	80.4931	707.52	79.9849	707.52	78.8846	707.52	79.9208	707.52	77.4653	707.52	80.2929	707.52	78.7912	707.52	81.3965	707.52	80.9378	707.52	82.497	707.52	82.3705	707.52	82.8911
732.422	89.5145	732.422	89.8874	732.422	88.7851	732.422	89.7062	732.422	87.9666	732.422	88.9184	732.422	87.1679	732.422	87.5775	732.422	86.3156	732.422	85.8498	732.422	85.3782	732.422	84.0701	732.422	84.4115	732.422	82.5958	732.422	83.403	732.422	81.5075	732.422	82.1701	732.422	80.8569	732.422	80.4886	732.422	80.7986	732.422	78.5325	732.422	80.8115	732.422	77.4897	732.422	80.0278	732.422	78.104	732.422	78.175	732.422	78.6994	732.422	76.0639	732.422	77.736	732.422	76.1645	732.422	75.4276	732.422	78.6145	732.422	76.8185	732.422	80.7296	732.422	80.0647	732.422	81.361
757.324	89.5262	757.324	89.9479	757.324	88.7288	757.324	89.7673	757.324	87.9674	757.324	89.0127	757.324	87.4178	757.324	87.8565	757.324	86.8305	757.324	86.4573	757.324	85.9738	757.324	84.8407	757.324	84.8995	757.324	82.9964	757.324	83.7478	757.324	81.132	757.324	82.4106	757.324	79.7224	757.324	80.6808	757.324	79.0998	757.324	79.0969	757.324	79.0592	757.324	79.2195	757.324	79.0604	757.324	80.4008	757.324	78.6387	757.324	80.6575	757.324	78.0661	757.324	79.08	757.324	79.082	757.324	75.071	757.324	81.2611	757.324	73.8273	757.324	82.4578	757.324	79.0269	757.324	81.8759
785.156	87.7007	785.156	88.4954	785.156	88.7462	785.156	89.9392	785.156	89.9035	785.156	90.6416	785.156	89.7413	785.156	90.2499	785.156	87.8406	785.156	88.5923	785.156	83.8979	785.156	85.3552	785.156	76.5067	785.156	80.3887	785.156	63.2436	785.156	77.4063	785.156	75.8313	785.156	78.7707	785.156	78.1672	785.156	79.2454	785.156	77.0504	785.156	77.9028	785.156	75.0068	785.156	77.8972	785.156	79.2278	785.156	82.1279	785.156	83.7717	785.156	84.0913	785.156	85.4608	785.156	83.7171	785.156	84.1385	785.156	83.6064	785.156	78.0736	785.156	83.8704	785.156	70.3318	785.156	81.4383
811.523	89.6726	811.523	89.9814	811.523	88.1032	811.523	88.9687	811.523	86.1317	811.523	86.9655	811.523	85.6446	811.523	85.1056	811.523	86.4296	811.523	84.7987	811.523	86.8369	811.523	85.1711	811.523	86.3092	811.523	84.9372	811.523	84.9214	811.523	83.9585	811.523	83.0386	811.523	82.6385	811.523	80.9811	811.523	81.2871	811.523	79.1196	811.523	79.7734	811.523	78.6578	811.523	78.0878	811.523	78.7193	811.523	76.8411	811.523	76.3422	811.523	76.6221	811.523	73.4966	811.523	77.6545	811.523	76.8108	811.523	79.5249	811.523	77.5063	811.523	80.8848	811.523	77.8829	811.523	80.2379
840.82	89.1453	840.82	88.9663	840.82	88.802	840.82	88.4374	840.82	87.6756	840.82	87.7276	840.82	85.7124	840.82	87.1406	840.82	83.6351	840.82	86.6538	840.82	83.0843	840.82	85.7686	840.82	84.2471	840.82	84.2747	840.82	85.8373	840.82	82.7502	840.82	87.0127	840.82	82.1288	840.82	87.3548	840.82	82.3384	840.82	86.6036	840.82	82.9108	840.82	84.4097	840.82	84.0567	840.82	79.6675	840.82	84.83	840.82	64.7519	840.82	83.9456	840.82	76.7389	840.82	81.9663	840.82	81.2654	840.82	80.8917	840.82	81.201	840.82	78.9513	840.82	77.6179	840.82	74.5112
870.117	87.8526	870.117	88.869	870.117	88.4798	870.117	89.8931	870.117	89.4157	870.117	89.8338	870.117	88.8072	870.117	88.3865	870.117	85.8139	870.117	85.1488	870.117	79.1539	870.117	79.2396	870.117	74.7608	870.117	70.4676	870.117	79.4061	870.117	73.7867	870.117	80.3946	870.117	76.4163	870.117	80.7116	870.117	74.9988	870.117	81.4151	870.117	70.2367	870.117	80.9028	870.117	76.9771	870.117	77.0849	870.117	81.1308	870.117	61.6512	870.117	82.079	870.117	75.7021	870.117	81.5213	870.117	79.7206	870.117	80.8677	870.117	79.4688	870.117	78.7578	870.117	74.3316	870.117	71.0301
900.879	89.2851	900.879	87.9557	900.879	89.7491	900.879	87.4944	900.879	88.2817	900.879	88.1431	900.879	84.487	900.879	88.5778	900.879	82.2782	900.879	88.1757	900.879	85.2066	900.879	87.0383	900.879	86.9064	900.879	85.7466	900.879	86.7578	900.879	84.8393	900.879	85.4464	900.879	83.8169	900.879	84.425	900.879	81.3587	900.879	84.4148	900.879	79.1011	900.879	84.4169	900.879	81.6843	900.879	83.645	900.879	82.262	900.879	81.2658	900.879	78.7088	900.879	75.822	900.879	72.6369	900.879	74.5558	900.879	71.9788	900.879	79.7722	900.879	73.9979	900.879	81.419	900.879	79.4919
933.105	89.4028	933.105	89.8673	933.105	87.6032	933.105	88.7682	933.105	86.2825	933.105	86.4145	933.105	86.8002	933.105	84.0714	933.105	87.0119	933.105	83.7681	933.105	85.9869	933.105	84.6693	933.105	83.726	933.105	85.473	933.105	80.0006	933.105	85.8978	933.105	75.3068	933.105	85.4818	933.105	75.4741	933.105	83.6124	933.105	79.558	933.105	80.9637	933.105	81.5304	933.105	81.714	933.105	80.7846	933.105	83.6984	933.105	76.9716	933.105	83.4701	933.105	73.183	933.105	80.3704	933.105	76.929	933.105	75.3363	933.105	80.0063	933.105	74.62	933.105	80.7569	933.105	78.4962
965.332	88.1483	965.332	88.8488	965.332	87.9023	965.332	89.0864	965.332	87.8367	965.332	88.2484	965.332	86.5361	965.332	85.9306	965.332	82.9885	965.332	81.3891	965.332	78.0156	965.332	74.8728	965.332	79.0646	965.332	77.8342	965.332	82.7655	965.332	80.524	965.332	83.6231	965.332	79.8555	965.332	81.2451	965.332	76.626	965.332	77.7504	965.332	75.4476	965.332	77.3585	965.332	77.7616	965.332	77.6545	965.332	79.5568	965.332	75.6667	965.332	80.7085	965.332	71.6299	965.332	80.2759	965.332	80.1071	965.332	78.5918	965.332	82.2149	965.332	78.7087	965.332	81.1814	965.332	80.0694
1,000.49	87.4416	1,000.49	88.2057	1,000.49	88.0444	1,000.49	88.7314	1,000.49	88.5061	1,000.49	87.9347	1,000.49	86.7523	1,000.49	85.4608	1,000.49	82.4782	1,000.49	80.7618	1,000.49	79.7934	1,000.49	73.2754	1,000.49	80.4662	1,000.49	74.5801	1,000.49	81.8949	1,000.49	79.2696	1,000.49	83.1295	1,000.49	81.4517	1,000.49	82.1356	1,000.49	81.3996	1,000.49	75.8005	1,000.49	78.8175	1,000.49	67.9016	1,000.49	76.7568	1,000.49	77.737	1,000.49	80.5533	1,000.49	77.9868	1,000.49	82.0793	1,000.49	72.738	1,000.49	80.9303	1,000.49	70.8187	1,000.49	79.982	1,000.49	82.1009	1,000.49	81.8314	1,000.49	85.0267	1,000.49	84.3619
1,035.64	89.0408	1,035.64	88.5563	1,035.64	89.6546	1,035.64	88.5745	1,035.64	89.0569	1,035.64	88.2361	1,035.64	86.361	1,035.64	86.5648	1,035.64	83.1815	1,035.64	82.9515	1,035.64	83.6791	1,035.64	77.5145	1,035.64	83.9604	1,035.64	71.1804	1,035.64	83.4266	1,035.64	67.1681	1,035.64	83.4373	1,035.64	71.2249	1,035.64	82.8715	1,035.64	73.2949	1,035.64	80.9019	1,035.64	72.0449	1,035.64	78.0566	1,035.64	71.2535	1,035.64	78.0734	1,035.64	74.9717	1,035.64	79.9651	1,035.64	78.3386	1,035.64	78.3774	1,035.64	78.8331	1,035.64	68.7423	1,035.64	78.5821	1,035.64	75.5094	1,035.64	80.1383	1,035.64	80.9555	1,035.64	81.7688
1,072.27	88.3473	1,072.27	87.5092	1,072.27	89.1111	1,072.27	87.9134	1,072.27	88.1728	1,072.27	88.2846	1,072.27	85.3253	1,072.27	86.8158	1,072.27	85.2632	1,072.27	82.7262	1,072.27	87.2548	1,072.27	75.6117	1,072.27	87.1147	1,072.27	54.1857	1,072.27	85.1453	1,072.27	72.9293	1,072.27	82.7399	1,072.27	75.2025	1,072.27	81.0759	1,072.27	73.2335	1,072.27	79.4435	1,072.27	72.3233	1,072.27	76.3992	1,072.27	69.2557	1,072.27	71.9681	1,072.27	74.156	1,072.27	74.9295	1,072.27	77.112	1,072.27	77.8752	1,072.27	77.5131	1,072.27	74.9736	1,072.27	78.4838	1,072.27	64.5226	1,072.27	79.8368	1,072.27	77.4443	1,072.27	80.2007
1,108.89	88.2776	1,108.89	87.0933	1,108.89	88.307	1,108.89	86.5128	1,108.89	86.6286	1,108.89	86.7363	1,108.89	85.813	1,108.89	86.2381	1,108.89	87.0647	1,108.89	84.7672	1,108.89	86.2869	1,108.89	82.4743	1,108.89	82.3283	1,108.89	78.1404	1,108.89	76.8122	1,108.89	69.8126	1,108.89	74.9734	1,108.89	70.9788	1,108.89	76.2195	1,108.89	75.0001	1,108.89	75.1873	1,108.89	72.564	1,108.89	71.7838	1,108.89	68.1121	1,108.89	78.0475	1,108.89	75.2744	1,108.89	79.7324	1,108.89	75.9577	1,108.89	74.2263	1,108.89	74.1526	1,108.89	68.4869	1,108.89	74.5059	1,108.89	70.9296	1,108.89	77.4535	1,108.89	75.9501	1,108.89	78.7088
1,148.44	88.5843	1,148.44	88.4014	1,148.44	87.8112	1,148.44	86.9489	1,148.44	87.1714	1,148.44	85.2481	1,148.44	86.4484	1,148.44	83.911	1,148.44	85.249	1,148.44	81.9181	1,148.44	84.4677	1,148.44	78.7754	1,148.44	83.6545	1,148.44	76.1476	1,148.44	81.6375	1,148.44	75.1484	1,148.44	79.3124	1,148.44	77.7369	1,148.44	77.9681	1,148.44	79.0749	1,148.44	76.0248	1,148.44	76.9919	1,148.44	73.8215	1,148.44	71.9642	1,148.44	72.9649	1,148.44	65.3416	1,148.44	75.3664	1,148.44	73.4887	1,148.44	76.7754	1,148.44	76.8311	1,148.44	70.0517	1,148.44	77.8511	1,148.44	69.1849	1,148.44	78.0626	1,148.44	76.5311	1,148.44	78.0074
1,189.45	87.7592	1,189.45	87.5085	1,189.45	87.869	1,189.45	86.8123	1,189.45	87.0115	1,189.45	85.2343	1,189.45	86.0172	1,189.45	83.8585	1,189.45	85.7196	1,189.45	83.2897	1,189.45	83.6821	1,189.45	81.9713	1,189.45	78.268	1,189.45	78.7949	1,189.45	74.7582	1,189.45	75.7421	1,189.45	76.7854	1,189.45	73.0317	1,189.45	76.6529	1,189.45	53.3399	1,189.45	74.7098	1,189.45	70.8596	1,189.45	61.9378	1,189.45	70.5363	1,189.45	71.4399	1,189.45	64.2455	1,189.45	75.8755	1,189.45	65.5453	1,189.45	74.2736	1,189.45	71.607	1,189.45	70.9237	1,189.45	76.3771	1,189.45	72.438	1,189.45	78.6182	1,189.45	70.1625	1,189.45	76.5977
1,230.47	87.0254	1,230.47	86.6972	1,230.47	86.341	1,230.47	85.375	1,230.47	85.6002	1,230.47	84.0963	1,230.47	85.0763	1,230.47	83.2959	1,230.47	83.4118	1,230.47	81.8464	1,230.47	79.7174	1,230.47	79.2501	1,230.47	76.1732	1,230.47	77.0615	1,230.47	76.3635	1,230.47	75.1717	1,230.47	77.0054	1,230.47	70.8187	1,230.47	76.2605	1,230.47	67.9158	1,230.47	76.068	1,230.47	73.2943	1,230.47	74.8331	1,230.47	72.9602	1,230.47	67.5237	1,230.47	73.0466	1,230.47	67.7058	1,230.47	75.3477	1,230.47	74.1359	1,230.47	75.4907	1,230.47	70.948	1,230.47	74.7124	1,230.47	65.046	1,230.47	73.5245	1,230.47	74.7789	1,230.47	74.4484
1,274.41	86.0517	1,274.41	84.942	1,274.41	85.7494	1,274.41	84.0577	1,274.41	84.2325	1,274.41	83.3876	1,274.41	84.4	1,274.41	82.0813	1,274.41	82.8735	1,274.41	80.446	1,274.41	76.6412	1,274.41	78.4871	1,274.41	75.8922	1,274.41	75.6585	1,274.41	79.0565	1,274.41	73.6292	1,274.41	79.3609	1,274.41	74.0757	1,274.41	78.4982	1,274.41	74.4699	1,274.41	78.6682	1,274.41	74.8741	1,274.41	78.0801	1,274.41	75.2174	1,274.41	72.829	1,274.41	74.6546	1,274.41	53.7568	1,274.41	74.2939	1,274.41	69.4164	1,274.41	71.453	1,274.41	71.5214	1,274.41	69.3785	1,274.41	64.7907	1,274.41	72.6408	1,274.41	73.514	1,274.41	75.6016
1,319.82	86.6028	1,319.82	85.7002	1,319.82	85.7366	1,319.82	83.5538	1,319.82	85.5344	1,319.82	82.953	1,319.82	85.8736	1,319.82	83.2969	1,319.82	83.0297	1,319.82	82.6188	1,319.82	75.716	1,319.82	80.1205	1,319.82	78.3578	1,319.82	74.8801	1,319.82	79.9333	1,319.82	62.8413	1,319.82	77.4601	1,319.82	72.7566	1,319.82	71.3272	1,319.82	79.7475	1,319.82	62.606	1,319.82	80.7896	1,319.82	56.2178	1,319.82	76.197	1,319.82	73.786	1,319.82	68.1679	1,319.82	78.536	1,319.82	63.2709	1,319.82	75.9394	1,319.82	71.9668	1,319.82	52.6671	1,319.82	74.5987	1,319.82	72.4342	1,319.82	74.6608	1,319.82	73.1032	1,319.82	72.8318
1,366.7	85.4361	1,366.7	85.2217	1,366.7	85.5425	1,366.7	84.0199	1,366.7	85.6624	1,366.7	82.2128	1,366.7	83.8956	1,366.7	81.5244	1,366.7	79.631	1,366.7	81.6234	1,366.7	79.3507	1,366.7	80.5678	1,366.7	77.8322	1,366.7	77.7167	1,366.7	75.4524	1,366.7	71.8497	1,366.7	76.4324	1,366.7	62.2799	1,366.7	77.0486	1,366.7	73.8465	1,366.7	75.5439	1,366.7	69.5272	1,366.7	75.5485	1,366.7	65.2314	1,366.7	75.2175	1,366.7	72.0832	1,366.7	66.2275	1,366.7	73.2304	1,366.7	73.1476	1,366.7	68.4162	1,366.7	75.403	1,366.7	67.8927	1,366.7	70.2469	1,366.7	71.7328	1,366.7	68.1332	1,366.7	74.1754
1,413.57	85.7606	1,413.57	84.7696	1,413.57	86.1601	1,413.57	83.6483	1,413.57	84.8776	1,413.57	81.914	1,413.57	80.8008	1,413.57	79.8467	1,413.57	77.6967	1,413.57	80.5598	1,413.57	78.8918	1,413.57	80.5623	1,413.57	76.6852	1,413.57	77.7024	1,413.57	71.8774	1,413.57	74.6102	1,413.57	69.4927	1,413.57	73.7206	1,413.57	70.5976	1,413.57	63.6573	1,413.57	73.2228	1,413.57	63.7221	1,413.57	71.6489	1,413.57	55.9088	1,413.57	67.5982	1,413.57	63.3028	1,413.57	58.2972	1,413.57	74.3239	1,413.57	63.0241	1,413.57	73.7531	1,413.57	65.6883	1,413.57	63.3137	1,413.57	70.4436	1,413.57	53.943	1,413.57	72.2652	1,413.57	68.2389
1,463.38	86.4549	1,463.38	84.8095	1,463.38	86.6162	1,463.38	82.8673	1,463.38	84.8885	1,463.38	81.1975	1,463.38	80.8984	1,463.38	79.1833	1,463.38	77.0152	1,463.38	76.5981	1,463.38	71.9989	1,463.38	76.283	1,463.38	63.8642	1,463.38	77.6314	1,463.38	73.9643	1,463.38	76.1184	1,463.38	75.517	1,463.38	72.4042	1,463.38	73.5734	1,463.38	73.8382	1,463.38	71.1689	1,463.38	73.9419	1,463.38	66.4287	1,463.38	73.6221	1,463.38	60.6581	1,463.38	70.9158	1,463.38	73.3661	1,463.38	72.5107	1,463.38	72.6862	1,463.38	70.9823	1,463.38	62.3526	1,463.38	68.3462	1,463.38	71.9233	1,463.38	68.8656	1,463.38	69.9989	1,463.38	70.2658
1,516.11	86.6487	1,516.11	85.2243	1,516.11	86.1742	1,516.11	81.3894	1,516.11	84.919	1,516.11	79.1586	1,516.11	81.1482	1,516.11	79.1246	1,516.11	71.6888	1,516.11	74.9278	1,516.11	76.0024	1,516.11	71.0004	1,516.11	78.4044	1,516.11	75.7123	1,516.11	77.8359	1,516.11	76.9823	1,516.11	77.8923	1,516.11	76.0578	1,516.11	76.7026	1,516.11	72.201	1,516.11	74.1996	1,516.11	72.5683	1,516.11	72.4657	1,516.11	74.7626	1,516.11	66.0051	1,516.11	71.2308	1,516.11	69.2339	1,516.11	73.0043	1,516.11	66.8673	1,516.11	68.7495	1,516.11	42.057	1,516.11	61.8475	1,516.11	67.3794	1,516.11	68.0612	1,516.11	69.2974	1,516.11	71.3468
1,568.85	85.6033	1,568.85	84.8859	1,568.85	86.4313	1,568.85	82.451	1,568.85	84.8621	1,568.85	76.5673	1,568.85	78.2324	1,568.85	78.6601	1,568.85	76.5371	1,568.85	79.0923	1,568.85	78.5841	1,568.85	73.0913	1,568.85	79.576	1,568.85	72.7589	1,568.85	75.4711	1,568.85	76.9969	1,568.85	74.2	1,568.85	73.5751	1,568.85	74.3173	1,568.85	69.5983	1,568.85	72.9336	1,568.85	73.0541	1,568.85	72.4348	1,568.85	74.759	1,568.85	71.0596	1,568.85	70.5896	1,568.85	64.991	1,568.85	71.8335	1,568.85	69.2969	1,568.85	69.0678	1,568.85	69.4803	1,568.85	63.586	1,568.85	66.9598	1,568.85	64.6117	1,568.85	69.4206	1,568.85	63.0189
1,624.51	85.3637	1,624.51	83.4376	1,624.51	86.3577	1,624.51	82.0517	1,624.51	83.6113	1,624.51	76.7931	1,624.51	77.4531	1,624.51	76.9231	1,624.51	78.7197	1,624.51	81.3271	1,624.51	73.6323	1,624.51	79.96	1,624.51	77.3927	1,624.51	73.2758	1,624.51	78.7441	1,624.51	63.1636	1,624.51	75.4287	1,624.51	61.9614	1,624.51	76.7065	1,624.51	67.8479	1,624.51	74.5103	1,624.51	56.4877	1,624.51	68.4785	1,624.51	65.3986	1,624.51	67.3356	1,624.51	72.1444	1,624.51	71.6963	1,624.51	70.5729	1,624.51	68.6538	1,624.51	67.8822	1,624.51	59.4122	1,624.51	39.4888	1,624.51	68.5555	1,624.51	49.2057	1,624.51	59.8898	1,624.51	65.831
1,681.64	85.8693	1,681.64	83.3605	1,681.64	85.2197	1,681.64	79.9549	1,681.64	82.4664	1,681.64	78.3849	1,681.64	77.2978	1,681.64	73.6846	1,681.64	73.4862	1,681.64	74.4634	1,681.64	79.9706	1,681.64	78.5799	1,681.64	81.8849	1,681.64	76.2242	1,681.64	80.1147	1,681.64	69.7264	1,681.64	75.3997	1,681.64	70.3951	1,681.64	70.9193	1,681.64	75.0923	1,681.64	69.4066	1,681.64	75.3644	1,681.64	71.1004	1,681.64	70.9305	1,681.64	69.3819	1,681.64	73.1409	1,681.64	73.6356	1,681.64	71.4797	1,681.64	67.2829	1,681.64	58.4092	1,681.64	63.4445	1,681.64	61.6085	1,681.64	68.0397	1,681.64	63.7341	1,681.64	72.1726	1,681.64	62.0289
1,741.7	86.4098	1,741.7	83.7099	1,741.7	86.7057	1,741.7	78.9397	1,741.7	82.3329	1,741.7	68.4668	1,741.7	75.2936	1,741.7	72.9654	1,741.7	76.9903	1,741.7	76.3318	1,741.7	80.0576	1,741.7	75.0923	1,741.7	81.6692	1,741.7	71.5362	1,741.7	82.0661	1,741.7	72.3695	1,741.7	81.9551	1,741.7	74.9512	1,741.7	79.5188	1,741.7	66.2072	1,741.7	76.3203	1,741.7	60.8428	1,741.7	71.4342	1,741.7	76.125	1,741.7	72.7401	1,741.7	74.0354	1,741.7	69.5324	1,741.7	66.4175	1,741.7	71.509	1,741.7	68.4047	1,741.7	70.4551	1,741.7	63.1275	1,741.7	49.6192	1,741.7	63.5447	1,741.7	70.5394	1,741.7	68.1186
1,803.22	86.9573	1,803.22	83.88	1,803.22	87.1828	1,803.22	77.6951	1,803.22	83.6401	1,803.22	69.4109	1,803.22	75.0666	1,803.22	75.2482	1,803.22	76.8051	1,803.22	76.8282	1,803.22	81.1327	1,803.22	76.2055	1,803.22	82.2028	1,803.22	75.2072	1,803.22	79.9143	1,803.22	73.1978	1,803.22	76.6266	1,803.22	71.8009	1,803.22	75.0321	1,803.22	68.9329	1,803.22	72.1938	1,803.22	68.7074	1,803.22	70.6237	1,803.22	67.7166	1,803.22	68.478	1,803.22	70.7508	1,803.22	72.3034	1,803.22	71.2507	1,803.22	70.2938	1,803.22	68.8832	1,803.22	68.3989	1,803.22	59.4336	1,803.22	62.2519	1,803.22	60.3366	1,803.22	71.7636	1,803.22	64.5626
1,866.21	86.3371	1,866.21	83.9212	1,866.21	86.6026	1,866.21	78.2141	1,866.21	83.9174	1,866.21	65.8301	1,866.21	75.2331	1,866.21	75.213	1,866.21	78.269	1,866.21	75.3499	1,866.21	82.416	1,866.21	76.2966	1,866.21	82.3205	1,866.21	76.5812	1,866.21	80.8576	1,866.21	72.4146	1,866.21	77.2892	1,866.21	72.2632	1,866.21	73.6821	1,866.21	71.7712	1,866.21	73.3085	1,866.21	69.2544	1,866.21	72.5261	1,866.21	70.1446	1,866.21	70.0749	1,866.21	68.5863	1,866.21	71.2723	1,866.21	70.5061	1,866.21	71.4074	1,866.21	69.6835	1,866.21	69.7744	1,866.21	55.4229	1,866.21	62.4783	1,866.21	59.8488	1,866.21	72.7007	1,866.21	67.6854
1,932.13	85.6461	1,932.13	83.4084	1,932.13	85.3934	1,932.13	76.5666	1,932.13	82.4182	1,932.13	62.0617	1,932.13	70.8159	1,932.13	72.3851	1,932.13	78.788	1,932.13	76.5727	1,932.13	82.6301	1,932.13	77.8118	1,932.13	83.225	1,932.13	75.2588	1,932.13	80.3986	1,932.13	75.078	1,932.13	77.6432	1,932.13	74.0227	1,932.13	74.0929	1,932.13	70.7974	1,932.13	71.849	1,932.13	69.6458	1,932.13	70.723	1,932.13	69.7074	1,932.13	71.7874	1,932.13	68.6471	1,932.13	72.4186	1,932.13	67.8712	1,932.13	69.653	1,932.13	70.5586	1,932.13	70.3643	1,932.13	66.1323	1,932.13	60.4464	1,932.13	52.1499	1,932.13	71.4999	1,932.13	64.2628
1,999.51	86.2447	1,999.51	82.758	1,999.51	85.6578	1,999.51	73.3255	1,999.51	81.0669	1,999.51	59.7921	1,999.51	63.9317	1,999.51	74.7387	1,999.51	79.4772	1,999.51	78.1801	1,999.51	82.5291	1,999.51	77.7502	1,999.51	82.5559	1,999.51	77.4773	1,999.51	79.9565	1,999.51	74.0889	1,999.51	76.7039	1,999.51	71.1991	1,999.51	74.8371	1,999.51	72.3626	1,999.51	67.2162	1,999.51	69.5871	1,999.51	73.1325	1,999.51	68.5555	1,999.51	69.9407	1,999.51	71.654	1,999.51	75.0314	1,999.51	66.4623	1,999.51	65.3787	1,999.51	67.5711	1,999.51	69.4677	1,999.51	62.975	1,999.51	56.6295	1,999.51	59.5871	1,999.51	70.6836	1,999.51	60.7597
2,069.82	86.73	2,069.82	83.5272	2,069.82	86.0411	2,069.82	75.7935	2,069.82	82.0736	2,069.82	65.4099	2,069.82	66.4488	2,069.82	75.9759	2,069.82	79.7972	2,069.82	78.2427	2,069.82	82.7399	2,069.82	79.1749	2,069.82	81.7484	2,069.82	76.0318	2,069.82	79.6696	2,069.82	74.0006	2,069.82	75.604	2,069.82	72.8912	2,069.82	72.5378	2,069.82	68.0171	2,069.82	63.6077	2,069.82	70.3919	2,069.82	70.832	2,069.82	67.437	2,069.82	68.0475	2,069.82	69.0673	2,069.82	71.9128	2,069.82	68.3735	2,069.82	67.0857	2,069.82	65.2485	2,069.82	65.3584	2,069.82	64.0296	2,069.82	50.9772	2,069.82	58.4663	2,069.82	67.7593	2,069.82	48.1446
2,143.07	86.146	2,143.07	83.3088	2,143.07	85.8292	2,143.07	75.6503	2,143.07	82.4242	2,143.07	73.7562	2,143.07	66.2573	2,143.07	77.1726	2,143.07	79.0685	2,143.07	77.6244	2,143.07	82.4666	2,143.07	76.8263	2,143.07	82.163	2,143.07	74.7273	2,143.07	80.1231	2,143.07	73.8313	2,143.07	76.5275	2,143.07	71.0001	2,143.07	73.9176	2,143.07	69.3236	2,143.07	67.1742	2,143.07	68.3308	2,143.07	66.3718	2,143.07	66.2734	2,143.07	68.9748	2,143.07	68.0994	2,143.07	69.2668	2,143.07	69.7502	2,143.07	67.8327	2,143.07	62.3972	2,143.07	62.0655	2,143.07	63.6413	2,143.07	62.2096	2,143.07	61.1015	2,143.07	69.1038	2,143.07	57.0031
2,219.24	85.3386	2,219.24	82.9838	2,219.24	84.6456	2,219.24	75.7099	2,219.24	80.9457	2,219.24	75.9305	2,219.24	72.0774	2,219.24	77.8172	2,219.24	77.9642	2,219.24	77.7453	2,219.24	82.8069	2,219.24	77.472	2,219.24	82.8977	2,219.24	75.4696	2,219.24	80.3966	2,219.24	72.2231	2,219.24	75.4492	2,219.24	69.9755	2,219.24	71.9019	2,219.24	69.4865	2,219.24	70.1349	2,219.24	69.1054	2,219.24	68.9949	2,219.24	66.4945	2,219.24	70.1127	2,219.24	67.2921	2,219.24	70.2817	2,219.24	68.7727	2,219.24	68.5673	2,219.24	65.9952	2,219.24	63.2688	2,219.24	64.596	2,219.24	64.1324	2,219.24	50.2941	2,219.24	66.9803	2,219.24	63.1301
2,296.88	86.1791	2,296.88	83.9996	2,296.88	85.0347	2,296.88	76.6964	2,296.88	79.5727	2,296.88	75.8964	2,296.88	72.9371	2,296.88	78.0023	2,296.88	78.5714	2,296.88	79.4072	2,296.88	82.5893	2,296.88	77.7379	2,296.88	82.4301	2,296.88	76.6444	2,296.88	79.4822	2,296.88	74.3471	2,296.88	77.2462	2,296.88	74.2831	2,296.88	71.3947	2,296.88	70.8843	2,296.88	66.9322	2,296.88	68.5585	2,296.88	71.5364	2,296.88	68.3677	2,296.88	69.8795	2,296.88	67.8491	2,296.88	71.061	2,296.88	69.3194	2,296.88	67.0382	2,296.88	67.0978	2,296.88	64.5821	2,296.88	62.0081	2,296.88	63.941	2,296.88	54.5197	2,296.88	64.5317	2,296.88	60.2416
2,378.91	86.5019	2,378.91	84.4215	2,378.91	84.6203	2,378.91	78.747	2,378.91	81.412	2,378.91	76.8916	2,378.91	72.1507	2,378.91	79.6469	2,378.91	79.3691	2,378.91	77.5616	2,378.91	81.868	2,378.91	78.987	2,378.91	82.5642	2,378.91	73.8195	2,378.91	80.1623	2,378.91	72.8049	2,378.91	77.9323	2,378.91	72.8621	2,378.91	75.3717	2,378.91	67.2279	2,378.91	71.7736	2,378.91	70.7469	2,378.91	66.342	2,378.91	67.0307	2,378.91	71.384	2,378.91	68.5955	2,378.91	71.8704	2,378.91	69.0784	2,378.91	67.9795	2,378.91	65.851	2,378.91	60.1897	2,378.91	61.726	2,378.91	64.1224	2,378.91	60.4458	2,378.91	64.8925	2,378.91	62.7922
2,462.4	86.3131	2,462.4	84.0975	2,462.4	84.0999	2,462.4	78.3792	2,462.4	81.3166	2,462.4	78.9921	2,462.4	75.9993	2,462.4	78.9569	2,462.4	79.2863	2,462.4	79.2174	2,462.4	82.5919	2,462.4	78.0879	2,462.4	83.1222	2,462.4	75.5352	2,462.4	80.8093	2,462.4	74.7128	2,462.4	75.9204	2,462.4	67.7487	2,462.4	70.9516	2,462.4	69.4158	2,462.4	72.2577	2,462.4	68.7995	2,462.4	65.855	2,462.4	68.6203	2,462.4	71.3273	2,462.4	64.184	2,462.4	68.7234	2,462.4	70.0718	2,462.4	67.5761	2,462.4	68.4904	2,462.4	53.559	2,462.4	60.658	2,462.4	66.0273	2,462.4	59.3361	2,462.4	63.9688	2,462.4	63.1422
2,548.83	86.5819	2,548.83	84.1908	2,548.83	84.4441	2,548.83	78.6303	2,548.83	79.3658	2,548.83	80.0882	2,548.83	79.1409	2,548.83	79.6938	2,548.83	78.994	2,548.83	80.8725	2,548.83	82.0258	2,548.83	78.6809	2,548.83	82.5734	2,548.83	76.6408	2,548.83	80.2059	2,548.83	73.3121	2,548.83	76.9963	2,548.83	71.3087	2,548.83	75.2856	2,548.83	71.0877	2,548.83	73.1774	2,548.83	69.1442	2,548.83	71.0691	2,548.83	68.1975	2,548.83	71.8064	2,548.83	66.4863	2,548.83	70.0662	2,548.83	67.9807	2,548.83	68.5108	2,548.83	68.3676	2,548.83	61.1093	2,548.83	63.7919	2,548.83	68.948	2,548.83	31.9447	2,548.83	65.7945	2,548.83	62.721
2,639.65	86.7369	2,639.65	84.8373	2,639.65	84.5728	2,639.65	80.6079	2,639.65	80.1262	2,639.65	80.3916	2,639.65	81.0853	2,639.65	81.0985	2,639.65	80.3429	2,639.65	79.2763	2,639.65	81.0268	2,639.65	78.6606	2,639.65	82.5931	2,639.65	75.4169	2,639.65	80.1236	2,639.65	72.8967	2,639.65	77.6471	2,639.65	72.6052	2,639.65	72.9017	2,639.65	69.2393	2,639.65	71.7355	2,639.65	68.7133	2,639.65	70.2928	2,639.65	67.0789	2,639.65	72.7308	2,639.65	65.1041	2,639.65	69.6912	2,639.65	68.3512	2,639.65	68.7012	2,639.65	65.0709	2,639.65	62.4249	2,639.65	63.4275	2,639.65	68.9455	2,639.65	51.1636	2,639.65	65.8351	2,639.65	63.0546
2,731.93	87.1437	2,731.93	85.08	2,731.93	84.2322	2,731.93	80.5289	2,731.93	80.6679	2,731.93	81.2738	2,731.93	82.7106	2,731.93	81.5868	2,731.93	81.3909	2,731.93	79.5533	2,731.93	80.9556	2,731.93	77.8012	2,731.93	81.9477	2,731.93	72.7435	2,731.93	80.2347	2,731.93	75.07	2,731.93	79.2828	2,731.93	71.1932	2,731.93	72.3731	2,731.93	71.4172	2,731.93	71.1842	2,731.93	67.6869	2,731.93	70.8483	2,731.93	67.8336	2,731.93	72.6609	2,731.93	65.9742	2,731.93	71.3428	2,731.93	67.176	2,731.93	68.389	2,731.93	67.3878	2,731.93	56.8706	2,731.93	64.1747	2,731.93	67.2137	2,731.93	58.7823	2,731.93	64.9567	2,731.93	60.202
2,828.61	88.4509	2,828.61	85.4926	2,828.61	85.6285	2,828.61	80.5321	2,828.61	78.8071	2,828.61	82.5553	2,828.61	83.1365	2,828.61	81.1156	2,828.61	81.7864	2,828.61	80.4065	2,828.61	81.8506	2,828.61	76.9928	2,828.61	82.1643	2,828.61	75.4409	2,828.61	81.3066	2,828.61	72.7112	2,828.61	81.0804	2,828.61	72.7324	2,828.61	75.4583	2,828.61	70.0957	2,828.61	67.211	2,828.61	67.7053	2,828.61	59.4896	2,828.61	68.9272	2,828.61	72.113	2,828.61	64.6303	2,828.61	71.1869	2,828.61	67.7522	2,828.61	68.1297	2,828.61	65.1403	2,828.61	57.8712	2,828.61	60.739	2,828.61	66.8651	2,828.61	55.8696	2,828.61	65.9409	2,828.61	58.92
2,928.22	88.2648	2,928.22	85.0385	2,928.22	87.0243	2,928.22	81.2273	2,928.22	78.3598	2,928.22	83.7451	2,928.22	84.0902	2,928.22	81.71	2,928.22	82.2581	2,928.22	78.262	2,928.22	81.2894	2,928.22	77.0815	2,928.22	82.195	2,928.22	74.3724	2,928.22	80.1943	2,928.22	73.0709	2,928.22	79.3535	2,928.22	70.0753	2,928.22	70.773	2,928.22	70.4599	2,928.22	63.3321	2,928.22	68.487	2,928.22	70.4741	2,928.22	68.0687	2,928.22	70.6003	2,928.22	65.1842	2,928.22	69.727	2,928.22	68.7533	2,928.22	60.8328	2,928.22	67.9501	2,928.22	62.1659	2,928.22	62.6287	2,928.22	68.778	2,928.22	58.6171	2,928.22	65.5108	2,928.22	58.2929
3,030.76	88.5823	3,030.76	84.4686	3,030.76	87.3365	3,030.76	82.8036	3,030.76	79.5297	3,030.76	84.2697	3,030.76	84.9074	3,030.76	81.4375	3,030.76	83.4005	3,030.76	79.138	3,030.76	79.3979	3,030.76	77.8203	3,030.76	82.245	3,030.76	75.4448	3,030.76	81.7189	3,030.76	74.7442	3,030.76	79.7256	3,030.76	72.4868	3,030.76	70.637	3,030.76	71.9974	3,030.76	71.406	3,030.76	68.7104	3,030.76	74.9921	3,030.76	68.7683	3,030.76	71.118	3,030.76	64.9724	3,030.76	69.2152	3,030.76	68.8825	3,030.76	60.6327	3,030.76	67.0827	3,030.76	64.0158	3,030.76	63.4353	3,030.76	69.3767	3,030.76	53.9793	3,030.76	61.3958	3,030.76	57.6189
3,137.7	88.3674	3,137.7	84.3106	3,137.7	88.0791	3,137.7	84.6408	3,137.7	81.1421	3,137.7	84.685	3,137.7	84.514	3,137.7	80.7456	3,137.7	84.1351	3,137.7	79.3176	3,137.7	77.4739	3,137.7	77.6555	3,137.7	82.6154	3,137.7	75.8916	3,137.7	82.9541	3,137.7	74.8185	3,137.7	80.4258	3,137.7	68.5365	3,137.7	77.5789	3,137.7	68.82	3,137.7	75.4299	3,137.7	67.444	3,137.7	74.5057	3,137.7	67.804	3,137.7	72.234	3,137.7	67.0972	3,137.7	67.4012	3,137.7	68.4099	3,137.7	58.5445	3,137.7	66.7558	3,137.7	60.2405	3,137.7	63.3431	3,137.7	69.6463	3,137.7	56.1337	3,137.7	61.0205	3,137.7	60.9776
3,249.02	87.8906	3,249.02	84.8658	3,249.02	88.4231	3,249.02	84.8681	3,249.02	82.0632	3,249.02	83.9408	3,249.02	84.6337	3,249.02	79.5836	3,249.02	84.2593	3,249.02	79.8478	3,249.02	76.9137	3,249.02	78.1234	3,249.02	82.0275	3,249.02	76.4853	3,249.02	83.7985	3,249.02	73.5009	3,249.02	81.9027	3,249.02	74.1289	3,249.02	79.5195	3,249.02	71.38	3,249.02	76.0397	3,249.02	69.7415	3,249.02	73.7283	3,249.02	68.0218	3,249.02	69.861	3,249.02	66.2777	3,249.02	69.1134	3,249.02	67.4653	3,249.02	59.902	3,249.02	68.4656	3,249.02	61.9641	3,249.02	65.5197	3,249.02	70.5389	3,249.02	60.4925	3,249.02	62.9331	3,249.02	60.4048
3,363.28	87.4604	3,363.28	85.1211	3,363.28	88.0265	3,363.28	85.0589	3,363.28	83.313	3,363.28	83.7564	3,363.28	84.6748	3,363.28	81.0207	3,363.28	84.8315	3,363.28	80.2992	3,363.28	73.8777	3,363.28	78.7797	3,363.28	81.827	3,363.28	75.7578	3,363.28	83.9505	3,363.28	76.0197	3,363.28	80.0777	3,363.28	71.7826	3,363.28	79.3937	3,363.28	69.0184	3,363.28	78.1437	3,363.28	67.7847	3,363.28	71.521	3,363.28	66.9812	3,363.28	66.631	3,363.28	65.5043	3,363.28	66.9011	3,363.28	67.0266	3,363.28	59.1839	3,363.28	67.3366	3,363.28	64.5434	3,363.28	66.3934	3,363.28	70.4546	3,363.28	55.7159	3,363.28	63.3058	3,363.28	59.3459
3,481.93	88.0101	3,481.93	85.1962	3,481.93	88.0212	3,481.93	85.3876	3,481.93	84.1044	3,481.93	83.5197	3,481.93	84.6566	3,481.93	81.2626	3,481.93	84.5289	3,481.93	80.3729	3,481.93	76.5916	3,481.93	77.6313	3,481.93	83.073	3,481.93	77.0367	3,481.93	82.7482	3,481.93	72.5991	3,481.93	81.5142	3,481.93	73.0611	3,481.93	77.7916	3,481.93	70.6143	3,481.93	73.4484	3,481.93	69.3101	3,481.93	73.5055	3,481.93	66.0784	3,481.93	66.069	3,481.93	67.2139	3,481.93	66.8648	3,481.93	64.7512	3,481.93	62.2646	3,481.93	66.6697	3,481.93	63.964	3,481.93	65.6087	3,481.93	69.2978	3,481.93	54.3791	3,481.93	62.6081	3,481.93	60.1032
3,604.98	87.5221	3,604.98	85.3061	3,604.98	88.2366	3,604.98	85.3675	3,604.98	84.4904	3,604.98	84.357	3,604.98	85.1323	3,604.98	81.2487	3,604.98	85.432	3,604.98	80.008	3,604.98	78.3433	3,604.98	78.2533	3,604.98	83.0975	3,604.98	75.6332	3,604.98	82.6143	3,604.98	73.4856	3,604.98	80.7405	3,604.98	71.9402	3,604.98	73.4013	3,604.98	67.3118	3,604.98	68.554	3,604.98	67.9666	3,604.98	71.7745	3,604.98	64.6194	3,604.98	66.0237	3,604.98	66.0181	3,604.98	63.2591	3,604.98	64.5846	3,604.98	61.1824	3,604.98	64.6959	3,604.98	64.3241	3,604.98	65.8131	3,604.98	67.4281	3,604.98	61.8296	3,604.98	61.4865	3,604.98	62.4254
3,732.42	87.6099	3,732.42	85.0968	3,732.42	88.4557	3,732.42	86.037	3,732.42	84.8036	3,732.42	85.0927	3,732.42	85.5673	3,732.42	80.8896	3,732.42	85.9028	3,732.42	80.0435	3,732.42	80.0465	3,732.42	76.7135	3,732.42	83.0738	3,732.42	75.7447	3,732.42	81.2242	3,732.42	71.4932	3,732.42	79.7275	3,732.42	70.2321	3,732.42	64.2333	3,732.42	68.6502	3,732.42	65.8283	3,732.42	67.1169	3,732.42	74.681	3,732.42	66.6317	3,732.42	67.7996	3,732.42	67.728	3,732.42	62.6616	3,732.42	63.945	3,732.42	60.6307	3,732.42	66.0632	3,732.42	62.0236	3,732.42	67.3018	3,732.42	67.9308	3,732.42	62.8659	3,732.42	61.8892	3,732.42	59.8878
3,864.26	87.2316	3,864.26	86.1463	3,864.26	88.6519	3,864.26	87.0571	3,864.26	85.6604	3,864.26	85.1653	3,864.26	84.8729	3,864.26	79.8511	3,864.26	86.4357	3,864.26	80.1152	3,864.26	80.4783	3,864.26	76.2397	3,864.26	81.9816	3,864.26	74.6798	3,864.26	80.6234	3,864.26	73.2112	3,864.26	77.2841	3,864.26	72.7859	3,864.26	71.5714	3,864.26	69.461	3,864.26	63.7181	3,864.26	67.7417	3,864.26	73.546	3,864.26	66.5251	3,864.26	67.0957	3,864.26	67.7045	3,864.26	65.3864	3,864.26	65.6347	3,864.26	61.0055	3,864.26	66.9428	3,864.26	61.7024	3,864.26	66.3622	3,864.26	66.8916	3,864.26	64.4617	3,864.26	62.8185	3,864.26	60.1497
4,000.49	87.1111	4,000.49	86.5721	4,000.49	87.6895	4,000.49	87.1844	4,000.49	86.7198	4,000.49	84.0982	4,000.49	84.5335	4,000.49	80.3465	4,000.49	86.004	4,000.49	80.28	4,000.49	79.5948	4,000.49	76.9133	4,000.49	80.6752	4,000.49	76.8874	4,000.49	78.9348	4,000.49	73.6307	4,000.49	75.5155	4,000.49	69.9007	4,000.49	74.1933	4,000.49	68.7373	4,000.49	68.6437	4,000.49	68.2281	4,000.49	61.1433	4,000.49	66.2371	4,000.49	62.2917	4,000.49	67.0685	4,000.49	60.0813	4,000.49	66.6236	4,000.49	55.3261	4,000.49	68.0182	4,000.49	59.307	4,000.49	66.236	4,000.49	65.4083	4,000.49	64.4951	4,000.49	62.2199	4,000.49	58.9727
4,141.11	87.6214	4,141.11	86.4956	4,141.11	87.434	4,141.11	86.8781	4,141.11	86.4642	4,141.11	84.2734	4,141.11	84.7358	4,141.11	81.1452	4,141.11	85.0668	4,141.11	80.6712	4,141.11	79.7483	4,141.11	78.46	4,141.11	77.9017	4,141.11	76.5075	4,141.11	76.1767	4,141.11	73.4131	4,141.11	71.1133	4,141.11	73.6942	4,141.11	71.9953	4,141.11	68.889	4,141.11	69.2237	4,141.11	68.2971	4,141.11	73.1419	4,141.11	65.1806	4,141.11	57.6612	4,141.11	67.0839	4,141.11	60.1694	4,141.11	63.6225	4,141.11	61.2118	4,141.11	67.8392	4,141.11	62.6341	4,141.11	64.8899	4,141.11	64.2759	4,141.11	66.1676	4,141.11	63.2166	4,141.11	61.2074
4,287.6	87.5434	4,287.6	86.3049	4,287.6	87.3652	4,287.6	87.17	4,287.6	86.1023	4,287.6	84.1092	4,287.6	84.515	4,287.6	80.1651	4,287.6	85.094	4,287.6	81.0781	4,287.6	80.343	4,287.6	77.3439	4,287.6	72.8661	4,287.6	75.9435	4,287.6	74.8039	4,287.6	71.8283	4,287.6	77.0049	4,287.6	68.4172	4,287.6	77.4178	4,287.6	68.8314	4,287.6	69.2046	4,287.6	65.6324	4,287.6	72.7485	4,287.6	66.5056	4,287.6	52.4032	4,287.6	65.0734	4,287.6	57.9076	4,287.6	63.662	4,287.6	64.8509	4,287.6	68.0504	4,287.6	61.6328	4,287.6	65.7929	4,287.6	64.687	4,287.6	65.5704	4,287.6	62.3286	4,287.6	62.2436
4,438.48	86.7261	4,438.48	86.4652	4,438.48	87.0646	4,438.48	86.7007	4,438.48	86.5645	4,438.48	83.8627	4,438.48	84.2667	4,438.48	81.2071	4,438.48	84.8223	4,438.48	80.7938	4,438.48	80.3742	4,438.48	77.8218	4,438.48	68.1134	4,438.48	74.5588	4,438.48	78.4719	4,438.48	74.0094	4,438.48	76.738	4,438.48	70.0088	4,438.48	74.9916	4,438.48	68.4708	4,438.48	67.603	4,438.48	65.3676	4,438.48	69.7215	4,438.48	65.8341	4,438.48	47.4702	4,438.48	65.5748	4,438.48	60.7092	4,438.48	64.7023	4,438.48	58.5377	4,438.48	67.8638	4,438.48	61.2812	4,438.48	66.6347	4,438.48	61.824	4,438.48	66.6214	4,438.48	63.0433	4,438.48	63.1976
4,595.21	87.2294	4,595.21	86.6899	4,595.21	87.1949	4,595.21	87.1072	4,595.21	86.1829	4,595.21	84.03	4,595.21	84.1075	4,595.21	80.1912	4,595.21	84.1003	4,595.21	81.0974	4,595.21	81.2501	4,595.21	76.9153	4,595.21	71.659	4,595.21	76.0754	4,595.21	81.0018	4,595.21	72.5841	4,595.21	78.3422	4,595.21	71.2751	4,595.21	75.1887	4,595.21	69.6974	4,595.21	43.9544	4,595.21	65.5699	4,595.21	67.9192	4,595.21	66.4684	4,595.21	58.5489	4,595.21	64.8145	4,595.21	61.5254	4,595.21	64.6587	4,595.21	61.3804	4,595.21	67.2692	4,595.21	60.0845	4,595.21	66.3314	4,595.21	59.7638	4,595.21	66.7003	4,595.21	58.3634	4,595.21	61.7366
4,756.35	86.4574	4,756.35	86.4551	4,756.35	86.1386	4,756.35	86.3515	4,756.35	86.2754	4,756.35	82.8173	4,756.35	84.4519	4,756.35	81.7124	4,756.35	83.1679	4,756.35	80.1426	4,756.35	81.6259	4,756.35	77.8717	4,756.35	72.773	4,756.35	74.54	4,756.35	81.4095	4,756.35	73.8071	4,756.35	75.7017	4,756.35	66.8836	4,756.35	74.4899	4,756.35	67.5729	4,756.35	68.9407	4,756.35	65.2137	4,756.35	56.4942	4,756.35	63.5024	4,756.35	55.7945	4,756.35	64.1481	4,756.35	60.7617	4,756.35	63.1828	4,756.35	59.5372	4,756.35	66.8965	4,756.35	58.1639	4,756.35	65.8951	4,756.35	61.0559	4,756.35	67.7809	4,756.35	61.4651	4,756.35	63.9288
4,924.8	86.6571	4,924.8	86.8152	4,924.8	87.2748	4,924.8	86.1939	4,924.8	85.4424	4,924.8	83.5578	4,924.8	84.5151	4,924.8	80.7611	4,924.8	82.1107	4,924.8	79.5536	4,924.8	80.7665	4,924.8	77.1903	4,924.8	70.8749	4,924.8	73.7302	4,924.8	80.512	4,924.8	70.532	4,924.8	73.0367	4,924.8	71.455	4,924.8	70.8177	4,924.8	66.3573	4,924.8	63.2736	4,924.8	66.8515	4,924.8	59.6105	4,924.8	64.5165	4,924.8	64.6743	4,924.8	64.0956	4,924.8	55.7576	4,924.8	64.8674	4,924.8	59.753	4,924.8	66.6238	4,924.8	59.7477	4,924.8	66.0629	4,924.8	58.8849	4,924.8	66.7077	4,924.8	60.5593	4,924.8	62.8123
5,097.66	86.5706	5,097.66	86.4323	5,097.66	86.3778	5,097.66	86.0338	5,097.66	85.7344	5,097.66	83.851	5,097.66	84.9422	5,097.66	80.1949	5,097.66	81.0436	5,097.66	79.5312	5,097.66	81.0211	5,097.66	76.7939	5,097.66	69.0847	5,097.66	74.0551	5,097.66	76.872	5,097.66	73.1684	5,097.66	72.0994	5,097.66	68.1885	5,097.66	71.2515	5,097.66	68.6124	5,097.66	66.7892	5,097.66	65.3613	5,097.66	61.489	5,097.66	62.8385	5,097.66	59.2232	5,097.66	63.3584	5,097.66	53.268	5,097.66	63.7968	5,097.66	58.0909	5,097.66	67.3424	5,097.66	63.045	5,097.66	67.1772	5,097.66	46.2077	5,097.66	68.1024	5,097.66	57.3084	5,097.66	63.3118
5,277.83	85.6407	5,277.83	86.6593	5,277.83	87.0196	5,277.83	86.0774	5,277.83	85.5114	5,277.83	83.3129	5,277.83	84.509	5,277.83	79.5223	5,277.83	81.1031	5,277.83	79.3992	5,277.83	81.1933	5,277.83	76.8558	5,277.83	69.624	5,277.83	74.5754	5,277.83	75.5774	5,277.83	71.9945	5,277.83	73.1295	5,277.83	70.2466	5,277.83	71.9973	5,277.83	67.008	5,277.83	69.4067	5,277.83	65.5082	5,277.83	60.5082	5,277.83	64.0724	5,277.83	55.4718	5,277.83	63.6317	5,277.83	57.8202	5,277.83	63.2103	5,277.83	60.9994	5,277.83	66.0347	5,277.83	61.0825	5,277.83	66.0267	5,277.83	53.1873	5,277.83	66.6673	5,277.83	59.9987	5,277.83	61.1789
5,463.87	86.3397	5,463.87	86.6177	5,463.87	86.725	5,463.87	85.5145	5,463.87	84.8601	5,463.87	82.7811	5,463.87	84.2965	5,463.87	80.6507	5,463.87	81.2101	5,463.87	78.4252	5,463.87	80.2774	5,463.87	76.712	5,463.87	71.1507	5,463.87	73.6469	5,463.87	72.1831	5,463.87	70.984	5,463.87	72.8404	5,463.87	69.8217	5,463.87	70.6646	5,463.87	66.9022	5,463.87	68.3513	5,463.87	63.1699	5,463.87	65.8253	5,463.87	63.4798	5,463.87	54.3539	5,463.87	61.357	5,463.87	51.0188	5,463.87	60.4834	5,463.87	61.8969	5,463.87	65.6157	5,463.87	57.6372	5,463.87	66.4786	5,463.87	58.0012	5,463.87	66.8184	5,463.87	56.2067	5,463.87	63.4837
5,657.23	85.8346	5,657.23	85.745	5,657.23	86.2452	5,657.23	85.8081	5,657.23	85.1477	5,657.23	82.5286	5,657.23	83.4571	5,657.23	80.1944	5,657.23	81.8528	5,657.23	78.593	5,657.23	80.0333	5,657.23	76.713	5,657.23	73.4764	5,657.23	74.3206	5,657.23	71.8878	5,657.23	71.9516	5,657.23	73.5799	5,657.23	70.1852	5,657.23	68.6553	5,657.23	68.4709	5,657.23	57.1468	5,657.23	64.9881	5,657.23	61.5384	5,657.23	63.9259	5,657.23	57.7836	5,657.23	63.2027	5,657.23	51.9984	5,657.23	64.4737	5,657.23	58.8681	5,657.23	64.1313	5,657.23	61.6245	5,657.23	65.7543	5,657.23	55.8038	5,657.23	66.9325	5,657.23	54.6709	5,657.23	63.2085
5,856.45	85.6909	5,856.45	85.8182	5,856.45	85.9388	5,856.45	85.5163	5,856.45	84.7135	5,856.45	82.2363	5,856.45	82.7673	5,856.45	78.8209	5,856.45	80.7872	5,856.45	78.4184	5,856.45	80.1985	5,856.45	76.0113	5,856.45	70.466	5,856.45	74.1883	5,856.45	69.239	5,856.45	71.6076	5,856.45	73.9557	5,856.45	69.3265	5,856.45	71.8772	5,856.45	66.3363	5,856.45	66.4789	5,856.45	62.9618	5,856.45	51.6308	5,856.45	61.5227	5,856.45	56.3805	5,856.45	62.108	5,856.45	48.3124	5,856.45	61.1303	5,856.45	55.6122	5,856.45	63.3241	5,856.45	60.3355	5,856.45	65.7955	5,856.45	53.2641	5,856.45	65.1225	5,856.45	54.4385	5,856.45	64.7242
6,062.99	85.2512	6,062.99	85.9406	6,062.99	85.8846	6,062.99	84.8933	6,062.99	83.9606	6,062.99	81.0439	6,062.99	82.0641	6,062.99	78.5784	6,062.99	78.7358	6,062.99	77.8721	6,062.99	79.7736	6,062.99	75.3068	6,062.99	71.6656	6,062.99	72.553	6,062.99	65.5467	6,062.99	69.9088	6,062.99	76.1067	6,062.99	67.5559	6,062.99	67.5185	6,062.99	66.7331	6,062.99	68.1897	6,062.99	62.8078	6,062.99	48.3903	6,062.99	61.0582	6,062.99	56.6116	6,062.99	59.7748	6,062.99	40.393	6,062.99	61.6053	6,062.99	46.0064	6,062.99	60.4945	6,062.99	59.1447	6,062.99	62.6123	6,062.99	55.8187	6,062.99	65.1346	6,062.99	52.6866	6,062.99	62.9482
6,276.86	85.3241	6,276.86	85.8039	6,276.86	85.7044	6,276.86	84.2407	6,276.86	83.3567	6,276.86	80.1084	6,276.86	81.7033	6,276.86	78.8969	6,276.86	77.1651	6,276.86	76.5656	6,276.86	78.1984	6,276.86	75.2702	6,276.86	73.2307	6,276.86	71.9605	6,276.86	66.7859	6,276.86	70.458	6,276.86	75.5208	6,276.86	67.7764	6,276.86	68.2446	6,276.86	66.1947	6,276.86	68.1249	6,276.86	62.9586	6,276.86	56.8846	6,276.86	61.0065	6,276.86	53.5089	6,276.86	58.7491	6,276.86	54.4097	6,276.86	60.831	6,276.86	46.7705	6,276.86	60.4077	6,276.86	60.288	6,276.86	62.2153	6,276.86	56.7269	6,276.86	64.1081	6,276.86	53.6348	6,276.86	62.2881
6,498.05	85.3441	6,498.05	85.589	6,498.05	85.2249	6,498.05	83.5714	6,498.05	83.1183	6,498.05	80.0733	6,498.05	81.5661	6,498.05	77.3979	6,498.05	76.5108	6,498.05	76.1227	6,498.05	76.2169	6,498.05	74.6574	6,498.05	72.8008	6,498.05	72.1249	6,498.05	66.2761	6,498.05	70.0201	6,498.05	72.2983	6,498.05	67.6164	6,498.05	61.5733	6,498.05	64.624	6,498.05	66.5028	6,498.05	59.3671	6,498.05	60.5002	6,498.05	60.448	6,498.05	59.5059	6,498.05	54.9667	6,498.05	54.2401	6,498.05	59.3864	6,498.05	52.2465	6,498.05	58.6657	6,498.05	57.7688	6,498.05	60.6026	6,498.05	52.9237	6,498.05	64.1805	6,498.05	56.0308	6,498.05	62.2364
6,726.56	84.7901	6,726.56	85.0161	6,726.56	84.6088	6,726.56	83.697	6,726.56	82.3244	6,726.56	78.6945	6,726.56	80.3633	6,726.56	76.8737	6,726.56	75.2257	6,726.56	75.9015	6,726.56	74.3831	6,726.56	73.2773	6,726.56	73.8136	6,726.56	71.2127	6,726.56	56.9104	6,726.56	67.7259	6,726.56	68.953	6,726.56	66.1981	6,726.56	64.6526	6,726.56	64.847	6,726.56	64.0772	6,726.56	60.1283	6,726.56	46.2821	6,726.56	59.9022	6,726.56	61.2719	6,726.56	58.5395	6,726.56	49.227	6,726.56	58.2548	6,726.56	55.869	6,726.56	55.9101	6,726.56	54.7148	6,726.56	57.6622	6,726.56	53.9747	6,726.56	60.7245	6,726.56	56.5639	6,726.56	60.3767
6,963.87	84.5403	6,963.87	84.913	6,963.87	84.3933	6,963.87	82.9428	6,963.87	82.1825	6,963.87	77.441	6,963.87	79.5266	6,963.87	77.1323	6,963.87	75.9865	6,963.87	74.7234	6,963.87	74.1752	6,963.87	73.14	6,963.87	74.4962	6,963.87	70.0933	6,963.87	63.5075	6,963.87	67.1244	6,963.87	70.3475	6,963.87	65.9351	6,963.87	68.325	6,963.87	63.9945	6,963.87	64.2298	6,963.87	61.1184	6,963.87	60.4184	6,963.87	59.1987	6,963.87	58.0284	6,963.87	59.2107	6,963.87	56.4383	6,963.87	60.4484	6,963.87	49.4145	6,963.87	56.1142	6,963.87	53.3835	6,963.87	47.1389	6,963.87	51.076	6,963.87	59.8907	6,963.87	55.8557	6,963.87	61.5986
7,209.96	84.346	7,209.96	84.0867	7,209.96	83.0987	7,209.96	81.7826	7,209.96	80.9463	7,209.96	77.7541	7,209.96	79.8993	7,209.96	75.7895	7,209.96	75.3146	7,209.96	75.4457	7,209.96	75.9511	7,209.96	72.2438	7,209.96	73.622	7,209.96	70.8121	7,209.96	70.6057	7,209.96	69.1603	7,209.96	72.7595	7,209.96	66.7237	7,209.96	67.4819	7,209.96	64.2747	7,209.96	63.9278	7,209.96	61.4525	7,209.96	59.9031	7,209.96	60.0614	7,209.96	54.4718	7,209.96	59.5416	7,209.96	55.0528	7,209.96	61.3437	7,209.96	48.4329	7,209.96	57.0404	7,209.96	51.107	7,209.96	50.9	7,209.96	46.0884	7,209.96	54.0697	7,209.96	57.1888	7,209.96	59.537
7,464.84	84.0095	7,464.84	83.1506	7,464.84	82.4782	7,464.84	81.4216	7,464.84	80.9155	7,464.84	77.1929	7,464.84	79.6397	7,464.84	77.1098	7,464.84	77.9957	7,464.84	76.0048	7,464.84	78.074	7,464.84	74.4631	7,464.84	71.9583	7,464.84	73.6381	7,464.84	73.6487	7,464.84	71.0798	7,464.84	72.4987	7,464.84	67.6651	7,464.84	66.3755	7,464.84	65.9425	7,464.84	64.0476	7,464.84	62.2028	7,464.84	59.4379	7,464.84	60.3752	7,464.84	54.6231	7,464.84	60.5404	7,464.84	53.639	7,464.84	62.9657	7,464.84	42.3525	7,464.84	60.1304	7,464.84	48.4935	7,464.84	54.9307	7,464.84	53.5324	7,464.84	53.6116	7,464.84	57.6213	7,464.84	56.7508
7,727.05	83.492	7,727.05	83.7389	7,727.05	82.5561	7,727.05	81.6236	7,727.05	81.4733	7,727.05	78.9485	7,727.05	80.9829	7,727.05	78.4153	7,727.05	80.8711	7,727.05	77.1434	7,727.05	78.1836	7,727.05	76.9113	7,727.05	72.1572	7,727.05	73.6667	7,727.05	75.4792	7,727.05	71.6781	7,727.05	66.6149	7,727.05	69.4504	7,727.05	66.3135	7,727.05	66.6584	7,727.05	62.8964	7,727.05	63.9448	7,727.05	48.1621	7,727.05	59.5492	7,727.05	57.2753	7,727.05	60.8393	7,727.05	49.5512	7,727.05	63.6355	7,727.05	48.9242	7,727.05	60.0077	7,727.05	44.1963	7,727.05	57.0698	7,727.05	54.4335	7,727.05	55.7785	7,727.05	55.6737	7,727.05	55.151
7,999.51	84.6233	7,999.51	84.2525	7,999.51	83.5928	7,999.51	83.1901	7,999.51	82.1639	7,999.51	80.259	7,999.51	81.3911	7,999.51	79.3328	7,999.51	80.9217	7,999.51	79.0404	7,999.51	77.3079	7,999.51	76.8942	7,999.51	75.9918	7,999.51	74.7782	7,999.51	72.8289	7,999.51	71.9232	7,999.51	59.0306	7,999.51	68.1427	7,999.51	64.962	7,999.51	65.1145	7,999.51	59.5828	7,999.51	62.6857	7,999.51	49.1204	7,999.51	60.2711	7,999.51	58.0542	7,999.51	60.5954	7,999.51	56.0497	7,999.51	62.5239	7,999.51	49.3825	7,999.51	60.2279	7,999.51	43.1652	7,999.51	56.9687	7,999.51	53.0781	7,999.51	46.8881	7,999.51	52.0851	7,999.51	53.7748
8,282.23	85.915	8,282.23	85.3577	8,282.23	84.375	8,282.23	84.3091	8,282.23	82.6939	8,282.23	80.8393	8,282.23	81.5762	8,282.23	80.0918	8,282.23	79.2481	8,282.23	78.5038	8,282.23	76.3507	8,282.23	76.9978	8,282.23	77.8691	8,282.23	72.8966	8,282.23	68.7191	8,282.23	69.938	8,282.23	60.6938	8,282.23	66.7372	8,282.23	62.7441	8,282.23	63.2659	8,282.23	58.8242	8,282.23	61.1269	8,282.23	51.7396	8,282.23	57.4956	8,282.23	58.5906	8,282.23	58.198	8,282.23	50.0427	8,282.23	61.0908	8,282.23	42.9143	8,282.23	59.8582	8,282.23	35.8419	8,282.23	57.8978	8,282.23	54.4015	8,282.23	50.6586	8,282.23	52.8924	8,282.23	52.8597
8,573.73	86.6674	8,573.73	86.1773	8,573.73	85.8172	8,573.73	84.8664	8,573.73	83.4442	8,573.73	80.771	8,573.73	82.391	8,573.73	79.7935	8,573.73	80.2292	8,573.73	78.2651	8,573.73	76.6115	8,573.73	75.6368	8,573.73	76.3611	8,573.73	72.6153	8,573.73	69.49	8,573.73	69.0397	8,573.73	62.4883	8,573.73	66.1699	8,573.73	62.3788	8,573.73	61.5622	8,573.73	60.8492	8,573.73	60.8558	8,573.73	52.5978	8,573.73	55.7935	8,573.73	52.9541	8,573.73	57.328	8,573.73	49.3916	8,573.73	58.9608	8,573.73	43.3584	8,573.73	58.642	8,573.73	37.9929	8,573.73	56.1791	8,573.73	51.9113	8,573.73	51.9991	8,573.73	52.6775	8,573.73	49.327
8,876.95	87.194	8,876.95	86.5551	8,876.95	86.2999	8,876.95	85.3701	8,876.95	84.3749	8,876.95	80.2833	8,876.95	82.6635	8,876.95	79.8417	8,876.95	79.5472	8,876.95	77.4502	8,876.95	78.5429	8,876.95	75.2204	8,876.95	74.4338	8,876.95	71.1356	8,876.95	72.3599	8,876.95	67.8731	8,876.95	54.6345	8,876.95	65.4583	8,876.95	61.6121	8,876.95	61.2404	8,876.95	56.7518	8,876.95	60.2033	8,876.95	57.6297	8,876.95	55.936	8,876.95	46.5549	8,876.95	57.418	8,876.95	40.4358	8,876.95	58.9372	8,876.95	40.955	8,876.95	58.7356	8,876.95	40.7355	8,876.95	57.16	8,876.95	40.5941	8,876.95	48.1367	8,876.95	50.663	8,876.95	48.5741
9,188.96	87.3813	9,188.96	86.7064	9,188.96	86.73	9,188.96	85.2534	9,188.96	84.7792	9,188.96	80.4149	9,188.96	82.0012	9,188.96	79.2496	9,188.96	79.6974	9,188.96	77.1737	9,188.96	78.3799	9,188.96	74.3027	9,188.96	75.4304	9,188.96	70.9384	9,188.96	72.4409	9,188.96	67.6235	9,188.96	55.9397	9,188.96	64.9406	9,188.96	58.1352	9,188.96	60.8172	9,188.96	58.8592	9,188.96	59.4117	9,188.96	62.1299	9,188.96	56.2886	9,188.96	48.98	9,188.96	57.0351	9,188.96	38.0846	9,188.96	58.3965	9,188.96	48.2809	9,188.96	58.3718	9,188.96	44.8561	9,188.96	57.3827	9,188.96	34.7564	9,188.96	50.0329	9,188.96	49.1625	9,188.96	45.457
9,514.16	87.226	9,514.16	87.0159	9,514.16	86.8167	9,514.16	84.9693	9,514.16	85.1815	9,514.16	80.3274	9,514.16	81.9692	9,514.16	79.4249	9,514.16	79.8873	9,514.16	76.4201	9,514.16	78.0114	9,514.16	74.6337	9,514.16	76.5579	9,514.16	71.0393	9,514.16	69.5778	9,514.16	68.3559	9,514.16	63.3428	9,514.16	65.1006	9,514.16	54.9559	9,514.16	61.3241	9,514.16	56.0622	9,514.16	58.4071	9,514.16	59.5873	9,514.16	56.2149	9,514.16	52.1081	9,514.16	56.2372	9,514.16	46.9526	9,514.16	58.1537	9,514.16	47.4097	9,514.16	59.2092	9,514.16	32.0331	9,514.16	57.1705	9,514.16	51.3749	9,514.16	52.0846	9,514.16	52.3757	9,514.16	47.2057
9,849.61	87.0776	9,849.61	86.9577	9,849.61	86.6148	9,849.61	84.8732	9,849.61	84.8062	9,849.61	80.7454	9,849.61	81.2454	9,849.61	79.6772	9,849.61	79.0096	9,849.61	76.5661	9,849.61	77.3644	9,849.61	75.058	9,849.61	76.6572	9,849.61	71.5332	9,849.61	68.3344	9,849.61	67.8372	9,849.61	65.1926	9,849.61	65.0503	9,849.61	51.6084	9,849.61	60.5095	9,849.61	52.9998	9,849.61	58.7348	9,849.61	60.7549	9,849.61	55.8349	9,849.61	52.9648	9,849.61	56.0021	9,849.61	45.3237	9,849.61	57.8861	9,849.61	42.9585	9,849.61	59.0069	9,849.61	43.6452	9,849.61	56.676	9,849.61	50.3709	9,849.61	50.4282	9,849.61	50.1158	9,849.61	47.9842
10,196.8	86.9215	10,196.8	86.9489	10,196.8	86.5642	10,196.8	84.7356	10,196.8	84.3422	10,196.8	81.1175	10,196.8	80.7351	10,196.8	79.6579	10,196.8	78.971	10,196.8	76.7987	10,196.8	77.2727	10,196.8	75.2897	10,196.8	76.684	10,196.8	71.8532	10,196.8	66.2088	10,196.8	68.0099	10,196.8	64.1746	10,196.8	65.1539	10,196.8	47.9092	10,196.8	60.9676	10,196.8	50.6391	10,196.8	58.4034	10,196.8	54.9548	10,196.8	56.0716	10,196.8	49.455	10,196.8	56.8849	10,196.8	37.8886	10,196.8	58.8135	10,196.8	32.4414	10,196.8	58.7949	10,196.8	39.9296	10,196.8	56.7859	10,196.8	49.3791	10,196.8	52.386	10,196.8	50.0984	10,196.8	45.7545
10,555.7	86.7336	10,555.7	86.8586	10,555.7	86.1104	10,555.7	84.9407	10,555.7	84.4585	10,555.7	80.8963	10,555.7	81.4343	10,555.7	79.6602	10,555.7	79.3391	10,555.7	77.4344	10,555.7	78.2214	10,555.7	75.4329	10,555.7	76.0597	10,555.7	71.4336	10,555.7	69.7457	10,555.7	68.0018	10,555.7	65.6403	10,555.7	65.4665	10,555.7	52.4703	10,555.7	60.9618	10,555.7	56.6106	10,555.7	57.9125	10,555.7	58.0993	10,555.7	55.5586	10,555.7	37.3783	10,555.7	55.95	10,555.7	32.9388	10,555.7	58.1323	10,555.7	43.777	10,555.7	59.3155	10,555.7	44.1632	10,555.7	56.8769	10,555.7	47.9394	10,555.7	51.7079	10,555.7	44.4768	10,555.7	45.7233
10,927.7	86.4209	10,927.7	86.6468	10,927.7	85.8288	10,927.7	85.1421	10,927.7	84.0915	10,927.7	81.3251	10,927.7	81.2065	10,927.7	80.1063	10,927.7	79.2151	10,927.7	77.6958	10,927.7	78.7195	10,927.7	75.6581	10,927.7	74.2923	10,927.7	71.7203	10,927.7	66.9071	10,927.7	67.4866	10,927.7	66.7297	10,927.7	64.1145	10,927.7	48.9879	10,927.7	61.0553	10,927.7	56.7603	10,927.7	57.3944	10,927.7	60.3653	10,927.7	54.007	10,927.7	45.4889	10,927.7	55.6157	10,927.7	42.6235	10,927.7	57.6855	10,927.7	45.0101	10,927.7	59.1122	10,927.7	41.7664	10,927.7	53.9133	10,927.7	37.9028	10,927.7	50.1007	10,927.7	47.365	10,927.7	44.2994
11,313	86.2099	11,313	86.2001	11,313	85.5795	11,313	85.2312	11,313	83.7078	11,313	81.0997	11,313	81.0083	11,313	80.2293	11,313	79.715	11,313	77.4195	11,313	77.2512	11,313	75.1777	11,313	73.1695	11,313	71.4168	11,313	67.3666	11,313	67.9933	11,313	65.6469	11,313	64.9365	11,313	55.2507	11,313	60.9452	11,313	53.7609	11,313	57.7281	11,313	58.0149	11,313	54.4129	11,313	51.868	11,313	55.1129	11,313	40.3573	11,313	58.7742	11,313	40.2476	11,313	58.8763	11,313	37.9745	11,313	55.3356	11,313	44.2137	11,313	49.9312	11,313	45.7681	11,313	46.3463
11,712.9	85.9996	11,712.9	85.8744	11,712.9	85.249	11,712.9	85.0133	11,712.9	82.8959	11,712.9	80.8565	11,712.9	79.6648	11,712.9	79.6899	11,712.9	78.4372	11,712.9	76.7533	11,712.9	74.5327	11,712.9	74.513	11,712.9	73.6484	11,712.9	70.5084	11,712.9	64.9437	11,712.9	67.0033	11,712.9	65.3908	11,712.9	63.6533	11,712.9	54.0737	11,712.9	59.5929	11,712.9	53.0147	11,712.9	56.6562	11,712.9	52.8858	11,712.9	51.866	11,712.9	51.0384	11,712.9	53.4869	11,712.9	35.7197	11,712.9	57.7543	11,712.9	35.0565	11,712.9	58.2441	11,712.9	15.7924	11,712.9	54.206	11,712.9	39.7504	11,712.9	49.7628	11,712.9	44.0056	11,712.9	42.8777
12,126	85.5118	12,126	85.1612	12,126	84.6961	12,126	84.428	12,126	82.4359	12,126	80.6126	12,126	80.3149	12,126	78.9198	12,126	78.1311	12,126	75.7524	12,126	74.4264	12,126	73.8278	12,126	72.7644	12,126	69.7094	12,126	69.9992	12,126	65.7172	12,126	63.2752	12,126	62.4146	12,126	49.1985	12,126	57.9029	12,126	48.3312	12,126	55.668	12,126	51.0916	12,126	49.7019	12,126	48.4506	12,126	53.6247	12,126	44.5543	12,126	56.3697	12,126	41.4482	12,126	57.216	12,126	35.6649	12,126	51.1905	12,126	33.0435	12,126	45.3189	12,126	39.8049	12,126	37.5383
12,553.7	85.1173	12,553.7	84.9197	12,553.7	84.2425	12,553.7	84.2923	12,553.7	82.1414	12,553.7	80.5225	12,553.7	80.626	12,553.7	78.9491	12,553.7	77.6113	12,553.7	75.42	12,553.7	74.4524	12,553.7	73.8923	12,553.7	68.8584	12,553.7	69.8894	12,553.7	69.0609	12,553.7	65.6546	12,553.7	62.8502	12,553.7	61.5245	12,553.7	48.5466	12,553.7	58.8026	12,553.7	41.9649	12,553.7	54.041	12,553.7	49.4918	12,553.7	50.2837	12,553.7	49.6245	12,553.7	53.61	12,553.7	43.2744	12,553.7	56.0756	12,553.7	38.3894	12,553.7	56.8537	12,553.7	41.4339	12,553.7	50.3585	12,553.7	34.7892	12,553.7	43.9091	12,553.7	38.5735	12,553.7	40.5388
12,996.1	85.0464	12,996.1	84.7425	12,996.1	84.1369	12,996.1	84.0742	12,996.1	82.1513	12,996.1	80.4107	12,996.1	80.6275	12,996.1	78.9093	12,996.1	77.0038	12,996.1	75.4302	12,996.1	75.3947	12,996.1	73.6062	12,996.1	70.3174	12,996.1	68.8781	12,996.1	67.6354	12,996.1	64.8817	12,996.1	59.4693	12,996.1	60.7253	12,996.1	50.4258	12,996.1	57.0984	12,996.1	47.274	12,996.1	54.1682	12,996.1	50.8907	12,996.1	48.3365	12,996.1	51.0958	12,996.1	51.9884	12,996.1	38.7008	12,996.1	55.2724	12,996.1	36.352	12,996.1	56.7251	12,996.1	37.5613	12,996.1	50.6876	12,996.1	36.5052	12,996.1	46.8424	12,996.1	35.8952	12,996.1	43.5487
13,454.6	85.2686	13,454.6	84.9287	13,454.6	84.2841	13,454.6	83.9242	13,454.6	82.306	13,454.6	80.2866	13,454.6	80.3872	13,454.6	78.6897	13,454.6	77.25	13,454.6	74.8979	13,454.6	74.4259	13,454.6	72.4899	13,454.6	69.1972	13,454.6	67.9239	13,454.6	66.3513	13,454.6	63.8801	13,454.6	61.9464	13,454.6	59.728	13,454.6	44.9237	13,454.6	56.3856	13,454.6	45.2999	13,454.6	52.3458	13,454.6	55.9798	13,454.6	45.6576	13,454.6	52.001	13,454.6	52.4291	13,454.6	35.6832	13,454.6	54.2836	13,454.6	43.599	13,454.6	55.5993	13,454.6	39.0399	13,454.6	49.3972	13,454.6	40.3373	13,454.6	47.1928	13,454.6	40.294	13,454.6	39.6108
13,929.2	85.3257	13,929.2	84.937	13,929.2	84.4776	13,929.2	83.8263	13,929.2	82.9746	13,929.2	80.063	13,929.2	80.5841	13,929.2	78.7762	13,929.2	77.8048	13,929.2	74.3388	13,929.2	74.2916	13,929.2	71.662	13,929.2	68.6975	13,929.2	67.0873	13,929.2	68.187	13,929.2	63.0713	13,929.2	56.4565	13,929.2	57.9025	13,929.2	52.3126	13,929.2	55.3612	13,929.2	50.2111	13,929.2	50.4008	13,929.2	59.232	13,929.2	46.9036	13,929.2	51.7161	13,929.2	52.2736	13,929.2	35.6355	13,929.2	53.6934	13,929.2	46.299	13,929.2	55.0676	13,929.2	43.4138	13,929.2	46.2232	13,929.2	44.3975	13,929.2	47.1595	13,929.2	44.6476	13,929.2	37.2492
14,419.9	84.8528	14,419.9	84.5782	14,419.9	83.9569	14,419.9	83.8632	14,419.9	83.2095	14,419.9	79.7559	14,419.9	80.5205	14,419.9	78.8999	14,419.9	77.6635	14,419.9	74.1139	14,419.9	73.7517	14,419.9	71.2406	14,419.9	67.2025	14,419.9	66.4592	14,419.9	65.6671	14,419.9	62.3046	14,419.9	60.1851	14,419.9	57.1194	14,419.9	50.6255	14,419.9	54.6396	14,419.9	50.8965	14,419.9	48.9517	14,419.9	59.1095	14,419.9	45.9983	14,419.9	51.8497	14,419.9	52.3164	14,419.9	26.0249	14,419.9	53.121	14,419.9	41.8156	14,419.9	54.3232	14,419.9	42.7594	14,419.9	47.0914	14,419.9	44.9719	14,419.9	48.2301	14,419.9	46.8744	14,419.9	39.3503
14,928.2	84.1187	14,928.2	83.8292	14,928.2	83.2879	14,928.2	83.7876	14,928.2	83.2179	14,928.2	80.4971	14,928.2	80.8834	14,928.2	79.1263	14,928.2	77.7628	14,928.2	73.8367	14,928.2	72.3135	14,928.2	70.9023	14,928.2	69.1696	14,928.2	65.3392	14,928.2	65.7976	14,928.2	61.4674	14,928.2	60.87	14,928.2	56.2331	14,928.2	52.1155	14,928.2	53.8273	14,928.2	52.9016	14,928.2	46.8745	14,928.2	61.3441	14,928.2	45.5177	14,928.2	51.8618	14,928.2	51.2229	14,928.2	26.3728	14,928.2	52.9416	14,928.2	41.2956	14,928.2	53.7098	14,928.2	40.6085	14,928.2	44.7091	14,928.2	44.9141	14,928.2	47.1219	14,928.2	49.1313	14,928.2	38.5197
15,455.6	86.6476	15,455.6	86.1858	15,455.6	86.0905	15,455.6	85.3092	15,455.6	85.0061	15,455.6	80.9748	15,455.6	81.8862	15,455.6	78.9072	15,455.6	77.9352	15,455.6	73.2705	15,455.6	72.5128	15,455.6	69.9678	15,455.6	69.6263	15,455.6	64.1968	15,455.6	65.6699	15,455.6	59.7175	15,455.6	56.857	15,455.6	53.7509	15,455.6	48.6491	15,455.6	52.5273	15,455.6	48.9558	15,455.6	43.9923	15,455.6	61.3317	15,455.6	42.8924	15,455.6	54.0439	15,455.6	50.835	15,455.6	33.3716	15,455.6	51.4337	15,455.6	37.131	15,455.6	53.0573	15,455.6	33.2165	15,455.6	45.4638	15,455.6	44.7793	15,455.6	48.1263	15,455.6	47.5086	15,455.6	42.6433
16,000.5	87.3438	16,000.5	86.8006	16,000.5	86.4153	16,000.5	85.0803	16,000.5	84.3274	16,000.5	80.4715	16,000.5	80.4432	16,000.5	78.69	16,000.5	75.9697	16,000.5	72.3943	16,000.5	68.804	16,000.5	68.3078	16,000.5	65.003	16,000.5	62.2388	16,000.5	60.2026	16,000.5	57.7128	16,000.5	54.6672	16,000.5	51.9942	16,000.5	45.3713	16,000.5	49.8261	16,000.5	49.1283	16,000.5	43.2498	16,000.5	61.0973	16,000.5	43.6847	16,000.5	52.1357	16,000.5	50.0648	16,000.5	38.1942	16,000.5	49.6359	16,000.5	40.6694	16,000.5	51.4883	16,000.5	36.7052	16,000.5	46.05	16,000.5	45.2603	16,000.5	47.4362	16,000.5	48.187	16,000.5	44.0834
16,564.5	86.6216	16,564.5	85.7084	16,564.5	85.6425	16,564.5	83.6755	16,564.5	83.39	16,564.5	79.4593	16,564.5	79.8978	16,564.5	77.5272	16,564.5	74.8136	16,564.5	70.3539	16,564.5	67.8516	16,564.5	65.588	16,564.5	61.7927	16,564.5	57.6561	16,564.5	54.3629	16,564.5	51.01	16,564.5	45.5448	16,564.5	43.137	16,564.5	48.6587	16,564.5	45.2623	16,564.5	47.5888	16,564.5	39.8117	16,564.5	60.0733	16,564.5	41.0446	16,564.5	49.0326	16,564.5	47.9121	16,564.5	34.0946	16,564.5	46.8951	16,564.5	39.4807	16,564.5	48.6837	16,564.5	31.1512	16,564.5	45.8329	16,564.5	43.9763	16,564.5	46.3099	16,564.5	46.8654	16,564.5	43.8959
17,148.9	86.1599	17,148.9	85.1581	17,148.9	85.3674	17,148.9	83.149	17,148.9	83.6026	17,148.9	78.9825	17,148.9	80.6542	17,148.9	76.3406	17,148.9	75.87	17,148.9	67.2635	17,148.9	67.2382	17,148.9	60.376	17,148.9	58.0521	17,148.9	45.9292	17,148.9	50.8854	17,148.9	24.9782	17,148.9	48.2015	17,148.9	44.8515	17,148.9	48.9584	17,148.9	17.4707	17,148.9	42.3151	17,148.9	44.1487	17,148.9	61.6257	17,148.9	35.6932	17,148.9	51.8228	17,148.9	42.4431	17,148.9	36.6262	17,148.9	40.3836	17,148.9	40.3328	17,148.9	41.8655	17,148.9	34.1379	17,148.9	43.3582	17,148.9	45.0292	17,148.9	40.9937	17,148.9	42.0807	17,148.9	42.3101
17,752.4	85.731	17,752.4	84.9676	17,752.4	85.2255	17,752.4	83.3482	17,752.4	83.9977	17,752.4	78.7236	17,752.4	80.8626	17,752.4	75.173	17,752.4	75.2641	17,752.4	61.7875	17,752.4	64.6775	17,752.4	54.3446	17,752.4	51.9276	17,752.4	55.4766	17,752.4	47.612	17,752.4	51.2705	17,752.4	47.9865	17,752.4	49.4396	17,752.4	48.8213	17,752.4	41.2991	17,752.4	48.3369	17,752.4	43.5544	17,752.4	64.6722	17,752.4	34.7127	17,752.4	53.7295	17,752.4	36.6444	17,752.4	35.6392	17,752.4	32.7829	17,752.4	43.2018	17,752.4	33.6534	17,752.4	35.2498	17,752.4	40.6737	17,752.4	47.6986	17,752.4	38.8518	17,752.4	44.829	17,752.4	39.0342
18,379.4	85.0091	18,379.4	84.6306	18,379.4	84.9062	18,379.4	83.6315	18,379.4	83.9937	18,379.4	78.3606	18,379.4	80.21	18,379.4	73.1455	18,379.4	72.5323	18,379.4	52.3039	18,379.4	59.4734	18,379.4	58.5953	18,379.4	54.6043	18,379.4	59.5677	18,379.4	53.3033	18,379.4	54.7346	18,379.4	42.1232	18,379.4	50.6153	18,379.4	53.7341	18,379.4	45.5415	18,379.4	53.0296	18,379.4	44.2314	18,379.4	66.1269	18,379.4	31.8598	18,379.4	53.6129	18,379.4	36.7552	18,379.4	36.4052	18,379.4	40.5429	18,379.4	42.9997	18,379.4	39.1606	18,379.4	26.5623	18,379.4	39.553	18,379.4	49.0482	18,379.4	39.3224	18,379.4	45.07	18,379.4	33.6021
19,026.9	84.1653	19,026.9	84.3521	19,026.9	84.3089	19,026.9	83.5652	19,026.9	83.3863	19,026.9	77.0183	19,026.9	78.9296	19,026.9	69.1638	19,026.9	68.1305	19,026.9	59.4868	19,026.9	57.7337	19,026.9	62.6966	19,026.9	61.7026	19,026.9	62.1965	19,026.9	57.6938	19,026.9	57.2628	19,026.9	51.1107	19,026.9	51.8333	19,026.9	53.6949	19,026.9	49.7148	19,026.9	55.9974	19,026.9	41.8509	19,026.9	67.3638	19,026.9	34.2707	19,026.9	53.9574	19,026.9	40.9648	19,026.9	42.0091	19,026.9	43.834	19,026.9	42.2379	19,026.9	43.0881	19,026.9	32.2869	19,026.9	37.9805	19,026.9	49.0212	19,026.9	39.2609	19,026.9	45.3193	19,026.9	30.5647
19,697.8	83.7656	19,697.8	84.3594	19,697.8	84.1228	19,697.8	83.5455	19,697.8	82.6425	19,697.8	75.3	19,697.8	77.0711	19,697.8	63.7864	19,697.8	60.4397	19,697.8	64.0594	19,697.8	64.8563	19,697.8	63.8969	19,697.8	66.6549	19,697.8	62.4499	19,697.8	60.0253	19,697.8	57.7026	19,697.8	53.7241	19,697.8	51.1323	19,697.8	52.7556	19,697.8	49.6967	19,697.8	56.6849	19,697.8	34.9075	19,697.8	67.8076	19,697.8	38.2294	19,697.8	53.2439	19,697.8	41.7142	19,697.8	40.4647	19,697.8	44.6167	19,697.8	39.0447	19,697.8	43.2194	19,697.8	40.7666	19,697.8	37.8699	19,697.8	49.3542	19,697.8	34.2982	19,697.8	42.3388	19,697.8	32.0478
19,999.5	83.9195	19,999.5	84.417	19,999.5	83.9967	19,999.5	83.426	19,999.5	82.248	19,999.5	74.4453	19,999.5	75.9806	19,999.5	59.2726	19,999.5	45.9114	19,999.5	66.2496	19,999.5	66.6223	19,999.5	63.1946	19,999.5	67.0513	19,999.5	61.1519	19,999.5	63.5879	19,999.5	57.1444	19,999.5	54.025	19,999.5	53.1276	19,999.5	55.6091	19,999.5	48.7003	19,999.5	58.4194	19,999.5	33.6133	19,999.5	66.9492	19,999.5	43.5142	19,999.5	53.1637	19,999.5	48.1409	19,999.5	36.7281	19,999.5	48.3559	19,999.5	35.1397	19,999.5	38.2605	19,999.5	38.4312	19,999.5	40.0457	19,999.5	50.8595	19,999.5	44.043	19,999.5	48.7994	19,999.5	41.7493
