"SPL Horizontal"
"On-Axis"		"10°"		"-10°"		"20°"		"-20°"		"30°"		"-30°"		"40°"		"-40°"		"50°"		"-50°"		"60°"		"-60°"		"70°"		"-70°"		"80°"		"-80°"		"90°"		"-90°"		"100°"		"-100°"		"110°"		"-110°"		"120°"		"-120°"		"130°"		"-130°"		"140°"		"-140°"		"150°"		"-150°"		"160°"		"-160°"		"170°"		"-170°"		"180°"
"Frequency [Hz]"	"Sound Pessure Level [dB]  / [2.83V 1m] "	"Frequency [Hz]"	"Sound Pessure Level [dB]  / [2.83V 1m] "	"Frequency [Hz]"	"Sound Pessure Level [dB]  / [2.83V 1m] "	"Frequency [Hz]"	"Sound Pessure Level [dB]  / [2.83V 1m] "	"Frequency [Hz]"	"Sound Pessure Level [dB]  / [2.83V 1m] "	"Frequency [Hz]"	"Sound Pessure Level [dB]  / [2.83V 1m] "	"Frequency [Hz]"	"Sound Pessure Level [dB]  / [2.83V 1m] "	"Frequency [Hz]"	"Sound Pessure Level [dB]  / [2.83V 1m] "	"Frequency [Hz]"	"Sound Pessure Level [dB]  / [2.83V 1m] "	"Frequency [Hz]"	"Sound Pessure Level [dB]  / [2.83V 1m] "	"Frequency [Hz]"	"Sound Pessure Level [dB]  / [2.83V 1m] "	"Frequency [Hz]"	"Sound Pessure Level [dB]  / [2.83V 1m] "	"Frequency [Hz]"	"Sound Pessure Level [dB]  / [2.83V 1m] "	"Frequency [Hz]"	"Sound Pessure Level [dB]  / [2.83V 1m] "	"Frequency [Hz]"	"Sound Pessure Level [dB]  / [2.83V 1m] "	"Frequency [Hz]"	"Sound Pessure Level [dB]  / [2.83V 1m] "	"Frequency [Hz]"	"Sound Pessure Level [dB]  / [2.83V 1m] "	"Frequency [Hz]"	"Sound Pessure Level [dB]  / [2.83V 1m] "	"Frequency [Hz]"	"Sound Pessure Level [dB]  / [2.83V 1m] "	"Frequency [Hz]"	"Sound Pessure Level [dB]  / [2.83V 1m] "	"Frequency [Hz]"	"Sound Pessure Level [dB]  / [2.83V 1m] "	"Frequency [Hz]"	"Sound Pessure Level [dB]  / [2.83V 1m] "	"Frequency [Hz]"	"Sound Pessure Level [dB]  / [2.83V 1m] "	"Frequency [Hz]"	"Sound Pessure Level [dB]  / [2.83V 1m] "	"Frequency [Hz]"	"Sound Pessure Level [dB]  / [2.83V 1m] "	"Frequency [Hz]"	"Sound Pessure Level [dB]  / [2.83V 1m] "	"Frequency [Hz]"	"Sound Pessure Level [dB]  / [2.83V 1m] "	"Frequency [Hz]"	"Sound Pessure Level [dB]  / [2.83V 1m] "	"Frequency [Hz]"	"Sound Pessure Level [dB]  / [2.83V 1m] "	"Frequency [Hz]"	"Sound Pessure Level [dB]  / [2.83V 1m] "	"Frequency [Hz]"	"Sound Pessure Level [dB]  / [2.83V 1m] "	"Frequency [Hz]"	"Sound Pessure Level [dB]  / [2.83V 1m] "	"Frequency [Hz]"	"Sound Pessure Level [dB]  / [2.83V 1m] "	"Frequency [Hz]"	"Sound Pessure Level [dB]  / [2.83V 1m] "	"Frequency [Hz]"	"Sound Pessure Level [dB]  / [2.83V 1m] "	"Frequency [Hz]"	"Sound Pessure Level [dB]  / [2.83V 1m] "
20.5078	68.8822	20.5078	68.8701	20.5078	68.8855	20.5078	68.8493	20.5078	68.8795	20.5078	68.8199	20.5078	68.8639	20.5078	68.7814	20.5078	68.8381	20.5078	68.7335	20.5078	68.8014	20.5078	68.6757	20.5078	68.7533	20.5078	68.6083	20.5078	68.6938	20.5078	68.5327	20.5078	68.6236	20.5078	68.4514	20.5078	68.5446	20.5078	68.3679	20.5078	68.4598	20.5078	68.2861	20.5078	68.373	20.5078	68.2098	20.5078	68.2883	20.5078	68.1419	20.5078	68.2095	20.5078	68.0848	20.5078	68.1399	20.5078	68.0401	20.5078	68.0819	20.5078	68.0092	20.5078	68.0372	20.5078	67.993	20.5078	68.0071	20.5078	67.9923
21.9727	69.8662	21.9727	69.8498	21.9727	69.8727	21.9727	69.8235	21.9727	69.869	21.9727	69.787	21.9727	69.8543	21.9727	69.7396	21.9727	69.8277	21.9727	69.6805	21.9727	69.788	21.9727	69.6094	21.9727	69.7344	21.9727	69.5262	21.9727	69.6661	21.9727	69.4323	21.9727	69.5833	21.9727	69.3304	21.9727	69.4874	21.9727	69.2241	21.9727	69.3811	21.9727	69.1183	21.9727	69.2682	21.9727	69.0175	21.9727	69.154	21.9727	68.9262	21.9727	69.0438	21.9727	68.8481	21.9727	68.9433	21.9727	68.7862	21.9727	68.8575	21.9727	68.7431	21.9727	68.7902	21.9727	68.7209	21.9727	68.7442	21.9727	68.721
23.4375	70.9311	23.4375	70.9292	23.4375	70.924	23.4375	70.9185	23.4375	70.9073	23.4375	70.8988	23.4375	70.88	23.4375	70.8695	23.4375	70.8413	23.4375	70.8296	23.4375	70.79	23.4375	70.7783	23.4375	70.7258	23.4375	70.7151	23.4375	70.6487	23.4375	70.6405	23.4375	70.5601	23.4375	70.5559	23.4375	70.4624	23.4375	70.464	23.4375	70.3593	23.4375	70.3678	23.4375	70.2553	23.4375	70.2713	23.4375	70.1556	23.4375	70.1782	23.4375	70.0653	23.4375	70.0921	23.4375	69.989	23.4375	70.0165	23.4375	69.9306	23.4375	69.9544	23.4375	69.8926	23.4375	69.9088	23.4375	69.8764	23.4375	69.8821
24.9023	71.5888	24.9023	71.586	24.9023	71.5809	24.9023	71.5722	24.9023	71.5621	24.9023	71.5466	24.9023	71.5322	24.9023	71.5085	24.9023	71.4903	24.9023	71.4569	24.9023	71.4358	24.9023	71.3915	24.9023	71.3683	24.9023	71.3127	24.9023	71.2881	24.9023	71.2219	24.9023	71.1963	24.9023	71.1217	24.9023	71.0953	24.9023	71.0155	24.9023	70.9885	24.9023	70.9074	24.9023	70.8802	24.9023	70.8018	24.9023	70.7749	24.9023	70.7032	24.9023	70.6774	24.9023	70.6154	24.9023	70.5921	24.9023	70.5421	24.9023	70.5228	24.9023	70.4863	24.9023	70.4724	24.9023	70.4502	24.9023	70.4429	24.9023	70.4355
26.3672	72.0357	26.3672	72.026	26.3672	72.037	26.3672	72.0081	26.3672	72.0295	26.3672	71.9813	26.3672	72.0121	26.3672	71.9449	26.3672	71.9836	26.3672	71.8976	26.3672	71.9426	26.3672	71.8384	26.3672	71.8881	26.3672	71.7671	26.3672	71.8199	26.3672	71.6844	26.3672	71.7385	26.3672	71.592	26.3672	71.6459	26.3672	71.4932	26.3672	71.545	26.3672	71.3917	26.3672	71.4399	26.3672	71.2921	26.3672	71.3352	26.3672	71.1989	26.3672	71.2358	26.3672	71.1164	26.3672	71.1463	26.3672	71.0485	26.3672	71.071	26.3672	70.9986	26.3672	71.0136	26.3672	70.9691	26.3672	70.9765	26.3672	70.9615
27.832	73.2659	27.832	73.2612	27.832	73.2581	27.832	73.244	27.832	73.2381	27.832	73.2138	27.832	73.2053	27.832	73.1698	27.832	73.1595	27.832	73.1117	27.832	73.1001	27.832	73.0391	27.832	73.027	27.832	72.9526	27.832	72.9406	27.832	72.8538	27.832	72.8422	27.832	72.745	27.832	72.7341	27.832	72.6301	27.832	72.6198	27.832	72.5134	27.832	72.5033	27.832	72.3995	27.832	72.3896	27.832	72.2932	27.832	72.2834	27.832	72.1987	27.832	72.1894	27.832	72.12	27.832	72.1119	27.832	72.0605	27.832	72.0544	27.832	72.0228	27.832	72.0195	27.832	72.0089
29.2969	73.7948	29.2969	73.7895	29.2969	73.7869	29.2969	73.7707	29.2969	73.7658	29.2969	73.738	29.2969	73.7313	29.2969	73.6908	29.2969	73.6831	29.2969	73.629	29.2969	73.6207	29.2969	73.5526	29.2969	73.544	29.2969	73.4626	29.2969	73.4534	29.2969	73.3607	29.2969	73.3502	29.2969	73.2498	29.2969	73.2371	29.2969	73.1335	29.2969	73.1177	29.2969	73.016	29.2969	72.9967	29.2969	72.9019	29.2969	72.8792	29.2969	72.7953	29.2969	72.7701	29.2969	72.7003	29.2969	72.6746	29.2969	72.6205	29.2969	72.597	29.2969	72.5589	29.2969	72.5408	29.2969	72.5184	29.2969	72.5085	29.2969	72.5012
30.7617	74.5494	30.7617	74.5439	30.7617	74.5402	30.7617	74.5236	30.7617	74.5164	30.7617	74.4881	30.7617	74.4779	30.7617	74.4372	30.7617	74.4243	30.7617	74.3708	30.7617	74.3554	30.7617	74.2894	30.7617	74.2713	30.7617	74.194	30.7617	74.1728	30.7617	74.0867	30.7617	74.0618	30.7617	73.9706	30.7617	73.9414	30.7617	73.8492	30.7617	73.8161	30.7617	73.7272	30.7617	73.691	30.7617	73.6092	30.7617	73.5715	30.7617	73.5	30.7617	73.4629	30.7617	73.4037	30.7617	73.3696	30.7617	73.3241	30.7617	73.2953	30.7617	73.2635	30.7617	73.2425	30.7617	73.224	30.7617	73.2129	30.7617	73.2068
32.2266	75.1796	32.2266	75.1709	32.2266	75.1745	32.2266	75.1485	32.2266	75.1553	32.2266	75.1122	32.2266	75.1216	32.2266	75.0615	32.2266	75.0727	32.2266	74.9963	32.2266	75.0084	32.2266	74.9169	32.2266	74.9288	32.2266	74.8244	32.2266	74.8352	32.2266	74.7207	32.2266	74.7299	32.2266	74.6092	32.2266	74.6162	32.2266	74.4938	32.2266	74.4985	32.2266	74.3791	32.2266	74.3818	32.2266	74.27	32.2266	74.2708	32.2266	74.1707	32.2266	74.1698	32.2266	74.0849	32.2266	74.0826	32.2266	74.0154	32.2266	74.0122	32.2266	73.964	32.2266	73.9609	32.2266	73.9321	32.2266	73.9302	32.2266	73.9206
33.6914	75.5818	33.6914	75.5765	33.6914	75.5741	33.6914	75.5579	33.6914	75.5533	33.6914	75.5259	33.6914	75.5191	33.6914	75.4801	33.6914	75.4711	33.6914	75.4202	33.6914	75.4088	33.6914	75.3465	33.6914	75.3324	33.6914	75.2601	33.6914	75.2425	33.6914	75.1627	33.6914	75.1411	33.6914	75.0571	33.6914	75.0312	33.6914	74.9473	33.6914	74.9169	33.6914	74.8373	33.6914	74.8032	33.6914	74.7318	33.6914	74.6951	33.6914	74.635	33.6914	74.5975	33.6914	74.5503	33.6914	74.5144	33.6914	74.4804	33.6914	74.4492	33.6914	74.4271	33.6914	74.4037	33.6914	74.3917	33.6914	74.3792	33.6914	74.3754
35.1562	76.1863	35.1562	76.1842	35.1562	76.173	35.1562	76.1667	35.1562	76.1442	35.1562	76.1335	35.1562	76.0999	35.1562	76.0844	35.1562	76.0396	35.1562	76.0195	35.1562	75.9633	35.1562	75.9391	35.1562	75.8715	35.1562	75.8444	35.1562	75.765	35.1562	75.7373	35.1562	75.646	35.1562	75.6206	35.1562	75.5178	35.1562	75.4981	35.1562	75.3849	35.1562	75.3736	35.1562	75.2529	35.1562	75.2517	35.1562	75.1276	35.1562	75.1365	35.1562	75.015	35.1562	75.032	35.1562	74.9205	35.1562	74.9416	35.1562	74.8482	35.1562	74.8686	35.1562	74.801	35.1562	74.8157	35.1562	74.7802	35.1562	74.7856
36.6211	76.8056	36.6211	76.7971	36.6211	76.7978	36.6211	76.7723	36.6211	76.7735	36.6211	76.7311	36.6211	76.7328	36.6211	76.6735	36.6211	76.6754	36.6211	76.5998	36.6211	76.6014	36.6211	76.511	36.6211	76.511	36.6211	76.4087	36.6211	76.4055	36.6211	76.2953	36.6211	76.2871	36.6211	76.1741	36.6211	76.159	36.6211	76.0491	36.6211	76.0258	36.6211	75.9246	36.6211	75.8928	36.6211	75.8048	36.6211	75.7656	36.6211	75.694	36.6211	75.6501	36.6211	75.5958	36.6211	75.5512	36.6211	75.5135	36.6211	75.4733	36.6211	75.4496	36.6211	75.419	36.6211	75.4064	36.6211	75.3899	36.6211	75.386
38.0859	77.4449	38.0859	77.4364	38.0859	77.4361	38.0859	77.4109	38.0859	77.4101	38.0859	77.3684	38.0859	77.3666	38.0859	77.3089	38.0859	77.3056	38.0859	77.2328	38.0859	77.2271	38.0859	77.141	38.0859	77.1315	38.0859	77.035	38.0859	77.0199	38.0859	76.917	38.0859	76.8944	38.0859	76.7903	38.0859	76.7583	38.0859	76.6587	38.0859	76.6161	38.0859	76.5264	38.0859	76.4732	38.0859	76.3978	38.0859	76.336	38.0859	76.2774	38.0859	76.2107	38.0859	76.1693	38.0859	76.1034	38.0859	76.0773	38.0859	76.019	38.0859	76.0047	38.0859	75.9609	38.0859	75.9545	38.0859	75.931	38.0859	75.9292
39.5508	78.0103	39.5508	78.0083	39.5508	77.9955	39.5508	77.9895	39.5508	77.9636	39.5508	77.9538	39.5508	77.9148	39.5508	77.9014	39.5508	77.8491	39.5508	77.8327	39.5508	77.7669	39.5508	77.7484	39.5508	77.6689	39.5508	77.6501	39.5508	77.5567	39.5508	77.5402	39.5508	77.4325	39.5508	77.4215	39.5508	77.2998	39.5508	77.2978	39.5508	77.163	39.5508	77.1726	39.5508	77.0274	39.5508	77.0499	39.5508	76.8991	39.5508	76.9334	39.5508	76.7842	39.5508	76.8268	39.5508	76.6883	39.5508	76.7333	39.5508	76.6163	39.5508	76.6563	39.5508	76.571	39.5508	76.5987	39.5508	76.5537	39.5508	76.5637
41.0156	78.8438	41.0156	78.8214	41.0156	78.8524	41.0156	78.7856	41.0156	78.8466	41.0156	78.737	41.0156	78.826	41.0156	78.6763	41.0156	78.7899	41.0156	78.6047	41.0156	78.7382	41.0156	78.5241	41.0156	78.6707	41.0156	78.4369	41.0156	78.5879	41.0156	78.346	41.0156	78.4914	41.0156	78.2546	41.0156	78.3836	41.0156	78.1655	41.0156	78.2688	41.0156	78.0811	41.0156	78.1524	41.0156	78.0029	41.0156	78.0404	41.0156	77.9319	41.0156	77.9392	41.0156	77.8688	41.0156	77.8539	41.0156	77.8144	41.0156	77.7885	41.0156	77.7702	41.0156	77.7448	41.0156	77.7384	41.0156	77.723	41.0156	77.7217
42.4805	78.9978	42.4805	78.9915	42.4805	78.9877	42.4805	78.9686	42.4805	78.9615	42.4805	78.929	42.4805	78.9194	42.4805	78.873	42.4805	78.8622	42.4805	78.8015	42.4805	78.7907	42.4805	78.716	42.4805	78.7065	42.4805	78.6192	42.4805	78.6119	42.4805	78.5144	42.4805	78.5098	42.4805	78.406	42.4805	78.4037	42.4805	78.2985	42.4805	78.2976	42.4805	78.1965	42.4805	78.1954	42.4805	78.1034	42.4805	78.1008	42.4805	78.0218	42.4805	78.0168	42.4805	77.9529	42.4805	77.9459	42.4805	77.8976	42.4805	77.8898	42.4805	77.8565	42.4805	77.8497	42.4805	77.8303	42.4805	77.8263	42.4805	77.82
43.9453	79.4818	43.9453	79.4746	43.9453	79.471	43.9453	79.4495	43.9453	79.4426	43.9453	79.4067	43.9453	79.397	43.9453	79.3466	43.9453	79.335	43.9453	79.2702	43.9453	79.258	43.9453	79.1792	43.9453	79.1682	43.9453	79.076	43.9453	79.0681	43.9453	78.964	43.9453	78.961	43.9453	78.8472	43.9453	78.8506	43.9453	78.7302	43.9453	78.7406	43.9453	78.6175	43.9453	78.6346	43.9453	78.5135	43.9453	78.536	43.9453	78.4215	43.9453	78.4475	43.9453	78.3443	43.9453	78.3712	43.9453	78.284	43.9453	78.3085	43.9453	78.2418	43.9453	78.2606	43.9453	78.2187	43.9453	78.2289	43.9453	78.2146
45.4102	79.9806	45.4102	79.9705	45.4102	79.9722	45.4102	79.9421	45.4102	79.9455	45.4102	79.8958	45.4102	79.901	45.4102	79.8323	45.4102	79.8394	45.4102	79.7529	45.4102	79.7619	45.4102	79.6595	45.4102	79.6704	45.4102	79.5547	45.4102	79.5676	45.4102	79.4419	45.4102	79.4566	45.4102	79.3252	45.4102	79.3416	45.4102	79.2087	45.4102	79.2268	45.4102	79.0968	45.4102	79.1165	45.4102	78.9933	45.4102	79.0145	45.4102	78.9014	45.4102	78.9236	45.4102	78.8238	45.4102	78.8459	45.4102	78.7626	45.4102	78.7826	45.4102	78.7194	45.4102	78.7349	45.4102	78.6952	45.4102	78.7037	45.4102	78.6902
46.875	80.4238	46.875	80.4117	46.875	80.4172	46.875	80.3813	46.875	80.3922	46.875	80.3332	46.875	80.3492	46.875	80.2683	46.875	80.2892	46.875	80.1885	46.875	80.2136	46.875	80.0959	46.875	80.1243	46.875	79.9939	46.875	80.0243	46.875	79.8859	46.875	79.9168	46.875	79.7761	46.875	79.8059	46.875	79.6687	46.875	79.696	46.875	79.5674	46.875	79.591	46.875	79.4753	46.875	79.4948	46.875	79.3948	46.875	79.4101	46.875	79.3274	46.875	79.3389	46.875	79.2743	46.875	79.2825	46.875	79.2362	46.875	79.2414	46.875	79.2136	46.875	79.2162	46.875	79.2069
48.3398	80.8555	48.3398	80.8442	48.3398	80.8478	48.3398	80.8139	48.3398	80.8211	48.3398	80.7655	48.3398	80.7763	48.3398	80.7001	48.3398	80.7144	48.3398	80.6196	48.3398	80.6372	48.3398	80.5266	48.3398	80.5468	48.3398	80.4242	48.3398	80.4465	48.3398	80.3164	48.3398	80.3398	48.3398	80.2073	48.3398	80.2309	48.3398	80.101	48.3398	80.1238	48.3398	80.0014	48.3398	80.0224	48.3398	79.9113	48.3398	79.9299	48.3398	79.8329	48.3398	79.8488	48.3398	79.7676	48.3398	79.7805	48.3398	79.7164	48.3398	79.7262	48.3398	79.6799	48.3398	79.6865	48.3398	79.6584	48.3398	79.6618	48.3398	79.6524
51.2695	81.754	51.2695	81.7478	51.2695	81.738	51.2695	81.7195	51.2695	81.7002	51.2695	81.6698	51.2695	81.6416	51.2695	81.6	51.2695	81.564	51.2695	81.5126	51.2695	81.4695	51.2695	81.4104	51.2695	81.3613	51.2695	81.2976	51.2695	81.2433	51.2695	81.1787	51.2695	81.12	51.2695	81.0587	51.2695	80.9964	51.2695	80.9426	51.2695	80.8778	51.2695	80.8346	51.2695	80.7687	51.2695	80.7378	51.2695	80.673	51.2695	80.654	51.2695	80.593	51.2695	80.5841	51.2695	80.5301	51.2695	80.528	51.2695	80.4842	51.2695	80.4857	51.2695	80.4548	51.2695	80.457	51.2695	80.441	51.2695	80.4419
52.7344	82.1748	52.7344	82.1673	52.7344	82.1595	52.7344	82.1371	52.7344	82.1218	52.7344	82.085	52.7344	82.063	52.7344	82.0125	52.7344	81.985	52.7344	81.9223	52.7344	81.8904	52.7344	81.8175	52.7344	81.7824	52.7344	81.7022	52.7344	81.6651	52.7344	81.5814	52.7344	81.543	52.7344	81.4599	52.7344	81.4211	52.7344	81.3426	52.7344	81.304	52.7344	81.2335	52.7344	81.1959	52.7344	81.1357	52.7344	81.1003	52.7344	81.0512	52.7344	81.0192	52.7344	80.9809	52.7344	80.9538	52.7344	80.9253	52.7344	80.9042	52.7344	80.8845	52.7344	80.8701	52.7344	80.8586	52.7344	80.8513	52.7344	80.8475
54.1992	82.4894	54.1992	82.4758	54.1992	82.48	54.1992	82.4397	54.1992	82.4477	54.1992	82.3826	54.1992	82.3936	54.1992	82.3066	54.1992	82.3195	54.1992	82.2148	54.1992	82.2281	54.1992	82.1111	54.1992	82.1232	54.1992	81.9998	54.1992	82.0091	54.1992	81.8859	54.1992	81.8909	54.1992	81.7744	54.1992	81.774	54.1992	81.6697	54.1992	81.6636	54.1992	81.5752	54.1992	81.5639	54.1992	81.493	54.1992	81.4782	54.1992	81.4243	54.1992	81.408	54.1992	81.3691	54.1992	81.3536	54.1992	81.3268	54.1992	81.3139	54.1992	81.2967	54.1992	81.2877	54.1992	81.2781	54.1992	81.2735	54.1992	81.2704
55.6641	82.8596	55.6641	82.8444	55.6641	82.8514	55.6641	82.8063	55.6641	82.8199	55.6641	82.7468	55.6641	82.7661	55.6641	82.6683	55.6641	82.692	55.6641	82.574	55.6641	82.6004	55.6641	82.4681	55.6641	82.495	55.6641	82.3554	55.6641	82.3803	55.6641	82.2411	55.6641	82.2615	55.6641	82.1305	55.6641	82.1443	55.6641	82.0282	55.6641	82.034	55.6641	81.9379	55.6641	81.9354	55.6641	81.8615	55.6641	81.8518	55.6641	81.7997	55.6641	81.785	55.6641	81.7517	55.6641	81.735	55.6641	81.7161	55.6641	81.7005	55.6641	81.6913	55.6641	81.6794	55.6641	81.6757	55.6641	81.6693	55.6641	81.6684
58.5938	83.5556	58.5938	83.539	58.5938	83.5462	58.5938	83.4969	58.5938	83.5112	58.5938	83.4309	58.5938	83.452	58.5938	83.3437	58.5938	83.3708	58.5938	83.2388	58.5938	83.271	58.5938	83.1207	58.5938	83.1565	58.5938	82.9948	58.5938	83.0323	58.5938	82.8668	58.5938	82.9035	58.5938	82.7423	58.5938	82.7757	58.5938	82.6262	58.5938	82.654	58.5938	82.5221	58.5938	82.5429	58.5938	82.4324	58.5938	82.4456	58.5938	82.3579	58.5938	82.3641	58.5938	82.2983	58.5938	82.299	58.5938	82.2527	58.5938	82.2502	58.5938	82.2203	58.5938	82.2169	58.5938	82.2004	58.5938	82.1982	58.5938	82.1929
60.0586	83.9261	60.0586	83.9115	60.0586	83.9139	60.0586	83.8708	60.0586	83.8755	60.0586	83.8056	60.0586	83.8126	60.0586	83.7189	60.0586	83.728	60.0586	83.6146	60.0586	83.6255	60.0586	83.4978	60.0586	83.5098	60.0586	83.3743	60.0586	83.3866	60.0586	83.2502	60.0586	83.2616	60.0586	83.1313	60.0586	83.1406	60.0586	83.0224	60.0586	83.0287	60.0586	82.927	60.0586	82.9297	60.0586	82.8466	60.0586	82.846	60.0586	82.7813	60.0586	82.7782	60.0586	82.7304	60.0586	82.7258	60.0586	82.6924	60.0586	82.6876	60.0586	82.666	60.0586	82.6621	60.0586	82.6501	60.0586	82.6479	60.0586	82.644
62.9883	84.5865	62.9883	84.5675	62.9883	84.5764	62.9883	84.5202	62.9883	84.5377	62.9883	84.4466	62.9883	84.4722	62.9883	84.3501	62.9883	84.383	62.9883	84.2354	62.9883	84.2743	62.9883	84.1081	62.9883	84.1514	62.9883	83.9749	62.9883	84.0204	62.9883	83.8426	62.9883	83.8879	62.9883	83.7177	62.9883	83.7603	62.9883	83.6058	62.9883	83.6432	62.9883	83.5104	62.9883	83.541	62.9883	83.433	62.9883	83.4558	62.9883	83.3734	62.9883	83.3883	62.9883	83.3295	62.9883	83.3376	62.9883	83.2988	62.9883	83.3019	62.9883	83.2786	62.9883	83.2789	62.9883	83.2669	62.9883	83.2665	62.9883	83.2629
64.4531	84.9046	64.4531	84.8859	64.4531	84.8926	64.4531	84.8373	64.4531	84.8505	64.4531	84.761	64.4531	84.7804	64.4531	84.6607	64.4531	84.6857	64.4531	84.5412	64.4531	84.571	64.4531	84.4088	64.4531	84.4423	64.4531	84.2705	64.4531	84.3062	64.4531	84.1336	64.4531	84.1697	64.4531	84.005	64.4531	84.0396	64.4531	83.8903	64.4531	83.9217	64.4531	83.7932	64.4531	83.8201	64.4531	83.7152	64.4531	83.7369	64.4531	83.656	64.4531	83.672	64.4531	83.6133	64.4531	83.624	64.4531	83.5843	64.4531	83.5906	64.4531	83.566	64.4531	83.5691	64.4531	83.5561	64.4531	83.5572	64.4531	83.5532
67.3828	85.4702	67.3828	85.4487	67.3828	85.4591	67.3828	85.3957	67.3828	85.4163	67.3828	85.3136	67.3828	85.3439	67.3828	85.2066	67.3828	85.2457	67.3828	85.0802	67.3828	85.1267	67.3828	84.9414	67.3828	84.9934	67.3828	84.798	67.3828	84.8531	67.3828	84.6579	67.3828	84.7133	67.3828	84.5287	67.3828	84.5813	67.3828	84.4161	67.3828	84.4631	67.3828	84.3235	67.3828	84.3629	67.3828	84.2518	67.3828	84.2827	67.3828	84.1994	67.3828	84.2222	67.3828	84.1633	67.3828	84.1792	67.3828	84.14	67.3828	84.1505	67.3828	84.1264	67.3828	84.1327	67.3828	84.1198	67.3828	84.1227	67.3828	84.1187
68.8477	85.7282	68.8477	85.705	68.8477	85.7187	68.8477	85.65	68.8477	85.6769	68.8477	85.5662	68.8477	85.605	68.8477	85.4578	68.8477	85.5067	68.8477	85.3307	68.8477	85.3871	68.8477	85.1922	68.8477	85.2527	68.8477	85.0501	68.8477	85.111	68.8477	84.9128	68.8477	84.9697	68.8477	84.7876	68.8477	84.8363	68.8477	84.6798	68.8477	84.7173	68.8477	84.5926	68.8477	84.6172	68.8477	84.5259	68.8477	84.5383	68.8477	84.4779	68.8477	84.4804	68.8477	84.445	68.8477	84.4413	68.8477	84.4235	68.8477	84.4174	68.8477	84.4101	68.8477	84.4045	68.8477	84.4024	68.8477	84.3992	68.8477	84.3989
71.7773	86.3359	71.7773	86.3077	71.7773	86.3287	71.7773	86.2453	71.7773	86.2869	71.7773	86.1515	71.7773	86.2133	71.7773	86.0311	71.7773	86.1124	71.7773	85.8907	71.7773	85.9902	71.7773	85.7381	71.7773	85.8542	71.7773	85.5825	71.7773	85.7127	71.7773	85.433	71.7773	85.574	71.7773	85.2982	71.7773	85.4456	71.7773	85.1845	71.7773	85.3332	71.7773	85.0956	71.7773	85.24	71.7773	85.0321	71.7773	85.1667	71.7773	84.9917	71.7773	85.1117	71.7773	84.9702	71.7773	85.0717	71.7773	84.9631	71.7773	85.0426	71.7773	84.9658	71.7773	85.0207	71.7773	84.9748	71.7773	85.0029	71.7773	84.9876
74.707	86.9076	74.707	86.8825	74.707	86.8951	74.707	86.8207	74.707	86.8461	74.707	86.7255	74.707	86.7638	74.707	86.602	74.707	86.6535	74.707	86.457	74.707	86.5222	74.707	86.2993	74.707	86.3786	74.707	86.1385	74.707	86.232	74.707	85.9844	74.707	86.0915	74.707	85.8462	74.707	85.9652	74.707	85.7308	74.707	85.8586	74.707	85.6423	74.707	85.7744	74.707	85.5812	74.707	85.712	74.707	85.5453	74.707	85.6682	74.707	85.53	74.707	85.6384	74.707	85.5298	74.707	85.6176	74.707	85.5392	74.707	85.6012	74.707	85.5537	74.707	85.5858	74.707	85.5699
77.6367	87.3509	77.6367	87.3299	77.6367	87.3318	77.6367	87.2701	77.6367	87.2738	77.6367	87.1751	77.6367	87.1805	77.6367	87.0506	77.6367	87.0577	77.6367	86.9045	77.6367	86.9134	77.6367	86.7464	77.6367	86.7574	77.6367	86.5867	77.6367	86.6002	77.6367	86.4359	77.6367	86.4524	77.6367	86.3035	77.6367	86.3232	77.6367	86.1963	77.6367	86.219	77.6367	86.1176	77.6367	86.1426	77.6367	86.067	77.6367	86.093	77.6367	86.0409	77.6367	86.066	77.6367	86.0332	77.6367	86.0557	77.6367	86.0371	77.6367	86.0552	77.6367	86.0461	77.6367	86.0587	77.6367	86.055	77.6367	86.0615	77.6367	86.0605
79.1016	87.5534	79.1016	87.5321	79.1016	87.5331	79.1016	87.4704	79.1016	87.4721	79.1016	87.3721	79.1016	87.3742	79.1016	87.2434	79.1016	87.2455	79.1016	87.0926	79.1016	87.0943	79.1016	86.9298	79.1016	86.9309	79.1016	86.766	79.1016	86.7665	79.1016	86.6124	79.1016	86.6124	79.1016	86.4785	79.1016	86.4786	79.1016	86.3715	79.1016	86.372	79.1016	86.2947	79.1016	86.2957	79.1016	86.2471	79.1016	86.2486	79.1016	86.2246	79.1016	86.2263	79.1016	86.2204	79.1016	86.2219	79.1016	86.227	79.1016	86.228	79.1016	86.2372	79.1016	86.2378	79.1016	86.2457	79.1016	86.246	79.1016	86.249
82.0312	87.9578	82.0312	87.9345	82.0312	87.9365	82.0312	87.8685	82.0312	87.8718	82.0312	87.7638	82.0312	87.7674	82.0312	87.6273	82.0312	87.6295	82.0312	87.4678	82.0312	87.4669	82.0312	87.2962	82.0312	87.2903	82.0312	87.1241	82.0312	87.1117	82.0312	86.9634	82.0312	86.9435	82.0312	86.824	82.0312	86.7966	82.0312	86.7133	82.0312	86.6791	82.0312	86.6341	82.0312	86.5951	82.0312	86.5855	82.0312	86.5439	82.0312	86.5624	82.0312	86.5212	82.0312	86.5574	82.0312	86.5197	82.0312	86.5626	82.0312	86.5312	82.0312	86.5703	82.0312	86.5477	82.0312	86.5748	82.0312	86.563	82.0312	86.5726
84.9609	88.2612	84.9609	88.232	84.9609	88.2444	84.9609	88.1587	84.9609	88.1828	84.9609	88.0459	84.9609	88.0802	84.9609	87.9008	84.9609	87.9433	84.9609	87.7333	84.9609	87.7811	84.9609	87.5547	84.9609	87.6047	84.9609	87.3776	84.9609	87.426	84.9609	87.2139	84.9609	87.2572	84.9609	87.0736	84.9609	87.1088	84.9609	86.9636	84.9609	86.9884	84.9609	86.8861	84.9609	86.8998	84.9609	86.8392	84.9609	86.8424	84.9609	86.8176	84.9609	86.8123	84.9609	86.8135	84.9609	86.8029	84.9609	86.8192	84.9609	86.8067	84.9609	86.8274	84.9609	86.8167	84.9609	86.8329	84.9609	86.8267	84.9609	86.8328
87.8906	88.391	87.8906	88.3582	87.8906	88.3765	87.8906	88.2797	87.8906	88.3159	87.8906	88.1606	87.8906	88.214	87.8906	88.0089	87.8906	88.0785	87.8906	87.8354	87.8906	87.9199	87.8906	87.6532	87.8906	87.7505	87.8906	87.4762	87.8906	87.5839	87.8906	87.3182	87.8906	87.4332	87.8906	87.1905	87.8906	87.3089	87.8906	87.1003	87.8906	87.2177	87.8906	87.0495	87.8906	87.1612	87.8906	87.0347	87.8906	87.1362	87.8906	87.0481	87.8906	87.1356	87.8906	87.0797	87.8906	87.1505	87.8906	87.1188	87.8906	87.1716	87.8906	87.1561	87.8906	87.1908	87.8906	87.1846	87.8906	87.2017	87.8906	87.2002
90.8203	88.6782	90.8203	88.6523	90.8203	88.6509	90.8203	88.5749	90.8203	88.5722	90.8203	88.4513	90.8203	88.4473	90.8203	88.2901	90.8203	88.285	90.8203	88.1029	90.8203	88.0971	90.8203	87.904	90.8203	87.8981	90.8203	87.709	90.8203	87.7039	90.8203	87.5335	90.8203	87.53	90.8203	87.3905	90.8203	87.3895	90.8203	87.2888	90.8203	87.2907	90.8203	87.231	90.8203	87.2355	90.8203	87.2137	90.8203	87.2197	90.8203	87.2281	90.8203	87.2342	90.8203	87.2626	90.8203	87.2676	90.8203	87.3046	90.8203	87.3078	90.8203	87.3432	90.8203	87.3447	90.8203	87.3697	90.8203	87.3702	90.8203	87.3792
95.2148	88.9982	95.2148	88.9694	95.2148	88.9672	95.2148	88.8833	95.2148	88.878	95.2148	88.7457	95.2148	88.7358	95.2148	88.5662	95.2148	88.5494	95.2148	88.3575	95.2148	88.3316	95.2148	88.135	95.2148	88.0978	95.2148	87.9156	95.2148	87.8658	95.2148	87.7159	95.2148	87.6534	95.2148	87.5497	95.2148	87.4765	95.2148	87.4263	95.2148	87.3456	95.2148	87.3484	95.2148	87.2648	95.2148	87.3122	95.2148	87.2308	95.2148	87.3091	95.2148	87.2343	95.2148	87.3272	95.2148	87.2628	95.2148	87.3543	95.2148	87.3033	95.2148	87.3795	95.2148	87.3441	95.2148	87.3942	95.2148	87.3761	95.2148	87.3935
98.1445	89.0904	98.1445	89.058	98.1445	89.0601	98.1445	88.9654	98.1445	88.9684	98.1445	88.8192	98.1445	88.821	98.1445	88.6295	98.1445	88.6273	98.1445	88.41	98.1445	88.4006	98.1445	88.1772	98.1445	88.1573	98.1445	87.9491	98.1445	87.9156	98.1445	87.7432	98.1445	87.6943	98.1445	87.574	98.1445	87.5094	98.1445	87.4507	98.1445	87.3725	98.1445	87.3753	98.1445	87.288	98.1445	87.3431	98.1445	87.2529	98.1445	87.3439	98.1445	87.2576	98.1445	87.3651	98.1445	87.2889	98.1445	87.3938	98.1445	87.3329	98.1445	87.4192	98.1445	87.3769	98.1445	87.4333	98.1445	87.4117	98.1445	87.4312
101.074	89.0239	101.074	88.9835	101.074	88.9983	101.074	88.8799	101.074	88.9085	101.074	88.7199	101.074	88.7603	101.074	88.5147	101.074	88.5638	101.074	88.2791	101.074	88.3331	101.074	88.0311	101.074	88.0854	101.074	87.7906	101.074	87.84	101.074	87.5768	101.074	87.6162	101.074	87.4059	101.074	87.4312	101.074	87.2877	101.074	87.2965	101.074	87.2244	101.074	87.2166	101.074	87.2101	101.074	87.1884	101.074	87.2326	101.074	87.2018	101.074	87.2766	101.074	87.2428	101.074	87.3268	101.074	87.2958	101.074	87.3702	101.074	87.3468	101.074	87.3973	101.074	87.3847	101.074	87.4026
105.469	89.1931	105.469	89.1565	105.469	89.159	105.469	89.0507	105.469	89.0574	105.469	88.8818	105.469	88.8956	105.469	88.6602	105.469	88.6854	105.469	88.4011	105.469	88.4421	105.469	88.1233	105.469	88.184	105.469	87.8485	105.469	87.9309	105.469	87.5992	105.469	87.7024	105.469	87.3959	105.469	87.5151	105.469	87.2532	105.469	87.3799	105.469	87.1772	105.469	87.3006	105.469	87.1633	105.469	87.2732	105.469	87.1985	105.469	87.2875	105.469	87.264	105.469	87.329	105.469	87.3397	105.469	87.3821	105.469	87.4077	105.469	87.4317	105.469	87.4551	105.469	87.4656	105.469	87.4748
108.398	89.4402	108.398	89.4144	108.398	89.3908	108.398	89.3155	108.398	89.2689	108.398	89.1498	108.398	89.0821	108.398	88.928	108.398	88.8424	108.398	88.6651	108.398	88.5667	108.398	88.3793	108.398	88.2752	108.398	88.0913	108.398	87.9906	108.398	87.8224	108.398	87.7351	108.398	87.5923	108.398	87.5271	108.398	87.4156	108.398	87.3785	108.398	87.3003	108.398	87.2918	108.398	87.2453	108.398	87.2613	108.398	87.2418	108.398	87.274	108.398	87.2751	108.398	87.3135	108.398	87.3274	108.398	87.3631	108.398	87.3813	108.398	87.408	108.398	87.4227	108.398	87.4367	108.398	87.4423
112.793	89.5139	112.793	89.4839	112.793	89.4626	112.793	89.3757	112.793	89.3319	112.793	89.197	112.793	89.129	112.793	88.9606	112.793	88.8661	112.793	88.6834	112.793	88.5608	112.793	88.3863	112.793	88.2349	112.793	88.0921	112.793	87.9137	112.793	87.8235	112.793	87.6231	112.793	87.6002	112.793	87.3858	112.793	87.4349	112.793	87.2174	112.793	87.3322	112.793	87.1235	112.793	87.2873	112.793	87.098	112.793	87.2883	112.793	87.1264	112.793	87.3189	112.793	87.1887	112.793	87.3615	112.793	87.2646	112.793	87.4003	112.793	87.3363	112.793	87.4226	112.793	87.3909	112.793	87.4204
117.188	89.4875	117.188	89.4438	117.188	89.4466	117.188	89.3187	117.188	89.3227	117.188	89.1207	117.188	89.1233	117.188	88.8636	117.188	88.8607	117.188	88.566	117.188	88.553	117.188	88.2511	117.188	88.223	117.188	87.9446	117.188	87.8971	117.188	87.6723	117.188	87.6031	117.188	87.4561	117.188	87.3658	117.188	87.3101	117.188	87.2026	117.188	87.2375	117.188	87.1194	117.188	87.2304	117.188	87.1102	117.188	87.2723	117.188	87.1584	117.188	87.3421	117.188	87.2421	117.188	87.4184	117.188	87.3381	117.188	87.4824	117.188	87.4263	117.188	87.5204	117.188	87.4916	117.188	87.5242
120.117	89.5075	120.117	89.4572	120.117	89.4691	120.117	89.3216	120.117	89.3444	120.117	89.109	120.117	89.1408	120.117	88.8334	120.117	88.8713	120.117	88.514	120.117	88.554	120.117	88.1745	120.117	88.2123	120.117	87.8424	120.117	87.8733	120.117	87.5455	120.117	87.5655	120.117	87.3085	120.117	87.3153	120.117	87.1483	120.117	87.1421	120.117	87.0704	120.117	87.0541	120.117	87.0679	120.117	87.0464	120.117	87.1237	120.117	87.1019	120.117	87.2145	120.117	87.1961	120.117	87.3158	120.117	87.3027	120.117	87.4053	120.117	87.3974	120.117	87.4658	120.117	87.4623	120.117	87.4862
124.512	89.4676	124.512	89.4127	124.512	89.429	124.512	89.2676	124.512	89.2999	124.512	89.041	124.512	89.0886	124.512	88.7476	124.512	88.8096	124.512	88.4076	124.512	88.4829	124.512	88.0463	124.512	88.1336	124.512	87.6929	124.512	87.7903	124.512	87.3769	124.512	87.4825	124.512	87.1249	124.512	87.2363	124.512	86.9552	124.512	87.0696	124.512	86.8744	124.512	86.9889	124.512	86.8758	124.512	86.9871	124.512	86.9416	124.512	87.0462	124.512	87.0476	124.512	87.141	124.512	87.1676	124.512	87.2446	124.512	87.2776	124.512	87.3328	124.512	87.3582	124.512	87.387	124.512	87.3964
128.906	89.3643	128.906	89.3203	128.906	89.3112	128.906	89.1822	128.906	89.1638	128.906	88.9589	128.906	88.9311	128.906	88.665	128.906	88.6282	128.906	88.3208	128.906	88.2765	128.906	87.9519	128.906	87.9031	128.906	87.5877	128.906	87.5392	128.906	87.259	128.906	87.2171	128.906	86.9939	128.906	86.9655	128.906	86.8131	128.906	86.8038	128.906	86.7247	128.906	86.7376	128.906	86.723	128.906	86.7577	128.906	86.7899	128.906	86.842	128.906	86.9001	128.906	86.9615	128.906	87.0259	128.906	87.0862	128.906	87.1415	128.906	87.1898	128.906	87.2263	128.906	87.2531	128.906	87.2658
133.301	89.256	133.301	89.221	133.301	89.1883	133.301	89.0872	133.301	89.0205	133.301	88.8642	133.301	88.7616	133.301	88.568	133.301	88.4273	133.301	88.2204	133.301	88.04	133.301	87.8482	133.301	87.629	133.301	87.4821	133.301	87.2281	133.301	87.1536	133.301	86.8736	133.301	86.8914	133.301	86.5986	133.301	86.7158	133.301	86.4268	133.301	86.6345	133.301	86.3665	133.301	86.641	133.301	86.4084	133.301	86.7159	133.301	86.528	133.301	86.8322	133.301	86.6917	133.301	86.9598	133.301	86.864	133.301	87.0712	133.301	87.0134	133.301	87.1435	133.301	87.1168	133.301	87.1611
139.16	89.2051	139.16	89.1538	139.16	89.1441	139.16	88.9947	139.16	88.9727	139.16	88.7392	139.16	88.7001	139.16	88.4053	139.16	88.3422	139.16	88.0176	139.16	87.9219	139.16	87.6063	139.16	87.4691	139.16	87.2056	139.16	87.0192	139.16	86.8506	139.16	86.6107	139.16	86.5723	139.16	86.2808	139.16	86.3921	139.16	86.0585	139.16	86.3166	139.16	85.9586	139.16	86.336	139.16	85.977	139.16	86.4266	139.16	86.0914	139.16	86.5562	139.16	86.2669	139.16	86.6909	139.16	86.4638	139.16	86.8001	139.16	86.645	139.16	86.8599	139.16	86.7816	139.16	86.8554
143.555	89.1296	143.555	89.0605	143.555	89.0817	143.555	88.8789	143.555	88.919	143.555	88.5969	143.555	88.651	143.555	88.2333	143.555	88.2944	143.555	87.8144	143.555	87.8729	143.555	87.3722	143.555	87.4165	143.555	86.9434	143.555	86.9608	143.555	86.5654	143.555	86.5435	143.555	86.271	143.555	86.2002	143.555	86.0824	143.555	85.9588	143.555	86.0058	143.555	85.8333	143.555	86.0296	143.555	85.8209	143.555	86.1272	143.555	85.9027	143.555	86.2641	143.555	86.048	143.555	86.4046	143.555	86.2203	143.555	86.5176	143.555	86.3841	143.555	86.5799	143.555	86.5101	143.555	86.5783
147.949	89.0613	147.949	88.9898	147.949	89.0086	147.949	88.7988	147.949	88.8341	147.949	88.5008	147.949	88.5483	147.949	88.1156	147.949	88.1693	147.949	87.6701	147.949	87.7232	147.949	87.1978	147.949	87.2435	147.949	86.7365	147.949	86.7696	147.949	86.3257	147.949	86.3427	147.949	86.0007	147.949	86.0006	147.949	85.787	147.949	85.7702	147.949	85.694	147.949	85.6613	147.949	85.7122	147.949	85.6648	147.949	85.815	147.949	85.7561	147.949	85.966	147.949	85.9015	147.949	86.1262	147.949	86.0651	147.949	86.2616	147.949	86.2137	147.949	86.3469	147.949	86.3207	147.949	86.3677
153.809	89.0021	153.809	88.9351	153.809	88.9323	153.809	88.7367	153.809	88.7285	153.809	88.4197	153.809	88.401	153.809	88.0048	153.809	87.9684	153.809	87.5203	153.809	87.4576	153.809	87.002	153.809	86.9043	153.809	86.4909	153.809	86.3518	153.809	86.0303	153.809	85.8479	153.809	85.6597	153.809	85.4399	153.809	85.408	153.809	85.1645	153.809	85.2864	153.809	85.0378	153.809	85.2853	153.809	85.0502	153.809	85.3771	153.809	85.1691	153.809	85.5228	153.809	85.3498	153.809	85.6809	153.809	85.5471	153.809	85.8145	153.809	85.7229	153.809	85.896	153.809	85.8493	153.809	85.9092
159.668	89.2487	159.668	89.1748	159.668	89.1837	159.668	88.9679	159.668	88.9822	159.668	88.6423	159.668	88.6549	159.668	88.2202	159.668	88.2215	159.668	87.7316	159.668	87.7103	159.668	87.2135	159.668	87.1578	159.668	86.7074	159.668	86.6072	159.668	86.256	159.668	86.1052	159.668	85.8972	159.668	85.6964	159.668	85.6579	159.668	85.4163	159.668	85.5484	159.668	85.2829	159.668	85.5596	159.668	85.2914	159.668	85.6651	159.668	85.4151	159.668	85.8269	159.668	85.6118	159.668	86.0022	159.668	85.8337	159.668	86.1512	159.668	86.0362	159.668	86.2423	159.668	86.1842	159.668	86.2555
165.527	89.3621	165.527	89.2802	165.527	89.2965	165.527	89.0558	165.527	89.0871	165.527	88.703	165.527	88.7462	165.527	88.2453	165.527	88.2951	165.527	87.716	165.527	87.7641	165.527	87.1582	165.527	87.193	165.527	86.6223	165.527	86.6296	165.527	86.1611	165.527	86.1264	165.527	85.8204	165.527	85.7337	165.527	85.6282	165.527	85.4891	165.527	85.5875	165.527	85.4072	165.527	85.6765	165.527	85.4748	165.527	85.8558	165.527	85.6553	165.527	86.0792	165.527	85.8997	165.527	86.3012	165.527	86.1571	165.527	86.4827	165.527	86.3828	165.527	86.5938	165.527	86.5429	165.527	86.6158
171.387	89.4553	171.387	89.37	171.387	89.3866	171.387	89.1353	171.387	89.1675	171.387	88.7641	171.387	88.8103	171.387	88.2783	171.387	88.3357	171.387	87.7086	171.387	87.7733	171.387	87.0951	171.387	87.1617	171.387	86.486	171.387	86.5477	171.387	85.9352	171.387	85.9846	171.387	85.496	171.387	85.5274	171.387	85.2113	171.387	85.224	171.387	85.1025	171.387	85.1019	171.387	85.1615	171.387	85.157	171.387	85.3521	171.387	85.352	171.387	85.6196	171.387	85.6269	171.387	85.9039	171.387	85.9163	171.387	86.1508	171.387	86.1631	171.387	86.3182	171.387	86.3257	171.387	86.3798
177.246	89.2307	177.246	89.1568	177.246	89.1463	177.246	88.9297	177.246	88.9078	177.246	88.5637	177.246	88.5288	177.246	88.0825	177.246	88.033	177.246	87.5192	177.246	87.4539	177.246	86.9163	177.246	86.8346	177.246	86.3243	177.246	86.2259	177.246	85.7975	177.246	85.6824	177.246	85.387	177.246	85.2558	177.246	85.1298	177.246	84.9857	177.246	85.039	177.246	84.89	177.246	85.0999	177.246	84.9592	177.246	85.2753	177.246	85.1575	177.246	85.516	177.246	85.4307	177.246	85.7706	177.246	85.7188	177.246	85.9922	177.246	85.9668	177.246	86.1421	177.246	86.1329	177.246	86.1931
183.105	89.3367	183.105	89.2605	183.105	89.2417	183.105	89.0189	183.105	88.979	183.105	88.6281	183.105	88.5627	183.105	88.1142	183.105	88.0169	183.105	87.5134	183.105	87.3763	183.105	86.872	183.105	86.6861	183.105	86.2439	183.105	86.001	183.105	85.6866	183.105	85.382	183.105	85.2535	183.105	84.8905	183.105	84.984	183.105	84.5769	183.105	84.8933	183.105	84.4677	183.105	84.968	183.105	84.5557	183.105	85.1687	183.105	84.8	183.105	85.4402	183.105	85.1373	183.105	85.7227	183.105	85.4968	183.105	85.9607	183.105	85.8134	183.105	86.1095	183.105	86.0375	183.105	86.1391
188.965	89.5288	188.965	89.4318	188.965	89.4398	188.965	89.1556	188.965	89.1684	188.965	88.717	188.965	88.7283	188.965	88.1441	188.965	88.1435	188.965	87.4771	188.965	87.4499	188.965	86.7683	188.965	86.6957	188.965	86.081	188.965	85.9417	188.965	85.4832	188.965	85.258	188.965	85.0371	188.965	84.7152	188.965	84.7829	188.965	84.3674	188.965	84.7258	188.965	84.2351	188.965	84.8342	188.965	84.2986	188.965	85.0513	188.965	84.5088	188.965	85.3119	188.965	84.8047	188.965	85.5562	188.965	85.1277	188.965	85.7373	188.965	85.4268	188.965	85.8232	188.965	85.6601	188.965	85.7975
196.289	89.7063	196.289	89.5887	196.289	89.6297	196.289	89.282	196.289	89.363	196.289	88.8017	196.289	88.92	196.289	88.1742	196.289	88.3239	196.289	87.4385	196.289	87.609	196.289	86.6479	196.289	86.8215	196.289	85.8707	196.289	86.0219	196.289	85.1886	196.289	85.2846	196.289	84.6874	196.289	84.6936	196.289	84.4356	196.289	84.3265	196.289	84.4556	196.289	84.2283	196.289	84.7079	196.289	84.3882	196.289	85.1062	196.289	84.7403	196.289	85.5512	196.289	85.1906	196.289	85.9577	196.289	85.6477	196.289	86.2655	196.289	86.0401	196.289	86.4375	196.289	86.3192	196.289	86.456
203.613	90.2807	203.613	90.1661	203.613	90.1904	203.613	89.8518	203.613	89.8996	203.613	89.3523	203.613	89.4216	203.613	88.6925	203.613	88.7795	203.613	87.9074	203.613	88.0059	203.613	87.0432	203.613	87.1436	203.613	86.1566	203.613	86.2462	203.613	85.316	203.613	85.3804	203.613	84.6013	203.613	84.6285	203.613	84.0994	203.613	84.0848	203.613	83.8847	203.613	83.8336	203.613	83.9816	203.613	83.9046	203.613	84.337	203.613	84.2441	203.613	84.8358	203.613	84.7357	203.613	85.3488	203.613	85.2526	203.613	85.7717	203.613	85.6943	203.613	86.0376	203.613	85.9941	203.613	86.1138
210.938	89.9875	210.938	89.8771	210.938	89.8951	210.938	89.5691	210.938	89.6056	210.938	89.0806	210.938	89.136	210.938	88.4406	210.938	88.5139	210.938	87.6893	210.938	87.7771	210.938	86.8772	210.938	86.9723	210.938	86.0609	210.938	86.1525	210.938	85.2985	210.938	85.3735	210.938	84.6451	210.938	84.6906	210.938	84.1507	210.938	84.1559	210.938	83.8569	210.938	83.8159	210.938	83.7876	210.938	83.7023	210.938	83.9315	210.938	83.8147	210.938	84.2319	210.938	84.1044	210.938	84.5974	210.938	84.482	210.938	84.9308	210.938	84.8451	210.938	85.1535	210.938	85.1084	210.938	85.2176
218.262	89.8035	218.262	89.6947	218.262	89.6934	218.262	89.3733	218.262	89.3698	218.262	88.8575	218.262	88.8499	218.262	88.1793	218.262	88.1633	218.262	87.3858	218.262	87.3529	218.262	86.5391	218.262	86.4756	218.262	85.7145	218.262	85.603	218.262	84.9916	218.262	84.8182	218.262	84.4398	218.262	84.2064	218.262	84.1032	218.262	83.8335	218.262	83.9916	218.262	83.7213	218.262	84.0825	218.262	83.8383	218.262	84.3269	218.262	84.1151	218.262	84.6565	218.262	84.4723	218.262	84.9957	218.262	84.8388	218.262	85.2759	218.262	85.1569	218.262	85.4473	218.262	85.3823	218.262	85.4841
225.586	90.5572	225.586	90.4514	225.586	90.4309	225.586	90.1196	225.586	90.0767	225.586	89.5793	225.586	89.5105	225.586	88.8587	225.586	88.7604	225.586	87.9989	225.586	87.8672	225.586	87.0558	225.586	86.8852	225.586	86.1032	225.586	85.8824	225.586	85.2329	225.586	84.9405	225.586	84.5481	225.586	84.1561	225.586	84.1398	225.586	83.6352	225.586	84.054	225.586	83.4668	225.586	84.2697	225.586	83.6723	225.586	84.7073	225.586	84.174	225.586	85.2554	225.586	84.8264	225.586	85.7989	225.586	85.4813	225.586	86.2395	225.586	86.029	225.586	86.5079	225.586	86.4023	225.586	86.5658
232.91	90.6277	232.91	90.472	232.91	90.546	232.91	90.0905	232.91	90.2262	232.91	89.5063	232.91	89.679	232.91	88.7538	232.91	88.927	232.91	87.8777	232.91	88.0059	232.91	86.9323	232.91	86.9666	232.91	85.9796	232.91	85.8769	232.91	85.0893	232.91	84.8222	232.91	84.3383	232.91	83.9029	232.91	83.8059	232.91	83.2251	232.91	83.5579	232.91	82.8792	232.91	83.6188	232.91	82.908	232.91	83.9495	232.91	83.2763	232.91	84.4514	232.91	83.8718	232.91	84.9955	232.91	84.5431	232.91	85.4567	232.91	85.1485	232.91	85.7396	232.91	85.5835	232.91	85.7876
241.699	90.2735	241.699	90.1155	241.699	90.1867	241.699	89.7219	241.699	89.8597	241.699	89.1167	241.699	89.3111	241.699	88.3383	241.699	88.5743	241.699	87.4398	241.699	87.6961	241.699	86.4859	241.699	86.7355	241.699	85.5485	241.699	85.7584	241.699	84.6997	241.699	84.8324	241.699	84.0048	241.699	84.0212	241.699	83.516	241.699	83.3841	241.699	83.2678	241.699	82.9766	241.699	83.2728	241.699	82.8468	241.699	83.5141	241.699	83.0149	241.699	83.9337	241.699	83.4401	241.699	84.429	241.699	84.0103	241.699	84.8753	241.699	84.5769	241.699	85.1603	241.699	85.0062	241.699	85.2113
250.488	91.2491	250.488	91.0738	250.488	91.1532	250.488	90.6362	250.488	90.7868	250.488	89.9558	250.488	90.1607	250.488	89.066	250.488	89.2979	250.488	88.0159	250.488	88.2371	250.488	86.8731	250.488	87.0385	250.488	85.7225	250.488	85.7898	250.488	84.6593	250.488	84.6078	250.488	83.7726	250.488	83.6254	250.488	83.1194	250.488	82.9529	250.488	82.7079	250.488	82.6285	250.488	82.5092	250.488	82.6064	250.488	82.4955	250.488	82.7991	250.488	82.6606	250.488	83.1216	250.488	82.9891	250.488	83.4935	250.488	83.4064	250.488	83.8242	250.488	83.7861	250.488	84.0193	250.488	84.0104
259.277	90.6146	259.277	90.45	259.277	90.5274	259.277	90.0438	259.277	90.1897	259.277	89.4171	259.277	89.6145	259.277	88.6022	259.277	88.8279	259.277	87.6424	259.277	87.8697	259.277	86.5923	259.277	86.7939	259.277	85.5193	259.277	85.6678	259.277	84.5081	259.277	84.5702	259.277	83.6638	259.277	83.5906	259.277	83.095	259.277	82.8255	259.277	82.8646	259.277	82.3634	259.277	82.9397	259.277	82.2514	259.277	83.2088	259.277	82.4636	259.277	83.5528	259.277	82.9027	259.277	83.8924	259.277	83.434	259.277	84.1805	259.277	83.9231	259.277	84.3724	259.277	84.2672	259.277	84.4156
268.066	90.0446	268.066	89.8496	268.066	89.9684	268.066	89.395	268.066	89.6237	268.066	88.7083	268.066	89.026	268.066	87.8332	268.066	88.2033	268.066	86.8284	268.066	87.1964	268.066	85.7616	268.066	86.0612	268.066	84.7022	268.066	84.8691	268.066	83.7197	268.066	83.7095	268.066	82.8923	268.066	82.6911	268.066	82.3144	268.066	81.9369	268.066	82.0723	268.066	81.5515	268.066	82.1781	268.066	81.5571	268.066	82.5346	268.066	81.8647	268.066	82.9895	268.066	82.333	268.066	83.4141	268.066	82.8435	268.066	83.7305	268.066	83.314	268.066	83.8949	268.066	83.6775	268.066	83.8796
276.855	90.0375	276.855	89.8678	276.855	89.9294	276.855	89.4205	276.855	89.5604	276.855	88.7153	276.855	88.9613	276.855	87.7922	276.855	88.1719	276.855	86.7113	276.855	87.2349	276.855	85.5483	276.855	86.1901	276.855	84.3838	276.855	85.0746	276.855	83.2916	276.855	83.9327	276.855	82.3358	276.855	82.8383	276.855	81.5895	276.855	81.9279	276.855	81.1563	276.855	81.3994	276.855	81.1355	276.855	81.3949	276.855	81.5182	276.855	81.8354	276.855	82.1441	276.855	82.467	276.855	82.8016	276.855	83.0612	276.855	83.3384	276.855	83.5039	276.855	83.6844	276.855	83.7606	276.855	83.8233
287.109	89.7914	287.109	89.6658	287.109	89.6135	287.109	89.2506	287.109	89.1398	287.109	88.5787	287.109	88.4021	287.109	87.7018	287.109	87.4584	287.109	86.69	287.109	86.3921	287.109	85.6303	287.109	85.3029	287.109	84.6178	287.109	84.2812	287.109	83.7334	287.109	83.3714	287.109	83.0208	287.109	82.5554	287.109	82.4932	287.109	81.787	287.109	82.1812	287.109	81.074	287.109	82.169	287.109	80.5706	287.109	82.5236	287.109	80.5558	287.109	83.1552	287.109	81.1496	287.109	83.8284	287.109	82.1102	287.109	84.3196	287.109	83.0878	287.109	84.5058	287.109	83.8657	287.109	84.3511
297.363	90.51	297.363	90.2925	297.363	90.3954	297.363	89.7565	297.363	89.9491	297.363	88.9273	297.363	89.1906	297.363	87.8414	297.363	88.1606	297.363	86.551	297.363	86.9199	297.363	85.1383	297.363	85.5495	297.363	83.7386	297.363	84.1602	297.363	82.5531	297.363	82.9151	297.363	81.7826	297.363	82.0116	297.363	81.4679	297.363	81.5504	297.363	81.441	297.363	81.4133	297.363	81.5087	297.363	81.382	297.363	81.6439	297.363	81.3714	297.363	81.9754	297.363	81.4977	297.363	82.5515	297.363	81.9088	297.363	83.1752	297.363	82.5514	297.363	83.5677	297.363	83.1858	297.363	83.5706
307.617	89.5947	307.617	89.4763	307.617	89.427	307.617	89.0796	307.617	88.9819	307.617	88.4305	307.617	88.2845	307.617	87.5724	307.617	87.3806	307.617	86.5596	307.617	86.3422	307.617	85.4486	307.617	85.2619	307.617	84.2938	307.617	84.2271	307.617	83.1575	307.617	83.2906	307.617	82.1319	307.617	82.4749	307.617	81.3457	307.617	81.8095	307.617	80.9079	307.617	81.3468	307.617	80.8086	307.617	81.1275	307.617	80.9229	307.617	81.1556	307.617	81.1469	307.617	81.4127	307.617	81.4774	307.617	81.8427	307.617	81.9202	307.617	82.3062	307.617	82.3675	307.617	82.6159	307.617	82.6395
319.336	89.2782	319.336	89.0619	319.336	89.1606	319.336	88.5278	319.336	88.7122	319.336	87.7112	319.336	87.9544	319.336	86.6648	319.336	86.927	319.336	85.4561	319.336	85.691	319.336	84.1639	319.336	84.3357	319.336	82.8807	319.336	82.9844	319.336	81.7225	319.336	81.7914	319.336	80.8389	319.336	80.9149	319.336	80.3858	319.336	80.4605	319.336	80.4214	319.336	80.413	319.336	80.8174	319.336	80.6329	319.336	81.3376	319.336	80.955	319.336	81.7992	319.336	81.2962	319.336	82.142	319.336	81.6603	319.336	82.3841	319.336	82.0428	319.336	82.5312	319.336	82.3671	319.336	82.5393
329.59	88.6352	329.59	88.3986	329.59	88.5763	329.59	87.8945	329.59	88.2111	329.59	87.167	329.59	87.5473	329.59	86.2716	329.59	86.6135	329.59	85.2652	329.59	85.4604	329.59	84.1936	329.59	84.1628	329.59	83.087	329.59	82.8223	329.59	81.9711	329.59	81.5675	329.59	80.8941	329.59	80.5348	329.59	79.9654	329.59	79.819	329.59	79.3781	329.59	79.4298	329.59	79.3182	329.59	79.306	329.59	79.75	329.59	79.3778	329.59	80.4	329.59	79.6226	329.59	80.9992	329.59	80.0522	329.59	81.414	329.59	80.6171	329.59	81.5953	329.59	81.1598	329.59	81.5121
341.309	88.3033	341.309	88.0122	341.309	88.2204	341.309	87.3591	341.309	87.7861	341.309	86.3955	341.309	87.053	341.309	85.2215	341.309	86.0967	341.309	83.9893	341.309	85.0021	341.309	82.8759	341.309	83.8471	341.309	82.0096	341.309	82.695	341.309	81.4105	341.309	81.6153	341.309	81.0178	341.309	80.7326	341.309	80.7588	341.309	80.2364	341.309	80.5908	341.309	80.2522	341.309	80.5251	341.309	80.6777	341.309	80.6308	341.309	81.2543	341.309	80.9726	341.309	81.7749	341.309	81.5017	341.309	82.1655	341.309	82.0504	341.309	82.4385	341.309	82.4519	341.309	82.6062	341.309	82.631
353.027	88.8925	353.027	88.7053	353.027	88.7045	353.027	88.1489	353.027	88.16	353.027	87.2512	353.027	87.3049	353.027	86.063	353.027	86.213	353.027	84.6595	353.027	84.9827	353.027	83.1447	353.027	83.7221	353.027	81.6545	353.027	82.5169	353.027	80.3561	353.027	81.3973	353.027	79.4153	353.027	80.3467	353.027	78.9233	353.027	79.3822	353.027	78.8515	353.027	78.6577	353.027	79.1076	353.027	78.4356	353.027	79.6146	353.027	78.8215	353.027	80.306	353.027	79.6212	353.027	81.0715	353.027	80.5514	353.027	81.7524	353.027	81.3988	353.027	82.1935	353.027	82.0126	353.027	82.291
366.211	89.7156	366.211	89.4747	366.211	89.5606	366.211	88.8476	366.211	89.0207	366.211	87.8683	366.211	88.1265	366.211	86.6011	366.211	86.931	366.211	85.1434	366.211	85.5157	366.211	83.6237	366.211	84.0063	366.211	82.1885	366.211	82.5917	366.211	80.9799	366.211	81.4888	366.211	80.1162	366.211	80.7913	366.211	79.6577	366.211	80.3549	366.211	79.5353	366.211	79.9315	366.211	79.5453	366.211	79.3984	366.211	79.5126	366.211	78.9031	366.211	79.5044	366.211	78.8402	366.211	79.8113	366.211	79.4309	366.211	80.4959	366.211	80.3594	366.211	81.1704	366.211	81.1304	366.211	81.4309
379.395	89.2689	379.395	89.0776	379.395	89.099	379.395	88.5411	379.395	88.577	379.395	87.6981	379.395	87.7384	379.395	86.6057	379.395	86.6447	379.395	85.3307	379.395	85.371	379.395	83.9435	379.395	83.9779	379.395	82.5231	379.395	82.4894	379.395	81.1752	379.395	80.9271	379.395	80.047	379.395	79.4403	379.395	79.3155	379.395	78.4294	379.395	79.1128	379.395	78.2231	379.395	79.3837	379.395	78.4917	379.395	79.848	379.395	78.6219	379.395	80.1977	379.395	78.3782	379.395	80.3065	379.395	78.0682	379.395	80.2364	379.395	78.2574	379.395	80.0447	379.395	78.9538	379.395	79.6397
392.578	89.1612	392.578	88.8535	392.578	89.0623	392.578	88.1636	392.578	88.5657	392.578	87.1567	392.578	87.7084	392.578	85.9431	392.578	86.5576	392.578	84.6623	392.578	85.2185	392.578	83.4301	392.578	83.8298	392.578	82.2881	392.578	82.5209	392.578	81.229	392.578	81.3499	392.578	80.2744	392.578	80.3102	392.578	79.4884	392.578	79.418	392.578	78.8827	392.578	78.7676	392.578	78.3423	392.578	78.4206	392.578	77.7148	392.578	78.2018	392.578	76.9613	392.578	77.7433	392.578	76.2278	392.578	76.8092	392.578	75.7426	392.578	75.6632	392.578	75.4917	392.578	75.0779	392.578	75.2221
405.762	89.2994	405.762	88.875	405.762	89.2783	405.762	88.0113	405.762	88.8201	405.762	86.7403	405.762	87.9513	405.762	85.1485	405.762	86.7274	405.762	83.4203	405.762	85.2493	405.762	81.8437	405.762	83.6717	405.762	80.6843	405.762	82.1837	405.762	80.0032	405.762	80.9559	405.762	79.6969	405.762	80.1004	405.762	79.6744	405.762	79.6781	405.762	79.8559	405.762	79.6746	405.762	80.0684	405.762	79.9195	405.762	80.0753	405.762	80.1197	405.762	79.7004	405.762	80.0211	405.762	78.9267	405.762	79.5192	405.762	77.9676	405.762	78.6901	405.762	77.2603	405.762	77.7894	405.762	77.2007
420.41	89.3022	420.41	89.1402	420.41	89.0483	420.41	88.5764	420.41	88.3816	420.41	87.6371	420.41	87.3378	420.41	86.3669	420.41	86.0016	420.41	84.8377	420.41	84.5114	420.41	83.1569	420.41	83.0339	420.41	81.4664	420.41	81.6981	420.41	79.9226	420.41	80.5366	420.41	78.6729	420.41	79.544	420.41	77.9177	420.41	78.8568	420.41	77.918	420.41	78.7574	420.41	78.6201	420.41	79.2372	420.41	79.5296	420.41	79.8591	420.41	80.215	420.41	80.2515	420.41	80.5474	420.41	80.3495	420.41	80.5928	420.41	80.2941	420.41	80.4791	420.41	80.2612	420.41	80.3342
435.059	89.7959	435.059	89.5127	435.059	89.6357	435.059	88.8061	435.059	89.0367	435.059	87.7179	435.059	88.0321	435.059	86.3141	435.059	86.6937	435.059	84.6926	435.059	85.1481	435.059	82.9857	435.059	83.5812	435.059	81.3341	435.059	82.1868	435.059	79.86	435.059	81.0421	435.059	78.7278	435.059	80.047	435.059	78.2031	435.059	79.1187	435.059	78.4478	435.059	78.6155	435.059	79.2643	435.059	79.2468	435.059	80.2597	435.059	80.7592	435.059	81.1295	435.059	82.1759	435.059	81.7596	435.059	83.0156	435.059	82.2045	435.059	83.2812	435.059	82.5732	435.059	83.1777	435.059	82.9077
451.172	90.8671	451.172	90.5519	451.172	90.7379	451.172	89.8207	451.172	90.1658	451.172	88.7368	451.172	89.1771	451.172	87.3957	451.172	87.818	451.172	85.913	451.172	86.1525	451.172	84.3999	451.172	84.2641	451.172	82.9234	451.172	82.2858	451.172	81.459	451.172	80.4759	451.172	79.9083	451.172	79.2144	451.172	78.2828	451.172	78.6667	451.172	77.039	451.172	78.53	451.172	76.9242	451.172	78.419	451.172	77.8661	451.172	78.2859	451.172	79.1874	451.172	78.5084	451.172	80.4649	451.172	79.4148	451.172	81.4641	451.172	80.6503	451.172	82.0383	451.172	81.6375	451.172	82.1104
465.82	89.9391	465.82	89.6944	465.82	89.8239	465.82	89.1202	465.82	89.3469	465.82	88.2605	465.82	88.5389	465.82	87.1507	465.82	87.4601	465.82	85.8122	465.82	86.1846	465.82	84.2873	465.82	84.7696	465.82	82.7045	465.82	83.229	465.82	81.2822	465.82	81.5696	465.82	80.1697	465.82	79.9432	465.82	79.3067	465.82	78.7342	465.82	78.5878	465.82	78.1293	465.82	78.0345	465.82	77.7576	465.82	77.5835	465.82	77.3154	465.82	76.9628	465.82	76.9917	465.82	76.185	465.82	77.031	465.82	75.9309	465.82	77.2588	465.82	76.494	465.82	77.3649	465.82	77.129
483.398	89.632	483.398	89.3653	483.398	89.483	483.398	88.6772	483.398	88.9535	483.398	87.6034	483.398	88.1038	483.398	86.2476	483.398	87.0165	483.398	84.8056	483.398	85.7884	483.398	83.515	483.398	84.5159	483.398	82.4875	483.398	83.2698	483.398	81.6154	483.398	82.06	483.398	80.7393	483.398	80.827	483.398	79.8676	483.398	79.5556	483.398	79.2177	483.398	78.5213	483.398	79.0183	483.398	78.2435	483.398	79.1849	483.398	78.6042	483.398	79.3102	483.398	78.7713	483.398	79.0109	483.398	78.2375	483.398	78.1878	483.398	77.1727	483.398	77.1059	483.398	76.3086	483.398	76.3061
499.512	90.67	499.512	90.4769	499.512	90.4035	499.512	89.8449	499.512	89.6943	499.512	88.8192	499.512	88.6073	499.512	87.4633	499.512	87.2603	499.512	85.8682	499.512	85.8084	499.512	84.1671	499.512	84.3911	499.512	82.5229	499.512	83.0534	499.512	81.0621	499.512	81.7688	499.512	79.8371	499.512	80.6506	499.512	78.9949	499.512	80.0905	499.512	78.9489	499.512	80.3117	499.512	79.7764	499.512	80.9109	499.512	80.8019	499.512	81.3837	499.512	81.4467	499.512	81.5169	499.512	81.5964	499.512	81.2909	499.512	81.3909	499.512	80.8521	499.512	81.0127	499.512	80.5486	499.512	80.645
517.09	91.0347	517.09	90.7986	517.09	90.7839	517.09	90.0665	517.09	90.0964	517.09	88.8943	517.09	89.0507	517.09	87.443	517.09	87.7398	517.09	85.9768	517.09	86.2653	517.09	84.7223	517.09	84.7487	517.09	83.6708	517.09	83.3245	517.09	82.622	517.09	82.0447	517.09	81.4495	517.09	80.7664	517.09	80.262	517.09	79.3276	517.09	79.3512	517.09	78.3012	517.09	79.07	517.09	79.0865	517.09	79.5656	517.09	81.0057	517.09	80.4747	517.09	82.5336	517.09	81.3595	517.09	83.3489	517.09	82.1438	517.09	83.6629	517.09	82.8653	517.09	83.6768	517.09	83.4139
536.133	91.5394	536.133	91.1757	536.133	91.4018	536.133	90.3085	536.133	90.796	536.133	88.9842	536.133	89.7705	536.133	87.2973	536.133	88.3981	536.133	85.4061	536.133	86.8212	536.133	83.6768	536.133	85.2827	536.133	82.7157	536.133	84.0246	536.133	82.5544	536.133	83.0458	536.133	82.4082	536.133	82.0535	536.133	81.7024	536.133	80.7565	536.133	80.5853	536.133	79.2361	536.133	80.2049	536.133	78.3536	536.133	81.1995	536.133	79.1047	536.133	82.303	536.133	80.6766	536.133	82.7606	536.133	81.8946	536.133	82.8122	536.133	82.5195	536.133	82.8599	536.133	82.7926	536.133	82.8971
555.176	91.2863	555.176	91.0954	555.176	91.1233	555.176	90.5729	555.176	90.5919	555.176	89.7104	555.176	89.6951	555.176	88.438	555.176	88.4635	555.176	86.6887	555.176	86.975	555.176	84.5768	555.176	85.3872	555.176	82.5367	555.176	83.9879	555.176	81.0256	555.176	83.0917	555.176	80.0283	555.176	82.5998	555.176	79.4274	555.176	81.9294	555.176	79.3524	555.176	80.6357	555.176	79.6836	555.176	79.2493	555.176	80.1035	555.176	79.3858	555.176	80.5904	555.176	80.595	555.176	81.2188	555.176	81.4567	555.176	81.9316	555.176	81.9704	555.176	82.5561	555.176	82.4874	555.176	82.7846
574.219	91.3515	574.219	91.125	574.219	91.21	574.219	90.5686	574.219	90.6548	574.219	89.7102	574.219	89.6704	574.219	88.5843	574.219	88.3097	574.219	87.2287	574.219	86.7025	574.219	85.6635	574.219	85.0607	574.219	83.9432	574.219	83.6596	574.219	82.3049	574.219	82.6663	574.219	81.076	574.219	81.9638	574.219	80.1575	574.219	81.3085	574.219	79.1794	574.219	80.5401	574.219	78.4766	574.219	79.627	574.219	78.9357	574.219	78.7049	574.219	79.9505	574.219	77.9446	574.219	80.4226	574.219	77.4895	574.219	80.3759	574.219	77.8667	574.219	80.3143	574.219	79.0709	574.219	80.0323
594.727	91.123	594.727	90.9113	594.727	90.9934	594.727	90.3962	594.727	90.5037	594.727	89.5825	594.727	89.7001	594.727	88.4508	594.727	88.6625	594.727	87.0354	594.727	87.4198	594.727	85.5179	594.727	85.9564	594.727	84.2019	594.727	84.4037	594.727	83.2202	594.727	83.1463	594.727	82.3598	594.727	82.3107	594.727	81.4065	594.727	81.4332	594.727	80.5342	594.727	80.2025	594.727	80.3203	594.727	79.1833	594.727	80.8058	594.727	79.5287	594.727	81.0131	594.727	80.7127	594.727	80.2547	594.727	81.1568	594.727	79.0474	594.727	80.3571	594.727	78.7006	594.727	79.2304	594.727	78.8666
615.234	90.5069	615.234	90.3252	615.234	90.473	615.234	89.941	615.234	90.2014	615.234	89.3301	615.234	89.6589	615.234	88.4102	615.234	88.7938	615.234	87.1059	615.234	87.5745	615.234	85.5088	615.234	86.0869	615.234	84.0567	615.234	84.6161	615.234	83.2957	615.234	83.5208	615.234	82.9807	615.234	82.817	615.234	82.2183	615.234	82.0534	615.234	80.4646	615.234	80.7859	615.234	78.517	615.234	79.4922	615.234	78.9501	615.234	79.8046	615.234	80.4125	615.234	80.9127	615.234	80.4994	615.234	81.2321	615.234	79.1644	615.234	80.7496	615.234	78.1066	615.234	79.8399	615.234	78.7093
637.207	90.7761	637.207	90.6961	637.207	90.5498	637.207	90.323	637.207	90.0622	637.207	89.6769	637.207	89.3911	637.207	88.7621	637.207	88.5342	637.207	87.5597	637.207	87.3884	637.207	86.0505	637.207	85.9082	637.207	84.4211	637.207	84.2979	637.207	83.1322	637.207	83.0006	637.207	82.2353	637.207	82.2892	637.207	81.3001	637.207	81.9115	637.207	80.2586	637.207	81.3169	637.207	79.4327	637.207	80.1098	637.207	79.2412	637.207	78.7346	637.207	79.9039	637.207	78.4173	637.207	80.6967	637.207	78.3678	637.207	80.9934	637.207	77.5062	637.207	80.7353	637.207	77.7636	637.207	79.5973
659.18	89.8132	659.18	89.7381	659.18	89.7039	659.18	89.4309	659.18	89.4807	659.18	88.8903	659.18	89.1479	659.18	88.1031	659.18	88.5761	659.18	87.0195	659.18	87.5746	659.18	85.6504	659.18	86.0577	659.18	84.2008	659.18	84.2526	659.18	83.224	659.18	82.9588	659.18	83.1486	659.18	82.8468	659.18	83.2342	659.18	83.0564	659.18	82.3987	659.18	82.3783	659.18	80.3961	659.18	80.4699	659.18	79.1813	659.18	79.0969	659.18	80.2022	659.18	80.0507	659.18	80.4166	659.18	80.3978	659.18	78.4157	659.18	78.8012	659.18	75.0842	659.18	76.2426	659.18	74.4868
682.617	89.6	682.617	89.5046	682.617	89.5858	682.617	89.3682	682.617	89.521	682.617	89.2343	682.617	89.3681	682.617	88.9116	682.617	88.8843	682.617	88.0597	682.617	87.8419	682.617	86.4511	682.617	86.206	682.617	84.3377	682.617	84.2513	682.617	82.6601	682.617	82.6571	682.617	82.0845	682.617	82.1124	682.617	82.3369	682.617	82.4522	682.617	82.7041	682.617	82.8277	682.617	82.2059	682.617	82.462	682.617	80.9192	682.617	81.2777	682.617	81.0524	682.617	80.7103	682.617	81.7042	682.617	81.2649	682.617	80.4585	682.617	80.8165	682.617	77.8384	682.617	78.6761	682.617	76.7853
707.52	89.2744	707.52	89.1566	707.52	89.3866	707.52	89.0442	707.52	89.4672	707.52	88.8682	707.52	89.4158	707.52	88.454	707.52	89.0859	707.52	87.6541	707.52	88.3945	707.52	86.2923	707.52	87.2848	707.52	84.0947	707.52	85.5718	707.52	81.3793	707.52	83.0905	707.52	80.5096	707.52	80.6502	707.52	81.6021	707.52	80.0935	707.52	82.1402	707.52	80.4671	707.52	81.8975	707.52	80.3844	707.52	81.1514	707.52	80.1543	707.52	79.6748	707.52	80.2855	707.52	78.5259	707.52	80.3221	707.52	79.2715	707.52	79.8497	707.52	80.3014	707.52	79.7914	707.52	80.3883
732.422	87.8156	732.422	88.0767	732.422	88.0929	732.422	88.6713	732.422	88.6092	732.422	89.0955	732.422	88.929	732.422	89.003	732.422	88.8285	732.422	88.3104	732.422	88.2368	732.422	87.0882	732.422	87.073	732.422	85.4771	732.422	85.3669	732.422	83.6658	732.422	83.601	732.422	81.8799	732.422	82.553	732.422	80.5835	732.422	82.2148	732.422	80.1336	732.422	81.8165	732.422	79.7684	732.422	80.8868	732.422	79.5801	732.422	80.0407	732.422	80.5904	732.422	80.3723	732.422	80.9227	732.422	80.4499	732.422	78.7062	732.422	78.3157	732.422	73.8509	732.422	73.5213	732.422	70.4473
757.324	88.028	757.324	88.314	757.324	88.1699	757.324	88.8042	757.324	88.5757	757.324	89.0839	757.324	88.9546	757.324	88.8962	757.324	89.0243	757.324	88.1469	757.324	88.5324	757.324	86.7967	757.324	87.3619	757.324	84.8693	757.324	85.655	757.324	82.8244	757.324	83.8325	757.324	81.7945	757.324	82.3019	757.324	81.6739	757.324	81.4823	757.324	81.3134	757.324	81.8829	757.324	80.7994	757.324	82.3908	757.324	80.8037	757.324	81.5736	757.324	81.3833	757.324	80.2392	757.324	81.6035	757.324	80.5012	757.324	79.9601	757.324	80.0447	757.324	76.2372	757.324	77.2276	757.324	74.3156
785.156	87.2421	785.156	87.692	785.156	87.5386	785.156	88.4897	785.156	88.3821	785.156	89.0149	785.156	89.1129	785.156	88.9593	785.156	89.3029	785.156	88.2707	785.156	88.9336	785.156	86.9856	785.156	88.0453	785.156	85.3397	785.156	86.5608	785.156	83.5823	785.156	84.4597	785.156	81.5534	785.156	82.1927	785.156	79.8025	785.156	80.7036	785.156	79.7434	785.156	79.9999	785.156	79.4803	785.156	79.2886	785.156	78.9059	785.156	78.9606	785.156	79.9429	785.156	80.1568	785.156	79.7438	785.156	81.3276	785.156	77.3273	785.156	80.1719	785.156	75.8873	785.156	76.2844	785.156	74.9477
811.523	87.0268	811.523	87.53	811.523	87.3688	811.523	88.4502	811.523	88.141	811.523	89.0013	811.523	88.7832	811.523	88.8685	811.523	88.894	811.523	88.2149	811.523	88.2991	811.523	87.1648	811.523	87.2046	811.523	85.5098	811.523	85.952	811.523	83.5531	811.523	84.585	811.523	82.6449	811.523	83.0447	811.523	82.1753	811.523	81.8728	811.523	80.9779	811.523	81.3967	811.523	79.9147	811.523	80.4588	811.523	78.7326	811.523	78.34	811.523	78.7339	811.523	76.9176	811.523	80.3951	811.523	78.2389	811.523	78.8522	811.523	78.5974	811.523	73.2195	811.523	75.6687	811.523	70.656
840.82	86.853	840.82	87.5686	840.82	87.0523	840.82	88.4674	840.82	88.1194	840.82	89.0229	840.82	88.9752	840.82	88.941	840.82	89.0109	840.82	88.0246	840.82	88.4046	840.82	86.3893	840.82	87.2998	840.82	84.5475	840.82	85.4696	840.82	82.5047	840.82	83.2257	840.82	80.0529	840.82	82.4016	840.82	79.8458	840.82	82.4403	840.82	81.3615	840.82	82.088	840.82	81.2484	840.82	82.0585	840.82	79.67	840.82	81.4389	840.82	78.0464	840.82	79.951	840.82	77.2203	840.82	80.1212	840.82	76.4668	840.82	78.7599	840.82	73.113	840.82	73.4462	840.82	69.5517
870.117	86.2273	870.117	87.3057	870.117	87.057	870.117	88.8169	870.117	88.7392	870.117	89.39	870.117	89.7646	870.117	89.0633	870.117	89.6645	870.117	88.3038	870.117	88.6444	870.117	87.1026	870.117	87.315	870.117	85.2562	870.117	86.1427	870.117	83.52	870.117	84.6071	870.117	82.7544	870.117	82.2144	870.117	81.5499	870.117	80.223	870.117	80.4862	870.117	80.1127	870.117	80.7562	870.117	80.4305	870.117	78.9045	870.117	80.1	870.117	76.454	870.117	78.248	870.117	77.5996	870.117	77.5116	870.117	73.7174	870.117	76.9402	870.117	60.81	870.117	69.4017	870.117	66.4775
900.879	87.5277	900.879	88.1378	900.879	88.0638	900.879	89.3549	900.879	89.253	900.879	90.2935	900.879	90.0678	900.879	90.2693	900.879	90.1481	900.879	89.1749	900.879	89.5691	900.879	87.6112	900.879	88.1696	900.879	86.1675	900.879	85.9282	900.879	84.1086	900.879	83.9451	900.879	80.7137	900.879	83.1203	900.879	79.7627	900.879	82.6592	900.879	81.6309	900.879	83.0537	900.879	81.7108	900.879	83.6312	900.879	80.5048	900.879	82.5485	900.879	79.1823	900.879	80.5572	900.879	79.2687	900.879	80.6935	900.879	79.2146	900.879	80.3626	900.879	77.0085	900.879	77.1361	900.879	75.0898
933.105	86.9421	933.105	87.5996	933.105	87.9347	933.105	89.3891	933.105	89.1111	933.105	90.329	933.105	89.8812	933.105	90.1121	933.105	90.0265	933.105	89.3165	933.105	89.184	933.105	87.9008	933.105	87.7014	933.105	85.6816	933.105	86.2607	933.105	83.698	933.105	84.3225	933.105	82.9458	933.105	81.8262	933.105	82.1646	933.105	80.9943	933.105	81.2232	933.105	81.31	933.105	82.0701	933.105	81.5896	933.105	82.1556	933.105	81.9834	933.105	79.7857	933.105	80.4512	933.105	78.5561	933.105	78.7706	933.105	77.7675	933.105	78.8293	933.105	73.19	933.105	74.8872	933.105	70.9945
965.332	87.4405	965.332	88.2597	965.332	87.4833	965.332	89.2219	965.332	88.8955	965.332	90.034	965.332	90.0365	965.332	90.032	965.332	89.9934	965.332	88.9547	965.332	89.1125	965.332	87.3868	965.332	87.4645	965.332	85.8986	965.332	85.1132	965.332	84.092	965.332	83.5332	965.332	81.9716	965.332	82.9035	965.332	80.3977	965.332	81.5119	965.332	79.8979	965.332	80.0721	965.332	79.914	965.332	80.437	965.332	79.4894	965.332	81.4377	965.332	79.0612	965.332	80.2448	965.332	79.8162	965.332	78.2647	965.332	79.7786	965.332	79.0189	965.332	76.2442	965.332	76.4076	965.332	73.2317
1,000.49	86.4332	1,000.49	87.0469	1,000.49	86.9277	1,000.49	88.4914	1,000.49	88.0352	1,000.49	89.5393	1,000.49	89.1936	1,000.49	89.7092	1,000.49	89.5947	1,000.49	89.0009	1,000.49	88.6907	1,000.49	87.2578	1,000.49	87.1868	1,000.49	84.9358	1,000.49	85.7012	1,000.49	83.4461	1,000.49	83.1488	1,000.49	83.2102	1,000.49	80.4645	1,000.49	83.1978	1,000.49	80.417	1,000.49	81.8308	1,000.49	80.2292	1,000.49	80.8707	1,000.49	81.0041	1,000.49	81.3116	1,000.49	82.4996	1,000.49	78.7396	1,000.49	81.3354	1,000.49	78.4455	1,000.49	78.993	1,000.49	78.2157	1,000.49	77.779	1,000.49	73.0139	1,000.49	73.6831	1,000.49	71.2132
1,035.64	87.0372	1,035.64	87.1874	1,035.64	86.9823	1,035.64	88.2099	1,035.64	87.9069	1,035.64	89.3579	1,035.64	89.0599	1,035.64	89.1644	1,035.64	88.9292	1,035.64	87.7601	1,035.64	87.9634	1,035.64	86.3824	1,035.64	86.7011	1,035.64	85.1558	1,035.64	84.0868	1,035.64	83.2	1,035.64	80.813	1,035.64	80.8406	1,035.64	80.4744	1,035.64	80.1591	1,035.64	80.631	1,035.64	80.5941	1,035.64	80.4537	1,035.64	80.244	1,035.64	80.5039	1,035.64	80.6226	1,035.64	79.5154	1,035.64	80.5267	1,035.64	78.7735	1,035.64	75.9931	1,035.64	77.2403	1,035.64	75.1479	1,035.64	75.2614	1,035.64	72.9615	1,035.64	73.0393	1,035.64	75.17
1,072.27	86.1915	1,072.27	86.8546	1,072.27	85.5593	1,072.27	87.8683	1,072.27	86.6873	1,072.27	88.7571	1,072.27	88.4693	1,072.27	88.8054	1,072.27	89.0011	1,072.27	88.284	1,072.27	88.526	1,072.27	87.1486	1,072.27	87.1602	1,072.27	84.6513	1,072.27	85.0243	1,072.27	81.2455	1,072.27	82.85	1,072.27	79.2277	1,072.27	80.188	1,072.27	80.6094	1,072.27	78.7014	1,072.27	81.3955	1,072.27	78.9782	1,072.27	81.2775	1,072.27	78.2299	1,072.27	82.1707	1,072.27	79.8788	1,072.27	79.6946	1,072.27	80.7697	1,072.27	77.3708	1,072.27	77.3947	1,072.27	75.2163	1,072.27	74.7613	1,072.27	71.6981	1,072.27	74.3602	1,072.27	74.7195
1,108.89	86.4672	1,108.89	86.4088	1,108.89	86.8475	1,108.89	87.3019	1,108.89	86.7951	1,108.89	87.9426	1,108.89	87.1794	1,108.89	88.4639	1,108.89	88.0957	1,108.89	88.4362	1,108.89	87.9223	1,108.89	86.9663	1,108.89	86.7433	1,108.89	84.7475	1,108.89	85.021	1,108.89	82.6547	1,108.89	81.7667	1,108.89	80.6688	1,108.89	78.1699	1,108.89	79.7085	1,108.89	77.3848	1,108.89	79.9722	1,108.89	77.8072	1,108.89	78.9545	1,108.89	77.989	1,108.89	78.1034	1,108.89	77.5221	1,108.89	79.2504	1,108.89	78.4291	1,108.89	77.2822	1,108.89	76.683	1,108.89	75.2535	1,108.89	75.3043	1,108.89	73.4042	1,108.89	74.7299	1,108.89	76.2254
1,148.44	86.971	1,148.44	86.0271	1,148.44	86.5868	1,148.44	86.0011	1,148.44	85.2871	1,148.44	87.1745	1,148.44	86.1976	1,148.44	88.1849	1,148.44	88.0998	1,148.44	88.1288	1,148.44	88.3671	1,148.44	86.7961	1,148.44	87.2976	1,148.44	84.5654	1,148.44	85.4998	1,148.44	82.0352	1,148.44	82.8627	1,148.44	78.6271	1,148.44	79.8304	1,148.44	77.4092	1,148.44	77.8957	1,148.44	80.5074	1,148.44	78.6204	1,148.44	80.6677	1,148.44	79.9082	1,148.44	79.8477	1,148.44	79.3785	1,148.44	79.0269	1,148.44	79.2223	1,148.44	75.5701	1,148.44	77.3313	1,148.44	75.0373	1,148.44	74.2805	1,148.44	74.0616	1,148.44	73.3661	1,148.44	76.112
1,189.45	87.2662	1,189.45	86.4199	1,189.45	86.6695	1,189.45	86.0767	1,189.45	85.9325	1,189.45	86.7359	1,189.45	87.3828	1,189.45	87.5126	1,189.45	88.2521	1,189.45	87.9357	1,189.45	87.9573	1,189.45	87.0837	1,189.45	87.1186	1,189.45	84.9564	1,189.45	85.3186	1,189.45	82.2882	1,189.45	83.3057	1,189.45	78.9791	1,189.45	81.1177	1,189.45	77.0979	1,189.45	77.3402	1,189.45	78.2872	1,189.45	78.7185	1,189.45	76.8839	1,189.45	79.6302	1,189.45	74.2262	1,189.45	77.4845	1,189.45	75.7128	1,189.45	78.4699	1,189.45	73.3327	1,189.45	76.6145	1,189.45	71.858	1,189.45	72.0387	1,189.45	74.7843	1,189.45	71.8382	1,189.45	76.7722
1,230.47	87.9985	1,230.47	86.7214	1,230.47	87.4713	1,230.47	85.6603	1,230.47	86.555	1,230.47	87.2511	1,230.47	87.0023	1,230.47	88.7152	1,230.47	88.3434	1,230.47	88.5721	1,230.47	88.9985	1,230.47	87.0006	1,230.47	88.1322	1,230.47	84.7397	1,230.47	86.2784	1,230.47	82.4139	1,230.47	83.7247	1,230.47	79.9101	1,230.47	80.9863	1,230.47	77.4679	1,230.47	78.947	1,230.47	76.6746	1,230.47	78.4899	1,230.47	79.2338	1,230.47	79.8757	1,230.47	80.052	1,230.47	78.9099	1,230.47	78.3237	1,230.47	78.7973	1,230.47	70.6885	1,230.47	77.4689	1,230.47	72.1031	1,230.47	72.4127	1,230.47	74.3355	1,230.47	73.8651	1,230.47	76.9453
1,274.41	88.6056	1,274.41	87.2754	1,274.41	87.9193	1,274.41	85.7651	1,274.41	86.3219	1,274.41	87.0559	1,274.41	86.8793	1,274.41	88.5451	1,274.41	88.558	1,274.41	88.4283	1,274.41	89.0702	1,274.41	87.1791	1,274.41	88.1528	1,274.41	85.1439	1,274.41	86.1061	1,274.41	82.3307	1,274.41	83.3308	1,274.41	80.3509	1,274.41	80.869	1,274.41	77.6416	1,274.41	78.5624	1,274.41	75.8467	1,274.41	76.4919	1,274.41	79.7641	1,274.41	80.2145	1,274.41	77.5846	1,274.41	79.1783	1,274.41	75.2536	1,274.41	77.0109	1,274.41	71.9758	1,274.41	75.4965	1,274.41	61.8953	1,274.41	66.7202	1,274.41	67.659	1,274.41	64.8288	1,274.41	73.9885
1,319.82	89.6899	1,319.82	88.6093	1,319.82	88.8769	1,319.82	86.5502	1,319.82	86.97	1,319.82	87.0522	1,319.82	87.2035	1,319.82	88.7214	1,319.82	88.7549	1,319.82	89.0049	1,319.82	88.9039	1,319.82	87.8149	1,319.82	88.0288	1,319.82	85.6819	1,319.82	86.0898	1,319.82	83.6063	1,319.82	83.531	1,319.82	80.9732	1,319.82	80.493	1,319.82	76.3937	1,319.82	79.6786	1,319.82	76.2531	1,319.82	77.8422	1,319.82	77.576	1,319.82	77.9351	1,319.82	76.3247	1,319.82	79.6662	1,319.82	77.9666	1,319.82	79.1588	1,319.82	71.9638	1,319.82	77.4588	1,319.82	55.2211	1,319.82	68.5512	1,319.82	69.2575	1,319.82	59.1073	1,319.82	74.8938
1,366.7	89.6771	1,366.7	88.8116	1,366.7	88.6608	1,366.7	87.5212	1,366.7	87.3272	1,366.7	87.681	1,366.7	87.8625	1,366.7	89.0388	1,366.7	89.1808	1,366.7	89.5053	1,366.7	89.6685	1,366.7	88.1019	1,366.7	88.2811	1,366.7	85.7458	1,366.7	85.9206	1,366.7	83.1097	1,366.7	83.2747	1,366.7	79.8784	1,366.7	80.764	1,366.7	78.7611	1,366.7	79.2949	1,366.7	77.9037	1,366.7	79.0055	1,366.7	79.0374	1,366.7	77.5479	1,366.7	79.2683	1,366.7	76.9573	1,366.7	77.1947	1,366.7	77.3775	1,366.7	77.9259	1,366.7	78.5527	1,366.7	68.6331	1,366.7	70.266	1,366.7	72.9634	1,366.7	71.9981	1,366.7	78.2413
1,413.57	90.0449	1,413.57	89.1476	1,413.57	89.1908	1,413.57	87.1604	1,413.57	87.7016	1,413.57	87.8802	1,413.57	87.3098	1,413.57	89.3244	1,413.57	89.1694	1,413.57	89.1057	1,413.57	89.6339	1,413.57	88.2361	1,413.57	88.5859	1,413.57	86.602	1,413.57	86.5921	1,413.57	82.925	1,413.57	83.9279	1,413.57	79.825	1,413.57	80.7497	1,413.57	79.9228	1,413.57	76.8989	1,413.57	79.8892	1,413.57	75.1493	1,413.57	80.2987	1,413.57	78.2228	1,413.57	79.3341	1,413.57	79.868	1,413.57	74.8038	1,413.57	77.2273	1,413.57	77.3074	1,413.57	77.5381	1,413.57	66.1186	1,413.57	68.7359	1,413.57	74.0241	1,413.57	70.0222	1,413.57	78.582
1,463.38	90.2116	1,463.38	89.5057	1,463.38	90.0128	1,463.38	87.8252	1,463.38	87.8293	1,463.38	87.3382	1,463.38	86.2969	1,463.38	88.8098	1,463.38	87.9823	1,463.38	88.8862	1,463.38	88.7008	1,463.38	87.7339	1,463.38	88.126	1,463.38	86.4111	1,463.38	86.1898	1,463.38	84.8145	1,463.38	84.0025	1,463.38	82.4759	1,463.38	81.5599	1,463.38	79.0597	1,463.38	76.875	1,463.38	77.1823	1,463.38	77.5706	1,463.38	79.1484	1,463.38	77.6437	1,463.38	79.4553	1,463.38	79.4337	1,463.38	75.4392	1,463.38	74.1881	1,463.38	74.0212	1,463.38	75.898	1,463.38	65.306	1,463.38	68.833	1,463.38	70.4571	1,463.38	66.6799	1,463.38	76.5276
1,516.11	89.8534	1,516.11	89.3548	1,516.11	89.3128	1,516.11	87.4156	1,516.11	87.7779	1,516.11	86.3061	1,516.11	85.2272	1,516.11	87.5384	1,516.11	85.9488	1,516.11	87.8275	1,516.11	87.5038	1,516.11	87.2077	1,516.11	87.3723	1,516.11	85.7635	1,516.11	86.3541	1,516.11	83.9906	1,516.11	84.042	1,516.11	81.6125	1,516.11	81.3685	1,516.11	79.7885	1,516.11	79.6887	1,516.11	77.6883	1,516.11	78.1034	1,516.11	78.9522	1,516.11	78.3538	1,516.11	80.2372	1,516.11	77.2557	1,516.11	75.7942	1,516.11	73.988	1,516.11	71.6992	1,516.11	73.3063	1,516.11	62.6969	1,516.11	61.8361	1,516.11	67.0614	1,516.11	48.1957	1,516.11	75.2184
1,568.85	88.9007	1,568.85	88.8771	1,568.85	89.1898	1,568.85	87.468	1,568.85	88.549	1,568.85	85.0639	1,568.85	85.6028	1,568.85	86.1824	1,568.85	85.6695	1,568.85	87.5169	1,568.85	87.1028	1,568.85	87.3285	1,568.85	87.6361	1,568.85	85.655	1,568.85	86.3115	1,568.85	83.4947	1,568.85	84.2834	1,568.85	81.9006	1,568.85	82.7789	1,568.85	78.8692	1,568.85	80.3266	1,568.85	76.6433	1,568.85	77.9791	1,568.85	77.8961	1,568.85	78.328	1,568.85	78.3237	1,568.85	77.8879	1,568.85	72.8705	1,568.85	76.1436	1,568.85	71.5846	1,568.85	70.6763	1,568.85	67.975	1,568.85	67.1552	1,568.85	66.8195	1,568.85	65.4271	1,568.85	75.4555
1,624.51	89.6274	1,624.51	90.2157	1,624.51	90.0052	1,624.51	88.7268	1,624.51	89.7275	1,624.51	85.2081	1,624.51	86.8028	1,624.51	86.0846	1,624.51	86.7456	1,624.51	88.4004	1,624.51	88.5317	1,624.51	88.5378	1,624.51	88.9769	1,624.51	86.6074	1,624.51	87.5008	1,624.51	83.7029	1,624.51	85.6745	1,624.51	80.6148	1,624.51	83.3263	1,624.51	79.1754	1,624.51	81.0245	1,624.51	76.2617	1,624.51	78.7907	1,624.51	77.79	1,624.51	78.3522	1,624.51	79.6713	1,624.51	78.8771	1,624.51	74.5181	1,624.51	78.0657	1,624.51	73.8629	1,624.51	73.6358	1,624.51	63.6261	1,624.51	53.0103	1,624.51	67.719	1,624.51	71.5747	1,624.51	74.4592
1,681.64	90.2007	1,681.64	90.8705	1,681.64	90.4112	1,681.64	89.5509	1,681.64	90.1083	1,681.64	86.7243	1,681.64	87.8715	1,681.64	86.6155	1,681.64	87.2868	1,681.64	89.1966	1,681.64	89.3887	1,681.64	88.9056	1,681.64	89.8957	1,681.64	87.8735	1,681.64	88.6612	1,681.64	84.3816	1,681.64	86.519	1,681.64	81.5748	1,681.64	82.3874	1,681.64	78.68	1,681.64	80.8674	1,681.64	77.3024	1,681.64	79.4485	1,681.64	77.9187	1,681.64	77.8359	1,681.64	76.0966	1,681.64	79.5292	1,681.64	73.9802	1,681.64	78.651	1,681.64	71.5218	1,681.64	66.8025	1,681.64	70.8086	1,681.64	62.2019	1,681.64	68.0498	1,681.64	72.6325	1,681.64	76.752
1,741.7	90.3206	1,741.7	90.8865	1,741.7	90.9423	1,741.7	90.3614	1,741.7	90.0644	1,741.7	87.824	1,741.7	87.6831	1,741.7	88.2313	1,741.7	87.6874	1,741.7	89.9442	1,741.7	90.0374	1,741.7	90.5604	1,741.7	89.9579	1,741.7	88.3358	1,741.7	88.6852	1,741.7	85.8345	1,741.7	85.7905	1,741.7	82.7012	1,741.7	81.8308	1,741.7	80.6354	1,741.7	79.4188	1,741.7	77.2004	1,741.7	78.8999	1,741.7	76.7445	1,741.7	78.2096	1,741.7	76.312	1,741.7	77.8165	1,741.7	72.677	1,741.7	77.2832	1,741.7	67.0062	1,741.7	70.284	1,741.7	67.0074	1,741.7	67.5566	1,741.7	69.1963	1,741.7	72.9003	1,741.7	73.3282
1,803.22	90.5992	1,803.22	91.1221	1,803.22	90.822	1,803.22	89.8791	1,803.22	89.7947	1,803.22	88.0797	1,803.22	87.5918	1,803.22	88.2481	1,803.22	86.7489	1,803.22	89.9795	1,803.22	89.0916	1,803.22	89.8038	1,803.22	89.2886	1,803.22	87.8939	1,803.22	87.0089	1,803.22	85.5518	1,803.22	85.0923	1,803.22	82.6884	1,803.22	82.5891	1,803.22	79.5927	1,803.22	79.3401	1,803.22	79.4747	1,803.22	77.1403	1,803.22	78.2215	1,803.22	77.0032	1,803.22	75.0161	1,803.22	76.3653	1,803.22	70.1238	1,803.22	73.7056	1,803.22	66.0837	1,803.22	68.4984	1,803.22	68.342	1,803.22	57.7544	1,803.22	67.8591	1,803.22	71.1511	1,803.22	62.7713
1,866.21	89.7783	1,866.21	89.8414	1,866.21	89.8932	1,866.21	88.862	1,866.21	89.5324	1,866.21	87.6357	1,866.21	87.5056	1,866.21	87.8474	1,866.21	86.0657	1,866.21	89.1701	1,866.21	87.8914	1,866.21	89.1166	1,866.21	88.4727	1,866.21	86.9181	1,866.21	86.9964	1,866.21	84.7034	1,866.21	84.6022	1,866.21	82.2567	1,866.21	80.688	1,866.21	78.6076	1,866.21	78.4092	1,866.21	78.2112	1,866.21	77.3149	1,866.21	78.5811	1,866.21	75.8836	1,866.21	78.0893	1,866.21	74.5406	1,866.21	68.4536	1,866.21	71.0604	1,866.21	71.244	1,866.21	67.5638	1,866.21	66.1255	1,866.21	65.9069	1,866.21	67.1862	1,866.21	69.9244	1,866.21	70.1451
1,932.13	89.9949	1,932.13	89.5595	1,932.13	89.493	1,932.13	88.7856	1,932.13	89.7679	1,932.13	88.0642	1,932.13	88.8728	1,932.13	86.9332	1,932.13	87.4176	1,932.13	88.5565	1,932.13	87.6319	1,932.13	87.7831	1,932.13	88.4293	1,932.13	85.4869	1,932.13	87.0462	1,932.13	82.6857	1,932.13	83.9982	1,932.13	80.9516	1,932.13	81.2162	1,932.13	79.1522	1,932.13	79.0706	1,932.13	76.8485	1,932.13	77.2847	1,932.13	76.5721	1,932.13	76.814	1,932.13	77.0434	1,932.13	76.3547	1,932.13	74.7842	1,932.13	72.1359	1,932.13	68.1345	1,932.13	67.5713	1,932.13	70.9069	1,932.13	71.4988	1,932.13	67.6128	1,932.13	73.4311	1,932.13	69.1987
1,999.51	90.9787	1,999.51	89.923	1,999.51	89.9869	1,999.51	90.0233	1,999.51	90.3908	1,999.51	89.2109	1,999.51	90.5746	1,999.51	86.2452	1,999.51	88.4744	1,999.51	87.8318	1,999.51	88.3736	1,999.51	87.5512	1,999.51	89.0045	1,999.51	86.0632	1,999.51	87.401	1,999.51	83.0641	1,999.51	85.428	1,999.51	80.4782	1,999.51	82.4165	1,999.51	77.8169	1,999.51	80.1462	1,999.51	77.1793	1,999.51	77.597	1,999.51	75.7699	1,999.51	77.9587	1,999.51	75.4288	1,999.51	76.8849	1,999.51	71.2099	1,999.51	69.0362	1,999.51	68.5351	1,999.51	70.8375	1,999.51	71.0933	1,999.51	69.6576	1,999.51	72.9457	1,999.51	73.4817	1,999.51	65.5267
2,069.82	91.664	2,069.82	90.4177	2,069.82	90.6254	2,069.82	91.1809	2,069.82	91.0069	2,069.82	90.3694	2,069.82	91.2672	2,069.82	87.0127	2,069.82	88.4857	2,069.82	87.9389	2,069.82	88.274	2,069.82	88.413	2,069.82	88.9538	2,069.82	87.1911	2,069.82	87.8462	2,069.82	83.8476	2,069.82	85.5569	2,069.82	80.8922	2,069.82	82.9838	2,069.82	77.7971	2,069.82	80.089	2,069.82	74.0971	2,069.82	78.7111	2,069.82	75.1443	2,069.82	77.8526	2,069.82	72.7937	2,069.82	76.5188	2,069.82	70.136	2,069.82	73.236	2,069.82	71.3278	2,069.82	72.7968	2,069.82	68.9984	2,069.82	72.4939	2,069.82	67.5765	2,069.82	70.266	2,069.82	70.282
2,143.07	90.8783	2,143.07	89.8078	2,143.07	90.3011	2,143.07	90.8141	2,143.07	90.7447	2,143.07	90.3501	2,143.07	90.3762	2,143.07	87.4644	2,143.07	87.1507	2,143.07	87.9201	2,143.07	87.5429	2,143.07	89.1963	2,143.07	88.886	2,143.07	87.6692	2,143.07	87.8438	2,143.07	84.699	2,143.07	84.5282	2,143.07	81.7602	2,143.07	81.4823	2,143.07	78.4395	2,143.07	79.1907	2,143.07	77.0008	2,143.07	75.4546	2,143.07	73.7793	2,143.07	76.0642	2,143.07	73.7761	2,143.07	73.9924	2,143.07	61.7793	2,143.07	65.4275	2,143.07	70.9775	2,143.07	71.4831	2,143.07	70.6316	2,143.07	71.4569	2,143.07	61.1202	2,143.07	64.9706	2,143.07	69.8325
2,219.24	89.0294	2,219.24	88.6463	2,219.24	88.7034	2,219.24	89.554	2,219.24	89.3518	2,219.24	89.1768	2,219.24	88.7731	2,219.24	86.0119	2,219.24	85.6837	2,219.24	87.0761	2,219.24	85.621	2,219.24	87.8898	2,219.24	87.5028	2,219.24	87.0332	2,219.24	86.7282	2,219.24	83.7156	2,219.24	83.9414	2,219.24	80.9134	2,219.24	79.1408	2,219.24	78.384	2,219.24	77.6726	2,219.24	78.1905	2,219.24	76.2368	2,219.24	74.4326	2,219.24	70.5841	2,219.24	70.776	2,219.24	70.6324	2,219.24	65.193	2,219.24	63.6831	2,219.24	71.3501	2,219.24	68.675	2,219.24	71.9984	2,219.24	70.6138	2,219.24	63.3645	2,219.24	63.6903	2,219.24	71.8492
2,296.88	88.1391	2,296.88	88.9135	2,296.88	88.4728	2,296.88	89.0768	2,296.88	89.4353	2,296.88	88.0441	2,296.88	88.7781	2,296.88	84.8798	2,296.88	86.4823	2,296.88	85.9679	2,296.88	86.0029	2,296.88	87.7941	2,296.88	88.1679	2,296.88	86.7569	2,296.88	86.3446	2,296.88	82.8424	2,296.88	84.0112	2,296.88	79.5654	2,296.88	81.024	2,296.88	78.442	2,296.88	79.4654	2,296.88	77.5001	2,296.88	77.4115	2,296.88	74.5348	2,296.88	74.2074	2,296.88	70.7307	2,296.88	71.5771	2,296.88	65.3549	2,296.88	67.4331	2,296.88	72.7255	2,296.88	73.9022	2,296.88	67.9125	2,296.88	66.7608	2,296.88	53.0918	2,296.88	61.2531	2,296.88	65.2636
2,378.91	88.1407	2,378.91	89.6637	2,378.91	89.635	2,378.91	89.3444	2,378.91	90.073	2,378.91	88.8726	2,378.91	89.585	2,378.91	86.187	2,378.91	88.5589	2,378.91	85.5362	2,378.91	86.7438	2,378.91	87.3482	2,378.91	88.6081	2,378.91	85.9195	2,378.91	87.6927	2,378.91	83.0317	2,378.91	85.0894	2,378.91	78.2492	2,378.91	81.3796	2,378.91	76.2921	2,378.91	79.0665	2,378.91	74.8058	2,378.91	77.8404	2,378.91	73.346	2,378.91	76.3381	2,378.91	70.7505	2,378.91	70.7689	2,378.91	69.5641	2,378.91	69.4314	2,378.91	73.4025	2,378.91	75.756	2,378.91	66.8228	2,378.91	68.1373	2,378.91	64.1805	2,378.91	64.1452	2,378.91	69.1089
2,462.4	89.1737	2,462.4	90.9136	2,462.4	90.8668	2,462.4	90.5563	2,462.4	91.019	2,462.4	90.3985	2,462.4	90.7556	2,462.4	88.7002	2,462.4	89.5069	2,462.4	86.5568	2,462.4	87.5544	2,462.4	87.9481	2,462.4	88.8629	2,462.4	86.7866	2,462.4	88.0051	2,462.4	84.1666	2,462.4	85.761	2,462.4	80.5558	2,462.4	81.8704	2,462.4	75.9286	2,462.4	77.9698	2,462.4	74.9133	2,462.4	77.2855	2,462.4	74.7663	2,462.4	76.0515	2,462.4	61.6874	2,462.4	67.3839	2,462.4	71.7194	2,462.4	68.2854	2,462.4	74.7337	2,462.4	74.941	2,462.4	63.4733	2,462.4	67.0171	2,462.4	69.3112	2,462.4	64.8532	2,462.4	66.3885
2,548.83	88.7742	2,548.83	90.5525	2,548.83	90.383	2,548.83	89.9998	2,548.83	90.2531	2,548.83	90.5834	2,548.83	90.5928	2,548.83	89.2512	2,548.83	89.2596	2,548.83	87.511	2,548.83	86.5871	2,548.83	87.8179	2,548.83	87.3611	2,548.83	86.4584	2,548.83	86.8018	2,548.83	84.1168	2,548.83	84.2491	2,548.83	81.2681	2,548.83	80.9814	2,548.83	78.2335	2,548.83	76.5265	2,548.83	75.9128	2,548.83	73.3203	2,548.83	72.9957	2,548.83	74.985	2,548.83	62.2183	2,548.83	68.8923	2,548.83	70.3552	2,548.83	68.9555	2,548.83	73.1445	2,548.83	72.8555	2,548.83	61.4242	2,548.83	67.8609	2,548.83	68.9963	2,548.83	63.1365	2,548.83	67.2621
2,639.65	86.9454	2,639.65	88.5264	2,639.65	88.4467	2,639.65	88.7845	2,639.65	87.8494	2,639.65	89.4222	2,639.65	89.209	2,639.65	88.3161	2,639.65	88.8459	2,639.65	87.0168	2,639.65	85.7487	2,639.65	87.2166	2,639.65	86.2942	2,639.65	85.7108	2,639.65	85.2814	2,639.65	82.1393	2,639.65	81.9872	2,639.65	79.3599	2,639.65	79.2665	2,639.65	76.9743	2,639.65	76.5754	2,639.65	74.5828	2,639.65	74.4767	2,639.65	74.8983	2,639.65	72.1072	2,639.65	65.2288	2,639.65	69.5884	2,639.65	70.6441	2,639.65	63.92	2,639.65	74.7744	2,639.65	74.0463	2,639.65	60.015	2,639.65	57.621	2,639.65	67.6905	2,639.65	65.5919	2,639.65	62.0796
2,731.93	87.4345	2,731.93	87.5239	2,731.93	87.2885	2,731.93	88.1608	2,731.93	87.6836	2,731.93	89.0878	2,731.93	88.6078	2,731.93	87.3308	2,731.93	88.6187	2,731.93	85.3436	2,731.93	86.1276	2,731.93	86.211	2,731.93	86.0218	2,731.93	84.5972	2,731.93	85.2608	2,731.93	81.9223	2,731.93	82.2733	2,731.93	77.3109	2,731.93	78.6253	2,731.93	75.4644	2,731.93	76.4454	2,731.93	74.8604	2,731.93	74.7222	2,731.93	72.5459	2,731.93	73.4863	2,731.93	65.747	2,731.93	70.1437	2,731.93	71.32	2,731.93	67.3982	2,731.93	72.3431	2,731.93	75.1234	2,731.93	61.8849	2,731.93	66.0258	2,731.93	65.689	2,731.93	63.923	2,731.93	58.2073
2,828.61	88.4758	2,828.61	87.3209	2,828.61	87.0455	2,828.61	88.6306	2,828.61	88.7734	2,828.61	89.891	2,828.61	89.5415	2,828.61	88.3494	2,828.61	88.8804	2,828.61	85.2972	2,828.61	86.2108	2,828.61	86.0332	2,828.61	86.045	2,828.61	85.0958	2,828.61	86.4073	2,828.61	82.2496	2,828.61	84.0955	2,828.61	77.7565	2,828.61	80.6219	2,828.61	74.9795	2,828.61	77.081	2,828.61	73.6633	2,828.61	76.5687	2,828.61	75.1845	2,828.61	76.1272	2,828.61	66.9073	2,828.61	68.3146	2,828.61	67.5939	2,828.61	65.8475	2,828.61	74.5427	2,828.61	75.0199	2,828.61	63.1617	2,828.61	60.3684	2,828.61	64.8875	2,828.61	68.2871	2,828.61	63.122
2,928.22	88.7714	2,928.22	86.9442	2,928.22	87.2999	2,928.22	88.3644	2,928.22	88.6669	2,928.22	89.7777	2,928.22	89.8311	2,928.22	88.9869	2,928.22	89.4595	2,928.22	86.0499	2,928.22	86.5183	2,928.22	86.5736	2,928.22	86.8763	2,928.22	86.3077	2,928.22	86.6471	2,928.22	83.7626	2,928.22	85.1541	2,928.22	78.7158	2,928.22	81.6581	2,928.22	77.1022	2,928.22	77.2873	2,928.22	75.6077	2,928.22	77.0282	2,928.22	73.3238	2,928.22	75.7706	2,928.22	67.2165	2,928.22	67.1248	2,928.22	71.8017	2,928.22	67.874	2,928.22	72.8809	2,928.22	74.3658	2,928.22	63.1698	2,928.22	61.7697	2,928.22	53.7572	2,928.22	59.2445	2,928.22	67.8311
3,030.76	88.6466	3,030.76	87.3275	3,030.76	87.246	3,030.76	87.9301	3,030.76	88.0304	3,030.76	89.3289	3,030.76	88.7469	3,030.76	89.0947	3,030.76	88.8333	3,030.76	86.4773	3,030.76	86.8266	3,030.76	86.8373	3,030.76	87.125	3,030.76	86.655	3,030.76	86.9505	3,030.76	83.4309	3,030.76	84.1735	3,030.76	80.8061	3,030.76	80.2023	3,030.76	77.476	3,030.76	77.6599	3,030.76	76.2697	3,030.76	74.2415	3,030.76	74.6497	3,030.76	74.381	3,030.76	59.4641	3,030.76	66.987	3,030.76	71.6236	3,030.76	68.7513	3,030.76	73.5948	3,030.76	73.6452	3,030.76	63.0172	3,030.76	61.9539	3,030.76	61.7646	3,030.76	65.1733	3,030.76	65.8565
3,137.7	88.8125	3,137.7	87.08	3,137.7	87.5817	3,137.7	88.022	3,137.7	87.0991	3,137.7	88.0147	3,137.7	87.8197	3,137.7	88.1593	3,137.7	87.9891	3,137.7	86.6911	3,137.7	86.3887	3,137.7	87.3666	3,137.7	87.1903	3,137.7	86.3466	3,137.7	86.6222	3,137.7	83.6261	3,137.7	83.4683	3,137.7	80.6451	3,137.7	80.234	3,137.7	77.5392	3,137.7	77.218	3,137.7	75.0791	3,137.7	75.3782	3,137.7	73.14	3,137.7	73.3113	3,137.7	65.5203	3,137.7	67.9089	3,137.7	70.9133	3,137.7	66.9937	3,137.7	72.4261	3,137.7	72.6072	3,137.7	64.7053	3,137.7	59.2854	3,137.7	63.8742	3,137.7	67.4651	3,137.7	67.1711
3,249.02	88.0726	3,249.02	87.3708	3,249.02	87.5615	3,249.02	87.145	3,249.02	86.9394	3,249.02	87.0808	3,249.02	86.9063	3,249.02	87.6347	3,249.02	87.412	3,249.02	85.9047	3,249.02	86.1988	3,249.02	86.6373	3,249.02	86.2042	3,249.02	85.323	3,249.02	85.7884	3,249.02	81.7532	3,249.02	83.7234	3,249.02	79.5751	3,249.02	80.0132	3,249.02	76.9413	3,249.02	75.5168	3,249.02	75.9407	3,249.02	74.9898	3,249.02	72.5213	3,249.02	73.3227	3,249.02	67.6776	3,249.02	65.4724	3,249.02	70.6489	3,249.02	67.8884	3,249.02	69.9335	3,249.02	70.2954	3,249.02	63.4142	3,249.02	52.1563	3,249.02	59.2838	3,249.02	64.7843	3,249.02	69.8975
3,363.28	87.6535	3,363.28	88.3237	3,363.28	88.7494	3,363.28	86.6126	3,363.28	86.4886	3,363.28	85.3072	3,363.28	85.8584	3,363.28	86.611	3,363.28	87.0087	3,363.28	84.933	3,363.28	86.071	3,363.28	85.0892	3,363.28	85.2503	3,363.28	85.0151	3,363.28	85.656	3,363.28	81.9918	3,363.28	82.907	3,363.28	77.6207	3,363.28	78.1983	3,363.28	74.7393	3,363.28	75.7741	3,363.28	74.2897	3,363.28	74.5904	3,363.28	73.2715	3,363.28	71.2711	3,363.28	66.9737	3,363.28	67.5508	3,363.28	70.7073	3,363.28	69.2195	3,363.28	63.3013	3,363.28	66.6811	3,363.28	65.6388	3,363.28	62.8076	3,363.28	67.0513	3,363.28	66.6735	3,363.28	68.1944
3,481.93	87.6419	3,481.93	88.892	3,481.93	87.8752	3,481.93	86.9499	3,481.93	87.281	3,481.93	86.4836	3,481.93	85.1044	3,481.93	87.7788	3,481.93	86.8211	3,481.93	84.398	3,481.93	84.3091	3,481.93	85.3481	3,481.93	84.1973	3,481.93	85.5662	3,481.93	85.5793	3,481.93	82.5175	3,481.93	83.6815	3,481.93	79.3928	3,481.93	78.7767	3,481.93	75.4267	3,481.93	76.9065	3,481.93	75.4968	3,481.93	75.194	3,481.93	70.468	3,481.93	73.5154	3,481.93	68.0586	3,481.93	69.1383	3,481.93	69.8923	3,481.93	66.1969	3,481.93	58.9192	3,481.93	64.5999	3,481.93	65.1352	3,481.93	62.2601	3,481.93	65.9359	3,481.93	69.3105	3,481.93	66.654
3,604.98	87.5187	3,604.98	89.1351	3,604.98	89.0426	3,604.98	86.2628	3,604.98	87.0648	3,604.98	86.5345	3,604.98	87.0635	3,604.98	87.7289	3,604.98	87.6476	3,604.98	84.7336	3,604.98	85.0769	3,604.98	85.5333	3,604.98	85.4484	3,604.98	85.3571	3,604.98	85.978	3,604.98	82.4741	3,604.98	83.4829	3,604.98	77.6844	3,604.98	81.0207	3,604.98	74.9597	3,604.98	78.1816	3,604.98	73.5796	3,604.98	77.021	3,604.98	73.6334	3,604.98	75.2462	3,604.98	63.423	3,604.98	68.7921	3,604.98	66.8547	3,604.98	67.7183	3,604.98	46.7129	3,604.98	62.6334	3,604.98	65.8947	3,604.98	66.928	3,604.98	67.3585	3,604.98	66.8266	3,604.98	66.9518
3,732.42	88.6138	3,732.42	89.1157	3,732.42	89.0802	3,732.42	86.8756	3,732.42	87.0155	3,732.42	87.5418	3,732.42	87.8894	3,732.42	87.6834	3,732.42	87.0054	3,732.42	85.7972	3,732.42	85.7646	3,732.42	85.729	3,732.42	85.5012	3,732.42	85.0989	3,732.42	85.8556	3,732.42	82.7084	3,732.42	82.8938	3,732.42	77.71	3,732.42	79.6887	3,732.42	75.8883	3,732.42	75.6692	3,732.42	74.8409	3,732.42	73.0386	3,732.42	73.5415	3,732.42	73.6375	3,732.42	60.076	3,732.42	68.8651	3,732.42	66.2816	3,732.42	69.3379	3,732.42	49.5892	3,732.42	55.5463	3,732.42	64.8415	3,732.42	69.6912	3,732.42	68.5211	3,732.42	65.7964	3,732.42	66.9014
3,864.26	87.3393	3,864.26	87.4242	3,864.26	87.3811	3,864.26	85.5089	3,864.26	85.3875	3,864.26	86.0569	3,864.26	85.8411	3,864.26	85.8109	3,864.26	85.7304	3,864.26	84.8869	3,864.26	86.3427	3,864.26	85.3518	3,864.26	83.3884	3,864.26	85.7045	3,864.26	84.8427	3,864.26	83.0741	3,864.26	81.7815	3,864.26	78.4619	3,864.26	78.881	3,864.26	75.9617	3,864.26	73.7862	3,864.26	73.4821	3,864.26	74.341	3,864.26	74.368	3,864.26	74.0663	3,864.26	57.042	3,864.26	60.4917	3,864.26	65.2184	3,864.26	64.9601	3,864.26	59.3346	3,864.26	38.2458	3,864.26	65.3214	3,864.26	68.2845	3,864.26	66.8693	3,864.26	63.8268	3,864.26	63.8553
4,000.49	87.4615	4,000.49	86.1578	4,000.49	86.1197	4,000.49	87.1156	4,000.49	86.7292	4,000.49	84.3402	4,000.49	84.9095	4,000.49	84.3397	4,000.49	84.5906	4,000.49	83.9769	4,000.49	86.1413	4,000.49	83.4001	4,000.49	84.1998	4,000.49	85.4623	4,000.49	85.776	4,000.49	81.6481	4,000.49	83.06	4,000.49	78.3209	4,000.49	79.2461	4,000.49	75.01	4,000.49	76.5335	4,000.49	74.2706	4,000.49	74.6929	4,000.49	73.334	4,000.49	75.752	4,000.49	48.8596	4,000.49	56.6514	4,000.49	65.5295	4,000.49	67.3	4,000.49	62.9057	4,000.49	56.7777	4,000.49	65.6466	4,000.49	67.6959	4,000.49	63.1847	4,000.49	60.2347	4,000.49	62.3677
4,141.11	88.536	4,141.11	86.2725	4,141.11	85.6948	4,141.11	87.7818	4,141.11	88.0708	4,141.11	84.7296	4,141.11	84.1655	4,141.11	85.5158	4,141.11	85.1175	4,141.11	85.5471	4,141.11	86.5202	4,141.11	84.1316	4,141.11	84.1137	4,141.11	85.607	4,141.11	86.1487	4,141.11	82.2099	4,141.11	83.5621	4,141.11	77.6825	4,141.11	77.3147	4,141.11	73.3128	4,141.11	75.5556	4,141.11	70.7908	4,141.11	71.8229	4,141.11	70.8881	4,141.11	72.5941	4,141.11	58.3813	4,141.11	59.9679	4,141.11	64.7719	4,141.11	68.131	4,141.11	63.6111	4,141.11	63.234	4,141.11	64.9709	4,141.11	64.9651	4,141.11	66.1502	4,141.11	63.347	4,141.11	57.7561
4,287.6	88.8297	4,287.6	86.7534	4,287.6	86.4019	4,287.6	87.4778	4,287.6	87.4684	4,287.6	85.4038	4,287.6	84.4891	4,287.6	87.0728	4,287.6	85.249	4,287.6	86.5176	4,287.6	85.1072	4,287.6	84.5289	4,287.6	83.8645	4,287.6	83.3287	4,287.6	84.6267	4,287.6	79.7258	4,287.6	82.1976	4,287.6	76.8007	4,287.6	77.3684	4,287.6	72.5915	4,287.6	74.2676	4,287.6	73.221	4,287.6	70.8481	4,287.6	71.5807	4,287.6	71.8856	4,287.6	59.9934	4,287.6	47.8279	4,287.6	59.5739	4,287.6	65.6221	4,287.6	64.627	4,287.6	63.2744	4,287.6	63.2361	4,287.6	65.8449	4,287.6	66.8659	4,287.6	60.792	4,287.6	49.2994
4,438.48	88.0659	4,438.48	88.3567	4,438.48	89.3268	4,438.48	87.052	4,438.48	86.6768	4,438.48	86.7942	4,438.48	86.5226	4,438.48	87.3341	4,438.48	86.1312	4,438.48	86.9828	4,438.48	85.5842	4,438.48	84.4479	4,438.48	83.5257	4,438.48	82.5235	4,438.48	84.0844	4,438.48	81.2062	4,438.48	80.4599	4,438.48	74.2784	4,438.48	77.5538	4,438.48	72.0202	4,438.48	71.6441	4,438.48	73.6353	4,438.48	73.0546	4,438.48	72.3193	4,438.48	70.2082	4,438.48	51.2819	4,438.48	62.0404	4,438.48	63.2495	4,438.48	59.9509	4,438.48	66.2214	4,438.48	62.998	4,438.48	65.4738	4,438.48	67.8403	4,438.48	63.1802	4,438.48	63.1706	4,438.48	53.1261
4,595.21	89.0228	4,595.21	88.5299	4,595.21	89.2526	4,595.21	86.8838	4,595.21	86.8152	4,595.21	85.4285	4,595.21	86.9889	4,595.21	85.6836	4,595.21	86.2476	4,595.21	85.7247	4,595.21	86.6815	4,595.21	82.7795	4,595.21	82.8491	4,595.21	84.5651	4,595.21	83.4233	4,595.21	82.2126	4,595.21	82.5292	4,595.21	77.6085	4,595.21	76.1195	4,595.21	72.5602	4,595.21	73.0006	4,595.21	71.1193	4,595.21	71.8107	4,595.21	69.3602	4,595.21	72.3823	4,595.21	62.1711	4,595.21	62.7054	4,595.21	63.8841	4,595.21	56.4228	4,595.21	63.8544	4,595.21	59.3213	4,595.21	64.685	4,595.21	67.1241	4,595.21	66.2348	4,595.21	57.6783	4,595.21	62.8898
4,756.35	90.1165	4,756.35	89.6408	4,756.35	90.0171	4,756.35	87.9982	4,756.35	88.2984	4,756.35	87.4642	4,756.35	88.3528	4,756.35	85.1596	4,756.35	86.659	4,756.35	86.1972	4,756.35	86.824	4,756.35	82.3826	4,756.35	83.2629	4,756.35	85.6561	4,756.35	84.9644	4,756.35	81.0368	4,756.35	83.2461	4,756.35	77.1258	4,756.35	78.6681	4,756.35	72.1111	4,756.35	74.815	4,756.35	72.8712	4,756.35	73.3841	4,756.35	72.0836	4,756.35	71.8489	4,756.35	59.3241	4,756.35	59.8946	4,756.35	65.8196	4,756.35	63.7897	4,756.35	61.1492	4,756.35	61.0633	4,756.35	60.7654	4,756.35	65.037	4,756.35	58.2384	4,756.35	64.2307	4,756.35	59.1681
4,924.8	89.9538	4,924.8	89.9114	4,924.8	90.3411	4,924.8	89.253	4,924.8	89.6706	4,924.8	88.6582	4,924.8	89.1158	4,924.8	87.232	4,924.8	86.5577	4,924.8	86.6505	4,924.8	85.3451	4,924.8	85.758	4,924.8	83.9561	4,924.8	84.8866	4,924.8	84.7638	4,924.8	82.3514	4,924.8	82.6261	4,924.8	77.1035	4,924.8	76.2601	4,924.8	71.2484	4,924.8	73.8395	4,924.8	71.7428	4,924.8	71.9679	4,924.8	72.2586	4,924.8	70.6271	4,924.8	52.7323	4,924.8	58.8465	4,924.8	67.4361	4,924.8	57.2653	4,924.8	66.2384	4,924.8	64.1127	4,924.8	63.052	4,924.8	64.284	4,924.8	65.6136	4,924.8	64.2468	4,924.8	41.6692
5,097.66	89.4848	5,097.66	89.6536	5,097.66	90.4173	5,097.66	89.8281	5,097.66	89.5464	5,097.66	88.0006	5,097.66	89.0529	5,097.66	86.6817	5,097.66	86.1782	5,097.66	86.0469	5,097.66	86.7572	5,097.66	83.649	5,097.66	83.9351	5,097.66	84.0673	5,097.66	83.6703	5,097.66	81.8281	5,097.66	81.8167	5,097.66	76.7735	5,097.66	78.6045	5,097.66	73.728	5,097.66	73.2336	5,097.66	75.6843	5,097.66	73.4189	5,097.66	68.4281	5,097.66	71.7835	5,097.66	63.4721	5,097.66	58.3288	5,097.66	65.5244	5,097.66	62.5216	5,097.66	63.4735	5,097.66	64.2032	5,097.66	64.9809	5,097.66	66.0751	5,097.66	65.4777	5,097.66	62.7336	5,097.66	53.6993
5,277.83	90.0665	5,277.83	89.7349	5,277.83	89.7528	5,277.83	89.87	5,277.83	89.4288	5,277.83	88.6481	5,277.83	88.9426	5,277.83	84.7421	5,277.83	86.318	5,277.83	87.0491	5,277.83	87.0383	5,277.83	82.6405	5,277.83	83.6367	5,277.83	85.2206	5,277.83	83.3532	5,277.83	81.8444	5,277.83	82.2602	5,277.83	73.7642	5,277.83	78.8722	5,277.83	71.9837	5,277.83	73.5229	5,277.83	74.3104	5,277.83	73.4495	5,277.83	71.2395	5,277.83	70.6397	5,277.83	59.475	5,277.83	57.6542	5,277.83	63.6873	5,277.83	63.2555	5,277.83	61.5597	5,277.83	63.6637	5,277.83	63.7515	5,277.83	64.7621	5,277.83	43.1578	5,277.83	60.3344	5,277.83	49.8418
5,463.87	90.2689	5,463.87	89.5506	5,463.87	89.7403	5,463.87	89.0565	5,463.87	90.8002	5,463.87	89.091	5,463.87	89.2422	5,463.87	84.3552	5,463.87	86.5863	5,463.87	85.8288	5,463.87	86.1868	5,463.87	83.5268	5,463.87	83.796	5,463.87	84.6553	5,463.87	83.4162	5,463.87	80.085	5,463.87	82.1305	5,463.87	75.8813	5,463.87	76.618	5,463.87	74.6609	5,463.87	72.0995	5,463.87	72.349	5,463.87	72.3451	5,463.87	68.4108	5,463.87	68.053	5,463.87	61.2362	5,463.87	48.3869	5,463.87	67.2716	5,463.87	68.469	5,463.87	68.5591	5,463.87	64.3557	5,463.87	61.7094	5,463.87	65.2244	5,463.87	59.0914	5,463.87	51.6717	5,463.87	57.11
5,657.23	89.4453	5,657.23	89.5929	5,657.23	89.3492	5,657.23	89.921	5,657.23	90.2983	5,657.23	88.3284	5,657.23	88.9098	5,657.23	86.5781	5,657.23	86.0863	5,657.23	84.9799	5,657.23	84.0309	5,657.23	83.7504	5,657.23	84.0169	5,657.23	83.9231	5,657.23	83.0864	5,657.23	79.2263	5,657.23	80.1733	5,657.23	73.6807	5,657.23	76.546	5,657.23	71.3808	5,657.23	73.9705	5,657.23	73.5322	5,657.23	70.9564	5,657.23	66.7046	5,657.23	66.9627	5,657.23	53.0517	5,657.23	60.8975	5,657.23	60.196	5,657.23	61.0597	5,657.23	66.2782	5,657.23	65.8062	5,657.23	61.5155	5,657.23	57.9553	5,657.23	61.1972	5,657.23	58.1201	5,657.23	50.68
5,856.45	88.4323	5,856.45	89.007	5,856.45	89.6328	5,856.45	89.5235	5,856.45	89.465	5,856.45	87.5238	5,856.45	88.1849	5,856.45	85.651	5,856.45	86.4533	5,856.45	83.7961	5,856.45	84.548	5,856.45	80.6039	5,856.45	82.902	5,856.45	82.2278	5,856.45	81.4349	5,856.45	80.1023	5,856.45	80.3531	5,856.45	74.5773	5,856.45	77.1696	5,856.45	71.1246	5,856.45	69.6769	5,856.45	70.1518	5,856.45	68.1501	5,856.45	65.2781	5,856.45	68.8092	5,856.45	60.4534	5,856.45	59.6422	5,856.45	60.8907	5,856.45	62.0821	5,856.45	64.3785	5,856.45	65.5504	5,856.45	64.7182	5,856.45	60.8343	5,856.45	55.4378	5,856.45	49.5933	5,856.45	60.1129
6,062.99	87.4875	6,062.99	89.2984	6,062.99	89.3052	6,062.99	89.3184	6,062.99	89.5229	6,062.99	88.6613	6,062.99	88.1049	6,062.99	86.398	6,062.99	86.4775	6,062.99	85.3728	6,062.99	82.8719	6,062.99	82.8496	6,062.99	83.1839	6,062.99	82.4365	6,062.99	80.7275	6,062.99	80.1767	6,062.99	81.6611	6,062.99	73.6839	6,062.99	76.9085	6,062.99	69.6351	6,062.99	70.4127	6,062.99	69.5666	6,062.99	69.4749	6,062.99	66.0444	6,062.99	64.2753	6,062.99	52.2473	6,062.99	62.6295	6,062.99	60.6637	6,062.99	66.0779	6,062.99	64.6786	6,062.99	65.3483	6,062.99	62.7267	6,062.99	56.3877	6,062.99	59.9367	6,062.99	58.8161	6,062.99	60.0082
6,276.86	87.4786	6,276.86	88.6707	6,276.86	87.9696	6,276.86	88.7364	6,276.86	88.3607	6,276.86	87.305	6,276.86	87.371	6,276.86	86.498	6,276.86	86.9453	6,276.86	85.0345	6,276.86	83.62	6,276.86	82.7777	6,276.86	83.5268	6,276.86	82.0458	6,276.86	82.6735	6,276.86	79.0899	6,276.86	80.1877	6,276.86	73.5653	6,276.86	73.7451	6,276.86	71.1241	6,276.86	67.7179	6,276.86	70.5294	6,276.86	68.6903	6,276.86	63.2582	6,276.86	58.3236	6,276.86	47.3499	6,276.86	60.9336	6,276.86	60.8769	6,276.86	62.8518	6,276.86	65.3635	6,276.86	65.9904	6,276.86	60.3831	6,276.86	58.8802	6,276.86	62.2284	6,276.86	59.916	6,276.86	52.8142
6,498.05	87.4592	6,498.05	88.2586	6,498.05	88.386	6,498.05	88.2391	6,498.05	87.847	6,498.05	87.4778	6,498.05	87.2134	6,498.05	87.2524	6,498.05	87.2981	6,498.05	83.7746	6,498.05	85.1503	6,498.05	82.4948	6,498.05	83.2569	6,498.05	81.3373	6,498.05	81.8871	6,498.05	78.415	6,498.05	80.6821	6,498.05	73.3386	6,498.05	77.318	6,498.05	70.854	6,498.05	69.3	6,498.05	66.3913	6,498.05	67.9584	6,498.05	59.1571	6,498.05	60.2752	6,498.05	56.589	6,498.05	53.6689	6,498.05	47.0566	6,498.05	60.5334	6,498.05	62.1441	6,498.05	64.9154	6,498.05	58.9123	6,498.05	58.0151	6,498.05	60.3199	6,498.05	59.4395	6,498.05	57.1782
6,726.56	87.3484	6,726.56	87.9092	6,726.56	88.0625	6,726.56	87.9555	6,726.56	87.9092	6,726.56	87.923	6,726.56	87.1381	6,726.56	86.7387	6,726.56	87.515	6,726.56	84.1701	6,726.56	84.7864	6,726.56	81.6981	6,726.56	82.6232	6,726.56	82.3416	6,726.56	81.221	6,726.56	78.8705	6,726.56	80.546	6,726.56	73.2873	6,726.56	76.9021	6,726.56	69.2275	6,726.56	67.6536	6,726.56	66.0028	6,726.56	67.9482	6,726.56	58.4327	6,726.56	58.1812	6,726.56	60.8769	6,726.56	44.8395	6,726.56	61.0151	6,726.56	64.7937	6,726.56	60.2145	6,726.56	56.6902	6,726.56	59.0068	6,726.56	55.0193	6,726.56	58.9708	6,726.56	57.7972	6,726.56	57.6776
6,963.87	87.6875	6,963.87	87.2837	6,963.87	87.0159	6,963.87	87.8046	6,963.87	87.763	6,963.87	87.6737	6,963.87	87.3598	6,963.87	86.74	6,963.87	86.8236	6,963.87	82.6844	6,963.87	85.0446	6,963.87	81.3733	6,963.87	81.9276	6,963.87	80.2016	6,963.87	80.369	6,963.87	77.2156	6,963.87	80.5552	6,963.87	71.9166	6,963.87	74.7443	6,963.87	67.6257	6,963.87	65.1033	6,963.87	65.6485	6,963.87	63.6284	6,963.87	56.0019	6,963.87	59.4569	6,963.87	62.6922	6,963.87	52.2234	6,963.87	59.9424	6,963.87	57.4024	6,963.87	59.6396	6,963.87	62.2545	6,963.87	52.4556	6,963.87	55.8259	6,963.87	56.5376	6,963.87	60.1723	6,963.87	55.1869
7,209.96	87.7335	7,209.96	87.2544	7,209.96	87.2216	7,209.96	87.4391	7,209.96	87.7202	7,209.96	87.4057	7,209.96	88.0658	7,209.96	85.9805	7,209.96	87.3113	7,209.96	82.6212	7,209.96	84.9803	7,209.96	81.0229	7,209.96	82.2274	7,209.96	80.6523	7,209.96	80.1322	7,209.96	77.1	7,209.96	80.9175	7,209.96	72.3445	7,209.96	74.4184	7,209.96	66.9339	7,209.96	67.8516	7,209.96	62.5586	7,209.96	66.4791	7,209.96	43.3464	7,209.96	61.0432	7,209.96	48.7396	7,209.96	55.3289	7,209.96	63.9156	7,209.96	63.7878	7,209.96	53.8532	7,209.96	55.1381	7,209.96	58.0328	7,209.96	60.8063	7,209.96	54.6096	7,209.96	62.4842	7,209.96	52.4006
7,464.84	87.1094	7,464.84	86.5536	7,464.84	86.7986	7,464.84	86.9756	7,464.84	86.6219	7,464.84	87.1283	7,464.84	86.8147	7,464.84	85.1204	7,464.84	86.0702	7,464.84	83.2512	7,464.84	83.6147	7,464.84	79.9726	7,464.84	80.3697	7,464.84	80.6341	7,464.84	80.1381	7,464.84	78.1979	7,464.84	80.2178	7,464.84	71.0114	7,464.84	72.3882	7,464.84	57.2659	7,464.84	68.4573	7,464.84	60.0243	7,464.84	65.4656	7,464.84	53.0087	7,464.84	56.5075	7,464.84	55.6268	7,464.84	59.0904	7,464.84	61.3614	7,464.84	58.6828	7,464.84	52.5136	7,464.84	58.76	7,464.84	55.1728	7,464.84	61.4692	7,464.84	51.226	7,464.84	56.363	7,464.84	48.2785
7,727.05	87.9569	7,727.05	86.3838	7,727.05	87.2383	7,727.05	86.8807	7,727.05	86.2966	7,727.05	86.3792	7,727.05	87.5251	7,727.05	84.7956	7,727.05	85.5881	7,727.05	82.8248	7,727.05	83.6318	7,727.05	79.6653	7,727.05	82.1321	7,727.05	78.1614	7,727.05	79.4703	7,727.05	76.7281	7,727.05	79.0312	7,727.05	69.8576	7,727.05	72.6386	7,727.05	64.595	7,727.05	65.076	7,727.05	55.7609	7,727.05	61.1457	7,727.05	45.0718	7,727.05	56.1567	7,727.05	55.3799	7,727.05	60.6752	7,727.05	60.8337	7,727.05	63.8134	7,727.05	59.4301	7,727.05	61.4346	7,727.05	36.2409	7,727.05	62.3178	7,727.05	57.5957	7,727.05	55.725	7,727.05	55.4918
7,999.51	87.8844	7,999.51	85.4876	7,999.51	86.1497	7,999.51	86.2765	7,999.51	86.2733	7,999.51	85.7009	7,999.51	86.4763	7,999.51	84.7419	7,999.51	85.3769	7,999.51	83.2682	7,999.51	82.2191	7,999.51	79.4962	7,999.51	81.0242	7,999.51	77.8194	7,999.51	78.2039	7,999.51	78.1666	7,999.51	78.8277	7,999.51	71.992	7,999.51	72.5836	7,999.51	64.0519	7,999.51	64.504	7,999.51	59.8651	7,999.51	63.1188	7,999.51	57.1043	7,999.51	53.3362	7,999.51	42.1393	7,999.51	56.4957	7,999.51	59.3145	7,999.51	56.7909	7,999.51	42.5123	7,999.51	59.8954	7,999.51	56.957	7,999.51	57.8706	7,999.51	55.3347	7,999.51	56.2936	7,999.51	56.8147
8,282.23	86.9483	8,282.23	86.7294	8,282.23	86.8356	8,282.23	85.4159	8,282.23	85.7366	8,282.23	85.7523	8,282.23	86.0526	8,282.23	85.0016	8,282.23	84.6971	8,282.23	82.9522	8,282.23	84.3315	8,282.23	79.4117	8,282.23	81.5062	8,282.23	77.9407	8,282.23	78.8456	8,282.23	77.0671	8,282.23	77.5606	8,282.23	70.3514	8,282.23	69.8182	8,282.23	60.5686	8,282.23	64.5629	8,282.23	45.0061	8,282.23	63.3493	8,282.23	41.0993	8,282.23	53.5135	8,282.23	46.4987	8,282.23	61.901	8,282.23	50.33	8,282.23	58.6735	8,282.23	58.9868	8,282.23	58.5532	8,282.23	57.6467	8,282.23	54.6328	8,282.23	54.962	8,282.23	55.2972	8,282.23	48.3446
8,573.73	86.9873	8,573.73	86.9432	8,573.73	86.6866	8,573.73	85.9607	8,573.73	85.9919	8,573.73	85.0151	8,573.73	85.2755	8,573.73	85.2518	8,573.73	84.4995	8,573.73	83.459	8,573.73	84.0262	8,573.73	77.7932	8,573.73	80.6121	8,573.73	76.5164	8,573.73	76.6132	8,573.73	76.1808	8,573.73	77.199	8,573.73	69.7691	8,573.73	72.005	8,573.73	64.8922	8,573.73	65.8941	8,573.73	56.3586	8,573.73	60.5457	8,573.73	56.7081	8,573.73	55.4375	8,573.73	56.5107	8,573.73	59.0943	8,573.73	52.4634	8,573.73	57.103	8,573.73	57.6808	8,573.73	53.2836	8,573.73	61.9335	8,573.73	51.4137	8,573.73	46.3958	8,573.73	52.4102	8,573.73	58.6038
8,876.95	86.8848	8,876.95	87.5414	8,876.95	87.2442	8,876.95	85.4261	8,876.95	86.219	8,876.95	85.3207	8,876.95	85.7394	8,876.95	84.9947	8,876.95	84.9681	8,876.95	82.314	8,876.95	84.7284	8,876.95	78.0819	8,876.95	80.5126	8,876.95	76.3406	8,876.95	76.5422	8,876.95	74.4805	8,876.95	77.3878	8,876.95	67.8733	8,876.95	70.6613	8,876.95	62.439	8,876.95	62.9409	8,876.95	57.0568	8,876.95	60.9857	8,876.95	58.7049	8,876.95	58.9141	8,876.95	56.7365	8,876.95	59.6303	8,876.95	54.9341	8,876.95	37.5603	8,876.95	56.6765	8,876.95	51.5459	8,876.95	57.0301	8,876.95	53.2795	8,876.95	53.2275	8,876.95	52.7627	8,876.95	53.6734
9,188.96	86.9837	9,188.96	87.4597	9,188.96	87.7286	9,188.96	85.9418	9,188.96	86.434	9,188.96	85.1979	9,188.96	85.2339	9,188.96	84.5845	9,188.96	85.0923	9,188.96	82.2578	9,188.96	83.1467	9,188.96	77.6811	9,188.96	78.8493	9,188.96	74.8995	9,188.96	75.4987	9,188.96	74.611	9,188.96	76.7917	9,188.96	68.6323	9,188.96	68.3949	9,188.96	59.4702	9,188.96	63.5109	9,188.96	58.6527	9,188.96	60.4562	9,188.96	60.2252	9,188.96	58.2241	9,188.96	56.5161	9,188.96	54.9255	9,188.96	53.3957	9,188.96	53.2397	9,188.96	54.6278	9,188.96	53.172	9,188.96	57.4505	9,188.96	57.6158	9,188.96	47.4401	9,188.96	52.693	9,188.96	53.0721
9,514.16	87.5266	9,514.16	88.0296	9,514.16	88.0021	9,514.16	85.9673	9,514.16	86.8698	9,514.16	85.4521	9,514.16	85.7347	9,514.16	83.2096	9,514.16	84.7941	9,514.16	82.0329	9,514.16	83.0379	9,514.16	78.5594	9,514.16	79.3057	9,514.16	74.8099	9,514.16	75.7289	9,514.16	73.6672	9,514.16	76.107	9,514.16	66.0796	9,514.16	67.0999	9,514.16	56.6904	9,514.16	63.8547	9,514.16	55.0077	9,514.16	61.2395	9,514.16	56.3789	9,514.16	59.1851	9,514.16	56.7212	9,514.16	57.5057	9,514.16	55.863	9,514.16	46.2599	9,514.16	59.173	9,514.16	53.6366	9,514.16	57.219	9,514.16	57.9072	9,514.16	53.964	9,514.16	53.4463	9,514.16	49.1224
9,849.61	87.6208	9,849.61	88.1958	9,849.61	88.2703	9,849.61	85.7225	9,849.61	86.4222	9,849.61	85.4929	9,849.61	85.361	9,849.61	82.619	9,849.61	83.5337	9,849.61	81.8624	9,849.61	80.9138	9,849.61	77.9524	9,849.61	78.4262	9,849.61	72.4149	9,849.61	74.6045	9,849.61	74.1676	9,849.61	75.0753	9,849.61	67.7478	9,849.61	67.3248	9,849.61	58.3368	9,849.61	63.5037	9,849.61	54.9275	9,849.61	61.1731	9,849.61	58.4304	9,849.61	59.3277	9,849.61	59.0692	9,849.61	55.0561	9,849.61	52.5524	9,849.61	39.8612	9,849.61	45.9757	9,849.61	54.2208	9,849.61	51.6707	9,849.61	55.1371	9,849.61	50.4716	9,849.61	55.8829	9,849.61	53.5505
10,196.8	88.1557	10,196.8	87.8267	10,196.8	88.0498	10,196.8	86.1752	10,196.8	86.8741	10,196.8	85.1815	10,196.8	85.419	10,196.8	82.4444	10,196.8	82.9591	10,196.8	81.0302	10,196.8	81.3681	10,196.8	78.6252	10,196.8	79.4942	10,196.8	70.533	10,196.8	75.7503	10,196.8	74.407	10,196.8	75.0411	10,196.8	68.3695	10,196.8	69.0263	10,196.8	54.15	10,196.8	63.7017	10,196.8	52.5088	10,196.8	58.1298	10,196.8	52.8937	10,196.8	58.796	10,196.8	56.0417	10,196.8	51.2443	10,196.8	54.8684	10,196.8	46.0815	10,196.8	54.3648	10,196.8	52.8397	10,196.8	50.82	10,196.8	50.8508	10,196.8	49.3322	10,196.8	50.8925	10,196.8	49.9293
10,555.7	88.222	10,555.7	88.0993	10,555.7	88.1664	10,555.7	86.5514	10,555.7	87.0888	10,555.7	85.2694	10,555.7	86.0108	10,555.7	83.2605	10,555.7	83.7745	10,555.7	80.719	10,555.7	80.781	10,555.7	78.286	10,555.7	79.6311	10,555.7	70.8023	10,555.7	76.777	10,555.7	75.5101	10,555.7	75.1976	10,555.7	68.3499	10,555.7	69.1295	10,555.7	56.3963	10,555.7	63.4794	10,555.7	54.3471	10,555.7	58.176	10,555.7	59.2623	10,555.7	57.077	10,555.7	53.0944	10,555.7	46.3428	10,555.7	39.0519	10,555.7	54.4702	10,555.7	47.4126	10,555.7	52.3039	10,555.7	47.6936	10,555.7	45.2051	10,555.7	44.1308	10,555.7	37.9235	10,555.7	47.002
10,927.7	88.7761	10,927.7	88.0873	10,927.7	88.1299	10,927.7	87.1801	10,927.7	87.6142	10,927.7	85.3003	10,927.7	85.5505	10,927.7	82.3349	10,927.7	84.0738	10,927.7	80.4668	10,927.7	81.3322	10,927.7	78.8182	10,927.7	79.6289	10,927.7	73.3797	10,927.7	77.3268	10,927.7	74.4973	10,927.7	74.5071	10,927.7	68.093	10,927.7	68.6611	10,927.7	58.1948	10,927.7	63.1193	10,927.7	59.2918	10,927.7	58.5289	10,927.7	56.1601	10,927.7	55.529	10,927.7	45.9059	10,927.7	44.1588	10,927.7	48.4014	10,927.7	53.1349	10,927.7	50.7111	10,927.7	49.8707	10,927.7	54.576	10,927.7	50.8245	10,927.7	33.739	10,927.7	47.1346	10,927.7	46.9366
11,313	89.1374	11,313	87.8779	11,313	88.3316	11,313	87.0409	11,313	87.7391	11,313	84.6645	11,313	85.7414	11,313	82.8095	11,313	83.8676	11,313	79.6521	11,313	81.4409	11,313	78.5781	11,313	79.9782	11,313	74.7432	11,313	77.6384	11,313	73.674	11,313	73.6218	11,313	66.6162	11,313	67.3295	11,313	58.3153	11,313	62.9021	11,313	58.2602	11,313	58.5103	11,313	55.6556	11,313	51.675	11,313	44.5249	11,313	50.1127	11,313	51.1953	11,313	54.7625	11,313	49.849	11,313	39.4405	11,313	48.2284	11,313	51.463	11,313	25.7612	11,313	35.9823	11,313	45.616
11,712.9	88.9774	11,712.9	87.8138	11,712.9	87.9607	11,712.9	86.7807	11,712.9	87.6614	11,712.9	84.6491	11,712.9	85.1413	11,712.9	82.4436	11,712.9	83.8513	11,712.9	79.5295	11,712.9	81.3991	11,712.9	78.0814	11,712.9	80.1366	11,712.9	74.2008	11,712.9	76.3707	11,712.9	72.6996	11,712.9	73.1845	11,712.9	67.2003	11,712.9	66.936	11,712.9	58.0774	11,712.9	63.2117	11,712.9	59.8819	11,712.9	59.6261	11,712.9	46.5403	11,712.9	52.4626	11,712.9	50.0102	11,712.9	49.9235	11,712.9	51.8402	11,712.9	48.183	11,712.9	48.9944	11,712.9	53.0782	11,712.9	48.6899	11,712.9	49.6916	11,712.9	42.9409	11,712.9	43.8771	11,712.9	41.2221
12,126	88.5561	12,126	88.1069	12,126	87.961	12,126	86.8696	12,126	87.5281	12,126	84.3142	12,126	84.9225	12,126	82.3793	12,126	83.2947	12,126	80.2903	12,126	81.3214	12,126	77.8519	12,126	79.9258	12,126	73.6957	12,126	75.1528	12,126	72.8195	12,126	73.9208	12,126	67.8692	12,126	67.8804	12,126	57.7148	12,126	61.7104	12,126	60.6293	12,126	58.7417	12,126	43.6842	12,126	50.7005	12,126	49.9761	12,126	56.0213	12,126	48.4517	12,126	45.3398	12,126	44.2354	12,126	50.6682	12,126	46.6903	12,126	51.8388	12,126	43.9237	12,126	44.8457	12,126	41.139
12,553.7	88.2005	12,553.7	88.0432	12,553.7	88.1787	12,553.7	86.7527	12,553.7	87.1111	12,553.7	83.9167	12,553.7	84.8405	12,553.7	82.1219	12,553.7	82.8473	12,553.7	79.8559	12,553.7	80.31	12,553.7	77.2227	12,553.7	78.921	12,553.7	74.2944	12,553.7	74.6924	12,553.7	72.9705	12,553.7	73.9542	12,553.7	65.4535	12,553.7	66.971	12,553.7	53.5348	12,553.7	61.6437	12,553.7	59.2024	12,553.7	59.9739	12,553.7	42.1977	12,553.7	50.2697	12,553.7	46.5854	12,553.7	53.3146	12,553.7	48.0366	12,553.7	41.6943	12,553.7	47.6735	12,553.7	45.4134	12,553.7	32.7341	12,553.7	47.6384	12,553.7	44.0079	12,553.7	49.4037	12,553.7	42.1728
12,996.1	87.8718	12,996.1	88.0167	12,996.1	88.3193	12,996.1	86.3345	12,996.1	86.5259	12,996.1	83.4739	12,996.1	84.4729	12,996.1	81.6439	12,996.1	83.0168	12,996.1	79.0653	12,996.1	79.3922	12,996.1	77.3364	12,996.1	78.0036	12,996.1	72.8371	12,996.1	73.5367	12,996.1	73.549	12,996.1	73.1523	12,996.1	64.5644	12,996.1	66.3869	12,996.1	46.84	12,996.1	60.9432	12,996.1	56.5983	12,996.1	58.14	12,996.1	50.907	12,996.1	49.1212	12,996.1	42.1312	12,996.1	52.3589	12,996.1	52.37	12,996.1	45.717	12,996.1	47.3042	12,996.1	46.4132	12,996.1	41.2772	12,996.1	40.7826	12,996.1	50.7716	12,996.1	45.7165	12,996.1	45.7948
13,454.6	87.8968	13,454.6	87.8216	13,454.6	88.1796	13,454.6	85.9266	13,454.6	86.3424	13,454.6	83.5582	13,454.6	84.3247	13,454.6	81.834	13,454.6	82.8467	13,454.6	78.6697	13,454.6	79.2441	13,454.6	77.1286	13,454.6	77.7467	13,454.6	70.8717	13,454.6	72.7752	13,454.6	72.6381	13,454.6	71.7231	13,454.6	62.7501	13,454.6	66.8937	13,454.6	45.4619	13,454.6	59.2192	13,454.6	55.664	13,454.6	57.7528	13,454.6	51.4964	13,454.6	48.973	13,454.6	43.1144	13,454.6	48.4814	13,454.6	54.4788	13,454.6	44.0335	13,454.6	39.7006	13,454.6	47.4581	13,454.6	45.5042	13,454.6	34.9244	13,454.6	47.112	13,454.6	44.8763	13,454.6	46.4131
13,929.2	88.0997	13,929.2	87.7924	13,929.2	88.3036	13,929.2	86.0746	13,929.2	86.4649	13,929.2	83.6075	13,929.2	84.1876	13,929.2	82.17	13,929.2	82.741	13,929.2	78.3728	13,929.2	80.0655	13,929.2	76.6803	13,929.2	77.2639	13,929.2	71.3354	13,929.2	72.34	13,929.2	72.433	13,929.2	70.5435	13,929.2	62.881	13,929.2	67.6118	13,929.2	43.0636	13,929.2	59.8241	13,929.2	56.9395	13,929.2	56.8557	13,929.2	51.9404	13,929.2	50.185	13,929.2	45.3302	13,929.2	43.9473	13,929.2	54.0857	13,929.2	33.2514	13,929.2	48.9861	13,929.2	47.4017	13,929.2	41.574	13,929.2	20.25	13,929.2	39.7266	13,929.2	44.6391	13,929.2	42.7774
14,419.9	88.5553	14,419.9	87.8171	14,419.9	88.358	14,419.9	85.9372	14,419.9	86.3748	14,419.9	83.941	14,419.9	84.3817	14,419.9	81.624	14,419.9	82.6148	14,419.9	78.9844	14,419.9	80.6534	14,419.9	76.0739	14,419.9	76.4207	14,419.9	73.9145	14,419.9	74.5571	14,419.9	71.8336	14,419.9	69.9908	14,419.9	61.8166	14,419.9	67.0422	14,419.9	49.8928	14,419.9	60.254	14,419.9	55.136	14,419.9	55.7096	14,419.9	47.3636	14,419.9	48.9078	14,419.9	46.9619	14,419.9	41.9072	14,419.9	49.5402	14,419.9	43.0023	14,419.9	48.2707	14,419.9	48.7324	14,419.9	31.8146	14,419.9	28.2102	14,419.9	41.2355	14,419.9	51.3185	14,419.9	42.2148
14,928.2	88.9361	14,928.2	87.7778	14,928.2	88.4116	14,928.2	85.5826	14,928.2	86.3954	14,928.2	84.2171	14,928.2	84.878	14,928.2	81.315	14,928.2	82.3338	14,928.2	78.5818	14,928.2	80.1802	14,928.2	76.6092	14,928.2	77.0509	14,928.2	74.2633	14,928.2	75.274	14,928.2	70.3024	14,928.2	69.3074	14,928.2	60.7576	14,928.2	66.1693	14,928.2	52.744	14,928.2	59.8705	14,928.2	49.5609	14,928.2	54.6232	14,928.2	50.4423	14,928.2	48.8222	14,928.2	45.023	14,928.2	42.1268	14,928.2	40.7677	14,928.2	47.6688	14,928.2	42.5923	14,928.2	50.73	14,928.2	32.1609	14,928.2	40.2114	14,928.2	35.8741	14,928.2	51.5336	14,928.2	42.7707
15,455.6	88.7964	15,455.6	87.7713	15,455.6	88.0202	15,455.6	85.5273	15,455.6	86.4099	15,455.6	84.1191	15,455.6	84.9776	15,455.6	81.3996	15,455.6	82.1524	15,455.6	78.778	15,455.6	79.6831	15,455.6	76.5747	15,455.6	78.0861	15,455.6	72.9413	15,455.6	73.7562	15,455.6	68.0109	15,455.6	66.7754	15,455.6	61.0932	15,455.6	65.2287	15,455.6	49.8152	15,455.6	56.8997	15,455.6	44.7683	15,455.6	50.458	15,455.6	52.4892	15,455.6	41.8438	15,455.6	41.468	15,455.6	43.7695	15,455.6	48.232	15,455.6	47.9102	15,455.6	41.8601	15,455.6	47.355	15,455.6	36.486	15,455.6	27.5475	15,455.6	32.3049	15,455.6	49.5348	15,455.6	41.7455
16,000.5	88.5621	16,000.5	87.732	16,000.5	87.8028	16,000.5	85.6044	16,000.5	86.4294	16,000.5	83.7264	16,000.5	84.6099	16,000.5	81.1005	16,000.5	81.95	16,000.5	79.4924	16,000.5	80.0482	16,000.5	75.1824	16,000.5	77.4999	16,000.5	72.6777	16,000.5	72.8794	16,000.5	68.281	16,000.5	67.4256	16,000.5	59.9791	16,000.5	63.8069	16,000.5	53.0959	16,000.5	57.154	16,000.5	43.7399	16,000.5	45.9864	16,000.5	47.3999	16,000.5	44.9997	16,000.5	42.9422	16,000.5	47.026	16,000.5	49.3218	16,000.5	42.1586	16,000.5	40.4051	16,000.5	44.6757	16,000.5	32.2157	16,000.5	43.3291	16,000.5	42.0902	16,000.5	47.0532	16,000.5	36.2134
16,564.5	88.1892	16,564.5	87.4484	16,564.5	87.5889	16,564.5	85.5082	16,564.5	86.581	16,564.5	83.5018	16,564.5	84.3075	16,564.5	80.7708	16,564.5	81.8491	16,564.5	79.2833	16,564.5	80.0042	16,564.5	74.2835	16,564.5	76.19	16,564.5	72.2962	16,564.5	72.9489	16,564.5	67.1968	16,564.5	66.1472	16,564.5	59.4298	16,564.5	61.5351	16,564.5	55.3322	16,564.5	56.4953	16,564.5	44.6046	16,564.5	41.102	16,564.5	43.0225	16,564.5	48.6267	16,564.5	44.586	16,564.5	48.5198	16,564.5	42.2726	16,564.5	31.3792	16,564.5	36.1133	16,564.5	46.6113	16,564.5	39.7345	16,564.5	41.6945	16,564.5	43.7297	16,564.5	43.8896	16,564.5	39.6813
17,148.9	87.8705	17,148.9	87.2725	17,148.9	87.547	17,148.9	85.3185	17,148.9	86.3043	17,148.9	82.8937	17,148.9	83.9019	17,148.9	80.3066	17,148.9	81.5375	17,148.9	77.9281	17,148.9	79.4178	17,148.9	74.7811	17,148.9	75.4937	17,148.9	70.1487	17,148.9	72.1862	17,148.9	66.531	17,148.9	65.8042	17,148.9	61.2902	17,148.9	62.9843	17,148.9	55.0207	17,148.9	55.8521	17,148.9	43.7043	17,148.9	44.3783	17,148.9	46.829	17,148.9	48.0827	17,148.9	46.9329	17,148.9	48.2387	17,148.9	42.3848	17,148.9	34.9393	17,148.9	40.011	17,148.9	44.6636	17,148.9	29.3493	17,148.9	42.4637	17,148.9	32.4469	17,148.9	40.9134	17,148.9	39.1076
17,752.4	87.3935	17,752.4	86.8267	17,752.4	87.1932	17,752.4	84.9127	17,752.4	86.053	17,752.4	82.4883	17,752.4	83.4054	17,752.4	80.1987	17,752.4	81.1353	17,752.4	76.8331	17,752.4	78.2825	17,752.4	74.1058	17,752.4	74.5064	17,752.4	69.0586	17,752.4	71.6369	17,752.4	66.1447	17,752.4	66.5898	17,752.4	60.9066	17,752.4	62.074	17,752.4	54.8464	17,752.4	55.9909	17,752.4	41.4975	17,752.4	44.6636	17,752.4	46.9635	17,752.4	46.5409	17,752.4	44.8537	17,752.4	46.7366	17,752.4	42.2338	17,752.4	37.9959	17,752.4	37.3084	17,752.4	36.8887	17,752.4	28.8552	17,752.4	44.0636	17,752.4	35.8308	17,752.4	44.3514	17,752.4	30.8755
18,379.4	86.7729	18,379.4	86.3545	18,379.4	86.7362	18,379.4	84.5452	18,379.4	85.6084	18,379.4	81.8834	18,379.4	82.7935	18,379.4	79.3661	18,379.4	80.4031	18,379.4	76.2452	18,379.4	77.084	18,379.4	72.3969	18,379.4	73.011	18,379.4	68.948	18,379.4	71.1175	18,379.4	64.2707	18,379.4	64.5724	18,379.4	59.1085	18,379.4	60.5871	18,379.4	53.3728	18,379.4	54.1014	18,379.4	38.1493	18,379.4	45.8316	18,379.4	44.0499	18,379.4	45.5359	18,379.4	27.9415	18,379.4	35.577	18,379.4	42.2977	18,379.4	37.4933	18,379.4	43.4024	18,379.4	42.1167	18,379.4	29.998	18,379.4	42.5197	18,379.4	37.0612	18,379.4	40.0673	18,379.4	20.5176
19,026.9	86.2094	19,026.9	85.8703	19,026.9	86.2478	19,026.9	84.1244	19,026.9	85.1277	19,026.9	81.4834	19,026.9	82.3967	19,026.9	78.4537	19,026.9	79.6041	19,026.9	75.2514	19,026.9	75.7207	19,026.9	71.9439	19,026.9	72.4892	19,026.9	67.013	19,026.9	69.293	19,026.9	61.0329	19,026.9	61.9757	19,026.9	58.9394	19,026.9	60.69	19,026.9	53.5948	19,026.9	51.3837	19,026.9	43.0706	19,026.9	46.8806	19,026.9	44.5416	19,026.9	43.3572	19,026.9	42.7053	19,026.9	40.9168	19,026.9	43.2428	19,026.9	31.9849	19,026.9	44.2661	19,026.9	33.241	19,026.9	40.0028	19,026.9	43.7487	19,026.9	40.9788	19,026.9	33.72	19,026.9	34.5407
19,697.8	85.6365	19,697.8	85.5212	19,697.8	85.8179	19,697.8	83.6066	19,697.8	84.3012	19,697.8	80.9753	19,697.8	82.0182	19,697.8	77.5232	19,697.8	78.5255	19,697.8	74.2223	19,697.8	74.5771	19,697.8	70.256	19,697.8	71.2245	19,697.8	65.9483	19,697.8	66.6816	19,697.8	61.0266	19,697.8	63.854	19,697.8	59.8008	19,697.8	61.5987	19,697.8	51.7517	19,697.8	51.7673	19,697.8	42.99	19,697.8	47.4257	19,697.8	46.8031	19,697.8	40.5025	19,697.8	45.2152	19,697.8	43.9729	19,697.8	38.0815	19,697.8	37.4853	19,697.8	42.6296	19,697.8	42.8743	19,697.8	33.9333	19,697.8	40.2237	19,697.8	35.6407	19,697.8	40.2691	19,697.8	37.6185
19,999.5	85.2253	19,999.5	85.5468	19,999.5	85.4593	19,999.5	83.8786	19,999.5	84.017	19,999.5	81.1198	19,999.5	82.0227	19,999.5	77.5318	19,999.5	78.7098	19,999.5	73.8559	19,999.5	74.3967	19,999.5	68.4558	19,999.5	70.1313	19,999.5	66.2535	19,999.5	65.8311	19,999.5	60.0904	19,999.5	65.507	19,999.5	58.5371	19,999.5	63.0734	19,999.5	52.9932	19,999.5	47.2071	19,999.5	40.4531	19,999.5	45.544	19,999.5	51.6098	19,999.5	50.7909	19,999.5	42.4928	19,999.5	46.8665	19,999.5	45.8012	19,999.5	41.5956	19,999.5	41.0633	19,999.5	46.3861	19,999.5	43.9497	19,999.5	38.2542	19,999.5	33.7484	19,999.5	35.884	19,999.5	34.1457
