"SPL Vertical"
"On-Axis"		"10°"		"-10°"		"20°"		"-20°"		"30°"		"-30°"		"40°"		"-40°"		"50°"		"-50°"		"60°"		"-60°"		"70°"		"-70°"		"80°"		"-80°"		"90°"		"-90°"		"100°"		"-100°"		"110°"		"-110°"		"120°"		"-120°"		"130°"		"-130°"		"140°"		"-140°"		"150°"		"-150°"		"160°"		"-160°"		"170°"		"-170°"		"180°"
"Frequency [Hz]"	"Sound Pessure Level [dB]  / [2.83V 1m] "	"Frequency [Hz]"	"Sound Pessure Level [dB]  / [2.83V 1m] "	"Frequency [Hz]"	"Sound Pessure Level [dB]  / [2.83V 1m] "	"Frequency [Hz]"	"Sound Pessure Level [dB]  / [2.83V 1m] "	"Frequency [Hz]"	"Sound Pessure Level [dB]  / [2.83V 1m] "	"Frequency [Hz]"	"Sound Pessure Level [dB]  / [2.83V 1m] "	"Frequency [Hz]"	"Sound Pessure Level [dB]  / [2.83V 1m] "	"Frequency [Hz]"	"Sound Pessure Level [dB]  / [2.83V 1m] "	"Frequency [Hz]"	"Sound Pessure Level [dB]  / [2.83V 1m] "	"Frequency [Hz]"	"Sound Pessure Level [dB]  / [2.83V 1m] "	"Frequency [Hz]"	"Sound Pessure Level [dB]  / [2.83V 1m] "	"Frequency [Hz]"	"Sound Pessure Level [dB]  / [2.83V 1m] "	"Frequency [Hz]"	"Sound Pessure Level [dB]  / [2.83V 1m] "	"Frequency [Hz]"	"Sound Pessure Level [dB]  / [2.83V 1m] "	"Frequency [Hz]"	"Sound Pessure Level [dB]  / [2.83V 1m] "	"Frequency [Hz]"	"Sound Pessure Level [dB]  / [2.83V 1m] "	"Frequency [Hz]"	"Sound Pessure Level [dB]  / [2.83V 1m] "	"Frequency [Hz]"	"Sound Pessure Level [dB]  / [2.83V 1m] "	"Frequency [Hz]"	"Sound Pessure Level [dB]  / [2.83V 1m] "	"Frequency [Hz]"	"Sound Pessure Level [dB]  / [2.83V 1m] "	"Frequency [Hz]"	"Sound Pessure Level [dB]  / [2.83V 1m] "	"Frequency [Hz]"	"Sound Pessure Level [dB]  / [2.83V 1m] "	"Frequency [Hz]"	"Sound Pessure Level [dB]  / [2.83V 1m] "	"Frequency [Hz]"	"Sound Pessure Level [dB]  / [2.83V 1m] "	"Frequency [Hz]"	"Sound Pessure Level [dB]  / [2.83V 1m] "	"Frequency [Hz]"	"Sound Pessure Level [dB]  / [2.83V 1m] "	"Frequency [Hz]"	"Sound Pessure Level [dB]  / [2.83V 1m] "	"Frequency [Hz]"	"Sound Pessure Level [dB]  / [2.83V 1m] "	"Frequency [Hz]"	"Sound Pessure Level [dB]  / [2.83V 1m] "	"Frequency [Hz]"	"Sound Pessure Level [dB]  / [2.83V 1m] "	"Frequency [Hz]"	"Sound Pessure Level [dB]  / [2.83V 1m] "	"Frequency [Hz]"	"Sound Pessure Level [dB]  / [2.83V 1m] "	"Frequency [Hz]"	"Sound Pessure Level [dB]  / [2.83V 1m] "	"Frequency [Hz]"	"Sound Pessure Level [dB]  / [2.83V 1m] "	"Frequency [Hz]"	"Sound Pessure Level [dB]  / [2.83V 1m] "	"Frequency [Hz]"	"Sound Pessure Level [dB]  / [2.83V 1m] "
20.5078	68.8822	20.5078	68.8181	20.5078	68.9348	20.5078	68.7444	20.5078	68.9738	20.5078	68.6632	20.5078	68.9976	20.5078	68.5766	20.5078	69.0044	20.5078	68.4869	20.5078	68.993	20.5078	68.3961	20.5078	68.9628	20.5078	68.3066	20.5078	68.9139	20.5078	68.2207	20.5078	68.8476	20.5078	68.1409	20.5078	68.7664	20.5078	68.0696	20.5078	68.6738	20.5078	68.0091	20.5078	68.5741	20.5078	67.9614	20.5078	68.4719	20.5078	67.9282	20.5078	68.3715	20.5078	67.9105	20.5078	68.2766	20.5078	67.9086	20.5078	68.1898	20.5078	67.9222	20.5078	68.1128	20.5078	67.9505	20.5078	68.0466	20.5078	67.9923
21.9727	69.8662	21.9727	69.7997	21.9727	69.9192	21.9727	69.7219	21.9727	69.9564	21.9727	69.6349	21.9727	69.9757	21.9727	69.5408	21.9727	69.9754	21.9727	69.4418	21.9727	69.9541	21.9727	69.3399	21.9727	69.9109	21.9727	69.2374	21.9727	69.8462	21.9727	69.1365	21.9727	69.7612	21.9727	69.0397	21.9727	69.6587	21.9727	68.9495	21.9727	69.5425	21.9727	68.8683	21.9727	69.4176	21.9727	68.7985	21.9727	69.2892	21.9727	68.7424	21.9727	69.1631	21.9727	68.7019	21.9727	69.0446	21.9727	68.6784	21.9727	68.9382	21.9727	68.6733	21.9727	68.8474	21.9727	68.6873	21.9727	68.7746	21.9727	68.721
23.4375	70.9311	23.4375	70.8611	23.4375	70.9881	23.4375	70.7807	23.4375	71.0296	23.4375	70.6923	23.4375	71.0536	23.4375	70.5983	23.4375	71.0581	23.4375	70.5007	23.4375	71.042	23.4375	70.4019	23.4375	71.0047	23.4375	70.3041	23.4375	70.9468	23.4375	70.2093	23.4375	70.8699	23.4375	70.1198	23.4375	70.7768	23.4375	70.0378	23.4375	70.671	23.4375	69.9656	23.4375	70.5568	23.4375	69.9052	23.4375	70.439	23.4375	69.8587	23.4375	70.322	23.4375	69.8277	23.4375	70.2103	23.4375	69.8139	23.4375	70.1076	23.4375	69.8181	23.4375	70.0171	23.4375	69.8408	23.4375	69.9413	23.4375	69.8821
24.9023	71.5888	24.9023	71.5228	24.9023	71.6399	24.9023	71.4442	24.9023	71.674	24.9023	71.3555	24.9023	71.6891	24.9023	71.2591	24.9023	71.6841	24.9023	71.1575	24.9023	71.6581	24.9023	71.0531	24.9023	71.6111	24.9023	70.9483	24.9023	71.544	24.9023	70.8456	24.9023	71.4585	24.9023	70.7474	24.9023	71.3576	24.9023	70.6562	24.9023	71.2448	24.9023	70.5743	24.9023	71.1244	24.9023	70.5041	24.9023	71.0012	24.9023	70.4479	24.9023	70.8796	24.9023	70.4076	24.9023	70.7643	24.9023	70.3851	24.9023	70.6591	24.9023	70.3818	24.9023	70.5675	24.9023	70.3985	24.9023	70.4923	24.9023	70.4355
26.3672	72.0357	26.3672	71.9765	26.3672	72.0828	26.3672	71.9072	26.3672	72.1162	26.3672	71.8294	26.3672	72.1338	26.3672	71.7449	26.3672	72.134	26.3672	71.6553	26.3672	72.1151	26.3672	71.5625	26.3672	72.0762	26.3672	71.4684	26.3672	72.0173	26.3672	71.3751	26.3672	71.9395	26.3672	71.2848	26.3672	71.8451	26.3672	71.1995	26.3672	71.7375	26.3672	71.1217	26.3672	71.6211	26.3672	71.0536	26.3672	71.5009	26.3672	70.9973	26.3672	71.3822	26.3672	70.9551	26.3672	71.2698	26.3672	70.9289	26.3672	71.1684	26.3672	70.9204	26.3672	71.0815	26.3672	70.931	26.3672	71.012	26.3672	70.9615
27.832	73.2659	27.832	73.2031	27.832	73.3124	27.832	73.1262	27.832	73.3408	27.832	73.0376	27.832	73.3494	27.832	72.9398	27.832	73.3369	27.832	72.8351	27.832	73.3026	27.832	72.7263	27.832	73.2467	27.832	72.6159	27.832	73.17	27.832	72.5066	27.832	73.0746	27.832	72.401	27.832	72.9634	27.832	72.3017	27.832	72.8405	27.832	72.2111	27.832	72.7106	27.832	72.1318	27.832	72.5788	27.832	72.0661	27.832	72.4505	27.832	72.0161	27.832	72.3304	27.832	71.9839	27.832	72.2231	27.832	71.9712	27.832	72.1321	27.832	71.9793	27.832	72.0601	27.832	72.0089
29.2969	73.7948	29.2969	73.733	29.2969	73.8402	29.2969	73.6571	29.2969	73.8671	29.2969	73.5693	29.2969	73.8738	29.2969	73.4721	29.2969	73.8588	29.2969	73.3678	29.2969	73.8214	29.2969	73.2592	29.2969	73.7616	29.2969	73.1485	29.2969	73.6803	29.2969	73.0385	29.2969	73.5797	29.2969	72.9316	29.2969	73.463	29.2969	72.8304	29.2969	73.3346	29.2969	72.7372	29.2969	73.1997	29.2969	72.6546	29.2969	73.0638	29.2969	72.5848	29.2969	72.9327	29.2969	72.5301	29.2969	72.8115	29.2969	72.4927	29.2969	72.7048	29.2969	72.4744	29.2969	72.616	29.2969	72.4769	29.2969	72.5477	29.2969	72.5012
30.7617	74.5494	30.7617	74.4757	30.7617	74.6062	30.7617	74.388	30.7617	74.6435	30.7617	74.2889	30.7617	74.6589	30.7617	74.1811	30.7617	74.6504	30.7617	74.0671	30.7617	74.617	30.7617	73.9496	30.7617	74.5587	30.7617	73.8313	30.7617	74.4771	30.7617	73.7148	30.7617	74.3746	30.7617	73.6027	30.7617	74.2552	30.7617	73.4975	30.7617	74.1233	30.7617	73.4018	30.7617	73.984	30.7617	73.3183	30.7617	73.8426	30.7617	73.2494	30.7617	73.704	30.7617	73.1978	30.7617	73.5731	30.7617	73.1658	30.7617	73.4542	30.7617	73.1558	30.7617	73.3514	30.7617	73.1692	30.7617	73.2681	30.7617	73.2068
32.2266	75.1796	32.2266	75.1225	32.2266	75.2192	32.2266	75.0499	32.2266	75.2399	32.2266	74.964	32.2266	75.2406	32.2266	74.8673	32.2266	75.2208	32.2266	74.7626	32.2266	75.1804	32.2266	74.6527	32.2266	75.12	32.2266	74.5406	32.2266	75.041	32.2266	74.4293	32.2266	74.9453	32.2266	74.3216	32.2266	74.8361	32.2266	74.2202	32.2266	74.7169	32.2266	74.128	32.2266	74.5921	32.2266	74.0472	32.2266	74.4664	32.2266	73.9803	32.2266	74.3443	32.2266	73.9295	32.2266	74.2302	32.2266	73.8967	32.2266	74.1278	32.2266	73.8837	32.2266	74.0404	32.2266	73.8915	32.2266	73.9707	32.2266	73.9206
33.6914	75.5818	33.6914	75.5209	33.6914	75.626	33.6914	75.4454	33.6914	75.6521	33.6914	75.3575	33.6914	75.6588	33.6914	75.2597	33.6914	75.6454	33.6914	75.1546	33.6914	75.6117	33.6914	75.0452	33.6914	75.5582	33.6914	74.9344	33.6914	75.4859	33.6914	74.825	33.6914	75.3968	33.6914	74.7201	33.6914	75.2935	33.6914	74.6223	33.6914	75.1797	33.6914	74.5344	33.6914	75.0593	33.6914	74.4588	33.6914	74.9368	33.6914	74.398	33.6914	74.8163	33.6914	74.354	33.6914	74.7021	33.6914	74.3286	33.6914	74.5978	33.6914	74.3234	33.6914	74.5068	33.6914	74.339	33.6914	74.4319	33.6914	74.3754
35.1562	76.1863	35.1562	76.1276	35.1562	76.2263	35.1562	76.0523	35.1562	76.2459	35.1562	75.9628	35.1562	76.2438	35.1562	75.8614	35.1562	76.2191	35.1562	75.7509	35.1562	76.1715	35.1562	75.6341	35.1562	76.1018	35.1562	75.514	35.1562	76.0115	35.1562	75.3935	35.1562	75.903	35.1562	75.2758	35.1562	75.7799	35.1562	75.1636	35.1562	75.6464	35.1562	75.0599	35.1562	75.5074	35.1562	74.9673	35.1562	75.3679	35.1562	74.8887	35.1562	75.2333	35.1562	74.8264	35.1562	75.1084	35.1562	74.7831	35.1562	74.9978	35.1562	74.7608	35.1562	74.9053	35.1562	74.7612	35.1562	74.8339	35.1562	74.7856
36.6211	76.8056	36.6211	76.7436	36.6211	76.8487	36.6211	76.6648	36.6211	76.8711	36.6211	76.5715	36.6211	76.8714	36.6211	76.4662	36.6211	76.8486	36.6211	76.3517	36.6211	76.8027	36.6211	76.231	36.6211	76.7339	36.6211	76.1069	36.6211	76.6439	36.6211	75.9828	36.6211	76.5351	36.6211	75.8618	36.6211	76.411	36.6211	75.7469	36.6211	76.276	36.6211	75.6414	36.6211	76.1349	36.6211	75.548	36.6211	75.993	36.6211	75.4698	36.6211	75.8556	36.6211	75.4093	36.6211	75.7275	36.6211	75.369	36.6211	75.613	36.6211	75.3508	36.6211	75.5161	36.6211	75.3563	36.6211	75.4397	36.6211	75.386
38.0859	77.4449	38.0859	77.384	38.0859	77.4861	38.0859	77.3056	38.0859	77.5059	38.0859	77.2119	38.0859	77.5031	38.0859	77.1054	38.0859	77.4766	38.0859	76.9887	38.0859	77.4264	38.0859	76.8649	38.0859	77.3528	38.0859	76.7367	38.0859	77.2572	38.0859	76.6074	38.0859	77.1422	38.0859	76.4799	38.0859	77.011	38.0859	76.3572	38.0859	76.8682	38.0859	76.2427	38.0859	76.7187	38.0859	76.1394	38.0859	76.5681	38.0859	76.0506	38.0859	76.422	38.0859	75.9796	38.0859	76.2857	38.0859	75.9295	38.0859	76.1642	38.0859	75.9031	38.0859	76.062	38.0859	75.9026	38.0859	75.9828	38.0859	75.9292
39.5508	78.0103	39.5508	77.9484	39.5508	78.0532	39.5508	77.8695	39.5508	78.0752	39.5508	77.7759	39.5508	78.075	39.5508	77.6703	39.5508	78.0517	39.5508	77.5552	39.5508	78.005	39.5508	77.4338	39.5508	77.9354	39.5508	77.3089	39.5508	77.8444	39.5508	77.1836	39.5508	77.7343	39.5508	77.0611	39.5508	77.6086	39.5508	76.9443	39.5508	77.4717	39.5508	76.8363	39.5508	77.3284	39.5508	76.7401	39.5508	77.184	39.5508	76.6587	39.5508	77.0438	39.5508	76.5948	39.5508	76.9127	39.5508	76.5514	39.5508	76.7955	39.5508	76.5306	39.5508	76.6961	39.5508	76.5345	39.5508	76.618	39.5508	76.5637
41.0156	78.8438	41.0156	78.7833	41.0156	78.8882	41.0156	78.7086	41.0156	78.9152	41.0156	78.6217	41.0156	78.9237	41.0156	78.5253	41.0156	78.9133	41.0156	78.4222	41.0156	78.884	41.0156	78.3155	41.0156	78.8362	41.0156	78.2082	41.0156	78.7711	41.0156	78.1036	41.0156	78.6904	41.0156	78.0044	41.0156	78.5967	41.0156	77.9135	41.0156	78.4929	41.0156	77.8333	41.0156	78.3824	41.0156	77.7659	41.0156	78.2687	41.0156	77.7133	41.0156	78.1557	41.0156	77.6774	41.0156	78.047	41.0156	77.6594	41.0156	77.946	41.0156	77.6605	41.0156	77.8561	41.0156	77.6813	41.0156	77.7805	41.0156	77.7217
42.4805	78.9978	42.4805	78.9319	42.4805	79.0462	42.4805	78.8506	42.4805	79.0754	42.4805	78.7564	42.4805	79.084	42.4805	78.6519	42.4805	79.0713	42.4805	78.5404	42.4805	79.0371	42.4805	78.425	42.4805	78.9822	42.4805	78.3092	42.4805	78.9081	42.4805	78.1967	42.4805	78.8174	42.4805	78.0908	42.4805	78.7133	42.4805	77.9949	42.4805	78.6	42.4805	77.912	42.4805	78.4817	42.4805	77.8444	42.4805	78.3627	42.4805	77.794	42.4805	78.2471	42.4805	77.7619	42.4805	78.1382	42.4805	77.7487	42.4805	78.0389	42.4805	77.7543	42.4805	77.9517	42.4805	77.7784	42.4805	77.8782	42.4805	77.82
43.9453	79.4818	43.9453	79.4157	43.9453	79.5294	43.9453	79.3334	43.9453	79.5571	43.9453	79.2372	43.9453	79.5635	43.9453	79.1298	43.9453	79.548	43.9453	79.0143	43.9453	79.5105	43.9453	78.8939	43.9453	79.452	43.9453	78.7722	43.9453	79.3738	43.9453	78.6528	43.9453	79.2786	43.9453	78.5392	43.9453	79.1696	43.9453	78.435	43.9453	79.0505	43.9453	78.3433	43.9453	78.9255	43.9453	78.2668	43.9453	78.7989	43.9453	78.2079	43.9453	78.675	43.9453	78.1682	43.9453	78.5574	43.9453	78.1488	43.9453	78.4498	43.9453	78.1501	43.9453	78.3552	43.9453	78.1722	43.9453	78.2761	43.9453	78.2146
45.4102	79.9806	45.4102	79.9161	45.4102	80.0262	45.4102	79.8347	45.4102	80.0515	45.4102	79.7387	45.4102	80.0554	45.4102	79.631	45.4102	80.0374	45.4102	79.5145	45.4102	79.9978	45.4102	79.3926	45.4102	79.9376	45.4102	79.2689	45.4102	79.8583	45.4102	79.147	45.4102	79.7627	45.4102	79.0305	45.4102	79.6537	45.4102	78.9231	45.4102	79.5352	45.4102	78.828	45.4102	79.411	45.4102	78.7482	45.4102	79.2849	45.4102	78.6861	45.4102	79.1609	45.4102	78.6439	45.4102	79.0424	45.4102	78.6227	45.4102	78.933	45.4102	78.6235	45.4102	78.8359	45.4102	78.6461	45.4102	78.7541	45.4102	78.6902
46.875	80.4238	46.875	80.3607	46.875	80.468	46.875	80.2809	46.875	80.4918	46.875	80.1869	46.875	80.494	46.875	80.0816	46.875	80.4744	46.875	79.9683	46.875	80.4332	46.875	79.8505	46.875	80.3717	46.875	79.7318	46.875	80.2919	46.875	79.616	46.875	80.1968	46.875	79.5067	46.875	80.0899	46.875	79.4073	46.875	79.9753	46.875	79.3207	46.875	79.857	46.875	79.2496	46.875	79.7391	46.875	79.1956	46.875	79.625	46.875	79.1601	46.875	79.5178	46.875	79.1436	46.875	79.4204	46.875	79.1463	46.875	79.3348	46.875	79.1676	46.875	79.2631	46.875	79.2069
48.3398	80.8555	48.3398	80.7902	48.3398	80.9018	48.3398	80.7079	48.3398	80.9273	48.3398	80.6113	48.3398	80.9311	48.3398	80.5035	48.3398	80.9128	48.3398	80.3878	48.3398	80.8727	48.3398	80.2679	48.3398	80.8122	48.3398	80.1477	48.3398	80.7333	48.3398	80.0312	48.3398	80.639	48.3398	79.9221	48.3398	80.5329	48.3398	79.824	48.3398	80.419	48.3398	79.7399	48.3398	80.3016	48.3398	79.672	48.3398	80.1845	48.3398	79.6222	48.3398	80.0712	48.3398	79.5911	48.3398	79.9649	48.3398	79.5791	48.3398	79.868	48.3398	79.5859	48.3398	79.7824	48.3398	79.6106	48.3398	79.7101	48.3398	79.6524
51.2695	81.754	51.2695	81.6885	51.2695	81.7975	51.2695	81.603	51.2695	81.8177	51.2695	81.5	51.2695	81.814	51.2695	81.383	51.2695	81.7867	51.2695	81.2556	51.2695	81.7367	51.2695	81.1222	51.2695	81.6657	51.2695	80.9873	51.2695	81.5765	51.2695	80.8558	51.2695	81.4726	51.2695	80.7323	51.2695	81.3579	51.2695	80.6213	51.2695	81.2368	51.2695	80.5265	51.2695	81.1136	51.2695	80.451	51.2695	80.9923	51.2695	80.3968	51.2695	80.8761	51.2695	80.3647	51.2695	80.7675	51.2695	80.3546	51.2695	80.6684	51.2695	80.3652	51.2695	80.5802	51.2695	80.395	51.2695	80.5042	51.2695	80.4419
52.7344	82.1748	52.7344	82.1115	52.7344	82.216	52.7344	82.0282	52.7344	82.2337	52.7344	81.9276	52.7344	82.2271	52.7344	81.8132	52.7344	82.1967	52.7344	81.6886	52.7344	82.1434	52.7344	81.5581	52.7344	82.0695	52.7344	81.4259	52.7344	81.9779	52.7344	81.2965	52.7344	81.8721	52.7344	81.1742	52.7344	81.7563	52.7344	81.0631	52.7344	81.6348	52.7344	80.9669	52.7344	81.5117	52.7344	80.8884	52.7344	81.3906	52.7344	80.8298	52.7344	81.2748	52.7344	80.7923	52.7344	81.1665	52.7344	80.776	52.7344	81.0678	52.7344	80.7806	52.7344	80.9807	52.7344	80.8049	52.7344	80.9066	52.7344	80.8475
54.1992	82.4894	54.1992	82.4307	54.1992	82.5262	54.1992	82.3524	54.1992	82.5396	54.1992	82.2572	54.1992	82.5293	54.1992	82.1485	54.1992	82.4956	54.1992	82.0303	54.1992	82.44	54.1992	81.9068	54.1992	82.365	54.1992	81.7822	54.1992	82.2739	54.1992	81.6612	54.1992	82.171	54.1992	81.5479	54.1992	82.0606	54.1992	81.4464	54.1992	81.9475	54.1992	81.36	54.1992	81.8356	54.1992	81.2913	54.1992	81.7285	54.1992	81.2418	54.1992	81.6284	54.1992	81.2121	54.1992	81.537	54.1992	81.2015	54.1992	81.4549	54.1992	81.2089	54.1992	81.3827	54.1992	81.2325	54.1992	81.3209	54.1992	81.2704
55.6641	82.8596	55.6641	82.8003	55.6641	82.8972	55.6641	82.7214	55.6641	82.9116	55.6641	82.6258	55.6641	82.9021	55.6641	82.5169	55.6641	82.8691	55.6641	82.3986	55.6641	82.8138	55.6641	82.2751	55.6641	82.7388	55.6641	82.151	55.6641	82.6473	55.6641	82.0308	55.6641	82.5436	55.6641	81.9191	55.6641	82.4326	55.6641	81.82	55.6641	82.3193	55.6641	81.7367	55.6641	82.2082	55.6641	81.6719	55.6641	82.1031	55.6641	81.6267	55.6641	82.0065	55.6641	81.6014	55.6641	81.9195	55.6641	81.5949	55.6641	81.8425	55.6641	81.6054	55.6641	81.775	55.6641	81.6307	55.6641	81.7169	55.6641	81.6684
58.5938	83.5556	58.5938	83.4904	58.5938	83.5975	58.5938	83.4041	58.5938	83.6145	58.5938	83.2997	58.5938	83.6059	58.5938	83.1805	58.5938	83.5717	58.5938	83.0505	58.5938	83.5131	58.5938	82.9142	58.5938	83.4322	58.5938	82.7762	58.5938	83.3324	58.5938	82.6415	58.5938	83.2178	58.5938	82.5147	58.5938	83.0936	58.5938	82.4005	58.5938	82.965	58.5938	82.3026	58.5938	82.8371	58.5938	82.2241	58.5938	82.714	58.5938	82.1669	58.5938	82.599	58.5938	82.1319	58.5938	82.4942	58.5938	82.1185	58.5938	82.4006	58.5938	82.1256	58.5938	82.3188	58.5938	82.1511	58.5938	82.2493	58.5938	82.1929
60.0586	83.9261	60.0586	83.8591	60.0586	83.9699	60.0586	83.7715	60.0586	83.9887	60.0586	83.6665	60.0586	83.9816	60.0586	83.5478	60.0586	83.9489	60.0586	83.4198	60.0586	83.8918	60.0586	83.287	60.0586	83.8128	60.0586	83.1542	60.0586	83.7155	60.0586	83.0262	60.0586	83.6045	60.0586	82.9076	60.0586	83.4851	60.0586	82.8026	60.0586	83.3627	60.0586	82.7145	60.0586	83.2422	60.0586	82.6459	60.0586	83.1274	60.0586	82.5979	60.0586	83.0211	60.0586	82.5708	60.0586	82.9247	60.0586	82.5637	60.0586	82.8387	60.0586	82.5749	60.0586	82.7631	60.0586	82.6024	60.0586	82.698	60.0586	82.644
62.9883	84.5865	62.9883	84.5169	62.9883	84.6315	62.9883	84.4253	62.9883	84.6502	62.9883	84.3151	62.9883	84.6417	62.9883	84.1903	62.9883	84.6062	62.9883	84.0554	62.9883	84.5451	62.9883	83.9155	62.9883	84.4611	62.9883	83.7758	62.9883	84.358	62.9883	83.6417	62.9883	84.2408	62.9883	83.5183	62.9883	84.1152	62.9883	83.4102	62.9883	83.9871	62.9883	83.3208	62.9883	83.8618	62.9883	83.2526	62.9883	83.7436	62.9883	83.2066	62.9883	83.6354	62.9883	83.1824	62.9883	83.5387	62.9883	83.1783	62.9883	83.4535	62.9883	83.1921	62.9883	83.3794	62.9883	83.2211	62.9883	83.3159	62.9883	83.2629
64.4531	84.9046	64.4531	84.8301	64.4531	84.9538	64.4531	84.7329	64.4531	84.9757	64.4531	84.6166	64.4531	84.9696	64.4531	84.4853	64.4531	84.9357	64.4531	84.3439	64.4531	84.8754	64.4531	84.1978	64.4531	84.7914	64.4531	84.0527	64.4531	84.6875	64.4531	83.9142	64.4531	84.5687	64.4531	83.7876	64.4531	84.4408	64.4531	83.6778	64.4531	84.3096	64.4531	83.5883	64.4531	84.1807	64.4531	83.5214	64.4531	84.0585	64.4531	83.4778	64.4531	83.9461	64.4531	83.4569	64.4531	83.8451	64.4531	83.4566	64.4531	83.7557	64.4531	83.4744	64.4531	83.6776	64.4531	83.5074	64.4531	83.6101	64.4531	83.5532
67.3828	85.4702	67.3828	85.3868	67.3828	85.5272	67.3828	85.2798	67.3828	85.5562	67.3828	85.1528	67.3828	85.5565	67.3828	85.0102	67.3828	85.5289	67.3828	84.8574	67.3828	85.4748	67.3828	84.7001	67.3828	85.3971	67.3828	84.5446	67.3828	85.2998	67.3828	84.3973	67.3828	85.1876	67.3828	84.2643	67.3828	85.0657	67.3828	84.151	67.3828	84.9395	67.3828	84.0616	67.3828	84.8135	67.3828	83.9988	67.3828	84.6916	67.3828	83.9633	67.3828	84.5761	67.3828	83.9541	67.3828	84.4683	67.3828	83.9686	67.3828	84.3686	67.3828	84.0033	67.3828	84.2769	67.3828	84.0545	67.3828	84.1934	67.3828	84.1187
68.8477	85.7282	68.8477	85.6477	68.8477	85.7828	68.8477	85.5437	68.8477	85.8101	68.8477	85.4195	68.8477	85.8097	68.8477	85.2793	68.8477	85.7822	68.8477	85.128	68.8477	85.7296	68.8477	84.9713	68.8477	85.6545	68.8477	84.8153	68.8477	85.561	68.8477	84.6664	68.8477	85.4536	68.8477	84.531	68.8477	85.3374	68.8477	84.4149	68.8477	85.2172	68.8477	84.3229	68.8477	85.0972	68.8477	84.2583	68.8477	84.9803	68.8477	84.2222	68.8477	84.8684	68.8477	84.2142	68.8477	84.7623	68.8477	84.2318	68.8477	84.662	68.8477	84.2712	68.8477	84.5676	68.8477	84.3283	68.8477	84.4794	68.8477	84.3989
71.7773	86.3359	71.7773	86.2664	71.7773	86.3782	71.7773	86.1719	71.7773	86.392	71.7773	86.0557	71.7773	86.3773	71.7773	85.9217	71.7773	86.3352	71.7773	85.7748	71.7773	86.2681	71.7773	85.6206	71.7773	86.1797	71.7773	85.4651	71.7773	86.0751	71.7773	85.3149	71.7773	85.96	71.7773	85.1764	71.7773	85.8402	71.7773	85.0557	71.7773	85.7211	71.7773	84.958	71.7773	85.6068	71.7773	84.8869	71.7773	85.4996	71.7773	84.8442	71.7773	85.3999	71.7773	84.8295	71.7773	85.3071	71.7773	84.8407	71.7773	85.22	71.7773	84.8738	71.7773	85.1374	71.7773	84.9244	71.7773	85.0595	71.7773	84.9876
74.707	86.9076	74.707	86.8475	74.707	86.9387	74.707	86.7612	74.707	86.9395	74.707	86.6523	74.707	86.9096	74.707	86.5253	74.707	86.8506	74.707	86.3855	74.707	86.7655	74.707	86.2387	74.707	86.659	74.707	86.0911	74.707	86.5373	74.707	85.9492	74.707	86.4076	74.707	85.8188	74.707	86.2774	74.707	85.7055	74.707	86.1533	74.707	85.6134	74.707	86.0405	74.707	85.545	74.707	85.9417	74.707	85.5013	74.707	85.8569	74.707	85.4811	74.707	85.7846	74.707	85.4818	74.707	85.722	74.707	85.4996	74.707	85.6663	74.707	85.5303	74.707	85.6157	74.707	85.5699
77.6367	87.3509	77.6367	87.2836	77.6367	87.3879	77.6367	87.1889	77.6367	87.3931	77.6367	87.071	77.6367	87.3663	77.6367	86.9349	77.6367	87.3089	77.6367	86.7866	77.6367	87.2243	77.6367	86.6328	77.6367	87.1174	77.6367	86.4806	77.6367	86.9949	77.6367	86.337	77.6367	86.8644	77.6367	86.2088	77.6367	86.734	77.6367	86.1017	77.6367	86.6109	77.6367	86.0195	77.6367	86.5005	77.6367	85.9644	77.6367	86.4058	77.6367	85.9359	77.6367	86.3267	77.6367	85.9315	77.6367	86.261	77.6367	85.9469	77.6367	86.2049	77.6367	85.9769	77.6367	86.1546	77.6367	86.0163	77.6367	86.1069	77.6367	86.0605
79.1016	87.5534	79.1016	87.4834	79.1016	87.5922	79.1016	87.385	79.1016	87.5981	79.1016	87.2624	79.1016	87.571	79.1016	87.1209	79.1016	87.5126	79.1016	86.9667	79.1016	87.4262	79.1016	86.8068	79.1016	87.3171	79.1016	86.6488	79.1016	87.1921	79.1016	86.5002	79.1016	87.0592	79.1016	86.3682	79.1016	86.9266	79.1016	86.259	79.1016	86.8019	79.1016	86.1768	79.1016	86.6907	79.1016	86.1236	79.1016	86.5959	79.1016	86.0988	79.1016	86.5174	79.1016	86.0995	79.1016	86.4526	79.1016	86.1206	79.1016	86.3972	79.1016	86.1564	79.1016	86.3467	79.1016	86.2008	79.1016	86.2979	79.1016	86.249
82.0312	87.9578	82.0312	87.8841	82.0312	87.9983	82.0312	87.7803	82.0312	88.0042	82.0312	87.6506	82.0312	87.9753	82.0312	87.5004	82.0312	87.9135	82.0312	87.3361	82.0312	87.8221	82.0312	87.1651	82.0312	87.7067	82.0312	86.9956	82.0312	87.5742	82.0312	86.8356	82.0312	87.4332	82.0312	86.6933	82.0312	87.2923	82.0312	86.5755	82.0312	87.1596	82.0312	86.487	82.0312	87.0412	82.0312	86.4302	82.0312	86.9402	82.0312	86.4047	82.0312	86.8569	82.0312	86.4069	82.0312	86.7883	82.0312	86.4314	82.0312	86.7299	82.0312	86.4714	82.0312	86.6767	82.0312	86.5203	82.0312	86.625	82.0312	86.5726
84.9609	88.2612	84.9609	88.1866	84.9609	88.3022	84.9609	88.0811	84.9609	88.308	84.9609	87.949	84.9609	88.2789	84.9609	87.7958	84.9609	88.2168	84.9609	87.6278	84.9609	88.1254	84.9609	87.4526	84.9609	88.0104	84.9609	87.2784	84.9609	87.8788	84.9609	87.1135	84.9609	87.739	84.9609	86.9661	84.9609	87.5991	84.9609	86.8433	84.9609	87.4666	84.9609	86.7501	84.9609	87.347	84.9609	86.6893	84.9609	87.2429	84.9609	86.6604	84.9609	87.1542	84.9609	86.6605	84.9609	87.0785	84.9609	86.6841	84.9609	87.012	84.9609	86.7248	84.9609	86.9506	84.9609	86.7762	84.9609	86.8913	84.9609	86.8328
87.8906	88.391	87.8906	88.3204	87.8906	88.4272	87.8906	88.218	87.8906	88.4279	87.8906	88.0883	87.8906	88.394	87.8906	87.9369	87.8906	88.3283	87.8906	87.7712	87.8906	88.2361	87.8906	87.5994	87.8906	88.1242	87.8906	87.4306	87.8906	88.0014	87.8906	87.2743	87.8906	87.8769	87.8906	87.1395	87.8906	87.7595	87.8906	87.0336	87.8906	87.6561	87.8906	86.9618	87.8906	87.5704	87.8906	86.9258	87.8906	87.5025	87.8906	86.924	87.8906	87.4488	87.8906	86.9515	87.8906	87.4038	87.8906	87.001	87.8906	87.361	87.8906	87.0642	87.8906	87.3147	87.8906	87.1329	87.8906	87.2614	87.8906	87.2002
90.8203	88.6782	90.8203	88.6062	90.8203	88.7119	90.8203	88.4985	90.8203	88.7065	90.8203	88.3594	90.8203	88.6633	90.8203	88.1949	90.8203	88.5854	90.8203	88.0125	90.8203	88.4786	90.8203	87.8211	90.8203	88.3506	90.8203	87.631	90.8203	88.2111	90.8203	87.4531	90.8203	88.0708	90.8203	87.2981	90.8203	87.94	90.8203	87.1756	90.8203	87.8271	90.8203	87.0922	90.8203	87.7367	90.8203	87.0511	90.8203	87.6688	90.8203	87.0507	90.8203	87.619	90.8203	87.0854	90.8203	87.5798	90.8203	87.146	90.8203	87.5425	90.8203	87.2219	90.8203	87.4995	90.8203	87.3026	90.8203	87.4456	90.8203	87.3792
95.2148	88.9982	95.2148	88.9273	95.2148	89.0271	95.2148	88.8169	95.2148	89.0132	95.2148	88.6713	95.2148	88.9577	95.2148	88.4962	95.2148	88.8642	95.2148	88.2989	95.2148	88.7385	95.2148	88.0878	95.2148	88.5891	95.2148	87.8732	95.2148	88.4266	95.2148	87.6661	95.2148	88.2627	95.2148	87.478	95.2148	88.109	95.2148	87.3198	95.2148	87.9744	95.2148	87.2006	95.2148	87.8639	95.2148	87.1258	95.2148	87.7773	95.2148	87.0968	95.2148	87.7097	95.2148	87.1097	95.2148	87.6533	95.2148	87.1567	95.2148	87.5992	95.2148	87.2271	95.2148	87.5401	95.2148	87.3095	95.2148	87.4717	95.2148	87.3935
98.1445	89.0904	98.1445	89.0331	98.1445	89.1021	98.1445	88.933	98.1445	89.0675	98.1445	88.7946	98.1445	88.9882	98.1445	88.6243	98.1445	88.8685	98.1445	88.4296	98.1445	88.7157	98.1445	88.2198	98.1445	88.5401	98.1445	88.0053	98.1445	88.3545	98.1445	87.7974	98.1445	88.1732	98.1445	87.6074	98.1445	88.0097	98.1445	87.4461	98.1445	87.8742	98.1445	87.3221	98.1445	87.7715	98.1445	87.2405	98.1445	87.6998	98.1445	87.2024	98.1445	87.6517	98.1445	87.2042	98.1445	87.6165	98.1445	87.2384	98.1445	87.5834	98.1445	87.2949	98.1445	87.5438	98.1445	87.3625	98.1445	87.493	98.1445	87.4312
101.074	89.0239	101.074	88.9751	101.074	89.0233	101.074	88.8804	101.074	88.9724	101.074	88.745	101.074	88.8726	101.074	88.576	101.074	88.7285	101.074	88.3818	101.074	88.5485	101.074	88.1723	101.074	88.3444	101.074	87.9587	101.074	88.1315	101.074	87.7529	101.074	87.9276	101.074	87.5666	101.074	87.7498	101.074	87.4109	101.074	87.6116	101.074	87.2941	101.074	87.5196	101.074	87.2208	101.074	87.4711	101.074	87.1908	101.074	87.4559	101.074	87.199	101.074	87.459	101.074	87.2362	101.074	87.4649	101.074	87.2905	101.074	87.4613	101.074	87.3497	101.074	87.441	101.074	87.4026
105.469	89.1931	105.469	89.1344	105.469	89.2017	105.469	89.0301	105.469	89.1577	105.469	88.886	105.469	89.0604	105.469	88.7094	105.469	88.9123	105.469	88.5086	105.469	88.7189	105.469	88.2933	105.469	88.4904	105.469	88.0744	105.469	88.2413	105.469	87.8637	105.469	87.9911	105.469	87.6735	105.469	87.7617	105.469	87.5151	105.469	87.5743	105.469	87.3978	105.469	87.4442	105.469	87.3262	105.469	87.3761	105.469	87.2997	105.469	87.3625	105.469	87.3113	105.469	87.3865	105.469	87.3492	105.469	87.4265	105.469	87.3987	105.469	87.4629	105.469	87.4447	105.469	87.4812	105.469	87.4748
108.398	89.4402	108.398	89.3714	108.398	89.4596	108.398	89.2576	108.398	89.4268	108.398	89.104	108.398	89.3406	108.398	88.9173	108.398	89.2021	108.398	88.7052	108.398	89.0153	108.398	88.4769	108.398	88.788	108.398	88.2429	108.398	88.5324	108.398	88.0147	108.398	88.2654	108.398	87.8047	108.398	88.0074	108.398	87.6244	108.398	87.7801	108.398	87.4837	108.398	87.6017	108.398	87.3881	108.398	87.4823	108.398	87.3383	108.398	87.421	108.398	87.3286	108.398	87.4058	108.398	87.3481	108.398	87.4179	108.398	87.3828	108.398	87.4374	108.398	87.4182	108.398	87.4485	108.398	87.4423
112.793	89.5139	112.793	89.4465	112.793	89.5291	112.793	89.3307	112.793	89.4898	112.793	89.1719	112.793	89.3959	112.793	88.9771	112.793	89.2495	112.793	88.7545	112.793	89.0562	112.793	88.5141	112.793	88.8249	112.793	88.267	112.793	88.5689	112.793	88.0258	112.793	88.3052	112.793	87.8034	112.793	88.0538	112.793	87.6122	112.793	87.834	112.793	87.4622	112.793	87.6614	112.793	87.3593	112.793	87.5431	112.793	87.304	112.793	87.4763	112.793	87.2908	112.793	87.4492	112.793	87.3093	112.793	87.4449	112.793	87.3458	112.793	87.4463	112.793	87.3867	112.793	87.4404	112.793	87.4204
117.188	89.4875	117.188	89.4281	117.188	89.4936	117.188	89.3198	117.188	89.4436	117.188	89.1685	117.188	89.3373	117.188	88.9818	117.188	89.1771	117.188	88.7686	117.188	88.9689	117.188	88.5391	117.188	88.7224	117.188	88.3048	117.188	88.4525	117.188	88.0779	117.188	88.1784	117.188	87.871	117.188	87.9225	117.188	87.6957	117.188	87.7073	117.188	87.5611	117.188	87.5496	117.188	87.4719	117.188	87.4566	117.188	87.4273	117.188	87.423	117.188	87.4209	117.188	87.4329	117.188	87.4412	117.188	87.4655	117.188	87.4743	117.188	87.5004	117.188	87.5059	117.188	87.5224	117.188	87.5242
120.117	89.5075	120.117	89.4421	120.117	89.5179	120.117	89.3268	120.117	89.4701	120.117	89.1681	120.117	89.363	120.117	88.9739	120.117	89.1981	120.117	88.7537	120.117	88.98	120.117	88.5183	120.117	88.7177	120.117	88.2799	120.117	88.4255	120.117	88.0511	120.117	88.1231	120.117	87.8451	120.117	87.8355	120.117	87.6733	120.117	87.5891	120.117	87.5444	120.117	87.4065	120.117	87.462	120.117	87.2999	120.117	87.4237	120.117	87.2666	120.117	87.4212	120.117	87.2901	120.117	87.4412	120.117	87.346	120.117	87.4682	120.117	87.409	120.117	87.4872	120.117	87.4594	120.117	87.4862
124.512	89.4676	124.512	89.3784	124.512	89.5004	124.512	89.238	124.512	89.4735	124.512	89.0536	124.512	89.3856	124.512	88.8337	124.512	89.2379	124.512	88.5888	124.512	89.0347	124.512	88.3313	124.512	88.7843	124.512	88.0747	124.512	88.4999	124.512	87.8337	124.512	88.1999	124.512	87.6228	124.512	87.9075	124.512	87.4542	124.512	87.6483	124.512	87.3361	124.512	87.4455	124.512	87.2707	124.512	87.3135	124.512	87.2531	124.512	87.2536	124.512	87.2721	124.512	87.2531	124.512	87.3119	124.512	87.2897	124.512	87.3555	124.512	87.3387	124.512	87.3873	124.512	87.3787	124.512	87.3964
128.906	89.3643	128.906	89.2673	128.906	89.4016	128.906	89.116	128.906	89.3758	128.906	88.9175	128.906	89.286	128.906	88.6811	128.906	89.1335	128.906	88.4184	128.906	88.9228	128.906	88.1428	128.906	88.6628	128.906	87.87	128.906	88.3671	128.906	87.6164	128.906	88.0554	128.906	87.3983	128.906	87.7526	128.906	87.2292	128.906	87.4859	128.906	87.1175	128.906	87.28	128.906	87.0644	128.906	87.1499	128.906	87.0628	128.906	87.096	128.906	87.099	128.906	87.1039	128.906	87.1548	128.906	87.149	128.906	87.2113	128.906	87.2047	128.906	87.2521	128.906	87.2484	128.906	87.2658
133.301	89.256	133.301	89.1362	133.301	89.3122	133.301	88.9584	133.301	89.3016	133.301	88.7302	133.301	89.223	133.301	88.4616	133.301	89.078	133.301	88.1655	133.301	88.871	133.301	87.8573	133.301	88.6106	133.301	87.5553	133.301	88.3103	133.301	87.2794	133.301	87.9896	133.301	87.0493	133.301	87.6739	133.301	86.8814	133.301	87.3924	133.301	86.7852	133.301	87.1728	133.301	86.7605	133.301	87.0335	133.301	86.7967	133.301	86.9774	133.301	86.8747	133.301	86.9894	133.301	86.9714	133.301	87.0423	133.301	87.0633	133.301	87.1048	133.301	87.1308	133.301	87.1503	133.301	87.1611
139.16	89.2051	139.16	89.0742	139.16	89.268	139.16	88.88	139.16	89.2601	139.16	88.6292	139.16	89.1805	139.16	88.3309	139.16	89.0307	139.16	87.9974	139.16	88.8151	139.16	87.6444	139.16	88.5418	139.16	87.2917	139.16	88.2241	139.16	86.963	139.16	87.8813	139.16	86.6836	139.16	87.5389	139.16	86.4767	139.16	87.2274	139.16	86.3574	139.16	86.9765	139.16	86.3279	139.16	86.808	139.16	86.3757	139.16	86.7277	139.16	86.4766	139.16	86.7221	139.16	86.6008	139.16	86.7634	139.16	86.7193	139.16	86.8179	139.16	86.8089	139.16	86.8554	139.16	86.8554
143.555	89.1296	143.555	88.9956	143.555	89.1939	143.555	88.796	143.555	89.1859	143.555	88.5367	143.555	89.1054	143.555	88.2257	143.555	88.9538	143.555	87.8742	143.555	88.7359	143.555	87.4969	143.555	88.4599	143.555	87.1135	143.555	88.1388	143.555	86.7486	143.555	87.7914	143.555	86.4303	143.555	87.442	143.555	86.1863	143.555	87.1196	143.555	86.0369	143.555	86.8531	143.555	85.9883	143.555	86.6641	143.555	86.0296	143.555	86.5598	143.555	86.1351	143.555	86.5292	143.555	86.2715	143.555	86.5466	143.555	86.4063	143.555	86.5793	143.555	86.5137	143.555	86.597	143.555	86.5783
147.949	89.0613	147.949	88.9197	147.949	89.1293	147.949	88.7084	147.949	89.1216	147.949	88.4329	147.949	89.0378	147.949	88.1011	147.949	88.8798	147.949	87.7234	147.949	88.6527	147.949	87.3148	147.949	88.3651	147.949	86.8954	147.949	88.0311	147.949	86.4913	147.949	87.6703	147.949	86.134	147.949	87.3089	147.949	85.8559	147.949	86.9772	147.949	85.6829	147.949	86.705	147.949	85.6255	147.949	86.5139	147.949	85.6737	147.949	86.4093	147.949	85.7995	147.949	86.3773	147.949	85.9652	147.949	86.3893	147.949	86.1332	147.949	86.4108	147.949	86.2735	147.949	86.4106	147.949	86.3677
153.809	89.0021	153.809	88.8514	153.809	89.0714	153.809	88.6237	153.809	89.057	153.809	88.325	153.809	88.9589	153.809	87.9632	153.809	88.7797	153.809	87.5492	153.809	88.5255	153.809	87.0974	153.809	88.2061	153.809	86.6279	153.809	87.8369	153.809	86.1681	153.809	87.4388	153.809	85.7521	153.809	87.0392	153.809	85.4177	153.809	86.6701	153.809	85.1981	153.809	86.3636	153.809	85.1099	153.809	86.1431	153.809	85.1456	153.809	86.0154	153.809	85.2747	153.809	85.9664	153.809	85.4541	153.809	85.9658	153.809	85.6402	153.809	85.9766	153.809	85.7989	153.809	85.9654	153.809	85.9092
159.668	89.2487	159.668	89.1213	159.668	89.3002	159.668	88.9194	159.668	89.2763	159.668	88.6459	159.668	89.1793	159.668	88.3056	159.668	89.0137	159.668	87.9058	159.668	88.7867	159.668	87.4574	159.668	88.5083	159.668	86.9766	159.668	88.1925	159.668	86.4876	159.668	87.8572	159.668	86.0244	159.668	87.5247	159.668	85.6294	159.668	87.2194	159.668	85.3469	159.668	86.9639	159.668	85.2092	159.668	86.7732	159.668	85.2225	159.668	86.6486	159.668	85.3623	159.668	86.5761	159.668	85.5823	159.668	86.5291	159.668	85.831	159.668	86.4767	159.668	86.0648	159.668	86.3914	159.668	86.2555
165.527	89.3621	165.527	89.2473	165.527	89.3975	165.527	89.0567	165.527	89.3514	165.527	88.7954	165.527	89.2239	165.527	88.4702	165.527	89.0177	165.527	88.09	165.527	88.7394	165.527	87.6669	165.527	88.4008	165.527	87.2181	165.527	88.0203	165.527	86.7678	165.527	87.625	165.527	86.3478	165.527	87.2493	165.527	85.9967	165.527	86.932	165.527	85.7527	165.527	86.7061	165.527	85.6423	165.527	86.5877	165.527	85.6689	165.527	86.5669	165.527	85.8089	165.527	86.6108	165.527	86.0194	165.527	86.6745	165.527	86.2511	165.527	86.7151	165.527	86.4604	165.527	86.7008	165.527	86.6158
171.387	89.4553	171.387	89.3186	171.387	89.5119	171.387	89.1056	171.387	89.4856	171.387	88.8209	171.387	89.3757	171.387	88.4702	171.387	89.1831	171.387	88.0608	171.387	88.9117	171.387	87.6026	171.387	88.5695	171.387	87.1102	171.387	88.1701	171.387	86.6064	171.387	87.7352	171.387	86.1248	171.387	87.297	171.387	85.7103	171.387	86.8977	171.387	85.4127	171.387	86.5825	171.387	85.2713	171.387	86.3856	171.387	85.2961	171.387	86.3131	171.387	85.4598	171.387	86.3369	171.387	85.7075	171.387	86.405	171.387	85.9765	171.387	86.4612	171.387	86.2127	171.387	86.4612	171.387	86.3798
177.246	89.2307	177.246	89.0843	177.246	89.2954	177.246	88.8599	177.246	89.2763	177.246	88.5627	177.246	89.1732	177.246	88.1994	177.246	88.9881	177.246	87.7794	177.246	88.7259	177.246	87.3154	177.246	88.3954	177.246	86.8253	177.246	88.0111	177.246	86.3343	177.246	87.5945	177.246	85.8768	177.246	87.1761	177.246	85.4946	177.246	86.7939	177.246	85.2304	177.246	86.4881	177.246	85.1143	177.246	86.2887	177.246	85.1504	177.246	86.2016	177.246	85.3117	177.246	86.2036	177.246	85.5484	177.246	86.2493	177.246	85.8044	177.246	86.2878	177.246	86.0305	177.246	86.2773	177.246	86.1931
183.105	89.3367	183.105	89.2038	183.105	89.3807	183.105	88.9839	183.105	89.3348	183.105	88.6797	183.105	89.1997	183.105	88.2948	183.105	88.9784	183.105	87.8342	183.105	88.677	183.105	87.3063	183.105	88.3055	183.105	86.7265	183.105	87.8798	183.105	86.1222	183.105	87.4234	183.105	85.5384	183.105	86.9699	183.105	85.0397	183.105	86.5628	183.105	84.6998	183.105	86.2493	183.105	84.5742	183.105	86.0641	183.105	84.6689	183.105	86.0124	183.105	84.9332	183.105	86.0619	183.105	85.2841	183.105	86.1548	183.105	85.6393	183.105	86.2287	183.105	85.9366	183.105	86.2335	183.105	86.1391
188.965	89.5288	188.965	89.414	188.965	89.5548	188.965	89.212	188.965	89.4918	188.965	88.9248	188.965	89.3417	188.965	88.5549	188.965	89.1089	188.965	88.1056	188.965	88.8012	188.965	87.582	188.965	88.43	188.965	86.9939	188.965	88.0107	188.965	86.3604	188.965	87.5643	188.965	85.7161	188.965	87.1181	188.965	85.1175	188.965	86.7066	188.965	84.641	188.965	86.3677	188.965	84.3643	188.965	86.1327	188.965	84.3292	188.965	86.0115	188.965	84.513	188.965	85.9832	188.965	84.8375	188.965	86.0006	188.965	85.2076	188.965	86.0059	188.965	85.544	188.965	85.9488	188.965	85.7975
196.289	89.7063	196.289	89.6138	196.289	89.6998	196.289	89.4255	196.289	89.593	196.289	89.1457	196.289	89.3876	196.289	88.7793	196.289	89.0899	196.289	88.3319	196.289	88.7125	196.289	87.8105	196.289	88.2763	196.289	87.2265	196.289	87.8135	196.289	86.5998	196.289	87.3667	196.289	85.9664	196.289	86.9847	196.289	85.3843	196.289	86.7111	196.289	84.9325	196.289	86.5681	196.289	84.6906	196.289	86.5464	196.289	84.7002	196.289	86.6078	196.289	84.9355	196.289	86.6984	196.289	85.3155	196.289	86.7646	196.289	85.7437	196.289	86.763	196.289	86.1408	196.289	86.6646	196.289	86.456
203.613	90.2807	203.613	90.1652	203.613	90.2896	203.613	89.9508	203.613	90.184	203.613	89.6443	203.613	89.9563	203.613	89.2507	203.613	89.6	203.613	88.7732	203.613	89.1105	203.613	88.2145	203.613	88.4882	203.613	87.579	203.613	87.7437	203.613	86.8787	203.613	86.9105	203.613	86.1427	203.613	86.0635	203.613	85.4288	203.613	85.3333	203.613	84.831	203.613	84.8811	203.613	84.4614	203.613	84.8046	203.613	84.3957	203.613	85.0497	203.613	84.6161	203.613	85.4502	203.613	85.0169	203.613	85.8388	203.613	85.466	203.613	86.1067	203.613	85.8552	203.613	86.2025	203.613	86.1138
210.938	89.9875	210.938	89.8613	210.938	90.0196	210.938	89.6472	210.938	89.952	210.938	89.352	210.938	89.7806	210.938	88.9811	210.938	89.5027	210.938	88.5386	210.938	89.1165	210.938	88.0262	210.938	88.6218	210.938	87.4451	210.938	88.021	210.938	86.799	210.938	87.3242	210.938	86.1021	210.938	86.5582	210.938	85.3907	210.938	85.7813	210.938	84.7353	210.938	85.0953	210.938	84.24	210.938	84.6282	210.938	84.0057	210.938	84.4668	210.938	84.0636	210.938	84.5825	210.938	84.3409	210.938	84.8436	210.938	84.7039	210.938	85.0992	210.938	85.025	210.938	85.2412	210.938	85.2176
218.262	89.8035	218.262	89.6706	218.262	89.8418	218.262	89.4493	218.262	89.7812	218.262	89.1474	218.262	89.6196	218.262	88.7727	218.262	89.3578	218.262	88.3328	218.262	88.9994	218.262	87.8344	218.262	88.5516	218.262	87.2848	218.262	88.0268	218.262	86.694	218.262	87.4459	218.262	86.0807	218.262	86.8434	218.262	85.4788	218.262	86.2719	218.262	84.9443	218.262	85.799	218.262	84.5503	218.262	85.4881	218.262	84.3636	218.262	85.3649	218.262	84.4057	218.262	85.3955	218.262	84.6308	218.262	85.5001	218.262	84.9465	218.262	85.5896	218.262	85.2552	218.262	85.5959	218.262	85.4841
225.586	90.5572	225.586	90.4037	225.586	90.5965	225.586	90.1452	225.586	90.5134	225.586	89.7916	225.586	90.3018	225.586	89.3524	225.586	89.9579	225.586	88.8358	225.586	89.4809	225.586	88.2492	225.586	88.8742	225.586	87.6006	225.586	88.1506	225.586	86.9038	225.586	87.3426	225.586	86.1866	225.586	86.5204	225.586	85.5033	225.586	85.8081	225.586	84.9424	225.586	85.3636	225.586	84.6117	225.586	85.289	225.586	84.5871	225.586	85.5385	225.586	84.8544	225.586	85.9472	225.586	85.3096	225.586	86.3421	225.586	85.8167	225.586	86.6073	225.586	86.2612	225.586	86.6865	225.586	86.5658
232.91	90.6277	232.91	90.441	232.91	90.7135	232.91	90.1632	232.91	90.6888	232.91	89.8042	232.91	90.5444	232.91	89.3726	232.91	90.2697	232.91	88.8746	232.91	89.8516	232.91	88.3139	232.91	89.2739	232.91	87.6932	232.91	88.5208	232.91	87.0197	232.91	87.5858	232.91	86.3135	232.91	86.4925	232.91	85.6188	232.91	85.3361	232.91	85.013	232.91	84.3341	232.91	84.5965	232.91	83.7922	232.91	84.4507	232.91	83.8646	232.91	84.5817	232.91	84.3687	232.91	84.9049	232.91	84.9809	232.91	85.2902	232.91	85.4741	232.91	85.6149	232.91	85.7493	232.91	85.7876
241.699	90.2735	241.699	90.005	241.699	90.4456	241.699	89.6505	241.699	90.5106	241.699	89.2205	241.699	90.4578	241.699	88.7236	241.699	90.276	241.699	88.166	241.699	89.9511	241.699	87.5523	241.699	89.4657	241.699	86.8873	241.699	88.7983	241.699	86.1827	241.699	87.9252	241.699	85.4675	241.699	86.8303	241.699	84.8001	241.699	85.5322	241.699	84.273	241.699	84.1506	241.699	83.9872	241.699	83.0044	241.699	83.994	241.699	82.5461	241.699	84.2467	241.699	82.8972	241.699	84.6211	241.699	83.6661	241.699	84.9773	241.699	84.4232	241.699	85.201	241.699	84.957	241.699	85.2113
250.488	91.2491	250.488	90.9484	250.488	91.4464	250.488	90.5488	250.488	91.5348	250.488	90.0529	250.488	91.5086	250.488	89.4604	250.488	91.3617	250.488	88.7667	250.488	91.0877	250.488	87.9619	250.488	90.6785	250.488	87.032	250.488	90.1231	250.488	85.9632	250.488	89.4075	250.488	84.7577	250.488	88.5166	250.488	83.4682	250.488	87.4437	250.488	82.2615	250.488	86.2135	250.488	81.4577	250.488	84.9286	250.488	81.3548	250.488	83.822	250.488	81.8852	250.488	83.202	250.488	82.674	250.488	83.1789	250.488	83.3886	250.488	83.5139	250.488	83.855	250.488	83.8653	250.488	84.0104
259.277	90.6146	259.277	90.3708	259.277	90.7674	259.277	90.0423	259.277	90.8249	259.277	89.6361	259.277	90.785	259.277	89.1587	259.277	90.6456	259.277	88.6138	259.277	90.4036	259.277	88.0005	259.277	90.0512	259.277	87.3137	259.277	89.5747	259.277	86.5476	259.277	88.9551	259.277	85.7048	259.277	88.1737	259.277	84.8143	259.277	87.2262	259.277	83.9561	259.277	86.1506	259.277	83.2757	259.277	85.0688	259.277	82.9407	259.277	84.2075	259.277	83.0175	259.277	83.7948	259.277	83.3941	259.277	83.8417	259.277	83.8619	259.277	84.1167	259.277	84.2385	259.277	84.3594	259.277	84.4156
268.066	90.0446	268.066	89.7644	268.066	90.2216	268.066	89.3884	268.066	90.2902	268.066	88.9237	268.066	90.2481	268.066	88.3743	268.066	90.0958	268.066	87.739	268.066	89.8356	268.066	87.01	268.066	89.469	268.066	86.1747	268.066	88.9942	268.066	85.2238	268.066	88.4047	268.066	84.168	268.066	87.6915	268.066	83.0701	268.066	86.8537	268.066	82.0886	268.066	85.919	268.066	81.4784	268.066	84.9725	268.066	81.4375	268.066	84.1718	268.066	81.8962	268.066	83.6904	268.066	82.5756	268.066	83.5807	268.066	83.2158	268.066	83.7092	268.066	83.6686	268.066	83.8644	268.066	83.8796
276.855	90.0375	276.855	89.8573	276.855	90.1194	276.855	89.5809	276.855	90.1026	276.855	89.2102	276.855	89.989	276.855	88.7444	276.855	89.7824	276.855	88.1781	276.855	89.4871	276.855	87.4984	276.855	89.1043	276.855	86.6837	276.855	88.6302	276.855	85.7054	276.855	88.0555	276.855	84.5368	276.855	87.3711	276.855	83.1784	276.855	86.583	276.855	81.7256	276.855	85.7352	276.855	80.4892	276.855	84.9338	276.855	79.9906	276.855	84.3322	276.855	80.4511	276.855	84.039	276.855	81.4543	276.855	84.0116	276.855	82.4907	276.855	84.0793	276.855	83.3048	276.855	84.059	276.855	83.8233
287.109	89.7914	287.109	89.6514	287.109	89.8301	287.109	89.4168	287.109	89.7631	287.109	89.0938	287.109	89.5884	287.109	88.6857	287.109	89.3064	287.109	88.1898	287.109	88.9192	287.109	87.5946	287.109	88.4301	287.109	86.8801	287.109	87.8423	287.109	86.0211	287.109	87.1596	287.109	84.9977	287.109	86.3909	287.109	83.8197	287.109	85.5657	287.109	82.5801	287.109	84.764	287.109	81.534	287.109	84.1354	287.109	81.0732	287.109	83.8436	287.109	81.3851	287.109	83.9203	287.109	82.2009	287.109	84.2045	287.109	83.1121	287.109	84.4685	287.109	83.8642	287.109	84.545	287.109	84.3511
297.363	90.51	297.363	90.321	297.363	90.5913	297.363	90.0367	297.363	90.5492	297.363	89.6645	297.363	90.3682	297.363	89.2046	297.363	90.0352	297.363	88.6495	297.363	89.5405	297.363	87.983	297.363	88.8773	297.363	87.1789	297.363	88.0397	297.363	86.1991	297.363	87.0251	297.363	84.9929	297.363	85.8425	297.363	83.5069	297.363	84.5395	297.363	81.7287	297.363	83.2558	297.363	79.8497	297.363	82.2802	297.363	78.6067	297.363	81.9465	297.363	78.913	297.363	82.2813	297.363	80.3271	297.363	82.926	297.363	81.8191	297.363	83.4892	297.363	82.9329	297.363	83.74	297.363	83.5706
307.617	89.5947	307.617	89.3141	307.617	89.8009	307.617	88.9892	307.617	89.9097	307.617	88.6506	307.617	89.9083	307.617	88.3193	307.617	89.7922	307.617	87.9972	307.617	89.5577	307.617	87.6621	307.617	89.1927	307.617	87.2685	307.617	88.6673	307.617	86.7551	307.617	87.9304	307.617	86.0547	307.617	86.9144	307.617	85.1057	307.617	85.5538	307.617	83.8756	307.617	83.8359	307.617	82.4206	307.617	81.9502	307.617	81.022	307.617	80.5516	307.617	80.2654	307.617	80.4196	307.617	80.5232	307.617	81.2353	307.617	81.3711	307.617	82.1171	307.617	82.185	307.617	82.6217	307.617	82.6395
319.336	89.2782	319.336	88.9805	319.336	89.481	319.336	88.6039	319.336	89.5797	319.336	88.1704	319.336	89.5709	319.336	87.7033	319.336	89.4534	319.336	87.2193	319.336	89.2234	319.336	86.7197	319.336	88.868	319.336	86.1859	319.336	88.3601	319.336	85.5822	319.336	87.6546	319.336	84.8653	319.336	86.6901	319.336	84.0021	319.336	85.3988	319.336	83.0005	319.336	83.7404	319.336	81.9642	319.336	81.815	319.336	81.1498	319.336	80.1461	319.336	80.8802	319.336	79.6784	319.336	81.214	319.336	80.4602	319.336	81.8323	319.336	81.5269	319.336	82.3542	319.336	82.2713	319.336	82.5393
329.59	88.6352	329.59	88.3478	329.59	88.8271	329.59	87.9789	329.59	88.9229	329.59	87.5535	329.59	88.9326	329.59	87.101	329.59	88.8702	329.59	86.6414	329.59	88.7444	329.59	86.1725	329.59	88.549	329.59	85.6632	329.59	88.2548	329.59	85.0572	329.59	87.8055	329.59	84.2876	329.59	87.1198	329.59	83.2977	329.59	86.0967	329.59	82.0783	329.59	84.6277	329.59	80.7507	329.59	82.6382	329.59	79.6925	329.59	80.2784	329.59	79.426	329.59	78.4872	329.59	79.9859	329.59	78.6174	329.59	80.816	329.59	79.9088	329.59	81.4098	329.59	81.0097	329.59	81.5121
341.309	88.3033	341.309	87.9746	341.309	88.4774	341.309	87.5049	341.309	88.503	341.309	86.9267	341.309	88.4041	341.309	86.2873	341.309	88.2187	341.309	85.6384	341.309	87.9887	341.309	85.017	341.309	87.7431	341.309	84.428	341.309	87.4779	341.309	83.8398	341.309	87.1448	341.309	83.2018	341.309	86.6578	341.309	82.4776	341.309	85.9159	341.309	81.6909	341.309	84.8377	341.309	80.9794	341.309	83.4228	341.309	80.6006	341.309	81.8955	341.309	80.7557	341.309	80.8669	341.309	81.3425	341.309	80.8899	341.309	82.0298	341.309	81.605	341.309	82.5178	341.309	82.3033	341.309	82.631
353.027	88.8925	353.027	88.5658	353.027	89.0485	353.027	88.0826	353.027	89.0355	353.027	87.4713	353.027	88.8712	353.027	86.7703	353.027	88.587	353.027	86.0192	353.027	88.2243	353.027	85.2434	353.027	87.8232	353.027	84.4353	353.027	87.4029	353.027	83.5443	353.027	86.939	353.027	82.4853	353.027	86.3522	353.027	81.1754	353.027	85.5201	353.027	79.6315	353.027	84.3056	353.027	78.2138	353.027	82.6147	353.027	77.8021	353.027	80.5812	353.027	78.7704	353.027	79.0555	353.027	80.2592	353.027	79.2588	353.027	81.4967	353.027	80.5725	353.027	82.2022	353.027	81.7303	353.027	82.291
366.211	89.7156	366.211	89.4117	366.211	89.8517	366.211	88.9531	366.211	89.8149	366.211	88.3618	366.211	89.6074	366.211	87.6672	366.211	89.2381	366.211	86.8993	366.211	88.7242	366.211	86.0779	366.211	88.0955	366.211	85.1958	366.211	87.3914	366.211	84.2027	366.211	86.6441	366.211	82.9959	366.211	85.8443	366.211	81.4191	366.211	84.9132	366.211	79.2793	366.211	83.7115	366.211	76.5113	366.211	82.0985	366.211	74.2603	366.211	80.0992	366.211	75.325	366.211	78.3896	366.211	77.9861	366.211	78.3431	366.211	80.0295	366.211	79.66	366.211	81.1608	366.211	80.8896	366.211	81.4309
379.395	89.2689	379.395	88.854	379.395	89.5436	379.395	88.3235	379.395	89.6735	379.395	87.7266	379.395	89.665	379.395	87.1322	379.395	89.5295	379.395	86.6045	379.395	89.278	379.395	86.1668	379.395	88.9145	379.395	85.775	379.395	88.426	379.395	85.3251	379.395	87.7711	379.395	84.6823	379.395	86.8729	379.395	83.7076	379.395	85.6162	379.395	82.2708	379.395	83.8396	379.395	80.2806	379.395	81.3183	379.395	77.8783	379.395	77.8074	379.395	76.1247	379.395	74.0494	379.395	76.5678	379.395	74.3735	379.395	78.1456	379.395	77.1386	379.395	79.3208	379.395	78.9629	379.395	79.6397
392.578	89.1612	392.578	88.7737	392.578	89.3571	392.578	88.2105	392.578	89.3609	392.578	87.5082	392.578	89.1872	392.578	86.7309	392.578	88.871	392.578	85.97	392.578	88.4714	392.578	85.3186	392.578	88.0633	392.578	84.8145	392.578	87.7052	392.578	84.3877	392.578	87.3976	392.578	83.8722	392.578	87.0621	392.578	83.066	392.578	86.5605	392.578	81.771	392.578	85.7247	392.578	79.7962	392.578	84.3623	392.578	77.0115	392.578	82.2245	392.578	73.9312	392.578	78.9333	392.578	73.0802	392.578	74.0113	392.578	74.5931	392.578	70.15	392.578	75.6301	392.578	72.9769	392.578	75.2221
405.762	89.2994	405.762	88.9395	405.762	89.4534	405.762	88.375	405.762	89.4044	405.762	87.6119	405.762	89.1627	405.762	86.6667	405.762	88.7522	405.762	85.5803	405.762	88.2156	405.762	84.4387	405.762	87.6161	405.762	83.3811	405.762	87.0295	405.762	82.5485	405.762	86.5204	405.762	81.9704	405.762	86.1034	405.762	81.516	405.762	85.7123	405.762	80.986	405.762	85.2065	405.762	80.2324	405.762	84.4096	405.762	79.2375	405.762	83.156	405.762	78.1936	405.762	81.3545	405.762	77.4929	405.762	79.1697	405.762	77.3347	405.762	77.3811	405.762	77.3801	405.762	76.8995	405.762	77.2007
420.41	89.3022	420.41	89.0466	420.41	89.3743	420.41	88.6216	420.41	89.2694	420.41	88.0575	420.41	89.0177	420.41	87.3931	420.41	88.6684	420.41	86.6668	420.41	88.2765	420.41	85.9066	420.41	87.8791	420.41	85.1224	420.41	87.4756	420.41	84.3027	420.41	87.0228	420.41	83.4162	420.41	86.4505	420.41	82.4157	420.41	85.6891	420.41	81.2526	420.41	84.7036	420.41	79.934	420.41	83.5298	420.41	78.6657	420.41	82.3031	420.41	77.9787	420.41	81.2507	420.41	78.2698	420.41	80.5984	420.41	79.1315	420.41	80.3926	420.41	79.9164	420.41	80.4145	420.41	80.3342
435.059	89.7959	435.059	89.4573	435.059	89.8921	435.059	88.8795	435.059	89.755	435.059	88.0786	435.059	89.4111	435.059	87.0964	435.059	88.9136	435.059	86.023	435.059	88.3466	435.059	85.0067	435.059	87.8146	435.059	84.201	435.059	87.3967	435.059	83.6541	435.059	87.0798	435.059	83.2715	435.059	86.7384	435.059	82.9138	435.059	86.1955	435.059	82.507	435.059	85.3051	435.059	82.0908	435.059	84.0189	435.059	81.8123	435.059	82.493	435.059	81.8363	435.059	81.2666	435.059	82.1754	435.059	81.031	435.059	82.6335	435.059	81.6694	435.059	82.9439	435.059	82.4468	435.059	82.9077
451.172	90.8671	451.172	90.5399	451.172	90.9624	451.172	89.9637	451.172	90.8342	451.172	89.118	451.172	90.4829	451.172	87.9917	451.172	89.9063	451.172	86.5997	451.172	89.1076	451.172	84.9969	451.172	88.1111	451.172	83.2706	451.172	86.9839	451.172	81.4919	451.172	85.8426	451.172	79.64	451.172	84.788	451.172	77.5803	451.172	83.7625	451.172	75.3059	451.172	82.4726	451.172	73.9753	451.172	80.4181	451.172	75.5224	451.172	76.7884	451.172	78.2903	451.172	70.3544	451.172	80.5303	451.172	71.8684	451.172	81.9268	451.172	77.6351	451.172	82.4692	451.172	80.6643	451.172	82.1104
465.82	89.9391	465.82	89.8115	465.82	89.9052	465.82	89.4646	465.82	89.763	465.82	88.8436	465.82	89.5556	465.82	87.9104	465.82	89.3067	465.82	86.6619	465.82	89.0101	465.82	85.1456	465.82	88.63	465.82	83.4602	465.82	88.1176	465.82	81.7201	465.82	87.436	465.82	79.9676	465.82	86.5755	465.82	78.0603	465.82	85.55	465.82	75.6304	465.82	84.3688	465.82	72.3939	465.82	82.966	465.82	70.6143	465.82	81.1049	465.82	73.525	465.82	78.2914	465.82	76.5662	465.82	73.7337	465.82	78.2002	465.82	69.6561	465.82	78.4293	465.82	73.8222	465.82	77.129
483.398	89.632	483.398	89.8901	483.398	89.1245	483.398	89.8901	483.398	88.4107	483.398	89.6518	483.398	87.5885	483.398	89.2212	483.398	86.8346	483.398	88.6596	483.398	86.3843	483.398	88.0125	483.398	86.3993	483.398	87.2724	483.398	86.8111	483.398	86.3626	483.398	87.3659	483.398	85.1519	483.398	87.7992	483.398	83.4716	483.398	87.9262	483.398	81.0893	483.398	87.6415	483.398	77.5698	483.398	86.8884	483.398	71.7384	483.398	85.6224	483.398	61.9099	483.398	83.7884	483.398	69.8812	483.398	81.3683	483.398	74.2537	483.398	78.6615	483.398	75.926	483.398	76.7638	483.398	76.3061
499.512	90.67	499.512	90.6436	499.512	90.377	499.512	90.335	499.512	89.7508	499.512	89.8033	499.512	88.8207	499.512	89.136	499.512	87.7007	499.512	88.4432	499.512	86.6283	499.512	87.8238	499.512	85.9201	499.512	87.3106	499.512	85.7443	499.512	86.8362	499.512	85.8966	499.512	86.2509	499.512	85.9658	499.512	85.3675	499.512	85.6584	499.512	83.9816	499.512	84.9139	499.512	81.8528	499.512	83.8907	499.512	78.6886	499.512	82.9035	499.512	74.7011	499.512	82.2233	499.512	73.9287	499.512	81.8571	499.512	76.9463	499.512	81.6222	499.512	79.313	499.512	81.304	499.512	80.645
517.09	91.0347	517.09	90.8167	517.09	90.8233	517.09	90.1926	517.09	90.191	517.09	89.2312	517.09	89.1803	517.09	88.0811	517.09	87.8718	517.09	87.0057	517.09	86.4139	517.09	86.3291	517.09	85.1687	517.09	86.1992	517.09	84.7322	517.09	86.4023	517.09	85.1671	517.09	86.5442	517.09	85.7561	517.09	86.3003	517.09	85.8849	517.09	85.4527	517.09	85.2333	517.09	83.8159	517.09	83.5555	517.09	81.2046	517.09	80.7138	517.09	77.9957	517.09	78.0367	517.09	77.5354	517.09	79.227	517.09	80.2675	517.09	81.7373	517.09	82.4566	517.09	83.1816	517.09	83.4139
536.133	91.5394	536.133	91.3624	536.133	91.3389	536.133	90.8157	536.133	90.7712	536.133	89.9126	536.133	89.8617	536.133	88.6572	536.133	88.6095	536.133	87.0407	536.133	86.9248	536.133	85.1076	536.133	84.6553	536.133	83.2195	536.133	81.9364	536.133	82.266	536.133	80.2415	536.133	82.5348	536.133	81.1066	536.133	83.0628	536.133	82.6762	536.133	83.0946	536.133	83.4741	536.133	82.4195	536.133	83.0584	536.133	81.1855	536.133	81.0125	536.133	80.1719	536.133	76.4822	536.133	80.5597	536.133	72.346	536.133	81.9089	536.133	77.9178	536.133	82.9074	536.133	81.4708	536.133	82.8971
555.176	91.2863	555.176	91.1044	555.176	91.2319	555.176	90.6947	555.176	90.9616	555.176	90.0741	555.176	90.5097	555.176	89.2387	555.176	89.8735	555.176	88.1505	555.176	88.9794	555.176	86.7582	555.176	87.7153	555.176	85.0591	555.176	85.99	555.176	83.2004	555.176	83.7704	555.176	81.5314	555.176	81.276	555.176	80.3341	555.176	79.751	555.176	79.3723	555.176	80.3538	555.176	78.1261	555.176	81.2881	555.176	76.6785	555.176	80.9515	555.176	76.8607	555.176	78.7259	555.176	79.3057	555.176	75.4672	555.176	81.6709	555.176	77.4701	555.176	82.9107	555.176	81.0426	555.176	82.7846
574.219	91.3515	574.219	91.2218	574.219	91.2214	574.219	90.86	574.219	90.8473	574.219	90.3107	574.219	90.267	574.219	89.5903	574.219	89.4925	574.219	88.6721	574.219	88.513	574.219	87.523	574.219	87.3679	574.219	86.174	574.219	86.1916	574.219	84.7679	574.219	85.1291	574.219	83.5001	574.219	84.1773	574.219	82.3927	574.219	83.1662	574.219	81.0895	574.219	81.897	574.219	78.8827	574.219	80.1874	574.219	74.5599	574.219	77.6248	574.219	67.3276	574.219	72.7748	574.219	73.5255	574.219	53.6334	574.219	78.2696	574.219	72.0684	574.219	80.1499	574.219	77.8221	574.219	80.0323
594.727	91.123	594.727	91.0369	594.727	90.9051	594.727	90.6646	594.727	90.3812	594.727	90.0365	594.727	89.5577	594.727	89.1873	594.727	88.4438	594.727	88.1583	594.727	87.0707	594.727	87.0124	594.727	85.5493	594.727	85.8495	594.727	84.2017	594.727	84.7914	594.727	83.6222	594.727	83.9141	594.727	84.0116	594.727	83.1507	594.727	84.6635	594.727	82.2537	594.727	84.8018	594.727	80.8424	594.727	83.9453	594.727	78.4405	594.727	81.605	594.727	74.6623	594.727	76.6525	594.727	72.42	594.727	62.6858	594.727	75.6631	594.727	72.0656	594.727	78.2404	594.727	77.3574	594.727	78.8666
615.234	90.5069	615.234	90.554	615.234	90.273	615.234	90.4161	615.234	89.8636	615.234	90.079	615.234	89.2938	615.234	89.4829	615.234	88.5515	615.234	88.5362	615.234	87.5874	615.234	87.1769	615.234	86.3408	615.234	85.4461	615.234	84.7747	615.234	83.5799	615.234	82.9392	615.234	82.0937	615.234	81.321	615.234	81.3676	615.234	81.2784	615.234	80.9096	615.234	82.838	615.234	79.951	615.234	84.1716	615.234	78.3275	615.234	84.2508	615.234	77.1061	615.234	82.5549	615.234	77.8867	615.234	78.0202	615.234	79.4441	615.234	64.0725	615.234	80.0316	615.234	73.4934	615.234	78.7093
637.207	90.7761	637.207	90.5602	637.207	90.6963	637.207	90.0877	637.207	90.308	637.207	89.422	637.207	89.6392	637.207	88.656	637.207	88.7478	637.207	87.8887	637.207	87.6645	637.207	87.1579	637.207	86.3675	637.207	86.3941	637.207	84.8767	637.207	85.4771	637.207	83.3567	637.207	84.3361	637.207	82.0708	637.207	82.9283	637.207	81.2373	637.207	81.0637	637.207	80.8502	637.207	78.1637	637.207	80.5259	637.207	72.5577	637.207	79.596	637.207	64.8811	637.207	77.1052	637.207	74.8907	637.207	70.4318	637.207	79.1169	637.207	63.6176	637.207	80.4683	637.207	75.8777	637.207	79.5973
659.18	89.8132	659.18	89.9693	659.18	89.3296	659.18	89.7378	659.18	88.6144	659.18	89.1006	659.18	87.7757	659.18	88.1088	659.18	86.8462	659.18	86.9205	659.18	85.7264	659.18	85.8005	659.18	84.3157	659.18	85.0023	659.18	82.7534	659.18	84.5408	659.18	81.5523	659.18	84.1382	659.18	81.3674	659.18	83.4477	659.18	82.1785	659.18	82.1853	659.18	83.0687	659.18	80.0177	659.18	83.2005	659.18	76.2383	659.18	82.145	659.18	68.7591	659.18	79.5535	659.18	67.0029	659.18	74.5154	659.18	73.6596	659.18	61.6714	659.18	75.6099	659.18	69.0462	659.18	74.4868
682.617	89.6	682.617	89.745	682.617	89.1595	682.617	89.5758	682.617	88.4958	682.617	89.1056	682.617	87.7225	682.617	88.3474	682.617	86.8979	682.617	87.2843	682.617	85.9338	682.617	85.9037	682.617	84.6877	682.617	84.3867	682.617	83.0694	682.617	83.3636	682.617	81.1277	682.617	83.3829	682.617	79.8872	682.617	83.8846	682.617	81.0705	682.617	83.9392	682.617	83.2405	682.617	82.9477	682.617	84.6846	682.617	80.4054	682.617	84.9392	682.617	75.7466	682.617	83.696	682.617	72.8445	682.617	80.2378	682.617	76.4761	682.617	72.0347	682.617	78.1747	682.617	69.883	682.617	76.7853
707.52	89.2744	707.52	89.4489	707.52	89.0028	707.52	89.4535	707.52	88.6858	707.52	89.2327	707.52	88.3283	707.52	88.7664	707.52	87.8831	707.52	88.035	707.52	87.2501	707.52	86.9579	707.52	86.2986	707.52	85.4357	707.52	84.9031	707.52	83.6307	707.52	82.9209	707.52	82.2635	707.52	80.1836	707.52	81.8034	707.52	77.0366	707.52	81.4886	707.52	75.7613	707.52	80.307	707.52	76.8244	707.52	77.2003	707.52	77.3897	707.52	69.2239	707.52	75.9723	707.52	70.8812	707.52	70.5041	707.52	78.128	707.52	68.8904	707.52	80.6362	707.52	77.2206	707.52	80.3883
732.422	87.8156	732.422	88.1766	732.422	87.2033	732.422	88.2568	732.422	86.4634	732.422	88.0963	732.422	85.8065	732.422	87.7615	732.422	85.3518	732.422	87.2382	732.422	84.9659	732.422	86.3649	732.422	84.4971	732.422	84.9532	732.422	83.9497	732.422	83.1153	732.422	83.1006	732.422	81.6718	732.422	81.3081	732.422	81.4725	732.422	78.5661	732.422	81.8031	732.422	78.5989	732.422	81.4541	732.422	81.3841	732.422	79.6614	732.422	82.8181	732.422	75.5816	732.422	82.2288	732.422	67.6801	732.422	79.3693	732.422	69.0857	732.422	72.883	732.422	72.4385	732.422	50.0906	732.422	70.4473
757.324	88.028	757.324	88.3038	757.324	87.6161	757.324	88.4397	757.324	87.1365	757.324	88.4341	757.324	86.6771	757.324	88.2391	757.324	86.1717	757.324	87.7476	757.324	85.4926	757.324	86.8127	757.324	84.8228	757.324	85.2753	757.324	84.5277	757.324	83.0188	757.324	84.3857	757.324	80.4535	757.324	83.5101	757.324	79.5916	757.324	80.9232	757.324	80.5533	757.324	77.2511	757.324	80.7089	757.324	79.6607	757.324	78.8626	757.324	83.0503	757.324	74.3448	757.324	84.0368	757.324	72.028	757.324	82.5686	757.324	76.2317	757.324	77.7168	757.324	77.4524	757.324	65.2203	757.324	74.3156
785.156	87.2421	785.156	87.4738	785.156	86.7661	785.156	87.5173	785.156	86.1391	785.156	87.483	785.156	85.4883	785.156	87.4237	785.156	84.8033	785.156	87.2963	785.156	84.169	785.156	86.9702	785.156	83.8644	785.156	86.265	785.156	83.7113	785.156	85.0275	785.156	83.1533	785.156	83.2432	785.156	82.0888	785.156	81.1702	785.156	80.9016	785.156	79.3455	785.156	79.7965	785.156	77.9716	785.156	78.5002	785.156	76.1126	785.156	77.0455	785.156	71.5219	785.156	75.9291	785.156	53.0268	785.156	74.0105	785.156	71.5705	785.156	68.9214	785.156	75.5301	785.156	70.063	785.156	74.9477
811.523	87.0268	811.523	87.1378	811.523	86.6275	811.523	86.9611	811.523	86.0669	811.523	86.661	811.523	85.4792	811.523	86.4715	811.523	84.9396	811.523	86.459	811.523	84.5326	811.523	86.381	811.523	84.3191	811.523	85.8821	811.523	84.2732	811.523	84.8011	811.523	84.2196	811.523	83.3303	811.523	83.6568	811.523	81.9839	811.523	81.7975	811.523	81.2348	811.523	78.5369	811.523	80.8353	811.523	78.4053	811.523	79.7874	811.523	80.7412	811.523	76.8131	811.523	81.0544	811.523	69.1533	811.523	78.7676	811.523	64.2863	811.523	72.6638	811.523	71.6564	811.523	58.8848	811.523	70.656
840.82	86.853	840.82	87.4658	840.82	85.9499	840.82	87.6765	840.82	85.0796	840.82	87.5604	840.82	84.4602	840.82	87.1862	840.82	83.9522	840.82	86.4805	840.82	83.4075	840.82	85.3162	840.82	83.0153	840.82	83.8181	840.82	83.1666	840.82	82.6048	840.82	83.9725	840.82	82.2184	840.82	84.8154	840.82	82.2431	840.82	84.7721	840.82	81.9132	840.82	83.2076	840.82	80.9961	840.82	79.9413	840.82	79.685	840.82	77.6531	840.82	77.8021	840.82	79.3927	840.82	74.7925	840.82	79.6525	840.82	72.1961	840.82	76.1981	840.82	72.3104	840.82	66.3525	840.82	69.5517
870.117	86.2273	870.117	86.8516	870.117	85.453	870.117	87.1584	870.117	84.7806	870.117	87.1298	870.117	84.4558	870.117	86.7344	870.117	84.6703	870.117	85.8241	870.117	85.1254	870.117	84.3396	870.117	85.0345	870.117	82.6608	870.117	83.7738	870.117	81.7088	870.117	81.1728	870.117	81.9871	870.117	78.5765	870.117	82.6803	870.117	79.3459	870.117	82.704	870.117	81.3953	870.117	81.5086	870.117	82.5504	870.117	78.8377	870.117	82.662	870.117	74.0715	870.117	82.0836	870.117	64.4025	870.117	81.2906	870.117	56.9942	870.117	79.6987	870.117	58.4695	870.117	75.7039	870.117	66.4775
900.879	87.5277	900.879	87.8339	900.879	86.9585	900.879	87.9026	900.879	86.2896	900.879	87.9061	900.879	85.6515	900.879	87.8188	900.879	85.1066	900.879	87.247	900.879	84.673	900.879	85.687	900.879	84.3008	900.879	82.7589	900.879	84.019	900.879	78.1239	900.879	83.817	900.879	76.3534	900.879	83.2706	900.879	80.7039	900.879	81.5673	900.879	83.4554	900.879	77.5627	900.879	84.5342	900.879	74.6265	900.879	84.1436	900.879	80.1132	900.879	81.9741	900.879	82.8752	900.879	77.9205	900.879	82.4167	900.879	75.6128	900.879	78.6457	900.879	76.5537	900.879	72.7782	900.879	75.0898
933.105	86.9421	933.105	87.5313	933.105	86.017	933.105	87.7096	933.105	85.3351	933.105	87.4905	933.105	85.5802	933.105	86.9438	933.105	85.9779	933.105	86.3054	933.105	85.6365	933.105	85.7161	933.105	84.8666	933.105	84.721	933.105	84.1341	933.105	82.3665	933.105	83.5459	933.105	77.115	933.105	83.2493	933.105	67.4321	933.105	83.0632	933.105	76.3859	933.105	82.9107	933.105	79.6822	933.105	82.412	933.105	79.1154	933.105	81.4703	933.105	75.4304	933.105	81.5599	933.105	73.3872	933.105	82.1686	933.105	76.913	933.105	80.4986	933.105	77.2234	933.105	73.4087	933.105	70.9945
965.332	87.4405	965.332	88.0148	965.332	86.8511	965.332	88.1419	965.332	86.7104	965.332	87.7022	965.332	86.7886	965.332	86.7939	965.332	86.8767	965.332	85.9219	965.332	87.0142	965.332	85.335	965.332	86.657	965.332	84.7758	965.332	85.3799	965.332	84.1631	965.332	84.0005	965.332	82.8475	965.332	83.6031	965.332	79.8542	965.332	83.0697	965.332	76.4383	965.332	80.0628	965.332	78.2935	965.332	71.453	965.332	80.5485	965.332	76.8811	965.332	80.1956	965.332	81.9226	965.332	75.8027	965.332	82.7887	965.332	59.954	965.332	80.5447	965.332	71.8959	965.332	75.4907	965.332	73.2317
1,000.49	86.4332	1,000.49	87.3523	1,000.49	85.3927	1,000.49	87.846	1,000.49	84.792	1,000.49	87.7154	1,000.49	84.8643	1,000.49	86.7178	1,000.49	85.3149	1,000.49	84.8039	1,000.49	85.8118	1,000.49	82.5975	1,000.49	85.9698	1,000.49	81.4404	1,000.49	85.4333	1,000.49	81.6148	1,000.49	84.1596	1,000.49	81.6717	1,000.49	82.5996	1,000.49	80.6178	1,000.49	82.4102	1,000.49	78.6232	1,000.49	83.8104	1,000.49	77.091	1,000.49	83.9672	1,000.49	77.1169	1,000.49	81.7364	1,000.49	76.9073	1,000.49	77.8718	1,000.49	75.6793	1,000.49	77.0236	1,000.49	75.6596	1,000.49	76.1072	1,000.49	75.751	1,000.49	68.5134	1,000.49	71.2132
1,035.64	87.0372	1,035.64	88.0048	1,035.64	86.1662	1,035.64	88.3595	1,035.64	86.282	1,035.64	88.0922	1,035.64	86.5751	1,035.64	87.4335	1,035.64	86.3932	1,035.64	86.5377	1,035.64	86.3095	1,035.64	85.3379	1,035.64	86.1108	1,035.64	83.493	1,035.64	84.5462	1,035.64	80.1055	1,035.64	82.1192	1,035.64	73.1157	1,035.64	81.1912	1,035.64	63.8514	1,035.64	81.2387	1,035.64	76.5825	1,035.64	80.4189	1,035.64	80.7866	1,035.64	80.2574	1,035.64	81.6763	1,035.64	81.0537	1,035.64	79.8659	1,035.64	81.5568	1,035.64	75.8479	1,035.64	81.6713	1,035.64	74.749	1,035.64	80.6256	1,035.64	76.1134	1,035.64	77.3533	1,035.64	75.17
1,072.27	86.1915	1,072.27	86.5582	1,072.27	86.5446	1,072.27	87.5079	1,072.27	87.1057	1,072.27	88.0813	1,072.27	87.4868	1,072.27	87.362	1,072.27	87.659	1,072.27	85.3385	1,072.27	87.7137	1,072.27	83.6277	1,072.27	87.1537	1,072.27	83.483	1,072.27	85.3064	1,072.27	82.736	1,072.27	82.9105	1,072.27	78.86	1,072.27	81.8356	1,072.27	70.1932	1,072.27	81.6166	1,072.27	64.6867	1,072.27	80.985	1,072.27	68.1629	1,072.27	80.6448	1,072.27	71.1484	1,072.27	80.0021	1,072.27	72.6938	1,072.27	78.543	1,072.27	72.5188	1,072.27	78.8482	1,072.27	74.3559	1,072.27	78.6042	1,072.27	76.3178	1,072.27	74.7004	1,072.27	74.7195
1,108.89	86.4672	1,108.89	86.959	1,108.89	86.4282	1,108.89	87.5384	1,108.89	87.0871	1,108.89	87.9797	1,108.89	87.4141	1,108.89	87.5466	1,108.89	87.0155	1,108.89	85.6413	1,108.89	87.0735	1,108.89	83.0866	1,108.89	87.3967	1,108.89	83.1878	1,108.89	86.4935	1,108.89	84.9631	1,108.89	84.4484	1,108.89	84.6361	1,108.89	82.4488	1,108.89	80.8641	1,108.89	82.7203	1,108.89	70.3201	1,108.89	81.6612	1,108.89	73.4648	1,108.89	76.1293	1,108.89	76.9321	1,108.89	65.5556	1,108.89	76.6365	1,108.89	79.6382	1,108.89	73.9346	1,108.89	81.5199	1,108.89	68.3863	1,108.89	79.969	1,108.89	72.3328	1,108.89	78.374	1,108.89	76.2254
1,148.44	86.971	1,148.44	87.3251	1,148.44	86.9807	1,148.44	87.8193	1,148.44	87.1935	1,148.44	87.8879	1,148.44	87.4098	1,148.44	87.2105	1,148.44	87.6977	1,148.44	86.0181	1,148.44	88.1997	1,148.44	84.9177	1,148.44	88.154	1,148.44	83.552	1,148.44	86.5209	1,148.44	83.6151	1,148.44	83.8853	1,148.44	84.452	1,148.44	81.3549	1,148.44	83.2631	1,148.44	78.176	1,148.44	79.5745	1,148.44	79.6151	1,148.44	66.0976	1,148.44	82.3435	1,148.44	72.308	1,148.44	80.1222	1,148.44	75.4465	1,148.44	73.3339	1,148.44	75.2221	1,148.44	80.4648	1,148.44	76.3959	1,148.44	80.2677	1,148.44	77.1975	1,148.44	75.8764	1,148.44	76.112
1,189.45	87.2662	1,189.45	87.4743	1,189.45	87.2734	1,189.45	87.6023	1,189.45	87.464	1,189.45	87.2381	1,189.45	87.2492	1,189.45	86.0477	1,189.45	86.7818	1,189.45	84.8223	1,189.45	86.9246	1,189.45	84.4344	1,189.45	87.0699	1,189.45	83.0067	1,189.45	86.453	1,189.45	81.5476	1,189.45	85.0932	1,189.45	82.8459	1,189.45	82.4215	1,189.45	83.8229	1,189.45	80.6884	1,189.45	82.9004	1,189.45	80.9977	1,189.45	78.6501	1,189.45	81.5682	1,189.45	72.0551	1,189.45	78.7867	1,189.45	68.5671	1,189.45	53.4318	1,189.45	68.7491	1,189.45	76.8154	1,189.45	72.7946	1,189.45	77.7523	1,189.45	75.5162	1,189.45	76.8391	1,189.45	76.7722
1,230.47	87.9985	1,230.47	88.2275	1,230.47	88.0921	1,230.47	88.4128	1,230.47	88.081	1,230.47	87.8937	1,230.47	87.4169	1,230.47	86.6409	1,230.47	86.1873	1,230.47	85.9826	1,230.47	85.8189	1,230.47	86.0441	1,230.47	86.995	1,230.47	84.3726	1,230.47	87.3109	1,230.47	78.5708	1,230.47	85.4751	1,230.47	74.6565	1,230.47	82.1244	1,230.47	79.0232	1,230.47	77.668	1,230.47	79.8012	1,230.47	77.8577	1,230.47	77.3229	1,230.47	80.4342	1,230.47	74.0308	1,230.47	80.6523	1,230.47	69.7618	1,230.47	76.6184	1,230.47	67.3612	1,230.47	69.6907	1,230.47	73.8848	1,230.47	73.8181	1,230.47	76.8964	1,230.47	75.2275	1,230.47	76.9453
1,274.41	88.6056	1,274.41	88.7789	1,274.41	88.3446	1,274.41	88.5472	1,274.41	87.8805	1,274.41	87.3576	1,274.41	87.4008	1,274.41	85.6345	1,274.41	86.8157	1,274.41	85.078	1,274.41	86.0375	1,274.41	85.5281	1,274.41	85.6625	1,274.41	84.5195	1,274.41	85.6232	1,274.41	80.916	1,274.41	84.7944	1,274.41	76.4946	1,274.41	82.4338	1,274.41	73.57	1,274.41	77.8238	1,274.41	71.4419	1,274.41	73.6868	1,274.41	74.7317	1,274.41	81.4392	1,274.41	76.8718	1,274.41	83.6604	1,274.41	74.9315	1,274.41	79.1701	1,274.41	63.9041	1,274.41	67.2256	1,274.41	70.8717	1,274.41	70.739	1,274.41	74.939	1,274.41	69.8123	1,274.41	73.9885
1,319.82	89.6899	1,319.82	89.8649	1,319.82	89.4582	1,319.82	89.2939	1,319.82	89.2016	1,319.82	87.6879	1,319.82	88.583	1,319.82	86.1125	1,319.82	87.5548	1,319.82	85.6869	1,319.82	86.1046	1,319.82	84.7454	1,319.82	85.7205	1,319.82	81.8585	1,319.82	86.2069	1,319.82	79.0881	1,319.82	85.2252	1,319.82	79.7482	1,319.82	83.1101	1,319.82	79.7844	1,319.82	77.8312	1,319.82	75.193	1,319.82	72.4268	1,319.82	65.2238	1,319.82	69.1958	1,319.82	73.2978	1,319.82	73.344	1,319.82	76.0226	1,319.82	78.3606	1,319.82	70.7053	1,319.82	76.8181	1,319.82	65.7317	1,319.82	71.3069	1,319.82	74.6967	1,319.82	72.2783	1,319.82	74.8938
1,366.7	89.6771	1,366.7	90.8237	1,366.7	89.2203	1,366.7	91.0128	1,366.7	89.6921	1,366.7	89.9225	1,366.7	89.7317	1,366.7	88.7224	1,366.7	88.8457	1,366.7	87.1692	1,366.7	86.6937	1,366.7	84.1421	1,366.7	84.5618	1,366.7	81.1095	1,366.7	85.4638	1,366.7	75.8965	1,366.7	86.5086	1,366.7	70.9947	1,366.7	85.1542	1,366.7	80.5925	1,366.7	83.3609	1,366.7	81.597	1,366.7	80.9826	1,366.7	76.1428	1,366.7	68.4238	1,366.7	73.8259	1,366.7	78.2511	1,366.7	78.8855	1,366.7	77.4909	1,366.7	73.701	1,366.7	67.5637	1,366.7	72.4782	1,366.7	76.7197	1,366.7	79.3198	1,366.7	75.1113	1,366.7	78.2413
1,413.57	90.0449	1,413.57	90.7205	1,413.57	89.8357	1,413.57	90.9791	1,413.57	89.9993	1,413.57	90.2633	1,413.57	90.2162	1,413.57	89.5936	1,413.57	89.3849	1,413.57	88.7297	1,413.57	87.0234	1,413.57	85.8403	1,413.57	85.1421	1,413.57	81.7933	1,413.57	84.5813	1,413.57	81.8127	1,413.57	84.6747	1,413.57	78.7533	1,413.57	84.5481	1,413.57	59.3559	1,413.57	82.5908	1,413.57	71.6823	1,413.57	78.7443	1,413.57	71.3821	1,413.57	78.2546	1,413.57	75.5654	1,413.57	79.9754	1,413.57	79.3657	1,413.57	75.9828	1,413.57	76.7359	1,413.57	68.4574	1,413.57	69.826	1,413.57	74.2808	1,413.57	78.7443	1,413.57	76.5617	1,413.57	78.582
1,463.38	90.2116	1,463.38	90.604	1,463.38	89.7276	1,463.38	90.2255	1,463.38	89.5143	1,463.38	89.9154	1,463.38	89.3334	1,463.38	90.1048	1,463.38	88.853	1,463.38	88.2293	1,463.38	87.6794	1,463.38	84.0445	1,463.38	85.8594	1,463.38	82.6337	1,463.38	83.9881	1,463.38	83.9576	1,463.38	83.164	1,463.38	82.1164	1,463.38	82.7636	1,463.38	79.3014	1,463.38	81.6301	1,463.38	76.3644	1,463.38	80.0574	1,463.38	66.5103	1,463.38	80.4853	1,463.38	69.3695	1,463.38	77.4341	1,463.38	74.4726	1,463.38	74.4023	1,463.38	73.7218	1,463.38	74.111	1,463.38	64.3873	1,463.38	71.4969	1,463.38	76.4249	1,463.38	75.5924	1,463.38	76.5276
1,516.11	89.8534	1,516.11	90.118	1,516.11	89.4474	1,516.11	89.7756	1,516.11	89.4307	1,516.11	89.5648	1,516.11	89.1667	1,516.11	89.1828	1,516.11	88.7128	1,516.11	86.689	1,516.11	88.2531	1,516.11	82.6541	1,516.11	86.5325	1,516.11	82.5424	1,516.11	83.8405	1,516.11	82.9027	1,516.11	82.9278	1,516.11	81.0759	1,516.11	83.5708	1,516.11	79.8121	1,516.11	81.6813	1,516.11	80.7964	1,516.11	79.3488	1,516.11	78.3182	1,516.11	77.8192	1,516.11	70.0002	1,516.11	75.2315	1,516.11	75.248	1,516.11	76.7343	1,516.11	74.0026	1,516.11	76.2764	1,516.11	65.5368	1,516.11	65.1424	1,516.11	74.5336	1,516.11	71.8723	1,516.11	75.2184
1,568.85	88.9007	1,568.85	89.1962	1,568.85	88.5532	1,568.85	89.479	1,568.85	88.0716	1,568.85	89.7595	1,568.85	87.8167	1,568.85	89	1,568.85	87.5294	1,568.85	86.0196	1,568.85	86.5021	1,568.85	84.0279	1,568.85	85.6034	1,568.85	84.2983	1,568.85	84.8098	1,568.85	80.6155	1,568.85	83.2898	1,568.85	73.8886	1,568.85	80.6603	1,568.85	77.8219	1,568.85	79.7505	1,568.85	82.4642	1,568.85	82.1941	1,568.85	81.9162	1,568.85	77.6737	1,568.85	74.8456	1,568.85	77.8524	1,568.85	72.0462	1,568.85	75.0558	1,568.85	75.4809	1,568.85	74.0794	1,568.85	64.0312	1,568.85	73.4643	1,568.85	76.5157	1,568.85	70.2664	1,568.85	75.4555
1,624.51	89.6274	1,624.51	89.3104	1,624.51	89.4971	1,624.51	89.1345	1,624.51	88.5586	1,624.51	89.2773	1,624.51	87.2592	1,624.51	88.8481	1,624.51	85.6711	1,624.51	86.033	1,624.51	84.7132	1,624.51	84.2917	1,624.51	84.1902	1,624.51	83.2757	1,624.51	82.6082	1,624.51	80.8046	1,624.51	81.4859	1,624.51	78.5642	1,624.51	81.3569	1,624.51	72.3862	1,624.51	79.5629	1,624.51	73.1119	1,624.51	79.369	1,624.51	79.035	1,624.51	81.3665	1,624.51	76.4573	1,624.51	81.2187	1,624.51	67.5142	1,624.51	74.9831	1,624.51	73.782	1,624.51	62.1517	1,624.51	59.0708	1,624.51	61.5769	1,624.51	72.8109	1,624.51	68.2345	1,624.51	74.4592
1,681.64	90.2007	1,681.64	89.7665	1,681.64	90.1572	1,681.64	89.3366	1,681.64	89.1356	1,681.64	88.8563	1,681.64	87.2769	1,681.64	86.5547	1,681.64	85.1727	1,681.64	84.8588	1,681.64	83.6297	1,681.64	86.2214	1,681.64	83.0807	1,681.64	82.6325	1,681.64	82.4292	1,681.64	78.0851	1,681.64	82.0239	1,681.64	80.3763	1,681.64	80.9381	1,681.64	77.4687	1,681.64	76.9911	1,681.64	65.9584	1,681.64	72.8489	1,681.64	74.2238	1,681.64	78.5677	1,681.64	74.9585	1,681.64	80.8209	1,681.64	60.0796	1,681.64	79.5487	1,681.64	73.6105	1,681.64	72.1177	1,681.64	64.6936	1,681.64	60.5445	1,681.64	74.726	1,681.64	68.5774	1,681.64	76.752
1,741.7	90.3206	1,741.7	90.2169	1,741.7	89.8765	1,741.7	89.4061	1,741.7	89.0924	1,741.7	88.247	1,741.7	87.5889	1,741.7	86.3668	1,741.7	84.929	1,741.7	85.8359	1,741.7	81.2307	1,741.7	86.2964	1,741.7	78.9498	1,741.7	82.448	1,741.7	81.5748	1,741.7	76.1809	1,741.7	81.3222	1,741.7	75.8316	1,741.7	81.232	1,741.7	74.5797	1,741.7	76.1618	1,741.7	68.9959	1,741.7	74.161	1,741.7	69.7601	1,741.7	78.0027	1,741.7	74.3549	1,741.7	77.7223	1,741.7	61.6446	1,741.7	78.5458	1,741.7	66.8761	1,741.7	73.2977	1,741.7	72.2673	1,741.7	66.6466	1,741.7	76.407	1,741.7	70.8948	1,741.7	73.3282
1,803.22	90.5992	1,803.22	90.4393	1,803.22	90.4905	1,803.22	89.9737	1,803.22	88.9706	1,803.22	87.9128	1,803.22	85.6241	1,803.22	85.4031	1,803.22	82.0796	1,803.22	85.143	1,803.22	80.5	1,803.22	85.3491	1,803.22	79.9245	1,803.22	82.2314	1,803.22	79.8845	1,803.22	78.6313	1,803.22	79.6835	1,803.22	75.8406	1,803.22	81.132	1,803.22	73.4835	1,803.22	80.5029	1,803.22	65.6741	1,803.22	72.56	1,803.22	70.9894	1,803.22	77.2887	1,803.22	72.6103	1,803.22	78.5517	1,803.22	62.8065	1,803.22	77.7191	1,803.22	69.045	1,803.22	78.3823	1,803.22	72.2656	1,803.22	67.9658	1,803.22	77.1833	1,803.22	68.0581	1,803.22	62.7713
1,866.21	89.7783	1,866.21	89.6116	1,866.21	89.9719	1,866.21	89.502	1,866.21	88.8544	1,866.21	87.2839	1,866.21	85.6463	1,866.21	83.7752	1,866.21	82.8049	1,866.21	83.9045	1,866.21	79.7965	1,866.21	82.3604	1,866.21	79.9029	1,866.21	79.3905	1,866.21	81.001	1,866.21	78.4813	1,866.21	80.9822	1,866.21	78.5407	1,866.21	80.0406	1,866.21	78.311	1,866.21	82.6578	1,866.21	75.9464	1,866.21	76.0999	1,866.21	64.0222	1,866.21	69.8424	1,866.21	68.0155	1,866.21	77.7228	1,866.21	63.5947	1,866.21	79.7281	1,866.21	69.4434	1,866.21	78.1366	1,866.21	58.4199	1,866.21	68.8772	1,866.21	75.407	1,866.21	69.0461	1,866.21	70.1451
1,932.13	89.9949	1,932.13	89.02	1,932.13	89.6432	1,932.13	87.721	1,932.13	87.727	1,932.13	85.702	1,932.13	84.2282	1,932.13	84.1857	1,932.13	81.5438	1,932.13	84.8564	1,932.13	81.3513	1,932.13	80.6556	1,932.13	81.6909	1,932.13	79.6678	1,932.13	81.0251	1,932.13	81.8374	1,932.13	81.2914	1,932.13	73.7099	1,932.13	81.2728	1,932.13	76.2262	1,932.13	82.0424	1,932.13	77.9487	1,932.13	78.2906	1,932.13	74.5838	1,932.13	69.6455	1,932.13	52.6484	1,932.13	72.1659	1,932.13	66.8156	1,932.13	77.7591	1,932.13	65.8709	1,932.13	77.1146	1,932.13	60.5136	1,932.13	75.6393	1,932.13	74.272	1,932.13	72.1408	1,932.13	69.1987
1,999.51	90.9787	1,999.51	89.7001	1,999.51	89.8372	1,999.51	86.843	1,999.51	86.9195	1,999.51	85.5345	1,999.51	83.1077	1,999.51	85.5719	1,999.51	80.856	1,999.51	84.1039	1,999.51	79.5551	1,999.51	78.9793	1,999.51	79.372	1,999.51	78.2295	1,999.51	80.9123	1,999.51	78.3481	1,999.51	81.2063	1,999.51	77.1303	1,999.51	77.4203	1,999.51	78.3598	1,999.51	79.3881	1,999.51	65.9332	1,999.51	78.4576	1,999.51	76.711	1,999.51	73.6603	1,999.51	58.2237	1,999.51	76.1298	1,999.51	67.4887	1,999.51	75.6369	1,999.51	66.6514	1,999.51	78.0679	1,999.51	66.5219	1,999.51	72.0298	1,999.51	73.9108	1,999.51	73.0246	1,999.51	65.5267
2,069.82	91.664	2,069.82	89.305	2,069.82	90.7584	2,069.82	85.2245	2,069.82	86.7957	2,069.82	82.5429	2,069.82	81.0823	2,069.82	84.5281	2,069.82	78.4902	2,069.82	82.3412	2,069.82	80.6038	2,069.82	78.8256	2,069.82	80.7819	2,069.82	79.9072	2,069.82	79.7821	2,069.82	79.471	2,069.82	81.3952	2,069.82	74.204	2,069.82	79.9979	2,069.82	76.4266	2,069.82	76.0546	2,069.82	72.1019	2,069.82	78.4267	2,069.82	75.0062	2,069.82	75.3682	2,069.82	72.2523	2,069.82	74.5343	2,069.82	67.2371	2,069.82	77.2613	2,069.82	61.6198	2,069.82	77.4862	2,069.82	65.2699	2,069.82	72.4621	2,069.82	69.2886	2,069.82	72.5033	2,069.82	70.282
2,143.07	90.8783	2,143.07	89.3535	2,143.07	90.6519	2,143.07	84.8841	2,143.07	86.7845	2,143.07	78.1947	2,143.07	78.8069	2,143.07	80.5321	2,143.07	77.2051	2,143.07	79.7538	2,143.07	80.1519	2,143.07	80.727	2,143.07	81.0955	2,143.07	82.0448	2,143.07	80.59	2,143.07	78.4515	2,143.07	80.4142	2,143.07	76.5305	2,143.07	79.2813	2,143.07	68.9223	2,143.07	76.2564	2,143.07	69.1964	2,143.07	78.1992	2,143.07	74.1155	2,143.07	76.5949	2,143.07	71.9235	2,143.07	71.0449	2,143.07	67.0565	2,143.07	74.1458	2,143.07	70.0437	2,143.07	75.9017	2,143.07	70.2536	2,143.07	70.9728	2,143.07	67.3532	2,143.07	72.116	2,143.07	69.8325
2,219.24	89.0294	2,219.24	88.2389	2,219.24	88.9624	2,219.24	82.3163	2,219.24	85.8474	2,219.24	68.39	2,219.24	78.4687	2,219.24	76.9993	2,219.24	76.2265	2,219.24	78.5132	2,219.24	79.8036	2,219.24	80.5417	2,219.24	80.8725	2,219.24	83.5951	2,219.24	80.4224	2,219.24	81.0343	2,219.24	80.4458	2,219.24	78.0982	2,219.24	79.7389	2,219.24	78.1924	2,219.24	75.6639	2,219.24	73.9773	2,219.24	76.6264	2,219.24	69.3036	2,219.24	76.6882	2,219.24	73.0312	2,219.24	74.4483	2,219.24	62.9682	2,219.24	66.9496	2,219.24	63.8284	2,219.24	73.5371	2,219.24	68.9887	2,219.24	70.4917	2,219.24	65.7247	2,219.24	74.4399	2,219.24	71.8492
2,296.88	88.1391	2,296.88	86.4006	2,296.88	86.5216	2,296.88	80.9315	2,296.88	83.5227	2,296.88	69.725	2,296.88	73.796	2,296.88	76.2253	2,296.88	76.3465	2,296.88	79.6457	2,296.88	79.0844	2,296.88	84.2032	2,296.88	81.2792	2,296.88	80.3275	2,296.88	82.0897	2,296.88	77.0632	2,296.88	79.8727	2,296.88	77.6758	2,296.88	79.7264	2,296.88	75.4482	2,296.88	75.4946	2,296.88	77.2395	2,296.88	77.4524	2,296.88	67.6941	2,296.88	78.4646	2,296.88	74.9255	2,296.88	71.2845	2,296.88	60.6308	2,296.88	73.8738	2,296.88	70.599	2,296.88	70.5431	2,296.88	72.1924	2,296.88	59.732	2,296.88	68.0742	2,296.88	71.6293	2,296.88	65.2636
2,378.91	88.1407	2,378.91	85.471	2,378.91	86.953	2,378.91	78.1061	2,378.91	81.5522	2,378.91	71.4913	2,378.91	67.7928	2,378.91	77.42	2,378.91	75.4388	2,378.91	81.5533	2,378.91	81.1738	2,378.91	83.0713	2,378.91	83.2337	2,378.91	79.983	2,378.91	82.5486	2,378.91	77.6276	2,378.91	81.1351	2,378.91	76.1977	2,378.91	81.1311	2,378.91	73.6991	2,378.91	80.0683	2,378.91	74.4568	2,378.91	72.4692	2,378.91	69.9106	2,378.91	78.2443	2,378.91	74.0616	2,378.91	72.5433	2,378.91	61.8396	2,378.91	73.9116	2,378.91	69.4765	2,378.91	71.1935	2,378.91	66.0177	2,378.91	68.9623	2,378.91	69.6095	2,378.91	69.0072	2,378.91	69.1089
2,462.4	89.1737	2,462.4	86.7185	2,462.4	87.7823	2,462.4	82.599	2,462.4	82.7432	2,462.4	70.8424	2,462.4	70.1492	2,462.4	79.4759	2,462.4	77.5354	2,462.4	82.5575	2,462.4	82.007	2,462.4	81.3866	2,462.4	84.0269	2,462.4	82.219	2,462.4	84.2209	2,462.4	80.5869	2,462.4	80.776	2,462.4	77.4898	2,462.4	80.0569	2,462.4	77.1297	2,462.4	79.4077	2,462.4	74.5246	2,462.4	78.6562	2,462.4	74.3558	2,462.4	74.9852	2,462.4	71.8964	2,462.4	74.0758	2,462.4	71.726	2,462.4	73.2302	2,462.4	71.2193	2,462.4	65.7975	2,462.4	61.3798	2,462.4	68.7892	2,462.4	70.8941	2,462.4	70.1661	2,462.4	66.3885
2,548.83	88.7742	2,548.83	87.399	2,548.83	88.4951	2,548.83	84.3686	2,548.83	84.3225	2,548.83	79.126	2,548.83	70.6537	2,548.83	80.7128	2,548.83	79.5798	2,548.83	82.3289	2,548.83	83.9937	2,548.83	81.2323	2,548.83	83.9231	2,548.83	81.9899	2,548.83	81.4019	2,548.83	79.5004	2,548.83	81.2771	2,548.83	81.3262	2,548.83	82.1091	2,548.83	77.0032	2,548.83	80.9429	2,548.83	75.692	2,548.83	75.0387	2,548.83	73.2955	2,548.83	79.8178	2,548.83	71.6356	2,548.83	74.2142	2,548.83	72.3792	2,548.83	70.4182	2,548.83	70.253	2,548.83	69.748	2,548.83	68.0352	2,548.83	61.0874	2,548.83	71.7113	2,548.83	71.664	2,548.83	67.2621
2,639.65	86.9454	2,639.65	86.7405	2,639.65	87.4964	2,639.65	84.3346	2,639.65	83.8536	2,639.65	83.1211	2,639.65	67.372	2,639.65	80.9705	2,639.65	80.9942	2,639.65	83.117	2,639.65	85.6993	2,639.65	83.5686	2,639.65	84.8366	2,639.65	83.0096	2,639.65	83.9899	2,639.65	82.0575	2,639.65	82.7966	2,639.65	79.1843	2,639.65	82.9924	2,639.65	76.6684	2,639.65	80.567	2,639.65	75.3579	2,639.65	72.6571	2,639.65	74.3048	2,639.65	77.2005	2,639.65	72.687	2,639.65	71.0634	2,639.65	72.3954	2,639.65	75.3993	2,639.65	71.066	2,639.65	73.5714	2,639.65	71.2415	2,639.65	70.8756	2,639.65	72.4831	2,639.65	68.3659	2,639.65	62.0796
2,731.93	87.4345	2,731.93	86.4753	2,731.93	87.0565	2,731.93	84.5806	2,731.93	84.2879	2,731.93	82.8471	2,731.93	71.2566	2,731.93	82.5347	2,731.93	82.2901	2,731.93	83.3811	2,731.93	85.8053	2,731.93	85.1304	2,731.93	84.9513	2,731.93	81.5576	2,731.93	82.0683	2,731.93	81.7855	2,731.93	79.8302	2,731.93	76.7128	2,731.93	81.1025	2,731.93	76.9901	2,731.93	77.3808	2,731.93	75.3268	2,731.93	71.6786	2,731.93	74.7408	2,731.93	76.3574	2,731.93	74.3197	2,731.93	71.5785	2,731.93	72.3679	2,731.93	75.792	2,731.93	70.7301	2,731.93	74.6309	2,731.93	72.1747	2,731.93	74.2223	2,731.93	70.6083	2,731.93	68.667	2,731.93	58.2073
2,828.61	88.4758	2,828.61	88.0423	2,828.61	87.2306	2,828.61	85.9947	2,828.61	84.5529	2,828.61	82.071	2,828.61	74.2347	2,828.61	84.2999	2,828.61	84.1235	2,828.61	86.2445	2,828.61	86.0307	2,828.61	85.3282	2,828.61	84.7627	2,828.61	83.8052	2,828.61	83.6493	2,828.61	78.444	2,828.61	81.9397	2,828.61	80.0764	2,828.61	81.4161	2,828.61	77.085	2,828.61	64.0972	2,828.61	77.1764	2,828.61	69.0253	2,828.61	73.2578	2,828.61	73.3954	2,828.61	75.1276	2,828.61	72.6754	2,828.61	73.1882	2,828.61	70.4578	2,828.61	70.4578	2,828.61	71.5465	2,828.61	70.5186	2,828.61	72.9284	2,828.61	70.3202	2,828.61	63.7747	2,828.61	63.122
2,928.22	88.7714	2,928.22	89.0114	2,928.22	88.3517	2,928.22	87.1365	2,928.22	86.0417	2,928.22	83.0863	2,928.22	76.9127	2,928.22	85.2258	2,928.22	84.6147	2,928.22	86.7906	2,928.22	86.4139	2,928.22	84.3802	2,928.22	86.0566	2,928.22	83.2358	2,928.22	83.7526	2,928.22	81.5279	2,928.22	82.6493	2,928.22	80.5913	2,928.22	76.5439	2,928.22	76.4453	2,928.22	71.7403	2,928.22	74.5808	2,928.22	76.0836	2,928.22	73.2517	2,928.22	75.0795	2,928.22	75.016	2,928.22	63.1798	2,928.22	70.8203	2,928.22	70.1907	2,928.22	70.483	2,928.22	70.4551	2,928.22	74.1909	2,928.22	72.8707	2,928.22	71.6988	2,928.22	63.4536	2,928.22	67.8311
3,030.76	88.6466	3,030.76	89.5066	3,030.76	87.9391	3,030.76	87.6169	3,030.76	86.9953	3,030.76	84.9035	3,030.76	80.5957	3,030.76	85.4447	3,030.76	85.2163	3,030.76	85.9181	3,030.76	87.546	3,030.76	84.4609	3,030.76	86.1219	3,030.76	83.2609	3,030.76	83.8866	3,030.76	81.0139	3,030.76	82.2665	3,030.76	75.3846	3,030.76	72.8923	3,030.76	76.1826	3,030.76	70.7955	3,030.76	75.8221	3,030.76	77.4104	3,030.76	73.1462	3,030.76	66.1863	3,030.76	73.1789	3,030.76	71.6843	3,030.76	72.8357	3,030.76	64.6147	3,030.76	71.6839	3,030.76	63.9769	3,030.76	72.9031	3,030.76	73.6237	3,030.76	71.8862	3,030.76	62.9797	3,030.76	65.8565
3,137.7	88.8125	3,137.7	89.025	3,137.7	87.9111	3,137.7	87.3318	3,137.7	87.0656	3,137.7	86.1937	3,137.7	85.0081	3,137.7	87.2353	3,137.7	85.3655	3,137.7	87.0639	3,137.7	88.2464	3,137.7	85.5177	3,137.7	84.7503	3,137.7	82.3087	3,137.7	83.084	3,137.7	80.2533	3,137.7	79.0019	3,137.7	79.0901	3,137.7	70.1381	3,137.7	77.6967	3,137.7	73.3752	3,137.7	74.4894	3,137.7	67.5871	3,137.7	74.4788	3,137.7	67.646	3,137.7	73.936	3,137.7	71.0426	3,137.7	73.4656	3,137.7	64.4623	3,137.7	72.6198	3,137.7	70.2797	3,137.7	73.0071	3,137.7	69.4507	3,137.7	70.9877	3,137.7	64.6851	3,137.7	67.1711
3,249.02	88.0726	3,249.02	88.1395	3,249.02	87.5343	3,249.02	85.7009	3,249.02	87.0112	3,249.02	87.0775	3,249.02	87.0227	3,249.02	87.87	3,249.02	85.8249	3,249.02	85.9522	3,249.02	87.4836	3,249.02	85.1187	3,249.02	84.6923	3,249.02	82.5178	3,249.02	83.4551	3,249.02	82.2736	3,249.02	79.0098	3,249.02	79.302	3,249.02	70.224	3,249.02	75.959	3,249.02	74.9754	3,249.02	74.9333	3,249.02	55.1244	3,249.02	74.3551	3,249.02	62.0054	3,249.02	72.5777	3,249.02	71.6725	3,249.02	73.4049	3,249.02	67.8399	3,249.02	71.8348	3,249.02	68.533	3,249.02	72.7615	3,249.02	71.3981	3,249.02	69.2614	3,249.02	65.0205	3,249.02	69.8975
3,363.28	87.6535	3,363.28	87.5625	3,363.28	86.1549	3,363.28	86.2137	3,363.28	86.898	3,363.28	86.9431	3,363.28	86.6301	3,363.28	87.7109	3,363.28	85.8859	3,363.28	86.9833	3,363.28	86.1239	3,363.28	84.3556	3,363.28	84.8875	3,363.28	83.8722	3,363.28	85.1668	3,363.28	79.7111	3,363.28	80.102	3,363.28	76.0893	3,363.28	78.5077	3,363.28	76.2192	3,363.28	78.3587	3,363.28	73.7117	3,363.28	69.9158	3,363.28	74.2525	3,363.28	60.5251	3,363.28	69.9509	3,363.28	65.0577	3,363.28	72.9267	3,363.28	67.7458	3,363.28	72.2256	3,363.28	64.3347	3,363.28	71.493	3,363.28	69.0149	3,363.28	67.3848	3,363.28	69.7986	3,363.28	68.1944
3,481.93	87.6419	3,481.93	86.9336	3,481.93	85.946	3,481.93	88.0999	3,481.93	86.2349	3,481.93	88.1152	3,481.93	87.8632	3,481.93	87.1772	3,481.93	85.9897	3,481.93	86.9382	3,481.93	85.5794	3,481.93	84.5589	3,481.93	85.1854	3,481.93	81.6986	3,481.93	85.7505	3,481.93	79.9015	3,481.93	77.8102	3,481.93	78.5565	3,481.93	80.729	3,481.93	75.7516	3,481.93	76.2961	3,481.93	72.0003	3,481.93	73.7455	3,481.93	70.9761	3,481.93	66.7261	3,481.93	71.0056	3,481.93	47.7325	3,481.93	72.462	3,481.93	38.7937	3,481.93	71.2897	3,481.93	60.743	3,481.93	69.4916	3,481.93	63.7154	3,481.93	67.6282	3,481.93	68.7916	3,481.93	66.654
3,604.98	87.5187	3,604.98	86.8052	3,604.98	85.9422	3,604.98	88.5585	3,604.98	84.8473	3,604.98	88.4667	3,604.98	88.0168	3,604.98	86.3305	3,604.98	85.612	3,604.98	85.163	3,604.98	84.7784	3,604.98	84.827	3,604.98	86.9805	3,604.98	81.6984	3,604.98	84.8646	3,604.98	81.0738	3,604.98	81.4166	3,604.98	77.2851	3,604.98	80.1471	3,604.98	74.9091	3,604.98	77.5678	3,604.98	73.891	3,604.98	74.6034	3,604.98	71.4145	3,604.98	67.3012	3,604.98	71.2978	3,604.98	65.6817	3,604.98	69.8426	3,604.98	60.2658	3,604.98	69.8879	3,604.98	63.2425	3,604.98	69.5532	3,604.98	65.9545	3,604.98	68.9547	3,604.98	69.6972	3,604.98	66.9518
3,732.42	88.6138	3,732.42	88.2759	3,732.42	87.325	3,732.42	88.8133	3,732.42	86.4466	3,732.42	87.4694	3,732.42	86.0586	3,732.42	86.5842	3,732.42	85.0307	3,732.42	86.0336	3,732.42	84.1259	3,732.42	84.0621	3,732.42	86.6445	3,732.42	83.3748	3,732.42	84.3346	3,732.42	78.0434	3,732.42	80.7413	3,732.42	77.8953	3,732.42	78.8415	3,732.42	75.5038	3,732.42	76.6678	3,732.42	73.8893	3,732.42	74.3768	3,732.42	72.145	3,732.42	70.7434	3,732.42	71.4537	3,732.42	60.0356	3,732.42	69.5404	3,732.42	67.1975	3,732.42	68.891	3,732.42	65.1042	3,732.42	69.4157	3,732.42	68.6796	3,732.42	70.2234	3,732.42	71.038	3,732.42	66.9014
3,864.26	87.3393	3,864.26	88.4885	3,864.26	87.4945	3,864.26	88.9939	3,864.26	87.9813	3,864.26	86.2401	3,864.26	87.0712	3,864.26	86.0999	3,864.26	85.6701	3,864.26	86.101	3,864.26	84.1122	3,864.26	84.64	3,864.26	86.9685	3,864.26	80.6001	3,864.26	82.1016	3,864.26	81.3026	3,864.26	80.5832	3,864.26	76.5521	3,864.26	71.4034	3,864.26	76.1118	3,864.26	76.0931	3,864.26	73.3666	3,864.26	75.4863	3,864.26	71.8268	3,864.26	60.2236	3,864.26	71.7108	3,864.26	66.9196	3,864.26	69.4741	3,864.26	65.2773	3,864.26	70.0891	3,864.26	62.8227	3,864.26	69.8811	3,864.26	67.206	3,864.26	68.913	3,864.26	68.2068	3,864.26	63.8553
4,000.49	87.4615	4,000.49	88.5309	4,000.49	87.0569	4,000.49	87.4011	4,000.49	86.5608	4,000.49	85.4708	4,000.49	87.0912	4,000.49	85.6358	4,000.49	83.9003	4,000.49	85.6638	4,000.49	82.5982	4,000.49	84.7312	4,000.49	86.3948	4,000.49	81.7748	4,000.49	80.057	4,000.49	80.2587	4,000.49	79.2972	4,000.49	76.3562	4,000.49	77.9336	4,000.49	72.8707	4,000.49	75.486	4,000.49	73.2949	4,000.49	70.8347	4,000.49	69.8955	4,000.49	65.7168	4,000.49	70.5953	4,000.49	64.6653	4,000.49	68.7135	4,000.49	62.0539	4,000.49	68.3524	4,000.49	63.1284	4,000.49	68.5272	4,000.49	67.8145	4,000.49	69.6624	4,000.49	67.6435	4,000.49	62.3677
4,141.11	88.536	4,141.11	88.8364	4,141.11	88.2142	4,141.11	86.5329	4,141.11	86.1511	4,141.11	85.1051	4,141.11	87.6177	4,141.11	86.275	4,141.11	84.4752	4,141.11	86.1815	4,141.11	81.1298	4,141.11	83.1642	4,141.11	83.671	4,141.11	82.3061	4,141.11	80.825	4,141.11	73.9656	4,141.11	78.6094	4,141.11	76.5401	4,141.11	79.4126	4,141.11	73.1862	4,141.11	72.6913	4,141.11	69.313	4,141.11	73.2745	4,141.11	70.1449	4,141.11	68.2645	4,141.11	68.6841	4,141.11	64.0411	4,141.11	68.7686	4,141.11	63.9215	4,141.11	68.287	4,141.11	65.3006	4,141.11	65.6065	4,141.11	61.9521	4,141.11	67.5675	4,141.11	64.9858	4,141.11	57.7561
4,287.6	88.8297	4,287.6	88.3259	4,287.6	88.278	4,287.6	86.6681	4,287.6	87.3403	4,287.6	86.1775	4,287.6	87.4754	4,287.6	86.1245	4,287.6	85.9657	4,287.6	85.4387	4,287.6	80.7857	4,287.6	83.0086	4,287.6	83.0475	4,287.6	75.9645	4,287.6	82.2745	4,287.6	78.3126	4,287.6	79.5892	4,287.6	70.9082	4,287.6	78.1303	4,287.6	70.1024	4,287.6	69.9437	4,287.6	71.2005	4,287.6	78.1673	4,287.6	67.9109	4,287.6	68.654	4,287.6	67.4233	4,287.6	61.1625	4,287.6	68.277	4,287.6	59.9496	4,287.6	67.1169	4,287.6	64.6048	4,287.6	67.0147	4,287.6	48.3248	4,287.6	64.942	4,287.6	62.7184	4,287.6	49.2994
4,438.48	88.0659	4,438.48	87.2867	4,438.48	89.556	4,438.48	86.6723	4,438.48	88.5563	4,438.48	86.7654	4,438.48	88.3736	4,438.48	87.0853	4,438.48	86.2399	4,438.48	84.2897	4,438.48	81.1587	4,438.48	80.5912	4,438.48	83.6401	4,438.48	80.884	4,438.48	84.6148	4,438.48	73.0681	4,438.48	79.7503	4,438.48	76.9522	4,438.48	74.0359	4,438.48	72.4354	4,438.48	75.8329	4,438.48	70.9219	4,438.48	75.7018	4,438.48	69.834	4,438.48	69.2219	4,438.48	68.5732	4,438.48	63.8611	4,438.48	68.5481	4,438.48	57.0884	4,438.48	66.3572	4,438.48	64.1642	4,438.48	67.8568	4,438.48	60.2479	4,438.48	66.0857	4,438.48	60.7216	4,438.48	53.1261
4,595.21	89.0228	4,595.21	88.1614	4,595.21	88.3017	4,595.21	87.4948	4,595.21	89.2914	4,595.21	87.0645	4,595.21	89.3713	4,595.21	85.5312	4,595.21	86.3737	4,595.21	83.4814	4,595.21	81.8612	4,595.21	80.6234	4,595.21	82.6285	4,595.21	77.5534	4,595.21	82.3316	4,595.21	79.7318	4,595.21	79.2723	4,595.21	72.9014	4,595.21	61.7379	4,595.21	71.9522	4,595.21	76.5148	4,595.21	70.1664	4,595.21	72.8953	4,595.21	68.174	4,595.21	57.9445	4,595.21	67.4502	4,595.21	68.9537	4,595.21	68.8995	4,595.21	38.3682	4,595.21	67.3631	4,595.21	63.2961	4,595.21	66.4772	4,595.21	57.0092	4,595.21	66.463	4,595.21	64.1063	4,595.21	62.8898
4,756.35	90.1165	4,756.35	88.9102	4,756.35	87.8093	4,756.35	88.511	4,756.35	89.1816	4,756.35	86.9764	4,756.35	89.3493	4,756.35	84.8403	4,756.35	86.663	4,756.35	82.0973	4,756.35	83.2276	4,756.35	81.6065	4,756.35	82.2648	4,756.35	81.5396	4,756.35	81.9994	4,756.35	73.3864	4,756.35	77.7569	4,756.35	75.5551	4,756.35	73.7071	4,756.35	70.0111	4,756.35	74.2024	4,756.35	69.0588	4,756.35	72.3569	4,756.35	67.93	4,756.35	67.4352	4,756.35	67.8534	4,756.35	69.2545	4,756.35	66.4306	4,756.35	62.0302	4,756.35	68.0078	4,756.35	54.9967	4,756.35	68.8267	4,756.35	57.3016	4,756.35	65.9699	4,756.35	67.0852	4,756.35	59.1681
4,924.8	89.9538	4,924.8	89.454	4,924.8	88.983	4,924.8	88.4112	4,924.8	88.8349	4,924.8	86.0627	4,924.8	88.8044	4,924.8	83.2714	4,924.8	86.1596	4,924.8	83.2866	4,924.8	83.557	4,924.8	81.5416	4,924.8	81.2903	4,924.8	76.4978	4,924.8	76.4959	4,924.8	77.4513	4,924.8	75.8902	4,924.8	69.4358	4,924.8	76.1524	4,924.8	70.2149	4,924.8	61.1634	4,924.8	65.9281	4,924.8	63.3506	4,924.8	68.2782	4,924.8	64.5642	4,924.8	61.8148	4,924.8	70.1667	4,924.8	66.6791	4,924.8	63.8537	4,924.8	66.3578	4,924.8	54.4738	4,924.8	62.5778	4,924.8	61.6925	4,924.8	60.8184	4,924.8	61.0661	4,924.8	41.6692
5,097.66	89.4848	5,097.66	89.7033	5,097.66	88.6336	5,097.66	88.5483	5,097.66	89.4545	5,097.66	83.9705	5,097.66	87.278	5,097.66	83.8561	5,097.66	86.3966	5,097.66	83.6618	5,097.66	83.256	5,097.66	79.4482	5,097.66	81.5134	5,097.66	78.7256	5,097.66	80.0373	5,097.66	71.6342	5,097.66	73.8387	5,097.66	73.2921	5,097.66	74.2779	5,097.66	70.2811	5,097.66	62.7615	5,097.66	67.1987	5,097.66	63.4557	5,097.66	66.0529	5,097.66	67.0948	5,097.66	67.2202	5,097.66	71.21	5,097.66	69.1722	5,097.66	65.1436	5,097.66	66.0318	5,097.66	50.2652	5,097.66	66.1368	5,097.66	59.8297	5,097.66	65.6032	5,097.66	61.5742	5,097.66	53.6993
5,277.83	90.0665	5,277.83	89.8436	5,277.83	89.3374	5,277.83	87.194	5,277.83	87.3812	5,277.83	83.0034	5,277.83	86.7099	5,277.83	85.0068	5,277.83	86.8214	5,277.83	83.3635	5,277.83	81.4497	5,277.83	81.836	5,277.83	81.4093	5,277.83	79.2513	5,277.83	80.5736	5,277.83	78.6392	5,277.83	79.3092	5,277.83	74.7597	5,277.83	74.9368	5,277.83	74.1304	5,277.83	64.6013	5,277.83	70.8311	5,277.83	59.1652	5,277.83	70.6142	5,277.83	66.4121	5,277.83	69.3594	5,277.83	71.2027	5,277.83	67.8359	5,277.83	65.1921	5,277.83	65.9217	5,277.83	58.7113	5,277.83	62.5434	5,277.83	63.8227	5,277.83	63.0888	5,277.83	58.9556	5,277.83	49.8418
5,463.87	90.2689	5,463.87	87.313	5,463.87	88.6672	5,463.87	85.2888	5,463.87	87.3392	5,463.87	84.4615	5,463.87	84.8744	5,463.87	85.6018	5,463.87	87.6859	5,463.87	84.3821	5,463.87	79.662	5,463.87	82.8371	5,463.87	77.747	5,463.87	81.3383	5,463.87	82.8182	5,463.87	77.8093	5,463.87	79.6859	5,463.87	75.6276	5,463.87	76.9929	5,463.87	73.4581	5,463.87	72.9253	5,463.87	72.5172	5,463.87	60.9873	5,463.87	69.7049	5,463.87	57.7045	5,463.87	68.7672	5,463.87	67.5192	5,463.87	68.2073	5,463.87	62.7163	5,463.87	66.7534	5,463.87	60.4427	5,463.87	66.0976	5,463.87	63.4115	5,463.87	62.189	5,463.87	59.9513	5,463.87	57.11
5,657.23	89.4453	5,657.23	87.0875	5,657.23	89.31	5,657.23	84.9439	5,657.23	88.0478	5,657.23	85.895	5,657.23	85.0072	5,657.23	86.228	5,657.23	87.5297	5,657.23	85.0997	5,657.23	80.6108	5,657.23	83.2987	5,657.23	79.615	5,657.23	82.2968	5,657.23	82.6404	5,657.23	78.8379	5,657.23	79.6481	5,657.23	75.5244	5,657.23	78.2035	5,657.23	73.3919	5,657.23	72.9805	5,657.23	71.2216	5,657.23	66.0743	5,657.23	69.5527	5,657.23	59.7369	5,657.23	70.2408	5,657.23	63.7816	5,657.23	69.1555	5,657.23	58.1863	5,657.23	68.2675	5,657.23	58.5752	5,657.23	68.5356	5,657.23	58.0451	5,657.23	67.1888	5,657.23	53.7011	5,657.23	50.68
5,856.45	88.4323	5,856.45	86.8177	5,856.45	87.7176	5,856.45	85.0867	5,856.45	87.6712	5,856.45	85.7625	5,856.45	87.78	5,856.45	86.5465	5,856.45	86.8952	5,856.45	85.7566	5,856.45	82.1423	5,856.45	82.8242	5,856.45	80.9141	5,856.45	80.6329	5,856.45	83.3924	5,856.45	78.5115	5,856.45	78.7884	5,856.45	74.4702	5,856.45	79.2636	5,856.45	73.5205	5,856.45	68.2132	5,856.45	69.0532	5,856.45	69.0442	5,856.45	69.2466	5,856.45	61.9437	5,856.45	68.8696	5,856.45	65.6677	5,856.45	66.6135	5,856.45	64.8203	5,856.45	67.4025	5,856.45	55.791	5,856.45	67.4754	5,856.45	33.1385	5,856.45	66.7605	5,856.45	59.5158	5,856.45	60.1129
6,062.99	87.4875	6,062.99	87.6512	6,062.99	86.8022	6,062.99	86.8561	6,062.99	86.4666	6,062.99	86.115	6,062.99	88.9026	6,062.99	86.5001	6,062.99	85.7753	6,062.99	85.1626	6,062.99	83.0432	6,062.99	83.4679	6,062.99	80.0285	6,062.99	81.2302	6,062.99	83.5162	6,062.99	77.1466	6,062.99	77.7795	6,062.99	74.6721	6,062.99	75.9553	6,062.99	71.0633	6,062.99	74.9724	6,062.99	68.3404	6,062.99	67.2103	6,062.99	69.4936	6,062.99	60.0661	6,062.99	67.1623	6,062.99	64.5965	6,062.99	66.9255	6,062.99	67.164	6,062.99	67.3447	6,062.99	63.2833	6,062.99	66.6135	6,062.99	60.3226	6,062.99	65.3728	6,062.99	57.1352	6,062.99	60.0082
6,276.86	87.4786	6,276.86	87.599	6,276.86	86.0396	6,276.86	86.9977	6,276.86	86.2173	6,276.86	86.3585	6,276.86	85.8039	6,276.86	86.0998	6,276.86	85.3184	6,276.86	85.5394	6,276.86	83.1592	6,276.86	83.9202	6,276.86	82.2003	6,276.86	80.6396	6,276.86	80.3734	6,276.86	77.5609	6,276.86	74.7615	6,276.86	74.9256	6,276.86	71.8883	6,276.86	71.7344	6,276.86	77.1013	6,276.86	68.9542	6,276.86	64.7953	6,276.86	69.7132	6,276.86	67.5078	6,276.86	67.3709	6,276.86	62.4428	6,276.86	65.2825	6,276.86	60.8511	6,276.86	66.7667	6,276.86	60.3439	6,276.86	65.1609	6,276.86	57.5932	6,276.86	66.6289	6,276.86	55.24	6,276.86	52.8142
6,498.05	87.4592	6,498.05	88.0685	6,498.05	86.0853	6,498.05	88.1633	6,498.05	85.0714	6,498.05	86.3999	6,498.05	83.82	6,498.05	86.1924	6,498.05	84.6722	6,498.05	85.6927	6,498.05	84.058	6,498.05	83.1507	6,498.05	82.3339	6,498.05	79.9253	6,498.05	79.2158	6,498.05	75.9352	6,498.05	76.6054	6,498.05	73.1734	6,498.05	69.0898	6,498.05	70.6354	6,498.05	76.5116	6,498.05	68.1679	6,498.05	63.3469	6,498.05	67.0277	6,498.05	63.4587	6,498.05	66.0942	6,498.05	63.6364	6,498.05	65.494	6,498.05	61.9916	6,498.05	65.0322	6,498.05	57.0817	6,498.05	63.882	6,498.05	60.3166	6,498.05	60.578	6,498.05	50.9577	6,498.05	57.1782
6,726.56	87.3484	6,726.56	88.0011	6,726.56	86.2303	6,726.56	87.6123	6,726.56	84.0665	6,726.56	85.893	6,726.56	84.0957	6,726.56	86.2702	6,726.56	84.6878	6,726.56	85.3242	6,726.56	84.0119	6,726.56	81.9641	6,726.56	82.7906	6,726.56	79.974	6,726.56	79.9286	6,726.56	76.54	6,726.56	80.2724	6,726.56	71.5	6,726.56	73.3643	6,726.56	69.3857	6,726.56	73.0167	6,726.56	67.4556	6,726.56	50.1796	6,726.56	65.6896	6,726.56	60.4279	6,726.56	65.6517	6,726.56	63.9968	6,726.56	62.8151	6,726.56	60.235	6,726.56	65.6802	6,726.56	50.3426	6,726.56	65.8296	6,726.56	57.3325	6,726.56	63.6059	6,726.56	45.5645	6,726.56	57.6776
6,963.87	87.6875	6,963.87	87.8179	6,963.87	86.5266	6,963.87	87.5877	6,963.87	87.6867	6,963.87	85.8397	6,963.87	84.4785	6,963.87	87.0083	6,963.87	86.3881	6,963.87	84.3309	6,963.87	83.4474	6,963.87	81.6397	6,963.87	81.9505	6,963.87	78.009	6,963.87	80.951	6,963.87	75.4224	6,963.87	77.8237	6,963.87	71.4836	6,963.87	72.2079	6,963.87	69.1879	6,963.87	66.1001	6,963.87	66.3902	6,963.87	57.901	6,963.87	61.4482	6,963.87	63.0897	6,963.87	63.0613	6,963.87	58.4269	6,963.87	61.7219	6,963.87	60.4603	6,963.87	63.5038	6,963.87	57.9921	6,963.87	61.7485	6,963.87	58.7517	6,963.87	59.7476	6,963.87	47.493	6,963.87	55.1869
7,209.96	87.7335	7,209.96	87.8493	7,209.96	87.7769	7,209.96	88.6242	7,209.96	87.2468	7,209.96	85.8212	7,209.96	86.5261	7,209.96	85.7366	7,209.96	87.0333	7,209.96	83.7141	7,209.96	82.655	7,209.96	80.6821	7,209.96	80.2656	7,209.96	77.2634	7,209.96	82.6729	7,209.96	74.2162	7,209.96	77.097	7,209.96	68.6167	7,209.96	70.7278	7,209.96	67.8775	7,209.96	63.1032	7,209.96	64.3458	7,209.96	62.598	7,209.96	63.211	7,209.96	62.9966	7,209.96	63.2167	7,209.96	54.6769	7,209.96	61.8356	7,209.96	60.5887	7,209.96	59.9091	7,209.96	56.8651	7,209.96	57.7158	7,209.96	57.5335	7,209.96	58.9096	7,209.96	54.1906	7,209.96	52.4006
7,464.84	87.1094	7,464.84	87.481	7,464.84	87.5303	7,464.84	87.9203	7,464.84	87.3988	7,464.84	85.7429	7,464.84	87.7214	7,464.84	85.2431	7,464.84	87.4831	7,464.84	82.7728	7,464.84	81.5994	7,464.84	80.4461	7,464.84	80.8365	7,464.84	75.7833	7,464.84	80.9971	7,464.84	71.6148	7,464.84	76.8564	7,464.84	68.0671	7,464.84	65.8391	7,464.84	63.6861	7,464.84	64.6721	7,464.84	61.3421	7,464.84	57.4391	7,464.84	60.5169	7,464.84	62.215	7,464.84	62.4101	7,464.84	57.2085	7,464.84	62.4757	7,464.84	58.3306	7,464.84	60.7119	7,464.84	48.4732	7,464.84	61.763	7,464.84	45.4236	7,464.84	60.9053	7,464.84	51.3122	7,464.84	48.2785
7,727.05	87.9569	7,727.05	88.1903	7,727.05	87.8801	7,727.05	87.9264	7,727.05	87.6945	7,727.05	85.1132	7,727.05	88.5678	7,727.05	84.5166	7,727.05	86.6131	7,727.05	82.3932	7,727.05	82.1853	7,727.05	79.0552	7,727.05	79.7685	7,727.05	74.3752	7,727.05	80.1859	7,727.05	73.4019	7,727.05	71.095	7,727.05	68.1176	7,727.05	65.9997	7,727.05	65.3082	7,727.05	67.3736	7,727.05	61.5606	7,727.05	63.1655	7,727.05	63.1832	7,727.05	50.0006	7,727.05	60.8422	7,727.05	51.2353	7,727.05	62.6473	7,727.05	62.9429	7,727.05	60.6302	7,727.05	41.8263	7,727.05	62.9429	7,727.05	60.2578	7,727.05	61.5958	7,727.05	56.1194	7,727.05	55.4918
7,999.51	87.8844	7,999.51	87.4522	7,999.51	87.7402	7,999.51	87.363	7,999.51	88.376	7,999.51	84.013	7,999.51	87.8124	7,999.51	84.0368	7,999.51	85.4985	7,999.51	81.8255	7,999.51	82.9863	7,999.51	78.9598	7,999.51	78.5286	7,999.51	74.1624	7,999.51	78.2676	7,999.51	72.0512	7,999.51	72.1447	7,999.51	69.262	7,999.51	71.3045	7,999.51	62.2033	7,999.51	69.7362	7,999.51	61.0631	7,999.51	65.726	7,999.51	61.3604	7,999.51	51.1629	7,999.51	62.3643	7,999.51	54.6789	7,999.51	62.1506	7,999.51	50.8776	7,999.51	61.2227	7,999.51	49.3651	7,999.51	63.4349	7,999.51	55.9681	7,999.51	64.0267	7,999.51	53.4022	7,999.51	56.8147
8,282.23	86.9483	8,282.23	88.1517	8,282.23	87.4184	8,282.23	87.0412	8,282.23	88.4818	8,282.23	83.4253	8,282.23	84.8421	8,282.23	83.4576	8,282.23	84.6908	8,282.23	81.8805	8,282.23	84.6556	8,282.23	79.5163	8,282.23	76.5261	8,282.23	74.7707	8,282.23	74.5534	8,282.23	71.5431	8,282.23	76.5135	8,282.23	67.6399	8,282.23	70.1607	8,282.23	65.4972	8,282.23	64.5499	8,282.23	62.5482	8,282.23	69.2043	8,282.23	62.601	8,282.23	59.9033	8,282.23	60.7561	8,282.23	61.9215	8,282.23	62.009	8,282.23	47.5528	8,282.23	61.9795	8,282.23	47.4295	8,282.23	63.3349	8,282.23	54.7722	8,282.23	62.0137	8,282.23	54.6943	8,282.23	48.3446
8,573.73	86.9873	8,573.73	87.4097	8,573.73	88.4295	8,573.73	87.2889	8,573.73	87.3061	8,573.73	82.1051	8,573.73	84.6546	8,573.73	84.1059	8,573.73	83.8156	8,573.73	82.0573	8,573.73	84.4198	8,573.73	79.5824	8,573.73	75.5327	8,573.73	74.868	8,573.73	75.6379	8,573.73	71.8926	8,573.73	78.5125	8,573.73	71.0216	8,573.73	73.4258	8,573.73	66.247	8,573.73	66.4648	8,573.73	62.1584	8,573.73	67.0741	8,573.73	59.2319	8,573.73	59.4642	8,573.73	60.8418	8,573.73	61.5601	8,573.73	60.8836	8,573.73	47.0754	8,573.73	60.6535	8,573.73	52.0205	8,573.73	64.03	8,573.73	53.9644	8,573.73	64.7148	8,573.73	53.0267	8,573.73	58.6038
8,876.95	86.8848	8,876.95	86.8406	8,876.95	88.0889	8,876.95	87.5078	8,876.95	88.3716	8,876.95	83.7052	8,876.95	86.4838	8,876.95	84.0104	8,876.95	82.3478	8,876.95	82.0812	8,876.95	83.6731	8,876.95	79.8211	8,876.95	75.3307	8,876.95	76.0694	8,876.95	79.2264	8,876.95	73.2735	8,876.95	78.7914	8,876.95	69.2716	8,876.95	75.0983	8,876.95	64.4761	8,876.95	65.1185	8,876.95	63.5198	8,876.95	59.5206	8,876.95	59.7816	8,876.95	52.2377	8,876.95	61.5661	8,876.95	50.9554	8,876.95	62.2961	8,876.95	47.3313	8,876.95	62.7599	8,876.95	46.1296	8,876.95	64.8518	8,876.95	50.7553	8,876.95	62.484	8,876.95	49.4267	8,876.95	53.6734
9,188.96	86.9837	9,188.96	86.7167	9,188.96	87.8746	9,188.96	87.1761	9,188.96	88.4608	9,188.96	84.2064	9,188.96	87.0758	9,188.96	84.4322	9,188.96	82.8175	9,188.96	82.2022	9,188.96	81.9872	9,188.96	79.7931	9,188.96	76.4345	9,188.96	76.2482	9,188.96	78.6822	9,188.96	72.8042	9,188.96	76.6438	9,188.96	70.0546	9,188.96	74.4971	9,188.96	65.6062	9,188.96	60.8045	9,188.96	62.0143	9,188.96	56.8015	9,188.96	58.8332	9,188.96	52.4336	9,188.96	61.5425	9,188.96	50.0356	9,188.96	60.0288	9,188.96	52.7017	9,188.96	61.9044	9,188.96	48.0594	9,188.96	62.5013	9,188.96	53.0616	9,188.96	61.3497	9,188.96	47.8948	9,188.96	53.0721
9,514.16	87.5266	9,514.16	87.1813	9,514.16	87.6593	9,514.16	87.1338	9,514.16	87.5191	9,514.16	84.2863	9,514.16	86.5142	9,514.16	84.5849	9,514.16	84.6467	9,514.16	81.7744	9,514.16	78.3872	9,514.16	79.8444	9,514.16	78.5668	9,514.16	74.1796	9,514.16	78.536	9,514.16	72.3098	9,514.16	72.7341	9,514.16	68.0405	9,514.16	67.0526	9,514.16	60.9474	9,514.16	65.7764	9,514.16	60.9074	9,514.16	56.4359	9,514.16	58.4809	9,514.16	59.1855	9,514.16	60.8767	9,514.16	38.5015	9,514.16	61.5728	9,514.16	45.8055	9,514.16	61.038	9,514.16	49.6991	9,514.16	59.4785	9,514.16	55.2877	9,514.16	57.2217	9,514.16	45.6732	9,514.16	49.1224
9,849.61	87.6208	9,849.61	87.5464	9,849.61	87.2949	9,849.61	87.3007	9,849.61	87.4052	9,849.61	84.2033	9,849.61	85.9548	9,849.61	84.1541	9,849.61	86.6049	9,849.61	81.3094	9,849.61	76.7185	9,849.61	79.2895	9,849.61	78.8497	9,849.61	74.4115	9,849.61	75.6917	9,849.61	69.6391	9,849.61	71.4277	9,849.61	65.7517	9,849.61	60.7071	9,849.61	62.4985	9,849.61	70.0491	9,849.61	51.4991	9,849.61	60.52	9,849.61	57.1969	9,849.61	56.597	9,849.61	57.552	9,849.61	50.7709	9,849.61	58.4287	9,849.61	50.564	9,849.61	57.5277	9,849.61	53.45	9,849.61	59.3864	9,849.61	51.8063	9,849.61	56.7064	9,849.61	45.9884	9,849.61	53.5505
10,196.8	88.1557	10,196.8	87.9882	10,196.8	87.0963	10,196.8	87.881	10,196.8	87.7306	10,196.8	84.1485	10,196.8	85.8339	10,196.8	82.9484	10,196.8	86.3997	10,196.8	80.8115	10,196.8	78.378	10,196.8	78.1834	10,196.8	76.4589	10,196.8	71.6257	10,196.8	73.7829	10,196.8	65.8726	10,196.8	72.295	10,196.8	63.5664	10,196.8	65.7117	10,196.8	59.4905	10,196.8	66.9888	10,196.8	53.6096	10,196.8	55.9493	10,196.8	52.3623	10,196.8	53.7408	10,196.8	53.9149	10,196.8	46.5474	10,196.8	56.434	10,196.8	45.648	10,196.8	55.4924	10,196.8	36.2209	10,196.8	56.9092	10,196.8	45.5864	10,196.8	57.3407	10,196.8	45.9559	10,196.8	49.9293
10,555.7	88.222	10,555.7	87.9566	10,555.7	87.5932	10,555.7	88.0581	10,555.7	86.5297	10,555.7	84.0772	10,555.7	87.3971	10,555.7	82.683	10,555.7	85.0552	10,555.7	80.1856	10,555.7	81.9559	10,555.7	76.8048	10,555.7	71.491	10,555.7	68.5146	10,555.7	71.2067	10,555.7	66.4598	10,555.7	72.16	10,555.7	61.7453	10,555.7	67.6066	10,555.7	54.2581	10,555.7	67.7175	10,555.7	52.169	10,555.7	46.889	10,555.7	51.9933	10,555.7	53.7293	10,555.7	52.7018	10,555.7	46.5174	10,555.7	56.6594	10,555.7	51.1181	10,555.7	56.1721	10,555.7	44.8751	10,555.7	57.0312	10,555.7	40.5841	10,555.7	55.8862	10,555.7	38.2496	10,555.7	47.002
10,927.7	88.7761	10,927.7	87.8992	10,927.7	87.8287	10,927.7	87.9982	10,927.7	86.6328	10,927.7	83.426	10,927.7	87.1505	10,927.7	82.4636	10,927.7	83.3439	10,927.7	79.2625	10,927.7	82.5662	10,927.7	74.8192	10,927.7	71.1299	10,927.7	68.7121	10,927.7	71.0178	10,927.7	63.9057	10,927.7	70.8532	10,927.7	60.284	10,927.7	65.4695	10,927.7	56.3613	10,927.7	60.7156	10,927.7	52.9177	10,927.7	56.9762	10,927.7	55.2767	10,927.7	47.1284	10,927.7	54.3269	10,927.7	45.0814	10,927.7	52.8755	10,927.7	57.2609	10,927.7	53.116	10,927.7	49.0275	10,927.7	54.798	10,927.7	36.2834	10,927.7	55.592	10,927.7	48.8337	10,927.7	46.9366
11,313	89.1374	11,313	87.9606	11,313	87.8981	11,313	87.7592	11,313	86.3539	11,313	82.5799	11,313	85.2669	11,313	82.7573	11,313	83.6047	11,313	78.8415	11,313	81.9323	11,313	74.9079	11,313	73.6066	11,313	69.8029	11,313	69.4959	11,313	63.5692	11,313	66.6843	11,313	62.4218	11,313	62.9835	11,313	59.0993	11,313	53.0803	11,313	54.5608	11,313	58.7122	11,313	56.807	11,313	60.9389	11,313	51.6528	11,313	46.8962	11,313	51.4973	11,313	55.2589	11,313	53.2587	11,313	46.9747	11,313	53.6079	11,313	43.8927	11,313	55.1272	11,313	33.9135	11,313	45.616
11,712.9	88.9774	11,712.9	87.7823	11,712.9	88.2483	11,712.9	87.2204	11,712.9	86.5119	11,712.9	83.1344	11,712.9	85.1008	11,712.9	82.1587	11,712.9	83.2777	11,712.9	78.2605	11,712.9	80.7877	11,712.9	74.6801	11,712.9	74.9743	11,712.9	70.6577	11,712.9	59.9603	11,712.9	65.038	11,712.9	68.7334	11,712.9	61.1199	11,712.9	57.3204	11,712.9	57.8934	11,712.9	56.405	11,712.9	53.1596	11,712.9	56.5502	11,712.9	52.8556	11,712.9	55.1155	11,712.9	51.2032	11,712.9	50.7273	11,712.9	52.4974	11,712.9	50.2724	11,712.9	52.8733	11,712.9	52.9858	11,712.9	53.7911	11,712.9	49.5413	11,712.9	51.4881	11,712.9	44.0814	11,712.9	41.2221
12,126	88.5561	12,126	87.8383	12,126	88.2715	12,126	86.9202	12,126	86.8825	12,126	82.999	12,126	85.5117	12,126	81.8138	12,126	82.9367	12,126	77.8166	12,126	79.1719	12,126	75.125	12,126	74.7724	12,126	70.4031	12,126	68.4917	12,126	65.6176	12,126	65.9951	12,126	58.7034	12,126	62.5367	12,126	56.905	12,126	60.6958	12,126	57.4032	12,126	50.3731	12,126	50.9276	12,126	56.0358	12,126	54.6649	12,126	44.6451	12,126	55.4456	12,126	48.7875	12,126	50.6564	12,126	45.639	12,126	52.866	12,126	46.6712	12,126	50.8786	12,126	42.4919	12,126	41.139
12,553.7	88.2005	12,553.7	87.758	12,553.7	88.2974	12,553.7	86.7742	12,553.7	86.8292	12,553.7	82.8463	12,553.7	85.1782	12,553.7	81.5055	12,553.7	82.9346	12,553.7	77.0704	12,553.7	78.8383	12,553.7	74.3472	12,553.7	74.0306	12,553.7	69.5967	12,553.7	68.5348	12,553.7	62.5968	12,553.7	64.3568	12,553.7	57.7503	12,553.7	57.5513	12,553.7	54.9654	12,553.7	60.3994	12,553.7	52.3563	12,553.7	59.1552	12,553.7	53.3802	12,553.7	49.3089	12,553.7	54.4183	12,553.7	42.9136	12,553.7	55.5111	12,553.7	37.8419	12,553.7	52.1649	12,553.7	45.3374	12,553.7	53.1491	12,553.7	38.9336	12,553.7	48.6561	12,553.7	41.2913	12,553.7	42.1728
12,996.1	87.8718	12,996.1	88.032	12,996.1	88.1766	12,996.1	86.7993	12,996.1	87.038	12,996.1	83.0729	12,996.1	84.8015	12,996.1	80.7362	12,996.1	82.3593	12,996.1	76.7704	12,996.1	79.0954	12,996.1	73.69	12,996.1	73.8155	12,996.1	67.7874	12,996.1	64.0889	12,996.1	57.4196	12,996.1	65.705	12,996.1	55.0932	12,996.1	58.9023	12,996.1	50.1502	12,996.1	61.0516	12,996.1	45.219	12,996.1	60.2967	12,996.1	53.2736	12,996.1	48.9808	12,996.1	53.3468	12,996.1	51.2666	12,996.1	54.6367	12,996.1	46.7859	12,996.1	53.7658	12,996.1	46.8036	12,996.1	52.4838	12,996.1	41.9286	12,996.1	50.7993	12,996.1	41.3873	12,996.1	45.7948
13,454.6	87.8968	13,454.6	88.2461	13,454.6	88.1947	13,454.6	86.7217	13,454.6	86.8771	13,454.6	82.5777	13,454.6	83.905	13,454.6	80.3021	13,454.6	82.2096	13,454.6	76.3642	13,454.6	78.0145	13,454.6	72.2242	13,454.6	75.7002	13,454.6	66.9475	13,454.6	65.7818	13,454.6	58.6599	13,454.6	57.7336	13,454.6	50.932	13,454.6	58.1124	13,454.6	48.9072	13,454.6	59.5217	13,454.6	47.6439	13,454.6	61.7439	13,454.6	53.4066	13,454.6	50.9924	13,454.6	52.6075	13,454.6	48.7799	13,454.6	53.029	13,454.6	50.9604	13,454.6	51.5698	13,454.6	42.207	13,454.6	52.253	13,454.6	44.4002	13,454.6	51.3679	13,454.6	46.2166	13,454.6	46.4131
13,929.2	88.0997	13,929.2	88.3591	13,929.2	88.2131	13,929.2	86.8387	13,929.2	86.5517	13,929.2	82.2209	13,929.2	84.4077	13,929.2	79.5593	13,929.2	81.9149	13,929.2	76.2986	13,929.2	76.857	13,929.2	71.3687	13,929.2	74.6944	13,929.2	67.3517	13,929.2	68.7318	13,929.2	59.4252	13,929.2	62.4591	13,929.2	54.8206	13,929.2	41.317	13,929.2	53.9571	13,929.2	62.2456	13,929.2	48.9689	13,929.2	61.9855	13,929.2	51.6665	13,929.2	52.5764	13,929.2	50.835	13,929.2	50.0675	13,929.2	51.5489	13,929.2	48.2225	13,929.2	48.0198	13,929.2	32.4991	13,929.2	52.2798	13,929.2	44.9524	13,929.2	50.3813	13,929.2	48.3814	13,929.2	42.7774
14,419.9	88.5553	14,419.9	87.98	14,419.9	88.0994	14,419.9	86.6561	14,419.9	86.3008	14,419.9	81.9643	14,419.9	84.753	14,419.9	80.1113	14,419.9	81.8965	14,419.9	74.9497	14,419.9	77.4165	14,419.9	70.9092	14,419.9	73.1122	14,419.9	66.6422	14,419.9	67.2621	14,419.9	59.6457	14,419.9	64.5774	14,419.9	51.2787	14,419.9	55.4972	14,419.9	52.5033	14,419.9	58.9101	14,419.9	45.4335	14,419.9	61.3304	14,419.9	49.3752	14,419.9	52.7298	14,419.9	44.6645	14,419.9	49.7751	14,419.9	50.0257	14,419.9	44.0524	14,419.9	51.83	14,419.9	41.4923	14,419.9	51.6041	14,419.9	46.7402	14,419.9	48.3551	14,419.9	49.5774	14,419.9	42.2148
14,928.2	88.9361	14,928.2	87.7585	14,928.2	87.9526	14,928.2	86.2374	14,928.2	86.0596	14,928.2	81.6235	14,928.2	83.7088	14,928.2	80.0436	14,928.2	81.0503	14,928.2	74.6429	14,928.2	78.3786	14,928.2	69.8954	14,928.2	71.8533	14,928.2	65.7917	14,928.2	64.8606	14,928.2	58.6823	14,928.2	61.8475	14,928.2	51.9481	14,928.2	55.7497	14,928.2	51.6538	14,928.2	62.0976	14,928.2	49.5079	14,928.2	58.3744	14,928.2	45.3349	14,928.2	44.3355	14,928.2	49.4443	14,928.2	46.2668	14,928.2	52.319	14,928.2	27.3545	14,928.2	52.4151	14,928.2	46.2021	14,928.2	52.182	14,928.2	49.7922	14,928.2	45.9638	14,928.2	47.0597	14,928.2	42.7707
15,455.6	88.7964	15,455.6	87.5551	15,455.6	87.9141	15,455.6	86.1885	15,455.6	85.8919	15,455.6	81.9223	15,455.6	83.218	15,455.6	79.2666	15,455.6	80.195	15,455.6	73.2188	15,455.6	76.4778	15,455.6	68.0898	15,455.6	70.8976	15,455.6	65.1782	15,455.6	65.8208	15,455.6	60.7635	15,455.6	63.0283	15,455.6	56.2292	15,455.6	58.8106	15,455.6	51.4029	15,455.6	61.3758	15,455.6	48.1153	15,455.6	54.917	15,455.6	48.1718	15,455.6	44.8465	15,455.6	47.8657	15,455.6	41.0019	15,455.6	51.4069	15,455.6	40.9233	15,455.6	49.0443	15,455.6	45.8565	15,455.6	53.8992	15,455.6	45.0243	15,455.6	34.9784	15,455.6	34.7775	15,455.6	41.7455
16,000.5	88.5621	16,000.5	87.4399	16,000.5	87.8218	16,000.5	85.9816	16,000.5	85.6281	16,000.5	81.8574	16,000.5	83.5561	16,000.5	78.4545	16,000.5	80.2297	16,000.5	72.6314	16,000.5	75.228	16,000.5	67.1119	16,000.5	72.7891	16,000.5	65.8373	16,000.5	65.9487	16,000.5	60.4111	16,000.5	62.3012	16,000.5	56.5988	16,000.5	58.9887	16,000.5	51.712	16,000.5	60.5646	16,000.5	43.3884	16,000.5	60.9122	16,000.5	47.6444	16,000.5	48.9106	16,000.5	47.9378	16,000.5	48.5591	16,000.5	50.274	16,000.5	27.597	16,000.5	48.3625	16,000.5	38.5584	16,000.5	53.7998	16,000.5	47.6593	16,000.5	31.1987	16,000.5	42.6058	16,000.5	36.2134
16,564.5	88.1892	16,564.5	87.2647	16,564.5	87.4456	16,564.5	85.8592	16,564.5	85.7138	16,564.5	81.346	16,564.5	83.6769	16,564.5	77.1792	16,564.5	79.966	16,564.5	71.8075	16,564.5	75.2502	16,564.5	67.7166	16,564.5	72.4146	16,564.5	65.5182	16,564.5	67.3122	16,564.5	58.1182	16,564.5	58.1451	16,564.5	53.3165	16,564.5	55.5679	16,564.5	48.5994	16,564.5	61.6783	16,564.5	30.2593	16,564.5	62.099	16,564.5	42.281	16,564.5	49.443	16,564.5	45.387	16,564.5	41.9206	16,564.5	46.7755	16,564.5	44.5797	16,564.5	43.3642	16,564.5	38.8403	16,564.5	53.1611	16,564.5	45.4413	16,564.5	31.4603	16,564.5	42.8166	16,564.5	39.6813
17,148.9	87.8705	17,148.9	87.2033	17,148.9	87.1088	17,148.9	85.5525	17,148.9	85.3298	17,148.9	80.4735	17,148.9	82.6697	17,148.9	76.6229	17,148.9	79.1637	17,148.9	70.6519	17,148.9	74.0757	17,148.9	66.0016	17,148.9	69.3128	17,148.9	61.8839	17,148.9	65.3044	17,148.9	54.0956	17,148.9	59.1989	17,148.9	49.0928	17,148.9	56.852	17,148.9	44.8784	17,148.9	62.3622	17,148.9	27.8946	17,148.9	61.4457	17,148.9	33.4426	17,148.9	49.4175	17,148.9	44.0361	17,148.9	43.0613	17,148.9	47.2444	17,148.9	40.9654	17,148.9	19.4338	17,148.9	43.875	17,148.9	50.3662	17,148.9	41.1542	17,148.9	37.0983	17,148.9	38.3996	17,148.9	39.1076
17,752.4	87.3935	17,752.4	86.9695	17,752.4	86.7323	17,752.4	85.2864	17,752.4	85.2466	17,752.4	79.486	17,752.4	82.4412	17,752.4	76.1431	17,752.4	77.9601	17,752.4	69.5806	17,752.4	72.9429	17,752.4	63.5022	17,752.4	69.3402	17,752.4	55.3267	17,752.4	57.6602	17,752.4	54.4253	17,752.4	57.0413	17,752.4	50.1164	17,752.4	56.8754	17,752.4	43.2077	17,752.4	61.1274	17,752.4	34.797	17,752.4	60.8899	17,752.4	33.7974	17,752.4	48.4696	17,752.4	44.4435	17,752.4	41.1007	17,752.4	45.9356	17,752.4	41.7777	17,752.4	39.8887	17,752.4	43.8744	17,752.4	50.4145	17,752.4	43.9636	17,752.4	37.0663	17,752.4	40.5547	17,752.4	30.8755
18,379.4	86.7729	18,379.4	86.4776	18,379.4	86.5181	18,379.4	84.7655	18,379.4	84.8707	18,379.4	79.1839	18,379.4	80.9676	18,379.4	74.9818	18,379.4	77.0389	18,379.4	68.1855	18,379.4	70.6145	18,379.4	58.1902	18,379.4	67.1289	18,379.4	53.0224	18,379.4	62.1037	18,379.4	53.7475	18,379.4	57.5468	18,379.4	50.302	18,379.4	54.0007	18,379.4	42.2506	18,379.4	60.5764	18,379.4	37.9167	18,379.4	61.4192	18,379.4	32.3446	18,379.4	45.4395	18,379.4	41.6053	18,379.4	43.8753	18,379.4	46.6826	18,379.4	36.4637	18,379.4	32.2013	18,379.4	43.2188	18,379.4	50.5048	18,379.4	38.573	18,379.4	39.5931	18,379.4	27.8838	18,379.4	20.5176
19,026.9	86.2094	19,026.9	85.9734	19,026.9	86.2015	19,026.9	84.1351	19,026.9	84.2477	19,026.9	78.7793	19,026.9	80.0549	19,026.9	73.8123	19,026.9	76.4852	19,026.9	66.2645	19,026.9	68.5787	19,026.9	53.5107	19,026.9	57.8054	19,026.9	55.1447	19,026.9	61.4959	19,026.9	54.0548	19,026.9	58.9961	19,026.9	47.8373	19,026.9	56.8712	19,026.9	41.4368	19,026.9	59.816	19,026.9	42.0114	19,026.9	60.8538	19,026.9	24.6377	19,026.9	44.0447	19,026.9	36.8391	19,026.9	46.2719	19,026.9	46.7247	19,026.9	43.025	19,026.9	40.294	19,026.9	41.2506	19,026.9	51.0638	19,026.9	42.5293	19,026.9	42.4421	19,026.9	40.1288	19,026.9	34.5407
19,697.8	85.6365	19,697.8	85.4129	19,697.8	85.8218	19,697.8	83.3831	19,697.8	83.2813	19,697.8	78.4553	19,697.8	79.8412	19,697.8	72.7055	19,697.8	75.6939	19,697.8	61.8212	19,697.8	68.4263	19,697.8	53.1808	19,697.8	63.0049	19,697.8	52.8992	19,697.8	56.2597	19,697.8	53.8923	19,697.8	57.2757	19,697.8	47.5058	19,697.8	54.3656	19,697.8	37.1932	19,697.8	57.3956	19,697.8	42.0916	19,697.8	59.7069	19,697.8	39.5831	19,697.8	40.6789	19,697.8	37.612	19,697.8	44.6694	19,697.8	42.3863	19,697.8	46.7766	19,697.8	39.0832	19,697.8	40.2241	19,697.8	48.8109	19,697.8	39.2319	19,697.8	40.1196	19,697.8	35.0391	19,697.8	37.6185
19,999.5	85.2253	19,999.5	85.154	19,999.5	85.3606	19,999.5	83.0078	19,999.5	83.1074	19,999.5	77.878	19,999.5	79.2276	19,999.5	72.6226	19,999.5	74.7247	19,999.5	58.3305	19,999.5	68.0862	19,999.5	53.1177	19,999.5	61.5293	19,999.5	55.4123	19,999.5	57.6874	19,999.5	53.4213	19,999.5	58.8676	19,999.5	46.7496	19,999.5	49.2179	19,999.5	47.0228	19,999.5	55.1771	19,999.5	49.1721	19,999.5	59.1732	19,999.5	52.2918	19,999.5	50.5642	19,999.5	48.5409	19,999.5	32.077	19,999.5	44.8326	19,999.5	55.161	19,999.5	47.7914	19,999.5	50.6701	19,999.5	46.3868	19,999.5	34.7035	19,999.5	35.9124	19,999.5	26.3534	19,999.5	34.1457
