"SPL Vertical"
"On-Axis"		"10°"		"-10°"		"20°"		"-20°"		"30°"		"-30°"		"40°"		"-40°"		"50°"		"-50°"		"60°"		"-60°"		"70°"		"-70°"		"80°"		"-80°"		"90°"		"-90°"		"100°"		"-100°"		"110°"		"-110°"		"120°"		"-120°"		"130°"		"-130°"		"140°"		"-140°"		"150°"		"-150°"		"160°"		"-160°"		"170°"		"-170°"		"180°"
"Frequency [Hz]"	"Sound Pessure Level [dB]  / [2.83V 1m] "	"Frequency [Hz]"	"Sound Pessure Level [dB]  / [2.83V 1m] "	"Frequency [Hz]"	"Sound Pessure Level [dB]  / [2.83V 1m] "	"Frequency [Hz]"	"Sound Pessure Level [dB]  / [2.83V 1m] "	"Frequency [Hz]"	"Sound Pessure Level [dB]  / [2.83V 1m] "	"Frequency [Hz]"	"Sound Pessure Level [dB]  / [2.83V 1m] "	"Frequency [Hz]"	"Sound Pessure Level [dB]  / [2.83V 1m] "	"Frequency [Hz]"	"Sound Pessure Level [dB]  / [2.83V 1m] "	"Frequency [Hz]"	"Sound Pessure Level [dB]  / [2.83V 1m] "	"Frequency [Hz]"	"Sound Pessure Level [dB]  / [2.83V 1m] "	"Frequency [Hz]"	"Sound Pessure Level [dB]  / [2.83V 1m] "	"Frequency [Hz]"	"Sound Pessure Level [dB]  / [2.83V 1m] "	"Frequency [Hz]"	"Sound Pessure Level [dB]  / [2.83V 1m] "	"Frequency [Hz]"	"Sound Pessure Level [dB]  / [2.83V 1m] "	"Frequency [Hz]"	"Sound Pessure Level [dB]  / [2.83V 1m] "	"Frequency [Hz]"	"Sound Pessure Level [dB]  / [2.83V 1m] "	"Frequency [Hz]"	"Sound Pessure Level [dB]  / [2.83V 1m] "	"Frequency [Hz]"	"Sound Pessure Level [dB]  / [2.83V 1m] "	"Frequency [Hz]"	"Sound Pessure Level [dB]  / [2.83V 1m] "	"Frequency [Hz]"	"Sound Pessure Level [dB]  / [2.83V 1m] "	"Frequency [Hz]"	"Sound Pessure Level [dB]  / [2.83V 1m] "	"Frequency [Hz]"	"Sound Pessure Level [dB]  / [2.83V 1m] "	"Frequency [Hz]"	"Sound Pessure Level [dB]  / [2.83V 1m] "	"Frequency [Hz]"	"Sound Pessure Level [dB]  / [2.83V 1m] "	"Frequency [Hz]"	"Sound Pessure Level [dB]  / [2.83V 1m] "	"Frequency [Hz]"	"Sound Pessure Level [dB]  / [2.83V 1m] "	"Frequency [Hz]"	"Sound Pessure Level [dB]  / [2.83V 1m] "	"Frequency [Hz]"	"Sound Pessure Level [dB]  / [2.83V 1m] "	"Frequency [Hz]"	"Sound Pessure Level [dB]  / [2.83V 1m] "	"Frequency [Hz]"	"Sound Pessure Level [dB]  / [2.83V 1m] "	"Frequency [Hz]"	"Sound Pessure Level [dB]  / [2.83V 1m] "	"Frequency [Hz]"	"Sound Pessure Level [dB]  / [2.83V 1m] "	"Frequency [Hz]"	"Sound Pessure Level [dB]  / [2.83V 1m] "	"Frequency [Hz]"	"Sound Pessure Level [dB]  / [2.83V 1m] "	"Frequency [Hz]"	"Sound Pessure Level [dB]  / [2.83V 1m] "	"Frequency [Hz]"	"Sound Pessure Level [dB]  / [2.83V 1m] "
20.5078	38.1485	20.5078	36.8295	20.5078	38.931	20.5078	35.0201	20.5078	39.1993	20.5078	33.3897	20.5078	38.929	20.5078	33.9451	20.5078	38.0097	20.5078	36.7699	20.5078	36.1846	20.5078	39.8635	20.5078	32.999	20.5078	42.54	20.5078	29.8464	20.5078	44.784	20.5078	34.1233	20.5078	46.6764	20.5078	39.3532	20.5078	48.2857	20.5078	43.1737	20.5078	49.6593	20.5078	46.0474	20.5078	50.8267	20.5078	48.2796	20.5078	51.8045	20.5078	50.0326	20.5078	52.5995	20.5078	51.3978	20.5078	53.2108	20.5078	52.4312	20.5078	53.6323	20.5078	53.1693	20.5078	53.8535	20.5078	53.6389	20.5078	53.8609
21.9727	45.3588	21.9727	44.8692	21.9727	45.6736	21.9727	44.2571	21.9727	45.7878	21.9727	43.6335	21.9727	45.6858	21.9727	43.2044	21.9727	45.3602	21.9727	43.2433	21.9727	44.8252	21.9727	43.9123	21.9727	44.1612	21.9727	45.1018	21.9727	43.6084	21.9727	46.5484	21.9727	43.6193	21.9727	48.0341	21.9727	44.5458	21.9727	49.4394	21.9727	46.1791	21.9727	50.7116	21.9727	48.0276	21.9727	51.8292	21.9727	49.7676	21.9727	52.7828	21.9727	51.2705	21.9727	53.566	21.9727	52.5018	21.9727	54.1712	21.9727	53.4612	21.9727	54.5894	21.9727	54.1588	21.9727	54.8097	21.9727	54.6074	21.9727	54.82
23.4375	46.7893	23.4375	46.279	23.4375	47.1373	23.4375	45.6668	23.4375	47.2919	23.4375	45.0737	23.4375	47.2343	23.4375	44.7089	23.4375	46.9546	23.4375	44.8237	23.4375	46.4629	23.4375	45.5375	23.4375	45.8289	23.4375	46.7216	23.4375	45.2655	23.4375	48.1299	23.4375	45.1937	23.4375	49.5668	23.4375	45.9926	23.4375	50.9248	23.4375	47.5303	23.4375	52.1555	23.4375	49.3362	23.4375	53.2384	23.4375	51.0647	23.4375	54.1639	23.4375	52.5685	23.4375	54.9247	23.4375	53.8039	23.4375	55.513	23.4375	54.7674	23.4375	55.919	23.4375	55.4683	23.4375	56.1309	23.4375	55.9197	23.4375	56.1358
24.9023	47.7017	24.9023	47.1435	24.9023	48.0708	24.9023	46.4602	24.9023	48.219	24.9023	45.7902	24.9023	48.1254	24.9023	45.3879	24.9023	47.7737	24.9023	45.5597	24.9023	47.1627	24.9023	46.4188	24.9023	46.3516	24.9023	47.7638	24.9023	45.5786	24.9023	49.2952	24.9023	45.3953	24.9023	50.8099	24.9023	46.3237	24.9023	52.2118	24.9023	48.1209	24.9023	53.4638	24.9023	50.1458	24.9023	54.5536	24.9023	52.0177	24.9023	55.4766	24.9023	53.6116	24.9023	56.2285	24.9023	54.9065	24.9023	56.8033	24.9023	55.9125	24.9023	57.1922	24.9023	56.6466	24.9023	57.3844	24.9023	57.1261	24.9023	57.367
26.3672	50.322	26.3672	49.8941	26.3672	50.6021	26.3672	49.3655	26.3672	50.7087	26.3672	48.8264	26.3672	50.6264	26.3672	48.4315	26.3672	50.348	26.3672	48.3846	26.3672	49.8843	26.3672	48.8343	26.3672	49.2945	26.3672	49.7524	26.3672	48.7481	26.3672	50.9617	26.3672	48.5766	26.3672	52.2718	26.3672	49.1247	26.3672	53.5538	26.3672	50.3819	26.3672	54.7382	26.3672	51.988	26.3672	55.791	26.3672	53.6014	26.3672	56.6945	26.3672	55.0446	26.3672	57.4372	26.3672	56.2509	26.3672	58.0091	26.3672	57.2032	26.3672	58.3996	26.3672	57.9037	26.3672	58.5968	26.3672	58.3616	26.3672	58.5884
27.832	52.6535	27.832	52.223	27.832	52.9411	27.832	51.6833	27.832	53.0677	27.832	51.0998	27.832	53.0219	27.832	50.5913	27.832	52.7982	27.832	50.3357	27.832	52.4029	27.832	50.5105	27.832	51.874	27.832	51.1701	27.832	51.3215	27.832	52.1985	27.832	50.977	27.832	53.4071	27.832	51.1515	27.832	54.6412	27.832	51.9899	27.832	55.8069	27.832	53.2993	27.832	56.8548	27.832	54.7549	27.832	57.7589	27.832	56.1276	27.832	58.5037	27.832	57.3073	27.832	59.0769	27.832	58.2532	27.832	59.467	27.832	58.9557	27.832	59.6622	27.832	59.4183	27.832	59.65
29.2969	53.4546	29.2969	53.0491	29.2969	53.7322	29.2969	52.5608	29.2969	53.8569	29.2969	52.071	29.2969	53.8148	29.2969	51.7113	29.2969	53.6012	29.2969	51.649	29.2969	53.2285	29.2969	52.0105	29.2969	52.7485	29.2969	52.7895	29.2969	52.2937	29.2969	53.8539	29.2969	52.1109	29.2969	55.0413	29.2969	52.4764	29.2969	56.2288	29.2969	53.4523	29.2969	57.3425	29.2969	54.8097	29.2969	58.3423	29.2969	56.2543	29.2969	59.2055	29.2969	57.5939	29.2969	59.9173	29.2969	58.7383	29.2969	60.4657	29.2969	59.6544	29.2969	60.8387	29.2969	60.335	29.2969	61.0243	29.2969	60.784	29.2969	61.0101
30.7617	54.3308	30.7617	53.9791	30.7617	54.5634	30.7617	53.5595	30.7617	54.6478	30.7617	53.1592	30.7617	54.5693	30.7617	52.9091	30.7617	54.3267	30.7617	52.9591	30.7617	53.9416	30.7617	53.4045	30.7617	53.4839	30.7617	54.2192	30.7617	53.1106	30.7617	55.2774	30.7617	53.0763	30.7617	56.4362	30.7617	53.6082	30.7617	57.5883	30.7617	54.6915	30.7617	58.6678	30.7617	56.0793	30.7617	59.6374	30.7617	57.511	30.7617	60.475	30.7617	58.8261	30.7617	61.1655	30.7617	59.9494	30.7617	61.6961	30.7617	60.8519	30.7617	62.0546	30.7617	61.5263	30.7617	62.2287	30.7617	61.9753	30.7617	62.206
32.2266	57.0466	32.2266	56.7767	32.2266	57.2367	32.2266	56.4638	32.2266	57.3259	32.2266	56.1666	32.2266	57.3052	32.2266	55.9674	32.2266	57.1779	32.2266	55.9612	32.2266	56.9645	32.2266	56.2221	32.2266	56.7148	32.2266	56.7657	32.2266	56.5217	32.2266	57.5395	32.2266	56.5219	32.2266	58.453	32.2266	56.8486	32.2266	59.416	32.2266	57.5437	32.2266	60.3585	32.2266	58.5179	32.2266	61.2321	32.2266	59.6142	32.2266	62.0041	32.2266	60.6905	32.2266	62.6514	32.2266	61.6527	32.2266	63.1557	32.2266	62.4489	32.2266	63.5015	32.2266	63.054	32.2266	63.6749	32.2266	63.4589	32.2266	63.6639
33.6914	58.4605	33.6914	58.2174	33.6914	58.632	33.6914	57.9388	33.6914	58.7109	33.6914	57.68	33.6914	58.6882	33.6914	57.5169	33.6914	58.5673	33.6914	57.5337	33.6914	58.369	33.6914	57.7953	33.6914	58.1424	33.6914	58.3155	33.6914	57.9765	33.6914	59.0492	33.6914	57.9982	33.6914	59.9166	33.6914	58.3283	33.6914	60.8357	33.6914	59.0034	33.6914	61.7402	33.6914	59.942	33.6914	62.5826	33.6914	60.9992	33.6914	63.33	33.6914	62.041	33.6914	63.9583	33.6914	62.9761	33.6914	64.4487	33.6914	63.7522	33.6914	64.785	33.6914	64.3435	33.6914	64.9534	33.6914	64.7401	33.6914	64.9415
35.1562	60.1534	35.1562	59.9036	35.1562	60.3407	35.1562	59.6297	35.1562	60.4413	35.1562	59.3873	35.1562	60.4429	35.1562	59.2477	35.1562	60.3458	35.1562	59.2863	35.1562	60.1679	35.1562	59.5571	35.1562	59.9539	35.1562	60.0676	35.1562	59.7863	35.1562	60.7746	35.1562	59.7836	35.1562	61.6056	35.1562	60.0626	35.1562	62.4859	35.1562	60.669	35.1562	63.3538	35.1562	61.5385	35.1562	64.1641	35.1562	62.5393	35.1562	64.8839	35.1562	63.5415	35.1562	65.4888	35.1562	64.452	35.1562	65.9595	35.1562	65.2155	35.1562	66.2792	35.1562	65.8031	35.1562	66.4338	35.1562	66.2023	35.1562	66.4111
36.6211	61.8894	36.6211	61.6786	36.6211	62.0521	36.6211	61.4542	36.6211	62.1444	36.6211	61.264	36.6211	62.1555	36.6211	61.1664	36.6211	62.0869	36.6211	61.2215	36.6211	61.9565	36.6211	61.4722	36.6211	61.8058	36.6211	61.927	36.6211	61.7062	36.6211	62.5557	36.6211	61.7533	36.6211	63.3022	36.6211	62.0375	36.6211	64.1042	36.6211	62.5934	36.6211	64.9063	36.6211	63.3731	36.6211	65.6645	36.6211	64.273	36.6211	66.3455	36.6211	65.1832	36.6211	66.9233	36.6211	66.019	36.6211	67.3771	36.6211	66.7253	36.6211	67.689	36.6211	67.271	36.6211	67.8444	36.6211	67.641	36.6211	67.8311
38.0859	63.4011	38.0859	63.2124	38.0859	63.5516	38.0859	63.0173	38.0859	63.6428	38.0859	62.8595	38.0859	63.6648	38.0859	62.7909	38.0859	63.6193	38.0859	62.8632	38.0859	63.5232	38.0859	63.1129	38.0859	63.4139	38.0859	63.547	38.0859	63.3535	38.0859	64.1398	38.0859	63.4236	38.0859	64.8429	38.0859	63.7005	38.0859	65.6008	38.0859	64.2162	38.0859	66.3625	38.0859	64.9349	38.0859	67.0861	38.0859	65.7701	38.0859	67.7386	38.0859	66.6243	38.0859	68.2939	38.0859	67.4169	38.0859	68.7306	38.0859	68.0929	38.0859	69.0307	38.0859	68.619	38.0859	69.1791	38.0859	68.978	38.0859	69.1641
39.5508	64.9725	39.5508	64.8236	39.5508	65.0944	39.5508	64.676	39.5508	65.1705	39.5508	64.567	39.5508	65.1922	39.5508	64.5398	39.5508	65.1619	39.5508	64.6357	39.5508	65.0965	39.5508	64.8836	39.5508	65.0304	39.5508	65.2894	39.5508	65.0178	39.5508	65.8336	39.5508	65.126	39.5508	66.4777	39.5508	65.4152	39.5508	67.1754	39.5508	65.9086	39.5508	67.8818	39.5508	66.5762	39.5508	68.5578	39.5508	67.347	39.5508	69.1715	39.5508	68.1377	39.5508	69.6966	39.5508	68.8763	39.5508	70.1111	39.5508	69.5105	39.5508	70.3968	39.5508	70.007	39.5508	70.5382	39.5508	70.3473	39.5508	70.5241
41.0156	66.9563	41.0156	66.8416	41.0156	67.0515	41.0156	66.7312	41.0156	67.1118	41.0156	66.6561	41.0156	67.1312	41.0156	66.6518	41.0156	67.1146	41.0156	66.7523	41.0156	67.0797	41.0156	66.9824	41.0156	67.0598	41.0156	67.3497	41.0156	67.1032	41.0156	67.8414	41.0156	67.2653	41.0156	68.4285	41.0156	67.5909	41.0156	69.0727	41.0156	68.0919	41.0156	69.7344	41.0156	68.7374	41.0156	70.3772	41.0156	69.4651	41.0156	70.9696	41.0156	70.2029	41.0156	71.4848	41.0156	70.8873	41.0156	71.8999	41.0156	71.4706	41.0156	72.1954	41.0156	71.9217	41.0156	72.3551	41.0156	72.2227	41.0156	72.3667
42.4805	68.4329	42.4805	68.3146	42.4805	68.5381	42.4805	68.2042	42.4805	68.6165	42.4805	68.1292	42.4805	68.6624	42.4805	68.1207	42.4805	68.6788	42.4805	68.2086	42.4805	68.6795	42.4805	68.4147	42.4805	68.6899	42.4805	68.7464	42.4805	68.747	42.4805	69.1934	42.4805	68.8934	42.4805	69.7304	42.4805	69.1659	42.4805	70.3232	42.4805	69.5795	42.4805	70.9352	42.4805	70.1178	42.4805	71.532	42.4805	70.7368	42.4805	72.0828	42.4805	71.3788	42.4805	72.5614	42.4805	71.9875	42.4805	72.9453	42.4805	72.517	42.4805	73.2158	42.4805	72.9343	42.4805	73.3577	42.4805	73.2188	42.4805	73.3605
43.9453	69.8671	43.9453	69.768	43.9453	69.9624	43.9453	69.6842	43.9453	70.0408	43.9453	69.6394	43.9453	70.0965	43.9453	69.6595	43.9453	70.1318	43.9453	69.7685	43.9453	70.1586	43.9453	69.9828	43.9453	70.1987	43.9453	70.3068	43.9453	70.2834	43.9453	70.731	43.9453	70.448	43.9453	71.2341	43.9453	70.7223	43.9453	71.7871	43.9453	71.1185	43.9453	72.3584	43.9453	71.623	43.9453	72.9171	43.9453	72.1987	43.9453	73.435	43.9453	72.7958	43.9453	73.887	43.9453	73.3636	43.9453	74.2513	43.9453	73.8593	43.9453	74.5091	43.9453	74.251	43.9453	74.6457	43.9453	74.5181	43.9453	74.6503
45.4102	71.6468	45.4102	71.5578	45.4102	71.7348	45.4102	71.4838	45.4102	71.8107	45.4102	71.4448	45.4102	71.8689	45.4102	71.462	45.4102	71.9112	45.4102	71.5555	45.4102	71.9467	45.4102	71.7398	45.4102	71.9934	45.4102	72.0204	45.4102	72.0768	45.4102	72.3915	45.4102	72.2263	45.4102	72.837	45.4102	72.4679	45.4102	73.3333	45.4102	72.8141	45.4102	73.8526	45.4102	73.2567	45.4102	74.3665	45.4102	73.7669	45.4102	74.8476	45.4102	74.3024	45.4102	75.2712	45.4102	74.8174	45.4102	75.615	45.4102	75.2712	45.4102	75.8603	45.4102	75.632	45.4102	75.9919	45.4102	75.8786	45.4102	75.9995
46.875	73.3555	46.875	73.2741	46.875	73.4366	46.875	73.2064	46.875	73.5076	46.875	73.1692	46.875	73.5639	46.875	73.1813	46.875	73.6065	46.875	73.26	46.875	73.6436	46.875	73.4189	46.875	73.6905	46.875	73.6641	46.875	73.769	46.875	73.9927	46.875	73.9048	46.875	74.3923	46.875	74.121	46.875	74.843	46.875	74.43	46.875	75.3202	46.875	74.827	46.875	75.7974	46.875	75.2882	46.875	76.2484	46.875	75.7767	46.875	76.6485	46.875	76.2508	46.875	76.9756	46.875	76.6715	46.875	77.2107	46.875	77.0076	46.875	77.3385	46.875	77.2373	46.875	77.3487
48.3398	74.9307	48.3398	74.8537	48.3398	75.0078	48.3398	74.7896	48.3398	75.0763	48.3398	74.7537	48.3398	75.132	48.3398	74.7629	48.3398	75.1762	48.3398	74.8335	48.3398	75.2163	48.3398	74.9779	48.3398	75.2662	48.3398	75.2025	48.3398	75.3456	48.3398	75.5055	48.3398	75.4773	48.3398	75.8765	48.3398	75.6817	48.3398	76.2979	48.3398	75.9703	48.3398	76.7471	48.3398	76.3391	48.3398	77.1992	48.3398	76.7677	48.3398	77.629	48.3398	77.2229	48.3398	78.0125	48.3398	77.6662	48.3398	78.3276	48.3398	78.0609	48.3398	78.5555	48.3398	78.3766	48.3398	78.6813	48.3398	78.5919	48.3398	78.6947
51.2695	77.8996	51.2695	77.8408	51.2695	77.9657	51.2695	77.7986	51.2695	78.0324	51.2695	77.7842	51.2695	78.0967	51.2695	77.8098	51.2695	78.1593	51.2695	77.8869	51.2695	78.2256	51.2695	78.0246	51.2695	78.3055	51.2695	78.2275	51.2695	78.4125	51.2695	78.4948	51.2695	78.5619	51.2695	78.8195	51.2695	78.767	51.2695	79.1884	51.2695	79.035	51.2695	79.584	51.2695	79.3623	51.2695	79.9857	51.2695	79.7339	51.2695	80.3717	51.2695	80.1247	51.2695	80.7201	51.2695	80.5041	51.2695	81.0105	51.2695	80.8415	51.2695	81.2247	51.2695	81.1103	51.2695	81.3482	51.2695	81.2909	51.2695	81.3714
52.7344	79.2359	52.7344	79.1815	52.7344	79.2997	52.7344	79.1448	52.7344	79.3673	52.7344	79.1353	52.7344	79.4356	52.7344	79.1635	52.7344	79.5052	52.7344	79.2391	52.7344	79.5804	52.7344	79.3699	52.7344	79.669	52.7344	79.5602	52.7344	79.7821	52.7344	79.8094	52.7344	79.9322	52.7344	80.1116	52.7344	80.1304	52.7344	80.4554	52.7344	80.3827	52.7344	80.8254	52.7344	80.6864	52.7344	81.2028	52.7344	81.0288	52.7344	81.5673	52.7344	81.3881	52.7344	81.8982	52.7344	81.7371	52.7344	82.1757	52.7344	82.0477	52.7344	82.3822	52.7344	82.2949	52.7344	82.5036	52.7344	82.4596	52.7344	82.5305
54.1992	80.4134	54.1992	80.364	54.1992	80.4751	54.1992	80.3337	54.1992	80.544	54.1992	80.3307	54.1992	80.6173	54.1992	80.3634	54.1992	80.6953	54.1992	80.4398	54.1992	80.7809	54.1992	80.5664	54.1992	80.8803	54.1992	80.7466	54.1992	81.0023	54.1992	80.9799	54.1992	81.1568	54.1992	81.2615	54.1992	81.3525	54.1992	81.5819	54.1992	81.5939	54.1992	81.9274	54.1992	81.8788	54.1992	82.2814	54.1992	82.196	54.1992	82.6253	54.1992	82.5266	54.1992	82.9396	54.1992	82.8464	54.1992	83.2055	54.1992	83.13	54.1992	83.406	54.1992	83.3543	54.1992	83.5274	54.1992	83.5013	54.1992	83.5602
55.6641	81.34	55.6641	81.2903	55.6641	81.4028	55.6641	81.2598	55.6641	81.4742	55.6641	81.2555	55.6641	81.5516	55.6641	81.2849	55.6641	81.6346	55.6641	81.3549	55.6641	81.7256	55.6641	81.471	55.6641	81.8298	55.6641	81.6366	55.6641	81.9541	55.6641	81.8516	55.6641	82.1069	55.6641	82.112	55.6641	82.2954	55.6641	82.4098	55.6641	82.5233	55.6641	82.7329	55.6641	82.7882	55.6641	83.0663	55.6641	83.0805	55.6641	83.3926	55.6641	83.3835	55.6641	83.6933	55.6641	83.6754	55.6641	83.9504	55.6641	83.933	55.6641	84.1473	55.6641	84.1348	55.6641	84.2703	55.6641	84.2641	55.6641	84.3103
58.5938	82.6325	58.5938	82.5907	58.5938	82.6898	58.5938	82.5686	58.5938	82.7596	58.5938	82.5706	58.5938	82.8399	58.5938	82.6018	58.5938	82.9301	58.5938	82.6669	58.5938	83.0311	58.5938	82.7699	58.5938	83.1451	58.5938	82.9133	58.5938	83.276	58.5938	83.0974	58.5938	83.4279	58.5938	83.3198	58.5938	83.6049	58.5938	83.5748	58.5938	83.8086	58.5938	83.8534	58.5938	84.037	58.5938	84.1435	58.5938	84.2831	58.5938	84.4307	58.5938	84.5347	58.5938	84.6988	58.5938	84.7752	58.5938	84.9316	58.5938	84.986	58.5938	85.1136	58.5938	85.1491	58.5938	85.2321	58.5938	85.2498	58.5938	85.2785
60.0586	82.9529	60.0586	82.9136	60.0586	83.0089	60.0586	82.8942	60.0586	83.0789	60.0586	82.8984	60.0586	83.1612	60.0586	82.9302	60.0586	83.2551	60.0586	82.9935	60.0586	83.3609	60.0586	83.0915	60.0586	83.4801	60.0586	83.2264	60.0586	83.6151	60.0586	83.3984	60.0586	83.7687	60.0586	83.6056	60.0586	83.9433	60.0586	83.8431	60.0586	84.1395	60.0586	84.1033	60.0586	84.355	60.0586	84.3754	60.0586	84.5835	60.0586	84.6461	60.0586	84.8141	60.0586	84.9008	60.0586	85.0323	60.0586	85.1238	60.0586	85.2216	60.0586	85.3005	60.0586	85.3658	60.0586	85.4187	60.0586	85.4515	60.0586	85.4701
62.9883	83.1587	62.9883	83.1235	62.9883	83.2125	62.9883	83.1087	62.9883	83.2831	62.9883	83.1162	62.9883	83.3692	62.9883	83.1484	62.9883	83.4696	62.9883	83.2073	62.9883	83.5834	62.9883	83.2949	62.9883	83.7101	62.9883	83.4124	62.9883	83.8497	62.9883	83.5601	62.9883	84.0022	62.9883	83.7369	62.9883	84.1675	62.9883	83.9395	62.9883	84.3447	62.9883	84.1623	62.9883	84.5314	62.9883	84.3973	62.9883	84.7226	62.9883	84.6339	62.9883	84.9106	62.9883	84.8595	62.9883	85.0846	62.9883	85.0609	62.9883	85.232	62.9883	85.2247	62.9883	85.3402	62.9883	85.34	62.9883	85.3981	62.9883	85.3988
64.4531	83.1154	64.4531	83.0818	64.4531	83.1685	64.4531	83.069	64.4531	83.2399	64.4531	83.0782	64.4531	83.3282	64.4531	83.1109	64.4531	83.432	64.4531	83.1685	64.4531	83.5501	64.4531	83.2522	64.4531	83.6809	64.4531	83.3629	64.4531	83.8234	64.4531	83.5009	64.4531	83.9764	64.4531	83.6652	64.4531	84.1387	64.4531	83.8532	64.4531	84.3087	64.4531	84.0602	64.4531	84.4838	64.4531	84.2792	64.4531	84.6595	64.4531	84.5007	64.4531	84.8291	64.4531	84.7136	64.4531	84.9836	64.4531	84.9053	64.4531	85.1121	64.4531	85.0636	64.4531	85.2036	64.4531	85.1778	64.4531	85.2485	64.4531	85.2405
67.3828	82.9647	67.3828	82.9356	67.3828	83.0142	67.3828	82.9271	67.3828	83.0835	67.3828	82.9396	67.3828	83.1715	67.3828	82.973	67.3828	83.2766	67.3828	83.0278	67.3828	83.3969	67.3828	83.1042	67.3828	83.5298	67.3828	83.2023	67.3828	83.6725	67.3828	83.3221	67.3828	83.8221	67.3828	83.4629	67.3828	83.9756	67.3828	83.6228	67.3828	84.1301	67.3828	83.7987	67.3828	84.2827	67.3828	83.9854	67.3828	84.4295	67.3828	84.1758	67.3828	84.5658	67.3828	84.3609	67.3828	84.6853	67.3828	84.5302	67.3828	84.7805	67.3828	84.6734	67.3828	84.8435	67.3828	84.7811	67.3828	84.8671	67.3828	84.8467
68.8477	82.9133	68.8477	82.8858	68.8477	82.9617	68.8477	82.8791	68.8477	83.0307	68.8477	82.8927	68.8477	83.1192	68.8477	82.9264	68.8477	83.2255	68.8477	82.9797	68.8477	83.3471	68.8477	83.0525	68.8477	83.4809	68.8477	83.1445	68.8477	83.6232	68.8477	83.2555	68.8477	83.7703	68.8477	83.3848	68.8477	83.9186	68.8477	83.5312	68.8477	84.0648	68.8477	83.6921	68.8477	84.2058	68.8477	83.8633	68.8477	84.3382	68.8477	84.0386	68.8477	84.4582	68.8477	84.2101	68.8477	84.5609	68.8477	84.3687	68.8477	84.6401	68.8477	84.5046	68.8477	84.6894	68.8477	84.6092	68.8477	84.7028	68.8477	84.6763
71.7773	82.8631	71.7773	82.8383	71.7773	82.9094	71.7773	82.834	71.7773	82.9771	71.7773	82.8491	71.7773	83.0654	71.7773	82.8823	71.7773	83.1722	71.7773	82.9322	71.7773	83.2945	71.7773	82.9978	71.7773	83.428	71.7773	83.0783	71.7773	83.5681	71.7773	83.1731	71.7773	83.7096	71.7773	83.2816	71.7773	83.8479	71.7773	83.4031	71.7773	83.9788	71.7773	83.5361	71.7773	84.0988	71.7773	83.6778	71.7773	84.2052	71.7773	83.8243	71.7773	84.2955	71.7773	83.9697	71.7773	84.3669	71.7773	84.1069	71.7773	84.4163	71.7773	84.2282	71.7773	84.4397	71.7773	84.3264	71.7773	84.4336	71.7773	84.3958
74.707	82.8645	74.707	82.8436	74.707	82.9072	74.707	82.8432	74.707	82.9721	74.707	82.8615	74.707	83.0583	74.707	82.8963	74.707	83.1637	74.707	82.9453	74.707	83.2847	74.707	83.0068	74.707	83.4167	74.707	83.0791	74.707	83.5542	74.707	83.1613	74.707	83.6912	74.707	83.2528	74.707	83.8222	74.707	83.3533	74.707	83.942	74.707	83.4622	74.707	84.0469	74.707	83.5784	74.707	84.1343	74.707	83.6995	74.707	84.2025	74.707	83.8218	74.707	84.2503	74.707	83.9401	74.707	84.2766	74.707	84.0483	74.707	84.2797	74.707	84.1405	74.707	84.2583	74.707	84.2115
77.6367	82.8386	77.6367	82.8199	77.6367	82.8803	77.6367	82.8222	77.6367	82.9456	77.6367	82.843	77.6367	83.0341	77.6367	82.8791	77.6367	83.1434	77.6367	82.9277	77.6367	83.2695	77.6367	82.9861	77.6367	83.4071	77.6367	83.0523	77.6367	83.5496	77.6367	83.1249	77.6367	83.6899	77.6367	83.2035	77.6367	83.8212	77.6367	83.2879	77.6367	83.9372	77.6367	83.3784	77.6367	84.0333	77.6367	83.4752	77.6367	84.1068	77.6367	83.5775	77.6367	84.1563	77.6367	83.6833	77.6367	84.182	77.6367	83.7894	77.6367	84.1846	77.6367	83.8913	77.6367	84.1649	77.6367	83.9839	77.6367	84.1237	77.6367	84.0626
79.1016	82.8451	79.1016	82.8277	79.1016	82.8856	79.1016	82.8313	79.1016	82.9502	79.1016	82.8527	79.1016	83.0383	79.1016	82.8888	79.1016	83.1477	79.1016	82.9362	79.1016	83.2743	79.1016	82.992	79.1016	83.4122	79.1016	83.0539	79.1016	83.5546	79.1016	83.1206	79.1016	83.694	79.1016	83.1913	79.1016	83.8228	79.1016	83.2663	79.1016	83.9347	79.1016	83.3463	79.1016	84.0246	79.1016	83.4319	79.1016	84.0897	79.1016	83.5232	79.1016	84.1291	79.1016	83.6191	79.1016	84.1434	79.1016	83.7175	79.1016	84.1343	79.1016	83.8145	79.1016	84.1037	79.1016	83.9057	79.1016	84.0538	79.1016	83.9868
82.0312	82.894	82.0312	82.8795	82.0312	82.932	82.0312	82.8858	82.0312	82.9948	82.0312	82.9091	82.0312	83.0821	82.0312	82.9456	82.0312	83.1917	82.0312	82.9915	82.0312	83.3193	82.0312	83.0432	82.0312	83.4586	82.0312	83.0982	82.0312	83.602	82.0312	83.1547	82.0312	83.7409	82.0312	83.2121	82.0312	83.8669	82.0312	83.2708	82.0312	83.9727	82.0312	83.3321	82.0312	84.0528	82.0312	83.3977	82.0312	84.1039	82.0312	83.4691	82.0312	84.1255	82.0312	83.547	82.0312	84.1194	82.0312	83.631	82.0312	84.0889	82.0312	83.7189	82.0312	84.0382	82.0312	83.8077	82.0312	83.9715	82.0312	83.8933
84.9609	82.9835	84.9609	82.9672	84.9609	83.0217	84.9609	82.9702	84.9609	83.0832	84.9609	82.9888	84.9609	83.1674	84.9609	83.0188	84.9609	83.272	84.9609	83.056	84.9609	83.3926	84.9609	83.0967	84.9609	83.5227	84.9609	83.1377	84.9609	83.6546	84.9609	83.1771	84.9609	83.7797	84.9609	83.2143	84.9609	83.8894	84.9609	83.25	84.9609	83.9762	84.9609	83.286	84.9609	84.0346	84.9609	83.325	84.9609	84.0616	84.9609	83.37	84.9609	84.0575	84.9609	83.4235	84.9609	84.0252	84.9609	83.4869	84.9609	83.9699	84.9609	83.5601	84.9609	83.8977	84.9609	83.6415	84.9609	83.815	84.9609	83.7279
87.8906	82.9952	87.8906	82.9841	87.8906	83.0306	87.8906	82.9943	87.8906	83.0921	87.8906	83.0217	87.8906	83.1795	87.8906	83.0616	87.8906	83.2907	87.8906	83.1093	87.8906	83.4214	87.8906	83.1605	87.8906	83.5652	87.8906	83.2116	87.8906	83.7138	87.8906	83.2604	87.8906	83.8577	87.8906	83.3057	87.8906	83.9872	87.8906	83.348	87.8906	84.0933	87.8906	83.389	87.8906	84.1687	87.8906	83.4318	87.8906	84.2093	87.8906	83.4797	87.8906	84.214	87.8906	83.536	87.8906	84.1853	87.8906	83.603	87.8906	84.1286	87.8906	83.6812	87.8906	84.051	87.8906	83.7695	87.8906	83.9603	87.8906	83.8642
90.8203	83.0867	90.8203	83.0803	90.8203	83.1188	90.8203	83.0962	90.8203	83.1783	90.8203	83.1297	90.8203	83.2654	90.8203	83.1758	90.8203	83.3779	90.8203	83.229	90.8203	83.5113	90.8203	83.2842	90.8203	83.6588	90.8203	83.3372	90.8203	83.8115	90.8203	83.3849	90.8203	83.9592	90.8203	83.4257	90.8203	84.0911	90.8203	83.4597	90.8203	84.1972	90.8203	83.4888	90.8203	84.2696	90.8203	83.5167	90.8203	84.3033	90.8203	83.5478	90.8203	84.2975	90.8203	83.5872	90.8203	84.2553	90.8203	83.6391	90.8203	84.1833	90.8203	83.7063	90.8203	84.0909	90.8203	83.7891	90.8203	83.9881	90.8203	83.8849
95.2148	83.3033	95.2148	83.3083	95.2148	83.3197	95.2148	83.3307	95.2148	83.3603	95.2148	83.3656	95.2148	83.4266	95.2148	83.4078	95.2148	83.5178	95.2148	83.4518	95.2148	83.6311	95.2148	83.4928	95.2148	83.7607	95.2148	83.5264	95.2148	83.8983	95.2148	83.5499	95.2148	84.0333	95.2148	83.5619	95.2148	84.154	95.2148	83.5632	95.2148	84.2489	95.2148	83.5566	95.2148	84.3084	95.2148	83.5471	95.2148	84.3263	95.2148	83.5414	95.2148	84.3009	95.2148	83.5468	95.2148	84.2358	95.2148	83.5705	95.2148	84.1394	95.2148	83.6178	95.2148	84.0236	95.2148	83.6908	95.2148	83.9021	95.2148	83.7877
98.1445	83.4569	98.1445	83.4666	98.1445	83.4671	98.1445	83.4922	98.1445	83.4999	98.1445	83.5291	98.1445	83.5567	98.1445	83.572	98.1445	83.6373	98.1445	83.6153	98.1445	83.7389	98.1445	83.654	98.1445	83.8563	98.1445	83.6836	98.1445	83.9816	98.1445	83.7008	98.1445	84.1044	98.1445	83.704	98.1445	84.2133	98.1445	83.6938	98.1445	84.2969	98.1445	83.6731	98.1445	84.3455	98.1445	83.6471	98.1445	84.353	98.1445	83.6229	98.1445	84.318	98.1445	83.6091	98.1445	84.2444	98.1445	83.6139	98.1445	84.1415	98.1445	83.6442	98.1445	84.0221	98.1445	83.7036	98.1445	83.9007	98.1445	83.791
101.074	83.6816	101.074	83.6965	101.074	83.682	101.074	83.7228	101.074	83.701	101.074	83.7562	101.074	83.7406	101.074	83.7918	101.074	83.8013	101.074	83.8248	101.074	83.8815	101.074	83.8504	101.074	83.9767	101.074	83.8645	101.074	84.0799	101.074	83.8642	101.074	84.1813	101.074	83.8482	101.074	84.2697	101.074	83.8171	101.074	84.3339	101.074	83.774	101.074	84.3643	101.074	83.7243	101.074	84.3549	101.074	83.6759	101.074	84.3046	101.074	83.638	101.074	84.218	101.074	83.6202	101.074	84.105	101.074	83.6308	101.074	83.9795	101.074	83.6746	101.074	83.857	101.074	83.7518
105.469	83.6823	105.469	83.7094	105.469	83.6827	105.469	83.7592	105.469	83.714	105.469	83.8251	105.469	83.7767	105.469	83.9	105.469	83.8687	105.469	83.9763	105.469	83.9847	105.469	84.0463	105.469	84.1162	105.469	84.1033	105.469	84.2523	105.469	84.1417	105.469	84.3806	105.469	84.158	105.469	84.4882	105.469	84.1511	105.469	84.5639	105.469	84.1228	105.469	84.599	105.469	84.0782	105.469	84.5893	105.469	84.0255	105.469	84.5361	105.469	83.9751	105.469	84.4464	105.469	83.9388	105.469	84.3327	105.469	83.9274	105.469	84.2107	105.469	83.9491	105.469	84.0972	105.469	84.0068
108.398	83.9805	108.398	83.9953	108.398	83.9952	108.398	84.0352	108.398	84.0412	108.398	84.0938	108.398	84.1176	108.398	84.163	108.398	84.2206	108.398	84.2345	108.398	84.3436	108.398	84.2998	108.398	84.478	108.398	84.3515	108.398	84.6129	108.398	84.3838	108.398	84.7366	108.398	84.3928	108.398	84.8369	108.398	84.3779	108.398	84.9028	108.398	84.3411	108.398	84.9259	108.398	84.2882	108.398	84.9019	108.398	84.2279	108.398	84.8324	108.398	84.1718	108.398	84.7247	108.398	84.1324	108.398	84.592	108.398	84.1219	108.398	84.4513	108.398	84.1488	108.398	84.3208	108.398	84.2164
112.793	84.346	112.793	84.3478	112.793	84.3681	112.793	84.3699	112.793	84.4152	112.793	84.4071	112.793	84.4866	112.793	84.4529	112.793	84.5796	112.793	84.4997	112.793	84.6889	112.793	84.5399	112.793	84.8074	112.793	84.5666	112.793	84.9257	112.793	84.574	112.793	85.0327	112.793	84.5588	112.793	85.1164	112.793	84.5204	112.793	85.1656	112.793	84.4612	112.793	85.1709	112.793	84.3878	112.793	85.1275	112.793	84.3098	112.793	85.036	112.793	84.2401	112.793	84.904	112.793	84.1929	112.793	84.745	112.793	84.1815	112.793	84.5777	112.793	84.2152	112.793	84.4223	112.793	84.2972
117.188	84.4894	117.188	84.4942	117.188	84.504	117.188	84.5148	117.188	84.5403	117.188	84.5466	117.188	84.5988	117.188	84.5838	117.188	84.6789	117.188	84.62	117.188	84.7775	117.188	84.6488	117.188	84.8892	117.188	84.6641	117.188	85.0056	117.188	84.6613	117.188	85.1159	117.188	84.6377	117.188	85.2078	117.188	84.5934	117.188	85.2687	117.188	84.5317	117.188	85.288	117.188	84.4593	117.188	85.2589	117.188	84.3865	117.188	85.1805	117.188	84.326	117.188	85.0584	117.188	84.2915	117.188	84.905	117.188	84.2951	117.188	84.7377	117.188	84.3446	117.188	84.5766	117.188	84.4408
120.117	84.631	120.117	84.6311	120.117	84.6514	120.117	84.6485	120.117	84.6938	120.117	84.6785	120.117	84.7582	120.117	84.7153	120.117	84.8429	120.117	84.7518	120.117	84.9439	120.117	84.7808	120.117	85.0555	120.117	84.7956	120.117	85.1689	120.117	84.7908	120.117	85.2733	120.117	84.7631	120.117	85.3566	120.117	84.7125	120.117	85.4065	120.117	84.6421	120.117	85.4129	120.117	84.5591	120.117	85.3696	120.117	84.4743	120.117	85.2763	120.117	84.4014	120.117	85.1396	120.117	84.3553	120.117	84.9728	120.117	84.3495	120.117	84.7947	120.117	84.393	120.117	84.6264	120.117	84.4876
124.512	84.9324	124.512	84.9235	124.512	84.9579	124.512	84.9287	124.512	85.0005	124.512	84.9438	124.512	85.0595	124.512	84.9628	124.512	85.1327	124.512	84.9788	124.512	85.2166	124.512	84.9841	124.512	85.3058	124.512	84.9721	124.512	85.3927	124.512	84.9373	124.512	85.4676	124.512	84.8769	124.512	85.5191	124.512	84.7913	124.512	85.5355	124.512	84.6848	124.512	85.5069	124.512	84.5656	124.512	85.4275	124.512	84.4461	124.512	85.2976	124.512	84.3419	124.512	85.125	124.512	84.2699	124.512	84.9248	124.512	84.2459	124.512	84.7179	124.512	84.2806	124.512	84.528	124.512	84.3769
128.906	85.0874	128.906	85.0781	128.906	85.1092	128.906	85.0786	128.906	85.1452	128.906	85.0851	128.906	85.1957	128.906	85.0924	128.906	85.2602	128.906	85.0941	128.906	85.3365	128.906	85.0838	128.906	85.4199	128.906	85.0554	128.906	85.5032	128.906	85.0039	128.906	85.5759	128.906	84.9268	128.906	85.6255	128.906	84.8246	128.906	85.6388	128.906	84.7017	128.906	85.6045	128.906	84.5667	128.906	85.5154	128.906	84.4326	128.906	85.3714	128.906	84.316	128.906	85.1804	128.906	84.2353	128.906	84.9588	128.906	84.2077	128.906	84.7296	128.906	84.2454	128.906	84.519	128.906	84.3517
133.301	85.0378	133.301	85.0306	133.301	85.0587	133.301	85.0344	133.301	85.0947	133.301	85.0454	133.301	85.1469	133.301	85.0587	133.301	85.2153	133.301	85.0684	133.301	85.298	133.301	85.0677	133.301	85.391	133.301	85.0504	133.301	85.4872	133.301	85.0111	133.301	85.5757	133.301	84.9469	133.301	85.6434	133.301	84.8576	133.301	85.6761	133.301	84.7472	133.301	85.661	133.301	84.6239	133.301	85.5899	133.301	84.5007	133.301	85.4613	133.301	84.3941	133.301	85.2823	133.301	84.3227	133.301	85.0686	133.301	84.3037	133.301	84.843	133.301	84.349	133.301	84.6322	133.301	84.4613
139.16	84.964	139.16	84.9553	139.16	84.9924	139.16	84.9641	139.16	85.0413	139.16	84.9867	139.16	85.1102	139.16	85.0178	139.16	85.1976	139.16	85.0504	139.16	85.3008	139.16	85.0767	139.16	85.4145	139.16	85.0889	139.16	85.5311	139.16	85.0801	139.16	85.6395	139.16	85.0456	139.16	85.7259	139.16	84.9838	139.16	85.7755	139.16	84.8971	139.16	85.7752	139.16	84.7929	139.16	85.7164	139.16	84.6832	139.16	85.598	139.16	84.5844	139.16	85.4273	139.16	84.5153	139.16	85.2211	139.16	84.4939	139.16	85.0031	139.16	84.5333	139.16	84.8003	139.16	84.6377
143.555	85.1289	143.555	85.1022	143.555	85.1707	143.555	85.0906	143.555	85.2259	143.555	85.0924	143.555	85.2923	143.555	85.1033	143.555	85.3679	143.555	85.1168	143.555	85.4504	143.555	85.1252	143.555	85.537	143.555	85.1203	143.555	85.6227	143.555	85.0951	143.555	85.6999	143.555	85.0448	143.555	85.7573	143.555	84.9682	143.555	85.782	143.555	84.8681	143.555	85.7614	143.555	84.7525	143.555	85.6869	143.555	84.634	143.555	85.5568	143.555	84.529	143.555	85.3779	143.555	84.4562	143.555	85.1663	143.555	84.4331	143.555	84.945	143.555	84.4721	143.555	84.7403	143.555	84.5769
147.949	85.3584	147.949	85.3249	147.949	85.3994	147.949	85.2994	147.949	85.4464	147.949	85.2806	147.949	85.4977	147.949	85.2647	147.949	85.5522	147.949	85.2464	147.949	85.6087	147.949	85.2187	147.949	85.6661	147.949	85.1748	147.949	85.721	147.949	85.1089	147.949	85.7667	147.949	85.0176	147.949	85.7931	147.949	84.9012	147.949	85.7876	147.949	84.7643	147.949	85.7381	147.949	84.6164	147.949	85.6358	147.949	84.4714	147.949	85.4788	147.949	84.3472	147.949	85.2743	147.949	84.2628	147.949	85.0384	147.949	84.2359	147.949	84.795	147.949	84.2783	147.949	84.5714	147.949	84.3929
153.809	85.3989	153.809	85.3554	153.809	85.4441	153.809	85.3153	153.809	85.4888	153.809	85.2788	153.809	85.5317	153.809	85.2438	153.809	85.5726	153.809	85.2062	153.809	85.6124	153.809	85.16	153.809	85.6514	153.809	85.0988	153.809	85.6879	153.809	85.0169	153.809	85.7163	153.809	84.9109	153.809	85.7266	153.809	84.7808	153.809	85.7061	153.809	84.631	153.809	85.642	153.809	84.4706	153.809	85.525	153.809	84.314	153.809	85.353	153.809	84.1793	153.809	85.1334	153.809	84.0863	153.809	84.8832	153.809	84.0534	153.809	84.6272	153.809	84.0934	153.809	84.3938	153.809	84.2096
159.668	85.3196	159.668	85.2686	159.668	85.3727	159.668	85.2204	159.668	85.4277	159.668	85.1753	159.668	85.4855	159.668	85.1318	159.668	85.5481	159.668	85.0868	159.668	85.6172	159.668	85.0353	159.668	85.6926	159.668	84.9719	159.668	85.7698	159.668	84.8915	159.668	85.8392	159.668	84.7912	159.668	85.8868	159.668	84.6713	159.668	85.896	159.668	84.5365	159.668	85.8515	159.668	84.3961	159.668	85.7435	159.668	84.2643	159.668	85.5702	159.668	84.1584	159.668	85.3405	159.668	84.0974	159.668	85.0731	159.668	84.0982	159.668	84.7945	159.668	84.1718	159.668	84.5345	159.668	84.3203
165.527	85.4335	165.527	85.377	165.527	85.4949	165.527	85.3266	165.527	85.5605	165.527	85.2824	165.527	85.6297	165.527	85.2428	165.527	85.7032	165.527	85.204	165.527	85.7814	165.527	85.1606	165.527	85.8636	165.527	85.1066	165.527	85.9453	165.527	85.036	165.527	86.0172	165.527	84.9453	165.527	86.0655	165.527	84.8339	165.527	86.0737	165.527	84.7058	165.527	86.0265	165.527	84.5699	165.527	85.9138	165.527	84.4399	165.527	85.7347	165.527	84.3333	165.527	85.499	165.527	84.2692	165.527	85.2268	165.527	84.265	165.527	84.9459	165.527	84.3328	165.527	84.6866	165.527	84.476
171.387	85.3634	171.387	85.3033	171.387	85.4192	171.387	85.2416	171.387	85.4687	171.387	85.1804	171.387	85.5119	171.387	85.1203	171.387	85.5515	171.387	85.0594	171.387	85.5921	171.387	84.9937	171.387	85.6378	171.387	84.9181	171.387	85.6896	171.387	84.828	171.387	85.7424	171.387	84.721	171.387	85.7841	171.387	84.5978	171.387	85.7974	171.387	84.4637	171.387	85.7643	171.387	84.3286	171.387	85.671	171.387	84.2062	171.387	85.5128	171.387	84.1129	171.387	85.2966	171.387	84.0651	171.387	85.0405	171.387	84.077	171.387	84.7712	171.387	84.1573	171.387	84.518	171.387	84.3072
177.246	85.1882	177.246	85.1284	177.246	85.2523	177.246	85.0764	177.246	85.3173	177.246	85.0343	177.246	85.3814	177.246	85.0011	177.246	85.4453	177.246	84.9721	177.246	85.5115	177.246	84.9395	177.246	85.5823	177.246	84.8943	177.246	85.657	177.246	84.8282	177.246	85.7291	177.246	84.7356	177.246	85.7858	177.246	84.6163	177.246	85.8094	177.246	84.476	177.246	85.7817	177.246	84.3267	177.246	85.6892	177.246	84.186	177.246	85.5275	177.246	84.0747	177.246	85.3036	177.246	84.0135	177.246	85.0364	177.246	84.0195	177.246	84.7532	177.246	84.1021	177.246	84.4852	177.246	84.261
183.105	85.4005	183.105	85.2968	183.105	85.492	183.105	85.1876	183.105	85.5659	183.105	85.0801	183.105	85.6195	183.105	84.9792	183.105	85.6538	183.105	84.887	183.105	85.6721	183.105	84.802	183.105	85.6796	183.105	84.7197	183.105	85.68	183.105	84.6345	183.105	85.6736	183.105	84.5417	183.105	85.6555	183.105	84.4393	183.105	85.6158	183.105	84.3296	183.105	85.543	183.105	84.2197	183.105	85.4275	183.105	84.1208	183.105	85.2664	183.105	84.0466	183.105	85.0655	183.105	84.0106	183.105	84.8394	183.105	84.0241	183.105	84.6086	183.105	84.0934	183.105	84.3955	183.105	84.2193
188.965	85.4142	188.965	85.3424	188.965	85.4712	188.965	85.2613	188.965	85.5092	188.965	85.1753	188.965	85.5265	188.965	85.0865	188.965	85.5256	188.965	84.9938	188.965	85.5122	188.965	84.8939	188.965	85.4943	188.965	84.7817	188.965	85.4776	188.965	84.6532	188.965	85.4627	188.965	84.5068	188.965	85.4427	188.965	84.3451	188.965	85.4043	188.965	84.1758	188.965	85.3317	188.965	84.0116	188.965	85.2128	188.965	83.868	188.965	85.0431	188.965	83.7617	188.965	84.8289	188.965	83.707	188.965	84.5866	188.965	83.7136	188.965	84.3388	188.965	83.7854	188.965	84.1097	188.965	83.9203
196.289	85.409	196.289	85.334	196.289	85.4702	196.289	85.251	196.289	85.5127	196.289	85.165	196.289	85.5345	196.289	85.0779	196.289	85.5382	196.289	84.9882	196.289	85.53	196.289	84.891	196.289	85.5174	196.289	84.7804	196.289	85.506	196.289	84.6507	196.289	85.495	196.289	84.4996	196.289	85.4761	196.289	84.3292	196.289	85.4344	196.289	84.1474	196.289	85.3534	196.289	83.9677	196.289	85.2208	196.289	83.8075	196.289	85.0334	196.289	83.6856	196.289	84.7991	196.289	83.6186	196.289	84.5365	196.289	83.6178	196.289	84.2703	196.289	83.688	196.289	84.0264	196.289	83.8271
203.613	85.4076	203.613	85.3195	203.613	85.4726	203.613	85.2148	203.613	85.5099	203.613	85.0999	203.613	85.518	203.613	84.9792	203.613	85.4993	203.613	84.8547	203.613	85.4595	203.613	84.7252	203.613	85.4068	203.613	84.5878	203.613	85.3483	203.613	84.4395	203.613	85.2871	203.613	84.2793	203.613	85.2203	203.613	84.1098	203.613	85.1388	203.613	83.9378	203.613	85.031	203.613	83.7746	203.613	84.8876	203.613	83.6338	203.613	84.7061	203.613	83.5298	203.613	84.4927	203.613	83.4747	203.613	84.2618	203.613	83.4763	203.613	84.0326	203.613	83.5375	203.613	83.8251	203.613	83.6561
210.938	85.3546	210.938	85.2466	210.938	85.4394	210.938	85.1234	210.938	85.4934	210.938	84.9916	210.938	85.5117	210.938	84.8545	210.938	85.4937	210.938	84.7121	210.938	85.4444	210.938	84.5613	210.938	85.3727	210.938	84.3979	210.938	85.2887	210.938	84.2191	210.938	85.1982	210.938	84.0257	210.938	85.0999	210.938	83.8236	210.938	84.9851	210.938	83.6243	210.938	84.8421	210.938	83.443	210.938	84.6624	210.938	83.2959	210.938	84.4462	210.938	83.1962	210.938	84.2043	210.938	83.1517	210.938	83.9551	210.938	83.1641	210.938	83.7192	210.938	83.231	210.938	83.5135	210.938	83.3488
218.262	85.0955	218.262	84.9977	218.262	85.1678	218.262	84.8832	218.262	85.2078	218.262	84.7597	218.262	85.2137	218.262	84.6315	218.262	85.1894	218.262	84.4986	218.262	85.1445	218.262	84.3572	218.262	85.0902	218.262	84.2018	218.262	85.0347	218.262	84.0277	218.262	84.9791	218.262	83.8345	218.262	84.9158	218.262	83.6274	218.262	84.8314	218.262	83.4183	218.262	84.712	218.262	83.2251	218.262	84.5493	218.262	83.0679	218.262	84.3443	218.262	82.965	218.262	84.1076	218.262	82.9277	218.262	83.8567	218.262	82.9579	218.262	83.6108	218.262	83.0504	218.262	83.3864	218.262	83.1964
225.586	84.9658	225.586	84.8516	225.586	85.0452	225.586	84.7117	225.586	85.0844	225.586	84.5563	225.586	85.0842	225.586	84.3947	225.586	85.052	225.586	84.2329	225.586	85.0015	225.586	84.0732	225.586	84.9487	225.586	83.915	225.586	84.9061	225.586	83.7565	225.586	84.8764	225.586	83.597	225.586	84.8494	225.586	83.4385	225.586	84.8045	225.586	83.2875	225.586	84.719	225.586	83.1543	225.586	84.5782	225.586	83.0519	225.586	84.3815	225.586	82.9921	225.586	84.1437	225.586	82.9823	225.586	83.8895	225.586	83.0241	225.586	83.6448	225.586	83.1147	225.586	83.4285	225.586	83.2505
232.91	85.106	232.91	84.9779	232.91	85.1965	232.91	84.823	232.91	85.2422	232.91	84.6533	232.91	85.2416	232.91	84.4787	232.91	85.1998	232.91	84.3055	232.91	85.1272	232.91	84.1352	232.91	85.0369	232.91	83.9655	232.91	84.9412	232.91	83.7923	232.91	84.8461	232.91	83.6123	232.91	84.7486	232.91	83.4255	232.91	84.6377	232.91	83.2376	232.91	84.4995	232.91	83.0605	232.91	84.3249	232.91	82.9115	232.91	84.1148	232.91	82.8092	232.91	83.8807	232.91	82.7679	232.91	83.6393	232.91	82.793	232.91	83.4073	232.91	82.88	232.91	83.1973	232.91	83.0184
241.699	85.028	241.699	84.853	241.699	85.1586	241.699	84.6462	241.699	85.2349	241.699	84.4212	241.699	85.2524	241.699	84.1892	241.699	85.2125	241.699	83.958	241.699	85.1226	241.699	83.7318	241.699	84.9944	241.699	83.5127	241.699	84.8411	241.699	83.3032	241.699	84.6729	241.699	83.1075	241.699	84.4928	241.699	82.932	241.699	84.2968	241.699	82.7835	241.699	84.0781	241.699	82.6675	241.699	83.8341	241.699	82.5863	241.699	83.5727	241.699	82.5393	241.699	83.3123	241.699	82.5235	241.699	83.0764	241.699	82.5353	241.699	82.883	241.699	82.5728	241.699	82.7386	241.699	82.6383
250.488	85.2738	250.488	85.0459	250.488	85.4428	250.488	84.7697	250.488	85.5447	250.488	84.4557	250.488	85.5752	250.488	84.1127	250.488	85.5362	250.488	83.7466	250.488	85.436	250.488	83.3623	250.488	85.288	250.488	82.9657	250.488	85.1062	250.488	82.5686	250.488	84.8992	250.488	82.1905	250.488	84.6661	250.488	81.8581	250.488	84.3973	250.488	81.5999	250.488	84.0829	250.488	81.4368	250.488	83.7226	250.488	81.3739	250.488	83.3338	250.488	81.3989	250.488	82.9492	250.488	81.4877	250.488	82.6043	250.488	81.614	250.488	82.3207	250.488	81.7587	250.488	82.0973	250.488	81.9166
259.277	84.9038	259.277	84.72	259.277	85.0297	259.277	84.485	259.277	85.0984	259.277	84.2111	259.277	85.1173	259.277	83.9137	259.277	85.0983	259.277	83.607	259.277	85.054	259.277	83.3009	259.277	84.9938	259.277	82.9999	259.277	84.9194	259.277	82.7049	259.277	84.8229	259.277	82.417	259.277	84.6868	259.277	82.1419	259.277	84.4898	259.277	81.8925	259.277	84.2151	259.277	81.6881	259.277	83.8605	259.277	81.549	259.277	83.4457	259.277	81.4872	259.277	83.0125	259.277	81.5007	259.277	82.6115	259.277	81.5743	259.277	82.2803	259.277	81.6897	259.277	82.0279	259.277	81.8381
268.066	84.7503	268.066	84.503	268.066	84.9405	268.066	84.2086	268.066	85.0661	268.066	83.8776	268.066	85.1233	268.066	83.52	268.066	85.115	268.066	83.146	268.066	85.051	268.066	82.7667	268.066	84.9473	268.066	82.3959	268.066	84.8202	268.066	82.0505	268.066	84.6784	268.066	81.7484	268.066	84.5173	268.066	81.5053	268.066	84.3192	268.066	81.3302	268.066	84.0623	268.066	81.2241	268.066	83.7329	268.066	81.1815	268.066	83.3366	268.066	81.1928	268.066	82.9025	268.066	81.2469	268.066	82.4774	268.066	81.3344	268.066	82.1076	268.066	81.4516	268.066	81.8184	268.066	81.6065
276.855	84.7467	276.855	84.5695	276.855	84.8613	276.855	84.3365	276.855	84.9102	276.855	84.055	276.855	84.897	276.855	83.7307	276.855	84.833	276.855	83.3665	276.855	84.7374	276.855	82.9642	276.855	84.6331	276.855	82.5287	276.855	84.5387	276.855	82.074	276.855	84.4585	276.855	81.6281	276.855	84.3772	276.855	81.2338	276.855	84.2632	276.855	80.9381	276.855	84.082	276.855	80.7736	276.855	83.8108	276.855	80.7421	276.855	83.4507	276.855	80.8164	276.855	83.0298	276.855	80.9578	276.855	82.5943	276.855	81.1357	276.855	82.1913	276.855	81.3376	276.855	81.849	276.855	81.5696
287.109	84.1709	287.109	84.046	287.109	84.2443	287.109	83.88	287.109	84.2647	287.109	83.6882	287.109	84.2405	287.109	83.4834	287.109	84.1869	287.109	83.2702	287.109	84.121	287.109	83.0411	287.109	84.0559	287.109	82.779	287.109	83.9975	287.109	82.4657	287.109	83.9444	287.109	82.0935	287.109	83.8896	287.109	81.6787	287.109	83.8223	287.109	81.2699	287.109	83.7286	287.109	80.944	287.109	83.5925	287.109	80.7782	287.109	83.4013	287.109	80.8071	287.109	83.1536	287.109	81.0014	287.109	82.8634	287.109	81.2919	287.109	82.554	287.109	81.6134	287.109	82.2429	287.109	81.9317
297.363	84.5184	297.363	84.4468	297.363	84.5173	297.363	84.3099	297.363	84.4406	297.363	84.1144	297.363	84.2951	297.363	83.8648	297.363	84.1035	297.363	83.5639	297.363	83.9037	297.363	83.2154	297.363	83.7373	297.363	82.8262	297.363	83.6286	297.363	82.4082	297.363	83.5666	297.363	81.9778	297.363	83.5097	297.363	81.5547	297.363	83.4098	297.363	81.1629	297.363	83.2379	297.363	80.8325	297.363	82.9946	297.363	80.5987	297.363	82.7041	297.363	80.4934	297.363	82.396	297.363	80.5282	297.363	82.0892	297.363	80.6844	297.363	81.7887	297.363	80.9219	297.363	81.4922	297.363	81.1999
307.617	84.2126	307.617	84.0818	307.617	84.2888	307.617	83.9238	307.617	84.2827	307.617	83.756	307.617	84.1775	307.617	83.5793	307.617	83.9771	307.617	83.3789	307.617	83.7124	307.617	83.1313	307.617	83.4401	307.617	82.8156	307.617	83.2245	307.617	82.4235	307.617	83.1047	307.617	81.9662	307.617	83.0655	307.617	81.4756	307.617	83.0424	307.617	81.0003	307.617	82.9589	307.617	80.5946	307.617	82.7657	307.617	80.3053	307.617	82.4597	307.617	80.1587	307.617	82.08	307.617	80.1545	307.617	81.6842	307.617	80.2683	307.617	81.3175	307.617	80.4645	307.617	80.9949	307.617	80.7115
319.336	84.0966	319.336	83.8645	319.336	84.2393	319.336	83.5714	319.336	84.2731	319.336	83.248	319.336	84.191	319.336	82.919	319.336	84.0006	319.336	82.5966	319.336	83.7241	319.336	82.2817	319.336	83.3965	319.336	81.9701	319.336	83.0584	319.336	81.6615	319.336	82.745	319.336	81.3625	319.336	82.4767	319.336	81.0858	319.336	82.2585	319.336	80.845	319.336	82.0842	319.336	80.6517	319.336	81.9422	319.336	80.5164	319.336	81.8159	319.336	80.4508	319.336	81.6868	319.336	80.4659	319.336	81.5384	319.336	80.5641	319.336	81.3618	319.336	80.7315	319.336	81.1583	319.336	80.9401
329.59	84.0971	329.59	83.8058	329.59	84.2692	329.59	83.432	329.59	84.3012	329.59	83.0214	329.59	84.1944	329.59	82.6172	329.59	83.9767	329.59	82.248	329.59	83.7016	329.59	81.9176	329.59	83.4386	329.59	81.6078	329.59	83.2459	329.59	81.2938	329.59	83.1393	329.59	80.9648	329.59	83.0783	329.59	80.64	329.59	82.9906	329.59	80.3676	329.59	82.8169	329.59	80.2049	329.59	82.5437	329.59	80.183	329.59	82.2065	329.59	80.2868	329.59	81.8664	329.59	80.4662	329.59	81.5746	329.59	80.6671	329.59	81.3487	329.59	80.8542	329.59	81.1736	329.59	81.0184
341.309	84.9487	341.309	84.6942	341.309	85.0845	341.309	84.3376	341.309	85.0928	341.309	83.9031	341.309	84.9734	341.309	83.4209	341.309	84.7362	341.309	82.9246	341.309	84.4059	341.309	82.4464	341.309	84.0291	341.309	82.0112	341.309	83.6719	341.309	81.6321	341.309	83.3933	341.309	81.3099	341.309	83.2055	341.309	81.0387	341.309	83.0645	341.309	80.8171	341.309	82.9109	341.309	80.6586	341.309	82.7176	341.309	80.5934	341.309	82.5035	341.309	80.6525	341.309	82.3108	341.309	80.841	341.309	82.1636	341.309	81.1218	341.309	82.0433	341.309	81.4292	341.309	81.9026	341.309	81.7005
353.027	84.8691	353.027	84.6091	353.027	85.0089	353.027	84.2529	353.027	85.0113	353.027	83.8266	353.027	84.8688	353.027	83.3522	353.027	84.5851	353.027	82.8443	353.027	84.1794	353.027	82.3111	353.027	83.6917	353.027	81.7625	353.027	83.1843	353.027	81.2219	353.027	82.7272	353.027	80.734	353.027	82.3675	353.027	80.3578	353.027	82.1075	353.027	80.1429	353.027	81.9154	353.027	80.1029	353.027	81.7609	353.027	80.2116	353.027	81.6395	353.027	80.4229	353.027	81.5647	353.027	80.6899	353.027	81.5384	353.027	80.9685	353.027	81.5324	353.027	81.2165	353.027	81.4992	353.027	81.3985
366.211	84.8648	366.211	84.5952	366.211	85.0229	366.211	84.2411	366.211	85.0457	366.211	83.8276	366.211	84.9171	366.211	83.3722	366.211	84.6332	366.211	82.8821	366.211	84.2094	366.211	82.3552	366.211	83.6877	366.211	81.79	366.211	83.1391	366.211	81.1997	366.211	82.6503	366.211	80.6252	366.211	82.287	366.211	80.1356	366.211	82.0563	366.211	79.8052	366.211	81.9059	366.211	79.6752	366.211	81.7691	366.211	79.7302	366.211	81.612	366.211	79.9151	366.211	81.4438	366.211	80.1675	366.211	81.2916	366.211	80.4365	366.211	81.1641	366.211	80.6842	366.211	81.0402	366.211	80.8868
379.395	84.8811	379.395	84.6798	379.395	84.9977	379.395	84.4132	379.395	85.0142	379.395	84.0992	379.395	84.9233	379.395	83.7457	379.395	84.7267	379.395	83.347	379.395	84.4352	379.395	82.886	379.395	84.0681	379.395	82.3441	379.395	83.6494	379.395	81.7167	379.395	83.1988	379.395	81.0301	379.395	82.7237	379.395	80.355	379.395	82.2276	379.395	79.8051	379.395	81.737	379.395	79.5001	379.395	81.3244	379.395	79.4963	379.395	81.0837	379.395	79.748	379.395	81.0516	379.395	80.144	379.395	81.1585	379.395	80.5697	379.395	81.278	379.395	80.9387	379.395	81.3064	379.395	81.1942
392.578	84.2182	392.578	83.969	392.578	84.3758	392.578	83.6593	392.578	84.4171	392.578	83.3201	392.578	84.3265	392.578	82.9725	392.578	84.1013	392.578	82.6188	392.578	83.7588	392.578	82.2406	392.578	83.3422	392.578	81.8081	392.578	82.9151	392.578	81.2978	392.578	82.5321	392.578	80.7125	392.578	82.1997	392.578	80.1029	392.578	81.8667	392.578	79.5771	392.578	81.4678	392.578	79.272	392.578	80.9949	392.578	79.2705	392.578	80.5467	392.578	79.5355	392.578	80.2907	392.578	79.9394	392.578	80.3123	392.578	80.343	392.578	80.5138	392.578	80.641	392.578	80.7109	392.578	80.7694
405.762	84.4695	405.762	84.2543	405.762	84.5501	405.762	83.934	405.762	84.4796	405.762	83.5461	405.762	84.2567	405.762	83.1268	405.762	83.8974	405.762	82.6965	405.762	83.4393	405.762	82.2481	405.762	82.9447	405.762	81.7498	405.762	82.4914	405.762	81.1662	405.762	82.1432	405.762	80.4892	405.762	81.9085	405.762	79.7724	405.762	81.7248	405.762	79.1508	405.762	81.5006	405.762	78.8098	405.762	81.191	405.762	78.8682	405.762	80.8537	405.762	79.2695	405.762	80.6306	405.762	79.8309	405.762	80.6255	405.762	80.3706	405.762	80.785	405.762	80.7675	405.762	80.9446	405.762	80.9605
420.41	84.221	420.41	84.0126	420.41	84.3257	420.41	83.7335	420.41	84.3063	420.41	83.4191	420.41	84.1602	420.41	83.0946	420.41	83.9055	420.41	82.7633	420.41	83.5815	420.41	82.4053	420.41	83.2402	420.41	81.9866	420.41	82.9263	420.41	81.476	420.41	82.6487	420.41	80.8611	420.41	82.3654	420.41	80.1654	420.41	82.0033	420.41	79.4653	420.41	81.5118	420.41	78.9005	420.41	80.9251	420.41	78.641	420.41	80.3909	420.41	78.7778	420.41	80.1031	420.41	79.2256	420.41	80.1295	420.41	79.778	420.41	80.3337	420.41	80.239	420.41	80.5044	420.41	80.4914
435.059	84.0095	435.059	83.7201	435.059	84.1584	435.059	83.3324	435.059	84.1481	435.059	82.9051	435.059	83.9826	435.059	82.4966	435.059	83.6861	435.059	82.1399	435.059	83.3047	435.059	81.823	435.059	82.9058	435.059	81.494	435.059	82.5623	435.059	81.0942	435.059	82.3099	435.059	80.5987	435.059	82.1092	435.059	80.0468	435.059	81.8633	435.059	79.5489	435.059	81.4869	435.059	79.2506	435.059	80.9793	435.059	79.2461	435.059	80.4648	435.059	79.5054	435.059	80.1475	435.059	79.901	435.059	80.1421	435.059	80.2905	435.059	80.3522	435.059	80.5667	435.059	80.5766	435.059	80.6667
451.172	84.6778	451.172	84.3678	451.172	84.8516	451.172	83.9502	451.172	84.8592	451.172	83.4466	451.172	84.6767	451.172	82.8654	451.172	84.2977	451.172	82.1989	451.172	83.7482	451.172	81.4284	451.172	83.0987	451.172	80.5409	451.172	82.4653	451.172	79.551	451.172	81.9712	451.172	78.5199	451.172	81.648	451.172	77.5731	451.172	81.3635	451.172	76.9057	451.172	80.8969	451.172	76.7243	451.172	80.0954	451.172	77.0952	451.172	79.0301	451.172	77.8568	451.172	78.1479	451.172	78.7291	451.172	78.0563	451.172	79.4619	451.172	78.7012	451.172	79.8825	451.172	79.4542	451.172	79.8888
465.82	84.109	465.82	83.851	465.82	84.2328	465.82	83.4863	465.82	84.2059	465.82	83.0497	465.82	84.0258	465.82	82.5728	465.82	83.7052	465.82	82.0685	465.82	83.2707	465.82	81.5224	465.82	82.7612	465.82	80.9012	465.82	82.2315	465.82	80.1729	465.82	81.7543	465.82	79.3293	465.82	81.396	465.82	78.4118	465.82	81.1592	465.82	77.5531	465.82	80.9561	465.82	76.9927	465.82	80.6638	465.82	76.9517	465.82	80.2181	465.82	77.4048	465.82	79.6877	465.82	78.0862	465.82	79.2699	465.82	78.7171	465.82	79.1311	465.82	79.1292	465.82	79.2082	465.82	79.271
483.398	83.9073	483.398	83.7019	483.398	83.9484	483.398	83.3693	483.398	83.8186	483.398	82.9686	483.398	83.5441	483.398	82.5622	483.398	83.1776	483.398	82.1864	483.398	82.7759	483.398	81.8284	483.398	82.3797	483.398	81.4269	483.398	82.0152	483.398	80.8936	483.398	81.704	483.398	80.1435	483.398	81.4469	483.398	79.1371	483.398	81.199	483.398	77.9457	483.398	80.8867	483.398	76.8529	483.398	80.4662	483.398	76.3642	483.398	79.9928	483.398	76.7872	483.398	79.6431	483.398	77.8043	483.398	79.5959	483.398	78.8765	483.398	79.8183	483.398	79.6692	483.398	80.0592	483.398	80.0578
499.512	84.3479	499.512	83.9708	499.512	84.5207	499.512	83.448	499.512	84.4729	499.512	82.8773	499.512	84.223	499.512	82.3675	499.512	83.8078	499.512	81.9824	499.512	83.2678	499.512	81.692	499.512	82.6476	499.512	81.3846	499.512	82.0151	499.512	80.9283	499.512	81.4604	499.512	80.2283	499.512	81.0444	499.512	79.2631	499.512	80.7383	499.512	78.1227	499.512	80.4392	499.512	77.0647	499.512	80.0615	499.512	76.495	499.512	79.6325	499.512	76.6753	499.512	79.3153	499.512	77.4233	499.512	79.2734	499.512	78.331	499.512	79.4553	499.512	79.0843	499.512	79.6144	499.512	79.5231
517.09	84.1142	517.09	83.7355	517.09	84.2579	517.09	83.1825	517.09	84.1655	517.09	82.5863	517.09	83.875	517.09	82.1175	517.09	83.4396	517.09	81.8865	517.09	82.9137	517.09	81.8511	517.09	82.3672	517.09	81.849	517.09	81.905	517.09	81.7013	517.09	81.6327	517.09	81.2712	517.09	81.5575	517.09	80.479	517.09	81.535	517.09	79.3338	517.09	81.3419	517.09	78.0264	517.09	80.8083	517.09	77.064	517.09	79.9576	517.09	77.0562	517.09	79.1602	517.09	77.9426	517.09	79.0063	517.09	79.0734	517.09	79.5324	517.09	79.9408	517.09	80.1264	517.09	80.3109
536.133	84.7141	536.133	84.1617	536.133	84.9043	536.133	83.2679	536.133	84.7447	536.133	82.1196	536.133	84.261	536.133	80.9283	536.133	83.484	536.133	80.0575	536.133	82.4682	536.133	79.8198	536.133	81.3524	536.133	80.1081	536.133	80.4301	536.133	80.4888	536.133	80.07	536.133	80.6036	536.133	80.3653	536.133	80.3016	536.133	80.9688	536.133	79.5915	536.133	81.4217	536.133	78.6122	536.133	81.4332	536.133	77.6746	536.133	80.9271	536.133	77.2473	536.133	80.0773	536.133	77.5793	536.133	79.3492	536.133	78.3529	536.133	79.1675	536.133	79.0614	536.133	79.3516	536.133	79.4053
555.176	84.8673	555.176	84.4554	555.176	84.9896	555.176	83.75	555.176	84.8396	555.176	82.7716	555.176	84.4428	555.176	81.5907	555.176	83.8263	555.176	80.3715	555.176	83.011	555.176	79.3962	555.176	82.0162	555.176	78.9328	555.176	80.8917	555.176	78.9552	555.176	79.7815	555.176	79.1403	555.176	78.9866	555.176	79.1593	555.176	78.8447	555.176	78.8369	555.176	79.3096	555.176	78.1695	555.176	79.889	555.176	77.3647	555.176	80.1245	555.176	76.8621	555.176	79.8598	555.176	77.0218	555.176	79.268	555.176	77.6496	555.176	78.765	555.176	78.2521	555.176	78.6022	555.176	78.5466
574.219	85.0112	574.219	84.6068	574.219	85.1665	574.219	83.9682	574.219	85.0744	574.219	83.1307	574.219	84.7422	574.219	82.1477	574.219	84.1777	574.219	81.0929	574.219	83.3954	574.219	80.0763	574.219	82.4316	574.219	79.2493	574.219	81.3557	574.219	78.7353	574.219	80.2752	574.219	78.5098	574.219	79.3253	574.219	78.4045	574.219	78.6368	574.219	78.2422	574.219	78.2754	574.219	77.9597	574.219	78.2039	574.219	77.6918	574.219	78.3478	574.219	77.7625	574.219	78.6972	574.219	78.3708	574.219	79.2555	574.219	79.2752	574.219	79.8907	574.219	80.0529	574.219	80.3546	574.219	80.4365
594.727	85.069	594.727	84.7029	594.727	85.1509	594.727	84.0789	594.727	84.9588	594.727	83.2646	594.727	84.5259	594.727	82.3558	594.727	83.8921	594.727	81.4433	594.727	83.0945	594.727	80.5755	594.727	82.184	594.727	79.7544	594.727	81.279	594.727	78.9805	594.727	80.5777	594.727	78.3065	594.727	80.199	594.727	77.8337	594.727	79.9892	594.727	77.6151	594.727	79.6296	594.727	77.5555	594.727	78.9418	594.727	77.5047	594.727	78.1706	594.727	77.4953	594.727	78.0146	594.727	77.7983	594.727	78.725	594.727	78.5502	594.727	79.6329	594.727	79.4468	594.727	80.1403	594.727	80.0601
615.234	85.7019	615.234	85.2439	615.234	85.8623	615.234	84.544	615.234	85.717	615.234	83.6879	615.234	85.3095	615.234	82.7647	615.234	84.7059	615.234	81.8465	615.234	83.9413	615.234	80.9944	615.234	83.0222	615.234	80.2812	615.234	82.0301	615.234	79.7732	615.234	81.1937	615.234	79.4593	615.234	80.7705	615.234	79.2267	615.234	80.808	615.234	78.9464	615.234	81.0624	615.234	78.5865	615.234	81.1534	615.234	78.2688	615.234	80.7943	615.234	78.2334	615.234	80.0205	615.234	78.6539	615.234	79.4032	615.234	79.406	615.234	79.5745	615.234	80.1155	615.234	80.1576	615.234	80.4184
637.207	86.3714	637.207	85.7663	637.207	86.6682	637.207	84.8878	637.207	86.6564	637.207	83.809	637.207	86.3523	637.207	82.6435	637.207	85.7611	637.207	81.5481	637.207	84.8762	637.207	80.6802	637.207	83.7259	637.207	80.0881	637.207	82.4271	637.207	79.6691	637.207	81.1769	637.207	79.2765	637.207	80.1891	637.207	78.8241	637.207	79.6373	637.207	78.3314	637.207	79.5385	637.207	77.9679	637.207	79.6341	637.207	78.0187	637.207	79.6117	637.207	78.6519	637.207	79.5198	637.207	79.7038	637.207	79.8206	637.207	80.8014	637.207	80.6599	637.207	81.5968	637.207	81.5025	637.207	81.8602
659.18	85.8529	659.18	85.4185	659.18	85.9888	659.18	84.7154	659.18	85.8262	659.18	83.7968	659.18	85.3887	659.18	82.7341	659.18	84.703	659.18	81.6271	659.18	83.7807	659.18	80.6188	659.18	82.6411	659.18	79.8517	659.18	81.3888	659.18	79.3419	659.18	80.2743	659.18	78.9179	659.18	79.581	659.18	78.3592	659.18	79.3367	659.18	77.6052	659.18	79.2285	659.18	76.8393	659.18	78.9084	659.18	76.3657	659.18	78.355	659.18	76.4123	659.18	78.0491	659.18	77.0583	659.18	78.4979	659.18	78.1394	659.18	79.3634	659.18	79.2315	659.18	79.95	659.18	79.9107
682.617	85.998	682.617	85.4305	682.617	86.2296	682.617	84.5753	682.617	86.1111	682.617	83.5007	682.617	85.6755	682.617	82.2963	682.617	84.9833	682.617	81.0914	682.617	84.0606	682.617	80.0525	682.617	82.8934	682.617	79.3207	682.617	81.5936	682.617	78.912	682.617	80.5634	682.617	78.678	682.617	80.1617	682.617	78.3846	682.617	80.178	682.617	77.8558	682.617	80.1763	682.617	77.1197	682.617	79.9273	682.617	76.5585	682.617	79.3187	682.617	76.7939	682.617	78.4018	682.617	77.9193	682.617	77.9167	682.617	79.2977	682.617	78.7213	682.617	80.3018	682.617	79.9612	682.617	80.5712
707.52	85.526	707.52	85.0919	707.52	85.6865	707.52	84.3785	707.52	85.6063	707.52	83.4346	707.52	85.2969	707.52	82.3616	707.52	84.7063	707.52	81.2877	707.52	83.7435	707.52	80.3435	707.52	82.4004	707.52	79.6294	707.52	80.889	707.52	79.1379	707.52	79.6187	707.52	78.7177	707.52	78.8671	707.52	78.1772	707.52	78.46	707.52	77.413	707.52	78.0103	707.52	76.4638	707.52	77.2783	707.52	75.5816	707.52	76.2283	707.52	75.3448	707.52	75.2932	707.52	76.2403	707.52	75.7022	707.52	77.7879	707.52	77.4554	707.52	79.0781	707.52	78.9936	707.52	79.5559
732.422	85.7924	732.422	85.5161	732.422	85.7903	732.422	84.9849	732.422	85.5291	732.422	84.2543	732.422	85.0516	732.422	83.3733	732.422	84.3859	732.422	82.3791	732.422	83.5004	732.422	81.3617	732.422	82.307	732.422	80.4896	732.422	80.7822	732.422	79.8561	732.422	79.1599	732.422	79.34	732.422	78.0514	732.422	78.7563	732.422	78.0715	732.422	78.0833	732.422	78.8281	732.422	77.4978	732.422	79.218	732.422	77.1823	732.422	78.4956	732.422	77.1093	732.422	76.6755	732.422	77.22	732.422	75.7292	732.422	77.6887	732.422	77.2611	732.422	78.4958	732.422	78.729	732.422	79.0566
757.324	87.1415	757.324	86.8903	757.324	87.1566	757.324	86.4249	757.324	86.9389	757.324	85.7484	757.324	86.5221	757.324	84.8251	757.324	85.8905	757.324	83.6289	757.324	84.9041	757.324	82.2223	757.324	83.4226	757.324	80.7781	757.324	81.5875	757.324	79.5243	757.324	79.9547	757.324	78.6698	757.324	79.1946	757.324	78.2703	757.324	79.3325	757.324	78.0813	757.324	79.7852	757.324	77.7662	757.324	80.1535	757.324	77.3703	757.324	80.1366	757.324	77.4902	757.324	79.5093	757.324	78.5102	757.324	78.728	757.324	79.8679	757.324	79.0317	757.324	80.8188	757.324	80.2079	757.324	80.9617
785.156	87.0876	785.156	87.0256	785.156	86.8961	785.156	86.6847	785.156	86.5313	785.156	86.0742	785.156	86.0657	785.156	85.2204	785.156	85.4471	785.156	84.1911	785.156	84.5273	785.156	83.1215	785.156	83.2578	785.156	82.1572	785.156	81.7416	785.156	81.3121	785.156	80.0941	785.156	80.4546	785.156	78.754	785.156	79.5026	785.156	78.3794	785.156	78.6096	785.156	78.4554	785.156	78.0543	785.156	78.2067	785.156	77.7582	785.156	77.4857	785.156	77.3572	785.156	76.2617	785.156	77.0804	785.156	74.9505	785.156	77.6744	785.156	75.5237	785.156	78.6439	785.156	77.5835	785.156	78.7921
811.523	87.2147	811.523	87.0605	811.523	87.0939	811.523	86.6141	811.523	86.7493	811.523	85.8814	811.523	86.2448	811.523	84.8945	811.523	85.5921	811.523	83.7471	811.523	84.7217	811.523	82.6069	811.523	83.566	811.523	81.6138	811.523	82.1322	811.523	80.7563	811.523	80.4012	811.523	79.9212	811.523	78.4023	811.523	79.0248	811.523	77.2174	811.523	78.0979	811.523	78.113	811.523	77.3417	811.523	79.2537	811.523	77.0364	811.523	79.0965	811.523	77.2457	811.523	77.4302	811.523	77.854	811.523	76.0898	811.523	78.7929	811.523	77.7445	811.523	79.7689	811.523	79.6075	811.523	80.2132
840.82	87.1863	840.82	87.2143	840.82	86.8908	840.82	86.9707	840.82	86.4203	840.82	86.497	840.82	85.8504	840.82	85.7597	840.82	85.1362	840.82	84.6234	840.82	84.2177	840.82	83.0106	840.82	83.1945	840.82	81.1884	840.82	82.1887	840.82	79.847	840.82	81.1075	840.82	79.3607	840.82	79.7658	840.82	79.1962	840.82	78.0455	840.82	78.7082	840.82	76.3805	840.82	77.8926	840.82	76.2864	840.82	77.3847	840.82	77.3236	840.82	77.5889	840.82	77.4251	840.82	78.175	840.82	76.3876	840.82	78.8338	840.82	76.4639	840.82	79.3584	840.82	78.1792	840.82	79.2934
870.117	86.9902	870.117	86.9708	870.117	86.6093	870.117	86.5506	870.117	85.8925	870.117	85.7525	870.117	84.9719	870.117	84.5897	870.117	84.0108	870.117	83.1119	870.117	83.1315	870.117	81.5289	870.117	82.3106	870.117	80.1936	870.117	81.3621	870.117	79.3012	870.117	80.1731	870.117	78.7746	870.117	79.0775	870.117	78.3978	870.117	78.6381	870.117	77.8583	870.117	78.6594	870.117	76.8994	870.117	78.4998	870.117	75.6415	870.117	77.7847	870.117	74.9391	870.117	76.628	870.117	75.7374	870.117	76.2774	870.117	77.4075	870.117	77.5251	870.117	78.8006	870.117	78.8811	870.117	79.3533
900.879	87.5914	900.879	87.541	900.879	87.1576	900.879	87.0135	900.879	86.4166	900.879	86.1377	900.879	85.587	900.879	84.9681	900.879	84.7482	900.879	83.3735	900.879	83.854	900.879	81.1904	900.879	82.8513	900.879	78.6625	900.879	81.5948	900.879	76.8902	900.879	79.8818	900.879	76.8059	900.879	77.8665	900.879	77.5907	900.879	76.1356	900.879	78.243	900.879	75.5356	900.879	78.5432	900.879	76.556	900.879	78.4949	900.879	77.7514	900.879	78.1282	900.879	77.6639	900.879	77.9642	900.879	76.5291	900.879	78.7062	900.879	76.9083	900.879	79.7606	900.879	78.8981	900.879	80.0055
933.105	86.9619	933.105	86.8878	933.105	86.6027	933.105	86.4655	933.105	85.8624	933.105	85.7341	933.105	84.9286	933.105	84.621	933.105	83.9299	933.105	83.0988	933.105	82.9179	933.105	81.295	933.105	81.97	933.105	79.4118	933.105	81.0464	933.105	77.5754	933.105	79.9577	933.105	75.7816	933.105	78.7832	933.105	74.7017	933.105	78.0403	933.105	75.1339	933.105	77.83	933.105	76.0097	933.105	77.5532	933.105	76.3369	933.105	76.9262	933.105	75.9164	933.105	76.3352	933.105	75.7174	933.105	76.2573	933.105	77.306	933.105	77.0203	933.105	79.1666	933.105	78.6015	933.105	79.6437
965.332	87.0584	965.332	87.1491	965.332	86.5769	965.332	86.7408	965.332	85.7942	965.332	85.7477	965.332	84.7681	965.332	84.1735	965.332	83.7152	965.332	82.2483	965.332	82.9747	965.332	80.4007	965.332	82.369	965.332	79.0396	965.332	81.2765	965.332	78.3746	965.332	79.513	965.332	78.0841	965.332	77.6321	965.332	77.4646	965.332	76.4433	965.332	76.3088	965.332	75.7144	965.332	75.8422	965.332	75.2872	965.332	76.8707	965.332	75.8573	965.332	77.7123	965.332	76.6974	965.332	77.4051	965.332	77.0582	965.332	76.5709	965.332	77.5805	965.332	76.9212	965.332	78.2517	965.332	78.0234
1,000.49	86.7922	1,000.49	86.9677	1,000.49	86.2473	1,000.49	86.7034	1,000.49	85.4522	1,000.49	85.8725	1,000.49	84.5493	1,000.49	84.3514	1,000.49	83.6054	1,000.49	82.2301	1,000.49	82.6893	1,000.49	79.9518	1,000.49	81.7743	1,000.49	78.2624	1,000.49	80.6162	1,000.49	77.64	1,000.49	79.0349	1,000.49	77.6375	1,000.49	77.2092	1,000.49	77.1797	1,000.49	76.4436	1,000.49	75.7085	1,000.49	77.2091	1,000.49	74.483	1,000.49	77.1855	1,000.49	75.494	1,000.49	75.2753	1,000.49	76.9077	1,000.49	72.4806	1,000.49	77.2012	1,000.49	73.5235	1,000.49	77.4864	1,000.49	76.0437	1,000.49	78.7324	1,000.49	78.1333	1,000.49	79.2481
1,035.64	86.0251	1,035.64	86.5439	1,035.64	85.3304	1,035.64	86.5355	1,035.64	84.6323	1,035.64	85.7498	1,035.64	83.8451	1,035.64	84.103	1,035.64	83.0883	1,035.64	81.771	1,035.64	82.6863	1,035.64	79.2842	1,035.64	82.2785	1,035.64	77.1247	1,035.64	81.1541	1,035.64	74.927	1,035.64	79.44	1,035.64	72.484	1,035.64	78.0498	1,035.64	72.6965	1,035.64	77.3922	1,035.64	74.6623	1,035.64	76.6495	1,035.64	75.9493	1,035.64	75.7943	1,035.64	76.8533	1,035.64	75.1082	1,035.64	77.5517	1,035.64	74.9565	1,035.64	77.6032	1,035.64	76.6652	1,035.64	77.1934	1,035.64	78.3966	1,035.64	77.5777	1,035.64	78.8827	1,035.64	78.4865
1,072.27	85.4681	1,072.27	85.9644	1,072.27	84.6978	1,072.27	86.0656	1,072.27	83.9198	1,072.27	85.4904	1,072.27	83.2658	1,072.27	83.7152	1,072.27	82.7877	1,072.27	80.5663	1,072.27	82.6149	1,072.27	77.3989	1,072.27	82.3163	1,072.27	76.8379	1,072.27	81.0457	1,072.27	77.2804	1,072.27	78.6018	1,072.27	75.5905	1,072.27	75.186	1,072.27	71.8838	1,072.27	73.7556	1,072.27	70.5165	1,072.27	77.4599	1,072.27	71.9843	1,072.27	79.2526	1,072.27	73.571	1,072.27	77.7788	1,072.27	76.1993	1,072.27	70.0732	1,072.27	78.626	1,072.27	70.1616	1,072.27	79.7339	1,072.27	77.6163	1,072.27	79.9179	1,072.27	79.5895	1,072.27	79.9325
1,108.89	85.0357	1,108.89	84.9022	1,108.89	85.0912	1,108.89	84.8933	1,108.89	84.6518	1,108.89	84.8325	1,108.89	83.2884	1,108.89	84.1172	1,108.89	81.3123	1,108.89	82.2173	1,108.89	80.1678	1,108.89	79.3266	1,108.89	80.2525	1,108.89	76.5887	1,108.89	80.2735	1,108.89	76.8007	1,108.89	79.5197	1,108.89	78.0313	1,108.89	77.3458	1,108.89	77.0839	1,108.89	72.377	1,108.89	73.7928	1,108.89	72.8285	1,108.89	71.8037	1,108.89	77.0161	1,108.89	74.0168	1,108.89	77.9866	1,108.89	76.4478	1,108.89	74.8197	1,108.89	78.4426	1,108.89	64.8561	1,108.89	79.6118	1,108.89	74.6835	1,108.89	79.9517	1,108.89	78.6546	1,108.89	79.7906
1,148.44	84.4596	1,148.44	84.4037	1,148.44	84.2786	1,148.44	84.2856	1,148.44	83.6172	1,148.44	83.9839	1,148.44	82.5653	1,148.44	83.1866	1,148.44	81.4552	1,148.44	81.7571	1,148.44	80.4039	1,148.44	79.9957	1,148.44	79.5366	1,148.44	77.8965	1,148.44	78.768	1,148.44	76.4414	1,148.44	77.7171	1,148.44	76.7107	1,148.44	76.0996	1,148.44	75.6055	1,148.44	72.68	1,148.44	72.997	1,148.44	71.0569	1,148.44	70.7894	1,148.44	77.6983	1,148.44	71.8358	1,148.44	80.2423	1,148.44	73.09	1,148.44	78.3707	1,148.44	74.5669	1,148.44	69.2427	1,148.44	76.367	1,148.44	68.7981	1,148.44	77.395	1,148.44	75.6598	1,148.44	77.3767
1,189.45	83.8545	1,189.45	83.537	1,189.45	83.7423	1,189.45	82.9354	1,189.45	83.1845	1,189.45	82.0499	1,189.45	82.2695	1,189.45	80.673	1,189.45	81.0489	1,189.45	79.1376	1,189.45	79.6341	1,189.45	77.9727	1,189.45	78.0024	1,189.45	76.7548	1,189.45	76.9827	1,189.45	75.9484	1,189.45	77.3552	1,189.45	75.9245	1,189.45	77.0809	1,189.45	75.8741	1,189.45	73.597	1,189.45	75.1793	1,189.45	67.2609	1,189.45	73.4479	1,189.45	71.6357	1,189.45	71.6005	1,189.45	76.2234	1,189.45	71.0259	1,189.45	77.3434	1,189.45	72.1866	1,189.45	73.945	1,189.45	74.2133	1,189.45	66.9938	1,189.45	75.8452	1,189.45	73.976	1,189.45	76.2466
1,230.47	84.5581	1,230.47	84.4592	1,230.47	84.2721	1,230.47	83.8267	1,230.47	83.6933	1,230.47	82.5814	1,230.47	82.689	1,230.47	80.9297	1,230.47	81.0906	1,230.47	79.5513	1,230.47	79.5103	1,230.47	78.6561	1,230.47	78.8889	1,230.47	76.6146	1,230.47	78.3704	1,230.47	73.1913	1,230.47	76.7306	1,230.47	71.7778	1,230.47	74.8387	1,230.47	72.8429	1,230.47	73.465	1,230.47	74.006	1,230.47	69.9824	1,230.47	74.2617	1,230.47	72.6603	1,230.47	74.3937	1,230.47	77.506	1,230.47	74.7549	1,230.47	77.6586	1,230.47	75.2093	1,230.47	73.3662	1,230.47	75.8467	1,230.47	70.2869	1,230.47	76.1688	1,230.47	73.9106	1,230.47	75.7044
1,274.41	84.9944	1,274.41	84.5782	1,274.41	84.7092	1,274.41	83.4778	1,274.41	83.7837	1,274.41	81.6868	1,274.41	82.5701	1,274.41	79.799	1,274.41	81.4632	1,274.41	79.1635	1,274.41	80.4066	1,274.41	79.0664	1,274.41	79.2241	1,274.41	76.8477	1,274.41	78.0871	1,274.41	72.5142	1,274.41	76.7958	1,274.41	70.3886	1,274.41	75.0566	1,274.41	70.473	1,274.41	72.4435	1,274.41	68.182	1,274.41	68.4849	1,274.41	70.4087	1,274.41	72.0535	1,274.41	74.4412	1,274.41	75.8467	1,274.41	76.1775	1,274.41	75.2193	1,274.41	76.7427	1,274.41	71.5352	1,274.41	77.1392	1,274.41	70.5935	1,274.41	77.5558	1,274.41	75.2139	1,274.41	77.3196
1,319.82	85.1043	1,319.82	85.0498	1,319.82	84.6491	1,319.82	83.9264	1,319.82	83.8461	1,319.82	81.6649	1,319.82	82.7497	1,319.82	79.7369	1,319.82	81.4543	1,319.82	79.4712	1,319.82	79.6407	1,319.82	78.5325	1,319.82	78.129	1,319.82	74.1614	1,319.82	77.3732	1,319.82	68.1238	1,319.82	75.6905	1,319.82	70.5811	1,319.82	72.6958	1,319.82	72.7676	1,319.82	69.718	1,319.82	69.4363	1,319.82	66.1225	1,319.82	66.3619	1,319.82	67.1599	1,319.82	71.0348	1,319.82	73.2626	1,319.82	73.6042	1,319.82	74.7393	1,319.82	73.9092	1,319.82	71.6533	1,319.82	75.5066	1,319.82	70.1709	1,319.82	78.1353	1,319.82	76.1437	1,319.82	78.6847
1,366.7	85.2204	1,366.7	85.6703	1,366.7	84.3369	1,366.7	84.6086	1,366.7	83.6963	1,366.7	82.0477	1,366.7	82.8693	1,366.7	80.0384	1,366.7	81.6794	1,366.7	79.2622	1,366.7	80.3314	1,366.7	77.2645	1,366.7	78.3141	1,366.7	73.0901	1,366.7	76.8941	1,366.7	67.677	1,366.7	77.1726	1,366.7	68.3989	1,366.7	76.4843	1,366.7	73.7229	1,366.7	74.8947	1,366.7	73.6423	1,366.7	72.587	1,366.7	67.2884	1,366.7	49.5275	1,366.7	67.9595	1,366.7	75.1863	1,366.7	75.8427	1,366.7	77.9033	1,366.7	76.5889	1,366.7	72.0037	1,366.7	76.0867	1,366.7	67.823	1,366.7	77.9188	1,366.7	76.7543	1,366.7	78.9171
1,413.57	84.9568	1,413.57	85.6314	1,413.57	83.8514	1,413.57	84.7683	1,413.57	83.4952	1,413.57	82.6299	1,413.57	83.3245	1,413.57	80.7713	1,413.57	82.1228	1,413.57	78.9879	1,413.57	80.3041	1,413.57	76.5575	1,413.57	78.7349	1,413.57	72.439	1,413.57	76.9564	1,413.57	71.3172	1,413.57	75.7203	1,413.57	67.6181	1,413.57	75.3808	1,413.57	69.8644	1,413.57	74.7699	1,413.57	70.7863	1,413.57	72.4879	1,413.57	68.5032	1,413.57	67.8373	1,413.57	68.5401	1,413.57	72.2698	1,413.57	73.6061	1,413.57	76.2197	1,413.57	73.6074	1,413.57	74.9689	1,413.57	73.8966	1,413.57	63.7972	1,413.57	76.3013	1,413.57	72.4381	1,413.57	76.9437
1,463.38	84.7633	1,463.38	85.1333	1,463.38	84.2618	1,463.38	84.2888	1,463.38	83.8671	1,463.38	82.9184	1,463.38	83.1226	1,463.38	82.0163	1,463.38	81.8205	1,463.38	79.714	1,463.38	79.6845	1,463.38	75.8147	1,463.38	77.5551	1,463.38	75.0098	1,463.38	76.906	1,463.38	75.6504	1,463.38	76.4454	1,463.38	72.2119	1,463.38	73.5983	1,463.38	70.026	1,463.38	72.1691	1,463.38	70.7415	1,463.38	72.887	1,463.38	68.2048	1,463.38	68.7165	1,463.38	63.3675	1,463.38	68.1455	1,463.38	68.2968	1,463.38	72.4493	1,463.38	72.75	1,463.38	74.1396	1,463.38	73.6525	1,463.38	70.8906	1,463.38	73.9181	1,463.38	71.2095	1,463.38	74.065
1,516.11	83.2443	1,516.11	83.2391	1,516.11	83.2372	1,516.11	83.0726	1,516.11	82.7751	1,516.11	82.6599	1,516.11	81.4935	1,516.11	80.6517	1,516.11	80.2447	1,516.11	76.2708	1,516.11	79.1201	1,516.11	72.151	1,516.11	77.381	1,516.11	73.5702	1,516.11	76.1559	1,516.11	73.843	1,516.11	76.2145	1,516.11	70.1154	1,516.11	75.3159	1,516.11	70.4047	1,516.11	73.5829	1,516.11	74.3992	1,516.11	74.0403	1,516.11	72.4964	1,516.11	69.2477	1,516.11	60.5685	1,516.11	68.8347	1,516.11	69.6902	1,516.11	72.4572	1,516.11	71.2779	1,516.11	70.141	1,516.11	70.1457	1,516.11	67.8872	1,516.11	71.9606	1,516.11	70.6579	1,516.11	72.8268
1,568.85	83.1385	1,568.85	81.8121	1,568.85	83.0368	1,568.85	81.2669	1,568.85	81.6843	1,568.85	81.9765	1,568.85	80.3269	1,568.85	80.416	1,568.85	78.5976	1,568.85	75.2195	1,568.85	76.7501	1,568.85	71.0398	1,568.85	76.8805	1,568.85	71.359	1,568.85	75.1077	1,568.85	67.6729	1,568.85	73.4538	1,568.85	61.9633	1,568.85	72.4669	1,568.85	69.1466	1,568.85	73.9196	1,568.85	71.9721	1,568.85	74.9736	1,568.85	71.3322	1,568.85	67.6696	1,568.85	64.4815	1,568.85	69.4552	1,568.85	67.1337	1,568.85	71.5576	1,568.85	73.0199	1,568.85	67.5984	1,568.85	72.74	1,568.85	67.0075	1,568.85	70.8737	1,568.85	71.6902	1,568.85	71.0163
1,624.51	83.9677	1,624.51	82.703	1,624.51	83.9542	1,624.51	81.4165	1,624.51	81.9614	1,624.51	80.9467	1,624.51	78.7693	1,624.51	79.8456	1,624.51	75.4871	1,624.51	76.3249	1,624.51	74.6497	1,624.51	72.3211	1,624.51	76.2559	1,624.51	70.5574	1,624.51	75.7608	1,624.51	69.2611	1,624.51	74.6062	1,624.51	61.8588	1,624.51	72.2156	1,624.51	55.1184	1,624.51	71.2074	1,624.51	68.6087	1,624.51	72.9466	1,624.51	73.6346	1,624.51	71.1176	1,624.51	69.3342	1,624.51	66.7069	1,624.51	57.1911	1,624.51	71.5179	1,624.51	69.787	1,624.51	70.8069	1,624.51	71.4252	1,624.51	62.1222	1,624.51	71.0992	1,624.51	66.0867	1,624.51	71.0011
1,681.64	85.4352	1,681.64	84.6138	1,681.64	85.1623	1,681.64	83.2736	1,681.64	82.6608	1,681.64	81.3386	1,681.64	80.3795	1,681.64	77.7939	1,681.64	78.7341	1,681.64	75.3874	1,681.64	75.5963	1,681.64	75.6216	1,681.64	76.4198	1,681.64	71.834	1,681.64	76.8616	1,681.64	72.731	1,681.64	76.7567	1,681.64	74.0965	1,681.64	74.3127	1,681.64	73.2537	1,681.64	74.111	1,681.64	72.271	1,681.64	78.0032	1,681.64	71.8239	1,681.64	76.7884	1,681.64	71.8712	1,681.64	71.1106	1,681.64	67.5207	1,681.64	68.6886	1,681.64	69.6015	1,681.64	73.1156	1,681.64	70.8457	1,681.64	70.9837	1,681.64	63.7284	1,681.64	63.4305	1,681.64	61.1354
1,741.7	86.2653	1,741.7	85.5369	1,741.7	85.145	1,741.7	83.5134	1,741.7	82.2728	1,741.7	80.6885	1,741.7	80.1711	1,741.7	77.5969	1,741.7	76.4947	1,741.7	76.1244	1,741.7	77.0748	1,741.7	74.7155	1,741.7	78.8096	1,741.7	74.5251	1,741.7	78.9409	1,741.7	72.8529	1,741.7	76.6866	1,741.7	68.4127	1,741.7	73.9716	1,741.7	66.1555	1,741.7	70.7816	1,741.7	62.5198	1,741.7	72.196	1,741.7	44.3008	1,741.7	74.2098	1,741.7	73.5245	1,741.7	72.456	1,741.7	71.9466	1,741.7	75.6023	1,741.7	63.5678	1,741.7	67.6419	1,741.7	67.2399	1,741.7	74.3759	1,741.7	70.2849	1,741.7	71.3858	1,741.7	69.2931
1,803.22	85.0153	1,803.22	85.3102	1,803.22	84.0814	1,803.22	83.5894	1,803.22	82.9988	1,803.22	80.8067	1,803.22	80.7351	1,803.22	78.6592	1,803.22	77.1515	1,803.22	77.0635	1,803.22	77.0761	1,803.22	79.3245	1,803.22	77.8591	1,803.22	76.5579	1,803.22	80.9441	1,803.22	75.4229	1,803.22	80.9129	1,803.22	79.3747	1,803.22	80.0964	1,803.22	79.0734	1,803.22	80.0575	1,803.22	77.9801	1,803.22	79.5182	1,803.22	68.4833	1,803.22	74.5309	1,803.22	75.7085	1,803.22	57.9929	1,803.22	74.6468	1,803.22	77.0461	1,803.22	71.5869	1,803.22	70.7226	1,803.22	61.0768	1,803.22	68.596	1,803.22	66.6319	1,803.22	72.6892	1,803.22	71.4985
1,866.21	85.1511	1,866.21	85.3478	1,866.21	84.5227	1,866.21	84.2833	1,866.21	81.5751	1,866.21	79.6612	1,866.21	75.1482	1,866.21	76.6315	1,866.21	79.1448	1,866.21	78.2082	1,866.21	80.2721	1,866.21	71.8351	1,866.21	79.894	1,866.21	75.947	1,866.21	76.7501	1,866.21	72.9799	1,866.21	73.296	1,866.21	70.5011	1,866.21	74.5899	1,866.21	73.3963	1,866.21	74.7875	1,866.21	71.4512	1,866.21	77.978	1,866.21	67.9647	1,866.21	74.4347	1,866.21	62.9185	1,866.21	63.9889	1,866.21	64.0778	1,866.21	69.3899	1,866.21	60.8091	1,866.21	73.9784	1,866.21	68.8916	1,866.21	68.9235	1,866.21	70.7551	1,866.21	71.8693	1,866.21	68.2617
1,932.13	84.4208	1,932.13	84.4697	1,932.13	83.1219	1,932.13	82.8589	1,932.13	81.1322	1,932.13	79.0899	1,932.13	76.3911	1,932.13	75.5835	1,932.13	76.5486	1,932.13	74.7944	1,932.13	79.0984	1,932.13	73.3283	1,932.13	77.5856	1,932.13	72.0579	1,932.13	77.5988	1,932.13	78.4848	1,932.13	76.6293	1,932.13	73.9649	1,932.13	73.2275	1,932.13	71.0492	1,932.13	75.3288	1,932.13	75.5442	1,932.13	78.7906	1,932.13	76.5231	1,932.13	76.078	1,932.13	66.7241	1,932.13	65.2903	1,932.13	66.3331	1,932.13	71.1704	1,932.13	65.9647	1,932.13	70.3984	1,932.13	68.5607	1,932.13	64.7791	1,932.13	67.0791	1,932.13	72.5189	1,932.13	68.4943
1,999.51	84.1401	1,999.51	84.6211	1,999.51	83.325	1,999.51	82.5255	1,999.51	78.695	1,999.51	78.4457	1,999.51	73.7715	1,999.51	79.6594	1,999.51	78.0324	1,999.51	80.5556	1,999.51	74.0773	1,999.51	64.3895	1,999.51	78.1118	1,999.51	69.1751	1,999.51	79.091	1,999.51	80.0601	1,999.51	82.1846	1,999.51	82.1345	1,999.51	80.6974	1,999.51	79.4545	1,999.51	78.3114	1,999.51	72.3544	1,999.51	66.2785	1,999.51	77.5059	1,999.51	75.0754	1,999.51	57.9653	1,999.51	72.1845	1,999.51	67.7894	1,999.51	77.2576	1,999.51	71.8077	1,999.51	69.257	1,999.51	64.7886	1,999.51	67.4692	1,999.51	66.6561	1,999.51	73.0072	1,999.51	67.0378
2,069.82	86.666	2,069.82	85.5848	2,069.82	84.2051	2,069.82	81.4485	2,069.82	78.8046	2,069.82	78.4255	2,069.82	77.4962	2,069.82	77.8215	2,069.82	80.7258	2,069.82	76.4821	2,069.82	82.2395	2,069.82	73.17	2,069.82	78.7302	2,069.82	80.8905	2,069.82	76.8855	2,069.82	80.0306	2,069.82	81.3522	2,069.82	75.2648	2,069.82	82.6661	2,069.82	80.3834	2,069.82	80.2163	2,069.82	74.6702	2,069.82	75.4866	2,069.82	76.9263	2,069.82	64.0502	2,069.82	79.0234	2,069.82	74.6438	2,069.82	75.4825	2,069.82	66.061	2,069.82	73.0543	2,069.82	73.0538	2,069.82	73.115	2,069.82	68.2965	2,069.82	63.705	2,069.82	76.4253	2,069.82	68.9672
2,143.07	84.7408	2,143.07	84.0784	2,143.07	84.4715	2,143.07	81.0645	2,143.07	76.2719	2,143.07	74.4023	2,143.07	77.9748	2,143.07	78.6327	2,143.07	79.4743	2,143.07	61.0545	2,143.07	82.128	2,143.07	63.0188	2,143.07	82.7802	2,143.07	79.5211	2,143.07	83.5018	2,143.07	77.2748	2,143.07	82.6709	2,143.07	74.2637	2,143.07	82.0726	2,143.07	78.0706	2,143.07	75.1304	2,143.07	65.3887	2,143.07	78.4488	2,143.07	64.7539	2,143.07	78.2955	2,143.07	72.3429	2,143.07	67.7179	2,143.07	71.3333	2,143.07	67.372	2,143.07	66.6571	2,143.07	73.6524	2,143.07	70.4982	2,143.07	70.3111	2,143.07	71.9434	2,143.07	75.8665	2,143.07	71.2404
2,219.24	84.3794	2,219.24	82.9298	2,219.24	84.1363	2,219.24	82.0039	2,219.24	76.0055	2,219.24	77.5448	2,219.24	75.9252	2,219.24	59.6596	2,219.24	81.979	2,219.24	77.1982	2,219.24	86.0963	2,219.24	75.3569	2,219.24	82.7991	2,219.24	76.8497	2,219.24	79.4779	2,219.24	77.8372	2,219.24	73.9225	2,219.24	72.6878	2,219.24	76.6052	2,219.24	67.5327	2,219.24	75.8814	2,219.24	77.6687	2,219.24	74.609	2,219.24	69.8588	2,219.24	78.8261	2,219.24	73.707	2,219.24	69.1775	2,219.24	68.2126	2,219.24	71.2993	2,219.24	75.177	2,219.24	65.4905	2,219.24	70.3769	2,219.24	61.0578	2,219.24	66.6704	2,219.24	71.3311	2,219.24	74.1357
2,296.88	82.9174	2,296.88	83.7327	2,296.88	80.5496	2,296.88	81.9035	2,296.88	72.0448	2,296.88	77.5388	2,296.88	75.9065	2,296.88	65.6933	2,296.88	78.6934	2,296.88	73.8796	2,296.88	81.907	2,296.88	74.6	2,296.88	75.8433	2,296.88	68.0417	2,296.88	79.1768	2,296.88	66.072	2,296.88	75.5706	2,296.88	77.6989	2,296.88	69.1748	2,296.88	75.2001	2,296.88	71.4506	2,296.88	77.6755	2,296.88	72.5471	2,296.88	74.3248	2,296.88	79.1952	2,296.88	72.1506	2,296.88	75.961	2,296.88	65.8631	2,296.88	66.7622	2,296.88	69.6743	2,296.88	74.3897	2,296.88	62.6786	2,296.88	68.4986	2,296.88	61.1612	2,296.88	74.7433	2,296.88	69.2604
2,378.91	83.9084	2,378.91	82.6041	2,378.91	82.5508	2,378.91	81.4056	2,378.91	67.2599	2,378.91	77.4079	2,378.91	79.3537	2,378.91	66.828	2,378.91	81.3978	2,378.91	79.368	2,378.91	80.6304	2,378.91	79.5133	2,378.91	83.272	2,378.91	75.1404	2,378.91	84.1888	2,378.91	74.4744	2,378.91	80.2477	2,378.91	62.1905	2,378.91	73.8449	2,378.91	59.4654	2,378.91	77.0117	2,378.91	74.5653	2,378.91	73.1467	2,378.91	77.8844	2,378.91	66.3121	2,378.91	68.5177	2,378.91	72.4714	2,378.91	72.4303	2,378.91	66.4481	2,378.91	69.7367	2,378.91	69.3043	2,378.91	72.0679	2,378.91	63.4367	2,378.91	71.6664	2,378.91	74.2811	2,378.91	71.8108
2,462.4	84.7837	2,462.4	85.0133	2,462.4	82.3412	2,462.4	82.1653	2,462.4	70.4035	2,462.4	72.2706	2,462.4	77.8239	2,462.4	56.3666	2,462.4	81.796	2,462.4	72.2293	2,462.4	82.646	2,462.4	74.4703	2,462.4	81.8319	2,462.4	75.7618	2,462.4	79.7132	2,462.4	73.4851	2,462.4	72.8574	2,462.4	70.5142	2,462.4	71.5054	2,462.4	72.1723	2,462.4	71.4733	2,462.4	69.9579	2,462.4	72.4214	2,462.4	70.7268	2,462.4	68.0528	2,462.4	67.2381	2,462.4	74.3809	2,462.4	66.2931	2,462.4	63.2368	2,462.4	69.5514	2,462.4	68.3113	2,462.4	64.48	2,462.4	52.908	2,462.4	65.25	2,462.4	69.634	2,462.4	69.6421
2,548.83	83.9039	2,548.83	84.8896	2,548.83	81.6818	2,548.83	81.3927	2,548.83	68.1976	2,548.83	68.9807	2,548.83	76.4483	2,548.83	69.0619	2,548.83	81.0594	2,548.83	74.0937	2,548.83	82.1047	2,548.83	75.0076	2,548.83	81.2442	2,548.83	75.0393	2,548.83	77.6553	2,548.83	74.5518	2,548.83	76.0712	2,548.83	74.2332	2,548.83	74.0212	2,548.83	70.7358	2,548.83	69.7447	2,548.83	67.24	2,548.83	68.5229	2,548.83	70.4816	2,548.83	69.688	2,548.83	68.3738	2,548.83	72.0756	2,548.83	67.9809	2,548.83	70.3765	2,548.83	66.9151	2,548.83	64.53	2,548.83	57.354	2,548.83	61.5051	2,548.83	63.678	2,548.83	68.5195	2,548.83	66.364
2,639.65	82.6237	2,639.65	83.7705	2,639.65	79.4943	2,639.65	80.8642	2,639.65	62.3983	2,639.65	73.7098	2,639.65	76.1767	2,639.65	70.8176	2,639.65	80.7401	2,639.65	75.7535	2,639.65	82.7465	2,639.65	76.5001	2,639.65	80.8382	2,639.65	76.23	2,639.65	78.1832	2,639.65	72.8113	2,639.65	76.3553	2,639.65	70.8042	2,639.65	72.444	2,639.65	70.4652	2,639.65	70.9734	2,639.65	71.7355	2,639.65	67.3451	2,639.65	68.9317	2,639.65	70.3197	2,639.65	70.5812	2,639.65	69.4142	2,639.65	69.1425	2,639.65	71.0558	2,639.65	67.5437	2,639.65	68.4392	2,639.65	58.0781	2,639.65	62.3177	2,639.65	64.7082	2,639.65	69.5153	2,639.65	66.8719
2,731.93	82.7567	2,731.93	82.9546	2,731.93	78.7762	2,731.93	80.1096	2,731.93	66.529	2,731.93	71.5883	2,731.93	76.4748	2,731.93	74.3715	2,731.93	81.0457	2,731.93	76.7254	2,731.93	81.6325	2,731.93	77.6928	2,731.93	80.3476	2,731.93	76.1092	2,731.93	76.173	2,731.93	75.3939	2,731.93	75.7448	2,731.93	73.3332	2,731.93	70.925	2,731.93	72.2417	2,731.93	66.0141	2,731.93	71.0914	2,731.93	68.6409	2,731.93	70.825	2,731.93	69.8239	2,731.93	68.8707	2,731.93	69.9115	2,731.93	69.6283	2,731.93	68.0855	2,731.93	65.918	2,731.93	66.1703	2,731.93	59.3494	2,731.93	60.2724	2,731.93	62.9181	2,731.93	67.6443	2,731.93	63.9958
2,828.61	82.9239	2,828.61	83.6546	2,828.61	78.927	2,828.61	79.8548	2,828.61	67.8879	2,828.61	70.9771	2,828.61	77.3821	2,828.61	76.402	2,828.61	81.6177	2,828.61	78.3418	2,828.61	81.3831	2,828.61	77.2626	2,828.61	79.496	2,828.61	76.0672	2,828.61	75.9439	2,828.61	75.7355	2,828.61	76.7855	2,828.61	74.9287	2,828.61	70.9707	2,828.61	71.1457	2,828.61	60.3381	2,828.61	69.9758	2,828.61	61.1457	2,828.61	68.4412	2,828.61	71.6303	2,828.61	69.4019	2,828.61	68.724	2,828.61	69.4049	2,828.61	68.0488	2,828.61	67.0168	2,828.61	64.8702	2,828.61	57.0216	2,828.61	61.4216	2,828.61	64.9949	2,828.61	68.1084	2,828.61	69.3357
2,928.22	83.2512	2,928.22	84.615	2,928.22	79.3907	2,928.22	80.6139	2,928.22	71.1204	2,928.22	74.4189	2,928.22	77.9147	2,928.22	76.7592	2,928.22	81.9324	2,928.22	78.6662	2,928.22	81.3667	2,928.22	78.5616	2,928.22	79.9095	2,928.22	77.9784	2,928.22	77.5941	2,928.22	75.5923	2,928.22	75.2219	2,928.22	72.364	2,928.22	66.4586	2,928.22	72.1353	2,928.22	53.5422	2,928.22	70.8435	2,928.22	60.0931	2,928.22	70.8517	2,928.22	70.5858	2,928.22	68.1321	2,928.22	66.8963	2,928.22	70.279	2,928.22	66.7884	2,928.22	68.9057	2,928.22	65.1845	2,928.22	59.472	2,928.22	62.7833	2,928.22	64.5679	2,928.22	69.0408	2,928.22	68.5301
3,030.76	83.0567	3,030.76	84.2806	3,030.76	77.7543	3,030.76	80.8815	3,030.76	73.6288	3,030.76	76.351	3,030.76	76.3854	3,030.76	77.2985	3,030.76	81.3258	3,030.76	78.7401	3,030.76	81.7741	3,030.76	78.8221	3,030.76	79.6413	3,030.76	77.2403	3,030.76	78.1223	3,030.76	74.6248	3,030.76	75.3284	3,030.76	74.9611	3,030.76	53.2638	3,030.76	72.941	3,030.76	29.8618	3,030.76	70.5932	3,030.76	65.9719	3,030.76	70.8482	3,030.76	67.1529	3,030.76	68.4359	3,030.76	67.4346	3,030.76	68.9937	3,030.76	67.3845	3,030.76	68.7356	3,030.76	61.1626	3,030.76	63.5705	3,030.76	64.4583	3,030.76	63.7339	3,030.76	68.0783	3,030.76	69.1726
3,137.7	82.5545	3,137.7	83.8083	3,137.7	77.883	3,137.7	80.4355	3,137.7	74.7147	3,137.7	77.4522	3,137.7	77.95	3,137.7	79.1088	3,137.7	80.3947	3,137.7	79.7902	3,137.7	82.1258	3,137.7	78.6553	3,137.7	78.1407	3,137.7	76.7592	3,137.7	76.6921	3,137.7	76.2305	3,137.7	74.8893	3,137.7	73.9806	3,137.7	59.8243	3,137.7	70.2977	3,137.7	52.6988	3,137.7	69.9849	3,137.7	60.8663	3,137.7	69.6059	3,137.7	67.5395	3,137.7	67.3325	3,137.7	66.1822	3,137.7	68.9575	3,137.7	68.5998	3,137.7	69.0068	3,137.7	60.8475	3,137.7	63.5481	3,137.7	66.0025	3,137.7	60.7679	3,137.7	66.6334	3,137.7	69.4256
3,249.02	82.3623	3,249.02	82.9342	3,249.02	76.6218	3,249.02	80.3695	3,249.02	76.0786	3,249.02	77.83	3,249.02	80.8484	3,249.02	79.6157	3,249.02	80.7023	3,249.02	80.3372	3,249.02	80.4621	3,249.02	79.9954	3,249.02	78.4172	3,249.02	77.702	3,249.02	76.9837	3,249.02	74.4789	3,249.02	73.0033	3,249.02	70.9434	3,249.02	65.7524	3,249.02	71.1911	3,249.02	61.8449	3,249.02	69.258	3,249.02	65.3239	3,249.02	70.2217	3,249.02	64.4638	3,249.02	68.2547	3,249.02	67.97	3,249.02	68.2621	3,249.02	69.0804	3,249.02	67.8914	3,249.02	60.4725	3,249.02	60.7137	3,249.02	65.4641	3,249.02	59.7117	3,249.02	65.489	3,249.02	66.0473
3,363.28	82.4451	3,363.28	83.4832	3,363.28	76.7057	3,363.28	80.9592	3,363.28	77.2316	3,363.28	76.5369	3,363.28	81.371	3,363.28	80.0769	3,363.28	80.5175	3,363.28	80.8483	3,363.28	78.8749	3,363.28	78.7843	3,363.28	78.3343	3,363.28	75.8125	3,363.28	78.7159	3,363.28	74.6205	3,363.28	72.5112	3,363.28	73.6632	3,363.28	71.8398	3,363.28	71.0989	3,363.28	70.786	3,363.28	68.045	3,363.28	60.4625	3,363.28	67.2141	3,363.28	62.3567	3,363.28	67.3125	3,363.28	68.8386	3,363.28	67.4968	3,363.28	67.0785	3,363.28	67.7409	3,363.28	56.2916	3,363.28	59.6638	3,363.28	66.6006	3,363.28	62.7369	3,363.28	64.4223	3,363.28	65.746
3,481.93	82.4801	3,481.93	83.7283	3,481.93	76.5225	3,481.93	81.9639	3,481.93	77.7684	3,481.93	77.7874	3,481.93	82.4962	3,481.93	80.0201	3,481.93	80.7363	3,481.93	80.6178	3,481.93	77.0649	3,481.93	78.745	3,481.93	79.4409	3,481.93	76.7827	3,481.93	80.2082	3,481.93	75.1725	3,481.93	71.3221	3,481.93	69.8332	3,481.93	75.5284	3,481.93	69.7853	3,481.93	73.0501	3,481.93	68.6253	3,481.93	66.8855	3,481.93	68.0696	3,481.93	54.4686	3,481.93	65.4707	3,481.93	67.6202	3,481.93	67.1754	3,481.93	64.1788	3,481.93	67.8131	3,481.93	56.8951	3,481.93	62.6	3,481.93	64.4393	3,481.93	61.5526	3,481.93	64.1473	3,481.93	67.5587
3,604.98	82.7536	3,604.98	84.2232	3,604.98	77.4934	3,604.98	80.8304	3,604.98	77.1194	3,604.98	79.3911	3,604.98	83.1215	3,604.98	80.6275	3,604.98	80.6715	3,604.98	80.1275	3,604.98	75.7988	3,604.98	79.1817	3,604.98	81.6891	3,604.98	77.0898	3,604.98	79.436	3,604.98	73.6936	3,604.98	74.821	3,604.98	73.9706	3,604.98	76.7639	3,604.98	70.0545	3,604.98	75.3469	3,604.98	67.9128	3,604.98	70.4051	3,604.98	68.4053	3,604.98	64.3835	3,604.98	66.8796	3,604.98	68.0785	3,604.98	66.685	3,604.98	60.4542	3,604.98	66.8652	3,604.98	57.33	3,604.98	61.0535	3,604.98	62.5092	3,604.98	62.3764	3,604.98	65.0902	3,604.98	67.0756
3,732.42	83.9233	3,732.42	85.0314	3,732.42	78.8778	3,732.42	80.238	3,732.42	76.7971	3,732.42	79.2808	3,732.42	82.4926	3,732.42	80.8657	3,732.42	79.8367	3,732.42	80.1658	3,732.42	74.747	3,732.42	79.5887	3,732.42	81.7671	3,732.42	76.7474	3,732.42	80.2891	3,732.42	75.7928	3,732.42	75.2952	3,732.42	72.2264	3,732.42	74.7793	3,732.42	69.0972	3,732.42	76.4748	3,732.42	68.2817	3,732.42	71.1906	3,732.42	65.8009	3,732.42	69.0512	3,732.42	66.0754	3,732.42	67.5585	3,732.42	66.0506	3,732.42	56.9459	3,732.42	67.7583	3,732.42	62.057	3,732.42	62.3407	3,732.42	65.6027	3,732.42	59.2483	3,732.42	65.6467	3,732.42	66.3242
3,864.26	83.1876	3,864.26	84.6036	3,864.26	79.1768	3,864.26	79.5994	3,864.26	79.6455	3,864.26	80.2298	3,864.26	83.7062	3,864.26	80.7587	3,864.26	80.4606	3,864.26	82.1721	3,864.26	76.3972	3,864.26	79.6375	3,864.26	82.0417	3,864.26	78.0247	3,864.26	79.9987	3,864.26	73.6589	3,864.26	74.7192	3,864.26	69.2458	3,864.26	71.0667	3,864.26	68.0285	3,864.26	73.4222	3,864.26	67.2186	3,864.26	70.4058	3,864.26	65.9655	3,864.26	68.9998	3,864.26	65.41	3,864.26	68.6603	3,864.26	64.4818	3,864.26	47.2378	3,864.26	66.9326	3,864.26	63.1939	3,864.26	62.7159	3,864.26	68.3543	3,864.26	60.743	3,864.26	64.9021	3,864.26	64.8267
4,000.49	84.1737	4,000.49	83.6568	4,000.49	78.2373	4,000.49	79.1179	4,000.49	80.2531	4,000.49	80.9892	4,000.49	83.8357	4,000.49	81.9691	4,000.49	80.9096	4,000.49	80.294	4,000.49	77.9014	4,000.49	79.6304	4,000.49	80.5021	4,000.49	73.4874	4,000.49	78.9198	4,000.49	73.747	4,000.49	77.4897	4,000.49	72.4025	4,000.49	76.1695	4,000.49	69.1129	4,000.49	73.1806	4,000.49	65.8357	4,000.49	65.0369	4,000.49	64.4266	4,000.49	69.2641	4,000.49	63.322	4,000.49	64.4249	4,000.49	61.4642	4,000.49	55.1792	4,000.49	65.2765	4,000.49	64.7411	4,000.49	63.2839	4,000.49	67.0341	4,000.49	61.3732	4,000.49	63.7663	4,000.49	63.8521
4,141.11	85.5833	4,141.11	83.4514	4,141.11	80.5381	4,141.11	81.382	4,141.11	80.8596	4,141.11	80.1682	4,141.11	84.7485	4,141.11	81.9802	4,141.11	82.878	4,141.11	81.0483	4,141.11	78.1888	4,141.11	77.8984	4,141.11	80.123	4,141.11	75.5809	4,141.11	78.8098	4,141.11	75.0208	4,141.11	77.5061	4,141.11	66.0598	4,141.11	77.1219	4,141.11	65.8768	4,141.11	64.7796	4,141.11	66.13	4,141.11	58.1485	4,141.11	65.0256	4,141.11	70.3164	4,141.11	64.9421	4,141.11	67.8842	4,141.11	59.4205	4,141.11	55.1984	4,141.11	65.4885	4,141.11	65.6563	4,141.11	61.181	4,141.11	59.2859	4,141.11	58.5487	4,141.11	62.5876	4,141.11	64.118
4,287.6	85.2031	4,287.6	83.7653	4,287.6	80.7395	4,287.6	82.386	4,287.6	81.7031	4,287.6	80.6479	4,287.6	83.8615	4,287.6	83.1573	4,287.6	83.2291	4,287.6	79.7833	4,287.6	76.1862	4,287.6	76.6239	4,287.6	81.7066	4,287.6	75.0228	4,287.6	78.8076	4,287.6	70.2847	4,287.6	78.4227	4,287.6	73.9091	4,287.6	74.4803	4,287.6	67.676	4,287.6	66.3829	4,287.6	67.6574	4,287.6	68.6745	4,287.6	62.5544	4,287.6	69.9403	4,287.6	64.7357	4,287.6	66.9248	4,287.6	55.7559	4,287.6	60.6008	4,287.6	63.6725	4,287.6	65.5716	4,287.6	54.9129	4,287.6	58.9143	4,287.6	62.1707	4,287.6	62.8642	4,287.6	64.3001
4,438.48	84.7207	4,438.48	82.9121	4,438.48	82.5455	4,438.48	80.2726	4,438.48	82.4595	4,438.48	83.2698	4,438.48	83.1159	4,438.48	81.446	4,438.48	82.2293	4,438.48	79.6453	4,438.48	77.2635	4,438.48	75.3835	4,438.48	82.0565	4,438.48	74.0451	4,438.48	80.7444	4,438.48	74.0371	4,438.48	76.7084	4,438.48	65.2848	4,438.48	61.8431	4,438.48	67.8932	4,438.48	70.5266	4,438.48	65.4731	4,438.48	67.5355	4,438.48	66.4254	4,438.48	70.1176	4,438.48	63.1278	4,438.48	63.7928	4,438.48	64.8565	4,438.48	62.9071	4,438.48	63.3545	4,438.48	62.3651	4,438.48	65.8297	4,438.48	63.7018	4,438.48	59.6709	4,438.48	67.634	4,438.48	66.3128
4,595.21	85.5875	4,595.21	84.964	4,595.21	82.8954	4,595.21	82.8535	4,595.21	83.8962	4,595.21	82.8214	4,595.21	84.1863	4,595.21	82.2779	4,595.21	81.448	4,595.21	79.8662	4,595.21	77.523	4,595.21	77.2369	4,595.21	81.4378	4,595.21	74.9585	4,595.21	80.3035	4,595.21	71.5177	4,595.21	72.0784	4,595.21	71.2665	4,595.21	53.2208	4,595.21	68.6577	4,595.21	73.2934	4,595.21	66.9781	4,595.21	66.9491	4,595.21	63.9528	4,595.21	68.8089	4,595.21	65.9744	4,595.21	66.0393	4,595.21	66.0081	4,595.21	63.9251	4,595.21	55.2589	4,595.21	55.6105	4,595.21	67.514	4,595.21	66.4364	4,595.21	57.2438	4,595.21	67.6427	4,595.21	67.3672
4,756.35	86.6032	4,756.35	86.0397	4,756.35	83.9499	4,756.35	83.8861	4,756.35	83.9778	4,756.35	83.9067	4,756.35	85.8042	4,756.35	82.7727	4,756.35	79.7828	4,756.35	79.532	4,756.35	76.4327	4,756.35	76.2309	4,756.35	80.7505	4,756.35	74.3476	4,756.35	79.8075	4,756.35	74.1112	4,756.35	70.7059	4,756.35	68.5804	4,756.35	68.226	4,756.35	69.456	4,756.35	74.1775	4,756.35	63.4897	4,756.35	50.9246	4,756.35	64.5055	4,756.35	65.5367	4,756.35	64.2759	4,756.35	65.5777	4,756.35	63.7933	4,756.35	62.5102	4,756.35	59.9788	4,756.35	63.1676	4,756.35	66.8599	4,756.35	65.8326	4,756.35	60.7647	4,756.35	64.1874	4,756.35	65.7496
4,924.8	86.7067	4,924.8	85.9963	4,924.8	85.0229	4,924.8	83.1079	4,924.8	84.7787	4,924.8	84.3494	4,924.8	85.2864	4,924.8	81.9177	4,924.8	79.9756	4,924.8	80.1901	4,924.8	74.4215	4,924.8	75.3597	4,924.8	80.2443	4,924.8	73.7244	4,924.8	77.7613	4,924.8	70.3538	4,924.8	70.3596	4,924.8	70.3366	4,924.8	66.1904	4,924.8	66.0789	4,924.8	71.5528	4,924.8	66.9179	4,924.8	61.2224	4,924.8	64.9451	4,924.8	65.6952	4,924.8	62.88	4,924.8	68.1528	4,924.8	62.5925	4,924.8	61.4897	4,924.8	62.9112	4,924.8	59.1198	4,924.8	66.2565	4,924.8	65.2662	4,924.8	59.66	4,924.8	64.3763	4,924.8	63.7303
5,097.66	86.7259	5,097.66	86.0364	5,097.66	84.4085	5,097.66	84.5596	5,097.66	86.2472	5,097.66	85.0318	5,097.66	84.7714	5,097.66	82.4585	5,097.66	80.051	5,097.66	78.7756	5,097.66	75.7047	5,097.66	76.3697	5,097.66	77.904	5,097.66	74.6703	5,097.66	73.6754	5,097.66	73.1434	5,097.66	73.5257	5,097.66	69.5432	5,097.66	68.4393	5,097.66	68.4731	5,097.66	72.1236	5,097.66	66.6065	5,097.66	60.1971	5,097.66	64.6007	5,097.66	66.1596	5,097.66	64.9124	5,097.66	66.8142	5,097.66	64.1126	5,097.66	57.0773	5,097.66	64.8969	5,097.66	57.6689	5,097.66	65.6615	5,097.66	66.3696	5,097.66	60.6437	5,097.66	63.1548	5,097.66	61.72
5,277.83	87.3243	5,277.83	86.611	5,277.83	85.2071	5,277.83	84.8379	5,277.83	85.7867	5,277.83	85.4574	5,277.83	84.2639	5,277.83	82.5663	5,277.83	81.1014	5,277.83	78.896	5,277.83	78.0803	5,277.83	76.6964	5,277.83	72.0912	5,277.83	75.1291	5,277.83	76.6445	5,277.83	72.8881	5,277.83	75.9338	5,277.83	72.6701	5,277.83	69.703	5,277.83	68.9415	5,277.83	70.4377	5,277.83	66.6302	5,277.83	57.1869	5,277.83	66.0007	5,277.83	63.154	5,277.83	64.9674	5,277.83	65.8558	5,277.83	64.153	5,277.83	58.2895	5,277.83	66.1037	5,277.83	60.6548	5,277.83	66.0458	5,277.83	64.3007	5,277.83	60.6114	5,277.83	62.5779	5,277.83	57.8982
5,463.87	87.4113	5,463.87	85.9419	5,463.87	84.6843	5,463.87	86.1171	5,463.87	85.2056	5,463.87	85.8771	5,463.87	84.9819	5,463.87	81.5964	5,463.87	82.1381	5,463.87	79.0844	5,463.87	77.2786	5,463.87	78.1579	5,463.87	72.7341	5,463.87	77.5095	5,463.87	77.0256	5,463.87	74.2056	5,463.87	75.2621	5,463.87	69.9857	5,463.87	67.5031	5,463.87	68.6278	5,463.87	70.9244	5,463.87	65.8624	5,463.87	60.4589	5,463.87	64.6657	5,463.87	64.5206	5,463.87	64.7716	5,463.87	65.8018	5,463.87	64.718	5,463.87	43.7852	5,463.87	67.3742	5,463.87	59.1792	5,463.87	66.0999	5,463.87	57.0752	5,463.87	62.834	5,463.87	62.8095	5,463.87	59.4868
5,657.23	87.3814	5,657.23	85.7415	5,657.23	85.3035	5,657.23	87.1149	5,657.23	86.9311	5,657.23	84.7494	5,657.23	85.2956	5,657.23	81.854	5,657.23	83.8352	5,657.23	80.4624	5,657.23	75.2188	5,657.23	78.8564	5,657.23	75.7235	5,657.23	75.9449	5,657.23	78.7246	5,657.23	72.9115	5,657.23	78.22	5,657.23	70.8598	5,657.23	61.0622	5,657.23	67.0847	5,657.23	69.0513	5,657.23	64.0013	5,657.23	65.5698	5,657.23	64.4291	5,657.23	62.9489	5,657.23	59.4217	5,657.23	63.5573	5,657.23	64.2803	5,657.23	59.12	5,657.23	66.9905	5,657.23	59.5804	5,657.23	62.1231	5,657.23	62.8333	5,657.23	63.248	5,657.23	62.4217	5,657.23	59.9063
5,856.45	87.0154	5,856.45	86.949	5,856.45	84.6282	5,856.45	86.9196	5,856.45	87.9633	5,856.45	84.3771	5,856.45	84.9767	5,856.45	81.5819	5,856.45	84.1967	5,856.45	81.154	5,856.45	76.5357	5,856.45	77.815	5,856.45	78.0539	5,856.45	75.2994	5,856.45	80.6156	5,856.45	69.7438	5,856.45	77.1597	5,856.45	67.8336	5,856.45	63.7217	5,856.45	67.3592	5,856.45	57.5047	5,856.45	65.0018	5,856.45	62.4844	5,856.45	64.5629	5,856.45	63.5832	5,856.45	62.397	5,856.45	64.1228	5,856.45	63.873	5,856.45	58.2054	5,856.45	65.6232	5,856.45	59.3979	5,856.45	64.3597	5,856.45	63.2528	5,856.45	62.1711	5,856.45	59.2888	5,856.45	56.4647
6,062.99	87.6163	6,062.99	87.0444	6,062.99	84.9954	6,062.99	86.3308	6,062.99	86.618	6,062.99	84.6707	6,062.99	85.6126	6,062.99	81.9231	6,062.99	83.0055	6,062.99	81.6787	6,062.99	73.8601	6,062.99	77.2141	6,062.99	79.7394	6,062.99	75.0745	6,062.99	80.3963	6,062.99	74.0365	6,062.99	75.5453	6,062.99	71.9249	6,062.99	71.3068	6,062.99	69.4045	6,062.99	60.427	6,062.99	67.8547	6,062.99	60.1848	6,062.99	67.4102	6,062.99	65.1409	6,062.99	65.7298	6,062.99	57.2794	6,062.99	66.7393	6,062.99	54.2793	6,062.99	64.8076	6,062.99	59.5345	6,062.99	68.5383	6,062.99	57.9661	6,062.99	64.6195	6,062.99	57.8371	6,062.99	48.776
6,276.86	88.4086	6,276.86	86.1217	6,276.86	85.5849	6,276.86	85.6299	6,276.86	86.9863	6,276.86	84.2354	6,276.86	83.1013	6,276.86	83.1203	6,276.86	81.1827	6,276.86	81.5107	6,276.86	71.969	6,276.86	78.9821	6,276.86	79.8426	6,276.86	78.1652	6,276.86	80.8894	6,276.86	75.983	6,276.86	70.8001	6,276.86	73.9783	6,276.86	71.345	6,276.86	69.9551	6,276.86	64.1592	6,276.86	69.2712	6,276.86	65.3253	6,276.86	68.6413	6,276.86	57.7833	6,276.86	67.2671	6,276.86	59.0121	6,276.86	69.4921	6,276.86	57.8383	6,276.86	65.3463	6,276.86	53.2989	6,276.86	69.0091	6,276.86	59.5847	6,276.86	63.8925	6,276.86	61.4051	6,276.86	43.3617
6,498.05	88.9381	6,498.05	86.3888	6,498.05	86.3419	6,498.05	85.9732	6,498.05	86.8365	6,498.05	83.3129	6,498.05	80.8817	6,498.05	83.3925	6,498.05	76.7546	6,498.05	81.1597	6,498.05	77.5054	6,498.05	79.3916	6,498.05	77.0377	6,498.05	78.3156	6,498.05	79.9679	6,498.05	74.1258	6,498.05	76.0679	6,498.05	71.8553	6,498.05	73.7078	6,498.05	68.9593	6,498.05	68.2923	6,498.05	66.7613	6,498.05	61.5463	6,498.05	65.9154	6,498.05	59.3898	6,498.05	65.7026	6,498.05	50.3318	6,498.05	67.1864	6,498.05	59.0679	6,498.05	64.1054	6,498.05	58.6946	6,498.05	69.2055	6,498.05	55.0656	6,498.05	61.2696	6,498.05	61.2575	6,498.05	49.4953
6,726.56	88.5615	6,726.56	86.2054	6,726.56	86.5807	6,726.56	85.9962	6,726.56	86.4603	6,726.56	83.0572	6,726.56	79.7986	6,726.56	82.3248	6,726.56	79.0831	6,726.56	80.4979	6,726.56	79.0554	6,726.56	78.2603	6,726.56	76.297	6,726.56	75.7857	6,726.56	78.4261	6,726.56	71.381	6,726.56	77.4674	6,726.56	69.532	6,726.56	71.2761	6,726.56	64.8727	6,726.56	60.4752	6,726.56	65.1356	6,726.56	52.2826	6,726.56	62.9479	6,726.56	55.7752	6,726.56	61.6311	6,726.56	55.8215	6,726.56	63.8232	6,726.56	60.1685	6,726.56	65.6187	6,726.56	55.3526	6,726.56	66.4192	6,726.56	52.0409	6,726.56	57.4881	6,726.56	55.9071	6,726.56	44.0457
6,963.87	88.6106	6,963.87	86.2283	6,963.87	85.37	6,963.87	85.9489	6,963.87	85.9573	6,963.87	82.9302	6,963.87	82.9529	6,963.87	82.1475	6,963.87	82.3525	6,963.87	80.4629	6,963.87	80.2209	6,963.87	76.5684	6,963.87	75.2824	6,963.87	74.569	6,963.87	77.2902	6,963.87	70.0718	6,963.87	77.3786	6,963.87	68.0157	6,963.87	70.5598	6,963.87	65.1755	6,963.87	48.4986	6,963.87	61.4801	6,963.87	58.0546	6,963.87	62.5942	6,963.87	54.4171	6,963.87	60.535	6,963.87	57.917	6,963.87	63.6353	6,963.87	60.721	6,963.87	64.0075	6,963.87	58.0894	6,963.87	64.3213	6,963.87	41.6647	6,963.87	58.7416	6,963.87	56.1858	6,963.87	19.1066
7,209.96	88.6325	7,209.96	86.4468	7,209.96	86.6825	7,209.96	86.3441	7,209.96	85.1425	7,209.96	83.3457	7,209.96	84.6047	7,209.96	81.7562	7,209.96	83.1626	7,209.96	80.2861	7,209.96	81.1158	7,209.96	76.5028	7,209.96	72.8962	7,209.96	74.5703	7,209.96	76.8034	7,209.96	70.5914	7,209.96	75.1591	7,209.96	67.9344	7,209.96	64.1193	7,209.96	65.5794	7,209.96	59.2736	7,209.96	62.0152	7,209.96	57.5851	7,209.96	61.0321	7,209.96	56.6143	7,209.96	61.3984	7,209.96	59.3989	7,209.96	62.9375	7,209.96	60.5692	7,209.96	63.7596	7,209.96	56.5695	7,209.96	64.6381	7,209.96	54.3358	7,209.96	61.7549	7,209.96	59.1939	7,209.96	39.4721
7,464.84	87.8585	7,464.84	86.8023	7,464.84	86.6889	7,464.84	86.1206	7,464.84	85.4743	7,464.84	83.3238	7,464.84	83.7367	7,464.84	82.2682	7,464.84	83.1968	7,464.84	79.9224	7,464.84	79.9481	7,464.84	76.9695	7,464.84	73.7644	7,464.84	74.3436	7,464.84	75.3007	7,464.84	69.5764	7,464.84	72.3554	7,464.84	67.791	7,464.84	64.6916	7,464.84	65.794	7,464.84	65.7862	7,464.84	60.5156	7,464.84	38.8247	7,464.84	61.9245	7,464.84	52.2003	7,464.84	61.2838	7,464.84	60.2888	7,464.84	63.1972	7,464.84	47.7414	7,464.84	62.4303	7,464.84	57.7076	7,464.84	63.5582	7,464.84	49.1297	7,464.84	60.449	7,464.84	55.2776	7,464.84	42.3855
7,727.05	88.5611	7,727.05	87.0216	7,727.05	86.2015	7,727.05	86.6603	7,727.05	84.8274	7,727.05	83.487	7,727.05	81.52	7,727.05	82.052	7,727.05	82.0913	7,727.05	79.9996	7,727.05	79.6962	7,727.05	76.813	7,727.05	72.2773	7,727.05	74.1866	7,727.05	73.5276	7,727.05	70.3162	7,727.05	69.3981	7,727.05	67.8452	7,727.05	66.1001	7,727.05	65.5872	7,727.05	64.6894	7,727.05	60.7356	7,727.05	50.9129	7,727.05	62.4464	7,727.05	42.2744	7,727.05	63.0587	7,727.05	58.52	7,727.05	62.1114	7,727.05	52.1223	7,727.05	61.0673	7,727.05	57.7179	7,727.05	62.942	7,727.05	46.4354	7,727.05	63.9335	7,727.05	58.6527	7,727.05	40.3668
7,999.51	88.2483	7,999.51	86.6903	7,999.51	86.6092	7,999.51	86.3613	7,999.51	85.2292	7,999.51	83.1993	7,999.51	79.2044	7,999.51	82.0484	7,999.51	81.3459	7,999.51	79.9317	7,999.51	79.8945	7,999.51	76.308	7,999.51	73.7834	7,999.51	73.524	7,999.51	71.7857	7,999.51	70.0376	7,999.51	70.2755	7,999.51	66.9974	7,999.51	65.4684	7,999.51	64.7381	7,999.51	56.9594	7,999.51	60.5705	7,999.51	52.7818	7,999.51	60.0063	7,999.51	56.9817	7,999.51	63.1618	7,999.51	49.1824	7,999.51	61.9169	7,999.51	60.6367	7,999.51	63.0177	7,999.51	53.8936	7,999.51	64.4474	7,999.51	47.1354	7,999.51	61.8492	7,999.51	61.2222	7,999.51	38.4902
8,282.23	88.1693	8,282.23	87.1363	8,282.23	85.6202	8,282.23	86.1475	8,282.23	85.6424	8,282.23	83.3911	8,282.23	82.2222	8,282.23	81.2179	8,282.23	80.4746	8,282.23	79.1904	8,282.23	79.9335	8,282.23	75.2307	8,282.23	74.9645	8,282.23	72.6004	8,282.23	66.0726	8,282.23	70.1751	8,282.23	71.595	8,282.23	66.5857	8,282.23	67.5386	8,282.23	64.7565	8,282.23	66.7319	8,282.23	59.7596	8,282.23	51.9248	8,282.23	60.8723	8,282.23	55.8741	8,282.23	61.7427	8,282.23	55.5263	8,282.23	61.0277	8,282.23	59.4351	8,282.23	61.4835	8,282.23	53.6503	8,282.23	64.3951	8,282.23	46.1566	8,282.23	64.5309	8,282.23	57.6509	8,282.23	48.3809
8,573.73	88.1414	8,573.73	87.2515	8,573.73	86.5394	8,573.73	85.843	8,573.73	85.7477	8,573.73	82.7942	8,573.73	84.5701	8,573.73	81.2424	8,573.73	80.4249	8,573.73	78.2756	8,573.73	80.5257	8,573.73	75.6405	8,573.73	69.4853	8,573.73	72.2847	8,573.73	65.7472	8,573.73	68.5743	8,573.73	74.763	8,573.73	64.7117	8,573.73	71.8349	8,573.73	64.0913	8,573.73	56.6936	8,573.73	58.4854	8,573.73	54.6992	8,573.73	57.7009	8,573.73	56.403	8,573.73	61.1197	8,573.73	48.87	8,573.73	60.7801	8,573.73	60.5902	8,573.73	59.4533	8,573.73	44.5448	8,573.73	64.7381	8,573.73	51.83	8,573.73	63.2092	8,573.73	59.7539	8,573.73	51.8315
8,876.95	87.7396	8,876.95	87.3815	8,876.95	86.3388	8,876.95	85.7903	8,876.95	84.7448	8,876.95	83.1612	8,876.95	84.7392	8,876.95	81.5257	8,876.95	80.5005	8,876.95	78.2821	8,876.95	79.8653	8,876.95	75.849	8,876.95	70.2735	8,876.95	72.872	8,876.95	71.6353	8,876.95	70.2993	8,876.95	77.2596	8,876.95	66.5951	8,876.95	69.6771	8,876.95	61.7844	8,876.95	60.4241	8,876.95	59.4957	8,876.95	52.2409	8,876.95	60.3855	8,876.95	47.5711	8,876.95	60.0935	8,876.95	52.608	8,876.95	59.4666	8,876.95	60.7885	8,876.95	60.7469	8,876.95	53.1967	8,876.95	65.0394	8,876.95	55.5703	8,876.95	63.7835	8,876.95	57.6608	8,876.95	36.8102
9,188.96	87.505	9,188.96	87.3053	9,188.96	86.9154	9,188.96	85.6916	9,188.96	85.5583	9,188.96	83.1161	9,188.96	83.2018	9,188.96	81.4204	9,188.96	81.1054	9,188.96	78.4308	9,188.96	77.2888	9,188.96	75.9999	9,188.96	71.0293	9,188.96	73.73	9,188.96	73.1107	9,188.96	69.1593	9,188.96	75.9569	9,188.96	65.4742	9,188.96	70.2127	9,188.96	63.447	9,188.96	67.339	9,188.96	58.3135	9,188.96	59.2455	9,188.96	60.5262	9,188.96	54.1065	9,188.96	61.6214	9,188.96	57.1608	9,188.96	60.7849	9,188.96	61.3848	9,188.96	59.5428	9,188.96	53.078	9,188.96	64.1573	9,188.96	55.1795	9,188.96	64.6677	9,188.96	57.4691	9,188.96	48.0439
9,514.16	87.4128	9,514.16	87.3916	9,514.16	87.12	9,514.16	85.5332	9,514.16	86.3387	9,514.16	83.4084	9,514.16	82.9156	9,514.16	81.0803	9,514.16	81.3892	9,514.16	78.1983	9,514.16	74.6937	9,514.16	76.5158	9,514.16	76.9627	9,514.16	72.6072	9,514.16	73.7844	9,514.16	70.4105	9,514.16	75.0615	9,514.16	66.7483	9,514.16	65.3463	9,514.16	63.6235	9,514.16	69.3419	9,514.16	60.3117	9,514.16	63.6284	9,514.16	59.2615	9,514.16	55.8331	9,514.16	60.1827	9,514.16	59.0101	9,514.16	60.529	9,514.16	60.9051	9,514.16	58.4015	9,514.16	45.3164	9,514.16	63.9062	9,514.16	53.5649	9,514.16	62.6255	9,514.16	54.4376	9,514.16	43.5716
9,849.61	87.2066	9,849.61	87.3907	9,849.61	87.1316	9,849.61	85.774	9,849.61	85.8939	9,849.61	83.3719	9,849.61	83.9005	9,849.61	80.8723	9,849.61	81.5045	9,849.61	78.488	9,849.61	76.0525	9,849.61	76.9111	9,849.61	79.5086	9,849.61	73.338	9,849.61	71.0246	9,849.61	70.2637	9,849.61	74.2183	9,849.61	64.4198	9,849.61	65.3013	9,849.61	61.6741	9,849.61	62.2281	9,849.61	60.2693	9,849.61	61.2506	9,849.61	59.7495	9,849.61	54.6607	9,849.61	59.6951	9,849.61	53.0534	9,849.61	59.3793	9,849.61	59.3313	9,849.61	58.3005	9,849.61	53.8325	9,849.61	62.7457	9,849.61	57.3026	9,849.61	62.9749	9,849.61	53.6755	9,849.61	49.0097
10,196.8	86.6594	10,196.8	87.4505	10,196.8	87.1546	10,196.8	86.3882	10,196.8	86.2695	10,196.8	83.2962	10,196.8	84.289	10,196.8	80.8813	10,196.8	80.7569	10,196.8	79.0168	10,196.8	78.8567	10,196.8	77.3728	10,196.8	79.4156	10,196.8	73.0688	10,196.8	66.453	10,196.8	69.5309	10,196.8	72.7319	10,196.8	63.8846	10,196.8	62.8151	10,196.8	62.3158	10,196.8	51.8698	10,196.8	55.402	10,196.8	57.567	10,196.8	57.9055	10,196.8	52.4784	10,196.8	60.8682	10,196.8	45.2511	10,196.8	59.305	10,196.8	55.6021	10,196.8	60.146	10,196.8	56.0566	10,196.8	61.7127	10,196.8	55.9381	10,196.8	63.6009	10,196.8	57.1083	10,196.8	49.5327
10,555.7	86.3454	10,555.7	86.9837	10,555.7	86.6446	10,555.7	86.5553	10,555.7	86.1692	10,555.7	83.511	10,555.7	83.5396	10,555.7	81.1715	10,555.7	80.5746	10,555.7	79.6953	10,555.7	81.1838	10,555.7	77.5834	10,555.7	78.727	10,555.7	72.2114	10,555.7	70.0467	10,555.7	69.4406	10,555.7	72.7169	10,555.7	64.7179	10,555.7	66.794	10,555.7	60.9747	10,555.7	61.6268	10,555.7	57.1436	10,555.7	56.7458	10,555.7	57.3652	10,555.7	53.0842	10,555.7	58.6634	10,555.7	45.7453	10,555.7	57.2545	10,555.7	52.3305	10,555.7	61.9557	10,555.7	58.6039	10,555.7	61.5148	10,555.7	57.721	10,555.7	63.0902	10,555.7	57.0572	10,555.7	53.7104
10,927.7	86.2116	10,927.7	86.969	10,927.7	87.1163	10,927.7	86.7128	10,927.7	86.9613	10,927.7	83.2276	10,927.7	83.5779	10,927.7	81.9985	10,927.7	81.417	10,927.7	79.9272	10,927.7	82.7343	10,927.7	77.2912	10,927.7	76.0686	10,927.7	72.2524	10,927.7	72.7364	10,927.7	70.6146	10,927.7	72.7381	10,927.7	64.4161	10,927.7	66.7402	10,927.7	63.0725	10,927.7	67.9646	10,927.7	59.1931	10,927.7	49.8006	10,927.7	58.5643	10,927.7	46.2236	10,927.7	60.5299	10,927.7	54.5309	10,927.7	58.2901	10,927.7	55.1309	10,927.7	63.3392	10,927.7	55.0359	10,927.7	62.4371	10,927.7	57.7899	10,927.7	63.96	10,927.7	56.3444	10,927.7	55.1269
11,313	85.9893	11,313	86.9834	11,313	87.2966	11,313	86.7526	11,313	87.049	11,313	83.2959	11,313	85.3634	11,313	82.7504	11,313	82.7943	11,313	79.2505	11,313	83.4751	11,313	77.4956	11,313	74.8031	11,313	72.9141	11,313	69.6562	11,313	68.114	11,313	72.6065	11,313	63.0165	11,313	64.3721	11,313	61.2937	11,313	69.3286	11,313	51.9291	11,313	50.5959	11,313	56.9033	11,313	51.8053	11,313	62.0243	11,313	49.9279	11,313	59.1477	11,313	45.6976	11,313	61.9867	11,313	57.4931	11,313	60.6137	11,313	55.9518	11,313	62.9564	11,313	57.8993	11,313	53.396
11,712.9	85.4033	11,712.9	86.7938	11,712.9	87.2805	11,712.9	86.4303	11,712.9	86.4942	11,712.9	83.9035	11,712.9	86.3428	11,712.9	83.0573	11,712.9	82.6681	11,712.9	79.639	11,712.9	82.8051	11,712.9	78.1939	11,712.9	77.0911	11,712.9	72.3888	11,712.9	69.6768	11,712.9	69.0584	11,712.9	74.5855	11,712.9	65.1356	11,712.9	69.3343	11,712.9	60.3418	11,712.9	69.821	11,712.9	54.0379	11,712.9	51.3856	11,712.9	56.8709	11,712.9	45.7413	11,712.9	62.1313	11,712.9	53.1382	11,712.9	60.361	11,712.9	47.6791	11,712.9	60.9012	11,712.9	52.3757	11,712.9	60.7349	11,712.9	51.7747	11,712.9	60.7774	11,712.9	57.8067	11,712.9	53.2027
12,126	85.5202	12,126	87.0553	12,126	87.038	12,126	86.5654	12,126	86.785	12,126	85.0023	12,126	84.3801	12,126	83.8444	12,126	84.3227	12,126	80.1483	12,126	81.1812	12,126	78.933	12,126	76.2633	12,126	72.8847	12,126	72.2595	12,126	68.9256	12,126	72.2211	12,126	65.2498	12,126	68.136	12,126	59.8133	12,126	66.0189	12,126	58.4941	12,126	46.1857	12,126	55.3241	12,126	44.6951	12,126	60.3727	12,126	54.9362	12,126	59.9519	12,126	50.7122	12,126	61.9235	12,126	45.8743	12,126	58.34	12,126	59.3894	12,126	60.4599	12,126	58.2591	12,126	51.3118
12,553.7	86.302	12,553.7	87.7356	12,553.7	86.8426	12,553.7	87.0475	12,553.7	87.4659	12,553.7	86.0188	12,553.7	85.8138	12,553.7	84.4049	12,553.7	85.2588	12,553.7	81.2316	12,553.7	79.8947	12,553.7	79.0689	12,553.7	77.2922	12,553.7	73.4571	12,553.7	73.3264	12,553.7	70.0633	12,553.7	72.1483	12,553.7	65.9093	12,553.7	67.0723	12,553.7	61.6016	12,553.7	62.2663	12,553.7	57.0304	12,553.7	59.7529	12,553.7	56.2052	12,553.7	57.2879	12,553.7	62.384	12,553.7	49.3058	12,553.7	60.3308	12,553.7	47.5952	12,553.7	62.3733	12,553.7	50.2902	12,553.7	58.7079	12,553.7	59.6194	12,553.7	58.1608	12,553.7	58.2034	12,553.7	53.3915
12,996.1	87.7215	12,996.1	87.8322	12,996.1	87.239	12,996.1	87.7163	12,996.1	88.0127	12,996.1	86.7335	12,996.1	87.8811	12,996.1	85.3715	12,996.1	85.7557	12,996.1	81.2943	12,996.1	81.1889	12,996.1	79.4577	12,996.1	78.0875	12,996.1	74.7621	12,996.1	75.1682	12,996.1	70.4682	12,996.1	71.8213	12,996.1	66.4053	12,996.1	67.9222	12,996.1	61.5381	12,996.1	62.7225	12,996.1	52.2413	12,996.1	58.477	12,996.1	55.3283	12,996.1	58.2788	12,996.1	62.7259	12,996.1	53.5605	12,996.1	59.7358	12,996.1	50.1372	12,996.1	60.747	12,996.1	41.4778	12,996.1	56.3396	12,996.1	59.5573	12,996.1	53.6779	12,996.1	57.3764	12,996.1	47.4391
13,454.6	88.6307	13,454.6	88.1396	13,454.6	87.9103	13,454.6	88.8123	13,454.6	87.9806	13,454.6	87.5666	13,454.6	88.1141	13,454.6	85.9988	13,454.6	84.434	13,454.6	81.6808	13,454.6	82.6427	13,454.6	79.834	13,454.6	79.4018	13,454.6	74.4573	13,454.6	72.8315	13,454.6	69.2723	13,454.6	68.2333	13,454.6	64.5303	13,454.6	66.3492	13,454.6	59.3547	13,454.6	67.461	13,454.6	54.644	13,454.6	59.5141	13,454.6	53.8837	13,454.6	55.0726	13,454.6	62.5744	13,454.6	55.9104	13,454.6	59.058	13,454.6	45.9244	13,454.6	60.4217	13,454.6	52.2974	13,454.6	54.6562	13,454.6	58.4924	13,454.6	52.9732	13,454.6	52.6065	13,454.6	43.6295
13,929.2	89.5636	13,929.2	88.5965	13,929.2	88.0018	13,929.2	89.8016	13,929.2	89.387	13,929.2	88.5468	13,929.2	88.5668	13,929.2	86.3931	13,929.2	85.4058	13,929.2	81.7073	13,929.2	83.2682	13,929.2	80.0369	13,929.2	77.398	13,929.2	72.3175	13,929.2	73.5588	13,929.2	67.0577	13,929.2	65.1373	13,929.2	63.4217	13,929.2	63.9743	13,929.2	53.9859	13,929.2	68.2503	13,929.2	54.9198	13,929.2	57.1164	13,929.2	53.7373	13,929.2	50.1446	13,929.2	60.2202	13,929.2	59.1606	13,929.2	56.3734	13,929.2	49.8828	13,929.2	59.4161	13,929.2	50.5759	13,929.2	55.0054	13,929.2	55.4954	13,929.2	49.6164	13,929.2	47.3376	13,929.2	49.6403
14,419.9	89.9289	14,419.9	89.1329	14,419.9	88.4628	14,419.9	90.3681	14,419.9	89.4111	14,419.9	89.3347	14,419.9	90.0498	14,419.9	86.5835	14,419.9	87.1706	14,419.9	82.2094	14,419.9	84.05	14,419.9	79.6292	14,419.9	79.5275	14,419.9	71.0425	14,419.9	71.9689	14,419.9	66.2436	14,419.9	69.4558	14,419.9	63.5214	14,419.9	57.9463	14,419.9	54.3711	14,419.9	68.0686	14,419.9	55.5387	14,419.9	51.0561	14,419.9	56.1201	14,419.9	57.0972	14,419.9	60.1675	14,419.9	55.6373	14,419.9	55.1918	14,419.9	46.4511	14,419.9	59.5057	14,419.9	49.7474	14,419.9	54.4644	14,419.9	57.7502	14,419.9	32.8971	14,419.9	54.4812	14,419.9	54.1517
14,928.2	90.155	14,928.2	89.965	14,928.2	89.6474	14,928.2	91.0396	14,928.2	90.2994	14,928.2	90.1183	14,928.2	90.0089	14,928.2	87.3645	14,928.2	87.8977	14,928.2	82.5622	14,928.2	83.5989	14,928.2	79.0093	14,928.2	78.3033	14,928.2	70.1261	14,928.2	70.6816	14,928.2	65.5158	14,928.2	60.1142	14,928.2	63.1779	14,928.2	57.9819	14,928.2	49.626	14,928.2	65.4659	14,928.2	57.9796	14,928.2	38.3754	14,928.2	56.8313	14,928.2	56.0233	14,928.2	59.1101	14,928.2	55.708	14,928.2	53.0524	14,928.2	40.8674	14,928.2	59.1839	14,928.2	42.6928	14,928.2	57.2007	14,928.2	51.6292	14,928.2	47.955	14,928.2	54.537	14,928.2	49.9907
15,455.6	90.2328	15,455.6	90.9117	15,455.6	90.4349	15,455.6	91.85	15,455.6	91.0587	15,455.6	90.2626	15,455.6	90.4474	15,455.6	87.8707	15,455.6	86.7297	15,455.6	81.9003	15,455.6	82.95	15,455.6	77.4657	15,455.6	75.2885	15,455.6	68.1656	15,455.6	67.8242	15,455.6	61.4975	15,455.6	60.9767	15,455.6	61.5509	15,455.6	52.6291	15,455.6	40.5908	15,455.6	67.2757	15,455.6	56.4584	15,455.6	45.077	15,455.6	56.5578	15,455.6	55.5007	15,455.6	60.0092	15,455.6	55.1747	15,455.6	52.7025	15,455.6	47.5099	15,455.6	59.4217	15,455.6	36.2917	15,455.6	55.1444	15,455.6	42.5497	15,455.6	51.1934	15,455.6	49.0428	15,455.6	45.1516
16,000.5	90.3318	16,000.5	91.1648	16,000.5	90.4673	16,000.5	91.5832	16,000.5	90.0812	16,000.5	89.7467	16,000.5	88.8003	16,000.5	87.3221	16,000.5	84.4692	16,000.5	80.2251	16,000.5	82.0612	16,000.5	75.2058	16,000.5	73.7697	16,000.5	61.6926	16,000.5	64.6512	16,000.5	51.3209	16,000.5	60.4147	16,000.5	56.1982	16,000.5	53.6331	16,000.5	51.2357	16,000.5	67.2202	16,000.5	54.9577	16,000.5	54.4239	16,000.5	53.0686	16,000.5	51.2825	16,000.5	55.256	16,000.5	53.4767	16,000.5	43.9325	16,000.5	51.0745	16,000.5	52.9187	16,000.5	40.4335	16,000.5	43.8797	16,000.5	51.1267	16,000.5	39.2934	16,000.5	44.8931	16,000.5	51.1497
16,564.5	88.342	16,564.5	89.1103	16,564.5	87.7864	16,564.5	88.9817	16,564.5	86.7535	16,564.5	86.4338	16,564.5	84.8341	16,564.5	83.1204	16,564.5	80.7734	16,564.5	74.2949	16,564.5	74.9935	16,564.5	67.3801	16,564.5	65.3523	16,564.5	56.9495	16,564.5	50.545	16,564.5	55.3946	16,564.5	41.3449	16,564.5	49.1498	16,564.5	35.4322	16,564.5	51.5574	16,564.5	61.2233	16,564.5	47.6892	16,564.5	51.3888	16,564.5	42.1294	16,564.5	45.4046	16,564.5	31.9189	16,564.5	47.2112	16,564.5	38.2717	16,564.5	47.2224	16,564.5	46.8238	16,564.5	37.8537	16,564.5	47.6735	16,564.5	46.1439	16,564.5	44.526	16,564.5	47.6163	16,564.5	45.5773
17,148.9	87.7425	17,148.9	88.3747	17,148.9	86.6087	17,148.9	88.0349	17,148.9	85.0044	17,148.9	85.4423	17,148.9	83.4476	17,148.9	81.6545	17,148.9	79.3473	17,148.9	71.9434	17,148.9	71.4607	17,148.9	63.7193	17,148.9	62.5803	17,148.9	61.7846	17,148.9	48.8915	17,148.9	58.6605	17,148.9	50.4142	17,148.9	54.4747	17,148.9	36.5145	17,148.9	53.1404	17,148.9	61.087	17,148.9	43.2549	17,148.9	51.0419	17,148.9	42.2294	17,148.9	46.9942	17,148.9	47.1086	17,148.9	45.9027	17,148.9	40.5235	17,148.9	41.2962	17,148.9	49.5827	17,148.9	37.9116	17,148.9	47.5607	17,148.9	38.0574	17,148.9	48.884	17,148.9	41.9187	17,148.9	39.9905
17,752.4	88.1123	17,752.4	88.5772	17,752.4	86.4483	17,752.4	87.4518	17,752.4	83.5242	17,752.4	84.1953	17,752.4	80.6548	17,752.4	79.7427	17,752.4	75.9678	17,752.4	69.0128	17,752.4	70.571	17,752.4	64.9235	17,752.4	61.554	17,752.4	65.0929	17,752.4	49.6565	17,752.4	60.4357	17,752.4	42.0391	17,752.4	57.2627	17,752.4	38.426	17,752.4	54.4206	17,752.4	60.7142	17,752.4	44	17,752.4	52.3107	17,752.4	39.9558	17,752.4	46.3494	17,752.4	47.9005	17,752.4	45.0437	17,752.4	43.1268	17,752.4	39.6798	17,752.4	49.1162	17,752.4	35.947	17,752.4	46.096	17,752.4	41.0561	17,752.4	51.3152	17,752.4	49.2866	17,752.4	43.3559
18,379.4	88.9643	18,379.4	89.0616	18,379.4	86.806	18,379.4	87.2487	18,379.4	82.624	18,379.4	83.472	18,379.4	79.1902	18,379.4	78.7385	18,379.4	74.6633	18,379.4	67.6161	18,379.4	69.3112	18,379.4	67.6902	18,379.4	60.0042	18,379.4	67.1339	18,379.4	52.9071	18,379.4	62.8102	18,379.4	48.5108	18,379.4	59.2157	18,379.4	31.182	18,379.4	54.1153	18,379.4	60.5434	18,379.4	47.5121	18,379.4	55.1853	18,379.4	41.8535	18,379.4	44.164	18,379.4	47.4235	18,379.4	47.1326	18,379.4	44.8443	18,379.4	35.9313	18,379.4	46.2003	18,379.4	41.3309	18,379.4	40.6645	18,379.4	50.8113	18,379.4	46.8085	18,379.4	56.4865	18,379.4	43.495
19,026.9	89.5592	19,026.9	88.7473	19,026.9	86.9926	19,026.9	85.9881	19,026.9	81.9145	19,026.9	81.8006	19,026.9	77.8862	19,026.9	77.773	19,026.9	76.1468	19,026.9	68.3198	19,026.9	70.4937	19,026.9	69.3342	19,026.9	63.6803	19,026.9	67.6414	19,026.9	50.3302	19,026.9	63.1178	19,026.9	38.5192	19,026.9	59.7269	19,026.9	36.5044	19,026.9	54.7526	19,026.9	59.4692	19,026.9	46.1294	19,026.9	54.3934	19,026.9	34.6351	19,026.9	45.3648	19,026.9	39.7512	19,026.9	46.6857	19,026.9	47.5323	19,026.9	38.5944	19,026.9	48.4569	19,026.9	42.6758	19,026.9	50.3491	19,026.9	48.467	19,026.9	50.7771	19,026.9	52.1015	19,026.9	54.231
19,697.8	87.632	19,697.8	85.4043	19,697.8	85.3016	19,697.8	80.3191	19,697.8	78.9656	19,697.8	76.4236	19,697.8	75.7873	19,697.8	75.052	19,697.8	76.5425	19,697.8	65.4915	19,697.8	75.5199	19,697.8	65.2199	19,697.8	69.7583	19,697.8	64.0561	19,697.8	61.302	19,697.8	59.2745	19,697.8	56.8158	19,697.8	57.7806	19,697.8	39.3455	19,697.8	52.289	19,697.8	58.0177	19,697.8	41.6706	19,697.8	53.0097	19,697.8	31.4853	19,697.8	45.2418	19,697.8	43.9085	19,697.8	47.7006	19,697.8	46.7616	19,697.8	44.8677	19,697.8	47.0876	19,697.8	21.393	19,697.8	46.9166	19,697.8	49.0652	19,697.8	49.4237	19,697.8	53.2994	19,697.8	58.5395
19,999.5	85.3915	19,999.5	82.6813	19,999.5	83.9173	19,999.5	73.5747	19,999.5	75.7896	19,999.5	72.6597	19,999.5	72.2716	19,999.5	73.3375	19,999.5	75.4991	19,999.5	64.3381	19,999.5	77.1348	19,999.5	58.9686	19,999.5	70.3944	19,999.5	60.3683	19,999.5	63.9849	19,999.5	53.2843	19,999.5	60.3149	19,999.5	55.3005	19,999.5	45.6035	19,999.5	50.1795	19,999.5	55.6724	19,999.5	40.2087	19,999.5	54.0516	19,999.5	42.3037	19,999.5	36.8762	19,999.5	50.7029	19,999.5	50.5605	19,999.5	43.3063	19,999.5	44.6588	19,999.5	45.1853	19,999.5	35.0386	19,999.5	49.0283	19,999.5	48.387	19,999.5	25.0962	19,999.5	51.2873	19,999.5	53.2163
