"SPL Horizontal"
"On-Axis"		"10°"		"-10°"		"20°"		"-20°"		"30°"		"-30°"		"40°"		"-40°"		"50°"		"-50°"		"60°"		"-60°"		"70°"		"-70°"		"80°"		"-80°"		"90°"		"-90°"		"100°"		"-100°"		"110°"		"-110°"		"120°"		"-120°"		"130°"		"-130°"		"140°"		"-140°"		"150°"		"-150°"		"160°"		"-160°"		"170°"		"-170°"		"180°"
"Frequency [Hz]"	"Sound Pessure Level [dB]  / [2.83V 1m] "	"Frequency [Hz]"	"Sound Pessure Level [dB]  / [2.83V 1m] "	"Frequency [Hz]"	"Sound Pessure Level [dB]  / [2.83V 1m] "	"Frequency [Hz]"	"Sound Pessure Level [dB]  / [2.83V 1m] "	"Frequency [Hz]"	"Sound Pessure Level [dB]  / [2.83V 1m] "	"Frequency [Hz]"	"Sound Pessure Level [dB]  / [2.83V 1m] "	"Frequency [Hz]"	"Sound Pessure Level [dB]  / [2.83V 1m] "	"Frequency [Hz]"	"Sound Pessure Level [dB]  / [2.83V 1m] "	"Frequency [Hz]"	"Sound Pessure Level [dB]  / [2.83V 1m] "	"Frequency [Hz]"	"Sound Pessure Level [dB]  / [2.83V 1m] "	"Frequency [Hz]"	"Sound Pessure Level [dB]  / [2.83V 1m] "	"Frequency [Hz]"	"Sound Pessure Level [dB]  / [2.83V 1m] "	"Frequency [Hz]"	"Sound Pessure Level [dB]  / [2.83V 1m] "	"Frequency [Hz]"	"Sound Pessure Level [dB]  / [2.83V 1m] "	"Frequency [Hz]"	"Sound Pessure Level [dB]  / [2.83V 1m] "	"Frequency [Hz]"	"Sound Pessure Level [dB]  / [2.83V 1m] "	"Frequency [Hz]"	"Sound Pessure Level [dB]  / [2.83V 1m] "	"Frequency [Hz]"	"Sound Pessure Level [dB]  / [2.83V 1m] "	"Frequency [Hz]"	"Sound Pessure Level [dB]  / [2.83V 1m] "	"Frequency [Hz]"	"Sound Pessure Level [dB]  / [2.83V 1m] "	"Frequency [Hz]"	"Sound Pessure Level [dB]  / [2.83V 1m] "	"Frequency [Hz]"	"Sound Pessure Level [dB]  / [2.83V 1m] "	"Frequency [Hz]"	"Sound Pessure Level [dB]  / [2.83V 1m] "	"Frequency [Hz]"	"Sound Pessure Level [dB]  / [2.83V 1m] "	"Frequency [Hz]"	"Sound Pessure Level [dB]  / [2.83V 1m] "	"Frequency [Hz]"	"Sound Pessure Level [dB]  / [2.83V 1m] "	"Frequency [Hz]"	"Sound Pessure Level [dB]  / [2.83V 1m] "	"Frequency [Hz]"	"Sound Pessure Level [dB]  / [2.83V 1m] "	"Frequency [Hz]"	"Sound Pessure Level [dB]  / [2.83V 1m] "	"Frequency [Hz]"	"Sound Pessure Level [dB]  / [2.83V 1m] "	"Frequency [Hz]"	"Sound Pessure Level [dB]  / [2.83V 1m] "	"Frequency [Hz]"	"Sound Pessure Level [dB]  / [2.83V 1m] "	"Frequency [Hz]"	"Sound Pessure Level [dB]  / [2.83V 1m] "	"Frequency [Hz]"	"Sound Pessure Level [dB]  / [2.83V 1m] "	"Frequency [Hz]"	"Sound Pessure Level [dB]  / [2.83V 1m] "	"Frequency [Hz]"	"Sound Pessure Level [dB]  / [2.83V 1m] "
20.5078	38.1485	20.5078	37.8089	20.5078	37.9887	20.5078	36.9817	20.5078	37.2689	20.5078	35.7151	20.5078	35.8362	20.5078	34.4167	20.5078	33.4165	20.5078	34.4547	20.5078	30.2098	20.5078	36.6731	20.5078	31.0064	20.5078	39.6871	20.5078	35.9068	20.5078	42.4924	20.5078	40.0561	20.5078	44.8976	20.5078	43.2401	20.5078	46.9313	20.5078	45.7559	20.5078	48.6469	20.5078	47.7919	20.5078	50.0866	20.5078	49.4565	20.5078	51.2781	20.5078	50.8132	20.5078	52.2377	20.5078	51.8996	20.5078	52.974	20.5078	52.7376	20.5078	53.49	20.5078	53.3399	20.5078	53.786	20.5078	53.713	20.5078	53.8609
21.9727	45.3588	21.9727	45.1929	21.9727	45.3296	21.9727	44.8312	21.9727	45.1146	21.9727	44.2926	21.9727	44.7341	21.9727	43.6489	21.9727	44.2371	21.9727	43.087	21.9727	43.7389	21.9727	42.9516	21.9727	43.4661	21.9727	43.5703	21.9727	43.7153	21.9727	44.8994	21.9727	44.6291	21.9727	46.5766	21.9727	46.036	21.9727	48.2801	21.9727	47.6322	21.9727	49.8464	21.9727	49.1956	21.9727	51.2136	21.9727	50.615	21.9727	52.3635	21.9727	51.8448	21.9727	53.2929	21.9727	52.8683	21.9727	54.0025	21.9727	53.6795	21.9727	54.4933	21.9727	54.2761	21.9727	54.7656	21.9727	54.6566	21.9727	54.82
23.4375	46.7893	23.4375	46.7305	23.4375	46.6532	23.4375	46.483	23.4375	46.3278	23.4375	46.0726	23.4375	45.8375	23.4375	45.5679	23.4375	45.2503	23.4375	45.1228	23.4375	44.725	23.4375	45.0012	23.4375	44.5435	23.4375	45.4709	23.4375	44.9966	23.4375	46.562	23.4375	46.1127	23.4375	48.0336	23.4375	47.6249	23.4375	49.6055	23.4375	49.2362	23.4375	51.1013	23.4375	50.7684	23.4375	52.4378	23.4375	52.1416	23.4375	53.5815	23.4375	53.3249	23.4375	54.5193	23.4375	54.3068	23.4375	55.246	23.4375	55.0821	23.4375	55.7587	23.4375	55.6472	23.4375	56.0557	23.4375	55.9992	23.4375	56.1358
24.9023	47.7017	24.9023	47.4947	24.9023	47.6887	24.9023	47.0771	24.9023	47.4571	24.9023	46.4867	24.9023	47.0198	24.9023	45.8326	24.9023	46.4187	24.9023	45.365	24.9023	45.7703	24.9023	45.466	24.9023	45.334	24.9023	46.3655	24.9023	45.4911	24.9023	47.8661	24.9023	46.4463	24.9023	49.5839	24.9023	47.9791	24.9023	51.255	24.9023	49.7075	24.9023	52.7622	24.9023	51.3776	24.9023	54.0653	24.9023	52.8778	24.9023	55.154	24.9023	54.1701	24.9023	56.0272	24.9023	55.2447	24.9023	56.6853	24.9023	56.1009	24.9023	57.1283	24.9023	56.7397	24.9023	57.3558	24.9023	57.1617	24.9023	57.367
26.3672	50.322	26.3672	50.2369	26.3672	50.2368	26.3672	49.9925	26.3672	49.9809	26.3672	49.618	26.3672	49.567	26.3672	49.1804	26.3672	49.0345	26.3672	48.8131	26.3672	48.48	26.3672	48.7255	26.3672	48.0962	26.3672	49.1219	26.3672	48.1543	26.3672	50.0391	26.3672	48.8338	26.3672	51.308	26.3672	50.0403	26.3672	52.7018	26.3672	51.5037	26.3672	54.0561	26.3672	52.9901	26.3672	55.2816	26.3672	54.3679	26.3672	56.3354	26.3672	55.5772	26.3672	57.1979	26.3672	56.5934	26.3672	57.8592	26.3672	57.4065	26.3672	58.3135	26.3672	58.0118	26.3672	58.5573	26.3672	58.4063	26.3672	58.5884
27.832	52.6535	27.832	52.5079	27.832	52.6426	27.832	52.2097	27.832	52.4787	27.832	51.7759	27.832	52.1735	27.832	51.2525	27.832	51.7554	27.832	50.7419	27.832	51.2868	27.832	50.43	27.832	50.8888	27.832	50.5494	27.832	50.7482	27.832	51.2254	27.832	51.0511	27.832	52.352	27.832	51.8435	27.832	53.6921	27.832	52.986	27.832	55.0424	27.832	54.2708	27.832	56.2836	27.832	55.5355	27.832	57.3573	27.832	56.6854	27.832	58.2369	27.832	57.6724	27.832	58.9104	27.832	58.4725	27.832	59.3718	27.832	59.0732	27.832	59.6186	27.832	59.4673	27.832	59.65
29.2969	53.4546	29.2969	53.3322	29.2969	53.4275	29.2969	53.0699	29.2969	53.2536	29.2969	52.696	29.2969	52.9481	29.2969	52.2737	29.2969	52.5486	29.2969	51.9233	29.2969	52.1334	29.2969	51.826	29.2969	51.8415	29.2969	52.1581	29.2969	51.8612	29.2969	52.9626	29.2969	52.3384	29.2969	54.1085	29.2969	53.2586	29.2969	55.3983	29.2969	54.4578	29.2969	56.6747	29.2969	55.7463	29.2969	57.8439	29.2969	56.9889	29.2969	58.8565	29.2969	58.1097	29.2969	59.6878	29.2969	59.0697	29.2969	60.3245	29.2969	59.8491	29.2969	60.7594	29.2969	60.4367	29.2969	60.9884	29.2969	60.8253	29.2969	61.0101
30.7617	54.3308	30.7617	54.2553	30.7617	54.263	30.7617	54.0522	30.7617	54.0502	30.7617	53.7584	30.7617	53.7065	30.7617	53.4455	30.7617	53.2718	30.7617	53.2337	30.7617	52.8334	30.7617	53.2808	30.7617	52.548	30.7617	53.7143	30.7617	52.6225	30.7617	54.5407	30.7617	53.1992	30.7617	55.6395	30.7617	54.2311	30.7617	56.8499	30.7617	55.5233	30.7617	58.0444	30.7617	56.8774	30.7617	59.1439	30.7617	58.1623	30.7617	60.1043	30.7617	59.3082	30.7617	60.9008	30.7617	60.2811	30.7617	61.5183	30.7617	61.0641	30.7617	61.9463	30.7617	61.6487	30.7617	62.1772	30.7617	62.03	30.7617	62.206
32.2266	57.0466	32.2266	56.9897	32.2266	57.0075	32.2266	56.8471	32.2266	56.8745	32.2266	56.6446	32.2266	56.6638	32.2266	56.4296	32.2266	56.4108	32.2266	56.2762	32.2266	56.1772	32.2266	56.281	32.2266	56.0546	32.2266	56.5351	32.2266	56.1497	32.2266	57.0786	32.2266	56.5402	32.2266	57.8735	32.2266	57.2277	32.2266	58.8255	32.2266	58.1343	32.2266	59.8293	32.2266	59.1476	32.2266	60.7991	32.2266	60.1658	32.2266	61.675	32.2266	61.1159	32.2266	62.4174	32.2266	61.9502	32.2266	63.0009	32.2266	62.6385	32.2266	63.4089	32.2266	63.1614	32.2266	63.6315	32.2266	63.5059	32.2266	63.6639
33.6914	58.4605	33.6914	58.4035	33.6914	58.4295	33.6914	58.2666	33.6914	58.3147	33.6914	58.0733	33.6914	58.1337	33.6914	57.8673	33.6914	57.922	33.6914	57.7181	33.6914	57.7382	33.6914	57.717	33.6914	57.6646	33.6914	57.9521	33.6914	57.7919	33.6914	58.466	33.6914	58.1836	33.6914	59.2275	33.6914	58.839	33.6914	60.1489	33.6914	59.6918	33.6914	61.1284	33.6914	60.6452	33.6914	62.0808	33.6914	61.6081	33.6914	62.9452	33.6914	62.5116	33.6914	63.6812	33.6914	63.3086	33.6914	64.2626	33.6914	63.9679	33.6914	64.6724	33.6914	64.4685	33.6914	64.9003	33.6914	64.7961	33.6914	64.9415
35.1562	60.1534	35.1562	60.0728	35.1562	60.1523	35.1562	59.9201	35.1562	60.0719	35.1562	59.7202	35.1562	59.927	35.1562	59.5181	35.1562	59.7483	35.1562	59.3826	35.1562	59.5861	35.1562	59.4004	35.1562	59.5123	35.1562	59.651	35.1562	59.6088	35.1562	60.1675	35.1562	59.94	35.1562	60.9159	35.1562	60.5186	35.1562	61.8122	35.1562	61.2968	35.1562	62.7609	35.1562	62.1901	35.1562	63.6814	35.1562	63.1107	35.1562	64.5158	35.1562	63.9876	35.1562	65.2247	35.1562	64.77	35.1562	65.7823	35.1562	65.4231	35.1562	66.1717	35.1562	65.9238	35.1562	66.3829	35.1562	66.2564	35.1562	66.4111
36.6211	61.8894	36.6211	61.8332	36.6211	61.881	36.6211	61.7227	36.6211	61.8096	36.6211	61.5814	36.6211	61.6885	36.6211	61.4491	36.6211	61.5452	36.6211	61.3825	36.6211	61.4237	36.6211	61.4486	36.6211	61.3842	36.6211	61.7059	36.6211	61.4936	36.6211	62.179	36.6211	61.8041	36.6211	62.8446	36.6211	62.3283	36.6211	63.6405	36.6211	63.031	36.6211	64.4908	36.6211	63.8441	36.6211	65.3257	36.6211	64.6921	36.6211	66.0903	36.6211	65.5096	36.6211	66.7448	36.6211	66.2472	36.6211	67.2615	36.6211	66.8693	36.6211	67.6215	36.6211	67.3509	36.6211	67.8132	36.6211	67.6752	36.6211	67.8311
38.0859	63.4011	38.0859	63.3686	38.0859	63.38	38.0859	63.2927	38.0859	63.3057	38.0859	63.1956	38.0859	63.1899	38.0859	63.1129	38.0859	63.0575	38.0859	63.0931	38.0859	62.9481	38.0859	63.1911	38.0859	62.916	38.0859	63.4541	38.0859	63.0221	38.0859	63.9021	38.0859	63.3149	38.0859	64.5175	38.0859	63.8092	38.0859	65.2507	38.0859	64.4761	38.0859	66.0374	38.0859	65.2545	38.0859	66.8154	38.0859	66.0732	38.0859	67.5329	38.0859	66.8684	38.0859	68.1503	38.0859	67.5904	38.0859	68.6387	38.0859	68.2027	38.0859	68.978	38.0859	68.6797	38.0859	69.1553	38.0859	69.0038	38.0859	69.1641
39.5508	64.9725	39.5508	64.9602	39.5508	64.9434	39.5508	64.9142	39.5508	64.8752	39.5508	64.853	39.5508	64.7803	39.5508	64.8065	39.5508	64.6826	39.5508	64.8151	39.5508	64.6181	39.5508	64.9246	39.5508	64.633	39.5508	65.175	39.5508	64.7756	39.5508	65.5855	39.5508	65.0818	39.5508	66.1451	39.5508	65.5599	39.5508	66.8148	39.5508	66.1841	39.5508	67.5405	39.5508	66.9036	39.5508	68.2661	39.5508	67.6589	39.5508	68.9427	39.5508	68.3942	39.5508	69.5308	39.5508	69.0642	39.5508	70.0006	39.5508	69.6343	39.5508	70.331	39.5508	70.0786	39.5508	70.5078	39.5508	70.3791	39.5508	70.5241
41.0156	66.9563	41.0156	66.9584	41.0156	66.9228	41.0156	66.9359	41.0156	66.8603	41.0156	66.9045	41.0156	66.7809	41.0156	66.8893	41.0156	66.7071	41.0156	66.9237	41.0156	66.6726	41.0156	67.0453	41.0156	66.7188	41.0156	67.288	41.0156	66.8874	41.0156	67.6711	41.0156	67.207	41.0156	68.1897	41.0156	67.6806	41.0156	68.8137	41.0156	68.2822	41.0156	69.4964	41.0156	68.9656	41.0156	70.1856	41.0156	69.6773	41.0156	70.8331	41.0156	70.3681	41.0156	71.3991	41.0156	70.9972	41.0156	71.8532	41.0156	71.5327	41.0156	72.1739	41.0156	71.9504	41.0156	72.3472	41.0156	72.2324	41.0156	72.3667
42.4805	68.4329	42.4805	68.4277	42.4805	68.4146	42.4805	68.4048	42.4805	68.3752	42.4805	68.378	42.4805	68.325	42.4805	68.3696	42.4805	68.2821	42.4805	68.4095	42.4805	68.2728	42.4805	68.5315	42.4805	68.3286	42.4805	68.7652	42.4805	68.4809	42.4805	69.1261	42.4805	68.7524	42.4805	69.6079	42.4805	69.1488	42.4805	70.1822	42.4805	69.6554	42.4805	70.8062	42.4805	70.2402	42.4805	71.4328	42.4805	70.8621	42.4805	72.0188	42.4805	71.4789	42.4805	72.5283	42.4805	72.0522	42.4805	72.9335	42.4805	72.5497	42.4805	73.2145	42.4805	72.9457	42.4805	73.3588	42.4805	73.2204	42.4805	73.3605
43.9453	69.8671	43.9453	69.863	43.9453	69.8567	43.9453	69.8501	43.9453	69.8333	43.9453	69.8414	43.9453	69.8057	43.9453	69.8574	43.9453	69.7899	43.9453	69.924	43.9453	69.808	43.9453	70.0686	43.9453	69.8863	43.9453	70.3137	43.9453	70.0506	43.9453	70.6691	43.9453	70.3194	43.9453	71.1269	43.9453	70.6977	43.9453	71.6625	43.9453	71.1739	43.9453	72.2403	43.9453	71.7212	43.9453	72.8211	43.9453	72.3039	43.9453	73.3672	43.9453	72.8834	43.9453	73.8461	43.9453	73.4234	43.9453	74.2308	43.9453	73.8925	43.9453	74.5011	43.9453	74.2652	43.9453	74.6433	43.9453	74.5221	43.9453	74.6503
45.4102	71.6468	45.4102	71.6493	45.4102	71.6338	45.4102	71.6461	45.4102	71.6115	45.4102	71.6483	45.4102	71.5875	45.4102	71.6725	45.4102	71.5753	45.4102	71.7399	45.4102	71.5938	45.4102	71.8727	45.4102	71.6652	45.4102	72.0894	45.4102	71.8117	45.4102	72.3994	45.4102	72.0499	45.4102	72.7985	45.4102	72.3856	45.4102	73.2691	45.4102	72.8105	45.4102	73.7829	45.4102	73.3029	45.4102	74.3059	45.4102	73.8317	45.4102	74.8039	45.4102	74.3621	45.4102	75.2453	45.4102	74.8599	45.4102	75.6032	45.4102	75.2948	45.4102	75.8566	45.4102	75.6415	45.4102	75.9913	45.4102	75.8808	45.4102	75.9995
46.875	73.3555	46.875	73.3606	46.875	73.3426	46.875	73.3617	46.875	73.3232	46.875	73.368	46.875	73.3039	46.875	73.3936	46.875	73.2962	46.875	73.4559	46.875	73.3161	46.875	73.5742	46.875	73.3825	46.875	73.7649	46.875	73.5146	46.875	74.0376	46.875	73.727	46.875	74.3911	46.875	74.026	46.875	74.8124	46.875	74.4061	46.875	75.2778	46.875	74.85	46.875	75.7576	46.875	75.3311	46.875	76.2194	46.875	75.8183	46.875	76.6327	46.875	76.2797	46.875	76.9704	46.875	76.6859	46.875	77.2112	46.875	77.0116	46.875	77.3399	46.875	77.2371	46.875	77.3487
48.3398	74.9307	48.3398	74.9335	48.3398	74.9217	48.3398	74.9337	48.3398	74.9078	48.3398	74.9393	48.3398	74.8947	48.3398	74.9631	48.3398	74.893	48.3398	75.0208	48.3398	74.9167	48.3398	75.1298	48.3398	74.9828	48.3398	75.3053	48.3398	75.1082	48.3398	75.5565	48.3398	75.3065	48.3398	75.8835	48.3398	75.5839	48.3398	76.2754	48.3398	75.9362	48.3398	76.7113	48.3398	76.3485	48.3398	77.1637	48.3398	76.7973	48.3398	77.6025	48.3398	77.2537	48.3398	77.9976	48.3398	77.6878	48.3398	78.3227	48.3398	78.071	48.3398	78.5561	48.3398	78.3787	48.3398	78.6828	48.3398	78.5911	48.3398	78.6947
51.2695	77.8996	51.2695	77.9086	51.2695	77.893	51.2695	77.9226	51.2695	77.8895	51.2695	77.9475	51.2695	77.8936	51.2695	77.9923	51.2695	77.9128	51.2695	78.0683	51.2695	77.9577	51.2695	78.1874	51.2695	78.0406	51.2695	78.36	51.2695	78.1734	51.2695	78.5929	51.2695	78.3656	51.2695	78.8859	51.2695	78.6211	51.2695	79.2311	51.2695	78.9367	51.2695	79.6129	51.2695	79.3009	51.2695	80.0095	51.2695	79.6954	51.2695	80.3956	51.2695	80.0968	51.2695	80.7454	51.2695	80.4796	51.2695	81.035	51.2695	80.8188	51.2695	81.2444	51.2695	81.0918	51.2695	81.3592	51.2695	81.2802	51.2695	81.3714
52.7344	79.2359	52.7344	79.2454	52.7344	79.2316	52.7344	79.2623	52.7344	79.2335	52.7344	79.2913	52.7344	79.2453	52.7344	79.3401	52.7344	79.2736	52.7344	79.418	52.7344	79.3269	52.7344	79.5353	52.7344	79.4154	52.7344	79.7011	52.7344	79.5486	52.7344	79.9211	52.7344	79.7343	52.7344	80.1955	52.7344	79.9757	52.7344	80.5175	52.7344	80.2701	52.7344	80.8735	52.7344	80.6079	52.7344	81.2438	52.7344	80.9733	52.7344	81.6055	52.7344	81.3454	52.7344	81.9345	52.7344	81.7011	52.7344	82.2081	52.7344	82.0168	52.7344	82.4069	52.7344	82.2712	52.7344	82.517	52.7344	82.4465	52.7344	82.5305
54.1992	80.4134	54.1992	80.4189	54.1992	80.4161	54.1992	80.4347	54.1992	80.4275	54.1992	80.4651	54.1992	80.4504	54.1992	80.5169	54.1992	80.49	54.1992	80.5982	54.1992	80.5533	54.1992	80.7175	54.1992	80.648	54.1992	80.8823	54.1992	80.782	54.1992	81.0967	54.1992	80.9615	54.1992	81.3602	54.1992	81.1892	54.1992	81.6663	54.1992	81.4629	54.1992	82.0024	54.1992	81.775	54.1992	82.3509	54.1992	82.1119	54.1992	82.691	54.1992	82.4556	54.1992	83.0002	54.1992	82.7852	54.1992	83.2574	54.1992	83.079	54.1992	83.4444	54.1992	83.3167	54.1992	83.5478	54.1992	83.4811	54.1992	83.5602
55.6641	81.34	55.6641	81.3461	55.6641	81.3434	55.6641	81.3638	55.6641	81.3563	55.6641	81.3974	55.6641	81.3811	55.6641	81.4526	55.6641	81.4218	55.6641	81.5365	55.6641	81.4844	55.6641	81.656	55.6641	81.5758	55.6641	81.8167	55.6641	81.7028	55.6641	82.0216	55.6641	81.8712	55.6641	82.2697	55.6641	82.0838	55.6641	82.5551	55.6641	82.3388	55.6641	82.8668	55.6641	82.6298	55.6641	83.1895	55.6641	82.9446	55.6641	83.5045	55.6641	83.2667	55.6641	83.7914	55.6641	83.5765	55.6641	84.0304	55.6641	83.8536	55.6641	84.2043	55.6641	84.0784	55.6641	84.3	55.6641	84.2345	55.6641	84.3103
58.5938	82.6325	58.5938	82.6475	58.5938	82.6312	58.5938	82.6772	58.5938	82.644	58.5938	82.7236	58.5938	82.6725	58.5938	82.7896	58.5938	82.7193	58.5938	82.8789	58.5938	82.788	58.5938	82.9955	58.5938	82.8824	58.5938	83.1427	58.5938	83.0068	58.5938	83.3225	58.5938	83.1642	58.5938	83.5347	58.5938	83.3559	58.5938	83.7759	58.5938	83.5805	58.5938	84.0386	58.5938	83.8328	58.5938	84.3113	58.5938	84.1038	58.5938	84.5792	58.5938	84.3803	58.5938	84.8252	58.5938	84.6466	58.5938	85.0319	58.5938	84.8852	58.5938	85.1836	58.5938	85.0792	58.5938	85.2681	58.5938	85.2138	58.5938	85.2785
60.0586	82.9529	60.0586	82.9685	60.0586	82.9526	60.0586	82.9997	60.0586	82.9677	60.0586	83.0482	60.0586	82.9993	60.0586	83.1161	60.0586	83.0496	60.0586	83.2061	60.0586	83.121	60.0586	83.3212	60.0586	83.2168	60.0586	83.4639	60.0586	83.34	60.0586	83.6357	60.0586	83.4928	60.0586	83.8364	60.0586	83.6762	60.0586	84.0627	60.0586	83.8885	60.0586	84.3083	60.0586	84.1252	60.0586	84.5629	60.0586	84.3782	60.0586	84.8129	60.0586	84.6357	60.0586	85.0429	60.0586	84.8835	60.0586	85.2366	60.0586	85.1055	60.0586	85.3793	60.0586	85.2858	60.0586	85.4593	60.0586	85.4107	60.0586	85.4701
62.9883	83.1587	62.9883	83.1753	62.9883	83.1598	62.9883	83.2098	62.9883	83.1786	62.9883	83.2626	62.9883	83.2157	62.9883	83.3345	62.9883	83.2717	62.9883	83.4266	62.9883	83.3477	62.9883	83.5399	62.9883	83.4446	62.9883	83.6751	62.9883	83.5638	62.9883	83.8324	62.9883	83.7057	62.9883	84.0108	62.9883	83.8703	62.9883	84.2075	62.9883	84.0561	62.9883	84.4175	62.9883	84.2596	62.9883	84.6331	62.9883	84.4745	62.9883	84.844	62.9883	84.6923	62.9883	85.0378	62.9883	84.9015	62.9883	85.2013	62.9883	85.0892	62.9883	85.3219	62.9883	85.2421	62.9883	85.3897	62.9883	85.3482	62.9883	85.3988
64.4531	83.1154	64.4531	83.1347	64.4531	83.1151	64.4531	83.173	64.4531	83.1339	64.4531	83.2301	64.4531	83.1719	64.4531	83.3061	64.4531	83.2294	64.4531	83.4012	64.4531	83.3066	64.4531	83.5154	64.4531	83.4038	64.4531	83.6485	64.4531	83.5213	64.4531	83.8002	64.4531	83.659	64.4531	83.9691	64.4531	83.8164	64.4531	84.1528	64.4531	83.9918	64.4531	84.3467	64.4531	84.1821	64.4531	84.5445	64.4531	84.382	64.4531	84.7372	64.4531	84.5838	64.4531	84.9138	64.4531	84.7775	64.4531	85.0627	64.4531	84.9514	64.4531	85.1723	64.4531	85.0934	64.4531	85.2335	64.4531	85.1925	64.4531	85.2405
67.3828	82.9647	67.3828	82.983	67.3828	82.9669	67.3828	83.0215	67.3828	82.9895	67.3828	83.0796	67.3828	83.0322	67.3828	83.1562	67.3828	83.094	67.3828	83.2502	67.3828	83.1742	67.3828	83.3604	67.3828	83.2717	67.3828	83.4852	67.3828	83.3853	67.3828	83.6231	67.3828	83.5141	67.3828	83.7724	67.3828	83.6565	67.3828	83.9308	67.3828	83.8108	67.3828	84.095	67.3828	83.9742	67.3828	84.2605	67.3828	84.1427	67.3828	84.4211	67.3828	84.3105	67.3828	84.5684	67.3828	84.4703	67.3828	84.6931	67.3828	84.613	67.3828	84.7858	67.3828	84.7288	67.3828	84.8386	67.3828	84.809	67.3828	84.8467
68.8477	82.9133	68.8477	82.9285	68.8477	82.9194	68.8477	82.9645	68.8477	82.9465	68.8477	83.0205	68.8477	82.9937	68.8477	83.095	68.8477	83.0599	68.8477	83.1864	68.8477	83.1434	68.8477	83.2929	68.8477	83.2425	68.8477	83.4125	68.8477	83.3552	68.8477	83.5434	68.8477	83.4797	68.8477	83.6834	68.8477	83.6144	68.8477	83.8306	68.8477	83.7572	68.8477	83.9821	68.8477	83.9059	68.8477	84.1342	68.8477	84.0572	68.8477	84.2813	68.8477	84.2065	68.8477	84.4164	68.8477	84.3478	68.8477	84.531	68.8477	84.4734	68.8477	84.6169	68.8477	84.5751	68.8477	84.6667	68.8477	84.6447	68.8477	84.6763
71.7773	82.8631	71.7773	82.875	71.7773	82.8729	71.7773	82.9082	71.7773	82.9039	71.7773	82.9615	71.7773	82.9547	71.7773	83.0331	71.7773	83.0234	71.7773	83.1206	71.7773	83.1075	71.7773	83.2213	71.7773	83.2043	71.7773	83.3324	71.7773	83.3111	71.7773	83.4512	71.7773	83.4253	71.7773	83.5752	71.7773	83.5447	71.7773	83.7022	71.7773	83.6673	71.7773	83.8298	71.7773	83.7912	71.7773	83.9552	71.7773	83.914	71.7773	84.0748	71.7773	84.0329	71.7773	84.1837	71.7773	84.1438	71.7773	84.2759	71.7773	84.2415	71.7773	84.3453	71.7773	84.3198	71.7773	84.3864	71.7773	84.3728	71.7773	84.3958
74.707	82.8645	74.707	82.8816	74.707	82.8698	74.707	82.9204	74.707	82.8972	74.707	82.979	74.707	82.9454	74.707	83.0548	74.707	83.012	74.707	83.1445	74.707	83.0939	74.707	83.2443	74.707	83.1877	74.707	83.3507	74.707	83.2898	74.707	83.4601	74.707	83.3969	74.707	83.5699	74.707	83.5059	74.707	83.6778	74.707	83.6146	74.707	83.7822	74.707	83.7211	74.707	83.8817	74.707	83.8237	74.707	83.9742	74.707	83.9207	74.707	84.0568	74.707	84.0097	74.707	84.1258	74.707	84.0872	74.707	84.177	74.707	84.1493	74.707	84.2064	74.707	84.1919	74.707	84.2115
77.6367	82.8386	77.6367	82.8643	77.6367	82.8372	77.6367	82.9127	77.6367	82.8599	77.6367	82.9812	77.6367	82.9054	77.6367	83.0661	77.6367	82.971	77.6367	83.163	77.6367	83.0529	77.6367	83.2672	77.6367	83.1468	77.6367	83.3741	77.6367	83.2482	77.6367	83.4796	77.6367	83.3529	77.6367	83.5805	77.6367	83.4571	77.6367	83.6747	77.6367	83.558	77.6367	83.7609	77.6367	83.6536	77.6367	83.8386	77.6367	83.7425	77.6367	83.9072	77.6367	83.8238	77.6367	83.9658	77.6367	83.8964	77.6367	84.0128	77.6367	83.9588	77.6367	84.046	77.6367	84.0089	77.6367	84.0631	77.6367	84.0442	77.6367	84.0626
79.1016	82.8451	79.1016	82.873	79.1016	82.8419	79.1016	82.9241	79.1016	82.8635	79.1016	82.9953	79.1016	82.9082	79.1016	83.0825	79.1016	82.9732	79.1016	83.1808	79.1016	83.0545	79.1016	83.285	79.1016	83.1474	79.1016	83.39	79.1016	83.2471	79.1016	83.4916	79.1016	83.3489	79.1016	83.5862	79.1016	83.449	79.1016	83.6718	79.1016	83.5442	79.1016	83.7475	79.1016	83.6325	79.1016	83.8131	79.1016	83.7128	79.1016	83.869	79.1016	83.7844	79.1016	83.9153	79.1016	83.8468	79.1016	83.9514	79.1016	83.8995	79.1016	83.9763	79.1016	83.9414	79.1016	83.9885	79.1016	83.9708	79.1016	83.9868
82.0312	82.894	82.0312	82.9253	82.0312	82.8884	82.0312	82.9804	82.0312	82.9086	82.0312	83.0556	82.0312	82.9529	82.0312	83.146	82.0312	83.0181	82.0312	83.2461	82.0312	83.0998	82.0312	83.3498	82.0312	83.1926	82.0312	83.4515	82.0312	83.2908	82.0312	83.5463	82.0312	83.389	82.0312	83.6307	82.0312	83.4825	82.0312	83.7026	82.0312	83.5677	82.0312	83.7613	82.0312	83.6423	82.0312	83.8075	82.0312	83.7057	82.0312	83.8425	82.0312	83.7581	82.0312	83.868	82.0312	83.8009	82.0312	83.8853	82.0312	83.8352	82.0312	83.8952	82.0312	83.8618	82.0312	83.8979	82.0312	83.8812	82.0312	83.8933
84.9609	82.9835	84.9609	83.0163	84.9609	82.9752	84.9609	83.0716	84.9609	82.9918	84.9609	83.1455	84.9609	83.0313	84.9609	83.2327	84.9609	83.0905	84.9609	83.327	84.9609	83.1643	84.9609	83.422	84.9609	83.247	84.9609	83.5117	84.9609	83.3326	84.9609	83.5911	84.9609	83.4155	84.9609	83.6565	84.9609	83.4907	84.9609	83.7058	84.9609	83.5549	84.9609	83.7391	84.9609	83.606	84.9609	83.7578	84.9609	83.6442	84.9609	83.7647	84.9609	83.6709	84.9609	83.7632	84.9609	83.6888	84.9609	83.7565	84.9609	83.7011	84.9609	83.7473	84.9609	83.7105	84.9609	83.7374	84.9609	83.719	84.9609	83.7279
87.8906	82.9952	87.8906	83.0089	87.8906	83.0094	87.8906	83.049	87.8906	83.051	87.8906	83.1118	87.8906	83.117	87.8906	83.1918	87.8906	83.2028	87.8906	83.2827	87.8906	83.3025	87.8906	83.3777	87.8906	83.4093	87.8906	83.4704	87.8906	83.5162	87.8906	83.5556	87.8906	83.6169	87.8906	83.6293	87.8906	83.706	87.8906	83.6895	87.8906	83.7795	87.8906	83.7357	87.8906	83.8355	87.8906	83.7693	87.8906	83.8737	87.8906	83.7928	87.8906	83.8956	87.8906	83.8096	87.8906	83.9038	87.8906	83.8231	87.8906	83.9017	87.8906	83.8358	87.8906	83.8925	87.8906	83.8494	87.8906	83.8792	87.8906	83.8642
90.8203	83.0867	90.8203	83.1068	90.8203	83.096	90.8203	83.1546	90.8203	83.1341	90.8203	83.2261	90.8203	83.1982	90.8203	83.3156	90.8203	83.2836	90.8203	83.4162	90.8203	83.384	90.8203	83.5205	90.8203	83.4922	90.8203	83.6213	90.8203	83.6007	90.8203	83.7119	90.8203	83.7024	90.8203	83.7875	90.8203	83.7911	90.8203	83.8446	90.8203	83.8621	90.8203	83.8822	90.8203	83.9129	90.8203	83.9015	90.8203	83.943	90.8203	83.9057	90.8203	83.9541	90.8203	83.9	90.8203	83.95	90.8203	83.8901	90.8203	83.9356	90.8203	83.8818	90.8203	83.9165	90.8203	83.8793	90.8203	83.8981	90.8203	83.8849
95.2148	83.3033	95.2148	83.3236	95.2148	83.3089	95.2148	83.3687	95.2148	83.3395	95.2148	83.4355	95.2148	83.3922	95.2148	83.5187	95.2148	83.4628	95.2148	83.6119	95.2148	83.5453	95.2148	83.7075	95.2148	83.6332	95.2148	83.7978	95.2148	83.7196	95.2148	83.8754	95.2148	83.7976	95.2148	83.9345	95.2148	83.8612	95.2148	83.9709	95.2148	83.9059	95.2148	83.9833	95.2148	83.9292	95.2148	83.9731	95.2148	83.9314	95.2148	83.9447	95.2148	83.9151	95.2148	83.9048	95.2148	83.886	95.2148	83.8616	95.2148	83.8511	95.2148	83.8235	95.2148	83.8185	95.2148	83.7974	95.2148	83.7956	95.2148	83.7877
98.1445	83.4569	98.1445	83.4859	98.1445	83.4511	98.1445	83.5366	98.1445	83.4683	98.1445	83.6058	98.1445	83.5066	98.1445	83.6887	98.1445	83.5625	98.1445	83.7792	98.1445	83.631	98.1445	83.8704	98.1445	83.706	98.1445	83.9548	98.1445	83.7809	98.1445	84.0251	98.1445	83.8486	98.1445	84.0752	98.1445	83.9031	98.1445	84.1007	98.1445	83.9395	98.1445	84.0999	98.1445	83.955	98.1445	84.0741	98.1445	83.9496	98.1445	84.028	98.1445	83.9261	98.1445	83.9692	98.1445	83.8904	98.1445	83.9072	98.1445	83.8504	98.1445	83.8516	98.1445	83.8152	98.1445	83.811	98.1445	83.7934	98.1445	83.791
101.074	83.6816	101.074	83.7186	101.074	83.6652	101.074	83.7742	101.074	83.6697	101.074	83.8445	101.074	83.6935	101.074	83.9241	101.074	83.7333	101.074	84.0067	101.074	83.7843	101.074	84.085	101.074	83.8405	101.074	84.1515	101.074	83.8954	101.074	84.1994	101.074	83.9424	101.074	84.2234	101.074	83.9759	101.074	84.22	101.074	83.9918	101.074	84.1889	101.074	83.9879	101.074	84.1332	101.074	83.9648	101.074	84.0592	101.074	83.9257	101.074	83.9759	101.074	83.8767	101.074	83.894	101.074	83.8259	101.074	83.8242	101.074	83.7825	101.074	83.775	101.074	83.7555	101.074	83.7518
105.469	83.6823	105.469	83.7055	105.469	83.6892	105.469	83.7569	105.469	83.7256	105.469	83.8316	105.469	83.7884	105.469	83.9225	105.469	83.8719	105.469	84.021	105.469	83.969	105.469	84.118	105.469	84.071	105.469	84.2046	105.469	84.1689	105.469	84.2733	105.469	84.2539	105.469	84.3184	105.469	84.3182	105.469	84.3362	105.469	84.3562	105.469	84.3261	105.469	84.3648	105.469	84.29	105.469	84.344	105.469	84.2337	105.469	84.2975	105.469	84.1658	105.469	84.2324	105.469	84.0978	105.469	84.1588	105.469	84.0421	105.469	84.0889	105.469	84.0095	105.469	84.035	105.469	84.0068
108.398	83.9805	108.398	83.9889	108.398	84.0006	108.398	84.025	108.398	84.0476	108.398	84.0855	108.398	84.1178	108.398	84.1647	108.398	84.2058	108.398	84.255	108.398	84.3044	108.398	84.3476	108.398	84.4056	108.398	84.4334	108.398	84.5007	108.398	84.5041	108.398	84.581	108.398	84.5523	108.398	84.639	108.398	84.573	108.398	84.6688	108.398	84.5639	108.398	84.6669	108.398	84.526	108.398	84.6333	108.398	84.4648	108.398	84.5718	108.398	84.3901	108.398	84.4905	108.398	84.3147	108.398	84.4007	108.398	84.2529	108.398	84.3163	108.398	84.2174	108.398	84.2512	108.398	84.2164
112.793	84.346	112.793	84.3696	112.793	84.3446	112.793	84.4143	112.793	84.3646	112.793	84.478	112.793	84.4041	112.793	84.5566	112.793	84.4597	112.793	84.6442	112.793	84.5264	112.793	84.7328	112.793	84.5976	112.793	84.8136	112.793	84.6657	112.793	84.8767	112.793	84.7223	112.793	84.9135	112.793	84.7595	112.793	84.9173	112.793	84.771	112.793	84.885	112.793	84.7526	112.793	84.8181	112.793	84.7043	112.793	84.7229	112.793	84.6304	112.793	84.6106	112.793	84.5399	112.793	84.4964	112.793	84.4461	112.793	84.3966	112.793	84.3649	112.793	84.3267	112.793	84.3115	112.793	84.2972
117.188	84.4894	117.188	84.5121	117.188	84.4878	117.188	84.5543	117.188	84.507	117.188	84.6131	117.188	84.5453	117.188	84.6838	117.188	84.5994	117.188	84.7608	117.188	84.6643	117.188	84.8367	117.188	84.7337	117.188	84.9035	117.188	84.8002	117.188	84.9532	117.188	84.856	117.188	84.9784	117.188	84.8935	117.188	84.974	117.188	84.9065	117.188	84.9381	117.188	84.8912	117.188	84.8728	117.188	84.8473	117.188	84.7849	117.188	84.7786	117.188	84.6853	117.188	84.6934	117.188	84.5877	117.188	84.6036	117.188	84.5067	117.188	84.523	117.188	84.4551	117.188	84.4652	117.188	84.4408
120.117	84.631	120.117	84.6625	120.117	84.6215	120.117	84.7137	120.117	84.6345	120.117	84.7803	120.117	84.6683	120.117	84.8564	120.117	84.7193	120.117	84.9349	120.117	84.7822	120.117	85.0077	120.117	84.85	120.117	85.0667	120.117	84.9147	120.117	85.1042	120.117	84.9678	120.117	85.1142	120.117	85.0014	120.117	85.0928	120.117	85.0095	120.117	85.0397	120.117	84.9883	120.117	84.9583	120.117	84.9376	120.117	84.8562	120.117	84.8616	120.117	84.7449	120.117	84.7685	120.117	84.6389	120.117	84.6705	120.117	84.5529	120.117	84.5818	120.117	84.4999	120.117	84.5169	120.117	84.4876
124.512	84.9324	124.512	84.9689	124.512	84.9095	124.512	85.0161	124.512	84.9019	124.512	85.0709	124.512	84.9106	124.512	85.129	124.512	84.9348	124.512	85.1854	124.512	84.9713	124.512	85.2338	124.512	85.0148	124.512	85.2671	124.512	85.0577	124.512	85.2778	124.512	85.0911	124.512	85.2595	124.512	85.1059	124.512	85.2077	124.512	85.0942	124.512	85.1215	124.512	85.0509	124.512	85.0041	124.512	84.9748	124.512	84.8643	124.512	84.8699	124.512	84.7157	124.512	84.7455	124.512	84.5756	124.512	84.6162	124.512	84.4627	124.512	84.5	124.512	84.3931	124.512	84.4152	124.512	84.3769
128.906	85.0874	128.906	85.1081	128.906	85.0786	128.906	85.1393	128.906	85.0821	128.906	85.1787	128.906	85.0975	128.906	85.2229	128.906	85.1232	128.906	85.2668	128.906	85.1558	128.906	85.304	128.906	85.1903	128.906	85.3267	128.906	85.2197	128.906	85.327	128.906	85.2363	128.906	85.2977	128.906	85.2321	128.906	85.234	128.906	85.2001	128.906	85.1351	128.906	85.1362	128.906	85.0048	128.906	85.0399	128.906	84.8529	128.906	84.9156	128.906	84.6941	128.906	84.7732	128.906	84.5469	128.906	84.6273	128.906	84.4308	128.906	84.4964	128.906	84.3624	128.906	84.3993	128.906	84.3517
133.301	85.0378	133.301	85.0709	133.301	85.0204	133.301	85.1175	133.301	85.0192	133.301	85.1743	133.301	85.0334	133.301	85.2368	133.301	85.0609	133.301	85.2988	133.301	85.0975	133.301	85.3529	133.301	85.1377	133.301	85.391	133.301	85.1743	133.301	85.4049	133.301	85.1991	133.301	85.3879	133.301	85.2043	133.301	85.3353	133.301	85.1832	133.301	85.2464	133.301	85.1316	133.301	85.125	133.301	85.0492	133.301	84.9801	133.301	84.9404	133.301	84.8255	133.301	84.8149	133.301	84.6791	133.301	84.6869	133.301	84.5596	133.301	84.574	133.301	84.4836	133.301	84.4939	133.301	84.4613
139.16	84.964	139.16	85.0067	139.16	84.9434	139.16	85.0692	139.16	84.9455	139.16	85.1472	139.16	84.9692	139.16	85.2349	139.16	85.0113	139.16	85.3244	139.16	85.0665	139.16	85.4069	139.16	85.1273	139.16	85.473	139.16	85.1847	139.16	85.5142	139.16	85.2291	139.16	85.523	139.16	85.2516	139.16	85.4948	139.16	85.2451	139.16	85.4278	139.16	85.2058	139.16	85.3243	139.16	85.1345	139.16	85.1917	139.16	85.0368	139.16	85.0428	139.16	84.9235	139.16	84.8947	139.16	84.8098	139.16	84.767	139.16	84.7135	139.16	84.6773	139.16	84.6518	139.16	84.6377
143.555	85.1289	143.555	85.1605	143.555	85.1097	143.555	85.2032	143.555	85.1047	143.555	85.2558	143.555	85.1155	143.555	85.3159	143.555	85.1427	143.555	85.3795	143.555	85.1846	143.555	85.44	143.555	85.2358	143.555	85.4895	143.555	85.2875	143.555	85.519	143.555	85.3283	143.555	85.5197	143.555	85.3465	143.555	85.4849	143.555	85.3323	143.555	85.411	143.555	85.2802	143.555	85.2992	143.555	85.1904	143.555	85.1567	143.555	85.0699	143.555	84.9971	143.555	84.932	143.555	84.8395	143.555	84.7945	143.555	84.705	143.555	84.6777	143.555	84.613	143.555	84.6004	143.555	84.5769
147.949	85.3584	147.949	85.3879	147.949	85.3329	147.949	85.4211	147.949	85.3127	147.949	85.4575	147.949	85.2996	147.949	85.4964	147.949	85.2952	147.949	85.5351	147.949	85.3	147.949	85.5687	147.949	85.3122	147.949	85.5896	147.949	85.3264	147.949	85.5888	147.949	85.3342	147.949	85.5569	147.949	85.3253	147.949	85.4864	147.949	85.2896	147.949	85.3742	147.949	85.2199	147.949	85.2229	147.949	85.1143	147.949	85.0425	147.949	84.9775	147.949	84.8501	147.949	84.8213	147.949	84.6676	147.949	84.6638	147.949	84.5185	147.949	84.5263	147.949	84.4229	147.949	84.4304	147.949	84.3929
153.809	85.3989	153.809	85.4308	153.809	85.3709	153.809	85.4666	153.809	85.3458	153.809	85.5056	153.809	85.3229	153.809	85.5454	153.809	85.3011	153.809	85.5818	153.809	85.2794	153.809	85.609	153.809	85.2559	153.809	85.6194	153.809	85.2271	153.809	85.6047	153.809	85.1884	153.809	85.5569	153.809	85.1337	153.809	85.4701	153.809	85.0575	153.809	85.3422	153.809	84.956	153.809	85.1762	153.809	84.8298	153.809	84.9815	153.809	84.6846	153.809	84.7734	153.809	84.5323	153.809	84.5717	153.809	84.39	153.809	84.3984	153.809	84.2773	153.809	84.2731	153.809	84.2127	153.809	84.2096
159.668	85.3196	159.668	85.3379	159.668	85.3086	159.668	85.3643	159.668	85.304	159.668	85.3985	159.668	85.3046	159.668	85.4383	159.668	85.3093	159.668	85.4788	159.668	85.3161	159.668	85.5127	159.668	85.3218	159.668	85.5313	159.668	85.3212	159.668	85.5257	159.668	85.3076	159.668	85.4886	159.668	85.2735	159.668	85.4153	159.668	85.2119	159.668	85.3049	159.668	85.1188	159.668	85.1606	159.668	84.9946	159.668	84.9905	159.668	84.8463	159.668	84.8076	159.668	84.6871	159.668	84.6298	159.668	84.5354	159.668	84.4772	159.668	84.4121	159.668	84.3693	159.668	84.336	159.668	84.3203
165.527	85.4335	165.527	85.4387	165.527	85.4351	165.527	85.4516	165.527	85.4429	165.527	85.4722	165.527	85.4561	165.527	85.4992	165.527	85.4734	165.527	85.5288	165.527	85.4927	165.527	85.5547	165.527	85.51	165.527	85.5685	165.527	85.5197	165.527	85.5608	165.527	85.5145	165.527	85.5233	165.527	85.487	165.527	85.4504	165.527	85.4303	165.527	85.3413	165.527	85.3406	165.527	85.2005	165.527	85.218	165.527	85.0378	165.527	85.0689	165.527	84.8683	165.527	84.9053	165.527	84.7098	165.527	84.7451	165.527	84.5813	165.527	84.6083	165.527	84.4996	165.527	84.514	165.527	84.476
171.387	85.3634	171.387	85.3523	171.387	85.3714	171.387	85.3386	171.387	85.3766	171.387	85.3233	171.387	85.3807	171.387	85.3078	171.387	85.3852	171.387	85.2919	171.387	85.391	171.387	85.274	171.387	85.3966	171.387	85.2501	171.387	85.3983	171.387	85.2147	171.387	85.3899	171.387	85.1614	171.387	85.3637	171.387	85.0847	171.387	85.3125	171.387	84.9819	171.387	85.2307	171.387	84.8551	171.387	85.1167	171.387	84.7125	171.387	84.974	171.387	84.5675	171.387	84.8122	171.387	84.438	171.387	84.6461	171.387	84.3424	171.387	84.4945	171.387	84.2958	171.387	84.3763	171.387	84.3072
177.246	85.1882	177.246	85.2034	177.246	85.1756	177.246	85.2208	177.246	85.1669	177.246	85.2408	177.246	85.1644	177.246	85.2628	177.246	85.1704	177.246	85.2839	177.246	85.1855	177.246	85.2988	177.246	85.2071	177.246	85.3001	177.246	85.2288	177.246	85.2801	177.246	85.2411	177.246	85.2325	177.246	85.2331	177.246	85.1539	177.246	85.1951	177.246	85.0447	177.246	85.1207	177.246	84.9097	177.246	85.0091	177.246	84.7579	177.246	84.8665	177.246	84.6023	177.246	84.7058	177.246	84.4588	177.246	84.5453	177.246	84.3445	177.246	84.4057	177.246	84.2749	177.246	84.3064	177.246	84.261
183.105	85.4005	183.105	85.4278	183.105	85.3596	183.105	85.4422	183.105	85.3066	183.105	85.4463	183.105	85.2456	183.105	85.4429	183.105	85.1824	183.105	85.4329	183.105	85.1229	183.105	85.4144	183.105	85.0715	183.105	85.382	183.105	85.0298	183.105	85.3284	183.105	84.9952	183.105	85.2466	183.105	84.9611	183.105	85.1332	183.105	84.9187	183.105	84.9902	183.105	84.8597	183.105	84.8259	183.105	84.7793	183.105	84.6544	183.105	84.6782	183.105	84.4931	183.105	84.5636	183.105	84.359	183.105	84.4473	183.105	84.2651	183.105	84.3429	183.105	84.2184	183.105	84.2634	183.105	84.2193
188.965	85.4142	188.965	85.4291	188.965	85.3885	188.965	85.4356	188.965	85.3502	188.965	85.4362	188.965	85.298	188.965	85.432	188.965	85.2319	188.965	85.4227	188.965	85.1525	188.965	85.4052	188.965	85.0618	188.965	85.3739	188.965	84.9617	188.965	85.3218	188.965	84.8541	188.965	85.2422	188.965	84.7397	188.965	85.1306	188.965	84.6185	188.965	84.9866	188.965	84.4903	188.965	84.8146	188.965	84.3573	188.965	84.6245	188.965	84.2248	188.965	84.4304	188.965	84.1024	188.965	84.2493	188.965	84.0013	188.965	84.0969	188.965	83.9322	188.965	83.9851	188.965	83.9035	188.965	83.9203
196.289	85.409	196.289	85.3773	196.289	85.4227	196.289	85.3335	196.289	85.4153	196.289	85.2845	196.289	85.3866	196.289	85.2369	196.289	85.3384	196.289	85.194	196.289	85.2727	196.289	85.1555	196.289	85.1906	196.289	85.1171	196.289	85.0924	196.289	85.0718	196.289	84.9774	196.289	85.0116	196.289	84.8447	196.289	84.9291	196.289	84.6946	196.289	84.8204	196.289	84.529	196.289	84.6859	196.289	84.3536	196.289	84.5306	196.289	84.1785	196.289	84.3636	196.289	84.0188	196.289	84.1964	196.289	83.8917	196.289	84.0422	196.289	83.8127	196.289	83.9146	196.289	83.7909	196.289	83.8271
203.613	85.4076	203.613	85.3951	203.613	85.3957	203.613	85.3577	203.613	85.3627	203.613	85.2983	203.613	85.3136	203.613	85.2221	203.613	85.2541	203.613	85.1352	203.613	85.1886	203.613	85.0415	203.613	85.1194	203.613	84.9413	203.613	85.0455	203.613	84.8309	203.613	84.9626	203.613	84.7048	203.613	84.8644	203.613	84.5593	203.613	84.7445	203.613	84.3962	203.613	84.5992	203.613	84.224	203.613	84.4305	203.613	84.0562	203.613	84.2477	203.613	83.9072	203.613	84.0662	203.613	83.7882	203.613	83.9043	203.613	83.7052	203.613	83.7774	203.613	83.6607	203.613	83.6942	203.613	83.6561
210.938	85.3546	210.938	85.3454	210.938	85.3431	210.938	85.3155	210.938	85.3119	210.938	85.2657	210.938	85.2622	210.938	85.1976	210.938	85.196	210.938	85.1122	210.938	85.1147	210.938	85.0095	210.938	85.0194	210.938	84.8879	210.938	84.9099	210.938	84.7452	210.938	84.7842	210.938	84.5798	210.938	84.6395	210.938	84.3933	210.938	84.4734	210.938	84.1928	210.938	84.2866	210.938	83.9904	210.938	84.0854	210.938	83.8014	210.938	83.8822	210.938	83.6395	210.938	83.6944	210.938	83.5128	210.938	83.5394	210.938	83.423	210.938	83.4292	210.938	83.3686	210.938	83.367	210.938	83.3488
218.262	85.0955	218.262	85.0969	218.262	85.0752	218.262	85.0795	218.262	85.0374	218.262	85.0444	218.262	84.9842	218.262	84.9932	218.262	84.9183	218.262	84.9267	218.262	84.8419	218.262	84.8433	218.262	84.7566	218.262	84.7384	218.262	84.6617	218.262	84.6056	218.262	84.5548	218.262	84.4406	218.262	84.4314	218.262	84.2446	218.262	84.2874	218.262	84.0278	218.262	84.121	218.262	83.8084	218.262	83.936	218.262	83.6079	218.262	83.7431	218.262	83.4439	218.262	83.5594	218.262	83.3244	218.262	83.4034	218.262	83.2472	218.262	83.2894	218.262	83.2058	218.262	83.2219	218.262	83.1964
225.586	84.9658	225.586	84.949	225.586	84.9602	225.586	84.9146	225.586	84.9291	225.586	84.8689	225.586	84.8721	225.586	84.8181	225.586	84.7911	225.586	84.7671	225.586	84.6898	225.586	84.7179	225.586	84.5734	225.586	84.667	225.586	84.4483	225.586	84.6048	225.586	84.3198	225.586	84.5179	225.586	84.1907	225.586	84.3947	225.586	84.0597	225.586	84.2326	225.586	83.9229	225.586	84.0409	225.586	83.7778	225.586	83.8397	225.586	83.6278	225.586	83.6522	225.586	83.4843	225.586	83.4958	225.586	83.3638	225.586	83.3774	225.586	83.2812	225.586	83.296	225.586	83.2438	225.586	83.2505
232.91	85.106	232.91	85.1053	232.91	85.0772	232.91	85.0774	232.91	85.0186	232.91	85.0259	232.91	84.9321	232.91	84.9542	232.91	84.8208	232.91	84.8665	232.91	84.6877	232.91	84.7678	232.91	84.5342	232.91	84.6625	232.91	84.3603	232.91	84.5513	232.91	84.1661	232.91	84.4285	232.91	83.9536	232.91	84.2838	232.91	83.7279	232.91	84.1095	232.91	83.4985	232.91	83.9092	232.91	83.28	232.91	83.7	232.91	83.0922	232.91	83.5057	232.91	82.9569	232.91	83.3437	232.91	82.8888	232.91	83.2158	232.91	82.888	232.91	83.1111	232.91	82.9388	232.91	83.0184
241.699	85.028	241.699	85.0243	241.699	84.9827	241.699	84.9743	241.699	84.8916	241.699	84.8841	241.699	84.7644	241.699	84.7611	241.699	84.6157	241.699	84.6123	241.699	84.4604	241.699	84.4453	241.699	84.3093	241.699	84.2693	241.699	84.164	241.699	84.0939	241.699	84.0185	241.699	83.9261	241.699	83.8625	241.699	83.7665	241.699	83.6881	241.699	83.6093	241.699	83.4935	241.699	83.4481	241.699	83.2845	241.699	83.2816	241.699	83.0738	241.699	83.1159	241.699	82.8806	241.699	82.9611	241.699	82.7273	241.699	82.8259	241.699	82.6332	241.699	82.7159	241.699	82.6058	241.699	82.6383
250.488	85.2738	250.488	85.2568	250.488	85.2269	250.488	85.1836	250.488	85.114	250.488	85.0647	250.488	84.9398	250.488	84.9102	250.488	84.7161	250.488	84.7274	250.488	84.4602	250.488	84.5202	250.488	84.1912	250.488	84.2906	250.488	83.925	250.488	84.0411	250.488	83.6696	250.488	83.775	250.488	83.4258	250.488	83.4942	250.488	83.1912	250.488	83.1988	250.488	82.966	250.488	82.8904	250.488	82.7547	250.488	82.5802	250.488	82.5628	250.488	82.2946	250.488	82.3928	250.488	82.069	250.488	82.2429	250.488	81.9311	250.488	82.1107	250.488	81.8859	250.488	81.9983	250.488	81.9166
259.277	84.9038	259.277	84.9286	259.277	84.8335	259.277	84.9061	259.277	84.7212	259.277	84.8366	259.277	84.5714	259.277	84.7242	259.277	84.3903	259.277	84.5743	259.277	84.1865	259.277	84.3909	259.277	83.9684	259.277	84.1745	259.277	83.7422	259.277	83.9241	259.277	83.5094	259.277	83.6422	259.277	83.2702	259.277	83.3378	259.277	83.0277	259.277	83.0266	259.277	82.7911	259.277	82.7251	259.277	82.5733	259.277	82.4466	259.277	82.3848	259.277	82.203	259.277	82.2282	259.277	82.009	259.277	82.0986	259.277	81.8804	259.277	81.9891	259.277	81.8256	259.277	81.8989	259.277	81.8381
268.066	84.7503	268.066	84.6511	268.066	84.8066	268.066	84.5213	268.066	84.8057	268.066	84.3675	268.066	84.7357	268.066	84.1901	268.066	84.5905	268.066	83.9868	268.066	84.3734	268.066	83.7582	268.066	84.0969	268.066	83.5134	268.066	83.7786	268.066	83.2702	268.066	83.4322	268.066	83.05	268.066	83.0624	268.066	82.8671	268.066	82.6712	268.066	82.7202	268.066	82.2727	268.066	82.5926	268.066	81.9033	268.066	82.4619	268.066	81.6122	268.066	82.3114	268.066	81.434	268.066	82.1374	268.066	81.3693	268.066	81.9502	268.066	81.3933	268.066	81.7677	268.066	81.4783	268.066	81.6065
276.855	84.7467	276.855	84.7321	276.855	84.6999	276.855	84.658	276.855	84.6025	276.855	84.5352	276.855	84.4736	276.855	84.3747	276.855	84.3312	276.855	84.1781	276.855	84.1835	276.855	83.9329	276.855	84.0277	276.855	83.6165	276.855	83.8562	276.855	83.2094	276.855	83.6645	276.855	82.7175	276.855	83.4531	276.855	82.1946	276.855	83.2236	276.855	81.7457	276.855	82.9759	276.855	81.4798	276.855	82.7118	276.855	81.4223	276.855	82.4405	276.855	81.4887	276.855	82.1793	276.855	81.5633	276.855	81.9459	276.855	81.586	276.855	81.7564	276.855	81.5706	276.855	81.6273	276.855	81.5696
287.109	84.1709	287.109	84.1441	287.109	84.1775	287.109	84.1083	287.109	84.1578	287.109	84.0787	287.109	84.112	287.109	84.0699	287.109	84.0457	287.109	84.0878	287.109	83.9648	287.109	84.1182	287.109	83.8689	287.109	84.1197	287.109	83.7456	287.109	84.0298	287.109	83.5714	287.109	83.7846	287.109	83.32	287.109	83.3484	287.109	82.9759	287.109	82.749	287.109	82.55	287.109	82.1092	287.109	82.0936	287.109	81.6298	287.109	81.6977	287.109	81.4649	287.109	81.4616	287.109	81.5805	287.109	81.4352	287.109	81.7958	287.109	81.5789	287.109	81.9396	287.109	81.7843	287.109	81.9317
297.363	84.5184	297.363	84.4569	297.363	84.5282	297.363	84.3464	297.363	84.479	297.363	84.1874	297.363	84.3603	297.363	83.9869	297.363	84.1648	297.363	83.7678	297.363	83.8929	297.363	83.5725	297.363	83.5556	297.363	83.448	297.363	83.1738	297.363	83.4119	297.363	82.7717	297.363	83.4229	297.363	82.3681	297.363	83.3908	297.363	81.9713	297.363	83.2229	297.363	81.5875	297.363	82.8729	297.363	81.2403	297.363	82.3734	297.363	80.982	297.363	81.8426	297.363	80.8684	297.363	81.4366	297.363	80.9059	297.363	81.2396	297.363	81.0299	297.363	81.2009	297.363	81.1474	297.363	81.1999
307.617	84.2126	307.617	84.1505	307.617	84.2249	307.617	84.0452	307.617	84.1932	307.617	83.9113	307.617	84.1311	307.617	83.7602	307.617	84.0508	307.617	83.5907	307.617	83.9558	307.617	83.3913	307.617	83.8375	307.617	83.1555	307.617	83.6793	307.617	82.8985	307.617	83.4634	307.617	82.6556	307.617	83.1792	307.617	82.4537	307.617	82.8264	307.617	82.2803	307.617	82.4129	307.617	82.0883	307.617	81.9533	307.617	81.8406	307.617	81.4766	307.617	81.5473	307.617	81.0401	307.617	81.2606	307.617	80.724	307.617	81.0279	307.617	80.5844	307.617	80.853	307.617	80.6039	307.617	80.7115
319.336	84.0966	319.336	83.9907	319.336	84.083	319.336	83.7733	319.336	83.9607	319.336	83.4693	319.336	83.7592	319.336	83.115	319.336	83.5248	319.336	82.7498	319.336	83.3115	319.336	82.4043	319.336	83.1616	319.336	82.0934	319.336	83.0835	319.336	81.8196	319.336	83.0409	319.336	81.5889	319.336	82.9666	319.336	81.422	319.336	82.7921	319.336	81.3412	319.336	82.4768	319.336	81.3384	319.336	82.03	319.336	81.3654	319.336	81.5234	319.336	81.3655	319.336	81.078	319.336	81.3107	319.336	80.8054	319.336	81.2085	319.336	80.7351	319.336	81.0801	319.336	80.8078	319.336	80.9401
329.59	84.0971	329.59	83.9572	329.59	84.1482	329.59	83.7438	329.59	84.0878	329.59	83.4688	329.59	83.8929	329.59	83.1515	329.59	83.5545	329.59	82.822	329.59	83.0933	329.59	82.5077	329.59	82.5732	329.59	82.2118	329.59	82.1022	329.59	81.9111	329.59	81.8017	329.59	81.5847	329.59	81.7377	329.59	81.2485	329.59	81.8635	329.59	80.9657	329.59	82.0449	329.59	80.8119	329.59	82.1433	329.59	80.8123	329.59	82.0792	329.59	80.9121	329.59	81.8535	329.59	81.0182	329.59	81.5387	329.59	81.0645	329.59	81.2454	329.59	81.0462	329.59	81.0656	329.59	81.0184
341.309	84.9487	341.309	84.9149	341.309	84.8587	341.309	84.7514	341.309	84.6516	341.309	84.4512	341.309	84.3344	341.309	84.0124	341.309	83.9115	341.309	83.4545	341.309	83.3847	341.309	82.8402	341.309	82.7643	341.309	82.2747	341.309	82.0929	341.309	81.8532	341.309	81.4652	341.309	81.585	341.309	81.0114	341.309	81.3921	341.309	80.8226	341.309	81.1954	341.309	80.8818	341.309	80.9864	341.309	81.0921	341.309	80.8256	341.309	81.3559	341.309	80.7866	341.309	81.6093	341.309	80.8999	341.309	81.8068	341.309	81.1377	341.309	81.9051	341.309	81.4322	341.309	81.8708	341.309	81.7005
353.027	84.8691	353.027	84.8082	353.027	84.8484	353.027	84.6707	353.027	84.7438	353.027	84.4577	353.027	84.5569	353.027	84.1616	353.027	84.2914	353.027	83.7689	353.027	83.947	353.027	83.277	353.027	83.513	353.027	82.7184	353.027	82.9665	353.027	82.173	353.027	82.285	353.027	81.7386	353.027	81.4786	353.027	81.4655	353.027	80.6357	353.027	81.3241	353.027	79.9435	353.027	81.2547	353.027	79.6072	353.027	81.2302	353.027	79.6812	353.027	81.2564	353.027	80.0319	353.027	81.3311	353.027	80.478	353.027	81.4177	353.027	80.8933	353.027	81.4578	353.027	81.2102	353.027	81.3985
366.211	84.8648	366.211	84.7694	366.211	84.8952	366.211	84.605	366.211	84.8618	366.211	84.368	366.211	84.7582	366.211	84.0534	366.211	84.57	366.211	83.6459	366.211	84.2817	366.211	83.1156	366.211	83.8874	366.211	82.4319	366.211	83.3987	366.211	81.6031	366.211	82.8407	366.211	80.7307	366.211	82.2341	366.211	80.0229	366.211	81.5857	366.211	79.6818	366.211	80.9098	366.211	79.7267	366.211	80.2777	366.211	80.0052	366.211	79.8391	366.211	80.3535	366.211	79.735	366.211	80.667	366.211	79.9504	366.211	80.883	366.211	80.3164	366.211	80.9622	366.211	80.6602	366.211	80.8868
379.395	84.8811	379.395	84.8684	379.395	84.8412	379.395	84.8054	379.395	84.7404	379.395	84.6782	379.395	84.5795	379.395	84.4625	379.395	84.3694	379.395	84.1374	379.395	84.1155	379.395	83.6916	379.395	83.8003	379.395	83.1171	379.395	83.3875	379.395	82.4044	379.395	82.8532	379.395	81.5591	379.395	82.2235	379.395	80.641	379.395	81.5863	379.395	79.8082	379.395	81.053	379.395	79.2971	379.395	80.6888	379.395	79.2661	379.395	80.4945	379.395	79.644	379.395	80.4596	379.395	80.2045	379.395	80.5857	379.395	80.7309	379.395	80.8316	379.395	81.0821	379.395	81.0806	379.395	81.1942
392.578	84.2182	392.578	84.1399	392.578	84.2192	392.578	84.0188	392.578	84.1267	392.578	83.8862	392.578	83.9443	392.578	83.7418	392.578	83.6856	392.578	83.5512	392.578	83.3697	392.578	83.2734	392.578	83.0182	392.578	82.8865	392.578	82.6449	392.578	82.3911	392.578	82.2402	392.578	81.8015	392.578	81.7732	392.578	81.1468	392.578	81.2299	392.578	80.4929	392.578	80.6685	392.578	79.9593	392.578	80.2368	392.578	79.6817	392.578	80.0791	392.578	79.7154	392.578	80.1909	392.578	79.9815	392.578	80.4292	392.578	80.3266	392.578	80.6505	392.578	80.6141	392.578	80.776	392.578	80.7694
405.762	84.4695	405.762	84.3613	405.762	84.4495	405.762	84.1257	405.762	84.3219	405.762	83.7947	405.762	84.1078	405.762	83.4173	405.762	83.813	405.762	83.0312	405.762	83.4271	405.762	82.645	405.762	82.9356	405.762	82.2462	405.762	82.3345	405.762	81.8185	405.762	81.6425	405.762	81.3535	405.762	80.9091	405.762	80.8623	405.762	80.2128	405.762	80.3975	405.762	79.6524	405.762	80.0563	405.762	79.3379	405.762	79.9246	405.762	79.3629	405.762	80.0058	405.762	79.7192	405.762	80.229	405.762	80.2415	405.762	80.5124	405.762	80.7031	405.762	80.7836	405.762	80.9529	405.762	80.9605
420.41	84.221	420.41	84.2266	420.41	84.2034	420.41	84.1957	420.41	84.1706	420.41	84.0898	420.41	84.1048	420.41	83.8813	420.41	83.9903	420.41	83.5576	420.41	83.8144	420.41	83.101	420.41	83.5595	420.41	82.4726	420.41	83.1967	420.41	81.6283	420.41	82.6843	420.41	80.5704	420.41	81.9741	420.41	79.4226	420.41	81.0327	420.41	78.4837	420.41	79.891	420.41	78.1167	420.41	78.719	420.41	78.4244	420.41	77.8738	420.41	79.1416	420.41	77.7285	420.41	79.9052	420.41	78.2784	420.41	80.4581	420.41	79.1438	420.41	80.6678	420.41	79.952	420.41	80.4914
435.059	84.0095	435.059	83.8655	435.059	84.0479	435.059	83.6812	435.059	83.9455	435.059	83.5004	435.059	83.7205	435.059	83.3046	435.059	83.4319	435.059	83.0248	435.059	83.138	435.059	82.5922	435.059	82.849	435.059	81.9781	435.059	82.5108	435.059	81.1977	435.059	82.0422	435.059	80.2907	435.059	81.3935	435.059	79.3204	435.059	80.5878	435.059	78.4268	435.059	79.7407	435.059	77.8994	435.059	79.0613	435.059	78.0317	435.059	78.7815	435.059	78.7278	435.059	78.9774	435.059	79.5653	435.059	79.4831	435.059	80.2242	435.059	80.0425	435.059	80.5932	435.059	80.4687	435.059	80.6667
451.172	84.6778	451.172	84.6067	451.172	84.6611	451.172	84.4332	451.172	84.5811	451.172	84.1685	451.172	84.4532	451.172	83.8489	451.172	84.2716	451.172	83.5116	451.172	84.0121	451.172	83.1534	451.172	83.6475	451.172	82.7049	451.172	83.1622	451.172	82.0496	451.172	82.5474	451.172	81.0804	451.172	81.7792	451.172	79.7748	451.172	80.8067	451.172	78.3019	451.172	79.6015	451.172	77.1359	451.172	78.3087	451.172	76.8444	451.172	77.4164	451.172	77.4381	451.172	77.4266	451.172	78.3986	451.172	78.1291	451.172	79.2617	451.172	78.9581	451.172	79.7857	451.172	79.589	451.172	79.8888
465.82	84.109	465.82	84.0655	465.82	84.1014	465.82	83.9816	465.82	84.0403	465.82	83.875	465.82	83.93	465.82	83.7499	465.82	83.7812	465.82	83.57	465.82	83.6012	465.82	83.2635	465.82	83.3733	465.82	82.7686	465.82	83.0493	465.82	82.0755	465.82	82.5723	465.82	81.2169	465.82	81.909	465.82	80.2257	465.82	81.0572	465.82	79.155	465.82	80.029	465.82	78.2135	465.82	78.8661	465.82	77.7829	465.82	77.765	465.82	77.9861	465.82	77.2033	465.82	78.4875	465.82	77.5165	465.82	78.9513	465.82	78.3023	465.82	79.2372	465.82	78.9666	465.82	79.271
483.398	83.9073	483.398	83.8499	483.398	83.9294	483.398	83.7472	483.398	83.9089	483.398	83.5858	483.398	83.823	483.398	83.3706	483.398	83.6448	483.398	83.1298	483.398	83.3655	483.398	82.8818	483.398	83.0072	483.398	82.5874	483.398	82.6039	483.398	82.1412	483.398	82.1574	483.398	81.414	483.398	81.6093	483.398	80.3156	483.398	80.8605	483.398	78.8734	483.398	79.8426	483.398	77.3724	483.398	78.6506	483.398	76.5177	483.398	77.6954	483.398	76.9403	483.398	77.5034	483.398	78.177	483.398	78.0601	483.398	79.3411	483.398	78.8952	483.398	79.9923	483.398	79.636	483.398	80.0578
499.512	84.3479	499.512	84.1162	499.512	84.3937	499.512	83.7673	499.512	84.2463	499.512	83.3749	499.512	83.9667	499.512	82.9661	499.512	83.6399	499.512	82.5277	499.512	83.3191	499.512	82.0546	499.512	83.007	499.512	81.5655	499.512	82.6771	499.512	81.0584	499.512	82.29	499.512	80.4714	499.512	81.7849	499.512	79.7176	499.512	81.0725	499.512	78.7868	499.512	80.0726	499.512	77.8827	499.512	78.8262	499.512	77.4668	499.512	77.6749	499.512	77.8316	499.512	77.2289	499.512	78.6226	499.512	77.6589	499.512	79.2983	499.512	78.4411	499.512	79.6037	499.512	79.1156	499.512	79.5231
517.09	84.1142	517.09	84.0796	517.09	84.0326	517.09	83.904	517.09	83.8548	517.09	83.5985	517.09	83.5975	517.09	83.2384	517.09	83.2983	517.09	82.9066	517.09	83.0143	517.09	82.5891	517.09	82.7877	517.09	82.1688	517.09	82.6089	517.09	81.5268	517.09	82.4075	517.09	80.6169	517.09	82.0715	517.09	79.4692	517.09	81.4825	517.09	78.2012	517.09	80.5561	517.09	77.1259	517.09	79.3083	517.09	76.783	517.09	78.0175	517.09	77.4047	517.09	77.3834	517.09	78.513	517.09	77.8919	517.09	79.5341	517.09	78.9811	517.09	80.1741	517.09	79.8953	517.09	80.3109
536.133	84.7141	536.133	84.5745	536.133	84.679	536.133	84.2973	536.133	84.4701	536.133	83.9303	536.133	84.1243	536.133	83.5099	536.133	83.6858	536.133	83.0676	536.133	83.18	536.133	82.6304	536.133	82.6074	536.133	82.1808	536.133	81.9455	536.133	81.6129	536.133	81.1635	536.133	80.7626	536.133	80.2624	536.133	79.5025	536.133	79.3031	536.133	77.8926	536.133	78.3574	536.133	76.4964	536.133	77.4658	536.133	76.2811	536.133	76.8039	536.133	77.1032	536.133	76.8325	536.133	78.0207	536.133	77.6678	536.133	78.6888	536.133	78.6743	536.133	79.1527	536.133	79.2921	536.133	79.4053
555.176	84.8673	555.176	84.8616	555.176	84.8315	555.176	84.7751	555.176	84.7495	555.176	84.5405	555.176	84.6026	555.176	84.1184	555.176	84.3894	555.176	83.5355	555.176	84.1222	555.176	82.8659	555.176	83.8081	555.176	82.1682	555.176	83.4415	555.176	81.443	555.176	82.9913	555.176	80.637	555.176	82.3713	555.176	79.6459	555.176	81.4424	555.176	78.3174	555.176	80.0867	555.176	76.6147	555.176	78.3474	555.176	75.1733	555.176	76.5857	555.176	75.3341	555.176	75.4768	555.176	76.7561	555.176	75.5429	555.176	78.0534	555.176	76.5515	555.176	78.6756	555.176	77.7495	555.176	78.5466
574.219	85.0112	574.219	84.7909	574.219	85.0208	574.219	84.4776	574.219	84.7683	574.219	84.182	574.219	84.3007	574.219	83.948	574.219	83.7485	574.219	83.7507	574.219	83.265	574.219	83.5206	574.219	82.9159	574.219	83.1578	574.219	82.6101	574.219	82.5458	574.219	82.1943	574.219	81.5648	574.219	81.598	574.219	80.0962	574.219	80.8377	574.219	78.0733	574.219	79.9159	574.219	75.7612	574.219	78.8202	574.219	74.4096	574.219	77.736	574.219	75.2763	574.219	77.2363	574.219	77.2327	574.219	77.7779	574.219	78.9968	574.219	78.945	574.219	80.1112	574.219	79.9857	574.219	80.4365
594.727	85.069	594.727	85.061	594.727	84.9811	594.727	84.9256	594.727	84.8262	594.727	84.642	594.727	84.6278	594.727	84.2308	594.727	84.3759	594.727	83.7625	594.727	84.0085	594.727	83.311	594.727	83.4858	594.727	82.8631	594.727	82.8845	594.727	82.283	594.727	82.3153	594.727	81.4075	594.727	81.71	594.727	80.193	594.727	80.8052	594.727	78.8007	594.727	79.3486	594.727	77.5483	594.727	77.3185	594.727	76.8919	594.727	75.4865	594.727	77.3857	594.727	75.6942	594.727	78.7185	594.727	77.3905	594.727	79.819	594.727	78.7921	594.727	80.2138	594.727	79.6028	594.727	80.0601
615.234	85.7019	615.234	85.5131	615.234	85.7293	615.234	85.214	615.234	85.6217	615.234	84.9176	615.234	85.4086	615.234	84.6829	615.234	85.1014	615.234	84.4752	615.234	84.7571	615.234	84.2607	615.234	84.4774	615.234	84.0299	615.234	84.2864	615.234	83.6787	615.234	84.0571	615.234	82.9745	615.234	83.5723	615.234	81.6876	615.234	82.5894	615.234	79.7159	615.234	80.8507	615.234	77.322	615.234	78.1976	615.234	75.8776	615.234	75.2422	615.234	76.6399	615.234	74.4752	615.234	78.2011	615.234	76.2875	615.234	79.4754	615.234	78.3631	615.234	80.2565	615.234	79.8039	615.234	80.4184
637.207	86.3714	637.207	86.161	637.207	86.3647	637.207	85.7707	637.207	86.1007	637.207	85.2604	637.207	85.6056	637.207	84.7618	637.207	85.0193	637.207	84.4047	637.207	84.5126	637.207	84.2266	637.207	84.1617	637.207	84.1929	637.207	83.9357	637.207	84.1577	637.207	83.7531	637.207	83.8192	637.207	83.4759	637.207	82.8354	637.207	82.8834	637.207	80.9465	637.207	81.7335	637.207	78.1393	637.207	79.8634	637.207	75.3802	637.207	77.4209	637.207	75.3651	637.207	76.0334	637.207	77.7139	637.207	77.6022	637.207	79.972	637.207	79.8695	637.207	81.3952	637.207	81.3498	637.207	81.8602
659.18	85.8529	659.18	85.7081	659.18	85.8372	659.18	85.3714	659.18	85.6601	659.18	84.7931	659.18	85.3114	659.18	84.0384	659.18	84.7903	659.18	83.3822	659.18	84.1657	659.18	83.0212	659.18	83.6058	659.18	82.7937	659.18	83.2173	659.18	82.4882	659.18	82.9054	659.18	82.0276	659.18	82.5396	659.18	81.2682	659.18	82.0214	659.18	79.8896	659.18	81.0721	659.18	77.6978	659.18	79.158	659.18	75.7877	659.18	75.9754	659.18	76.6289	659.18	73.9856	659.18	78.6009	659.18	75.94	659.18	79.8332	659.18	77.9703	659.18	80.1952	659.18	79.1835	659.18	79.9107
682.617	85.998	682.617	85.7887	682.617	85.999	682.617	85.4	682.617	85.7822	682.617	84.8361	682.617	85.3755	682.617	84.0928	682.617	84.8127	682.617	83.2533	682.617	84.1298	682.617	82.5483	682.617	83.4491	682.617	82.163	682.617	82.9953	682.617	81.9189	682.617	82.8073	682.617	81.45	682.617	82.5281	682.617	80.5224	682.617	81.7183	682.617	78.9878	682.617	80.18	682.617	76.7751	682.617	77.9682	682.617	74.7433	682.617	75.1561	682.617	75.382	682.617	72.3548	682.617	77.608	682.617	73.6577	682.617	79.3424	682.617	77.3876	682.617	80.3414	682.617	79.7304	682.617	80.5712
707.52	85.526	707.52	85.3848	707.52	85.4433	707.52	85.0288	707.52	85.1092	707.52	84.4425	707.52	84.5748	707.52	83.6839	707.52	83.9489	707.52	82.8803	707.52	83.2819	707.52	82.1257	707.52	82.5948	707.52	81.5568	707.52	82.016	707.52	81.3592	707.52	81.7125	707.52	81.3005	707.52	81.6113	707.52	80.7479	707.52	81.3557	707.52	79.1622	707.52	80.5352	707.52	76.249	707.52	78.7879	707.52	72.6123	707.52	75.8776	707.52	71.9543	707.52	72.9332	707.52	74.8095	707.52	73.8372	707.52	77.5798	707.52	76.6105	707.52	79.2221	707.52	78.6388	707.52	79.5559
732.422	85.7924	732.422	85.7979	732.422	85.6058	732.422	85.5068	732.422	85.3342	732.422	84.9339	732.422	84.9445	732.422	84.2127	732.422	84.3515	732.422	83.4649	732.422	83.5921	732.422	82.788	732.422	82.9029	732.422	82.2899	732.422	82.5393	732.422	81.9355	732.422	82.4729	732.422	81.4499	732.422	82.45	732.422	80.4749	732.422	82.2158	732.422	78.6842	732.422	81.4649	732.422	75.72	732.422	79.7241	732.422	71.6378	732.422	76.3136	732.422	71.9039	732.422	71.3358	732.422	76.1127	732.422	72.0868	732.422	78.6315	732.422	75.6239	732.422	79.4538	732.422	77.7936	732.422	79.0566
757.324	87.1415	757.324	86.9037	757.324	87.1919	757.324	86.5146	757.324	86.9863	757.324	85.9039	757.324	86.5171	757.324	84.9945	757.324	85.8134	757.324	83.9468	757.324	84.874	757.324	83.285	757.324	83.7551	757.324	83.3438	757.324	82.7912	757.324	83.6955	757.324	82.4065	757.324	83.6981	757.324	82.4571	757.324	82.976	757.324	82.3629	757.324	81.3005	757.324	81.6542	757.324	78.1908	757.324	80.0135	757.324	72.7774	757.324	77.1453	757.324	71.8144	757.324	73.3284	757.324	76.8268	757.324	73.2375	757.324	79.6624	757.324	76.9324	757.324	80.9519	757.324	79.6527	757.324	80.9617
785.156	87.0876	785.156	86.7853	785.156	87.1522	785.156	86.3302	785.156	86.8743	785.156	85.7201	785.156	86.2715	785.156	84.9156	785.156	85.5033	785.156	83.9293	785.156	84.6893	785.156	82.9092	785.156	83.8243	785.156	82.1646	785.156	83.062	785.156	81.922	785.156	82.797	785.156	82.0443	785.156	82.9809	785.156	82.0793	785.156	83.0278	785.156	81.288	785.156	82.4696	785.156	78.772	785.156	80.9997	785.156	73.5208	785.156	78.1882	785.156	69.3632	785.156	73.3297	785.156	73.8759	785.156	71.3191	785.156	76.6849	785.156	75.941	785.156	78.1243	785.156	78.3318	785.156	78.7921
811.523	87.2147	811.523	87.0229	811.523	87.1077	811.523	86.5823	811.523	86.7905	811.523	85.9308	811.523	86.385	811.523	85.0117	811.523	85.817	811.523	83.8453	811.523	84.8993	811.523	82.7502	811.523	83.6898	811.523	82.2816	811.523	82.6554	811.523	82.5515	811.523	82.2779	811.523	82.8349	811.523	82.4856	811.523	82.4211	811.523	82.731	811.523	81.0907	811.523	82.422	811.523	78.7651	811.523	81.1566	811.523	74.9988	811.523	78.6561	811.523	71.2028	811.523	74.8155	811.523	75.2662	811.523	72.7406	811.523	79.0174	811.523	75.7874	811.523	80.4698	811.523	78.6291	811.523	80.2132
840.82	87.1863	840.82	87.086	840.82	87.1306	840.82	86.7202	840.82	86.9474	840.82	86.0273	840.82	86.5525	840.82	85.0086	840.82	85.844	840.82	83.6552	840.82	84.8202	840.82	82.0837	840.82	83.6427	840.82	80.7454	840.82	82.5585	840.82	80.1834	840.82	81.8074	840.82	80.5484	840.82	81.6319	840.82	81.2482	840.82	81.8421	840.82	81.2425	840.82	81.8356	840.82	79.5908	840.82	80.9675	840.82	75.2852	840.82	78.3781	840.82	70.7132	840.82	73.0909	840.82	74.289	840.82	69.8754	840.82	77.2209	840.82	74.8269	840.82	78.893	840.82	78.0392	840.82	79.2934
870.117	86.9902	870.117	86.9902	870.117	87.0989	870.117	86.7641	870.117	87.0697	870.117	85.9825	870.117	86.5507	870.117	84.9086	870.117	85.6618	870.117	83.9773	870.117	84.7164	870.117	83.0033	870.117	83.6272	870.117	81.8273	870.117	82.3294	870.117	81.4294	870.117	81.4776	870.117	81.7441	870.117	81.3518	870.117	81.4314	870.117	81.2981	870.117	80.2397	870.117	80.8282	870.117	78.4122	870.117	79.8152	870.117	75.2497	870.117	77.95	870.117	69.6428	870.117	74.6865	870.117	72.5169	870.117	72.2206	870.117	77.3365	870.117	75.8352	870.117	79.1059	870.117	78.5425	870.117	79.3533
900.879	87.5914	900.879	87.2018	900.879	87.3584	900.879	86.6449	900.879	86.8381	900.879	86.3696	900.879	86.5478	900.879	85.838	900.879	86.2331	900.879	84.4874	900.879	85.3804	900.879	82.7283	900.879	84.0066	900.879	81.2343	900.879	82.4923	900.879	79.8696	900.879	81.2284	900.879	79.3598	900.879	80.7536	900.879	80.504	900.879	81.0456	900.879	80.96	900.879	81.0418	900.879	79.1116	900.879	80.081	900.879	74.55	900.879	77.7204	900.879	70.3582	900.879	73.3491	900.879	73.5834	900.879	72.067	900.879	77.5601	900.879	75.8896	900.879	79.7963	900.879	78.5705	900.879	80.0055
933.105	86.9619	933.105	86.9958	933.105	87.0608	933.105	86.7323	933.105	86.9999	933.105	85.871	933.105	86.4134	933.105	84.9813	933.105	85.4608	933.105	84.3928	933.105	84.4055	933.105	83.195	933.105	83.1973	933.105	81.1165	933.105	81.7821	933.105	80.3855	933.105	80.4596	933.105	81.0903	933.105	79.7097	933.105	81.0105	933.105	79.9815	933.105	80.1184	933.105	80.7249	933.105	78.8165	933.105	80.4108	933.105	75.4911	933.105	77.8265	933.105	69.0858	933.105	72.6282	933.105	73.8224	933.105	69.8562	933.105	77.1164	933.105	74.7212	933.105	78.7681	933.105	78.502	933.105	79.6437
965.332	87.0584	965.332	86.855	965.332	86.9018	965.332	86.5046	965.332	86.4744	965.332	86.1307	965.332	85.9941	965.332	85.3237	965.332	85.4762	965.332	83.7974	965.332	84.588	965.332	82.2201	965.332	83.0065	965.332	81.2386	965.332	81.0433	965.332	80.2947	965.332	79.7668	965.332	79.7691	965.332	79.8804	965.332	80.2323	965.332	80.4192	965.332	80.1198	965.332	80.1171	965.332	78.2046	965.332	78.7226	965.332	74.3807	965.332	76.2567	965.332	68.8081	965.332	71.5708	965.332	70.0846	965.332	69.3931	965.332	75.6747	965.332	75.5072	965.332	77.7134	965.332	77.6292	965.332	78.0234
1,000.49	86.7922	1,000.49	86.5803	1,000.49	86.5566	1,000.49	86.088	1,000.49	86.1757	1,000.49	85.5688	1,000.49	85.7706	1,000.49	84.9166	1,000.49	84.9881	1,000.49	83.9515	1,000.49	83.8184	1,000.49	82.4502	1,000.49	82.5907	1,000.49	80.4336	1,000.49	81.0561	1,000.49	79.4847	1,000.49	79.1446	1,000.49	80.1599	1,000.49	78.3611	1,000.49	80.4728	1,000.49	79.1508	1,000.49	79.768	1,000.49	79.3929	1,000.49	78.3416	1,000.49	78.2424	1,000.49	75.5285	1,000.49	75.6549	1,000.49	70.3771	1,000.49	70.9286	1,000.49	73.4428	1,000.49	68.6272	1,000.49	77.5718	1,000.49	73.6774	1,000.49	79.1407	1,000.49	77.5266	1,000.49	79.2481
1,035.64	86.0251	1,035.64	85.9881	1,035.64	86.0553	1,035.64	85.6583	1,035.64	85.9347	1,035.64	84.9935	1,035.64	85.3943	1,035.64	84.1615	1,035.64	84.5835	1,035.64	82.9752	1,035.64	83.5641	1,035.64	81.4661	1,035.64	82.0218	1,035.64	80.1218	1,035.64	79.9035	1,035.64	78.8765	1,035.64	77.8177	1,035.64	78.088	1,035.64	77.0803	1,035.64	78.5834	1,035.64	77.7318	1,035.64	78.2273	1,035.64	78.1889	1,035.64	76.1959	1,035.64	77.2402	1,035.64	73.0722	1,035.64	74.3232	1,035.64	71.8788	1,035.64	68.8232	1,035.64	74.0674	1,035.64	67.2817	1,035.64	76.9543	1,035.64	74.463	1,035.64	78.3814	1,035.64	77.5155	1,035.64	78.4865
1,072.27	85.4681	1,072.27	85.4806	1,072.27	85.2618	1,072.27	85.1082	1,072.27	85.0273	1,072.27	84.3764	1,072.27	84.8002	1,072.27	83.7224	1,072.27	84.3791	1,072.27	83.1049	1,072.27	83.5877	1,072.27	81.4867	1,072.27	82.2561	1,072.27	78.0363	1,072.27	80.0472	1,072.27	74.9047	1,072.27	76.9697	1,072.27	76.5646	1,072.27	75.4651	1,072.27	78.2599	1,072.27	77.2511	1,072.27	78.3537	1,072.27	78.4367	1,072.27	76.0316	1,072.27	77.8919	1,072.27	68.8418	1,072.27	74.973	1,072.27	67.6573	1,072.27	66.4088	1,072.27	74.6758	1,072.27	67.3219	1,072.27	77.755	1,072.27	75.476	1,072.27	79.4991	1,072.27	78.7152	1,072.27	79.9325
1,108.89	85.0357	1,108.89	84.5749	1,108.89	85.124	1,108.89	84.1547	1,108.89	84.5997	1,108.89	83.7127	1,108.89	83.7995	1,108.89	83.1078	1,108.89	83.0949	1,108.89	82.2956	1,108.89	82.5721	1,108.89	81.0675	1,108.89	82.0636	1,108.89	79.0913	1,108.89	80.8098	1,108.89	76.2452	1,108.89	77.843	1,108.89	75.4658	1,108.89	74.0315	1,108.89	77.5507	1,108.89	74.482	1,108.89	78.7074	1,108.89	77.2969	1,108.89	77.2378	1,108.89	78.0953	1,108.89	71.9095	1,108.89	76.1705	1,108.89	47.5847	1,108.89	70.1061	1,108.89	72.601	1,108.89	65.0291	1,108.89	77.7137	1,108.89	75.18	1,108.89	79.5507	1,108.89	78.7142	1,108.89	79.7906
1,148.44	84.4596	1,148.44	84.0841	1,148.44	84.525	1,148.44	83.5385	1,148.44	83.9798	1,148.44	82.5651	1,148.44	82.9366	1,148.44	81.5187	1,148.44	81.8652	1,148.44	80.8712	1,148.44	81.1239	1,148.44	79.8713	1,148.44	80.6455	1,148.44	78.1415	1,148.44	79.7471	1,148.44	75.556	1,148.44	77.8402	1,148.44	72.6549	1,148.44	75.0757	1,148.44	74.4417	1,148.44	74.1893	1,148.44	76.7492	1,148.44	75.1911	1,148.44	76.1016	1,148.44	76.0937	1,148.44	72.0048	1,148.44	75.7081	1,148.44	59.8863	1,148.44	71.1086	1,148.44	70.4503	1,148.44	60.2562	1,148.44	75.5278	1,148.44	71.3375	1,148.44	77.1811	1,148.44	75.7499	1,148.44	77.3767
1,189.45	83.8545	1,189.45	83.5205	1,189.45	83.9366	1,189.45	83.0481	1,189.45	83.5975	1,189.45	82.314	1,189.45	83.1142	1,189.45	81.5839	1,189.45	82.5462	1,189.45	81.1351	1,189.45	81.5307	1,189.45	80.1996	1,189.45	80.5375	1,189.45	78.2232	1,189.45	79.6548	1,189.45	75.5963	1,189.45	77.7894	1,189.45	72.4081	1,189.45	75.2814	1,189.45	73.6097	1,189.45	73.1379	1,189.45	76.417	1,189.45	74.0725	1,189.45	76.6412	1,189.45	76.9908	1,189.45	73.3442	1,189.45	77.2528	1,189.45	66.3571	1,189.45	73.4308	1,189.45	63.1314	1,189.45	63.4013	1,189.45	72.7633	1,189.45	63.7068	1,189.45	76.1888	1,189.45	72.744	1,189.45	76.2466
1,230.47	84.5581	1,230.47	84.2121	1,230.47	84.447	1,230.47	83.3996	1,230.47	84.2862	1,230.47	82.7405	1,230.47	83.5804	1,230.47	81.8623	1,230.47	82.4219	1,230.47	80.9806	1,230.47	81.7489	1,230.47	80.7874	1,230.47	81.5185	1,230.47	80.0053	1,230.47	80.8641	1,230.47	77.1652	1,230.47	79.4494	1,230.47	73.2105	1,230.47	77.1382	1,230.47	74.1468	1,230.47	75.5575	1,230.47	76.3814	1,230.47	76.4471	1,230.47	77.0495	1,230.47	77.2666	1,230.47	75.5242	1,230.47	77.0794	1,230.47	68.6798	1,230.47	74.8752	1,230.47	62.8361	1,230.47	65.3862	1,230.47	72.2393	1,230.47	67.9816	1,230.47	74.8717	1,230.47	74.4776	1,230.47	75.7044
1,274.41	84.9944	1,274.41	84.456	1,274.41	85.1848	1,274.41	83.8373	1,274.41	84.3932	1,274.41	82.7775	1,274.41	83.2214	1,274.41	81.6169	1,274.41	82.3269	1,274.41	80.8766	1,274.41	81.3111	1,274.41	80.2856	1,274.41	80.5987	1,274.41	79.2945	1,274.41	80.0319	1,274.41	77.4414	1,274.41	78.6446	1,274.41	74.8982	1,274.41	76.4384	1,274.41	73.3503	1,274.41	74.0957	1,274.41	75.3324	1,274.41	75.3901	1,274.41	76.4405	1,274.41	77.5782	1,274.41	74.5594	1,274.41	77.1511	1,274.41	66.6551	1,274.41	73.8196	1,274.41	65.0145	1,274.41	63.3489	1,274.41	74.1943	1,274.41	67.5	1,274.41	76.9917	1,274.41	75.0578	1,274.41	77.3196
1,319.82	85.1043	1,319.82	84.7032	1,319.82	85.0602	1,319.82	83.8594	1,319.82	84.521	1,319.82	82.5403	1,319.82	83.5176	1,319.82	81.2239	1,319.82	81.9141	1,319.82	80.2645	1,319.82	80.2361	1,319.82	79.9103	1,319.82	79.726	1,319.82	79.8368	1,319.82	79.7427	1,319.82	78.4186	1,319.82	78.5778	1,319.82	74.1261	1,319.82	75.8476	1,319.82	70.993	1,319.82	72.4704	1,319.82	75.6893	1,319.82	74.6035	1,319.82	76.9284	1,319.82	76.9722	1,319.82	74.7541	1,319.82	77.2703	1,319.82	65.286	1,319.82	73.6366	1,319.82	70.0999	1,319.82	64.1459	1,319.82	76.2265	1,319.82	72.2641	1,319.82	78.4545	1,319.82	77.1364	1,319.82	78.6847
1,366.7	85.2204	1,366.7	85.0549	1,366.7	84.7765	1,366.7	84.1453	1,366.7	84.2382	1,366.7	82.9791	1,366.7	83.6427	1,366.7	81.6503	1,366.7	82.3052	1,366.7	79.7486	1,366.7	80.353	1,366.7	78.9304	1,366.7	78.8922	1,366.7	79.0942	1,366.7	78.7605	1,366.7	77.258	1,366.7	79.089	1,366.7	74.0618	1,366.7	77.1145	1,366.7	72.0479	1,366.7	71.5469	1,366.7	75.4104	1,366.7	72.3069	1,366.7	78.4064	1,366.7	77.7372	1,366.7	78.4674	1,366.7	78.9297	1,366.7	73.5595	1,366.7	76.5959	1,366.7	69.4591	1,366.7	70.596	1,366.7	75.9032	1,366.7	72.5629	1,366.7	78.8218	1,366.7	76.7774	1,366.7	78.9171
1,413.57	84.9568	1,413.57	85.2878	1,413.57	84.8939	1,413.57	84.7319	1,413.57	84.9164	1,413.57	84.1217	1,413.57	84.3179	1,413.57	83.1345	1,413.57	83.2733	1,413.57	81.2695	1,413.57	82.1581	1,413.57	79.8064	1,413.57	80.1347	1,413.57	79.4055	1,413.57	78.2061	1,413.57	79.1691	1,413.57	78.6343	1,413.57	77.4397	1,413.57	77.6615	1,413.57	72.9314	1,413.57	73.3524	1,413.57	73.2103	1,413.57	67.5007	1,413.57	78.4821	1,413.57	74.3838	1,413.57	78.3841	1,413.57	77.6174	1,413.57	74.736	1,413.57	77.8149	1,413.57	70.2935	1,413.57	73.4153	1,413.57	73.3082	1,413.57	70.7102	1,413.57	75.8354	1,413.57	75.5276	1,413.57	76.9437
1,463.38	84.7633	1,463.38	84.1632	1,463.38	84.464	1,463.38	83.6121	1,463.38	83.9643	1,463.38	83.0568	1,463.38	83.7695	1,463.38	82.1477	1,463.38	83.092	1,463.38	81.2269	1,463.38	81.2588	1,463.38	79.4695	1,463.38	79.1798	1,463.38	78.5039	1,463.38	77.9845	1,463.38	79.0966	1,463.38	76.7686	1,463.38	77.5196	1,463.38	77.1795	1,463.38	73.6682	1,463.38	74.4375	1,463.38	72.9642	1,463.38	66.0552	1,463.38	75.8004	1,463.38	72.4056	1,463.38	76.8222	1,463.38	76.5794	1,463.38	75.2542	1,463.38	76.4547	1,463.38	67.3171	1,463.38	71.5513	1,463.38	67.3867	1,463.38	60.2036	1,463.38	73.4482	1,463.38	69.0704	1,463.38	74.065
1,516.11	83.2443	1,516.11	83.1084	1,516.11	83.1785	1,516.11	82.5139	1,516.11	82.7655	1,516.11	81.7204	1,516.11	81.9214	1,516.11	80.9901	1,516.11	81.2661	1,516.11	79.4664	1,516.11	80.7353	1,516.11	77.8639	1,516.11	78.9609	1,516.11	77.0333	1,516.11	77.1601	1,516.11	77.1603	1,516.11	76.1602	1,516.11	75.6806	1,516.11	75.5434	1,516.11	71.4973	1,516.11	73.8988	1,516.11	70.8847	1,516.11	70.6295	1,516.11	73.2587	1,516.11	69.112	1,516.11	74.4616	1,516.11	73.8941	1,516.11	71.4914	1,516.11	75.1211	1,516.11	59.6985	1,516.11	70.9764	1,516.11	66.3237	1,516.11	61.6999	1,516.11	72.385	1,516.11	66.6284	1,516.11	72.8268
1,568.85	83.1385	1,568.85	82.3431	1,568.85	82.7114	1,568.85	81.9389	1,568.85	81.822	1,568.85	81.2076	1,568.85	81.6287	1,568.85	80.2471	1,568.85	81.1505	1,568.85	79.2639	1,568.85	79.4934	1,568.85	76.8022	1,568.85	78.1558	1,568.85	75.7092	1,568.85	75.7646	1,568.85	76.1	1,568.85	75.413	1,568.85	74.4561	1,568.85	75.8443	1,568.85	71.3454	1,568.85	73.7419	1,568.85	70.8064	1,568.85	70.6119	1,568.85	73.8487	1,568.85	69.7941	1,568.85	74.9725	1,568.85	74.6446	1,568.85	72.3952	1,568.85	75.1816	1,568.85	64.6565	1,568.85	73.1461	1,568.85	64.5655	1,568.85	66.6278	1,568.85	71.6273	1,568.85	64.336	1,568.85	71.0163
1,624.51	83.9677	1,624.51	83.4377	1,624.51	83.8143	1,624.51	82.6244	1,624.51	83.1255	1,624.51	81.9401	1,624.51	82.5411	1,624.51	80.9282	1,624.51	82.1132	1,624.51	79.8408	1,624.51	80.4092	1,624.51	77.783	1,624.51	79.2879	1,624.51	75.1374	1,624.51	77.4416	1,624.51	75.6044	1,624.51	75.396	1,624.51	74.9891	1,624.51	75.0306	1,624.51	71.2062	1,624.51	74.4045	1,624.51	65.1315	1,624.51	71.8962	1,624.51	70.6896	1,624.51	68.5532	1,624.51	75.0081	1,624.51	72.9365	1,624.51	74.327	1,624.51	76.2462	1,624.51	68.0234	1,624.51	73.4871	1,624.51	63.0484	1,624.51	65.6418	1,624.51	70.6396	1,624.51	60.0243	1,624.51	71.0011
1,681.64	85.4352	1,681.64	84.7489	1,681.64	85.3289	1,681.64	84.6498	1,681.64	84.3874	1,681.64	83.442	1,681.64	83.7784	1,681.64	82.4603	1,681.64	82.4941	1,681.64	81.2685	1,681.64	81.8607	1,681.64	78.6806	1,681.64	80.9002	1,681.64	78.8253	1,681.64	79.4441	1,681.64	77.2165	1,681.64	78.5448	1,681.64	74.5861	1,681.64	77.2805	1,681.64	74.6757	1,681.64	77.4161	1,681.64	69.2404	1,681.64	74.8772	1,681.64	69.0388	1,681.64	71.8705	1,681.64	74.2258	1,681.64	73.0578	1,681.64	75.7052	1,681.64	74.4108	1,681.64	74.3741	1,681.64	74.7408	1,681.64	54.1797	1,681.64	66.7577	1,681.64	65.3741	1,681.64	62.0765	1,681.64	61.1354
1,741.7	86.2653	1,741.7	86.0035	1,741.7	85.7787	1,741.7	84.8355	1,741.7	84.9297	1,741.7	83.7551	1,741.7	83.8924	1,741.7	82.3375	1,741.7	83.5952	1,741.7	81.1838	1,741.7	82.6305	1,741.7	80.388	1,741.7	80.8585	1,741.7	78.0344	1,741.7	79.9051	1,741.7	76.0515	1,741.7	77.9929	1,741.7	76.195	1,741.7	77.6224	1,741.7	73.5275	1,741.7	74.7407	1,741.7	71.2723	1,741.7	72.8683	1,741.7	69.9715	1,741.7	71.8955	1,741.7	74.4122	1,741.7	72.6604	1,741.7	74.4399	1,741.7	73.7722	1,741.7	71.5484	1,741.7	73.0623	1,741.7	57.2022	1,741.7	66.7471	1,741.7	66.0899	1,741.7	63.2737	1,741.7	69.2931
1,803.22	85.0153	1,803.22	85.5594	1,803.22	84.8254	1,803.22	84.6906	1,803.22	84.7566	1,803.22	83.6619	1,803.22	82.8385	1,803.22	81.1666	1,803.22	81.542	1,803.22	81.2189	1,803.22	81.0702	1,803.22	80.8874	1,803.22	80.0807	1,803.22	80.5409	1,803.22	78.8962	1,803.22	77.1588	1,803.22	78.3546	1,803.22	77.8033	1,803.22	77.4293	1,803.22	75.2702	1,803.22	76.8756	1,803.22	73.8614	1,803.22	70.3836	1,803.22	73.6514	1,803.22	70.5435	1,803.22	73.3555	1,803.22	70.9901	1,803.22	75.2074	1,803.22	73.3462	1,803.22	73.2104	1,803.22	71.2759	1,803.22	64.5914	1,803.22	65.6135	1,803.22	69.5463	1,803.22	62.4482	1,803.22	71.4985
1,866.21	85.1511	1,866.21	83.6536	1,866.21	85.3097	1,866.21	82.9436	1,866.21	84.3081	1,866.21	82.8912	1,866.21	82.3597	1,866.21	81.8741	1,866.21	80.6861	1,866.21	78.7617	1,866.21	80.2888	1,866.21	78.2651	1,866.21	78.6529	1,866.21	78.6314	1,866.21	76.5688	1,866.21	77.404	1,866.21	73.4004	1,866.21	74.2701	1,866.21	73.6497	1,866.21	72.7715	1,866.21	73.0346	1,866.21	72.7652	1,866.21	75.2527	1,866.21	71.7199	1,866.21	71.6339	1,866.21	74.6579	1,866.21	73.7402	1,866.21	73.2092	1,866.21	74.564	1,866.21	68.4069	1,866.21	75.127	1,866.21	66.6771	1,866.21	70.3358	1,866.21	66.2913	1,866.21	62.5111	1,866.21	68.2617
1,932.13	84.4208	1,932.13	84.2308	1,932.13	85.3322	1,932.13	83.5941	1,932.13	85.1357	1,932.13	81.7808	1,932.13	83.969	1,932.13	80.4787	1,932.13	82.3257	1,932.13	79.6839	1,932.13	80.0199	1,932.13	79.0628	1,932.13	77.7416	1,932.13	76.9295	1,932.13	77.6031	1,932.13	75.6037	1,932.13	76.2729	1,932.13	75.3627	1,932.13	77.333	1,932.13	73.3504	1,932.13	74.3315	1,932.13	68.6615	1,932.13	70.6593	1,932.13	67.4845	1,932.13	68.8681	1,932.13	72.8703	1,932.13	71.8377	1,932.13	71.6623	1,932.13	74.0489	1,932.13	58.1683	1,932.13	74.2209	1,932.13	57.8821	1,932.13	67.7899	1,932.13	69.0478	1,932.13	62.6955	1,932.13	68.4943
1,999.51	84.1401	1,999.51	84.1974	1,999.51	85.2599	1,999.51	84.8973	1,999.51	84.9356	1,999.51	83.0178	1,999.51	83.018	1,999.51	82.0535	1,999.51	82.9544	1,999.51	79.2054	1,999.51	82.5344	1,999.51	75.1881	1,999.51	82.2072	1,999.51	74.3182	1,999.51	80.9093	1,999.51	72.4643	1,999.51	77.9322	1,999.51	74.5363	1,999.51	76.5846	1,999.51	72.0997	1,999.51	74.7878	1,999.51	66.7766	1,999.51	73.6125	1,999.51	70.1864	1,999.51	68.4226	1,999.51	66.7237	1,999.51	61.6362	1,999.51	71.774	1,999.51	73.9902	1,999.51	68.2808	1,999.51	77.8599	1,999.51	70.3751	1,999.51	72.4035	1,999.51	69.6027	1,999.51	62.4486	1,999.51	67.0378
2,069.82	86.666	2,069.82	85.8254	2,069.82	85.4642	2,069.82	85.6046	2,069.82	85.1014	2,069.82	84.0348	2,069.82	84.7985	2,069.82	83.0677	2,069.82	83.9703	2,069.82	81.8806	2,069.82	80.8465	2,069.82	79.4161	2,069.82	78.5473	2,069.82	76.2258	2,069.82	78.5644	2,069.82	70.8447	2,069.82	76.7389	2,069.82	71.8717	2,069.82	78.3051	2,069.82	72.2692	2,069.82	77.4973	2,069.82	70.0438	2,069.82	72.0595	2,069.82	66.4028	2,069.82	65.9499	2,069.82	72.3172	2,069.82	71.7474	2,069.82	73.643	2,069.82	75.1952	2,069.82	73.4405	2,069.82	70.2535	2,069.82	65.2725	2,069.82	72.954	2,069.82	68.0115	2,069.82	72.9261	2,069.82	68.9672
2,143.07	84.7408	2,143.07	84.3026	2,143.07	85.0867	2,143.07	84.224	2,143.07	84.6756	2,143.07	83.6777	2,143.07	84.2414	2,143.07	82.5659	2,143.07	82.8508	2,143.07	82.2143	2,143.07	81.7117	2,143.07	81.5095	2,143.07	80.0475	2,143.07	78.7084	2,143.07	79.85	2,143.07	78.4768	2,143.07	77.0181	2,143.07	75.9082	2,143.07	73.5848	2,143.07	74.8785	2,143.07	77.2868	2,143.07	70.2901	2,143.07	71.647	2,143.07	70.4798	2,143.07	66.2659	2,143.07	70.8846	2,143.07	69.2377	2,143.07	68.1502	2,143.07	67.7702	2,143.07	72.4762	2,143.07	50.7793	2,143.07	71.0612	2,143.07	66.3054	2,143.07	71.5055	2,143.07	73.2507	2,143.07	71.2404
2,219.24	84.3794	2,219.24	82.1179	2,219.24	83.9055	2,219.24	82.0168	2,219.24	83.8296	2,219.24	82.6198	2,219.24	81.008	2,219.24	82.4281	2,219.24	80.9182	2,219.24	78.9315	2,219.24	81.9492	2,219.24	77.0589	2,219.24	80.1945	2,219.24	78.9835	2,219.24	78.2743	2,219.24	77.2603	2,219.24	78.9742	2,219.24	75.5259	2,219.24	73.3931	2,219.24	72.9499	2,219.24	71.374	2,219.24	72.0811	2,219.24	72.0832	2,219.24	75.4054	2,219.24	68.8128	2,219.24	71.761	2,219.24	72.702	2,219.24	72.0299	2,219.24	74.9057	2,219.24	57.4389	2,219.24	70.4481	2,219.24	63.4516	2,219.24	62.4551	2,219.24	74.9824	2,219.24	71.7277	2,219.24	74.1357
2,296.88	82.9174	2,296.88	82.7754	2,296.88	83.2606	2,296.88	82.9082	2,296.88	82.4934	2,296.88	82.5384	2,296.88	82.0756	2,296.88	82.004	2,296.88	82.1166	2,296.88	80.8054	2,296.88	80.2385	2,296.88	79.2413	2,296.88	78.1353	2,296.88	77.1307	2,296.88	76.3285	2,296.88	75.3548	2,296.88	75.4407	2,296.88	72.4467	2,296.88	75.3538	2,296.88	77.0462	2,296.88	72.4823	2,296.88	71.7465	2,296.88	74.1742	2,296.88	70.4776	2,296.88	75.0316	2,296.88	73.7584	2,296.88	54.0403	2,296.88	70.8695	2,296.88	73.6958	2,296.88	68.9347	2,296.88	69.5507	2,296.88	65.5862	2,296.88	69.4142	2,296.88	74.3113	2,296.88	63.4162	2,296.88	69.2604
2,378.91	83.9084	2,378.91	81.9798	2,378.91	82.542	2,378.91	82.8198	2,378.91	83.9831	2,378.91	82.7022	2,378.91	83.8034	2,378.91	81.7707	2,378.91	82.9319	2,378.91	79.3299	2,378.91	81.3561	2,378.91	78.1235	2,378.91	81.3753	2,378.91	74.9823	2,378.91	78.589	2,378.91	76.8702	2,378.91	78.6407	2,378.91	74.2215	2,378.91	74.7706	2,378.91	70.8925	2,378.91	74.287	2,378.91	64.8857	2,378.91	74.1037	2,378.91	66.4076	2,378.91	69.118	2,378.91	71.6206	2,378.91	74.0767	2,378.91	73.9196	2,378.91	62.1636	2,378.91	68.8452	2,378.91	70.6549	2,378.91	66.5208	2,378.91	69.4976	2,378.91	65.1438	2,378.91	67.8947	2,378.91	71.8108
2,462.4	84.7837	2,462.4	84.5051	2,462.4	84.8427	2,462.4	84.3749	2,462.4	84.601	2,462.4	83.5043	2,462.4	84.5167	2,462.4	82.7486	2,462.4	83.4699	2,462.4	81.3997	2,462.4	82.7308	2,462.4	80.1821	2,462.4	81.9632	2,462.4	77.6047	2,462.4	80.4372	2,462.4	76.8961	2,462.4	78.378	2,462.4	74.5113	2,462.4	76.4973	2,462.4	72.3004	2,462.4	74.2405	2,462.4	73.3266	2,462.4	73.5186	2,462.4	68.8088	2,462.4	73.2579	2,462.4	68.7504	2,462.4	70.7242	2,462.4	72.1662	2,462.4	72.0878	2,462.4	72.1213	2,462.4	73.7272	2,462.4	63.3304	2,462.4	71.9602	2,462.4	65.3649	2,462.4	62.3141	2,462.4	69.6421
2,548.83	83.9039	2,548.83	84.0528	2,548.83	84.5576	2,548.83	84.1722	2,548.83	83.946	2,548.83	83.3936	2,548.83	83.9102	2,548.83	82.9376	2,548.83	82.992	2,548.83	82.4689	2,548.83	82.0403	2,548.83	80.9395	2,548.83	80.7598	2,548.83	79.2364	2,548.83	79.1029	2,548.83	78.9967	2,548.83	77.121	2,548.83	75.1072	2,548.83	75.6253	2,548.83	73.8919	2,548.83	72.4553	2,548.83	72.9502	2,548.83	72.2674	2,548.83	71.7555	2,548.83	70.9547	2,548.83	69.5939	2,548.83	70.2042	2,548.83	70.0784	2,548.83	68.3682	2,548.83	72.4641	2,548.83	71.5657	2,548.83	67.9995	2,548.83	71.6299	2,548.83	66.328	2,548.83	64.7607	2,548.83	66.364
2,639.65	82.6237	2,639.65	83.5429	2,639.65	82.6155	2,639.65	82.8512	2,639.65	83.2134	2,639.65	83.1387	2,639.65	82.6875	2,639.65	81.8707	2,639.65	82.1395	2,639.65	80.9752	2,639.65	81.2194	2,639.65	80.1727	2,639.65	79.9969	2,639.65	78.7823	2,639.65	77.8405	2,639.65	76.8981	2,639.65	75.9909	2,639.65	75.3027	2,639.65	74.846	2,639.65	73.4856	2,639.65	71.0666	2,639.65	70.7763	2,639.65	71.073	2,639.65	70.7897	2,639.65	70.0677	2,639.65	70.0677	2,639.65	69.952	2,639.65	69.8464	2,639.65	69.2801	2,639.65	71.7466	2,639.65	69.9185	2,639.65	68.2509	2,639.65	70.1996	2,639.65	68.0065	2,639.65	63.5389	2,639.65	66.8719
2,731.93	82.7567	2,731.93	83.1391	2,731.93	82.0615	2,731.93	82.9751	2,731.93	83.0991	2,731.93	83.0103	2,731.93	82.724	2,731.93	81.9535	2,731.93	82.5382	2,731.93	79.6108	2,731.93	81.336	2,731.93	78.5511	2,731.93	80.8342	2,731.93	77.5566	2,731.93	78.8466	2,731.93	74.7125	2,731.93	76.2772	2,731.93	74.508	2,731.93	74.8388	2,731.93	71.5083	2,731.93	72.645	2,731.93	69.3571	2,731.93	71.3312	2,731.93	69.6522	2,731.93	68.325	2,731.93	69.3509	2,731.93	70.3101	2,731.93	68.2292	2,731.93	70.3619	2,731.93	70.1078	2,731.93	69.2492	2,731.93	66.6158	2,731.93	71.0158	2,731.93	65.1903	2,731.93	65.8331	2,731.93	63.9958
2,828.61	82.9239	2,828.61	82.9318	2,828.61	83.2068	2,828.61	83.5677	2,828.61	83.0748	2,828.61	83.3485	2,828.61	83.2939	2,828.61	82.4949	2,828.61	82.9415	2,828.61	80.3278	2,828.61	82.1315	2,828.61	79.0234	2,828.61	80.8917	2,828.61	76.1708	2,828.61	79.3882	2,828.61	73.566	2,828.61	77.0994	2,828.61	73.8553	2,828.61	75.8889	2,828.61	70.7265	2,828.61	73.9683	2,828.61	69.0081	2,828.61	70.3201	2,828.61	69.0387	2,828.61	67.3202	2,828.61	70.4877	2,828.61	69.822	2,828.61	67.4173	2,828.61	70.3223	2,828.61	68.5987	2,828.61	69.8399	2,828.61	66.2304	2,828.61	70.2472	2,828.61	67.1631	2,828.61	65.9354	2,828.61	69.3357
2,928.22	83.2512	2,928.22	83.4217	2,928.22	83.8208	2,928.22	84.0168	2,928.22	83.4744	2,928.22	83.7466	2,928.22	83.9233	2,928.22	83.0187	2,928.22	83.5122	2,928.22	81.8904	2,928.22	82.4707	2,928.22	79.9938	2,928.22	80.8752	2,928.22	76.6656	2,928.22	79.0776	2,928.22	75.6356	2,928.22	76.6111	2,928.22	73.9989	2,928.22	75.1883	2,928.22	71.1989	2,928.22	73.9292	2,928.22	70.9146	2,928.22	69.588	2,928.22	67.5485	2,928.22	69.1811	2,928.22	70.7306	2,928.22	66.5111	2,928.22	68.0929	2,928.22	69.9337	2,928.22	69.2931	2,928.22	69.8541	2,928.22	67.4165	2,928.22	70.2747	2,928.22	65.5071	2,928.22	68.0416	2,928.22	68.5301
3,030.76	83.0567	3,030.76	83.5849	3,030.76	83.6968	3,030.76	84.0822	3,030.76	83.6701	3,030.76	84.0837	3,030.76	84.0833	3,030.76	83.4154	3,030.76	83.7502	3,030.76	82.3211	3,030.76	82.474	3,030.76	79.9494	3,030.76	80.6202	3,030.76	78.0192	3,030.76	78.8559	3,030.76	76.1544	3,030.76	76.3792	3,030.76	73.7089	3,030.76	73.8903	3,030.76	71.6893	3,030.76	73.0847	3,030.76	70.9859	3,030.76	71.3588	3,030.76	68.8212	3,030.76	70.9603	3,030.76	70.4993	3,030.76	67.1858	3,030.76	69.5486	3,030.76	70.5916	3,030.76	70.8709	3,030.76	68.5249	3,030.76	68.3033	3,030.76	71.3361	3,030.76	68.6464	3,030.76	68.3291	3,030.76	69.1726
3,137.7	82.5545	3,137.7	83.2331	3,137.7	82.7562	3,137.7	83.8454	3,137.7	83.412	3,137.7	83.7752	3,137.7	83.6567	3,137.7	83.4564	3,137.7	83.5122	3,137.7	82.1212	3,137.7	82.3543	3,137.7	79.6687	3,137.7	80.6063	3,137.7	78.1533	3,137.7	78.725	3,137.7	75.8136	3,137.7	76.6712	3,137.7	73.8625	3,137.7	74.5538	3,137.7	70.9938	3,137.7	72.7053	3,137.7	70.8904	3,137.7	70.2844	3,137.7	67.174	3,137.7	69.9044	3,137.7	70.3906	3,137.7	67.8847	3,137.7	69.4988	3,137.7	70.7528	3,137.7	71.0046	3,137.7	69.1354	3,137.7	69.1499	3,137.7	70.3568	3,137.7	68.7257	3,137.7	68.0888	3,137.7	69.4256
3,249.02	82.3623	3,249.02	82.8156	3,249.02	82.621	3,249.02	83.2019	3,249.02	83.1781	3,249.02	83.1734	3,249.02	83.2987	3,249.02	82.3812	3,249.02	83.1488	3,249.02	80.9534	3,249.02	82.0795	3,249.02	78.7165	3,249.02	80.5075	3,249.02	77.5765	3,249.02	77.8658	3,249.02	74.8869	3,249.02	76.4055	3,249.02	72.3355	3,249.02	74.4038	3,249.02	70.7992	3,249.02	72.0395	3,249.02	69.4245	3,249.02	70.2152	3,249.02	67.3053	3,249.02	69.5504	3,249.02	68.4213	3,249.02	67.3247	3,249.02	68.3187	3,249.02	70.6075	3,249.02	70.3601	3,249.02	69.1436	3,249.02	68.5009	3,249.02	70.5577	3,249.02	67.3024	3,249.02	67.5475	3,249.02	66.0473
3,363.28	82.4451	3,363.28	83.115	3,363.28	82.0381	3,363.28	83.2351	3,363.28	83.5009	3,363.28	83.1867	3,363.28	83.6854	3,363.28	82.4186	3,363.28	83.1841	3,363.28	80.6049	3,363.28	81.6634	3,363.28	78.4233	3,363.28	80.1364	3,363.28	76.6447	3,363.28	77.4656	3,363.28	74.4184	3,363.28	75.1867	3,363.28	71.1582	3,363.28	73.1477	3,363.28	69.7104	3,363.28	70.8535	3,363.28	67.7408	3,363.28	70.2092	3,363.28	67.2873	3,363.28	68.7517	3,363.28	66.4257	3,363.28	65.975	3,363.28	68.0516	3,363.28	69.0588	3,363.28	68.6255	3,363.28	69.09	3,363.28	67.901	3,363.28	69.86	3,363.28	64.0042	3,363.28	65.5367	3,363.28	65.746
3,481.93	82.4801	3,481.93	82.888	3,481.93	82.6164	3,481.93	83.8411	3,481.93	82.8453	3,481.93	83.9855	3,481.93	83.2979	3,481.93	82.8277	3,481.93	82.7177	3,481.93	80.7699	3,481.93	81.771	3,481.93	78.4966	3,481.93	80.3707	3,481.93	76.4517	3,481.93	78.1223	3,481.93	74.7962	3,481.93	75.513	3,481.93	71.8076	3,481.93	73.3688	3,481.93	69.1524	3,481.93	70.5798	3,481.93	67.6674	3,481.93	69.3401	3,481.93	67.5077	3,481.93	67.9468	3,481.93	67.9875	3,481.93	64.8087	3,481.93	69.6347	3,481.93	67.2977	3,481.93	68.5027	3,481.93	68.2681	3,481.93	68.9161	3,481.93	69.0946	3,481.93	65.518	3,481.93	66.8513	3,481.93	67.5587
3,604.98	82.7536	3,604.98	83.0008	3,604.98	83.1334	3,604.98	83.348	3,604.98	83.4415	3,604.98	83.5268	3,604.98	83.9728	3,604.98	82.2693	3,604.98	83.6087	3,604.98	80.6313	3,604.98	82.7463	3,604.98	78.776	3,604.98	81.0174	3,604.98	76.4118	3,604.98	78.6059	3,604.98	74.333	3,604.98	76.7059	3,604.98	71.1217	3,604.98	74.618	3,604.98	70.8109	3,604.98	71.5807	3,604.98	66.046	3,604.98	70.9875	3,604.98	67.7014	3,604.98	67.5628	3,604.98	65.3146	3,604.98	69.0755	3,604.98	69.3439	3,604.98	67.5318	3,604.98	66.57	3,604.98	69.1193	3,604.98	69.2971	3,604.98	68.5795	3,604.98	65.8991	3,604.98	67.4587	3,604.98	67.0756
3,732.42	83.9233	3,732.42	83.8657	3,732.42	84.1734	3,732.42	84.0742	3,732.42	84.3811	3,732.42	83.697	3,732.42	84.1991	3,732.42	82.0881	3,732.42	83.9517	3,732.42	81.2097	3,732.42	82.8507	3,732.42	79.2468	3,732.42	80.5125	3,732.42	77.0148	3,732.42	77.8471	3,732.42	74.7908	3,732.42	75.4888	3,732.42	72.1893	3,732.42	73.3795	3,732.42	69.8803	3,732.42	70.0707	3,732.42	67.4641	3,732.42	70.0969	3,732.42	68.1945	3,732.42	66.6057	3,732.42	62.3467	3,732.42	69.1885	3,732.42	69.7062	3,732.42	66.8716	3,732.42	67.9491	3,732.42	68.0291	3,732.42	68.9879	3,732.42	67.427	3,732.42	65.6915	3,732.42	66.8542	3,732.42	66.3242
3,864.26	83.1876	3,864.26	83.7589	3,864.26	83.0596	3,864.26	83.9382	3,864.26	83.4807	3,864.26	83.3144	3,864.26	83.3856	3,864.26	82.5961	3,864.26	82.4544	3,864.26	80.8182	3,864.26	81.3203	3,864.26	78.5538	3,864.26	78.4216	3,864.26	76.2216	3,864.26	76.1165	3,864.26	74.225	3,864.26	75.3559	3,864.26	73.1637	3,864.26	72.4512	3,864.26	69.2691	3,864.26	70.4123	3,864.26	67.8572	3,864.26	67.7978	3,864.26	68.8859	3,864.26	64.5959	3,864.26	62.0726	3,864.26	66.2885	3,864.26	69.933	3,864.26	62.3597	3,864.26	67.9837	3,864.26	68.0545	3,864.26	67.5728	3,864.26	63.466	3,864.26	65.3149	3,864.26	64.7534	3,864.26	64.8267
4,000.49	84.1737	4,000.49	84.2905	4,000.49	84.0622	4,000.49	83.8845	4,000.49	84.2867	4,000.49	83.4541	4,000.49	83.7148	4,000.49	82.3146	4,000.49	82.672	4,000.49	79.9126	4,000.49	80.7763	4,000.49	78.0272	4,000.49	79.1221	4,000.49	75.4304	4,000.49	76.976	4,000.49	71.9713	4,000.49	74.4493	4,000.49	71.6945	4,000.49	71.5054	4,000.49	69.2241	4,000.49	71.0651	4,000.49	68.2685	4,000.49	67.8507	4,000.49	66.3409	4,000.49	68.5628	4,000.49	63.1666	4,000.49	68.7149	4,000.49	68.1521	4,000.49	63.7549	4,000.49	68.2364	4,000.49	68.5483	4,000.49	65.9515	4,000.49	67.93	4,000.49	63.1491	4,000.49	63.7423	4,000.49	63.8521
4,141.11	85.5833	4,141.11	84.6414	4,141.11	85.7365	4,141.11	85.0749	4,141.11	84.4773	4,141.11	83.8915	4,141.11	83.8761	4,141.11	81.8871	4,141.11	82.267	4,141.11	80.4402	4,141.11	80.6444	4,141.11	79.0454	4,141.11	79.7749	4,141.11	76.863	4,141.11	78.1057	4,141.11	74.6053	4,141.11	75.4682	4,141.11	71.8508	4,141.11	73.6387	4,141.11	70.4837	4,141.11	72.1044	4,141.11	65.6112	4,141.11	69.5298	4,141.11	69.1248	4,141.11	67.4065	4,141.11	62.6757	4,141.11	68.6217	4,141.11	65.4727	4,141.11	66.5291	4,141.11	69.1032	4,141.11	66.9705	4,141.11	68.8266	4,141.11	66.7016	4,141.11	61.542	4,141.11	68.0932	4,141.11	64.118
4,287.6	85.2031	4,287.6	84.872	4,287.6	85.0983	4,287.6	84.2738	4,287.6	84.6437	4,287.6	82.8383	4,287.6	83.2031	4,287.6	81.3705	4,287.6	82.9596	4,287.6	80.0333	4,287.6	81.7369	4,287.6	79.6542	4,287.6	80.3046	4,287.6	77.5281	4,287.6	78.9063	4,287.6	74.7404	4,287.6	75.484	4,287.6	72.573	4,287.6	74.9307	4,287.6	69.4964	4,287.6	72.0384	4,287.6	70.4442	4,287.6	69.5057	4,287.6	69.0597	4,287.6	69.0847	4,287.6	66.5933	4,287.6	70.799	4,287.6	69.6745	4,287.6	65.5632	4,287.6	64.4606	4,287.6	70.5697	4,287.6	69.9167	4,287.6	63.05	4,287.6	65.6085	4,287.6	69.7628	4,287.6	64.3001
4,438.48	84.7207	4,438.48	84.8545	4,438.48	84.9584	4,438.48	83.4508	4,438.48	84.6422	4,438.48	83.2142	4,438.48	83.6963	4,438.48	82.9455	4,438.48	82.8486	4,438.48	82.1016	4,438.48	82.5222	4,438.48	79.9716	4,438.48	80.8281	4,438.48	77.2295	4,438.48	79.2632	4,438.48	75.2855	4,438.48	77.1781	4,438.48	73.8088	4,438.48	74.3909	4,438.48	72.9206	4,438.48	72.8308	4,438.48	70.6844	4,438.48	69.2397	4,438.48	67.8395	4,438.48	70.3139	4,438.48	69.2875	4,438.48	69.4392	4,438.48	68.2728	4,438.48	65.1817	4,438.48	65.673	4,438.48	70.9369	4,438.48	69.6595	4,438.48	64.8982	4,438.48	64.3741	4,438.48	67.782	4,438.48	66.3128
4,595.21	85.5875	4,595.21	84.0149	4,595.21	85.7465	4,595.21	84.3062	4,595.21	83.8522	4,595.21	83.1494	4,595.21	84.1076	4,595.21	83.5154	4,595.21	82.8649	4,595.21	82.6493	4,595.21	80.9778	4,595.21	80.4707	4,595.21	81.1463	4,595.21	77.4166	4,595.21	79.8181	4,595.21	76.7155	4,595.21	75.6946	4,595.21	72.6231	4,595.21	74.9609	4,595.21	73.8839	4,595.21	71.2825	4,595.21	68.9945	4,595.21	69.7739	4,595.21	67.4874	4,595.21	69.3231	4,595.21	72.1872	4,595.21	69.4288	4,595.21	67.8477	4,595.21	69.5132	4,595.21	70.2765	4,595.21	70.5594	4,595.21	67.4694	4,595.21	66.6476	4,595.21	65.768	4,595.21	65.9838	4,595.21	67.3672
4,756.35	86.6032	4,756.35	85.868	4,756.35	85.7931	4,756.35	84.4329	4,756.35	85.3136	4,756.35	83.949	4,756.35	83.5407	4,756.35	82.9437	4,756.35	83.8903	4,756.35	81.4872	4,756.35	83.4311	4,756.35	80.7896	4,756.35	80.8793	4,756.35	77.6597	4,756.35	79.264	4,756.35	74.5936	4,756.35	77.7659	4,756.35	70.4893	4,756.35	74.5613	4,756.35	68.7896	4,756.35	70.1236	4,756.35	68.1294	4,756.35	67.8791	4,756.35	66.9311	4,756.35	68.8896	4,756.35	69.9134	4,756.35	68.3715	4,756.35	65.5712	4,756.35	70.0429	4,756.35	70.0283	4,756.35	67.7207	4,756.35	65.1534	4,756.35	68.087	4,756.35	62.1474	4,756.35	63.993	4,756.35	65.7496
4,924.8	86.7067	4,924.8	85.9646	4,924.8	86.3863	4,924.8	83.452	4,924.8	85.1189	4,924.8	83.965	4,924.8	83.6938	4,924.8	83.1926	4,924.8	84.0649	4,924.8	82.2891	4,924.8	83.945	4,924.8	81.0372	4,924.8	81.8073	4,924.8	79.4488	4,924.8	78.3342	4,924.8	75.5877	4,924.8	77.0777	4,924.8	74.0661	4,924.8	73.3029	4,924.8	69.2309	4,924.8	70.7181	4,924.8	68.7697	4,924.8	68.7916	4,924.8	67.0749	4,924.8	65.865	4,924.8	69.14	4,924.8	66.2201	4,924.8	69.1183	4,924.8	67.2862	4,924.8	69.6404	4,924.8	67.9358	4,924.8	66.7539	4,924.8	67.9533	4,924.8	63.4922	4,924.8	65.3605	4,924.8	63.7303
5,097.66	86.7259	5,097.66	85.5171	5,097.66	87.1944	5,097.66	84.3413	5,097.66	85.1368	5,097.66	83.1629	5,097.66	84.9096	5,097.66	83.4374	5,097.66	83.5851	5,097.66	81.4131	5,097.66	82.7248	5,097.66	79.0463	5,097.66	81.0889	5,097.66	75.9953	5,097.66	78.1723	5,097.66	73.7662	5,097.66	74.2606	5,097.66	71.028	5,097.66	72.3706	5,097.66	71.6667	5,097.66	70.0404	5,097.66	67.589	5,097.66	67.602	5,097.66	65.4649	5,097.66	64.7339	5,097.66	65.0859	5,097.66	66.9986	5,097.66	69.5438	5,097.66	67.525	5,097.66	71.1674	5,097.66	66.393	5,097.66	66.473	5,097.66	70.065	5,097.66	61.8685	5,097.66	66.4721	5,097.66	61.72
5,277.83	87.3243	5,277.83	86.2576	5,277.83	86.546	5,277.83	85.4693	5,277.83	85.8267	5,277.83	85.2159	5,277.83	83.9564	5,277.83	84.9772	5,277.83	84.0819	5,277.83	82.6947	5,277.83	83.3086	5,277.83	80.038	5,277.83	80.6377	5,277.83	76.3877	5,277.83	76.7481	5,277.83	74.9076	5,277.83	75.285	5,277.83	70.3569	5,277.83	71.6445	5,277.83	69.0813	5,277.83	69.8805	5,277.83	65.3255	5,277.83	67.3176	5,277.83	64.4378	5,277.83	64.2664	5,277.83	64.8227	5,277.83	65.251	5,277.83	63.6536	5,277.83	66.3956	5,277.83	68.2902	5,277.83	66.9116	5,277.83	65.9268	5,277.83	68.6102	5,277.83	58.4676	5,277.83	65.6552	5,277.83	57.8982
5,463.87	87.4113	5,463.87	86.3183	5,463.87	87.2007	5,463.87	85.0899	5,463.87	86.1138	5,463.87	84.3904	5,463.87	85.2143	5,463.87	83.2178	5,463.87	84.75	5,463.87	81.6458	5,463.87	83.7531	5,463.87	78.8729	5,463.87	81.0946	5,463.87	78.6742	5,463.87	78.4333	5,463.87	73.7619	5,463.87	75.3991	5,463.87	73.3888	5,463.87	71.8936	5,463.87	63.3375	5,463.87	69.728	5,463.87	65.1199	5,463.87	69.4417	5,463.87	64.4495	5,463.87	60.785	5,463.87	66.0197	5,463.87	64.2427	5,463.87	65.4607	5,463.87	64.3359	5,463.87	71.0956	5,463.87	65.1954	5,463.87	65.779	5,463.87	67.504	5,463.87	62.2513	5,463.87	67.1876	5,463.87	59.4868
5,657.23	87.3814	5,657.23	86.5963	5,657.23	87.4081	5,657.23	85.7261	5,657.23	85.3057	5,657.23	84.6489	5,657.23	85.1115	5,657.23	83.765	5,657.23	84.0333	5,657.23	81.4121	5,657.23	82.1331	5,657.23	78.234	5,657.23	80.0083	5,657.23	75.7683	5,657.23	77.4609	5,657.23	72.2227	5,657.23	74.1909	5,657.23	70.7118	5,657.23	72.1244	5,657.23	68.1695	5,657.23	70.2109	5,657.23	63.4492	5,657.23	67.0432	5,657.23	61.9514	5,657.23	64.7705	5,657.23	64.626	5,657.23	65.8039	5,657.23	66.5538	5,657.23	65.9285	5,657.23	68.7727	5,657.23	65.0729	5,657.23	65.4516	5,657.23	68.0121	5,657.23	62.9841	5,657.23	66.761	5,657.23	59.9063
5,856.45	87.0154	5,856.45	86.0792	5,856.45	86.4414	5,856.45	84.7136	5,856.45	85.7804	5,856.45	83.0299	5,856.45	83.566	5,856.45	81.7902	5,856.45	83.1022	5,856.45	79.0529	5,856.45	81.1337	5,856.45	77.8496	5,856.45	78.5787	5,856.45	73.4793	5,856.45	75.937	5,856.45	73.8432	5,856.45	75.3661	5,856.45	70.9316	5,856.45	72.4938	5,856.45	68.8169	5,856.45	69.6563	5,856.45	67.5395	5,856.45	67.2023	5,856.45	64.6589	5,856.45	65.1042	5,856.45	63.8969	5,856.45	65.1255	5,856.45	62.6513	5,856.45	63.1797	5,856.45	67.7298	5,856.45	61.5252	5,856.45	66.5964	5,856.45	68.6686	5,856.45	56.7233	5,856.45	65.8165	5,856.45	56.4647
6,062.99	87.6163	6,062.99	86.6818	6,062.99	87.6754	6,062.99	85.3646	6,062.99	85.815	6,062.99	84.1373	6,062.99	84.233	6,062.99	82.4497	6,062.99	81.5577	6,062.99	81.2453	6,062.99	80.3618	6,062.99	79.7223	6,062.99	78.908	6,062.99	77.5591	6,062.99	78.5432	6,062.99	73.9758	6,062.99	75.5975	6,062.99	69.8611	6,062.99	72.5002	6,062.99	66.1909	6,062.99	70.0371	6,062.99	63.2543	6,062.99	67.0617	6,062.99	59.1793	6,062.99	64.9907	6,062.99	62.538	6,062.99	64.853	6,062.99	64.0764	6,062.99	60.108	6,062.99	67.0919	6,062.99	61.1824	6,062.99	63.8204	6,062.99	65.8125	6,062.99	57.0564	6,062.99	66.7325	6,062.99	48.776
6,276.86	88.4086	6,276.86	87.3664	6,276.86	88.0297	6,276.86	85.095	6,276.86	85.9615	6,276.86	83.1319	6,276.86	83.825	6,276.86	82.2521	6,276.86	81.3559	6,276.86	80.793	6,276.86	80.0418	6,276.86	78.9667	6,276.86	79.0721	6,276.86	76.9874	6,276.86	76.5393	6,276.86	74.0482	6,276.86	74.0975	6,276.86	71.2308	6,276.86	71.2441	6,276.86	67.7764	6,276.86	68.4123	6,276.86	65.8909	6,276.86	65.0322	6,276.86	63.2051	6,276.86	65.0074	6,276.86	60.7626	6,276.86	56.7889	6,276.86	59.5268	6,276.86	62.3551	6,276.86	65.844	6,276.86	62.7176	6,276.86	65.323	6,276.86	63.6929	6,276.86	56.9017	6,276.86	64.5075	6,276.86	43.3617
6,498.05	88.9381	6,498.05	87.7563	6,498.05	88.1621	6,498.05	85.154	6,498.05	86.3902	6,498.05	83.7888	6,498.05	83.4851	6,498.05	83.2	6,498.05	82.4378	6,498.05	80.9485	6,498.05	81.9972	6,498.05	79.8984	6,498.05	79.614	6,498.05	76.1989	6,498.05	76.3584	6,498.05	73.4799	6,498.05	72.6153	6,498.05	69.7214	6,498.05	69.6046	6,498.05	67.6687	6,498.05	64.7588	6,498.05	66.4514	6,498.05	63.2511	6,498.05	63.6002	6,498.05	63.2417	6,498.05	60.1446	6,498.05	38.125	6,498.05	62.8695	6,498.05	62.7289	6,498.05	67.5431	6,498.05	62.5813	6,498.05	67.0199	6,498.05	64.1461	6,498.05	42.2239	6,498.05	62.7091	6,498.05	49.4953
6,726.56	88.5615	6,726.56	87.6291	6,726.56	88.3114	6,726.56	85.3628	6,726.56	86.0916	6,726.56	83.5091	6,726.56	84.0692	6,726.56	82.508	6,726.56	81.9161	6,726.56	82.1915	6,726.56	81.0644	6,726.56	78.4884	6,726.56	79.4198	6,726.56	76.0861	6,726.56	76.2684	6,726.56	73.6268	6,726.56	72.702	6,726.56	71.9733	6,726.56	69.7833	6,726.56	67.5366	6,726.56	67.7099	6,726.56	67.7693	6,726.56	65.9963	6,726.56	63.2947	6,726.56	57.6342	6,726.56	61.436	6,726.56	62.0156	6,726.56	62.1532	6,726.56	58.8099	6,726.56	66.5088	6,726.56	57.5497	6,726.56	66.5262	6,726.56	63.5619	6,726.56	55.0823	6,726.56	62.6322	6,726.56	44.0457
6,963.87	88.6106	6,963.87	87.6176	6,963.87	88.131	6,963.87	85.6537	6,963.87	86.6548	6,963.87	82.9685	6,963.87	84.0691	6,963.87	82.274	6,963.87	82.6212	6,963.87	79.7112	6,963.87	81.2513	6,963.87	78.4513	6,963.87	79.4053	6,963.87	76.2498	6,963.87	76.3337	6,963.87	72.7251	6,963.87	73.7555	6,963.87	69.6593	6,963.87	69.8762	6,963.87	66.2234	6,963.87	69.1544	6,963.87	63.0416	6,963.87	64.4031	6,963.87	60.976	6,963.87	63.3718	6,963.87	61.0132	6,963.87	59.8496	6,963.87	63.3704	6,963.87	61.7282	6,963.87	66.102	6,963.87	62.8853	6,963.87	65.5576	6,963.87	67.6363	6,963.87	35.8254	6,963.87	63.8924	6,963.87	19.1066
7,209.96	88.6325	7,209.96	87.9826	7,209.96	88.5214	7,209.96	85.6774	7,209.96	87.3824	7,209.96	82.9785	7,209.96	84.5252	7,209.96	81.9108	7,209.96	82.6349	7,209.96	81.0098	7,209.96	82.4879	7,209.96	78.9436	7,209.96	80.478	7,209.96	76.5124	7,209.96	79.2451	7,209.96	73.6733	7,209.96	74.8579	7,209.96	70.4892	7,209.96	72.2774	7,209.96	66.0216	7,209.96	69.2139	7,209.96	66.5114	7,209.96	68.0287	7,209.96	61.5861	7,209.96	64.128	7,209.96	57.2099	7,209.96	62.3725	7,209.96	63.3711	7,209.96	62.1668	7,209.96	66.7822	7,209.96	60.9943	7,209.96	65.9446	7,209.96	67.4701	7,209.96	49.9019	7,209.96	65.4651	7,209.96	39.4721
7,464.84	87.8585	7,464.84	87.8101	7,464.84	87.8563	7,464.84	85.9409	7,464.84	87.3428	7,464.84	82.6116	7,464.84	84.6353	7,464.84	82.4105	7,464.84	82.0078	7,464.84	81.1954	7,464.84	80.8558	7,464.84	78.2958	7,464.84	79.6578	7,464.84	75.5633	7,464.84	77.8011	7,464.84	72.6646	7,464.84	74.4996	7,464.84	69.4706	7,464.84	71.5615	7,464.84	66.6815	7,464.84	68.0478	7,464.84	59.9763	7,464.84	65.9056	7,464.84	60.1006	7,464.84	63.7876	7,464.84	55.3276	7,464.84	56.4072	7,464.84	62.6115	7,464.84	62.2757	7,464.84	65.8587	7,464.84	61.6075	7,464.84	61.3759	7,464.84	67.22	7,464.84	52.2217	7,464.84	64.377	7,464.84	42.3855
7,727.05	88.5611	7,727.05	88.6061	7,727.05	88.6149	7,727.05	86.5123	7,727.05	87.7605	7,727.05	83.739	7,727.05	85.1525	7,727.05	82.085	7,727.05	83.2673	7,727.05	79.9663	7,727.05	81.9775	7,727.05	78.349	7,727.05	80.226	7,727.05	74.8176	7,727.05	77.951	7,727.05	71.6535	7,727.05	74.1173	7,727.05	68.3254	7,727.05	72.0899	7,727.05	66.1328	7,727.05	68.6363	7,727.05	59.8436	7,727.05	66.8895	7,727.05	58.0314	7,727.05	64.8018	7,727.05	55.6168	7,727.05	55.6654	7,727.05	60.3467	7,727.05	61.7323	7,727.05	64.4105	7,727.05	61.4722	7,727.05	64.4101	7,727.05	66.6549	7,727.05	47.2296	7,727.05	64.3177	7,727.05	40.3668
7,999.51	88.2483	7,999.51	88.1459	7,999.51	88.2011	7,999.51	86.2955	7,999.51	87.4125	7,999.51	83.3688	7,999.51	84.8565	7,999.51	81.9104	7,999.51	82.2512	7,999.51	80.1658	7,999.51	80.4373	7,999.51	78.0405	7,999.51	78.4194	7,999.51	75.3701	7,999.51	76.5769	7,999.51	72.2609	7,999.51	74.2374	7,999.51	70.5022	7,999.51	71.6087	7,999.51	66.6648	7,999.51	67.566	7,999.51	62.7485	7,999.51	66.0558	7,999.51	59.239	7,999.51	62.9797	7,999.51	56.8623	7,999.51	55.0489	7,999.51	61.115	7,999.51	60.1808	7,999.51	64.1784	7,999.51	60.001	7,999.51	62.9086	7,999.51	65.6784	7,999.51	49.9014	7,999.51	62.728	7,999.51	38.4902
8,282.23	88.1693	8,282.23	87.9378	8,282.23	88.3254	8,282.23	86.3284	8,282.23	87.0501	8,282.23	83.8828	8,282.23	85.0039	8,282.23	82.0518	8,282.23	82.8831	8,282.23	79.9941	8,282.23	81.0603	8,282.23	78.2724	8,282.23	79.1917	8,282.23	75.362	8,282.23	77.3728	8,282.23	72.3927	8,282.23	75.1214	8,282.23	69.6527	8,282.23	71.5319	8,282.23	66.8192	8,282.23	69.5368	8,282.23	64.4948	8,282.23	66.833	8,282.23	61.3346	8,282.23	65.5995	8,282.23	56.8877	8,282.23	57.8415	8,282.23	61.2692	8,282.23	58.4689	8,282.23	65.1091	8,282.23	58.8577	8,282.23	63.7192	8,282.23	66.5612	8,282.23	48.515	8,282.23	62.2807	8,282.23	48.3809
8,573.73	88.1414	8,573.73	87.6526	8,573.73	87.8216	8,573.73	86.4116	8,573.73	87.3908	8,573.73	83.536	8,573.73	85.3749	8,573.73	82.0663	8,573.73	82.7922	8,573.73	80.1461	8,573.73	81.1666	8,573.73	78.1407	8,573.73	79.5612	8,573.73	76.2752	8,573.73	77.8824	8,573.73	73.056	8,573.73	75.6024	8,573.73	68.7188	8,573.73	72.0687	8,573.73	65.7087	8,573.73	68.2728	8,573.73	65.2755	8,573.73	66.321	8,573.73	63.1349	8,573.73	63.2571	8,573.73	59.0443	8,573.73	58.6321	8,573.73	59.1283	8,573.73	59.6222	8,573.73	63.4594	8,573.73	60.1929	8,573.73	63.3018	8,573.73	65.3082	8,573.73	55.7316	8,573.73	61.5933	8,573.73	51.8315
8,876.95	87.7396	8,876.95	87.0263	8,876.95	87.6806	8,876.95	86.1385	8,876.95	86.9044	8,876.95	84.0321	8,876.95	85.8017	8,876.95	81.7373	8,876.95	83.3128	8,876.95	79.6446	8,876.95	81.5985	8,876.95	77.83	8,876.95	80.2767	8,876.95	75.1187	8,876.95	78.536	8,876.95	71.2712	8,876.95	75.1113	8,876.95	68.9789	8,876.95	72.0364	8,876.95	66.0075	8,876.95	68.7517	8,876.95	63.5528	8,876.95	66.5049	8,876.95	65.0107	8,876.95	64.3521	8,876.95	46.2216	8,876.95	54.5577	8,876.95	54.9279	8,876.95	58.9008	8,876.95	62.9871	8,876.95	58.1965	8,876.95	62.273	8,876.95	65.7595	8,876.95	54.6591	8,876.95	62.4638	8,876.95	36.8102
9,188.96	87.505	9,188.96	86.7786	9,188.96	87.4276	9,188.96	86.2598	9,188.96	86.7183	9,188.96	83.5754	9,188.96	85.7419	9,188.96	81.5001	9,188.96	82.7354	9,188.96	79.8579	9,188.96	81.6377	9,188.96	78.2057	9,188.96	80.2956	9,188.96	75.3146	9,188.96	77.6311	9,188.96	72.4104	9,188.96	75.39	9,188.96	68.6228	9,188.96	72.3811	9,188.96	66.2649	9,188.96	69.2751	9,188.96	63.1733	9,188.96	66.5098	9,188.96	64.1925	9,188.96	64.649	9,188.96	53.9857	9,188.96	53.7074	9,188.96	58.5645	9,188.96	53.8014	9,188.96	62.1331	9,188.96	60.4606	9,188.96	62.745	9,188.96	65.4223	9,188.96	59.5695	9,188.96	62.8615	9,188.96	48.0439
9,514.16	87.4128	9,514.16	86.5516	9,514.16	87.5056	9,514.16	86.0021	9,514.16	86.5519	9,514.16	83.6163	9,514.16	85.6491	9,514.16	81.1625	9,514.16	82.5832	9,514.16	79.5072	9,514.16	81.813	9,514.16	77.9744	9,514.16	80.3363	9,514.16	74.6337	9,514.16	78.4786	9,514.16	71.8309	9,514.16	75.5333	9,514.16	69.3128	9,514.16	72.4929	9,514.16	65.8661	9,514.16	69.4603	9,514.16	63.5888	9,514.16	66.6388	9,514.16	64.2527	9,514.16	64.6142	9,514.16	56.9544	9,514.16	55.4644	9,514.16	55.1885	9,514.16	59.4917	9,514.16	61.9834	9,514.16	62.3562	9,514.16	62.4999	9,514.16	65.2522	9,514.16	57.185	9,514.16	60.6428	9,514.16	43.5716
9,849.61	87.2066	9,849.61	86.3746	9,849.61	86.7904	9,849.61	85.9514	9,849.61	86.4843	9,849.61	83.0702	9,849.61	85.6764	9,849.61	81.2513	9,849.61	82.9844	9,849.61	79.6313	9,849.61	81.4828	9,849.61	77.3905	9,849.61	79.9001	9,849.61	75.3644	9,849.61	78.398	9,849.61	72.2795	9,849.61	76.0779	9,849.61	68.6303	9,849.61	72.3453	9,849.61	67.3187	9,849.61	69.7527	9,849.61	65.0261	9,849.61	66.7249	9,849.61	61.1797	9,849.61	64.6123	9,849.61	57.1053	9,849.61	62.0791	9,849.61	55.0366	9,849.61	57.8986	9,849.61	60.27	9,849.61	61.7058	9,849.61	60.8163	9,849.61	64.3908	9,849.61	61.3001	9,849.61	62.0916	9,849.61	49.0097
10,196.8	86.6594	10,196.8	86.0608	10,196.8	86.5727	10,196.8	85.9152	10,196.8	86.6378	10,196.8	83.5002	10,196.8	85.7414	10,196.8	81.0849	10,196.8	83.2208	10,196.8	78.9827	10,196.8	81.3574	10,196.8	78.4156	10,196.8	80.1832	10,196.8	76.4185	10,196.8	78.7119	10,196.8	72.4642	10,196.8	75.9804	10,196.8	69.4403	10,196.8	71.8222	10,196.8	66.1567	10,196.8	69.1237	10,196.8	64.5632	10,196.8	66.925	10,196.8	59.9714	10,196.8	64.9392	10,196.8	54.8729	10,196.8	62.4654	10,196.8	51.1607	10,196.8	57.3046	10,196.8	59.1201	10,196.8	60.7727	10,196.8	61.9354	10,196.8	65.4475	10,196.8	59.7864	10,196.8	60.5744	10,196.8	49.5327
10,555.7	86.3454	10,555.7	86.1185	10,555.7	86.4954	10,555.7	85.6288	10,555.7	86.4405	10,555.7	83.6047	10,555.7	85.9429	10,555.7	80.5683	10,555.7	83.5111	10,555.7	80.0754	10,555.7	81.4688	10,555.7	78.2016	10,555.7	80.5345	10,555.7	75.8724	10,555.7	78.5066	10,555.7	71.3981	10,555.7	75.3136	10,555.7	67.5487	10,555.7	70.7268	10,555.7	64.0445	10,555.7	68.6765	10,555.7	63.3325	10,555.7	64.5824	10,555.7	62.1464	10,555.7	62.579	10,555.7	53.3275	10,555.7	64.831	10,555.7	46.3507	10,555.7	58.8992	10,555.7	58.6276	10,555.7	60.5924	10,555.7	59.2579	10,555.7	64.4249	10,555.7	60.1468	10,555.7	58.69	10,555.7	53.7104
10,927.7	86.2116	10,927.7	86.1683	10,927.7	86.566	10,927.7	85.7863	10,927.7	86.5363	10,927.7	84.1397	10,927.7	85.5348	10,927.7	81.3803	10,927.7	83.566	10,927.7	80.1886	10,927.7	81.4009	10,927.7	78.3514	10,927.7	80.7145	10,927.7	75.2061	10,927.7	78.0841	10,927.7	70.7102	10,927.7	74.1597	10,927.7	66.9106	10,927.7	69.5934	10,927.7	62.8734	10,927.7	65.2421	10,927.7	61.0383	10,927.7	63.4696	10,927.7	61.3475	10,927.7	62.0279	10,927.7	58.2712	10,927.7	61.0655	10,927.7	52.2301	10,927.7	55.8025	10,927.7	58.6112	10,927.7	59.8925	10,927.7	59.522	10,927.7	64.544	10,927.7	56.2256	10,927.7	60.49	10,927.7	55.1269
11,313	85.9893	11,313	86.184	11,313	86.5578	11,313	86.0057	11,313	86.4526	11,313	84.1535	11,313	85.3676	11,313	82.5327	11,313	83.5281	11,313	81.0981	11,313	82.1373	11,313	78.1322	11,313	80.77	11,313	74.763	11,313	78.2573	11,313	70.3569	11,313	73.5733	11,313	69.3258	11,313	70.7318	11,313	64.2102	11,313	65.8993	11,313	61.0198	11,313	63.949	11,313	62.2735	11,313	62.0805	11,313	56.8846	11,313	60.8349	11,313	55.2219	11,313	57.3882	11,313	57.9488	11,313	57.3106	11,313	60.2074	11,313	63.6326	11,313	52.144	11,313	60.4249	11,313	53.396
11,712.9	85.4033	11,712.9	86.8487	11,712.9	85.9115	11,712.9	85.881	11,712.9	86.3587	11,712.9	84.9078	11,712.9	86.0691	11,712.9	83.6295	11,712.9	84.3674	11,712.9	81.6447	11,712.9	82.897	11,712.9	78.6422	11,712.9	80.7984	11,712.9	76.0362	11,712.9	78.3574	11,712.9	71.775	11,712.9	75.1079	11,712.9	69.4507	11,712.9	71.2846	11,712.9	65.6622	11,712.9	69.0424	11,712.9	62.8271	11,712.9	64.7571	11,712.9	61.5288	11,712.9	61.7981	11,712.9	50.4605	11,712.9	63.4358	11,712.9	55.1911	11,712.9	60.2979	11,712.9	58.8574	11,712.9	55.1385	11,712.9	59.8694	11,712.9	63.4565	11,712.9	53.7982	11,712.9	60.2123	11,712.9	53.2027
12,126	85.5202	12,126	86.6909	12,126	86.2401	12,126	86.26	12,126	86.5327	12,126	85.8061	12,126	86.3707	12,126	84.07	12,126	85.2802	12,126	81.5365	12,126	83.5457	12,126	78.9568	12,126	81.1884	12,126	76.6863	12,126	79.4704	12,126	72.5783	12,126	76.6139	12,126	70.636	12,126	72.1086	12,126	63.924	12,126	69.434	12,126	62.9326	12,126	65.6583	12,126	60.9252	12,126	63.4515	12,126	56.3064	12,126	65.407	12,126	50.8928	12,126	62.0622	12,126	60.9542	12,126	59.0392	12,126	59.213	12,126	62.4824	12,126	57.3859	12,126	57.8842	12,126	51.3118
12,553.7	86.302	12,553.7	86.7345	12,553.7	86.9099	12,553.7	86.6675	12,553.7	86.5246	12,553.7	86.2632	12,553.7	87.0535	12,553.7	84.5368	12,553.7	86.2131	12,553.7	81.3904	12,553.7	83.9537	12,553.7	79.6443	12,553.7	81.4639	12,553.7	76.6538	12,553.7	79.8327	12,553.7	71.8574	12,553.7	76.5452	12,553.7	69.0411	12,553.7	71.9223	12,553.7	63.3865	12,553.7	69.2756	12,553.7	62.8017	12,553.7	66.6152	12,553.7	60.5125	12,553.7	64.9233	12,553.7	54.9929	12,553.7	64.5268	12,553.7	50.467	12,553.7	62.4086	12,553.7	61.2568	12,553.7	61.0315	12,553.7	60.3395	12,553.7	64.2116	12,553.7	57.511	12,553.7	58.2619	12,553.7	53.3915
12,996.1	87.7215	12,996.1	87.2298	12,996.1	87.5031	12,996.1	87.3322	12,996.1	87.5686	12,996.1	87.2016	12,996.1	87.8896	12,996.1	85.2923	12,996.1	86.9816	12,996.1	81.6964	12,996.1	84.2402	12,996.1	79.8626	12,996.1	82.314	12,996.1	75.6727	12,996.1	79.8527	12,996.1	70.939	12,996.1	76.4944	12,996.1	66.7173	12,996.1	71.3263	12,996.1	64.8562	12,996.1	69.5431	12,996.1	64.255	12,996.1	64.922	12,996.1	59.17	12,996.1	65.2681	12,996.1	54.2389	12,996.1	63.8552	12,996.1	55.5364	12,996.1	62.3197	12,996.1	60.2646	12,996.1	59.7488	12,996.1	60.9105	12,996.1	63.9681	12,996.1	58.98	12,996.1	56.9549	12,996.1	47.4391
13,454.6	88.6307	13,454.6	88.1406	13,454.6	88.2665	13,454.6	88.3697	13,454.6	88.4092	13,454.6	88.1815	13,454.6	89.1626	13,454.6	85.6062	13,454.6	88.3309	13,454.6	82.5296	13,454.6	84.9768	13,454.6	79.6864	13,454.6	83.3473	13,454.6	75.579	13,454.6	80.3913	13,454.6	71.3804	13,454.6	77.2521	13,454.6	67.2442	13,454.6	71.3649	13,454.6	64.8104	13,454.6	69.3087	13,454.6	64.1225	13,454.6	64.5007	13,454.6	60.348	13,454.6	65.3249	13,454.6	59.553	13,454.6	63.1958	13,454.6	49.496	13,454.6	61.7082	13,454.6	59.6128	13,454.6	59.8574	13,454.6	62.3951	13,454.6	63.4669	13,454.6	59.1748	13,454.6	54.4555	13,454.6	43.6295
13,929.2	89.5636	13,929.2	89.3251	13,929.2	89.2334	13,929.2	89.5758	13,929.2	89.4808	13,929.2	89.3485	13,929.2	90.4177	13,929.2	86.5361	13,929.2	89.3665	13,929.2	83.3388	13,929.2	86.1528	13,929.2	80.0126	13,929.2	83.7864	13,929.2	76.2742	13,929.2	80.1673	13,929.2	71.638	13,929.2	76.3931	13,929.2	67.7583	13,929.2	70.5929	13,929.2	64.6713	13,929.2	69.0036	13,929.2	65.0748	13,929.2	64.2912	13,929.2	62.7408	13,929.2	63.6579	13,929.2	58.7286	13,929.2	62.2727	13,929.2	52.1181	13,929.2	59.4439	13,929.2	59.765	13,929.2	55.8173	13,929.2	61.4513	13,929.2	59.4386	13,929.2	60.218	13,929.2	37.2681	13,929.2	49.6403
14,419.9	89.9289	14,419.9	89.5595	14,419.9	89.6594	14,419.9	90.468	14,419.9	89.9803	14,419.9	90.0679	14,419.9	91.0163	14,419.9	87.3227	14,419.9	89.8517	14,419.9	83.9439	14,419.9	86.8527	14,419.9	80.4555	14,419.9	84.3548	14,419.9	75.7267	14,419.9	81.0415	14,419.9	68.8282	14,419.9	76.2369	14,419.9	65.8144	14,419.9	69.969	14,419.9	62.1265	14,419.9	68.4664	14,419.9	64.0628	14,419.9	63.1261	14,419.9	58.6676	14,419.9	62.7385	14,419.9	56.1959	14,419.9	59.249	14,419.9	52.5978	14,419.9	60.0804	14,419.9	61.7291	14,419.9	56.3994	14,419.9	57.7113	14,419.9	59.2829	14,419.9	58.509	14,419.9	54.6355	14,419.9	54.1517
14,928.2	90.155	14,928.2	90.2775	14,928.2	90.2793	14,928.2	91.4341	14,928.2	90.7283	14,928.2	90.7761	14,928.2	91.7538	14,928.2	88.167	14,928.2	90.3273	14,928.2	84.2884	14,928.2	87.1871	14,928.2	79.7401	14,928.2	83.9	14,928.2	73.7008	14,928.2	79.8917	14,928.2	67.4317	14,928.2	73.5117	14,928.2	66.2171	14,928.2	67.9861	14,928.2	60.1551	14,928.2	65.8196	14,928.2	60.9349	14,928.2	61.5821	14,928.2	56.2799	14,928.2	60.2894	14,928.2	57.6816	14,928.2	55.1545	14,928.2	48.1605	14,928.2	56.6067	14,928.2	59.9459	14,928.2	51.0776	14,928.2	57.387	14,928.2	55.8561	14,928.2	58.9794	14,928.2	58.347	14,928.2	49.9907
15,455.6	90.2328	15,455.6	90.9527	15,455.6	90.3995	15,455.6	91.7483	15,455.6	91.0971	15,455.6	90.8956	15,455.6	91.7222	15,455.6	88.285	15,455.6	90.298	15,455.6	83.5757	15,455.6	87.0114	15,455.6	77.5728	15,455.6	82.9807	15,455.6	70.9585	15,455.6	77.821	15,455.6	64.6484	15,455.6	69.9274	15,455.6	61.8856	15,455.6	65.6693	15,455.6	60.9242	15,455.6	62.7875	15,455.6	58.3417	15,455.6	58.832	15,455.6	55.4182	15,455.6	57.5653	15,455.6	57.5439	15,455.6	56.2414	15,455.6	48.7687	15,455.6	52.1467	15,455.6	57.5365	15,455.6	53.6613	15,455.6	56.5766	15,455.6	47.9641	15,455.6	60.2023	15,455.6	56.2656	15,455.6	45.1516
16,000.5	90.3318	16,000.5	90.9351	16,000.5	90.4263	16,000.5	90.8902	16,000.5	90.741	16,000.5	89.7322	16,000.5	90.4644	16,000.5	86.6703	16,000.5	88.7426	16,000.5	81.6315	16,000.5	85.3889	16,000.5	72.7384	16,000.5	80.4094	16,000.5	65.0325	16,000.5	73.7467	16,000.5	62.1213	16,000.5	64.5	16,000.5	59.6788	16,000.5	58.0743	16,000.5	58.8966	16,000.5	55.8096	16,000.5	58.2354	16,000.5	49.5081	16,000.5	56.2661	16,000.5	53.0154	16,000.5	55.9954	16,000.5	50.3374	16,000.5	47.1524	16,000.5	43.88	16,000.5	50.6041	16,000.5	52.9743	16,000.5	51.5886	16,000.5	49.8971	16,000.5	54.7793	16,000.5	50.829	16,000.5	51.1497
16,564.5	88.342	16,564.5	88.1977	16,564.5	88.3855	16,564.5	87.4068	16,564.5	87.9022	16,564.5	85.4243	16,564.5	86.7693	16,564.5	81.6617	16,564.5	83.7697	16,564.5	75.7303	16,564.5	79.2159	16,564.5	64.1088	16,564.5	72.5164	16,564.5	48.1865	16,564.5	60.2741	16,564.5	59.318	16,564.5	52.1478	16,564.5	50.5468	16,564.5	54.5626	16,564.5	52.1204	16,564.5	53.0026	16,564.5	51.1587	16,564.5	48.3144	16,564.5	52.2829	16,564.5	42.8757	16,564.5	42.6265	16,564.5	45.608	16,564.5	40.2862	16,564.5	39.9897	16,564.5	44.5256	16,564.5	40.3684	16,564.5	48.8953	16,564.5	38.6467	16,564.5	40.6785	16,564.5	44.5563	16,564.5	45.5773
17,148.9	87.7425	17,148.9	87.4475	17,148.9	87.409	17,148.9	86.1424	17,148.9	86.4537	17,148.9	84.0768	17,148.9	85.1423	17,148.9	79.8384	17,148.9	82.5044	17,148.9	73.233	17,148.9	77.9144	17,148.9	59.793	17,148.9	71.1301	17,148.9	57.342	17,148.9	60.4117	17,148.9	59.1393	17,148.9	54.234	17,148.9	52.7333	17,148.9	53.9049	17,148.9	52.7305	17,148.9	49.1841	17,148.9	47.1638	17,148.9	45.7359	17,148.9	45.8195	17,148.9	39.3622	17,148.9	45.3263	17,148.9	42.0311	17,148.9	44.3794	17,148.9	30.9685	17,148.9	42.1138	17,148.9	42.7585	17,148.9	46.5405	17,148.9	47.2615	17,148.9	48.5722	17,148.9	47.2514	17,148.9	39.9905
17,752.4	88.1123	17,752.4	87.2201	17,752.4	87.6367	17,752.4	85.1325	17,752.4	85.9088	17,752.4	82.4074	17,752.4	83.8827	17,752.4	77.3053	17,752.4	81.2493	17,752.4	70.114	17,752.4	76.5464	17,752.4	57.7201	17,752.4	69.5311	17,752.4	63.8126	17,752.4	60.8949	17,752.4	61.4051	17,752.4	57.8787	17,752.4	56.8635	17,752.4	55.9157	17,752.4	54.1689	17,752.4	48.2083	17,752.4	50.9025	17,752.4	46.5363	17,752.4	47.104	17,752.4	39.2568	17,752.4	39.5109	17,752.4	43.0815	17,752.4	42.8583	17,752.4	40.8962	17,752.4	43.8282	17,752.4	38.0754	17,752.4	41.0277	17,752.4	44.5308	17,752.4	39.7372	17,752.4	41.0457	17,752.4	43.3559
18,379.4	88.9643	18,379.4	87.69	18,379.4	88.0483	18,379.4	84.6851	18,379.4	85.2768	18,379.4	81.5173	18,379.4	82.5462	18,379.4	75.957	18,379.4	80.0712	18,379.4	68.3348	18,379.4	75.6388	18,379.4	54.6067	18,379.4	69.7197	18,379.4	63.141	18,379.4	61.7056	18,379.4	60.9688	18,379.4	58.26	18,379.4	57.0138	18,379.4	56.0166	18,379.4	53.5159	18,379.4	48.9211	18,379.4	48.3869	18,379.4	47.3817	18,379.4	40.0366	18,379.4	43.739	18,379.4	33.8396	18,379.4	48.3095	18,379.4	52.4921	18,379.4	41.2536	18,379.4	46.5755	18,379.4	39.2239	18,379.4	50.2746	18,379.4	37.4436	18,379.4	53.6348	18,379.4	29.5447	18,379.4	43.495
19,026.9	89.5592	19,026.9	88.0011	19,026.9	87.749	19,026.9	85.1494	19,026.9	83.3391	19,026.9	81.5261	19,026.9	79.5859	19,026.9	76.9589	19,026.9	78.5466	19,026.9	71.8127	19,026.9	76.2821	19,026.9	62.2113	19,026.9	71.4177	19,026.9	60.1533	19,026.9	64.4137	19,026.9	57.9799	19,026.9	44.6329	19,026.9	55.0287	19,026.9	47.8014	19,026.9	50.1386	19,026.9	38.8587	19,026.9	43.016	19,026.9	39.7011	19,026.9	31.8108	19,026.9	45.4415	19,026.9	38.8837	19,026.9	52.3888	19,026.9	36.7801	19,026.9	48.7316	19,026.9	42.897	19,026.9	47.963	19,026.9	51.7112	19,026.9	50.9412	19,026.9	50.813	19,026.9	50.6707	19,026.9	54.231
19,697.8	87.632	19,697.8	86.5718	19,697.8	85.3803	19,697.8	84.2544	19,697.8	79.3085	19,697.8	81.2574	19,697.8	71.9511	19,697.8	79.7306	19,697.8	75.7787	19,697.8	76.0493	19,697.8	77.548	19,697.8	70.6116	19,697.8	73.5681	19,697.8	61.827	19,697.8	69.4388	19,697.8	51.9264	19,697.8	63.1855	19,697.8	43.2153	19,697.8	53.7061	19,697.8	49.1018	19,697.8	52.1921	19,697.8	45.6371	19,697.8	47.2112	19,697.8	40.6756	19,697.8	35.3235	19,697.8	45.929	19,697.8	53.7	19,697.8	51.365	19,697.8	51.9679	19,697.8	39.0295	19,697.8	51.1044	19,697.8	49.6384	19,697.8	52.602	19,697.8	49.2949	19,697.8	55.6183	19,697.8	58.5395
19,999.5	85.3915	19,999.5	84.8586	19,999.5	83.8463	19,999.5	82.7575	19,999.5	78.3717	19,999.5	80.7467	19,999.5	60.1417	19,999.5	80.4937	19,999.5	74.5585	19,999.5	76.7195	19,999.5	77.5374	19,999.5	72.2959	19,999.5	74.3262	19,999.5	68.1068	19,999.5	71.0958	19,999.5	60.2734	19,999.5	66.3927	19,999.5	55.0332	19,999.5	50.9012	19,999.5	52.7929	19,999.5	55.94	19,999.5	50.1599	19,999.5	48.3893	19,999.5	40.1765	19,999.5	42.0872	19,999.5	45.6081	19,999.5	47.3508	19,999.5	50.911	19,999.5	49.8411	19,999.5	40.2195	19,999.5	51.1846	19,999.5	47.5627	19,999.5	47.301	19,999.5	49.5609	19,999.5	45.5759	19,999.5	53.2163
